Data from Apollo_Calib_20240827__AbsoluteIrradiance__565__08-34-00-274.txt Node

Date: Wed Aug 28 08:34:00 BST 2024
User: biology
Spectrometer: FLMT08252
Trigger mode: 0
Integration Time (sec): 5.000000E-1
Scans to average: 5
Electric dark correction enabled: true
Nonlinearity correction enabled: false
Boxcar width: 0
XAxis mode: Wavelengths
Number of Pixels in Spectrum: 3648
>>>>>Begin Spectral Data<<<<<
179.588	-0
179.809	-0
180.03	-0
180.251	-0
180.473	-0
180.694	0
180.915	0
181.136	-0
181.357	-0
181.578	-0
181.799	-0
182.02	-0
182.241	0
182.462	-0
182.683	0
182.904	-0
183.125	-0
183.346	0
183.567	0
183.788	-0
184.009	-0
184.23	-0
184.451	0
184.672	-0
184.892	-0
185.113	0
185.334	0
185.555	-0
185.776	0
185.996	0
186.217	0
186.438	0
186.659	-0
186.879	0
187.1	-0
187.321	-0
187.541	-0
187.762	0
187.983	0
188.203	0
188.424	0
188.644	-0
188.865	0
189.086	-0
189.306	-0
189.527	-0
189.747	0
189.968	-0
190.188	0
190.409	0
190.629	0
190.849	0
191.07	0
191.29	0
191.511	0
191.731	-0
191.951	-0
192.172	-0
192.392	0
192.612	-0
192.833	-0
193.053	0
193.273	0
193.493	-0
193.714	0
193.934	0
194.154	0
194.374	0
194.594	0
194.815	0
195.035	0
195.255	0
195.475	-0
195.695	0
195.915	0
196.135	-0
196.355	0
196.575	0
196.795	0
197.015	-0
197.235	-0
197.455	-0
197.675	0
197.895	-0
198.115	-0
198.335	0
198.555	0
198.775	0
198.995	0
199.214	0
199.434	0
199.654	-0
199.874	-0
200.094	1.14
200.313	0.38
200.533	-0.14
200.753	-0.15
200.973	0.28
201.192	0.6
201.412	-0.72
201.632	-0.22
201.851	0.99
202.071	-0.31
202.291	0.19
202.51	-0.44
202.73	0.86
202.95	0.05
203.169	-0.03
203.389	-0.01
203.608	-0.1
203.828	-0.39
204.047	-0.28
204.267	0.44
204.486	-0.17
204.706	0.41
204.925	-0.08
205.145	-0.2
205.364	0.39
205.583	0.78
205.803	-0.16
206.022	-0.47
206.242	-0.2
206.461	0.17
206.68	-0.29
206.9	0.17
207.119	0.77
207.338	0.49
207.557	-0.07
207.777	-0.12
207.996	-0.12
208.215	0.5
208.434	-0.21
208.654	-0.55
208.873	0.17
209.092	0.67
209.311	-0.2
209.53	-0.03
209.749	-0.16
209.968	-0.3
210.187	0.08
210.407	-0.33
210.626	0.04
210.845	0.29
211.064	0.01
211.283	-0.08
211.502	0.17
211.721	0.11
211.94	0.17
212.159	0.23
212.377	0.38
212.596	0.45
212.815	0
213.034	0.09
213.253	0.45
213.472	0.39
213.691	-0.15
213.91	-0.18
214.128	0.07
214.347	0.39
214.566	-0.2
214.785	-0.12
215.003	0.18
215.222	0.02
215.441	0.18
215.66	-0.14
215.878	0.24
216.097	0.41
216.316	-0.21
216.534	-0.02
216.753	-0.05
216.972	-0.04
217.19	0.06
217.409	0
217.627	-0.05
217.846	-0.11
218.064	0.03
218.283	-0.04
218.501	0.36
218.72	0.32
218.938	-0.12
219.157	-0.2
219.375	0.33
219.594	0.15
219.812	-0.2
220.031	-0.2
220.249	0.35
220.467	0.43
220.686	-0.04
220.904	-0.18
221.122	-0.14
221.341	0.38
221.559	0.13
221.777	-0.13
221.995	-0.09
222.214	0.16
222.432	-0.08
222.65	0.23
222.868	0.04
223.086	0.02
223.305	0.15
223.523	0.02
223.741	0.37
223.959	-0.09
224.177	-0.2
224.395	0.06
224.613	0.04
224.831	0.12
225.049	-0.07
225.267	0.02
225.485	0.03
225.703	-0
225.921	0.04
226.139	0.03
226.357	0.17
226.575	0.12
226.793	-0.05
227.011	0.47
227.229	0.07
227.447	0.2
227.665	-0.19
227.883	-0.22
228.1	0.1
228.318	0.06
228.536	-0.13
228.754	-0.14
228.972	0.12
229.189	0.19
229.407	0.13
229.625	-0.09
229.843	0.26
230.06	-0.01
230.278	-0.07
230.496	-0.04
230.713	0.04
230.931	0.2
231.149	0.09
231.366	-0.14
231.584	0.06
231.801	0.31
232.019	0.03
232.236	-0.07
232.454	-0.03
232.671	-0.01
232.889	-0.02
233.106	-0.07
233.324	-0.03
233.541	0.05
233.759	-0.01
233.976	-0.11
234.194	0.02
234.411	0.04
234.628	-0.1
234.846	0.05
235.063	-0.02
235.28	-0.01
235.498	0.04
235.715	-0.11
235.932	0.06
236.149	0.09
236.367	-0.15
236.584	0.03
236.801	-0.1
237.018	0.15
237.236	0.04
237.453	-0.06
237.67	0.12
237.887	0.04
238.104	0.02
238.321	-0.16
238.538	-0.06
238.755	0.14
238.973	-0.12
239.19	0.05
239.407	0.08
239.624	0.17
239.841	-0.15
240.058	-0.08
240.275	0.05
240.492	0.03
240.709	0.05
240.925	0.06
241.142	0.09
241.359	-0.06
241.576	-0.09
241.793	-0.03
242.01	-0.02
242.227	0.17
242.444	0.02
242.66	0.15
242.877	0.05
243.094	0.03
243.311	0.04
243.527	0.01
243.744	0.06
243.961	0.03
244.178	-0.02
244.394	-0.02
244.611	0.12
244.828	0.2
245.044	-0.01
245.261	0.02
245.477	0.02
245.694	-0.02
245.911	0
246.127	-0.01
246.344	0.21
246.56	-0.01
246.777	0
246.993	-0.07
247.21	0.09
247.426	0.04
247.643	-0.02
247.859	-0.09
248.076	-0.03
248.292	0.2
248.508	0
248.725	0.13
248.941	0.17
249.157	0.15
249.374	-0.07
249.59	-0.04
249.806	0.04
250.023	0.06
250.239	0.05
250.455	-0
250.671	0.01
250.888	0.1
251.104	0.11
251.32	0.03
251.536	0.01
251.752	-0
251.969	0.03
252.185	0.11
252.401	0.21
252.617	0.09
252.833	0.02
253.049	0.07
253.265	0.03
253.481	0.09
253.697	-0.02
253.913	-0.09
254.129	0.02
254.345	0.06
254.561	0
254.777	-0.03
254.993	0.1
255.209	0
255.425	-0.04
255.641	-0.04
255.857	0.12
256.073	-0.01
256.288	-0.12
256.504	0.03
256.72	0.05
256.936	0.07
257.152	0.06
257.367	-0.02
257.583	0.04
257.799	0.07
258.015	-0.05
258.23	0.03
258.446	0.12
258.662	0.06
258.877	-0.05
259.093	-0.01
259.309	0.01
259.524	0.04
259.74	0.02
259.955	-0.09
260.171	0.04
260.387	0.01
260.602	0.16
260.818	0.02
261.033	-0.08
261.249	0.04
261.464	-0.08
261.68	-0.07
261.895	0.06
262.11	0.08
262.326	0.03
262.541	-0.07
262.757	0.09
262.972	0.04
263.187	0.03
263.403	-0.03
263.618	0.05
263.833	0.01
264.049	-0.05
264.264	0.01
264.479	0.04
264.694	0.14
264.91	-0.06
265.125	-0.02
265.34	0.08
265.555	0.16
265.77	0.08
265.986	-0
266.201	0.09
266.416	0.14
266.631	-0.02
266.846	0.02
267.061	0.08
267.276	0.04
267.491	-0.14
267.706	0.05
267.921	0.01
268.136	0.04
268.351	0.03
268.566	-0.06
268.781	0.09
268.996	0.06
269.211	0.02
269.426	-0.03
269.641	-0.04
269.856	0.05
270.071	-0.1
270.285	-0.05
270.5	0.11
270.715	0.07
270.93	-0
271.145	0.04
271.359	0.05
271.574	-0.07
271.789	0.04
272.004	-0.1
272.218	-0.03
272.433	0.1
272.648	-0.03
272.862	0.07
273.077	0.02
273.292	-0
273.506	-0.01
273.721	-0.04
273.936	0.11
274.15	0.04
274.365	0.01
274.579	0.04
274.794	0.06
275.008	0.06
275.223	-0.02
275.437	0.03
275.652	0.02
275.866	0.06
276.081	-0
276.295	0.05
276.509	0.03
276.724	0.02
276.938	0.05
277.153	0.08
277.367	0.05
277.581	-0.02
277.796	-0
278.01	-0.05
278.224	0.07
278.438	0.15
278.653	-0.04
278.867	-0.02
279.081	-0.14
279.295	-0.01
279.51	0.02
279.724	-0.02
279.938	0.07
280.152	0.02
280.366	-0.06
280.58	0.01
280.794	0.09
281.008	0.06
281.222	0.04
281.437	0.07
281.651	0.05
281.865	0.05
282.079	-0.03
282.293	-0.13
282.507	-0.06
282.721	0.03
282.935	-0.02
283.148	-0.06
283.362	-0.06
283.576	-0.04
283.79	0.03
284.004	-0.02
284.218	0.09
284.432	-0.01
284.646	0.03
284.859	0.03
285.073	-0.01
285.287	0.04
285.501	0
285.714	0.03
285.928	-0.03
286.142	-0.05
286.356	0.05
286.569	0.02
286.783	0.08
286.997	0.01
287.21	0.04
287.424	0.03
287.637	0.01
287.851	-0.04
288.065	0.07
288.278	0.01
288.492	0.03
288.705	0.03
288.919	0.06
289.132	-0.03
289.346	0.13
289.559	-0.06
289.773	-0.05
289.986	-0.02
290.2	0.04
290.413	0.06
290.626	-0.03
290.84	0.01
291.053	0.02
291.267	0.09
291.48	0.02
291.693	0.01
291.906	-0.01
292.12	0.03
292.333	0.05
292.546	0.03
292.76	0.11
292.973	0.03
293.186	0.06
293.399	-0
293.612	0.08
293.826	0.04
294.039	0.01
294.252	0.01
294.465	0.02
294.678	0.06
294.891	0.05
295.104	-0.02
295.317	0.01
295.53	0.02
295.743	-0.01
295.956	0
296.169	0.06
296.382	0.03
296.595	0.04
296.808	0.02
297.021	0.04
297.234	0.07
297.447	0.01
297.66	0.03
297.873	0.06
298.086	-0
298.299	-0.01
298.511	-0.02
298.724	-0
298.937	-0.03
299.15	-0.01
299.363	0.02
299.575	0.02
299.788	0.05
300.001	0.02
300.213	-0
300.426	-0
300.639	-0.03
300.852	-0.01
301.064	0.04
301.277	0.07
301.489	0.06
301.702	0.05
301.915	0
302.127	0.03
302.34	-0.01
302.552	0.07
302.765	-0.02
302.977	0.05
303.19	-0.04
303.402	-0.01
303.615	-0.02
303.827	0.02
304.04	0
304.252	0.05
304.464	0.01
304.677	0.11
304.889	0.07
305.102	-0.03
305.314	0.01
305.526	0.05
305.739	0.03
305.951	-0.04
306.163	-0.03
306.375	0.04
306.588	0.01
306.8	-0.01
307.012	-0.01
307.224	0.02
307.436	0.05
307.649	-0.05
307.861	0.02
308.073	0.06
308.285	-0.01
308.497	-0.02
308.709	-0
308.921	0.01
309.133	0.07
309.346	-0
309.558	-0.01
309.77	0.07
309.982	0.04
310.194	0.04
310.406	-0.04
310.617	0.12
310.829	0.03
311.041	0.06
311.253	0.02
311.465	0.01
311.677	0
311.889	0.01
312.101	0.02
312.313	0.02
312.524	0.07
312.736	-0.01
312.948	0
313.16	0.06
313.372	0.05
313.583	0.04
313.795	-0.01
314.007	-0.02
314.218	0.04
314.43	0.03
314.642	-0.01
314.853	-0.03
315.065	0.06
315.277	-0.01
315.488	0.05
315.7	0.04
315.912	0.04
316.123	0.01
316.335	0.01
316.546	0.11
316.758	0.05
316.969	-0
317.181	0.02
317.392	0.01
317.604	0.07
317.815	-0.06
318.026	0.01
318.238	-0.04
318.449	0.02
318.661	-0.02
318.872	-0.02
319.083	-0.03
319.295	0.04
319.506	-0.02
319.717	0.01
319.929	0.03
320.14	0.05
320.351	0.02
320.562	-0
320.774	0.07
320.985	0.06
321.196	-0.02
321.407	-0.07
321.618	0.03
321.829	-0
322.041	0.05
322.252	0.03
322.463	0.07
322.674	0
322.885	-0.04
323.096	0.01
323.307	0.02
323.518	0.06
323.729	-0.04
323.94	-0.04
324.151	-0.02
324.362	0.02
324.573	0.05
324.784	-0.04
324.995	0.06
325.206	0.01
325.417	-0.02
325.628	0.02
325.838	0.01
326.049	0.03
326.26	0.1
326.471	0.01
326.682	0.03
326.892	0.01
327.103	-0.07
327.314	-0.02
327.525	0.07
327.735	-0
327.946	-0
328.157	-0.02
328.368	0.01
328.578	-0.01
328.789	0.04
328.999	0.01
329.21	0
329.421	0.05
329.631	-0.01
329.842	-0.05
330.052	0.03
330.263	0.07
330.473	0.06
330.684	-0
330.894	0
331.105	0.02
331.315	0.01
331.526	-0.03
331.736	0.06
331.947	0.08
332.157	0.01
332.367	-0.01
332.578	0.04
332.788	0.05
332.999	0.05
333.209	-0.03
333.419	-0.01
333.629	0.04
333.84	0.04
334.05	-0.01
334.26	0.06
334.47	0.03
334.681	0.03
334.891	0.01
335.101	0.06
335.311	0.08
335.521	-0.01
335.732	-0.03
335.942	0.08
336.152	0.07
336.362	0.04
336.572	0.02
336.782	0.06
336.992	-0.01
337.202	-0.02
337.412	0.04
337.622	0.01
337.832	0.04
338.042	0.01
338.252	-0.04
338.462	-0.04
338.672	0.02
338.882	0.05
339.092	0
339.302	0.1
339.511	0.03
339.721	-0.02
339.931	0.01
340.141	0.07
340.351	0.06
340.561	0.01
340.77	-0.01
340.98	0.03
341.19	0.05
341.4	0.01
341.609	0
341.819	-0.03
342.029	-0.03
342.238	0.03
342.448	-0.07
342.658	0.06
342.867	0.04
343.077	-0
343.286	0.03
343.496	0.02
343.706	0.07
343.915	-0.04
344.125	0.02
344.334	0.02
344.544	-0.04
344.753	-0.07
344.963	-0.02
345.172	0
345.381	0.01
345.591	-0.02
345.8	0.05
346.01	0.05
346.219	0.07
346.428	-0.02
346.638	0.01
346.847	-0.01
347.056	0.04
347.266	0
347.475	-0.01
347.684	0.01
347.893	0
348.103	0.03
348.312	0
348.521	-0.01
348.73	0.01
348.94	0.06
349.149	-0.02
349.358	-0
349.567	-0.02
349.776	-0.06
349.985	0.01
350.194	0.05
350.403	0.06
350.612	-0.04
350.821	-0.01
351.03	-0.01
351.239	-0.04
351.448	0.01
351.657	-0.02
351.866	0.09
352.075	-0.02
352.284	0.03
352.493	-0.05
352.702	0.04
352.911	0
353.12	0.01
353.329	0
353.538	-0
353.746	0.04
353.955	0.01
354.164	0.04
354.373	-0
354.582	0.04
354.79	0.01
354.999	0.04
355.208	-0
355.416	0.09
355.625	-0.01
355.834	-0.01
356.042	0.01
356.251	-0
356.46	-0.01
356.668	-0.01
356.877	0.12
357.085	0.04
357.294	-0.06
357.503	0.03
357.711	0.02
357.92	0.11
358.128	0.01
358.337	0.01
358.545	0.05
358.754	0
358.962	0.04
359.17	0
359.379	-0.01
359.587	0.06
359.796	0.04
360.004	0.06
360.212	0.05
360.421	0.06
360.629	-0.01
360.837	0
361.046	0.05
361.254	0.1
361.462	0.03
361.67	0.01
361.879	0.02
362.087	0.02
362.295	-0
362.503	0
362.711	-0.03
362.92	-0.01
363.128	0.02
363.336	-0
363.544	-0.03
363.752	-0.01
363.96	0.01
364.168	-0.01
364.376	-0.01
364.584	0.02
364.792	0.06
365	0.04
365.208	-0.01
365.416	0.07
365.624	0.02
365.832	-0.03
366.04	0.04
366.248	0.01
366.456	0.04
366.664	0.01
366.872	0.03
367.079	0.01
367.287	-0
367.495	0.03
367.703	0
367.911	-0
368.118	0.01
368.326	0.02
368.534	-0.04
368.742	0.07
368.949	-0.06
369.157	-0
369.365	0.02
369.572	-0
369.78	-0.03
369.988	0.05
370.195	0.03
370.403	0.03
370.61	0.01
370.818	0.06
371.026	0.06
371.233	-0.01
371.441	0.02
371.648	0.01
371.856	0.08
372.063	0.04
372.271	0.02
372.478	0
372.685	-0.01
372.893	0.04
373.1	-0.01
373.308	0
373.515	0.07
373.722	0.02
373.93	0.02
374.137	0.02
374.344	0.05
374.552	0.08
374.759	0.06
374.966	0.01
375.173	0
375.381	0.03
375.588	-0.01
375.795	-0.05
376.002	0.01
376.209	-0.03
376.417	-0.02
376.624	0.01
376.831	0.04
377.038	-0.02
377.245	-0.05
377.452	-0.02
377.659	-0.01
377.866	-0
378.073	-0.04
378.28	-0.01
378.487	0.03
378.694	0.02
378.901	0.02
379.108	-0.02
379.315	0.06
379.522	0.11
379.729	-0.03
379.936	0.04
380.143	0.03
380.35	0.03
380.557	-0.01
380.763	0.02
380.97	0.01
381.177	0.02
381.384	0.04
381.591	-0.03
381.797	-0
382.004	0.04
382.211	0.04
382.418	-0.01
382.624	0.07
382.831	0.03
383.038	-0
383.244	0.02
383.451	0.01
383.658	0.02
383.864	0.02
384.071	-0.04
384.277	0.07
384.484	-0.02
384.69	0.07
384.897	-0
385.103	0.04
385.31	-0.03
385.516	-0.01
385.723	-0.03
385.929	-0.02
386.136	-0.01
386.342	0.05
386.549	-0.01
386.755	0.07
386.961	0.06
387.168	-0.03
387.374	0.03
387.58	0.03
387.787	0.01
387.993	0.01
388.199	-0.01
388.406	0.01
388.612	-0.01
388.818	-0
389.024	-0
389.231	0.03
389.437	0.09
389.643	0.03
389.849	-0.01
390.055	0.04
390.261	0
390.467	0.05
390.674	-0.05
390.88	-0
391.086	0.04
391.292	0.01
391.498	0.08
391.704	-0
391.91	-0.05
392.116	-0.03
392.322	-0.05
392.528	0.01
392.734	-0
392.94	0.02
393.146	0
393.352	0.02
393.557	0.01
393.763	-0.03
393.969	0.02
394.175	0.02
394.381	0.02
394.587	-0.02
394.792	0.01
394.998	0.07
395.204	0.01
395.41	-0.05
395.615	0.03
395.821	0.02
396.027	0.04
396.233	-0.05
396.438	0.02
396.644	0.05
396.85	0.03
397.055	-0.03
397.261	0.06
397.466	0.06
397.672	0.01
397.878	0.06
398.083	0.03
398.289	0.02
398.494	0.04
398.7	0.03
398.905	-0.02
399.111	-0
399.316	-0.05
399.522	0
399.727	-0.02
399.932	0.01
400.138	-0.01
400.343	0.02
400.549	0.05
400.754	0.01
400.959	-0.01
401.165	0.04
401.37	0.02
401.575	0.12
401.78	-0.02
401.986	-0.03
402.191	-0.03
402.396	-0.03
402.601	0.05
402.807	0.04
403.012	-0.03
403.217	0.03
403.422	-0.05
403.627	0.04
403.832	0
404.037	0.02
404.243	0.03
404.448	-0.04
404.653	-0.02
404.858	0.03
405.063	0
405.268	-0.04
405.473	-0.03
405.678	-0.04
405.883	0.12
406.088	0.02
406.293	-0.04
406.498	-0.05
406.703	0.01
406.907	0.01
407.112	-0.04
407.317	-0.01
407.522	0.01
407.727	-0
407.932	0.03
408.136	0.04
408.341	0.01
408.546	-0.01
408.751	0
408.956	0.03
409.16	0.02
409.365	0.01
409.57	0
409.774	-0.01
409.979	0.05
410.184	-0.03
410.388	-0.05
410.593	0.04
410.798	0.01
411.002	-0.02
411.207	0.07
411.411	0.06
411.616	-0.06
411.82	-0.01
412.025	0
412.229	-0.07
412.434	0.05
412.638	0.03
412.843	-0.01
413.047	0.04
413.252	0
413.456	0.02
413.66	0.01
413.865	-0.01
414.069	0.05
414.273	-0.04
414.478	-0.02
414.682	-0.01
414.886	0.03
415.091	-0.09
415.295	-0.04
415.499	0.03
415.703	-0.02
415.908	0.03
416.112	-0.06
416.316	0.03
416.52	0.02
416.724	-0.04
416.929	-0.02
417.133	0.09
417.337	-0.01
417.541	-0.03
417.745	0.01
417.949	0.02
418.153	0.03
418.357	-0.03
418.561	0.07
418.765	0.04
418.969	0.08
419.173	-0.02
419.377	-0.05
419.581	0.07
419.785	-0.04
419.989	-0.03
420.193	-0.02
420.397	-0.01
420.601	0.08
420.804	0.05
421.008	-0.02
421.212	-0.01
421.416	0
421.62	0
421.823	-0.04
422.027	0.08
422.231	0.01
422.435	-0
422.638	0
422.842	-0.02
423.046	-0.03
423.249	0.03
423.453	0.05
423.657	0.01
423.86	-0.01
424.064	0.03
424.268	0.05
424.471	-0
424.675	0.09
424.878	0.09
425.082	0
425.285	0.05
425.489	-0.04
425.692	-0.03
425.896	-0.02
426.099	0.05
426.303	0
426.506	-0.05
426.71	0.07
426.913	0.04
427.116	0.05
427.32	0.04
427.523	-0.01
427.726	0.07
427.93	-0.06
428.133	0.02
428.336	-0.01
428.54	-0.09
428.743	0.02
428.946	0.02
429.149	-0.01
429.353	0.02
429.556	-0.01
429.759	-0.03
429.962	-0.06
430.165	0.03
430.368	0.06
430.571	-0.09
430.775	0.01
430.978	0
431.181	0.01
431.384	0.02
431.587	0
431.79	0
431.993	-0.03
432.196	0
432.399	-0.03
432.602	0.08
432.805	-0
433.008	-0.06
433.211	-0.07
433.414	0.04
433.616	-0.01
433.819	-0.03
434.022	-0.07
434.225	0.04
434.428	0.05
434.631	0.04
434.833	0
435.036	0.02
435.239	0.1
435.442	0.03
435.645	0.02
435.847	0.03
436.05	0.04
436.253	0.03
436.455	-0.04
436.658	-0
436.861	0.05
437.063	-0.02
437.266	-0.04
437.468	-0
437.671	0.09
437.874	0.01
438.076	-0.04
438.279	-0.07
438.481	-0.04
438.684	-0.04
438.886	0.06
439.089	-0.09
439.291	0.05
439.494	0.02
439.696	-0.01
439.899	-0.02
440.101	0.02
440.303	-0.06
440.506	0.05
440.708	-0.01
440.91	0.05
441.113	-0.04
441.315	0.05
441.517	-0.02
441.72	0.04
441.922	-0.05
442.124	-0.04
442.326	0
442.529	0.09
442.731	-0.03
442.933	0.07
443.135	-0.01
443.337	-0.01
443.539	-0.01
443.742	0.01
443.944	0.04
444.146	-0.04
444.348	-0.06
444.55	-0
444.752	-0.03
444.954	-0.06
445.156	0.02
445.358	0.01
445.56	0.03
445.762	-0.01
445.964	-0.01
446.166	-0.01
446.368	-0.02
446.57	0.02
446.772	-0
446.974	0.01
447.175	0.02
447.377	-0.01
447.579	-0.05
447.781	-0.07
447.983	0.08
448.184	0.05
448.386	0.05
448.588	-0.08
448.79	0.01
448.991	-0.02
449.193	0.02
449.395	0.02
449.597	0.02
449.798	0.01
450	0.04
450.202	0.05
450.403	-0.02
450.605	0.01
450.806	0.01
451.008	-0.07
451.21	0.01
451.411	-0.02
451.613	-0.03
451.814	0.03
452.016	0
452.217	-0.05
452.419	0.04
452.62	-0.03
452.821	-0.03
453.023	0.05
453.224	0.09
453.426	-0.06
453.627	0.02
453.828	0.09
454.03	-0.01
454.231	0.01
454.432	-0.03
454.634	0.07
454.835	-0
455.036	-0.05
455.238	0.04
455.439	0.06
455.64	-0.08
455.841	-0.02
456.042	0.09
456.244	0.03
456.445	-0.02
456.646	-0.07
456.847	0.01
457.048	0.04
457.249	0.01
457.45	0.18
457.651	0.01
457.852	0.08
458.054	0.03
458.255	-0
458.456	0.01
458.657	0
458.858	-0.05
459.058	0.04
459.259	0.03
459.46	-0.01
459.661	-0.03
459.862	0.15
460.063	-0.02
460.264	0.01
460.465	0.01
460.666	0.09
460.866	-0.02
461.067	0.04
461.268	0.02
461.469	-0.03
461.67	-0.01
461.87	-0.02
462.071	0.01
462.272	-0.06
462.473	0.05
462.673	0.02
462.874	-0.02
463.075	0.01
463.275	-0
463.476	0.03
463.676	-0.01
463.877	-0
464.078	-0.04
464.278	0.05
464.479	-0
464.679	0.01
464.88	-0.01
465.08	0.05
465.281	0
465.481	-0.02
465.682	-0.02
465.882	0.03
466.083	0.01
466.283	0
466.483	0
466.684	-0.06
466.884	0
467.085	-0.01
467.285	0.03
467.485	-0.02
467.686	0.02
467.886	-0.06
468.086	0.02
468.286	0.01
468.487	0.02
468.687	-0.01
468.887	-0.03
469.087	0.03
469.287	0.03
469.488	-0.05
469.688	0.01
469.888	0.06
470.088	0.04
470.288	0.08
470.488	0.01
470.688	-0.01
470.888	-0.01
471.088	-0.03
471.288	0.03
471.488	0.04
471.688	-0.01
471.888	-0.04
472.088	0.06
472.288	0.05
472.488	-0.02
472.688	-0.04
472.888	0.01
473.088	0.02
473.288	0.01
473.488	0.02
473.688	0.05
473.887	0.03
474.087	-0.03
474.287	0.02
474.487	-0.01
474.687	0.01
474.886	0.01
475.086	-0.01
475.286	0
475.486	0
475.685	0.01
475.885	-0
476.085	-0.01
476.284	0.01
476.484	-0
476.684	0.06
476.883	0.06
477.083	0.02
477.282	0.01
477.482	0.05
477.681	0.06
477.881	0.03
478.08	-0.04
478.28	-0.02
478.479	0.06
478.679	0.11
478.878	-0
479.078	0
479.277	-0
479.477	0.01
479.676	0.05
479.875	-0.01
480.075	-0.04
480.274	0.01
480.473	0.02
480.673	-0.02
480.872	0.03
481.071	-0.01
481.271	0.01
481.47	-0.03
481.669	-0.01
481.868	-0.03
482.067	-0.01
482.267	0
482.466	-0.01
482.665	-0.02
482.864	-0.01
483.063	-0.04
483.262	0.03
483.461	0.06
483.661	0.03
483.86	0.02
484.059	-0
484.258	-0.03
484.457	-0.02
484.656	0.02
484.855	0.02
485.054	-0.07
485.253	-0.01
485.452	-0.01
485.651	0.02
485.849	0.01
486.048	-0.03
486.247	-0.02
486.446	0.02
486.645	-0.04
486.844	-0
487.043	0
487.241	0.04
487.44	-0.03
487.639	0.01
487.838	0.03
488.037	-0.01
488.235	0.05
488.434	-0
488.633	-0.02
488.831	0.03
489.03	0.05
489.229	0.03
489.427	-0.01
489.626	0.04
489.825	0.05
490.023	0.01
490.222	-0.01
490.42	0.04
490.619	0.02
490.817	0.02
491.016	-0.02
491.214	0.04
491.413	0.01
491.611	-0.02
491.81	-0
492.008	0.02
492.207	0.04
492.405	0.02
492.604	-0.02
492.802	0.02
493	-0
493.199	-0.02
493.397	0.02
493.595	0
493.794	-0.02
493.992	0.05
494.19	0
494.388	0
494.587	-0.02
494.785	0.02
494.983	-0.02
495.181	-0
495.379	-0.01
495.578	-0.02
495.776	-0
495.974	0.02
496.172	-0.01
496.37	0
496.568	-0.02
496.766	-0.02
496.964	0.02
497.162	0
497.36	-0.02
497.558	0.04
497.756	0.04
497.954	-0.01
498.152	-0.03
498.35	0.02
498.548	-0.01
498.746	0.01
498.944	-0.02
499.142	-0
499.34	-0
499.538	0
499.736	-0.02
499.933	0.03
500.131	0.05
500.329	-0
500.527	0.03
500.725	0.01
500.922	0.03
501.12	0.01
501.318	0.01
501.516	-0.01
501.713	0.02
501.911	-0
502.109	-0.02
502.306	0.01
502.504	0.02
502.701	-0.01
502.899	-0.01
503.097	0.04
503.294	-0
503.492	0
503.689	0.02
503.887	0.01
504.084	0.05
504.282	0.02
504.479	-0.03
504.677	0.01
504.874	-0.03
505.072	-0
505.269	0
505.466	0.01
505.664	-0
505.861	-0.02
506.059	-0.02
506.256	0.03
506.453	-0.03
506.651	0.03
506.848	0.03
507.045	0.01
507.242	0.02
507.44	-0
507.637	-0.02
507.834	0.01
508.031	0.02
508.229	-0.02
508.426	0.01
508.623	0.03
508.82	-0
509.017	-0.01
509.214	0.01
509.411	0.02
509.608	-0.01
509.805	-0.01
510.003	-0.02
510.2	-0.03
510.397	0.03
510.594	-0.01
510.791	-0.01
510.988	-0
511.184	0.03
511.381	-0.01
511.578	-0.02
511.775	0.03
511.972	0.01
512.169	-0.02
512.366	0.01
512.563	0.02
512.76	-0.02
512.956	0.03
513.153	-0.02
513.35	0.01
513.547	0
513.744	-0
513.94	-0.03
514.137	0.02
514.334	0.01
514.53	0
514.727	-0
514.924	0.08
515.12	-0
515.317	-0.04
515.514	0
515.71	-0.01
515.907	0
516.103	0.02
516.3	0.03
516.497	0.02
516.693	0.05
516.89	0.01
517.086	-0.02
517.283	0.05
517.479	0
517.676	0.01
517.872	0.01
518.068	-0
518.265	-0.01
518.461	-0.02
518.658	-0
518.854	0.02
519.05	-0.02
519.247	-0.01
519.443	0.02
519.639	0.02
519.836	0
520.032	0.03
520.228	0.01
520.424	0.03
520.621	0.01
520.817	0.01
521.013	0.02
521.209	0
521.405	0.04
521.601	-0.01
521.798	0.01
521.994	0.04
522.19	-0.01
522.386	-0.04
522.582	0.01
522.778	-0
522.974	-0
523.17	-0.01
523.366	-0.01
523.562	0.02
523.758	0
523.954	-0.01
524.15	0
524.346	0.03
524.542	0
524.738	0
524.934	0.02
525.129	0.01
525.325	0
525.521	-0
525.717	0.01
525.913	0.01
526.109	0.01
526.304	-0.01
526.5	0.03
526.696	0.05
526.892	-0.01
527.087	-0
527.283	-0
527.479	0.04
527.674	-0.01
527.87	0.01
528.066	0.04
528.261	0
528.457	0.01
528.653	-0.02
528.848	-0.01
529.044	0.01
529.239	-0.02
529.435	0.05
529.63	0.03
529.826	0.03
530.021	0.02
530.217	0.01
530.412	-0.01
530.608	0.01
530.803	-0.01
530.999	0.01
531.194	-0.03
531.389	0.02
531.585	-0.05
531.78	-0
531.975	0.01
532.171	0.02
532.366	-0.01
532.561	0.01
532.757	-0.01
532.952	0.01
533.147	0.03
533.342	0.02
533.538	-0.01
533.733	0.03
533.928	-0
534.123	-0.01
534.318	-0.02
534.513	-0
534.709	0
534.904	-0.03
535.099	0
535.294	-0
535.489	0.01
535.684	-0.02
535.879	-0.03
536.074	0.02
536.269	-0.03
536.464	0.01
536.659	0.01
536.854	-0.01
537.049	0.01
537.244	0
537.439	-0
537.634	0.04
537.828	0.03
538.023	0.01
538.218	-0.02
538.413	-0
538.608	-0.02
538.803	0.03
538.997	-0.02
539.192	0.02
539.387	0.01
539.582	0.03
539.776	0.01
539.971	-0.01
540.166	-0.01
540.36	-0.03
540.555	-0.01
540.75	-0.02
540.944	-0.01
541.139	-0.02
541.334	-0.01
541.528	0.03
541.723	0.04
541.917	-0.01
542.112	-0.02
542.306	-0.01
542.501	0.01
542.695	0.01
542.89	-0.02
543.084	0.01
543.279	-0.01
543.473	-0.01
543.668	0.02
543.862	-0
544.056	0.01
544.251	0
544.445	0.02
544.64	0
544.834	-0.03
545.028	-0.01
545.222	0.03
545.417	0.01
545.611	-0
545.805	0.02
546	0.01
546.194	0.02
546.388	-0.01
546.582	0.02
546.776	-0
546.97	0.03
547.165	0.01
547.359	0.02
547.553	-0.01
547.747	0.01
547.941	0.01
548.135	0.01
548.329	0.01
548.523	0.04
548.717	0.01
548.911	-0.01
549.105	-0
549.299	0
549.493	0.04
549.687	0.02
549.881	0.02
550.075	0.01
550.269	-0.02
550.463	0.03
550.657	-0.01
550.85	0.01
551.044	-0.02
551.238	0.02
551.432	-0.02
551.626	-0.02
551.82	0.01
552.013	-0.01
552.207	0.03
552.401	0.02
552.594	0.02
552.788	-0
552.982	0.02
553.176	-0.01
553.369	0.02
553.563	0.03
553.756	-0.02
553.95	-0
554.144	0
554.337	0.03
554.531	0
554.724	0.01
554.918	-0
555.111	0.04
555.305	0.01
555.498	0.05
555.692	0.04
555.885	-0.01
556.079	0
556.272	-0.01
556.466	0.03
556.659	0
556.852	-0
557.046	0.01
557.239	0.03
557.432	-0.02
557.626	0
557.819	0.01
558.012	0.02
558.206	0.02
558.399	-0.01
558.592	0.02
558.785	0
558.979	0.04
559.172	-0.02
559.365	0.02
559.558	0.02
559.751	-0
559.944	0.01
560.138	-0
560.331	-0
560.524	-0.02
560.717	0.01
560.91	0.01
561.103	0.03
561.296	0.02
561.489	0.02
561.682	0
561.875	0.04
562.068	0.03
562.261	0.02
562.454	0.05
562.647	0.01
562.84	0.02
563.032	0
563.225	0.03
563.418	0
563.611	0
563.804	0.02
563.997	0
564.19	-0.03
564.382	-0.03
564.575	-0
564.768	0
564.961	0.01
565.153	-0.01
565.346	0.02
565.539	0.03
565.731	0.05
565.924	0.04
566.117	0.01
566.309	0
566.502	-0.01
566.695	0.01
566.887	-0.01
567.08	-0.04
567.272	-0
567.465	-0.01
567.657	0.02
567.85	0.03
568.042	0.02
568.235	0.04
568.427	0.01
568.62	-0
568.812	0.04
569.005	0.02
569.197	-0.01
569.389	-0.01
569.582	0.02
569.774	0.02
569.966	-0
570.159	0.01
570.351	0.02
570.543	-0.03
570.736	0.01
570.928	-0.02
571.12	0.01
571.312	0.01
571.505	-0.02
571.697	0.04
571.889	-0
572.081	0
572.273	-0.01
572.465	0.05
572.658	-0.01
572.85	0.04
573.042	-0.01
573.234	0.03
573.426	0.04
573.618	-0.01
573.81	0.03
574.002	0.05
574.194	0.04
574.386	-0.03
574.578	-0.04
574.77	-0.01
574.962	0.02
575.154	-0.01
575.346	0
575.538	0.03
575.729	-0.01
575.921	-0
576.113	0.01
576.305	0.01
576.497	-0.01
576.689	0.02
576.88	-0.03
577.072	0.03
577.264	0.01
577.456	0
577.647	-0.02
577.839	0.02
578.031	0.07
578.223	-0.03
578.414	-0.05
578.606	0.02
578.798	0.01
578.989	-0.01
579.181	0
579.372	0.03
579.564	0
579.755	-0
579.947	0.02
580.139	0.02
580.33	-0.02
580.522	-0.01
580.713	-0.02
580.905	0.03
581.096	0.03
581.287	0.03
581.479	0
581.67	0.04
581.862	0.03
582.053	-0.01
582.244	-0.04
582.436	0.02
582.627	-0.01
582.818	0.01
583.01	-0.01
583.201	0.03
583.392	0.02
583.583	0.02
583.775	0.02
583.966	-0.01
584.157	-0.01
584.348	-0
584.54	-0.04
584.731	0.01
584.922	0.02
585.113	-0.01
585.304	0.04
585.495	0.03
585.686	-0
585.877	0.06
586.068	0.03
586.259	0.04
586.45	0.03
586.641	0
586.832	-0.03
587.023	0.04
587.214	0.01
587.405	0.07
587.596	-0.01
587.787	0.06
587.978	0.04
588.169	0
588.36	0.01
588.551	0.01
588.742	0.01
588.932	0.05
589.123	0.04
589.314	0.06
589.505	0.06
589.696	0.02
589.886	-0
590.077	-0.01
590.268	0.02
590.458	-0
590.649	-0.01
590.84	0.05
591.03	0
591.221	-0.02
591.412	0.02
591.602	0.05
591.793	0.05
591.984	0.02
592.174	0.02
592.365	0.06
592.555	0
592.746	0.04
592.936	0.04
593.127	0.04
593.317	0.05
593.508	0
593.698	0.03
593.889	0.02
594.079	0.02
594.269	0.01
594.46	0.01
594.65	0.02
594.84	0.03
595.031	0.01
595.221	-0
595.411	-0.03
595.602	0.07
595.792	0.01
595.982	0.03
596.172	0.06
596.363	0.03
596.553	0.04
596.743	0.05
596.933	0.03
597.123	0.05
597.314	0
597.504	0
597.694	0.05
597.884	0.03
598.074	0.04
598.264	0.02
598.454	0.05
598.644	0.05
598.834	0.03
599.024	-0.03
599.214	0.03
599.404	0.06
599.594	0.01
599.784	0
599.974	0.06
600.164	0.04
600.354	0.03
600.544	0.01
600.734	0.05
600.924	0.08
601.114	0.02
601.303	0.05
601.493	0.06
601.683	0.02
601.873	0.05
602.063	0
602.252	0.07
602.442	-0
602.632	0.03
602.821	-0
603.011	0.07
603.201	0.04
603.39	0.01
603.58	0.04
603.77	0.08
603.959	0.09
604.149	0.06
604.339	0.05
604.528	0.11
604.718	0.11
604.907	0.07
605.097	0.04
605.286	0.02
605.476	0.09
605.665	0.09
605.855	0.07
606.044	0.08
606.234	0.09
606.423	0.06
606.612	0.04
606.802	0.09
606.991	0.08
607.181	0.09
607.37	0.05
607.559	0.06
607.749	0.03
607.938	0.08
608.127	0.08
608.316	0.07
608.506	0.1
608.695	0.09
608.884	0.05
609.073	0.06
609.263	0.09
609.452	0.14
609.641	0.12
609.83	0.07
610.019	0.11
610.208	0.06
610.397	0.1
610.586	0.12
610.775	0.07
610.965	0.1
611.154	0.09
611.343	0.12
611.532	0.13
611.721	0.11
611.91	0.1
612.099	0.12
612.287	0.14
612.476	0.1
612.665	0.15
612.854	0.13
613.043	0.13
613.232	0.15
613.421	0.1
613.61	0.17
613.798	0.14
613.987	0.18
614.176	0.14
614.365	0.14
614.554	0.15
614.742	0.2
614.931	0.13
615.12	0.19
615.309	0.16
615.497	0.17
615.686	0.16
615.875	0.17
616.063	0.19
616.252	0.19
616.44	0.19
616.629	0.19
616.818	0.18
617.006	0.2
617.195	0.17
617.383	0.22
617.572	0.22
617.76	0.21
617.949	0.19
618.137	0.26
618.326	0.32
618.514	0.18
618.703	0.23
618.891	0.31
619.079	0.2
619.268	0.31
619.456	0.23
619.644	0.3
619.833	0.28
620.021	0.27
620.209	0.25
620.398	0.29
620.586	0.3
620.774	0.33
620.962	0.31
621.151	0.36
621.339	0.32
621.527	0.3
621.715	0.31
621.903	0.36
622.092	0.3
622.28	0.39
622.468	0.35
622.656	0.36
622.844	0.39
623.032	0.38
623.22	0.37
623.408	0.46
623.596	0.43
623.784	0.46
623.972	0.44
624.16	0.42
624.348	0.47
624.536	0.45
624.724	0.44
624.912	0.51
625.1	0.49
625.288	0.51
625.476	0.47
625.664	0.56
625.851	0.53
626.039	0.57
626.227	0.56
626.415	0.51
626.603	0.5
626.79	0.59
626.978	0.58
627.166	0.61
627.354	0.6
627.541	0.61
627.729	0.58
627.917	0.71
628.104	0.67
628.292	0.71
628.48	0.73
628.667	0.69
628.855	0.74
629.042	0.74
629.23	0.72
629.418	0.74
629.605	0.79
629.793	0.77
629.98	0.76
630.168	0.83
630.355	0.83
630.543	0.86
630.73	0.86
630.917	0.91
631.105	0.99
631.292	0.93
631.48	0.96
631.667	1.04
631.854	0.98
632.042	0.95
632.229	0.97
632.416	1.03
632.604	1.01
632.791	1.04
632.978	1.13
633.165	1.1
633.353	1.14
633.54	1.17
633.727	1.08
633.914	1.14
634.101	1.06
634.289	1.29
634.476	1.21
634.663	1.3
634.85	1.29
635.037	1.28
635.224	1.26
635.411	1.4
635.598	1.34
635.785	1.39
635.972	1.4
636.159	1.46
636.346	1.41
636.533	1.45
636.72	1.51
636.907	1.49
637.094	1.58
637.281	1.51
637.468	1.62
637.655	1.65
637.842	1.67
638.029	1.71
638.215	1.73
638.402	1.72
638.589	1.78
638.776	1.77
638.963	1.8
639.149	1.9
639.336	1.95
639.523	1.95
639.709	1.99
639.896	1.95
640.083	2.06
640.27	2.11
640.456	2.07
640.643	2.17
640.829	2.07
641.016	2.19
641.203	2.14
641.389	2.28
641.576	2.33
641.762	2.38
641.949	2.37
642.135	2.45
642.322	2.49
642.508	2.47
642.695	2.64
642.881	2.62
643.068	2.71
643.254	2.74
643.441	2.8
643.627	2.89
643.813	2.87
644	2.98
644.186	2.93
644.372	3.05
644.559	3.12
644.745	3.12
644.931	3.18
645.118	3.28
645.304	3.37
645.49	3.39
645.676	3.42
645.862	3.52
646.049	3.6
646.235	3.63
646.421	3.85
646.607	3.88
646.793	3.84
646.979	3.88
647.165	4.04
647.352	4.1
647.538	4.14
647.724	4.22
647.91	4.29
648.096	4.39
648.282	4.48
648.468	4.56
648.654	4.67
648.84	4.73
649.026	4.83
649.212	4.82
649.397	4.93
649.583	5.01
649.769	5.16
649.955	5.21
650.141	5.31
650.327	5.3
650.513	5.49
650.698	5.59
650.884	5.55
651.07	5.76
651.256	5.81
651.442	5.88
651.627	5.86
651.813	6.24
651.999	6.16
652.184	6.25
652.37	6.46
652.556	6.45
652.741	6.59
652.927	6.49
653.113	6.71
653.298	6.8
653.484	6.95
653.669	6.99
653.855	7.08
654.04	7.23
654.226	7.31
654.412	7.39
654.597	7.39
654.782	7.59
654.968	7.61
655.153	7.76
655.339	7.89
655.524	7.87
655.71	8.06
655.895	8.17
656.08	8.24
656.266	8.36
656.451	8.36
656.636	8.39
656.822	8.44
657.007	8.5
657.192	8.57
657.378	8.59
657.563	8.5
657.748	8.65
657.933	8.83
658.118	8.58
658.304	8.71
658.489	8.71
658.674	8.62
658.859	8.55
659.044	8.46
659.229	8.5
659.414	8.46
659.599	8.31
659.785	8.23
659.97	8.08
660.155	8
660.34	7.89
660.525	7.77
660.71	7.53
660.895	7.39
661.08	7.28
661.264	7.06
661.449	6.95
661.634	6.68
661.819	6.58
662.004	6.26
662.189	6.12
662.374	5.96
662.559	5.72
662.743	5.5
662.928	5.38
663.113	5.12
663.298	4.99
663.483	4.84
663.667	4.74
663.852	4.48
664.037	4.35
664.221	4.18
664.406	4.05
664.591	3.87
664.775	3.67
664.96	3.65
665.145	3.37
665.329	3.31
665.514	3.18
665.698	3.06
665.883	2.86
666.068	2.85
666.252	2.7
666.437	2.56
666.621	2.49
666.806	2.45
666.99	2.33
667.174	2.15
667.359	2.13
667.543	2.03
667.728	2.01
667.912	1.86
668.096	1.85
668.281	1.75
668.465	1.73
668.649	1.63
668.834	1.51
669.018	1.54
669.202	1.52
669.387	1.4
669.571	1.35
669.755	1.27
669.939	1.29
670.124	1.22
670.308	1.27
670.492	1.2
670.676	1.12
670.86	1.06
671.044	0.98
671.228	1.05
671.413	0.95
671.597	0.87
671.781	0.89
671.965	0.87
672.149	0.84
672.333	0.8
672.517	0.77
672.701	0.72
672.885	0.72
673.069	0.65
673.253	0.76
673.437	0.66
673.621	0.61
673.804	0.62
673.988	0.55
674.172	0.58
674.356	0.49
674.54	0.53
674.724	0.61
674.908	0.46
675.091	0.52
675.275	0.48
675.459	0.48
675.643	0.5
675.826	0.47
676.01	0.41
676.194	0.38
676.377	0.41
676.561	0.41
676.745	0.33
676.928	0.36
677.112	0.38
677.296	0.35
677.479	0.32
677.663	0.33
677.846	0.31
678.03	0.31
678.213	0.27
678.397	0.27
678.58	0.23
678.764	0.26
678.947	0.2
679.131	0.21
679.314	0.28
679.498	0.2
679.681	0.2
679.865	0.23
680.048	0.23
680.231	0.2
680.415	0.16
680.598	0.18
680.781	0.14
680.965	0.16
681.148	0.17
681.331	0.15
681.514	0.17
681.698	0.16
681.881	0.16
682.064	0.16
682.247	0.15
682.43	0.09
682.614	0.12
682.797	0.18
682.98	0.15
683.163	0.06
683.346	0.2
683.529	0.1
683.712	0.11
683.895	0.14
684.078	0.06
684.261	0.08
684.444	0.14
684.627	0.12
684.81	0.05
684.993	0.06
685.176	0.1
685.359	0.04
685.542	0.06
685.725	0.18
685.908	0.14
686.091	0.06
686.274	0.14
686.457	0.13
686.639	0.08
686.822	0.17
687.005	0.1
687.188	0.07
687.371	0.17
687.553	0.11
687.736	0.07
687.919	0.14
688.102	0.16
688.284	0.11
688.467	0.05
688.65	0.07
688.832	0.07
689.015	0.05
689.197	0.04
689.38	0.15
689.563	0.18
689.745	0.07
689.928	0
690.11	0.1
690.293	0.08
690.475	-0.01
690.658	0.07
690.84	0.03
691.023	0.03
691.205	0.03
691.388	0.07
691.57	0.09
691.752	0.08
691.935	-0.02
692.117	0.03
692.3	0.04
692.482	0.04
692.664	0.04
692.847	0.07
693.029	0.09
693.211	0.09
693.393	0.04
693.576	0.05
693.758	0.07
693.94	-0.01
694.122	0.07
694.304	-0
694.487	0.05
694.669	0.12
694.851	0.02
695.033	0.07
695.215	0.03
695.397	0.03
695.579	0.08
695.761	-0
695.943	-0.04
696.125	0.09
696.308	0.09
696.49	-0.07
696.671	0.18
696.853	0.09
697.035	0.21
697.217	0.06
697.399	0.09
697.581	-0.03
697.763	0.03
697.945	-0.01
698.127	0.03
698.309	0.03
698.491	0.08
698.672	0.04
698.854	0.07
699.036	0.06
699.218	0.01
699.399	0.09
699.581	0.08
699.763	0.01
699.945	0.04
700.126	0.04
700.308	0.03
700.49	0.01
700.671	-0.04
700.853	0.02
701.035	-0.01
701.216	0
701.398	-0.05
701.579	-0.01
701.761	0.12
701.943	-0.02
702.124	0.01
702.306	-0.03
702.487	0.14
702.669	0.03
702.85	-0.04
703.031	0.02
703.213	0.06
703.394	0.06
703.576	0
703.757	0.14
703.938	0.08
704.12	0.13
704.301	0.02
704.483	0.01
704.664	0.06
704.845	0.1
705.026	0.07
705.208	-0.02
705.389	0.04
705.57	0.05
705.751	0.04
705.933	0.02
706.114	0.14
706.295	0.05
706.476	-0.04
706.657	0.09
706.838	0.04
707.02	0.11
707.201	-0.05
707.382	-0.04
707.563	0.04
707.744	0.02
707.925	0.01
708.106	-0.01
708.287	0.07
708.468	0.11
708.649	-0.01
708.83	0.09
709.011	0.03
709.192	0.02
709.373	-0.11
709.554	0.03
709.734	0.01
709.915	0.03
710.096	0.05
710.277	-0.06
710.458	-0.01
710.639	0.06
710.819	-0.06
711	0.02
711.181	0.12
711.362	0.08
711.542	0.06
711.723	0.04
711.904	0.12
712.085	0.1
712.265	0.05
712.446	0.02
712.627	0.06
712.807	0.04
712.988	-0.03
713.168	-0.02
713.349	-0.01
713.53	-0.12
713.71	-0.04
713.891	-0.03
714.071	0.04
714.252	0.04
714.432	0.03
714.613	-0.03
714.793	0.05
714.974	0.11
715.154	0.04
715.334	0.13
715.515	0.1
715.695	-0.04
715.876	0.03
716.056	-0.02
716.236	-0
716.417	0.01
716.597	-0.04
716.777	0.2
716.957	-0.02
717.138	0.02
717.318	-0.01
717.498	-0.07
717.678	0.01
717.859	0.1
718.039	-0.07
718.219	-0.02
718.399	0
718.579	-0.06
718.759	-0
718.939	0.05
719.12	0.05
719.3	0.05
719.48	-0.11
719.66	-0.12
719.84	0.06
720.02	0.07
720.2	0
720.38	0.02
720.56	0.11
720.74	0.03
720.92	0.02
721.1	0.02
721.279	0.04
721.459	0.02
721.639	-0
721.819	0.08
721.999	0.01
722.179	0.13
722.359	-0.03
722.538	0.09
722.718	0.01
722.898	-0.01
723.078	0
723.257	0.01
723.437	0.03
723.617	0.04
723.797	0.04
723.976	-0
724.156	0.01
724.336	0.03
724.515	0.15
724.695	-0.08
724.874	0.05
725.054	0.1
725.234	0
725.413	0.1
725.593	-0.01
725.772	0.03
725.952	0.01
726.131	0.03
726.311	0.06
726.49	0.05
726.67	-0.05
726.849	-0.02
727.028	-0.02
727.208	-0.05
727.387	0.12
727.567	-0.05
727.746	0.06
727.925	-0.05
728.105	-0.09
728.284	0.03
728.463	0.01
728.643	0.01
728.822	-0.1
729.001	0.02
729.18	0.03
729.359	0.17
729.539	0
729.718	-0.03
729.897	0.01
730.076	0
730.255	-0.05
730.434	0.03
730.614	0.06
730.793	0.06
730.972	0.04
731.151	0.06
731.33	0.07
731.509	0.07
731.688	0
731.867	0.06
732.046	-0.02
732.225	0.26
732.404	-0.05
732.583	0.03
732.762	-0.04
732.941	0.05
733.12	-0.04
733.298	-0.04
733.477	0.18
733.656	-0.08
733.835	-0.07
734.014	0.05
734.193	-0.08
734.371	0.05
734.55	-0.02
734.729	-0.07
734.908	0.11
735.086	0.05
735.265	0.1
735.444	-0.07
735.623	-0.09
735.801	-0.04
735.98	-0.02
736.159	-0.04
736.337	0.15
736.516	-0.08
736.694	0.07
736.873	0.02
737.052	0.19
737.23	0.13
737.409	-0.1
737.587	0.19
737.766	-0.18
737.944	-0.04
738.123	0.1
738.301	0.08
738.479	-0.05
738.658	0.03
738.836	-0.16
739.015	0.12
739.193	0
739.371	-0.05
739.55	-0
739.728	-0.05
739.906	0.13
740.085	0.12
740.263	-0.03
740.441	-0.11
740.62	0.16
740.798	0.11
740.976	-0.09
741.154	-0.1
741.332	0.18
741.511	-0.03
741.689	0.09
741.867	0.1
742.045	0.03
742.223	0.03
742.401	-0.03
742.579	-0.04
742.757	0.05
742.935	-0.13
743.114	0.11
743.292	-0.04
743.47	0.05
743.648	0.08
743.826	0.03
744.004	0.01
744.181	0.08
744.359	0.02
744.537	0.06
744.715	-0.01
744.893	0.03
745.071	0.03
745.249	-0.03
745.427	-0.02
745.605	0.08
745.782	-0.02
745.96	0.07
746.138	0.08
746.316	0.09
746.493	0.03
746.671	0.11
746.849	0.03
747.027	0.05
747.204	-0.07
747.382	0.11
747.56	-0.05
747.737	0.02
747.915	-0.14
748.093	0.08
748.27	-0.08
748.448	-0.02
748.625	-0.03
748.803	-0.04
748.98	-0.01
749.158	0.05
749.335	0.01
749.513	0.05
749.69	-0.03
749.868	-0.09
750.045	0.16
750.223	-0.06
750.4	-0.16
750.578	0.05
750.755	0.08
750.932	-0.08
751.11	0.1
751.287	-0.18
751.464	0.15
751.642	-0.07
751.819	0.07
751.996	0.1
752.173	0.08
752.351	-0.11
752.528	-0
752.705	-0.04
752.882	-0.07
753.06	-0.02
753.237	0
753.414	0.16
753.591	0.18
753.768	-0.02
753.945	-0.09
754.122	-0.08
754.299	0.02
754.476	-0.01
754.654	0.04
754.831	-0.04
755.008	0.01
755.185	-0.04
755.362	-0.07
755.539	0.05
755.716	-0.01
755.892	0.07
756.069	-0.02
756.246	0.03
756.423	-0.06
756.6	0.23
756.777	-0.04
756.954	0.13
757.131	0.03
757.307	-0.08
757.484	-0.14
757.661	0.01
757.838	0.02
758.015	-0.11
758.191	0.07
758.368	-0.09
758.545	0.21
758.721	-0.02
758.898	-0.05
759.075	0.15
759.251	0.09
759.428	0.09
759.605	-0.11
759.781	0.02
759.958	0.08
760.134	-0
760.311	-0.12
760.488	0.13
760.664	0.1
760.841	-0.11
761.017	-0.03
761.194	0.03
761.37	0.07
761.547	-0.03
761.723	0.07
761.899	0.08
762.076	-0.11
762.252	0
762.429	-0.02
762.605	0.11
762.781	0.02
762.958	-0.03
763.134	-0.09
763.31	-0.04
763.486	0.03
763.663	-0.09
763.839	-0.06
764.015	-0.18
764.191	-0.12
764.368	0
764.544	-0.03
764.72	0.03
764.896	0.03
765.072	0.03
765.248	-0.02
765.425	-0.03
765.601	0.06
765.777	-0.04
765.953	-0.21
766.129	-0.1
766.305	-0.17
766.481	0.05
766.657	0.01
766.833	0.18
767.009	-0.1
767.185	-0.1
767.361	-0.08
767.537	-0.18
767.713	0.14
767.889	-0.12
768.065	0.08
768.24	0.03
768.416	0.17
768.592	0.03
768.768	-0.03
768.944	0.03
769.12	-0.13
769.295	-0.12
769.471	0.02
769.647	-0
769.823	0.22
769.998	-0.05
770.174	-0.14
770.35	0.36
770.525	0.24
770.701	-0.02
770.877	0.18
771.052	-0.01
771.228	0.14
771.403	0.08
771.579	0.21
771.755	0.26
771.93	-0.18
772.106	-0.14
772.281	-0.11
772.457	-0.05
772.632	0.13
772.808	-0.12
772.983	0.05
773.159	-0.1
773.334	0.25
773.509	0.09
773.685	-0.05
773.86	0.38
774.036	0.23
774.211	0.24
774.386	0.01
774.562	0.07
774.737	0.11
774.912	-0.11
775.087	0.05
775.263	0.13
775.438	0.07
775.613	-0.1
775.788	-0.1
775.964	0.23
776.139	0.38
776.314	-0.1
776.489	0.07
776.664	0.13
776.839	-0.15
777.014	0.14
777.19	0.19
777.365	0.2
777.54	0.27
777.715	-0.04
777.89	-0.09
778.065	-0.16
778.24	-0.11
778.415	0.18
778.59	-0.21
778.765	-0.03
778.94	-0.04
779.115	-0.02
779.289	-0.1
779.464	0.08
779.639	-0.19
779.814	-0.27
779.989	-0.2
780.164	0.17
780.339	-0.01
780.513	-0.16
780.688	-0.01
780.863	0
781.038	0.11
781.212	-0.15
781.387	0.12
781.562	0.18
781.737	-0.04
781.911	0.14
782.086	-0.16
782.261	-0.11
782.435	0.26
782.61	-0.13
782.784	0.02
782.959	0.24
783.134	-0.19
783.308	-0.23
783.483	0.04
783.657	0.45
783.832	0.1
784.006	-0.37
784.181	-0.1
784.355	0.18
784.53	-0.31
784.704	0.11
784.878	0.23
785.053	0.06
785.227	0.25
785.402	0.3
785.576	-0.15
785.75	0.19
785.925	0.06
786.099	-0.12
786.273	0.13
786.448	0.21
786.622	0.27
786.796	0.09
786.97	-0.13
787.145	0.46
787.319	-0.19
787.493	-0.12
787.667	-0.2
787.841	0.1
788.015	0.24
788.19	-0.14
788.364	0.19
788.538	0.17
788.712	0.11
788.886	0.03
789.06	0.18
789.234	0.06
789.408	-0.19
789.582	-0.03
789.756	0.06
789.93	0.07
790.104	0.02
790.278	-0.09
790.452	-0.03
790.626	0.27
790.8	-0.22
790.973	0.19
791.147	0.15
791.321	0.18
791.495	0.05
791.669	0.01
791.843	0.14
792.016	0.13
792.19	0.46
792.364	-0.37
792.538	0.53
792.711	0.27
792.885	-0.12
793.059	-0.09
793.233	-0.25
793.406	0.15
793.58	0.26
793.754	-0.03
793.927	-0.05
794.101	0.23
794.274	-0.01
794.448	0.37
794.622	-0.04
794.795	0.08
794.969	-0.09
795.142	0.17
795.316	-0.14
795.489	-0.08
795.663	0.48
795.836	-0.17
796.009	-0.1
796.183	0.27
796.356	0.1
796.53	0.03
796.703	-0.3
796.876	0.52
797.05	0.1
797.223	0.1
797.396	0.15
797.57	-0.08
797.743	0.43
797.916	0.25
798.09	-0.04
798.263	0.28
798.436	0.28
798.609	-0.27
798.782	-0.09
798.956	0.06
799.129	-0.03
799.302	0.22
799.475	-0.29
799.648	-0.15
799.821	0.04
799.994	0.08
800.167	-0.31
800.34	0.01
800.514	-0.1
800.687	-0.07
800.86	-0.15
801.033	0.15
801.206	0.32
801.379	-0.38
801.551	0.1
801.724	0.03
801.897	0.38
802.07	0.01
802.243	-0.39
802.416	0.01
802.589	-0.09
802.762	-0.05
802.935	0.17
803.107	0.17
803.28	0.06
803.453	0.29
803.626	-0.08
803.798	0.12
803.971	-0.21
804.144	0.12
804.317	0.12
804.489	0.24
804.662	-0.32
804.835	0.02
805.007	-0.14
805.18	0.23
805.353	0.45
805.525	-0.4
805.698	-0.03
805.87	0.13
806.043	0.21
806.215	-0.34
806.388	0.03
806.56	0.3
806.733	0.43
806.905	0.13
807.078	-0.1
807.25	-0.18
807.423	0.12
807.595	-0.33
807.768	-0.05
807.94	0.2
808.112	-0.11
808.285	0.25
808.457	-0.14
808.629	0.09
808.802	0.03
808.974	-0.06
809.146	-0.02
809.318	-0.38
809.491	0.01
809.663	-0.02
809.835	-0.15
810.007	0.24
810.18	-0.11
810.352	-0.34
810.524	-0.15
810.696	-0.24
810.868	0.1
811.04	0.15
811.212	0.16
811.384	0.53
811.556	0.18
811.728	-0.05
811.901	0.37
812.073	-0.03
812.245	-0.12
812.417	0.22
812.589	-0.46
812.76	-0.08
812.932	0.38
813.104	0.55
813.276	0.14
813.448	0.24
813.62	0.19
813.792	0.56
813.964	0.14
814.136	0.16
814.307	-0.32
814.479	-0.39
814.651	-0.09
814.823	1.07
814.995	-0.13
815.166	0.02
815.338	0.03
815.51	0.04
815.681	0.76
815.853	0.38
816.025	0.12
816.196	0.53
816.368	0.52
816.54	-0.45
816.711	-0.5
816.883	-0.22
817.054	0.85
817.226	-0.97
817.398	0.35
817.569	0.04
817.741	0.34
817.912	-0.23
818.084	-0.02
818.255	0.5
818.426	-0.27
818.598	0.26
818.769	-0.44
818.941	0.28
819.112	0.46
819.283	0.3
819.455	-0.56
819.626	0.05
819.798	0.39
819.969	0.43
820.14	-0.04
820.311	0.02
820.483	0.61
820.654	-0
820.825	0.07
820.996	0.07
821.168	-0.16
821.339	0.05
821.51	-0.62
821.681	-0.19
821.852	0.08
822.023	-0.32
822.195	-0.33
822.366	0.56
822.537	-0.17
822.708	0.47
822.879	-0.43
823.05	0.5
823.221	0.13
823.392	0.1
823.563	-0.63
823.734	0.1
823.905	-0.08
824.076	-0.14
824.247	-0.27
824.418	-0.1
824.589	0.57
824.759	-0.28
824.93	-0.11
825.101	-0.52
825.272	0.56
825.443	0.65
825.614	0.52
825.784	-1.36
825.955	0.69
826.126	0.68
826.297	0.14
826.467	0.81
826.638	0.55
826.809	-0.64
826.98	0.45
827.15	0.13
827.321	0.05
827.492	0.84
827.662	-0.18
827.833	1.06
828.003	0.58
828.174	-0.51
828.345	-0.44
828.515	0.23
828.686	0.33
828.856	-0.16
829.027	0.3
829.197	0.34
829.368	0.28
829.538	-0.56
829.709	-0.08
829.879	0.08
830.049	-0.05
830.22	-0.15
830.39	-0.08
830.56	-0.04
830.731	0.19
830.901	-0.11
831.072	0.42
831.242	0.3
831.412	0.29
831.582	0.5
831.753	-0.7
831.923	0.13
832.093	0.24
832.263	0.14
832.434	-0.18
832.604	-0.56
832.774	0.17
832.944	-0.04
833.114	-0.07
833.284	0.03
833.454	-0.04
833.624	-0.62
833.795	-0.03
833.965	0.46
834.135	0.58
834.305	-0.3
834.475	-0.06
834.645	-0.25
834.815	-0.71
834.985	-0.48
835.155	-0.18
835.325	-0.38
835.494	0.33
835.664	0.08
835.834	-0.79
836.004	0.33
836.174	-0.05
836.344	0.03
836.514	-0.9
836.684	0.13
836.853	0.31
837.023	0.63
837.193	-0.02
837.363	0.13
837.532	0.45
837.702	0.41
837.872	-0.33
838.041	1.14
838.211	1.35
838.381	-0.45
838.55	0.31
838.72	1.17
838.89	0.25
839.059	0.2
839.229	-0.13
839.398	0.88
839.568	-0.11
839.738	0.19
839.907	0.91
840.077	-0.02
840.246	-0.24
840.416	-0.31
840.585	-0.73
840.755	1.34
840.924	0.83
841.093	-0.44
841.263	-0
841.432	0.07
841.602	-0.55
841.771	-0.92
841.94	0.06
842.11	1.8
842.279	2.36
842.448	-0.47
842.617	-0.37
842.787	1.18
842.956	-1.31
843.125	0.57
843.294	0.92
843.464	0.72
843.633	0.04
843.802	-0.3
843.971	0.06
844.14	0.73
844.309	0.55
844.479	0.02
844.648	-0.52
844.817	-0.79
844.986	-0.1
845.155	-0.08
845.324	0.42
845.493	-0.17
845.662	-0.37
845.831	0.29
846	1.1
846.169	-0.02
846.338	0.94
846.507	0.08
846.676	0.79
846.844	0.16
847.013	1.08
847.182	0.5
847.351	-0.48
847.52	-0.24
847.689	-0.13
847.858	0.35
848.026	-0.39
848.195	0.19
848.364	0.11
848.533	-0.67
848.701	-0.82
848.87	0.16
849.039	0.62
849.207	0.69
849.376	0.07
849.545	0.5
849.713	-0.2
849.882	-0.39
850.051	0.36
850.219	0.6
850.388	1.14
850.556	-0.34
850.725	-0.34
850.893	0.97
851.062	-0.54
851.23	0.5
851.399	-1.54
851.567	-0.04
851.736	-0.22
851.904	-0.58
852.073	0.75
852.241	-0.05
852.41	0.59
852.578	-0.67
852.746	-0.18
852.915	1.53
853.083	0.8
853.251	-1.84
853.42	0.19
853.588	1.04
853.756	1.54
853.924	-0.08
854.093	0.49
854.261	-0.21
854.429	-1.11
854.597	1.04
854.765	-1.38
854.934	0.8
855.102	1.36
855.27	-0.33
855.438	0.77
855.606	1.55
855.774	0.99
855.942	-1.6
856.11	-1.64
856.278	-0.16
856.446	1.37
856.614	-0.91
856.782	-1.22
856.95	1
857.118	-1.08
857.286	1.13
857.454	-0.24
857.622	1.25
857.79	1.48
857.958	-0.93
858.126	-1.12
858.294	-1.36
858.462	0.5
858.629	-0.83
858.797	-0.99
858.965	0.17
859.133	0.13
859.301	-0.25
859.468	0.85
859.636	-0.6
859.804	1.35
859.971	0.3
860.139	-0.73
860.307	-0.16
860.474	0.08
860.642	0.25
860.81	0.45
860.977	0.64
861.145	0.8
861.313	-0.85
861.48	0.03
861.648	1.12
861.815	0.27
861.983	-1.36
862.15	-0.48
862.318	0.65
862.485	0.37
862.653	-0.42
862.82	-1.27
862.988	1.87
863.155	-1.32
863.322	-1.05
863.49	-0.9
863.657	-0.58
863.824	1.58
863.992	-0.47
864.159	1.14
864.326	1.52
864.494	0.31
864.661	3.06
864.828	-0.69
864.996	1.03
865.163	2.05
865.33	-1.14
865.497	-1.28
865.664	-0.65
865.832	-1.22
865.999	-0.68
866.166	0.75
866.333	-0.81
866.5	1.04
866.667	0.97
866.834	-1.7
867.001	0.58
867.168	-2.24
867.335	1.17
867.502	-1.84
867.669	-0.35
867.836	2.87
868.003	-0.48
868.17	0.77
868.337	-1.74
868.504	3.61
868.671	-2.28
868.838	0.65
869.005	1.39
869.172	0.56
869.339	0.34
869.505	-0.18
869.672	-1.27
869.839	2.78
870.006	-0.37
870.173	-1.63
870.339	0.23
870.506	1.92
870.673	-0.07
870.84	1.89
871.006	1.79
871.173	1.3
871.34	0.15
871.506	-0.55
871.673	0.5
871.839	-0.92
872.006	0.37
872.173	-0.32
872.339	-0.71
872.506	3.41
872.672	0.38
872.839	-1.52
873.005	-0.9
873.172	1.96
873.338	1.71
873.505	0.7
873.671	0.28
873.838	0.13
874.004	-0.98
874.171	-0.18
874.337	-1.17
874.503	1.47
874.67	0.82
874.836	-1.16
875.002	1.67
875.169	2.67
875.335	0.59
875.501	-0.13
875.668	2.53
875.834	0.47
876	-0.68
876.166	1.39
876.332	1.91
876.499	2.36
876.665	0.19
876.831	-1.39
876.997	2.54
877.163	1.22
877.329	-0.96
877.495	1.06
877.662	1.35
877.828	1.94
877.994	0.82
878.16	-4
878.326	-0.25
878.492	0.25
878.658	-0.78
878.824	-0.4
878.99	2.3
879.156	-0.02
879.322	0.5
879.487	-1.54
879.653	1.64
879.819	0.68
879.985	-0.62
880.151	2.64
880.317	0.78
880.483	-0.34
880.648	0.2
880.814	-3.65
880.98	2.22
881.146	-1.92
881.312	-0.98
881.477	-1.75
881.643	1.38
881.809	2.95
881.974	2.85
882.14	-0.8
882.306	-1.76
882.471	3.4
882.637	0.24
882.803	2.2
882.968	3.08
883.134	2.56
883.299	-0.23
883.465	0.98
883.63	1.56
883.796	1.8
883.961	0.56
884.127	0.78
884.292	-2.01
884.458	-1.08
884.623	-1.08
