Data from Apollo_Calib_20240827__AbsoluteIrradiance__723__11-12-01-513.txt Node

Date: Wed Aug 28 11:12:01 BST 2024
User: biology
Spectrometer: FLMT08252
Trigger mode: 0
Integration Time (sec): 5.000000E-1
Scans to average: 5
Electric dark correction enabled: true
Nonlinearity correction enabled: false
Boxcar width: 0
XAxis mode: Wavelengths
Number of Pixels in Spectrum: 3648
>>>>>Begin Spectral Data<<<<<
179.588	-0
179.809	-0
180.03	-0
180.251	-0
180.473	-0
180.694	0
180.915	0
181.136	-0
181.357	0
181.578	0
181.799	-0
182.02	-0
182.241	-0
182.462	-0
182.683	0
182.904	-0
183.125	-0
183.346	0
183.567	0
183.788	-0
184.009	-0
184.23	0
184.451	0
184.672	0
184.892	-0
185.113	0
185.334	0
185.555	-0
185.776	0
185.996	0
186.217	0
186.438	0
186.659	0
186.879	0
187.1	-0
187.321	0
187.541	-0
187.762	0
187.983	0
188.203	0
188.424	0
188.644	0
188.865	0
189.086	0
189.306	0
189.527	0
189.747	0
189.968	-0
190.188	0
190.409	0
190.629	0
190.849	-0
191.07	0
191.29	0
191.511	0
191.731	0
191.951	0
192.172	0
192.392	0
192.612	0
192.833	0
193.053	0
193.273	0
193.493	0
193.714	0
193.934	0
194.154	0
194.374	0
194.594	0
194.815	0
195.035	0
195.255	0
195.475	-0
195.695	0
195.915	0
196.135	0
196.355	0
196.575	0
196.795	0
197.015	-0
197.235	-0
197.455	0
197.675	0
197.895	0
198.115	0
198.335	0
198.555	0
198.775	0
198.995	0
199.214	0
199.434	0
199.654	0
199.874	0
200.094	1.49
200.313	0.44
200.533	0.11
200.753	-0.31
200.973	1.23
201.192	1.25
201.412	-0.49
201.632	0.2
201.851	1.27
202.071	0.59
202.291	-0.1
202.51	-0.23
202.73	1.04
202.95	0.24
203.169	0.39
203.389	0.54
203.608	0.32
203.828	0.16
204.047	0.1
204.267	0.83
204.486	0.6
204.706	1.1
204.925	0.47
205.145	0.17
205.364	0.95
205.583	1.41
205.803	-0.01
206.022	0.01
206.242	0.22
206.461	0.65
206.68	-0.42
206.9	0.23
207.119	1.09
207.338	0.76
207.557	0.01
207.777	0.04
207.996	0.17
208.215	0.83
208.434	0.02
208.654	-0.12
208.873	0.51
209.092	0.74
209.311	0.09
209.53	0.23
209.749	0.21
209.968	-0.01
210.187	0.13
210.407	-0.09
210.626	0.34
210.845	0.39
211.064	0.3
211.283	-0.37
211.502	0.53
211.721	0.17
211.94	0.24
212.159	0.33
212.377	0.65
212.596	0.73
212.815	0.25
213.034	0.21
213.253	0.4
213.472	0.36
213.691	0.05
213.91	0.02
214.128	0.17
214.347	0.66
214.566	-0.23
214.785	-0.09
215.003	0.32
215.222	0.32
215.441	0.34
215.66	-0.08
215.878	0.05
216.097	0.63
216.316	0.17
216.534	0.17
216.753	0.29
216.972	0.3
217.19	0
217.409	0.01
217.627	0.04
217.846	0.17
218.064	0.23
218.283	0.16
218.501	0.65
218.72	0.46
218.938	-0.13
219.157	0.09
219.375	0.44
219.594	0.25
219.812	-0
220.031	0.09
220.249	0.64
220.467	0.34
220.686	0.09
220.904	-0.01
221.122	-0.05
221.341	0.63
221.559	0.22
221.777	0.05
221.995	0.18
222.214	0.3
222.432	0.09
222.65	0.47
222.868	0.11
223.086	0.14
223.305	0.42
223.523	0.05
223.741	0.36
223.959	0.21
224.177	-0.06
224.395	0.15
224.613	0.19
224.831	0.37
225.049	0.04
225.267	0.14
225.485	0.21
225.703	0.24
225.921	0.13
226.139	0.16
226.357	0.32
226.575	0.27
226.793	0.15
227.011	0.68
227.229	0.15
227.447	0.26
227.665	0.03
227.883	0.05
228.1	0.09
228.318	0.31
228.536	-0.08
228.754	-0.04
228.972	0.12
229.189	0.2
229.407	0.12
229.625	0.06
229.843	0.27
230.06	0.31
230.278	-0.02
230.496	0.19
230.713	0.29
230.931	0.25
231.149	0.09
231.366	-0.15
231.584	0.13
231.801	0.42
232.019	0.07
232.236	0.06
232.454	-0.02
232.671	0.15
232.889	0.09
233.106	0.02
233.324	-0.02
233.541	0.07
233.759	0.2
233.976	0.02
234.194	0.15
234.411	0.14
234.628	0.09
234.846	0.16
235.063	-0.01
235.28	0.07
235.498	0.18
235.715	0.04
235.932	0.19
236.149	0.04
236.367	-0.09
236.584	0.19
236.801	0.06
237.018	0.13
237.236	0.16
237.453	-0.05
237.67	0.2
237.887	0.12
238.104	0.11
238.321	-0.09
238.538	-0.03
238.755	0.24
238.973	-0.01
239.19	0.14
239.407	0.18
239.624	0.16
239.841	-0.03
240.058	0.01
240.275	0.15
240.492	0.04
240.709	0.01
240.925	0.1
241.142	0.13
241.359	0.04
241.576	0.04
241.793	0.08
242.01	0.13
242.227	0.18
242.444	0.16
242.66	0.13
242.877	0.12
243.094	0.09
243.311	0.21
243.527	0.14
243.744	0.19
243.961	0.22
244.178	0.04
244.394	0.16
244.611	0.2
244.828	0.36
245.044	-0.01
245.261	0.1
245.477	0.1
245.694	0.09
245.911	0.06
246.127	0.08
246.344	0.25
246.56	0.16
246.777	0.11
246.993	0.12
247.21	0.15
247.426	0.2
247.643	0.07
247.859	0.01
248.076	0.13
248.292	0.3
248.508	0.02
248.725	0.13
248.941	0.22
249.157	0.25
249.374	0.03
249.59	0.02
249.806	0.12
250.023	0.22
250.239	0.01
250.455	0.02
250.671	0.08
250.888	0.08
251.104	0.18
251.32	0.02
251.536	0.06
251.752	0.06
251.969	0.14
252.185	0.02
252.401	0.25
252.617	0.12
252.833	0.05
253.049	0.06
253.265	0.06
253.481	0.12
253.697	0.02
253.913	0.03
254.129	0.04
254.345	0.2
254.561	0.04
254.777	0.12
254.993	0.15
255.209	0.18
255.425	0.06
255.641	0.02
255.857	0.13
256.073	0.08
256.288	0
256.504	0.04
256.72	0.12
256.936	0.19
257.152	0.05
257.367	0.01
257.583	0.11
257.799	0.14
258.015	0.04
258.23	0.09
258.446	0.19
258.662	0.06
258.877	0.02
259.093	0.01
259.309	0.11
259.524	0.09
259.74	0.11
259.955	-0.01
260.171	0.12
260.387	0.13
260.602	0.18
260.818	0.04
261.033	0.01
261.249	0.05
261.464	0.06
261.68	-0.01
261.895	0.09
262.11	0.14
262.326	0.07
262.541	-0.02
262.757	0.18
262.972	0.12
263.187	0.13
263.403	0.13
263.618	0.15
263.833	0.15
264.049	0.06
264.264	0.07
264.479	0.06
264.694	0.16
264.91	0.03
265.125	0.05
265.34	0.14
265.555	0.19
265.77	0.14
265.986	0.02
266.201	0.15
266.416	0.17
266.631	0.07
266.846	0.07
267.061	0.11
267.276	0.14
267.491	-0.04
267.706	0.12
267.921	0.07
268.136	0.05
268.351	0.07
268.566	-0.01
268.781	0.13
268.996	0.09
269.211	0.04
269.426	-0.01
269.641	0.05
269.856	0.12
270.071	0.1
270.285	-0.02
270.5	0.18
270.715	0.14
270.93	0.06
271.145	0.09
271.359	0.21
271.574	0.06
271.789	0.11
272.004	0.03
272.218	0.05
272.433	0.12
272.648	0.02
272.862	0.17
273.077	0.03
273.292	0.08
273.506	0.02
273.721	0.1
273.936	0.05
274.15	0.13
274.365	0.03
274.579	0.16
274.794	0.11
275.008	0.18
275.223	-0.01
275.437	0
275.652	0.09
275.866	0.13
276.081	0.05
276.295	0.13
276.509	0.07
276.724	0.12
276.938	0.11
277.153	0.09
277.367	0.15
277.581	0.02
277.796	0.02
278.01	0.02
278.224	0.12
278.438	0.25
278.653	0.01
278.867	0.05
279.081	-0.13
279.295	0.1
279.51	0.12
279.724	0.01
279.938	0.14
280.152	0.12
280.366	0.06
280.58	0.04
280.794	0.13
281.008	0.05
281.222	0.13
281.437	0.18
281.651	0.08
281.865	0.17
282.079	0.07
282.293	0.02
282.507	0.03
282.721	0.08
282.935	0.07
283.148	-0.05
283.362	0.04
283.576	0.03
283.79	0.01
284.004	0.01
284.218	0.13
284.432	0.06
284.646	0.06
284.859	0.07
285.073	0.06
285.287	0.1
285.501	0.08
285.714	0.07
285.928	0.06
286.142	0.1
286.356	0.01
286.569	0.01
286.783	0.15
286.997	0.12
287.21	0.06
287.424	0.1
287.637	0.03
287.851	0.05
288.065	0.06
288.278	0.08
288.492	0.07
288.705	0.04
288.919	0.09
289.132	-0.03
289.346	0.19
289.559	0
289.773	-0.01
289.986	0
290.2	0.11
290.413	0.12
290.626	-0.01
290.84	0.06
291.053	0.09
291.267	0.18
291.48	0.08
291.693	0.08
291.906	0.03
292.12	0.08
292.333	0.03
292.546	0.03
292.76	0.12
292.973	0.07
293.186	0.08
293.399	0.05
293.612	0.09
293.826	0.08
294.039	0.07
294.252	0.06
294.465	0.14
294.678	0.09
294.891	0.1
295.104	0.02
295.317	0.04
295.53	0.11
295.743	0.03
295.956	0.07
296.169	0.18
296.382	0.15
296.595	0.04
296.808	0.06
297.021	0.13
297.234	0.15
297.447	0.02
297.66	0.11
297.873	0.11
298.086	0.06
298.299	0.01
298.511	-0.01
298.724	0.05
298.937	0.01
299.15	0.03
299.363	0.06
299.575	0.12
299.788	0.07
300.001	0.03
300.213	0.03
300.426	0.06
300.639	0.02
300.852	0.02
301.064	0.11
301.277	0.16
301.489	0.13
301.702	0.09
301.915	0.08
302.127	0.09
302.34	0.07
302.552	0.05
302.765	0.01
302.977	0.09
303.19	0.05
303.402	0.01
303.615	0.06
303.827	0.07
304.04	0.04
304.252	0.05
304.464	0.04
304.677	0.18
304.889	0.12
305.102	0.04
305.314	0.05
305.526	0.1
305.739	0.07
305.951	-0.02
306.163	0.01
306.375	0.12
306.588	0.02
306.8	0.05
307.012	0.01
307.224	0.09
307.436	0.14
307.649	0.01
307.861	0.11
308.073	0.11
308.285	0.07
308.497	0.01
308.709	-0.01
308.921	0.09
309.133	0.1
309.346	0.03
309.558	0.08
309.77	0.09
309.982	0.09
310.194	0.13
310.406	0.03
310.617	0.15
310.829	0.1
311.041	0.12
311.253	-0
311.465	0.06
311.677	0.06
311.889	0.03
312.101	0.04
312.313	0.08
312.524	0.08
312.736	0.03
312.948	0.03
313.16	0.12
313.372	0.1
313.583	0.06
313.795	0.05
314.007	0.02
314.218	0.09
314.43	0.06
314.642	0.03
314.853	-0
315.065	0.11
315.277	0.04
315.488	0.07
315.7	0.13
315.912	0.06
316.123	0.04
316.335	0.04
316.546	0.2
316.758	0.12
316.969	-0
317.181	0.08
317.392	0.06
317.604	0.1
317.815	0.01
318.026	0.04
318.238	0.05
318.449	0.09
318.661	0.03
318.872	0.03
319.083	0.02
319.295	0.1
319.506	0.05
319.717	0.05
319.929	0.11
320.14	0.08
320.351	0.07
320.562	0.05
320.774	0.1
320.985	0.07
321.196	-0.03
321.407	0.02
321.618	0.11
321.829	0.1
322.041	0.08
322.252	0.05
322.463	0.08
322.674	0.05
322.885	0.04
323.096	0.08
323.307	0.06
323.518	0.07
323.729	0.02
323.94	-0.01
324.151	0.05
324.362	0.06
324.573	0.08
324.784	0.05
324.995	0.12
325.206	0.08
325.417	0.06
325.628	0.04
325.838	0.11
326.049	0.09
326.26	0.12
326.471	0.03
326.682	0.03
326.892	0.07
327.103	-0.01
327.314	-0
327.525	0.1
327.735	0.09
327.946	0.07
328.157	0.05
328.368	0.08
328.578	0.02
328.789	0.07
328.999	0.03
329.21	0.05
329.421	0.1
329.631	0.03
329.842	0.01
330.052	0.09
330.263	0.07
330.473	0.11
330.684	0.06
330.894	0.05
331.105	0.09
331.315	0.11
331.526	0.04
331.736	0.12
331.947	0.11
332.157	0.05
332.367	-0.02
332.578	0.08
332.788	0.12
332.999	0.09
333.209	0.07
333.419	-0.01
333.629	0.1
333.84	0.1
334.05	0.07
334.26	0.16
334.47	0.06
334.681	0.11
334.891	0.06
335.101	0.14
335.311	0.17
335.521	0.02
335.732	0.01
335.942	0.15
336.152	0.1
336.362	0.06
336.572	0.07
336.782	0.13
336.992	0.04
337.202	0.03
337.412	0.04
337.622	0.11
337.832	0.05
338.042	0.04
338.252	0.07
338.462	0.01
338.672	0.06
338.882	0.05
339.092	0.09
339.302	0.14
339.511	0.07
339.721	0.03
339.931	0.03
340.141	0.12
340.351	0.09
340.561	0.08
340.77	0.03
340.98	0.1
341.19	0.09
341.4	0.01
341.609	-0.02
341.819	0.04
342.029	0.05
342.238	0.05
342.448	0.06
342.658	0.09
342.867	0.07
343.077	0.06
343.286	0.08
343.496	0.12
343.706	0.13
343.915	0
344.125	0.06
344.334	0.09
344.544	0.03
344.753	0.01
344.963	0.04
345.172	0.05
345.381	0.02
345.591	0.03
345.8	0.07
346.01	0.11
346.219	0.13
346.428	-0.04
346.638	0.03
346.847	0.03
347.056	0.16
347.266	0.03
347.475	0.05
347.684	0.1
347.893	0.1
348.103	0.05
348.312	0.05
348.521	0.07
348.73	0.05
348.94	0.07
349.149	0.07
349.358	0.06
349.567	0.05
349.776	-0.01
349.985	0.07
350.194	0.12
350.403	0.09
350.612	-0.04
350.821	0.04
351.03	0.07
351.239	-0.01
351.448	0.09
351.657	0
351.866	0.13
352.075	0.08
352.284	0.08
352.493	0.03
352.702	0.13
352.911	0.1
353.12	0.09
353.329	0.08
353.538	0.08
353.746	0.04
353.955	-0.02
354.164	0.08
354.373	0.04
354.582	0.14
354.79	0.08
354.999	0.07
355.208	0.05
355.416	0.13
355.625	0.01
355.834	0.05
356.042	0.12
356.251	0.08
356.46	0.02
356.668	0.09
356.877	0.18
357.085	0.09
357.294	-0.03
357.503	0.08
357.711	0.06
357.92	0.17
358.128	0.07
358.337	0.06
358.545	0.09
358.754	0.02
358.962	0.13
359.17	0.07
359.379	0.1
359.587	0.09
359.796	0.04
360.004	0.13
360.212	0.09
360.421	0.07
360.629	0.02
360.837	0.04
361.046	0.08
361.254	0.14
361.462	0.09
361.67	0.01
361.879	0.08
362.087	0.13
362.295	0.07
362.503	0.03
362.711	0.04
362.92	0.06
363.128	0.04
363.336	-0.02
363.544	0.04
363.752	0.09
363.96	0.04
364.168	0.03
364.376	0.04
364.584	0.06
364.792	0.11
365	0.08
365.208	0.09
365.416	0.07
365.624	0.11
365.832	0.02
366.04	0.14
366.248	0.05
366.456	0.06
366.664	0.05
366.872	0.07
367.079	0.01
367.287	0.03
367.495	0.08
367.703	0.06
367.911	0.05
368.118	0.08
368.326	0.06
368.534	0.03
368.742	0.05
368.949	-0
369.157	0.01
369.365	0.09
369.572	0.04
369.78	0.02
369.988	0.09
370.195	0.09
370.403	0.07
370.61	0.07
370.818	0.07
371.026	0.07
371.233	0.05
371.441	0.08
371.648	0.04
371.856	0.08
372.063	0.09
372.271	0.03
372.478	0.08
372.685	0.04
372.893	0.11
373.1	0.03
373.308	0.03
373.515	0.15
373.722	0.1
373.93	0.03
374.137	0.09
374.344	0.14
374.552	0.07
374.759	0.08
374.966	0.02
375.173	0.03
375.381	0.08
375.588	0.04
375.795	-0.01
376.002	0.04
376.209	0.02
376.417	0.1
376.624	0.08
376.831	0.11
377.038	0.07
377.245	0
377.452	0.01
377.659	0.03
377.866	0.05
378.073	0.08
378.28	0.04
378.487	0.1
378.694	0.11
378.901	0.04
379.108	0.05
379.315	0.08
379.522	0.17
379.729	0.05
379.936	0.07
380.143	0.06
380.35	0.07
380.557	0.06
380.763	0.03
380.97	0.05
381.177	0.09
381.384	0.1
381.591	0.1
381.797	0.11
382.004	0.09
382.211	0.07
382.418	0.01
382.624	0.13
382.831	0.12
383.038	0.06
383.244	0.06
383.451	0.07
383.658	0.1
383.864	0.06
384.071	0.06
384.277	0.13
384.484	0.03
384.69	0.12
384.897	0
385.103	0.09
385.31	0.05
385.516	0.05
385.723	0.08
385.929	0.03
386.136	0.01
386.342	0.09
386.549	0.06
386.755	0.1
386.961	0.08
387.168	0.07
387.374	0.07
387.58	0.1
387.787	0.06
387.993	0.08
388.199	0.04
388.406	0.02
388.612	0.04
388.818	0.11
389.024	0.06
389.231	0.1
389.437	0.12
389.643	0.11
389.849	0.1
390.055	0.07
390.261	0.07
390.467	0.1
390.674	0.05
390.88	0.09
391.086	0.12
391.292	0.06
391.498	0.13
391.704	0.04
391.91	0.05
392.116	0.01
392.322	-0.02
392.528	0.08
392.734	0.07
392.94	0.07
393.146	0.06
393.352	0.11
393.557	0.04
393.763	0.06
393.969	0.1
394.175	0.06
394.381	0.06
394.587	0.06
394.792	0.07
394.998	0.09
395.204	0.12
395.41	0.03
395.615	0.1
395.821	0.09
396.027	0.11
396.233	0.05
396.438	0.09
396.644	0.1
396.85	0.13
397.055	0.03
397.261	0.13
397.466	0.17
397.672	0.09
397.878	0.14
398.083	0.07
398.289	0.02
398.494	0.13
398.7	0.11
398.905	0.02
399.111	0.16
399.316	0.02
399.522	0.09
399.727	0.07
399.932	0.03
400.138	0.03
400.343	0.12
400.549	0.07
400.754	0.07
400.959	0.15
401.165	0.11
401.37	0.07
401.575	0.01
401.78	0.08
401.986	0.07
402.191	0.08
402.396	0.08
402.601	0.13
402.807	0.12
403.012	0.08
403.217	0.11
403.422	0.13
403.627	0.09
403.832	0.06
404.037	0.14
404.243	0.1
404.448	0.08
404.653	0.09
404.858	0.12
405.063	0.11
405.268	0.1
405.473	0.07
405.678	0.06
405.883	0.23
406.088	0.14
406.293	0.06
406.498	0.08
406.703	0.14
406.907	0.1
407.112	0.08
407.317	0.13
407.522	0.15
407.727	0.1
407.932	0.12
408.136	0.2
408.341	0.12
408.546	0.14
408.751	0.13
408.956	0.13
409.16	0.2
409.365	0.14
409.57	0.15
409.774	0.14
409.979	0.21
410.184	0.18
410.388	0.08
410.593	0.22
410.798	0.16
411.002	0.15
411.207	0.22
411.411	0.11
411.616	0.13
411.82	0.16
412.025	0.22
412.229	0.16
412.434	0.24
412.638	0.19
412.843	0.18
413.047	0.19
413.252	0.22
413.456	0.2
413.66	0.25
413.865	0.23
414.069	0.32
414.273	0.27
414.478	0.22
414.682	0.22
414.886	0.27
415.091	0.26
415.295	0.24
415.499	0.31
415.703	0.22
415.908	0.33
416.112	0.19
416.316	0.38
416.52	0.36
416.724	0.28
416.929	0.33
417.133	0.48
417.337	0.37
417.541	0.43
417.745	0.39
417.949	0.43
418.153	0.48
418.357	0.38
418.561	0.58
418.765	0.44
418.969	0.58
419.173	0.59
419.377	0.52
419.581	0.67
419.785	0.6
419.989	0.56
420.193	0.63
420.397	0.71
420.601	0.74
420.804	0.76
421.008	0.72
421.212	0.79
421.416	0.75
421.62	0.74
421.823	0.77
422.027	0.85
422.231	0.78
422.435	0.79
422.638	0.83
422.842	0.87
423.046	0.86
423.249	0.97
423.453	0.95
423.657	0.97
423.86	0.98
424.064	1.03
424.268	1.12
424.471	1
424.675	1.14
424.878	1.16
425.082	1.15
425.285	1.28
425.489	1.21
425.692	1.23
425.896	1.2
426.099	1.3
426.303	1.26
426.506	1.28
426.71	1.38
426.913	1.52
427.116	1.51
427.32	1.5
427.523	1.5
427.726	1.66
427.93	1.55
428.133	1.62
428.336	1.65
428.54	1.71
428.743	1.79
428.946	1.92
429.149	1.83
429.353	1.84
429.556	1.85
429.759	1.91
429.962	1.86
430.165	1.94
430.368	1.88
430.571	1.89
430.775	1.89
430.978	1.87
431.181	1.87
431.384	1.94
431.587	1.95
431.79	2.07
431.993	1.96
432.196	2.03
432.399	2.14
432.602	2.16
432.805	2.14
433.008	2.33
433.211	2.21
433.414	2.41
433.616	2.38
433.819	2.41
434.022	2.37
434.225	2.46
434.428	2.51
434.631	2.7
434.833	2.48
435.036	2.61
435.239	2.61
435.442	2.73
435.645	2.74
435.847	2.7
436.05	2.88
436.253	2.87
436.455	2.82
436.658	2.93
436.861	3.02
437.063	2.96
437.266	2.99
437.468	3.05
437.671	3.21
437.874	3.21
438.076	3.06
438.279	3.19
438.481	3.2
438.684	3.44
438.886	3.38
439.089	3.44
439.291	3.46
439.494	3.59
439.696	3.64
439.899	3.75
440.101	3.92
440.303	3.95
440.506	4.2
440.708	4.11
440.91	4.21
441.113	4.34
441.315	4.38
441.517	4.33
441.72	4.49
441.922	4.42
442.124	4.39
442.326	4.56
442.529	4.66
442.731	4.6
442.933	4.75
443.135	4.7
443.337	4.72
443.539	4.91
443.742	4.76
443.944	5
444.146	4.9
444.348	4.91
444.55	4.86
444.752	5.03
444.954	5.06
445.156	5.01
445.358	5.18
445.56	5.34
445.762	5.26
445.964	5.25
446.166	5.3
446.368	5.25
446.57	5.38
446.772	5.3
446.974	5.18
447.175	5.25
447.377	5.15
447.579	5.36
447.781	5.18
447.983	5.22
448.184	5.15
448.386	5.25
448.588	5.07
448.79	5.04
448.991	5.14
449.193	5.12
449.395	5
449.597	4.91
449.798	4.92
450	4.74
450.202	4.81
450.403	4.82
450.605	4.78
450.806	4.6
451.008	4.51
451.21	4.45
451.411	4.38
451.613	4.12
451.814	4.25
452.016	4.19
452.217	4.02
452.419	3.99
452.62	3.85
452.821	3.77
453.023	3.78
453.224	3.57
453.426	3.48
453.627	3.26
453.828	3.32
454.03	3.29
454.231	3.26
454.432	3.25
454.634	3.24
454.835	3.02
455.036	2.98
455.238	2.96
455.439	2.9
455.64	2.73
455.841	2.65
456.042	2.73
456.244	2.63
456.445	2.5
456.646	2.35
456.847	2.36
457.048	2.4
457.249	2.48
457.45	2.51
457.651	2.17
457.852	2.14
458.054	1.99
458.255	2.02
458.456	2.06
458.657	1.94
458.858	1.81
459.058	1.77
459.259	1.89
459.46	1.73
459.661	1.75
459.862	1.88
460.063	1.72
460.264	1.72
460.465	1.59
460.666	1.75
460.866	1.56
461.067	1.48
461.268	1.52
461.469	1.46
461.67	1.45
461.87	1.4
462.071	1.46
462.272	1.38
462.473	1.4
462.673	1.45
462.874	1.36
463.075	1.38
463.275	1.28
463.476	1.43
463.676	1.4
463.877	1.33
464.078	1.35
464.278	1.41
464.479	1.31
464.679	1.27
464.88	1.23
465.08	1.34
465.281	1.2
465.481	1.1
465.682	1.13
465.882	1.18
466.083	1.09
466.283	1.13
466.483	1.06
466.684	0.94
466.884	0.95
467.085	0.93
467.285	0.98
467.485	0.96
467.686	0.96
467.886	0.85
468.086	0.91
468.286	0.95
468.487	0.99
468.687	0.91
468.887	0.83
469.087	0.93
469.287	0.87
469.488	0.79
469.688	0.89
469.888	0.9
470.088	0.88
470.288	0.86
470.488	0.84
470.688	0.75
470.888	0.72
471.088	0.7
471.288	0.76
471.488	0.75
471.688	0.77
471.888	0.68
472.088	0.76
472.288	0.71
472.488	0.7
472.688	0.66
472.888	0.65
473.088	0.68
473.288	0.65
473.488	0.62
473.688	0.72
473.887	0.65
474.087	0.62
474.287	0.63
474.487	0.58
474.687	0.6
474.886	0.6
475.086	0.64
475.286	0.61
475.486	0.58
475.685	0.55
475.885	0.54
476.085	0.56
476.284	0.59
476.484	0.62
476.684	0.6
476.883	0.62
477.083	0.58
477.282	0.54
477.482	0.61
477.681	0.61
477.881	0.56
478.08	0.46
478.28	0.52
478.479	0.58
478.679	0.59
478.878	0.53
479.078	0.51
479.277	0.52
479.477	0.54
479.676	0.58
479.875	0.51
480.075	0.45
480.274	0.55
480.473	0.57
480.673	0.47
480.872	0.54
481.071	0.57
481.271	0.56
481.47	0.51
481.669	0.52
481.868	0.51
482.067	0.47
482.267	0.45
482.466	0.5
482.665	0.46
482.864	0.47
483.063	0.49
483.262	0.53
483.461	0.55
483.661	0.57
483.86	0.56
484.059	0.54
484.258	0.5
484.457	0.5
484.656	0.52
484.855	0.57
485.054	0.46
485.253	0.5
485.452	0.48
485.651	0.54
485.849	0.54
486.048	0.5
486.247	0.49
486.446	0.54
486.645	0.49
486.844	0.54
487.043	0.49
487.241	0.56
487.44	0.52
487.639	0.56
487.838	0.57
488.037	0.59
488.235	0.61
488.434	0.55
488.633	0.48
488.831	0.62
489.03	0.61
489.229	0.58
489.427	0.59
489.626	0.62
489.825	0.63
490.023	0.62
490.222	0.6
490.42	0.61
490.619	0.62
490.817	0.63
491.016	0.61
491.214	0.68
491.413	0.62
491.611	0.65
491.81	0.63
492.008	0.64
492.207	0.67
492.405	0.67
492.604	0.6
492.802	0.65
493	0.69
493.199	0.7
493.397	0.71
493.595	0.73
493.794	0.7
493.992	0.76
494.19	0.71
494.388	0.75
494.587	0.69
494.785	0.77
494.983	0.71
495.181	0.77
495.379	0.79
495.578	0.78
495.776	0.8
495.974	0.81
496.172	0.83
496.37	0.84
496.568	0.84
496.766	0.83
496.964	0.87
497.162	0.89
497.36	0.84
497.558	0.9
497.756	0.94
497.954	0.92
498.152	0.88
498.35	0.96
498.548	0.92
498.746	0.96
498.944	0.92
499.142	0.94
499.34	0.94
499.538	1
499.736	0.97
499.933	1.03
500.131	1.04
500.329	1.03
500.527	1.04
500.725	1.11
500.922	1.1
501.12	1.09
501.318	1.12
501.516	1.13
501.713	1.13
501.911	1.1
502.109	1.07
502.306	1.2
502.504	1.14
502.701	1.14
502.899	1.18
503.097	1.25
503.294	1.15
503.492	1.22
503.689	1.24
503.887	1.24
504.084	1.3
504.282	1.26
504.479	1.22
504.677	1.32
504.874	1.29
505.072	1.29
505.269	1.32
505.466	1.32
505.664	1.36
505.861	1.29
506.059	1.3
506.256	1.38
506.453	1.38
506.651	1.45
506.848	1.43
507.045	1.46
507.242	1.43
507.44	1.43
507.637	1.46
507.834	1.43
508.031	1.49
508.229	1.45
508.426	1.47
508.623	1.54
508.82	1.49
509.017	1.5
509.214	1.51
509.411	1.54
509.608	1.52
509.805	1.58
510.003	1.56
510.2	1.63
510.397	1.68
510.594	1.54
510.791	1.59
510.988	1.63
511.184	1.62
511.381	1.59
511.578	1.63
511.775	1.71
511.972	1.67
512.169	1.68
512.366	1.68
512.563	1.72
512.76	1.7
512.956	1.73
513.153	1.72
513.35	1.73
513.547	1.71
513.744	1.73
513.94	1.73
514.137	1.76
514.334	1.76
514.53	1.78
514.727	1.83
514.924	1.87
515.12	1.78
515.317	1.79
515.514	1.81
515.71	1.78
515.907	1.85
516.103	1.85
516.3	1.89
516.497	1.89
516.693	1.86
516.89	1.91
517.086	1.86
517.283	1.86
517.479	1.86
517.676	1.89
517.872	1.91
518.068	1.91
518.265	1.9
518.461	1.93
518.658	1.92
518.854	1.96
519.05	1.99
519.247	1.99
519.443	1.97
519.639	2.03
519.836	1.98
520.032	1.96
520.228	2.02
520.424	2.03
520.621	2.05
520.817	2.03
521.013	2.02
521.209	2.09
521.405	2.08
521.601	2.04
521.798	2.01
521.994	2.09
522.19	2.02
522.386	2.05
522.582	2.07
522.778	2.13
522.974	2.05
523.17	2.09
523.366	2.09
523.562	2.1
523.758	2.06
523.954	2.04
524.15	2.1
524.346	2.12
524.542	2.08
524.738	2.1
524.934	2.14
525.129	2.04
525.325	2.09
525.521	2.14
525.717	2.19
525.913	2.15
526.109	2.15
526.304	2.16
526.5	2.16
526.696	2.23
526.892	2.14
527.087	2.19
527.283	2.18
527.479	2.18
527.674	2.12
527.87	2.17
528.066	2.19
528.261	2.2
528.457	2.16
528.653	2.19
528.848	2.19
529.044	2.24
529.239	2.18
529.435	2.23
529.63	2.18
529.826	2.25
530.021	2.23
530.217	2.27
530.412	2.21
530.608	2.17
530.803	2.22
530.999	2.14
531.194	2.22
531.389	2.26
531.585	2.2
531.78	2.26
531.975	2.24
532.171	2.26
532.366	2.2
532.561	2.27
532.757	2.23
532.952	2.28
533.147	2.24
533.342	2.22
533.538	2.22
533.733	2.29
533.928	2.17
534.123	2.23
534.318	2.23
534.513	2.23
534.709	2.28
534.904	2.25
535.099	2.26
535.294	2.26
535.489	2.31
535.684	2.26
535.879	2.26
536.074	2.28
536.269	2.28
536.464	2.33
536.659	2.25
536.854	2.3
537.049	2.3
537.244	2.29
537.439	2.27
537.634	2.32
537.828	2.3
538.023	2.29
538.218	2.29
538.413	2.26
538.608	2.28
538.803	2.33
538.997	2.29
539.192	2.33
539.387	2.27
539.582	2.33
539.776	2.25
539.971	2.36
540.166	2.31
540.36	2.27
540.555	2.29
540.75	2.32
540.944	2.29
541.139	2.26
541.334	2.27
541.528	2.32
541.723	2.32
541.917	2.31
542.112	2.28
542.306	2.3
542.501	2.32
542.695	2.3
542.89	2.28
543.084	2.31
543.279	2.29
543.473	2.3
543.668	2.34
543.862	2.23
544.056	2.31
544.251	2.31
544.445	2.36
544.64	2.34
544.834	2.27
545.028	2.24
545.222	2.28
545.417	2.36
545.611	2.32
545.805	2.3
546	2.25
546.194	2.33
546.388	2.33
546.582	2.28
546.776	2.29
546.97	2.31
547.165	2.33
547.359	2.31
547.553	2.27
547.747	2.3
547.941	2.38
548.135	2.27
548.329	2.38
548.523	2.34
548.717	2.29
548.911	2.34
549.105	2.32
549.299	2.35
549.493	2.32
549.687	2.28
549.881	2.36
550.075	2.33
550.269	2.27
550.463	2.33
550.657	2.3
550.85	2.31
551.044	2.33
551.238	2.35
551.432	2.31
551.626	2.32
551.82	2.32
552.013	2.28
552.207	2.3
552.401	2.35
552.594	2.31
552.788	2.28
552.982	2.33
553.176	2.28
553.369	2.34
553.563	2.37
553.756	2.26
553.95	2.3
554.144	2.34
554.337	2.39
554.531	2.31
554.724	2.33
554.918	2.33
555.111	2.35
555.305	2.34
555.498	2.32
555.692	2.37
555.885	2.35
556.079	2.35
556.272	2.32
556.466	2.33
556.659	2.28
556.852	2.34
557.046	2.3
557.239	2.29
557.432	2.25
557.626	2.3
557.819	2.39
558.012	2.33
558.206	2.36
558.399	2.31
558.592	2.33
558.785	2.3
558.979	2.33
559.172	2.33
559.365	2.35
559.558	2.31
559.751	2.27
559.944	2.34
560.138	2.29
560.331	2.33
560.524	2.34
560.717	2.34
560.91	2.35
561.103	2.31
561.296	2.3
561.489	2.32
561.682	2.36
561.875	2.41
562.068	2.42
562.261	2.35
562.454	2.39
562.647	2.33
562.84	2.39
563.032	2.37
563.225	2.3
563.418	2.34
563.611	2.38
563.804	2.33
563.997	2.29
564.19	2.22
564.382	2.33
564.575	2.33
564.768	2.33
564.961	2.31
565.153	2.29
565.346	2.32
565.539	2.39
565.731	2.31
565.924	2.35
566.117	2.36
566.309	2.37
566.502	2.3
566.695	2.29
566.887	2.35
567.08	2.3
567.272	2.33
567.465	2.28
567.657	2.33
567.85	2.33
568.042	2.37
568.235	2.34
568.427	2.29
568.62	2.34
568.812	2.3
569.005	2.35
569.197	2.29
569.389	2.33
569.582	2.29
569.774	2.32
569.966	2.29
570.159	2.27
570.351	2.29
570.543	2.26
570.736	2.3
570.928	2.27
571.12	2.34
571.312	2.3
571.505	2.23
571.697	2.32
571.889	2.29
572.081	2.32
572.273	2.28
572.465	2.35
572.658	2.31
572.85	2.33
573.042	2.3
573.234	2.26
573.426	2.3
573.618	2.23
573.81	2.32
574.002	2.33
574.194	2.33
574.386	2.23
574.578	2.17
574.77	2.28
574.962	2.27
575.154	2.21
575.346	2.27
575.538	2.25
575.729	2.23
575.921	2.27
576.113	2.28
576.305	2.3
576.497	2.3
576.689	2.27
576.88	2.24
577.072	2.3
577.264	2.25
577.456	2.3
577.647	2.2
577.839	2.34
578.031	2.28
578.223	2.24
578.414	2.17
578.606	2.28
578.798	2.26
578.989	2.26
579.181	2.26
579.372	2.27
579.564	2.24
579.755	2.24
579.947	2.22
580.139	2.3
580.33	2.15
580.522	2.23
580.713	2.17
580.905	2.25
581.096	2.22
581.287	2.25
581.479	2.21
581.67	2.3
581.862	2.21
582.053	2.2
582.244	2.13
582.436	2.22
582.627	2.17
582.818	2.15
583.01	2.18
583.201	2.25
583.392	2.23
583.583	2.18
583.775	2.12
583.966	2.17
584.157	2.19
584.348	2.24
584.54	2.17
584.731	2.22
584.922	2.15
585.113	2.12
585.304	2.21
585.495	2.17
585.686	2.19
585.877	2.23
586.068	2.17
586.259	2.19
586.45	2.17
586.641	2.13
586.832	2.14
587.023	2.16
587.214	2.13
587.405	2.16
587.596	2.12
587.787	2.19
587.978	2.12
588.169	2.12
588.36	2.12
588.551	2.19
588.742	2.1
588.932	2.18
589.123	2.1
589.314	2.16
589.505	2.09
589.696	2.13
589.886	2.1
590.077	2.07
590.268	2.08
590.458	2.07
590.649	2.04
590.84	2.14
591.03	2.05
591.221	2.06
591.412	2.05
591.602	2.13
591.793	2.11
591.984	2.07
592.174	2.08
592.365	2.19
592.555	2.05
592.746	2.1
592.936	2.14
593.127	2.1
593.317	2.1
593.508	2.05
593.698	2.04
593.889	2.04
594.079	2.01
594.269	2.01
594.46	2.02
594.65	2.01
594.84	2.04
595.031	1.99
595.221	2.01
595.411	1.95
595.602	2.04
595.792	2.04
595.982	1.98
596.172	2.06
596.363	1.99
596.553	2
596.743	1.98
596.933	1.95
597.123	1.99
597.314	1.93
597.504	1.91
597.694	2.02
597.884	1.96
598.074	1.96
598.264	1.98
598.454	1.96
598.644	1.94
598.834	1.92
599.024	1.89
599.214	1.91
599.404	1.96
599.594	1.94
599.784	1.87
599.974	2.01
600.164	1.93
600.354	1.9
600.544	1.82
600.734	1.91
600.924	1.89
601.114	1.86
601.303	1.85
601.493	1.92
601.683	1.86
601.873	1.89
602.063	1.85
602.252	1.9
602.442	1.83
602.632	1.85
602.821	1.82
603.011	1.88
603.201	1.84
603.39	1.81
603.58	1.79
603.77	1.85
603.959	1.85
604.149	1.86
604.339	1.8
604.528	1.9
604.718	1.85
604.907	1.79
605.097	1.76
605.286	1.75
605.476	1.77
605.665	1.86
605.855	1.77
606.044	1.81
606.234	1.82
606.423	1.75
606.612	1.73
606.802	1.76
606.991	1.74
607.181	1.8
607.37	1.71
607.559	1.71
607.749	1.71
607.938	1.71
608.127	1.69
608.316	1.73
608.506	1.73
608.695	1.72
608.884	1.67
609.073	1.75
609.263	1.75
609.452	1.73
609.641	1.67
609.83	1.64
610.019	1.7
610.208	1.66
610.397	1.65
610.586	1.73
610.775	1.67
610.965	1.66
611.154	1.6
611.343	1.62
611.532	1.62
611.721	1.63
611.91	1.61
612.099	1.65
612.287	1.61
612.476	1.57
612.665	1.63
612.854	1.59
613.043	1.68
613.232	1.62
613.421	1.56
613.61	1.59
613.798	1.56
613.987	1.62
614.176	1.59
614.365	1.61
614.554	1.58
614.742	1.63
614.931	1.52
615.12	1.59
615.309	1.54
615.497	1.57
615.686	1.47
615.875	1.52
616.063	1.49
616.252	1.51
616.44	1.55
616.629	1.51
616.818	1.47
617.006	1.5
617.195	1.47
617.383	1.54
617.572	1.49
617.76	1.46
617.949	1.43
618.137	1.51
618.326	1.51
618.514	1.41
618.703	1.36
618.891	1.49
619.079	1.41
619.268	1.47
619.456	1.39
619.644	1.51
619.833	1.43
620.021	1.38
620.209	1.38
620.398	1.45
620.586	1.34
620.774	1.43
620.962	1.37
621.151	1.39
621.339	1.37
621.527	1.32
621.715	1.33
621.903	1.35
622.092	1.32
622.28	1.44
622.468	1.32
622.656	1.37
622.844	1.36
623.032	1.36
623.22	1.28
623.408	1.37
623.596	1.36
623.784	1.38
623.972	1.26
624.16	1.27
624.348	1.3
624.536	1.31
624.724	1.29
624.912	1.31
625.1	1.35
625.288	1.29
625.476	1.23
625.664	1.35
625.851	1.26
626.039	1.3
626.227	1.27
626.415	1.27
626.603	1.19
626.79	1.31
626.978	1.26
627.166	1.26
627.354	1.23
627.541	1.19
627.729	1.13
627.917	1.24
628.104	1.28
628.292	1.21
628.48	1.22
628.667	1.18
628.855	1.26
629.042	1.25
629.23	1.19
629.418	1.14
629.605	1.2
629.793	1.15
629.98	1.13
630.168	1.19
630.355	1.16
630.543	1.18
630.73	1.14
630.917	1.12
631.105	1.23
631.292	1.12
631.48	1.14
631.667	1.22
631.854	1.1
632.042	1.14
632.229	1.05
632.416	1.17
632.604	1.13
632.791	1.07
632.978	1.13
633.165	1.15
633.353	1.13
633.54	1.14
633.727	1.02
633.914	1.06
634.101	1.06
634.289	1.12
634.476	1.04
634.663	1.04
634.85	1.07
635.037	1.07
635.224	1.02
635.411	1.11
635.598	1.1
635.785	1.02
635.972	1.02
636.159	1.07
636.346	0.98
636.533	1
636.72	0.98
636.907	1.01
637.094	1.03
637.281	0.98
637.468	1
637.655	1
637.842	1
638.029	0.96
638.215	1.01
638.402	0.98
638.589	0.97
638.776	0.92
638.963	0.93
639.149	0.99
639.336	1.02
639.523	0.92
639.709	0.92
639.896	0.93
640.083	0.96
640.27	0.94
640.456	0.89
640.643	0.91
640.829	0.89
641.016	0.89
641.203	0.85
641.389	0.99
641.576	0.9
641.762	0.87
641.949	0.87
642.135	0.93
642.322	0.9
642.508	0.82
642.695	0.87
642.881	0.85
643.068	0.84
643.254	0.85
643.441	0.89
643.627	0.86
643.813	0.81
644	0.87
644.186	0.79
644.372	0.88
644.559	0.89
644.745	0.81
644.931	0.79
645.118	0.84
645.304	0.8
645.49	0.79
645.676	0.82
645.862	0.82
646.049	0.84
646.235	0.79
646.421	0.91
646.607	0.87
646.793	0.77
646.979	0.72
647.165	0.8
647.352	0.8
647.538	0.8
647.724	0.74
647.91	0.77
648.096	0.79
648.282	0.8
648.468	0.79
648.654	0.79
648.84	0.83
649.026	0.76
649.212	0.74
649.397	0.74
649.583	0.71
649.769	0.75
649.955	0.76
650.141	0.74
650.327	0.79
650.513	0.69
650.698	0.74
650.884	0.64
651.07	0.75
651.256	0.7
651.442	0.69
651.627	0.68
651.813	0.72
651.999	0.67
652.184	0.71
652.37	0.69
652.556	0.67
652.741	0.72
652.927	0.61
653.113	0.66
653.298	0.68
653.484	0.62
653.669	0.58
653.855	0.63
654.04	0.71
654.226	0.67
654.412	0.63
654.597	0.59
654.782	0.65
654.968	0.68
655.153	0.67
655.339	0.63
655.524	0.61
655.71	0.68
655.895	0.62
656.08	0.59
656.266	0.69
656.451	0.59
656.636	0.57
656.822	0.61
657.007	0.59
657.192	0.58
657.378	0.57
657.563	0.59
657.748	0.62
657.933	0.64
658.118	0.57
658.304	0.56
658.489	0.63
658.674	0.58
658.859	0.57
659.044	0.54
659.229	0.63
659.414	0.57
659.599	0.59
659.785	0.47
659.97	0.59
660.155	0.57
660.34	0.6
660.525	0.56
660.71	0.56
660.895	0.59
661.08	0.53
661.264	0.51
661.449	0.56
661.634	0.59
661.819	0.57
662.004	0.54
662.189	0.48
662.374	0.53
662.559	0.53
662.743	0.46
662.928	0.53
663.113	0.5
663.298	0.46
663.483	0.49
663.667	0.5
663.852	0.47
664.037	0.59
664.221	0.48
664.406	0.56
664.591	0.52
664.775	0.54
664.96	0.54
665.145	0.49
665.329	0.52
665.514	0.45
665.698	0.48
665.883	0.43
666.068	0.51
666.252	0.51
666.437	0.44
666.621	0.47
666.806	0.49
666.99	0.48
667.174	0.48
667.359	0.49
667.543	0.42
667.728	0.46
667.912	0.4
668.096	0.48
668.281	0.42
668.465	0.46
668.649	0.47
668.834	0.42
669.018	0.42
669.202	0.41
669.387	0.45
669.571	0.47
669.755	0.4
669.939	0.4
670.124	0.45
670.308	0.49
670.492	0.43
670.676	0.43
670.86	0.42
671.044	0.37
671.228	0.43
671.413	0.4
671.597	0.41
671.781	0.35
671.965	0.45
672.149	0.4
672.333	0.39
672.517	0.32
672.701	0.4
672.885	0.41
673.069	0.33
673.253	0.42
673.437	0.39
673.621	0.38
673.804	0.38
673.988	0.41
674.172	0.35
674.356	0.32
674.54	0.39
674.724	0.49
674.908	0.36
675.091	0.41
675.275	0.38
675.459	0.43
675.643	0.43
675.826	0.39
676.01	0.34
676.194	0.38
676.377	0.43
676.561	0.38
676.745	0.38
676.928	0.35
677.112	0.48
677.296	0.28
677.479	0.33
677.663	0.34
677.846	0.42
678.03	0.34
678.213	0.32
678.397	0.38
678.58	0.3
678.764	0.35
678.947	0.33
679.131	0.27
679.314	0.42
679.498	0.35
679.681	0.34
679.865	0.39
680.048	0.32
680.231	0.35
680.415	0.34
680.598	0.34
680.781	0.33
680.965	0.29
681.148	0.36
681.331	0.31
681.514	0.36
681.698	0.32
681.881	0.32
682.064	0.31
682.247	0.31
682.43	0.26
682.614	0.29
682.797	0.33
682.98	0.35
683.163	0.26
683.346	0.36
683.529	0.29
683.712	0.28
683.895	0.33
684.078	0.27
684.261	0.29
684.444	0.3
684.627	0.34
684.81	0.29
684.993	0.3
685.176	0.32
685.359	0.29
685.542	0.26
685.725	0.35
685.908	0.25
686.091	0.34
686.274	0.35
686.457	0.33
686.639	0.28
686.822	0.27
687.005	0.29
687.188	0.3
687.371	0.39
687.553	0.31
687.736	0.31
687.919	0.39
688.102	0.36
688.284	0.26
688.467	0.31
688.65	0.32
688.832	0.3
689.015	0.3
689.197	0.19
689.38	0.4
689.563	0.33
689.745	0.23
689.928	0.18
690.11	0.26
690.293	0.26
690.475	0.21
690.658	0.3
690.84	0.24
691.023	0.26
691.205	0.24
691.388	0.28
691.57	0.28
691.752	0.24
691.935	0.21
692.117	0.23
692.3	0.26
692.482	0.27
692.664	0.26
692.847	0.29
693.029	0.31
693.211	0.29
693.393	0.22
693.576	0.2
693.758	0.21
693.94	0.24
694.122	0.21
694.304	0.22
694.487	0.21
694.669	0.32
694.851	0.19
695.033	0.27
695.215	0.18
695.397	0.16
695.579	0.26
695.761	0.22
695.943	0.16
696.125	0.32
696.308	0.26
696.49	0.11
696.671	0.29
696.853	0.22
697.035	0.35
697.217	0.21
697.399	0.24
697.581	0.17
697.763	0.23
697.945	0.18
698.127	0.19
698.309	0.3
698.491	0.22
698.672	0.26
698.854	0.25
699.036	0.29
699.218	0.15
699.399	0.25
699.581	0.23
699.763	0.2
699.945	0.16
700.126	0.22
700.308	0.19
700.49	0.17
700.671	0.15
700.853	0.2
701.035	0.17
701.216	0.14
701.398	0.19
701.579	0.15
701.761	0.25
701.943	0.12
702.124	0.16
702.306	0.2
702.487	0.34
702.669	0.2
702.85	0.18
703.031	0.13
703.213	0.26
703.394	0.25
703.576	0.19
703.757	0.29
703.938	0.27
704.12	0.34
704.301	0.2
704.483	0.2
704.664	0.22
704.845	0.26
705.026	0.21
705.208	0.14
705.389	0.2
705.57	0.21
705.751	0.16
705.933	0.2
706.114	0.3
706.295	0.23
706.476	0.1
706.657	0.25
706.838	0.17
707.02	0.22
707.201	0.17
707.382	0.11
707.563	0.26
707.744	0.1
707.925	0.1
708.106	0.15
708.287	0.24
708.468	0.27
708.649	0.2
708.83	0.2
709.011	0.13
709.192	0.18
709.373	0.16
709.554	0.14
709.734	0.2
709.915	0.26
710.096	0.15
710.277	0.14
710.458	0.18
710.639	0.16
710.819	0.09
711	0.14
711.181	0.25
711.362	0.17
711.542	0.17
711.723	0.17
711.904	0.21
712.085	0.19
712.265	0.19
712.446	0.06
712.627	0.19
712.807	0.13
712.988	0.15
713.168	0.08
713.349	0.19
713.53	0.03
713.71	0.15
713.891	0.12
714.071	0.15
714.252	0.22
714.432	0.16
714.613	0.02
714.793	0.14
714.974	0.28
715.154	0.18
715.334	0.17
715.515	0.29
715.695	0.04
715.876	0.14
716.056	0.14
716.236	0.14
716.417	0.16
716.597	0.11
716.777	0.27
716.957	0.17
717.138	0.11
717.318	0.19
717.498	0.04
717.678	0.11
717.859	0.16
718.039	0.12
718.219	0.16
718.399	0.24
718.579	0.01
718.759	0.05
718.939	0.15
719.12	0.19
719.3	0.17
719.48	0.04
719.66	0.03
719.84	0.28
720.02	0.15
720.2	-0.01
720.38	0.12
720.56	0.26
720.74	0.09
720.92	0.13
721.1	0.27
721.279	0.17
721.459	0.06
721.639	0.06
721.819	0.18
721.999	0.05
722.179	0.22
722.359	0.07
722.538	0.17
722.718	0.22
722.898	0.06
723.078	0.13
723.257	0.08
723.437	0.13
723.617	0.11
723.797	0.09
723.976	0.12
724.156	0.11
724.336	0.2
724.515	0.27
724.695	-0.04
724.874	0.12
725.054	0.14
725.234	0.11
725.413	0.13
725.593	0.13
725.772	0.17
725.952	0.15
726.131	0.09
726.311	0.13
726.49	0.09
726.67	-0
726.849	0.11
727.028	0.15
727.208	0.15
727.387	0.18
727.567	0.04
727.746	0.05
727.925	0.09
728.105	0.09
728.284	0.12
728.463	0.1
728.643	0.16
728.822	0.02
729.001	0.04
729.18	0.23
729.359	0.18
729.539	0.13
729.718	0.12
729.897	0.14
730.076	0.14
730.255	0.02
730.434	0.11
730.614	0.1
730.793	0.32
730.972	0.08
731.151	0.11
731.33	0.29
731.509	0.15
731.688	0.12
731.867	0.15
732.046	0.14
732.225	0.28
732.404	0.07
732.583	0.03
732.762	0.12
732.941	0.16
733.12	0.04
733.298	0.09
733.477	0.19
733.656	-0.04
733.835	-0.01
734.014	0.2
734.193	0.14
734.371	0.09
734.55	0.09
734.729	-0.01
734.908	0.17
735.086	0.17
735.265	0.15
735.444	-0.07
735.623	-0.05
735.801	0.07
735.98	0.16
736.159	0.12
736.337	0.18
736.516	0.09
736.694	0.1
736.873	0.06
737.052	0.19
737.23	0.26
737.409	0.13
737.587	0.2
737.766	-0.09
737.944	0.07
738.123	0.18
738.301	0.17
738.479	0.11
738.658	0.17
738.836	-0.04
739.015	0.2
739.193	0.22
739.371	0.04
739.55	0.1
739.728	-0.03
739.906	0.16
740.085	0.31
740.263	0.2
740.441	-0.03
740.62	0.26
740.798	0.16
740.976	0.05
741.154	-0.01
741.332	0.29
741.511	0.05
741.689	0.1
741.867	0.1
742.045	-0.01
742.223	0.1
742.401	0.06
742.579	0.11
742.757	0.15
742.935	-0.01
743.114	0.1
743.292	0.03
743.47	0.07
743.648	0.27
743.826	0.19
744.004	0.21
744.181	0.06
744.359	0.1
744.537	0.16
744.715	0.15
744.893	0.06
745.071	0.14
745.249	0.07
745.427	0.12
745.605	0.25
745.782	0.06
745.96	0.1
746.138	0.13
746.316	0.24
746.493	0.11
746.671	0.15
746.849	0.05
747.027	0.27
747.204	0.01
747.382	0.07
747.56	0.1
747.737	0.06
747.915	0.08
748.093	0.16
748.27	0.08
748.448	0.04
748.625	-0.1
748.803	0.02
748.98	0.04
749.158	0.17
749.335	0.24
749.513	0.08
749.69	0.09
749.868	0.06
750.045	0.13
750.223	0.02
750.4	-0.08
750.578	0.24
750.755	0.08
750.932	-0.06
751.11	0.12
751.287	-0.05
751.464	0.26
751.642	0.13
751.819	0.07
751.996	0.14
752.173	0.09
752.351	0.02
752.528	0.08
752.705	0.06
752.882	0.09
753.06	0.13
753.237	0.1
753.414	0.3
753.591	0.23
753.768	0.09
753.945	0.02
754.122	-0.01
754.299	0.13
754.476	0.04
754.654	0.01
754.831	0.03
755.008	0.23
755.185	-0
755.362	0.04
755.539	0.11
755.716	0.04
755.892	0.09
756.069	-0.04
756.246	0.07
756.423	0.08
756.6	0.18
756.777	0.06
756.954	0.07
757.131	-0.02
757.307	-0.04
757.484	0.05
757.661	0.02
757.838	0.18
758.015	-0.13
758.191	0.06
758.368	0.03
758.545	0.32
758.721	0.16
758.898	-0.07
759.075	0.19
759.251	0.19
759.428	0.2
759.605	-0.01
759.781	0.06
759.958	0.19
760.134	0.05
760.311	0.03
760.488	0.16
760.664	0.25
760.841	0.11
761.017	0.05
761.194	0.2
761.37	0.17
761.547	0.13
761.723	0.06
761.899	0.16
762.076	0.09
762.252	-0.06
762.429	0.06
762.605	0.12
762.781	0.02
762.958	0.1
763.134	0.05
763.31	-0.03
763.486	0.21
763.663	-0.02
763.839	0.04
764.015	-0.13
764.191	-0.06
764.368	0.1
764.544	-0
764.72	0.12
764.896	0.16
765.072	0.03
765.248	0.15
765.425	0.06
765.601	0.04
765.777	0.07
765.953	-0.12
766.129	0.07
766.305	0.05
766.481	0.26
766.657	0.05
766.833	0.22
767.009	-0.04
767.185	-0.07
767.361	0.11
767.537	-0
767.713	0.27
767.889	-0.06
768.065	0.06
768.24	0.09
768.416	0.18
768.592	0.1
768.768	0.18
768.944	0.15
769.12	-0.07
769.295	0.1
769.471	0.03
769.647	0.13
769.823	0.14
769.998	0.07
770.174	0.05
770.35	0.43
770.525	0.39
770.701	0.2
770.877	0.07
771.052	0.04
771.228	0.18
771.403	0.11
771.579	0.1
771.755	0.4
771.93	0.03
772.106	0
772.281	-0.27
772.457	0.09
772.632	0.17
772.808	-0.14
772.983	-0.01
773.159	-0.05
773.334	0.23
773.509	-0.03
773.685	-0
773.86	0.39
774.036	0.12
774.211	0.01
774.386	0.04
774.562	-0.12
774.737	0.08
774.912	-0.03
775.087	0.36
775.263	0.02
775.438	-0.08
775.613	-0.07
775.788	0.14
775.964	0.2
776.139	0.68
776.314	-0.19
776.489	0.15
776.664	0.18
776.839	-0.05
777.014	0.24
777.19	0.07
777.365	0.21
777.54	0.37
777.715	-0.03
777.89	0.07
778.065	-0
778.24	0.01
778.415	0.19
778.59	-0.18
778.765	-0.05
778.94	0.24
779.115	-0.03
779.289	-0.08
779.464	0.13
779.639	0.1
779.814	-0.14
779.989	-0.13
780.164	0.24
780.339	0.28
780.513	-0.15
780.688	-0.15
780.863	-0.03
781.038	0.16
781.212	0.01
781.387	0.07
781.562	0.29
781.737	-0.17
781.911	0.2
782.086	0.03
782.261	0.04
782.435	0.43
782.61	0.12
782.784	-0.1
782.959	0.18
783.134	-0.06
783.308	-0.2
783.483	0.11
783.657	0.48
783.832	0.1
784.006	-0.2
784.181	0.01
784.355	0.46
784.53	-0
784.704	-0.17
784.878	0.5
785.053	0.19
785.227	0.3
785.402	0.45
785.576	-0.02
785.75	0.06
785.925	0.16
786.099	0.29
786.273	0.09
786.448	0.26
786.622	0.04
786.796	0.07
786.97	0.02
787.145	0.37
787.319	-0.21
787.493	-0.16
787.667	-0.27
787.841	0.04
788.015	0.37
788.19	0.09
788.364	0.3
788.538	0.21
788.712	0.13
788.886	0.02
789.06	0.38
789.234	0.38
789.408	-0.34
789.582	0.03
789.756	0.05
789.93	-0.06
790.104	0.18
790.278	-0.15
790.452	-0.05
790.626	0.3
790.8	0
790.973	0.43
791.147	0.3
791.321	0.45
791.495	0.32
791.669	0.17
791.843	0.08
792.016	-0.05
792.19	0.5
792.364	-0.24
792.538	0.49
792.711	0.26
792.885	0.01
793.059	-0.21
793.233	-0.57
793.406	0.45
793.58	0.12
793.754	0.19
793.927	-0.02
794.101	0.49
794.274	-0.04
794.448	0.12
794.622	-0.18
794.795	0.27
794.969	-0.01
795.142	0.5
795.316	0.12
795.489	-0.04
795.663	0.39
795.836	0.27
796.009	-0.1
796.183	0.56
796.356	0.13
796.53	0.13
796.703	0.02
796.876	0.62
797.05	-0.18
797.223	-0.21
797.396	0.2
797.57	0.26
797.743	0.55
797.916	0.09
798.09	0.12
798.263	0.23
798.436	0.27
798.609	-0.11
798.782	-0.09
798.956	0.25
799.129	0.22
799.302	0.13
799.475	-0.11
799.648	-0.12
799.821	0.03
799.994	-0.06
800.167	-0.29
800.34	0.08
800.514	0.23
800.687	0.12
800.86	-0.02
801.033	0.13
801.206	0.12
801.379	-0.28
801.551	0.55
801.724	0.22
801.897	0.77
802.07	0.03
802.243	-0.21
802.416	0.07
802.589	0.35
802.762	0.11
802.935	-0.03
803.107	0.37
803.28	0.4
803.453	0.22
803.626	0.03
803.798	0.2
803.971	0.13
804.144	0.13
804.317	0.42
804.489	0.3
804.662	0.26
804.835	0.13
805.007	0.02
805.18	0.76
805.353	0.05
805.525	-0.08
805.698	-0.35
805.87	0.19
806.043	0.21
806.215	-0.21
806.388	-0.1
806.56	0.28
806.733	0.69
806.905	0.15
807.078	-0.11
807.25	-0.08
807.423	0.4
807.595	0.13
807.768	0.03
807.94	0.35
808.112	0.5
808.285	0.31
808.457	0.19
808.629	0.15
808.802	0.37
808.974	-0.01
809.146	0.04
809.318	-0.17
809.491	0.1
809.663	-0.11
809.835	-0.09
810.007	0.27
810.18	0.27
810.352	-0.25
810.524	0.18
810.696	0.23
810.868	0.1
811.04	0.13
811.212	0.1
811.384	0.4
811.556	0.39
811.728	0.22
811.901	0.65
812.073	0.31
812.245	0.52
812.417	0.11
812.589	-0.21
812.76	0.27
812.932	0.23
813.104	0.55
813.276	-0.01
813.448	0.49
813.62	0.14
813.792	0.15
813.964	0.1
814.136	0.28
814.307	0.04
814.479	0.02
814.651	-0.05
814.823	0.92
814.995	0.07
815.166	0.08
815.338	0.08
815.51	-0.19
815.681	0.46
815.853	-0.01
816.025	-0.09
816.196	0.62
816.368	0.48
816.54	-0.32
816.711	0.19
816.883	0.3
817.054	0.52
817.226	-0.24
817.398	-0.13
817.569	0.21
817.741	0.31
817.912	0.07
818.084	-0.03
818.255	0.41
818.426	-0.16
818.598	0.02
818.769	-0.06
818.941	0.37
819.112	0.47
819.283	0.45
819.455	-0.16
819.626	0.53
819.798	0.84
819.969	0.46
820.14	0.25
820.311	-0.3
820.483	0.13
820.654	0.11
820.825	0.02
820.996	-0.04
821.168	-0.27
821.339	-0.08
821.51	-0.23
821.681	-0.3
821.852	0.82
822.023	-0.51
822.195	-0.44
822.366	0.45
822.537	0.29
822.708	0.14
822.879	0.22
823.05	0.73
823.221	0.35
823.392	0.4
823.563	0.04
823.734	0.31
823.905	-0.15
824.076	-0.38
824.247	-0.16
824.418	-0.24
824.589	0.74
824.759	-0.28
824.93	0.4
825.101	-0.39
825.272	0.27
825.443	0.76
825.614	0.24
825.784	-0.69
825.955	1.14
826.126	0.44
826.297	-0.03
826.467	1.21
826.638	0.91
826.809	-0.25
826.98	-0.04
827.15	0.44
827.321	0.3
827.492	0.8
827.662	0.3
827.833	0.81
828.003	0.91
828.174	-0.27
828.345	-0.39
828.515	0.85
828.686	0.31
828.856	0.46
829.027	0.37
829.197	0.45
829.368	0.51
829.538	-0.23
829.709	-0.48
829.879	0.75
830.049	0.96
830.22	0.12
830.39	0.11
830.56	0.52
830.731	0.42
830.901	-0.09
831.072	0.5
831.242	0.4
831.412	0.37
831.582	-0.15
831.753	-0.35
831.923	1.13
832.093	0.56
832.263	0.28
832.434	-0.46
832.604	-0.29
832.774	1.07
832.944	-0.27
833.114	0.02
833.284	0.22
833.454	-0.44
833.624	0.28
833.795	0.48
833.965	0.57
834.135	0.92
834.305	-0.23
834.475	-1.04
834.645	-0.05
834.815	-0.42
834.985	0.11
835.155	-0.29
835.325	1.03
835.494	0.16
835.664	-0.86
835.834	-0.56
836.004	0.3
836.174	0.44
836.344	0.08
836.514	-0.44
836.684	-0.49
836.853	0.5
837.023	0.15
837.193	0.07
837.363	0.04
837.532	1.12
837.702	0.11
837.872	-0.45
838.041	0.89
838.211	1.57
838.381	-0.31
838.55	0.32
838.72	1.82
838.89	1.62
839.059	0.59
839.229	-0.74
839.398	0.54
839.568	0.08
839.738	0.13
839.907	1.29
840.077	0.55
840.246	0.08
840.416	-0.15
840.585	-0.55
840.755	1.67
840.924	1.12
841.093	-0.44
841.263	-0.4
841.432	0.09
841.602	-0.76
841.771	-0.27
841.94	-0.46
842.11	2.17
842.279	1.72
842.448	-0.2
842.617	-1.12
842.787	1.59
842.956	-0.67
843.125	0.73
843.294	0.8
843.464	1.17
843.633	1.12
843.802	-0.11
843.971	0.61
844.14	0.6
844.309	0.82
844.479	-1.54
844.648	-0.43
844.817	0.43
844.986	0.27
845.155	-0.02
845.324	-1.1
845.493	-0.25
845.662	-0.45
845.831	0.78
846	1.18
846.169	0.31
846.338	1.03
846.507	0.72
846.676	0.61
846.844	-1.02
847.013	0.66
847.182	0.65
847.351	-0.58
847.52	0.58
847.689	0.42
847.858	0.86
848.026	0.28
848.195	0.03
848.364	-0.81
848.533	0.25
848.701	-0.35
848.87	0.05
849.039	0.59
849.207	1.46
849.376	0.96
849.545	1.29
849.713	0.32
849.882	-0.45
850.051	0.58
850.219	0.5
850.388	1.04
850.556	-0.82
850.725	-0.11
850.893	0.11
851.062	-0.39
851.23	1.75
851.399	-0.27
851.567	-0.95
851.736	0.15
851.904	-0.24
852.073	1.04
852.241	1.06
852.41	-0.12
852.578	0.04
852.746	-1.09
852.915	0.47
853.083	0.28
853.251	-0.68
853.42	-0.75
853.588	1.33
853.756	1.91
853.924	0.78
854.093	-0.47
854.261	0.02
854.429	-1
854.597	0.4
854.765	-0.15
854.934	1.47
855.102	1.44
855.27	0.51
855.438	1.32
855.606	1.08
855.774	2.59
855.942	-1.69
856.11	-2.01
856.278	-0.71
856.446	0.52
856.614	0.4
856.782	-0.11
856.95	1.22
857.118	0.9
857.286	0.19
857.454	-0.57
857.622	1.86
857.79	0.69
857.958	-0.45
858.126	-0.22
858.294	-2.82
858.462	0.91
858.629	0.57
858.797	-0.81
858.965	0.54
859.133	0.69
859.301	-0.07
859.468	0.15
859.636	-0.42
859.804	3.16
859.971	1.65
860.139	-0.53
860.307	0.94
860.474	0.49
860.642	-0.55
860.81	-0.42
860.977	-0.79
861.145	1.92
861.313	-0.37
861.48	1.02
861.648	1.23
861.815	0.11
861.983	-1.07
862.15	-0.61
862.318	1.83
862.485	1.02
862.653	0.03
862.82	0.64
862.988	2.12
863.155	1.22
863.322	-0.32
863.49	-0.13
863.657	-0.83
863.824	1.74
863.992	0.38
864.159	0.24
864.326	1.5
864.494	0.17
864.661	3.25
864.828	-1.33
864.996	1.45
865.163	2.12
865.33	0.42
865.497	-1.55
865.664	0.71
865.832	-1.17
865.999	-0.13
866.166	0.45
866.333	-0.58
866.5	0.44
866.667	0.22
866.834	0.9
867.001	1.12
867.168	-1.84
867.335	0.49
867.502	-1.64
867.669	0.6
867.836	2.15
868.003	0.49
868.17	2.12
868.337	-0.82
868.504	4.2
868.671	-1.3
868.838	-0.03
869.005	1.55
869.172	1.36
869.339	0.13
869.505	0.27
869.672	1.03
869.839	1.36
870.006	0.87
870.173	-1.15
870.339	0.97
870.506	2.12
870.673	0.34
870.84	1.85
871.006	0.23
871.173	-1.51
871.34	-0.46
871.506	-1.65
871.673	1.32
871.839	-1.68
872.006	1.2
872.173	0.09
872.339	0.68
872.506	1.89
872.672	-0.63
872.839	-1.39
873.005	1.89
873.172	3.47
873.338	2.19
873.505	0.02
873.671	-0.55
873.838	0.53
874.004	0.24
874.171	-1.02
874.337	0.81
874.503	2.36
874.67	0.2
874.836	-0.6
875.002	3.24
875.169	0.67
875.335	0.41
875.501	0.06
875.668	2.17
875.834	-0.08
876	-0.97
876.166	1.04
876.332	1.66
876.499	3.61
876.665	-0.97
876.831	0.17
876.997	4.58
877.163	0.06
877.329	-0.58
877.495	0.83
877.662	0.23
877.828	0.41
877.994	-0.38
878.16	-0.73
878.326	0.23
878.492	-0.94
878.658	-0.27
878.824	1.23
878.99	3.33
879.156	-0.68
879.322	2.36
879.487	1.93
879.653	1.18
879.819	-0.22
879.985	-0.7
880.151	1.42
880.317	0.96
880.483	0.9
880.648	1.29
880.814	-2.2
880.98	0.72
881.146	-2.62
881.312	-1.01
881.477	-0.43
881.643	0.1
881.809	1.83
881.974	1.68
882.14	-3.39
882.306	0.35
882.471	4.85
882.637	-0.28
882.803	0.06
882.968	2.23
883.134	3.43
883.299	-0.2
883.465	0.51
883.63	0.49
883.796	1.72
883.961	1.85
884.127	1.59
884.292	-1.92
884.458	-0.07
884.623	-0.07
