Data from Apollo_Calib_20240827__AbsoluteIrradiance__554__08-23-01-099.txt Node

Date: Wed Aug 28 08:23:01 BST 2024
User: biology
Spectrometer: FLMT08252
Trigger mode: 0
Integration Time (sec): 5.000000E-1
Scans to average: 5
Electric dark correction enabled: true
Nonlinearity correction enabled: false
Boxcar width: 0
XAxis mode: Wavelengths
Number of Pixels in Spectrum: 3648
>>>>>Begin Spectral Data<<<<<
179.588	-0
179.809	-0
180.03	-0
180.251	-0
180.473	-0
180.694	0
180.915	0
181.136	-0
181.357	0
181.578	-0
181.799	-0
182.02	-0
182.241	0
182.462	-0
182.683	0
182.904	-0
183.125	0
183.346	0
183.567	0
183.788	-0
184.009	-0
184.23	0
184.451	0
184.672	-0
184.892	-0
185.113	-0
185.334	0
185.555	-0
185.776	-0
185.996	-0
186.217	-0
186.438	-0
186.659	-0
186.879	0
187.1	-0
187.321	-0
187.541	-0
187.762	0
187.983	-0
188.203	-0
188.424	-0
188.644	-0
188.865	-0
189.086	-0
189.306	-0
189.527	0
189.747	-0
189.968	-0
190.188	0
190.409	-0
190.629	0
190.849	-0
191.07	-0
191.29	0
191.511	0
191.731	-0
191.951	-0
192.172	-0
192.392	0
192.612	-0
192.833	0
193.053	0
193.273	0
193.493	-0
193.714	-0
193.934	0
194.154	0
194.374	0
194.594	0
194.815	0
195.035	-0
195.255	-0
195.475	-0
195.695	0
195.915	0
196.135	-0
196.355	0
196.575	0
196.795	0
197.015	-0
197.235	-0
197.455	-0
197.675	0
197.895	-0
198.115	-0
198.335	-0
198.555	-0
198.775	-0
198.995	0
199.214	0
199.434	-0
199.654	-0
199.874	-0
200.094	0.26
200.313	-0.39
200.533	-0.76
200.753	-1.23
200.973	0.58
201.192	0.4
201.412	-1.2
201.632	-0.54
201.851	0.42
202.071	-0.46
202.291	-0.33
202.51	-0.58
202.73	0.04
202.95	-0.36
203.169	-1
203.389	-0.17
203.608	0.09
203.828	-0.86
204.047	-0.35
204.267	0.11
204.486	-0.25
204.706	-0.21
204.925	-0.01
205.145	-0.05
205.364	0.24
205.583	0.72
205.803	-0.18
206.022	-0.45
206.242	-0.23
206.461	-0
206.68	-0.14
206.9	0.04
207.119	0.68
207.338	0.22
207.557	-0.31
207.777	0.02
207.996	-0.13
208.215	0.56
208.434	-0.1
208.654	-0.59
208.873	-0.13
209.092	0.24
209.311	-0.2
209.53	-0.14
209.749	-0.3
209.968	-0.21
210.187	-0.18
210.407	-0.25
210.626	-0.42
210.845	0.32
211.064	0.06
211.283	-0.35
211.502	0.23
211.721	-0.1
211.94	-0.19
212.159	0.26
212.377	0.01
212.596	0.01
212.815	0.04
213.034	0.09
213.253	0.3
213.472	0.2
213.691	-0.21
213.91	-0.34
214.128	-0.27
214.347	0.21
214.566	-0.3
214.785	-0.55
215.003	0.08
215.222	0.09
215.441	-0.12
215.66	-0.33
215.878	-0.01
216.097	0.11
216.316	-0.2
216.534	-0.14
216.753	0.01
216.972	-0.02
217.19	-0.05
217.409	-0.25
217.627	-0.19
217.846	-0.13
218.064	-0.13
218.283	-0.22
218.501	0.33
218.72	0.13
218.938	-0.35
219.157	-0.08
219.375	0.03
219.594	-0.05
219.812	-0.26
220.031	-0.17
220.249	0.3
220.467	0.19
220.686	-0.09
220.904	-0.19
221.122	-0.2
221.341	0.31
221.559	0.09
221.777	-0.16
221.995	-0.04
222.214	0.13
222.432	-0.05
222.65	0.07
222.868	0.06
223.086	0.11
223.305	0.14
223.523	0.04
223.741	0.18
223.959	-0.04
224.177	-0.31
224.395	-0.05
224.613	-0.06
224.831	0.2
225.049	-0.3
225.267	-0.13
225.485	0.04
225.703	0.07
225.921	-0.14
226.139	-0.09
226.357	-0.03
226.575	0.08
226.793	-0.13
227.011	0.45
227.229	0.05
227.447	0.13
227.665	-0.09
227.883	-0.28
228.1	0
228.318	-0.07
228.536	-0.25
228.754	-0.14
228.972	-0.04
229.189	0.09
229.407	-0.07
229.625	-0.02
229.843	0.08
230.06	-0.02
230.278	-0.08
230.496	-0.03
230.713	-0.06
230.931	0.1
231.149	-0.02
231.366	-0.14
231.584	-0.1
231.801	0.29
232.019	-0.12
232.236	-0.12
232.454	-0.14
232.671	-0.03
232.889	0.03
233.106	-0.12
233.324	0
233.541	-0.11
233.759	-0.07
233.976	-0.11
234.194	-0.11
234.411	-0.01
234.628	-0.11
234.846	-0.14
235.063	-0.05
235.28	0.04
235.498	-0.06
235.715	-0.13
235.932	0.07
236.149	-0.01
236.367	-0.16
236.584	-0.08
236.801	-0.05
237.018	0.06
237.236	0.03
237.453	-0.2
237.67	0.06
237.887	-0.03
238.104	-0.04
238.321	-0.17
238.538	-0.12
238.755	0.13
238.973	-0.18
239.19	0.06
239.407	0.02
239.624	0.01
239.841	-0.17
240.058	-0.16
240.275	0.05
240.492	-0.07
240.709	-0.07
240.925	-0.07
241.142	-0.04
241.359	-0.12
241.576	-0.11
241.793	-0.05
242.01	-0.1
242.227	0.06
242.444	-0
242.66	0.13
242.877	-0
243.094	-0.06
243.311	-0.02
243.527	-0.02
243.744	0.04
243.961	0.04
244.178	-0.09
244.394	-0.03
244.611	0.08
244.828	0.1
245.044	-0.11
245.261	-0.09
245.477	-0.04
245.694	0.06
245.911	-0.08
246.127	-0.1
246.344	0.16
246.56	0.06
246.777	-0.05
246.993	-0.02
247.21	0.02
247.426	0.03
247.643	-0.06
247.859	-0.11
248.076	-0.09
248.292	0.12
248.508	-0.01
248.725	-0.01
248.941	0.01
249.157	0.12
249.374	-0.05
249.59	-0.07
249.806	-0.05
250.023	0.12
250.239	-0.11
250.455	-0.1
250.671	0.03
250.888	-0.02
251.104	0.01
251.32	-0.05
251.536	0.07
251.752	-0.05
251.969	-0.03
252.185	-0.03
252.401	0.15
252.617	-0.02
252.833	-0.01
253.049	0.05
253.265	-0.1
253.481	-0.03
253.697	-0.06
253.913	-0.1
254.129	0.02
254.345	0.04
254.561	-0.09
254.777	-0.04
254.993	0.07
255.209	0.03
255.425	-0.02
255.641	-0.09
255.857	0.08
256.073	0
256.288	-0.16
256.504	-0.08
256.72	-0.04
256.936	0.04
257.152	-0.04
257.367	-0
257.583	0.03
257.799	0.03
258.015	-0.08
258.23	-0.07
258.446	0.07
258.662	-0.11
258.877	-0.09
259.093	-0.08
259.309	-0.04
259.524	0.05
259.74	-0.01
259.955	-0.1
260.171	-0.03
260.387	-0.04
260.602	0.05
260.818	0.06
261.033	-0.08
261.249	-0.06
261.464	-0.06
261.68	-0.05
261.895	0.04
262.11	0.03
262.326	-0.02
262.541	-0.11
262.757	0.04
262.972	-0.03
263.187	0.01
263.403	-0.08
263.618	0.06
263.833	-0.06
264.049	-0.08
264.264	-0.02
264.479	0.02
264.694	0.11
264.91	-0.08
265.125	-0.04
265.34	0.07
265.555	0.15
265.77	0.01
265.986	-0.04
266.201	0.04
266.416	0.07
266.631	-0.04
266.846	-0.02
267.061	0.01
267.276	-0
267.491	-0.13
267.706	0.06
267.921	0.03
268.136	0
268.351	0.01
268.566	-0.07
268.781	0.09
268.996	0.06
269.211	-0.06
269.426	-0.05
269.641	-0.09
269.856	-0.01
270.071	-0.08
270.285	-0.08
270.5	0.03
270.715	0.11
270.93	0.01
271.145	0.03
271.359	0.02
271.574	0
271.789	0.01
272.004	-0.11
272.218	-0.01
272.433	0.06
272.648	-0.12
272.862	0.05
273.077	-0.08
273.292	-0.04
273.506	-0.1
273.721	-0.03
273.936	0.03
274.15	0.05
274.365	-0.04
274.579	0.07
274.794	0.02
275.008	0.01
275.223	-0.07
275.437	-0.03
275.652	0.03
275.866	0.07
276.081	-0.02
276.295	0.05
276.509	-0.02
276.724	-0.05
276.938	-0
277.153	0.03
277.367	0.06
277.581	-0.06
277.796	-0.05
278.01	-0.03
278.224	0.06
278.438	0.09
278.653	-0.07
278.867	-0.03
279.081	-0.18
279.295	-0.07
279.51	0.02
279.724	-0.08
279.938	0.04
280.152	0.01
280.366	-0.04
280.58	-0.05
280.794	0.04
281.008	-0.04
281.222	0.05
281.437	0.13
281.651	-0.02
281.865	0.04
282.079	-0
282.293	-0.07
282.507	-0.06
282.721	-0.01
282.935	0.03
283.148	-0.1
283.362	-0.02
283.576	-0.04
283.79	0.01
284.004	-0.03
284.218	0.03
284.432	-0.01
284.646	-0.01
284.859	-0.01
285.073	-0.03
285.287	0.01
285.501	-0.04
285.714	-0.03
285.928	0
286.142	-0.02
286.356	-0.03
286.569	-0.04
286.783	0.03
286.997	0.03
287.21	-0
287.424	0.05
287.637	0.03
287.851	0
288.065	0.01
288.278	0.01
288.492	-0.02
288.705	0.01
288.919	0.05
289.132	-0.03
289.346	0.07
289.559	-0.09
289.773	-0.03
289.986	0
290.2	0.01
290.413	0.04
290.626	-0.1
290.84	-0.04
291.053	-0
291.267	0.07
291.48	-0.04
291.693	-0.01
291.906	-0.01
292.12	-0.03
292.333	-0.05
292.546	0.01
292.76	0.07
292.973	0
293.186	0.01
293.399	-0.04
293.612	0.06
293.826	0.01
294.039	-0.03
294.252	-0.02
294.465	-0.02
294.678	0.02
294.891	0.04
295.104	-0.03
295.317	0
295.53	-0
295.743	-0.02
295.956	-0.02
296.169	0.07
296.382	0.06
296.595	0.01
296.808	-0.01
297.021	0.02
297.234	0.06
297.447	-0.04
297.66	0.02
297.873	0.09
298.086	0.02
298.299	-0.02
298.511	-0.04
298.724	-0.06
298.937	-0.04
299.15	-0.08
299.363	0.02
299.575	0.01
299.788	0.02
300.001	0.02
300.213	-0.04
300.426	-0.03
300.639	-0.07
300.852	-0.05
301.064	0.06
301.277	0.03
301.489	0.05
301.702	0.05
301.915	-0.02
302.127	-0.01
302.34	-0.01
302.552	0.02
302.765	-0.07
302.977	0
303.19	-0.03
303.402	-0.05
303.615	-0.01
303.827	-0.05
304.04	-0.03
304.252	0.02
304.464	-0.02
304.677	0.1
304.889	0.04
305.102	-0.03
305.314	-0.02
305.526	0.07
305.739	0
305.951	-0.04
306.163	-0.04
306.375	0.06
306.588	-0.04
306.8	-0.04
307.012	-0.08
307.224	0.01
307.436	0.06
307.649	-0.03
307.861	0.01
308.073	0.02
308.285	-0.05
308.497	-0.04
308.709	-0.02
308.921	-0.01
309.133	0.05
309.346	-0.01
309.558	0
309.77	0.03
309.982	0.04
310.194	0.06
310.406	-0.03
310.617	0.05
310.829	0.01
311.041	0
311.253	-0.03
311.465	-0.01
311.677	-0
311.889	-0.01
312.101	-0.02
312.313	0.04
312.524	0.05
312.736	-0.06
312.948	0.03
313.16	0.05
313.372	-0.01
313.583	-0.02
313.795	-0.01
314.007	-0
314.218	0
314.43	0.03
314.642	-0.06
314.853	-0
315.065	0.06
315.277	0.06
315.488	0.02
315.7	0.04
315.912	0.03
316.123	0
316.335	-0.02
316.546	0.12
316.758	-0.03
316.969	-0.04
317.181	0.01
317.392	0
317.604	0.07
317.815	-0.02
318.026	0.01
318.238	-0.02
318.449	-0.02
318.661	-0.06
318.872	-0.05
319.083	-0.04
319.295	0.04
319.506	-0.05
319.717	0.02
319.929	0
320.14	-0.01
320.351	-0.02
320.562	-0.02
320.774	-0.03
320.985	0.01
321.196	-0.02
321.407	-0.11
321.618	0.01
321.829	0
322.041	0.03
322.252	0.01
322.463	-0.01
322.674	0.06
322.885	-0.05
323.096	-0.03
323.307	-0.05
323.518	0
323.729	-0.04
323.94	-0.04
324.151	-0
324.362	-0.03
324.573	0.02
324.784	-0.01
324.995	0.03
325.206	0.02
325.417	-0.03
325.628	0.01
325.838	0.01
326.049	-0.01
326.26	0.02
326.471	0
326.682	0.03
326.892	-0.02
327.103	-0.09
327.314	-0.05
327.525	0.05
327.735	-0
327.946	-0.02
328.157	-0.04
328.368	-0.02
328.578	-0.02
328.789	-0.01
328.999	0
329.21	-0
329.421	0.04
329.631	-0.04
329.842	-0
330.052	0.02
330.263	0.01
330.473	0
330.684	-0.01
330.894	-0.06
331.105	-0.01
331.315	-0.01
331.526	-0.04
331.736	0.08
331.947	0.05
332.157	-0.02
332.367	-0.04
332.578	0.04
332.788	0.1
332.999	0.02
333.209	-0.02
333.419	-0.04
333.629	0
333.84	0.02
334.05	0.03
334.26	0.04
334.47	-0.01
334.681	0.05
334.891	0.01
335.101	0.01
335.311	0.07
335.521	-0.02
335.732	-0.08
335.942	0.04
336.152	0
336.362	-0.02
336.572	0.01
336.782	0
336.992	-0.03
337.202	-0.02
337.412	-0.04
337.622	0.06
337.832	-0.01
338.042	-0.01
338.252	-0.02
338.462	-0.01
338.672	-0.02
338.882	0.01
339.092	0
339.302	0.06
339.511	0.06
339.721	-0.01
339.931	-0.06
340.141	0.05
340.351	0.05
340.561	0
340.77	0
340.98	0.01
341.19	-0.02
341.4	-0.03
341.609	-0.1
341.819	-0.03
342.029	-0.04
342.238	0.01
342.448	-0.04
342.658	0.04
342.867	-0.02
343.077	0.01
343.286	-0.01
343.496	-0.03
343.706	0.04
343.915	-0.07
344.125	-0.02
344.334	0.04
344.544	-0.03
344.753	0.03
344.963	-0.05
345.172	-0.02
345.381	-0.04
345.591	-0.03
345.8	-0.03
346.01	0.02
346.219	0.05
346.428	-0.15
346.638	-0.01
346.847	0.02
347.056	0.05
347.266	-0.03
347.475	0
347.684	0.01
347.893	0
348.103	0
348.312	0.01
348.521	-0.03
348.73	0
348.94	0
349.149	-0.03
349.358	-0.01
349.567	0.01
349.776	-0.02
349.985	-0.05
350.194	0.01
350.403	0.01
350.612	-0.03
350.821	-0.02
351.03	-0.02
351.239	-0.07
351.448	0
351.657	-0.03
351.866	0.07
352.075	-0.02
352.284	0.07
352.493	-0.11
352.702	0.05
352.911	0.01
353.12	0.02
353.329	0
353.538	0.01
353.746	-0.03
353.955	-0.02
354.164	0.01
354.373	-0.04
354.582	0.04
354.79	-0.01
354.999	0.02
355.208	-0.05
355.416	0.01
355.625	-0.06
355.834	-0.01
356.042	0.02
356.251	-0
356.46	0.02
356.668	0.01
356.877	0.06
357.085	0.03
357.294	-0.07
357.503	0.04
357.711	-0.02
357.92	0.08
358.128	-0.01
358.337	-0.01
358.545	0.01
358.754	0.01
358.962	-0.04
359.17	0.01
359.379	0.05
359.587	0.05
359.796	-0.01
360.004	0.07
360.212	0.03
360.421	0.02
360.629	-0.04
360.837	-0.01
361.046	0.02
361.254	0.05
361.462	0.03
361.67	-0.04
361.879	-0.01
362.087	0.06
362.295	-0.02
362.503	0.01
362.711	-0.03
362.92	-0.05
363.128	-0.01
363.336	-0.07
363.544	-0.04
363.752	-0.02
363.96	-0.04
364.168	-0.04
364.376	-0.02
364.584	-0.02
364.792	0.06
365	0.01
365.208	0.01
365.416	0.02
365.624	0.02
365.832	-0.05
366.04	0.06
366.248	0.02
366.456	0.01
366.664	-0.03
366.872	0.02
367.079	-0.01
367.287	-0.02
367.495	0.03
367.703	-0.02
367.911	-0
368.118	0
368.326	-0.03
368.534	-0.02
368.742	0.06
368.949	-0.03
369.157	-0.09
369.365	0.08
369.572	-0.03
369.78	-0.03
369.988	0.01
370.195	0.03
370.403	0.01
370.61	-0.05
370.818	-0.02
371.026	0
371.233	-0
371.441	-0.01
371.648	0.02
371.856	0.02
372.063	0.04
372.271	0
372.478	-0.01
372.685	-0.03
372.893	0.05
373.1	-0.04
373.308	-0.04
373.515	0.07
373.722	0.02
373.93	0.02
374.137	0.03
374.344	0.09
374.552	0.03
374.759	0.03
374.966	0.03
375.173	0.01
375.381	0.01
375.588	0.01
375.795	-0.1
376.002	-0.03
376.209	-0.02
376.417	-0.05
376.624	0.01
376.831	0.02
377.038	-0.02
377.245	-0.07
377.452	-0.02
377.659	-0
377.866	-0.04
378.073	0.03
378.28	0.03
378.487	-0
378.694	0.01
378.901	-0.02
379.108	-0.01
379.315	0.02
379.522	0.06
379.729	0
379.936	-0.02
380.143	0.02
380.35	-0.01
380.557	-0
380.763	-0.01
380.97	-0.01
381.177	0.01
381.384	0.02
381.591	-0.07
381.797	-0.01
382.004	-0.01
382.211	0.03
382.418	-0.01
382.624	0.04
382.831	0.01
383.038	-0
383.244	0.01
383.451	-0.02
383.658	0
383.864	-0.02
384.071	-0.02
384.277	0.05
384.484	-0.04
384.69	0.05
384.897	-0.03
385.103	-0
385.31	-0.04
385.516	0.03
385.723	-0.07
385.929	-0.03
386.136	-0.04
386.342	0.03
386.549	-0.03
386.755	0.03
386.961	0.01
387.168	-0.04
387.374	0.02
387.58	0.01
387.787	-0
387.993	-0.03
388.199	-0.01
388.406	-0.02
388.612	-0.01
388.818	-0.03
389.024	-0.03
389.231	-0.03
389.437	0.02
389.643	-0
389.849	-0.03
390.055	-0.01
390.261	0.01
390.467	-0.03
390.674	-0.05
390.88	-0.03
391.086	0.01
391.292	-0.03
391.498	0.02
391.704	-0
391.91	-0.02
392.116	-0.03
392.322	-0.08
392.528	0.03
392.734	-0
392.94	-0
393.146	0.01
393.352	-0.01
393.557	-0.02
393.763	-0
393.969	0
394.175	-0.03
394.381	-0
394.587	-0.06
394.792	-0.03
394.998	0.04
395.204	0.01
395.41	-0.01
395.615	0.01
395.821	-0.02
396.027	0.01
396.233	-0.04
396.438	0.02
396.644	0.05
396.85	0.04
397.055	-0.02
397.261	-0.02
397.466	-0.07
397.672	-0.01
397.878	-0.01
398.083	0.02
398.289	-0.07
398.494	0.03
398.7	0.02
398.905	-0.08
399.111	0.04
399.316	-0.05
399.522	-0.03
399.727	0.03
399.932	0.01
400.138	-0.05
400.343	0.04
400.549	0.03
400.754	-0.02
400.959	0.03
401.165	-0.01
401.37	0.01
401.575	0.09
401.78	-0.01
401.986	-0.04
402.191	-0.04
402.396	-0.02
402.601	0.02
402.807	0.02
403.012	0.02
403.217	0.01
403.422	-0.02
403.627	0.02
403.832	-0.03
404.037	0.02
404.243	0.02
404.448	-0.04
404.653	-0.07
404.858	-0.01
405.063	0.04
405.268	-0.04
405.473	-0.03
405.678	-0.02
405.883	0.08
406.088	0.07
406.293	-0.07
406.498	-0.05
406.703	0.02
406.907	-0.05
407.112	-0.09
407.317	0.04
407.522	0
407.727	-0.05
407.932	-0.02
408.136	0.04
408.341	-0.01
408.546	0
408.751	0.01
408.956	-0.01
409.16	-0
409.365	0.02
409.57	-0.03
409.774	-0
409.979	0.04
410.184	0.03
410.388	-0.02
410.593	0.05
410.798	-0.01
411.002	-0.04
411.207	0.04
411.411	0.04
411.616	-0.01
411.82	-0.01
412.025	0.04
412.229	-0.05
412.434	0.03
412.638	0.02
412.843	-0.03
413.047	-0.02
413.252	-0.06
413.456	-0.04
413.66	0.03
413.865	-0.03
414.069	0.04
414.273	0.01
414.478	-0.04
414.682	-0.02
414.886	-0.05
415.091	-0.09
415.295	-0.07
415.499	-0.02
415.703	-0.06
415.908	0.03
416.112	-0.1
416.316	0.07
416.52	-0.03
416.724	-0.07
416.929	-0.02
417.133	0.08
417.337	-0.02
417.541	-0.04
417.745	-0.04
417.949	-0.01
418.153	0
418.357	-0.05
418.561	0.06
418.765	-0.03
418.969	0.07
419.173	0.03
419.377	-0.02
419.581	0.03
419.785	-0.03
419.989	-0.05
420.193	-0.06
420.397	-0.04
420.601	0.06
420.804	0.01
421.008	-0.01
421.212	0.01
421.416	-0.01
421.62	-0.01
421.823	-0.03
422.027	0.06
422.231	-0.02
422.435	-0
422.638	0.07
422.842	-0.03
423.046	-0.01
423.249	0.06
423.453	0.01
423.657	0.04
423.86	-0.05
424.064	-0.01
424.268	0.08
424.471	-0.01
424.675	0.09
424.878	0.08
425.082	-0.02
425.285	0.01
425.489	0.01
425.692	0.01
425.896	-0.05
426.099	0.02
426.303	-0.09
426.506	-0.03
426.71	0.05
426.913	-0.01
427.116	0.02
427.32	0.01
427.523	-0.05
427.726	0.07
427.93	-0.05
428.133	-0.01
428.336	-0.04
428.54	-0.05
428.743	0.04
428.946	0.02
429.149	-0.07
429.353	-0.05
429.556	-0.04
429.759	-0.05
429.962	-0.1
430.165	-0
430.368	-0.02
430.571	-0.02
430.775	0.02
430.978	-0.06
431.181	-0.01
431.384	-0.02
431.587	-0.01
431.79	-0.05
431.993	-0.01
432.196	0
432.399	0
432.602	0.04
432.805	-0.02
433.008	-0.03
433.211	-0.06
433.414	0.05
433.616	0.03
433.819	-0.01
434.022	-0.09
434.225	0.04
434.428	0.01
434.631	0.08
434.833	0
435.036	-0.04
435.239	0.02
435.442	-0.01
435.645	-0.05
435.847	0.01
436.05	0.03
436.253	0.02
436.455	-0.09
436.658	-0
436.861	0.08
437.063	-0.05
437.266	-0.02
437.468	-0
437.671	0.09
437.874	-0.03
438.076	-0.05
438.279	-0.09
438.481	-0.01
438.684	-0.04
438.886	0.01
439.089	-0.06
439.291	0.01
439.494	0.02
439.696	-0.05
439.899	-0.01
440.101	0.03
440.303	-0.05
440.506	0.02
440.708	-0.09
440.91	0.03
441.113	-0.04
441.315	-0.04
441.517	-0.03
441.72	0.04
441.922	-0.03
442.124	-0.06
442.326	-0
442.529	0.02
442.731	-0.06
442.933	0.06
443.135	-0.02
443.337	-0.03
443.539	-0.07
443.742	-0.07
443.944	-0
444.146	-0.01
444.348	-0.07
444.55	-0.03
444.752	-0.03
444.954	-0.03
445.156	0.01
445.358	0
445.56	-0.01
445.762	-0
445.964	-0.01
446.166	-0.04
446.368	-0.06
446.57	-0.01
446.772	-0
446.974	-0.01
447.175	0
447.377	-0.02
447.579	-0.05
447.781	-0.1
447.983	0.03
448.184	-0.02
448.386	-0.01
448.588	-0.04
448.79	0.05
448.991	-0.03
449.193	-0.04
449.395	-0.04
449.597	-0.01
449.798	-0.01
450	0.02
450.202	-0
450.403	0.01
450.605	0.04
450.806	-0.01
451.008	-0.06
451.21	-0.01
451.411	-0.04
451.613	-0
451.814	0
452.016	0
452.217	0
452.419	0.05
452.62	-0.01
452.821	-0.01
453.023	0.06
453.224	0.05
453.426	-0.01
453.627	0
453.828	-0.03
454.03	-0.01
454.231	0.02
454.432	-0.03
454.634	0.09
454.835	-0.04
455.036	-0.07
455.238	0.05
455.439	0.05
455.64	-0.05
455.841	-0.01
456.042	0.09
456.244	0.05
456.445	-0.09
456.646	-0.07
456.847	-0.04
457.048	0.03
457.249	0.03
457.45	0.18
457.651	-0.03
457.852	0.03
458.054	0.01
458.255	-0.02
458.456	0.02
458.657	-0.01
458.858	-0.05
459.058	0.01
459.259	0.03
459.46	-0.06
459.661	-0.05
459.862	0.04
460.063	-0.01
460.264	0.05
460.465	-0.08
460.666	0.09
460.866	-0.06
461.067	-0.02
461.268	-0.01
461.469	-0.06
461.67	-0.04
461.87	-0.04
462.071	-0.01
462.272	-0.08
462.473	-0.03
462.673	0
462.874	-0.04
463.075	0.02
463.275	-0.07
463.476	-0.01
463.676	-0.02
463.877	0
464.078	-0.01
464.278	-0
464.479	-0.04
464.679	-0.01
464.88	-0.01
465.08	0.01
465.281	-0.01
465.481	-0.05
465.682	-0
465.882	0.01
466.083	-0.01
466.283	-0
466.483	0
466.684	-0.04
466.884	-0.03
467.085	-0.01
467.285	0.03
467.485	-0.03
467.686	-0.05
467.886	-0.02
468.086	-0.04
468.286	0.02
468.487	0.02
468.687	-0.07
468.887	-0.01
469.087	0.04
469.287	-0.04
469.488	-0.08
469.688	-0.03
469.888	0.06
470.088	-0.01
470.288	0.07
470.488	0.04
470.688	-0.03
470.888	-0.05
471.088	-0.04
471.288	0.06
471.488	0.04
471.688	0.01
471.888	-0.05
472.088	0.02
472.288	-0.01
472.488	-0.02
472.688	-0.02
472.888	-0.01
473.088	0
473.288	0.02
473.488	0.01
473.688	0.05
473.887	0.02
474.087	-0.04
474.287	0.01
474.487	-0.02
474.687	0
474.886	-0.05
475.086	-0.05
475.286	-0
475.486	-0
475.685	0.01
475.885	-0.01
476.085	-0.04
476.284	-0
476.484	-0.02
476.684	0.03
476.883	0.08
477.083	-0
477.282	-0.01
477.482	0.05
477.681	0.02
477.881	-0
478.08	-0.02
478.28	-0.05
478.479	-0.01
478.679	0.09
478.878	-0.02
479.078	-0.04
479.277	-0.03
479.477	-0.05
479.676	0.04
479.875	-0
480.075	-0.04
480.274	0.01
480.473	0.02
480.673	-0.04
480.872	-0
481.071	0
481.271	-0.01
481.47	-0.02
481.669	-0.02
481.868	-0.04
482.067	-0.01
482.267	-0.03
482.466	-0.03
482.665	-0.05
482.864	-0.06
483.063	-0.03
483.262	0.03
483.461	0.05
483.661	0.02
483.86	-0
484.059	0.01
484.258	-0.03
484.457	-0
484.656	-0.02
484.855	0.03
485.054	-0.03
485.253	-0.03
485.452	-0.03
485.651	-0.01
485.849	-0
486.048	-0.01
486.247	-0.02
486.446	-0
486.645	-0.03
486.844	-0.02
487.043	-0.03
487.241	0.03
487.44	-0.04
487.639	0
487.838	0.01
488.037	-0.03
488.235	0.04
488.434	0
488.633	-0
488.831	0.01
489.03	0.05
489.229	0.02
489.427	-0.03
489.626	0.01
489.825	0.05
490.023	-0.02
490.222	-0.01
490.42	0.03
490.619	0.04
490.817	-0.02
491.016	-0.01
491.214	0.05
491.413	-0.02
491.611	-0.02
491.81	0.01
492.008	0
492.207	0.02
492.405	-0.01
492.604	-0.06
492.802	-0
493	-0.01
493.199	0.01
493.397	-0.01
493.595	-0
493.794	-0.02
493.992	0.04
494.19	0.02
494.388	0.02
494.587	-0
494.785	0
494.983	-0.04
495.181	-0.02
495.379	-0
495.578	-0
495.776	-0.01
495.974	0.01
496.172	-0.01
496.37	-0
496.568	-0.04
496.766	-0.04
496.964	0.02
497.162	-0.02
497.36	-0.02
497.558	0
497.756	0.01
497.954	-0.01
498.152	-0.02
498.35	-0.02
498.548	-0.01
498.746	0.02
498.944	-0.04
499.142	-0.01
499.34	-0.03
499.538	-0.01
499.736	-0.03
499.933	0.02
500.131	0
500.329	0.01
500.527	0.01
500.725	0.01
500.922	0.01
501.12	0.01
501.318	0.01
501.516	-0.03
501.713	0.01
501.911	-0.01
502.109	-0.03
502.306	0
502.504	-0.02
502.701	-0.03
502.899	-0.03
503.097	0.05
503.294	-0.02
503.492	-0.02
503.689	-0
503.887	0
504.084	0.03
504.282	-0.01
504.479	-0.03
504.677	0
504.874	-0.05
505.072	-0.02
505.269	-0.01
505.466	-0
505.664	0.02
505.861	-0.05
506.059	-0.05
506.256	0.02
506.453	-0.03
506.651	0.02
506.848	0.02
507.045	-0.02
507.242	0.01
507.44	-0.02
507.637	-0.01
507.834	-0.01
508.031	0.02
508.229	-0.04
508.426	-0
508.623	0.03
508.82	0
509.017	-0.04
509.214	-0.01
509.411	-0.01
509.608	-0.01
509.805	-0
510.003	-0.04
510.2	-0.03
510.397	0.02
510.594	-0.01
510.791	-0.02
510.988	0
511.184	0.02
511.381	-0.01
511.578	-0.01
511.775	0.03
511.972	-0.01
512.169	-0.01
512.366	0
512.563	0.01
512.76	-0.02
512.956	-0
513.153	-0.01
513.35	0.01
513.547	-0.05
513.744	-0.03
513.94	-0.03
514.137	-0.03
514.334	0.01
514.53	-0.01
514.727	0.01
514.924	0.06
515.12	-0.04
515.317	-0.04
515.514	-0.04
515.71	-0.03
515.907	-0.02
516.103	-0.02
516.3	-0
516.497	0.03
516.693	0.03
516.89	-0
517.086	-0.03
517.283	0.04
517.479	-0.01
517.676	-0
517.872	0
518.068	-0.03
518.265	-0.05
518.461	-0.02
518.658	-0.01
518.854	-0
519.05	-0.01
519.247	-0.01
519.443	0.01
519.639	0.01
519.836	-0.02
520.032	-0
520.228	0
520.424	0.04
520.621	0.02
520.817	-0.01
521.013	0.02
521.209	0.04
521.405	0.05
521.601	0
521.798	0.01
521.994	0.05
522.19	-0.02
522.386	-0.03
522.582	-0.02
522.778	-0.01
522.974	-0.03
523.17	-0
523.366	-0
523.562	0.02
523.758	0.01
523.954	-0.04
524.15	-0.01
524.346	-0
524.542	-0
524.738	-0.01
524.934	-0.01
525.129	-0.02
525.325	-0
525.521	0.01
525.717	0.02
525.913	0.01
526.109	0.01
526.304	0.01
526.5	0.01
526.696	0.01
526.892	-0.01
527.087	-0.01
527.283	-0.03
527.479	0.01
527.674	-0.02
527.87	-0.02
528.066	-0.02
528.261	0.01
528.457	-0.01
528.653	-0.03
528.848	-0.02
529.044	0.01
529.239	0.01
529.435	0.01
529.63	-0
529.826	0.05
530.021	0.01
530.217	0.01
530.412	-0.02
530.608	-0.02
530.803	-0
530.999	-0
531.194	-0.04
531.389	0.01
531.585	-0.03
531.78	-0.01
531.975	-0.01
532.171	0.01
532.366	-0.04
532.561	-0.01
532.757	-0.02
532.952	-0
533.147	0.01
533.342	-0.02
533.538	-0.03
533.733	0.01
533.928	-0
534.123	-0.01
534.318	-0.02
534.513	-0.01
534.709	0.01
534.904	-0.02
535.099	-0.02
535.294	-0
535.489	-0.01
535.684	-0.02
535.879	-0.03
536.074	-0
536.269	-0.04
536.464	0
536.659	-0.04
536.854	-0.01
537.049	-0
537.244	-0
537.439	-0.02
537.634	0.01
537.828	-0
538.023	-0
538.218	-0.04
538.413	-0
538.608	-0.05
538.803	0.01
538.997	-0.04
539.192	0.02
539.387	0.01
539.582	0.01
539.776	0.01
539.971	-0.02
540.166	-0
540.36	-0.04
540.555	-0.01
540.75	-0.01
540.944	0
541.139	-0.04
541.334	-0.01
541.528	0.03
541.723	0.01
541.917	-0.02
542.112	-0.06
542.306	-0.01
542.501	-0.03
542.695	0.01
542.89	-0.01
543.084	0.01
543.279	-0.02
543.473	-0.03
543.668	-0
543.862	-0.02
544.056	0
544.251	-0.01
544.445	0.01
544.64	-0
544.834	-0.03
545.028	0
545.222	0
545.417	0.02
545.611	0
545.805	0.01
546	-0.01
546.194	-0
546.388	-0.03
546.582	0.01
546.776	-0.01
546.97	-0.03
547.165	0
547.359	0.03
547.553	-0.02
547.747	-0.01
547.941	0.01
548.135	-0.02
548.329	0.02
548.523	-0.01
548.717	-0.01
548.911	-0.04
549.105	0.02
549.299	-0.01
549.493	0.02
549.687	0.02
549.881	0.01
550.075	-0.02
550.269	-0.03
550.463	0.01
550.657	-0.03
550.85	-0
551.044	-0.04
551.238	0.01
551.432	-0.03
551.626	-0.04
551.82	-0.01
552.013	-0.03
552.207	0.02
552.401	0.02
552.594	0.01
552.788	-0.02
552.982	-0
553.176	-0.03
553.369	0.02
553.563	-0.01
553.756	-0.05
553.95	-0.04
554.144	0
554.337	0.03
554.531	-0.01
554.724	-0.01
554.918	-0.02
555.111	-0.01
555.305	0.01
555.498	0.05
555.692	0.01
555.885	-0.03
556.079	0.01
556.272	-0.02
556.466	0.02
556.659	-0.01
556.852	-0.01
557.046	-0.03
557.239	0.04
557.432	-0.04
557.626	-0.02
557.819	-0.02
558.012	0
558.206	-0.02
558.399	0
558.592	0.01
558.785	-0.01
558.979	0.01
559.172	-0
559.365	0.02
559.558	0.01
559.751	-0.01
559.944	-0.02
560.138	-0
560.331	0
560.524	-0.03
560.717	0
560.91	0.02
561.103	0.02
561.296	0
561.489	0.01
561.682	-0
561.875	-0
562.068	-0.01
562.261	0.01
562.454	0.03
562.647	0.02
562.84	0.03
563.032	-0.03
563.225	0.01
563.418	0.01
563.611	0
563.804	-0.01
563.997	-0.03
564.19	-0.04
564.382	-0.06
564.575	0.02
564.768	-0.01
564.961	-0.01
565.153	-0.01
565.346	-0
565.539	0.02
565.731	0.01
565.924	0.01
566.117	0.04
566.309	-0.01
566.502	-0.01
566.695	-0
566.887	0
567.08	-0.01
567.272	-0
567.465	-0.03
567.657	0.01
567.85	-0.01
568.042	0.01
568.235	0.01
568.427	-0.03
568.62	0.01
568.812	0.01
569.005	0.01
569.197	-0.03
569.389	0
569.582	0
569.774	-0.02
569.966	-0.01
570.159	-0.03
570.351	0.02
570.543	-0.01
570.736	-0
570.928	-0.04
571.12	0.02
571.312	-0.01
571.505	-0.04
571.697	0.02
571.889	-0.01
572.081	-0.01
572.273	-0.03
572.465	0.04
572.658	-0.01
572.85	0.01
573.042	-0.01
573.234	-0
573.426	0.04
573.618	-0.03
573.81	0
574.002	0.02
574.194	0.02
574.386	-0.03
574.578	-0.06
574.77	-0.02
574.962	0.01
575.154	-0.03
575.346	-0.02
575.538	0.01
575.729	-0.02
575.921	-0.02
576.113	-0.01
576.305	0.03
576.497	-0.03
576.689	-0.01
576.88	-0.02
577.072	-0.01
577.264	-0.01
577.456	-0.02
577.647	-0.04
577.839	-0.01
578.031	0.03
578.223	-0.04
578.414	-0.05
578.606	0.02
578.798	-0.02
578.989	-0.05
579.181	-0.01
579.372	0.01
579.564	-0.02
579.755	-0.01
579.947	-0
580.139	0.01
580.33	-0.05
580.522	-0.02
580.713	-0.07
580.905	-0.01
581.096	-0.02
581.287	0.01
581.479	-0
581.67	0.02
581.862	0.01
582.053	-0.04
582.244	-0.04
582.436	-0.01
582.627	-0
582.818	-0.02
583.01	-0.03
583.201	0.03
583.392	0.01
583.583	-0.01
583.775	-0.02
583.966	-0.02
584.157	-0.01
584.348	-0
584.54	-0.03
584.731	-0.02
584.922	-0.02
585.113	-0.03
585.304	0.01
585.495	0.02
585.686	-0
585.877	0.03
586.068	-0.01
586.259	0
586.45	-0.02
586.641	-0.03
586.832	-0.04
587.023	0.01
587.214	0.01
587.405	0
587.596	-0.01
587.787	0.03
587.978	-0.02
588.169	-0.04
588.36	-0.04
588.551	0.01
588.742	-0.01
588.932	0.01
589.123	0.01
589.314	0.01
589.505	0.02
589.696	0.02
589.886	-0.02
590.077	-0.06
590.268	0
590.458	-0.05
590.649	-0.04
590.84	0.02
591.03	-0.03
591.221	-0.06
591.412	-0.04
591.602	0
591.793	0.04
591.984	-0.04
592.174	-0.02
592.365	0.06
592.555	-0.03
592.746	0.01
592.936	0.02
593.127	0.01
593.317	0.02
593.508	-0.01
593.698	-0.01
593.889	0
594.079	-0.01
594.269	-0.02
594.46	-0
594.65	0.02
594.84	-0.01
595.031	-0.03
595.221	-0.01
595.411	-0.04
595.602	0.01
595.792	0.01
595.982	-0.03
596.172	0.05
596.363	-0
596.553	-0.01
596.743	-0.01
596.933	-0.02
597.123	0.03
597.314	0
597.504	-0.01
597.694	0.04
597.884	-0
598.074	-0.01
598.264	-0.01
598.454	0
598.644	0.01
598.834	0.02
599.024	-0.04
599.214	-0
599.404	0.03
599.594	-0.01
599.784	-0.05
599.974	0.06
600.164	0.02
600.354	-0.03
600.544	-0.04
600.734	-0.01
600.924	0.04
601.114	-0.02
601.303	-0.01
601.493	-0.01
601.683	-0.02
601.873	0.02
602.063	-0.05
602.252	0
602.442	-0.04
602.632	-0.03
602.821	-0.02
603.011	0.02
603.201	-0.01
603.39	-0
603.58	0
603.77	0.02
603.959	-0
604.149	-0.01
604.339	0.01
604.528	0.04
604.718	0.02
604.907	-0.02
605.097	-0.03
605.286	-0.02
605.476	0.03
605.665	0.01
605.855	0
606.044	0.04
606.234	0.02
606.423	0
606.612	-0.02
606.802	-0.02
606.991	0.04
607.181	-0.01
607.37	-0.03
607.559	-0.01
607.749	-0
607.938	-0.01
608.127	-0.01
608.316	-0.02
608.506	0.02
608.695	0.01
608.884	-0.02
609.073	0
609.263	0.01
609.452	0.03
609.641	0.03
609.83	-0.01
610.019	0.01
610.208	-0.01
610.397	0.03
610.586	0.04
610.775	-0.02
610.965	-0
611.154	0
611.343	0
611.532	0.01
611.721	-0.03
611.91	-0.02
612.099	0.04
612.287	0.02
612.476	-0.02
612.665	0.02
612.854	-0.01
613.043	0.05
613.232	0.01
613.421	-0.02
613.61	0.04
613.798	-0
613.987	0.03
614.176	-0
614.365	0.04
614.554	-0
614.742	0.04
614.931	0.01
615.12	0.05
615.309	0.02
615.497	0.05
615.686	-0
615.875	0
616.063	0.02
616.252	0.02
616.44	0.04
616.629	0.03
616.818	0.06
617.006	0.02
617.195	0.01
617.383	0.02
617.572	0.04
617.76	0.03
617.949	0.03
618.137	0.05
618.326	0.11
618.514	0.01
618.703	0.01
618.891	0.09
619.079	-0.01
619.268	0.05
619.456	-0
619.644	0.11
619.833	0.03
620.021	0.07
620.209	0.01
620.398	0.04
620.586	0.09
620.774	0.07
620.962	0.06
621.151	0.1
621.339	0.03
621.527	0.03
621.715	0.01
621.903	0.02
622.092	0.03
622.28	0.08
622.468	0.08
622.656	0.03
622.844	0.08
623.032	0.04
623.22	-0.01
623.408	0.09
623.596	0.11
623.784	0.11
623.972	0.05
624.16	0.07
624.348	0.13
624.536	0.05
624.724	0.05
624.912	0.14
625.1	0.11
625.288	0.03
625.476	0.06
625.664	0.13
625.851	0.06
626.039	0.1
626.227	0.13
626.415	0.08
626.603	0.01
626.79	0.09
626.978	0.07
627.166	0.11
627.354	0.07
627.541	0.07
627.729	0.06
627.917	0.14
628.104	0.14
628.292	0.13
628.48	0.11
628.667	0.11
628.855	0.16
629.042	0.13
629.23	0.09
629.418	0.11
629.605	0.11
629.793	0.11
629.98	0.11
630.168	0.12
630.355	0.13
630.543	0.14
630.73	0.14
630.917	0.17
631.105	0.19
631.292	0.12
631.48	0.16
631.667	0.18
631.854	0.17
632.042	0.17
632.229	0.11
632.416	0.2
632.604	0.16
632.791	0.15
632.978	0.22
633.165	0.2
633.353	0.24
633.54	0.19
633.727	0.13
633.914	0.2
634.101	0.13
634.289	0.27
634.476	0.2
634.663	0.19
634.85	0.22
635.037	0.16
635.224	0.17
635.411	0.26
635.598	0.25
635.785	0.24
635.972	0.26
636.159	0.26
636.346	0.22
636.533	0.23
636.72	0.25
636.907	0.25
637.094	0.27
637.281	0.25
637.468	0.3
637.655	0.29
637.842	0.29
638.029	0.24
638.215	0.31
638.402	0.32
638.589	0.28
638.776	0.27
638.963	0.31
639.149	0.38
639.336	0.42
639.523	0.31
639.709	0.33
639.896	0.33
640.083	0.4
640.27	0.39
640.456	0.37
640.643	0.38
640.829	0.33
641.016	0.38
641.203	0.38
641.389	0.44
641.576	0.44
641.762	0.42
641.949	0.38
642.135	0.47
642.322	0.44
642.508	0.4
642.695	0.48
642.881	0.45
643.068	0.47
643.254	0.48
643.441	0.53
643.627	0.48
643.813	0.48
644	0.55
644.186	0.48
644.372	0.56
644.559	0.6
644.745	0.56
644.931	0.55
645.118	0.6
645.304	0.61
645.49	0.6
645.676	0.59
645.862	0.62
646.049	0.65
646.235	0.66
646.421	0.77
646.607	0.76
646.793	0.7
646.979	0.71
647.165	0.74
647.352	0.74
647.538	0.8
647.724	0.8
647.91	0.78
648.096	0.86
648.282	0.85
648.468	0.84
648.654	0.86
648.84	0.83
649.026	0.84
649.212	0.9
649.397	0.89
649.583	0.93
649.769	0.96
649.955	0.97
650.141	1
650.327	1.05
650.513	0.97
650.698	1.05
650.884	0.97
651.07	1.09
651.256	1.06
651.442	1.08
651.627	1.11
651.813	1.16
651.999	1.15
652.184	1.18
652.37	1.2
652.556	1.18
652.741	1.26
652.927	1.13
653.113	1.28
653.298	1.3
653.484	1.29
653.669	1.32
653.855	1.31
654.04	1.37
654.226	1.39
654.412	1.39
654.597	1.31
654.782	1.45
654.968	1.43
655.153	1.49
655.339	1.44
655.524	1.46
655.71	1.52
655.895	1.5
656.08	1.53
656.266	1.59
656.451	1.57
656.636	1.54
656.822	1.61
657.007	1.58
657.192	1.65
657.378	1.61
657.563	1.61
657.748	1.66
657.933	1.65
658.118	1.58
658.304	1.61
658.489	1.63
658.674	1.59
658.859	1.57
659.044	1.62
659.229	1.57
659.414	1.51
659.599	1.49
659.785	1.46
659.97	1.47
660.155	1.49
660.34	1.42
660.525	1.34
660.71	1.32
660.895	1.32
661.08	1.3
661.264	1.21
661.449	1.26
661.634	1.18
661.819	1.17
662.004	1.14
662.189	0.97
662.374	1.01
662.559	0.91
662.743	0.88
662.928	0.93
663.113	0.87
663.298	0.78
663.483	0.79
663.667	0.79
663.852	0.7
664.037	0.76
664.221	0.64
664.406	0.73
664.591	0.66
664.775	0.62
664.96	0.57
665.145	0.58
665.329	0.56
665.514	0.48
665.698	0.46
665.883	0.39
666.068	0.5
666.252	0.43
666.437	0.39
666.621	0.38
666.806	0.41
666.99	0.37
667.174	0.33
667.359	0.39
667.543	0.31
667.728	0.32
667.912	0.24
668.096	0.34
668.281	0.27
668.465	0.25
668.649	0.28
668.834	0.22
669.018	0.25
669.202	0.21
669.387	0.2
669.571	0.26
669.755	0.2
669.939	0.21
670.124	0.18
670.308	0.23
670.492	0.21
670.676	0.16
670.86	0.15
671.044	0.11
671.228	0.21
671.413	0.12
671.597	0.12
671.781	0.08
671.965	0.18
672.149	0.12
672.333	0.11
672.517	0.12
672.701	0.17
672.885	0.13
673.069	0.02
673.253	0.15
673.437	0.13
673.621	0.07
673.804	0.12
673.988	0.06
674.172	0.09
674.356	0.01
674.54	0.05
674.724	0.12
674.908	0.06
675.091	0.1
675.275	0.06
675.459	0.08
675.643	0.02
675.826	0.06
676.01	0.02
676.194	0.05
676.377	0.11
676.561	0.07
676.745	0.07
676.928	0.1
677.112	0.09
677.296	0.01
677.479	0.07
677.663	0.06
677.846	0.06
678.03	0.01
678.213	0.03
678.397	0.05
678.58	0.03
678.764	0.01
678.947	0.02
679.131	0.01
679.314	0.03
679.498	0.06
679.681	0.01
679.865	0.07
680.048	0.07
680.231	0.02
680.415	-0.01
680.598	-0.02
680.781	-0.01
680.965	-0.01
681.148	0.03
681.331	0.02
681.514	-0.01
681.698	-0.02
681.881	-0.01
682.064	0.01
682.247	0.02
682.43	-0.06
682.614	0.02
682.797	0.06
682.98	0.02
683.163	-0.03
683.346	0.03
683.529	-0.01
683.712	-0.07
683.895	0.04
684.078	-0.02
684.261	-0.03
684.444	-0.03
684.627	0.05
684.81	0.02
684.993	-0.01
685.176	0.01
685.359	-0.01
685.542	-0.04
685.725	0.06
685.908	0.03
686.091	-0.02
686.274	0.08
686.457	0.03
686.639	-0
686.822	0.07
687.005	-0.01
687.188	-0
687.371	0.12
687.553	-0.02
687.736	-0.01
687.919	0.07
688.102	0.07
688.284	-0.01
688.467	0.01
688.65	0.01
688.832	-0.02
689.015	0.01
689.197	-0.07
689.38	0.04
689.563	0.04
689.745	0
689.928	-0.04
690.11	-0.01
690.293	0.02
690.475	-0.04
690.658	0.05
690.84	-0.07
691.023	-0.02
691.205	-0.02
691.388	0.01
691.57	0.06
691.752	0.04
691.935	-0.05
692.117	-0.02
692.3	0.03
692.482	0.01
692.664	0.01
692.847	-0.01
693.029	0.09
693.211	0.04
693.393	0.03
693.576	0.01
693.758	-0.03
693.94	-0.07
694.122	-0.01
694.304	-0
694.487	-0.03
694.669	0.08
694.851	-0.05
695.033	-0.01
695.215	-0.07
695.397	-0.07
695.579	0
695.761	-0.07
695.943	-0.06
696.125	0.03
696.308	0.03
696.49	-0.1
696.671	0.07
696.853	0.04
697.035	0.14
697.217	0.02
697.399	-0.03
697.581	-0.05
697.763	0.02
697.945	-0.06
698.127	-0.02
698.309	0.05
698.491	0.03
698.672	0.02
698.854	0.02
699.036	0.01
699.218	-0.06
699.399	0.04
699.581	0.05
699.763	-0.01
699.945	-0.08
700.126	-0.01
700.308	0.01
700.49	-0.04
700.671	-0.09
700.853	-0.04
701.035	-0.03
701.216	0.05
701.398	-0.05
701.579	-0.01
701.761	0.04
701.943	-0.07
702.124	-0.01
702.306	-0.01
702.487	0.09
702.669	0.02
702.85	0
703.031	-0.08
703.213	0.05
703.394	0.02
703.576	-0.02
703.757	0.08
703.938	0.04
704.12	0.14
704.301	0.01
704.483	-0.05
704.664	-0
704.845	0.1
705.026	0.02
705.208	-0.01
705.389	-0.01
705.57	-0.04
705.751	-0.07
705.933	-0.02
706.114	0
706.295	-0
706.476	-0.09
706.657	0.05
706.838	-0
707.02	0.07
707.201	-0.01
707.382	-0.05
707.563	0.04
707.744	-0.05
707.925	-0.04
708.106	-0.08
708.287	0.01
708.468	0.07
708.649	-0.03
708.83	0.01
709.011	0.01
709.192	0.03
709.373	-0.09
709.554	-0.05
709.734	0.01
709.915	0.03
710.096	-0.01
710.277	-0.13
710.458	0.05
710.639	-0.01
710.819	-0.12
711	-0.01
711.181	0.05
711.362	0.03
711.542	0.02
711.723	-0.05
711.904	0.01
712.085	0.01
712.265	0.03
712.446	-0.06
712.627	-0.05
712.807	-0.05
712.988	-0.03
713.168	-0.07
713.349	0.03
713.53	-0.11
713.71	-0.04
713.891	-0.12
714.071	-0.02
714.252	-0.09
714.432	-0.04
714.613	-0.08
714.793	-0
714.974	0.09
715.154	0.06
715.334	0.04
715.515	0.1
715.695	-0.03
715.876	-0.05
716.056	-0.03
716.236	-0.02
716.417	-0.06
716.597	-0.06
716.777	0.17
716.957	-0.02
717.138	-0.06
717.318	-0.02
717.498	-0.07
717.678	-0.05
717.859	0.01
718.039	-0.01
718.219	0.02
718.399	0.04
718.579	-0.11
718.759	-0.06
718.939	-0.01
719.12	-0.01
719.3	-0.03
719.48	-0.12
719.66	-0.11
719.84	0.07
720.02	-0.05
720.2	-0.02
720.38	0.06
720.56	0.06
720.74	-0.05
720.92	0.03
721.1	0.09
721.279	0.14
721.459	-0.06
721.639	-0.15
721.819	0
721.999	-0.06
722.179	0.03
722.359	-0.07
722.538	0
722.718	-0
722.898	-0.08
723.078	-0.01
723.257	-0.1
723.437	-0.03
723.617	-0.02
723.797	-0.07
723.976	-0.07
724.156	-0.01
724.336	0.09
724.515	0.13
724.695	-0.15
724.874	-0.01
725.054	0.07
725.234	-0.12
725.413	0.02
725.593	0.02
725.772	-0.05
725.952	-0.02
726.131	-0.04
726.311	0.02
726.49	-0.02
726.67	-0.11
726.849	-0.1
727.028	0
727.208	-0.03
727.387	-0.06
727.567	-0.14
727.746	-0.04
727.925	-0.08
728.105	-0.11
728.284	-0
728.463	-0.09
728.643	-0.01
728.822	-0.12
729.001	-0.09
729.18	0
729.359	0.09
729.539	-0.01
729.718	0.05
729.897	-0.02
730.076	-0
730.255	-0.11
730.434	-0.04
730.614	0.03
730.793	0.05
730.972	-0.06
731.151	0.03
731.33	0.13
731.509	-0.02
731.688	-0.01
731.867	0.05
732.046	-0.18
732.225	0.15
732.404	-0.14
732.583	-0.11
732.762	0.11
732.941	0.04
733.12	-0.01
733.298	-0.09
733.477	0.05
733.656	-0.05
733.835	-0.06
734.014	0.04
734.193	-0.02
734.371	0.02
734.55	0.04
734.729	-0.14
734.908	0.04
735.086	-0.01
735.265	0.05
735.444	-0.13
735.623	-0.15
735.801	-0.18
735.98	-0.11
736.159	-0.03
736.337	0.01
736.516	0.02
736.694	-0.1
736.873	-0.06
737.052	-0.04
737.23	0.13
737.409	-0.09
737.587	0.15
737.766	-0.21
737.944	-0.05
738.123	-0.01
738.301	0.05
738.479	-0.07
738.658	0.01
738.836	-0.24
739.015	0.07
739.193	0.08
739.371	-0.15
739.55	-0.07
739.728	-0.14
739.906	0.19
740.085	0.05
740.263	0.03
740.441	-0.1
740.62	0.21
740.798	0.02
740.976	0.01
741.154	-0.09
741.332	0.12
741.511	-0.11
741.689	-0.01
741.867	0.03
742.045	-0.02
742.223	-0.14
742.401	-0.14
742.579	-0.09
742.757	0
742.935	-0.17
743.114	-0.11
743.292	0.01
743.47	0.02
743.648	0.01
743.826	-0.01
744.004	0.1
744.181	0.01
744.359	-0.05
744.537	-0
744.715	0.04
744.893	-0.04
745.071	0
745.249	-0.15
745.427	0.01
745.605	0.06
745.782	-0.08
745.96	0.06
746.138	-0
746.316	0.11
746.493	0.03
746.671	-0.06
746.849	-0.03
747.027	0.06
747.204	-0.12
747.382	0.02
747.56	-0.08
747.737	0.04
747.915	-0.06
748.093	0.04
748.27	0
748.448	-0.08
748.625	-0.06
748.803	-0.02
748.98	-0.04
749.158	0.03
749.335	0.03
749.513	0.03
749.69	0.01
749.868	-0.12
750.045	0.01
750.223	-0.02
750.4	-0.23
750.578	0.16
750.755	-0.01
750.932	-0.16
751.11	0.1
751.287	-0.16
751.464	0.04
751.642	-0.05
751.819	-0
751.996	0
752.173	-0.14
752.351	-0.13
752.528	-0
752.705	-0.03
752.882	-0.02
753.06	0.03
753.237	0.16
753.414	0.05
753.591	0.16
753.768	-0.09
753.945	-0.06
754.122	-0.2
754.299	-0.02
754.476	-0.14
754.654	0.11
754.831	0.08
755.008	0.01
755.185	-0.04
755.362	-0.14
755.539	0.03
755.716	-0.11
755.892	-0.1
756.069	0.02
756.246	-0.15
756.423	-0
756.6	0.07
756.777	0
756.954	0.03
757.131	-0.07
757.307	-0.15
757.484	-0.1
757.661	0.01
757.838	0.04
758.015	-0.1
758.191	-0.02
758.368	0.08
758.545	0.1
758.721	0.08
758.898	-0.14
759.075	-0.06
759.251	0.02
759.428	0.14
759.605	-0.15
759.781	-0.1
759.958	0.04
760.134	-0.02
760.311	-0.16
760.488	0.09
760.664	0.03
760.841	0.01
761.017	-0.11
761.194	-0.03
761.37	-0.05
761.547	0.04
761.723	-0.05
761.899	0.05
762.076	-0.18
762.252	-0.03
762.429	-0.1
762.605	0.1
762.781	-0.06
762.958	0.14
763.134	-0.02
763.31	-0.04
763.486	0.11
763.663	-0.21
763.839	0.05
764.015	-0.1
764.191	-0.11
764.368	-0.02
764.544	-0.07
764.72	-0.04
764.896	0.04
765.072	-0.02
765.248	-0.01
765.425	-0.09
765.601	-0.13
765.777	-0.13
765.953	-0.18
766.129	-0.26
766.305	-0.11
766.481	0.05
766.657	-0.04
766.833	0.1
767.009	-0.2
767.185	-0.06
767.361	-0.14
767.537	-0.17
767.713	-0.05
767.889	-0.1
768.065	0.09
768.24	0.05
768.416	-0.02
768.592	-0.07
768.768	-0.14
768.944	-0.03
769.12	-0.14
769.295	-0.04
769.471	0.02
769.647	0.03
769.823	0.07
769.998	-0.11
770.174	-0.14
770.35	0.21
770.525	0.1
770.701	-0.08
770.877	-0.12
771.052	-0.15
771.228	0.02
771.403	0.05
771.579	0.03
771.755	0.2
771.93	0.05
772.106	-0.16
772.281	-0.29
772.457	-0
772.632	0.05
772.808	-0.14
772.983	-0.05
773.159	-0.1
773.334	0.13
773.509	-0.08
773.685	-0.04
773.86	0.29
774.036	0.13
774.211	-0.04
774.386	-0.07
774.562	-0.17
774.737	-0.12
774.912	-0.05
775.087	-0.04
775.263	-0.12
775.438	0.05
775.613	-0.12
775.788	0.04
775.964	-0.02
776.139	0.26
776.314	-0.15
776.489	0.02
776.664	0.05
776.839	-0.13
777.014	0.03
777.19	0.15
777.365	0.11
777.54	0.12
777.715	-0.06
777.89	0.03
778.065	-0.1
778.24	0.03
778.415	0.24
778.59	-0.17
778.765	-0.2
778.94	0.03
779.115	-0.13
779.289	-0.09
779.464	-0.07
779.639	0.03
779.814	-0.21
779.989	-0.18
780.164	0.23
780.339	0.07
780.513	-0.15
780.688	-0.06
780.863	0.03
781.038	0.17
781.212	-0.33
781.387	-0.1
781.562	0.38
781.737	0.05
781.911	0.09
782.086	-0.1
782.261	-0.01
782.435	0.11
782.61	-0.08
782.784	-0.18
782.959	0.08
783.134	0.02
783.308	-0.33
783.483	0.04
783.657	0.27
783.832	0.31
784.006	-0.43
784.181	-0.02
784.355	0.06
784.53	-0.33
784.704	-0.34
784.878	0.24
785.053	-0.05
785.227	0.36
785.402	0.17
785.576	-0.15
785.75	-0.11
785.925	-0.21
786.099	-0.06
786.273	0.14
786.448	-0.03
786.622	0.12
786.796	-0.2
786.97	-0.12
787.145	0.34
787.319	-0.44
787.493	-0.08
787.667	-0.23
787.841	-0.1
788.015	-0.03
788.19	-0.02
788.364	0.07
788.538	0.01
788.712	0.07
788.886	0.02
789.06	0.08
789.234	0.06
789.408	-0.31
789.582	-0.2
789.756	-0.02
789.93	-0.2
790.104	0.01
790.278	-0.09
790.452	-0.43
790.626	0.2
790.8	-0.3
790.973	0.19
791.147	0.26
791.321	0.11
791.495	0.02
791.669	0.16
791.843	-0.17
792.016	0.13
792.19	0.35
792.364	-0.19
792.538	0.36
792.711	0.07
792.885	0.01
793.059	-0.18
793.233	-0.49
793.406	0.07
793.58	-0.07
793.754	0.03
793.927	0
794.101	0.41
794.274	-0.02
794.448	0.16
794.622	-0.15
794.795	0.19
794.969	-0.06
795.142	0.32
795.316	-0.02
795.489	-0.19
795.663	0.21
795.836	0.06
796.009	-0.16
796.183	0.4
796.356	0.09
796.53	0.06
796.703	0.18
796.876	0.49
797.05	-0.24
797.223	-0.15
797.396	0.06
797.57	0.01
797.743	0.35
797.916	0.08
798.09	0
798.263	0.11
798.436	0.12
798.609	-0.16
798.782	-0.25
798.956	-0.01
799.129	0.11
799.302	0.05
799.475	-0.14
799.648	-0.21
799.821	-0.04
799.994	0.06
800.167	-0.43
800.34	-0.15
800.514	0.25
800.687	-0.19
800.86	-0.11
801.033	0.17
801.206	0.17
801.379	-0.3
801.551	0.33
801.724	0.16
801.897	0.03
802.07	0.01
802.243	-0.2
802.416	-0.03
802.589	0.01
802.762	0.16
802.935	-0.11
803.107	-0.1
803.28	-0.11
803.453	0.24
803.626	-0.23
803.798	0.18
803.971	-0.08
804.144	0.12
804.317	-0.12
804.489	-0.07
804.662	-0.16
804.835	-0.11
805.007	-0.36
805.18	0.34
805.353	-0
805.525	-0.43
805.698	-0.37
805.87	0.21
806.043	0.2
806.215	-0.4
806.388	-0.16
806.56	-0.04
806.733	0.45
806.905	-0.13
807.078	-0.21
807.25	-0.28
807.423	0.03
807.595	-0.24
807.768	0.05
807.94	0.43
808.112	0.04
808.285	-0.1
808.457	-0.27
808.629	-0.15
808.802	0.13
808.974	-0.16
809.146	0.08
809.318	-0.28
809.491	0.03
809.663	0.01
809.835	-0.39
810.007	-0
810.18	-0.11
810.352	-0.28
810.524	-0.04
810.696	0.28
810.868	0.65
811.04	-0.15
811.212	0.14
811.384	0.24
811.556	-0.1
811.728	0.02
811.901	0.42
812.073	-0.13
812.245	0.22
812.417	-0.11
812.589	-0.6
812.76	0.13
812.932	-0.06
813.104	0.34
813.276	0.08
813.448	0.35
813.62	-0.18
813.792	-0.19
813.964	0.03
814.136	0.01
814.307	-0.24
814.479	0.21
814.651	-0.18
814.823	0.79
814.995	-0.46
815.166	0.11
815.338	-0.39
815.51	-0.62
815.681	0.57
815.853	-0.09
816.025	0.01
816.196	0.31
816.368	0.29
816.54	-0.52
816.711	-0.6
816.883	0.18
817.054	0.1
817.226	-0.94
817.398	0.11
817.569	0.01
817.741	0.1
817.912	0.37
818.084	-0.44
818.255	0.12
818.426	-0.46
818.598	-0.07
818.769	-0.48
818.941	0.18
819.112	0.39
819.283	0.06
819.455	-0.5
819.626	-0.01
819.798	0.09
819.969	-0.1
820.14	-0.15
820.311	-0.22
820.483	0.2
820.654	-0.19
820.825	-0.25
820.996	-0.32
821.168	-0.31
821.339	-0.09
821.51	-0.12
821.681	-0.43
821.852	-0
822.023	-0.04
822.195	-0.77
822.366	0.39
822.537	-0.01
822.708	0.03
822.879	-0.42
823.05	0.61
823.221	-0.28
823.392	-0.28
823.563	-0.03
823.734	-0.21
823.905	-0.26
824.076	0.04
824.247	-0.77
824.418	-0.34
824.589	1.11
824.759	-0.03
824.93	-0.04
825.101	-0.36
825.272	0.31
825.443	0.61
825.614	-0.32
825.784	-0.71
825.955	1.06
826.126	0.34
826.297	-0.11
826.467	0.97
826.638	0.36
826.809	-0.78
826.98	-0.5
827.15	0.49
827.321	0.55
827.492	1
827.662	0.14
827.833	0.78
828.003	0.4
828.174	-0.83
828.345	-0.29
828.515	0.37
828.686	0.49
828.856	0.06
829.027	0.08
829.197	-0.23
829.368	-0.02
829.538	-0.45
829.709	-0.65
829.879	-0.19
830.049	0.34
830.22	-0.19
830.39	-0.01
830.56	0.49
830.731	-0.39
830.901	-0.23
831.072	0.01
831.242	0.26
831.412	0.09
831.582	0.21
831.753	-0.57
831.923	0.1
832.093	0.29
832.263	-0.02
832.434	-0.98
832.604	-0.16
832.774	0.53
832.944	-0
833.114	-0.39
833.284	-0.1
833.454	-0.57
833.624	-0.65
833.795	-0.16
833.965	0.47
834.135	0.28
834.305	-0.44
834.475	-0.49
834.645	-0.42
834.815	-0.35
834.985	-0.11
835.155	-0.56
835.325	0.39
835.494	-0.59
835.664	-0.58
835.834	-1.29
836.004	0.33
836.174	-0.02
836.344	0.13
836.514	-0.8
836.684	-0.71
836.853	0.58
837.023	0.37
837.193	0.09
837.363	0.1
837.532	0.71
837.702	-0.29
837.872	-0.41
838.041	0.89
838.211	1.27
838.381	-0.67
838.55	0.62
838.72	1.04
838.89	0.66
839.059	-0.12
839.229	-0.34
839.398	1.01
839.568	0.33
839.738	-0.44
839.907	0.84
840.077	0.48
840.246	-0.64
840.416	-0.46
840.585	-1.01
840.755	0.53
840.924	0.98
841.093	-0.48
841.263	-0.15
841.432	0.04
841.602	-0.39
841.771	-0.86
841.94	-0.06
842.11	1.29
842.279	0.78
842.448	-0.23
842.617	-0.93
842.787	0.56
842.956	-1.23
843.125	-0.12
843.294	0.04
843.464	0.89
843.633	0.12
843.802	-1.04
843.971	0.76
844.14	-0.14
844.309	0.44
844.479	-0.52
844.648	-0.95
844.817	-0.82
844.986	-0.18
845.155	-1.1
845.324	0.1
845.493	0.07
845.662	-0.66
845.831	0.83
846	0.56
846.169	0.08
846.338	1.05
846.507	0.26
846.676	-0.2
846.844	-0.7
847.013	1.33
847.182	-0.42
847.351	-0.45
847.52	-0.42
847.689	0.76
847.858	-0.22
848.026	0.53
848.195	-0.27
848.364	-0.51
848.533	-0.02
848.701	-0.88
848.87	-0.23
849.039	0.19
849.207	0.63
849.376	1.53
849.545	0.97
849.713	-0.27
849.882	-0.38
850.051	-0.24
850.219	0.05
850.388	0.34
850.556	-0.44
850.725	-0.87
850.893	0.41
851.062	-1.02
851.23	-0.01
851.399	-1.5
851.567	-1.46
851.736	0.13
851.904	-0.59
852.073	0.34
852.241	-0.28
852.41	0.88
852.578	-0.63
852.746	-0.59
852.915	-0
853.083	-0.18
853.251	0.14
853.42	0.02
853.588	0.01
853.756	1.14
853.924	0.7
854.093	0.74
854.261	-0.34
854.429	-1.74
854.597	0.91
854.765	-0.81
854.934	1.49
855.102	0.57
855.27	-0.58
855.438	0.91
855.606	0.56
855.774	0.25
855.942	-1.41
856.11	-2.95
856.278	0.71
856.446	0.82
856.614	-0.09
856.782	-1.26
856.95	0.19
857.118	0.7
857.286	-0.08
857.454	-1.29
857.622	1.32
857.79	0.6
857.958	-0.82
858.126	-0.3
858.294	-2.25
858.462	0.7
858.629	-0.74
858.797	-0.56
858.965	0.01
859.133	-0.76
859.301	-0.84
859.468	-1.11
859.636	-0.15
859.804	1.83
859.971	1.5
860.139	0.14
860.307	1.39
860.474	-0.94
860.642	-1.32
860.81	-1.51
860.977	0.37
861.145	0.59
861.313	-0.81
861.48	-0.29
861.648	0.79
861.815	-0.33
861.983	-2.12
862.15	-0.87
862.318	0.86
862.485	0.62
862.653	0.11
862.82	-1.76
862.988	1.75
863.155	0.63
863.322	-1.36
863.49	-0.82
863.657	-0.03
863.824	0.7
863.992	-0.24
864.159	-0.32
864.326	0.94
864.494	-1.29
864.661	1.97
864.828	-2.25
864.996	0.58
865.163	2.17
865.33	-0.86
865.497	-1.09
865.664	-0.91
865.832	-2.52
865.999	-0.12
866.166	-0.36
866.333	-0.42
866.5	-0.23
866.667	0.1
866.834	-1.43
867.001	0.82
867.168	-1.8
867.335	-0.27
867.502	-1.53
867.669	-0.3
867.836	2.55
868.003	-0.6
868.17	1.05
868.337	0.97
868.504	2.12
868.671	-1.49
868.838	-0.89
869.005	0.17
869.172	0.57
869.339	-0.66
869.505	0.61
869.672	0.83
869.839	1.92
870.006	-0.71
870.173	-2.84
870.339	1.23
870.506	3.15
870.673	-2.29
870.84	1.27
871.006	0.12
871.173	-1.39
871.34	0.03
871.506	-1.72
871.673	0.94
871.839	-1.96
872.006	0.78
872.173	-0.43
872.339	0.69
872.506	1.09
872.672	-0.39
872.839	-1.2
873.005	-1.49
873.172	3.91
873.338	0.51
873.505	-0.29
873.671	-1.64
873.838	0.03
874.004	-0.91
874.171	-0.35
874.337	0.13
874.503	0.13
874.67	0.49
874.836	-0.3
875.002	1.48
875.169	-1.39
875.335	-0
875.501	1.66
875.668	1.79
875.834	-1.55
876	-0.52
876.166	-0.09
876.332	0.21
876.499	3.3
876.665	-1.6
876.831	-0.28
876.997	1.94
877.163	0.53
877.329	0.05
877.495	-0.55
877.662	1.55
877.828	-0.92
877.994	-0.06
878.16	-2.59
878.326	-2.18
878.492	1.22
878.658	-0.17
878.824	-0.67
878.99	2.34
879.156	-0.75
879.322	2.63
879.487	-1.05
879.653	-0.17
879.819	-0.64
879.985	-1.42
880.151	-1.59
880.317	-0.75
880.483	1.68
880.648	0.14
880.814	-3.18
880.98	0.99
881.146	-1.79
881.312	-1.86
881.477	-1.06
881.643	-1.09
881.809	1.5
881.974	1.41
882.14	-1.17
882.306	0.86
882.471	2.09
882.637	-0.02
882.803	0.07
882.968	2.16
883.134	3.01
883.299	-0.04
883.465	1.27
883.63	1.25
883.796	1.77
883.961	1.22
884.127	0.46
884.292	-4.24
884.458	0.64
884.623	0.64
