Data from Apollo_Calib_20240827__AbsoluteIrradiance__85__00-34-00-876.txt Node

Date: Wed Aug 28 00:34:00 BST 2024
User: biology
Spectrometer: FLMT08252
Trigger mode: 0
Integration Time (sec): 5.000000E-1
Scans to average: 5
Electric dark correction enabled: true
Nonlinearity correction enabled: false
Boxcar width: 0
XAxis mode: Wavelengths
Number of Pixels in Spectrum: 3648
>>>>>Begin Spectral Data<<<<<
179.588	-0
179.809	-0
180.03	-0
180.251	-0
180.473	-0
180.694	0
180.915	0
181.136	-0
181.357	0
181.578	-0
181.799	-0
182.02	-0
182.241	0
182.462	-0
182.683	0
182.904	0
183.125	-0
183.346	0
183.567	-0
183.788	-0
184.009	-0
184.23	0
184.451	-0
184.672	-0
184.892	-0
185.113	0
185.334	0
185.555	-0
185.776	-0
185.996	0
186.217	0
186.438	0
186.659	-0
186.879	0
187.1	-0
187.321	-0
187.541	-0
187.762	-0
187.983	-0
188.203	-0
188.424	-0
188.644	-0
188.865	0
189.086	-0
189.306	-0
189.527	-0
189.747	-0
189.968	-0
190.188	0
190.409	-0
190.629	0
190.849	-0
191.07	-0
191.29	-0
191.511	-0
191.731	-0
191.951	-0
192.172	-0
192.392	-0
192.612	-0
192.833	-0
193.053	0
193.273	0
193.493	-0
193.714	-0
193.934	0
194.154	0
194.374	0
194.594	-0
194.815	0
195.035	-0
195.255	-0
195.475	-0
195.695	0
195.915	-0
196.135	-0
196.355	0
196.575	0
196.795	0
197.015	-0
197.235	-0
197.455	-0
197.675	0
197.895	-0
198.115	-0
198.335	0
198.555	-0
198.775	-0
198.995	-0
199.214	0
199.434	-0
199.654	-0
199.874	-0
200.094	0.61
200.313	-0.22
200.533	-0.73
200.753	-0.78
200.973	0.7
201.192	0.3
201.412	-0.84
201.632	-0.7
201.851	0.8
202.071	-0.41
202.291	-0.33
202.51	-1.01
202.73	-0.35
202.95	-0.36
203.169	-0.58
203.389	0.07
203.608	-0.22
203.828	-0.37
204.047	-0.41
204.267	0.03
204.486	-0.33
204.706	-0.09
204.925	-0.16
205.145	-0.27
205.364	0.06
205.583	0.42
205.803	-0.09
206.022	-0.43
206.242	-0.08
206.461	0.11
206.68	-0.11
206.9	-0.12
207.119	0.31
207.338	0.27
207.557	-0.39
207.777	-0.08
207.996	-0.15
208.215	0.43
208.434	-0.33
208.654	-0.58
208.873	0.21
209.092	0.71
209.311	-0.15
209.53	-0.12
209.749	-0.19
209.968	-0.75
210.187	-0.08
210.407	-0.72
210.626	-0.57
210.845	0.23
211.064	-0.06
211.283	-0.25
211.502	0.18
211.721	-0.04
211.94	-0.3
212.159	0.18
212.377	0.14
212.596	0.08
212.815	-0.27
213.034	0.03
213.253	0.16
213.472	0.06
213.691	-0.47
213.91	-0.15
214.128	-0.25
214.347	0.31
214.566	-0.48
214.785	-0.38
215.003	-0.01
215.222	-0.26
215.441	-0.08
215.66	-0.36
215.878	-0.12
216.097	0.06
216.316	-0.54
216.534	-0.14
216.753	-0.05
216.972	-0.16
217.19	0.02
217.409	-0.22
217.627	-0.22
217.846	-0.19
218.064	-0.18
218.283	-0.2
218.501	0.3
218.72	-0.11
218.938	-0.37
219.157	-0.33
219.375	0.12
219.594	0.09
219.812	-0.3
220.031	-0.27
220.249	0.21
220.467	0.16
220.686	-0.15
220.904	-0.29
221.122	-0.31
221.341	0.25
221.559	0.06
221.777	-0.28
221.995	-0.05
222.214	0.07
222.432	-0.33
222.65	0.1
222.868	0
223.086	0.09
223.305	0.09
223.523	-0.02
223.741	0.02
223.959	-0.28
224.177	-0.3
224.395	-0.1
224.613	-0.08
224.831	0.11
225.049	-0.16
225.267	-0.05
225.485	-0.03
225.703	0.01
225.921	0
226.139	-0.16
226.357	0.11
226.575	-0.07
226.793	-0.15
227.011	0.33
227.229	0
227.447	-0.07
227.665	-0.26
227.883	-0.3
228.1	-0.05
228.318	-0.07
228.536	-0.26
228.754	-0.26
228.972	0.1
229.189	0.05
229.407	-0.09
229.625	-0.09
229.843	0.04
230.06	-0.02
230.278	-0.13
230.496	0.03
230.713	-0.06
230.931	0.08
231.149	-0.2
231.366	-0.24
231.584	-0.06
231.801	0.21
232.019	-0.22
232.236	-0.17
232.454	-0.2
232.671	-0.05
232.889	-0.11
233.106	-0.12
233.324	-0.01
233.541	-0.1
233.759	0.01
233.976	-0.17
234.194	-0.12
234.411	-0.12
234.628	-0.15
234.846	-0.17
235.063	-0.06
235.28	-0.09
235.498	-0.06
235.715	-0.13
235.932	-0.02
236.149	-0.1
236.367	-0.2
236.584	-0.11
236.801	-0.09
237.018	-0.03
237.236	-0.03
237.453	-0.13
237.67	0.07
237.887	-0.07
238.104	-0.11
238.321	-0.15
238.538	-0.02
238.755	0.02
238.973	-0.21
239.19	0.02
239.407	0
239.624	0.04
239.841	-0.17
240.058	-0.18
240.275	-0.08
240.492	-0.04
240.709	-0.06
240.925	-0.04
241.142	-0.05
241.359	-0.09
241.576	-0.12
241.793	-0.09
242.01	-0.07
242.227	0.12
242.444	-0
242.66	0
242.877	-0.01
243.094	-0.11
243.311	0.01
243.527	-0.07
243.744	-0.01
243.961	0.11
244.178	-0.13
244.394	-0.1
244.611	0.04
244.828	0.05
245.044	-0.16
245.261	-0.04
245.477	-0.03
245.694	0.01
245.911	-0.08
246.127	-0.1
246.344	0.07
246.56	0.04
246.777	-0.08
246.993	0.01
247.21	0.03
247.426	0.03
247.643	-0.09
247.859	-0.1
248.076	-0.08
248.292	0.18
248.508	-0.11
248.725	-0.03
248.941	-0.02
249.157	0.07
249.374	-0.07
249.59	-0.02
249.806	-0.01
250.023	0.01
250.239	-0.16
250.455	-0.16
250.671	-0.04
250.888	-0.03
251.104	-0.03
251.32	-0.08
251.536	-0.03
251.752	-0.09
251.969	-0.02
252.185	-0.01
252.401	0.15
252.617	-0
252.833	-0.11
253.049	-0.03
253.265	0.01
253.481	0.03
253.697	-0.05
253.913	-0.16
254.129	0.05
254.345	0.01
254.561	-0.06
254.777	-0.05
254.993	0.07
255.209	-0.03
255.425	-0.09
255.641	-0.12
255.857	0.02
256.073	-0.03
256.288	-0.12
256.504	-0.04
256.72	-0.02
256.936	0.14
257.152	-0.03
257.367	-0.08
257.583	-0.05
257.799	0.03
258.015	-0.05
258.23	-0.03
258.446	0.08
258.662	-0.03
258.877	-0.02
259.093	-0.14
259.309	-0.04
259.524	0.02
259.74	-0.1
259.955	-0.13
260.171	0.01
260.387	-0.02
260.602	0.06
260.818	0
261.033	-0.1
261.249	-0.06
261.464	-0.11
261.68	-0.08
261.895	-0
262.11	-0
262.326	-0.07
262.541	-0.07
262.757	0.06
262.972	-0.05
263.187	0.03
263.403	-0.11
263.618	-0
263.833	0.03
264.049	-0.05
264.264	-0.07
264.479	-0.03
264.694	-0
264.91	-0.1
265.125	-0.06
265.34	-0.01
265.555	0.1
265.77	0
265.986	-0.06
266.201	0.03
266.416	0.12
266.631	-0.1
266.846	-0.01
267.061	-0.01
267.276	-0.04
267.491	-0.18
267.706	-0.01
267.921	0.02
268.136	-0.02
268.351	0.02
268.566	-0.08
268.781	0.04
268.996	-0.06
269.211	-0
269.426	-0.14
269.641	-0.08
269.856	0.03
270.071	-0.07
270.285	-0.12
270.5	0.05
270.715	0.05
270.93	-0.06
271.145	-0.02
271.359	0
271.574	-0.08
271.789	0.05
272.004	-0.04
272.218	-0.06
272.433	-0.02
272.648	-0.08
272.862	0.05
273.077	0.01
273.292	0.03
273.506	-0.06
273.721	-0.11
273.936	0.01
274.15	0.03
274.365	-0.05
274.579	0.03
274.794	0.03
275.008	0.07
275.223	-0.11
275.437	-0.01
275.652	0.05
275.866	0.02
276.081	-0.01
276.295	0.04
276.509	-0.04
276.724	-0.03
276.938	-0.04
277.153	-0.07
277.367	0.03
277.581	-0.13
277.796	-0.01
278.01	-0.12
278.224	0.01
278.438	0.08
278.653	-0.09
278.867	-0.04
279.081	-0.21
279.295	-0.02
279.51	-0.01
279.724	-0.1
279.938	0.03
280.152	-0.03
280.366	-0.09
280.58	-0.02
280.794	0.06
281.008	0.01
281.222	0.04
281.437	0.08
281.651	-0.03
281.865	0.05
282.079	-0.02
282.293	-0.09
282.507	-0.07
282.721	-0.01
282.935	-0.01
283.148	-0.1
283.362	-0.04
283.576	-0.08
283.79	0.03
284.004	-0.07
284.218	0.02
284.432	-0.09
284.646	-0.03
284.859	-0.05
285.073	-0.05
285.287	0.01
285.501	-0.04
285.714	-0.03
285.928	0.01
286.142	-0.02
286.356	-0.03
286.569	-0.03
286.783	0.06
286.997	-0.03
287.21	-0.01
287.424	0
287.637	-0.04
287.851	-0.1
288.065	-0
288.278	-0.02
288.492	-0.01
288.705	-0.01
288.919	0.04
289.132	-0.08
289.346	0.04
289.559	-0.13
289.773	-0.04
289.986	-0.02
290.2	-0.02
290.413	-0
290.626	-0.06
290.84	-0.05
291.053	-0.02
291.267	0.03
291.48	0.01
291.693	-0.04
291.906	-0.08
292.12	-0.03
292.333	-0.04
292.546	-0.07
292.76	0.08
292.973	0.01
293.186	0.07
293.399	-0.01
293.612	0.03
293.826	-0.04
294.039	-0.03
294.252	-0.01
294.465	0.01
294.678	0
294.891	0
295.104	-0.11
295.317	-0.02
295.53	-0
295.743	-0.02
295.956	0.01
296.169	0.08
296.382	0.03
296.595	0.03
296.808	-0.04
297.021	0.03
297.234	0.02
297.447	-0.02
297.66	0.01
297.873	0.02
298.086	-0.03
298.299	-0.05
298.511	-0.07
298.724	-0.03
298.937	-0.07
299.15	-0.07
299.363	-0.02
299.575	0.01
299.788	0.01
300.001	-0.04
300.213	-0.06
300.426	0.01
300.639	-0.03
300.852	-0.03
301.064	0.07
301.277	0.06
301.489	0.03
301.702	-0.01
301.915	-0
302.127	0
302.34	0.03
302.552	0.01
302.765	-0.05
302.977	-0
303.19	-0.06
303.402	-0.03
303.615	-0.05
303.827	-0.05
304.04	-0.06
304.252	0.04
304.464	-0.05
304.677	0.09
304.889	-0.03
305.102	-0.1
305.314	-0
305.526	0.06
305.739	0.05
305.951	-0.03
306.163	-0.05
306.375	0.07
306.588	-0.05
306.8	-0.02
307.012	-0.07
307.224	-0.03
307.436	0.03
307.649	-0.08
307.861	0
308.073	0.02
308.285	0.01
308.497	-0.02
308.709	-0.03
308.921	0.02
309.133	0.07
309.346	-0.02
309.558	-0.05
309.77	0.01
309.982	0.02
310.194	0
310.406	-0.01
310.617	0.03
310.829	-0
311.041	-0
311.253	-0.03
311.465	-0.03
311.677	-0.01
311.889	-0.01
312.101	-0.04
312.313	0.03
312.524	0.04
312.736	-0.09
312.948	-0
313.16	0.07
313.372	0.04
313.583	-0.06
313.795	-0.01
314.007	-0.03
314.218	0.02
314.43	-0.01
314.642	-0.02
314.853	-0.05
315.065	-0
315.277	-0.03
315.488	-0.03
315.7	0.03
315.912	-0.01
316.123	-0
316.335	0.01
316.546	0.08
316.758	0.03
316.969	-0.04
317.181	-0.01
317.392	-0
317.604	0.02
317.815	-0.06
318.026	-0.08
318.238	-0.01
318.449	0
318.661	-0.1
318.872	-0.08
319.083	-0.1
319.295	0.01
319.506	-0.01
319.717	0.02
319.929	-0.01
320.14	0
320.351	-0.01
320.562	-0.03
320.774	-0.02
320.985	0.02
321.196	-0.08
321.407	-0.05
321.618	0.02
321.829	0.06
322.041	0.01
322.252	-0.05
322.463	0.01
322.674	0.02
322.885	-0.02
323.096	-0.04
323.307	-0.02
323.518	-0.01
323.729	-0.09
323.94	-0.02
324.151	-0.02
324.362	0.02
324.573	-0.01
324.784	-0.09
324.995	0.05
325.206	-0.01
325.417	-0.05
325.628	-0.03
325.838	0.01
326.049	-0
326.26	0.01
326.471	-0.01
326.682	-0
326.892	-0.01
327.103	-0.06
327.314	-0.04
327.525	0.03
327.735	-0.03
327.946	-0.02
328.157	-0.06
328.368	-0.03
328.578	-0.09
328.789	-0
328.999	0.02
329.21	-0.03
329.421	0.02
329.631	-0.06
329.842	-0.01
330.052	-0
330.263	0.02
330.473	0.03
330.684	-0.04
330.894	-0.01
331.105	-0.01
331.315	0.04
331.526	-0.05
331.736	0.07
331.947	-0
332.157	0.05
332.367	-0.04
332.578	-0.01
332.788	0.06
332.999	0.01
333.209	-0.04
333.419	-0.07
333.629	-0.03
333.84	0.03
334.05	-0.02
334.26	0.05
334.47	-0.03
334.681	0.1
334.891	-0.05
335.101	0.04
335.311	0.07
335.521	-0.02
335.732	-0.09
335.942	0.04
336.152	0.02
336.362	-0
336.572	-0
336.782	-0.01
336.992	-0.04
337.202	-0.03
337.412	-0.03
337.622	0
337.832	-0.02
338.042	-0.04
338.252	-0.04
338.462	0
338.672	0
338.882	0.01
339.092	-0.01
339.302	0.08
339.511	0.01
339.721	-0.01
339.931	-0.04
340.141	-0.03
340.351	0.05
340.561	0
340.77	-0.01
340.98	0.02
341.19	0.02
341.4	-0.05
341.609	-0.05
341.819	-0.05
342.029	-0.08
342.238	-0.04
342.448	-0.02
342.658	-0.01
342.867	-0.05
343.077	-0
343.286	-0
343.496	0.01
343.706	0.05
343.915	-0.06
344.125	0.03
344.334	0.01
344.544	-0.07
344.753	-0.01
344.963	-0.01
345.172	-0.04
345.381	-0.01
345.591	-0.04
345.8	0.03
346.01	0.04
346.219	0.04
346.428	-0.15
346.638	-0.02
346.847	-0.01
347.056	0.06
347.266	-0.04
347.475	0
347.684	0.06
347.893	0.03
348.103	-0.01
348.312	-0
348.521	-0
348.73	0.01
348.94	-0.01
349.149	-0.02
349.358	-0.06
349.567	-0.03
349.776	-0.06
349.985	-0.03
350.194	-0.01
350.403	0.03
350.612	-0.08
350.821	-0.02
351.03	0.01
351.239	-0.06
351.448	-0.01
351.657	-0.06
351.866	0.05
352.075	-0.01
352.284	0.04
352.493	-0.06
352.702	0.05
352.911	0.05
353.12	-0.03
353.329	-0.03
353.538	-0
353.746	-0
353.955	-0.01
354.164	-0
354.373	0.01
354.582	0.01
354.79	0.03
354.999	-0.02
355.208	0.04
355.416	0.06
355.625	-0.03
355.834	-0.03
356.042	-0.02
356.251	0
356.46	-0.05
356.668	0.01
356.877	0.07
357.085	0.02
357.294	-0.09
357.503	0
357.711	-0.02
357.92	0.08
358.128	0.03
358.337	-0
358.545	0.01
358.754	-0.02
358.962	0.03
359.17	-0
359.379	-0.01
359.587	0.04
359.796	0.02
360.004	0.05
360.212	0.04
360.421	0.02
360.629	-0.03
360.837	-0.04
361.046	0.02
361.254	0.09
361.462	-0.04
361.67	0.01
361.879	0.03
362.087	0.04
362.295	-0.01
362.503	-0.03
362.711	-0.03
362.92	-0.04
363.128	-0.02
363.336	-0
363.544	-0.06
363.752	-0.02
363.96	-0.05
364.168	-0.04
364.376	-0.03
364.584	0.02
364.792	0.04
365	0.01
365.208	-0.03
365.416	0.01
365.624	0
365.832	0.01
366.04	0.05
366.248	0.03
366.456	0.03
366.664	0.02
366.872	0.04
367.079	0.02
367.287	0.02
367.495	0.01
367.703	0.02
367.911	-0.02
368.118	0.02
368.326	0.01
368.534	-0.03
368.742	0.11
368.949	-0.02
369.157	0.01
369.365	0.05
369.572	0.04
369.78	-0.01
369.988	0.08
370.195	0.07
370.403	0.11
370.61	0.05
370.818	0.06
371.026	0.13
371.233	0.05
371.441	0.13
371.648	0.08
371.856	0.11
372.063	0.12
372.271	0.13
372.478	0.09
372.685	0.12
372.893	0.23
373.1	0.15
373.308	0.16
373.515	0.28
373.722	0.26
373.93	0.21
374.137	0.25
374.344	0.29
374.552	0.29
374.759	0.28
374.966	0.28
375.173	0.28
375.381	0.36
375.588	0.32
375.795	0.26
376.002	0.31
376.209	0.36
376.417	0.41
376.624	0.53
376.831	0.49
377.038	0.47
377.245	0.44
377.452	0.52
377.659	0.61
377.866	0.56
378.073	0.63
378.28	0.63
378.487	0.75
378.694	0.73
378.901	0.76
379.108	0.78
379.315	0.82
379.522	0.95
379.729	0.89
379.936	0.93
380.143	1
380.35	1.05
380.557	1.07
380.763	1.1
380.97	1.09
381.177	1.15
381.384	1.21
381.591	1.26
381.797	1.26
382.004	1.34
382.211	1.32
382.418	1.34
382.624	1.36
382.831	1.3
383.038	1.31
383.244	1.33
383.451	1.24
383.658	1.2
383.864	1.25
384.071	1.13
384.277	1.23
384.484	1.07
384.69	1.15
384.897	1.04
385.103	0.97
385.31	0.89
385.516	0.89
385.723	0.84
385.929	0.84
386.136	0.78
386.342	0.82
386.549	0.71
386.755	0.73
386.961	0.73
387.168	0.6
387.374	0.6
387.58	0.58
387.787	0.56
387.993	0.56
388.199	0.48
388.406	0.45
388.612	0.43
388.818	0.4
389.024	0.41
389.231	0.43
389.437	0.46
389.643	0.46
389.849	0.4
390.055	0.36
390.261	0.36
390.467	0.36
390.674	0.29
390.88	0.33
391.086	0.35
391.292	0.29
391.498	0.34
391.704	0.31
391.91	0.3
392.116	0.25
392.322	0.15
392.528	0.24
392.734	0.2
392.94	0.23
393.146	0.24
393.352	0.22
393.557	0.2
393.763	0.24
393.969	0.21
394.175	0.17
394.381	0.2
394.587	0.14
394.792	0.16
394.998	0.23
395.204	0.22
395.41	0.15
395.615	0.14
395.821	0.17
396.027	0.19
396.233	0.14
396.438	0.14
396.644	0.19
396.85	0.13
397.055	0.13
397.261	0.12
397.466	0.19
397.672	0.08
397.878	0.12
398.083	0.12
398.289	0.09
398.494	0.11
398.7	0.12
398.905	-0.02
399.111	0.13
399.316	0.02
399.522	0.13
399.727	0.06
399.932	0.1
400.138	0.05
400.343	0.12
400.549	0.09
400.754	0.06
400.959	0.09
401.165	0.09
401.37	0.11
401.575	0.01
401.78	0.06
401.986	0.05
402.191	0.03
402.396	0.03
402.601	0.01
402.807	0.04
403.012	0.04
403.217	0.07
403.422	0.06
403.627	0.03
403.832	0.02
404.037	0.05
404.243	0.03
404.448	0.06
404.653	0.01
404.858	0.03
405.063	0.1
405.268	0.01
405.473	0.01
405.678	0.01
405.883	0.19
406.088	0.07
406.293	-0.04
406.498	-0.03
406.703	0.05
406.907	0.05
407.112	-0.04
407.317	0.03
407.522	0.08
407.727	-0.03
407.932	0
408.136	0.08
408.341	-0.01
408.546	-0.01
408.751	0.02
408.956	-0.03
409.16	0.06
409.365	0.02
409.57	-0.03
409.774	0.03
409.979	0.03
410.184	0.04
410.388	-0.06
410.593	0.04
410.798	0
411.002	-0
411.207	0.06
411.411	0.02
411.616	-0.07
411.82	-0.01
412.025	0.01
412.229	0.03
412.434	0.04
412.638	0.03
412.843	-0.04
413.047	-0
413.252	-0.02
413.456	-0.03
413.66	0.04
413.865	-0.08
414.069	0.07
414.273	-0
414.478	-0.03
414.682	-0.01
414.886	-0.05
415.091	-0.03
415.295	-0.07
415.499	0.05
415.703	-0.05
415.908	0.01
416.112	-0.08
416.316	0
416.52	-0.03
416.724	-0.07
416.929	-0.03
417.133	0.1
417.337	-0
417.541	-0.02
417.745	-0.01
417.949	0.04
418.153	0.01
418.357	-0.08
418.561	0.07
418.765	0.01
418.969	0.06
419.173	0.02
419.377	-0.06
419.581	0.07
419.785	-0.02
419.989	-0.05
420.193	-0.04
420.397	-0.03
420.601	0.01
420.804	0.04
421.008	0.02
421.212	0.02
421.416	0.02
421.62	-0.02
421.823	-0.03
422.027	0.07
422.231	0.01
422.435	-0.04
422.638	0.04
422.842	0
423.046	-0.04
423.249	0.02
423.453	0.02
423.657	0
423.86	0.03
424.064	-0.02
424.268	0.04
424.471	0.01
424.675	0.09
424.878	0.11
425.082	-0.01
425.285	0.04
425.489	-0
425.692	-0.02
425.896	-0.06
426.099	0.01
426.303	-0.07
426.506	-0.02
426.71	0.04
426.913	0.04
427.116	0.02
427.32	0.01
427.523	0.08
427.726	0.08
427.93	-0.02
428.133	0.05
428.336	-0.03
428.54	-0.04
428.743	0.03
428.946	0
429.149	0.02
429.353	0.05
429.556	-0
429.759	-0.01
429.962	-0.01
430.165	0
430.368	0.01
430.571	-0.04
430.775	0.06
430.978	-0.03
431.181	0.06
431.384	0.05
431.587	-0.02
431.79	-0
431.993	-0.01
432.196	-0.02
432.399	-0.01
432.602	0.06
432.805	-0.03
433.008	-0.03
433.211	-0.06
433.414	0.02
433.616	0.03
433.819	0.03
434.022	-0.09
434.225	0.05
434.428	0.02
434.631	0.09
434.833	-0.02
435.036	-0.01
435.239	0.05
435.442	-0
435.645	-0.02
435.847	0.02
436.05	0.02
436.253	0.05
436.455	-0.06
436.658	-0.02
436.861	0.12
437.063	-0
437.266	0.03
437.468	-0
437.671	0.1
437.874	0.01
438.076	-0.04
438.279	-0.1
438.481	0.02
438.684	-0.04
438.886	0.09
439.089	-0.09
439.291	-0.03
439.494	0.05
439.696	-0.05
439.899	0.01
440.101	0.02
440.303	-0.05
440.506	0.06
440.708	0.01
440.91	0.07
441.113	0.03
441.315	0.03
441.517	-0.02
441.72	0.05
441.922	0.06
442.124	-0.01
442.326	0.04
442.529	0.08
442.731	0.04
442.933	0.12
443.135	0.03
443.337	-0
443.539	0.01
443.742	0
443.944	0.04
444.146	0.09
444.348	-0
444.55	0.01
444.752	0.07
444.954	-0.01
445.156	0.05
445.358	0.03
445.56	0.09
445.762	0.01
445.964	0.07
446.166	0.02
446.368	0.04
446.57	0.12
446.772	0.06
446.974	0.04
447.175	0.04
447.377	0.01
447.579	0.07
447.781	-0.04
447.983	0.13
448.184	0.05
448.386	0.05
448.588	0
448.79	0.08
448.991	-0.02
449.193	0.07
449.395	0.07
449.597	0.09
449.798	0.06
450	0.06
450.202	0.05
450.403	0.06
450.605	0.06
450.806	0.04
451.008	-0.04
451.21	0.04
451.411	0.03
451.613	0.06
451.814	0.07
452.016	0.1
452.217	0.07
452.419	0.02
452.62	0.09
452.821	0.11
453.023	0.11
453.224	0.11
453.426	0.05
453.627	0.09
453.828	0.09
454.03	0.08
454.231	0.14
454.432	0.06
454.634	0.09
454.835	0.05
455.036	-0.02
455.238	0.08
455.439	0.09
455.64	0.01
455.841	-0.03
456.042	0.13
456.244	0.06
456.445	-0
456.646	-0.02
456.847	-0.01
457.048	0.05
457.249	0.09
457.45	0.17
457.651	0
457.852	0.1
458.054	0.05
458.255	0.01
458.456	0.02
458.657	-0
458.858	-0.05
459.058	0.01
459.259	0.09
459.46	-0.02
459.661	-0.02
459.862	0.12
460.063	0.01
460.264	0.07
460.465	-0.02
460.666	0.16
460.866	-0.06
461.067	-0.01
461.268	0
461.469	-0.01
461.67	-0
461.87	-0
462.071	-0.02
462.272	-0.06
462.473	0.02
462.673	0.04
462.874	-0.01
463.075	-0.04
463.275	-0.01
463.476	0.04
463.676	0.03
463.877	0.05
464.078	-0.01
464.278	-0
464.479	-0.03
464.679	0.02
464.88	-0.04
465.08	0.06
465.281	0
465.481	-0.01
465.682	0.01
465.882	0.03
466.083	-0
466.283	0.01
466.483	0.02
466.684	-0.02
466.884	-0.03
467.085	0.01
467.285	0.06
467.485	-0.02
467.686	-0.02
467.886	-0.04
468.086	-0.02
468.286	0.04
468.487	0.01
468.687	-0.07
468.887	0.02
469.087	0.02
469.287	-0.02
469.488	-0.08
469.688	0.04
469.888	0.05
470.088	0.06
470.288	0.07
470.488	0.05
470.688	-0.03
470.888	-0.03
471.088	-0.07
471.288	0
471.488	0.02
471.688	0.02
471.888	-0.03
472.088	0.04
472.288	0.03
472.488	-0.05
472.688	-0.04
472.888	0
473.088	-0.01
473.288	-0
473.488	0.02
473.688	0.08
473.887	0.02
474.087	-0.06
474.287	-0.02
474.487	-0.04
474.687	0
474.886	0.02
475.086	0.01
475.286	-0.01
475.486	0.04
475.685	0.01
475.885	-0.01
476.085	0.02
476.284	0.01
476.484	-0.04
476.684	0.01
476.883	0.06
477.083	0
477.282	-0.04
477.482	0.05
477.681	0.07
477.881	0
478.08	-0.04
478.28	-0.01
478.479	0.01
478.679	0.07
478.878	-0.02
479.078	-0
479.277	-0.02
479.477	-0
479.676	0.02
479.875	-0.01
480.075	-0.06
480.274	0.03
480.473	0.02
480.673	-0.04
480.872	0.01
481.071	0.01
481.271	-0.02
481.47	-0
481.669	-0.01
481.868	-0.05
482.067	-0.05
482.267	-0.02
482.466	-0.03
482.665	-0.03
482.864	-0.04
483.063	-0.02
483.262	0.02
483.461	0.04
483.661	0.01
483.86	-0.02
484.059	0
484.258	-0.01
484.457	-0.01
484.656	0
484.855	0.04
485.054	-0.05
485.253	-0.01
485.452	-0.03
485.651	0.02
485.849	-0.03
486.048	-0.01
486.247	-0.01
486.446	-0.01
486.645	-0.04
486.844	-0.01
487.043	-0.01
487.241	0.02
487.44	-0.01
487.639	-0.02
487.838	0.04
488.037	0.03
488.235	0.04
488.434	-0.02
488.633	-0.05
488.831	0
489.03	0
489.229	0
489.427	0.01
489.626	0.02
489.825	0.04
490.023	-0.01
490.222	-0.01
490.42	0.04
490.619	0.05
490.817	-0.01
491.016	-0.02
491.214	0.01
491.413	-0.02
491.611	-0.01
491.81	-0.01
492.008	0.02
492.207	0.03
492.405	0
492.604	-0.02
492.802	-0
493	-0.02
493.199	-0.01
493.397	0
493.595	-0
493.794	-0.03
493.992	0.04
494.19	-0.01
494.388	0
494.587	-0.01
494.785	-0
494.983	-0.03
495.181	-0.01
495.379	-0.03
495.578	-0.03
495.776	-0.01
495.974	0
496.172	0
496.37	-0.02
496.568	-0.01
496.766	-0.04
496.964	0.04
497.162	0.01
497.36	-0.03
497.558	0.01
497.756	0.01
497.954	-0.01
498.152	-0.02
498.35	-0.01
498.548	-0.03
498.746	0
498.944	-0.03
499.142	-0.02
499.34	-0.02
499.538	-0.01
499.736	-0.04
499.933	0.04
500.131	0.02
500.329	-0.02
500.527	0.02
500.725	0.01
500.922	-0
501.12	0.01
501.318	0.01
501.516	-0.03
501.713	-0
501.911	-0.01
502.109	-0.03
502.306	-0
502.504	-0.02
502.701	-0.02
502.899	-0.02
503.097	0.02
503.294	-0
503.492	-0.02
503.689	0.01
503.887	0.02
504.084	0.03
504.282	-0.01
504.479	-0.04
504.677	0.01
504.874	-0.06
505.072	0.01
505.269	-0.02
505.466	-0.01
505.664	-0
505.861	-0.03
506.059	-0.01
506.256	0.02
506.453	-0.02
506.651	0.03
506.848	0
507.045	-0.01
507.242	-0
507.44	-0.02
507.637	-0.01
507.834	0.01
508.031	0.01
508.229	-0.03
508.426	0
508.623	0
508.82	-0.02
509.017	-0.03
509.214	-0.03
509.411	-0.02
509.608	-0.03
509.805	-0.03
510.003	-0.02
510.2	-0.02
510.397	0.02
510.594	-0.01
510.791	-0.02
510.988	-0.02
511.184	0.01
511.381	0.01
511.578	-0.04
511.775	0.02
511.972	-0.02
512.169	-0.01
512.366	-0.01
512.563	0.01
512.76	-0.04
512.956	0.03
513.153	-0.02
513.35	-0
513.547	-0.02
513.744	-0.01
513.94	-0.04
514.137	0.01
514.334	-0
514.53	-0.02
514.727	0.01
514.924	0.05
515.12	-0.03
515.317	-0.04
515.514	-0.03
515.71	-0.03
515.907	-0.02
516.103	-0
516.3	-0
516.497	0.02
516.693	0.02
516.89	-0.03
517.086	-0.04
517.283	-0
517.479	-0.01
517.676	-0.01
517.872	-0.01
518.068	-0.02
518.265	-0.04
518.461	-0.02
518.658	-0.02
518.854	0.01
519.05	-0.03
519.247	0.01
519.443	0.01
519.639	0
519.836	-0.01
520.032	-0.03
520.228	-0.01
520.424	0.03
520.621	-0
520.817	-0.01
521.013	-0.01
521.209	-0.01
521.405	0.04
521.601	-0.01
521.798	-0.01
521.994	0
522.19	-0.02
522.386	-0.03
522.582	-0.02
522.778	-0.01
522.974	-0.01
523.17	-0.01
523.366	-0
523.562	0.02
523.758	0.01
523.954	-0.03
524.15	-0.01
524.346	-0.01
524.542	-0.02
524.738	-0.01
524.934	-0.01
525.129	0.01
525.325	-0.02
525.521	-0
525.717	0.02
525.913	0
526.109	-0
526.304	0.01
526.5	0.02
526.696	0
526.892	-0.02
527.087	-0
527.283	-0.02
527.479	-0
527.674	-0.04
527.87	-0.02
528.066	-0
528.261	-0.01
528.457	-0.02
528.653	-0
528.848	-0.01
529.044	0
529.239	-0
529.435	0.03
529.63	-0.01
529.826	0.02
530.021	-0
530.217	0.02
530.412	-0.01
530.608	-0.03
530.803	-0
530.999	0
531.194	-0.07
531.389	-0.01
531.585	-0.05
531.78	-0.02
531.975	-0.03
532.171	0
532.366	-0.01
532.561	-0.01
532.757	-0.03
532.952	-0.03
533.147	0.02
533.342	-0.01
533.538	-0.02
533.733	0.02
533.928	-0
534.123	-0.03
534.318	-0.03
534.513	-0
534.709	0
534.904	-0.03
535.099	-0.03
535.294	-0.01
535.489	0.01
535.684	-0.01
535.879	-0.03
536.074	-0
536.269	-0.03
536.464	0.01
536.659	-0
536.854	-0.01
537.049	0
537.244	0.02
537.439	-0.02
537.634	-0.01
537.828	-0.02
538.023	-0.01
538.218	-0.04
538.413	-0.02
538.608	-0.05
538.803	0.01
538.997	-0.03
539.192	0.02
539.387	0.04
539.582	-0.01
539.776	-0
539.971	-0.02
540.166	0
540.36	-0.03
540.555	-0.01
540.75	-0.01
540.944	0
541.139	-0.04
541.334	-0.02
541.528	0.01
541.723	0.02
541.917	-0
542.112	-0.03
542.306	-0.02
542.501	-0.01
542.695	-0.02
542.89	-0.04
543.084	0
543.279	-0.03
543.473	0.01
543.668	-0.02
543.862	-0.01
544.056	0.01
544.251	-0
544.445	0.02
544.64	-0.02
544.834	-0.03
545.028	-0
545.222	0.01
545.417	0.02
545.611	-0.01
545.805	-0.01
546	-0.01
546.194	-0.01
546.388	-0.01
546.582	0.01
546.776	0
546.97	-0.01
547.165	0.01
547.359	0
547.553	-0.03
547.747	-0
547.941	0
548.135	-0
548.329	0.01
548.523	0.02
548.717	-0.02
548.911	-0.02
549.105	-0.03
549.299	-0.02
549.493	0.02
549.687	-0.01
549.881	0.02
550.075	-0.01
550.269	-0.05
550.463	0.02
550.657	-0.02
550.85	-0.01
551.044	-0.03
551.238	-0
551.432	-0.02
551.626	-0.04
551.82	-0.01
552.013	-0
552.207	0.01
552.401	-0
552.594	0.01
552.788	-0.03
552.982	0
553.176	-0.02
553.369	0.02
553.563	0
553.756	-0.06
553.95	-0.04
554.144	-0.01
554.337	0.01
554.531	-0.03
554.724	-0
554.918	-0.01
555.111	0.01
555.305	-0.01
555.498	0.04
555.692	0.03
555.885	-0.03
556.079	-0.01
556.272	0
556.466	0
556.659	-0.01
556.852	-0.02
557.046	-0.03
557.239	0.03
557.432	-0.02
557.626	-0.01
557.819	0.01
558.012	-0
558.206	0.01
558.399	0.01
558.592	0.02
558.785	0.01
558.979	0.04
559.172	-0
559.365	0.03
559.558	0.01
559.751	-0
559.944	-0
560.138	-0.03
560.331	-0.01
560.524	-0.01
560.717	-0.01
560.91	-0.01
561.103	0.01
561.296	-0
561.489	0.02
561.682	0
561.875	0.02
562.068	-0.01
562.261	-0
562.454	0.03
562.647	0.01
562.84	-0
563.032	-0.01
563.225	-0.01
563.418	-0.02
563.611	-0.02
563.804	-0.03
563.997	-0.03
564.19	-0.05
564.382	-0.01
564.575	-0.01
564.768	-0.02
564.961	-0.03
565.153	-0.05
565.346	0.01
565.539	0.03
565.731	0.03
565.924	-0
566.117	-0.02
566.309	0.01
566.502	-0.01
566.695	-0.01
566.887	0.02
567.08	-0.03
567.272	-0.02
567.465	-0.03
567.657	-0.02
567.85	-0
568.042	-0.01
568.235	0.04
568.427	0
568.62	-0.01
568.812	0.02
569.005	-0.03
569.197	-0.03
569.389	0.01
569.582	-0.02
569.774	-0.01
569.966	-0.02
570.159	-0.05
570.351	-0.01
570.543	-0.02
570.736	0
570.928	-0.03
571.12	-0
571.312	-0.03
571.505	-0.02
571.697	0.02
571.889	-0.04
572.081	-0.01
572.273	-0.04
572.465	0.01
572.658	-0.04
572.85	0.01
573.042	-0.01
573.234	-0.02
573.426	0.02
573.618	-0.06
573.81	-0.01
574.002	0.03
574.194	0.03
574.386	-0.04
574.578	-0.07
574.77	-0.03
574.962	-0.02
575.154	-0.02
575.346	-0.02
575.538	-0.01
575.729	-0.01
575.921	-0.04
576.113	-0.02
576.305	0.01
576.497	-0.02
576.689	-0.03
576.88	-0.03
577.072	0.01
577.264	-0.02
577.456	-0.01
577.647	-0.07
577.839	-0
578.031	0.02
578.223	-0.03
578.414	-0.02
578.606	0.01
578.798	-0.02
578.989	-0.03
579.181	-0.01
579.372	-0.01
579.564	0
579.755	-0.01
579.947	-0.01
580.139	0.02
580.33	-0.05
580.522	-0.04
580.713	-0.06
580.905	-0.01
581.096	0.02
581.287	-0.02
581.479	-0.02
581.67	-0.02
581.862	-0.01
582.053	-0.04
582.244	-0.07
582.436	-0.02
582.627	-0.01
582.818	-0.03
583.01	-0.03
583.201	-0.01
583.392	0.01
583.583	-0.01
583.775	-0.01
583.966	-0.04
584.157	-0.04
584.348	-0.03
584.54	-0.04
584.731	0
584.922	0
585.113	-0.02
585.304	0.03
585.495	0.02
585.686	-0.02
585.877	0
586.068	-0.01
586.259	0.01
586.45	-0.03
586.641	-0.04
586.832	-0.04
587.023	-0.02
587.214	-0.01
587.405	-0.02
587.596	-0.05
587.787	0.01
587.978	0
588.169	-0.06
588.36	-0.03
588.551	-0.01
588.742	-0.01
588.932	-0.01
589.123	-0.01
589.314	0.02
589.505	-0.02
589.696	0.01
589.886	-0.02
590.077	-0.02
590.268	-0
590.458	-0.05
590.649	-0.04
590.84	0.02
591.03	-0.05
591.221	-0.04
591.412	-0.05
591.602	-0
591.793	0.03
591.984	-0.03
592.174	-0.02
592.365	0.04
592.555	-0.04
592.746	0.01
592.936	0
593.127	0
593.317	0.03
593.508	-0.03
593.698	-0.01
593.889	-0.02
594.079	-0.01
594.269	-0.03
594.46	-0
594.65	-0
594.84	-0.03
595.031	-0.03
595.221	-0.02
595.411	-0.07
595.602	0.01
595.792	-0.02
595.982	-0.04
596.172	0.04
596.363	-0.01
596.553	-0.02
596.743	-0.01
596.933	-0
597.123	-0.01
597.314	-0.04
597.504	-0.03
597.694	0.02
597.884	-0
598.074	-0.01
598.264	-0.02
598.454	-0.01
598.644	-0.03
598.834	-0.04
599.024	-0.08
599.214	-0.03
599.404	-0.02
599.594	-0
599.784	-0.05
599.974	0.06
600.164	0.01
600.354	-0.05
600.544	-0.05
600.734	-0.02
600.924	0.04
601.114	-0.03
601.303	0.02
601.493	0.02
601.683	-0.01
601.873	-0.01
602.063	-0.04
602.252	0.01
602.442	-0.07
602.632	-0.02
602.821	-0.04
603.011	-0.01
603.201	-0.03
603.39	-0.03
603.58	-0.03
603.77	-0.01
603.959	-0.01
604.149	0.01
604.339	-0.02
604.528	0.02
604.718	0.03
604.907	-0.05
605.097	-0.03
605.286	-0.02
605.476	-0.01
605.665	-0.01
605.855	-0.02
606.044	0.04
606.234	0.02
606.423	0
606.612	-0.06
606.802	0.01
606.991	-0
607.181	0
607.37	-0.05
607.559	-0.03
607.749	-0.04
607.938	0
608.127	0
608.316	-0.02
608.506	-0.01
608.695	-0.03
608.884	-0.01
609.073	-0.02
609.263	0.02
609.452	-0
609.641	-0.03
609.83	-0.05
610.019	-0.01
610.208	-0.01
610.397	-0.01
610.586	-0.01
610.775	-0.04
610.965	-0.03
611.154	-0.04
611.343	-0.01
611.532	-0.05
611.721	-0.05
611.91	-0.04
612.099	0.03
612.287	-0.02
612.476	-0.03
612.665	0.02
612.854	-0.01
613.043	0.04
613.232	-0.03
613.421	-0.05
613.61	-0.03
613.798	-0.04
613.987	0.01
614.176	0
614.365	0.01
614.554	-0.01
614.742	-0
614.931	-0.04
615.12	-0.01
615.309	-0.01
615.497	0.01
615.686	-0.04
615.875	-0.01
616.063	0
616.252	-0.03
616.44	-0.04
616.629	-0.01
616.818	0.02
617.006	-0.04
617.195	-0.03
617.383	-0
617.572	-0.01
617.76	-0.07
617.949	-0.01
618.137	-0.01
618.326	0.03
618.514	-0.02
618.703	-0.05
618.891	0.05
619.079	-0.05
619.268	0
619.456	-0.03
619.644	0.01
619.833	-0.02
620.021	-0.02
620.209	-0.05
620.398	-0.01
620.586	0.01
620.774	0.01
620.962	0
621.151	0.05
621.339	-0.01
621.527	-0.03
621.715	-0.03
621.903	-0.01
622.092	-0.04
622.28	-0.01
622.468	-0.03
622.656	-0.04
622.844	-0.01
623.032	-0.04
623.22	-0.05
623.408	-0
623.596	-0.02
623.784	-0.03
623.972	-0.05
624.16	-0.03
624.348	0.04
624.536	-0.03
624.724	-0.03
624.912	0.02
625.1	0.01
625.288	-0.04
625.476	-0.06
625.664	0.01
625.851	-0.07
626.039	-0.02
626.227	0
626.415	-0.01
626.603	-0.06
626.79	0.01
626.978	-0.01
627.166	-0
627.354	-0.02
627.541	-0.02
627.729	-0.08
627.917	0.02
628.104	-0.01
628.292	0.03
628.48	0.01
628.667	-0.01
628.855	-0.01
629.042	0.01
629.23	-0.01
629.418	-0.03
629.605	-0.02
629.793	-0.02
629.98	-0.06
630.168	0.01
630.355	-0.02
630.543	0.02
630.73	-0.03
630.917	0.05
631.105	0.03
631.292	-0.03
631.48	-0.04
631.667	0.08
631.854	0.01
632.042	-0
632.229	-0.03
632.416	-0.01
632.604	0.01
632.791	-0.04
632.978	0.01
633.165	0
633.353	0.06
633.54	0.03
633.727	-0.06
633.914	-0.02
634.101	-0.06
634.289	0.06
634.476	-0.02
634.663	-0.05
634.85	0.03
635.037	-0.03
635.224	-0.06
635.411	0.03
635.598	0.01
635.785	-0
635.972	-0.01
636.159	0.01
636.346	-0.01
636.533	-0
636.72	-0.02
636.907	0.01
637.094	-0.01
637.281	0
637.468	0.03
637.655	0.01
637.842	0.03
638.029	-0.04
638.215	0.04
638.402	-0
638.589	0
638.776	0.01
638.963	-0.01
639.149	0.05
639.336	0.08
639.523	0
639.709	-0.01
639.896	-0.02
640.083	0.06
640.27	0.01
640.456	-0.03
640.643	0.03
640.829	-0.03
641.016	-0.01
641.203	-0.06
641.389	0.03
641.576	0.03
641.762	-0.01
641.949	-0.03
642.135	0.03
642.322	0.04
642.508	-0.03
642.695	-0
642.881	-0
643.068	0
643.254	0
643.441	0.07
643.627	-0.02
643.813	-0.03
644	0.06
644.186	-0.02
644.372	0.02
644.559	0.04
644.745	0
644.931	-0.03
645.118	0.02
645.304	0.02
645.49	0.02
645.676	-0.01
645.862	0.03
646.049	0.05
646.235	0.01
646.421	0.08
646.607	0.06
646.793	0.02
646.979	-0
647.165	0.06
647.352	0.09
647.538	0.02
647.724	0.02
647.91	0.05
648.096	0.05
648.282	0.03
648.468	0.02
648.654	0.04
648.84	0.05
649.026	0.03
649.212	0.03
649.397	-0.04
649.583	0
649.769	0.05
649.955	0.05
650.141	0.06
650.327	0.14
650.513	0.02
650.698	0.06
650.884	0.01
651.07	0.06
651.256	0.06
651.442	0.07
651.627	0.03
651.813	0.05
651.999	0.06
652.184	0.07
652.37	0.04
652.556	0.04
652.741	0.08
652.927	-0.01
653.113	0.04
653.298	0.06
653.484	0.04
653.669	-0
653.855	0.07
654.04	0.06
654.226	0.06
654.412	0.07
654.597	0.04
654.782	0.05
654.968	0.09
655.153	0.09
655.339	0.03
655.524	0.05
655.71	0.1
655.895	0.05
656.08	0.07
656.266	0.09
656.451	0.06
656.636	0.03
656.822	0.07
657.007	0.06
657.192	0.08
657.378	0.01
657.563	0.08
657.748	0.11
657.933	0.06
658.118	0.07
658.304	0.02
658.489	0.14
658.674	0.1
658.859	0.05
659.044	0.1
659.229	0.09
659.414	0.08
659.599	0.07
659.785	0.03
659.97	0.06
660.155	0.09
660.34	0.08
660.525	0.1
660.71	0.11
660.895	0.12
661.08	0.07
661.264	0.06
661.449	0.14
661.634	0.11
661.819	0.09
662.004	0.08
662.189	-0.01
662.374	0.09
662.559	0.02
662.743	0.02
662.928	0.04
663.113	0.04
663.298	-0.01
663.483	0.04
663.667	0.07
663.852	0.03
664.037	0.1
664.221	0.04
664.406	0.1
664.591	0.07
664.775	0.02
664.96	0
665.145	0.06
665.329	0.09
665.514	0.05
665.698	0.04
665.883	0.04
666.068	0.09
666.252	0.05
666.437	-0.01
666.621	-0.01
666.806	0.06
666.99	-0.01
667.174	-0.05
667.359	0.06
667.543	0
667.728	-0.02
667.912	-0.02
668.096	0.05
668.281	-0.02
668.465	-0
668.649	0.01
668.834	0.01
669.018	0
669.202	-0.03
669.387	-0.01
669.571	0.06
669.755	-0.04
669.939	0
670.124	0.03
670.308	0.06
670.492	-0.01
670.676	-0.01
670.86	0.03
671.044	-0.03
671.228	0.05
671.413	-0.05
671.597	0.02
671.781	-0.06
671.965	0.01
672.149	-0.01
672.333	-0.01
672.517	-0.04
672.701	0.03
672.885	-0.01
673.069	-0.07
673.253	0.04
673.437	-0.02
673.621	-0.05
673.804	-0.02
673.988	-0.01
674.172	0
674.356	-0.06
674.54	0
674.724	0.06
674.908	-0.01
675.091	0
675.275	-0.04
675.459	0
675.643	0.03
675.826	-0
676.01	0.02
676.194	0.03
676.377	0.05
676.561	0
676.745	0.01
676.928	-0.03
677.112	0
677.296	-0.05
677.479	-0.03
677.663	-0.03
677.846	0.04
678.03	-0
678.213	-0.02
678.397	-0
678.58	-0.04
678.764	-0.07
678.947	-0.06
679.131	-0.06
679.314	0.01
679.498	-0.01
679.681	-0.02
679.865	0.03
680.048	0.02
680.231	0.03
680.415	-0.01
680.598	-0.03
680.781	-0.05
680.965	-0.06
681.148	-0.03
681.331	-0.03
681.514	0.01
681.698	-0.02
681.881	-0.02
682.064	-0
682.247	0.01
682.43	-0.07
682.614	0.04
682.797	0.03
682.98	0.03
683.163	-0.02
683.346	0.04
683.529	0
683.712	-0.02
683.895	-0
684.078	-0.09
684.261	-0.05
684.444	0.02
684.627	-0.02
684.81	-0.06
684.993	-0.04
685.176	0.01
685.359	-0.02
685.542	-0.01
685.725	-0.01
685.908	-0
686.091	-0.05
686.274	0.01
686.457	-0
686.639	-0.04
686.822	0.01
687.005	-0.01
687.188	-0.02
687.371	0.05
687.553	-0.04
687.736	-0.01
687.919	-0.02
688.102	0.06
688.284	-0.05
688.467	-0.05
688.65	-0.03
688.832	-0.03
689.015	-0.01
689.197	-0.06
689.38	0.13
689.563	0.05
689.745	-0.03
689.928	-0.03
690.11	-0.03
690.293	-0.03
690.475	-0.08
690.658	-0.01
690.84	-0
691.023	-0.03
691.205	-0.02
691.388	0.01
691.57	-0.01
691.752	0.06
691.935	-0.13
692.117	-0.04
692.3	0.03
692.482	0.01
692.664	-0.03
692.847	0.03
693.029	-0.01
693.211	0.01
693.393	0.02
693.576	-0.04
693.758	-0.02
693.94	-0.02
694.122	-0.01
694.304	-0.08
694.487	-0.08
694.669	0.04
694.851	-0.07
695.033	-0.03
695.215	-0.06
695.397	-0.06
695.579	0.04
695.761	-0.02
695.943	-0.02
696.125	0.05
696.308	-0.04
696.49	-0.13
696.671	0.11
696.853	-0.04
697.035	0.09
697.217	-0.03
697.399	-0.03
697.581	-0.09
697.763	0.04
697.945	-0.05
698.127	-0.03
698.309	0.02
698.491	0.04
698.672	0.02
698.854	0.07
699.036	0.05
699.218	-0.07
699.399	0.06
699.581	0.02
699.763	0.02
699.945	-0.07
700.126	-0.07
700.308	-0.05
700.49	-0.05
700.671	-0.11
700.853	-0.05
701.035	-0.01
701.216	0
701.398	-0.04
701.579	-0.04
701.761	0.03
701.943	-0.08
702.124	-0.07
702.306	-0.02
702.487	0.13
702.669	-0.05
702.85	-0.01
703.031	-0.07
703.213	0.12
703.394	0.06
703.576	-0.07
703.757	0.03
703.938	-0
704.12	0.11
704.301	0
704.483	-0.06
704.664	0.03
704.845	0.04
705.026	0.05
705.208	-0.06
705.389	-0.02
705.57	0.04
705.751	-0.03
705.933	0.02
706.114	0.09
706.295	-0.04
706.476	-0.05
706.657	0.06
706.838	0.02
707.02	-0.01
707.201	-0.02
707.382	-0.1
707.563	-0.01
707.744	-0.03
707.925	-0.12
708.106	-0.12
708.287	0.02
708.468	0.04
708.649	-0.06
708.83	-0.01
709.011	-0.02
709.192	0.04
709.373	0.03
709.554	-0.05
709.734	0.05
709.915	0
710.096	-0.04
710.277	-0.13
710.458	-0.05
710.639	0.03
710.819	-0.08
711	-0.04
711.181	0.11
711.362	0.05
711.542	0.02
711.723	0.02
711.904	0.07
712.085	0.03
712.265	0.06
712.446	-0.13
712.627	-0.02
712.807	-0.09
712.988	-0.02
713.168	-0.09
713.349	0.02
713.53	-0.1
713.71	-0.06
713.891	-0.09
714.071	-0.08
714.252	-0.08
714.432	-0.05
714.613	-0.09
714.793	-0.07
714.974	0.11
715.154	0.05
715.334	0.06
715.515	0.09
715.695	-0.09
715.876	0.01
716.056	-0.04
716.236	-0
716.417	-0.06
716.597	-0.06
716.777	0.14
716.957	0.06
717.138	0.03
717.318	-0.06
717.498	-0.09
717.678	0.03
717.859	-0.04
718.039	-0
718.219	-0.01
718.399	0.06
718.579	-0.05
718.759	-0.01
718.939	-0.01
719.12	0.01
719.3	0.06
719.48	-0.1
719.66	-0.14
719.84	0.09
720.02	-0.02
720.2	-0.01
720.38	0.09
720.56	0.08
720.74	-0.03
720.92	0
721.1	0.05
721.279	0.05
721.459	0.06
721.639	-0.06
721.819	0.03
721.999	-0.04
722.179	0.04
722.359	-0.07
722.538	0.06
722.718	-0.05
722.898	-0.02
723.078	0.04
723.257	-0.08
723.437	0.01
723.617	0.01
723.797	0.02
723.976	-0.01
724.156	-0
724.336	0.11
724.515	0.15
724.695	-0.17
724.874	-0.05
725.054	0.07
725.234	-0.06
725.413	-0.01
725.593	-0.03
725.772	0.06
725.952	-0.07
726.131	-0.11
726.311	0.03
726.49	-0.04
726.67	-0.04
726.849	-0.06
727.028	0.08
727.208	0.04
727.387	0.14
727.567	-0.13
727.746	0.05
727.925	0
728.105	-0.08
728.284	-0.03
728.463	-0.05
728.643	0.09
728.822	-0.08
729.001	0.04
729.18	0.1
729.359	0.05
729.539	0.05
729.718	0.06
729.897	0.13
730.076	-0.02
730.255	-0.11
730.434	0.04
730.614	0.09
730.793	0.18
730.972	0.04
731.151	0.1
731.33	0.07
731.509	0.04
731.688	0.01
731.867	0.08
732.046	-0.1
732.225	0.23
732.404	-0
732.583	-0.06
732.762	0.05
732.941	0.12
733.12	0.11
733.298	-0.02
733.477	0.13
733.656	0.05
733.835	-0.02
734.014	0.1
734.193	0.08
734.371	0.1
734.55	0.06
734.729	-0.13
734.908	0.12
735.086	0.13
735.265	0.04
735.444	-0.05
735.623	-0.06
735.801	-0.04
735.98	0.02
736.159	-0.05
736.337	0.18
736.516	-0.01
736.694	0.08
736.873	0.02
737.052	0.08
737.23	0.14
737.409	-0.01
737.587	0.17
737.766	0.01
737.944	-0.03
738.123	0.12
738.301	0.07
738.479	-0
738.658	0.14
738.836	-0.09
739.015	0.12
739.193	0.1
739.371	-0
739.55	0.03
739.728	0.01
739.906	0.14
740.085	0.2
740.263	0.1
740.441	-0.13
740.62	0.2
740.798	0.11
740.976	0.01
741.154	-0.04
741.332	0.27
741.511	0.06
741.689	0.1
741.867	0.22
742.045	-0.04
742.223	0.01
742.401	0.02
742.579	0.04
742.757	0.15
742.935	-0.1
743.114	0.01
743.292	-0.01
743.47	0
743.648	0.04
743.826	0.05
744.004	0.07
744.181	-0.02
744.359	-0.02
744.537	0.03
744.715	-0.07
744.893	-0
745.071	-0.07
745.249	-0.03
745.427	0.05
745.605	0.04
745.782	0
745.96	0.11
746.138	0.09
746.316	-0.03
746.493	-0.03
746.671	0.04
746.849	0.07
747.027	0.11
747.204	-0.04
747.382	0.01
747.56	-0.08
747.737	-0.07
747.915	-0.09
748.093	0.06
748.27	-0.08
748.448	-0.05
748.625	-0.1
748.803	-0.09
748.98	-0.02
749.158	0.06
749.335	0.1
749.513	0.06
749.69	-0.07
749.868	0
750.045	0.15
750.223	-0.03
750.4	-0.19
750.578	0.11
750.755	-0.04
750.932	-0.1
751.11	0.23
751.287	-0.21
751.464	0.05
751.642	-0.08
751.819	-0.06
751.996	-0.01
752.173	-0.09
752.351	-0.15
752.528	0.01
752.705	-0.06
752.882	-0.2
753.06	-0.03
753.237	0.02
753.414	0.1
753.591	0.12
753.768	-0.04
753.945	-0.12
754.122	-0.07
754.299	0.02
754.476	-0.12
754.654	-0.08
754.831	0.01
755.008	0.01
755.185	-0.01
755.362	-0.14
755.539	-0.11
755.716	-0.15
755.892	-0.08
756.069	-0
756.246	-0.02
756.423	-0.13
756.6	0.12
756.777	-0.04
756.954	0.15
757.131	-0.13
757.307	-0.11
757.484	-0.21
757.661	-0.03
757.838	-0.07
758.015	-0.15
758.191	0.03
758.368	-0.08
758.545	0.01
758.721	0.05
758.898	-0.04
759.075	-0.02
759.251	0.05
759.428	0.05
759.605	-0.16
759.781	-0.1
759.958	0.14
760.134	0.05
760.311	-0.14
760.488	0.08
760.664	0.06
760.841	-0.08
761.017	-0.15
761.194	0.04
761.37	0.01
761.547	-0.08
761.723	-0.03
761.899	-0
762.076	-0.07
762.252	-0.14
762.429	-0.1
762.605	0.08
762.781	-0.01
762.958	0.11
763.134	-0.02
763.31	-0.2
763.486	0.13
763.663	-0.24
763.839	0.01
764.015	-0.24
764.191	-0.14
764.368	-0.04
764.544	-0.03
764.72	-0
764.896	-0.03
765.072	-0.03
765.248	-0.02
765.425	-0.09
765.601	0.08
765.777	-0.07
765.953	-0.25
766.129	-0.08
766.305	-0.26
766.481	-0.04
766.657	-0.06
766.833	0.16
767.009	-0.05
767.185	-0.08
767.361	0.11
767.537	-0.33
767.713	0.14
767.889	-0.2
768.065	-0.03
768.24	0.02
768.416	0.12
768.592	-0.22
768.768	-0.07
768.944	-0.06
769.12	-0.22
769.295	-0.13
769.471	-0.04
769.647	-0.18
769.823	-0.06
769.998	-0.22
770.174	-0.15
770.35	0.28
770.525	0.26
770.701	-0
770.877	-0.09
771.052	-0.1
771.228	0.02
771.403	-0.02
771.579	0.02
771.755	0.17
771.93	-0.15
772.106	-0.1
772.281	-0.23
772.457	0.05
772.632	0.09
772.808	-0.24
772.983	0.03
773.159	-0.21
773.334	0.14
773.509	0.05
773.685	-0.09
773.86	0.25
774.036	0.13
774.211	-0.08
774.386	-0.1
774.562	-0.04
774.737	0.11
774.912	-0.11
775.087	-0.02
775.263	-0.13
775.438	-0.07
775.613	-0.12
775.788	-0.06
775.964	0.08
776.139	0.19
776.314	-0.32
776.489	0.01
776.664	0.03
776.839	-0.13
777.014	0.11
777.19	-0.08
777.365	0.08
777.54	0.11
777.715	-0.09
777.89	0.05
778.065	-0.19
778.24	-0.05
778.415	0.15
778.59	-0.22
778.765	-0.09
778.94	0.07
779.115	-0.16
779.289	0
779.464	-0.08
779.639	-0.11
779.814	-0.35
779.989	-0.22
780.164	0.06
780.339	0.07
780.513	-0.13
780.688	-0.08
780.863	-0.08
781.038	0.02
781.212	-0.15
781.387	-0.18
781.562	0
781.737	0.16
781.911	-0.02
782.086	-0.16
782.261	0.06
782.435	0.17
782.61	-0.02
782.784	-0.11
782.959	0.08
783.134	0.01
783.308	-0.23
783.483	-0.01
783.657	0.23
783.832	0.08
784.006	-0.35
784.181	-0.19
784.355	-0.07
784.53	-0.15
784.704	-0.24
784.878	0.23
785.053	-0.2
785.227	0.08
785.402	0.31
785.576	-0.22
785.75	-0.22
785.925	-0.19
786.099	-0.08
786.273	-0.05
786.448	0.1
786.622	0.28
786.796	-0.09
786.97	-0.08
787.145	0.5
787.319	-0.24
787.493	-0.3
787.667	-0.3
787.841	-0.1
788.015	-0.04
788.19	-0.08
788.364	0.1
788.538	0.2
788.712	0.08
788.886	-0.05
789.06	0.12
789.234	0.06
789.408	-0.17
789.582	-0.14
789.756	-0.23
789.93	-0.16
790.104	-0.12
790.278	-0.19
790.452	-0.17
790.626	0.11
790.8	-0.12
790.973	0
791.147	0.1
791.321	0.09
791.495	0.02
791.669	-0.01
791.843	0.1
792.016	0.03
792.19	0.47
792.364	-0.24
792.538	0.24
792.711	0.01
792.885	-0.31
793.059	-0.11
793.233	-0.64
793.406	-0.12
793.58	-0.12
793.754	-0.05
793.927	-0.3
794.101	0.14
794.274	0.08
794.448	0.14
794.622	-0.44
794.795	0.2
794.969	-0.28
795.142	0.05
795.316	-0.18
795.489	-0.19
795.663	0.25
795.836	0.11
796.009	-0.22
796.183	0.22
796.356	0.04
796.53	0.2
796.703	-0.19
796.876	0.27
797.05	-0.04
797.223	-0.11
797.396	-0.02
797.57	0.05
797.743	0.05
797.916	0.1
798.09	0
798.263	0.02
798.436	0.18
798.609	-0.07
798.782	-0.25
798.956	-0.05
799.129	0.02
799.302	0.04
799.475	-0.06
799.648	-0.32
799.821	0.08
799.994	-0.28
800.167	-0.33
800.34	-0.28
800.514	0.04
800.687	-0.42
800.86	-0.32
801.033	-0.24
801.206	0.06
801.379	-0.28
801.551	-0.11
801.724	-0.03
801.897	0.07
802.07	-0.33
802.243	-0.59
802.416	-0.54
802.589	-0.14
802.762	0
802.935	-0.17
803.107	0.03
803.28	0.21
803.453	0.3
803.626	-0.28
803.798	-0.2
803.971	-0.03
804.144	-0.04
804.317	0.03
804.489	0.17
804.662	-0.28
804.835	-0.06
805.007	-0.31
805.18	0.34
805.353	0.1
805.525	-0.3
805.698	-0.38
805.87	0.38
806.043	-0.03
806.215	-0.3
806.388	-0.15
806.56	-0.14
806.733	0.19
806.905	0.25
807.078	-0.41
807.25	-0.53
807.423	-0.04
807.595	0.13
807.768	0.09
807.94	0.11
808.112	-0.09
808.285	-0.19
808.457	0.01
808.629	-0.22
808.802	0.31
808.974	-0.04
809.146	-0.11
809.318	-0.55
809.491	0.06
809.663	0.17
809.835	-0.46
810.007	0.14
810.18	-0.41
810.352	-0.32
810.524	-0.29
810.696	-0.01
810.868	0.18
811.04	-0.24
811.212	-0.19
811.384	0.33
811.556	0.05
811.728	-0.23
811.901	0.48
812.073	-0.08
812.245	-0.01
812.417	-0.24
812.589	-0.51
812.76	0.27
812.932	0.06
813.104	0.07
813.276	-0.23
813.448	-0.04
813.62	-0.34
813.792	0.18
813.964	-0.04
814.136	0.25
814.307	-0.21
814.479	-0.31
814.651	-0.18
814.823	0.35
814.995	-0.28
815.166	0.03
815.338	-0.18
815.51	-0.57
815.681	0.72
815.853	-0.28
816.025	-0.06
816.196	0.44
816.368	-0.15
816.54	-0.12
816.711	-0.3
816.883	0.14
817.054	0.85
817.226	-0.3
817.398	0.2
817.569	-0.47
817.741	-0.01
817.912	-0.35
818.084	0.03
818.255	0.09
818.426	0.03
818.598	0
818.769	-0.4
818.941	-0.12
819.112	0.61
819.283	0.31
819.455	-0.16
819.626	-0.08
819.798	0.04
819.969	0.03
820.14	-0.57
820.311	-0.42
820.483	-0.04
820.654	-0.01
820.825	-0.36
820.996	-0.35
821.168	-0.38
821.339	-0.35
821.51	-0.54
821.681	-0.23
821.852	-0.24
822.023	-0.78
822.195	-0.5
822.366	0.26
822.537	-0.17
822.708	0.3
822.879	-0.57
823.05	0.62
823.221	-0.39
823.392	0.31
823.563	-0.31
823.734	0.35
823.905	-0.46
824.076	-0.39
824.247	-0.59
824.418	-0.42
824.589	0.27
824.759	-0.26
824.93	-0.72
825.101	-0.46
825.272	0.59
825.443	0.23
825.614	0.14
825.784	-0.5
825.955	1.06
826.126	0.36
826.297	-0.02
826.467	0.06
826.638	-0.05
826.809	-0.83
826.98	-0.45
827.15	-0.13
827.321	-0.39
827.492	0.58
827.662	-0.03
827.833	0.73
828.003	0.28
828.174	-0.81
828.345	-0.88
828.515	0.43
828.686	-0.4
828.856	-0.44
829.027	-0.33
829.197	-0.38
829.368	-0.31
829.538	-0.41
829.709	-0.59
829.879	0.01
830.049	0.04
830.22	-0.74
830.39	-0.05
830.56	0.35
830.731	-0.58
830.901	-0.56
831.072	-0.04
831.242	-0.15
831.412	0.21
831.582	0.3
831.753	-0.3
831.923	0.05
832.093	-0.71
832.263	-0.04
832.434	-0.92
832.604	-0.27
832.774	0.14
832.944	-0.1
833.114	-0.16
833.284	0.07
833.454	-1.19
833.624	-0.07
833.795	-0.51
833.965	0.25
834.135	0.19
834.305	-0.98
834.475	-0.98
834.645	-0.04
834.815	-0.61
834.985	-0.8
835.155	-0.47
835.325	0.36
835.494	-0.35
835.664	-0.82
835.834	-0.96
836.004	-0.1
836.174	0.98
836.344	-0.51
836.514	-1.03
836.684	-0.41
836.853	-0.13
837.023	-0.33
837.193	-0.33
837.363	0.41
837.532	-0.34
837.702	-0.3
837.872	-1.07
838.041	0.32
838.211	1.32
838.381	-0.72
838.55	-0.41
838.72	1.22
838.89	-0.12
839.059	-0.7
839.229	-0.21
839.398	0.68
839.568	0.16
839.738	-0.22
839.907	1.01
840.077	-0.08
840.246	-1.08
840.416	-0.78
840.585	-1.02
840.755	1.02
840.924	1.16
841.093	-0.62
841.263	-0
841.432	-0.12
841.602	-1.31
841.771	-0.74
841.94	-0.97
842.11	1.41
842.279	1.06
842.448	-0.43
842.617	-0.62
842.787	1.2
842.956	-0.73
843.125	-0.36
843.294	0.48
843.464	0.41
843.633	-0
843.802	-1.08
843.971	-0.48
844.14	0.4
844.309	0.34
844.479	-0.86
844.648	-1.01
844.817	-0.72
844.986	0.74
845.155	-1.03
845.324	-0.04
845.493	-0.73
845.662	-1.31
845.831	-0.28
846	0.07
846.169	0.08
846.338	0.62
846.507	-0.8
846.676	0.43
846.844	-0.65
847.013	1.35
847.182	-0.66
847.351	-0.73
847.52	-0.25
847.689	0.77
847.858	-0.6
848.026	-0.72
848.195	-0.32
848.364	-0.11
848.533	-0.44
848.701	-1.2
848.87	-2.05
849.039	0.66
849.207	0.41
849.376	0.44
849.545	0.7
849.713	-0.66
849.882	-0.7
850.051	-0.51
850.219	-0.45
850.388	0.38
850.556	-1.56
850.725	-0.65
850.893	0.27
851.062	-0.57
851.23	0.95
851.399	-1.74
851.567	-0.17
851.736	-1.19
851.904	-1.13
852.073	-0.78
852.241	-0.29
852.41	-0.85
852.578	-0.23
852.746	-1.3
852.915	-0.15
853.083	-0.16
853.251	-1.15
853.42	-0.53
853.588	-0.66
853.756	0.83
853.924	0.34
854.093	-0.9
854.261	-0.91
854.429	-1.76
854.597	0.07
854.765	-1.46
854.934	-0.31
855.102	0.56
855.27	-1.15
855.438	0.26
855.606	0.23
855.774	0.72
855.942	-1.29
856.11	-2.73
856.278	-0.88
856.446	0.53
856.614	-1.24
856.782	-0.55
856.95	0.84
857.118	-0.59
857.286	-0.97
857.454	0.17
857.622	-0.04
857.79	-0.29
857.958	-1.07
858.126	-0.79
858.294	-2.9
858.462	0.21
858.629	-0.74
858.797	-0.71
858.965	-0.92
859.133	0.26
859.301	-0.04
859.468	-0.13
859.636	-1.59
859.804	2.56
859.971	1.28
860.139	-1.36
860.307	0.87
860.474	0.04
860.642	-2.4
860.81	-0.4
860.977	-0.71
861.145	0.49
861.313	-0.58
861.48	0.22
861.648	1.23
861.815	-1.33
861.983	-0.72
862.15	-0.34
862.318	0.61
862.485	1.29
862.653	-0.74
862.82	-0.27
862.988	1.15
863.155	-0.58
863.322	-0.68
863.49	-0.9
863.657	-1.03
863.824	1.37
863.992	-0.57
864.159	0.34
864.326	-0.46
864.494	-0.66
864.661	2.23
864.828	-2.37
864.996	0.65
865.163	0.53
865.33	-2.48
865.497	-2.07
865.664	-0.17
865.832	-2.24
865.999	0.37
866.166	-1.88
866.333	0.1
866.5	-1.61
866.667	-0.1
866.834	-1.21
867.001	2.3
867.168	-2.27
867.335	0.07
867.502	-2.92
867.669	-0.99
867.836	1.76
868.003	-0.9
868.17	0.07
868.337	2.09
868.504	1.8
868.671	-3.33
868.838	-1.37
869.005	-0.42
869.172	0.52
869.339	-1.04
869.505	-0.28
869.672	0.01
869.839	2.34
870.006	-2.4
870.173	-1.05
870.339	0.21
870.506	2.36
870.673	-2.24
870.84	1.21
871.006	-0.01
871.173	-1.52
871.34	0.01
871.506	-1.05
871.673	-0.3
871.839	-2
872.006	0.02
872.173	-1.67
872.339	-0.52
872.506	0.42
872.672	-1.14
872.839	-1.57
873.005	-0.04
873.172	1.34
873.338	0.56
873.505	-0.58
873.671	-1.49
873.838	-0.28
874.004	-1.98
874.171	-0.85
874.337	0.33
874.503	0.75
874.67	-0.85
874.836	-0.92
875.002	3.02
875.169	1.17
875.335	0.55
875.501	0.03
875.668	0.7
875.834	-0.75
876	-0.22
876.166	0.65
876.332	0.57
876.499	2.3
876.665	-1.44
876.831	-0.34
876.997	2.72
877.163	0.34
877.329	0.43
877.495	0.81
877.662	1.07
877.828	2.04
877.994	-1.28
878.16	-2.76
878.326	-2.73
878.492	-1.08
878.658	-0.34
878.824	0.06
878.99	0.55
879.156	-2.69
879.322	3.3
879.487	-1.11
879.653	-1.07
879.819	-0.83
879.985	-1.07
880.151	0.68
880.317	0.23
880.483	-0.81
880.648	0.85
880.814	-2.42
880.98	0.98
881.146	-2.09
881.312	-1.34
881.477	0.01
881.643	-0.52
881.809	1.1
881.974	1.98
882.14	-1.44
882.306	-4
882.471	2.74
882.637	-1.49
882.803	1.88
882.968	1.34
883.134	2.76
883.299	-0.98
883.465	-0.79
883.63	1.43
883.796	1.54
883.961	0.33
884.127	0.01
884.292	-2.79
884.458	-1.98
884.623	-1.98
