Data from Apollo_Calib_20240827__AbsoluteIrradiance__465__06-54-00-502.txt Node

Date: Wed Aug 28 06:54:00 BST 2024
User: biology
Spectrometer: FLMT08252
Trigger mode: 0
Integration Time (sec): 5.000000E-1
Scans to average: 5
Electric dark correction enabled: true
Nonlinearity correction enabled: false
Boxcar width: 0
XAxis mode: Wavelengths
Number of Pixels in Spectrum: 3648
>>>>>Begin Spectral Data<<<<<
179.588	-0
179.809	-0
180.03	-0
180.251	-0
180.473	-0
180.694	0
180.915	0
181.136	-0
181.357	0
181.578	-0
181.799	-0
182.02	-0
182.241	0
182.462	-0
182.683	0
182.904	-0
183.125	-0
183.346	0
183.567	-0
183.788	0
184.009	-0
184.23	-0
184.451	0
184.672	-0
184.892	-0
185.113	-0
185.334	0
185.555	-0
185.776	-0
185.996	0
186.217	0
186.438	0
186.659	-0
186.879	0
187.1	-0
187.321	-0
187.541	-0
187.762	-0
187.983	-0
188.203	-0
188.424	-0
188.644	-0
188.865	0
189.086	-0
189.306	0
189.527	-0
189.747	-0
189.968	-0
190.188	0
190.409	-0
190.629	0
190.849	-0
191.07	-0
191.29	0
191.511	0
191.731	-0
191.951	-0
192.172	-0
192.392	-0
192.612	-0
192.833	-0
193.053	-0
193.273	0
193.493	-0
193.714	-0
193.934	0
194.154	0
194.374	0
194.594	-0
194.815	-0
195.035	0
195.255	-0
195.475	-0
195.695	0
195.915	0
196.135	-0
196.355	0
196.575	0
196.795	0
197.015	-0
197.235	-0
197.455	-0
197.675	0
197.895	-0
198.115	-0
198.335	0
198.555	-0
198.775	0
198.995	-0
199.214	0
199.434	-0
199.654	-0
199.874	-0
200.094	-1.61
200.313	-0.36
200.533	-0.19
200.753	-0.45
200.973	0.84
201.192	0.32
201.412	-0.92
201.632	-0.77
201.851	0.3
202.071	-0.26
202.291	-0.23
202.51	-0.81
202.73	0.25
202.95	0.04
203.169	-0.51
203.389	-0.4
203.608	-0.26
203.828	-0.56
204.047	-0.12
204.267	0.32
204.486	-0.45
204.706	0.27
204.925	-0.07
205.145	-0.36
205.364	0.53
205.583	0.6
205.803	-0.31
206.022	-0.39
206.242	-0.42
206.461	0.29
206.68	-0.2
206.9	-0.32
207.119	0.33
207.338	0.36
207.557	-0.45
207.777	-0.04
207.996	-0.06
208.215	0.45
208.434	-0.17
208.654	-0.47
208.873	0.03
209.092	0.28
209.311	-0.14
209.53	-0.29
209.749	-0.28
209.968	-0.45
210.187	-0.22
210.407	-0.55
210.626	-0.39
210.845	0.13
211.064	0.13
211.283	-0.2
211.502	0.05
211.721	-0.02
211.94	-0.1
212.159	0.17
212.377	0.23
212.596	0.3
212.815	0
213.034	-0.2
213.253	0.1
213.472	0.13
213.691	-0.11
213.91	-0.18
214.128	-0.17
214.347	0.35
214.566	-0.38
214.785	-0.35
215.003	0.11
215.222	-0.15
215.441	0.01
215.66	-0.5
215.878	-0.12
216.097	0.16
216.316	-0.31
216.534	-0.22
216.753	0.06
216.972	-0.13
217.19	-0.04
217.409	-0.2
217.627	-0.39
217.846	-0.13
218.064	0.03
218.283	-0.26
218.501	0.38
218.72	0.04
218.938	-0.28
219.157	-0.08
219.375	0.04
219.594	0.26
219.812	-0.31
220.031	-0.23
220.249	0.21
220.467	0.23
220.686	-0.24
220.904	-0.2
221.122	-0.16
221.341	0.31
221.559	0
221.777	-0.2
221.995	0.08
222.214	0.04
222.432	-0.19
222.65	0.07
222.868	0.08
223.086	0.01
223.305	0.09
223.523	-0.02
223.741	0.17
223.959	-0
224.177	-0.2
224.395	-0.06
224.613	-0.07
224.831	0.02
225.049	-0.25
225.267	0.05
225.485	0.15
225.703	0
225.921	-0.02
226.139	-0.01
226.357	0
226.575	0.04
226.793	-0.08
227.011	0.35
227.229	0.03
227.447	0.14
227.665	-0.08
227.883	-0.17
228.1	-0.09
228.318	0.05
228.536	-0.32
228.754	-0.12
228.972	0.04
229.189	0.16
229.407	-0.1
229.625	-0.1
229.843	0.13
230.06	0.02
230.278	-0.13
230.496	-0.05
230.713	0.1
230.931	0.02
231.149	-0.15
231.366	-0.29
231.584	-0.09
231.801	0.32
232.019	-0.08
232.236	-0.06
232.454	-0.1
232.671	-0.02
232.889	-0.09
233.106	-0.22
233.324	-0.09
233.541	0
233.759	-0.05
233.976	-0.15
234.194	-0.02
234.411	-0.08
234.628	-0.15
234.846	-0.1
235.063	-0.14
235.28	0.05
235.498	0.04
235.715	-0.12
235.932	0.08
236.149	-0.11
236.367	-0.16
236.584	-0.03
236.801	-0.16
237.018	0.04
237.236	-0.07
237.453	-0.22
237.67	0.12
237.887	-0.05
238.104	-0.07
238.321	-0.12
238.538	-0.17
238.755	0.04
238.973	-0.27
239.19	-0.01
239.407	0.02
239.624	-0.05
239.841	-0.11
240.058	-0.14
240.275	0.03
240.492	-0.07
240.709	-0.05
240.925	-0.07
241.142	-0.08
241.359	-0.14
241.576	-0.08
241.793	-0.05
242.01	0.03
242.227	0.02
242.444	0.03
242.66	0.03
242.877	0.04
243.094	-0.03
243.311	0.01
243.527	-0.02
243.744	0.03
243.961	0.05
244.178	-0.07
244.394	-0.11
244.611	0.13
244.828	0.05
245.044	-0.08
245.261	-0.13
245.477	0.01
245.694	0.04
245.911	-0.06
246.127	-0.05
246.344	0.24
246.56	0.04
246.777	-0.03
246.993	-0.05
247.21	0.07
247.426	0.03
247.643	-0.01
247.859	-0.12
248.076	-0.09
248.292	0.18
248.508	-0.03
248.725	-0.06
248.941	0.07
249.157	0.02
249.374	-0.13
249.59	-0.01
249.806	-0.05
250.023	-0.01
250.239	-0.19
250.455	-0.13
250.671	-0.06
250.888	0.05
251.104	0.02
251.32	-0.03
251.536	-0.06
251.752	-0.02
251.969	-0.04
252.185	0.04
252.401	0.05
252.617	-0.03
252.833	-0.03
253.049	0.02
253.265	-0.06
253.481	0.05
253.697	-0.03
253.913	-0.11
254.129	-0.03
254.345	-0.02
254.561	0.04
254.777	-0.07
254.993	-0.01
255.209	-0.04
255.425	-0.09
255.641	-0.11
255.857	0.07
256.073	-0.04
256.288	-0.1
256.504	-0.09
256.72	0.03
256.936	0.07
257.152	-0.05
257.367	-0.09
257.583	-0.01
257.799	0.02
258.015	-0.08
258.23	-0.03
258.446	0.1
258.662	0.04
258.877	-0.05
259.093	-0.08
259.309	-0.02
259.524	0.07
259.74	-0.08
259.955	-0.06
260.171	0
260.387	-0.07
260.602	0.09
260.818	0.04
261.033	-0.08
261.249	-0.15
261.464	-0.07
261.68	-0.12
261.895	0.02
262.11	-0.02
262.326	-0.03
262.541	-0.06
262.757	0.04
262.972	0.05
263.187	-0.01
263.403	-0.02
263.618	0.04
263.833	-0.05
264.049	-0.06
264.264	0.01
264.479	-0
264.694	0.06
264.91	-0.09
265.125	-0.04
265.34	0.09
265.555	0.1
265.77	0.06
265.986	-0.07
266.201	0.04
266.416	0.06
266.631	-0.02
266.846	-0.04
267.061	0.02
267.276	0.04
267.491	-0.16
267.706	0.03
267.921	0.02
268.136	-0.05
268.351	-0
268.566	-0.11
268.781	0.06
268.996	0.04
269.211	-0.05
269.426	-0.1
269.641	-0.06
269.856	0.05
270.071	-0.07
270.285	-0.11
270.5	-0.02
270.715	0.06
270.93	0.01
271.145	0.02
271.359	0.03
271.574	-0.05
271.789	-0.07
272.004	-0.09
272.218	-0.04
272.433	0.01
272.648	-0.04
272.862	0.05
273.077	-0.03
273.292	-0.04
273.506	-0.1
273.721	-0.01
273.936	0.01
274.15	0.06
274.365	-0.03
274.579	0.02
274.794	0.01
275.008	0.04
275.223	-0.09
275.437	-0.03
275.652	0.02
275.866	0.06
276.081	-0.03
276.295	0.07
276.509	-0.01
276.724	-0.03
276.938	-0.03
277.153	0.02
277.367	0.05
277.581	-0.04
277.796	-0.09
278.01	-0.07
278.224	0.03
278.438	0.13
278.653	-0.05
278.867	-0.11
279.081	-0.24
279.295	-0.03
279.51	0.05
279.724	-0.04
279.938	0.02
280.152	-0.07
280.366	-0.06
280.58	0.01
280.794	0.02
281.008	0.02
281.222	0.03
281.437	0.13
281.651	-0.02
281.865	0.07
282.079	0.03
282.293	-0.14
282.507	-0.07
282.721	-0.03
282.935	0
283.148	-0.08
283.362	-0.03
283.576	-0.06
283.79	-0.01
284.004	-0.04
284.218	0.03
284.432	-0
284.646	-0.01
284.859	-0.05
285.073	-0.01
285.287	-0.01
285.501	-0.01
285.714	-0.01
285.928	-0.01
286.142	0
286.356	-0.01
286.569	-0.05
286.783	0.1
286.997	0.02
287.21	0.02
287.424	-0.01
287.637	-0.03
287.851	-0.02
288.065	0.02
288.278	-0.04
288.492	0.02
288.705	-0.02
288.919	0.01
289.132	-0.09
289.346	0.07
289.559	-0.05
289.773	-0.1
289.986	-0.03
290.2	-0.02
290.413	0.08
290.626	-0.07
290.84	-0.01
291.053	0
291.267	0.07
291.48	-0.04
291.693	0
291.906	-0.05
292.12	-0.01
292.333	-0.04
292.546	-0.03
292.76	0.07
292.973	0.04
293.186	0.03
293.399	-0.05
293.612	0.07
293.826	0.02
294.039	-0.01
294.252	-0.04
294.465	0.05
294.678	0.06
294.891	0.01
295.104	-0.05
295.317	0.02
295.53	-0
295.743	-0.05
295.956	0.02
296.169	0.04
296.382	0.08
296.595	-0.01
296.808	-0.04
297.021	0.01
297.234	0.02
297.447	-0.02
297.66	0.02
297.873	0.08
298.086	0.03
298.299	-0.02
298.511	-0.09
298.724	-0.01
298.937	-0.02
299.15	-0.05
299.363	0.03
299.575	0.04
299.788	0.03
300.001	-0.02
300.213	-0.06
300.426	-0.03
300.639	-0.07
300.852	-0.04
301.064	0.02
301.277	0.04
301.489	0.02
301.702	0.02
301.915	0.02
302.127	-0.03
302.34	0.01
302.552	0
302.765	-0.02
302.977	0.02
303.19	-0.03
303.402	-0.02
303.615	-0.02
303.827	-0.01
304.04	0.01
304.252	0.01
304.464	-0.06
304.677	0.09
304.889	0.05
305.102	-0.06
305.314	-0.04
305.526	0.03
305.739	0.01
305.951	-0.04
306.163	-0.02
306.375	0.04
306.588	-0.06
306.8	-0.03
307.012	-0.04
307.224	-0
307.436	0.03
307.649	-0.05
307.861	-0.03
308.073	0.01
308.285	-0.04
308.497	-0.05
308.709	-0.05
308.921	0.03
309.133	0.07
309.346	-0.04
309.558	0
309.77	0.06
309.982	0.02
310.194	0.05
310.406	-0.06
310.617	0.08
310.829	-0
311.041	0.02
311.253	-0.07
311.465	-0.01
311.677	-0.04
311.889	-0.03
312.101	-0.02
312.313	0.07
312.524	0.02
312.736	-0.07
312.948	-0.02
313.16	0.08
313.372	-0.01
313.583	0.05
313.795	-0.01
314.007	-0.02
314.218	-0.01
314.43	-0.03
314.642	-0.03
314.853	-0.03
315.065	0.03
315.277	-0.01
315.488	-0.01
315.7	0.05
315.912	0
316.123	-0.02
316.335	0.03
316.546	0.04
316.758	0
316.969	-0.07
317.181	0.02
317.392	-0
317.604	0.01
317.815	-0.05
318.026	-0.03
318.238	-0.01
318.449	-0.01
318.661	-0.09
318.872	-0.1
319.083	-0.04
319.295	0.07
319.506	-0.04
319.717	-0
319.929	0.01
320.14	-0.03
320.351	-0.01
320.562	-0.06
320.774	0.03
320.985	0.01
321.196	-0.04
321.407	-0.05
321.618	-0.01
321.829	-0.01
322.041	0.01
322.252	-0.02
322.463	0.03
322.674	-0.01
322.885	0.03
323.096	-0.02
323.307	-0.03
323.518	0
323.729	-0.03
323.94	-0.02
324.151	-0.04
324.362	0.02
324.573	0
324.784	-0.04
324.995	0
325.206	0.03
325.417	0
325.628	-0.06
325.838	0.01
326.049	-0.01
326.26	0.04
326.471	-0.01
326.682	0.02
326.892	-0.02
327.103	-0.06
327.314	-0.03
327.525	0.03
327.735	-0
327.946	-0
328.157	-0.05
328.368	0
328.578	0.01
328.789	0.03
328.999	0
329.21	-0.03
329.421	-0
329.631	-0.08
329.842	-0.05
330.052	0.06
330.263	-0
330.473	0.01
330.684	0.02
330.894	-0.03
331.105	-0.03
331.315	-0.02
331.526	-0.11
331.736	0.05
331.947	0.03
332.157	0.01
332.367	-0.06
332.578	0.03
332.788	0.08
332.999	0.01
333.209	-0.02
333.419	-0.02
333.629	0.06
333.84	0
334.05	-0.06
334.26	0.08
334.47	0
334.681	0.01
334.891	-0.01
335.101	0.04
335.311	0.02
335.521	0.02
335.732	-0.05
335.942	0.07
336.152	0.01
336.362	0.04
336.572	-0
336.782	0.02
336.992	-0.05
337.202	-0.03
337.412	-0.09
337.622	0.02
337.832	-0.03
338.042	-0.01
338.252	-0.04
338.462	-0.02
338.672	-0
338.882	-0
339.092	-0
339.302	0.07
339.511	0.04
339.721	-0.04
339.931	-0.04
340.141	0.02
340.351	0.04
340.561	0
340.77	-0.02
340.98	0.01
341.19	-0
341.4	-0.01
341.609	-0.05
341.819	-0.01
342.029	-0.08
342.238	-0.01
342.448	-0.05
342.658	0.08
342.867	-0
343.077	0.02
343.286	0.02
343.496	-0
343.706	0.07
343.915	-0.06
344.125	0.02
344.334	0.04
344.544	-0.09
344.753	-0.01
344.963	-0.01
345.172	-0.03
345.381	-0.06
345.591	-0.05
345.8	-0.01
346.01	0.07
346.219	0.04
346.428	-0.15
346.638	0.01
346.847	0.02
347.056	0.05
347.266	-0.01
347.475	-0
347.684	0.03
347.893	-0.02
348.103	0.02
348.312	-0.01
348.521	-0.01
348.73	0.02
348.94	-0.01
349.149	-0.02
349.358	0.06
349.567	-0.03
349.776	-0.05
349.985	-0.04
350.194	0.01
350.403	0.03
350.612	-0.07
350.821	-0.01
351.03	-0.01
351.239	-0.07
351.448	-0.02
351.657	-0.04
351.866	0.06
352.075	-0.02
352.284	0.02
352.493	-0.08
352.702	0.06
352.911	0.01
353.12	-0.02
353.329	-0.03
353.538	0.02
353.746	-0.04
353.955	-0.03
354.164	0.02
354.373	0
354.582	0.01
354.79	0
354.999	0.06
355.208	-0.02
355.416	0.07
355.625	-0.07
355.834	-0.05
356.042	0
356.251	-0.03
356.46	-0.05
356.668	0.03
356.877	0.03
357.085	0.01
357.294	-0.05
357.503	0.03
357.711	0
357.92	0.1
358.128	-0
358.337	-0.07
358.545	0.01
358.754	-0.06
358.962	0.03
359.17	-0.02
359.379	0.03
359.587	0.04
359.796	-0.01
360.004	0.05
360.212	0.06
360.421	0.06
360.629	-0.05
360.837	-0.01
361.046	0
361.254	0.06
361.462	-0.04
361.67	-0.05
361.879	-0
362.087	0.02
362.295	0.04
362.503	-0.03
362.711	-0.09
362.92	-0.07
363.128	-0.03
363.336	-0.01
363.544	-0.08
363.752	-0.02
363.96	0
364.168	-0.02
364.376	-0.02
364.584	0.03
364.792	0.03
365	0.04
365.208	0.02
365.416	0.03
365.624	0.04
365.832	-0.03
366.04	0.07
366.248	0
366.456	0.01
366.664	0.01
366.872	-0.01
367.079	0.06
367.287	-0.01
367.495	0.04
367.703	0.02
367.911	-0.05
368.118	-0.01
368.326	0
368.534	-0.05
368.742	0.01
368.949	-0.05
369.157	-0.01
369.365	0.02
369.572	-0.01
369.78	-0.04
369.988	0.07
370.195	0.02
370.403	-0
370.61	-0.04
370.818	0.02
371.026	0.03
371.233	-0.01
371.441	-0.01
371.648	-0.03
371.856	0.04
372.063	-0.01
372.271	-0.05
372.478	-0.04
372.685	-0.05
372.893	0.05
373.1	-0.04
373.308	-0.02
373.515	0.08
373.722	0.02
373.93	-0.01
374.137	-0.01
374.344	0.09
374.552	0.05
374.759	0.01
374.966	-0.02
375.173	-0.03
375.381	0.01
375.588	-0.02
375.795	-0.09
376.002	-0.04
376.209	-0.06
376.417	-0.03
376.624	-0.01
376.831	0.01
377.038	-0
377.245	-0.03
377.452	-0.05
377.659	-0.02
377.866	-0.02
378.073	-0.03
378.28	-0.01
378.487	-0
378.694	0.01
378.901	0.01
379.108	0.02
379.315	0.05
379.522	0.07
379.729	0.02
379.936	-0.04
380.143	-0.02
380.35	0.01
380.557	-0.03
380.763	-0.01
380.97	-0.01
381.177	-0.01
381.384	0.01
381.591	-0.04
381.797	-0.01
382.004	-0.02
382.211	-0
382.418	-0.02
382.624	0.04
382.831	0.07
383.038	-0.01
383.244	-0.01
383.451	0.02
383.658	0.03
383.864	0.02
384.071	-0.01
384.277	0.03
384.484	-0.04
384.69	0.02
384.897	-0
385.103	-0.01
385.31	-0.03
385.516	-0.01
385.723	-0.05
385.929	-0.08
386.136	-0.03
386.342	-0.02
386.549	-0.05
386.755	0.03
386.961	-0.03
387.168	-0.06
387.374	0
387.58	0.01
387.787	-0.03
387.993	-0.01
388.199	0.01
388.406	-0.07
388.612	-0.02
388.818	-0.06
389.024	-0.02
389.231	0
389.437	0.07
389.643	0.05
389.849	-0.01
390.055	-0.01
390.261	-0.02
390.467	-0.01
390.674	-0.04
390.88	-0.04
391.086	0.01
391.292	-0.08
391.498	0
391.704	-0.03
391.91	0
392.116	0
392.322	-0.06
392.528	0.01
392.734	0.02
392.94	-0.04
393.146	-0.05
393.352	0
393.557	-0.02
393.763	-0.03
393.969	-0.02
394.175	-0.02
394.381	-0.02
394.587	-0.02
394.792	-0.02
394.998	0.04
395.204	0.05
395.41	-0.07
395.615	0.01
395.821	0.01
396.027	-0
396.233	-0.05
396.438	-0
396.644	0.03
396.85	0.02
397.055	-0.02
397.261	0.02
397.466	0.06
397.672	-0.03
397.878	0.02
398.083	-0.02
398.289	-0.07
398.494	0.03
398.7	-0
398.905	-0.06
399.111	0.06
399.316	-0.07
399.522	-0.02
399.727	-0
399.932	-0.01
400.138	-0.02
400.343	0.08
400.549	0.05
400.754	0.01
400.959	0.01
401.165	0.01
401.37	0
401.575	-0.07
401.78	-0.03
401.986	-0.02
402.191	-0.06
402.396	-0.01
402.601	0.06
402.807	0.03
403.012	-0.01
403.217	0.01
403.422	0.02
403.627	-0.02
403.832	-0.01
404.037	0.04
404.243	0.02
404.448	-0.06
404.653	-0.02
404.858	-0
405.063	0.03
405.268	-0.06
405.473	-0.02
405.678	-0.01
405.883	0.08
406.088	0.02
406.293	-0.06
406.498	-0.05
406.703	0.01
406.907	-0.02
407.112	-0.06
407.317	-0.01
407.522	0.04
407.727	-0.04
407.932	-0.02
408.136	0.02
408.341	0.02
408.546	-0.01
408.751	-0.03
408.956	-0.04
409.16	0.03
409.365	-0.03
409.57	-0.01
409.774	0.02
409.979	0.03
410.184	-0.01
410.388	-0.06
410.593	0.06
410.798	0.02
411.002	-0.03
411.207	-0
411.411	0.04
411.616	-0.08
411.82	-0.03
412.025	-0.01
412.229	-0.07
412.434	0.05
412.638	-0.01
412.843	-0.01
413.047	0.04
413.252	-0.07
413.456	-0.03
413.66	0.03
413.865	-0.04
414.069	0.03
414.273	-0.07
414.478	-0.02
414.682	-0.03
414.886	-0.06
415.091	-0.07
415.295	-0.09
415.499	0.02
415.703	-0.02
415.908	-0.03
416.112	-0.13
416.316	0.03
416.52	-0.03
416.724	-0.07
416.929	-0.06
417.133	0.07
417.337	-0.04
417.541	-0.08
417.745	-0.06
417.949	0.01
418.153	-0.04
418.357	-0.05
418.561	0.03
418.765	0.02
418.969	0.09
419.173	0.04
419.377	-0.06
419.581	0.05
419.785	-0.01
419.989	-0.06
420.193	-0.03
420.397	-0.04
420.601	0.07
420.804	-0.02
421.008	-0
421.212	-0.01
421.416	0.03
421.62	-0.05
421.823	-0.01
422.027	0.05
422.231	-0.06
422.435	-0.03
422.638	0
422.842	0.03
423.046	-0.02
423.249	0.02
423.453	-0
423.657	0.03
423.86	-0.02
424.064	-0
424.268	0.02
424.471	-0.06
424.675	0.06
424.878	0.02
425.082	0.02
425.285	0.03
425.489	-0.02
425.692	-0.01
425.896	-0.07
426.099	0.02
426.303	-0.06
426.506	-0.11
426.71	0.01
426.913	0.05
427.116	0.02
427.32	-0.03
427.523	-0.03
427.726	0.08
427.93	-0.04
428.133	-0.04
428.336	-0.05
428.54	-0.06
428.743	0.01
428.946	0.01
429.149	-0.01
429.353	-0.02
429.556	-0.05
429.759	-0.07
429.962	-0.07
430.165	0.03
430.368	0
430.571	-0.03
430.775	-0.01
430.978	-0.03
431.181	0.02
431.384	0.01
431.587	-0.01
431.79	-0.02
431.993	-0.04
432.196	-0.01
432.399	-0.03
432.602	0.06
432.805	-0.04
433.008	-0.04
433.211	-0.11
433.414	-0.01
433.616	-0.02
433.819	-0.05
434.022	-0.09
434.225	0.07
434.428	0.03
434.631	0.09
434.833	-0.01
435.036	-0.02
435.239	0.02
435.442	0.02
435.645	-0.07
435.847	0
436.05	0.02
436.253	0.03
436.455	-0.08
436.658	-0.03
436.861	0.09
437.063	-0.02
437.266	-0.02
437.468	0.01
437.671	0.12
437.874	-0.02
438.076	-0.09
438.279	-0.1
438.481	-0.03
438.684	-0.04
438.886	0.01
439.089	-0.1
439.291	-0.01
439.494	0.04
439.696	-0.03
439.899	-0.05
440.101	0
440.303	-0.11
440.506	0.05
440.708	-0.04
440.91	0
441.113	-0.04
441.315	-0.02
441.517	-0.07
441.72	0.02
441.922	-0.07
442.124	-0.02
442.326	0.01
442.529	0.07
442.731	-0.06
442.933	0.07
443.135	-0.02
443.337	-0.06
443.539	-0.01
443.742	-0.04
443.944	-0.01
444.146	-0.03
444.348	-0.06
444.55	-0.05
444.752	-0.03
444.954	-0.08
445.156	-0.03
445.358	-0.06
445.56	0.04
445.762	-0.04
445.964	0.01
446.166	-0.03
446.368	-0.07
446.57	0.02
446.772	-0
446.974	-0.03
447.175	0.03
447.377	-0.04
447.579	-0.07
447.781	-0.04
447.983	0.04
448.184	-0.04
448.386	-0.04
448.588	-0.08
448.79	-0.01
448.991	-0.06
449.193	-0.05
449.395	-0.03
449.597	0.06
449.798	0.02
450	-0.03
450.202	0.02
450.403	-0.04
450.605	0.05
450.806	0
451.008	-0.07
451.21	-0.03
451.411	-0.02
451.613	-0.04
451.814	-0.04
452.016	-0.02
452.217	0.01
452.419	0.04
452.62	-0.02
452.821	0.06
453.023	0.06
453.224	0.04
453.426	-0.02
453.627	0.04
453.828	0.05
454.03	-0.06
454.231	0
454.432	-0.07
454.634	0.06
454.835	-0.07
455.036	-0.06
455.238	0.03
455.439	0.05
455.64	-0.06
455.841	-0.04
456.042	0.1
456.244	0.04
456.445	-0.04
456.646	-0.07
456.847	-0.03
457.048	0.01
457.249	0.05
457.45	0.15
457.651	-0.03
457.852	0
458.054	0.01
458.255	-0.02
458.456	-0.02
458.657	-0.02
458.858	-0.04
459.058	-0.06
459.259	0
459.46	-0.04
459.661	-0.06
459.862	0.09
460.063	0
460.264	0.07
460.465	-0.05
460.666	0.06
460.866	-0.03
461.067	0.01
461.268	-0.01
461.469	-0.05
461.67	-0.03
461.87	-0.02
462.071	-0.07
462.272	-0.09
462.473	0.01
462.673	0.05
462.874	-0.06
463.075	0
463.275	-0.03
463.476	0.02
463.676	-0.03
463.877	0.01
464.078	-0.01
464.278	0.04
464.479	-0.08
464.679	-0.05
464.88	-0.05
465.08	0.03
465.281	-0.03
465.481	-0.01
465.682	-0.04
465.882	0.03
466.083	-0.05
466.283	-0.02
466.483	-0.01
466.684	-0.06
466.884	-0.06
467.085	-0.02
467.285	0.03
467.485	0
467.686	0.02
467.886	-0.04
468.086	-0.02
468.286	-0.04
468.487	0.05
468.687	-0.07
468.887	-0
469.087	0.03
469.287	0.01
469.488	-0.08
469.688	-0
469.888	-0.01
470.088	0.05
470.288	0.03
470.488	0.04
470.688	-0.07
470.888	-0.02
471.088	-0.03
471.288	0.04
471.488	-0
471.688	0.01
471.888	-0.03
472.088	0.02
472.288	0.03
472.488	-0.05
472.688	-0.03
472.888	-0.04
473.088	0.01
473.288	0.01
473.488	0.01
473.688	0.07
473.887	-0.01
474.087	-0.05
474.287	-0.01
474.487	-0.02
474.687	0
474.886	-0.04
475.086	0
475.286	-0.03
475.486	0.01
475.685	-0.01
475.885	-0.04
476.085	0
476.284	0.02
476.484	-0
476.684	0.05
476.883	0.02
477.083	-0
477.282	-0.04
477.482	0.02
477.681	0.04
477.881	0
478.08	-0.04
478.28	-0.04
478.479	0.03
478.679	0.04
478.878	-0.03
479.078	-0.02
479.277	-0.01
479.477	-0.05
479.676	0.05
479.875	0.01
480.075	-0.06
480.274	0.04
480.473	0.01
480.673	-0.02
480.872	0.02
481.071	-0.01
481.271	-0.01
481.47	-0.03
481.669	-0.03
481.868	-0.02
482.067	-0.02
482.267	-0.02
482.466	-0.03
482.665	-0.06
482.864	-0.04
483.063	-0.03
483.262	0.01
483.461	0.04
483.661	0
483.86	-0.04
484.059	0
484.258	0.01
484.457	-0.01
484.656	0
484.855	0.03
485.054	-0.04
485.253	-0.03
485.452	-0.05
485.651	0.02
485.849	-0.04
486.048	-0.04
486.247	-0.05
486.446	-0.01
486.645	-0.04
486.844	-0.04
487.043	-0
487.241	-0
487.44	-0.01
487.639	-0.02
487.838	0.01
488.037	0.02
488.235	0.05
488.434	-0
488.633	-0.02
488.831	0
489.03	0.01
489.229	-0
489.427	-0.03
489.626	0.05
489.825	0.03
490.023	-0.01
490.222	-0.03
490.42	0.01
490.619	0.01
490.817	0.01
491.016	-0.02
491.214	0.03
491.413	-0
491.611	-0.02
491.81	-0.01
492.008	0.01
492.207	0.03
492.405	0
492.604	-0.04
492.802	-0.03
493	-0
493.199	-0.04
493.397	-0.01
493.595	-0.01
493.794	-0.02
493.992	0.01
494.19	-0.02
494.388	0.01
494.587	-0.03
494.785	-0.02
494.983	-0.02
495.181	-0.01
495.379	-0.01
495.578	-0.02
495.776	0.02
495.974	0.01
496.172	-0.01
496.37	-0.01
496.568	-0.01
496.766	-0.02
496.964	0.01
497.162	0
497.36	-0.02
497.558	0.02
497.756	0.04
497.954	-0.03
498.152	-0.03
498.35	-0.02
498.548	-0.03
498.746	0.01
498.944	-0.02
499.142	-0.02
499.34	-0.03
499.538	-0
499.736	-0.04
499.933	0.02
500.131	0.01
500.329	-0.01
500.527	0.03
500.725	0.01
500.922	0.01
501.12	0.02
501.318	-0
501.516	-0.03
501.713	0.01
501.911	-0
502.109	-0.05
502.306	-0.01
502.504	0
502.701	-0.02
502.899	0
503.097	0.02
503.294	0.01
503.492	-0.01
503.689	-0.01
503.887	0.02
504.084	0.04
504.282	0.01
504.479	-0.04
504.677	-0.01
504.874	-0.03
505.072	-0
505.269	-0.01
505.466	0.04
505.664	-0
505.861	-0.05
506.059	-0.04
506.256	0.01
506.453	-0.03
506.651	0.02
506.848	0.03
507.045	0.02
507.242	-0
507.44	-0.02
507.637	-0.01
507.834	-0
508.031	0
508.229	-0.02
508.426	-0.02
508.623	0.03
508.82	-0.01
509.017	-0.02
509.214	-0.01
509.411	0
509.608	-0.03
509.805	-0
510.003	-0.02
510.2	-0.02
510.397	0.02
510.594	-0.02
510.791	-0.02
510.988	-0.03
511.184	0.03
511.381	-0
511.578	-0.03
511.775	0.04
511.972	-0.03
512.169	-0.01
512.366	-0.01
512.563	0.02
512.76	-0.03
512.956	0.01
513.153	-0.02
513.35	0.02
513.547	-0.01
513.744	-0.03
513.94	-0.02
514.137	0.01
514.334	-0.01
514.53	0
514.727	-0.01
514.924	0.05
515.12	-0.02
515.317	-0.03
515.514	-0.03
515.71	-0.02
515.907	-0
516.103	0
516.3	0
516.497	-0.01
516.693	0.02
516.89	-0.02
517.086	-0.03
517.283	0.02
517.479	0.02
517.676	-0.01
517.872	0
518.068	-0.02
518.265	-0.02
518.461	-0.03
518.658	-0.02
518.854	-0
519.05	-0.01
519.247	-0.03
519.443	0.01
519.639	0
519.836	-0
520.032	-0.01
520.228	-0.01
520.424	0.06
520.621	0.01
520.817	-0.02
521.013	0
521.209	-0
521.405	0.01
521.601	0
521.798	-0.01
521.994	-0
522.19	-0.03
522.386	-0.03
522.582	0
522.778	-0.01
522.974	-0.01
523.17	0
523.366	-0.02
523.562	0.04
523.758	-0
523.954	-0.03
524.15	-0.02
524.346	-0.01
524.542	-0
524.738	-0.02
524.934	-0.01
525.129	-0.01
525.325	0.01
525.521	-0
525.717	0.02
525.913	0.01
526.109	-0.01
526.304	-0
526.5	0.02
526.696	-0
526.892	-0.02
527.087	0.02
527.283	-0.03
527.479	0.01
527.674	-0.01
527.87	-0.01
528.066	0
528.261	0.02
528.457	0
528.653	-0
528.848	-0.02
529.044	-0.02
529.239	-0.02
529.435	0.01
529.63	0.01
529.826	0.03
530.021	-0.01
530.217	0
530.412	-0.03
530.608	-0.02
530.803	0
530.999	-0
531.194	-0.04
531.389	0
531.585	-0.05
531.78	-0.03
531.975	-0.02
532.171	0.01
532.366	-0
532.561	-0.01
532.757	-0.02
532.952	-0.01
533.147	0.02
533.342	0
533.538	-0.01
533.733	0.03
533.928	0.01
534.123	-0.02
534.318	-0.04
534.513	-0.02
534.709	-0.03
534.904	-0.01
535.099	-0.01
535.294	-0.01
535.489	-0.01
535.684	-0.02
535.879	-0.01
536.074	-0
536.269	-0.01
536.464	-0.02
536.659	-0.01
536.854	-0.02
537.049	-0
537.244	0.01
537.439	-0.01
537.634	0.02
537.828	-0
538.023	-0.01
538.218	-0.02
538.413	-0
538.608	-0.06
538.803	-0.01
538.997	-0.03
539.192	0.02
539.387	0
539.582	0
539.776	0.01
539.971	-0.02
540.166	-0.04
540.36	-0.04
540.555	-0
540.75	0
540.944	0.01
541.139	-0.04
541.334	-0.01
541.528	0.01
541.723	0.01
541.917	0.02
542.112	-0.05
542.306	0.01
542.501	-0.03
542.695	0
542.89	-0.02
543.084	0.01
543.279	-0.02
543.473	-0
543.668	-0.01
543.862	0.01
544.056	0.01
544.251	-0.01
544.445	-0.01
544.64	-0.01
544.834	-0.04
545.028	0.03
545.222	-0.01
545.417	0.02
545.611	-0
545.805	0
546	-0.02
546.194	-0.01
546.388	-0.03
546.582	0.01
546.776	-0
546.97	-0.01
547.165	0.02
547.359	0.01
547.553	-0.02
547.747	-0
547.941	-0.01
548.135	-0.01
548.329	0
548.523	-0
548.717	-0.01
548.911	-0.03
549.105	-0.01
549.299	-0.01
549.493	0.02
549.687	-0.01
549.881	0
550.075	0
550.269	-0.04
550.463	0.01
550.657	-0.02
550.85	-0.01
551.044	-0.02
551.238	-0
551.432	-0.03
551.626	-0.03
551.82	-0
552.013	-0.02
552.207	-0.02
552.401	-0
552.594	0
552.788	-0.01
552.982	0
553.176	-0.02
553.369	0.01
553.563	-0
553.756	-0.04
553.95	-0.02
554.144	-0
554.337	0.04
554.531	0.02
554.724	0.03
554.918	-0.01
555.111	0
555.305	-0.02
555.498	0.05
555.692	0.02
555.885	-0.01
556.079	0.01
556.272	-0.01
556.466	0.01
556.659	-0.01
556.852	0
557.046	-0
557.239	0.03
557.432	-0.03
557.626	-0.01
557.819	0.02
558.012	0.01
558.206	0.02
558.399	-0.01
558.592	0.01
558.785	-0.03
558.979	0.01
559.172	-0.01
559.365	0.01
559.558	-0.01
559.751	-0.02
559.944	-0
560.138	-0
560.331	-0.02
560.524	-0.01
560.717	0.01
560.91	-0.01
561.103	-0
561.296	-0.01
561.489	0
561.682	-0.02
561.875	0.03
562.068	-0.01
562.261	0.01
562.454	0.02
562.647	-0.01
562.84	0
563.032	-0.01
563.225	-0
563.418	-0
563.611	-0.02
563.804	0.01
563.997	-0.03
564.19	-0.05
564.382	-0.02
564.575	-0.01
564.768	-0
564.961	0
565.153	-0.02
565.346	0.02
565.539	0.02
565.731	0.01
565.924	0.01
566.117	0.02
566.309	0.02
566.502	-0
566.695	0.01
566.887	0.01
567.08	-0.03
567.272	-0.04
567.465	-0.02
567.657	-0.01
567.85	0.01
568.042	0.02
568.235	0.03
568.427	0
568.62	-0.01
568.812	0.01
569.005	0
569.197	-0.02
569.389	0.01
569.582	0.01
569.774	-0.01
569.966	-0.03
570.159	-0.02
570.351	0.01
570.543	-0.02
570.736	-0.02
570.928	-0.01
571.12	0.01
571.312	-0.03
571.505	-0.04
571.697	0.01
571.889	-0.02
572.081	-0.01
572.273	-0.03
572.465	0.03
572.658	-0.04
572.85	0.02
573.042	-0.03
573.234	-0.02
573.426	0.01
573.618	-0.03
573.81	0
574.002	0.04
574.194	0.03
574.386	-0.02
574.578	-0.08
574.77	-0.03
574.962	-0
575.154	-0.04
575.346	-0.01
575.538	-0.01
575.729	-0.01
575.921	-0.03
576.113	-0.04
576.305	0.03
576.497	-0
576.689	-0.01
576.88	-0.02
577.072	0.04
577.264	-0.01
577.456	-0
577.647	-0.05
577.839	-0.02
578.031	0.03
578.223	-0.03
578.414	-0.02
578.606	-0.01
578.798	0.02
578.989	-0.03
579.181	-0.01
579.372	-0.03
579.564	-0.01
579.755	-0
579.947	0.04
580.139	0.02
580.33	-0.05
580.522	-0.02
580.713	-0.09
580.905	0.03
581.096	0.01
581.287	-0.02
581.479	-0.04
581.67	0.04
581.862	0.01
582.053	-0.03
582.244	-0.06
582.436	-0.02
582.627	0.01
582.818	-0.01
583.01	-0.05
583.201	0.02
583.392	0.03
583.583	0.01
583.775	-0.01
583.966	-0
584.157	-0.02
584.348	-0.02
584.54	-0.05
584.731	0.01
584.922	0
585.113	-0.03
585.304	-0.01
585.495	0.03
585.686	-0.01
585.877	0
586.068	0.03
586.259	0.03
586.45	-0
586.641	-0.03
586.832	-0.07
587.023	0.01
587.214	-0.02
587.405	0.01
587.596	-0.02
587.787	0.02
587.978	0.01
588.169	-0.02
588.36	-0.02
588.551	0
588.742	-0.01
588.932	-0.01
589.123	-0.02
589.314	0.03
589.505	0.02
589.696	0.03
589.886	-0.02
590.077	-0.04
590.268	0.01
590.458	-0.02
590.649	-0.04
590.84	0
591.03	-0.03
591.221	-0.05
591.412	-0.03
591.602	0.01
591.793	0.04
591.984	-0.04
592.174	-0.02
592.365	0.07
592.555	-0.01
592.746	-0.01
592.936	-0.01
593.127	0.04
593.317	0.04
593.508	-0.02
593.698	-0
593.889	0.02
594.079	0.01
594.269	-0.01
594.46	-0.03
594.65	-0.01
594.84	0
595.031	-0.02
595.221	0.01
595.411	-0.02
595.602	0.05
595.792	-0.02
595.982	-0
596.172	0.05
596.363	0.03
596.553	0.01
596.743	0
596.933	0.01
597.123	0.02
597.314	-0.03
597.504	-0.02
597.694	0.04
597.884	0.01
598.074	-0
598.264	-0.02
598.454	0.03
598.644	0.01
598.834	0.01
599.024	-0.05
599.214	-0.01
599.404	0.02
599.594	-0.01
599.784	0.01
599.974	0.03
600.164	0.01
600.354	-0.01
600.544	-0.05
600.734	0.03
600.924	0.03
601.114	-0.03
601.303	0.01
601.493	0.03
601.683	0.01
601.873	0.03
602.063	-0.03
602.252	0.03
602.442	-0.04
602.632	-0.02
602.821	-0.03
603.011	0.03
603.201	-0.02
603.39	-0.01
603.58	-0
603.77	0.04
603.959	0.05
604.149	0.03
604.339	0
604.528	0.06
604.718	0.03
604.907	-0
605.097	0
605.286	-0.04
605.476	0.01
605.665	0.03
605.855	0.01
606.044	0.07
606.234	0.02
606.423	0.02
606.612	0.01
606.802	0.02
606.991	0.05
607.181	0.03
607.37	-0.01
607.559	0.01
607.749	-0
607.938	0.03
608.127	0
608.316	-0.01
608.506	0.03
608.695	0
608.884	0.03
609.073	0.05
609.263	0.04
609.452	0.04
609.641	0.03
609.83	-0
610.019	0.03
610.208	0
610.397	0.05
610.586	0.07
610.775	-0
610.965	0.02
611.154	0.02
611.343	0.03
611.532	0.05
611.721	0.02
611.91	0.04
612.099	0.08
612.287	0.01
612.476	0.03
612.665	0.06
612.854	0.01
613.043	0.08
613.232	0.07
613.421	0.02
613.61	0.05
613.798	0.03
613.987	0.07
614.176	0.07
614.365	0.07
614.554	0.06
614.742	0.11
614.931	0.05
615.12	0.1
615.309	0.05
615.497	0.09
615.686	0.07
615.875	0.08
616.063	0.07
616.252	0.07
616.44	0.06
616.629	0.08
616.818	0.1
617.006	0.07
617.195	0.1
617.383	0.12
617.572	0.08
617.76	0.06
617.949	0.07
618.137	0.11
618.326	0.13
618.514	0.06
618.703	0.05
618.891	0.15
619.079	0.07
619.268	0.12
619.456	0.06
619.644	0.13
619.833	0.09
620.021	0.06
620.209	0.07
620.398	0.12
620.586	0.12
620.774	0.11
620.962	0.11
621.151	0.14
621.339	0.1
621.527	0.09
621.715	0.08
621.903	0.08
622.092	0.05
622.28	0.1
622.468	0.14
622.656	0.15
622.844	0.13
623.032	0.1
623.22	0.05
623.408	0.17
623.596	0.11
623.784	0.12
623.972	0.07
624.16	0.1
624.348	0.19
624.536	0.11
624.724	0.08
624.912	0.16
625.1	0.16
625.288	0.05
625.476	0.09
625.664	0.12
625.851	0.05
626.039	0.07
626.227	0.09
626.415	0.08
626.603	0.02
626.79	0.11
626.978	0.09
627.166	0.07
627.354	0.05
627.541	0.06
627.729	0.03
627.917	0.11
628.104	0.1
628.292	0.07
628.48	0.05
628.667	0.09
628.855	0.07
629.042	0.07
629.23	0.05
629.418	0.04
629.605	0.04
629.793	0.01
629.98	0.04
630.168	0.02
630.355	0.03
630.543	0.06
630.73	0.04
630.917	0.06
631.105	0.09
631.292	0.02
631.48	0.03
631.667	0.1
631.854	0.03
632.042	0.01
632.229	-0.01
632.416	0.04
632.604	0.02
632.791	-0.04
632.978	0.01
633.165	0.06
633.353	0.07
633.54	0.05
633.727	-0.05
633.914	0.03
634.101	-0.08
634.289	0.06
634.476	0.01
634.663	-0.04
634.85	0.02
635.037	-0.01
635.224	-0.04
635.411	0.04
635.598	0.01
635.785	0
635.972	0.01
636.159	0.02
636.346	-0.01
636.533	0
636.72	-0.02
636.907	-0.01
637.094	0.01
637.281	-0.03
637.468	0.01
637.655	-0.01
637.842	0.01
638.029	-0.02
638.215	0.05
638.402	-0.02
638.589	-0.04
638.776	-0.02
638.963	-0.01
639.149	0.01
639.336	0.05
639.523	0.01
639.709	-0.03
639.896	0
640.083	0.05
640.27	0
640.456	-0.02
640.643	0.02
640.829	-0.08
641.016	-0.03
641.203	-0.05
641.389	0.02
641.576	0.02
641.762	0
641.949	-0.05
642.135	0.02
642.322	0.02
642.508	-0.05
642.695	-0.01
642.881	-0.03
643.068	-0.02
643.254	-0.02
643.441	0.02
643.627	-0.01
643.813	-0.01
644	0.03
644.186	-0.03
644.372	0.01
644.559	0.01
644.745	-0.03
644.931	-0.04
645.118	-0.03
645.304	0
645.49	-0.04
645.676	-0.01
645.862	-0.02
646.049	0.04
646.235	-0.03
646.421	0.05
646.607	0.04
646.793	-0
646.979	-0.05
647.165	-0.01
647.352	-0.01
647.538	0.05
647.724	0
647.91	-0.01
648.096	0.01
648.282	0.01
648.468	-0.02
648.654	-0
648.84	-0.02
649.026	-0.03
649.212	-0.02
649.397	-0.04
649.583	-0.07
649.769	0.03
649.955	-0.02
650.141	0.01
650.327	0.03
650.513	-0.04
650.698	0.01
650.884	-0.08
651.07	-0
651.256	-0
651.442	-0.01
651.627	-0.03
651.813	0.02
651.999	0.01
652.184	0.03
652.37	-0
652.556	-0.02
652.741	0.03
652.927	-0.09
653.113	-0.05
653.298	0
653.484	-0.02
653.669	-0.07
653.855	0.01
654.04	0.01
654.226	-0.01
654.412	-0.01
654.597	-0.03
654.782	-0.01
654.968	0.02
655.153	-0.03
655.339	-0.07
655.524	-0.06
655.71	0
655.895	-0.05
656.08	-0.01
656.266	0.01
656.451	0.02
656.636	-0.05
656.822	-0.02
657.007	-0.05
657.192	-0.02
657.378	-0.06
657.563	-0.01
657.748	-0.01
657.933	0.03
658.118	-0.04
658.304	-0.02
658.489	0.04
658.674	-0.02
658.859	-0.01
659.044	0.04
659.229	0
659.414	-0
659.599	-0
659.785	-0.07
659.97	-0.04
660.155	-0
660.34	-0
660.525	-0.02
660.71	-0.05
660.895	0.01
661.08	-0.05
661.264	-0.05
661.449	0.01
661.634	0.02
661.819	0.01
662.004	0.02
662.189	-0.08
662.374	-0.01
662.559	-0.06
662.743	-0.04
662.928	-0.01
663.113	-0.03
663.298	-0.06
663.483	-0.06
663.667	0.01
663.852	-0.06
664.037	0.05
664.221	-0.05
664.406	0.01
664.591	0.01
664.775	0.02
664.96	-0.01
665.145	-0
665.329	0.02
665.514	-0.03
665.698	-0
665.883	-0.09
666.068	0.05
666.252	-0.03
666.437	-0.06
666.621	0.01
666.806	-0.01
666.99	-0.03
667.174	-0.05
667.359	0.03
667.543	-0.06
667.728	-0.01
667.912	-0.09
668.096	-0.03
668.281	-0.03
668.465	-0.03
668.649	-0.03
668.834	-0.01
669.018	-0.04
669.202	-0.02
669.387	-0.06
669.571	0.05
669.755	-0.05
669.939	-0.05
670.124	-0.01
670.308	0.01
670.492	0.01
670.676	-0.06
670.86	0.01
671.044	-0.06
671.228	0.04
671.413	-0.07
671.597	-0.02
671.781	-0.04
671.965	0
672.149	-0.03
672.333	-0.03
672.517	-0.07
672.701	-0.01
672.885	0.02
673.069	-0.07
673.253	0.02
673.437	-0
673.621	-0.08
673.804	-0.03
673.988	-0.02
674.172	-0.03
674.356	-0.03
674.54	-0.04
674.724	0.09
674.908	-0.03
675.091	0.02
675.275	-0.05
675.459	0.03
675.643	-0.03
675.826	0.01
676.01	-0.01
676.194	-0.04
676.377	0.03
676.561	-0.03
676.745	-0
676.928	0.02
677.112	0
677.296	-0.05
677.479	-0.05
677.663	-0.02
677.846	0.02
678.03	-0.03
678.213	-0.04
678.397	0.02
678.58	-0.02
678.764	-0.07
678.947	-0.04
679.131	-0.04
679.314	0.07
679.498	-0.06
679.681	0
679.865	0.02
680.048	0.02
680.231	0.04
680.415	-0.05
680.598	-0.01
680.781	-0.06
680.965	-0.05
681.148	0.02
681.331	0.02
681.514	0
681.698	-0.06
681.881	0.01
682.064	-0.01
682.247	-0.04
682.43	-0.09
682.614	0
682.797	0.05
682.98	-0
683.163	-0.04
683.346	0.02
683.529	-0.02
683.712	-0.03
683.895	0.01
684.078	-0.06
684.261	-0.03
684.444	-0.01
684.627	-0.01
684.81	-0.04
684.993	0.01
685.176	0.02
685.359	-0.02
685.542	-0.01
685.725	0.07
685.908	-0.05
686.091	-0.01
686.274	0.03
686.457	0.01
686.639	-0.06
686.822	0.01
687.005	-0.07
687.188	0.05
687.371	0.06
687.553	0.01
687.736	-0.01
687.919	0.1
688.102	0.06
688.284	-0.01
688.467	-0.01
688.65	-0.01
688.832	-0.06
689.015	-0.05
689.197	-0.11
689.38	0.08
689.563	0.02
689.745	-0.05
689.928	-0.07
690.11	0
690.293	0.01
690.475	-0.08
690.658	-0.03
690.84	-0
691.023	-0.03
691.205	-0.03
691.388	-0.02
691.57	0.05
691.752	0.02
691.935	-0.1
692.117	-0.04
692.3	-0.01
692.482	0.03
692.664	-0.01
692.847	0.03
693.029	0.05
693.211	0.06
693.393	0
693.576	-0.04
693.758	-0
693.94	-0.02
694.122	-0.07
694.304	-0
694.487	-0.01
694.669	0.06
694.851	-0.04
695.033	-0.03
695.215	-0.03
695.397	-0.05
695.579	0
695.761	-0
695.943	-0.07
696.125	0.06
696.308	-0.02
696.49	-0.14
696.671	0.14
696.853	0.01
697.035	0.1
697.217	-0.01
697.399	-0.01
697.581	-0.03
697.763	0
697.945	-0.04
698.127	-0.08
698.309	0.07
698.491	0
698.672	0.03
698.854	0.06
699.036	0.06
699.218	-0.03
699.399	0.05
699.581	0.04
699.763	0.01
699.945	-0.03
700.126	-0.05
700.308	-0.01
700.49	0
700.671	-0.08
700.853	-0.04
701.035	-0
701.216	-0.02
701.398	-0.05
701.579	-0.09
701.761	0.07
701.943	-0.06
702.124	-0.04
702.306	-0.04
702.487	0.13
702.669	0.03
702.85	-0.07
703.031	-0.12
703.213	0.08
703.394	0.05
703.576	-0.07
703.757	0.02
703.938	0.01
704.12	0.03
704.301	-0.02
704.483	-0.07
704.664	0.01
704.845	0.11
705.026	0.1
705.208	-0.05
705.389	-0.04
705.57	-0.03
705.751	-0.07
705.933	0.02
706.114	0.03
706.295	-0.04
706.476	-0.1
706.657	0.03
706.838	0.06
707.02	0.06
707.201	-0.05
707.382	-0.04
707.563	-0.05
707.744	-0.01
707.925	-0.07
708.106	-0.05
708.287	-0.01
708.468	0.03
708.649	0.01
708.83	0.06
709.011	-0.04
709.192	-0.02
709.373	-0.14
709.554	-0.02
709.734	0.02
709.915	0.02
710.096	-0.01
710.277	-0.15
710.458	-0.04
710.639	0.03
710.819	-0.14
711	-0.02
711.181	0.03
711.362	0.02
711.542	0.08
711.723	-0.05
711.904	-0.04
712.085	-0.01
712.265	-0.04
712.446	-0.12
712.627	-0.06
712.807	-0.01
712.988	-0.06
713.168	-0.08
713.349	0.01
713.53	-0.1
713.71	-0.11
713.891	-0.06
714.071	0.01
714.252	-0.04
714.432	-0
714.613	-0.1
714.793	-0.03
714.974	0.08
715.154	0.06
715.334	0.02
715.515	0.07
715.695	-0.01
715.876	-0.08
716.056	0.03
716.236	-0.02
716.417	-0.04
716.597	-0.02
716.777	0.06
716.957	-0.05
717.138	-0.01
717.318	0.02
717.498	-0.1
717.678	0.02
717.859	-0.03
718.039	-0.11
718.219	-0.03
718.399	0.03
718.579	-0.06
718.759	-0.05
718.939	0.06
719.12	0.01
719.3	0.01
719.48	-0.12
719.66	-0.14
719.84	0.06
720.02	-0.02
720.2	-0.14
720.38	-0.03
720.56	0.06
720.74	-0.07
720.92	-0
721.1	0.05
721.279	0.05
721.459	-0.02
721.639	-0.02
721.819	0.05
721.999	-0.05
722.179	0.05
722.359	-0.07
722.538	-0.06
722.718	-0.05
722.898	-0.07
723.078	-0.01
723.257	-0.08
723.437	-0.02
723.617	-0.02
723.797	-0.13
723.976	-0.04
724.156	0.05
724.336	0.04
724.515	0.12
724.695	-0.12
724.874	-0.02
725.054	0.1
725.234	-0.08
725.413	-0.02
725.593	-0.01
725.772	-0.02
725.952	-0.05
726.131	-0.1
726.311	-0.03
726.49	-0.05
726.67	-0.13
726.849	-0.06
727.028	0
727.208	-0.03
727.387	-0
727.567	-0.08
727.746	-0.04
727.925	-0.08
728.105	-0.13
728.284	-0.04
728.463	-0.12
728.643	-0.01
728.822	-0.13
729.001	-0.14
729.18	-0.06
729.359	0.08
729.539	-0.06
729.718	-0.05
729.897	0.05
730.076	0.01
730.255	-0.16
730.434	-0.01
730.614	0.02
730.793	0.05
730.972	0.02
731.151	-0
731.33	0.06
731.509	0.08
731.688	0.04
731.867	-0.02
732.046	-0.13
732.225	0.12
732.404	-0.11
732.583	-0.07
732.762	0.02
732.941	0
733.12	-0.06
733.298	-0.01
733.477	0.01
733.656	-0.05
733.835	-0.04
734.014	-0.03
734.193	-0.09
734.371	0.04
734.55	-0.08
734.729	-0.12
734.908	0.1
735.086	0.02
735.265	0.01
735.444	-0.15
735.623	-0.12
735.801	-0.13
735.98	0.01
736.159	-0.08
736.337	-0.04
736.516	-0.06
736.694	-0.09
736.873	-0.03
737.052	0.1
737.23	0.2
737.409	-0.08
737.587	0.15
737.766	-0.18
737.944	-0.07
738.123	-0.02
738.301	-0.06
738.479	-0.06
738.658	0.05
738.836	-0.18
739.015	-0.04
739.193	0.1
739.371	-0.1
739.55	-0.09
739.728	-0.1
739.906	0.1
740.085	0.19
740.263	0.04
740.441	-0.2
740.62	0.07
740.798	0.03
740.976	-0.14
741.154	-0.07
741.332	0.17
741.511	-0.04
741.689	-0
741.867	0.05
742.045	-0.04
742.223	-0.06
742.401	-0.05
742.579	-0.07
742.757	0.05
742.935	-0.15
743.114	-0.07
743.292	0.04
743.47	-0.06
743.648	-0.06
743.826	-0.1
744.004	-0.04
744.181	0.09
744.359	-0.02
744.537	-0.09
744.715	0.01
744.893	-0.13
745.071	-0.02
745.249	-0.02
745.427	-0.02
745.605	-0.02
745.782	0.03
745.96	0.08
746.138	-0.03
746.316	0.11
746.493	-0.04
746.671	-0.07
746.849	-0.04
747.027	0.09
747.204	-0.1
747.382	0.06
747.56	-0.11
747.737	0.07
747.915	-0.07
748.093	-0.02
748.27	-0.05
748.448	-0.11
748.625	-0.11
748.803	-0.09
748.98	-0.06
749.158	-0.03
749.335	0.08
749.513	-0.07
749.69	0.02
749.868	-0.03
750.045	0.05
750.223	-0.1
750.4	-0.25
750.578	0.07
750.755	-0.04
750.932	-0.24
751.11	0.16
751.287	-0.3
751.464	0.03
751.642	-0.09
751.819	0.07
751.996	0.06
752.173	-0.04
752.351	-0.11
752.528	0.09
752.705	-0.15
752.882	-0.05
753.06	-0.11
753.237	0.13
753.414	0.03
753.591	0.05
753.768	-0.08
753.945	-0.18
754.122	-0.04
754.299	0.07
754.476	-0.11
754.654	-0.04
754.831	0.03
755.008	0.03
755.185	-0.07
755.362	-0.11
755.539	0.04
755.716	-0.09
755.892	0.01
756.069	-0.01
756.246	-0.12
756.423	-0.07
756.6	0.08
756.777	-0.03
756.954	0.04
757.131	0.05
757.307	-0.06
757.484	-0.13
757.661	0.01
757.838	-0.08
758.015	-0.17
758.191	0.02
758.368	0.05
758.545	0.18
758.721	0.02
758.898	-0.06
759.075	0.15
759.251	-0.05
759.428	0
759.605	-0.03
759.781	-0.02
759.958	0.02
760.134	-0.02
760.311	-0.08
760.488	0.05
760.664	0.04
760.841	-0.02
761.017	-0.1
761.194	0.04
761.37	0.08
761.547	-0.07
761.723	-0.05
761.899	0.14
762.076	-0.13
762.252	-0.14
762.429	-0.05
762.605	0.13
762.781	-0.06
762.958	0.03
763.134	0.05
763.31	-0.04
763.486	0.12
763.663	-0.23
763.839	0.09
764.015	-0.15
764.191	-0.06
764.368	0.07
764.544	-0.06
764.72	0.04
764.896	0.05
765.072	-0.04
765.248	0
765.425	-0.12
765.601	0.07
765.777	-0.05
765.953	-0.31
766.129	0.01
766.305	-0.19
766.481	-0.04
766.657	0.01
766.833	0.1
767.009	-0.19
767.185	0.02
767.361	-0.11
767.537	-0.1
767.713	0.02
767.889	-0.1
768.065	-0.11
768.24	-0.01
768.416	0.13
768.592	-0.1
768.768	-0.15
768.944	-0.05
769.12	-0.18
769.295	0.06
769.471	-0.07
769.647	-0.08
769.823	0.06
769.998	-0.11
770.174	-0.11
770.35	0.3
770.525	0.17
770.701	0.02
770.877	0.01
771.052	-0.19
771.228	0.05
771.403	0.17
771.579	0.05
771.755	0.29
771.93	-0.14
772.106	-0.2
772.281	-0.29
772.457	0.06
772.632	-0.09
772.808	-0.15
772.983	-0.03
773.159	-0.21
773.334	0.06
773.509	-0.12
773.685	-0.14
773.86	0.3
774.036	0.15
774.211	0.04
774.386	-0.05
774.562	0.15
774.737	0.02
774.912	-0.01
775.087	0.14
775.263	-0
775.438	-0.01
775.613	-0
775.788	-0.01
775.964	0.03
776.139	0.33
776.314	-0.21
776.489	0.04
776.664	0.03
776.839	-0.15
777.014	0
777.19	0.15
777.365	0.26
777.54	0.14
777.715	0.04
777.89	-0.03
778.065	-0.17
778.24	-0.04
778.415	0.05
778.59	-0.15
778.765	-0.05
778.94	-0.03
779.115	-0.05
779.289	0
779.464	0
779.639	-0.05
779.814	-0.25
779.989	-0.08
780.164	0.21
780.339	0.03
780.513	-0.18
780.688	-0.28
780.863	-0.06
781.038	0.06
781.212	-0.12
781.387	0.06
781.562	0.41
781.737	-0.17
781.911	0.09
782.086	-0.21
782.261	-0.06
782.435	0.27
782.61	-0.14
782.784	0.01
782.959	0.06
783.134	-0.3
783.308	-0.17
783.483	-0.04
783.657	0.25
783.832	0.18
784.006	-0.4
784.181	0.01
784.355	0.23
784.53	-0.37
784.704	-0.04
784.878	0.33
785.053	0.03
785.227	0.08
785.402	0.32
785.576	-0.24
785.75	-0.2
785.925	-0.17
786.099	-0.08
786.273	-0.06
786.448	0.1
786.622	-0.02
786.796	0.01
786.97	-0.19
787.145	0.47
787.319	-0.38
787.493	-0.05
787.667	-0.23
787.841	0.03
788.015	0.1
788.19	0.04
788.364	0.08
788.538	0.26
788.712	0.25
788.886	-0.17
789.06	0.28
789.234	0.16
789.408	-0.25
789.582	-0.1
789.756	-0.09
789.93	-0.16
790.104	-0
790.278	-0.02
790.452	-0.27
790.626	-0.05
790.8	-0.08
790.973	0.08
791.147	0.13
791.321	0.19
791.495	0.19
791.669	0.01
791.843	0.17
792.016	-0.06
792.19	0.31
792.364	-0.17
792.538	0.69
792.711	0.04
792.885	-0.1
793.059	-0.21
793.233	-0.58
793.406	-0.01
793.58	0.09
793.754	0.06
793.927	-0.04
794.101	0.28
794.274	-0.15
794.448	0.08
794.622	-0.34
794.795	0.16
794.969	-0.03
795.142	0.17
795.316	-0.14
795.489	-0.05
795.663	0.31
795.836	0.16
796.009	-0.2
796.183	0.17
796.356	0.07
796.53	-0.02
796.703	-0.05
796.876	0.51
797.05	0.04
797.223	-0.05
797.396	-0.03
797.57	0.07
797.743	0.15
797.916	-0.08
798.09	-0.11
798.263	0.02
798.436	0.07
798.609	0
798.782	-0.26
798.956	0.12
799.129	-0.13
799.302	-0.11
799.475	-0.13
799.648	-0.3
799.821	-0
799.994	0
800.167	-0.31
800.34	-0.19
800.514	0.03
800.687	-0.36
800.86	0.02
801.033	-0.02
801.206	-0.15
801.379	-0.19
801.551	0.33
801.724	0.11
801.897	0.18
802.07	-0.17
802.243	-0.22
802.416	-0
802.589	-0.17
802.762	0.19
802.935	-0.13
803.107	0.19
803.28	0.13
803.453	0.34
803.626	-0.08
803.798	-0.07
803.971	-0.24
804.144	-0.19
804.317	-0.06
804.489	0.32
804.662	-0.29
804.835	-0.05
805.007	-0.4
805.18	0.22
805.353	-0.03
805.525	-0.29
805.698	-0.22
805.87	0.03
806.043	0.32
806.215	-0.29
806.388	-0.34
806.56	0.07
806.733	0.14
806.905	0.1
807.078	-0.28
807.25	-0.07
807.423	0.08
807.595	-0
807.768	-0.14
807.94	0.33
808.112	0.11
808.285	-0.08
808.457	-0.24
808.629	-0.17
808.802	0.19
808.974	-0.02
809.146	0
809.318	-0.4
809.491	0.15
809.663	0.19
809.835	-0.05
810.007	0.11
810.18	-0.17
810.352	-0.26
810.524	0.03
810.696	-0.04
810.868	0.5
811.04	-0.09
811.212	-0
811.384	-0.08
811.556	0.19
811.728	-0.42
811.901	0.62
812.073	-0.24
812.245	0.04
812.417	-0.11
812.589	-0.49
812.76	-0.23
812.932	0.38
813.104	0.34
813.276	-0.06
813.448	0.36
813.62	-0.19
813.792	0.14
813.964	-0.04
814.136	0.24
814.307	0.02
814.479	0.1
814.651	-0.34
814.823	0.88
814.995	-0.52
815.166	0.34
815.338	-0.72
815.51	-1.05
815.681	0.9
815.853	0.04
816.025	0.02
816.196	0.36
816.368	0.11
816.54	-0.63
816.711	-0.59
816.883	0.35
817.054	0.55
817.226	-0.3
817.398	-0.02
817.569	0.06
817.741	0.05
817.912	-0.24
818.084	-0.37
818.255	0.72
818.426	-0.29
818.598	0.17
818.769	-0.11
818.941	0.22
819.112	0.43
819.283	0.53
819.455	-0.26
819.626	-0.06
819.798	0.49
819.969	-0.09
820.14	-0.19
820.311	-0.19
820.483	0.31
820.654	0.32
820.825	0.01
820.996	-0.03
821.168	-0.7
821.339	-0.08
821.51	-0.49
821.681	-0.2
821.852	-0.06
822.023	-0.31
822.195	-0.39
822.366	0.1
822.537	0.16
822.708	0.4
822.879	-0.44
823.05	0.24
823.221	-0.33
823.392	-0.19
823.563	0.29
823.734	-0.02
823.905	0.08
824.076	-0.26
824.247	-0.66
824.418	-0.11
824.589	0.83
824.759	0.21
824.93	-0.71
825.101	-0.57
825.272	0.69
825.443	0.35
825.614	0.48
825.784	-1.37
825.955	0.92
826.126	0.63
826.297	0.11
826.467	0.33
826.638	0.79
826.809	-0.6
826.98	-0.17
827.15	0.39
827.321	-0.01
827.492	0.67
827.662	-0.08
827.833	0.7
828.003	0.16
828.174	-0.56
828.345	-0.41
828.515	0.5
828.686	-0.16
828.856	-0.26
829.027	-0.16
829.197	0.47
829.368	0.08
829.538	-0.06
829.709	-0.62
829.879	-0.25
830.049	0.18
830.22	-0.75
830.39	0.28
830.56	0.93
830.731	0.03
830.901	-0.1
831.072	0.33
831.242	0.11
831.412	0.02
831.582	-0.08
831.753	-0.8
831.923	0.67
832.093	-0.65
832.263	0.08
832.434	-0.11
832.604	-0.55
832.774	0.46
832.944	0.12
833.114	-0.56
833.284	0.97
833.454	-0.55
833.624	-0.65
833.795	-0.42
833.965	0.42
834.135	0.25
834.305	-0.59
834.475	0.04
834.645	-0.09
834.815	-0.58
834.985	-0.49
835.155	-0.92
835.325	-0.09
835.494	-0.15
835.664	-0.39
835.834	-0.82
836.004	0.31
836.174	0.54
836.344	0.37
836.514	-0.84
836.684	-0.44
836.853	-0.14
837.023	-0.12
837.193	-0.25
837.363	0.01
837.532	0.84
837.702	-0.32
837.872	-0.47
838.041	0.86
838.211	0.92
838.381	-0.58
838.55	0.48
838.72	2.04
838.89	1.24
839.059	0
839.229	-1.03
839.398	0.72
839.568	0.08
839.738	0.76
839.907	1.07
840.077	0.7
840.246	-0.42
840.416	-0.21
840.585	-1.44
840.755	1.13
840.924	1.03
841.093	-1.18
841.263	0.59
841.432	0.21
841.602	-0.99
841.771	-0.04
841.94	-0.26
842.11	1.67
842.279	1.27
842.448	-0.5
842.617	-0.55
842.787	1.29
842.956	-0.14
843.125	0.16
843.294	0.59
843.464	0.31
843.633	-0.15
843.802	-0.64
843.971	0.29
844.14	1.04
844.309	0.58
844.479	-0.76
844.648	-0.34
844.817	-0.57
844.986	-0.07
845.155	-0.78
845.324	-0.36
845.493	-0.42
845.662	-1.05
845.831	-0.07
846	0.24
846.169	-0.7
846.338	1.41
846.507	0.31
846.676	0.32
846.844	-0.8
847.013	1.06
847.182	-0.15
847.351	-0.61
847.52	0.2
847.689	0.44
847.858	-0.15
848.026	-0.32
848.195	-0.13
848.364	-0.23
848.533	-0.99
848.701	-0.93
848.87	-0.03
849.039	0.32
849.207	1.09
849.376	0.34
849.545	0.39
849.713	-0.84
849.882	-0.12
850.051	0.37
850.219	0.73
850.388	0.28
850.556	-0.93
850.725	-0.42
850.893	-0.37
851.062	-0.88
851.23	-0.14
851.399	-1.23
851.567	-1.36
851.736	-0.77
851.904	-1.63
852.073	-0.05
852.241	1.7
852.41	-0.12
852.578	0.07
852.746	-0.16
852.915	-0.58
853.083	0.47
853.251	-0.56
853.42	-0.6
853.588	-1.34
853.756	0.65
853.924	-0.84
854.093	-0.39
854.261	-0.71
854.429	-1.67
854.597	0.31
854.765	-1.75
854.934	0.58
855.102	1.31
855.27	-0.97
855.438	1.16
855.606	1.19
855.774	1.86
855.942	-1.4
856.11	-1.21
856.278	-0.52
856.446	0.1
856.614	0.69
856.782	-0.15
856.95	1.81
857.118	0.6
857.286	0.47
857.454	-0.61
857.622	1.12
857.79	1.55
857.958	-1.11
858.126	-0.68
858.294	-2.69
858.462	0.6
858.629	-0.48
858.797	-0.62
858.965	0.68
859.133	0.24
859.301	-0.01
859.468	0.11
859.636	-0.48
859.804	0.62
859.971	0.77
860.139	-0.68
860.307	-0.16
860.474	0.4
860.642	-1.3
860.81	-0.89
860.977	-0.31
861.145	0.61
861.313	-1.57
861.48	0.56
861.648	1.63
861.815	0.82
861.983	-1.64
862.15	-0.99
862.318	0.39
862.485	1.42
862.653	-1.23
862.82	-0.45
862.988	1.94
863.155	-0.58
863.322	-1.35
863.49	-0.78
863.657	-1.08
863.824	1.21
863.992	0.63
864.159	0.59
864.326	2.3
864.494	-0.79
864.661	1.47
864.828	-1.71
864.996	1.62
865.163	2.4
865.33	-0.24
865.497	-2.1
865.664	-1.09
865.832	-1.65
865.999	-0.86
866.166	-1.39
866.333	0.48
866.5	-1.44
866.667	0.59
866.834	0.01
867.001	0.3
867.168	-1.22
867.335	0.71
867.502	-1.75
867.669	-0.65
867.836	2.34
868.003	-0.62
868.17	0.55
868.337	2.86
868.504	1.64
868.671	-1.01
868.838	-0.92
869.005	-0.06
869.172	0.39
869.339	-0.09
869.505	-0.2
869.672	-0.51
869.839	-0.63
870.006	-0.5
870.173	-1.94
870.339	0.08
870.506	3.14
870.673	-1.36
870.84	-0.11
871.006	0.24
871.173	0.99
871.34	-0.32
871.506	-1.6
871.673	0.58
871.839	-2.6
872.006	-0.57
872.173	-1.04
872.339	0.13
872.506	1.14
872.672	0.75
872.839	-1.4
873.005	0.5
873.172	3.45
873.338	2.92
873.505	-0.23
873.671	0.56
873.838	0.08
874.004	-1.14
874.171	-1.38
874.337	1.25
874.503	0.07
874.67	-1
874.836	0.76
875.002	1.5
875.169	0.64
875.335	0
875.501	-2.89
875.668	0.44
875.834	1.19
876	-1.51
876.166	0.75
876.332	2.01
876.499	2.92
876.665	0.27
876.831	-0.62
876.997	3.64
877.163	2.28
877.329	-0.4
877.495	0.91
877.662	2.33
877.828	-0.18
877.994	-1.18
878.16	-2.79
878.326	-0.24
878.492	-0.24
878.658	-0.02
878.824	1.54
878.99	2.16
879.156	-0.97
879.322	1.83
879.487	0.73
879.653	0.15
879.819	0.35
879.985	-0.76
880.151	1.18
880.317	0.36
880.483	1.16
880.648	0.06
880.814	-2.71
880.98	1.54
881.146	-1.56
881.312	-0.66
881.477	-2.48
881.643	0.53
881.809	1.77
881.974	0.85
882.14	-3.4
882.306	0.04
882.471	1.66
882.637	0.13
882.803	1.78
882.968	3.16
883.134	4.25
883.299	-1.27
883.465	0.99
883.63	2.5
883.796	1.06
883.961	0.98
884.127	0.8
884.292	-3.3
884.458	-3.14
884.623	-3.13
