Data from Apollo_Calib_20240827__AbsoluteIrradiance__302__04-11-01-674.txt Node

Date: Wed Aug 28 04:11:01 BST 2024
User: biology
Spectrometer: FLMT08252
Trigger mode: 0
Integration Time (sec): 5.000000E-1
Scans to average: 5
Electric dark correction enabled: true
Nonlinearity correction enabled: false
Boxcar width: 0
XAxis mode: Wavelengths
Number of Pixels in Spectrum: 3648
>>>>>Begin Spectral Data<<<<<
179.588	-0
179.809	-0
180.03	-0
180.251	-0
180.473	-0
180.694	0
180.915	0
181.136	-0
181.357	0
181.578	-0
181.799	-0
182.02	-0
182.241	-0
182.462	-0
182.683	0
182.904	-0
183.125	-0
183.346	0
183.567	-0
183.788	-0
184.009	-0
184.23	-0
184.451	0
184.672	-0
184.892	-0
185.113	0
185.334	0
185.555	-0
185.776	-0
185.996	0
186.217	-0
186.438	0
186.659	-0
186.879	0
187.1	0
187.321	-0
187.541	-0
187.762	0
187.983	-0
188.203	-0
188.424	-0
188.644	-0
188.865	0
189.086	-0
189.306	-0
189.527	-0
189.747	-0
189.968	-0
190.188	-0
190.409	-0
190.629	0
190.849	-0
191.07	-0
191.29	0
191.511	-0
191.731	-0
191.951	-0
192.172	0
192.392	-0
192.612	-0
192.833	-0
193.053	0
193.273	-0
193.493	-0
193.714	-0
193.934	0
194.154	0
194.374	-0
194.594	-0
194.815	-0
195.035	-0
195.255	-0
195.475	-0
195.695	0
195.915	0
196.135	-0
196.355	0
196.575	0
196.795	0
197.015	-0
197.235	-0
197.455	-0
197.675	0
197.895	-0
198.115	-0
198.335	0
198.555	-0
198.775	-0
198.995	-0
199.214	0
199.434	-0
199.654	-0
199.874	-0
200.094	0.81
200.313	-0.67
200.533	-0.77
200.753	-1.01
200.973	0.89
201.192	0.39
201.412	-1.11
201.632	-0.21
201.851	0.34
202.071	-0.69
202.291	-0.45
202.51	-0.91
202.73	0.16
202.95	-0.72
203.169	-1.17
203.389	-0.44
203.608	0.09
203.828	-0.82
204.047	-0.79
204.267	0.21
204.486	0.38
204.706	-0.02
204.925	-0.05
205.145	-0.57
205.364	0.15
205.583	0.45
205.803	-0.51
206.022	-0.51
206.242	-0.14
206.461	-0.24
206.68	-0.51
206.9	-0.05
207.119	0.33
207.338	0.42
207.557	-0.48
207.777	-0.25
207.996	-0.38
208.215	0.42
208.434	-0.47
208.654	-0.42
208.873	-0.27
209.092	0.31
209.311	-0.21
209.53	-0.5
209.749	-0.29
209.968	-0.43
210.187	-0.34
210.407	-0.66
210.626	-0.32
210.845	0.2
211.064	-0.17
211.283	-0.46
211.502	-0.04
211.721	0.01
211.94	-0.14
212.159	0.11
212.377	0.07
212.596	0.19
212.815	-0.06
213.034	0.04
213.253	0.04
213.472	0.15
213.691	-0.36
213.91	-0.41
214.128	-0.39
214.347	0.18
214.566	-0.65
214.785	-0.46
215.003	0.12
215.222	0.07
215.441	-0.17
215.66	-0.38
215.878	-0.09
216.097	0.01
216.316	-0.43
216.534	-0.15
216.753	0.02
216.972	-0.11
217.19	-0.09
217.409	-0.25
217.627	-0.34
217.846	-0.23
218.064	-0.08
218.283	-0.23
218.501	0.31
218.72	0.13
218.938	-0.26
219.157	-0.3
219.375	0.04
219.594	0.15
219.812	-0.24
220.031	-0.31
220.249	0.28
220.467	0.19
220.686	-0.15
220.904	-0.2
221.122	-0.22
221.341	0.18
221.559	-0.01
221.777	-0.28
221.995	-0.13
222.214	0.01
222.432	-0.29
222.65	0.14
222.868	0.02
223.086	-0.11
223.305	0.02
223.523	-0.18
223.741	0.28
223.959	-0.2
224.177	-0.27
224.395	-0.14
224.613	0.03
224.831	0.04
225.049	-0.21
225.267	-0.14
225.485	-0.11
225.703	-0.16
225.921	-0.14
226.139	-0.23
226.357	-0.07
226.575	0.06
226.793	-0.14
227.011	0.45
227.229	-0.08
227.447	0.2
227.665	-0.17
227.883	-0.32
228.1	-0.07
228.318	0.02
228.536	-0.47
228.754	-0.24
228.972	-0.01
229.189	0.03
229.407	-0.02
229.625	-0.23
229.843	0.21
230.06	0.09
230.278	-0.23
230.496	0
230.713	0.02
230.931	0.08
231.149	-0.13
231.366	-0.24
231.584	-0.02
231.801	0.31
232.019	-0.14
232.236	-0.22
232.454	-0.22
232.671	0
232.889	-0.05
233.106	-0.1
233.324	-0.05
233.541	-0.07
233.759	-0.1
233.976	-0.19
234.194	-0.03
234.411	-0.01
234.628	-0.09
234.846	-0.14
235.063	-0.03
235.28	-0.1
235.498	-0.07
235.715	-0.17
235.932	0.08
236.149	0.03
236.367	-0.25
236.584	0.03
236.801	-0.11
237.018	0.04
237.236	-0.11
237.453	-0.19
237.67	0.13
237.887	-0.09
238.104	-0.17
238.321	-0.16
238.538	-0.13
238.755	0.06
238.973	-0.32
239.19	-0.01
239.407	-0.06
239.624	0.06
239.841	-0.18
240.058	-0.11
240.275	-0.02
240.492	-0.15
240.709	-0.1
240.925	-0.08
241.142	-0.02
241.359	-0.26
241.576	-0.08
241.793	-0.15
242.01	-0.04
242.227	0.03
242.444	-0.05
242.66	0.02
242.877	-0.11
243.094	-0.13
243.311	-0.07
243.527	-0.1
243.744	0.07
243.961	0.07
244.178	-0.17
244.394	-0.05
244.611	0.09
244.828	0.07
245.044	-0.17
245.261	-0.11
245.477	-0.02
245.694	-0.02
245.911	-0.13
246.127	-0.02
246.344	0.06
246.56	0.02
246.777	-0.02
246.993	-0.03
247.21	-0.04
247.426	0.06
247.643	-0.11
247.859	-0.18
248.076	-0.16
248.292	0.16
248.508	-0.16
248.725	-0.04
248.941	-0.01
249.157	0.15
249.374	-0.11
249.59	-0.07
249.806	-0.01
250.023	0.05
250.239	-0.14
250.455	-0.11
250.671	0.06
250.888	0.01
251.104	-0.01
251.32	-0.13
251.536	-0.05
251.752	-0.07
251.969	-0.05
252.185	-0.06
252.401	0.09
252.617	0.01
252.833	-0.09
253.049	-0.08
253.265	0.04
253.481	0.08
253.697	-0.02
253.913	-0.14
254.129	0
254.345	-0.04
254.561	-0.05
254.777	-0.09
254.993	0.08
255.209	-0.03
255.425	-0.05
255.641	-0.01
255.857	0.05
256.073	0.03
256.288	-0.13
256.504	-0.07
256.72	0.09
256.936	0.09
257.152	-0.06
257.367	-0.07
257.583	-0.03
257.799	0.11
258.015	-0.06
258.23	-0.08
258.446	0.15
258.662	-0.04
258.877	-0.12
259.093	-0.13
259.309	-0.06
259.524	-0.03
259.74	-0.07
259.955	-0.15
260.171	0.06
260.387	-0.02
260.602	-0.02
260.818	0
261.033	-0.11
261.249	-0.07
261.464	-0.1
261.68	-0.12
261.895	0.05
262.11	0
262.326	-0.04
262.541	-0.11
262.757	0.06
262.972	0.03
263.187	-0.02
263.403	-0.03
263.618	0.03
263.833	-0.07
264.049	-0.07
264.264	-0
264.479	0.01
264.694	0.11
264.91	-0.14
265.125	-0.02
265.34	0.01
265.555	0.07
265.77	0.07
265.986	-0.07
266.201	0.02
266.416	0.08
266.631	-0.06
266.846	-0.05
267.061	0.02
267.276	0
267.491	-0.18
267.706	-0.03
267.921	-0
268.136	0.02
268.351	-0.01
268.566	-0.1
268.781	0.03
268.996	0.06
269.211	-0.04
269.426	-0.08
269.641	-0.02
269.856	0.03
270.071	-0.07
270.285	-0.06
270.5	-0
270.715	0.03
270.93	-0.05
271.145	-0.03
271.359	0.01
271.574	-0.06
271.789	-0.05
272.004	-0.02
272.218	-0.02
272.433	0
272.648	-0.1
272.862	0.03
273.077	-0.04
273.292	-0
273.506	-0.08
273.721	-0.07
273.936	0.02
274.15	0.04
274.365	-0.09
274.579	-0.03
274.794	0.04
275.008	0.09
275.223	-0.12
275.437	-0.03
275.652	0.04
275.866	0.04
276.081	-0.06
276.295	-0.02
276.509	-0.01
276.724	0.03
276.938	0
277.153	0
277.367	0.05
277.581	-0.02
277.796	-0.1
278.01	-0.11
278.224	0.08
278.438	0.1
278.653	-0.1
278.867	-0.1
279.081	0.07
279.295	-0.11
279.51	-0.01
279.724	-0.1
279.938	0.03
280.152	-0.01
280.366	-0.1
280.58	-0
280.794	0.12
281.008	0.03
281.222	0.04
281.437	0.05
281.651	-0.06
281.865	0.01
282.079	-0.07
282.293	-0.11
282.507	-0.08
282.721	-0.04
282.935	-0.04
283.148	-0.1
283.362	-0.09
283.576	-0.07
283.79	-0.02
284.004	-0.07
284.218	-0.05
284.432	-0.08
284.646	-0.01
284.859	-0.08
285.073	-0.09
285.287	0.01
285.501	0.02
285.714	0.02
285.928	-0.02
286.142	0.05
286.356	-0.02
286.569	-0.07
286.783	0.08
286.997	0.03
287.21	-0.01
287.424	-0.03
287.637	-0.05
287.851	-0.06
288.065	-0
288.278	-0.01
288.492	0.01
288.705	-0.01
288.919	0.01
289.132	-0.08
289.346	0.08
289.559	-0.09
289.773	-0.09
289.986	-0.05
290.2	-0
290.413	0.08
290.626	-0.02
290.84	-0.09
291.053	-0.04
291.267	0.05
291.48	0.01
291.693	-0.01
291.906	-0.03
292.12	-0.03
292.333	-0.07
292.546	-0.03
292.76	0.05
292.973	0.03
293.186	0.03
293.399	-0.04
293.612	0.05
293.826	-0
294.039	-0.03
294.252	-0.04
294.465	0.01
294.678	0.02
294.891	-0.03
295.104	-0.07
295.317	-0
295.53	0.01
295.743	-0.06
295.956	-0.03
296.169	0.09
296.382	0.02
296.595	-0.03
296.808	-0.06
297.021	0.11
297.234	0.05
297.447	0.01
297.66	0.01
297.873	0.04
298.086	0.03
298.299	-0.05
298.511	-0.06
298.724	-0.03
298.937	-0.07
299.15	-0.02
299.363	0.01
299.575	0.05
299.788	0.01
300.001	-0.04
300.213	-0.07
300.426	0.01
300.639	-0.04
300.852	0
301.064	0.01
301.277	0.04
301.489	0.01
301.702	0.04
301.915	-0.05
302.127	-0.01
302.34	-0
302.552	0.03
302.765	-0.07
302.977	0.05
303.19	-0.06
303.402	0.01
303.615	-0.01
303.827	-0.03
304.04	0.02
304.252	0.02
304.464	-0
304.677	0.11
304.889	0.05
305.102	-0.04
305.314	-0.04
305.526	0.03
305.739	0.02
305.951	-0.03
306.163	-0.03
306.375	0.07
306.588	-0.07
306.8	-0.05
307.012	-0.1
307.224	-0.02
307.436	0.07
307.649	-0.09
307.861	-0
308.073	0.04
308.285	-0.01
308.497	-0.09
308.709	-0.04
308.921	-0.03
309.133	0.03
309.346	-0.06
309.558	-0.01
309.77	0.05
309.982	0.06
310.194	-0.01
310.406	-0.05
310.617	0.06
310.829	0.01
311.041	0.01
311.253	-0.04
311.465	-0.06
311.677	0.01
311.889	-0.07
312.101	-0.05
312.313	0.03
312.524	0.04
312.736	-0.05
312.948	-0.02
313.16	0.09
313.372	0.06
313.583	-0.04
313.795	-0.07
314.007	-0.01
314.218	0.06
314.43	0.03
314.642	-0.07
314.853	-0.09
315.065	0.03
315.277	0.01
315.488	-0
315.7	0.02
315.912	0.02
316.123	-0.02
316.335	-0.05
316.546	0.08
316.758	-0.03
316.969	-0
317.181	0.02
317.392	-0.04
317.604	0.06
317.815	-0.04
318.026	-0.04
318.238	-0.01
318.449	0.01
318.661	-0.07
318.872	-0.06
319.083	-0.05
319.295	0.01
319.506	-0.04
319.717	-0
319.929	0.04
320.14	0.03
320.351	-0.03
320.562	-0.07
320.774	-0.03
320.985	0.01
321.196	-0.03
321.407	-0.1
321.618	0.02
321.829	0.01
322.041	0
322.252	0.01
322.463	-0.01
322.674	0.04
322.885	-0.04
323.096	-0.06
323.307	0.02
323.518	0.01
323.729	-0.09
323.94	-0.01
324.151	-0.05
324.362	0.01
324.573	0.03
324.784	-0.04
324.995	0.06
325.206	0.02
325.417	-0.02
325.628	0
325.838	-0.03
326.049	-0.04
326.26	0.02
326.471	-0.02
326.682	0.02
326.892	-0.04
327.103	-0.1
327.314	-0.03
327.525	0.01
327.735	0.01
327.946	-0.02
328.157	-0.06
328.368	-0.01
328.578	-0.03
328.789	-0.01
328.999	-0.01
329.21	0.01
329.421	0.05
329.631	-0.06
329.842	-0.04
330.052	-0.03
330.263	0.01
330.473	-0.02
330.684	-0.04
330.894	-0.01
331.105	-0.01
331.315	0
331.526	-0.08
331.736	0.06
331.947	0.02
332.157	-0.01
332.367	-0.1
332.578	0.01
332.788	0.03
332.999	0.02
333.209	-0.01
333.419	-0.07
333.629	0.04
333.84	-0.02
334.05	-0.04
334.26	0.07
334.47	0.04
334.681	0.03
334.891	-0.04
335.101	0.02
335.311	0.1
335.521	-0.06
335.732	-0.08
335.942	0.05
336.152	-0.01
336.362	-0
336.572	0
336.782	0.08
336.992	-0.06
337.202	-0.04
337.412	-0.07
337.622	0.02
337.832	-0.03
338.042	0.01
338.252	-0.03
338.462	-0.03
338.672	-0.06
338.882	-0.02
339.092	-0.05
339.302	0.07
339.511	-0
339.721	-0.05
339.931	-0.05
340.141	0.03
340.351	0.05
340.561	0.02
340.77	-0.02
340.98	-0.03
341.19	0.02
341.4	-0.04
341.609	-0.07
341.819	-0.04
342.029	-0.07
342.238	-0.06
342.448	-0.04
342.658	0
342.867	0.04
343.077	-0.01
343.286	-0.02
343.496	-0.01
343.706	0.07
343.915	-0.06
344.125	-0.05
344.334	0.02
344.544	-0.07
344.753	-0.03
344.963	-0.04
345.172	-0.03
345.381	-0.03
345.591	-0.05
345.8	-0.01
346.01	0.04
346.219	0.07
346.428	-0.12
346.638	-0
346.847	0
347.056	0.1
347.266	-0.02
347.475	-0.03
347.684	0.05
347.893	0.04
348.103	0.04
348.312	-0.04
348.521	-0.04
348.73	-0.01
348.94	-0.02
349.149	-0
349.358	-0.02
349.567	-0.05
349.776	-0.05
349.985	0
350.194	0.05
350.403	0.04
350.612	-0.06
350.821	-0.01
351.03	-0.01
351.239	-0.07
351.448	-0.03
351.657	-0.04
351.866	0.1
352.075	-0
352.284	-0.04
352.493	-0.07
352.702	0.06
352.911	0.01
353.12	-0.01
353.329	-0.04
353.538	-0
353.746	-0.02
353.955	-0.05
354.164	-0.02
354.373	-0.02
354.582	-0.02
354.79	-0.01
354.999	0.03
355.208	-0.04
355.416	0.09
355.625	-0.05
355.834	-0.03
356.042	0
356.251	-0.04
356.46	-0.08
356.668	-0.02
356.877	0.09
357.085	0.03
357.294	-0.12
357.503	-0
357.711	-0.04
357.92	0.14
358.128	-0.01
358.337	-0.07
358.545	-0.01
358.754	-0.01
358.962	0.02
359.17	-0.07
359.379	-0.02
359.587	0.03
359.796	-0.01
360.004	0.06
360.212	-0
360.421	0.05
360.629	-0
360.837	-0.05
361.046	0.02
361.254	0.08
361.462	-0.03
361.67	-0.05
361.879	0
362.087	0.08
362.295	-0.02
362.503	-0.06
362.711	-0.04
362.92	-0.02
363.128	-0.02
363.336	-0.04
363.544	-0.07
363.752	-0.04
363.96	-0.02
364.168	-0.04
364.376	-0.02
364.584	0.03
364.792	0.05
365	-0.01
365.208	-0.02
365.416	0.05
365.624	0.04
365.832	-0.03
366.04	0.06
366.248	0.01
366.456	-0
366.664	-0
366.872	-0.03
367.079	0.01
367.287	-0.03
367.495	-0.04
367.703	-0.03
367.911	-0.01
368.118	-0.02
368.326	-0.02
368.534	-0.07
368.742	0.05
368.949	-0.06
369.157	-0.03
369.365	0.04
369.572	-0.01
369.78	-0.03
369.988	0.05
370.195	0.02
370.403	0.06
370.61	-0.04
370.818	-0.04
371.026	0.05
371.233	-0.04
371.441	-0
371.648	-0.06
371.856	-0
372.063	-0.01
372.271	-0.02
372.478	-0.04
372.685	-0.03
372.893	0.04
373.1	-0.05
373.308	-0.05
373.515	0.09
373.722	0.04
373.93	-0.02
374.137	0.02
374.344	0.05
374.552	0.04
374.759	0.03
374.966	-0.03
375.173	-0.04
375.381	0.05
375.588	-0.01
375.795	-0.11
376.002	-0.02
376.209	-0.06
376.417	-0.01
376.624	-0.04
376.831	0.05
377.038	-0.03
377.245	-0.13
377.452	-0.02
377.659	-0.03
377.866	-0.01
378.073	-0.07
378.28	-0.04
378.487	0.04
378.694	0.03
378.901	-0.01
379.108	-0.03
379.315	0.09
379.522	0.06
379.729	-0
379.936	-0.02
380.143	-0.02
380.35	0.01
380.557	-0
380.763	0.01
380.97	-0
381.177	0.02
381.384	0
381.591	-0.05
381.797	0.02
382.004	0.01
382.211	0.03
382.418	0.01
382.624	-0.05
382.831	0.03
383.038	-0.04
383.244	-0.03
383.451	-0.03
383.658	-0
383.864	-0
384.071	-0.08
384.277	0.05
384.484	-0.05
384.69	0.03
384.897	-0.05
385.103	0
385.31	-0.07
385.516	-0
385.723	-0.02
385.929	-0.06
386.136	-0.03
386.342	0.03
386.549	-0.04
386.755	0.04
386.961	0
387.168	-0.04
387.374	-0.03
387.58	0
387.787	0.02
387.993	-0.02
388.199	-0.01
388.406	-0.02
388.612	-0.02
388.818	-0.04
389.024	-0.03
389.231	0.03
389.437	0.06
389.643	0.05
389.849	-0.04
390.055	-0.01
390.261	-0
390.467	-0.01
390.674	-0.07
390.88	-0.03
391.086	-0
391.292	-0.08
391.498	0.03
391.704	0.01
391.91	-0.08
392.116	-0.06
392.322	-0.11
392.528	0.01
392.734	-0.05
392.94	-0.01
393.146	-0.06
393.352	0.02
393.557	-0.09
393.763	0.01
393.969	0.02
394.175	0
394.381	0.02
394.587	-0.04
394.792	-0.03
394.998	0.04
395.204	0.02
395.41	-0.04
395.615	-0.02
395.821	0.01
396.027	-0.01
396.233	-0
396.438	0.01
396.644	0.08
396.85	0.01
397.055	-0.04
397.261	-0.03
397.466	0.11
397.672	-0.01
397.878	0.01
398.083	0.06
398.289	-0.03
398.494	0.02
398.7	0.04
398.905	-0.09
399.111	0.07
399.316	-0.04
399.522	0.02
399.727	-0.03
399.932	-0
400.138	0
400.343	0.06
400.549	0.01
400.754	0
400.959	0.02
401.165	-0.05
401.37	0.02
401.575	0.05
401.78	0.01
401.986	-0.04
402.191	-0.02
402.396	-0
402.601	0.03
402.807	-0.02
403.012	-0.03
403.217	-0.01
403.422	-0.03
403.627	0.02
403.832	-0.02
404.037	0.05
404.243	0
404.448	-0.04
404.653	-0.02
404.858	0.02
405.063	-0.02
405.268	-0.06
405.473	-0.02
405.678	-0.06
405.883	0.12
406.088	-0.02
406.293	-0.05
406.498	-0.03
406.703	0.04
406.907	-0.03
407.112	-0.07
407.317	-0.04
407.522	0.03
407.727	-0.05
407.932	-0.04
408.136	0.03
408.341	0.02
408.546	0.01
408.751	-0
408.956	-0.03
409.16	0.03
409.365	-0.02
409.57	-0.03
409.774	0.01
409.979	-0
410.184	-0.03
410.388	-0.06
410.593	0
410.798	0.03
411.002	-0.05
411.207	0.02
411.411	-0.01
411.616	-0.02
411.82	-0.01
412.025	0.02
412.229	-0.04
412.434	0.07
412.638	0
412.843	-0.01
413.047	-0.03
413.252	-0.05
413.456	-0.08
413.66	0.01
413.865	-0.04
414.069	0.07
414.273	-0.04
414.478	-0.03
414.682	-0.03
414.886	-0.01
415.091	-0.05
415.295	-0.11
415.499	0.01
415.703	-0.03
415.908	0.02
416.112	-0.08
416.316	0.02
416.52	-0.02
416.724	-0.06
416.929	-0.04
417.133	0.06
417.337	-0
417.541	-0.03
417.745	0.01
417.949	0.04
418.153	0.01
418.357	-0.04
418.561	0.07
418.765	-0.06
418.969	0.1
419.173	0.03
419.377	-0.02
419.581	0.07
419.785	0
419.989	-0.08
420.193	-0.03
420.397	-0.02
420.601	0.12
420.804	0.01
421.008	0
421.212	0.05
421.416	0.03
421.62	-0.02
421.823	0.03
422.027	0.07
422.231	0.01
422.435	-0
422.638	0.03
422.842	-0.01
423.046	-0.02
423.249	0.06
423.453	0.04
423.657	0.05
423.86	0.04
424.064	0.02
424.268	0.09
424.471	0.02
424.675	0.09
424.878	0.09
425.082	0.02
425.285	0.07
425.489	0.05
425.692	0.01
425.896	-0.02
426.099	0.07
426.303	-0.01
426.506	-0.03
426.71	0.09
426.913	0.16
427.116	0.1
427.32	0.03
427.523	0.05
427.726	0.12
427.93	0.01
428.133	0.01
428.336	-0.01
428.54	-0.01
428.743	0.09
428.946	0.11
429.149	0.07
429.353	0.08
429.556	0.04
429.759	0.04
429.962	0
430.165	0.1
430.368	0.03
430.571	-0
430.775	0.06
430.978	0.09
431.181	0.07
431.384	0.06
431.587	0.03
431.79	0.07
431.993	0.07
432.196	0.06
432.399	0.05
432.602	0.16
432.805	0.1
433.008	0.11
433.211	0.04
433.414	0.1
433.616	0.17
433.819	0.11
434.022	0.05
434.225	0.2
434.428	0.16
434.631	0.24
434.833	0.07
435.036	0.06
435.239	0.16
435.442	0.1
435.645	0.11
435.847	0.1
436.05	0.22
436.253	0.14
436.455	0.1
436.658	0.14
436.861	0.21
437.063	0.11
437.266	0.12
437.468	0.2
437.671	0.28
437.874	0.18
438.076	0.11
438.279	0.09
438.481	0.13
438.684	0.16
438.886	0.19
439.089	0.12
439.291	0.19
439.494	0.22
439.696	0.15
439.899	0.18
440.101	0.22
440.303	0.17
440.506	0.31
440.708	0.23
440.91	0.27
441.113	0.17
441.315	0.27
441.517	0.22
441.72	0.31
441.922	0.24
442.124	0.27
442.326	0.29
442.529	0.38
442.731	0.28
442.933	0.4
443.135	0.27
443.337	0.26
443.539	0.32
443.742	0.31
443.944	0.36
444.146	0.32
444.348	0.37
444.55	0.32
444.752	0.39
444.954	0.33
445.156	0.38
445.358	0.37
445.56	0.46
445.762	0.35
445.964	0.38
446.166	0.38
446.368	0.39
446.57	0.5
446.772	0.41
446.974	0.37
447.175	0.46
447.377	0.41
447.579	0.44
447.781	0.4
447.983	0.53
448.184	0.38
448.386	0.43
448.588	0.38
448.79	0.4
448.991	0.41
449.193	0.42
449.395	0.42
449.597	0.47
449.798	0.49
450	0.46
450.202	0.43
450.403	0.41
450.605	0.47
450.806	0.37
451.008	0.35
451.21	0.38
451.411	0.39
451.613	0.33
451.814	0.37
452.016	0.43
452.217	0.33
452.419	0.38
452.62	0.31
452.821	0.39
453.023	0.38
453.224	0.36
453.426	0.29
453.627	0.32
453.828	0.32
454.03	0.24
454.231	0.32
454.432	0.24
454.634	0.35
454.835	0.27
455.036	0.17
455.238	0.3
455.439	0.29
455.64	0.16
455.841	0.23
456.042	0.29
456.244	0.27
456.445	0.19
456.646	0.11
456.847	0.2
457.048	0.24
457.249	0.22
457.45	0.46
457.651	0.12
457.852	0.19
458.054	0.2
458.255	0.12
458.456	0.16
458.657	0.12
458.858	0.08
459.058	0.14
459.259	0.19
459.46	0.14
459.661	0.1
459.862	0.27
460.063	0.12
460.264	0.17
460.465	0.09
460.666	0.22
460.866	0.11
461.067	0.1
461.268	0.13
461.469	0.1
461.67	0.08
461.87	0.09
462.071	0.09
462.272	0.09
462.473	0.11
462.673	0.15
462.874	0.09
463.075	0.1
463.275	0.03
463.476	0.14
463.676	0.1
463.877	0.14
464.078	0.08
464.278	0.13
464.479	0.07
464.679	0.07
464.88	0.1
465.08	0.16
465.281	0.06
465.481	0.07
465.682	0.05
465.882	0.12
466.083	0.11
466.283	0.05
466.483	0.03
466.684	0.01
466.884	0.06
467.085	0.05
467.285	0.1
467.485	0
467.686	0.05
467.886	0
468.086	0.03
468.286	0.07
468.487	0.07
468.687	-0.03
468.887	0.01
469.087	0.08
469.287	0.04
469.488	-0.04
469.688	0.09
469.888	0.07
470.088	0.06
470.288	0.07
470.488	0.12
470.688	-0.03
470.888	-0
471.088	0
471.288	0.09
471.488	0.02
471.688	0.05
471.888	0.01
472.088	0.06
472.288	0.07
472.488	0
472.688	-0.01
472.888	0.06
473.088	0.06
473.288	0.05
473.488	0.02
473.688	0.08
473.887	0.05
474.087	0.02
474.287	0.03
474.487	-0.01
474.687	0.05
474.886	0.03
475.086	0.01
475.286	0.06
475.486	0.04
475.685	-0.01
475.885	-0.01
476.085	-0.05
476.284	0.05
476.484	0.02
476.684	0.01
476.883	0.08
477.083	0.01
477.282	0
477.482	0.09
477.681	0.04
477.881	0.03
478.08	0
478.28	-0.01
478.479	0.06
478.679	0.09
478.878	-0.04
479.078	-0.01
479.277	-0.02
479.477	0.01
479.676	0.02
479.875	0.01
480.075	-0.07
480.274	0.05
480.473	0.03
480.673	-0.02
480.872	0.03
481.071	0
481.271	0.03
481.47	-0.03
481.669	-0.01
481.868	-0.01
482.067	-0.03
482.267	-0.03
482.466	-0.01
482.665	-0.04
482.864	-0.02
483.063	-0.06
483.262	0.04
483.461	0.06
483.661	0.04
483.86	-0.02
484.059	0.01
484.258	0.02
484.457	-0.01
484.656	-0
484.855	0.03
485.054	-0.06
485.253	-0.03
485.452	-0.05
485.651	0
485.849	0.02
486.048	-0.02
486.247	-0.04
486.446	0.01
486.645	-0.04
486.844	-0.05
487.043	0
487.241	-0
487.44	-0.01
487.639	-0.02
487.838	0.02
488.037	0
488.235	0.07
488.434	-0
488.633	-0.04
488.831	-0
489.03	0.01
489.229	0.02
489.427	-0.02
489.626	0.05
489.825	0.06
490.023	-0.02
490.222	-0.05
490.42	0.02
490.619	0.03
490.817	0.01
491.016	-0.03
491.214	0.01
491.413	-0.02
491.611	-0
491.81	-0
492.008	-0.01
492.207	0.03
492.405	-0.01
492.604	-0.06
492.802	-0.02
493	0
493.199	0
493.397	0.01
493.595	0.01
493.794	-0.01
493.992	0.03
494.19	-0
494.388	0.02
494.587	-0.02
494.785	0.01
494.983	-0.05
495.181	0
495.379	-0.01
495.578	0
495.776	-0
495.974	-0.01
496.172	-0
496.37	-0.03
496.568	-0.04
496.766	-0.02
496.964	0.03
497.162	0.01
497.36	-0.04
497.558	0.01
497.756	0.01
497.954	-0.01
498.152	-0.03
498.35	0.01
498.548	0.01
498.746	0.02
498.944	-0.01
499.142	-0.02
499.34	-0.03
499.538	-0.01
499.736	-0.03
499.933	0.02
500.131	0.03
500.329	0.02
500.527	0.03
500.725	0.04
500.922	0.03
501.12	0
501.318	0.01
501.516	-0.05
501.713	-0
501.911	-0.02
502.109	-0.06
502.306	0
502.504	-0.01
502.701	-0.02
502.899	0
503.097	0.04
503.294	-0.01
503.492	-0.01
503.689	0.02
503.887	0.01
504.084	0.04
504.282	0
504.479	-0.02
504.677	-0
504.874	-0.04
505.072	-0.02
505.269	0
505.466	0.02
505.664	0.01
505.861	-0.02
506.059	-0.03
506.256	0.01
506.453	-0.03
506.651	0.03
506.848	0.02
507.045	-0
507.242	-0.01
507.44	-0.02
507.637	-0.02
507.834	-0.01
508.031	0.02
508.229	-0.01
508.426	-0.01
508.623	-0.01
508.82	-0.03
509.017	-0.01
509.214	0
509.411	-0
509.608	-0.03
509.805	-0.02
510.003	-0.02
510.2	-0.03
510.397	0.01
510.594	-0.03
510.791	-0.04
510.988	-0.01
511.184	0.02
511.381	-0.02
511.578	-0.03
511.775	0.04
511.972	-0.01
512.169	0
512.366	-0.02
512.563	0.01
512.76	-0.02
512.956	-0.01
513.153	-0.01
513.35	-0.01
513.547	-0.03
513.744	-0.03
513.94	-0.03
514.137	0.01
514.334	0.03
514.53	-0.01
514.727	0
514.924	0.04
515.12	-0
515.317	-0.05
515.514	-0.03
515.71	-0.04
515.907	0
516.103	-0.01
516.3	0.02
516.497	0.01
516.693	0.02
516.89	-0.01
517.086	-0.02
517.283	0.04
517.479	-0.01
517.676	-0.01
517.872	-0.03
518.068	-0.03
518.265	-0.03
518.461	-0.04
518.658	-0.05
518.854	0.01
519.05	-0.02
519.247	-0.02
519.443	0.01
519.639	-0.01
519.836	-0
520.032	-0.01
520.228	-0
520.424	-0.03
520.621	0.01
520.817	0
521.013	0
521.209	0.01
521.405	0.03
521.601	0.01
521.798	0
521.994	-0.01
522.19	-0.04
522.386	-0.05
522.582	-0
522.778	-0.01
522.974	-0.02
523.17	-0.02
523.366	0
523.562	0.02
523.758	-0
523.954	-0.03
524.15	-0.01
524.346	0.01
524.542	-0.01
524.738	-0.05
524.934	0
525.129	-0.01
525.325	-0.01
525.521	0
525.717	0.01
525.913	-0
526.109	-0.02
526.304	-0.01
526.5	-0.01
526.696	0.01
526.892	-0.01
527.087	-0.01
527.283	-0.04
527.479	0
527.674	-0.02
527.87	-0
528.066	-0.02
528.261	0.03
528.457	0.01
528.653	-0.03
528.848	-0.01
529.044	-0.02
529.239	-0.02
529.435	0.02
529.63	0.01
529.826	0.03
530.021	0.04
530.217	0.01
530.412	-0.01
530.608	-0.01
530.803	0.02
530.999	-0.03
531.194	-0.04
531.389	0.01
531.585	-0.06
531.78	-0.01
531.975	-0.02
532.171	0.02
532.366	-0.01
532.561	-0.02
532.757	-0.01
532.952	-0.02
533.147	0.01
533.342	-0.01
533.538	-0.03
533.733	0
533.928	-0.01
534.123	-0.01
534.318	-0.05
534.513	-0.02
534.709	-0
534.904	-0.04
535.099	-0.03
535.294	-0.02
535.489	0.01
535.684	-0.02
535.879	-0.05
536.074	-0
536.269	-0.03
536.464	0
536.659	-0.04
536.854	-0
537.049	0.02
537.244	-0.02
537.439	-0.01
537.634	0.04
537.828	0.02
538.023	-0.01
538.218	-0.04
538.413	-0
538.608	-0.05
538.803	0.01
538.997	-0.03
539.192	0.03
539.387	0.01
539.582	-0.02
539.776	-0.02
539.971	-0.03
540.166	-0.01
540.36	-0.03
540.555	-0.02
540.75	-0.02
540.944	0
541.139	-0.04
541.334	-0.02
541.528	0
541.723	0.02
541.917	-0.01
542.112	-0.05
542.306	-0
542.501	-0.01
542.695	0.01
542.89	-0.04
543.084	-0
543.279	-0.02
543.473	-0
543.668	-0.01
543.862	0.01
544.056	0
544.251	-0
544.445	-0.01
544.64	-0.01
544.834	-0.02
545.028	-0.01
545.222	0
545.417	0.02
545.611	-0.01
545.805	-0
546	-0.03
546.194	-0.03
546.388	-0.02
546.582	0
546.776	0.01
546.97	-0
547.165	0.02
547.359	0.02
547.553	-0.03
547.747	0.02
547.941	-0
548.135	-0.02
548.329	0.01
548.523	0.02
548.717	0
548.911	-0.02
549.105	-0.01
549.299	-0
549.493	0.01
549.687	0.02
549.881	-0.02
550.075	0.01
550.269	-0.03
550.463	-0
550.657	-0.03
550.85	0
551.044	-0.02
551.238	0.01
551.432	-0.02
551.626	-0.05
551.82	0.02
552.013	-0.03
552.207	0
552.401	0.01
552.594	-0
552.788	-0.03
552.982	-0.01
553.176	-0.03
553.369	-0.01
553.563	0
553.756	-0.04
553.95	-0.04
554.144	0.01
554.337	0.03
554.531	0
554.724	-0.01
554.918	-0.02
555.111	0.02
555.305	-0.02
555.498	0.06
555.692	0.02
555.885	-0.03
556.079	0.01
556.272	-0.01
556.466	0.02
556.659	0
556.852	-0.01
557.046	-0.03
557.239	0.01
557.432	-0.03
557.626	-0.05
557.819	0
558.012	0.01
558.206	0.01
558.399	0.01
558.592	0.01
558.785	-0.03
558.979	0.02
559.172	0.03
559.365	0.02
559.558	0.01
559.751	-0.02
559.944	-0
560.138	-0.06
560.331	-0
560.524	-0.03
560.717	-0
560.91	-0.01
561.103	0.01
561.296	-0.03
561.489	-0
561.682	-0.01
561.875	0.02
562.068	0
562.261	0.01
562.454	0.03
562.647	0.02
562.84	-0
563.032	-0.03
563.225	0.02
563.418	-0
563.611	-0.04
563.804	-0.01
563.997	-0.02
564.19	-0.02
564.382	-0
564.575	-0.01
564.768	-0.01
564.961	-0.02
565.153	-0.05
565.346	0
565.539	0.01
565.731	0.02
565.924	0.03
566.117	0.01
566.309	-0.02
566.502	-0.02
566.695	-0.02
566.887	0.01
567.08	-0.02
567.272	-0.03
567.465	-0.03
567.657	-0.02
567.85	-0
568.042	-0.01
568.235	-0
568.427	-0.01
568.62	-0.02
568.812	0.03
569.005	-0.01
569.197	-0.04
569.389	-0
569.582	0
569.774	0
569.966	-0.03
570.159	-0.04
570.351	-0.01
570.543	-0.02
570.736	-0.01
570.928	-0.03
571.12	0.01
571.312	-0.03
571.505	-0.03
571.697	0.03
571.889	-0.04
572.081	-0
572.273	-0.03
572.465	0.04
572.658	-0.01
572.85	-0.02
573.042	-0.01
573.234	-0
573.426	0.05
573.618	-0.04
573.81	-0.03
574.002	0.02
574.194	0.03
574.386	-0.05
574.578	-0.09
574.77	-0.03
574.962	-0.03
575.154	-0.05
575.346	-0.02
575.538	0.02
575.729	-0.03
575.921	-0.04
576.113	-0.03
576.305	0.02
576.497	-0
576.689	-0.01
576.88	-0.01
577.072	0.02
577.264	-0.02
577.456	-0.01
577.647	-0.09
577.839	-0.01
578.031	0.04
578.223	-0.05
578.414	-0.03
578.606	0
578.798	0
578.989	-0.03
579.181	-0.01
579.372	-0.01
579.564	-0.02
579.755	-0.01
579.947	-0.01
580.139	0.03
580.33	-0.06
580.522	-0.03
580.713	-0.08
580.905	-0.02
581.096	0.03
581.287	0.02
581.479	-0
581.67	0.04
581.862	-0.01
582.053	-0.02
582.244	-0.05
582.436	-0.04
582.627	0.01
582.818	-0.04
583.01	-0.04
583.201	-0.01
583.392	0.01
583.583	-0
583.775	-0.01
583.966	-0.05
584.157	-0.01
584.348	-0.03
584.54	-0.06
584.731	0
584.922	-0.02
585.113	-0.03
585.304	0.01
585.495	0.02
585.686	-0.01
585.877	0.01
586.068	-0.01
586.259	-0.01
586.45	0
586.641	-0.04
586.832	-0.07
587.023	-0
587.214	-0.01
587.405	-0.01
587.596	-0.05
587.787	0.02
587.978	-0.02
588.169	-0.06
588.36	-0.02
588.551	0.01
588.742	-0.04
588.932	-0.02
589.123	-0.02
589.314	0.03
589.505	0.02
589.696	-0.04
589.886	-0.04
590.077	-0.04
590.268	-0.01
590.458	-0.07
590.649	-0.05
590.84	0.03
591.03	-0.02
591.221	-0.05
591.412	-0.05
591.602	0.03
591.793	0.03
591.984	-0.05
592.174	-0.02
592.365	0.07
592.555	-0.06
592.746	-0
592.936	0.01
593.127	0.01
593.317	0.02
593.508	-0.03
593.698	-0.03
593.889	-0.01
594.079	0.01
594.269	-0.04
594.46	-0.05
594.65	-0.02
594.84	-0.01
595.031	-0.05
595.221	-0.02
595.411	-0.03
595.602	0.01
595.792	-0.01
595.982	-0.04
596.172	0.04
596.363	-0
596.553	-0.01
596.743	-0
596.933	0.02
597.123	0.03
597.314	-0.02
597.504	-0.03
597.694	0.01
597.884	0.02
598.074	-0.03
598.264	-0.06
598.454	0.01
598.644	0.02
598.834	-0.04
599.024	-0.08
599.214	-0.02
599.404	0.02
599.594	-0.03
599.784	-0.02
599.974	0.03
600.164	0.03
600.354	-0.06
600.544	-0.06
600.734	-0.02
600.924	0.02
601.114	-0.04
601.303	-0
601.493	-0.01
601.683	0
601.873	-0.01
602.063	-0.07
602.252	0.03
602.442	-0.09
602.632	-0.04
602.821	-0.02
603.011	0.03
603.201	-0.02
603.39	-0.02
603.58	-0.03
603.77	-0
603.959	0.04
604.149	-0.01
604.339	-0.04
604.528	-0.01
604.718	0.03
604.907	-0.05
605.097	-0.02
605.286	-0.03
605.476	-0.02
605.665	0.02
605.855	-0.03
606.044	0.04
606.234	0.02
606.423	-0.02
606.612	-0.05
606.802	-0.01
606.991	0.02
607.181	-0.02
607.37	-0.07
607.559	-0.05
607.749	-0.06
607.938	-0.02
608.127	-0.04
608.316	-0.03
608.506	0.02
608.695	-0.01
608.884	-0.04
609.073	-0.01
609.263	-0.01
609.452	-0.02
609.641	-0.02
609.83	-0.05
610.019	0.03
610.208	-0.05
610.397	-0.03
610.586	0.01
610.775	-0.02
610.965	-0.01
611.154	-0.04
611.343	0
611.532	-0.01
611.721	-0.05
611.91	-0.01
612.099	0.02
612.287	-0.03
612.476	-0.04
612.665	0.01
612.854	-0.05
613.043	0.04
613.232	-0.04
613.421	-0.05
613.61	-0.02
613.798	-0.04
613.987	0.02
614.176	-0.04
614.365	-0
614.554	-0
614.742	-0
614.931	-0.03
615.12	0.05
615.309	-0
615.497	0.01
615.686	-0.05
615.875	-0.02
616.063	-0
616.252	-0.04
616.44	-0.03
616.629	-0.02
616.818	0.02
617.006	-0.01
617.195	-0.04
617.383	0.03
617.572	-0.01
617.76	-0.05
617.949	-0.05
618.137	0
618.326	0.06
618.514	-0.03
618.703	-0.04
618.891	0.06
619.079	-0.09
619.268	-0.01
619.456	-0.03
619.644	0.02
619.833	0
620.021	-0.06
620.209	-0.06
620.398	0.01
620.586	-0.03
620.774	-0.01
620.962	-0.02
621.151	0.03
621.339	-0.01
621.527	-0.05
621.715	-0.04
621.903	-0.06
622.092	-0.09
622.28	0.01
622.468	-0.02
622.656	-0.03
622.844	0.04
623.032	-0.04
623.22	-0.06
623.408	0.02
623.596	0.02
623.784	0.02
623.972	-0.06
624.16	-0.03
624.348	0.02
624.536	-0.06
624.724	-0.04
624.912	0.03
625.1	0.01
625.288	-0.02
625.476	-0.01
625.664	-0.01
625.851	-0.05
626.039	-0.04
626.227	-0.02
626.415	0.02
626.603	-0.09
626.79	-0.03
626.978	-0.02
627.166	-0
627.354	-0.04
627.541	-0.05
627.729	-0.08
627.917	0.05
628.104	-0
628.292	0
628.48	-0.02
628.667	-0.01
628.855	-0
629.042	0.02
629.23	-0.04
629.418	-0.02
629.605	-0.06
629.793	-0.03
629.98	-0.04
630.168	-0.02
630.355	-0.02
630.543	-0.02
630.73	-0.05
630.917	0.02
631.105	0.04
631.292	-0.04
631.48	-0.02
631.667	0.05
631.854	-0.01
632.042	-0.03
632.229	-0.08
632.416	-0.01
632.604	-0.01
632.791	-0.04
632.978	0.02
633.165	-0
633.353	0.06
633.54	0.01
633.727	-0.07
633.914	-0.02
634.101	-0.08
634.289	0.03
634.476	-0.08
634.663	-0.05
634.85	-0
635.037	-0.04
635.224	-0.06
635.411	0.01
635.598	0.01
635.785	-0.02
635.972	-0.04
636.159	0.03
636.346	-0.04
636.533	-0.01
636.72	-0.03
636.907	-0.03
637.094	0.02
637.281	-0.03
637.468	0.01
637.655	-0.04
637.842	0.03
638.029	-0.01
638.215	0.01
638.402	0
638.589	-0.04
638.776	-0.04
638.963	-0.06
639.149	0.04
639.336	0.04
639.523	-0.04
639.709	-0.04
639.896	-0.05
640.083	0.03
640.27	-0
640.456	-0.06
640.643	0
640.829	-0.04
641.016	-0.04
641.203	-0.05
641.389	-0.01
641.576	0.01
641.762	0
641.949	-0.05
642.135	0.01
642.322	-0.03
642.508	-0.05
642.695	-0.01
642.881	-0.04
643.068	-0.02
643.254	-0.01
643.441	0.03
643.627	-0.01
643.813	-0.07
644	0.04
644.186	-0.08
644.372	0.02
644.559	0.01
644.745	-0.05
644.931	-0.06
645.118	-0.04
645.304	-0
645.49	-0.05
645.676	-0.03
645.862	0.01
646.049	0.02
646.235	-0.03
646.421	0.06
646.607	0.06
646.793	-0.06
646.979	-0.03
647.165	-0.01
647.352	-0.01
647.538	-0.01
647.724	-0.03
647.91	-0.03
648.096	0
648.282	-0.02
648.468	-0
648.654	-0.03
648.84	0.02
649.026	-0.06
649.212	-0.02
649.397	-0.04
649.583	-0.07
649.769	0.03
649.955	-0.01
650.141	-0.02
650.327	0.06
650.513	-0.03
650.698	0.01
650.884	-0.08
651.07	-0.01
651.256	-0
651.442	-0.03
651.627	-0.03
651.813	-0.01
651.999	-0.01
652.184	-0.01
652.37	-0.06
652.556	-0.05
652.741	0.05
652.927	-0.09
653.113	-0.02
653.298	-0.02
653.484	-0
653.669	-0.06
653.855	-0.02
654.04	-0.02
654.226	-0.02
654.412	-0.03
654.597	-0.07
654.782	0.03
654.968	0.05
655.153	-0.01
655.339	-0.04
655.524	-0.06
655.71	0.01
655.895	-0.03
656.08	-0.04
656.266	0.04
656.451	-0.04
656.636	-0.04
656.822	-0.01
657.007	-0.07
657.192	-0.02
657.378	-0.08
657.563	-0.03
657.748	0.02
657.933	-0.02
658.118	-0.05
658.304	-0.04
658.489	0.03
658.674	-0.01
658.859	-0.04
659.044	0.02
659.229	-0.01
659.414	-0.07
659.599	-0.02
659.785	-0.05
659.97	-0.05
660.155	0.01
660.34	-0.04
660.525	-0.04
660.71	-0.01
660.895	0.03
661.08	-0.06
661.264	-0.02
661.449	0
661.634	0.04
661.819	-0.02
662.004	-0
662.189	-0.07
662.374	-0.05
662.559	-0.06
662.743	-0.05
662.928	-0
663.113	-0.05
663.298	-0.1
663.483	-0.06
663.667	-0.02
663.852	-0.05
664.037	0.01
664.221	-0.06
664.406	0
664.591	-0.01
664.775	-0
664.96	-0.02
665.145	-0
665.329	0
665.514	-0.02
665.698	-0.04
665.883	-0.11
666.068	0.05
666.252	-0.02
666.437	-0.05
666.621	-0.02
666.806	0.01
666.99	-0.03
667.174	-0.06
667.359	0.07
667.543	-0.03
667.728	-0.04
667.912	-0.11
668.096	0.02
668.281	-0.08
668.465	-0.03
668.649	-0.01
668.834	-0.04
669.018	-0.04
669.202	-0.04
669.387	-0.08
669.571	0.04
669.755	-0.06
669.939	0.01
670.124	-0.01
670.308	0.01
670.492	0.01
670.676	-0.04
670.86	-0.02
671.044	-0.08
671.228	0.03
671.413	-0.04
671.597	-0.04
671.781	-0.05
671.965	-0.01
672.149	-0.05
672.333	-0.06
672.517	-0.03
672.701	0.01
672.885	-0.01
673.069	-0.07
673.253	0.04
673.437	-0.03
673.621	-0.06
673.804	-0.04
673.988	-0
674.172	-0.05
674.356	-0.08
674.54	-0.03
674.724	0.07
674.908	-0.04
675.091	-0.03
675.275	-0.02
675.459	0.03
675.643	-0.03
675.826	-0.01
676.01	-0
676.194	-0.04
676.377	0.07
676.561	-0
676.745	-0.02
676.928	0.01
677.112	0.04
677.296	-0.08
677.479	-0.03
677.663	-0.02
677.846	-0
678.03	-0.05
678.213	-0.07
678.397	0.02
678.58	-0.07
678.764	-0.07
678.947	-0.09
679.131	-0.07
679.314	0.04
679.498	-0.03
679.681	-0.01
679.865	0.01
680.048	-0
680.231	-0.03
680.415	-0.05
680.598	-0.06
680.781	-0.07
680.965	-0.03
681.148	0.03
681.331	-0.03
681.514	-0.04
681.698	-0.1
681.881	-0.04
682.064	-0.01
682.247	-0.01
682.43	-0.04
682.614	0
682.797	0.04
682.98	0.05
683.163	-0.08
683.346	-0.01
683.529	0
683.712	-0.13
683.895	-0.03
684.078	-0.03
684.261	-0.03
684.444	-0.04
684.627	-0
684.81	-0.04
684.993	-0.01
685.176	0.02
685.359	-0.07
685.542	-0.04
685.725	0.04
685.908	-0.01
686.091	-0.04
686.274	0
686.457	0.03
686.639	0.02
686.822	-0.03
687.005	0.01
687.188	0.01
687.371	0.1
687.553	-0.03
687.736	0
687.919	-0.01
688.102	0.07
688.284	-0.06
688.467	-0.01
688.65	-0.02
688.832	-0.08
689.015	-0.02
689.197	-0.08
689.38	0.04
689.563	0.07
689.745	-0.06
689.928	-0.11
690.11	-0.03
690.293	0.03
690.475	-0.07
690.658	0.03
690.84	-0.03
691.023	0.01
691.205	-0.07
691.388	-0.04
691.57	0.01
691.752	0.03
691.935	-0.09
692.117	-0.07
692.3	0.01
692.482	-0.04
692.664	0.01
692.847	-0.01
693.029	0.11
693.211	-0.03
693.393	-0.01
693.576	-0.05
693.758	-0.05
693.94	-0.08
694.122	-0.04
694.304	-0.05
694.487	-0.07
694.669	-0.01
694.851	-0.05
695.033	-0.02
695.215	-0.09
695.397	-0.07
695.579	-0.01
695.761	-0.09
695.943	-0.1
696.125	-0.01
696.308	-0.05
696.49	-0.14
696.671	0.13
696.853	0
697.035	0.14
697.217	-0.04
697.399	0.06
697.581	-0.07
697.763	0
697.945	-0.02
698.127	0.03
698.309	0.04
698.491	-0.09
698.672	0.03
698.854	0.03
699.036	0.05
699.218	-0.08
699.399	0.01
699.581	0.02
699.763	-0.06
699.945	-0.08
700.126	-0.05
700.308	-0.02
700.49	-0.01
700.671	-0.12
700.853	-0.07
701.035	-0.08
701.216	-0.04
701.398	-0.09
701.579	0
701.761	0
701.943	-0.07
702.124	-0.04
702.306	-0.08
702.487	0.1
702.669	-0.06
702.85	-0.08
703.031	-0.07
703.213	0.08
703.394	0.03
703.576	-0.06
703.757	0.04
703.938	0.05
704.12	0.11
704.301	-0.02
704.483	-0.07
704.664	0.02
704.845	0.05
705.026	0
705.208	-0.04
705.389	0.01
705.57	-0.03
705.751	-0.08
705.933	-0.01
706.114	0.06
706.295	-0
706.476	-0.16
706.657	0.11
706.838	0.02
707.02	0
707.201	-0.09
707.382	-0.11
707.563	-0
707.744	-0.01
707.925	-0.05
708.106	-0.03
708.287	0.02
708.468	0.09
708.649	-0.02
708.83	0.02
709.011	-0.03
709.192	0.03
709.373	-0.11
709.554	-0.04
709.734	0.01
709.915	0.03
710.096	-0.03
710.277	-0.13
710.458	-0.03
710.639	-0.01
710.819	-0.13
711	-0
711.181	0.1
711.362	0.07
711.542	-0.03
711.723	-0.09
711.904	0.01
712.085	-0.01
712.265	-0
712.446	-0.07
712.627	-0.08
712.807	0.04
712.988	-0.03
713.168	-0.12
713.349	-0
713.53	-0.14
713.71	-0.11
713.891	-0.12
714.071	-0.01
714.252	-0.02
714.432	-0
714.613	-0.15
714.793	0.02
714.974	0.1
715.154	0.07
715.334	0.05
715.515	0.05
715.695	-0.07
715.876	-0.02
716.056	-0.07
716.236	-0.03
716.417	-0.03
716.597	-0.09
716.777	0.05
716.957	-0.04
717.138	0.02
717.318	-0.05
717.498	-0.16
717.678	-0.02
717.859	0
718.039	-0.1
718.219	-0.01
718.399	-0.02
718.579	-0.15
718.759	-0.2
718.939	-0.04
719.12	-0.04
719.3	0.02
719.48	-0.12
719.66	-0.15
719.84	0.09
720.02	-0.1
720.2	-0.1
720.38	-0.01
720.56	0.07
720.74	-0.07
720.92	0.04
721.1	0.09
721.279	0.07
721.459	0.01
721.639	-0.09
721.819	-0.03
721.999	-0.04
722.179	0.09
722.359	-0.06
722.538	-0.04
722.718	-0
722.898	-0.12
723.078	-0.05
723.257	-0.03
723.437	0
723.617	-0
723.797	-0.04
723.976	0.01
724.156	-0.03
724.336	0.09
724.515	0.08
724.695	-0.14
724.874	-0.04
725.054	-0.06
725.234	-0.09
725.413	-0.02
725.593	-0.05
725.772	0.02
725.952	-0.05
726.131	-0.03
726.311	-0.05
726.49	-0.08
726.67	-0.07
726.849	-0.08
727.028	-0.08
727.208	-0.02
727.387	0.03
727.567	-0.1
727.746	-0.04
727.925	-0.02
728.105	-0.12
728.284	-0.06
728.463	-0.08
728.643	-0.01
728.822	-0.2
729.001	-0.15
729.18	-0.08
729.359	0.08
729.539	-0.1
729.718	-0.06
729.897	0.11
730.076	-0.07
730.255	-0.13
730.434	-0.11
730.614	0.02
730.793	0.12
730.972	-0.05
731.151	0.03
731.33	0.04
731.509	-0.02
731.688	0.03
731.867	-0.05
732.046	-0.14
732.225	0.21
732.404	-0.11
732.583	-0.04
732.762	-0.01
732.941	0.07
733.12	-0.03
733.298	-0.04
733.477	0.08
733.656	-0.12
733.835	-0.06
734.014	0.05
734.193	-0.01
734.371	0.11
734.55	-0.01
734.729	-0.13
734.908	0
735.086	-0.01
735.265	0.05
735.444	-0.18
735.623	-0.2
735.801	-0.24
735.98	-0.1
736.159	-0.02
736.337	0.1
736.516	-0.03
736.694	0.08
736.873	-0.04
737.052	0.09
737.23	0.06
737.409	-0.17
737.587	0.05
737.766	-0.07
737.944	-0.08
738.123	-0.03
738.301	0.01
738.479	-0.09
738.658	-0.01
738.836	-0.22
739.015	0.02
739.193	0.16
739.371	-0.23
739.55	-0.12
739.728	-0.28
739.906	0.11
740.085	0.17
740.263	-0.01
740.441	-0.26
740.62	0.12
740.798	0.06
740.976	-0.07
741.154	-0.04
741.332	0.08
741.511	-0.01
741.689	0.05
741.867	0.06
742.045	-0.01
742.223	-0.01
742.401	-0.13
742.579	-0.12
742.757	0.11
742.935	-0.16
743.114	-0.11
743.292	-0.06
743.47	-0.05
743.648	0.02
743.826	-0.02
744.004	0.01
744.181	0.04
744.359	-0.14
744.537	-0.07
744.715	-0.05
744.893	-0.02
745.071	-0.04
745.249	-0.04
745.427	-0.08
745.605	-0.09
745.782	-0.03
745.96	0.05
746.138	0.06
746.316	-0.02
746.493	-0.05
746.671	-0.05
746.849	-0.08
747.027	0.1
747.204	-0.13
747.382	0
747.56	-0.19
747.737	0.01
747.915	-0.02
748.093	0.02
748.27	-0.08
748.448	0.07
748.625	-0.11
748.803	-0.2
748.98	-0.07
749.158	-0.02
749.335	0.07
749.513	-0.15
749.69	0
749.868	-0.04
750.045	-0.02
750.223	-0.07
750.4	-0.21
750.578	0.17
750.755	-0.06
750.932	-0.15
751.11	0.12
751.287	-0.2
751.464	0.23
751.642	-0.11
751.819	-0.03
751.996	-0.08
752.173	-0.04
752.351	-0.16
752.528	0
752.705	-0.12
752.882	-0.07
753.06	0.05
753.237	0.02
753.414	0.18
753.591	0.25
753.768	-0.13
753.945	-0.14
754.122	-0.05
754.299	0.03
754.476	-0.05
754.654	0.01
754.831	0.04
755.008	0.06
755.185	-0.18
755.362	-0.03
755.539	0.04
755.716	-0.1
755.892	-0.05
756.069	-0.01
756.246	0
756.423	-0.15
756.6	0.12
756.777	-0.1
756.954	0.22
757.131	-0.09
757.307	-0.18
757.484	-0.25
757.661	-0.03
757.838	0.07
758.015	-0.05
758.191	0.03
758.368	-0.09
758.545	0.2
758.721	-0.03
758.898	-0.11
759.075	0.05
759.251	0.08
759.428	0.01
759.605	-0.14
759.781	-0.05
759.958	0.07
760.134	-0.03
760.311	-0.14
760.488	0.17
760.664	0.06
760.841	0.11
761.017	-0.15
761.194	0.01
761.37	-0.04
761.547	0.05
761.723	-0.01
761.899	0.1
762.076	-0.11
762.252	-0.13
762.429	-0.1
762.605	0.07
762.781	-0.05
762.958	0.08
763.134	-0.03
763.31	-0.13
763.486	0.06
763.663	-0.24
763.839	0.02
764.015	-0.2
764.191	-0.18
764.368	-0.06
764.544	-0.12
764.72	0.02
764.896	0.01
765.072	-0
765.248	-0.13
765.425	0
765.601	-0.08
765.777	-0.11
765.953	-0.32
766.129	-0.14
766.305	-0.1
766.481	-0.03
766.657	0.02
766.833	0.07
767.009	-0.21
767.185	-0.11
767.361	-0.04
767.537	-0.2
767.713	0.21
767.889	-0.13
768.065	0.05
768.24	-0.01
768.416	0.08
768.592	-0.11
768.768	0.03
768.944	-0.02
769.12	-0.14
769.295	-0.08
769.471	-0.01
769.647	-0.19
769.823	0.23
769.998	-0.14
770.174	-0.25
770.35	0.33
770.525	0.36
770.701	-0.11
770.877	-0.02
771.052	-0.05
771.228	0.02
771.403	-0.15
771.579	0.1
771.755	0.16
771.93	-0.12
772.106	-0.24
772.281	-0.26
772.457	-0.07
772.632	-0.06
772.808	-0.19
772.983	0.04
773.159	-0.21
773.334	0.15
773.509	-0.03
773.685	-0.16
773.86	0.32
774.036	0.21
774.211	-0.01
774.386	-0.14
774.562	0
774.737	0.02
774.912	-0.18
775.087	-0.05
775.263	-0
775.438	-0.11
775.613	-0.2
775.788	-0.06
775.964	0.18
776.139	0.34
776.314	-0.25
776.489	-0.02
776.664	0.1
776.839	-0.07
777.014	0.21
777.19	0.03
777.365	0.18
777.54	0.14
777.715	-0.13
777.89	0.04
778.065	-0.1
778.24	-0.04
778.415	0.13
778.59	-0.19
778.765	-0.1
778.94	0.09
779.115	-0.22
779.289	-0.15
779.464	-0.04
779.639	-0.06
779.814	-0.26
779.989	-0.2
780.164	0.09
780.339	-0.04
780.513	-0.08
780.688	-0.26
780.863	-0.03
781.038	0.06
781.212	-0.25
781.387	-0.01
781.562	0.33
781.737	-0.08
781.911	-0.07
782.086	-0.19
782.261	-0.01
782.435	0.25
782.61	-0.11
782.784	-0.05
782.959	0.16
783.134	-0.27
783.308	-0.24
783.483	-0.09
783.657	0.13
783.832	0.23
784.006	-0.37
784.181	-0.09
784.355	0.3
784.53	-0.24
784.704	-0.23
784.878	0.33
785.053	0.11
785.227	0.02
785.402	0.24
785.576	-0.07
785.75	-0.11
785.925	-0.28
786.099	-0.1
786.273	-0.14
786.448	0.13
786.622	0.11
786.796	-0.15
786.97	-0.27
787.145	0.55
787.319	-0.32
787.493	-0.21
787.667	-0.48
787.841	0.08
788.015	0.27
788.19	-0.14
788.364	-0.13
788.538	-0.01
788.712	-0.09
788.886	-0.25
789.06	0.32
789.234	0.05
789.408	-0.47
789.582	0.01
789.756	0.06
789.93	-0.27
790.104	-0.2
790.278	-0.26
790.452	-0.3
790.626	0.18
790.8	-0.24
790.973	0.12
791.147	0.22
791.321	0.24
791.495	0.21
791.669	-0.09
791.843	0.11
792.016	-0.24
792.19	0.49
792.364	-0.32
792.538	0.57
792.711	0.19
792.885	-0.1
793.059	-0.34
793.233	-0.66
793.406	0.17
793.58	0.08
793.754	-0.08
793.927	-0.11
794.101	0.11
794.274	-0.11
794.448	0.37
794.622	-0.27
794.795	0.29
794.969	-0.3
795.142	0.21
795.316	-0.09
795.489	-0.24
795.663	0.36
795.836	-0.06
796.009	-0.31
796.183	0.15
796.356	0.02
796.53	-0.23
796.703	-0.17
796.876	0.57
797.05	-0.29
797.223	-0.07
797.396	0.22
797.57	-0.15
797.743	0.38
797.916	-0.08
798.09	-0.23
798.263	0.06
798.436	0.34
798.609	-0.28
798.782	0.08
798.956	0.19
799.129	-0
799.302	-0.14
799.475	-0.13
799.648	-0.14
799.821	-0.07
799.994	-0.2
800.167	-0.44
800.34	-0.12
800.514	-0
800.687	-0.12
800.86	-0.3
801.033	0.06
801.206	-0.06
801.379	-0.41
801.551	0.24
801.724	0.1
801.897	0.43
802.07	-0.23
802.243	-0.72
802.416	-0.12
802.589	-0.45
802.762	-0.07
802.935	-0.23
803.107	0.06
803.28	0.12
803.453	0.23
803.626	-0.1
803.798	-0.26
803.971	-0.26
804.144	0.12
804.317	0.02
804.489	0.15
804.662	-0.05
804.835	-0.05
805.007	-0.35
805.18	0.52
805.353	-0.06
805.525	-0.15
805.698	-0.16
805.87	0.37
806.043	-0
806.215	-0.67
806.388	-0.23
806.56	-0.05
806.733	0.2
806.905	0.04
807.078	-0.23
807.25	-0.24
807.423	0.38
807.595	-0.06
807.768	-0
807.94	0.28
808.112	0.23
808.285	-0.02
808.457	-0.24
808.629	-0.37
808.802	0.22
808.974	-0.29
809.146	-0.19
809.318	-0.33
809.491	0.01
809.663	0.32
809.835	-0.47
810.007	-0.07
810.18	0.24
810.352	-0.44
810.524	-0.35
810.696	-0.08
810.868	0.34
811.04	-0.49
811.212	-0.22
811.384	0.29
811.556	-0.25
811.728	0.07
811.901	0.68
812.073	-0.42
812.245	0.15
812.417	-0.19
812.589	-0.76
812.76	0.07
812.932	-0.16
813.104	0.36
813.276	-0.13
813.448	0.36
813.62	0.29
813.792	-0.16
813.964	-0.45
814.136	0.1
814.307	-0.42
814.479	-0.13
814.651	-0.51
814.823	0.48
814.995	0.08
815.166	-0.17
815.338	-0.63
815.51	-0.62
815.681	0.79
815.853	0.11
816.025	-0.46
816.196	0.47
816.368	0.41
816.54	-0.35
816.711	-0.3
816.883	0.15
817.054	1.24
817.226	-0.3
817.398	0.29
817.569	-0.69
817.741	0.16
817.912	-0.06
818.084	-0.37
818.255	0.46
818.426	-0.46
818.598	0.2
818.769	-0.57
818.941	0.5
819.112	0.62
819.283	0.07
819.455	-0.44
819.626	0.13
819.798	0.13
819.969	-0.28
820.14	-0.43
820.311	-0.4
820.483	0.22
820.654	-0.27
820.825	-0.16
820.996	-0.14
821.168	-0.36
821.339	-0.24
821.51	-0.53
821.681	-0.53
821.852	0.03
822.023	-0.34
822.195	-1.05
822.366	0.6
822.537	-0.1
822.708	-0.22
822.879	-0.59
823.05	0.28
823.221	-0.32
823.392	-0.02
823.563	0.14
823.734	0.02
823.905	0.13
824.076	-0.64
824.247	-0.75
824.418	-0.27
824.589	0.27
824.759	0.1
824.93	-0.65
825.101	-0.6
825.272	-0.08
825.443	-0.13
825.614	0.3
825.784	-0.54
825.955	1.04
826.126	0.12
826.297	-0.18
826.467	0.79
826.638	0.4
826.809	-0.62
826.98	-0.56
827.15	0.21
827.321	0.27
827.492	0.08
827.662	-0.78
827.833	0.8
828.003	0.03
828.174	-1.09
828.345	-0.79
828.515	0.65
828.686	-0.06
828.856	-0.28
829.027	-0.09
829.197	0.36
829.368	0.22
829.538	-0.11
829.709	-0.25
829.879	0.03
830.049	0.12
830.22	-0.57
830.39	-0.03
830.56	0.43
830.731	0.36
830.901	-0.73
831.072	0.11
831.242	0.15
831.412	-0.46
831.582	-0.22
831.753	-1.09
831.923	0.33
832.093	-0.23
832.263	-0.43
832.434	-0.57
832.604	-0.06
832.774	0.44
832.944	-0.53
833.114	-0.58
833.284	0.14
833.454	-0.43
833.624	-0.74
833.795	-0.29
833.965	0.31
834.135	0.51
834.305	-1.26
834.475	-0.74
834.645	-0.42
834.815	-0.28
834.985	-0.76
835.155	-0.89
835.325	0.18
835.494	-0.12
835.664	-0.08
835.834	-0.42
836.004	0.42
836.174	0.13
836.344	-0.63
836.514	-1.36
836.684	-0.43
836.853	-0.58
837.023	-0.28
837.193	-0.45
837.363	0.75
837.532	0.8
837.702	-0.36
837.872	-0.53
838.041	0.51
838.211	1.42
838.381	-0.82
838.55	-0.46
838.72	1.82
838.89	0.69
839.059	-0.67
839.229	-0.62
839.398	1.19
839.568	0.42
839.738	-0.44
839.907	1.27
840.077	0.09
840.246	-0.82
840.416	-0.95
840.585	-0.95
840.755	0.75
840.924	0.89
841.093	-0.98
841.263	-0.51
841.432	-0.02
841.602	-0.81
841.771	-1.17
841.94	0.06
842.11	2.57
842.279	1.29
842.448	-0.52
842.617	-0.55
842.787	1.23
842.956	-0.93
843.125	-0.45
843.294	-0.45
843.464	1.57
843.633	-0.29
843.802	-0.6
843.971	0.21
844.14	0.6
844.309	0.67
844.479	-0.59
844.648	-0.98
844.817	-0.72
844.986	-0.38
845.155	-0.64
845.324	-0.4
845.493	0.59
845.662	-0.62
845.831	-0.03
846	0.21
846.169	0.18
846.338	0.76
846.507	-0.23
846.676	-0.29
846.844	-1.04
847.013	0.84
847.182	-0.76
847.351	-0.62
847.52	-0.92
847.689	0.49
847.858	-0.12
848.026	-0.93
848.195	-0.36
848.364	-0.17
848.533	-0.89
848.701	-0.79
848.87	0.18
849.039	0.32
849.207	0.51
849.376	1.32
849.545	1.67
849.713	-0.33
849.882	-1.02
850.051	-0.04
850.219	0
850.388	0.87
850.556	-0.63
850.725	-0.32
850.893	0.49
851.062	-0.21
851.23	-0.13
851.399	-2.22
851.567	-0.48
851.736	-0.62
851.904	-0.9
852.073	-0.63
852.241	0.69
852.41	0.79
852.578	-0.21
852.746	-1.16
852.915	0.64
853.083	-0.83
853.251	-1.86
853.42	-1.25
853.588	0.04
853.756	0.34
853.924	-0.71
854.093	-0.29
854.261	-0.89
854.429	-1.7
854.597	-0.17
854.765	-0.94
854.934	-0.04
855.102	1.13
855.27	-1.35
855.438	0.28
855.606	1.98
855.774	1.57
855.942	-1.4
856.11	-2.52
856.278	-0.11
856.446	0.61
856.614	-0.15
856.782	-1.33
856.95	0.43
857.118	0.46
857.286	-0.8
857.454	-1.41
857.622	0.63
857.79	0.79
857.958	-2.19
858.126	-0.02
858.294	-2.85
858.462	-0.34
858.629	-0.69
858.797	-1.7
858.965	-0.09
859.133	-1.09
859.301	-0.53
859.468	-0.84
859.636	-0.91
859.804	1.22
859.971	0.41
860.139	-0.67
860.307	0.45
860.474	-0.05
860.642	-0.83
860.81	-0.62
860.977	1.05
861.145	0.66
861.313	-0.09
861.48	-0.44
861.648	0.87
861.815	-0.2
861.983	-1.42
862.15	-1.07
862.318	-0.23
862.485	0.31
862.653	-0.81
862.82	-0.78
862.988	1.79
863.155	0.98
863.322	-2.57
863.49	-2.52
863.657	-0.42
863.824	2.24
863.992	-0.25
864.159	1.16
864.326	0.57
864.494	-1.83
864.661	1.12
864.828	-0.76
864.996	1.08
865.163	2.57
865.33	-1.3
865.497	-2.01
865.664	-1.22
865.832	-2.24
865.999	-0.76
866.166	-1.06
866.333	-1.91
866.5	-0.61
866.667	-1.66
866.834	0.11
867.001	0.99
867.168	-2.04
867.335	-0.06
867.502	-2.13
867.669	-0.47
867.836	1.5
868.003	-1.04
868.17	0.91
868.337	-1.66
868.504	1.14
868.671	-3.3
868.838	-1.48
869.005	0.23
869.172	1
869.339	-0.61
869.505	-0.46
869.672	-0.11
869.839	2.75
870.006	-0.93
870.173	-2.25
870.339	0.27
870.506	1.82
870.673	-1.28
870.84	1.01
871.006	0.24
871.173	-0.51
871.34	-1.42
871.506	-1.91
871.673	-0.39
871.839	-1.42
872.006	0.95
872.173	-0.29
872.339	-2.39
872.506	1.59
872.672	-0.02
872.839	-1.63
873.005	0.83
873.172	1.77
873.338	-1.08
873.505	0.24
873.671	-0.13
873.838	0.92
874.004	-3.23
874.171	-1.67
874.337	-0.14
874.503	0.53
874.67	-1.44
874.836	-0.26
875.002	2.23
875.169	2.02
875.335	-0.56
875.501	-2.07
875.668	0.69
875.834	1.24
876	-0.85
876.166	-1.04
876.332	0.92
876.499	4.13
876.665	-0.25
876.831	-1.81
876.997	2.11
877.163	1.36
877.329	-1.13
877.495	1.01
877.662	0.59
877.828	1.06
877.994	-1.32
878.16	-2.83
878.326	-1.48
878.492	-0.13
878.658	-1.59
878.824	-0.74
878.99	0.65
879.156	-1.36
879.322	-0.43
879.487	-2.54
879.653	2.09
879.819	1.92
879.985	-3.06
880.151	-0.02
880.317	0.41
880.483	0.26
880.648	0.9
880.814	-1.53
880.98	0.36
881.146	-3.6
881.312	-1.09
881.477	-0.19
881.643	0.92
881.809	-0.09
881.974	1.05
882.14	-2.8
882.306	-0.02
882.471	4.45
882.637	-1.91
882.803	0.99
882.968	3.54
883.134	3.54
883.299	-1.51
883.465	-0.75
883.63	0.95
883.796	1.55
883.961	0.77
884.127	1.14
884.292	-4.95
884.458	-2.03
884.623	-2.03
