Data from Apollo_Calib_20240827__AbsoluteIrradiance__485__07-14-00-456.txt Node

Date: Wed Aug 28 07:14:00 BST 2024
User: biology
Spectrometer: FLMT08252
Trigger mode: 0
Integration Time (sec): 5.000000E-1
Scans to average: 5
Electric dark correction enabled: true
Nonlinearity correction enabled: false
Boxcar width: 0
XAxis mode: Wavelengths
Number of Pixels in Spectrum: 3648
>>>>>Begin Spectral Data<<<<<
179.588	-0
179.809	-0
180.03	-0
180.251	-0
180.473	-0
180.694	0
180.915	0
181.136	-0
181.357	0
181.578	-0
181.799	-0
182.02	-0
182.241	-0
182.462	-0
182.683	0
182.904	0
183.125	-0
183.346	0
183.567	0
183.788	-0
184.009	-0
184.23	0
184.451	0
184.672	-0
184.892	-0
185.113	0
185.334	0
185.555	-0
185.776	-0
185.996	0
186.217	-0
186.438	0
186.659	-0
186.879	0
187.1	-0
187.321	-0
187.541	-0
187.762	0
187.983	-0
188.203	-0
188.424	0
188.644	0
188.865	0
189.086	-0
189.306	-0
189.527	0
189.747	0
189.968	-0
190.188	0
190.409	0
190.629	0
190.849	-0
191.07	-0
191.29	0
191.511	0
191.731	-0
191.951	-0
192.172	0
192.392	-0
192.612	-0
192.833	-0
193.053	0
193.273	0
193.493	-0
193.714	-0
193.934	0
194.154	0
194.374	0
194.594	-0
194.815	0
195.035	0
195.255	0
195.475	-0
195.695	0
195.915	0
196.135	-0
196.355	0
196.575	0
196.795	0
197.015	-0
197.235	-0
197.455	-0
197.675	0
197.895	0
198.115	-0
198.335	0
198.555	-0
198.775	-0
198.995	-0
199.214	0
199.434	-0
199.654	-0
199.874	-0
200.094	-1.09
200.313	-0.23
200.533	-0.34
200.753	-1.03
200.973	0.59
201.192	0.52
201.412	-1.13
201.632	0.07
201.851	0.39
202.071	-0.35
202.291	0.3
202.51	-0.58
202.73	0.5
202.95	-0.02
203.169	-0.7
203.389	-0.17
203.608	-0.09
203.828	-0.76
204.047	-0.21
204.267	0.44
204.486	0.27
204.706	-0.1
204.925	-0.01
205.145	-0.35
205.364	0.23
205.583	0.7
205.803	-0.02
206.022	-0.49
206.242	0.09
206.461	0.17
206.68	-0.36
206.9	0.08
207.119	0.48
207.338	0.13
207.557	-0.06
207.777	-0.18
207.996	-0.06
208.215	0.6
208.434	0.06
208.654	-0.41
208.873	0.24
209.092	0.84
209.311	-0.34
209.53	-0.14
209.749	-0.05
209.968	-0.08
210.187	0.07
210.407	-0.35
210.626	-0.05
210.845	0.38
211.064	0.09
211.283	-0.15
211.502	0.29
211.721	0.01
211.94	0.02
212.159	0.33
212.377	0.16
212.596	0.43
212.815	0.13
213.034	0.11
213.253	0.27
213.472	0.13
213.691	-0.11
213.91	-0.29
214.128	-0.11
214.347	0.35
214.566	-0.4
214.785	-0.4
215.003	0.15
215.222	0.24
215.441	-0.06
215.66	-0.27
215.878	0.02
216.097	0.26
216.316	-0.23
216.534	-0.02
216.753	0
216.972	-0.12
217.19	-0.03
217.409	-0.07
217.627	-0.16
217.846	-0.13
218.064	0.03
218.283	-0.21
218.501	0.33
218.72	0.31
218.938	-0.2
219.157	-0.16
219.375	0.22
219.594	0.11
219.812	-0.18
220.031	-0.03
220.249	0.33
220.467	0.29
220.686	-0.21
220.904	-0.22
221.122	-0.09
221.341	0.43
221.559	-0.03
221.777	-0.08
221.995	-0.08
222.214	0.14
222.432	-0.19
222.65	0.26
222.868	0.15
223.086	0.09
223.305	0.11
223.523	-0.13
223.741	0.08
223.959	-0.18
224.177	-0.2
224.395	-0.13
224.613	0.06
224.831	0.22
225.049	-0.15
225.267	-0
225.485	0
225.703	0.07
225.921	-0.02
226.139	-0.15
226.357	0.15
226.575	0.09
226.793	-0.09
227.011	0.51
227.229	0.08
227.447	0.22
227.665	-0.12
227.883	-0.2
228.1	-0.07
228.318	-0.01
228.536	-0.25
228.754	-0.14
228.972	0.05
229.189	0.27
229.407	-0.02
229.625	-0.12
229.843	0.18
230.06	0.13
230.278	-0.1
230.496	0.16
230.713	0.07
230.931	0.19
231.149	-0.04
231.366	-0.21
231.584	0.04
231.801	0.24
232.019	-0.07
232.236	-0.07
232.454	-0.18
232.671	0.05
232.889	-0.02
233.106	-0.14
233.324	0.04
233.541	-0.08
233.759	0.02
233.976	-0.11
234.194	-0.04
234.411	-0.02
234.628	-0.11
234.846	-0.09
235.063	-0.07
235.28	-0.11
235.498	-0
235.715	-0.11
235.932	0.11
236.149	0.06
236.367	-0.16
236.584	-0.09
236.801	-0.06
237.018	0.08
237.236	0.06
237.453	-0.15
237.67	0.07
237.887	0.02
238.104	-0.03
238.321	-0.09
238.538	-0.05
238.755	0.11
238.973	-0.3
239.19	-0.01
239.407	0.11
239.624	0.04
239.841	-0.12
240.058	-0.06
240.275	-0.01
240.492	0.03
240.709	0.03
240.925	-0.13
241.142	-0
241.359	-0.18
241.576	-0.01
241.793	-0.05
242.01	0.08
242.227	0.02
242.444	0.14
242.66	0.13
242.877	-0.04
243.094	-0.06
243.311	-0.02
243.527	-0.03
243.744	0.08
243.961	0.11
244.178	-0.04
244.394	0.04
244.611	0.15
244.828	0.11
245.044	-0.07
245.261	-0
245.477	0.11
245.694	0.06
245.911	-0.05
246.127	-0.01
246.344	0.08
246.56	0.15
246.777	0.04
246.993	0.04
247.21	0.17
247.426	-0.01
247.643	0.03
247.859	-0.09
248.076	-0.05
248.292	0.09
248.508	-0.01
248.725	0.05
248.941	0.08
249.157	0.11
249.374	-0.1
249.59	-0.04
249.806	0.02
250.023	0.01
250.239	-0.04
250.455	-0.06
250.671	-0
250.888	0
251.104	0.02
251.32	0.02
251.536	-0.01
251.752	0.01
251.969	0.02
252.185	0.01
252.401	0.12
252.617	-0.03
252.833	0.03
253.049	0.02
253.265	0.02
253.481	0.01
253.697	-0.03
253.913	-0.05
254.129	0.07
254.345	0.04
254.561	0.01
254.777	0
254.993	0.09
255.209	0.01
255.425	-0.02
255.641	-0.02
255.857	0.1
256.073	0.05
256.288	-0.06
256.504	-0.04
256.72	0.04
256.936	0.14
257.152	0.02
257.367	-0.05
257.583	-0.01
257.799	0.09
258.015	-0.01
258.23	-0.01
258.446	0.1
258.662	0.03
258.877	-0.04
259.093	-0.04
259.309	-0.06
259.524	0.02
259.74	-0.04
259.955	-0.07
260.171	-0.03
260.387	-0.02
260.602	0.11
260.818	0.04
261.033	-0.02
261.249	0.02
261.464	-0.07
261.68	-0.08
261.895	0
262.11	-0.01
262.326	-0.07
262.541	-0.06
262.757	0.06
262.972	-0
263.187	-0.01
263.403	0.06
263.618	0.05
263.833	0.02
264.049	0.01
264.264	0.02
264.479	0.07
264.694	0.07
264.91	-0.05
265.125	0
265.34	0.08
265.555	0.15
265.77	0.02
265.986	-0.05
266.201	-0.02
266.416	0.09
266.631	0
266.846	0.03
267.061	-0.06
267.276	0.06
267.491	-0.13
267.706	0.06
267.921	0.07
268.136	-0.04
268.351	0
268.566	-0.06
268.781	0.05
268.996	0.06
269.211	0.04
269.426	-0.06
269.641	-0.06
269.856	0.04
270.071	-0.09
270.285	-0.1
270.5	0.03
270.715	0.11
270.93	0.05
271.145	0.02
271.359	0.03
271.574	-0.02
271.789	-0.02
272.004	-0.05
272.218	-0.01
272.433	0.04
272.648	-0.02
272.862	0.07
273.077	-0.02
273.292	0.05
273.506	-0.06
273.721	-0.03
273.936	0.07
274.15	0.01
274.365	-0.02
274.579	0.04
274.794	0.09
275.008	0.12
275.223	-0.09
275.437	0.02
275.652	0.14
275.866	0.02
276.081	-0.02
276.295	0.1
276.509	0.02
276.724	0.07
276.938	-0
277.153	0.07
277.367	0.04
277.581	-0.05
277.796	-0.07
278.01	-0.06
278.224	0.01
278.438	0.11
278.653	-0.06
278.867	-0.07
279.081	0.07
279.295	-0.02
279.51	0.01
279.724	-0.11
279.938	0.05
280.152	0.01
280.366	-0.09
280.58	0.03
280.794	0.03
281.008	0.06
281.222	0.04
281.437	0.09
281.651	0.02
281.865	0.05
282.079	-0
282.293	-0.08
282.507	-0.06
282.721	0.01
282.935	0.01
283.148	-0.07
283.362	0
283.576	-0.02
283.79	0.02
284.004	-0.14
284.218	0.1
284.432	-0.04
284.646	0.03
284.859	-0.02
285.073	0
285.287	0.06
285.501	-0.01
285.714	0.01
285.928	0.04
286.142	0.02
286.356	-0.01
286.569	-0.05
286.783	0.1
286.997	0.05
287.21	-0
287.424	0.03
287.637	0
287.851	0
288.065	0.03
288.278	-0.05
288.492	0.06
288.705	0.03
288.919	0
289.132	-0.04
289.346	0.01
289.559	-0.06
289.773	-0.06
289.986	0.02
290.2	-0
290.413	0.05
290.626	-0.02
290.84	0.01
291.053	0.02
291.267	0.07
291.48	0.01
291.693	0.02
291.906	0.02
292.12	-0.05
292.333	-0.05
292.546	-0
292.76	0.1
292.973	0.06
293.186	0.02
293.399	-0.02
293.612	0.07
293.826	0.04
294.039	0.02
294.252	-0.01
294.465	0.07
294.678	0.05
294.891	0.04
295.104	-0.05
295.317	-0
295.53	0.06
295.743	0
295.956	-0.01
296.169	0.06
296.382	0.02
296.595	0
296.808	-0.05
297.021	0.08
297.234	0.01
297.447	0.08
297.66	0.05
297.873	0.09
298.086	0.04
298.299	-0
298.511	-0.01
298.724	-0.01
298.937	-0.02
299.15	0
299.363	0
299.575	0.03
299.788	0.01
300.001	-0.05
300.213	-0.08
300.426	0.02
300.639	0
300.852	-0
301.064	0.04
301.277	0.05
301.489	0.04
301.702	0.06
301.915	-0.01
302.127	0.01
302.34	-0
302.552	0.02
302.765	-0.03
302.977	0.02
303.19	-0.04
303.402	-0.02
303.615	-0.01
303.827	0.01
304.04	0.01
304.252	0.06
304.464	-0.02
304.677	0.13
304.889	0.04
305.102	0.01
305.314	-0.04
305.526	0.04
305.739	0.03
305.951	-0.02
306.163	0.02
306.375	0.1
306.588	-0.02
306.8	0.01
307.012	-0.06
307.224	0.04
307.436	0.05
307.649	-0.04
307.861	0
308.073	0.02
308.285	-0.04
308.497	0.01
308.709	-0.03
308.921	-0.01
309.133	0.08
309.346	0.01
309.558	0.01
309.77	0.09
309.982	0.05
310.194	-0.01
310.406	-0.01
310.617	0.1
310.829	0.03
311.041	0.02
311.253	-0.04
311.465	-0.01
311.677	0.03
311.889	0.02
312.101	-0
312.313	0.06
312.524	0.03
312.736	-0.07
312.948	-0
313.16	0.08
313.372	0.04
313.583	0.01
313.795	-0.01
314.007	-0
314.218	0.01
314.43	-0.01
314.642	0
314.853	-0.05
315.065	0.04
315.277	-0.02
315.488	-0
315.7	0.03
315.912	0.01
316.123	-0.04
316.335	-0.02
316.546	0.12
316.758	-0.03
316.969	0.03
317.181	0.03
317.392	-0.01
317.604	0.07
317.815	0.02
318.026	-0.02
318.238	0
318.449	0.04
318.661	-0.05
318.872	-0.03
319.083	-0.02
319.295	-0.01
319.506	-0.04
319.717	-0.02
319.929	0.01
320.14	0.01
320.351	-0.01
320.562	-0.05
320.774	0.01
320.985	0.05
321.196	-0.07
321.407	-0.04
321.618	0.02
321.829	0.02
322.041	0
322.252	-0.02
322.463	-0
322.674	0.04
322.885	0.02
323.096	-0.03
323.307	-0.01
323.518	0.01
323.729	-0.05
323.94	0
324.151	0.01
324.362	0.02
324.573	0.04
324.784	-0.02
324.995	0.07
325.206	0.03
325.417	0
325.628	0.01
325.838	0.03
326.049	0.02
326.26	0.06
326.471	-0.03
326.682	-0.02
326.892	-0.02
327.103	-0.04
327.314	-0.05
327.525	0.06
327.735	0
327.946	0.01
328.157	0
328.368	0.07
328.578	-0.01
328.789	0.03
328.999	0.08
329.21	-0
329.421	0.05
329.631	-0.03
329.842	0
330.052	0.03
330.263	0.01
330.473	0.02
330.684	-0.02
330.894	-0.04
331.105	0.02
331.315	-0
331.526	-0.05
331.736	0.09
331.947	0.03
332.157	0.02
332.367	-0.03
332.578	0.05
332.788	0.07
332.999	0.04
333.209	0.01
333.419	-0.05
333.629	0.01
333.84	0.02
334.05	-0.01
334.26	0.06
334.47	0.09
334.681	0.04
334.891	-0
335.101	0.03
335.311	0.08
335.521	0.01
335.732	-0.02
335.942	0.06
336.152	0.05
336.362	0.02
336.572	0.03
336.782	0.06
336.992	-0.03
337.202	-0.03
337.412	-0.03
337.622	0.04
337.832	-0.01
338.042	0.01
338.252	-0.01
338.462	0.02
338.672	-0
338.882	0.02
339.092	0.01
339.302	0.06
339.511	0.05
339.721	-0.01
339.931	0.02
340.141	0.06
340.351	0.04
340.561	0.04
340.77	0.01
340.98	-0.01
341.19	0.04
341.4	-0.03
341.609	-0.01
341.819	0.03
342.029	-0.03
342.238	0.07
342.448	-0.03
342.658	0
342.867	0.01
343.077	0.03
343.286	0
343.496	0.02
343.706	0.03
343.915	-0.04
344.125	-0
344.334	0.06
344.544	-0.02
344.753	-0
344.963	0.05
345.172	-0.02
345.381	-0
345.591	-0
345.8	0
346.01	0.02
346.219	0.02
346.428	-0.08
346.638	0.03
346.847	-0.02
347.056	0.07
347.266	-0.01
347.475	0.01
347.684	0
347.893	0.03
348.103	0.05
348.312	-0
348.521	-0
348.73	0.04
348.94	0.02
349.149	-0.04
349.358	0.03
349.567	0.01
349.776	-0.02
349.985	-0.04
350.194	0.07
350.403	-0.01
350.612	-0.04
350.821	-0.02
351.03	0.02
351.239	-0.04
351.448	0.02
351.657	-0.02
351.866	0.08
352.075	-0
352.284	0.05
352.493	-0.03
352.702	0.06
352.911	0.03
353.12	0.02
353.329	0
353.538	0.03
353.746	0.03
353.955	-0.04
354.164	0.01
354.373	-0
354.582	0.06
354.79	0.03
354.999	0.03
355.208	-0
355.416	0.05
355.625	-0.02
355.834	-0.01
356.042	0.02
356.251	-0.02
356.46	0.01
356.668	0.01
356.877	0.1
357.085	0.04
357.294	-0.05
357.503	0.02
357.711	0.01
357.92	0.1
358.128	0.03
358.337	-0.04
358.545	0.01
358.754	-0.02
358.962	0.03
359.17	0.01
359.379	-0.02
359.587	0.03
359.796	-0.01
360.004	0.02
360.212	0.05
360.421	-0.01
360.629	-0.04
360.837	-0.02
361.046	0.06
361.254	0.1
361.462	0.03
361.67	0.02
361.879	0.04
362.087	0.08
362.295	0.03
362.503	-0.01
362.711	-0.03
362.92	-0.02
363.128	-0.04
363.336	-0
363.544	-0
363.752	0.03
363.96	-0.03
364.168	-0.03
364.376	-0
364.584	0.04
364.792	0.03
365	0.03
365.208	0.01
365.416	0.01
365.624	0.03
365.832	0.02
366.04	0.08
366.248	0.06
366.456	0.01
366.664	0.03
366.872	-0.02
367.079	-0.01
367.287	0.01
367.495	0.03
367.703	0.02
367.911	-0.01
368.118	0.01
368.326	0
368.534	-0.03
368.742	0.11
368.949	-0.07
369.157	-0.02
369.365	0.04
369.572	-0.01
369.78	-0.02
369.988	0.07
370.195	0.04
370.403	0.03
370.61	-0.05
370.818	0.01
371.026	0.03
371.233	-0.01
371.441	0
371.648	-0.06
371.856	0.03
372.063	-0.01
372.271	0.03
372.478	-0.03
372.685	-0.05
372.893	0.05
373.1	-0.01
373.308	0.01
373.515	0.08
373.722	0.04
373.93	-0.01
374.137	0.05
374.344	0.08
374.552	0.05
374.759	0.03
374.966	0.02
375.173	-0.03
375.381	0.02
375.588	0.01
375.795	-0.04
376.002	-0.01
376.209	-0.04
376.417	-0.03
376.624	-0.01
376.831	-0
377.038	0.04
377.245	-0.06
377.452	-0.01
377.659	0
377.866	-0.04
378.073	-0
378.28	0.02
378.487	0.05
378.694	0
378.901	0.01
379.108	0.01
379.315	0.03
379.522	0.05
379.729	-0.01
379.936	0
380.143	0.02
380.35	0.03
380.557	-0.01
380.763	0.03
380.97	-0
381.177	0.02
381.384	0.04
381.591	0.02
381.797	0.02
382.004	0.04
382.211	0.06
382.418	0.02
382.624	0.04
382.831	0.04
383.038	-0.02
383.244	-0.02
383.451	-0.03
383.658	0.04
383.864	-0
384.071	-0.03
384.277	0.03
384.484	-0.05
384.69	0.02
384.897	-0.01
385.103	-0
385.31	-0.01
385.516	-0.04
385.723	-0.01
385.929	0.01
386.136	-0.02
386.342	0.02
386.549	-0.04
386.755	0.05
386.961	0.04
387.168	-0.02
387.374	-0.02
387.58	0.1
387.787	0.02
387.993	0.05
388.199	0.02
388.406	-0.01
388.612	-0.01
388.818	0.01
389.024	-0.01
389.231	0.02
389.437	0.06
389.643	0.02
389.849	0.05
390.055	-0.02
390.261	-0
390.467	0.03
390.674	-0
390.88	0.02
391.086	0.03
391.292	-0.03
391.498	-0
391.704	0.01
391.91	-0
392.116	0.02
392.322	-0.08
392.528	0.03
392.734	-0.02
392.94	0.01
393.146	-0.03
393.352	0.06
393.557	0
393.763	-0.01
393.969	0.04
394.175	-0.01
394.381	0.01
394.587	-0.06
394.792	0.02
394.998	0.01
395.204	0.04
395.41	-0.03
395.615	0.01
395.821	0.03
396.027	0.04
396.233	-0.01
396.438	-0.04
396.644	0.05
396.85	0.02
397.055	0.02
397.261	-0.01
397.466	0.01
397.672	-0.03
397.878	0.01
398.083	0.02
398.289	-0.04
398.494	0.01
398.7	0.02
398.905	-0.07
399.111	0.07
399.316	-0.03
399.522	-0.01
399.727	-0.02
399.932	-0.03
400.138	0.01
400.343	0.07
400.549	0.01
400.754	0.02
400.959	0.05
401.165	0.01
401.37	0.03
401.575	-0.01
401.78	-0.02
401.986	-0.02
402.191	-0.03
402.396	-0.03
402.601	0.06
402.807	-0.01
403.012	-0.03
403.217	0.02
403.422	0.03
403.627	0.02
403.832	0.02
404.037	0.04
404.243	-0.01
404.448	-0.05
404.653	-0.03
404.858	0
405.063	0.06
405.268	-0.01
405.473	-0.02
405.678	-0.01
405.883	0.15
406.088	0.02
406.293	-0.05
406.498	-0.02
406.703	0
406.907	0.03
407.112	-0.03
407.317	0.02
407.522	0.02
407.727	-0.1
407.932	0.04
408.136	0.06
408.341	0.01
408.546	-0.01
408.751	0.01
408.956	-0
409.16	0
409.365	-0
409.57	-0.05
409.774	-0
409.979	0.04
410.184	-0.03
410.388	-0.03
410.593	0.01
410.798	-0.01
411.002	-0.05
411.207	0.03
411.411	0
411.616	0.03
411.82	0
412.025	0.03
412.229	-0.03
412.434	0.04
412.638	0.05
412.843	-0.01
413.047	0.02
413.252	-0.02
413.456	0.05
413.66	0.02
413.865	-0.04
414.069	0.08
414.273	-0.04
414.478	-0.05
414.682	-0.02
414.886	-0.05
415.091	-0.06
415.295	-0.07
415.499	0.01
415.703	-0.01
415.908	0.04
416.112	-0.07
416.316	0.07
416.52	-0.01
416.724	-0.04
416.929	-0.04
417.133	0.08
417.337	0.04
417.541	-0.04
417.745	0.02
417.949	0.02
418.153	0.02
418.357	-0.04
418.561	0.05
418.765	0.02
418.969	0.1
419.173	0.04
419.377	0
419.581	0.12
419.785	-0.04
419.989	-0.07
420.193	-0.03
420.397	-0
420.601	0.06
420.804	0.05
421.008	0.04
421.212	-0.01
421.416	-0.02
421.62	-0.02
421.823	-0.01
422.027	0.05
422.231	0.03
422.435	0.01
422.638	-0.01
422.842	0.03
423.046	0.01
423.249	0.03
423.453	0.06
423.657	-0
423.86	-0.02
424.064	0
424.268	0.06
424.471	-0.01
424.675	0.07
424.878	0.09
425.082	0.04
425.285	0.04
425.489	-0.02
425.692	-0
425.896	-0.05
426.099	0.02
426.303	-0.03
426.506	-0.04
426.71	-0.05
426.913	0.05
427.116	0.03
427.32	0.02
427.523	0.01
427.726	0.11
427.93	-0.04
428.133	0.03
428.336	-0.03
428.54	-0.05
428.743	0
428.946	0.05
429.149	-0.03
429.353	0.04
429.556	0.02
429.759	0
429.962	-0.02
430.165	-0.01
430.368	0.01
430.571	-0.02
430.775	0.01
430.978	-0.01
431.181	-0.01
431.384	0
431.587	-0.04
431.79	0.02
431.993	0.02
432.196	-0.02
432.399	0
432.602	0.07
432.805	0.03
433.008	0.04
433.211	-0.02
433.414	0.06
433.616	0.05
433.819	-0
434.022	-0.08
434.225	0.04
434.428	0.07
434.631	0.11
434.833	0
435.036	0.01
435.239	0.03
435.442	-0
435.645	-0.09
435.847	0.02
436.05	0.03
436.253	0.01
436.455	-0.02
436.658	-0.04
436.861	0.08
437.063	-0.04
437.266	0.01
437.468	0.01
437.671	0.1
437.874	0.01
438.076	-0.04
438.279	-0.07
438.481	-0.02
438.684	-0.02
438.886	0.03
439.089	-0.11
439.291	-0.01
439.494	0.04
439.696	-0.05
439.899	-0.02
440.101	-0.01
440.303	-0.07
440.506	0.09
440.708	-0.02
440.91	0.05
441.113	-0.03
441.315	-0.02
441.517	-0.05
441.72	0.07
441.922	0.02
442.124	-0.02
442.326	0.07
442.529	0.1
442.731	-0.04
442.933	0.09
443.135	-0.04
443.337	-0.05
443.539	0.02
443.742	-0.03
443.944	0.02
444.146	-0.09
444.348	0.01
444.55	-0.03
444.752	0.02
444.954	-0.03
445.156	0
445.358	-0.03
445.56	0.04
445.762	-0.02
445.964	0.02
446.166	-0.02
446.368	-0.02
446.57	0.06
446.772	-0.01
446.974	-0.02
447.175	0
447.377	-0.03
447.579	-0
447.781	-0.04
447.983	0.09
448.184	0.01
448.386	-0.01
448.588	-0.07
448.79	0.01
448.991	-0.05
449.193	-0.05
449.395	0.02
449.597	0.07
449.798	-0
450	0.04
450.202	-0.02
450.403	-0.02
450.605	-0
450.806	0.04
451.008	-0.09
451.21	-0.01
451.411	0.02
451.613	-0.04
451.814	0.04
452.016	0.02
452.217	-0.02
452.419	0.04
452.62	0.02
452.821	0.04
453.023	0.06
453.224	0.05
453.426	-0.01
453.627	0
453.828	0.02
454.03	0.02
454.231	0
454.432	-0.02
454.634	0.07
454.835	-0.01
455.036	-0.07
455.238	0.06
455.439	0.07
455.64	-0.03
455.841	-0.03
456.042	0.12
456.244	0.05
456.445	-0
456.646	-0.12
456.847	-0.05
457.048	0.02
457.249	0.04
457.45	0.21
457.651	-0.04
457.852	0.01
458.054	-0
458.255	0.01
458.456	0.02
458.657	0.03
458.858	-0.02
459.058	0.01
459.259	0.04
459.46	-0.04
459.661	-0.03
459.862	0.08
460.063	-0.05
460.264	0.06
460.465	-0.03
460.666	0.11
460.866	-0.02
461.067	0.02
461.268	0
461.469	-0.03
461.67	0.03
461.87	-0.05
462.071	-0.02
462.272	-0.05
462.473	-0.01
462.673	0.08
462.874	-0.01
463.075	-0.01
463.275	-0.04
463.476	0.02
463.676	0.02
463.877	-0
464.078	0
464.278	0.03
464.479	0.01
464.679	0.01
464.88	-0.02
465.08	0.04
465.281	-0.04
465.481	-0.04
465.682	-0.03
465.882	0.03
466.083	0.01
466.283	-0.03
466.483	0
466.684	-0.04
466.884	-0.01
467.085	0.01
467.285	0.05
467.485	-0.02
467.686	0.02
467.886	-0.04
468.086	0.03
468.286	0
468.487	-0
468.687	-0.05
468.887	0.01
469.087	-0
469.287	0.01
469.488	-0.05
469.688	0.06
469.888	0.02
470.088	-0.01
470.288	0.05
470.488	0.03
470.688	-0.03
470.888	-0.08
471.088	-0.01
471.288	0.07
471.488	0.04
471.688	0.05
471.888	-0.03
472.088	0.06
472.288	0
472.488	-0.02
472.688	-0.02
472.888	0.01
473.088	-0.03
473.288	0.02
473.488	0.01
473.688	0.07
473.887	0.01
474.087	-0.01
474.287	0.04
474.487	-0.03
474.687	-0
474.886	0.01
475.086	-0
475.286	0
475.486	0
475.685	0.02
475.885	-0.03
476.085	0
476.284	0.02
476.484	0.04
476.684	0.03
476.883	0.04
477.083	0.01
477.282	0.01
477.482	0.04
477.681	0.07
477.881	-0
478.08	-0.01
478.28	0.04
478.479	0.02
478.679	0.06
478.878	-0.03
479.078	-0.01
479.277	0
479.477	0.01
479.676	0.03
479.875	0.02
480.075	-0.03
480.274	0.03
480.473	0.04
480.673	-0.04
480.872	0.05
481.071	0.01
481.271	0.02
481.47	-0.02
481.669	0.01
481.868	-0.01
482.067	-0.02
482.267	-0
482.466	-0.03
482.665	-0.02
482.864	0.01
483.063	-0.03
483.262	0
483.461	0.05
483.661	0.02
483.86	0.01
484.059	0.02
484.258	-0.01
484.457	0.04
484.656	-0
484.855	0.02
485.054	-0.07
485.253	-0.01
485.452	-0.02
485.651	0.01
485.849	-0.01
486.048	-0.03
486.247	-0.03
486.446	0.01
486.645	-0.02
486.844	-0.02
487.043	-0
487.241	0.04
487.44	-0.02
487.639	0.01
487.838	0.03
488.037	0.01
488.235	0.06
488.434	-0.01
488.633	-0.04
488.831	0.02
489.03	0.02
489.229	0.01
489.427	-0.02
489.626	0.04
489.825	0.04
490.023	0
490.222	-0.04
490.42	0.02
490.619	0.02
490.817	-0.02
491.016	-0.01
491.214	0.01
491.413	-0.02
491.611	-0
491.81	0.02
492.008	0.02
492.207	0.03
492.405	0
492.604	-0.03
492.802	-0
493	0.01
493.199	-0.01
493.397	-0.01
493.595	0.01
493.794	0.02
493.992	0.05
494.19	-0.01
494.388	0.03
494.587	-0
494.785	0.02
494.983	-0.02
495.181	0.03
495.379	-0
495.578	-0.01
495.776	0
495.974	0.01
496.172	0
496.37	-0.02
496.568	-0.05
496.766	-0.03
496.964	0.02
497.162	-0.01
497.36	-0.04
497.558	0.02
497.756	0.02
497.954	-0
498.152	-0.02
498.35	-0.01
498.548	0.01
498.746	-0.01
498.944	-0.02
499.142	0
499.34	-0.03
499.538	-0.01
499.736	-0.02
499.933	0.03
500.131	0.03
500.329	0
500.527	0.04
500.725	0.05
500.922	0.02
501.12	0.03
501.318	0.02
501.516	-0.03
501.713	0.01
501.911	-0.02
502.109	-0.01
502.306	0.03
502.504	-0.01
502.701	-0.01
502.899	-0.01
503.097	0.03
503.294	0.03
503.492	0
503.689	0.01
503.887	0.02
504.084	0.06
504.282	0
504.479	-0.04
504.677	-0
504.874	-0.03
505.072	-0
505.269	-0.01
505.466	0.02
505.664	0.01
505.861	-0.04
506.059	-0.04
506.256	0.03
506.453	-0.01
506.651	0.04
506.848	0.02
507.045	-0.01
507.242	0
507.44	-0.02
507.637	-0.01
507.834	-0.03
508.031	0.03
508.229	-0.04
508.426	0.01
508.623	0.01
508.82	-0.03
509.017	-0.02
509.214	-0.01
509.411	0
509.608	-0.03
509.805	0
510.003	-0.02
510.2	-0
510.397	0.02
510.594	-0.02
510.791	-0.02
510.988	-0.02
511.184	0.01
511.381	-0.01
511.578	-0.02
511.775	0.02
511.972	0
512.169	-0.01
512.366	0.01
512.563	0.01
512.76	-0.01
512.956	0.02
513.153	-0.01
513.35	-0
513.547	-0.01
513.744	-0.02
513.94	-0.01
514.137	0.01
514.334	0
514.53	0
514.727	0.01
514.924	0.05
515.12	-0.01
515.317	-0.01
515.514	-0.03
515.71	-0.04
515.907	-0.02
516.103	0.01
516.3	0.01
516.497	0.04
516.693	0.03
516.89	-0
517.086	-0.01
517.283	0.03
517.479	0.01
517.676	-0.01
517.872	0.01
518.068	-0.02
518.265	0
518.461	-0.01
518.658	-0.03
518.854	0
519.05	0.01
519.247	-0.01
519.443	0.01
519.639	0.01
519.836	-0.01
520.032	-0
520.228	0
520.424	0.05
520.621	0.01
520.817	-0
521.013	0.03
521.209	0.01
521.405	0.03
521.601	0.02
521.798	0
521.994	0.03
522.19	-0.02
522.386	-0.04
522.582	-0
522.778	-0
522.974	0.01
523.17	-0.02
523.366	-0.01
523.562	0.01
523.758	0.01
523.954	-0.02
524.15	0.01
524.346	0.01
524.542	-0
524.738	-0.03
524.934	0.01
525.129	-0
525.325	0.01
525.521	-0
525.717	0.01
525.913	0
526.109	0.01
526.304	-0.01
526.5	0.02
526.696	0.01
526.892	-0
527.087	0.02
527.283	-0.02
527.479	0.02
527.674	-0.01
527.87	-0.02
528.066	-0.01
528.261	0.02
528.457	0.01
528.653	0
528.848	-0.01
529.044	0.02
529.239	-0.02
529.435	0.03
529.63	0
529.826	0.05
530.021	0.01
530.217	0.03
530.412	-0.01
530.608	-0.02
530.803	0
530.999	-0
531.194	-0.05
531.389	0.01
531.585	-0.03
531.78	0
531.975	-0
532.171	0.03
532.366	0.01
532.561	-0.01
532.757	-0.03
532.952	-0.01
533.147	0.02
533.342	-0.01
533.538	0
533.733	0.02
533.928	0
534.123	-0
534.318	-0.02
534.513	-0
534.709	0
534.904	-0.03
535.099	-0.01
535.294	0
535.489	0
535.684	-0.01
535.879	-0.03
536.074	0.02
536.269	-0.02
536.464	0
536.659	0
536.854	0
537.049	0.01
537.244	0.01
537.439	0.01
537.634	0.03
537.828	0.02
538.023	0
538.218	-0.04
538.413	-0.01
538.608	-0.02
538.803	0.01
538.997	-0.02
539.192	0.02
539.387	0.02
539.582	0.02
539.776	0.01
539.971	-0.01
540.166	-0
540.36	-0.03
540.555	-0.01
540.75	-0
540.944	0.01
541.139	-0.02
541.334	-0.02
541.528	0.01
541.723	0.01
541.917	0.01
542.112	-0.04
542.306	-0
542.501	-0
542.695	0.01
542.89	0
543.084	0.01
543.279	-0.01
543.473	-0
543.668	-0.01
543.862	0.01
544.056	0.02
544.251	-0.01
544.445	0.02
544.64	-0.01
544.834	-0.01
545.028	0.01
545.222	0.02
545.417	0.03
545.611	-0.01
545.805	0
546	0
546.194	0
546.388	-0.03
546.582	0.03
546.776	0.01
546.97	-0
547.165	0.03
547.359	0.03
547.553	-0.02
547.747	0
547.941	-0.01
548.135	-0
548.329	0.03
548.523	0.03
548.717	0.01
548.911	-0.01
549.105	-0.01
549.299	0
549.493	0.01
549.687	-0.01
549.881	0.01
550.075	-0.01
550.269	-0.02
550.463	0.02
550.657	-0.02
550.85	0.03
551.044	-0.04
551.238	0.01
551.432	-0.03
551.626	-0.02
551.82	-0.01
552.013	-0
552.207	-0.01
552.401	0.02
552.594	-0
552.788	0.01
552.982	0.03
553.176	-0.02
553.369	0.01
553.563	0
553.756	-0.03
553.95	-0.02
554.144	0.01
554.337	0.04
554.531	0.02
554.724	0
554.918	-0.02
555.111	0.04
555.305	-0
555.498	0.04
555.692	0.02
555.885	0
556.079	0.02
556.272	-0
556.466	0.02
556.659	0.01
556.852	-0.01
557.046	0.02
557.239	0.03
557.432	-0.01
557.626	-0.03
557.819	0.02
558.012	0.03
558.206	0.01
558.399	0.01
558.592	0.01
558.785	-0.01
558.979	-0.01
559.172	0.01
559.365	0.04
559.558	-0.02
559.751	-0.01
559.944	0.02
560.138	-0.01
560.331	0.01
560.524	-0.01
560.717	0.02
560.91	-0.01
561.103	0.03
561.296	0.01
561.489	0.01
561.682	0.01
561.875	0.05
562.068	0.04
562.261	0.01
562.454	0.03
562.647	0.03
562.84	0.01
563.032	0
563.225	0.02
563.418	-0
563.611	-0
563.804	-0.01
563.997	-0.01
564.19	-0.02
564.382	-0
564.575	-0
564.768	-0.02
564.961	0.01
565.153	-0.01
565.346	0.02
565.539	0.04
565.731	0.02
565.924	0.04
566.117	0.01
566.309	-0.01
566.502	0.02
566.695	0.01
566.887	0.02
567.08	-0
567.272	0.02
567.465	0.02
567.657	0.01
567.85	0.02
568.042	0.03
568.235	0.04
568.427	0
568.62	0.01
568.812	0.03
569.005	0.02
569.197	-0.04
569.389	-0
569.582	0.02
569.774	0.02
569.966	-0
570.159	0.01
570.351	0.02
570.543	-0.01
570.736	0.03
570.928	-0.01
571.12	0.02
571.312	-0
571.505	-0.01
571.697	0.05
571.889	-0
572.081	0.02
572.273	0.01
572.465	0.05
572.658	-0
572.85	0.03
573.042	0.01
573.234	0.02
573.426	0.03
573.618	-0.02
573.81	0.03
574.002	0.05
574.194	0.06
574.386	-0.02
574.578	-0.05
574.77	0.01
574.962	0.01
575.154	-0
575.346	0
575.538	0.03
575.729	-0
575.921	0.01
576.113	0.01
576.305	0.06
576.497	0.01
576.689	0.02
576.88	0.02
577.072	0.04
577.264	0.02
577.456	-0.01
577.647	-0.03
577.839	0.01
578.031	0.08
578.223	0
578.414	0.01
578.606	0.02
578.798	0.03
578.989	0.01
579.181	0.02
579.372	0.04
579.564	0.01
579.755	0.05
579.947	0.06
580.139	0.08
580.33	-0.04
580.522	0.03
580.713	-0.03
580.905	0.05
581.096	0.06
581.287	0.03
581.479	0.05
581.67	0.07
581.862	0.05
582.053	0.03
582.244	0.01
582.436	0.07
582.627	0.05
582.818	0.04
583.01	0
583.201	0.06
583.392	0.06
583.583	0.06
583.775	0.04
583.966	0.06
584.157	0.06
584.348	0.05
584.54	0.05
584.731	0.1
584.922	0.05
585.113	0.04
585.304	0.08
585.495	0.13
585.686	0.08
585.877	0.1
586.068	0.07
586.259	0.08
586.45	0.08
586.641	0.06
586.832	0.03
587.023	0.1
587.214	0.08
587.405	0.08
587.596	0.06
587.787	0.12
587.978	0.11
588.169	0.09
588.36	0.06
588.551	0.09
588.742	0.07
588.932	0.08
589.123	0.08
589.314	0.13
589.505	0.11
589.696	0.11
589.886	0.1
590.077	0.08
590.268	0.13
590.458	0.08
590.649	0.09
590.84	0.18
591.03	0.13
591.221	0.1
591.412	0.1
591.602	0.15
591.793	0.16
591.984	0.11
592.174	0.11
592.365	0.23
592.555	0.12
592.746	0.15
592.936	0.17
593.127	0.16
593.317	0.19
593.508	0.14
593.698	0.16
593.889	0.18
594.079	0.18
594.269	0.16
594.46	0.18
594.65	0.2
594.84	0.19
595.031	0.17
595.221	0.18
595.411	0.17
595.602	0.2
595.792	0.22
595.982	0.2
596.172	0.28
596.363	0.24
596.553	0.23
596.743	0.25
596.933	0.24
597.123	0.26
597.314	0.24
597.504	0.27
597.694	0.32
597.884	0.27
598.074	0.27
598.264	0.26
598.454	0.3
598.644	0.29
598.834	0.31
599.024	0.24
599.214	0.31
599.404	0.35
599.594	0.34
599.784	0.32
599.974	0.38
600.164	0.36
600.354	0.31
600.544	0.29
600.734	0.36
600.924	0.38
601.114	0.37
601.303	0.38
601.493	0.43
601.683	0.37
601.873	0.37
602.063	0.38
602.252	0.48
602.442	0.39
602.632	0.42
602.821	0.44
603.011	0.48
603.201	0.45
603.39	0.45
603.58	0.48
603.77	0.5
603.959	0.54
604.149	0.52
604.339	0.52
604.528	0.57
604.718	0.58
604.907	0.55
605.097	0.54
605.286	0.55
605.476	0.61
605.665	0.64
605.855	0.6
606.044	0.69
606.234	0.63
606.423	0.65
606.612	0.61
606.802	0.69
606.991	0.69
607.181	0.72
607.37	0.69
607.559	0.7
607.749	0.75
607.938	0.77
608.127	0.75
608.316	0.81
608.506	0.83
608.695	0.87
608.884	0.83
609.073	0.86
609.263	0.92
609.452	0.94
609.641	0.92
609.83	0.89
610.019	0.98
610.208	0.97
610.397	1
610.586	1.03
610.775	1.05
610.965	1.06
611.154	1.06
611.343	1.13
611.532	1.13
611.721	1.15
611.91	1.18
612.099	1.22
612.287	1.24
612.476	1.21
612.665	1.3
612.854	1.32
613.043	1.37
613.232	1.44
613.421	1.36
613.61	1.5
613.798	1.43
613.987	1.55
614.176	1.6
614.365	1.6
614.554	1.65
614.742	1.69
614.931	1.62
615.12	1.77
615.309	1.74
615.497	1.78
615.686	1.77
615.875	1.89
616.063	1.86
616.252	1.94
616.44	1.99
616.629	1.99
616.818	2.06
617.006	2.02
617.195	2.12
617.383	2.11
617.572	2.13
617.76	2.21
617.949	2.25
618.137	2.34
618.326	2.37
618.514	2.3
618.703	2.34
618.891	2.48
619.079	2.4
619.268	2.52
619.456	2.47
619.644	2.6
619.833	2.53
620.021	2.61
620.209	2.6
620.398	2.72
620.586	2.7
620.774	2.78
620.962	2.77
621.151	2.88
621.339	2.87
621.527	2.81
621.715	2.89
621.903	2.88
622.092	2.89
622.28	3.03
622.468	2.88
622.656	3
622.844	2.98
623.032	3.06
623.22	2.94
623.408	3.11
623.596	3.07
623.784	3.07
623.972	2.98
624.16	3.03
624.348	3.06
624.536	3.07
624.724	2.99
624.912	3.02
625.1	3
625.288	2.94
625.476	2.86
625.664	2.88
625.851	2.75
626.039	2.83
626.227	2.76
626.415	2.74
626.603	2.61
626.79	2.61
626.978	2.6
627.166	2.51
627.354	2.39
627.541	2.36
627.729	2.26
627.917	2.34
628.104	2.25
628.292	2.14
628.48	2.12
628.667	2.06
628.855	1.99
629.042	1.97
629.23	1.84
629.418	1.73
629.605	1.75
629.793	1.66
629.98	1.58
630.168	1.51
630.355	1.46
630.543	1.45
630.73	1.34
630.917	1.32
631.105	1.35
631.292	1.26
631.48	1.17
631.667	1.22
631.854	1.07
632.042	1.07
632.229	0.93
632.416	0.98
632.604	0.96
632.791	0.86
632.978	0.91
633.165	0.88
633.353	0.86
633.54	0.8
633.727	0.66
633.914	0.7
634.101	0.62
634.289	0.73
634.476	0.59
634.663	0.59
634.85	0.58
635.037	0.55
635.224	0.52
635.411	0.58
635.598	0.54
635.785	0.49
635.972	0.44
636.159	0.46
636.346	0.41
636.533	0.45
636.72	0.41
636.907	0.37
637.094	0.37
637.281	0.33
637.468	0.38
637.655	0.32
637.842	0.31
638.029	0.27
638.215	0.34
638.402	0.33
638.589	0.26
638.776	0.27
638.963	0.23
639.149	0.28
639.336	0.34
639.523	0.29
639.709	0.24
639.896	0.21
640.083	0.27
640.27	0.23
640.456	0.19
640.643	0.21
640.829	0.12
641.016	0.19
641.203	0.16
641.389	0.2
641.576	0.2
641.762	0.16
641.949	0.1
642.135	0.15
642.322	0.16
642.508	0.09
642.695	0.12
642.881	0.11
643.068	0.14
643.254	0.17
643.441	0.19
643.627	0.09
643.813	0.11
644	0.12
644.186	0.09
644.372	0.12
644.559	0.15
644.745	0.09
644.931	0.09
645.118	0.08
645.304	0.11
645.49	0.05
645.676	0.06
645.862	0.1
646.049	0.14
646.235	0.08
646.421	0.14
646.607	0.12
646.793	0.03
646.979	0.07
647.165	0.07
647.352	0.04
647.538	0.06
647.724	0.05
647.91	0.05
648.096	0.05
648.282	0.08
648.468	0.04
648.654	0.04
648.84	0.07
649.026	0.07
649.212	0.03
649.397	0.04
649.583	0.03
649.769	0.07
649.955	0.03
650.141	0.06
650.327	0.09
650.513	0.01
650.698	0.06
650.884	-0.04
651.07	0.05
651.256	0.01
651.442	0.02
651.627	0.01
651.813	0.08
651.999	0.05
652.184	0.09
652.37	0.04
652.556	0
652.741	0.08
652.927	-0.03
653.113	0.04
653.298	0.03
653.484	0.01
653.669	0
653.855	0.03
654.04	0.05
654.226	0.02
654.412	0
654.597	-0
654.782	0.03
654.968	0.04
655.153	0.02
655.339	0.01
655.524	-0
655.71	0.04
655.895	0.01
656.08	0.01
656.266	0.06
656.451	0.04
656.636	-0.02
656.822	0.02
657.007	-0.03
657.192	0
657.378	-0.04
657.563	0.04
657.748	0.05
657.933	0.01
658.118	0.02
658.304	0.01
658.489	0.05
658.674	0.05
658.859	-0.02
659.044	-0.01
659.229	0.01
659.414	-0
659.599	0.04
659.785	-0.04
659.97	-0.01
660.155	0.01
660.34	-0
660.525	-0.03
660.71	-0.01
660.895	0.05
661.08	-0
661.264	-0.01
661.449	0.03
661.634	0.06
661.819	0.02
662.004	0.05
662.189	-0.04
662.374	0.01
662.559	-0.03
662.743	-0.04
662.928	0
663.113	-0.01
663.298	-0.02
663.483	-0.01
663.667	0.05
663.852	-0.01
664.037	0.04
664.221	0
664.406	0.03
664.591	-0
664.775	-0.01
664.96	0.01
665.145	0.01
665.329	0.06
665.514	0.01
665.698	-0.01
665.883	-0.05
666.068	0.06
666.252	0.05
666.437	-0.07
666.621	0.04
666.806	0.02
666.99	-0
667.174	-0.03
667.359	0.1
667.543	-0.01
667.728	-0.02
667.912	-0.05
668.096	0.06
668.281	-0.02
668.465	-0
668.649	0
668.834	-0
669.018	-0.01
669.202	-0.03
669.387	-0.04
669.571	0.03
669.755	-0.07
669.939	0.01
670.124	-0
670.308	0.07
670.492	0.06
670.676	0.01
670.86	-0.01
671.044	-0.05
671.228	0.05
671.413	-0.02
671.597	0.01
671.781	-0
671.965	0
672.149	-0.01
672.333	-0
672.517	0.01
672.701	0.07
672.885	0.01
673.069	-0.08
673.253	0.04
673.437	0.02
673.621	-0.03
673.804	-0.01
673.988	-0.07
674.172	0.01
674.356	-0.06
674.54	-0
674.724	0.08
674.908	-0.02
675.091	0.03
675.275	0
675.459	0.04
675.643	0.01
675.826	-0.01
676.01	0.03
676.194	-0.03
676.377	0.02
676.561	0.03
676.745	-0.01
676.928	0.03
677.112	0.03
677.296	-0.02
677.479	-0
677.663	-0.04
677.846	0.05
678.03	-0.01
678.213	0.02
678.397	0.02
678.58	-0.07
678.764	0.02
678.947	-0.04
679.131	-0.02
679.314	0.04
679.498	-0.01
679.681	0.03
679.865	0.05
680.048	-0.05
680.231	0.01
680.415	0.02
680.598	-0.04
680.781	-0.06
680.965	-0.05
681.148	0.04
681.331	-0.01
681.514	-0.01
681.698	-0.02
681.881	0.05
682.064	-0
682.247	-0.02
682.43	-0.05
682.614	0.05
682.797	0.01
682.98	0.03
683.163	-0.03
683.346	0.02
683.529	-0
683.712	-0.03
683.895	0.05
684.078	-0.02
684.261	0.03
684.444	0.04
684.627	0.03
684.81	-0
684.993	-0
685.176	0.06
685.359	-0.06
685.542	-0.01
685.725	0.03
685.908	0
686.091	0.01
686.274	0.01
686.457	0.04
686.639	-0.03
686.822	0.02
687.005	0.04
687.188	0.02
687.371	0.09
687.553	0.05
687.736	0.06
687.919	0.05
688.102	0.06
688.284	-0
688.467	0.02
688.65	0
688.832	-0.06
689.015	0.02
689.197	-0.03
689.38	0.11
689.563	0.1
689.745	-0.02
689.928	-0.05
690.11	-0.03
690.293	0.03
690.475	-0.03
690.658	-0.01
690.84	-0.04
691.023	0.03
691.205	-0
691.388	0.01
691.57	0.02
691.752	-0.03
691.935	-0.05
692.117	0
692.3	0.02
692.482	-0.03
692.664	0.01
692.847	0.01
693.029	0.04
693.211	0.01
693.393	0.01
693.576	-0.04
693.758	-0.02
693.94	-0.03
694.122	-0.05
694.304	-0
694.487	0.03
694.669	0.06
694.851	-0.06
695.033	-0.03
695.215	-0.03
695.397	-0.02
695.579	0
695.761	-0.03
695.943	-0.06
696.125	0.05
696.308	0.01
696.49	-0.07
696.671	0.12
696.853	-0.04
697.035	0.1
697.217	-0.03
697.399	0.04
697.581	-0.03
697.763	0.03
697.945	-0.07
698.127	0.01
698.309	0.03
698.491	0.02
698.672	0.05
698.854	0.04
699.036	0.14
699.218	-0
699.399	0.05
699.581	0.07
699.763	-0.02
699.945	-0.06
700.126	-0.04
700.308	0.01
700.49	-0.02
700.671	-0.1
700.853	0.02
701.035	0.01
701.216	-0.04
701.398	-0.06
701.579	-0
701.761	0.06
701.943	0.02
702.124	-0.02
702.306	0.01
702.487	0.13
702.669	0.02
702.85	-0.08
703.031	-0.03
703.213	0.06
703.394	0.04
703.576	0.02
703.757	0.05
703.938	0
704.12	0.11
704.301	0.03
704.483	-0.06
704.664	0
704.845	0.05
705.026	0.08
705.208	0.04
705.389	-0.03
705.57	0.01
705.751	0.02
705.933	0.04
706.114	0.13
706.295	-0
706.476	-0.09
706.657	0.07
706.838	0.03
707.02	0.05
707.201	-0.01
707.382	-0.04
707.563	0.04
707.744	-0.01
707.925	-0.05
708.106	-0.03
708.287	0.06
708.468	0.07
708.649	0.01
708.83	0.07
709.011	0
709.192	0.03
709.373	-0.06
709.554	-0.03
709.734	0.11
709.915	-0.01
710.096	-0.06
710.277	-0.07
710.458	-0
710.639	0.03
710.819	-0.09
711	0.04
711.181	0.09
711.362	0.05
711.542	0.04
711.723	-0
711.904	0.07
712.085	0.01
712.265	0.01
712.446	-0.04
712.627	-0
712.807	-0
712.988	-0.04
713.168	-0.05
713.349	0.08
713.53	-0.14
713.71	-0.1
713.891	-0.1
714.071	-0.03
714.252	-0.04
714.432	-0.05
714.613	-0.05
714.793	0.04
714.974	0.04
715.154	-0
715.334	0.06
715.515	0.1
715.695	-0.06
715.876	-0.04
716.056	0.05
716.236	-0
716.417	-0
716.597	-0.09
716.777	0.14
716.957	-0.05
717.138	-0.02
717.318	0.02
717.498	-0.08
717.678	-0.08
717.859	-0
718.039	-0.13
718.219	0.03
718.399	0.03
718.579	-0.03
718.759	-0.09
718.939	0.04
719.12	0.02
719.3	0.01
719.48	-0.05
719.66	-0.12
719.84	0.05
720.02	-0.05
720.2	-0.06
720.38	0.04
720.56	0.04
720.74	0.01
720.92	0.05
721.1	0.12
721.279	0.15
721.459	0.04
721.639	-0.06
721.819	0.05
721.999	0.02
722.179	0.08
722.359	-0.08
722.538	0.03
722.718	-0.01
722.898	0.01
723.078	-0.04
723.257	-0.06
723.437	0.02
723.617	0.01
723.797	-0.02
723.976	0.09
724.156	-0.06
724.336	0.04
724.515	0.1
724.695	-0.13
724.874	0
725.054	-0.01
725.234	-0.05
725.413	0.03
725.593	0.03
725.772	0.07
725.952	-0.02
726.131	-0.06
726.311	0
726.49	-0.03
726.67	0.01
726.849	-0.04
727.028	-0.04
727.208	-0
727.387	-0.01
727.567	-0.06
727.746	0.03
727.925	-0.08
728.105	-0.05
728.284	-0.05
728.463	-0.07
728.643	0.09
728.822	-0.09
729.001	-0.04
729.18	-0.03
729.359	0.07
729.539	-0.01
729.718	0.04
729.897	0.06
730.076	-0.02
730.255	-0.07
730.434	0.02
730.614	0.04
730.793	0.05
730.972	0.02
731.151	0.01
731.33	0.05
731.509	0.08
731.688	0.03
731.867	0.12
732.046	-0.12
732.225	0.14
732.404	-0.08
732.583	0.02
732.762	0.02
732.941	0.13
733.12	0.05
733.298	-0.02
733.477	0.08
733.656	-0.01
733.835	-0.13
734.014	0.12
734.193	-0.11
734.371	0.1
734.55	0.08
734.729	-0.08
734.908	0.05
735.086	0.04
735.265	0.11
735.444	-0.15
735.623	-0.14
735.801	-0.06
735.98	-0.03
736.159	-0.04
736.337	0.12
736.516	0.01
736.694	-0.05
736.873	-0.05
737.052	0.05
737.23	0.13
737.409	0.01
737.587	0.2
737.766	-0.15
737.944	-0.11
738.123	0.03
738.301	0.01
738.479	-0.09
738.658	0.03
738.836	-0.18
739.015	-0.01
739.193	0.15
739.371	-0.18
739.55	-0.09
739.728	-0.07
739.906	0.01
740.085	0.16
740.263	0.14
740.441	-0.18
740.62	0.06
740.798	0.05
740.976	-0.02
741.154	-0.02
741.332	0.05
741.511	-0.05
741.689	0.12
741.867	0.1
742.045	-0.1
742.223	0.02
742.401	-0.07
742.579	-0.01
742.757	0.06
742.935	-0.09
743.114	-0.02
743.292	-0.01
743.47	0.03
743.648	0.03
743.826	0.1
744.004	0.1
744.181	0.1
744.359	0.01
744.537	0.04
744.715	0
744.893	0.09
745.071	0.01
745.249	-0.12
745.427	-0.03
745.605	0.01
745.782	-0.02
745.96	0.07
746.138	0.08
746.316	0.09
746.493	-0.06
746.671	-0
746.849	-0.03
747.027	0.13
747.204	-0.03
747.382	0.03
747.56	-0.11
747.737	-0.18
747.915	-0.12
748.093	0.07
748.27	-0.08
748.448	-0.1
748.625	-0.11
748.803	-0.03
748.98	-0.13
749.158	-0.05
749.335	0.02
749.513	-0.06
749.69	-0.04
749.868	0.06
750.045	0.06
750.223	-0.04
750.4	-0.23
750.578	0.23
750.755	-0.06
750.932	-0.09
751.11	0.15
751.287	-0.13
751.464	0.16
751.642	-0.04
751.819	0.04
751.996	-0.1
752.173	-0.09
752.351	-0.12
752.528	0.07
752.705	0.11
752.882	-0.06
753.06	-0.01
753.237	0.05
753.414	0.06
753.591	0.2
753.768	-0.07
753.945	-0.03
754.122	-0.14
754.299	0.07
754.476	-0.13
754.654	-0
754.831	0.09
755.008	0.03
755.185	-0.1
755.362	-0.11
755.539	0
755.716	-0.02
755.892	0.05
756.069	0.02
756.246	-0.07
756.423	-0.07
756.6	0.13
756.777	0.03
756.954	0.15
757.131	0.05
757.307	-0.05
757.484	-0.06
757.661	-0
757.838	-0
758.015	-0.13
758.191	0.05
758.368	-0.02
758.545	0.09
758.721	0.04
758.898	-0.02
759.075	-0.01
759.251	0.07
759.428	0.12
759.605	-0.13
759.781	-0.05
759.958	0.05
760.134	-0.02
760.311	-0
760.488	0.12
760.664	0.05
760.841	-0.07
761.017	-0.06
761.194	0.1
761.37	0.11
761.547	0.02
761.723	-0.07
761.899	0.12
762.076	-0.07
762.252	-0.13
762.429	-0.01
762.605	0.08
762.781	-0.01
762.958	0.1
763.134	0
763.31	-0.1
763.486	0.16
763.663	-0.18
763.839	0.14
764.015	-0.14
764.191	-0.11
764.368	0.02
764.544	0.05
764.72	-0.01
764.896	0.03
765.072	0.06
765.248	0.05
765.425	0.07
765.601	0.1
765.777	-0.03
765.953	-0.13
766.129	0.02
766.305	-0.07
766.481	0.08
766.657	0.03
766.833	0.1
767.009	-0.08
767.185	-0.11
767.361	-0.01
767.537	-0.08
767.713	0.2
767.889	-0.05
768.065	0.04
768.24	0.09
768.416	0.08
768.592	-0.08
768.768	-0.11
768.944	0.12
769.12	-0.09
769.295	-0.07
769.471	-0.04
769.647	0
769.823	0.27
769.998	-0.08
770.174	-0.14
770.35	0.35
770.525	0.26
770.701	0.09
770.877	0.04
771.052	-0.15
771.228	0.21
771.403	0.09
771.579	0.1
771.755	0.23
771.93	-0.02
772.106	-0.12
772.281	-0.11
772.457	0.03
772.632	-0.03
772.808	-0.21
772.983	-0.01
773.159	-0.15
773.334	0.16
773.509	-0.04
773.685	-0.06
773.86	0.19
774.036	0.22
774.211	0.12
774.386	0.03
774.562	0.12
774.737	0.06
774.912	-0.06
775.087	0.15
775.263	-0.01
775.438	0.01
775.613	-0.16
775.788	-0.04
775.964	0.09
776.139	0.43
776.314	-0.14
776.489	0.05
776.664	-0.02
776.839	-0.06
777.014	0.01
777.19	0.27
777.365	0.2
777.54	0.24
777.715	-0.05
777.89	0
778.065	-0.03
778.24	0.11
778.415	0.17
778.59	-0.12
778.765	-0.11
778.94	-0.06
779.115	0.03
779.289	-0.06
779.464	0.12
779.639	0.08
779.814	-0
779.989	-0.13
780.164	0.21
780.339	-0
780.513	-0.09
780.688	-0.14
780.863	-0.07
781.038	0.25
781.212	-0.02
781.387	0.05
781.562	0.23
781.737	-0.14
781.911	0.29
782.086	0.11
782.261	-0.03
782.435	0.28
782.61	-0.18
782.784	-0.13
782.959	0.22
783.134	-0.15
783.308	-0.28
783.483	-0.01
783.657	0.41
783.832	0.31
784.006	-0.25
784.181	0.09
784.355	0.07
784.53	-0.1
784.704	-0.22
784.878	0.1
785.053	0.11
785.227	0.2
785.402	0.41
785.576	0.01
785.75	0.21
785.925	-0.04
786.099	-0.01
786.273	0.08
786.448	-0.01
786.622	0.08
786.796	0.05
786.97	-0.03
787.145	0.48
787.319	-0.29
787.493	-0.11
787.667	-0.23
787.841	0.13
788.015	0.1
788.19	0.05
788.364	0.14
788.538	0.17
788.712	0.2
788.886	-0.07
789.06	0.32
789.234	0.35
789.408	-0.13
789.582	0.09
789.756	0.09
789.93	-0.15
790.104	-0.26
790.278	-0.17
790.452	-0.26
790.626	0.22
790.8	-0.16
790.973	0.19
791.147	0.14
791.321	0.1
791.495	0.26
791.669	0.09
791.843	0.16
792.016	0.3
792.19	0.37
792.364	-0.02
792.538	0.44
792.711	0.15
792.885	-0.03
793.059	-0.1
793.233	-0.44
793.406	0.27
793.58	0.07
793.754	-0.06
793.927	-0.12
794.101	0.14
794.274	-0.01
794.448	0.05
794.622	-0.19
794.795	0.3
794.969	-0.09
795.142	0.26
795.316	-0.01
795.489	-0.13
795.663	0.24
795.836	0.07
796.009	-0.32
796.183	0.23
796.356	0.19
796.53	0.15
796.703	-0.14
796.876	0.38
797.05	-0.06
797.223	-0.06
797.396	0.24
797.57	0.15
797.743	0.19
797.916	0.19
798.09	0.04
798.263	0.29
798.436	0.28
798.609	-0.02
798.782	-0.08
798.956	0.08
799.129	0.02
799.302	-0.12
799.475	-0.14
799.648	-0.14
799.821	-0.07
799.994	0.14
800.167	-0.52
800.34	0.18
800.514	0.03
800.687	-0.05
800.86	-0.22
801.033	0.1
801.206	0.33
801.379	-0.15
801.551	0.15
801.724	0.13
801.897	0.3
802.07	-0.17
802.243	-0.52
802.416	-0.01
802.589	-0.14
802.762	0.32
802.935	-0.02
803.107	0.22
803.28	0.25
803.453	0.59
803.626	0.04
803.798	0.18
803.971	-0.17
804.144	0.08
804.317	0.14
804.489	0.3
804.662	-0.32
804.835	0.03
805.007	-0.33
805.18	0.14
805.353	0.02
805.525	0.14
805.698	-0.29
805.87	0.34
806.043	0.13
806.215	-0.28
806.388	-0.26
806.56	-0.07
806.733	0.22
806.905	0.19
807.078	0.04
807.25	-0.33
807.423	0.34
807.595	0.13
807.768	-0.14
807.94	0.27
808.112	0.04
808.285	-0.16
808.457	0.17
808.629	-0.22
808.802	0.33
808.974	0.38
809.146	-0.18
809.318	-0.15
809.491	0.01
809.663	0.56
809.835	-0.01
810.007	-0.02
810.18	0.48
810.352	-0.33
810.524	-0.36
810.696	0.27
810.868	0.15
811.04	-0.2
811.212	0.02
811.384	0.42
811.556	-0.07
811.728	-0.21
811.901	0.83
812.073	-0.18
812.245	-0.01
812.417	0.02
812.589	-0.17
812.76	-0.06
812.932	0.04
813.104	0.56
813.276	-0.18
813.448	0.09
813.62	0.1
813.792	0.33
813.964	0.04
814.136	0.13
814.307	0.04
814.479	-0.22
814.651	0.05
814.823	0.73
814.995	0.31
815.166	-0
815.338	-0.02
815.51	-0.63
815.681	0.53
815.853	-0.06
816.025	-0.19
816.196	1.01
816.368	0.21
816.54	-0.45
816.711	-0.29
816.883	0.51
817.054	0.93
817.226	-0.59
817.398	0.31
817.569	-0.22
817.741	0.38
817.912	0.24
818.084	0.01
818.255	0.46
818.426	-0.3
818.598	-0.08
818.769	-0.35
818.941	0.66
819.112	0.68
819.283	0.32
819.455	0.07
819.626	0.08
819.798	0.24
819.969	0.11
820.14	0.11
820.311	-0.11
820.483	0.77
820.654	-0.01
820.825	0.02
820.996	0.09
821.168	-0.22
821.339	-0.07
821.51	-0.62
821.681	-0.13
821.852	0.1
822.023	-0.22
822.195	-0.48
822.366	0.18
822.537	0.22
822.708	-0.22
822.879	-0.34
823.05	0.62
823.221	-0.32
823.392	0.26
823.563	-0.08
823.734	0.01
823.905	-0.08
824.076	-0.21
824.247	-0.35
824.418	0.21
824.589	0.44
824.759	0.08
824.93	0.21
825.101	-1.05
825.272	0.67
825.443	0.89
825.614	0.61
825.784	-0.82
825.955	0.99
826.126	0.57
826.297	-0.19
826.467	0.52
826.638	1.13
826.809	-1.33
826.98	0.28
827.15	0.41
827.321	0.23
827.492	0.05
827.662	0.43
827.833	1.34
828.003	0.5
828.174	-0.63
828.345	-0.23
828.515	0.17
828.686	0.23
828.856	0.07
829.027	-0.3
829.197	0.02
829.368	0.28
829.538	-0.54
829.709	-0.06
829.879	-0.16
830.049	0.06
830.22	-0.26
830.39	-0.11
830.56	0.47
830.731	-0.41
830.901	-0.71
831.072	0.09
831.242	0.14
831.412	0.09
831.582	0.09
831.753	-0.75
831.923	0.06
832.093	-0.1
832.263	0.02
832.434	-0.23
832.604	-0.33
832.774	-0
832.944	-0.5
833.114	-0
833.284	0.05
833.454	-0.34
833.624	-0.23
833.795	-0.46
833.965	0.72
834.135	0.42
834.305	-0.37
834.475	-0.6
834.645	0.21
834.815	-0.65
834.985	-0.68
835.155	-0.24
835.325	0.49
835.494	0.34
835.664	-0.47
835.834	-0.48
836.004	0.06
836.174	0.12
836.344	-0.09
836.514	-1.22
836.684	0.66
836.853	0.51
837.023	-0.19
837.193	-0.31
837.363	0.8
837.532	0.28
837.702	0.18
837.872	-0.08
838.041	0.6
838.211	1.43
838.381	-0.6
838.55	-0.17
838.72	2.04
838.89	1.24
839.059	-0.26
839.229	-0.02
839.398	0.92
839.568	0.3
839.738	-0.56
839.907	0.9
840.077	0.16
840.246	-0.5
840.416	-1.18
840.585	-0.58
840.755	0.5
840.924	0.06
841.093	-0.47
841.263	0.15
841.432	0.15
841.602	-0.67
841.771	-1.28
841.94	0.04
842.11	1.25
842.279	1.27
842.448	-0.07
842.617	0.03
842.787	1.82
842.956	-0.69
843.125	-0.47
843.294	-0.12
843.464	0.73
843.633	0.03
843.802	-0.26
843.971	0.28
844.14	0.76
844.309	0.99
844.479	-1.04
844.648	-0.78
844.817	-0.12
844.986	0.83
845.155	-1.08
845.324	0.47
845.493	0.09
845.662	-0.35
845.831	-0.58
846	0.41
846.169	-0.32
846.338	0.98
846.507	0.17
846.676	0.22
846.844	-0.49
847.013	0.92
847.182	0.34
847.351	-0.52
847.52	0.16
847.689	0.7
847.858	0.47
848.026	-0.28
848.195	-0.73
848.364	-0.64
848.533	-0.24
848.701	0.18
848.87	-0.2
849.039	0.41
849.207	0.59
849.376	1.57
849.545	1.49
849.713	0.41
849.882	-0.15
850.051	-0.3
850.219	-0.01
850.388	0.43
850.556	-0.27
850.725	-0.49
850.893	0.93
851.062	-0.83
851.23	0.47
851.399	-1.09
851.567	-1.05
851.736	-1
851.904	-0.4
852.073	-0.66
852.241	0.68
852.41	0.92
852.578	-0.74
852.746	-1.09
852.915	0.86
853.083	0.27
853.251	-1.17
853.42	0.07
853.588	0.91
853.756	1.07
853.924	0.15
854.093	0.05
854.261	-0.85
854.429	-0.7
854.597	0.24
854.765	-0.16
854.934	0.48
855.102	1.64
855.27	0.61
855.438	0.72
855.606	1.74
855.774	1.01
855.942	-1.85
856.11	-0.88
856.278	0.57
856.446	1.14
856.614	-0.49
856.782	-0.74
856.95	1.71
857.118	1.79
857.286	0.42
857.454	0.08
857.622	1.66
857.79	-0.17
857.958	-0.6
858.126	0.15
858.294	-3.23
858.462	0.7
858.629	0.63
858.797	-0.75
858.965	0.1
859.133	-0.28
859.301	0.03
859.468	0.34
859.636	-0.4
859.804	2.76
859.971	0.56
860.139	0.08
860.307	1.34
860.474	0.14
860.642	-0.72
860.81	0.18
860.977	1.09
861.145	1.2
861.313	-0.51
861.48	-0.18
861.648	1.07
861.815	-0.51
861.983	-0.92
862.15	0.07
862.318	0.85
862.485	0.51
862.653	-0.39
862.82	-0.64
862.988	2.16
863.155	0.82
863.322	-0.63
863.49	-1.09
863.657	0.7
863.824	1.89
863.992	-0.71
864.159	0.92
864.326	1.83
864.494	-0.71
864.661	2.11
864.828	-2.05
864.996	2.08
865.163	2.09
865.33	-0.62
865.497	-0.98
865.664	-0.44
865.832	-1.69
865.999	0.91
866.166	-0.31
866.333	-0.32
866.5	-0.23
866.667	0.07
866.834	0.57
867.001	1.93
867.168	-0.11
867.335	-0.1
867.502	-1.28
867.669	0.78
867.836	2.5
868.003	0.92
868.17	0.94
868.337	0.23
868.504	2.97
868.671	-2.22
868.838	-0.38
869.005	-0.35
869.172	1.72
869.339	-0.5
869.505	0.23
869.672	0.26
869.839	1.69
870.006	1.11
870.173	-1.97
870.339	1.96
870.506	2.64
870.673	-0.53
870.84	1
871.006	0.64
871.173	-0.23
871.34	2.16
871.506	-0.44
871.673	0.75
871.839	-1.33
872.006	-0.45
872.173	-1.15
872.339	-0.18
872.506	2.14
872.672	0.09
872.839	-0.03
873.005	0.51
873.172	2.77
873.338	1.52
873.505	0.37
873.671	0.46
873.838	1.8
874.004	-1.8
874.171	-1.57
874.337	-1.06
874.503	1.07
874.67	-0.55
874.836	-0.37
875.002	3.45
875.169	1.03
875.335	0.49
875.501	0.6
875.668	0.52
875.834	-0.4
876	0.01
876.166	2.15
876.332	1.94
876.499	3.43
876.665	-0.5
876.831	0.66
876.997	2.09
877.163	1.24
877.329	-1.97
877.495	2.49
877.662	1.12
877.828	2.83
877.994	0.43
878.16	-1.6
878.326	-0.53
878.492	2.39
878.658	-0.77
878.824	1.31
878.99	1.92
879.156	-1.04
879.322	2
879.487	-0.44
879.653	0.14
879.819	0.19
879.985	-1.22
880.151	-0.12
880.317	1.6
880.483	-0.54
880.648	2.49
880.814	-2.87
880.98	0.55
881.146	-1.89
881.312	-0.28
881.477	0.89
881.643	0.31
881.809	2.17
881.974	2.45
882.14	-2.27
882.306	0.61
882.471	3.59
882.637	-1.67
882.803	1.75
882.968	2.81
883.134	3.41
883.299	0.08
883.465	1.35
883.63	2.67
883.796	2.15
883.961	1.55
884.127	2.95
884.292	-2.28
884.458	-1.95
884.623	-1.95
