Data from Apollo_Calib_20240827__AbsoluteIrradiance__115__01-04-02-405.txt Node

Date: Wed Aug 28 01:04:02 BST 2024
User: biology
Spectrometer: FLMT08252
Trigger mode: 0
Integration Time (sec): 5.000000E-1
Scans to average: 5
Electric dark correction enabled: true
Nonlinearity correction enabled: false
Boxcar width: 0
XAxis mode: Wavelengths
Number of Pixels in Spectrum: 3648
>>>>>Begin Spectral Data<<<<<
179.588	-0
179.809	-0
180.03	-0
180.251	-0
180.473	-0
180.694	0
180.915	0
181.136	-0
181.357	0
181.578	-0
181.799	-0
182.02	-0
182.241	0
182.462	-0
182.683	0
182.904	0
183.125	-0
183.346	0
183.567	-0
183.788	-0
184.009	-0
184.23	0
184.451	0
184.672	-0
184.892	-0
185.113	0
185.334	0
185.555	-0
185.776	-0
185.996	0
186.217	0
186.438	-0
186.659	-0
186.879	0
187.1	-0
187.321	-0
187.541	-0
187.762	-0
187.983	-0
188.203	-0
188.424	0
188.644	-0
188.865	-0
189.086	-0
189.306	-0
189.527	-0
189.747	0
189.968	-0
190.188	0
190.409	-0
190.629	0
190.849	-0
191.07	-0
191.29	0
191.511	0
191.731	-0
191.951	-0
192.172	-0
192.392	-0
192.612	-0
192.833	-0
193.053	0
193.273	-0
193.493	-0
193.714	-0
193.934	0
194.154	0
194.374	-0
194.594	-0
194.815	0
195.035	0
195.255	-0
195.475	-0
195.695	0
195.915	0
196.135	-0
196.355	0
196.575	0
196.795	0
197.015	-0
197.235	-0
197.455	-0
197.675	-0
197.895	-0
198.115	-0
198.335	-0
198.555	0
198.775	-0
198.995	-0
199.214	0
199.434	-0
199.654	-0
199.874	-0
200.094	0.49
200.313	-0.4
200.533	-0.38
200.753	-1.13
200.973	-0.02
201.192	0.24
201.412	-1.08
201.632	-0.48
201.851	0.7
202.071	-0.57
202.291	-0.15
202.51	-0.69
202.73	0.06
202.95	-0.26
203.169	-0.78
203.389	-0.22
203.608	-0.11
203.828	-0.67
204.047	-0.34
204.267	0.08
204.486	0.16
204.706	-0.27
204.925	-0.44
205.145	-0.58
205.364	0.1
205.583	0.54
205.803	0
206.022	-0.57
206.242	0.09
206.461	-0.08
206.68	-0.38
206.9	0
207.119	0.19
207.338	0.43
207.557	-0.55
207.777	-0.15
207.996	-0.08
208.215	0.18
208.434	-0.39
208.654	-0.67
208.873	-0.14
209.092	0.37
209.311	-0.05
209.53	-0.24
209.749	-0.1
209.968	-0.33
210.187	-0.38
210.407	-0.42
210.626	-0.16
210.845	0.03
211.064	-0.07
211.283	-0.46
211.502	0.09
211.721	-0.08
211.94	-0.19
212.159	-0.03
212.377	0.14
212.596	0.21
212.815	-0.05
213.034	0.04
213.253	0.01
213.472	0.09
213.691	-0.26
213.91	-0.4
214.128	-0.24
214.347	0.23
214.566	-0.44
214.785	-0.27
215.003	0.03
215.222	-0.06
215.441	-0.14
215.66	-0.36
215.878	-0.09
216.097	0.06
216.316	-0.37
216.534	-0.16
216.753	-0.1
216.972	-0.04
217.19	-0.11
217.409	-0.41
217.627	-0.13
217.846	0
218.064	-0.1
218.283	-0.19
218.501	0.25
218.72	-0.01
218.938	-0.17
219.157	-0.1
219.375	0.21
219.594	-0.28
219.812	-0.31
220.031	-0.13
220.249	0.28
220.467	0.07
220.686	0
220.904	-0.25
221.122	-0.22
221.341	0.23
221.559	0.05
221.777	-0.29
221.995	-0.15
222.214	-0.04
222.432	-0.14
222.65	0.06
222.868	0.06
223.086	0.02
223.305	-0.02
223.523	-0.08
223.741	0.16
223.959	-0.28
224.177	-0.25
224.395	-0.1
224.613	-0.05
224.831	0.12
225.049	-0.31
225.267	-0.08
225.485	0.08
225.703	-0.09
225.921	-0.05
226.139	-0.15
226.357	0.14
226.575	-0.19
226.793	-0.09
227.011	0.44
227.229	-0.01
227.447	0.04
227.665	-0.36
227.883	-0.27
228.1	-0.12
228.318	0.06
228.536	-0.18
228.754	-0.24
228.972	-0.01
229.189	0.03
229.407	-0.12
229.625	-0.13
229.843	0.1
230.06	0.09
230.278	-0.16
230.496	-0.03
230.713	-0.04
230.931	0.1
231.149	-0.13
231.366	-0.32
231.584	-0.06
231.801	0.21
232.019	-0.17
232.236	-0.24
232.454	-0.19
232.671	-0.02
232.889	-0.12
233.106	-0.22
233.324	-0.06
233.541	-0.04
233.759	-0.01
233.976	-0.1
234.194	-0.07
234.411	-0.09
234.628	-0.18
234.846	-0.13
235.063	0.04
235.28	-0.17
235.498	-0.09
235.715	-0.08
235.932	-0
236.149	-0.09
236.367	-0.12
236.584	0
236.801	-0.1
237.018	0.05
237.236	-0.04
237.453	-0.17
237.67	0.04
237.887	-0.09
238.104	-0.07
238.321	-0.15
238.538	-0.11
238.755	0.07
238.973	-0.12
239.19	-0.03
239.407	0.04
239.624	-0.04
239.841	-0.14
240.058	-0.04
240.275	0.04
240.492	-0.08
240.709	-0.06
240.925	-0.07
241.142	0.05
241.359	-0.12
241.576	-0.09
241.793	-0.09
242.01	0.02
242.227	0.08
242.444	0.04
242.66	0.05
242.877	0.01
243.094	-0.08
243.311	0.01
243.527	-0.11
243.744	-0.06
243.961	-0.02
244.178	-0.21
244.394	-0.04
244.611	0.1
244.828	0.07
245.044	-0.17
245.261	-0.16
245.477	0.01
245.694	0.03
245.911	-0.14
246.127	-0.02
246.344	0.11
246.56	0.03
246.777	-0.07
246.993	0.04
247.21	0.02
247.426	-0.02
247.643	-0.06
247.859	-0.12
248.076	0.03
248.292	0.15
248.508	-0
248.725	-0.02
248.941	0.06
249.157	0.08
249.374	-0.12
249.59	-0.09
249.806	-0.05
250.023	0.01
250.239	-0.09
250.455	-0.09
250.671	-0.05
250.888	0
251.104	0.09
251.32	-0.05
251.536	-0.06
251.752	-0.08
251.969	-0.06
252.185	-0.04
252.401	0.12
252.617	0.01
252.833	-0.07
253.049	-0.04
253.265	-0.04
253.481	-0.06
253.697	-0.13
253.913	-0.11
254.129	-0.04
254.345	-0.02
254.561	-0.03
254.777	-0.04
254.993	0.04
255.209	0.02
255.425	0.03
255.641	-0.08
255.857	0.08
256.073	-0.06
256.288	-0.13
256.504	-0.09
256.72	0.02
256.936	0.13
257.152	-0.09
257.367	-0.04
257.583	-0.01
257.799	-0
258.015	-0.08
258.23	-0.09
258.446	0.04
258.662	-0.04
258.877	-0.12
259.093	-0.04
259.309	-0.02
259.524	0
259.74	-0.06
259.955	-0.09
260.171	-0.02
260.387	-0.03
260.602	0.02
260.818	0.04
261.033	-0.14
261.249	-0.09
261.464	-0.07
261.68	-0.14
261.895	-0
262.11	-0
262.326	-0.05
262.541	-0.07
262.757	0.02
262.972	-0.03
263.187	0.01
263.403	-0.02
263.618	-0.01
263.833	-0.02
264.049	-0.1
264.264	-0.11
264.479	0
264.694	0.01
264.91	-0.11
265.125	-0.03
265.34	0.01
265.555	0.11
265.77	-0.01
265.986	-0.08
266.201	-0.01
266.416	0.03
266.631	-0.03
266.846	-0.05
267.061	-0.06
267.276	0.05
267.491	-0.17
267.706	-0.01
267.921	0.02
268.136	0
268.351	-0.03
268.566	-0.08
268.781	0.05
268.996	0.02
269.211	0
269.426	-0.14
269.641	0
269.856	0.06
270.071	-0.06
270.285	-0.11
270.5	0.04
270.715	0.06
270.93	-0
271.145	0.01
271.359	0.05
271.574	-0.09
271.789	-0.05
272.004	-0.08
272.218	-0.05
272.433	0.06
272.648	-0.06
272.862	0.08
273.077	-0
273.292	-0.01
273.506	-0.07
273.721	-0.05
273.936	0.01
274.15	0.04
274.365	-0.05
274.579	0.06
274.794	0.02
275.008	0.07
275.223	-0.11
275.437	-0.02
275.652	0.03
275.866	0.03
276.081	-0.05
276.295	0
276.509	-0.02
276.724	-0.06
276.938	-0.03
277.153	0.01
277.367	0.05
277.581	-0.07
277.796	-0.08
278.01	-0.07
278.224	0.01
278.438	0.09
278.653	-0.04
278.867	-0.07
279.081	-0.18
279.295	-0.06
279.51	0
279.724	-0.08
279.938	0.03
280.152	-0.05
280.366	-0.08
280.58	-0.01
280.794	0.07
281.008	-0.03
281.222	0.04
281.437	0.07
281.651	0.03
281.865	0.06
282.079	-0.01
282.293	-0.09
282.507	-0.09
282.721	0
282.935	-0.03
283.148	-0.05
283.362	-0.1
283.576	-0.04
283.79	-0.02
284.004	-0.05
284.218	0.02
284.432	-0.05
284.646	-0.04
284.859	-0.05
285.073	-0.03
285.287	-0.03
285.501	-0.01
285.714	-0.03
285.928	-0.06
286.142	-0.07
286.356	-0.05
286.569	-0
286.783	0.06
286.997	0.02
287.21	-0.04
287.424	0.01
287.637	-0.05
287.851	0.01
288.065	0.01
288.278	-0.01
288.492	0.06
288.705	0.01
288.919	0.02
289.132	-0.04
289.346	0.05
289.559	-0.09
289.773	-0.07
289.986	-0.04
290.2	-0.01
290.413	0.05
290.626	-0.07
290.84	-0.05
291.053	0.01
291.267	0.06
291.48	-0.02
291.693	0.01
291.906	-0.07
292.12	-0.03
292.333	-0.05
292.546	-0.02
292.76	0.06
292.973	0.01
293.186	-0.01
293.399	-0.02
293.612	0.04
293.826	-0.02
294.039	0.01
294.252	-0.01
294.465	-0.01
294.678	-0.02
294.891	0.02
295.104	-0.06
295.317	-0.02
295.53	0.04
295.743	-0.04
295.956	0.03
296.169	0.06
296.382	0.02
296.595	0
296.808	-0.03
297.021	0.05
297.234	0.02
297.447	0.02
297.66	0.01
297.873	0.05
298.086	0.02
298.299	-0.07
298.511	-0.02
298.724	-0
298.937	-0.06
299.15	-0.02
299.363	0.03
299.575	0.04
299.788	0.03
300.001	-0.02
300.213	-0.04
300.426	0.02
300.639	0
300.852	-0.04
301.064	0.06
301.277	0.05
301.489	0.07
301.702	0.03
301.915	-0.02
302.127	0.03
302.34	0.01
302.552	-0.01
302.765	-0.03
302.977	0.04
303.19	-0.03
303.402	0
303.615	-0
303.827	-0.03
304.04	-0.04
304.252	0.02
304.464	0.01
304.677	0.11
304.889	-0.02
305.102	-0
305.314	-0.04
305.526	0.04
305.739	0.03
305.951	-0.03
306.163	-0.05
306.375	0.05
306.588	-0.03
306.8	-0.03
307.012	-0.09
307.224	-0
307.436	0.01
307.649	-0.07
307.861	-0.02
308.073	0.04
308.285	-0.02
308.497	-0.04
308.709	-0.03
308.921	-0.03
309.133	0.02
309.346	-0.02
309.558	-0.03
309.77	0.02
309.982	-0
310.194	0.05
310.406	-0.06
310.617	0.09
310.829	0.02
311.041	-0.01
311.253	-0.06
311.465	0
311.677	0.03
311.889	0.01
312.101	-0.05
312.313	0.03
312.524	0.06
312.736	0
312.948	-0.04
313.16	0.07
313.372	0.05
313.583	-0.01
313.795	-0.05
314.007	-0.03
314.218	0.03
314.43	-0.04
314.642	-0.04
314.853	-0.09
315.065	0.01
315.277	-0.05
315.488	0.01
315.7	0.04
315.912	-0.04
316.123	-0.06
316.335	-0.01
316.546	0.09
316.758	-0.03
316.969	-0.03
317.181	0.02
317.392	0.03
317.604	0.04
317.815	-0.04
318.026	-0.05
318.238	-0.04
318.449	0.05
318.661	-0.09
318.872	-0.07
319.083	-0.04
319.295	0.05
319.506	-0.03
319.717	0.04
319.929	-0.03
320.14	0
320.351	0.01
320.562	-0.06
320.774	-0.07
320.985	0.01
321.196	-0.06
321.407	-0
321.618	0.04
321.829	-0
322.041	-0.02
322.252	0.02
322.463	0.01
322.674	0.02
322.885	-0.01
323.096	-0.01
323.307	-0.01
323.518	0.02
323.729	-0.05
323.94	0.01
324.151	-0.01
324.362	-0.02
324.573	0.03
324.784	0
324.995	0.07
325.206	0.01
325.417	-0.03
325.628	0.01
325.838	-0.02
326.049	-0.01
326.26	0
326.471	0
326.682	-0.01
326.892	-0.01
327.103	-0.05
327.314	-0.05
327.525	0.04
327.735	-0.01
327.946	-0.02
328.157	-0.04
328.368	0.03
328.578	-0.03
328.789	0.04
328.999	-0.02
329.21	0.02
329.421	0.01
329.631	-0.02
329.842	-0.06
330.052	0.01
330.263	0.06
330.473	-0
330.684	0.01
330.894	-0.05
331.105	-0.03
331.315	0.02
331.526	-0.06
331.736	0.07
331.947	0.04
332.157	-0.04
332.367	-0.06
332.578	0.05
332.788	0.07
332.999	0.03
333.209	0.02
333.419	-0.06
333.629	-0.02
333.84	0.02
334.05	-0.02
334.26	0.07
334.47	0.01
334.681	0.02
334.891	-0.03
335.101	0
335.311	0.11
335.521	-0
335.732	-0.06
335.942	0.06
336.152	0.02
336.362	-0.01
336.572	-0
336.782	0.06
336.992	-0.01
337.202	-0.04
337.412	-0.04
337.622	0.03
337.832	-0.01
338.042	-0.02
338.252	-0.02
338.462	-0.03
338.672	0.01
338.882	0.01
339.092	-0
339.302	0.04
339.511	0.03
339.721	-0.07
339.931	-0.04
340.141	-0.02
340.351	0.06
340.561	0
340.77	-0.01
340.98	0.02
341.19	-0.01
341.4	-0.06
341.609	-0.04
341.819	-0.02
342.029	-0.06
342.238	0.03
342.448	-0.02
342.658	0.01
342.867	-0.01
343.077	-0.01
343.286	0
343.496	0.04
343.706	-0.01
343.915	-0.05
344.125	-0.02
344.334	0
344.544	-0.04
344.753	-0.02
344.963	0
345.172	-0.07
345.381	-0
345.591	-0.03
345.8	0
346.01	0.09
346.219	0.04
346.428	-0.15
346.638	0.03
346.847	0
347.056	0.02
347.266	-0.08
347.475	0.04
347.684	0
347.893	-0.03
348.103	0.04
348.312	-0
348.521	0.02
348.73	-0.02
348.94	0.04
349.149	-0.01
349.358	-0.02
349.567	-0.03
349.776	-0.07
349.985	-0.01
350.194	0.03
350.403	0.02
350.612	-0.02
350.821	-0.01
351.03	0.01
351.239	-0.06
351.448	-0.02
351.657	-0.02
351.866	0.06
352.075	0.03
352.284	0.04
352.493	-0.02
352.702	0.04
352.911	0
353.12	0
353.329	0
353.538	0
353.746	0.01
353.955	-0.01
354.164	0.04
354.373	0.04
354.582	0.05
354.79	-0.03
354.999	0.02
355.208	0.04
355.416	0.06
355.625	-0.02
355.834	-0.01
356.042	0.03
356.251	-0.03
356.46	-0.03
356.668	0.03
356.877	0.09
357.085	0.05
357.294	-0.08
357.503	0.05
357.711	-0
357.92	0.09
358.128	0.03
358.337	-0.01
358.545	-0.03
358.754	-0.02
358.962	0.06
359.17	-0.02
359.379	0
359.587	0.02
359.796	-0.02
360.004	0.05
360.212	0
360.421	0.04
360.629	0.02
360.837	-0.01
361.046	0.02
361.254	0.1
361.462	-0.03
361.67	-0.02
361.879	0.01
362.087	0.06
362.295	0.02
362.503	0.04
362.711	-0.04
362.92	-0.03
363.128	-0.01
363.336	-0.03
363.544	-0.04
363.752	-0
363.96	-0.02
364.168	-0.02
364.376	0
364.584	0.02
364.792	0.05
365	0.03
365.208	0.04
365.416	-0.03
365.624	0.04
365.832	0.04
366.04	0.08
366.248	0.08
366.456	0.02
366.664	0.04
366.872	0.02
367.079	-0
367.287	0.03
367.495	0.06
367.703	0.06
367.911	0.03
368.118	0.08
368.326	0.04
368.534	0.03
368.742	0.13
368.949	-0.01
369.157	0.09
369.365	0.14
369.572	0.13
369.78	0.13
369.988	0.21
370.195	0.15
370.403	0.24
370.61	0.12
370.818	0.24
371.026	0.25
371.233	0.22
371.441	0.3
371.648	0.23
371.856	0.32
372.063	0.34
372.271	0.35
372.478	0.36
372.685	0.42
372.893	0.47
373.1	0.47
373.308	0.49
373.515	0.66
373.722	0.61
373.93	0.6
374.137	0.66
374.344	0.75
374.552	0.76
374.759	0.8
374.966	0.75
375.173	0.84
375.381	0.98
375.588	0.86
375.795	0.87
376.002	1.03
376.209	1.01
376.417	1.15
376.624	1.18
376.831	1.24
377.038	1.29
377.245	1.33
377.452	1.41
377.659	1.61
377.866	1.56
378.073	1.71
378.28	1.76
378.487	1.84
378.694	1.96
378.901	2.07
379.108	2.11
379.315	2.21
379.522	2.4
379.729	2.42
379.936	2.43
380.143	2.63
380.35	2.69
380.557	2.87
380.763	2.93
380.97	2.97
381.177	3.04
381.384	3.28
381.591	3.41
381.797	3.38
382.004	3.59
382.211	3.67
382.418	3.71
382.624	3.76
382.831	3.74
383.038	3.87
383.244	3.88
383.451	3.86
383.658	3.79
383.864	3.95
384.071	3.84
384.277	3.93
384.484	3.87
384.69	3.8
384.897	3.73
385.103	3.64
385.31	3.59
385.516	3.51
385.723	3.39
385.929	3.3
386.136	3.15
386.342	3.09
386.549	2.92
386.755	2.93
386.961	2.84
387.168	2.67
387.374	2.58
387.58	2.5
387.787	2.32
387.993	2.26
388.199	2.12
388.406	2.06
388.612	1.91
388.818	1.87
389.024	1.77
389.231	1.75
389.437	1.77
389.643	1.64
389.849	1.62
390.055	1.55
390.261	1.44
390.467	1.45
390.674	1.35
390.88	1.35
391.086	1.31
391.292	1.27
391.498	1.26
391.704	1.24
391.91	1.2
392.116	1.09
392.322	1.02
392.528	1.08
392.734	1.01
392.94	1.02
393.146	0.95
393.352	0.97
393.557	0.9
393.763	0.85
393.969	0.88
394.175	0.77
394.381	0.77
394.587	0.69
394.792	0.67
394.998	0.72
395.204	0.77
395.41	0.59
395.615	0.68
395.821	0.67
396.027	0.66
396.233	0.56
396.438	0.56
396.644	0.61
396.85	0.57
397.055	0.46
397.261	0.49
397.466	0.39
397.672	0.43
397.878	0.49
398.083	0.41
398.289	0.34
398.494	0.45
398.7	0.39
398.905	0.31
399.111	0.42
399.316	0.3
399.522	0.28
399.727	0.3
399.932	0.27
400.138	0.3
400.343	0.31
400.549	0.3
400.754	0.32
400.959	0.26
401.165	0.26
401.37	0.22
401.575	0.36
401.78	0.22
401.986	0.22
402.191	0.2
402.396	0.23
402.601	0.2
402.807	0.29
403.012	0.23
403.217	0.29
403.422	0.22
403.627	0.24
403.832	0.17
404.037	0.22
404.243	0.22
404.448	0.19
404.653	0.13
404.858	0.17
405.063	0.19
405.268	0.13
405.473	0.13
405.678	0.12
405.883	0.29
406.088	0.18
406.293	0.07
406.498	0.1
406.703	0.12
406.907	0.13
407.112	0.12
407.317	0.11
407.522	0.19
407.727	0.08
407.932	0.15
408.136	0.22
408.341	0.13
408.546	0.14
408.751	0.13
408.956	0.12
409.16	0.15
409.365	0.12
409.57	0.12
409.774	0.1
409.979	0.17
410.184	0.11
410.388	0.03
410.593	0.15
410.798	0.13
411.002	0.07
411.207	0.12
411.411	0.1
411.616	0.04
411.82	0.09
412.025	0.06
412.229	0.05
412.434	0.16
412.638	0.05
412.843	0.09
413.047	0.03
413.252	0.02
413.456	0.05
413.66	0.13
413.865	0.03
414.069	0.16
414.273	0.02
414.478	0.02
414.682	0.02
414.886	0.05
415.091	-0
415.295	-0.03
415.499	0.05
415.703	0.04
415.908	0.07
416.112	0
416.316	0.09
416.52	0.06
416.724	0.01
416.929	0
417.133	0.15
417.337	0.01
417.541	0.03
417.745	0.05
417.949	0.05
418.153	0.07
418.357	-0.01
418.561	0.09
418.765	0.02
418.969	0.11
419.173	0.12
419.377	0.02
419.581	0.12
419.785	0.04
419.989	-0.03
420.193	-0
420.397	0.02
420.601	0.1
420.804	0.06
421.008	-0.01
421.212	0.07
421.416	0.03
421.62	-0.02
421.823	0.08
422.027	0.15
422.231	0.06
422.435	0
422.638	0.05
422.842	0.05
423.046	-0.04
423.249	0.01
423.453	0.06
423.657	0.06
423.86	-0.01
424.064	0.05
424.268	0.09
424.471	0.04
424.675	0.14
424.878	0.1
425.082	0.03
425.285	0.05
425.489	0.04
425.692	0.07
425.896	-0.01
426.099	0.05
426.303	-0.02
426.506	0
426.71	0.05
426.913	0.09
427.116	0.08
427.32	0.03
427.523	-0.02
427.726	0.12
427.93	-0.06
428.133	0.04
428.336	-0.01
428.54	-0.01
428.743	0.05
428.946	0.07
429.149	-0.02
429.353	0.06
429.556	0.04
429.759	0.03
429.962	0.03
430.165	0.03
430.368	0.01
430.571	-0.01
430.775	0.07
430.978	-0
431.181	0
431.384	0.06
431.587	-0
431.79	0.08
431.993	0.07
432.196	0.06
432.399	0.07
432.602	0.08
432.805	0.01
433.008	0.02
433.211	-0.07
433.414	0.04
433.616	0.06
433.819	0.02
434.022	-0.02
434.225	0.14
434.428	0.07
434.631	0.13
434.833	0.01
435.036	0.01
435.239	0.08
435.442	0.06
435.645	0.07
435.847	0.05
436.05	0.05
436.253	0.06
436.455	0.01
436.658	0.01
436.861	0.17
437.063	0.04
437.266	0.05
437.468	0.06
437.671	0.18
437.874	0.06
438.076	0.05
438.279	-0.04
438.481	0.02
438.684	0
438.886	0.07
439.089	-0.01
439.291	0.02
439.494	0.08
439.696	-0.03
439.899	0.04
440.101	0.07
440.303	-0.01
440.506	0.04
440.708	0.06
440.91	0.11
441.113	0.05
441.315	0.05
441.517	0.06
441.72	0.09
441.922	0.01
442.124	0.03
442.326	0.07
442.529	0.09
442.731	0.01
442.933	0.14
443.135	0.06
443.337	0.03
443.539	0.03
443.742	0
443.944	0.07
444.146	0.03
444.348	0.03
444.55	0.06
444.752	0.05
444.954	0.02
445.156	0.08
445.358	0.03
445.56	0.08
445.762	0.08
445.964	0.1
446.166	0.06
446.368	0.06
446.57	0.12
446.772	0.08
446.974	0.03
447.175	0.09
447.377	0.01
447.579	0.08
447.781	0.05
447.983	0.14
448.184	0.03
448.386	0.1
448.588	-0.02
448.79	0.07
448.991	0.07
449.193	0.08
449.395	0.02
449.597	0.15
449.798	0.09
450	0.08
450.202	0.08
450.403	0.06
450.605	0.12
450.806	0.04
451.008	0.01
451.21	0.09
451.411	0.05
451.613	0.05
451.814	0.06
452.016	0.1
452.217	0.03
452.419	0.15
452.62	0.05
452.821	0.11
453.023	0.09
453.224	0.12
453.426	0.06
453.627	0.08
453.828	0.06
454.03	0.06
454.231	0.11
454.432	0.02
454.634	0.11
454.835	0.04
455.036	-0.02
455.238	0.1
455.439	0.15
455.64	0
455.841	0.04
456.042	0.11
456.244	0.08
456.445	0
456.646	-0.02
456.847	-0
457.048	0.08
457.249	0.11
457.45	0.21
457.651	0.02
457.852	0.1
458.054	0.05
458.255	0.03
458.456	0.05
458.657	0.03
458.858	0.03
459.058	0.01
459.259	0.07
459.46	0.02
459.661	-0.02
459.862	0.13
460.063	0.01
460.264	0.1
460.465	-0.02
460.666	0.09
460.866	0.04
461.067	-0.02
461.268	0.02
461.469	-0.03
461.67	0.03
461.87	-0.01
462.071	0.01
462.272	-0.04
462.473	0.06
462.673	0.06
462.874	-0.02
463.075	-0.02
463.275	0.01
463.476	0.08
463.676	0.04
463.877	0.09
464.078	0.04
464.278	0.04
464.479	0.01
464.679	0.03
464.88	-0
465.08	0.07
465.281	0.02
465.481	-0.03
465.682	0.04
465.882	0.05
466.083	0.03
466.283	0.05
466.483	0.01
466.684	-0.02
466.884	-0.01
467.085	0.03
467.285	0.05
467.485	-0
467.686	-0.03
467.886	-0.01
468.086	-0
468.286	0.02
468.487	0.03
468.687	-0.06
468.887	-0.01
469.087	0.07
469.287	-0
469.488	-0.04
469.688	0.07
469.888	0.02
470.088	0.03
470.288	0.08
470.488	0.05
470.688	-0.03
470.888	0
471.088	-0.05
471.288	0.01
471.488	0.02
471.688	0.02
471.888	-0.01
472.088	0.06
472.288	0.06
472.488	-0.01
472.688	0.01
472.888	-0.01
473.088	-0.01
473.288	-0.01
473.488	0.03
473.688	0.09
473.887	-0.01
474.087	-0.02
474.287	0.01
474.487	-0.02
474.687	0.03
474.886	-0.02
475.086	-0.01
475.286	0.02
475.486	0.03
475.685	-0.03
475.885	0
476.085	-0.03
476.284	0.04
476.484	0.02
476.684	0.02
476.883	0.04
477.083	-0.02
477.282	0.01
477.482	0.05
477.681	0.03
477.881	0.02
478.08	-0.02
478.28	-0.01
478.479	0.04
478.679	0.1
478.878	-0.03
479.078	0
479.277	-0.02
479.477	-0
479.676	0.03
479.875	0.02
480.075	-0.04
480.274	0.02
480.473	0.01
480.673	-0.02
480.872	0.01
481.071	-0.02
481.271	-0
481.47	-0.02
481.669	-0
481.868	-0.01
482.067	-0.03
482.267	-0.02
482.466	-0.01
482.665	-0.04
482.864	-0.02
483.063	-0.03
483.262	0.01
483.461	0.04
483.661	0.01
483.86	0.01
484.059	0.01
484.258	0.01
484.457	-0.01
484.656	-0.01
484.855	0.05
485.054	-0.04
485.253	-0.03
485.452	-0.02
485.651	-0.02
485.849	0.01
486.048	-0.01
486.247	-0.03
486.446	-0.01
486.645	-0.04
486.844	-0.02
487.043	-0.02
487.241	0.01
487.44	-0.04
487.639	0
487.838	0.03
488.037	-0.01
488.235	0.02
488.434	0.01
488.633	-0.02
488.831	0.02
489.03	0.04
489.229	0.01
489.427	0.01
489.626	0.02
489.825	0.04
490.023	-0
490.222	-0.02
490.42	-0.01
490.619	0.03
490.817	-0.01
491.016	-0.03
491.214	0.02
491.413	-0
491.611	0
491.81	0.01
492.008	0.04
492.207	0.01
492.405	-0
492.604	-0.02
492.802	-0.02
493	0.01
493.199	-0.03
493.397	0
493.595	-0
493.794	-0.02
493.992	0.06
494.19	0
494.388	0.01
494.587	-0.01
494.785	0
494.983	-0.05
495.181	-0
495.379	0.02
495.578	-0.01
495.776	0.02
495.974	0.01
496.172	-0.01
496.37	-0.02
496.568	-0.02
496.766	-0.04
496.964	0.03
497.162	-0.01
497.36	-0.04
497.558	0
497.756	0.03
497.954	0.02
498.152	0
498.35	0
498.548	-0.01
498.746	-0.01
498.944	-0.02
499.142	-0.01
499.34	-0.04
499.538	-0
499.736	-0.02
499.933	0.03
500.131	0.04
500.329	0
500.527	0.05
500.725	0.04
500.922	0.01
501.12	0.01
501.318	0.01
501.516	-0.02
501.713	0
501.911	-0
502.109	-0.02
502.306	0
502.504	-0
502.701	-0.01
502.899	-0.01
503.097	0.05
503.294	0.02
503.492	0.01
503.689	-0.01
503.887	0.01
504.084	0.04
504.282	-0.01
504.479	-0.03
504.677	0.02
504.874	-0.02
505.072	-0.01
505.269	-0.01
505.466	0
505.664	0
505.861	-0.03
506.059	-0.01
506.256	0.02
506.453	-0.02
506.651	0.03
506.848	0
507.045	0.02
507.242	-0.04
507.44	-0.03
507.637	0.02
507.834	-0.02
508.031	0.02
508.229	-0
508.426	0
508.623	0.01
508.82	-0.02
509.017	-0.02
509.214	-0
509.411	-0
509.608	-0.03
509.805	0.01
510.003	-0.02
510.2	-0.02
510.397	0.04
510.594	-0.01
510.791	-0.01
510.988	-0.02
511.184	0.02
511.381	0
511.578	-0.03
511.775	0.04
511.972	-0.01
512.169	0
512.366	-0.01
512.563	0.01
512.76	-0.01
512.956	0.01
513.153	-0.02
513.35	0.01
513.547	-0.02
513.744	-0.04
513.94	-0.03
514.137	0.03
514.334	0.01
514.53	0.02
514.727	0
514.924	0.03
515.12	-0.03
515.317	-0.03
515.514	-0.02
515.71	-0.01
515.907	-0.01
516.103	-0.01
516.3	0.01
516.497	0.02
516.693	0.03
516.89	-0
517.086	-0.02
517.283	0.03
517.479	-0
517.676	-0.02
517.872	-0.02
518.068	-0.03
518.265	-0.01
518.461	-0
518.658	-0.01
518.854	-0
519.05	-0.02
519.247	-0.01
519.443	0.01
519.639	0.01
519.836	-0
520.032	-0.01
520.228	0.01
520.424	0.03
520.621	0.01
520.817	0
521.013	-0.01
521.209	0.01
521.405	0.05
521.601	0.01
521.798	0.01
521.994	0.03
522.19	-0.04
522.386	-0.04
522.582	0.01
522.778	-0.01
522.974	-0
523.17	-0.01
523.366	0.01
523.562	0.03
523.758	-0.01
523.954	-0.01
524.15	0.01
524.346	0.02
524.542	-0.01
524.738	-0.02
524.934	0.01
525.129	0.01
525.325	-0.01
525.521	-0
525.717	0.02
525.913	-0
526.109	0.01
526.304	-0.02
526.5	0
526.696	0.03
526.892	-0.01
527.087	-0
527.283	-0.03
527.479	0.01
527.674	-0.01
527.87	-0.01
528.066	-0.02
528.261	0
528.457	-0
528.653	0
528.848	-0.02
529.044	0
529.239	0
529.435	0.02
529.63	0.01
529.826	0.02
530.021	-0.01
530.217	0.02
530.412	-0.01
530.608	-0.02
530.803	0.01
530.999	-0.01
531.194	-0.03
531.389	0.02
531.585	-0.04
531.78	0
531.975	0
532.171	0.02
532.366	-0.01
532.561	-0
532.757	-0.02
532.952	-0.01
533.147	0.02
533.342	-0
533.538	-0.02
533.733	0.05
533.928	-0
534.123	-0.01
534.318	-0.03
534.513	0.01
534.709	-0.01
534.904	-0.02
535.099	-0.01
535.294	0.01
535.489	-0.01
535.684	-0.01
535.879	-0.03
536.074	-0
536.269	-0.03
536.464	0.02
536.659	-0
536.854	-0.02
537.049	0.01
537.244	-0
537.439	-0.02
537.634	0.02
537.828	-0
538.023	-0.01
538.218	-0.02
538.413	-0.01
538.608	-0.02
538.803	-0.01
538.997	-0.01
539.192	0.02
539.387	0.02
539.582	-0.01
539.776	-0.01
539.971	-0.03
540.166	-0.02
540.36	-0.02
540.555	-0
540.75	-0
540.944	-0.01
541.139	-0.04
541.334	-0.01
541.528	-0
541.723	0.01
541.917	-0.01
542.112	-0.05
542.306	-0.02
542.501	-0
542.695	0
542.89	-0.02
543.084	0.01
543.279	0.01
543.473	-0.02
543.668	0
543.862	-0
544.056	0
544.251	-0.02
544.445	-0.01
544.64	-0.01
544.834	-0.03
545.028	0
545.222	0.01
545.417	0.01
545.611	0.01
545.805	-0.01
546	-0.02
546.194	-0.01
546.388	-0.04
546.582	0.02
546.776	-0.02
546.97	-0
547.165	-0
547.359	0.01
547.553	-0.02
547.747	0
547.941	-0.02
548.135	0.01
548.329	0.03
548.523	0
548.717	0.01
548.911	-0.02
549.105	0
549.299	-0.01
549.493	0
549.687	0
549.881	0
550.075	0
550.269	-0.02
550.463	0.01
550.657	-0.01
550.85	0.01
551.044	-0.03
551.238	0
551.432	-0.02
551.626	-0.01
551.82	0.01
552.013	-0
552.207	-0.03
552.401	-0
552.594	0.01
552.788	-0.01
552.982	-0
553.176	-0.03
553.369	0.02
553.563	0.03
553.756	-0.05
553.95	-0.04
554.144	-0.02
554.337	0.01
554.531	-0.02
554.724	0.01
554.918	0.01
555.111	0.01
555.305	-0.01
555.498	0.05
555.692	0.01
555.885	-0.01
556.079	0
556.272	-0.04
556.466	0.02
556.659	0.02
556.852	0
557.046	-0.01
557.239	0
557.432	-0.02
557.626	-0.02
557.819	-0.01
558.012	0.02
558.206	-0.01
558.399	0
558.592	0.03
558.785	-0.02
558.979	0.01
559.172	0
559.365	-0
559.558	-0.02
559.751	-0
559.944	0
560.138	-0.03
560.331	-0.02
560.524	0.02
560.717	-0
560.91	-0.01
561.103	-0
561.296	0
561.489	-0
561.682	0
561.875	0.04
562.068	0.03
562.261	-0
562.454	0.06
562.647	0
562.84	0.03
563.032	-0.02
563.225	0.01
563.418	-0.01
563.611	-0.04
563.804	-0
563.997	-0.02
564.19	-0.03
564.382	-0.03
564.575	-0
564.768	-0.01
564.961	-0.02
565.153	-0.04
565.346	0.02
565.539	0.03
565.731	-0
565.924	0.02
566.117	0.01
566.309	-0.02
566.502	-0
566.695	-0.02
566.887	0
567.08	-0.05
567.272	-0.02
567.465	-0.02
567.657	0.02
567.85	-0.01
568.042	0.01
568.235	0.03
568.427	-0.01
568.62	0.01
568.812	0.02
569.005	0
569.197	-0.04
569.389	0.01
569.582	0.01
569.774	0.02
569.966	-0.03
570.159	-0.05
570.351	0.01
570.543	-0.01
570.736	-0.01
570.928	-0.05
571.12	-0.03
571.312	-0.02
571.505	-0.04
571.697	0.03
571.889	-0.04
572.081	-0.01
572.273	-0.03
572.465	0.02
572.658	-0
572.85	0.03
573.042	-0.02
573.234	-0.01
573.426	0.01
573.618	-0.03
573.81	0.01
574.002	0
574.194	0.01
574.386	-0.05
574.578	-0.07
574.77	-0.01
574.962	-0
575.154	-0.02
575.346	-0
575.538	-0
575.729	-0.02
575.921	-0.02
576.113	-0.02
576.305	0.02
576.497	-0.02
576.689	-0.01
576.88	-0.02
577.072	0.03
577.264	-0.02
577.456	-0.01
577.647	-0.07
577.839	-0.01
578.031	0.03
578.223	-0.03
578.414	-0.06
578.606	0
578.798	0.01
578.989	-0.02
579.181	-0.01
579.372	-0.01
579.564	-0.02
579.755	-0.01
579.947	-0.02
580.139	-0
580.33	-0.04
580.522	-0.02
580.713	-0.07
580.905	-0.03
581.096	-0
581.287	-0.01
581.479	-0.01
581.67	0
581.862	-0.01
582.053	-0.03
582.244	-0.04
582.436	0.01
582.627	-0.02
582.818	-0.04
583.01	-0.05
583.201	-0
583.392	0
583.583	-0.03
583.775	-0.02
583.966	-0.03
584.157	-0.03
584.348	-0.03
584.54	-0.04
584.731	0.02
584.922	0.03
585.113	-0.02
585.304	0.03
585.495	-0
585.686	-0.01
585.877	-0
586.068	0
586.259	-0.01
586.45	-0.01
586.641	-0.02
586.832	-0.08
587.023	0.02
587.214	-0.03
587.405	-0
587.596	-0.02
587.787	0.03
587.978	-0
588.169	-0.03
588.36	-0.02
588.551	0
588.742	-0.03
588.932	-0.01
589.123	-0.02
589.314	-0
589.505	-0
589.696	-0.01
589.886	-0.01
590.077	-0.03
590.268	0.01
590.458	-0.05
590.649	-0.03
590.84	0
591.03	-0.04
591.221	-0.06
591.412	-0.04
591.602	-0.01
591.793	0.03
591.984	-0.03
592.174	-0.01
592.365	0.05
592.555	-0.04
592.746	0.05
592.936	-0
593.127	-0.01
593.317	0
593.508	-0.03
593.698	-0.02
593.889	-0.01
594.079	-0.02
594.269	-0.03
594.46	-0.01
594.65	-0.01
594.84	0
595.031	-0.05
595.221	-0
595.411	-0.04
595.602	0
595.792	-0.02
595.982	-0.02
596.172	0.03
596.363	-0.02
596.553	-0
596.743	-0
596.933	-0.01
597.123	0
597.314	0
597.504	-0.03
597.694	0.02
597.884	-0.01
598.074	-0.04
598.264	-0.01
598.454	0.01
598.644	-0.02
598.834	-0.01
599.024	-0.09
599.214	-0.03
599.404	0
599.594	-0.03
599.784	-0.03
599.974	0.01
600.164	0.03
600.354	-0.03
600.544	-0.03
600.734	-0.01
600.924	0.03
601.114	-0.03
601.303	-0.03
601.493	-0.02
601.683	-0.01
601.873	0
602.063	-0.04
602.252	0.02
602.442	-0.07
602.632	0.01
602.821	-0.05
603.011	0
603.201	-0.01
603.39	-0
603.58	-0.05
603.77	-0
603.959	0.01
604.149	-0
604.339	-0.02
604.528	0.03
604.718	-0
604.907	-0.01
605.097	-0.01
605.286	-0.06
605.476	0
605.665	-0.01
605.855	-0.01
606.044	0.01
606.234	-0
606.423	-0.03
606.612	-0.05
606.802	-0.01
606.991	0.01
607.181	0
607.37	-0.06
607.559	-0.02
607.749	-0.06
607.938	-0.04
608.127	-0.04
608.316	-0.02
608.506	0.01
608.695	-0.02
608.884	-0.03
609.073	-0.01
609.263	0
609.452	0.01
609.641	-0.04
609.83	-0.04
610.019	-0.01
610.208	-0.05
610.397	-0.01
610.586	0.01
610.775	-0.03
610.965	-0.03
611.154	-0.04
611.343	-0
611.532	0
611.721	-0.05
611.91	-0.04
612.099	0.02
612.287	-0.02
612.476	-0.05
612.665	0.01
612.854	-0.03
613.043	0.02
613.232	-0.01
613.421	-0.04
613.61	0.01
613.798	-0.04
613.987	-0.01
614.176	-0
614.365	0.01
614.554	-0.02
614.742	0
614.931	-0.05
615.12	0.01
615.309	-0.01
615.497	-0.03
615.686	-0.05
615.875	-0.01
616.063	0.01
616.252	-0.03
616.44	-0.02
616.629	-0.03
616.818	-0.01
617.006	-0.04
617.195	-0.03
617.383	0.03
617.572	-0
617.76	-0.02
617.949	-0
618.137	-0
618.326	0.01
618.514	0
618.703	-0.03
618.891	0.03
619.079	-0.04
619.268	0.01
619.456	-0.02
619.644	0.04
619.833	-0.03
620.021	-0.03
620.209	-0.05
620.398	-0.03
620.586	-0.03
620.774	0.03
620.962	-0.02
621.151	0.02
621.339	-0.04
621.527	-0.08
621.715	-0.06
621.903	-0.01
622.092	-0.05
622.28	-0.01
622.468	-0.01
622.656	-0.05
622.844	0
623.032	-0.03
623.22	-0.1
623.408	0
623.596	0
623.784	0.03
623.972	-0.05
624.16	-0.04
624.348	0.04
624.536	-0.02
624.724	-0.03
624.912	0.03
625.1	0.03
625.288	-0.04
625.476	-0.04
625.664	0
625.851	-0.02
626.039	0
626.227	0.02
626.415	0
626.603	-0.07
626.79	-0
626.978	-0.02
627.166	0.01
627.354	0
627.541	-0.01
627.729	-0.04
627.917	-0.02
628.104	0.04
628.292	0
628.48	-0.01
628.667	0.01
628.855	-0
629.042	-0
629.23	-0.04
629.418	-0
629.605	-0.04
629.793	-0.02
629.98	-0.02
630.168	-0.02
630.355	-0.02
630.543	0.03
630.73	-0.04
630.917	0.02
631.105	0.04
631.292	-0.03
631.48	0
631.667	0.05
631.854	0.01
632.042	-0.01
632.229	-0.05
632.416	-0.01
632.604	0.01
632.791	-0.03
632.978	0.02
633.165	0.02
633.353	0.02
633.54	0.03
633.727	-0.04
633.914	-0.02
634.101	-0.06
634.289	0.04
634.476	-0.02
634.663	-0.04
634.85	-0
635.037	-0.06
635.224	-0.04
635.411	0.03
635.598	0.02
635.785	-0.01
635.972	-0.01
636.159	0.03
636.346	-0.02
636.533	-0.01
636.72	-0.01
636.907	-0.02
637.094	0.02
637.281	-0.02
637.468	0.03
637.655	-0
637.842	-0.01
638.029	-0.01
638.215	0.01
638.402	0.01
638.589	-0.01
638.776	0.01
638.963	-0.01
639.149	0.05
639.336	0.06
639.523	-0
639.709	0.01
639.896	0.03
640.083	0.08
640.27	-0.01
640.456	-0.01
640.643	0.02
640.829	-0.04
641.016	0.01
641.203	-0.03
641.389	0.08
641.576	-0
641.762	0.02
641.949	-0.04
642.135	-0.03
642.322	0.03
642.508	-0.04
642.695	0.01
642.881	-0.01
643.068	-0.02
643.254	-0.02
643.441	0.06
643.627	-0.02
643.813	-0.02
644	0.09
644.186	-0.01
644.372	0.02
644.559	0.03
644.745	0.01
644.931	-0.02
645.118	0.02
645.304	-0.01
645.49	-0.01
645.676	0.01
645.862	0.01
646.049	0.03
646.235	0.02
646.421	0.09
646.607	0.07
646.793	0.01
646.979	0.03
647.165	0.07
647.352	0.01
647.538	0.08
647.724	0.02
647.91	0.07
648.096	0.08
648.282	0.05
648.468	0.02
648.654	0.07
648.84	0.04
649.026	0.01
649.212	0.04
649.397	0.02
649.583	0
649.769	0.08
649.955	0.05
650.141	0.05
650.327	0.08
650.513	0.01
650.698	0.06
650.884	-0.03
651.07	0.08
651.256	0.04
651.442	0.05
651.627	0.07
651.813	0.06
651.999	0.06
652.184	0.07
652.37	0.09
652.556	0.05
652.741	0.09
652.927	0
653.113	0.04
653.298	0.06
653.484	0.06
653.669	0.01
653.855	0.06
654.04	0.1
654.226	0.06
654.412	0.05
654.597	0.06
654.782	0.06
654.968	0.06
655.153	0.09
655.339	0.04
655.524	0.04
655.71	0.07
655.895	0.08
656.08	0.07
656.266	0.1
656.451	0.07
656.636	0.05
656.822	0.07
657.007	0.04
657.192	0.09
657.378	0.05
657.563	0.09
657.748	0.11
657.933	0.07
658.118	0.07
658.304	0.08
658.489	0.1
658.674	0.11
658.859	0.06
659.044	0.11
659.229	0.1
659.414	0.06
659.599	0.06
659.785	0.05
659.97	0.03
660.155	0.11
660.34	0.11
660.525	0.08
660.71	0.06
660.895	0.12
661.08	0.06
661.264	0.08
661.449	0.15
661.634	0.11
661.819	0.11
662.004	0.12
662.189	0.03
662.374	0.05
662.559	0.05
662.743	0
662.928	0.04
663.113	0.04
663.298	0.02
663.483	0.03
663.667	0.07
663.852	-0.01
664.037	0.11
664.221	-0
664.406	0.08
664.591	0.07
664.775	0.08
664.96	0.08
665.145	0.02
665.329	0.03
665.514	0.02
665.698	-0.01
665.883	0.03
666.068	0.12
666.252	0
666.437	-0.02
666.621	-0.01
666.806	0.02
666.99	-0.01
667.174	-0.01
667.359	0.08
667.543	0
667.728	-0.01
667.912	-0.03
668.096	0.05
668.281	-0.02
668.465	0.02
668.649	0.05
668.834	-0.03
669.018	0.01
669.202	0
669.387	-0.01
669.571	0.03
669.755	-0.02
669.939	-0.03
670.124	0.03
670.308	0.08
670.492	0.01
670.676	0.04
670.86	-0.02
671.044	-0.03
671.228	-0.03
671.413	-0.06
671.597	-0.01
671.781	-0.04
671.965	-0.01
672.149	-0.03
672.333	0.01
672.517	-0
672.701	0.04
672.885	-0.07
673.069	-0.09
673.253	0.04
673.437	-0.03
673.621	-0.04
673.804	-0.01
673.988	-0.03
674.172	-0.03
674.356	-0.04
674.54	-0.04
674.724	0.03
674.908	-0.02
675.091	-0.02
675.275	-0.03
675.459	0.01
675.643	0.04
675.826	-0.02
676.01	-0.03
676.194	-0.04
676.377	0.02
676.561	-0
676.745	-0.03
676.928	-0.01
677.112	0.06
677.296	-0.05
677.479	-0.02
677.663	-0.03
677.846	0.04
678.03	-0
678.213	-0.01
678.397	0
678.58	-0.02
678.764	-0.03
678.947	-0.03
679.131	-0.07
679.314	-0
679.498	-0.03
679.681	0.03
679.865	0.04
680.048	-0.02
680.231	-0.01
680.415	-0.06
680.598	-0.04
680.781	-0.05
680.965	-0.05
681.148	-0.01
681.331	-0.02
681.514	0.03
681.698	-0.02
681.881	0.01
682.064	-0.04
682.247	-0.03
682.43	-0.07
682.614	0.04
682.797	0.05
682.98	-0.02
683.163	-0.05
683.346	-0.01
683.529	-0.05
683.712	-0.03
683.895	0.01
684.078	-0.07
684.261	-0
684.444	0.01
684.627	0.03
684.81	-0.03
684.993	-0.04
685.176	-0.01
685.359	-0.11
685.542	-0.08
685.725	0.03
685.908	-0.04
686.091	-0.05
686.274	0.02
686.457	-0
686.639	-0.02
686.822	0.05
687.005	-0.04
687.188	0.02
687.371	0.01
687.553	-0.01
687.736	-0.03
687.919	-0
688.102	0.04
688.284	-0.03
688.467	-0.02
688.65	-0.04
688.832	0
689.015	-0.03
689.197	-0.1
689.38	0.07
689.563	0.03
689.745	-0.03
689.928	-0.04
690.11	-0.05
690.293	-0.04
690.475	-0.07
690.658	0.02
690.84	-0.02
691.023	-0.03
691.205	-0.02
691.388	0.01
691.57	0.02
691.752	-0.02
691.935	-0.08
692.117	-0.03
692.3	0.01
692.482	-0.07
692.664	-0.01
692.847	-0.05
693.029	0.03
693.211	0.02
693.393	-0.04
693.576	-0.04
693.758	-0.05
693.94	-0.06
694.122	-0.06
694.304	-0.08
694.487	-0.01
694.669	0.03
694.851	-0.02
695.033	-0.02
695.215	-0.06
695.397	-0.09
695.579	0.01
695.761	-0.07
695.943	-0.09
696.125	0.04
696.308	-0.01
696.49	-0.12
696.671	0.08
696.853	-0.04
697.035	0.09
697.217	-0.07
697.399	-0.01
697.581	0.01
697.763	-0.05
697.945	-0.06
698.127	0
698.309	0.05
698.491	-0.05
698.672	-0.05
698.854	0.02
699.036	0
699.218	-0.03
699.399	-0.01
699.581	0.03
699.763	-0.03
699.945	-0.06
700.126	-0.01
700.308	-0.07
700.49	0.01
700.671	-0.09
700.853	0.01
701.035	-0.02
701.216	0
701.398	-0.11
701.579	-0.01
701.761	0.05
701.943	-0.04
702.124	-0.06
702.306	-0.03
702.487	0.11
702.669	-0.06
702.85	-0.03
703.031	-0.03
703.213	0.06
703.394	0.04
703.576	-0.08
703.757	-0.01
703.938	0.03
704.12	0.15
704.301	0.01
704.483	-0.05
704.664	0.01
704.845	0.08
705.026	0.05
705.208	-0.03
705.389	0.02
705.57	0.02
705.751	-0.03
705.933	-0
706.114	0.03
706.295	-0.05
706.476	-0.1
706.657	0.08
706.838	0.04
707.02	0.03
707.201	-0.04
707.382	-0.05
707.563	0.01
707.744	-0.07
707.925	-0.05
708.106	-0.04
708.287	-0.03
708.468	0.03
708.649	-0.08
708.83	0.01
709.011	-0.05
709.192	0.01
709.373	-0.04
709.554	-0.05
709.734	-0.03
709.915	0
710.096	-0.04
710.277	-0.1
710.458	0.02
710.639	0.02
710.819	-0.12
711	-0.02
711.181	0.05
711.362	0.06
711.542	-0.02
711.723	0
711.904	0.07
712.085	0.02
712.265	0
712.446	0.04
712.627	-0.06
712.807	-0.06
712.988	0.02
713.168	-0.11
713.349	0.02
713.53	-0.12
713.71	-0.11
713.891	-0.09
714.071	-0.04
714.252	-0.11
714.432	-0.05
714.613	-0.16
714.793	-0
714.974	0.07
715.154	0.06
715.334	0.04
715.515	0.04
715.695	-0.1
715.876	-0.03
716.056	-0.03
716.236	-0.06
716.417	-0.05
716.597	0.01
716.777	0.03
716.957	-0.01
717.138	-0.04
717.318	-0.01
717.498	-0.12
717.678	0.07
717.859	-0.01
718.039	-0.01
718.219	0.02
718.399	0.04
718.579	-0.05
718.759	-0.07
718.939	0.04
719.12	0.05
719.3	0.08
719.48	-0.13
719.66	-0.14
719.84	0.1
720.02	-0.01
720.2	0.03
720.38	-0
720.56	0.02
720.74	-0.07
720.92	-0.01
721.1	0.1
721.279	0.04
721.459	0.06
721.639	-0.09
721.819	0.07
721.999	0.01
722.179	0.05
722.359	0.02
722.538	-0.05
722.718	0.04
722.898	-0.04
723.078	-0.06
723.257	-0.03
723.437	0.04
723.617	0.06
723.797	-0.02
723.976	0
724.156	0.02
724.336	0.16
724.515	0.12
724.695	-0.1
724.874	-0.02
725.054	0.12
725.234	0.01
725.413	-0.02
725.593	-0.08
725.772	0.02
725.952	-0.01
726.131	-0.05
726.311	0.01
726.49	0.04
726.67	-0.05
726.849	0.06
727.028	0.15
727.208	0.01
727.387	0.03
727.567	-0.11
727.746	0.01
727.925	-0.03
728.105	0.07
728.284	0.03
728.463	-0.02
728.643	-0
728.822	-0.1
729.001	0
729.18	0.01
729.359	0.07
729.539	0.04
729.718	-0.07
729.897	0.03
730.076	0.04
730.255	-0.06
730.434	0.07
730.614	0.06
730.793	0.02
730.972	0
731.151	0.09
731.33	0.14
731.509	0.11
731.688	0.01
731.867	0.02
732.046	-0.13
732.225	0.26
732.404	-0.03
732.583	-0.05
732.762	0.05
732.941	0.05
733.12	0
733.298	0.02
733.477	0.17
733.656	0.01
733.835	-0.01
734.014	0.12
734.193	-0.04
734.371	0.12
734.55	0.1
734.729	-0.03
734.908	0.09
735.086	0.04
735.265	0.21
735.444	-0.07
735.623	-0.14
735.801	-0.04
735.98	0.04
736.159	-0.05
736.337	0.09
736.516	0.17
736.694	0.09
736.873	0.04
737.052	0.11
737.23	0.14
737.409	-0.01
737.587	0.12
737.766	0
737.944	0.07
738.123	0.12
738.301	0.19
738.479	-0.03
738.658	0.14
738.836	-0.08
739.015	0.08
739.193	0.18
739.371	0.05
739.55	0.02
739.728	-0.08
739.906	0.14
740.085	0.2
740.263	0.04
740.441	-0.14
740.62	0.18
740.798	0.06
740.976	-0.02
741.154	0.05
741.332	0.26
741.511	0.03
741.689	0.02
741.867	0.19
742.045	-0.01
742.223	-0.01
742.401	-0.05
742.579	-0.07
742.757	0.01
742.935	-0.14
743.114	-0.07
743.292	-0.08
743.47	0.04
743.648	0.01
743.826	0.11
744.004	-0.03
744.181	0.03
744.359	-0.06
744.537	0.01
744.715	-0.03
744.893	0.07
745.071	0.05
745.249	-0.08
745.427	0.04
745.605	0
745.782	-0.07
745.96	-0.03
746.138	0.01
746.316	0.15
746.493	0.01
746.671	-0
746.849	-0.01
747.027	0.1
747.204	-0.05
747.382	0.09
747.56	-0.13
747.737	-0.17
747.915	-0.04
748.093	-0.03
748.27	-0.04
748.448	0.05
748.625	-0.11
748.803	-0.06
748.98	-0.07
749.158	-0.08
749.335	0.14
749.513	-0.03
749.69	0.04
749.868	0.07
750.045	-0.01
750.223	-0.06
750.4	-0.23
750.578	0.26
750.755	0.02
750.932	-0.11
751.11	0.09
751.287	-0.21
751.464	0.19
751.642	-0.12
751.819	-0.03
751.996	0
752.173	-0.08
752.351	-0.12
752.528	-0.04
752.705	0.04
752.882	-0.19
753.06	0.03
753.237	-0
753.414	0.06
753.591	0.06
753.768	0.03
753.945	-0.12
754.122	-0.09
754.299	-0.1
754.476	-0.06
754.654	-0.09
754.831	-0.07
755.008	-0.01
755.185	-0.14
755.362	-0.11
755.539	-0.03
755.716	-0.09
755.892	-0.09
756.069	-0.07
756.246	-0.08
756.423	-0.12
756.6	0.17
756.777	0.03
756.954	0.1
757.131	-0.07
757.307	-0.1
757.484	-0.13
757.661	-0.07
757.838	-0
758.015	-0.15
758.191	-0.01
758.368	-0.01
758.545	0.09
758.721	0.03
758.898	-0.16
759.075	-0.06
759.251	-0.08
759.428	-0.02
759.605	-0.11
759.781	-0.1
759.958	-0.07
760.134	-0.03
760.311	-0
760.488	0.12
760.664	0.03
760.841	-0.05
761.017	-0.15
761.194	0
761.37	0.11
761.547	-0.12
761.723	-0.02
761.899	0.01
762.076	-0.24
762.252	-0.17
762.429	-0.01
762.605	-0.09
762.781	-0.03
762.958	0.09
763.134	-0.11
763.31	-0.15
763.486	0.12
763.663	-0.1
763.839	0.04
764.015	-0.18
764.191	-0.11
764.368	-0.01
764.544	-0.03
764.72	0.04
764.896	0.03
765.072	0.01
765.248	-0.11
765.425	-0.07
765.601	-0.1
765.777	-0.06
765.953	-0.27
766.129	0.03
766.305	-0.09
766.481	-0.04
766.657	-0.16
766.833	0.14
767.009	-0.27
767.185	-0.17
767.361	-0.13
767.537	-0.2
767.713	0.07
767.889	-0.07
768.065	0
768.24	-0.22
768.416	-0.01
768.592	-0.04
768.768	-0.08
768.944	-0.17
769.12	-0.31
769.295	-0.25
769.471	-0.15
769.647	-0.1
769.823	-0.09
769.998	-0.19
770.174	-0.1
770.35	0.23
770.525	0.17
770.701	-0.03
770.877	-0.02
771.052	-0.17
771.228	-0.06
771.403	-0.01
771.579	0.04
771.755	0.15
771.93	-0.24
772.106	-0.16
772.281	-0.28
772.457	0.03
772.632	-0.03
772.808	-0.21
772.983	-0.12
773.159	-0.23
773.334	0.01
773.509	-0.02
773.685	-0.08
773.86	0.24
774.036	0.11
774.211	-0.12
774.386	-0.15
774.562	-0.11
774.737	-0.03
774.912	-0.16
775.087	0.03
775.263	-0.2
775.438	-0
775.613	-0.17
775.788	-0.08
775.964	0.09
776.139	0.3
776.314	-0.18
776.489	-0
776.664	-0.12
776.839	-0.06
777.014	0.04
777.19	0.03
777.365	0.22
777.54	0.18
777.715	-0.19
777.89	-0.14
778.065	-0.16
778.24	-0.16
778.415	-0
778.59	-0.17
778.765	-0.04
778.94	-0.02
779.115	-0.26
779.289	-0.07
779.464	-0.02
779.639	-0.19
779.814	-0.27
779.989	-0.2
780.164	0.06
780.339	-0.13
780.513	-0.27
780.688	-0.14
780.863	-0.07
781.038	-0.08
781.212	-0.15
781.387	-0.03
781.562	0.16
781.737	-0.23
781.911	0.02
782.086	-0.12
782.261	-0.14
782.435	0.24
782.61	-0.17
782.784	-0.02
782.959	0.19
783.134	-0.13
783.308	-0.29
783.483	-0.18
783.657	0.13
783.832	0.25
784.006	-0.36
784.181	-0.05
784.355	0.24
784.53	-0.03
784.704	-0.15
784.878	0.16
785.053	-0.1
785.227	0.04
785.402	0.31
785.576	-0.35
785.75	-0.08
785.925	0.03
786.099	-0.11
786.273	-0.19
786.448	-0.03
786.622	-0.08
786.796	-0.15
786.97	-0.16
787.145	0.32
787.319	-0.13
787.493	-0.05
787.667	-0.36
787.841	-0.2
788.015	-0.16
788.19	-0.23
788.364	0.11
788.538	0.03
788.712	0.15
788.886	-0.1
789.06	0.27
789.234	0.06
789.408	-0.32
789.582	0.02
789.756	-0.13
789.93	-0.3
790.104	-0.03
790.278	-0.25
790.452	-0.38
790.626	0.03
790.8	-0.15
790.973	-0.12
791.147	0.03
791.321	0.19
791.495	-0.06
791.669	0.02
791.843	-0.18
792.016	-0.08
792.19	0.23
792.364	-0.24
792.538	0.35
792.711	0.26
792.885	-0.08
793.059	-0.39
793.233	-0.66
793.406	0.1
793.58	0.03
793.754	0.06
793.927	-0.13
794.101	0.17
794.274	-0.07
794.448	-0.01
794.622	-0.41
794.795	0.07
794.969	-0.08
795.142	0.14
795.316	-0.14
795.489	-0.23
795.663	0.15
795.836	-0.11
796.009	-0.34
796.183	0.1
796.356	-0.08
796.53	0.03
796.703	-0.14
796.876	0.36
797.05	0.01
797.223	-0.33
797.396	0.04
797.57	-0.05
797.743	0.47
797.916	-0.02
798.09	-0
798.263	0.18
798.436	-0.17
798.609	-0.15
798.782	-0.12
798.956	0.07
799.129	-0.24
799.302	-0.11
799.475	-0.21
799.648	-0.36
799.821	-0.15
799.994	-0.07
800.167	-0.41
800.34	-0.06
800.514	0.16
800.687	-0.14
800.86	-0.07
801.033	-0
801.206	-0.07
801.379	-0.3
801.551	0.15
801.724	-0.13
801.897	0.41
802.07	0.02
802.243	-0.54
802.416	-0.55
802.589	-0.14
802.762	0.08
802.935	-0.48
803.107	0.09
803.28	0.15
803.453	-0.05
803.626	-0.39
803.798	-0.21
803.971	-0.45
804.144	-0.01
804.317	0.05
804.489	0.13
804.662	-0.09
804.835	-0.06
805.007	-0.46
805.18	0.3
805.353	-0.12
805.525	-0.52
805.698	-0.08
805.87	-0.05
806.043	0.01
806.215	-0.39
806.388	-0.1
806.56	-0.16
806.733	0.23
806.905	-0.03
807.078	-0.52
807.25	-0.38
807.423	-0.08
807.595	-0.3
807.768	-0.29
807.94	0.03
808.112	0.16
808.285	0.17
808.457	-0.28
808.629	0.03
808.802	0.1
808.974	-0.29
809.146	-0.14
809.318	-0.39
809.491	0.1
809.663	0.32
809.835	-0.56
810.007	-0.17
810.18	-0.27
810.352	-0.58
810.524	-0.19
810.696	0.16
810.868	0.39
811.04	-0.43
811.212	-0.31
811.384	0.02
811.556	-0.01
811.728	-0.23
811.901	0.4
812.073	-0.1
812.245	0.16
812.417	-0.13
812.589	-0.57
812.76	-0.05
812.932	0.14
813.104	0.23
813.276	-0.32
813.448	-0.12
813.62	0
813.792	0.26
813.964	-0
814.136	-0.03
814.307	-0.27
814.479	-0.13
814.651	-0.15
814.823	0.35
814.995	-0.24
815.166	0.32
815.338	-0.17
815.51	-0.66
815.681	0.48
815.853	-0.05
816.025	0.2
816.196	0.17
816.368	0.21
816.54	-0.33
816.711	-0.5
816.883	-0.07
817.054	0.46
817.226	-0.8
817.398	-0.23
817.569	-0.42
817.741	-0.32
817.912	-0.19
818.084	-0.13
818.255	0.11
818.426	-0.12
818.598	0.02
818.769	-0.37
818.941	0.13
819.112	0.25
819.283	-0.09
819.455	-0.56
819.626	-0.07
819.798	0.32
819.969	-0.24
820.14	-0.22
820.311	-0.56
820.483	-0.11
820.654	-0.01
820.825	-0.31
820.996	-0.58
821.168	-0.56
821.339	-0.48
821.51	-0.8
821.681	-0.51
821.852	-0.02
822.023	-0.35
822.195	-0.43
822.366	-0.03
822.537	-0.04
822.708	-0.28
822.879	-0.73
823.05	0.1
823.221	-0.39
823.392	0.01
823.563	-0.25
823.734	-0.24
823.905	-0.17
824.076	-0.41
824.247	-0.75
824.418	0
824.589	0.39
824.759	-0.14
824.93	0.08
825.101	-0.32
825.272	-0.24
825.443	-0.01
825.614	0.32
825.784	-0.89
825.955	0.84
826.126	0.52
826.297	-0.63
826.467	0.34
826.638	0.45
826.809	-0.84
826.98	0.26
827.15	-0.42
827.321	-0.56
827.492	0.15
827.662	-0.73
827.833	0.13
828.003	0.15
828.174	-0.33
828.345	-0.64
828.515	0.38
828.686	0
828.856	-0.42
829.027	-0.28
829.197	-0.81
829.368	-0.06
829.538	-0.64
829.709	-0.54
829.879	-0.17
830.049	0.01
830.22	-0.12
830.39	-0.06
830.56	-0.01
830.731	-0.62
830.901	-0.67
831.072	-0.15
831.242	-0.41
831.412	0.01
831.582	0.2
831.753	-0.82
831.923	0.17
832.093	-0.29
832.263	-0.42
832.434	-0.25
832.604	-1.07
832.774	0.36
832.944	-0.07
833.114	-0.52
833.284	0.55
833.454	-1.16
833.624	-0.74
833.795	-0.73
833.965	0.48
834.135	0.36
834.305	-0.83
834.475	-0.59
834.645	-0.2
834.815	-0.61
834.985	-0.32
835.155	-0.35
835.325	0.13
835.494	0.2
835.664	0.01
835.834	-0.89
836.004	-0.31
836.174	-0.34
836.344	0.05
836.514	-1.21
836.684	-0.42
836.853	0.15
837.023	0.04
837.193	-0.69
837.363	0.55
837.532	0.21
837.702	-0.28
837.872	-0.63
838.041	0.21
838.211	0.95
838.381	-0.79
838.55	-0.36
838.72	1.12
838.89	0.35
839.059	-0.19
839.229	-0.16
839.398	0.92
839.568	-0.28
839.738	-1
839.907	0.76
840.077	0.12
840.246	-0.64
840.416	-0.83
840.585	-0.79
840.755	0.12
840.924	0.6
841.093	-0.83
841.263	-0.25
841.432	0.48
841.602	-0.66
841.771	-1.2
841.94	-0.48
842.11	1.02
842.279	0.85
842.448	-1.13
842.617	-0.72
842.787	0.55
842.956	-1.74
843.125	-0.46
843.294	-0.34
843.464	0.27
843.633	-0.92
843.802	-0.39
843.971	-0.33
844.14	0.53
844.309	0.26
844.479	-0.73
844.648	-0.81
844.817	-0.86
844.986	-0.13
845.155	-0.06
845.324	-0.58
845.493	-0.38
845.662	-1.3
845.831	-0.21
846	-0.43
846.169	-0.52
846.338	0.64
846.507	-0.79
846.676	0.42
846.844	-0.77
847.013	0.23
847.182	-0.21
847.351	-0.2
847.52	-0.29
847.689	-0.5
847.858	-0.53
848.026	-0.36
848.195	0.16
848.364	-0.15
848.533	-1.42
848.701	-0.48
848.87	-1.05
849.039	-0.16
849.207	0.45
849.376	1.49
849.545	0.74
849.713	-0.85
849.882	-0.76
850.051	0.12
850.219	-0.14
850.388	-0.18
850.556	-0.6
850.725	-1.4
850.893	-0.37
851.062	-1.17
851.23	0.03
851.399	-1.45
851.567	-1.08
851.736	0.3
851.904	-1.77
852.073	-0.5
852.241	-0.13
852.41	-0.5
852.578	-0.11
852.746	-0.96
852.915	0.74
853.083	-0.41
853.251	-1.44
853.42	-0.85
853.588	-0.38
853.756	0.73
853.924	-1.74
854.093	-0.88
854.261	-0.74
854.429	-1.66
854.597	-0.44
854.765	-1.05
854.934	-0.04
855.102	-0.2
855.27	-0.2
855.438	0.62
855.606	0.56
855.774	0.94
855.942	-1.08
856.11	-1.66
856.278	-0.98
856.446	0.5
856.614	-0.06
856.782	-1.11
856.95	1.33
857.118	-0.01
857.286	-0.37
857.454	-1
857.622	1.07
857.79	-0.49
857.958	-0.82
858.126	-0.57
858.294	-2.58
858.462	0.51
858.629	-0.94
858.797	-0.71
858.965	-0.01
859.133	-0.55
859.301	-1.33
859.468	0.3
859.636	-1.17
859.804	0.72
859.971	-0.36
860.139	-1.49
860.307	-0.36
860.474	-1
860.642	-1.05
860.81	-1.41
860.977	0.23
861.145	-0.41
861.313	0.38
861.48	0.42
861.648	0.43
861.815	-0.59
861.983	-1.39
862.15	-1.36
862.318	-0.74
862.485	0.67
862.653	-1
862.82	-1.96
862.988	1.44
863.155	0.91
863.322	-0.87
863.49	-1.89
863.657	-1.7
863.824	0.9
863.992	-0.87
864.159	-1.13
864.326	1.76
864.494	-2
864.661	2.8
864.828	-1.07
864.996	0.55
865.163	0.36
865.33	-1.52
865.497	-2.61
865.664	-0.96
865.832	-2.96
865.999	-0.83
866.166	-0.6
866.333	-1.58
866.5	-0.97
866.667	0.8
866.834	-0.52
867.001	0.03
867.168	-2.76
867.335	0.82
867.502	-1.18
867.669	-2.09
867.836	1.06
868.003	-0.38
868.17	1.22
868.337	-2.81
868.504	1.69
868.671	-2.18
868.838	-1.33
869.005	-0.4
869.172	1.09
869.339	-1.41
869.505	0.22
869.672	-0.88
869.839	2.58
870.006	-1.62
870.173	-3.21
870.339	-0.34
870.506	0.84
870.673	-2.44
870.84	0.94
871.006	0.92
871.173	-0.44
871.34	-1.35
871.506	-1.41
871.673	0.91
871.839	-3.21
872.006	-0.34
872.173	-0.95
872.339	-1.22
872.506	0.32
872.672	0.44
872.839	-2.63
873.005	-0.05
873.172	2.67
873.338	0.2
873.505	0
873.671	-0.89
873.838	0.78
874.004	-2.72
874.171	-0.61
874.337	-0.56
874.503	1.36
874.67	-0.22
874.836	-1.53
875.002	3.05
875.169	-1.49
875.335	-1.22
875.501	-2.59
875.668	1.92
875.834	-0.14
876	0.09
876.166	0.93
876.332	1.91
876.499	1.27
876.665	-2.5
876.831	-0.8
876.997	1.87
877.163	-0.05
877.329	-1.33
877.495	0.48
877.662	2.13
877.828	0.06
877.994	-2.11
878.16	-2.64
878.326	-0.38
878.492	-0.92
878.658	-1.31
878.824	-0.09
878.99	0.47
879.156	-1.22
879.322	1.63
879.487	-1.38
879.653	-0.87
879.819	0.1
879.985	-2.89
880.151	0.43
880.317	-0.11
880.483	-0.22
880.648	0.04
880.814	-2.44
880.98	0.02
881.146	-2.89
881.312	-1.25
881.477	-1.23
881.643	-0.24
881.809	1.08
881.974	-0.07
882.14	-2.76
882.306	-1.99
882.471	1.7
882.637	-2.79
882.803	0.06
882.968	0.83
883.134	1.18
883.299	-2
883.465	-0.63
883.63	-0.55
883.796	-1.23
883.961	1.23
884.127	-1.41
884.292	-5.36
884.458	-1.71
884.623	-1.71
