Data from Apollo_Calib_20240827__AbsoluteIrradiance__479__07-08-02-070.txt Node

Date: Wed Aug 28 07:08:02 BST 2024
User: biology
Spectrometer: FLMT08252
Trigger mode: 0
Integration Time (sec): 5.000000E-1
Scans to average: 5
Electric dark correction enabled: true
Nonlinearity correction enabled: false
Boxcar width: 0
XAxis mode: Wavelengths
Number of Pixels in Spectrum: 3648
>>>>>Begin Spectral Data<<<<<
179.588	-0
179.809	-0
180.03	-0
180.251	-0
180.473	-0
180.694	0
180.915	0
181.136	-0
181.357	0
181.578	0
181.799	-0
182.02	-0
182.241	0
182.462	-0
182.683	0
182.904	-0
183.125	-0
183.346	0
183.567	0
183.788	-0
184.009	-0
184.23	0
184.451	0
184.672	-0
184.892	-0
185.113	0
185.334	0
185.555	-0
185.776	0
185.996	-0
186.217	0
186.438	-0
186.659	-0
186.879	0
187.1	0
187.321	-0
187.541	-0
187.762	0
187.983	-0
188.203	-0
188.424	0
188.644	-0
188.865	-0
189.086	-0
189.306	-0
189.527	-0
189.747	0
189.968	-0
190.188	0
190.409	-0
190.629	0
190.849	-0
191.07	-0
191.29	0
191.511	0
191.731	-0
191.951	-0
192.172	0
192.392	-0
192.612	-0
192.833	0
193.053	0
193.273	0
193.493	-0
193.714	-0
193.934	0
194.154	0
194.374	0
194.594	-0
194.815	-0
195.035	0
195.255	-0
195.475	-0
195.695	0
195.915	-0
196.135	0
196.355	0
196.575	0
196.795	0
197.015	-0
197.235	-0
197.455	-0
197.675	0
197.895	-0
198.115	-0
198.335	0
198.555	-0
198.775	0
198.995	0
199.214	0
199.434	0
199.654	-0
199.874	-0
200.094	-1.43
200.313	-0.72
200.533	-0.63
200.753	-1.12
200.973	1.11
201.192	0.54
201.412	-1.05
201.632	-0.59
201.851	0.49
202.071	-0.53
202.291	-0.1
202.51	-0.58
202.73	-0.28
202.95	-0.45
203.169	-0.82
203.389	-0.24
203.608	-0.11
203.828	-0.05
204.047	-0.41
204.267	-0.08
204.486	-0.25
204.706	-0.06
204.925	-0.12
205.145	-0.58
205.364	0.2
205.583	0.27
205.803	-0.19
206.022	-0.56
206.242	-0.04
206.461	0.17
206.68	-0.21
206.9	-0.12
207.119	0.51
207.338	0.39
207.557	-0.42
207.777	-0.14
207.996	0.13
208.215	0.17
208.434	-0.43
208.654	-0.5
208.873	-0.29
209.092	0.24
209.311	-0.44
209.53	-0.02
209.749	-0.3
209.968	-0.47
210.187	-0.03
210.407	-0.54
210.626	-0.34
210.845	0.1
211.064	0.16
211.283	-0.19
211.502	0.33
211.721	-0.18
211.94	-0.06
212.159	0.18
212.377	0.13
212.596	0.36
212.815	0
213.034	0.07
213.253	0.19
213.472	0.19
213.691	-0.17
213.91	-0.24
214.128	-0.28
214.347	0.4
214.566	-0.54
214.785	-0.24
215.003	0.21
215.222	-0.21
215.441	-0.01
215.66	-0.54
215.878	-0
216.097	-0.04
216.316	-0.13
216.534	-0.27
216.753	0.06
216.972	-0.08
217.19	-0.06
217.409	-0.19
217.627	-0.13
217.846	-0.33
218.064	-0
218.283	-0.22
218.501	0.15
218.72	0
218.938	-0.24
219.157	-0.27
219.375	0.17
219.594	0.07
219.812	-0.29
220.031	-0.16
220.249	0.2
220.467	0.21
220.686	-0.11
220.904	-0.16
221.122	-0.17
221.341	0.22
221.559	-0.01
221.777	-0.3
221.995	-0.04
222.214	-0.05
222.432	-0.2
222.65	0.12
222.868	0.06
223.086	0.06
223.305	0.09
223.523	0.03
223.741	0.15
223.959	-0.14
224.177	-0.16
224.395	-0.17
224.613	0
224.831	0.06
225.049	-0.11
225.267	0.03
225.485	0.01
225.703	-0.19
225.921	-0.1
226.139	-0.2
226.357	0.1
226.575	0.04
226.793	-0.09
227.011	0.43
227.229	-0.01
227.447	0.06
227.665	-0.18
227.883	-0.34
228.1	-0.03
228.318	0.05
228.536	-0.27
228.754	-0.15
228.972	-0.04
229.189	0.02
229.407	-0.12
229.625	-0.08
229.843	0.18
230.06	0.03
230.278	-0.07
230.496	-0.03
230.713	0.08
230.931	0.03
231.149	-0.09
231.366	-0.16
231.584	0.01
231.801	0.3
232.019	-0.11
232.236	-0.21
232.454	-0.16
232.671	0.09
232.889	-0.07
233.106	-0.15
233.324	-0.04
233.541	-0.11
233.759	0.02
233.976	-0.11
234.194	0.14
234.411	-0.01
234.628	-0.05
234.846	-0.08
235.063	-0.05
235.28	-0.05
235.498	-0.01
235.715	-0.13
235.932	0.08
236.149	-0.05
236.367	-0.17
236.584	-0.03
236.801	-0.08
237.018	-0
237.236	0.01
237.453	-0.2
237.67	0.07
237.887	-0.02
238.104	-0.03
238.321	-0.17
238.538	-0.12
238.755	0.12
238.973	-0.21
239.19	0
239.407	-0.09
239.624	0
239.841	-0.17
240.058	-0.12
240.275	0.11
240.492	-0.15
240.709	-0.03
240.925	-0.13
241.142	0
241.359	-0.15
241.576	-0.06
241.793	-0.11
242.01	-0.03
242.227	0.08
242.444	0.03
242.66	0.05
242.877	-0.07
243.094	-0.1
243.311	0.08
243.527	-0.1
243.744	-0.05
243.961	0.07
244.178	-0.15
244.394	0.05
244.611	0.01
244.828	0.11
245.044	-0.04
245.261	-0.11
245.477	-0.03
245.694	0.12
245.911	-0.05
246.127	0.06
246.344	0.13
246.56	0.06
246.777	-0.09
246.993	0
247.21	-0.04
247.426	0.07
247.643	-0.07
247.859	-0.12
248.076	-0.04
248.292	0.14
248.508	-0.09
248.725	0.06
248.941	-0.05
249.157	0.16
249.374	-0.08
249.59	-0.1
249.806	-0.09
250.023	-0
250.239	-0.06
250.455	-0.12
250.671	-0.02
250.888	0.09
251.104	-0.02
251.32	-0.09
251.536	-0.04
251.752	-0.04
251.969	-0
252.185	-0.07
252.401	0.13
252.617	-0.06
252.833	-0.1
253.049	-0.04
253.265	-0.01
253.481	-0.01
253.697	-0.08
253.913	-0.08
254.129	-0.03
254.345	0.04
254.561	0.02
254.777	-0
254.993	0.05
255.209	-0
255.425	0.02
255.641	-0.06
255.857	0.05
256.073	0.02
256.288	-0.11
256.504	-0.05
256.72	-0
256.936	0.11
257.152	-0.02
257.367	-0.03
257.583	-0.02
257.799	0.04
258.015	-0.08
258.23	-0.09
258.446	0.08
258.662	0.02
258.877	-0.05
259.093	-0.07
259.309	-0.09
259.524	-0.01
259.74	-0.08
259.955	-0.12
260.171	0.05
260.387	-0.03
260.602	0.07
260.818	0.03
261.033	-0.06
261.249	-0.08
261.464	-0.04
261.68	-0.11
261.895	0.03
262.11	0.04
262.326	-0.02
262.541	-0.12
262.757	0.08
262.972	0.02
263.187	-0.04
263.403	-0.04
263.618	-0.02
263.833	-0.04
264.049	-0.12
264.264	-0.03
264.479	0.01
264.694	0.09
264.91	-0.09
265.125	-0.05
265.34	0.06
265.555	0.06
265.77	-0.01
265.986	-0.05
266.201	0.02
266.416	0.05
266.631	-0.04
266.846	-0.07
267.061	0.03
267.276	0.01
267.491	-0.14
267.706	0.05
267.921	-0.01
268.136	-0.02
268.351	-0.04
268.566	-0.09
268.781	0.04
268.996	0.03
269.211	0.05
269.426	-0.03
269.641	-0.06
269.856	-0.01
270.071	-0.02
270.285	-0.09
270.5	0.02
270.715	0.05
270.93	0.01
271.145	-0.04
271.359	0.03
271.574	-0.06
271.789	-0.05
272.004	-0.06
272.218	-0
272.433	0.01
272.648	-0.1
272.862	0.03
273.077	-0.06
273.292	0.03
273.506	-0.02
273.721	-0.02
273.936	0.04
274.15	0.05
274.365	-0.06
274.579	0.04
274.794	-0.05
275.008	0.03
275.223	-0.06
275.437	-0.03
275.652	0.02
275.866	0.03
276.081	0.01
276.295	0.05
276.509	-0.02
276.724	0
276.938	0.01
277.153	0.07
277.367	0.02
277.581	-0.02
277.796	-0.04
278.01	-0.07
278.224	0
278.438	0.11
278.653	-0.09
278.867	-0.07
279.081	-0.21
279.295	-0.01
279.51	0.01
279.724	-0.1
279.938	0.08
280.152	0.02
280.366	-0.01
280.58	0.08
280.794	0.03
281.008	0.02
281.222	0.01
281.437	0.1
281.651	-0.04
281.865	0.05
282.079	-0.06
282.293	-0.14
282.507	-0.06
282.721	-0
282.935	-0.02
283.148	-0.07
283.362	-0.07
283.576	-0.08
283.79	0.02
284.004	-0.08
284.218	0.04
284.432	-0.05
284.646	-0.01
284.859	-0.03
285.073	-0.01
285.287	-0.01
285.501	-0.06
285.714	-0.03
285.928	0.01
286.142	0.01
286.356	-0.06
286.569	-0.04
286.783	0.05
286.997	0.04
287.21	0.01
287.424	-0
287.637	-0.02
287.851	-0.03
288.065	0.01
288.278	-0.01
288.492	0.01
288.705	-0
288.919	0.04
289.132	-0.04
289.346	0.04
289.559	-0.08
289.773	-0.09
289.986	-0
290.2	-0.03
290.413	0.06
290.626	-0.03
290.84	0.01
291.053	-0.01
291.267	0.05
291.48	-0.01
291.693	-0.06
291.906	-0.02
292.12	-0.07
292.333	-0.04
292.546	0
292.76	0.03
292.973	0.01
293.186	-0.03
293.399	-0.03
293.612	0.06
293.826	-0.04
294.039	-0.01
294.252	-0.05
294.465	0.01
294.678	0.04
294.891	-0.02
295.104	-0.05
295.317	-0.01
295.53	0.01
295.743	-0.01
295.956	-0.02
296.169	0.06
296.382	0
296.595	-0.03
296.808	-0.04
297.021	0.06
297.234	0.03
297.447	0.02
297.66	0.02
297.873	0.06
298.086	0.02
298.299	-0.08
298.511	-0.06
298.724	-0.05
298.937	-0.03
299.15	-0.05
299.363	-0
299.575	0.02
299.788	0.05
300.001	-0.01
300.213	-0.03
300.426	-0.03
300.639	-0.03
300.852	-0.02
301.064	0.02
301.277	0.06
301.489	-0.02
301.702	0.01
301.915	-0.03
302.127	0
302.34	0.03
302.552	0.07
302.765	-0.06
302.977	0.04
303.19	-0
303.402	-0.01
303.615	-0.02
303.827	-0.04
304.04	0.01
304.252	0.03
304.464	0
304.677	0.1
304.889	0.07
305.102	-0.03
305.314	-0.02
305.526	0.08
305.739	0.04
305.951	-0.06
306.163	-0.04
306.375	0.03
306.588	-0.05
306.8	0
307.012	-0.05
307.224	0
307.436	0.08
307.649	-0.08
307.861	0.02
308.073	0.03
308.285	-0.05
308.497	-0.03
308.709	-0.05
308.921	-0.02
309.133	0.01
309.346	-0.03
309.558	-0.03
309.77	-0.01
309.982	0.07
310.194	0.06
310.406	-0.04
310.617	0.1
310.829	0.03
311.041	0.03
311.253	-0.04
311.465	-0
311.677	0.02
311.889	-0.01
312.101	-0.06
312.313	-0.01
312.524	0.05
312.736	-0.06
312.948	-0.01
313.16	0.06
313.372	0.03
313.583	-0
313.795	0.02
314.007	-0.04
314.218	0.05
314.43	0.02
314.642	-0.04
314.853	-0.05
315.065	0.01
315.277	-0.01
315.488	0.01
315.7	-0.02
315.912	0.04
316.123	-0.02
316.335	-0.02
316.546	0.09
316.758	-0.05
316.969	-0.03
317.181	-0.01
317.392	-0.03
317.604	0.04
317.815	-0.04
318.026	-0.04
318.238	-0.02
318.449	0.03
318.661	-0.07
318.872	-0.02
319.083	-0.09
319.295	0.02
319.506	-0.05
319.717	-0
319.929	0.04
320.14	0.01
320.351	0.03
320.562	-0.02
320.774	-0
320.985	0
321.196	-0.02
321.407	-0.07
321.618	0.03
321.829	0.01
322.041	-0.01
322.252	-0.03
322.463	0.01
322.674	-0.03
322.885	-0.05
323.096	-0.01
323.307	-0.05
323.518	0
323.729	-0.05
323.94	-0.01
324.151	-0.07
324.362	0.02
324.573	0.01
324.784	-0.04
324.995	0.05
325.206	0.03
325.417	-0.04
325.628	-0.04
325.838	-0.03
326.049	0.01
326.26	0.02
326.471	-0.06
326.682	0.01
326.892	-0.02
327.103	-0.08
327.314	-0.06
327.525	0.06
327.735	0.05
327.946	-0.04
328.157	-0.05
328.368	0
328.578	-0.04
328.789	0.01
328.999	0.01
329.21	-0.06
329.421	-0.01
329.631	-0.03
329.842	-0.03
330.052	-0.04
330.263	0.01
330.473	0.04
330.684	-0.02
330.894	-0.04
331.105	0.07
331.315	-0.02
331.526	-0.07
331.736	0.08
331.947	-0
332.157	0
332.367	-0.09
332.578	0.03
332.788	0.04
332.999	-0.03
333.209	-0.01
333.419	-0.07
333.629	0.03
333.84	-0.01
334.05	0.01
334.26	0.03
334.47	0.04
334.681	0.06
334.891	-0.03
335.101	0.03
335.311	0.08
335.521	0.02
335.732	-0.07
335.942	0.06
336.152	0.04
336.362	0.01
336.572	0.02
336.782	-0
336.992	-0.03
337.202	-0.04
337.412	-0.04
337.622	0.02
337.832	0.03
338.042	-0.02
338.252	-0.04
338.462	-0.03
338.672	-0
338.882	-0.03
339.092	-0.04
339.302	0.07
339.511	0.04
339.721	-0.04
339.931	-0.03
340.141	0.05
340.351	0
340.561	0.01
340.77	-0
340.98	-0.05
341.19	0.03
341.4	-0.03
341.609	-0.06
341.819	-0.04
342.029	-0.08
342.238	0.02
342.448	-0.02
342.658	0.03
342.867	0.02
343.077	0.01
343.286	-0.02
343.496	0.02
343.706	0.03
343.915	-0.06
344.125	-0.01
344.334	-0.01
344.544	-0.04
344.753	-0.05
344.963	-0.01
345.172	-0.05
345.381	-0.03
345.591	-0.05
345.8	-0.01
346.01	0.05
346.219	0.05
346.428	-0.16
346.638	-0.01
346.847	-0
347.056	0.08
347.266	-0.05
347.475	-0.01
347.684	0.04
347.893	0.05
348.103	0.03
348.312	-0.02
348.521	-0.05
348.73	0
348.94	-0.02
349.149	-0.03
349.358	-0.04
349.567	-0.06
349.776	-0.07
349.985	-0.02
350.194	0.03
350.403	0.03
350.612	-0.04
350.821	-0.02
351.03	-0.02
351.239	-0.05
351.448	0.02
351.657	-0.04
351.866	0.05
352.075	-0.02
352.284	0.02
352.493	-0.03
352.702	0.06
352.911	0.01
353.12	0.01
353.329	-0
353.538	0.01
353.746	0
353.955	0.01
354.164	0.02
354.373	-0.02
354.582	0.03
354.79	-0
354.999	0.01
355.208	0.01
355.416	0.03
355.625	-0.02
355.834	-0
356.042	-0.01
356.251	0.01
356.46	-0.03
356.668	0.02
356.877	0.05
357.085	0.04
357.294	-0.07
357.503	0.02
357.711	-0.02
357.92	0.1
358.128	0.03
358.337	-0.02
358.545	0.01
358.754	-0.03
358.962	-0
359.17	-0.01
359.379	0.02
359.587	0.05
359.796	-0.01
360.004	0.03
360.212	0.02
360.421	0.05
360.629	-0.02
360.837	0
361.046	0.02
361.254	0.09
361.462	0
361.67	-0.03
361.879	0
362.087	0.05
362.295	-0.01
362.503	-0.03
362.711	-0.05
362.92	-0.04
363.128	-0.01
363.336	-0.05
363.544	-0.07
363.752	-0.01
363.96	-0.04
364.168	-0.01
364.376	-0.04
364.584	0.04
364.792	0.03
365	0.03
365.208	0
365.416	0.02
365.624	0.01
365.832	-0.01
366.04	0.04
366.248	0.02
366.456	0.01
366.664	0.02
366.872	-0.02
367.079	-0.01
367.287	-0.02
367.495	0.01
367.703	-0.02
367.911	-0.01
368.118	-0.06
368.326	0.01
368.534	-0.05
368.742	0.07
368.949	-0.1
369.157	-0
369.365	-0
369.572	0.02
369.78	-0.07
369.988	0.02
370.195	-0
370.403	0.03
370.61	-0.02
370.818	-0.01
371.026	0.06
371.233	-0.04
371.441	0.02
371.648	-0.03
371.856	0.02
372.063	0.01
372.271	0.02
372.478	-0.02
372.685	-0.01
372.893	0.05
373.1	-0.04
373.308	-0.02
373.515	0.03
373.722	-0.01
373.93	-0.06
374.137	-0
374.344	0.02
374.552	0.05
374.759	0.03
374.966	0.04
375.173	-0.01
375.381	0.05
375.588	-0.01
375.795	-0.07
376.002	-0.03
376.209	-0.06
376.417	-0.03
376.624	0.03
376.831	0.02
377.038	-0.08
377.245	-0.06
377.452	-0.01
377.659	-0.02
377.866	-0.02
378.073	-0.05
378.28	0.03
378.487	0.03
378.694	0.03
378.901	0.02
379.108	-0.01
379.315	0.03
379.522	0.06
379.729	-0
379.936	-0.01
380.143	-0
380.35	0
380.557	-0.03
380.763	0.03
380.97	0
381.177	-0
381.384	-0
381.591	-0.02
381.797	-0.03
382.004	0.02
382.211	-0.02
382.418	-0
382.624	0.02
382.831	0
383.038	-0.02
383.244	0.01
383.451	-0.02
383.658	0.04
383.864	0.02
384.071	-0.03
384.277	0.03
384.484	-0.05
384.69	0.05
384.897	-0.05
385.103	-0.02
385.31	-0.02
385.516	-0
385.723	-0
385.929	-0.04
386.136	-0.01
386.342	0.02
386.549	-0.01
386.755	0.04
386.961	0.01
387.168	-0.02
387.374	-0.03
387.58	0.01
387.787	0
387.993	0.04
388.199	-0.04
388.406	-0.06
388.612	0.02
388.818	-0.01
389.024	-0.04
389.231	0.01
389.437	0.05
389.643	-0
389.849	-0.01
390.055	-0.01
390.261	-0.01
390.467	0.02
390.674	-0.05
390.88	-0.01
391.086	0.03
391.292	-0.04
391.498	-0.02
391.704	0.02
391.91	-0.02
392.116	-0.02
392.322	-0.03
392.528	0
392.734	-0.03
392.94	0.02
393.146	0.01
393.352	-0
393.557	-0.04
393.763	-0.03
393.969	0
394.175	-0.04
394.381	0
394.587	-0.02
394.792	0.01
394.998	0.04
395.204	0.01
395.41	-0.02
395.615	0.01
395.821	-0.02
396.027	-0.01
396.233	-0.02
396.438	-0.02
396.644	0.06
396.85	0.08
397.055	-0.01
397.261	-0
397.466	-0.02
397.672	-0.02
397.878	-0.02
398.083	-0
398.289	-0.04
398.494	0.03
398.7	0.01
398.905	-0.1
399.111	0.05
399.316	-0.05
399.522	-0.02
399.727	-0.03
399.932	-0.08
400.138	0
400.343	0.01
400.549	-0.01
400.754	0
400.959	0
401.165	0.02
401.37	-0.03
401.575	0.06
401.78	-0.02
401.986	-0.04
402.191	-0.02
402.396	-0.04
402.601	0.02
402.807	-0.03
403.012	-0.02
403.217	0.04
403.422	-0.05
403.627	0.01
403.832	-0.06
404.037	0.06
404.243	0.01
404.448	-0.04
404.653	-0.04
404.858	-0.03
405.063	0.01
405.268	-0.01
405.473	-0.03
405.678	0.01
405.883	0.09
406.088	-0.01
406.293	-0.08
406.498	-0.04
406.703	0.03
406.907	-0.04
407.112	-0.02
407.317	-0
407.522	0.02
407.727	-0.08
407.932	-0.01
408.136	0.03
408.341	-0.02
408.546	0.05
408.751	0.03
408.956	-0.05
409.16	0.02
409.365	-0.02
409.57	-0.01
409.774	-0.03
409.979	0.05
410.184	-0.04
410.388	-0.01
410.593	0.02
410.798	-0.03
411.002	-0.01
411.207	-0.03
411.411	-0.02
411.616	-0.03
411.82	-0.04
412.025	-0
412.229	-0.06
412.434	0.04
412.638	0.01
412.843	0
413.047	0.01
413.252	-0.05
413.456	-0.03
413.66	0.02
413.865	-0.04
414.069	0.06
414.273	-0.07
414.478	-0.04
414.682	-0.04
414.886	-0.04
415.091	-0.09
415.295	-0.09
415.499	-0.01
415.703	-0.08
415.908	-0
416.112	-0.07
416.316	0.02
416.52	-0.03
416.724	-0.02
416.929	-0.07
417.133	0.07
417.337	-0.05
417.541	-0.01
417.745	-0.06
417.949	0.02
418.153	-0.04
418.357	-0.11
418.561	0.03
418.765	-0.03
418.969	0.08
419.173	0.06
419.377	-0.07
419.581	0.07
419.785	-0.05
419.989	-0.08
420.193	-0.05
420.397	-0.06
420.601	0.05
420.804	0.05
421.008	0.02
421.212	-0.02
421.416	0.01
421.62	-0.06
421.823	-0.03
422.027	0.07
422.231	-0
422.435	-0.01
422.638	0.03
422.842	0.04
423.046	-0.03
423.249	-0
423.453	0.02
423.657	-0.01
423.86	-0.04
424.064	-0.04
424.268	0.06
424.471	0.01
424.675	0.06
424.878	0.06
425.082	0.01
425.285	-0.02
425.489	-0.02
425.692	-0.04
425.896	-0.06
426.099	-0.03
426.303	-0.05
426.506	-0.09
426.71	0
426.913	0.01
427.116	0.07
427.32	0.01
427.523	-0.07
427.726	0.07
427.93	-0.1
428.133	-0.03
428.336	-0.08
428.54	-0.08
428.743	0.02
428.946	-0.04
429.149	-0.04
429.353	-0.02
429.556	-0.03
429.759	-0.01
429.962	-0.08
430.165	-0.02
430.368	-0.04
430.571	-0.07
430.775	0.02
430.978	-0.05
431.181	-0.01
431.384	0.03
431.587	-0.05
431.79	-0.02
431.993	-0.1
432.196	-0.02
432.399	0.01
432.602	0.05
432.805	-0.03
433.008	-0.02
433.211	-0.12
433.414	0.04
433.616	0.02
433.819	-0.1
434.022	-0.09
434.225	0.06
434.428	0.01
434.631	0.08
434.833	0.02
435.036	-0.02
435.239	0.05
435.442	-0.05
435.645	-0.06
435.847	-0.01
436.05	0.03
436.253	0
436.455	-0.07
436.658	0.01
436.861	0.03
437.063	-0.06
437.266	-0.05
437.468	0.01
437.671	0.16
437.874	-0.01
438.076	-0.08
438.279	-0.08
438.481	-0.03
438.684	-0.04
438.886	-0.03
439.089	-0.14
439.291	-0.06
439.494	0.03
439.696	-0.02
439.899	-0.07
440.101	-0.02
440.303	-0.08
440.506	-0.03
440.708	-0.05
440.91	0.05
441.113	-0.08
441.315	0.01
441.517	-0.07
441.72	0.06
441.922	-0.02
442.124	-0.05
442.326	0.03
442.529	0.03
442.731	-0.04
442.933	0.08
443.135	-0.01
443.337	-0.05
443.539	-0.06
443.742	-0.01
443.944	-0.01
444.146	-0.05
444.348	-0.03
444.55	-0.01
444.752	-0.04
444.954	-0.04
445.156	0
445.358	-0.02
445.56	0.05
445.762	-0.06
445.964	-0.02
446.166	0.02
446.368	-0.05
446.57	0.05
446.772	-0.01
446.974	-0.03
447.175	0.01
447.377	-0.04
447.579	-0.08
447.781	-0.08
447.983	0.06
448.184	0.04
448.386	0.01
448.588	-0.07
448.79	-0.01
448.991	-0.04
449.193	-0.06
449.395	0.01
449.597	0.03
449.798	0
450	0.02
450.202	-0
450.403	-0.04
450.605	0.05
450.806	-0.01
451.008	-0.05
451.21	-0.01
451.411	-0.06
451.613	-0.04
451.814	0
452.016	0.01
452.217	0.02
452.419	0.03
452.62	-0.02
452.821	0.01
453.023	0.05
453.224	0.04
453.426	-0.05
453.627	-0
453.828	0.07
454.03	0.04
454.231	-0.02
454.432	-0.05
454.634	0.09
454.835	-0.02
455.036	-0.09
455.238	0.04
455.439	0.05
455.64	-0.06
455.841	-0.05
456.042	0.01
456.244	0.02
456.445	-0.05
456.646	-0.1
456.847	-0.03
457.048	0.03
457.249	0.02
457.45	0.2
457.651	-0.05
457.852	0.03
458.054	-0
458.255	-0.05
458.456	0.01
458.657	-0.05
458.858	-0.04
459.058	-0.01
459.259	0.05
459.46	-0.02
459.661	-0.03
459.862	0.09
460.063	-0
460.264	0.02
460.465	-0.07
460.666	0.07
460.866	-0.07
461.067	-0.01
461.268	-0
461.469	-0.01
461.67	0.02
461.87	-0.04
462.071	-0.06
462.272	-0.07
462.473	-0
462.673	0.01
462.874	-0.02
463.075	0
463.275	-0.03
463.476	-0.02
463.676	0.03
463.877	-0
464.078	-0.03
464.278	0.06
464.479	-0.09
464.679	-0.02
464.88	0.02
465.08	0.08
465.281	-0.04
465.481	-0.06
465.682	-0.05
465.882	0.07
466.083	-0.02
466.283	0.01
466.483	0.02
466.684	-0.05
466.884	-0.04
467.085	-0.04
467.285	0.06
467.485	-0.05
467.686	-0.01
467.886	-0.09
468.086	0.03
468.286	0.02
468.487	0
468.687	-0.07
468.887	-0.02
469.087	0.04
469.287	-0.02
469.488	-0.07
469.688	-0
469.888	0.02
470.088	0.04
470.288	0.03
470.488	0.04
470.688	-0.09
470.888	-0.02
471.088	-0.04
471.288	0.06
471.488	0.04
471.688	-0.01
471.888	0.01
472.088	0.01
472.288	0.02
472.488	-0.05
472.688	-0.06
472.888	-0
473.088	-0.01
473.288	0.03
473.488	0.01
473.688	0.07
473.887	0.01
474.087	-0.03
474.287	0.01
474.487	-0.03
474.687	0.03
474.886	-0.06
475.086	0.01
475.286	0.04
475.486	0.04
475.685	-0.01
475.885	-0.01
476.085	-0.02
476.284	0.04
476.484	-0.02
476.684	0.03
476.883	0.05
477.083	0.03
477.282	-0.03
477.482	0.01
477.681	0.02
477.881	0.01
478.08	-0.07
478.28	-0.04
478.479	0.04
478.679	0.06
478.878	-0.02
479.078	-0.01
479.277	0
479.477	-0.02
479.676	0.02
479.875	-0.02
480.075	-0.07
480.274	0.01
480.473	0.03
480.673	-0.01
480.872	0.01
481.071	-0.02
481.271	0.01
481.47	-0.01
481.669	-0.04
481.868	-0.03
482.067	-0.06
482.267	-0.03
482.466	-0.01
482.665	-0.05
482.864	-0.02
483.063	-0.04
483.262	0.04
483.461	0.04
483.661	0.02
483.86	0.01
484.059	-0
484.258	-0.02
484.457	-0.02
484.656	-0.01
484.855	0.04
485.054	-0.04
485.253	-0.04
485.452	-0.05
485.651	-0.02
485.849	-0.01
486.048	-0.03
486.247	-0.04
486.446	-0.01
486.645	-0.04
486.844	-0.01
487.043	-0.02
487.241	0.02
487.44	-0.02
487.639	-0.01
487.838	0.01
488.037	0.01
488.235	0.02
488.434	-0.01
488.633	-0.02
488.831	-0
489.03	0.01
489.229	-0.02
489.427	-0.01
489.626	0.04
489.825	0.05
490.023	0
490.222	-0.02
490.42	0.02
490.619	0.04
490.817	-0
491.016	-0.03
491.214	0
491.413	-0.02
491.611	-0.03
491.81	-0.02
492.008	0.02
492.207	0.01
492.405	-0
492.604	-0.05
492.802	-0.02
493	0.01
493.199	-0.02
493.397	-0
493.595	-0.02
493.794	-0.04
493.992	0.05
494.19	0.01
494.388	-0.01
494.587	-0.05
494.785	-0
494.983	-0.03
495.181	0
495.379	0.01
495.578	-0.02
495.776	-0.02
495.974	0.01
496.172	-0.03
496.37	-0.01
496.568	-0.03
496.766	-0.04
496.964	0.01
497.162	-0.02
497.36	-0.04
497.558	0.02
497.756	0.01
497.954	0.01
498.152	-0.02
498.35	0.01
498.548	-0.02
498.746	0
498.944	-0.02
499.142	-0.01
499.34	-0.04
499.538	-0
499.736	-0.04
499.933	0.02
500.131	0.02
500.329	0.01
500.527	0.02
500.725	0.01
500.922	0.01
501.12	0
501.318	-0
501.516	-0.04
501.713	0
501.911	-0.01
502.109	-0.04
502.306	0.01
502.504	-0.01
502.701	-0.03
502.899	-0.02
503.097	0.02
503.294	-0.01
503.492	-0.01
503.689	-0.01
503.887	0.02
504.084	0.05
504.282	0.02
504.479	-0.04
504.677	0
504.874	-0.03
505.072	0.01
505.269	-0.01
505.466	0.02
505.664	0.02
505.861	-0.05
506.059	-0.05
506.256	0.01
506.453	-0.01
506.651	0.03
506.848	0.01
507.045	0.01
507.242	0
507.44	-0.03
507.637	-0.01
507.834	-0
508.031	0.02
508.229	-0.04
508.426	-0.01
508.623	-0.01
508.82	-0.03
509.017	-0.01
509.214	0.01
509.411	-0.03
509.608	-0.03
509.805	-0.02
510.003	-0.02
510.2	-0.03
510.397	0.04
510.594	-0.02
510.791	-0.02
510.988	-0.01
511.184	0.01
511.381	-0.02
511.578	0
511.775	0.03
511.972	-0.01
512.169	-0.02
512.366	0.01
512.563	0
512.76	-0.03
512.956	0.01
513.153	-0.01
513.35	0
513.547	-0.01
513.744	-0.02
513.94	-0.02
514.137	0.01
514.334	0
514.53	-0.01
514.727	0.01
514.924	0.04
515.12	-0.03
515.317	-0.04
515.514	-0.01
515.71	-0.04
515.907	-0.01
516.103	-0
516.3	-0.01
516.497	0.02
516.693	0.03
516.89	-0
517.086	-0.03
517.283	0.02
517.479	-0.01
517.676	-0
517.872	-0.02
518.068	-0.02
518.265	-0.02
518.461	-0.01
518.658	-0.02
518.854	-0.01
519.05	-0.01
519.247	-0.01
519.443	0.01
519.639	0.02
519.836	-0.02
520.032	0
520.228	0
520.424	0.04
520.621	0.01
520.817	0.01
521.013	0.01
521.209	-0.01
521.405	0.02
521.601	-0
521.798	-0.01
521.994	0.03
522.19	-0.03
522.386	-0.05
522.582	-0.01
522.778	-0.01
522.974	-0.02
523.17	-0.01
523.366	-0.01
523.562	0.03
523.758	-0
523.954	-0.03
524.15	-0.02
524.346	-0.02
524.542	-0.02
524.738	-0.03
524.934	-0.02
525.129	-0.01
525.325	0.01
525.521	-0.01
525.717	0.02
525.913	0
526.109	-0.01
526.304	-0.03
526.5	0.02
526.696	0
526.892	-0.01
527.087	-0.01
527.283	-0.01
527.479	0.04
527.674	-0.02
527.87	-0.01
528.066	-0.02
528.261	0.01
528.457	-0
528.653	-0.02
528.848	-0
529.044	0.03
529.239	-0
529.435	0.02
529.63	0.01
529.826	0.01
530.021	0.02
530.217	0.01
530.412	-0.02
530.608	-0.02
530.803	0
530.999	-0.01
531.194	-0.05
531.389	0
531.585	-0.04
531.78	0.01
531.975	-0.03
532.171	0.01
532.366	-0.01
532.561	0.01
532.757	-0.04
532.952	-0.02
533.147	0.01
533.342	-0.01
533.538	-0.03
533.733	0.01
533.928	-0.01
534.123	-0.01
534.318	-0.04
534.513	-0.01
534.709	-0
534.904	-0.02
535.099	-0.01
535.294	-0.02
535.489	-0.02
535.684	-0.02
535.879	-0.03
536.074	-0.01
536.269	-0.03
536.464	0.01
536.659	-0.01
536.854	-0.01
537.049	-0
537.244	0.01
537.439	-0.02
537.634	0.02
537.828	-0.01
538.023	-0.01
538.218	-0.03
538.413	-0.02
538.608	-0.04
538.803	0
538.997	-0.04
539.192	0.03
539.387	0
539.582	0.01
539.776	0.02
539.971	-0.01
540.166	-0.01
540.36	-0.05
540.555	-0.01
540.75	-0
540.944	-0.01
541.139	-0.04
541.334	-0.02
541.528	0.01
541.723	0.02
541.917	-0.01
542.112	-0.04
542.306	-0.03
542.501	-0.01
542.695	-0
542.89	-0.02
543.084	-0.01
543.279	-0.02
543.473	-0.01
543.668	-0
543.862	-0.01
544.056	0.01
544.251	-0.02
544.445	0.01
544.64	-0.01
544.834	-0.02
545.028	0.02
545.222	0.02
545.417	0.01
545.611	0.01
545.805	-0.01
546	-0.03
546.194	-0.02
546.388	-0.01
546.582	-0
546.776	-0.01
546.97	-0.01
547.165	0
547.359	0.01
547.553	-0.03
547.747	-0.01
547.941	0.01
548.135	0
548.329	0.01
548.523	0.02
548.717	0
548.911	-0.02
549.105	-0.01
549.299	-0.02
549.493	0.02
549.687	-0
549.881	0.01
550.075	-0.01
550.269	-0.02
550.463	0.02
550.657	-0.03
550.85	-0
551.044	-0.02
551.238	0.02
551.432	-0.02
551.626	-0.03
551.82	0
552.013	-0.03
552.207	0.01
552.401	0.01
552.594	-0.01
552.788	-0.01
552.982	-0.01
553.176	-0.02
553.369	-0
553.563	0.01
553.756	-0.02
553.95	-0.02
554.144	-0.02
554.337	0.03
554.531	-0
554.724	-0.01
554.918	-0.03
555.111	-0
555.305	0.01
555.498	0.02
555.692	0.01
555.885	-0.02
556.079	0
556.272	-0.03
556.466	0.01
556.659	-0
556.852	-0.01
557.046	-0.03
557.239	0.03
557.432	-0.01
557.626	-0.04
557.819	0.01
558.012	0.03
558.206	0
558.399	-0.01
558.592	0.01
558.785	-0.02
558.979	0.01
559.172	-0.01
559.365	0.03
559.558	0.03
559.751	-0.01
559.944	0.02
560.138	-0.04
560.331	0.01
560.524	-0.01
560.717	-0.01
560.91	-0
561.103	0.01
561.296	0.01
561.489	0
561.682	0.02
561.875	0.04
562.068	0
562.261	0.01
562.454	0.05
562.647	0.01
562.84	0.01
563.032	-0.02
563.225	-0
563.418	-0.01
563.611	-0.01
563.804	0
563.997	-0.03
564.19	-0.05
564.382	0.01
564.575	-0.01
564.768	0
564.961	0
565.153	-0.01
565.346	0.03
565.539	0
565.731	-0
565.924	0.05
566.117	0.02
566.309	-0
566.502	-0.02
566.695	0.01
566.887	-0.01
567.08	-0.01
567.272	-0.02
567.465	0.01
567.657	-0.01
567.85	0.01
568.042	0.02
568.235	0.04
568.427	-0.02
568.62	-0.01
568.812	0.03
569.005	0
569.197	-0.04
569.389	0
569.582	0.02
569.774	0.03
569.966	-0.04
570.159	-0.03
570.351	0.02
570.543	-0.01
570.736	-0.01
570.928	-0.02
571.12	0
571.312	-0.03
571.505	-0.01
571.697	0.03
571.889	-0.05
572.081	0.01
572.273	-0.02
572.465	0.01
572.658	-0.01
572.85	-0.01
573.042	-0.01
573.234	-0.01
573.426	0.05
573.618	-0.04
573.81	0.01
574.002	0.03
574.194	0.04
574.386	-0.04
574.578	-0.05
574.77	-0.03
574.962	0
575.154	-0.03
575.346	0.01
575.538	-0
575.729	-0.02
575.921	-0.01
576.113	-0
576.305	0.03
576.497	-0.03
576.689	0.01
576.88	-0.01
577.072	0.02
577.264	0
577.456	0.01
577.647	-0.05
577.839	-0.03
578.031	0.05
578.223	-0.01
578.414	-0.03
578.606	0.02
578.798	-0.01
578.989	-0.01
579.181	-0
579.372	0.02
579.564	0.03
579.755	0
579.947	0.02
580.139	0.02
580.33	-0.04
580.522	-0.02
580.713	-0.05
580.905	-0.01
581.096	0.05
581.287	0.02
581.479	0.01
581.67	0.02
581.862	0.02
582.053	0.01
582.244	-0.04
582.436	0.02
582.627	0
582.818	0.02
583.01	-0.01
583.201	0.05
583.392	0.04
583.583	0.01
583.775	0.01
583.966	0.03
584.157	0.01
584.348	0.02
584.54	-0.02
584.731	0.05
584.922	0.02
585.113	0.03
585.304	0.05
585.495	0.04
585.686	0.03
585.877	0.05
586.068	0.05
586.259	0.06
586.45	0.04
586.641	0
586.832	-0.02
587.023	0.03
587.214	0.03
587.405	0.05
587.596	0.03
587.787	0.06
587.978	0.06
588.169	0.01
588.36	0
588.551	0.05
588.742	0.03
588.932	0.05
589.123	0.06
589.314	0.07
589.505	0.05
589.696	0.05
589.886	0.04
590.077	0
590.268	0.07
590.458	0.01
590.649	0.02
590.84	0.07
591.03	0.05
591.221	0.04
591.412	-0
591.602	0.06
591.793	0.07
591.984	0.07
592.174	0.08
592.365	0.13
592.555	0.06
592.746	0.09
592.936	0.07
593.127	0.11
593.317	0.09
593.508	0.05
593.698	0.07
593.889	0.07
594.079	0.05
594.269	0.09
594.46	0.1
594.65	0.09
594.84	0.09
595.031	0.08
595.221	0.07
595.411	0.07
595.602	0.13
595.792	0.12
595.982	0.09
596.172	0.17
596.363	0.11
596.553	0.12
596.743	0.11
596.933	0.09
597.123	0.13
597.314	0.09
597.504	0.1
597.694	0.15
597.884	0.12
598.074	0.14
598.264	0.14
598.454	0.15
598.644	0.13
598.834	0.14
599.024	0.1
599.214	0.13
599.404	0.21
599.594	0.15
599.784	0.12
599.974	0.21
600.164	0.18
600.354	0.13
600.544	0.15
600.734	0.15
600.924	0.22
601.114	0.16
601.303	0.19
601.493	0.18
601.683	0.19
601.873	0.19
602.063	0.16
602.252	0.25
602.442	0.15
602.632	0.19
602.821	0.21
603.011	0.28
603.201	0.21
603.39	0.18
603.58	0.19
603.77	0.26
603.959	0.26
604.149	0.26
604.339	0.22
604.528	0.29
604.718	0.29
604.907	0.25
605.097	0.27
605.286	0.23
605.476	0.29
605.665	0.33
605.855	0.28
606.044	0.38
606.234	0.3
606.423	0.32
606.612	0.32
606.802	0.32
606.991	0.35
607.181	0.35
607.37	0.34
607.559	0.34
607.749	0.33
607.938	0.37
608.127	0.4
608.316	0.4
608.506	0.42
608.695	0.41
608.884	0.37
609.073	0.43
609.263	0.46
609.452	0.45
609.641	0.45
609.83	0.44
610.019	0.5
610.208	0.46
610.397	0.5
610.586	0.55
610.775	0.51
610.965	0.56
611.154	0.53
611.343	0.59
611.532	0.58
611.721	0.61
611.91	0.59
612.099	0.63
612.287	0.64
612.476	0.63
612.665	0.7
612.854	0.68
613.043	0.74
613.232	0.72
613.421	0.68
613.61	0.77
613.798	0.7
613.987	0.83
614.176	0.81
614.365	0.85
614.554	0.83
614.742	0.9
614.931	0.85
615.12	0.93
615.309	0.88
615.497	0.94
615.686	0.91
615.875	0.96
616.063	0.94
616.252	0.95
616.44	1.02
616.629	1.04
616.818	1.06
617.006	1.08
617.195	1.13
617.383	1.11
617.572	1.1
617.76	1.12
617.949	1.18
618.137	1.25
618.326	1.28
618.514	1.19
618.703	1.21
618.891	1.33
619.079	1.26
619.268	1.32
619.456	1.29
619.644	1.38
619.833	1.36
620.021	1.36
620.209	1.3
620.398	1.42
620.586	1.39
620.774	1.45
620.962	1.45
621.151	1.48
621.339	1.46
621.527	1.42
621.715	1.48
621.903	1.5
622.092	1.46
622.28	1.55
622.468	1.45
622.656	1.54
622.844	1.51
623.032	1.5
623.22	1.44
623.408	1.6
623.596	1.5
623.784	1.6
623.972	1.46
624.16	1.48
624.348	1.53
624.536	1.49
624.724	1.42
624.912	1.48
625.1	1.44
625.288	1.38
625.476	1.34
625.664	1.44
625.851	1.33
626.039	1.38
626.227	1.34
626.415	1.31
626.603	1.2
626.79	1.25
626.978	1.19
627.166	1.13
627.354	1.15
627.541	1.05
627.729	1
627.917	1.09
628.104	1.02
628.292	0.97
628.48	0.93
628.667	0.89
628.855	0.92
629.042	0.85
629.23	0.8
629.418	0.81
629.605	0.75
629.793	0.68
629.98	0.66
630.168	0.66
630.355	0.62
630.543	0.63
630.73	0.57
630.917	0.6
631.105	0.62
631.292	0.53
631.48	0.48
631.667	0.53
631.854	0.45
632.042	0.46
632.229	0.39
632.416	0.43
632.604	0.37
632.791	0.31
632.978	0.41
633.165	0.36
633.353	0.38
633.54	0.37
633.727	0.26
633.914	0.29
634.101	0.2
634.289	0.32
634.476	0.22
634.663	0.23
634.85	0.24
635.037	0.17
635.224	0.15
635.411	0.27
635.598	0.25
635.785	0.21
635.972	0.21
636.159	0.22
636.346	0.13
636.533	0.15
636.72	0.15
636.907	0.15
637.094	0.18
637.281	0.13
637.468	0.19
637.655	0.14
637.842	0.13
638.029	0.09
638.215	0.14
638.402	0.1
638.589	0.08
638.776	0.12
638.963	0.09
639.149	0.15
639.336	0.18
639.523	0.09
639.709	0.09
639.896	0.08
640.083	0.12
640.27	0.1
640.456	0.07
640.643	0.12
640.829	0.02
641.016	0.06
641.203	0.04
641.389	0.09
641.576	0.09
641.762	0.05
641.949	0.01
642.135	0.08
642.322	0.07
642.508	0.02
642.695	0.08
642.881	0.03
643.068	0.01
643.254	0.06
643.441	0.07
643.627	0.05
643.813	0.02
644	0.09
644.186	0.02
644.372	0.05
644.559	0.06
644.745	0.03
644.931	-0.01
645.118	0.02
645.304	0.04
645.49	0.01
645.676	0
645.862	0.04
646.049	0.07
646.235	0.03
646.421	0.09
646.607	0.06
646.793	0.01
646.979	0.01
647.165	0
647.352	0.02
647.538	0.07
647.724	0.03
647.91	0.03
648.096	0.06
648.282	0.04
648.468	0.02
648.654	-0.01
648.84	0
649.026	-0.01
649.212	0.02
649.397	-0
649.583	-0.04
649.769	-0
649.955	0.03
650.141	0.03
650.327	0.07
650.513	-0.02
650.698	0.02
650.884	-0.07
651.07	0
651.256	-0
651.442	0.02
651.627	-0.01
651.813	0.05
651.999	-0
652.184	0.02
652.37	-0.02
652.556	-0.01
652.741	0.06
652.927	-0.05
653.113	-0.01
653.298	0
653.484	-0.03
653.669	-0.06
653.855	-0.04
654.04	0.01
654.226	0.03
654.412	-0.03
654.597	-0.04
654.782	-0.01
654.968	0.04
655.153	0.01
655.339	-0.04
655.524	-0.04
655.71	0.01
655.895	0.01
656.08	-0.01
656.266	-0.01
656.451	0.02
656.636	-0.04
656.822	0.01
657.007	-0.05
657.192	-0.01
657.378	-0.06
657.563	0
657.748	0.03
657.933	0.01
658.118	-0
658.304	-0.01
658.489	0.02
658.674	0.01
658.859	-0.02
659.044	-0.01
659.229	-0.01
659.414	-0.03
659.599	-0.03
659.785	-0.05
659.97	-0.03
660.155	0.01
660.34	-0.02
660.525	0
660.71	-0.03
660.895	0.03
661.08	-0.03
661.264	-0.02
661.449	0.04
661.634	0.05
661.819	0.02
662.004	-0
662.189	-0.07
662.374	-0.02
662.559	-0.07
662.743	-0.07
662.928	-0.04
663.113	-0.03
663.298	-0.05
663.483	-0.06
663.667	0.03
663.852	-0.06
664.037	0.04
664.221	-0.02
664.406	0.01
664.591	-0.01
664.775	0.02
664.96	0.01
665.145	0
665.329	0.03
665.514	-0.02
665.698	0.01
665.883	-0.07
666.068	0.05
666.252	-0.03
666.437	-0.07
666.621	-0.01
666.806	0
666.99	-0.03
667.174	-0.06
667.359	0.06
667.543	-0.07
667.728	-0.03
667.912	-0.1
668.096	-0.02
668.281	-0.05
668.465	-0.04
668.649	-0.01
668.834	-0.03
669.018	-0.03
669.202	-0.01
669.387	-0.03
669.571	0.02
669.755	-0.05
669.939	0.01
670.124	-0.03
670.308	0.03
670.492	0.04
670.676	0.02
670.86	-0.03
671.044	-0.05
671.228	0.01
671.413	-0.04
671.597	-0.04
671.781	-0.03
671.965	-0
672.149	-0.01
672.333	-0.03
672.517	-0.04
672.701	0.01
672.885	-0.01
673.069	-0.08
673.253	0.02
673.437	-0.04
673.621	-0.04
673.804	-0
673.988	-0.03
674.172	0.01
674.356	-0.1
674.54	0
674.724	0.07
674.908	-0.03
675.091	0.04
675.275	-0.05
675.459	0.03
675.643	0.03
675.826	0.03
676.01	0.03
676.194	-0
676.377	0.04
676.561	0.02
676.745	-0.01
676.928	-0.01
677.112	0.03
677.296	-0.07
677.479	-0.06
677.663	-0.02
677.846	0.02
678.03	-0.02
678.213	-0.04
678.397	0.06
678.58	-0.02
678.764	-0.03
678.947	-0.04
679.131	-0.03
679.314	0.02
679.498	0.01
679.681	-0
679.865	-0
680.048	-0.01
680.231	-0.04
680.415	0
680.598	0
680.781	-0.02
680.965	-0.07
681.148	0.02
681.331	0
681.514	-0.03
681.698	-0.05
681.881	0.03
682.064	-0.02
682.247	-0.02
682.43	-0.06
682.614	-0.01
682.797	0.04
682.98	0.01
683.163	-0.06
683.346	-0
683.529	-0.05
683.712	-0.03
683.895	0.01
684.078	-0.07
684.261	-0.06
684.444	0.01
684.627	0.05
684.81	-0.04
684.993	-0.03
685.176	-0
685.359	-0.04
685.542	-0.06
685.725	0.03
685.908	-0.01
686.091	-0.03
686.274	0.06
686.457	0.01
686.639	-0.01
686.822	0.04
687.005	-0.04
687.188	0.05
687.371	0.05
687.553	-0
687.736	-0
687.919	0.06
688.102	0.04
688.284	-0.05
688.467	-0.01
688.65	-0.05
688.832	0.01
689.015	-0
689.197	-0.05
689.38	0.06
689.563	0.05
689.745	-0.07
689.928	-0.02
690.11	-0.03
690.293	0.02
690.475	-0.07
690.658	-0.01
690.84	-0.02
691.023	-0.07
691.205	-0.05
691.388	0.02
691.57	0.04
691.752	0.02
691.935	-0.07
692.117	-0.07
692.3	0.02
692.482	0.02
692.664	-0.02
692.847	-0.04
693.029	0.06
693.211	0.06
693.393	-0.04
693.576	-0.01
693.758	-0.02
693.94	-0.05
694.122	-0.11
694.304	0.02
694.487	-0.02
694.669	0.01
694.851	-0.04
695.033	0
695.215	-0.03
695.397	-0.03
695.579	0.03
695.761	-0.07
695.943	-0.1
696.125	0.03
696.308	-0
696.49	-0.1
696.671	0.09
696.853	-0.02
697.035	0.13
697.217	0.03
697.399	-0.01
697.581	-0.06
697.763	-0.03
697.945	-0.08
698.127	-0
698.309	0.02
698.491	-0.06
698.672	0.04
698.854	0.01
699.036	-0
699.218	-0.07
699.399	0.05
699.581	0
699.763	-0.04
699.945	-0.07
700.126	-0.08
700.308	-0.02
700.49	-0.01
700.671	-0.14
700.853	-0.05
701.035	-0.04
701.216	0
701.398	-0.05
701.579	-0.04
701.761	0.02
701.943	-0.07
702.124	-0.06
702.306	-0.04
702.487	0.13
702.669	-0.02
702.85	-0.05
703.031	-0.08
703.213	0.07
703.394	0.09
703.576	-0.02
703.757	0.03
703.938	0.06
704.12	0.13
704.301	-0.06
704.483	-0.06
704.664	-0.01
704.845	0.1
705.026	0
705.208	-0.01
705.389	-0.03
705.57	0.04
705.751	-0.06
705.933	0.01
706.114	0.04
706.295	-0.05
706.476	-0.05
706.657	0.05
706.838	0.01
707.02	0.05
707.201	-0
707.382	-0.01
707.563	-0
707.744	-0.03
707.925	-0.05
708.106	-0.05
708.287	-0.01
708.468	0.05
708.649	-0.05
708.83	0.01
709.011	-0.06
709.192	0.03
709.373	-0.12
709.554	-0.01
709.734	0.06
709.915	0.01
710.096	-0.03
710.277	-0.14
710.458	-0.02
710.639	0.01
710.819	-0.15
711	-0.01
711.181	0.05
711.362	0.09
711.542	0.01
711.723	-0.01
711.904	0.04
712.085	0.02
712.265	-0.02
712.446	-0.08
712.627	-0.03
712.807	0.02
712.988	-0.03
713.168	-0.1
713.349	0.03
713.53	-0.17
713.71	-0.1
713.891	-0.05
714.071	-0.04
714.252	-0.06
714.432	-0.03
714.613	-0.14
714.793	0.01
714.974	0.05
715.154	0.04
715.334	0.04
715.515	0.05
715.695	-0.15
715.876	-0.04
716.056	-0.06
716.236	-0.04
716.417	-0.03
716.597	-0.04
716.777	0.09
716.957	0.03
717.138	0.02
717.318	0.03
717.498	-0.09
717.678	-0.05
717.859	0.05
718.039	-0.08
718.219	-0.01
718.399	0.06
718.579	-0.07
718.759	-0.07
718.939	0.02
719.12	0.01
719.3	0.01
719.48	-0.12
719.66	-0.09
719.84	0.09
720.02	-0.01
720.2	-0.14
720.38	0.02
720.56	0.08
720.74	-0.07
720.92	0.04
721.1	0.03
721.279	0.04
721.459	-0.02
721.639	-0.1
721.819	0.08
721.999	-0.04
722.179	-0
722.359	-0.07
722.538	0.04
722.718	-0.05
722.898	-0.06
723.078	-0.05
723.257	0
723.437	0.06
723.617	0.03
723.797	-0.04
723.976	0.02
724.156	-0.03
724.336	0.05
724.515	0.17
724.695	-0.14
724.874	0.04
725.054	0.07
725.234	-0.05
725.413	0.04
725.593	0
725.772	0.01
725.952	-0.06
726.131	-0.06
726.311	-0.01
726.49	-0.03
726.67	-0.02
726.849	-0.14
727.028	-0.07
727.208	0.04
727.387	0.01
727.567	-0.11
727.746	0.05
727.925	-0.1
728.105	-0.15
728.284	-0.03
728.463	-0.09
728.643	0.01
728.822	-0.02
729.001	-0.02
729.18	-0.02
729.359	0.08
729.539	-0.09
729.718	0.01
729.897	0.09
730.076	-0.06
730.255	-0.14
730.434	0.09
730.614	0.08
730.793	0.13
730.972	-0.09
731.151	-0.05
731.33	-0
731.509	0.01
731.688	-0.01
731.867	0.02
732.046	-0.16
732.225	0.17
732.404	-0.08
732.583	-0.05
732.762	-0.07
732.941	0.07
733.12	-0.05
733.298	-0.05
733.477	0.01
733.656	-0.09
733.835	-0.14
734.014	0.02
734.193	-0.05
734.371	-0.06
734.55	-0.06
734.729	-0.17
734.908	0.01
735.086	-0.04
735.265	0.09
735.444	-0.19
735.623	-0.13
735.801	-0.15
735.98	-0.04
736.159	-0.08
736.337	0.08
736.516	0.01
736.694	-0.06
736.873	-0.19
737.052	0.04
737.23	0.07
737.409	-0.07
737.587	0.05
737.766	-0.16
737.944	-0.13
738.123	-0.06
738.301	0.01
738.479	-0.13
738.658	0.07
738.836	-0.19
739.015	0.02
739.193	0.19
739.371	-0.18
739.55	-0.12
739.728	-0.12
739.906	0.11
740.085	0.21
740.263	-0.07
740.441	-0.21
740.62	0.21
740.798	-0
740.976	-0.13
741.154	-0.02
741.332	0.11
741.511	0
741.689	0.03
741.867	0.08
742.045	0.07
742.223	-0.01
742.401	-0.07
742.579	-0.16
742.757	0.01
742.935	-0.13
743.114	0.04
743.292	-0.07
743.47	-0.02
743.648	-0.08
743.826	0.08
744.004	-0.05
744.181	-0.03
744.359	0.04
744.537	-0.08
744.715	-0.01
744.893	-0.1
745.071	0.08
745.249	0.05
745.427	-0.1
745.605	0.05
745.782	-0.03
745.96	0.03
746.138	-0
746.316	0.03
746.493	-0.05
746.671	-0.05
746.849	-0.04
747.027	0.1
747.204	-0.15
747.382	0.06
747.56	-0.19
747.737	-0.03
747.915	-0.06
748.093	0.04
748.27	-0.11
748.448	-0.09
748.625	-0.14
748.803	-0.07
748.98	-0.06
749.158	0.01
749.335	0.15
749.513	-0.04
749.69	-0.01
749.868	-0.04
750.045	0.05
750.223	-0.04
750.4	-0.23
750.578	0.02
750.755	-0.03
750.932	-0.17
751.11	0.08
751.287	-0.11
751.464	0.15
751.642	-0.06
751.819	0.08
751.996	0.04
752.173	-0.03
752.351	-0.11
752.528	0.02
752.705	-0.07
752.882	-0.12
753.06	-0
753.237	0.07
753.414	0.14
753.591	0.04
753.768	-0.02
753.945	-0.12
754.122	-0.12
754.299	0.05
754.476	-0.08
754.654	-0.03
754.831	-0.03
755.008	0.01
755.185	0.02
755.362	-0.12
755.539	-0.05
755.716	-0.18
755.892	-0.06
756.069	-0.01
756.246	0.02
756.423	-0.04
756.6	0.09
756.777	-0.1
756.954	0.1
757.131	-0.09
757.307	-0.13
757.484	-0.04
757.661	0
757.838	-0.04
758.015	-0.22
758.191	0.01
758.368	0.02
758.545	0.24
758.721	0.07
758.898	-0.19
759.075	0.08
759.251	0.09
759.428	0.08
759.605	-0.23
759.781	-0
759.958	-0.01
760.134	0.05
760.311	-0.09
760.488	0.13
760.664	0.11
760.841	-0.12
761.017	-0.15
761.194	0.02
761.37	0.07
761.547	-0.04
761.723	-0.05
761.899	0.14
762.076	-0.09
762.252	-0.14
762.429	-0.07
762.605	0.05
762.781	-0.15
762.958	0.04
763.134	-0.1
763.31	-0.12
763.486	0.1
763.663	-0.16
763.839	0.05
764.015	-0.19
764.191	-0.17
764.368	-0.03
764.544	-0.14
764.72	0.06
764.896	0.12
765.072	-0.09
765.248	0.03
765.425	-0.04
765.601	-0.07
765.777	-0.05
765.953	-0.28
766.129	-0.16
766.305	-0.07
766.481	-0.04
766.657	-0.05
766.833	0.16
767.009	-0.04
767.185	-0.08
767.361	0.01
767.537	-0.19
767.713	0.06
767.889	-0.09
768.065	-0.01
768.24	-0.28
768.416	0.07
768.592	-0.03
768.768	-0.09
768.944	-0.09
769.12	-0.17
769.295	-0.14
769.471	-0.01
769.647	-0.08
769.823	0.12
769.998	-0.13
770.174	-0.2
770.35	0.15
770.525	0.24
770.701	0.09
770.877	-0.11
771.052	-0.14
771.228	0.06
771.403	0.07
771.579	-0.01
771.755	0.14
771.93	-0.16
772.106	-0.14
772.281	-0.18
772.457	-0.08
772.632	-0.13
772.808	-0.17
772.983	-0.09
773.159	-0.2
773.334	0.17
773.509	-0.03
773.685	-0.05
773.86	0.19
774.036	0.15
774.211	0.01
774.386	-0.11
774.562	-0.15
774.737	-0.09
774.912	-0.23
775.087	0.08
775.263	-0.07
775.438	0.1
775.613	-0.29
775.788	-0.1
775.964	0.01
776.139	0.12
776.314	-0.11
776.489	-0.11
776.664	-0.1
776.839	-0.02
777.014	-0.02
777.19	0.09
777.365	0.03
777.54	0.12
777.715	-0.07
777.89	-0.1
778.065	0.04
778.24	-0.1
778.415	0.17
778.59	-0.18
778.765	-0.23
778.94	0.14
779.115	-0.11
779.289	0.05
779.464	0.04
779.639	-0.1
779.814	-0.3
779.989	-0.21
780.164	0.23
780.339	0.06
780.513	-0.05
780.688	-0.27
780.863	0.02
781.038	0.07
781.212	-0.19
781.387	-0.06
781.562	0.18
781.737	-0.05
781.911	0.06
782.086	-0.12
782.261	0.1
782.435	0.14
782.61	0.01
782.784	-0.17
782.959	0.1
783.134	-0.19
783.308	-0.13
783.483	-0.28
783.657	0.49
783.832	0.09
784.006	-0.29
784.181	-0.05
784.355	0.2
784.53	-0.28
784.704	-0.29
784.878	0.29
785.053	0.15
785.227	0.14
785.402	0.47
785.576	-0.22
785.75	-0.3
785.925	-0.02
786.099	0.15
786.273	0.12
786.448	0.1
786.622	0.07
786.796	-0.17
786.97	-0.1
787.145	0.55
787.319	-0.23
787.493	-0.29
787.667	-0.28
787.841	0.13
788.015	0.06
788.19	-0.08
788.364	0.15
788.538	0.08
788.712	0.04
788.886	-0.2
789.06	0.04
789.234	0.24
789.408	-0.28
789.582	-0.19
789.756	-0.06
789.93	0.02
790.104	-0.03
790.278	-0.1
790.452	-0.42
790.626	-0.03
790.8	-0.03
790.973	0.16
791.147	0.13
791.321	0.14
791.495	0.15
791.669	0.15
791.843	0.03
792.016	0.17
792.19	0.34
792.364	-0.3
792.538	0.2
792.711	0.23
792.885	-0.13
793.059	-0.23
793.233	-0.48
793.406	0.12
793.58	-0.15
793.754	0.01
793.927	-0.14
794.101	0.23
794.274	-0.28
794.448	0.33
794.622	-0.32
794.795	0.24
794.969	0.04
795.142	0.4
795.316	0.07
795.489	-0.43
795.663	0.32
795.836	-0.25
796.009	-0.11
796.183	0.07
796.356	0.18
796.53	0.11
796.703	-0.21
796.876	0.39
797.05	-0.1
797.223	-0.02
797.396	0.05
797.57	-0.1
797.743	0.37
797.916	-0.16
798.09	0.12
798.263	0.04
798.436	0.07
798.609	-0
798.782	-0.13
798.956	-0.04
799.129	-0.03
799.302	0.1
799.475	-0.08
799.648	-0.29
799.821	-0.18
799.994	-0.08
800.167	-0.48
800.34	-0.03
800.514	0.01
800.687	-0.3
800.86	-0.13
801.033	-0.04
801.206	0.04
801.379	-0.57
801.551	0.28
801.724	0.13
801.897	0.07
802.07	-0.08
802.243	-0.45
802.416	-0.01
802.589	-0.15
802.762	0.11
802.935	-0.09
803.107	0.33
803.28	0.05
803.453	0.11
803.626	-0.07
803.798	-0.18
803.971	-0.24
804.144	-0.03
804.317	-0.21
804.489	0.2
804.662	-0.25
804.835	0.11
805.007	-0.01
805.18	0.59
805.353	-0.04
805.525	-0.37
805.698	-0.28
805.87	0.27
806.043	0.04
806.215	-0.27
806.388	-0.19
806.56	0.29
806.733	0.19
806.905	0.03
807.078	-0.32
807.25	-0.18
807.423	0.27
807.595	0.06
807.768	-0.24
807.94	0.33
808.112	0.3
808.285	-0.03
808.457	-0.27
808.629	-0.01
808.802	0.1
808.974	-0.18
809.146	-0.23
809.318	-0.49
809.491	-0.14
809.663	0.09
809.835	-0.2
810.007	-0.01
810.18	0.15
810.352	-0.26
810.524	-0.14
810.696	0.18
810.868	0.24
811.04	-0.19
811.212	-0.09
811.384	0.14
811.556	0.14
811.728	-0.03
811.901	0.04
812.073	-0.46
812.245	0.44
812.417	-0.04
812.589	-0.39
812.76	0.04
812.932	-0.07
813.104	0.02
813.276	-0.07
813.448	0.45
813.62	-0.27
813.792	0.23
813.964	-0.1
814.136	-0.19
814.307	-0.48
814.479	-0.34
814.651	-0.4
814.823	0.56
814.995	-0.14
815.166	0.21
815.338	-0.29
815.51	-0.77
815.681	0.91
815.853	0.32
816.025	-0.21
816.196	0.24
816.368	0.2
816.54	0.05
816.711	-0.28
816.883	-0.03
817.054	1.1
817.226	-0.99
817.398	0.19
817.569	-0.41
817.741	-0.41
817.912	-0.12
818.084	-0.25
818.255	0.12
818.426	-0.49
818.598	-0.22
818.769	-0.44
818.941	0.44
819.112	0.6
819.283	-0.17
819.455	-0.36
819.626	-0.14
819.798	0.48
819.969	0.32
820.14	-0.3
820.311	-0.54
820.483	0.07
820.654	-0.01
820.825	-0.53
820.996	-0.26
821.168	-0.76
821.339	-0.54
821.51	-0.42
821.681	0.02
821.852	-0.16
822.023	-0.44
822.195	-0.26
822.366	0.62
822.537	0.22
822.708	-0.04
822.879	0.02
823.05	0.52
823.221	-0.44
823.392	0.35
823.563	-0.11
823.734	-0.28
823.905	0.12
824.076	-0.69
824.247	-0.77
824.418	-0.6
824.589	0.59
824.759	-0.16
824.93	-0.35
825.101	-1.2
825.272	0.63
825.443	0.27
825.614	0.32
825.784	-0.96
825.955	1.44
826.126	0.69
826.297	0.19
826.467	0.63
826.638	0.38
826.809	-0.85
826.98	-0.38
827.15	0.22
827.321	-0.13
827.492	0.93
827.662	0.41
827.833	0.51
828.003	0.51
828.174	-0.51
828.345	-0.68
828.515	0
828.686	0.35
828.856	-0.08
829.027	-0.29
829.197	0.58
829.368	0.43
829.538	-0.48
829.709	-0.17
829.879	-0.07
830.049	-0.28
830.22	-0.57
830.39	-0.27
830.56	0.34
830.731	-0.43
830.901	-0.59
831.072	0.02
831.242	-0.01
831.412	-0.1
831.582	0.13
831.753	-0.59
831.923	0.4
832.093	0.35
832.263	-0.44
832.434	-0.83
832.604	-0.1
832.774	0.3
832.944	-0.01
833.114	-0.26
833.284	0.39
833.454	-0.2
833.624	-0
833.795	-0.05
833.965	0.68
834.135	0.43
834.305	-0.89
834.475	-0.62
834.645	-0.47
834.815	-0.04
834.985	-0.57
835.155	-0.48
835.325	0.2
835.494	0.23
835.664	-1
835.834	-0.82
836.004	0.23
836.174	-0.02
836.344	0.68
836.514	-0.91
836.684	-0.63
836.853	0.47
837.023	-0.3
837.193	-0.12
837.363	0.28
837.532	0.05
837.702	-0.5
837.872	-0.5
838.041	1.26
838.211	1.74
838.381	-0.31
838.55	0.26
838.72	1.75
838.89	0.87
839.059	-0.43
839.229	-0.4
839.398	0.63
839.568	0.06
839.738	-0.46
839.907	0.91
840.077	-0.82
840.246	-0.61
840.416	-0.74
840.585	-0.8
840.755	1.08
840.924	1.18
841.093	-0.7
841.263	-0.18
841.432	0.41
841.602	-0.62
841.771	-0.5
841.94	-0.25
842.11	1.98
842.279	1
842.448	-0.74
842.617	-0.95
842.787	0.77
842.956	-0.78
843.125	-0.12
843.294	0.4
843.464	0.81
843.633	-0.91
843.802	-0.82
843.971	-0.25
844.14	0.59
844.309	0.38
844.479	-0.94
844.648	-0.83
844.817	-0.31
844.986	0.09
845.155	-0.9
845.324	-0.27
845.493	0.31
845.662	-0.34
845.831	-0.12
846	0.31
846.169	-0.05
846.338	1.51
846.507	-0.01
846.676	-0.17
846.844	-0.89
847.013	0.9
847.182	0.51
847.351	-0.49
847.52	-0.03
847.689	-0.04
847.858	-0.62
848.026	-0.48
848.195	-0.01
848.364	-0.03
848.533	-0.5
848.701	-0.15
848.87	0.31
849.039	0.47
849.207	0.6
849.376	0.34
849.545	0.73
849.713	-0.76
849.882	-0.15
850.051	-0.28
850.219	0.18
850.388	0.66
850.556	-0.76
850.725	-0.09
850.893	0.39
851.062	0.1
851.23	1.29
851.399	-1.39
851.567	-0.88
851.736	0.12
851.904	-1.63
852.073	-0.52
852.241	-0.77
852.41	0.01
852.578	0.27
852.746	-0.54
852.915	-0.06
853.083	-0.04
853.251	-0.69
853.42	0.29
853.588	-0.28
853.756	0.92
853.924	-0.13
854.093	-0.4
854.261	-0.06
854.429	-0.96
854.597	0.31
854.765	-1.23
854.934	0.22
855.102	0.76
855.27	-0.69
855.438	0.8
855.606	1.2
855.774	0.76
855.942	-1.67
856.11	-1.02
856.278	-0.18
856.446	0.54
856.614	-0
856.782	-1.46
856.95	1.02
857.118	0.64
857.286	0.04
857.454	-0.91
857.622	1.34
857.79	0.61
857.958	-0.93
858.126	-0.42
858.294	-2.44
858.462	-0.28
858.629	-0.38
858.797	-0.01
858.965	0.19
859.133	-0.64
859.301	0.19
859.468	-0.24
859.636	-0.08
859.804	1.9
859.971	1.09
860.139	-0.29
860.307	1.18
860.474	-0.11
860.642	-1.2
860.81	-0.25
860.977	-0.86
861.145	-0.56
861.313	0.11
861.48	-0.01
861.648	0.35
861.815	0.39
861.983	-1.38
862.15	-0.27
862.318	0.35
862.485	1.12
862.653	-0.75
862.82	-0.29
862.988	1.94
863.155	-0.18
863.322	-1.51
863.49	-2.87
863.657	-1.27
863.824	0.88
863.992	-0.01
864.159	-1.05
864.326	0.21
864.494	-0.88
864.661	1.98
864.828	-0.95
864.996	0.19
865.163	0.66
865.33	-0.99
865.497	-1.27
865.664	-1.11
865.832	-1.3
865.999	-1.24
866.166	-0.71
866.333	-1.12
866.5	-0.57
866.667	0.16
866.834	-1.6
867.001	1.03
867.168	0.91
867.335	1.35
867.502	-1.41
867.669	1.18
867.836	1.75
868.003	-1.22
868.17	1.25
868.337	-1.44
868.504	1.71
868.671	-1.14
868.838	0.2
869.005	1.25
869.172	0.12
869.339	-0.36
869.505	0.74
869.672	0.33
869.839	2.45
870.006	0.06
870.173	-3.06
870.339	0.76
870.506	3.39
870.673	-1.83
870.84	0.39
871.006	-0.14
871.173	-0.3
871.34	1.34
871.506	-1.51
871.673	0.32
871.839	-0.87
872.006	-1.16
872.173	-0.35
872.339	0.59
872.506	1.85
872.672	0.93
872.839	-1.3
873.005	-1.05
873.172	3.15
873.338	1.13
873.505	-1.28
873.671	0.27
873.838	0.1
874.004	-1.75
874.171	-1.09
874.337	-0.33
874.503	0.69
874.67	-0.71
874.836	-1.52
875.002	1.55
875.169	0.9
875.335	-0.91
875.501	-1.97
875.668	-1.62
875.834	-0.96
876	-1.46
876.166	0.18
876.332	0.57
876.499	4.35
876.665	-1.09
876.831	0.18
876.997	2.84
877.163	0.11
877.329	-1.76
877.495	-1.92
877.662	0.04
877.828	1.63
877.994	0.15
878.16	-4.55
878.326	-2.22
878.492	0.52
878.658	1.42
878.824	0.37
878.99	1.17
879.156	-1.62
879.322	3.15
879.487	-0.69
879.653	0.91
879.819	0.35
879.985	-0.95
880.151	1.01
880.317	0.2
880.483	2.18
880.648	0.09
880.814	-3.83
880.98	1.33
881.146	-1.97
881.312	-1.6
881.477	-1.73
881.643	1.46
881.809	3.26
881.974	2.1
882.14	-3.03
882.306	-0.42
882.471	2.39
882.637	-0.45
882.803	-0.28
882.968	2.58
883.134	2.56
883.299	0.05
883.465	1.29
883.63	1.92
883.796	1.53
883.961	2.95
884.127	0.61
884.292	-3.94
884.458	-3.01
884.623	-3.01
