Data from Apollo_Calib_20240827__AbsoluteIrradiance__233__03-02-00-544.txt Node

Date: Wed Aug 28 03:02:00 BST 2024
User: biology
Spectrometer: FLMT08252
Trigger mode: 0
Integration Time (sec): 5.000000E-1
Scans to average: 5
Electric dark correction enabled: true
Nonlinearity correction enabled: false
Boxcar width: 0
XAxis mode: Wavelengths
Number of Pixels in Spectrum: 3648
>>>>>Begin Spectral Data<<<<<
179.588	-0
179.809	-0
180.03	-0
180.251	-0
180.473	-0
180.694	0
180.915	0
181.136	-0
181.357	0
181.578	-0
181.799	-0
182.02	0
182.241	-0
182.462	-0
182.683	0
182.904	-0
183.125	-0
183.346	0
183.567	0
183.788	-0
184.009	-0
184.23	0
184.451	0
184.672	-0
184.892	-0
185.113	0
185.334	0
185.555	-0
185.776	-0
185.996	-0
186.217	0
186.438	0
186.659	-0
186.879	0
187.1	-0
187.321	-0
187.541	-0
187.762	0
187.983	-0
188.203	-0
188.424	-0
188.644	-0
188.865	-0
189.086	-0
189.306	-0
189.527	-0
189.747	0
189.968	-0
190.188	0
190.409	0
190.629	0
190.849	-0
191.07	-0
191.29	0
191.511	0
191.731	-0
191.951	-0
192.172	-0
192.392	-0
192.612	-0
192.833	-0
193.053	-0
193.273	0
193.493	-0
193.714	-0
193.934	0
194.154	0
194.374	-0
194.594	0
194.815	0
195.035	-0
195.255	-0
195.475	-0
195.695	0
195.915	-0
196.135	-0
196.355	0
196.575	0
196.795	0
197.015	-0
197.235	-0
197.455	-0
197.675	-0
197.895	-0
198.115	-0
198.335	0
198.555	-0
198.775	0
198.995	-0
199.214	0
199.434	-0
199.654	-0
199.874	-0
200.094	0.94
200.313	-0.93
200.533	-1.14
200.753	-1.02
200.973	0.55
201.192	0.57
201.412	-0.91
201.632	-0.6
201.851	0.74
202.071	-0.95
202.291	-0.43
202.51	-0.85
202.73	0.01
202.95	-0.29
203.169	-0.88
203.389	-0.48
203.608	0.02
203.828	-0.62
204.047	-0.51
204.267	0.27
204.486	-0.23
204.706	-0.2
204.925	-0.24
205.145	-0.59
205.364	0.25
205.583	0.22
205.803	-0.66
206.022	-0.66
206.242	-0.57
206.461	-0.09
206.68	-0.56
206.9	0.07
207.119	0.44
207.338	0.36
207.557	-0.4
207.777	-0.28
207.996	-0.06
208.215	0.32
208.434	-0.43
208.654	-0.65
208.873	0.13
209.092	0.36
209.311	-0.2
209.53	-0.15
209.749	-0.3
209.968	-0.28
210.187	-0.17
210.407	-0.66
210.626	-0.19
210.845	0.18
211.064	0.19
211.283	-0.67
211.502	0.23
211.721	-0.11
211.94	-0.18
212.159	0.1
212.377	-0.13
212.596	0.44
212.815	-0.11
213.034	-0.07
213.253	0.24
213.472	0.17
213.691	-0.26
213.91	-0.35
214.128	-0.22
214.347	0.2
214.566	-0.64
214.785	-0.47
215.003	0.12
215.222	0.07
215.441	-0.27
215.66	-0.25
215.878	0.01
216.097	0.11
216.316	-0.3
216.534	-0.35
216.753	0.11
216.972	-0.2
217.19	-0.4
217.409	-0.27
217.627	-0.18
217.846	-0.28
218.064	-0.21
218.283	-0.19
218.501	0.31
218.72	0.11
218.938	-0.26
219.157	-0.18
219.375	0.11
219.594	0.23
219.812	-0.36
220.031	-0.42
220.249	0.3
220.467	0.3
220.686	-0.1
220.904	-0.34
221.122	-0.21
221.341	0.29
221.559	-0.11
221.777	-0.29
221.995	-0.02
222.214	-0.01
222.432	-0.18
222.65	0.07
222.868	-0.06
223.086	0.02
223.305	0.12
223.523	-0.14
223.741	0.21
223.959	-0.13
224.177	-0.31
224.395	-0.17
224.613	-0.12
224.831	0
225.049	-0.21
225.267	-0.2
225.485	-0.06
225.703	-0.22
225.921	-0.15
226.139	-0.28
226.357	0.23
226.575	-0.02
226.793	-0.17
227.011	0.42
227.229	0.08
227.447	0.03
227.665	-0.22
227.883	-0.4
228.1	-0.14
228.318	0.13
228.536	-0.29
228.754	-0.21
228.972	0.08
229.189	0.01
229.407	-0.13
229.625	-0.17
229.843	0.04
230.06	0.21
230.278	-0.24
230.496	-0
230.713	0.02
230.931	0.16
231.149	-0.19
231.366	-0.31
231.584	-0.09
231.801	0.25
232.019	-0.12
232.236	-0.21
232.454	-0.18
232.671	0.03
232.889	-0.08
233.106	-0.16
233.324	-0.1
233.541	-0.06
233.759	-0.03
233.976	-0.16
234.194	-0.07
234.411	-0.01
234.628	-0.11
234.846	-0.1
235.063	-0.08
235.28	-0.1
235.498	-0.12
235.715	-0.2
235.932	0.06
236.149	0.03
236.367	-0.17
236.584	-0.11
236.801	-0.13
237.018	-0.07
237.236	-0.04
237.453	-0.2
237.67	0.13
237.887	-0.05
238.104	-0.11
238.321	-0.21
238.538	-0.15
238.755	-0.04
238.973	-0.2
239.19	0.06
239.407	0.01
239.624	-0.05
239.841	-0.16
240.058	-0.17
240.275	-0.01
240.492	-0.02
240.709	-0.07
240.925	-0.12
241.142	-0.02
241.359	-0.12
241.576	-0.17
241.793	-0.18
242.01	-0.08
242.227	0.08
242.444	-0.11
242.66	0.02
242.877	-0.04
243.094	-0.13
243.311	0.02
243.527	-0.08
243.744	0.03
243.961	0.14
244.178	-0.15
244.394	-0.02
244.611	0.02
244.828	0.12
245.044	-0.12
245.261	-0.08
245.477	0.05
245.694	0.02
245.911	-0.14
246.127	-0.01
246.344	0.08
246.56	0.05
246.777	-0.11
246.993	-0.03
247.21	-0
247.426	-0.02
247.643	-0.1
247.859	-0.16
248.076	-0.14
248.292	0.14
248.508	-0.2
248.725	-0.06
248.941	-0.02
249.157	0.04
249.374	-0.11
249.59	-0.08
249.806	-0.02
250.023	-0.01
250.239	-0.1
250.455	-0.11
250.671	-0.02
250.888	-0.01
251.104	-0.04
251.32	-0.03
251.536	-0.09
251.752	-0
251.969	-0.09
252.185	-0.08
252.401	0.11
252.617	0.01
252.833	-0.13
253.049	-0.09
253.265	-0.05
253.481	-0.06
253.697	-0.08
253.913	-0.12
254.129	-0.01
254.345	0.04
254.561	-0.11
254.777	-0.13
254.993	-0.02
255.209	-0
255.425	-0.07
255.641	-0.05
255.857	0.04
256.073	-0.06
256.288	-0.17
256.504	-0.07
256.72	0.03
256.936	0.09
257.152	-0.08
257.367	-0.09
257.583	-0
257.799	0.01
258.015	-0.11
258.23	-0.17
258.446	0.13
258.662	-0.09
258.877	-0.1
259.093	-0.07
259.309	0.02
259.524	-0.04
259.74	-0.09
259.955	-0.15
260.171	0.05
260.387	-0.06
260.602	0.07
260.818	-0.01
261.033	-0.09
261.249	-0.08
261.464	-0.05
261.68	-0.2
261.895	-0.01
262.11	0.02
262.326	-0.02
262.541	-0.1
262.757	0.03
262.972	-0.02
263.187	0.01
263.403	-0.01
263.618	0.01
263.833	-0.01
264.049	-0.12
264.264	-0.03
264.479	-0.01
264.694	0.04
264.91	-0.14
265.125	-0.01
265.34	0.03
265.555	0.13
265.77	-0.02
265.986	-0.07
266.201	-0.03
266.416	0.09
266.631	-0.06
266.846	-0.09
267.061	0.05
267.276	0.04
267.491	-0.16
267.706	-0.02
267.921	0
268.136	-0.02
268.351	-0.01
268.566	-0.17
268.781	0.07
268.996	-0
269.211	-0.1
269.426	-0.11
269.641	-0.03
269.856	0.02
270.071	-0.11
270.285	-0.1
270.5	-0.03
270.715	0.01
270.93	-0.03
271.145	-0.05
271.359	0.02
271.574	-0.04
271.789	-0.03
272.004	-0.05
272.218	-0.07
272.433	0.04
272.648	-0.09
272.862	0.11
273.077	-0.01
273.292	-0.01
273.506	-0.1
273.721	-0.09
273.936	0
274.15	0.02
274.365	0.01
274.579	-0
274.794	0.05
275.008	0.06
275.223	-0.12
275.437	-0.04
275.652	0
275.866	-0.02
276.081	-0.02
276.295	0.01
276.509	-0.03
276.724	-0.04
276.938	-0.02
277.153	-0.02
277.367	-0.05
277.581	-0.04
277.796	-0.13
278.01	-0.07
278.224	0.03
278.438	0.07
278.653	-0.06
278.867	-0.04
279.081	0.01
279.295	-0.05
279.51	-0.01
279.724	-0.17
279.938	0.06
280.152	0
280.366	-0.09
280.58	-0.03
280.794	0.1
281.008	0
281.222	0.05
281.437	0.1
281.651	0.04
281.865	0.04
282.079	-0.06
282.293	-0.11
282.507	-0.1
282.721	-0
282.935	-0.07
283.148	-0.14
283.362	-0.04
283.576	-0.12
283.79	-0.01
284.004	-0.11
284.218	0.04
284.432	-0.05
284.646	-0.05
284.859	-0.06
285.073	-0.02
285.287	0.03
285.501	0.01
285.714	-0.03
285.928	-0.01
286.142	-0.04
286.356	-0.1
286.569	-0.06
286.783	0.02
286.997	0.03
287.21	0.01
287.424	-0.02
287.637	-0.06
287.851	-0.07
288.065	-0.01
288.278	-0.01
288.492	0.02
288.705	-0.03
288.919	-0.03
289.132	-0.11
289.346	0.07
289.559	-0.09
289.773	-0.07
289.986	-0.03
290.2	-0.05
290.413	0.01
290.626	-0.02
290.84	-0.03
291.053	-0.02
291.267	-0
291.48	-0.03
291.693	0.03
291.906	-0.08
292.12	-0
292.333	-0.08
292.546	-0.06
292.76	0.08
292.973	0.01
293.186	-0.01
293.399	-0.02
293.612	0.07
293.826	-0.02
294.039	-0.02
294.252	-0.06
294.465	0.01
294.678	-0
294.891	0
295.104	-0.03
295.317	-0.02
295.53	0
295.743	-0.06
295.956	-0.01
296.169	0.02
296.382	0.05
296.595	0
296.808	-0.07
297.021	0.01
297.234	-0
297.447	-0.02
297.66	-0.02
297.873	0.08
298.086	0.01
298.299	-0.07
298.511	-0.1
298.724	-0.04
298.937	-0.07
299.15	-0.07
299.363	-0.01
299.575	0.03
299.788	-0.02
300.001	-0.05
300.213	-0.09
300.426	-0.01
300.639	-0.06
300.852	-0.09
301.064	0.01
301.277	0.04
301.489	0.03
301.702	-0.02
301.915	-0.01
302.127	-0
302.34	0.01
302.552	-0
302.765	-0.05
302.977	0.04
303.19	-0.06
303.402	-0.06
303.615	-0.07
303.827	-0.05
304.04	-0.05
304.252	0.02
304.464	-0.05
304.677	0.09
304.889	0.05
305.102	-0.05
305.314	0
305.526	0.06
305.739	0
305.951	-0.05
306.163	-0.01
306.375	0.08
306.588	-0.03
306.8	-0.01
307.012	-0.06
307.224	-0
307.436	0.03
307.649	-0.09
307.861	0.02
308.073	0.02
308.285	0
308.497	-0.04
308.709	-0.04
308.921	0
309.133	0.04
309.346	-0.01
309.558	-0.02
309.77	0.01
309.982	0.07
310.194	0.04
310.406	-0.04
310.617	0.06
310.829	-0.04
311.041	0.04
311.253	-0.06
311.465	-0.02
311.677	-0.01
311.889	-0.03
312.101	-0.06
312.313	0.05
312.524	0.06
312.736	-0.07
312.948	-0.05
313.16	0.07
313.372	0.03
313.583	0.02
313.795	-0
314.007	-0.03
314.218	0.03
314.43	-0.01
314.642	-0.06
314.853	-0.04
315.065	0.02
315.277	-0.02
315.488	-0.03
315.7	0.02
315.912	0.04
316.123	-0.04
316.335	-0.02
316.546	0.07
316.758	-0.03
316.969	-0.03
317.181	-0.01
317.392	-0.03
317.604	0.07
317.815	-0.06
318.026	-0.08
318.238	-0.05
318.449	-0.01
318.661	-0.15
318.872	-0.08
319.083	-0.06
319.295	0.03
319.506	-0.07
319.717	-0.03
319.929	0.02
320.14	0.02
320.351	-0.01
320.562	-0.04
320.774	-0.04
320.985	-0.02
321.196	-0.04
321.407	-0.08
321.618	0.01
321.829	-0.08
322.041	-0
322.252	-0.02
322.463	-0.06
322.674	0.01
322.885	-0.05
323.096	-0.05
323.307	-0
323.518	0.02
323.729	-0.06
323.94	-0.03
324.151	-0.03
324.362	-0.02
324.573	-0.01
324.784	-0.04
324.995	0.04
325.206	-0.01
325.417	-0.04
325.628	-0.02
325.838	-0.01
326.049	-0.05
326.26	0.01
326.471	-0.09
326.682	-0.02
326.892	0.03
327.103	-0.07
327.314	-0.09
327.525	0.03
327.735	-0.01
327.946	-0.03
328.157	-0.06
328.368	0.03
328.578	-0.04
328.789	0.03
328.999	0.01
329.21	-0.03
329.421	0.01
329.631	-0.05
329.842	-0.05
330.052	-0.03
330.263	0.01
330.473	0.02
330.684	-0.05
330.894	-0.01
331.105	-0.03
331.315	-0.01
331.526	-0.07
331.736	0.07
331.947	0.04
332.157	0.02
332.367	-0.08
332.578	0.06
332.788	0.02
332.999	-0.01
333.209	0
333.419	-0.06
333.629	0.06
333.84	0.01
334.05	-0.01
334.26	0.05
334.47	-0.04
334.681	0.08
334.891	-0.04
335.101	0
335.311	0.07
335.521	0.01
335.732	-0.01
335.942	0.01
336.152	0.04
336.362	-0.02
336.572	0
336.782	0.02
336.992	-0.07
337.202	-0.02
337.412	-0.04
337.622	0
337.832	0
338.042	-0.03
338.252	-0.05
338.462	-0.02
338.672	0.02
338.882	-0.07
339.092	-0.05
339.302	0.08
339.511	-0.03
339.721	-0.04
339.931	-0.07
340.141	0
340.351	0.02
340.561	0.03
340.77	0.02
340.98	0.01
341.19	0.03
341.4	0.01
341.609	-0.04
341.819	-0.04
342.029	-0.05
342.238	-0.01
342.448	-0.11
342.658	0.01
342.867	-0
343.077	0.01
343.286	0.02
343.496	0.02
343.706	0.06
343.915	-0.07
344.125	-0.03
344.334	0.02
344.544	-0.06
344.753	-0.04
344.963	-0.04
345.172	-0.04
345.381	-0.05
345.591	-0.04
345.8	-0
346.01	0.04
346.219	0.02
346.428	-0.16
346.638	-0.01
346.847	-0.03
347.056	-0
347.266	-0.04
347.475	0
347.684	0.03
347.893	0.03
348.103	0.01
348.312	-0.03
348.521	-0.02
348.73	-0
348.94	-0.02
349.149	-0.03
349.358	-0.04
349.567	-0.05
349.776	-0.06
349.985	-0.05
350.194	0.03
350.403	0.05
350.612	-0.01
350.821	-0.05
351.03	-0.03
351.239	-0.08
351.448	-0.01
351.657	-0.04
351.866	0.1
352.075	-0.04
352.284	0.01
352.493	-0.05
352.702	0.06
352.911	0.04
353.12	-0.03
353.329	-0.03
353.538	0.04
353.746	-0.05
353.955	-0.04
354.164	0.01
354.373	0
354.582	0.02
354.79	-0.01
354.999	0.01
355.208	-0.03
355.416	0.06
355.625	-0.08
355.834	-0.06
356.042	-0.01
356.251	-0.02
356.46	-0.06
356.668	-0.02
356.877	0.07
357.085	0.02
357.294	-0.11
357.503	-0
357.711	0.02
357.92	0.1
358.128	-0.04
358.337	-0.02
358.545	0.01
358.754	-0.02
358.962	-0.01
359.17	-0.02
359.379	0
359.587	0.01
359.796	-0.02
360.004	-0.01
360.212	0.02
360.421	0.03
360.629	-0.02
360.837	-0.06
361.046	0.03
361.254	0.08
361.462	0
361.67	-0.01
361.879	-0.02
362.087	0.05
362.295	-0.03
362.503	-0.01
362.711	-0.08
362.92	-0.09
363.128	-0.03
363.336	-0.08
363.544	-0.06
363.752	-0.04
363.96	-0.02
364.168	-0.04
364.376	0.01
364.584	-0.06
364.792	0
365	0.02
365.208	0
365.416	0.02
365.624	0.03
365.832	-0.05
366.04	0.07
366.248	-0.02
366.456	0.03
366.664	-0.01
366.872	-0.01
367.079	-0.05
367.287	-0.01
367.495	0.03
367.703	0
367.911	0.01
368.118	-0.01
368.326	0
368.534	-0.06
368.742	0.08
368.949	-0.06
369.157	-0.04
369.365	0
369.572	-0.01
369.78	-0.08
369.988	0.04
370.195	0.02
370.403	0.01
370.61	-0.01
370.818	-0.04
371.026	0.05
371.233	-0.08
371.441	-0.05
371.648	-0.03
371.856	0.03
372.063	0.02
372.271	-0.05
372.478	-0.02
372.685	-0.02
372.893	0.01
373.1	-0.03
373.308	-0.06
373.515	0.07
373.722	0.04
373.93	0
374.137	0.02
374.344	0.07
374.552	0.03
374.759	0.03
374.966	-0.03
375.173	0
375.381	0.04
375.588	-0.02
375.795	-0.08
376.002	-0.03
376.209	-0
376.417	-0.01
376.624	-0
376.831	0.03
377.038	-0.04
377.245	-0.11
377.452	-0.03
377.659	-0.03
377.866	-0.03
378.073	-0.01
378.28	-0.02
378.487	0.03
378.694	0.04
378.901	0
379.108	-0.02
379.315	0.03
379.522	0.04
379.729	0.02
379.936	-0.04
380.143	-0.03
380.35	0.04
380.557	-0.01
380.763	0.02
380.97	-0.03
381.177	-0.01
381.384	-0
381.591	-0.05
381.797	0
382.004	0
382.211	0.03
382.418	-0
382.624	-0.02
382.831	0.05
383.038	-0
383.244	-0.01
383.451	0
383.658	0.01
383.864	-0.03
384.071	-0.05
384.277	0.09
384.484	-0.06
384.69	0.01
384.897	-0.05
385.103	-0.02
385.31	-0.03
385.516	-0.02
385.723	-0.08
385.929	-0.05
386.136	-0.08
386.342	0.02
386.549	-0.02
386.755	0.03
386.961	0
387.168	-0.04
387.374	-0.01
387.58	0.07
387.787	0.02
387.993	-0.01
388.199	-0.03
388.406	-0.02
388.612	-0.01
388.818	-0.02
389.024	-0.08
389.231	0.03
389.437	0.05
389.643	-0
389.849	0.01
390.055	0
390.261	-0.04
390.467	0.01
390.674	-0.07
390.88	-0.02
391.086	0.03
391.292	-0.06
391.498	0.06
391.704	-0
391.91	0.01
392.116	-0.02
392.322	-0.09
392.528	-0.01
392.734	-0.02
392.94	-0.02
393.146	-0.02
393.352	0.02
393.557	-0.02
393.763	-0.01
393.969	0.01
394.175	-0.01
394.381	0
394.587	-0.02
394.792	-0.04
394.998	0.05
395.204	0.04
395.41	-0
395.615	-0
395.821	0.04
396.027	0.04
396.233	-0.04
396.438	0.01
396.644	0.03
396.85	-0
397.055	-0.03
397.261	0.03
397.466	-0.02
397.672	-0.01
397.878	-0.01
398.083	0.03
398.289	-0
398.494	0.02
398.7	0.08
398.905	-0.06
399.111	0.12
399.316	-0.06
399.522	-0
399.727	-0.02
399.932	0.04
400.138	-0.01
400.343	0.05
400.549	0.02
400.754	0.05
400.959	0.03
401.165	-0.02
401.37	0
401.575	-0.02
401.78	0.01
401.986	-0
402.191	0.02
402.396	0.02
402.601	0.08
402.807	0.02
403.012	0.01
403.217	0.03
403.422	-0.01
403.627	0.01
403.832	0.03
404.037	0.06
404.243	0.08
404.448	-0.03
404.653	0.05
404.858	0.07
405.063	0.14
405.268	0.01
405.473	0.01
405.678	0.03
405.883	0.19
406.088	0.11
406.293	-0
406.498	0.02
406.703	0.08
406.907	0.08
407.112	0.05
407.317	0.14
407.522	0.14
407.727	0.03
407.932	0.12
408.136	0.18
408.341	0.11
408.546	0.15
408.751	0.12
408.956	0.09
409.16	0.2
409.365	0.12
409.57	0.14
409.774	0.19
409.979	0.22
410.184	0.17
410.388	0.14
410.593	0.24
410.798	0.23
411.002	0.17
411.207	0.24
411.411	0.22
411.616	0.19
411.82	0.25
412.025	0.32
412.229	0.27
412.434	0.38
412.638	0.35
412.843	0.3
413.047	0.36
413.252	0.32
413.456	0.33
413.66	0.38
413.865	0.37
414.069	0.53
414.273	0.35
414.478	0.4
414.682	0.44
414.886	0.46
415.091	0.46
415.295	0.45
415.499	0.56
415.703	0.57
415.908	0.63
416.112	0.5
416.316	0.68
416.52	0.63
416.724	0.61
416.929	0.66
417.133	0.82
417.337	0.69
417.541	0.7
417.745	0.8
417.949	0.86
418.153	0.92
418.357	0.82
418.561	0.98
418.765	1
418.969	1.08
419.173	1.03
419.377	0.97
419.581	1.18
419.785	1.1
419.989	1.09
420.193	1.1
420.397	1.16
420.601	1.29
420.804	1.31
421.008	1.31
421.212	1.29
421.416	1.26
421.62	1.28
421.823	1.3
422.027	1.36
422.231	1.3
422.435	1.31
422.638	1.33
422.842	1.28
423.046	1.27
423.249	1.33
423.453	1.32
423.657	1.42
423.86	1.39
424.064	1.41
424.268	1.43
424.471	1.3
424.675	1.45
424.878	1.41
425.082	1.34
425.285	1.33
425.489	1.32
425.692	1.3
425.896	1.25
426.099	1.28
426.303	1.26
426.506	1.16
426.71	1.25
426.913	1.38
427.116	1.25
427.32	1.17
427.523	1.1
427.726	1.24
427.93	1.07
428.133	1.17
428.336	1.08
428.54	1.03
428.743	1.03
428.946	1.05
429.149	0.96
429.353	0.98
429.556	0.93
429.759	0.84
429.962	0.81
430.165	0.85
430.368	0.74
430.571	0.72
430.775	0.72
430.978	0.67
431.181	0.7
431.384	0.67
431.587	0.69
431.79	0.62
431.993	0.65
432.196	0.6
432.399	0.53
432.602	0.64
432.805	0.52
433.008	0.54
433.211	0.48
433.414	0.58
433.616	0.62
433.819	0.44
434.022	0.34
434.225	0.51
434.428	0.43
434.631	0.56
434.833	0.4
435.036	0.42
435.239	0.45
435.442	0.41
435.645	0.41
435.847	0.36
436.05	0.42
436.253	0.41
436.455	0.35
436.658	0.36
436.861	0.43
437.063	0.31
437.266	0.32
437.468	0.37
437.671	0.42
437.874	0.32
438.076	0.24
438.279	0.22
438.481	0.34
438.684	0.19
438.886	0.27
439.089	0.18
439.291	0.25
439.494	0.29
439.696	0.2
439.899	0.24
440.101	0.25
440.303	0.12
440.506	0.26
440.708	0.21
440.91	0.25
441.113	0.16
441.315	0.24
441.517	0.12
441.72	0.23
441.922	0.14
442.124	0.12
442.326	0.16
442.529	0.23
442.731	0.16
442.933	0.23
443.135	0.14
443.337	0.11
443.539	0.09
443.742	0.11
443.944	0.18
444.146	0.11
444.348	0.13
444.55	0.02
444.752	0.09
444.954	0.08
445.156	0.15
445.358	0.05
445.56	0.14
445.762	0.1
445.964	0.07
446.166	0.07
446.368	0.07
446.57	0.15
446.772	0.1
446.974	0.05
447.175	0.14
447.377	-0.02
447.579	0.1
447.781	-0.02
447.983	0.16
448.184	0.09
448.386	0.06
448.588	0
448.79	0.12
448.991	0.01
449.193	0.06
449.395	0.08
449.597	0.09
449.798	0.09
450	0.07
450.202	0.02
450.403	0.03
450.605	0.07
450.806	0.03
451.008	-0.04
451.21	0.04
451.411	0.02
451.613	0.04
451.814	0.05
452.016	0.07
452.217	0.07
452.419	0.09
452.62	0.07
452.821	0.05
453.023	0.09
453.224	0.13
453.426	0.06
453.627	0.03
453.828	0.07
454.03	0.01
454.231	0.05
454.432	-0.01
454.634	0.15
454.835	-0.01
455.036	-0.03
455.238	0.05
455.439	0.09
455.64	-0.03
455.841	-0.04
456.042	0.17
456.244	0.08
456.445	0.01
456.646	-0.04
456.847	-0.03
457.048	0.06
457.249	0.11
457.45	0.26
457.651	-0.01
457.852	0.06
458.054	0.05
458.255	0.01
458.456	0.02
458.657	-0
458.858	-0
459.058	0.03
459.259	0.05
459.46	-0.03
459.661	-0.01
459.862	0.12
460.063	0
460.264	0.08
460.465	-0.04
460.666	0.13
460.866	-0.02
461.067	0.04
461.268	-0.02
461.469	0.02
461.67	0.03
461.87	-0.04
462.071	-0.01
462.272	-0.07
462.473	0.01
462.673	0.01
462.874	-0.02
463.075	-0.01
463.275	-0.03
463.476	-0.01
463.676	0.03
463.877	0.04
464.078	-0.03
464.278	0.02
464.479	-0.04
464.679	0.04
464.88	-0.01
465.08	0.02
465.281	-0.01
465.481	-0.01
465.682	0.05
465.882	0.04
466.083	-0.01
466.283	0
466.483	-0
466.684	-0.05
466.884	-0.08
467.085	-0.03
467.285	0.05
467.485	-0.06
467.686	-0.03
467.886	-0.06
468.086	-0.03
468.286	-0.03
468.487	0.03
468.687	-0.06
468.887	0.01
469.087	0.01
469.287	-0.01
469.488	-0.07
469.688	0.01
469.888	0.01
470.088	0.03
470.288	0.03
470.488	0.09
470.688	-0.07
470.888	-0.03
471.088	-0.05
471.288	0.05
471.488	0.05
471.688	0.03
471.888	-0.01
472.088	0.05
472.288	0.02
472.488	-0.04
472.688	-0.08
472.888	0.01
473.088	-0.03
473.288	0.02
473.488	-0.01
473.688	0.07
473.887	0
474.087	-0.06
474.287	0.01
474.487	-0.06
474.687	0.02
474.886	-0.03
475.086	-0.01
475.286	-0.01
475.486	0.02
475.685	-0
475.885	-0.05
476.085	0
476.284	0.01
476.484	-0.03
476.684	0.01
476.883	0.05
477.083	-0
477.282	-0.02
477.482	0.01
477.681	0.05
477.881	0.01
478.08	-0.02
478.28	-0.03
478.479	0.03
478.679	0.07
478.878	-0.02
479.078	-0.02
479.277	-0.02
479.477	-0.03
479.676	0.03
479.875	0
480.075	-0.06
480.274	0.05
480.473	0.01
480.673	-0.02
480.872	0.02
481.071	0.01
481.271	0.01
481.47	-0.01
481.669	-0.01
481.868	-0.04
482.067	-0.04
482.267	-0.02
482.466	-0.02
482.665	0
482.864	-0.04
483.063	-0.05
483.262	0.04
483.461	0.02
483.661	0.01
483.86	-0.01
484.059	0.01
484.258	0.01
484.457	-0.02
484.656	-0.03
484.855	0.03
485.054	-0.07
485.253	-0.04
485.452	-0.04
485.651	-0.03
485.849	-0
486.048	-0.04
486.247	-0.02
486.446	-0.01
486.645	-0.05
486.844	-0.03
487.043	-0.01
487.241	0
487.44	-0.04
487.639	-0.01
487.838	0
488.037	0.01
488.235	0.02
488.434	-0
488.633	-0.03
488.831	0.01
489.03	0.02
489.229	0.02
489.427	-0.04
489.626	0.04
489.825	0.06
490.023	-0.01
490.222	-0.02
490.42	0
490.619	0.02
490.817	0.01
491.016	-0.03
491.214	0.02
491.413	0
491.611	0
491.81	-0.01
492.008	0.02
492.207	0.02
492.405	-0.03
492.604	-0.06
492.802	-0
493	-0.01
493.199	-0.02
493.397	0.02
493.595	-0.02
493.794	-0
493.992	0.05
494.19	-0.02
494.388	0.03
494.587	-0.01
494.785	-0.01
494.983	-0.04
495.181	-0.01
495.379	0.01
495.578	-0.04
495.776	-0
495.974	0.01
496.172	-0.02
496.37	-0.03
496.568	-0.04
496.766	-0.02
496.964	0.03
497.162	-0
497.36	-0
497.558	0.01
497.756	0.01
497.954	-0.01
498.152	-0.04
498.35	0.01
498.548	-0.02
498.746	-0.01
498.944	-0.04
499.142	-0.04
499.34	-0.05
499.538	-0.02
499.736	-0.04
499.933	0.03
500.131	0.03
500.329	-0.01
500.527	0.03
500.725	0.03
500.922	0.03
501.12	-0.01
501.318	0
501.516	-0.02
501.713	-0.01
501.911	-0.02
502.109	-0.04
502.306	0.01
502.504	-0.04
502.701	-0.03
502.899	-0.02
503.097	0.03
503.294	0.01
503.492	-0.03
503.689	-0
503.887	-0.01
504.084	0.04
504.282	-0.01
504.479	-0.04
504.677	-0.02
504.874	-0.02
505.072	-0
505.269	-0.01
505.466	0.02
505.664	-0.01
505.861	-0.03
506.059	-0.03
506.256	0.01
506.453	-0.02
506.651	0.02
506.848	0
507.045	-0
507.242	-0
507.44	-0.03
507.637	-0
507.834	-0.01
508.031	0
508.229	-0.02
508.426	-0.01
508.623	0.04
508.82	-0.03
509.017	-0.03
509.214	-0.01
509.411	0.01
509.608	-0.03
509.805	-0.01
510.003	-0.02
510.2	-0.03
510.397	0.03
510.594	-0.05
510.791	-0.04
510.988	-0.01
511.184	0.01
511.381	-0.03
511.578	-0.03
511.775	0.04
511.972	-0.04
512.169	-0.01
512.366	-0.02
512.563	0.01
512.76	-0.01
512.956	0.01
513.153	-0.04
513.35	-0.01
513.547	-0.03
513.744	-0.03
513.94	-0.04
514.137	0.03
514.334	0
514.53	0
514.727	-0.02
514.924	0.02
515.12	-0.03
515.317	-0.04
515.514	-0.03
515.71	-0.03
515.907	-0.02
516.103	-0.01
516.3	-0.01
516.497	0.03
516.693	-0
516.89	-0.02
517.086	-0.05
517.283	0.04
517.479	0.02
517.676	-0.01
517.872	-0.01
518.068	-0.02
518.265	-0.01
518.461	-0.02
518.658	-0.04
518.854	0
519.05	-0
519.247	-0.04
519.443	-0
519.639	0
519.836	-0.03
520.032	-0
520.228	-0.01
520.424	0.04
520.621	-0
520.817	0.01
521.013	0.03
521.209	0.02
521.405	0.04
521.601	0.01
521.798	-0.02
521.994	0.04
522.19	-0.04
522.386	-0.01
522.582	-0.01
522.778	-0.01
522.974	-0.03
523.17	-0
523.366	0.01
523.562	0.02
523.758	-0.01
523.954	-0.03
524.15	-0.04
524.346	0.02
524.542	-0.04
524.738	-0.02
524.934	0
525.129	-0.01
525.325	-0
525.521	-0.02
525.717	0.01
525.913	-0
526.109	-0.02
526.304	-0.01
526.5	0
526.696	0.01
526.892	-0.01
527.087	0.01
527.283	-0.01
527.479	-0
527.674	-0.03
527.87	-0.01
528.066	-0.02
528.261	-0
528.457	0.01
528.653	-0
528.848	-0.02
529.044	-0.01
529.239	0
529.435	0.02
529.63	-0.01
529.826	0.02
530.021	0.01
530.217	-0.01
530.412	-0.03
530.608	-0.03
530.803	0
530.999	-0.02
531.194	-0.05
531.389	-0
531.585	-0.05
531.78	0.01
531.975	-0
532.171	0.03
532.366	-0.02
532.561	0
532.757	-0.05
532.952	-0.01
533.147	0.03
533.342	0.01
533.538	-0.02
533.733	0.03
533.928	-0.03
534.123	-0.01
534.318	-0.05
534.513	-0.02
534.709	-0.01
534.904	-0.03
535.099	-0.03
535.294	-0.03
535.489	-0.02
535.684	-0.02
535.879	-0.03
536.074	-0.01
536.269	-0.03
536.464	-0
536.659	-0.01
536.854	0.01
537.049	-0
537.244	0
537.439	-0.02
537.634	0.03
537.828	-0.03
538.023	-0.01
538.218	-0.05
538.413	-0.02
538.608	-0.02
538.803	0
538.997	-0.06
539.192	0.01
539.387	-0.01
539.582	0
539.776	-0.01
539.971	-0.03
540.166	-0
540.36	-0.04
540.555	-0.02
540.75	-0.02
540.944	-0
541.139	-0.03
541.334	-0
541.528	0.02
541.723	0.02
541.917	-0.02
542.112	-0.03
542.306	-0.01
542.501	0
542.695	0.01
542.89	-0.03
543.084	0.01
543.279	-0.02
543.473	-0.02
543.668	-0.01
543.862	-0.02
544.056	0.01
544.251	-0.01
544.445	-0
544.64	-0.01
544.834	-0.03
545.028	-0.01
545.222	-0.03
545.417	0
545.611	-0.02
545.805	0
546	-0.02
546.194	-0
546.388	-0.04
546.582	-0
546.776	-0.01
546.97	-0.02
547.165	-0
547.359	0.02
547.553	-0.04
547.747	-0.01
547.941	-0
548.135	-0.02
548.329	0.01
548.523	0.01
548.717	-0.01
548.911	-0.02
549.105	-0.01
549.299	0
549.493	0
549.687	-0
549.881	0.01
550.075	-0.01
550.269	-0.06
550.463	0.02
550.657	-0.02
550.85	-0.01
551.044	-0.04
551.238	-0.01
551.432	-0.04
551.626	-0.04
551.82	0.01
552.013	-0.02
552.207	-0.02
552.401	-0.01
552.594	-0.02
552.788	-0.01
552.982	-0
553.176	-0.03
553.369	-0.01
553.563	-0
553.756	-0.05
553.95	-0.06
554.144	-0.01
554.337	0.02
554.531	-0.02
554.724	0
554.918	-0.02
555.111	0.02
555.305	-0.02
555.498	0.04
555.692	0.01
555.885	-0.01
556.079	-0.01
556.272	-0.02
556.466	0.01
556.659	-0
556.852	-0.01
557.046	-0.03
557.239	0.03
557.432	-0.05
557.626	-0.03
557.819	0.01
558.012	0.01
558.206	0
558.399	-0.01
558.592	-0.01
558.785	-0.03
558.979	-0
559.172	-0
559.365	-0
559.558	0
559.751	-0.01
559.944	0.01
560.138	-0.02
560.331	-0.01
560.524	-0.01
560.717	-0
560.91	-0.02
561.103	-0.01
561.296	-0.01
561.489	-0
561.682	0
561.875	0.04
562.068	0.01
562.261	-0.01
562.454	0.04
562.647	0
562.84	-0.01
563.032	-0.02
563.225	-0.01
563.418	-0.01
563.611	-0.03
563.804	-0.02
563.997	-0.03
564.19	-0.05
564.382	-0
564.575	-0.04
564.768	0.01
564.961	-0
565.153	-0.03
565.346	0.01
565.539	-0.02
565.731	0.01
565.924	-0
566.117	0.02
566.309	-0.02
566.502	-0.02
566.695	-0.03
566.887	-0.02
567.08	-0.02
567.272	-0.02
567.465	-0.01
567.657	-0.01
567.85	0
568.042	0.01
568.235	0.01
568.427	-0.02
568.62	-0.01
568.812	-0
569.005	0.01
569.197	-0.05
569.389	0
569.582	-0
569.774	-0.02
569.966	-0.05
570.159	-0.06
570.351	-0.01
570.543	-0
570.736	-0.01
570.928	-0.03
571.12	-0.01
571.312	-0.01
571.505	-0.07
571.697	0.04
571.889	-0.03
572.081	-0.03
572.273	-0.03
572.465	0.04
572.658	-0.02
572.85	0.01
573.042	-0.04
573.234	-0.03
573.426	-0
573.618	-0.05
573.81	0
574.002	0.02
574.194	0.04
574.386	-0.03
574.578	-0.08
574.77	-0.04
574.962	-0.01
575.154	-0.05
575.346	-0.01
575.538	0.02
575.729	-0.04
575.921	-0.03
576.113	-0.04
576.305	0.01
576.497	-0
576.689	-0.02
576.88	-0.05
577.072	0.04
577.264	-0.02
577.456	-0.03
577.647	-0.07
577.839	-0.02
578.031	0.02
578.223	-0.03
578.414	-0.05
578.606	0.02
578.798	-0.03
578.989	-0.01
579.181	-0.03
579.372	-0.01
579.564	-0.02
579.755	-0.01
579.947	-0.01
580.139	0
580.33	-0.08
580.522	-0.02
580.713	-0.07
580.905	-0.01
581.096	-0
581.287	-0.01
581.479	-0
581.67	0.01
581.862	-0
582.053	-0.02
582.244	-0.05
582.436	-0.02
582.627	-0
582.818	-0.05
583.01	-0.06
583.201	0.01
583.392	-0
583.583	-0.01
583.775	-0.02
583.966	-0.02
584.157	-0.03
584.348	-0.01
584.54	-0.06
584.731	0
584.922	-0.03
585.113	-0.03
585.304	0.01
585.495	0.03
585.686	-0.01
585.877	0
586.068	0
586.259	0.01
586.45	-0.03
586.641	-0.01
586.832	-0.08
587.023	-0.02
587.214	-0.02
587.405	-0.03
587.596	-0.04
587.787	0.02
587.978	0.01
588.169	-0.04
588.36	-0.04
588.551	-0.01
588.742	-0.04
588.932	0.01
589.123	-0.02
589.314	0.02
589.505	-0
589.696	-0.01
589.886	-0.04
590.077	-0.04
590.268	-0.01
590.458	-0.07
590.649	-0.05
590.84	0.03
591.03	-0.03
591.221	-0.07
591.412	-0.06
591.602	-0.01
591.793	0.05
591.984	-0.05
592.174	-0.02
592.365	0.06
592.555	-0.04
592.746	0.01
592.936	-0.01
593.127	-0
593.317	0.05
593.508	-0.06
593.698	-0.02
593.889	-0.01
594.079	0.01
594.269	-0.03
594.46	-0.02
594.65	-0.01
594.84	-0.02
595.031	-0.07
595.221	-0.06
595.411	-0.06
595.602	0.02
595.792	-0.01
595.982	-0.04
596.172	0.05
596.363	-0.01
596.553	-0.02
596.743	-0.03
596.933	-0.01
597.123	0.03
597.314	-0.04
597.504	-0.04
597.694	0
597.884	0.02
598.074	-0.05
598.264	-0.03
598.454	0.01
598.644	-0.01
598.834	-0.04
599.024	-0.08
599.214	-0.01
599.404	0.01
599.594	-0.02
599.784	-0.02
599.974	0.01
600.164	0.02
600.354	-0.06
600.544	-0.08
600.734	-0.01
600.924	0.02
601.114	-0.05
601.303	-0.02
601.493	-0
601.683	-0
601.873	-0
602.063	-0.07
602.252	0.02
602.442	-0.07
602.632	-0.04
602.821	-0.05
603.011	0
603.201	-0.02
603.39	-0.02
603.58	-0.05
603.77	0.01
603.959	0
604.149	-0.03
604.339	-0.02
604.528	0.01
604.718	0.01
604.907	-0.04
605.097	-0.05
605.286	-0.06
605.476	-0.01
605.665	0
605.855	-0.03
606.044	0
606.234	-0.01
606.423	-0.03
606.612	-0.06
606.802	-0.01
606.991	-0.02
607.181	-0.01
607.37	-0.07
607.559	0.01
607.749	-0.06
607.938	-0.03
608.127	-0.03
608.316	-0.07
608.506	0
608.695	-0.04
608.884	-0.03
609.073	-0.03
609.263	0
609.452	0.02
609.641	0.02
609.83	-0.03
610.019	-0.03
610.208	-0.05
610.397	-0.02
610.586	0.01
610.775	-0.06
610.965	-0.01
611.154	-0.04
611.343	0.01
611.532	-0.01
611.721	-0.05
611.91	-0.04
612.099	0
612.287	-0.03
612.476	-0.05
612.665	-0.02
612.854	-0.02
613.043	0.01
613.232	-0.03
613.421	-0.08
613.61	0
613.798	-0.07
613.987	0
614.176	-0
614.365	0.02
614.554	-0.03
614.742	0
614.931	-0.05
615.12	0.02
615.309	-0.01
615.497	0
615.686	-0.04
615.875	-0.03
616.063	0.01
616.252	-0.04
616.44	-0.04
616.629	-0.03
616.818	0.01
617.006	-0.01
617.195	-0.03
617.383	0.02
617.572	-0.01
617.76	-0.03
617.949	-0.03
618.137	0
618.326	0.01
618.514	-0.04
618.703	-0.05
618.891	0.07
619.079	-0.08
619.268	-0
619.456	-0.04
619.644	0.03
619.833	-0.02
620.021	-0.05
620.209	-0.08
620.398	0.01
620.586	-0.01
620.774	0.02
620.962	-0.04
621.151	0.06
621.339	-0.04
621.527	-0.07
621.715	-0.09
621.903	-0.06
622.092	-0.06
622.28	-0.04
622.468	-0.01
622.656	-0.03
622.844	0
623.032	-0.04
623.22	-0.07
623.408	0.02
623.596	-0
623.784	-0
623.972	-0.07
624.16	-0.04
624.348	0.04
624.536	-0.05
624.724	-0.05
624.912	0.06
625.1	0.01
625.288	-0.04
625.476	-0.05
625.664	-0.01
625.851	-0.05
626.039	0.01
626.227	-0
626.415	-0.02
626.603	-0.1
626.79	-0.01
626.978	-0.05
627.166	0.02
627.354	-0.03
627.541	-0.04
627.729	-0.1
627.917	0.04
628.104	0.03
628.292	-0
628.48	-0.03
628.667	-0.04
628.855	-0.02
629.042	-0.02
629.23	-0.05
629.418	-0.01
629.605	-0.02
629.793	-0.05
629.98	-0.08
630.168	-0.03
630.355	-0.06
630.543	-0.04
630.73	-0.05
630.917	-0.01
631.105	0.04
631.292	-0.04
631.48	-0.02
631.667	0.07
631.854	0
632.042	0
632.229	-0.08
632.416	-0.04
632.604	-0.03
632.791	-0.1
632.978	0.02
633.165	-0.02
633.353	0.04
633.54	0.01
633.727	-0.09
633.914	-0.04
634.101	-0.11
634.289	0.02
634.476	-0.07
634.663	-0.08
634.85	0
635.037	-0.05
635.224	-0.08
635.411	0.02
635.598	0.03
635.785	-0.02
635.972	-0.03
636.159	0.01
636.346	-0.05
636.533	-0.05
636.72	-0.04
636.907	-0.02
637.094	0.02
637.281	-0.06
637.468	-0.03
637.655	-0.06
637.842	-0.02
638.029	-0.05
638.215	0
638.402	0.01
638.589	-0.03
638.776	-0.05
638.963	-0.05
639.149	0.02
639.336	0.06
639.523	-0.01
639.709	-0.05
639.896	-0.04
640.083	0.01
640.27	0
640.456	-0.04
640.643	0.02
640.829	-0.06
641.016	-0.03
641.203	-0.09
641.389	0.02
641.576	0.02
641.762	-0.02
641.949	-0.05
642.135	-0
642.322	-0.02
642.508	-0.06
642.695	-0.04
642.881	0.01
643.068	-0.04
643.254	-0.03
643.441	0.02
643.627	-0.03
643.813	-0.08
644	0.03
644.186	-0.05
644.372	0.01
644.559	0.03
644.745	-0.02
644.931	-0.01
645.118	-0.04
645.304	0
645.49	-0.06
645.676	-0.03
645.862	-0.01
646.049	-0
646.235	-0.02
646.421	0.04
646.607	0.06
646.793	-0.03
646.979	-0.06
647.165	0.01
647.352	-0.03
647.538	0.03
647.724	-0
647.91	0.01
648.096	0.01
648.282	0.01
648.468	-0.03
648.654	0.01
648.84	0
649.026	-0.03
649.212	-0.06
649.397	-0.07
649.583	-0.07
649.769	0.02
649.955	-0.01
650.141	-0.01
650.327	0.04
650.513	-0.05
650.698	0.01
650.884	-0.08
651.07	-0.03
651.256	0
651.442	-0.04
651.627	-0.05
651.813	-0.02
651.999	-0.03
652.184	0
652.37	-0.02
652.556	-0.02
652.741	0.08
652.927	-0.09
653.113	-0.03
653.298	-0.03
653.484	-0.03
653.669	-0.08
653.855	-0.04
654.04	0.03
654.226	-0.04
654.412	-0.04
654.597	-0.04
654.782	-0.03
654.968	0.01
655.153	0
655.339	-0.01
655.524	-0.03
655.71	0.02
655.895	-0.05
656.08	-0.02
656.266	0.03
656.451	0.01
656.636	-0.08
656.822	-0
657.007	-0.03
657.192	-0.03
657.378	-0.05
657.563	-0.05
657.748	0.01
657.933	0.05
658.118	-0.07
658.304	-0.03
658.489	-0.02
658.674	0.03
658.859	-0.05
659.044	-0.02
659.229	0.02
659.414	-0.05
659.599	-0.02
659.785	-0.09
659.97	-0.04
660.155	-0.03
660.34	-0.01
660.525	-0.07
660.71	-0.03
660.895	0
661.08	-0.02
661.264	-0.01
661.449	-0
661.634	0.06
661.819	-0.01
662.004	0
662.189	-0.09
662.374	-0.05
662.559	-0.04
662.743	-0.08
662.928	0.03
663.113	-0.03
663.298	-0.09
663.483	-0.03
663.667	0
663.852	-0.09
664.037	0.01
664.221	-0.07
664.406	0.02
664.591	0.01
664.775	-0.03
664.96	-0.08
665.145	-0.04
665.329	0.02
665.514	-0.07
665.698	-0.04
665.883	-0.08
666.068	0.04
666.252	-0.03
666.437	-0.06
666.621	-0.03
666.806	0.02
666.99	-0.01
667.174	-0.08
667.359	0.03
667.543	-0.05
667.728	-0.05
667.912	-0.1
668.096	-0.01
668.281	-0.06
668.465	-0.01
668.649	-0.06
668.834	-0.08
669.018	-0.03
669.202	-0.05
669.387	-0.06
669.571	0.01
669.755	-0.04
669.939	-0.03
670.124	-0.02
670.308	0
670.492	0
670.676	-0.02
670.86	-0.05
671.044	-0.07
671.228	-0.03
671.413	-0.06
671.597	-0.05
671.781	-0.08
671.965	-0.01
672.149	-0.03
672.333	-0.02
672.517	-0.05
672.701	0.03
672.885	-0.04
673.069	-0.08
673.253	0.04
673.437	-0.01
673.621	-0.05
673.804	-0.04
673.988	-0.01
674.172	-0.03
674.356	-0.09
674.54	-0.01
674.724	0.07
674.908	-0.07
675.091	0
675.275	-0.04
675.459	0.03
675.643	0.01
675.826	-0.01
676.01	-0.05
676.194	-0.03
676.377	-0
676.561	0.02
676.745	0.01
676.928	-0
677.112	0
677.296	-0.07
677.479	-0.06
677.663	-0.03
677.846	-0.02
678.03	-0.01
678.213	-0.04
678.397	0.02
678.58	-0.06
678.764	-0.03
678.947	-0.1
679.131	-0.06
679.314	0.06
679.498	-0.1
679.681	-0.01
679.865	0.03
680.048	-0.02
680.231	-0.03
680.415	0
680.598	-0.06
680.781	-0.11
680.965	-0.03
681.148	-0.04
681.331	-0.04
681.514	-0.01
681.698	-0.05
681.881	-0.02
682.064	-0.01
682.247	-0.04
682.43	-0.09
682.614	-0.01
682.797	-0
682.98	-0.01
683.163	-0.06
683.346	-0.05
683.529	-0.03
683.712	-0.03
683.895	-0.04
684.078	-0.06
684.261	-0.04
684.444	-0.02
684.627	-0.04
684.81	-0.03
684.993	-0.07
685.176	0.03
685.359	-0.06
685.542	-0
685.725	0.05
685.908	-0.01
686.091	-0.05
686.274	0.04
686.457	-0.04
686.639	-0.04
686.822	-0.01
687.005	-0
687.188	0.01
687.371	0.07
687.553	0.03
687.736	-0.04
687.919	0.04
688.102	0.07
688.284	-0.07
688.467	-0.03
688.65	-0.02
688.832	-0.04
689.015	-0.02
689.197	-0.07
689.38	0.08
689.563	0.05
689.745	-0.08
689.928	-0.09
690.11	-0.03
690.293	0.03
690.475	-0.09
690.658	0.03
690.84	-0.02
691.023	-0.01
691.205	-0.09
691.388	-0.03
691.57	-0.01
691.752	-0.05
691.935	-0.12
692.117	-0.06
692.3	-0.02
692.482	-0.07
692.664	-0.02
692.847	0.01
693.029	0.06
693.211	-0.01
693.393	-0.01
693.576	-0.05
693.758	-0.04
693.94	-0.03
694.122	-0.03
694.304	-0.08
694.487	-0.06
694.669	0.06
694.851	-0.09
695.033	-0.02
695.215	-0.08
695.397	-0.05
695.579	-0.01
695.761	-0.05
695.943	-0.12
696.125	0.02
696.308	0.02
696.49	-0.11
696.671	0.08
696.853	-0.01
697.035	0.12
697.217	-0.06
697.399	0.02
697.581	-0.07
697.763	-0
697.945	-0.07
698.127	-0.04
698.309	0.02
698.491	0.03
698.672	-0.02
698.854	0
699.036	-0
699.218	-0.04
699.399	-0
699.581	-0.01
699.763	-0.04
699.945	-0.07
700.126	-0.1
700.308	-0.02
700.49	0.03
700.671	-0.11
700.853	-0.13
701.035	-0.1
701.216	-0.06
701.398	-0.08
701.579	-0.06
701.761	-0.01
701.943	-0.06
702.124	-0.05
702.306	-0.01
702.487	0.1
702.669	-0.02
702.85	-0.06
703.031	-0.08
703.213	0.08
703.394	0.07
703.576	-0.04
703.757	0.05
703.938	0.1
704.12	0.13
704.301	-0.07
704.483	-0.05
704.664	0.01
704.845	0.15
705.026	0.05
705.208	-0.05
705.389	-0.05
705.57	0.02
705.751	-0.08
705.933	-0.01
706.114	0.1
706.295	-0.02
706.476	-0.07
706.657	0.04
706.838	-0.04
707.02	0.02
707.201	-0.04
707.382	-0.08
707.563	0.02
707.744	-0.03
707.925	-0.06
708.106	-0.07
708.287	-0.04
708.468	0.09
708.649	-0.08
708.83	-0.01
709.011	-0.09
709.192	0
709.373	-0.09
709.554	-0.04
709.734	0.01
709.915	0.04
710.096	-0
710.277	-0.11
710.458	-0.07
710.639	-0.03
710.819	-0.16
711	-0.04
711.181	0.03
711.362	0.01
711.542	-0.08
711.723	-0.03
711.904	-0.01
712.085	-0.04
712.265	-0.07
712.446	-0.09
712.627	-0.05
712.807	0.01
712.988	-0.08
713.168	-0.14
713.349	0.02
713.53	-0.16
713.71	-0.07
713.891	-0.08
714.071	-0.02
714.252	-0.13
714.432	-0.09
714.613	-0.07
714.793	-0.01
714.974	0.07
715.154	0.06
715.334	0.07
715.515	0.07
715.695	-0.12
715.876	-0.09
716.056	-0.04
716.236	0.01
716.417	-0.06
716.597	-0.06
716.777	0.09
716.957	-0.03
717.138	-0.01
717.318	-0.01
717.498	-0.13
717.678	0.03
717.859	-0.04
718.039	-0.06
718.219	-0
718.399	0.03
718.579	-0.12
718.759	-0.11
718.939	-0.03
719.12	-0.07
719.3	-0.04
719.48	-0.19
719.66	-0.2
719.84	0.08
720.02	-0.04
720.2	-0.09
720.38	-0.02
720.56	0.04
720.74	-0.09
720.92	-0.04
721.1	-0.04
721.279	0.06
721.459	-0
721.639	-0.15
721.819	0.01
721.999	-0.09
722.179	0.02
722.359	-0.17
722.538	-0.08
722.718	-0
722.898	-0.03
723.078	-0.03
723.257	-0.13
723.437	-0.06
723.617	-0.06
723.797	0.02
723.976	-0
724.156	0
724.336	0.04
724.515	0.1
724.695	-0.14
724.874	-0.05
725.054	0.07
725.234	-0.13
725.413	-0.01
725.593	-0.03
725.772	-0.01
725.952	-0.04
726.131	-0.09
726.311	0.01
726.49	-0.07
726.67	-0.23
726.849	-0.04
727.028	-0.04
727.208	-0.16
727.387	-0.03
727.567	-0.14
727.746	-0
727.925	-0.09
728.105	-0.13
728.284	-0.09
728.463	-0.27
728.643	0.08
728.822	-0.14
729.001	-0.16
729.18	0.02
729.359	-0
729.539	0
729.718	-0.01
729.897	0
730.076	-0.07
730.255	-0.12
730.434	-0.01
730.614	-0.09
730.793	0.06
730.972	-0.09
731.151	-0.02
731.33	0.07
731.509	0.03
731.688	-0.06
731.867	-0.08
732.046	-0.2
732.225	0.25
732.404	-0.08
732.583	-0.11
732.762	-0.05
732.941	0.01
733.12	-0.07
733.298	-0.06
733.477	-0.02
733.656	-0.08
733.835	-0.12
734.014	0.12
734.193	0.05
734.371	-0.06
734.55	-0.06
734.729	-0.2
734.908	-0.05
735.086	-0.03
735.265	0.06
735.444	-0.25
735.623	-0.16
735.801	-0.12
735.98	-0.07
736.159	0.01
736.337	0.12
736.516	-0.06
736.694	0
736.873	-0.04
737.052	0.11
737.23	0.03
737.409	-0.09
737.587	0.07
737.766	-0.22
737.944	-0.08
738.123	0.08
738.301	0.05
738.479	-0.17
738.658	-0.08
738.836	-0.28
739.015	-0.1
739.193	0.15
739.371	-0.2
739.55	-0.06
739.728	-0.17
739.906	0.01
740.085	0.06
740.263	-0.02
740.441	-0.25
740.62	0.03
740.798	0.09
740.976	-0.03
741.154	-0.09
741.332	0.16
741.511	-0.13
741.689	0.05
741.867	0.08
742.045	-0.15
742.223	-0.02
742.401	-0.19
742.579	-0.16
742.757	-0.02
742.935	-0.2
743.114	-0.06
743.292	-0
743.47	-0.03
743.648	0.06
743.826	-0.17
744.004	0.02
744.181	0.02
744.359	-0.02
744.537	0
744.715	0.02
744.893	-0.12
745.071	0
745.249	-0.19
745.427	-0.09
745.605	0.1
745.782	-0.04
745.96	0.08
746.138	0.01
746.316	0.06
746.493	-0.14
746.671	0.05
746.849	-0.08
747.027	0
747.204	-0.13
747.382	-0.18
747.56	-0.13
747.737	0.03
747.915	-0.11
748.093	0.03
748.27	-0.19
748.448	-0.12
748.625	-0.11
748.803	-0.15
748.98	-0.04
749.158	0.03
749.335	0.13
749.513	0.01
749.69	-0.01
749.868	-0.03
750.045	0.02
750.223	-0.09
750.4	-0.14
750.578	0.08
750.755	-0.1
750.932	-0.15
751.11	0.11
751.287	-0.28
751.464	0.07
751.642	-0.15
751.819	-0.04
751.996	-0.08
752.173	-0.07
752.351	-0.14
752.528	-0.11
752.705	-0.01
752.882	-0.09
753.06	-0.04
753.237	0.04
753.414	0.17
753.591	0.08
753.768	-0.05
753.945	0.07
754.122	0.01
754.299	-0
754.476	-0.14
754.654	-0.1
754.831	0.08
755.008	0.02
755.185	-0.07
755.362	-0.08
755.539	0.07
755.716	-0.08
755.892	-0.06
756.069	-0.14
756.246	-0.01
756.423	-0.12
756.6	0.08
756.777	-0.04
756.954	-0
757.131	-0.03
757.307	-0.13
757.484	-0.26
757.661	0.01
757.838	0.08
758.015	-0.19
758.191	0.02
758.368	-0.16
758.545	0.18
758.721	-0.04
758.898	-0.09
759.075	0.05
759.251	-0.02
759.428	-0.03
759.605	-0.18
759.781	0.01
759.958	-0.02
760.134	-0.09
760.311	-0.26
760.488	0.13
760.664	0.07
760.841	-0.1
761.017	-0.19
761.194	0.11
761.37	0.05
761.547	-0.04
761.723	-0.1
761.899	0.06
762.076	-0.21
762.252	-0.23
762.429	-0.15
762.605	0.05
762.781	-0.01
762.958	-0.08
763.134	-0.16
763.31	-0.09
763.486	0.07
763.663	-0.34
763.839	-0.01
764.015	-0.2
764.191	-0.13
764.368	-0.01
764.544	-0.1
764.72	-0.01
764.896	0.09
765.072	-0.04
765.248	-0.07
765.425	-0.08
765.601	0.05
765.777	-0.08
765.953	-0.3
766.129	-0.07
766.305	-0.1
766.481	-0.01
766.657	0.01
766.833	0.19
767.009	-0.14
767.185	-0.12
767.361	-0.11
767.537	-0.18
767.713	-0
767.889	-0.12
768.065	-0.05
768.24	0.16
768.416	0.08
768.592	-0.19
768.768	-0.03
768.944	0.03
769.12	-0.14
769.295	-0.08
769.471	-0.08
769.647	-0.2
769.823	0.2
769.998	-0.08
770.174	-0.17
770.35	0.28
770.525	0.16
770.701	-0.08
770.877	0.04
771.052	-0.22
771.228	0.08
771.403	0.03
771.579	-0.07
771.755	0.23
771.93	-0.11
772.106	-0.17
772.281	-0.12
772.457	-0.08
772.632	-0.02
772.808	-0.28
772.983	-0.19
773.159	-0.3
773.334	0.1
773.509	-0.11
773.685	-0.13
773.86	0.28
774.036	0.16
774.211	-0.02
774.386	-0.18
774.562	-0.07
774.737	-0.01
774.912	-0.08
775.087	-0.1
775.263	0.03
775.438	-0.04
775.613	-0.13
775.788	-0.17
775.964	0.16
776.139	0.34
776.314	-0.28
776.489	-0.07
776.664	-0.2
776.839	-0.19
777.014	0
777.19	0.21
777.365	0.24
777.54	0.35
777.715	-0.07
777.89	-0.07
778.065	-0.26
778.24	-0.08
778.415	0.04
778.59	-0.15
778.765	-0.25
778.94	-0.13
779.115	0.05
779.289	-0.13
779.464	-0.01
779.639	-0.18
779.814	-0.3
779.989	-0.31
780.164	0.23
780.339	0.07
780.513	-0.33
780.688	-0.24
780.863	-0.18
781.038	0.16
781.212	-0.39
781.387	-0.01
781.562	0.3
781.737	-0.17
781.911	0.04
782.086	-0.22
782.261	-0.11
782.435	0.2
782.61	-0.25
782.784	-0.26
782.959	0.2
783.134	-0.09
783.308	-0.21
783.483	-0.23
783.657	0.3
783.832	0.06
784.006	-0.62
784.181	-0.08
784.355	0.21
784.53	-0.46
784.704	-0.39
784.878	-0.05
785.053	-0.08
785.227	0.01
785.402	0.26
785.576	-0.47
785.75	-0.08
785.925	-0.15
786.099	-0
786.273	-0.19
786.448	0.09
786.622	0.06
786.796	-0.2
786.97	-0.32
787.145	0.37
787.319	-0.23
787.493	-0.2
787.667	-0.6
787.841	-0.08
788.015	0.01
788.19	-0.26
788.364	-0.1
788.538	0.04
788.712	0.21
788.886	-0.01
789.06	0.06
789.234	0.15
789.408	-0.4
789.582	-0.25
789.756	-0.23
789.93	-0.03
790.104	-0.17
790.278	-0.17
790.452	-0.42
790.626	0.06
790.8	-0.36
790.973	0.01
791.147	0.23
791.321	0.11
791.495	0.16
791.669	-0.06
791.843	-0.07
792.016	-0.04
792.19	0.41
792.364	-0.19
792.538	0.22
792.711	0.16
792.885	-0.22
793.059	-0.4
793.233	-0.89
793.406	0.21
793.58	-0.03
793.754	0.05
793.927	-0.2
794.101	0.26
794.274	0.13
794.448	0.24
794.622	-0.33
794.795	0.19
794.969	-0.31
795.142	0.41
795.316	-0.33
795.489	-0.28
795.663	0.16
795.836	-0.29
796.009	-0.33
796.183	0.35
796.356	0.17
796.53	-0.12
796.703	-0.14
796.876	0.46
797.05	-0.05
797.223	-0.03
797.396	0.08
797.57	-0.13
797.743	0.37
797.916	-0.05
798.09	-0.01
798.263	0.25
798.436	0.03
798.609	-0.29
798.782	-0.33
798.956	0.05
799.129	-0.15
799.302	-0.08
799.475	-0.08
799.648	-0.03
799.821	-0.1
799.994	0.03
800.167	-0.51
800.34	-0.14
800.514	0.06
800.687	-0.35
800.86	-0.27
801.033	-0.05
801.206	-0.14
801.379	-0.49
801.551	0.12
801.724	0.03
801.897	0.35
802.07	-0.11
802.243	-0.68
802.416	-0.02
802.589	-0.4
802.762	-0
802.935	-0.2
803.107	0.04
803.28	0.32
803.453	-0.24
803.626	-0.53
803.798	-0.17
803.971	-0.59
804.144	-0.03
804.317	0.06
804.489	0.11
804.662	-0.02
804.835	0.06
805.007	-0.3
805.18	0.68
805.353	0.07
805.525	-0.34
805.698	-0.21
805.87	0.13
806.043	0.37
806.215	-0.46
806.388	-0.26
806.56	0.02
806.733	0.15
806.905	-0.06
807.078	-0.24
807.25	-0.27
807.423	0.06
807.595	-0.13
807.768	0.08
807.94	0.33
808.112	-0.27
808.285	0.01
808.457	-0.47
808.629	-0.14
808.802	0.09
808.974	-0.23
809.146	-0.46
809.318	-0.3
809.491	-0.13
809.663	-0.07
809.835	-0.16
810.007	0.02
810.18	-0.14
810.352	-0.78
810.524	-0.41
810.696	0.05
810.868	-0.26
811.04	-0.54
811.212	-0.29
811.384	-0.02
811.556	-0.19
811.728	-0.58
811.901	0.59
812.073	-0.11
812.245	0.56
812.417	-0.32
812.589	-0.57
812.76	-0.09
812.932	0.33
813.104	0.11
813.276	-0.13
813.448	0.4
813.62	0.17
813.792	-0.3
813.964	0.35
814.136	-0.38
814.307	-0.28
814.479	-0.74
814.651	-0.54
814.823	0.49
814.995	-0.1
815.166	0.04
815.338	-0.45
815.51	-0.36
815.681	0.73
815.853	-0.3
816.025	-0.16
816.196	0.41
816.368	-0.08
816.54	-0.86
816.711	-0.67
816.883	0.2
817.054	0.93
817.226	-0.77
817.398	-0.04
817.569	-0.49
817.741	0.07
817.912	-0.52
818.084	-0.19
818.255	0.43
818.426	-0.22
818.598	-0.31
818.769	-0.54
818.941	0.66
819.112	0.47
819.283	0.35
819.455	-0.44
819.626	-0.11
819.798	0.33
819.969	-0.3
820.14	-0.06
820.311	-0.33
820.483	-0.15
820.654	0.44
820.825	-0.28
820.996	-0.14
821.168	-0.59
821.339	-0.09
821.51	-0.7
821.681	-0.3
821.852	0.11
822.023	-0.7
822.195	-0.38
822.366	0.09
822.537	-0.24
822.708	-0.54
822.879	-0.8
823.05	0.56
823.221	-0.11
823.392	0.19
823.563	-0.03
823.734	-0.06
823.905	-0.45
824.076	-0.3
824.247	-0.48
824.418	-0.28
824.589	0.51
824.759	-0.16
824.93	-0.24
825.101	-0.79
825.272	0.29
825.443	0.06
825.614	-0.16
825.784	-0.99
825.955	0.94
826.126	0.36
826.297	0.09
826.467	0.7
826.638	0.84
826.809	-1
826.98	-0.49
827.15	0.27
827.321	0.37
827.492	0.49
827.662	-0.1
827.833	1
828.003	0.36
828.174	-0.75
828.345	-1.02
828.515	0.25
828.686	-0.13
828.856	-0.82
829.027	-0.22
829.197	-0.35
829.368	-0.14
829.538	-0.42
829.709	-0.43
829.879	-0.2
830.049	-0.24
830.22	-0.44
830.39	-0.21
830.56	0.44
830.731	-0.64
830.901	-0.73
831.072	-0.37
831.242	0.41
831.412	-0.06
831.582	-0.93
831.753	-0.58
831.923	0.24
832.093	-0.46
832.263	-0.6
832.434	-0.83
832.604	-0.6
832.774	0.06
832.944	-0.55
833.114	-0.93
833.284	0.02
833.454	-0.37
833.624	-0.29
833.795	-0.7
833.965	0.64
834.135	0.5
834.305	-1.15
834.475	-1.05
834.645	-0.4
834.815	-0.17
834.985	-0.42
835.155	-1.05
835.325	-0.27
835.494	-0.18
835.664	-0.62
835.834	-1.16
836.004	0.21
836.174	-0.06
836.344	-0.41
836.514	-0.96
836.684	-0.36
836.853	-0.58
837.023	0.43
837.193	-1.17
837.363	0.72
837.532	0.09
837.702	-0
837.872	-1.3
838.041	0.38
838.211	1.2
838.381	-1.05
838.55	-0.21
838.72	1.81
838.89	1.01
839.059	-0.37
839.229	-0.33
839.398	0.82
839.568	-1.1
839.738	-0.09
839.907	0.51
840.077	0.14
840.246	-0.39
840.416	-1.09
840.585	-0.49
840.755	1.03
840.924	0.43
841.093	-0.7
841.263	-0.77
841.432	-0.15
841.602	-1.16
841.771	0.11
841.94	-0.21
842.11	1.99
842.279	0.89
842.448	-0.86
842.617	-0.73
842.787	1.35
842.956	-0.95
843.125	-0.8
843.294	-0.24
843.464	0.91
843.633	-0.18
843.802	-0.93
843.971	-0.19
844.14	0.5
844.309	0.33
844.479	-1.02
844.648	-1.34
844.817	-0.08
844.986	-0.25
845.155	-1.14
845.324	-0.78
845.493	-0.36
845.662	-1.08
845.831	0.04
846	-0.28
846.169	-0.32
846.338	-0.14
846.507	0.02
846.676	-0.24
846.844	0.18
847.013	0.22
847.182	0.17
847.351	-0.89
847.52	-0.13
847.689	-0.33
847.858	-0.95
848.026	-1.53
848.195	-0.56
848.364	-0.43
848.533	-0.55
848.701	-1.03
848.87	-0.48
849.039	1.52
849.207	-0.01
849.376	1.16
849.545	1.09
849.713	-1.11
849.882	-1.77
850.051	-0.45
850.219	-0.24
850.388	1.28
850.556	-0.96
850.725	-1.04
850.893	0.33
851.062	-1.03
851.23	0.85
851.399	-2.06
851.567	-1.24
851.736	-0.75
851.904	-1.37
852.073	-1.19
852.241	-0.31
852.41	0.23
852.578	-0.62
852.746	-0.13
852.915	0.04
853.083	0.04
853.251	-1.05
853.42	-0.63
853.588	-0.09
853.756	0.8
853.924	-0.65
854.093	-0.79
854.261	0.56
854.429	-1.52
854.597	-0.49
854.765	-1.09
854.934	0.29
855.102	1.48
855.27	-1.05
855.438	0.47
855.606	0.7
855.774	0.16
855.942	-1.91
856.11	-1.83
856.278	-0.86
856.446	0.01
856.614	-0.03
856.782	-1.76
856.95	1.2
857.118	-0.16
857.286	-0.58
857.454	-1.41
857.622	-0.64
857.79	0.92
857.958	-1.96
858.126	-0.14
858.294	-1.89
858.462	-0.13
858.629	-0.5
858.797	-1.82
858.965	-0.25
859.133	-0.64
859.301	-1.03
859.468	0.2
859.636	-0.33
859.804	1.54
859.971	0.72
860.139	-1.05
860.307	1.68
860.474	-0.62
860.642	-1.61
860.81	-1.57
860.977	-0.38
861.145	0.23
861.313	-1.28
861.48	-0
861.648	0.18
861.815	-0.04
861.983	-1.6
862.15	-1.42
862.318	-0.36
862.485	1.14
862.653	-0.83
862.82	-1.09
862.988	1.62
863.155	0.14
863.322	-1.89
863.49	-1.28
863.657	-0.39
863.824	2.72
863.992	-0.49
864.159	-0.96
864.326	2.13
864.494	-1.11
864.661	2.86
864.828	-0.94
864.996	-0.16
865.163	0.97
865.33	0.29
865.497	-3.11
865.664	-1.43
865.832	-2.65
865.999	-1.06
866.166	-1.82
866.333	-0.77
866.5	-1.22
866.667	-0.68
866.834	-1.07
867.001	1.53
867.168	-2.7
867.335	-0.45
867.502	-1.71
867.669	-0.21
867.836	1.6
868.003	-0.73
868.17	1.63
868.337	-0.35
868.504	3
868.671	-2.55
868.838	-2.46
869.005	0.01
869.172	0.54
869.339	-0.05
869.505	-0.68
869.672	-0.67
869.839	1.8
870.006	0.48
870.173	-2.62
870.339	-0.78
870.506	2.63
870.673	-1.44
870.84	1.53
871.006	-0.86
871.173	-1.61
871.34	-0.71
871.506	-1.31
871.673	0.69
871.839	-3.48
872.006	0.68
872.173	-0.96
872.339	0.34
872.506	0.28
872.672	0.13
872.839	-2.8
873.005	-0.89
873.172	1.81
873.338	-0.04
873.505	-0.66
873.671	0.01
873.838	-0.06
874.004	-3.12
874.171	-1.49
874.337	1.16
874.503	1.76
874.67	-0.32
874.836	-1.33
875.002	1.41
875.169	0.76
875.335	-1.91
875.501	-2.18
875.668	1.23
875.834	0.31
876	-0.38
876.166	-0.11
876.332	-0.17
876.499	1.22
876.665	-0.89
876.831	-0.7
876.997	4.55
877.163	0.56
877.329	0.05
877.495	-0.85
877.662	-0.46
877.828	-0.02
877.994	-1
878.16	-4.02
878.326	-0.67
878.492	0.4
878.658	-0.93
878.824	0.35
878.99	0.31
879.156	-3.15
879.322	1.88
879.487	-1.46
879.653	-2.14
879.819	0.65
879.985	-2.87
880.151	1.34
880.317	1.08
880.483	0.89
880.648	0.26
880.814	-4.35
880.98	0.29
881.146	-3.65
881.312	-1
881.477	-1.15
881.643	1.25
881.809	0.95
881.974	2.06
882.14	-4.68
882.306	-0.38
882.471	1.92
882.637	-1.7
882.803	0.63
882.968	2.11
883.134	4
883.299	-1.17
883.465	-1.48
883.63	1.8
883.796	0.05
883.961	0.48
884.127	1.13
884.292	-3.51
884.458	-3.48
884.623	-3.47
