Data from Apollo_Calib_20240827__AbsoluteIrradiance__701__10-50-03-163.txt Node

Date: Wed Aug 28 10:50:03 BST 2024
User: biology
Spectrometer: FLMT08252
Trigger mode: 0
Integration Time (sec): 5.000000E-1
Scans to average: 5
Electric dark correction enabled: true
Nonlinearity correction enabled: false
Boxcar width: 0
XAxis mode: Wavelengths
Number of Pixels in Spectrum: 3648
>>>>>Begin Spectral Data<<<<<
179.588	-0
179.809	-0
180.03	-0
180.251	-0
180.473	-0
180.694	0
180.915	0
181.136	-0
181.357	-0
181.578	-0
181.799	-0
182.02	-0
182.241	0
182.462	-0
182.683	0
182.904	-0
183.125	-0
183.346	0
183.567	-0
183.788	-0
184.009	-0
184.23	-0
184.451	0
184.672	-0
184.892	-0
185.113	-0
185.334	-0
185.555	-0
185.776	-0
185.996	0
186.217	-0
186.438	-0
186.659	-0
186.879	0
187.1	-0
187.321	-0
187.541	-0
187.762	-0
187.983	-0
188.203	-0
188.424	-0
188.644	-0
188.865	0
189.086	-0
189.306	-0
189.527	-0
189.747	0
189.968	-0
190.188	-0
190.409	0
190.629	0
190.849	-0
191.07	-0
191.29	-0
191.511	-0
191.731	-0
191.951	-0
192.172	-0
192.392	-0
192.612	-0
192.833	-0
193.053	0
193.273	0
193.493	-0
193.714	-0
193.934	0
194.154	0
194.374	0
194.594	-0
194.815	-0
195.035	-0
195.255	-0
195.475	-0
195.695	0
195.915	0
196.135	-0
196.355	0
196.575	0
196.795	-0
197.015	-0
197.235	-0
197.455	-0
197.675	-0
197.895	-0
198.115	-0
198.335	0
198.555	-0
198.775	-0
198.995	-0
199.214	0
199.434	-0
199.654	-0
199.874	-0
200.094	-0.15
200.313	-0.8
200.533	-0.84
200.753	-1.19
200.973	0.64
201.192	0.51
201.412	-1.19
201.632	-0.55
201.851	0.55
202.071	-0.77
202.291	-0.46
202.51	-0.82
202.73	0.16
202.95	-0.86
203.169	-0.69
203.389	-0.25
203.608	-0.45
203.828	-0.57
204.047	-0.66
204.267	-0.17
204.486	-0.06
204.706	0.07
204.925	-0.23
205.145	-0.58
205.364	0.4
205.583	0.48
205.803	-0.57
206.022	-1.05
206.242	-0.11
206.461	-0.17
206.68	-0.72
206.9	-0.02
207.119	0.07
207.338	0.05
207.557	-0.36
207.777	-0.67
207.996	-0.34
208.215	0.2
208.434	-0.42
208.654	-0.63
208.873	-0.08
209.092	0.32
209.311	-0.34
209.53	-0.39
209.749	-0.49
209.968	-0.41
210.187	-0.14
210.407	-0.55
210.626	-0.08
210.845	0.15
211.064	-0.12
211.283	-0.31
211.502	0.09
211.721	-0.34
211.94	-0.19
212.159	-0.15
212.377	0.1
212.596	0.06
212.815	-0.19
213.034	-0.12
213.253	0.08
213.472	0.05
213.691	-0.18
213.91	-0.28
214.128	-0.49
214.347	0.27
214.566	-0.5
214.785	-0.49
215.003	0.08
215.222	-0.13
215.441	-0.22
215.66	-0.46
215.878	-0.09
216.097	0.19
216.316	-0.24
216.534	-0.2
216.753	0.06
216.972	-0.23
217.19	-0.03
217.409	-0.49
217.627	-0.34
217.846	-0.29
218.064	-0.05
218.283	-0.24
218.501	0.33
218.72	-0.05
218.938	-0.27
219.157	-0.19
219.375	0.04
219.594	0.12
219.812	-0.33
220.031	-0.32
220.249	0.1
220.467	0.16
220.686	-0.21
220.904	-0.24
221.122	-0.23
221.341	0.3
221.559	-0.12
221.777	-0.32
221.995	0.02
222.214	-0.09
222.432	-0.18
222.65	-0
222.868	-0.11
223.086	-0.02
223.305	-0.16
223.523	-0.19
223.741	0.14
223.959	-0.11
224.177	-0.29
224.395	-0.29
224.613	-0.08
224.831	0.09
225.049	-0.24
225.267	-0.2
225.485	-0.17
225.703	-0.02
225.921	-0.09
226.139	-0.08
226.357	-0.06
226.575	-0.04
226.793	-0.26
227.011	0.4
227.229	0.03
227.447	-0.11
227.665	-0.1
227.883	-0.24
228.1	-0.08
228.318	-0.07
228.536	-0.25
228.754	-0.27
228.972	0.04
229.189	0.08
229.407	-0.23
229.625	-0.08
229.843	-0.05
230.06	0.05
230.278	-0.26
230.496	-0.11
230.713	-0.16
230.931	0.06
231.149	-0.28
231.366	-0.23
231.584	-0.12
231.801	0.16
232.019	-0.16
232.236	-0.15
232.454	-0.09
232.671	-0.04
232.889	-0.1
233.106	-0.16
233.324	-0.01
233.541	-0.11
233.759	-0
233.976	-0.12
234.194	-0.02
234.411	-0.04
234.628	-0.18
234.846	-0.15
235.063	-0.1
235.28	-0.09
235.498	-0.15
235.715	-0.19
235.932	0.08
236.149	-0.17
236.367	-0.25
236.584	-0.09
236.801	-0.11
237.018	-0.05
237.236	-0
237.453	-0.26
237.67	0.14
237.887	-0.13
238.104	-0.11
238.321	-0.2
238.538	-0.18
238.755	-0.04
238.973	-0.21
239.19	-0.01
239.407	-0.02
239.624	-0.02
239.841	-0.24
240.058	-0.21
240.275	-0.04
240.492	-0.13
240.709	-0.08
240.925	-0.14
241.142	-0.1
241.359	-0.16
241.576	-0.22
241.793	-0.14
242.01	-0.02
242.227	-0.02
242.444	0.06
242.66	0.06
242.877	-0.12
243.094	-0.11
243.311	-0.07
243.527	0.01
243.744	0.05
243.961	0.12
244.178	-0.11
244.394	-0.04
244.611	0.07
244.828	0.01
245.044	-0.2
245.261	-0.08
245.477	0.02
245.694	0.05
245.911	-0.08
246.127	-0.05
246.344	0.06
246.56	-0.01
246.777	-0.12
246.993	-0.05
247.21	-0.09
247.426	-0.08
247.643	-0.1
247.859	-0.12
248.076	-0.15
248.292	0.17
248.508	-0.1
248.725	-0.01
248.941	-0.02
249.157	0.09
249.374	-0.15
249.59	-0.08
249.806	-0.07
250.023	0.01
250.239	-0.14
250.455	-0.06
250.671	-0.03
250.888	-0
251.104	0.05
251.32	-0.11
251.536	-0.06
251.752	-0.09
251.969	-0.07
252.185	-0.12
252.401	0.18
252.617	0.01
252.833	-0.09
253.049	0
253.265	-0.06
253.481	0.05
253.697	-0.12
253.913	-0.09
254.129	0.01
254.345	-0.06
254.561	-0.06
254.777	-0.04
254.993	-0.01
255.209	-0.03
255.425	-0.14
255.641	-0.1
255.857	0.02
256.073	0
256.288	-0.18
256.504	-0.05
256.72	-0.01
256.936	0.01
257.152	-0.09
257.367	-0.09
257.583	-0.06
257.799	-0.01
258.015	-0.11
258.23	-0.02
258.446	0.1
258.662	-0
258.877	-0.11
259.093	-0.12
259.309	0
259.524	-0.04
259.74	-0.08
259.955	-0.1
260.171	-0.07
260.387	-0.06
260.602	0.01
260.818	-0.12
261.033	-0.12
261.249	-0.09
261.464	-0.13
261.68	-0.18
261.895	-0.06
262.11	-0.02
262.326	-0.03
262.541	-0.11
262.757	0.01
262.972	-0.01
263.187	0.01
263.403	-0.03
263.618	0.12
263.833	-0.06
264.049	-0.04
264.264	-0.07
264.479	-0.04
264.694	0.07
264.91	-0.11
265.125	-0.04
265.34	0.01
265.555	0.1
265.77	-0.03
265.986	-0.07
266.201	-0.03
266.416	0.07
266.631	-0.12
266.846	-0.03
267.061	-0.02
267.276	-0.04
267.491	-0.15
267.706	0.01
267.921	0.04
268.136	0
268.351	-0.02
268.566	-0.08
268.781	0.1
268.996	0.01
269.211	0
269.426	-0.09
269.641	-0.07
269.856	0.03
270.071	-0.12
270.285	-0.1
270.5	0.01
270.715	0.03
270.93	0.01
271.145	-0.03
271.359	0.01
271.574	-0.07
271.789	-0.06
272.004	-0.07
272.218	-0.09
272.433	0.03
272.648	-0.1
272.862	0.07
273.077	-0.03
273.292	-0.07
273.506	-0.06
273.721	-0.05
273.936	-0.03
274.15	-0.01
274.365	-0.08
274.579	-0.05
274.794	0.04
275.008	0.05
275.223	-0.11
275.437	-0.07
275.652	0.04
275.866	0.06
276.081	-0.05
276.295	0.01
276.509	-0.06
276.724	-0.06
276.938	0.01
277.153	0.01
277.367	0
277.581	-0.1
277.796	-0.08
278.01	-0.1
278.224	0.07
278.438	0.12
278.653	-0.11
278.867	-0.14
279.081	0.02
279.295	-0.05
279.51	-0.05
279.724	-0.17
279.938	0.03
280.152	-0.08
280.366	-0.04
280.58	0.01
280.794	0.06
281.008	0.01
281.222	0.04
281.437	0.08
281.651	-0.03
281.865	0.05
282.079	-0.07
282.293	-0.14
282.507	-0.07
282.721	-0.03
282.935	-0.01
283.148	-0.16
283.362	-0.09
283.576	-0.06
283.79	-0
284.004	-0.06
284.218	-0.01
284.432	-0.05
284.646	-0.05
284.859	-0.07
285.073	-0.04
285.287	-0.02
285.501	-0.01
285.714	-0.09
285.928	-0
286.142	-0.04
286.356	-0.03
286.569	-0.06
286.783	0.03
286.997	0.02
287.21	-0.03
287.424	-0.01
287.637	-0.01
287.851	-0.03
288.065	-0.02
288.278	-0.02
288.492	-0.01
288.705	-0.07
288.919	0
289.132	-0.13
289.346	0.03
289.559	-0.12
289.773	-0.08
289.986	-0.03
290.2	-0.01
290.413	0.04
290.626	-0.08
290.84	-0.04
291.053	0
291.267	0.03
291.48	-0.01
291.693	-0.01
291.906	-0.06
292.12	0.02
292.333	-0.08
292.546	-0.03
292.76	0.06
292.973	-0.02
293.186	-0.03
293.399	-0.08
293.612	0
293.826	-0.03
294.039	-0.01
294.252	-0.02
294.465	0.05
294.678	-0.01
294.891	-0
295.104	-0.06
295.317	-0.06
295.53	-0.02
295.743	-0.03
295.956	-0.06
296.169	0
296.382	0.03
296.595	-0.04
296.808	-0.07
297.021	-0.01
297.234	0.03
297.447	-0.03
297.66	0.01
297.873	-0.02
298.086	-0.01
298.299	-0.06
298.511	-0.05
298.724	-0.06
298.937	-0.04
299.15	-0.04
299.363	-0.02
299.575	0.02
299.788	0.04
300.001	-0.03
300.213	-0.08
300.426	-0.04
300.639	-0.03
300.852	-0.08
301.064	0.06
301.277	0.02
301.489	0.03
301.702	0.02
301.915	-0.02
302.127	-0.02
302.34	-0.02
302.552	-0.02
302.765	-0.03
302.977	-0.03
303.19	-0.04
303.402	-0.01
303.615	-0.09
303.827	-0.05
304.04	-0.04
304.252	0.01
304.464	-0.05
304.677	0.09
304.889	0.06
305.102	-0.05
305.314	-0.04
305.526	0.04
305.739	0.03
305.951	-0.07
306.163	-0.05
306.375	0.06
306.588	-0.06
306.8	-0.05
307.012	-0.01
307.224	0.03
307.436	0.03
307.649	-0.09
307.861	-0.02
308.073	0.03
308.285	-0.04
308.497	-0.05
308.709	-0.07
308.921	-0.04
309.133	0.06
309.346	-0.02
309.558	0.01
309.77	0.02
309.982	0.01
310.194	0.04
310.406	-0.06
310.617	0.04
310.829	-0.04
311.041	-0.01
311.253	-0.03
311.465	-0.04
311.677	-0.02
311.889	0
312.101	-0.07
312.313	0.03
312.524	0.01
312.736	-0.08
312.948	-0.01
313.16	0.08
313.372	0.01
313.583	0
313.795	-0.03
314.007	-0.06
314.218	0.03
314.43	-0.03
314.642	-0.06
314.853	-0.1
315.065	0
315.277	-0.04
315.488	0.04
315.7	-0.02
315.912	0
316.123	0
316.335	-0.02
316.546	0.07
316.758	0.02
316.969	-0.11
317.181	-0.04
317.392	-0.05
317.604	0.03
317.815	-0.03
318.026	-0.06
318.238	-0.03
318.449	-0.03
318.661	-0.08
318.872	-0.08
319.083	-0.07
319.295	-0.05
319.506	-0.04
319.717	-0.02
319.929	0.02
320.14	-0.02
320.351	-0.02
320.562	-0.06
320.774	-0.02
320.985	0.01
321.196	-0.07
321.407	-0.12
321.618	0.02
321.829	-0
322.041	0.03
322.252	0.02
322.463	0.03
322.674	-0
322.885	-0.05
323.096	-0.04
323.307	-0
323.518	-0.02
323.729	-0.07
323.94	-0.05
324.151	-0.04
324.362	-0.06
324.573	-0.04
324.784	-0.05
324.995	0.02
325.206	-0.02
325.417	-0.05
325.628	-0.02
325.838	-0.01
326.049	-0.02
326.26	-0
326.471	-0.02
326.682	0.02
326.892	-0.03
327.103	-0.09
327.314	-0.1
327.525	0.04
327.735	-0.02
327.946	-0.01
328.157	-0.06
328.368	-0.05
328.578	-0.02
328.789	0.04
328.999	-0.02
329.21	-0.02
329.421	0.01
329.631	-0.06
329.842	-0.04
330.052	-0
330.263	0
330.473	0.04
330.684	-0.02
330.894	-0.03
331.105	0
331.315	-0.03
331.526	-0.06
331.736	0.08
331.947	0.03
332.157	-0.04
332.367	-0.03
332.578	0.01
332.788	0.03
332.999	-0
333.209	-0.01
333.419	-0.07
333.629	-0
333.84	0.02
334.05	-0.03
334.26	0.02
334.47	-0.02
334.681	0.02
334.891	-0.08
335.101	0.03
335.311	0.1
335.521	0
335.732	-0.05
335.942	0.03
336.152	-0.01
336.362	-0
336.572	-0.03
336.782	0.01
336.992	-0.01
337.202	-0.01
337.412	-0.05
337.622	0.01
337.832	0
338.042	-0.03
338.252	-0.04
338.462	-0.06
338.672	-0.02
338.882	-0.07
339.092	-0.01
339.302	0.07
339.511	0.01
339.721	-0.07
339.931	-0.05
340.141	0.02
340.351	0.01
340.561	0.01
340.77	-0.01
340.98	-0.05
341.19	-0.03
341.4	-0.08
341.609	-0.05
341.819	-0.04
342.029	-0.04
342.238	-0.01
342.448	-0.07
342.658	-0.01
342.867	-0
343.077	-0.02
343.286	-0.02
343.496	-0.03
343.706	0.03
343.915	-0.07
344.125	-0.09
344.334	0.02
344.544	-0.07
344.753	-0.03
344.963	-0.04
345.172	-0.01
345.381	-0.04
345.591	-0.07
345.8	-0.06
346.01	0.04
346.219	-0.02
346.428	-0.2
346.638	-0.05
346.847	-0.04
347.056	0.03
347.266	-0.04
347.475	-0.02
347.684	-0.03
347.893	0.02
348.103	-0.02
348.312	-0.06
348.521	-0.03
348.73	-0.05
348.94	0.01
349.149	-0.05
349.358	-0.06
349.567	-0.02
349.776	-0.07
349.985	-0.03
350.194	0.01
350.403	-0
350.612	-0.07
350.821	-0.01
351.03	-0.06
351.239	-0.07
351.448	-0.04
351.657	-0.07
351.866	0.04
352.075	-0.01
352.284	-0
352.493	-0.01
352.702	0.01
352.911	0.02
353.12	-0.03
353.329	-0.03
353.538	-0.02
353.746	-0.03
353.955	-0.05
354.164	0
354.373	-0.04
354.582	0.04
354.79	0.01
354.999	0.04
355.208	-0.04
355.416	0.05
355.625	-0.03
355.834	-0.05
356.042	0
356.251	-0.02
356.46	-0.05
356.668	-0.02
356.877	0.04
357.085	0.01
357.294	-0.11
357.503	0.02
357.711	-0
357.92	0.08
358.128	0
358.337	-0.04
358.545	-0.03
358.754	-0.07
358.962	0
359.17	-0.01
359.379	-0
359.587	0.01
359.796	-0.03
360.004	0.04
360.212	0.01
360.421	0.04
360.629	0.03
360.837	-0.04
361.046	0.02
361.254	0.07
361.462	-0.04
361.67	-0.03
361.879	0
362.087	0.06
362.295	-0
362.503	-0.03
362.711	-0.06
362.92	-0.07
363.128	-0.04
363.336	-0.03
363.544	-0.09
363.752	-0.04
363.96	-0.06
364.168	-0.05
364.376	-0.03
364.584	-0.02
364.792	-0.02
365	-0.02
365.208	-0.01
365.416	-0.01
365.624	0.02
365.832	-0.04
366.04	0.05
366.248	0
366.456	-0
366.664	-0.01
366.872	-0.01
367.079	0.01
367.287	0
367.495	-0
367.703	-0.03
367.911	-0.03
368.118	-0.01
368.326	-0.03
368.534	-0.06
368.742	0.02
368.949	-0.05
369.157	-0.02
369.365	0.04
369.572	-0.03
369.78	-0.05
369.988	-0
370.195	-0.02
370.403	0.01
370.61	-0.05
370.818	0.01
371.026	0.05
371.233	-0.04
371.441	0.01
371.648	-0.03
371.856	-0.01
372.063	-0.02
372.271	-0.03
372.478	-0.03
372.685	-0.05
372.893	0.02
373.1	-0.02
373.308	-0.02
373.515	0
373.722	0
373.93	-0.06
374.137	-0.02
374.344	0.06
374.552	0.03
374.759	0.01
374.966	-0.03
375.173	-0.05
375.381	0.03
375.588	-0
375.795	-0.07
376.002	-0.04
376.209	-0.05
376.417	-0.06
376.624	-0.01
376.831	-0.01
377.038	-0.01
377.245	-0.08
377.452	-0.03
377.659	0.03
377.866	-0.07
378.073	-0.03
378.28	-0.05
378.487	0.05
378.694	-0.02
378.901	-0.06
379.108	-0.04
379.315	0.02
379.522	0.08
379.729	-0.03
379.936	0
380.143	-0.01
380.35	0.03
380.557	-0.02
380.763	0
380.97	-0.02
381.177	-0.02
381.384	-0.02
381.591	-0.07
381.797	-0.01
382.004	-0.02
382.211	-0
382.418	-0.08
382.624	0
382.831	-0.01
383.038	-0.06
383.244	-0.05
383.451	-0.04
383.658	0
383.864	0
384.071	-0.07
384.277	0.05
384.484	-0.05
384.69	-0.03
384.897	-0.05
385.103	-0.04
385.31	-0.05
385.516	-0.09
385.723	-0.02
385.929	-0.04
386.136	0
386.342	0.01
386.549	-0.04
386.755	0.02
386.961	-0
387.168	-0.05
387.374	-0.02
387.58	0.02
387.787	-0.03
387.993	-0.01
388.199	-0.04
388.406	-0.03
388.612	-0.01
388.818	-0.03
389.024	-0.05
389.231	-0.02
389.437	-0
389.643	0.01
389.849	-0.03
390.055	-0.02
390.261	0.02
390.467	0
390.674	-0.05
390.88	-0.05
391.086	0
391.292	-0.05
391.498	0.02
391.704	-0.05
391.91	-0.03
392.116	-0.04
392.322	-0.09
392.528	-0.01
392.734	-0.04
392.94	0.01
393.146	-0.08
393.352	0.01
393.557	-0.02
393.763	-0.02
393.969	-0.01
394.175	-0.01
394.381	0.02
394.587	-0.05
394.792	-0.04
394.998	-0.02
395.204	0.05
395.41	-0.04
395.615	-0
395.821	-0.04
396.027	-0.03
396.233	-0.05
396.438	-0
396.644	0.06
396.85	-0.03
397.055	-0.03
397.261	-0.06
397.466	0.04
397.672	-0.03
397.878	0.03
398.083	-0
398.289	-0.03
398.494	0.02
398.7	-0.01
398.905	-0.1
399.111	0.05
399.316	-0.07
399.522	-0.06
399.727	0.02
399.932	-0.02
400.138	0.01
400.343	-0
400.549	-0.02
400.754	-0.03
400.959	-0.01
401.165	-0
401.37	0.01
401.575	0.1
401.78	-0.05
401.986	-0.08
402.191	-0.06
402.396	-0.02
402.601	0.03
402.807	-0.01
403.012	-0.06
403.217	-0.05
403.422	-0.04
403.627	-0.05
403.832	-0.08
404.037	-0.01
404.243	-0.02
404.448	-0.03
404.653	-0.04
404.858	-0.02
405.063	0.07
405.268	-0.06
405.473	-0.09
405.678	-0.07
405.883	0.07
406.088	-0
406.293	-0.06
406.498	-0.07
406.703	0.01
406.907	-0.03
407.112	-0.08
407.317	0.01
407.522	-0.02
407.727	-0.11
407.932	-0.03
408.136	0.01
408.341	-0.03
408.546	0.01
408.751	-0.02
408.956	-0.05
409.16	-0.01
409.365	-0
409.57	-0.03
409.774	-0.05
409.979	0.01
410.184	0.02
410.388	-0.04
410.593	-0
410.798	0.02
411.002	-0.06
411.207	0.01
411.411	-0.01
411.616	-0.11
411.82	-0.09
412.025	-0.03
412.229	-0.04
412.434	0.03
412.638	-0.05
412.843	-0.04
413.047	-0.04
413.252	-0.1
413.456	-0.04
413.66	0.01
413.865	-0.05
414.069	0.06
414.273	-0.05
414.478	-0.05
414.682	-0.07
414.886	-0.07
415.091	-0.08
415.295	-0.11
415.499	-0.01
415.703	-0.05
415.908	-0.03
416.112	-0.08
416.316	0.02
416.52	-0.03
416.724	-0.07
416.929	-0.08
417.133	0.05
417.337	-0.04
417.541	-0.06
417.745	-0.05
417.949	-0
418.153	0.04
418.357	-0.09
418.561	0.01
418.765	-0
418.969	0.11
419.173	-0.01
419.377	-0.08
419.581	0.06
419.785	-0.04
419.989	-0.11
420.193	-0.03
420.397	-0.03
420.601	0.02
420.804	-0
421.008	-0.03
421.212	-0.01
421.416	0.01
421.62	-0.07
421.823	-0
422.027	0.1
422.231	-0
422.435	-0.02
422.638	-0.03
422.842	-0.03
423.046	-0.05
423.249	0.03
423.453	0
423.657	0.01
423.86	0
424.064	-0.06
424.268	0.05
424.471	-0.06
424.675	0.02
424.878	0.04
425.082	-0.01
425.285	0.03
425.489	-0.04
425.692	-0.02
425.896	-0.09
426.099	-0.01
426.303	-0.04
426.506	-0.1
426.71	-0.02
426.913	0.02
427.116	0.01
427.32	-0.02
427.523	0.03
427.726	0.03
427.93	-0.06
428.133	-0.01
428.336	-0.14
428.54	-0.08
428.743	0
428.946	-0.02
429.149	-0.07
429.353	-0.03
429.556	-0.01
429.759	-0
429.962	-0.1
430.165	-0.04
430.368	-0.07
430.571	-0.04
430.775	-0.02
430.978	-0.03
431.181	0.03
431.384	-0
431.587	-0.05
431.79	-0.01
431.993	-0.03
432.196	-0.01
432.399	-0.05
432.602	0.06
432.805	-0.05
433.008	-0.02
433.211	-0.11
433.414	-0
433.616	0.03
433.819	-0.03
434.022	-0.1
434.225	0.01
434.428	0.01
434.631	0.05
434.833	-0.02
435.036	-0.02
435.239	0.06
435.442	0.03
435.645	-0.06
435.847	-0.03
436.05	0.04
436.253	-0.02
436.455	-0.04
436.658	-0.04
436.861	0.06
437.063	-0.07
437.266	-0.03
437.468	-0.03
437.671	0.11
437.874	-0.07
438.076	-0.06
438.279	-0.09
438.481	-0
438.684	-0.06
438.886	0.01
439.089	-0.13
439.291	-0.03
439.494	-0
439.696	-0.04
439.899	-0.06
440.101	0.02
440.303	-0.09
440.506	-0
440.708	-0.08
440.91	0.01
441.113	-0.04
441.315	0.03
441.517	-0.09
441.72	-0.01
441.922	-0.05
442.124	-0.08
442.326	0.03
442.529	0.07
442.731	-0.08
442.933	0.09
443.135	-0.03
443.337	-0.02
443.539	-0.07
443.742	-0.01
443.944	-0
444.146	-0.07
444.348	-0.04
444.55	-0.04
444.752	-0.03
444.954	-0.07
445.156	0.03
445.358	-0.01
445.56	0.04
445.762	0
445.964	-0.03
446.166	-0.04
446.368	-0.04
446.57	-0
446.772	-0.02
446.974	-0.04
447.175	0.02
447.377	-0.02
447.579	-0.05
447.781	-0.09
447.983	0.03
448.184	-0.01
448.386	-0
448.588	-0.09
448.79	0
448.991	-0.02
449.193	-0.04
449.395	-0.07
449.597	-0.01
449.798	0
450	0
450.202	-0.04
450.403	-0.06
450.605	-0
450.806	-0.01
451.008	-0.07
451.21	-0.03
451.411	0.04
451.613	0.01
451.814	-0.04
452.016	-0.03
452.217	0.01
452.419	0.02
452.62	-0.01
452.821	-0.03
453.023	0.03
453.224	0.02
453.426	0.01
453.627	-0
453.828	0.01
454.03	-0.03
454.231	-0.05
454.432	-0.05
454.634	0.01
454.835	-0.05
455.036	-0.07
455.238	0.01
455.439	0.06
455.64	-0.07
455.841	-0.05
456.042	0.08
456.244	0.01
456.445	-0.07
456.646	-0.07
456.847	-0.04
457.048	0.01
457.249	0.02
457.45	0.12
457.651	-0.06
457.852	0.06
458.054	-0.03
458.255	-0
458.456	0.03
458.657	-0.02
458.858	-0.08
459.058	-0.04
459.259	0.01
459.46	-0.03
459.661	-0.09
459.862	0.08
460.063	-0.03
460.264	0.09
460.465	-0.05
460.666	0.07
460.866	-0.01
461.067	-0.07
461.268	-0.01
461.469	-0.04
461.67	-0.04
461.87	-0.07
462.071	-0.03
462.272	-0.04
462.473	0.02
462.673	0.01
462.874	-0.09
463.075	-0.03
463.275	-0.08
463.476	-0.04
463.676	-0.02
463.877	-0.04
464.078	-0.02
464.278	-0.01
464.479	-0.04
464.679	-0.04
464.88	0
465.08	0.02
465.281	-0.07
465.481	-0.03
465.682	-0.06
465.882	0.03
466.083	-0.04
466.283	-0.02
466.483	0.01
466.684	-0.08
466.884	-0.03
467.085	-0.05
467.285	-0.05
467.485	-0.08
467.686	-0.04
467.886	-0.07
468.086	-0.03
468.286	-0
468.487	0
468.687	-0.06
468.887	-0.05
469.087	0.01
469.287	-0.04
469.488	-0.03
469.688	-0.01
469.888	0.02
470.088	0.03
470.288	0.01
470.488	0.03
470.688	-0.04
470.888	-0.07
471.088	-0.07
471.288	0.01
471.488	0
471.688	-0.03
471.888	-0.01
472.088	0.01
472.288	-0.01
472.488	-0.07
472.688	-0.05
472.888	-0.01
473.088	-0.03
473.288	0.02
473.488	0
473.688	0.05
473.887	-0.02
474.087	-0.03
474.287	-0.02
474.487	-0.03
474.687	-0.01
474.886	-0.01
475.086	-0.05
475.286	-0.02
475.486	-0.02
475.685	-0.02
475.885	-0.05
476.085	-0.03
476.284	0.02
476.484	-0
476.684	0.01
476.883	0.06
477.083	0
477.282	-0.05
477.482	0.03
477.681	0.07
477.881	-0.01
478.08	-0.04
478.28	-0.06
478.479	0.02
478.679	0.06
478.878	-0.03
479.078	-0.03
479.277	-0.04
479.477	-0.02
479.676	0.02
479.875	-0.03
480.075	-0.06
480.274	-0.01
480.473	0.02
480.673	-0.04
480.872	0.01
481.071	-0.02
481.271	-0
481.47	-0.07
481.669	0.02
481.868	-0.07
482.067	-0.05
482.267	-0.04
482.466	-0.06
482.665	-0.03
482.864	-0.07
483.063	-0.05
483.262	-0.02
483.461	0.03
483.661	-0
483.86	-0.01
484.059	-0
484.258	-0.03
484.457	-0.01
484.656	-0.02
484.855	-0
485.054	-0.07
485.253	-0.04
485.452	-0.07
485.651	-0.02
485.849	-0.03
486.048	-0.04
486.247	-0.03
486.446	-0.03
486.645	-0.08
486.844	-0.05
487.043	-0.02
487.241	-0
487.44	-0.03
487.639	-0.02
487.838	-0
488.037	-0.01
488.235	0.05
488.434	-0
488.633	-0.03
488.831	-0.01
489.03	0.03
489.229	0
489.427	-0.03
489.626	0.03
489.825	0.02
490.023	-0.01
490.222	-0.02
490.42	0
490.619	0.01
490.817	0.01
491.016	-0.01
491.214	0.04
491.413	-0.03
491.611	-0.03
491.81	-0.05
492.008	0
492.207	-0.01
492.405	-0.03
492.604	-0.09
492.802	-0.02
493	-0.01
493.199	-0.05
493.397	-0.02
493.595	-0.01
493.794	-0.03
493.992	0.03
494.19	-0.01
494.388	0.01
494.587	-0.03
494.785	-0.01
494.983	-0.04
495.181	-0.02
495.379	0
495.578	-0.03
495.776	-0.02
495.974	0.01
496.172	-0.02
496.37	-0.03
496.568	-0.06
496.766	-0.03
496.964	0.02
497.162	-0.03
497.36	-0.03
497.558	-0
497.756	0
497.954	-0.02
498.152	-0.04
498.35	0
498.548	-0.01
498.746	0
498.944	-0.05
499.142	-0.03
499.34	-0.05
499.538	-0.03
499.736	-0.02
499.933	0.03
500.131	0.02
500.329	-0.02
500.527	-0.01
500.725	0.03
500.922	0.02
501.12	0
501.318	-0.01
501.516	-0.03
501.713	-0
501.911	-0.02
502.109	-0.03
502.306	-0
502.504	-0.01
502.701	-0.01
502.899	-0.02
503.097	0.04
503.294	-0.01
503.492	-0.03
503.689	-0
503.887	0.02
504.084	0.03
504.282	-0.02
504.479	-0.03
504.677	0.01
504.874	-0.04
505.072	-0
505.269	-0.01
505.466	0.01
505.664	-0.02
505.861	-0.04
506.059	-0.04
506.256	0
506.453	-0.02
506.651	0.02
506.848	0.01
507.045	0
507.242	-0
507.44	-0.02
507.637	-0
507.834	-0.02
508.031	0
508.229	-0.04
508.426	-0.02
508.623	-0
508.82	-0.03
509.017	-0.03
509.214	-0.04
509.411	-0.03
509.608	-0.03
509.805	-0.02
510.003	-0.03
510.2	-0
510.397	0.02
510.594	-0.03
510.791	-0.02
510.988	-0
511.184	0.01
511.381	-0.02
511.578	-0.04
511.775	0.02
511.972	-0.02
512.169	0.01
512.366	-0.03
512.563	-0.01
512.76	-0.04
512.956	-0.02
513.153	-0.03
513.35	0.01
513.547	-0.01
513.744	-0.04
513.94	-0.05
514.137	0.01
514.334	-0.01
514.53	-0
514.727	-0.03
514.924	0.04
515.12	-0.02
515.317	-0.03
515.514	-0.01
515.71	-0.05
515.907	-0.01
516.103	-0.02
516.3	0.01
516.497	0
516.693	0.02
516.89	-0.02
517.086	-0.04
517.283	0.02
517.479	0
517.676	-0.01
517.872	-0.01
518.068	-0.02
518.265	-0.04
518.461	-0.02
518.658	-0.04
518.854	0
519.05	-0.02
519.247	-0.02
519.443	0.01
519.639	0
519.836	-0.02
520.032	-0
520.228	-0
520.424	0.03
520.621	-0.03
520.817	-0.01
521.013	-0.01
521.209	-0.01
521.405	0.03
521.601	-0
521.798	0.01
521.994	0.02
522.19	-0.02
522.386	-0.04
522.582	-0.01
522.778	-0
522.974	-0.02
523.17	-0.02
523.366	0.01
523.562	0.02
523.758	-0.01
523.954	-0.03
524.15	-0.03
524.346	-0
524.542	-0.03
524.738	-0.03
524.934	-0.02
525.129	-0.01
525.325	0.01
525.521	-0.02
525.717	0.01
525.913	0.01
526.109	-0.01
526.304	-0.01
526.5	0.02
526.696	0.03
526.892	0
527.087	-0.01
527.283	-0.02
527.479	-0.01
527.674	-0.02
527.87	-0.01
528.066	-0.02
528.261	0.02
528.457	0.01
528.653	-0.01
528.848	-0.01
529.044	0
529.239	0
529.435	0.03
529.63	-0.01
529.826	0.05
530.021	0.01
530.217	0.02
530.412	-0.03
530.608	-0.03
530.803	-0.01
530.999	-0
531.194	-0.04
531.389	0
531.585	-0.06
531.78	0
531.975	-0.01
532.171	0.02
532.366	-0.02
532.561	-0.01
532.757	-0.03
532.952	-0.03
533.147	-0.01
533.342	-0.01
533.538	-0.01
533.733	0.01
533.928	-0.01
534.123	-0.02
534.318	-0.02
534.513	-0
534.709	0
534.904	-0.03
535.099	-0
535.294	-0.02
535.489	0.01
535.684	-0.01
535.879	-0.05
536.074	0.01
536.269	-0.05
536.464	-0.01
536.659	-0.01
536.854	-0.01
537.049	-0.01
537.244	-0.01
537.439	-0.02
537.634	0.02
537.828	-0
538.023	-0.01
538.218	-0.02
538.413	-0.01
538.608	-0.04
538.803	0.01
538.997	-0.05
539.192	0.02
539.387	0.03
539.582	0
539.776	-0
539.971	-0.02
540.166	-0
540.36	-0.04
540.555	0.01
540.75	-0.01
540.944	-0.01
541.139	-0.04
541.334	-0.02
541.528	-0.01
541.723	-0.01
541.917	-0.02
542.112	-0.04
542.306	-0.01
542.501	-0.02
542.695	0.01
542.89	-0.03
543.084	-0.02
543.279	-0.02
543.473	-0.01
543.668	0.01
543.862	-0.01
544.056	0.02
544.251	-0.01
544.445	-0.01
544.64	-0
544.834	-0.02
545.028	-0.04
545.222	-0
545.417	0.02
545.611	0.02
545.805	-0.01
546	-0.03
546.194	0
546.388	-0.02
546.582	0
546.776	-0.01
546.97	-0.02
547.165	0.01
547.359	0.01
547.553	-0.03
547.747	-0.01
547.941	-0.02
548.135	0.01
548.329	0.01
548.523	-0.02
548.717	-0
548.911	-0.02
549.105	0
549.299	0.01
549.493	0.01
549.687	-0.01
549.881	0.01
550.075	0.01
550.269	-0.03
550.463	0.03
550.657	-0.03
550.85	-0.03
551.044	-0.03
551.238	-0
551.432	-0.03
551.626	-0.02
551.82	-0
552.013	-0.03
552.207	0.01
552.401	-0.01
552.594	0.01
552.788	-0.02
552.982	-0
553.176	-0.04
553.369	0.03
553.563	-0.02
553.756	-0.02
553.95	-0.05
554.144	0.01
554.337	0.02
554.531	-0.02
554.724	-0.02
554.918	-0.02
555.111	0.02
555.305	-0.01
555.498	0.05
555.692	-0
555.885	-0.02
556.079	0.01
556.272	-0.01
556.466	0
556.659	-0.01
556.852	-0.02
557.046	-0.02
557.239	0.03
557.432	-0.04
557.626	-0.03
557.819	0
558.012	0.03
558.206	0.03
558.399	-0.01
558.592	-0.01
558.785	-0.02
558.979	0.02
559.172	0.01
559.365	0.01
559.558	0
559.751	-0.01
559.944	-0.01
560.138	-0.02
560.331	-0.02
560.524	0.01
560.717	-0.02
560.91	0
561.103	0.02
561.296	-0.02
561.489	-0.01
561.682	0.01
561.875	0.02
562.068	-0
562.261	0
562.454	0.03
562.647	0.01
562.84	-0.02
563.032	-0.02
563.225	-0.02
563.418	-0.01
563.611	-0.02
563.804	0
563.997	-0.05
564.19	-0.05
564.382	-0.06
564.575	-0.01
564.768	0.02
564.961	-0.01
565.153	-0.01
565.346	0.02
565.539	0.01
565.731	0.02
565.924	0.01
566.117	0
566.309	0
566.502	-0.02
566.695	0
566.887	0.01
567.08	-0.05
567.272	-0.02
567.465	-0.02
567.657	-0.01
567.85	0.01
568.042	0
568.235	0.03
568.427	-0
568.62	-0.01
568.812	0.03
569.005	-0.02
569.197	-0.05
569.389	0.01
569.582	-0.01
569.774	-0.04
569.966	-0.04
570.159	-0.05
570.351	0.02
570.543	-0.01
570.736	-0.02
570.928	-0.05
571.12	-0.01
571.312	-0.02
571.505	-0.02
571.697	0.01
571.889	-0.03
572.081	-0
572.273	-0.04
572.465	0.02
572.658	-0.05
572.85	-0
573.042	-0.01
573.234	-0.03
573.426	0.01
573.618	-0.03
573.81	-0.01
574.002	0.04
574.194	0.03
574.386	-0.05
574.578	-0.06
574.77	-0.02
574.962	-0.01
575.154	-0.06
575.346	-0.01
575.538	0.01
575.729	-0.02
575.921	-0.03
576.113	-0.01
576.305	-0
576.497	-0.01
576.689	-0.03
576.88	-0.02
577.072	0.02
577.264	-0.01
577.456	-0.02
577.647	-0.08
577.839	-0.04
578.031	0.01
578.223	-0.04
578.414	-0.05
578.606	0.02
578.798	-0.02
578.989	-0.02
579.181	-0.03
579.372	-0.01
579.564	-0.03
579.755	-0.02
579.947	0.01
580.139	-0.01
580.33	-0.07
580.522	-0.02
580.713	-0.08
580.905	-0.02
581.096	0.02
581.287	-0
581.479	-0.03
581.67	-0.01
581.862	0
582.053	-0.03
582.244	-0.07
582.436	-0.04
582.627	-0.02
582.818	-0.01
583.01	-0.06
583.201	0.01
583.392	0.01
583.583	0
583.775	-0.01
583.966	-0.04
584.157	-0.04
584.348	-0.03
584.54	-0.04
584.731	-0.02
584.922	-0.02
585.113	-0.02
585.304	0.01
585.495	0.02
585.686	0.01
585.877	0
586.068	0.02
586.259	0
586.45	0.02
586.641	-0.03
586.832	-0.07
587.023	-0.03
587.214	-0.04
587.405	-0.01
587.596	-0.04
587.787	0.01
587.978	-0.01
588.169	-0.03
588.36	-0.02
588.551	0.01
588.742	-0.01
588.932	-0
589.123	-0
589.314	0.02
589.505	-0.01
589.696	-0.01
589.886	-0.05
590.077	-0.06
590.268	0.01
590.458	-0.05
590.649	-0.05
590.84	0.02
591.03	-0.03
591.221	-0.06
591.412	-0.05
591.602	0.01
591.793	0.02
591.984	-0.07
592.174	-0.01
592.365	0.04
592.555	-0.04
592.746	-0.01
592.936	-0.03
593.127	-0.01
593.317	0.02
593.508	-0.03
593.698	-0.04
593.889	0.01
594.079	-0.03
594.269	-0.03
594.46	-0.01
594.65	-0.02
594.84	-0.01
595.031	-0.01
595.221	-0.03
595.411	-0.05
595.602	0.01
595.792	-0.02
595.982	-0.02
596.172	0.04
596.363	-0.03
596.553	-0
596.743	0.01
596.933	-0.03
597.123	0.03
597.314	-0.02
597.504	-0.01
597.694	-0.01
597.884	-0.01
598.074	-0.02
598.264	-0.04
598.454	-0.01
598.644	-0.02
598.834	-0.02
599.024	-0.05
599.214	-0.01
599.404	0.04
599.594	-0.02
599.784	-0.05
599.974	0.01
600.164	0.01
600.354	-0.05
600.544	-0.05
600.734	-0.01
600.924	0
601.114	-0.06
601.303	-0.03
601.493	-0
601.683	-0.03
601.873	-0.01
602.063	-0.06
602.252	0
602.442	-0.05
602.632	-0.04
602.821	-0.03
603.011	0.02
603.201	-0.03
603.39	-0.04
603.58	-0.04
603.77	0.01
603.959	0.03
604.149	-0.02
604.339	-0.01
604.528	0.01
604.718	0
604.907	-0.02
605.097	-0.03
605.286	-0.05
605.476	0.02
605.665	-0
605.855	-0.03
606.044	0.02
606.234	-0.01
606.423	-0.04
606.612	-0.03
606.802	-0.02
606.991	0.01
607.181	0.01
607.37	-0.04
607.559	-0.04
607.749	-0.07
607.938	-0
608.127	-0.03
608.316	-0.03
608.506	-0.03
608.695	-0.03
608.884	-0.02
609.073	-0.01
609.263	0.05
609.452	-0
609.641	0
609.83	-0.04
610.019	-0.01
610.208	-0.03
610.397	-0.06
610.586	0.02
610.775	-0.05
610.965	-0.02
611.154	-0.04
611.343	-0.03
611.532	-0.03
611.721	-0.04
611.91	-0.02
612.099	-0.01
612.287	-0.02
612.476	-0.04
612.665	-0.02
612.854	-0.04
613.043	0.02
613.232	-0.03
613.421	-0.05
613.61	0
613.798	-0.04
613.987	0.01
614.176	-0.01
614.365	-0.01
614.554	0.01
614.742	0
614.931	-0.02
615.12	0
615.309	-0.03
615.497	0.01
615.686	-0.03
615.875	-0.02
616.063	-0.02
616.252	-0.03
616.44	-0.03
616.629	0.01
616.818	0.03
617.006	-0.03
617.195	-0.01
617.383	-0
617.572	-0.02
617.76	-0.01
617.949	-0.03
618.137	0
618.326	0.05
618.514	-0.04
618.703	-0.04
618.891	0.01
619.079	-0.07
619.268	-0.01
619.456	-0.02
619.644	0.04
619.833	-0.02
620.021	-0.06
620.209	-0.07
620.398	-0.02
620.586	-0.05
620.774	-0.01
620.962	-0.03
621.151	0.02
621.339	-0.01
621.527	-0.03
621.715	-0.07
621.903	-0.03
622.092	-0.03
622.28	-0.01
622.468	0.01
622.656	-0.04
622.844	-0.02
623.032	0.01
623.22	-0.06
623.408	0.02
623.596	-0.01
623.784	0.02
623.972	-0.04
624.16	0
624.348	0.03
624.536	-0.05
624.724	-0.05
624.912	0.03
625.1	-0.01
625.288	-0.04
625.476	-0.05
625.664	-0.01
625.851	-0.08
626.039	-0.05
626.227	0.02
626.415	-0.02
626.603	-0.07
626.79	-0
626.978	-0.02
627.166	0
627.354	-0.02
627.541	-0.01
627.729	-0.08
627.917	0
628.104	-0.01
628.292	-0
628.48	-0.02
628.667	0.02
628.855	-0.01
629.042	-0.01
629.23	-0.03
629.418	-0
629.605	-0
629.793	-0.03
629.98	-0.03
630.168	-0.04
630.355	-0.04
630.543	-0.01
630.73	-0.05
630.917	0.03
631.105	0.03
631.292	-0.04
631.48	-0.01
631.667	0.06
631.854	0
632.042	-0.01
632.229	-0.09
632.416	-0.02
632.604	-0
632.791	-0.07
632.978	0.01
633.165	0.02
633.353	0.04
633.54	-0.02
633.727	-0.08
633.914	-0.03
634.101	0.01
634.289	-0.02
634.476	-0.07
634.663	-0.04
634.85	0.01
635.037	-0.09
635.224	-0.07
635.411	0.04
635.598	0.03
635.785	-0.02
635.972	-0.02
636.159	0
636.346	-0.04
636.533	-0.04
636.72	-0.04
636.907	-0.04
637.094	0
637.281	-0.04
637.468	0
637.655	-0.04
637.842	-0.02
638.029	-0.05
638.215	0.01
638.402	-0.02
638.589	-0.08
638.776	-0.02
638.963	-0.04
639.149	-0
639.336	0.05
639.523	-0.01
639.709	-0.03
639.896	-0.01
640.083	0.02
640.27	0.01
640.456	-0.04
640.643	0
640.829	-0.06
641.016	-0.03
641.203	-0.07
641.389	0.02
641.576	0.01
641.762	-0.01
641.949	-0.04
642.135	0.02
642.322	-0.01
642.508	-0.08
642.695	-0.04
642.881	-0.05
643.068	-0.06
643.254	-0.01
643.441	0.01
643.627	-0.03
643.813	-0.05
644	0.03
644.186	-0.03
644.372	-0.08
644.559	-0
644.745	-0.05
644.931	-0.05
645.118	-0.04
645.304	-0.03
645.49	-0.06
645.676	-0.04
645.862	-0.01
646.049	0.04
646.235	-0
646.421	0.05
646.607	0.06
646.793	-0.04
646.979	-0.05
647.165	-0.01
647.352	-0.04
647.538	0.02
647.724	-0.01
647.91	-0.01
648.096	-0.01
648.282	0.05
648.468	-0.06
648.654	-0.01
648.84	0.03
649.026	-0.03
649.212	-0.03
649.397	-0.05
649.583	-0.06
649.769	0.01
649.955	0.01
650.141	-0.02
650.327	0.06
650.513	-0.07
650.698	-0
650.884	-0.08
651.07	-0.03
651.256	-0.03
651.442	-0.02
651.627	-0.04
651.813	-0
651.999	0
652.184	0.02
652.37	-0.02
652.556	-0.06
652.741	0.06
652.927	-0.09
653.113	-0
653.298	0
653.484	-0.03
653.669	-0.09
653.855	-0.02
654.04	-0.01
654.226	-0.02
654.412	-0.03
654.597	-0.06
654.782	-0.04
654.968	0.02
655.153	0.01
655.339	-0.05
655.524	-0.06
655.71	0.02
655.895	-0.03
656.08	-0.04
656.266	0.02
656.451	-0.01
656.636	-0.05
656.822	-0.02
657.007	-0.03
657.192	-0.04
657.378	-0.06
657.563	-0.01
657.748	-0
657.933	-0
658.118	-0.06
658.304	-0.04
658.489	0.01
658.674	-0.01
658.859	-0.06
659.044	-0
659.229	-0.02
659.414	-0.02
659.599	-0.05
659.785	-0.08
659.97	-0.07
660.155	0.01
660.34	-0.04
660.525	-0.03
660.71	-0.05
660.895	0.01
661.08	-0.04
661.264	-0.05
661.449	0.04
661.634	0.02
661.819	-0.01
662.004	-0.01
662.189	-0.08
662.374	-0.04
662.559	-0.08
662.743	-0.1
662.928	-0
663.113	-0.07
663.298	-0.07
663.483	-0.09
663.667	-0.01
663.852	-0.06
664.037	-0.03
664.221	-0.05
664.406	0.03
664.591	-0.02
664.775	-0.01
664.96	0.01
665.145	-0
665.329	-0
665.514	-0.09
665.698	-0.03
665.883	-0.09
666.068	0.05
666.252	-0.04
666.437	-0.07
666.621	-0.01
666.806	0
666.99	-0.02
667.174	-0.05
667.359	0.05
667.543	-0.01
667.728	-0.02
667.912	-0.08
668.096	-0.01
668.281	-0.02
668.465	-0.01
668.649	-0.02
668.834	-0.06
669.018	-0.01
669.202	-0.04
669.387	-0.06
669.571	-0.01
669.755	-0.05
669.939	-0.01
670.124	-0.04
670.308	0.01
670.492	-0.03
670.676	-0.04
670.86	-0.01
671.044	-0.07
671.228	0.03
671.413	-0.11
671.597	-0
671.781	-0.06
671.965	-0.01
672.149	0
672.333	-0.06
672.517	-0.03
672.701	0.03
672.885	-0
673.069	-0.08
673.253	0.01
673.437	-0.02
673.621	-0.04
673.804	-0.05
673.988	-0.05
674.172	-0.04
674.356	-0
674.54	-0.06
674.724	0.04
674.908	-0.03
675.091	0
675.275	-0
675.459	0.01
675.643	0.05
675.826	-0.01
676.01	-0.04
676.194	-0.08
676.377	0.03
676.561	-0.03
676.745	-0.02
676.928	-0.02
677.112	0.02
677.296	-0.05
677.479	-0.05
677.663	-0.06
677.846	-0
678.03	-0.04
678.213	-0.04
678.397	-0.02
678.58	-0.04
678.764	-0.01
678.947	-0.07
679.131	-0.08
679.314	-0.03
679.498	-0.01
679.681	-0.02
679.865	-0
680.048	-0.04
680.231	-0.04
680.415	-0.03
680.598	-0.02
680.781	-0.04
680.965	-0.05
681.148	-0.03
681.331	-0
681.514	0.04
681.698	-0.06
681.881	-0.02
682.064	-0.03
682.247	-0.05
682.43	-0.09
682.614	-0.02
682.797	0.01
682.98	0.05
683.163	-0.11
683.346	0
683.529	-0.04
683.712	-0.08
683.895	-0.03
684.078	-0.08
684.261	-0
684.444	-0
684.627	-0.01
684.81	-0.07
684.993	-0.05
685.176	0.01
685.359	-0.08
685.542	-0.04
685.725	0.04
685.908	-0.05
686.091	-0.07
686.274	0.02
686.457	0.01
686.639	-0.01
686.822	0
687.005	-0.04
687.188	-0.06
687.371	0.11
687.553	-0.01
687.736	-0.02
687.919	-0.02
688.102	-0.01
688.284	-0.02
688.467	-0.03
688.65	-0.04
688.832	-0.08
689.015	-0.08
689.197	-0.08
689.38	0.07
689.563	0.04
689.745	-0.08
689.928	-0.06
690.11	-0
690.293	-0.03
690.475	-0.06
690.658	-0.01
690.84	-0.03
691.023	-0.04
691.205	-0.05
691.388	-0.07
691.57	0.04
691.752	0.03
691.935	-0.1
692.117	-0.05
692.3	-0.03
692.482	-0.01
692.664	-0.04
692.847	0.01
693.029	0.04
693.211	0.02
693.393	-0.04
693.576	-0.08
693.758	-0.02
693.94	-0.07
694.122	-0.03
694.304	-0
694.487	-0.02
694.669	0.06
694.851	-0.04
695.033	-0.05
695.215	-0.05
695.397	-0.09
695.579	-0.04
695.761	-0.06
695.943	-0.1
696.125	0.02
696.308	-0
696.49	-0.07
696.671	0.09
696.853	-0.06
697.035	0.08
697.217	-0.04
697.399	-0.02
697.581	-0.07
697.763	-0.01
697.945	-0.1
698.127	-0.04
698.309	0.03
698.491	-0
698.672	-0.02
698.854	-0.02
699.036	0.04
699.218	-0.06
699.399	0.07
699.581	0
699.763	-0.01
699.945	-0.06
700.126	-0.06
700.308	-0.02
700.49	-0.03
700.671	-0.1
700.853	-0.04
701.035	-0.04
701.216	0
701.398	-0.05
701.579	-0.06
701.761	-0.08
701.943	-0.07
702.124	-0.05
702.306	-0.02
702.487	0.12
702.669	-0.05
702.85	-0.06
703.031	-0.06
703.213	0.05
703.394	-0.02
703.576	-0.08
703.757	-0.02
703.938	0.03
704.12	0.06
704.301	-0.1
704.483	-0.06
704.664	-0.01
704.845	0.04
705.026	0
705.208	-0.03
705.389	-0.06
705.57	-0.02
705.751	-0.09
705.933	-0.02
706.114	0.03
706.295	-0.02
706.476	-0.12
706.657	0.04
706.838	-0.02
707.02	-0.03
707.201	-0.05
707.382	-0.05
707.563	0.02
707.744	-0.07
707.925	-0.05
708.106	-0.12
708.287	-0.05
708.468	0.03
708.649	-0.11
708.83	0.01
709.011	-0.04
709.192	0.04
709.373	-0.1
709.554	-0.09
709.734	0.04
709.915	-0.01
710.096	-0.01
710.277	-0.14
710.458	-0
710.639	-0.03
710.819	-0.12
711	-0.09
711.181	0.06
711.362	0.06
711.542	-0.07
711.723	-0.04
711.904	0.04
712.085	0.01
712.265	-0
712.446	-0.07
712.627	-0.05
712.807	0.01
712.988	-0.04
713.168	-0.11
713.349	0.06
713.53	-0.12
713.71	-0.02
713.891	-0.1
714.071	-0.01
714.252	-0.09
714.432	-0.09
714.613	-0.18
714.793	-0.04
714.974	0.02
715.154	0.02
715.334	-0.05
715.515	0.05
715.695	-0.16
715.876	-0.04
716.056	-0.05
716.236	-0.1
716.417	-0.05
716.597	-0.13
716.777	0.1
716.957	-0.05
717.138	-0.04
717.318	-0.02
717.498	-0.14
717.678	-0.06
717.859	0.01
718.039	-0.13
718.219	0.02
718.399	0.03
718.579	-0.1
718.759	-0.06
718.939	-0.02
719.12	-0.03
719.3	-0.02
719.48	-0.18
719.66	-0.14
719.84	0.1
720.02	-0.06
720.2	-0.14
720.38	0.03
720.56	0.05
720.74	-0.16
720.92	-0.08
721.1	-0.02
721.279	0.06
721.459	0
721.639	-0.15
721.819	-0.03
721.999	-0.08
722.179	-0.01
722.359	-0.11
722.538	-0.06
722.718	-0.08
722.898	-0.09
723.078	-0.11
723.257	-0.08
723.437	-0.03
723.617	0.04
723.797	-0.08
723.976	-0.08
724.156	-0.03
724.336	0.07
724.515	0.1
724.695	-0.19
724.874	-0.07
725.054	-0.05
725.234	-0.03
725.413	-0.03
725.593	-0.05
725.772	-0.09
725.952	-0.1
726.131	-0.01
726.311	-0.01
726.49	-0.09
726.67	-0.13
726.849	-0
727.028	-0.01
727.208	0.02
727.387	-0.02
727.567	-0.15
727.746	-0.07
727.925	-0.08
728.105	-0.13
728.284	-0.07
728.463	-0.11
728.643	-0.06
728.822	-0.17
729.001	-0.18
729.18	-0.11
729.359	-0.04
729.539	-0.06
729.718	-0
729.897	0.04
730.076	-0.05
730.255	-0.14
730.434	-0.01
730.614	0.03
730.793	0.08
730.972	-0.01
731.151	-0.11
731.33	0.04
731.509	-0.05
731.688	-0.01
731.867	-0.07
732.046	-0.19
732.225	0.07
732.404	-0.11
732.583	-0.13
732.762	-0.03
732.941	0.07
733.12	-0.02
733.298	-0.04
733.477	-0.02
733.656	-0.06
733.835	-0.14
734.014	0.01
734.193	-0.03
734.371	-0.02
734.55	-0.07
734.729	-0.16
734.908	-0
735.086	0.01
735.265	0.03
735.444	-0.17
735.623	-0.07
735.801	-0.27
735.98	-0.02
736.159	-0.08
736.337	0.03
736.516	-0.02
736.694	-0.12
736.873	-0.11
737.052	0.04
737.23	0.09
737.409	-0.08
737.587	0.15
737.766	-0.27
737.944	-0.07
738.123	0.02
738.301	0.04
738.479	-0.06
738.658	0
738.836	-0.25
739.015	0.04
739.193	0.02
739.371	-0.08
739.55	-0.12
739.728	-0.22
739.906	0.05
740.085	0.04
740.263	-0.18
740.441	-0.22
740.62	0.14
740.798	0.06
740.976	-0.12
741.154	-0.15
741.332	0
741.511	-0.12
741.689	-0
741.867	0.07
742.045	-0.01
742.223	-0.05
742.401	-0.12
742.579	-0.11
742.757	-0.01
742.935	-0.18
743.114	-0.13
743.292	-0.1
743.47	-0.06
743.648	-0.04
743.826	0
744.004	-0.02
744.181	0.02
744.359	-0.1
744.537	-0.05
744.715	0.04
744.893	-0.09
745.071	-0.06
745.249	-0.09
745.427	-0.07
745.605	-0.08
745.782	-0.09
745.96	0.02
746.138	-0.03
746.316	0.05
746.493	-0.1
746.671	-0.13
746.849	-0.05
747.027	0.08
747.204	-0.12
747.382	-0.05
747.56	-0.15
747.737	-0.17
747.915	-0.18
748.093	-0
748.27	-0.1
748.448	-0.12
748.625	-0.2
748.803	-0.14
748.98	-0.11
749.158	0.02
749.335	0.02
749.513	0
749.69	-0.1
749.868	-0.06
750.045	0.03
750.223	-0.09
750.4	-0.25
750.578	0.06
750.755	-0.06
750.932	-0.22
751.11	0.06
751.287	-0.2
751.464	0.07
751.642	-0.18
751.819	0.09
751.996	-0.03
752.173	-0.14
752.351	-0.09
752.528	-0.05
752.705	0.03
752.882	-0.19
753.06	-0.03
753.237	-0.04
753.414	0.12
753.591	0.16
753.768	-0.09
753.945	-0.11
754.122	-0.13
754.299	-0.06
754.476	-0.14
754.654	0.01
754.831	0.07
755.008	0.05
755.185	-0.06
755.362	-0.1
755.539	-0.03
755.716	-0.1
755.892	-0.19
756.069	-0.03
756.246	-0.06
756.423	-0.02
756.6	0.08
756.777	-0.12
756.954	0.04
757.131	-0.04
757.307	-0.13
757.484	-0.13
757.661	-0.07
757.838	-0.12
758.015	-0.16
758.191	-0.02
758.368	-0.02
758.545	0.22
758.721	-0.1
758.898	-0.19
759.075	-0.09
759.251	0.05
759.428	0.04
759.605	-0.18
759.781	-0.05
759.958	-0.04
760.134	-0.04
760.311	-0.15
760.488	0.11
760.664	0.14
760.841	-0.07
761.017	-0.19
761.194	-0.03
761.37	0.08
761.547	-0.04
761.723	-0.11
761.899	0.11
762.076	-0.04
762.252	-0.11
762.429	-0.04
762.605	0.11
762.781	-0.05
762.958	0.08
763.134	0
763.31	-0.19
763.486	0.03
763.663	-0.28
763.839	-0.04
764.015	-0.25
764.191	-0.16
764.368	-0.13
764.544	-0.1
764.72	-0.07
764.896	-0.01
765.072	0.03
765.248	-0.13
765.425	-0.04
765.601	-0.04
765.777	-0.03
765.953	-0.27
766.129	-0.17
766.305	-0.14
766.481	-0.11
766.657	-0.05
766.833	0.13
767.009	-0.19
767.185	-0.1
767.361	-0.06
767.537	-0.27
767.713	0.04
767.889	-0.16
768.065	-0.04
768.24	0.01
768.416	0.05
768.592	-0.18
768.768	0.14
768.944	-0.04
769.12	-0.26
769.295	-0.09
769.471	-0.09
769.647	-0.17
769.823	0.07
769.998	-0
770.174	-0.33
770.35	0.17
770.525	0.14
770.701	-0.04
770.877	-0.16
771.052	-0.11
771.228	0.06
771.403	0
771.579	0.1
771.755	0.24
771.93	-0.04
772.106	-0.28
772.281	-0.44
772.457	0.01
772.632	-0
772.808	-0.18
772.983	-0.05
773.159	-0.25
773.334	0.21
773.509	-0.1
773.685	-0.18
773.86	0.15
774.036	0.13
774.211	-0.13
774.386	-0.08
774.562	-0.06
774.737	0.03
774.912	-0.12
775.087	-0.05
775.263	-0.15
775.438	-0.09
775.613	-0.04
775.788	-0.13
775.964	0.1
776.139	0.22
776.314	-0.24
776.489	-0.03
776.664	-0.09
776.839	-0.1
777.014	-0.05
777.19	-0.02
777.365	0.18
777.54	0.14
777.715	-0.14
777.89	-0.08
778.065	-0.29
778.24	-0.03
778.415	-0.02
778.59	-0.25
778.765	-0.15
778.94	0.04
779.115	-0.18
779.289	-0.19
779.464	-0.02
779.639	0.02
779.814	-0.27
779.989	-0.28
780.164	0.16
780.339	-0.01
780.513	-0.1
780.688	-0.06
780.863	-0.05
781.038	0.09
781.212	-0.21
781.387	0.02
781.562	0.27
781.737	-0.25
781.911	0.07
782.086	-0.2
782.261	0.04
782.435	0.13
782.61	-0.1
782.784	-0.27
782.959	0.07
783.134	-0.32
783.308	-0.31
783.483	-0.17
783.657	0.13
783.832	0.3
784.006	-0.42
784.181	-0.16
784.355	0.14
784.53	-0.49
784.704	-0.18
784.878	0.2
785.053	0.04
785.227	0.03
785.402	0.14
785.576	-0.31
785.75	-0.11
785.925	-0.25
786.099	-0.12
786.273	-0.15
786.448	0.09
786.622	0.02
786.796	-0.27
786.97	-0.11
787.145	0.14
787.319	-0.45
787.493	-0.36
787.667	-0.52
787.841	-0.05
788.015	0.13
788.19	-0.36
788.364	0.1
788.538	0.05
788.712	0.08
788.886	-0.18
789.06	0.16
789.234	0
789.408	-0.49
789.582	-0.06
789.756	-0.11
789.93	-0.25
790.104	-0.31
790.278	-0.38
790.452	-0.23
790.626	0.09
790.8	-0.16
790.973	-0.04
791.147	0.13
791.321	0.26
791.495	-0.01
791.669	-0.14
791.843	-0.07
792.016	-0.17
792.19	0.12
792.364	-0.52
792.538	0.41
792.711	0.12
792.885	-0.15
793.059	-0.23
793.233	-0.61
793.406	0.23
793.58	-0.03
793.754	0.09
793.927	-0.18
794.101	0.3
794.274	-0.15
794.448	0.19
794.622	-0.28
794.795	0.15
794.969	-0.29
795.142	0.25
795.316	-0.18
795.489	-0.08
795.663	0.34
795.836	-0.16
796.009	-0.34
796.183	0.35
796.356	0.07
796.53	-0.09
796.703	-0.06
796.876	0.59
797.05	-0.19
797.223	-0.17
797.396	0.08
797.57	-0.04
797.743	0.17
797.916	-0.12
798.09	-0.12
798.263	0.17
798.436	-0.04
798.609	-0.14
798.782	-0.23
798.956	0.1
799.129	0.08
799.302	-0.27
799.475	-0.28
799.648	-0.06
799.821	-0.34
799.994	0.03
800.167	-0.38
800.34	-0.15
800.514	-0.02
800.687	-0.08
800.86	-0.26
801.033	-0.01
801.206	0.01
801.379	-0.38
801.551	0.04
801.724	0.17
801.897	0.34
802.07	-0.25
802.243	-0.69
802.416	-0.32
802.589	-0.23
802.762	-0.25
802.935	-0.34
803.107	0.11
803.28	0.18
803.453	0.02
803.626	-0.56
803.798	-0.48
803.971	-0.38
804.144	-0.16
804.317	0.05
804.489	-0.14
804.662	-0.09
804.835	-0.32
805.007	-0.29
805.18	0.23
805.353	-0.05
805.525	-0.64
805.698	-0.28
805.87	0.08
806.043	0.04
806.215	-0.3
806.388	-0.41
806.56	-0.06
806.733	0.41
806.905	-0.22
807.078	-0.31
807.25	-0.29
807.423	-0.13
807.595	-0.39
807.768	-0.44
807.94	0.51
808.112	-0.22
808.285	-0.11
808.457	-0.44
808.629	-0.06
808.802	0.11
808.974	-0.13
809.146	-0.5
809.318	-0.5
809.491	-0.35
809.663	0.19
809.835	-0.6
810.007	-0.2
810.18	-0.11
810.352	-0.45
810.524	-0.3
810.696	0.07
810.868	0.07
811.04	-0.23
811.212	-0.15
811.384	0.15
811.556	-0.01
811.728	-0.58
811.901	0.11
812.073	0.02
812.245	0.18
812.417	-0.16
812.589	-0.59
812.76	0.05
812.932	-0.12
813.104	-0.13
813.276	-0.38
813.448	0.27
813.62	-0.2
813.792	-0.21
813.964	-0.13
814.136	-0.06
814.307	-0.27
814.479	-0.65
814.651	0.08
814.823	0.42
814.995	-0.41
815.166	0.05
815.338	-0.37
815.51	-0.66
815.681	0.55
815.853	-0.32
816.025	-0.23
816.196	0.21
816.368	0.23
816.54	-0.59
816.711	-0.16
816.883	-0.08
817.054	0.78
817.226	-0.69
817.398	0.07
817.569	0.13
817.741	-0.5
817.912	0.06
818.084	-0.38
818.255	-0.12
818.426	-0.57
818.598	-0.17
818.769	-0.21
818.941	0.08
819.112	0.56
819.283	-0.17
819.455	-0.73
819.626	0.03
819.798	0.09
819.969	0.04
820.14	-0.28
820.311	-0.36
820.483	0.15
820.654	0.05
820.825	-0.14
820.996	-0.5
821.168	-0.6
821.339	-0.16
821.51	-0.65
821.681	0.87
821.852	0.07
822.023	-0.72
822.195	-0.54
822.366	0.14
822.537	-0.38
822.708	0.16
822.879	-0.61
823.05	0.23
823.221	-0.23
823.392	0.05
823.563	-0.21
823.734	-0.28
823.905	-0.06
824.076	-0.34
824.247	-0.45
824.418	-0.9
824.589	0.31
824.759	-0.25
824.93	-0.31
825.101	-0.69
825.272	0.2
825.443	-0.09
825.614	0.25
825.784	-1.46
825.955	0.84
826.126	0.46
826.297	0.02
826.467	0.17
826.638	0.26
826.809	-0.9
826.98	-0.3
827.15	-0.42
827.321	0.04
827.492	0.5
827.662	-0.34
827.833	0.85
828.003	0.31
828.174	-0.9
828.345	-0.98
828.515	0.27
828.686	0.18
828.856	-0.27
829.027	0.12
829.197	0.04
829.368	0.35
829.538	-0.37
829.709	-0.55
829.879	-0.29
830.049	-0.34
830.22	-0.56
830.39	-0.5
830.56	0.45
830.731	-0.12
830.901	-0.72
831.072	-0.17
831.242	-0.06
831.412	0.1
831.582	-0.3
831.753	-0.75
831.923	0.33
832.093	-0.25
832.263	-0.56
832.434	-1.02
832.604	-0.51
832.774	0.18
832.944	0.04
833.114	-0.18
833.284	-0.02
833.454	-0.45
833.624	-0.76
833.795	-0.34
833.965	0.29
834.135	0.46
834.305	-0.83
834.475	-1.03
834.645	-0.64
834.815	-0.95
834.985	-0.64
835.155	-0.89
835.325	-0.18
835.494	-0.06
835.664	-0.22
835.834	-1.18
836.004	0.02
836.174	-0.37
836.344	-0.5
836.514	-1.46
836.684	-0.93
836.853	0.59
837.023	-0.18
837.193	-0.42
837.363	0.19
837.532	0.39
837.702	-0.53
837.872	-1.28
838.041	0.06
838.211	0.47
838.381	-1.17
838.55	-0.07
838.72	1.23
838.89	0.96
839.059	-0.31
839.229	-0.71
839.398	2.06
839.568	-0.64
839.738	-0.09
839.907	1.44
840.077	-0.33
840.246	-0.33
840.416	-0.82
840.585	-1.16
840.755	-0.15
840.924	0.81
841.093	-0.97
841.263	-0.42
841.432	0.26
841.602	-0.65
841.771	-1.06
841.94	-0.05
842.11	1.05
842.279	1.18
842.448	-1.17
842.617	-0.96
842.787	0.87
842.956	-1.36
843.125	-0.25
843.294	-0.63
843.464	0.52
843.633	-0.47
843.802	-1.19
843.971	-0.38
844.14	0.24
844.309	0.57
844.479	-0.88
844.648	-1.16
844.817	-1.16
844.986	-0.42
845.155	-0.38
845.324	-0.33
845.493	-0.3
845.662	-0.86
845.831	0.16
846	-0.19
846.169	-0.55
846.338	0.61
846.507	0.3
846.676	-0.46
846.844	-0.65
847.013	0.24
847.182	-0.37
847.351	-0.67
847.52	-0.45
847.689	-0.01
847.858	-1.2
848.026	-0.01
848.195	-0.38
848.364	-0.52
848.533	-0.83
848.701	-0.52
848.87	0.05
849.039	0.61
849.207	0.58
849.376	0.57
849.545	0.61
849.713	-1.23
849.882	-0.62
850.051	-0.58
850.219	-0.37
850.388	0.7
850.556	-0.95
850.725	-1.02
850.893	-0.03
851.062	-0.85
851.23	0.24
851.399	-1.03
851.567	-1.13
851.736	-0.7
851.904	-1.77
852.073	-0.18
852.241	0.89
852.41	0.16
852.578	-0.89
852.746	-1.02
852.915	0.75
853.083	-0.93
853.251	-1.3
853.42	0.05
853.588	-0.59
853.756	1.4
853.924	-0.01
854.093	-0.84
854.261	-0.93
854.429	-1.06
854.597	-0.29
854.765	-1.35
854.934	0.85
855.102	0.91
855.27	-0.41
855.438	0.34
855.606	-0.13
855.774	0.82
855.942	-2.28
856.11	-2.49
856.278	-0.06
856.446	-0.64
856.614	-0.22
856.782	-0.91
856.95	0.23
857.118	0.57
857.286	-0.46
857.454	-1.01
857.622	0.73
857.79	-0.66
857.958	-1.45
858.126	-1.35
858.294	-2.37
858.462	-0.91
858.629	0.04
858.797	-1.26
858.965	-0.93
859.133	-0.48
859.301	-0.63
859.468	0.16
859.636	-0.63
859.804	1.95
859.971	-0.12
860.139	-1.07
860.307	0.48
860.474	-0.35
860.642	-0.87
860.81	-1.89
860.977	-0.79
861.145	0.68
861.313	-0.59
861.48	-0.07
861.648	0.66
861.815	-0.74
861.983	-1.12
862.15	-1.04
862.318	0.67
862.485	1.13
862.653	-0.94
862.82	-1.21
862.988	0.63
863.155	0.87
863.322	-0.18
863.49	-2.45
863.657	-1.02
863.824	1.61
863.992	0.64
864.159	-0.18
864.326	-0.67
864.494	-2.08
864.661	1.23
864.828	-0.98
864.996	-0.7
865.163	-0.39
865.33	-0.48
865.497	-2.04
865.664	-1.42
865.832	-4.19
865.999	-0.57
866.166	-2
866.333	-2.32
866.5	-0.86
866.667	-0.99
866.834	-1.63
867.001	1.08
867.168	-2.88
867.335	-0.02
867.502	-2.05
867.669	-0.51
867.836	2.7
868.003	0.27
868.17	0.35
868.337	1.65
868.504	2.2
868.671	-3.16
868.838	-0.53
869.005	-1
869.172	-0.26
869.339	-1.51
869.505	0.48
869.672	-0.85
869.839	1.34
870.006	-0.72
870.173	-3.07
870.339	0.48
870.506	-0.52
870.673	-0.97
870.84	0.64
871.006	-0.55
871.173	-0.11
871.34	-0.27
871.506	-1.73
871.673	0.77
871.839	-3.78
872.006	-2.55
872.173	-1.64
872.339	-0.26
872.506	1.55
872.672	-1.01
872.839	-3.29
873.005	0.27
873.172	0.79
873.338	1.79
873.505	-0.83
873.671	-1.95
873.838	0.63
874.004	-2.63
874.171	-1.89
874.337	-0.39
874.503	-0.2
874.67	-1.23
874.836	-0.15
875.002	1.27
875.169	1.38
875.335	1.99
875.501	-0.89
875.668	-3.34
875.834	-0.54
876	-0.67
876.166	0.45
876.332	0.63
876.499	0.84
876.665	-1.54
876.831	-0.65
876.997	2.44
877.163	0.85
877.329	-1.77
877.495	-0.32
877.662	3.21
877.828	0.06
877.994	-1.61
878.16	-2.27
878.326	-1.79
878.492	1.3
878.658	-1.31
878.824	0.06
878.99	-0.83
879.156	1.76
879.322	2.6
879.487	-1.77
879.653	-0.39
879.819	-0.57
879.985	-1.74
880.151	0.12
880.317	-1.41
880.483	0.62
880.648	-0.01
880.814	-2.85
880.98	-0.09
881.146	-2.23
881.312	-1.06
881.477	-2.02
881.643	1.4
881.809	0.53
881.974	1.4
882.14	-3.71
882.306	0.27
882.471	1.36
882.637	-0.99
882.803	0.59
882.968	1.54
883.134	1.61
883.299	-1.51
883.465	-0.82
883.63	0.99
883.796	-0.57
883.961	0.85
884.127	0.77
884.292	-4.73
884.458	-3.96
884.623	-3.96
