Data from Apollo_Calib_20240827__AbsoluteIrradiance__600__09-09-02-593.txt Node

Date: Wed Aug 28 09:09:02 BST 2024
User: biology
Spectrometer: FLMT08252
Trigger mode: 0
Integration Time (sec): 5.000000E-1
Scans to average: 5
Electric dark correction enabled: true
Nonlinearity correction enabled: false
Boxcar width: 0
XAxis mode: Wavelengths
Number of Pixels in Spectrum: 3648
>>>>>Begin Spectral Data<<<<<
179.588	-0
179.809	-0
180.03	-0
180.251	-0
180.473	-0
180.694	0
180.915	0
181.136	-0
181.357	0
181.578	0
181.799	-0
182.02	-0
182.241	-0
182.462	-0
182.683	0
182.904	-0
183.125	-0
183.346	0
183.567	0
183.788	0
184.009	-0
184.23	0
184.451	0
184.672	0
184.892	-0
185.113	0
185.334	0
185.555	0
185.776	0
185.996	0
186.217	0
186.438	0
186.659	-0
186.879	0
187.1	0
187.321	0
187.541	0
187.762	0
187.983	0
188.203	0
188.424	0
188.644	0
188.865	0
189.086	0
189.306	0
189.527	-0
189.747	0
189.968	0
190.188	0
190.409	0
190.629	0
190.849	0
191.07	0
191.29	0
191.511	0
191.731	0
191.951	0
192.172	0
192.392	0
192.612	0
192.833	0
193.053	0
193.273	0
193.493	-0
193.714	0
193.934	0
194.154	0
194.374	0
194.594	0
194.815	0
195.035	0
195.255	0
195.475	0
195.695	0
195.915	0
196.135	0
196.355	0
196.575	0
196.795	0
197.015	-0
197.235	0
197.455	0
197.675	0
197.895	0
198.115	0
198.335	0
198.555	0
198.775	0
198.995	0
199.214	0
199.434	0
199.654	0
199.874	0
200.094	1.78
200.313	-0.04
200.533	0.05
200.753	0.1
200.973	1.37
201.192	1.52
201.412	-0.01
201.632	0.53
201.851	1.29
202.071	0.46
202.291	0.09
202.51	0.03
202.73	0.97
202.95	0.7
203.169	0.15
203.389	0.48
203.608	0.6
203.828	0.11
204.047	0.11
204.267	0.91
204.486	0.54
204.706	0.77
204.925	0.58
205.145	0.18
205.364	1.09
205.583	1.13
205.803	0.19
206.022	0.1
206.242	0.54
206.461	0.3
206.68	0.48
206.9	0.67
207.119	0.91
207.338	0.77
207.557	0.26
207.777	0.46
207.996	0.29
208.215	0.76
208.434	0.17
208.654	-0.17
208.873	0.24
209.092	0.81
209.311	0.16
209.53	0.15
209.749	0.17
209.968	0.15
210.187	0.19
210.407	-0.01
210.626	-0.02
210.845	0.81
211.064	0.37
211.283	0.18
211.502	0.72
211.721	0.29
211.94	0.18
212.159	0.43
212.377	0.59
212.596	0.69
212.815	0.52
213.034	0.42
213.253	0.65
213.472	0.66
213.691	0.25
213.91	0.13
214.128	0.24
214.347	0.67
214.566	-0.08
214.785	-0.08
215.003	0.33
215.222	0.42
215.441	0.33
215.66	-0.15
215.878	0.13
216.097	0.39
216.316	0.11
216.534	0.08
216.753	0.36
216.972	0.15
217.19	-0
217.409	-0.01
217.627	0.03
217.846	0.05
218.064	0.09
218.283	0.09
218.501	0.76
218.72	0.32
218.938	0.07
219.157	0.11
219.375	0.4
219.594	0.4
219.812	-0.2
220.031	0.07
220.249	0.67
220.467	0.61
220.686	0.07
220.904	0.01
221.122	0.14
221.341	0.47
221.559	0.21
221.777	-0.07
221.995	0.09
222.214	0.35
222.432	0.07
222.65	0.42
222.868	0.18
223.086	0.2
223.305	0.41
223.523	0.13
223.741	0.55
223.959	0.06
224.177	-0.07
224.395	0.25
224.613	0.26
224.831	0.41
225.049	0.07
225.267	0.12
225.485	0.26
225.703	0.15
225.921	0.14
226.139	0.11
226.357	0.2
226.575	0.3
226.793	0.09
227.011	0.65
227.229	0.13
227.447	0.34
227.665	0.14
227.883	-0.04
228.1	0.19
228.318	0.16
228.536	-0.09
228.754	-0.02
228.972	0.3
229.189	0.28
229.407	0.17
229.625	0.16
229.843	0.18
230.06	0.21
230.278	0.09
230.496	0.17
230.713	0.22
230.931	0.28
231.149	0.18
231.366	-0.1
231.584	0.21
231.801	0.39
232.019	0.19
232.236	0
232.454	0.18
232.671	0.2
232.889	0.19
233.106	0.12
233.324	0.21
233.541	0.18
233.759	0.13
233.976	0.09
234.194	0.08
234.411	0.16
234.628	-0.05
234.846	0.13
235.063	0.12
235.28	0.14
235.498	0.19
235.715	-0
235.932	0.33
236.149	0.11
236.367	0.08
236.584	0.17
236.801	0.14
237.018	0.25
237.236	0.16
237.453	0.06
237.67	0.21
237.887	0.11
238.104	0.07
238.321	0.05
238.538	0.02
238.755	0.25
238.973	-0.08
239.19	0.09
239.407	0.23
239.624	0.08
239.841	-0.04
240.058	0.02
240.275	0.13
240.492	0.07
240.709	0.15
240.925	0.13
241.142	0.07
241.359	0.02
241.576	0.07
241.793	0.06
242.01	0.16
242.227	0.12
242.444	0.15
242.66	0.24
242.877	0.04
243.094	0.03
243.311	0.08
243.527	-0.01
243.744	0.19
243.961	0.14
244.178	-0.02
244.394	0.16
244.611	0.24
244.828	0.29
245.044	-0.02
245.261	0.1
245.477	0.11
245.694	0.13
245.911	0.05
246.127	0.12
246.344	0.22
246.56	0.23
246.777	0.03
246.993	0.06
247.21	0.11
247.426	0.28
247.643	0.12
247.859	0.05
248.076	-0.01
248.292	0.34
248.508	0.06
248.725	0.07
248.941	0.18
249.157	0.19
249.374	-0.02
249.59	0.04
249.806	0.13
250.023	0.19
250.239	0.05
250.455	0.1
250.671	0.11
250.888	0.12
251.104	0.14
251.32	0.07
251.536	0.1
251.752	0.1
251.969	0.13
252.185	0.16
252.401	0.2
252.617	0.14
252.833	0.03
253.049	0.1
253.265	0.16
253.481	0.13
253.697	0.05
253.913	0.07
254.129	0.09
254.345	0.08
254.561	0.07
254.777	0.07
254.993	0.21
255.209	0.12
255.425	0.09
255.641	0.02
255.857	0.22
256.073	0.08
256.288	-0.01
256.504	-0.02
256.72	0.11
256.936	0.24
257.152	0.1
257.367	0.03
257.583	0.14
257.799	0.15
258.015	0.01
258.23	0.08
258.446	0.23
258.662	0.09
258.877	0.01
259.093	0.03
259.309	0.08
259.524	0.18
259.74	0.01
259.955	0.03
260.171	0.08
260.387	0.06
260.602	0.19
260.818	0.21
261.033	-0.02
261.249	0.05
261.464	0.04
261.68	0.01
261.895	0.16
262.11	0.1
262.326	0.08
262.541	-0.03
262.757	0.15
262.972	0.17
263.187	0.11
263.403	0.01
263.618	0.14
263.833	0.11
264.049	0.01
264.264	0.06
264.479	0.23
264.694	0.17
264.91	0.06
265.125	0.08
265.34	0.14
265.555	0.2
265.77	0.14
265.986	0.07
266.201	0.1
266.416	0.14
266.631	0.06
266.846	0.12
267.061	0.15
267.276	0.13
267.491	-0.06
267.706	0.1
267.921	0.13
268.136	0.1
268.351	0.1
268.566	0.03
268.781	0.15
268.996	0.05
269.211	0.11
269.426	-0.01
269.641	0.08
269.856	0.14
270.071	0
270.285	0.01
270.5	0.2
270.715	0.12
270.93	0.08
271.145	0.05
271.359	0.2
271.574	0.05
271.789	0.12
272.004	0.07
272.218	0.03
272.433	0.16
272.648	0.03
272.862	0.16
273.077	0.09
273.292	0.12
273.506	0.01
273.721	0.06
273.936	0.08
274.15	0.1
274.365	0.06
274.579	0.1
274.794	0.09
275.008	0.2
275.223	-0.01
275.437	0.03
275.652	0.1
275.866	0.08
276.081	0.09
276.295	0.11
276.509	0.13
276.724	0.07
276.938	0.13
277.153	0.07
277.367	0.15
277.581	-0.01
277.796	0.04
278.01	0.03
278.224	0.12
278.438	0.18
278.653	-0.01
278.867	0.06
279.081	-0.08
279.295	0.08
279.51	0.12
279.724	-0.01
279.938	0.1
280.152	0.08
280.366	0.05
280.58	0.07
280.794	0.15
281.008	0.12
281.222	0.13
281.437	0.23
281.651	0.12
281.865	0.16
282.079	0.11
282.293	0
282.507	0.02
282.721	0.1
282.935	0.09
283.148	-0.02
283.362	0.08
283.576	0.03
283.79	0.08
284.004	0.05
284.218	0.15
284.432	-0.01
284.646	0.06
284.859	0.07
285.073	0.04
285.287	0.09
285.501	0.08
285.714	0.03
285.928	0.07
286.142	0.03
286.356	0.05
286.569	0.05
286.783	0.14
286.997	0.1
287.21	0.01
287.424	0.09
287.637	0.04
287.851	0.08
288.065	0.11
288.278	0.08
288.492	0.09
288.705	0.07
288.919	0.09
289.132	0.04
289.346	0.08
289.559	0.01
289.773	-0
289.986	0.07
290.2	0.06
290.413	0.12
290.626	-0.03
290.84	0.06
291.053	0.05
291.267	0.12
291.48	0.07
291.693	0.07
291.906	-0
292.12	0.02
292.333	0
292.546	0.08
292.76	0.11
292.973	0.07
293.186	0.07
293.399	0.06
293.612	0.12
293.826	0.08
294.039	0.08
294.252	0.02
294.465	0.12
294.678	0.11
294.891	0.06
295.104	0.01
295.317	0.06
295.53	0.04
295.743	0.05
295.956	0.08
296.169	0.08
296.382	0.11
296.595	0.05
296.808	-0.01
297.021	0.14
297.234	0.11
297.447	0.08
297.66	0.08
297.873	0.11
298.086	0.14
298.299	0.04
298.511	-0.01
298.724	0.04
298.937	-0.04
299.15	0.04
299.363	0.04
299.575	0.08
299.788	0.01
300.001	0.06
300.213	0.07
300.426	0.04
300.639	0.01
300.852	0.05
301.064	0.1
301.277	0.11
301.489	0.09
301.702	0.08
301.915	0.02
302.127	0.07
302.34	0.1
302.552	0.05
302.765	0.03
302.977	0.14
303.19	0.06
303.402	0.04
303.615	0.01
303.827	0
304.04	0.09
304.252	0.11
304.464	0.05
304.677	0.11
304.889	0.06
305.102	0.04
305.314	-0
305.526	0.1
305.739	0.08
305.951	0.01
306.163	0.02
306.375	0.15
306.588	0.04
306.8	0.02
307.012	0.01
307.224	0.07
307.436	0.09
307.649	0.01
307.861	0.05
308.073	0.14
308.285	0.04
308.497	0.05
308.709	0.04
308.921	0.08
309.133	0.13
309.346	0.06
309.558	0.06
309.77	0.09
309.982	0.08
310.194	0.1
310.406	0.02
310.617	0.11
310.829	0.07
311.041	0.03
311.253	0.02
311.465	0.05
311.677	0.04
311.889	0.03
312.101	0.02
312.313	0.11
312.524	0.07
312.736	0.01
312.948	-0
313.16	0.16
313.372	0.09
313.583	0.09
313.795	0.03
314.007	0.02
314.218	0.11
314.43	0.08
314.642	0.05
314.853	0.01
315.065	0.1
315.277	0.07
315.488	0.08
315.7	0.07
315.912	0.04
316.123	0.05
316.335	0.04
316.546	0.14
316.758	0.07
316.969	0.02
317.181	0.06
317.392	0.05
317.604	0.02
317.815	0.04
318.026	0.04
318.238	0.03
318.449	0.08
318.661	-0.01
318.872	-0.03
319.083	0
319.295	0.09
319.506	0.04
319.717	0.1
319.929	0.11
320.14	0.04
320.351	0.05
320.562	0.01
320.774	0.04
320.985	0.09
321.196	0.03
321.407	0.02
321.618	0.07
321.829	0.03
322.041	0.08
322.252	0.07
322.463	0.06
322.674	0.09
322.885	0.01
323.096	0.05
323.307	0.04
323.518	0.09
323.729	0.02
323.94	0.1
324.151	0.03
324.362	0.05
324.573	0.11
324.784	-0.01
324.995	0.1
325.206	0.09
325.417	0.08
325.628	-0.01
325.838	0.06
326.049	0.05
326.26	0.09
326.471	0.03
326.682	0.07
326.892	0.07
327.103	-0.01
327.314	-0.01
327.525	0.08
327.735	0.07
327.946	0.03
328.157	0.04
328.368	0.06
328.578	0.02
328.789	0.09
328.999	0.06
329.21	0.07
329.421	0.08
329.631	0.01
329.842	0.02
330.052	0.1
330.263	0.09
330.473	0.07
330.684	0.06
330.894	0.02
331.105	0.07
331.315	0.06
331.526	-0.01
331.736	0.12
331.947	0.06
332.157	0.07
332.367	0.03
332.578	0.05
332.788	0.11
332.999	0.1
333.209	0.09
333.419	-0
333.629	0.06
333.84	0.09
334.05	0.03
334.26	0.09
334.47	0.09
334.681	0.13
334.891	0.01
335.101	0.06
335.311	0.11
335.521	0.08
335.732	0.01
335.942	0.13
336.152	0.07
336.362	0.06
336.572	0.07
336.782	0.06
336.992	0.04
337.202	0.06
337.412	0
337.622	0.11
337.832	0.07
338.042	0.05
338.252	0.04
338.462	0.03
338.672	0.03
338.882	0.05
339.092	0.07
339.302	0.12
339.511	0.06
339.721	0.04
339.931	-0.02
340.141	0.12
340.351	0.12
340.561	0.11
340.77	0.05
340.98	0.03
341.19	0.05
341.4	0.01
341.609	-0.02
341.819	0.05
342.029	0.01
342.238	0.11
342.448	0.01
342.658	0.09
342.867	0.06
343.077	0.06
343.286	0.02
343.496	0.06
343.706	0.09
343.915	-0.02
344.125	0.07
344.334	0.05
344.544	-0
344.753	0.05
344.963	-0.02
345.172	0.02
345.381	0.06
345.591	0.03
345.8	0.05
346.01	0.05
346.219	0.06
346.428	-0.08
346.638	0.05
346.847	0.03
347.056	0.06
347.266	0.02
347.475	0.03
347.684	0.06
347.893	0.06
348.103	0.04
348.312	0.06
348.521	0.03
348.73	0.08
348.94	0.08
349.149	0.05
349.358	0.03
349.567	0.02
349.776	-0.01
349.985	0.04
350.194	0.08
350.403	0.07
350.612	0.01
350.821	0.05
351.03	0.1
351.239	0.01
351.448	0.05
351.657	0.03
351.866	0.15
352.075	0.03
352.284	0.08
352.493	-0.02
352.702	0.09
352.911	0.06
353.12	0.05
353.329	0.06
353.538	0.07
353.746	0.04
353.955	0.05
354.164	0.05
354.373	0.04
354.582	0.05
354.79	0.07
354.999	0.05
355.208	0.04
355.416	0.12
355.625	-0.02
355.834	0.05
356.042	0.04
356.251	0.04
356.46	0.03
356.668	0.06
356.877	0.15
357.085	0.1
357.294	-0.03
357.503	0.08
357.711	0.04
357.92	0.19
358.128	0.05
358.337	0.08
358.545	0.07
358.754	0.01
358.962	0.06
359.17	0.02
359.379	0.09
359.587	0.08
359.796	0.02
360.004	0.11
360.212	0.07
360.421	0.08
360.629	0.04
360.837	0.01
361.046	0.07
361.254	0.15
361.462	0.07
361.67	-0
361.879	0.05
362.087	0.08
362.295	0.07
362.503	0.07
362.711	0
362.92	0.04
363.128	0.01
363.336	-0
363.544	0.01
363.752	0.03
363.96	0.01
364.168	0.03
364.376	0.05
364.584	0.06
364.792	0.08
365	0.03
365.208	0.06
365.416	0.08
365.624	0.05
365.832	0.01
366.04	0.11
366.248	0.07
366.456	0.11
366.664	0.06
366.872	0.08
367.079	0.02
367.287	0.06
367.495	0.06
367.703	0.06
367.911	0.04
368.118	0.03
368.326	0.06
368.534	0.02
368.742	0.18
368.949	-0.05
369.157	0.03
369.365	0.07
369.572	0.06
369.78	-0.01
369.988	0.08
370.195	0.08
370.403	0.07
370.61	0.06
370.818	0.07
371.026	0.07
371.233	0.01
371.441	0.08
371.648	0.03
371.856	0.09
372.063	0.03
372.271	0.02
372.478	0.02
372.685	0.03
372.893	0.09
373.1	0.06
373.308	0.02
373.515	0.13
373.722	0.04
373.93	0.04
374.137	0.08
374.344	0.12
374.552	0.06
374.759	0.06
374.966	0.04
375.173	0.03
375.381	0.09
375.588	0.06
375.795	-0.04
376.002	0.06
376.209	0.02
376.417	0.02
376.624	-0.01
376.831	0.08
377.038	0.04
377.245	-0.06
377.452	0.01
377.659	0.05
377.866	0.02
378.073	0.02
378.28	0.03
378.487	0.07
378.694	0.1
378.901	0.02
379.108	0.03
379.315	0.07
379.522	0.12
379.729	0.04
379.936	0.05
380.143	0.05
380.35	0.05
380.557	0.04
380.763	0.04
380.97	0.05
381.177	0.05
381.384	0.04
381.591	0.02
381.797	0.06
382.004	0.06
382.211	0.07
382.418	0.04
382.624	0.06
382.831	0.11
383.038	0.05
383.244	0.08
383.451	0.04
383.658	0.06
383.864	0.04
384.071	-0.05
384.277	0.11
384.484	-0.03
384.69	0.04
384.897	0.05
385.103	0.01
385.31	0.01
385.516	0.03
385.723	-0.02
385.929	0.05
386.136	0
386.342	0.05
386.549	0.02
386.755	0.13
386.961	0.09
387.168	0.02
387.374	0.07
387.58	0.08
387.787	0.02
387.993	0.05
388.199	0.07
388.406	0.03
388.612	0.11
388.818	0.01
389.024	0.05
389.231	0.08
389.437	0.13
389.643	0.11
389.849	0.08
390.055	0.02
390.261	0.06
390.467	0.07
390.674	0.01
390.88	0.03
391.086	0.06
391.292	0
391.498	0.09
391.704	0.03
391.91	0.04
392.116	0.03
392.322	-0.08
392.528	0.05
392.734	0.07
392.94	0.04
393.146	0
393.352	0.07
393.557	0.07
393.763	0.06
393.969	0.08
394.175	0.07
394.381	0.06
394.587	-0.04
394.792	0.03
394.998	0.12
395.204	0.1
395.41	-0.01
395.615	0.07
395.821	0.07
396.027	0.04
396.233	0.05
396.438	0.02
396.644	0.13
396.85	0.1
397.055	0.06
397.261	0.06
397.466	0.05
397.672	0.08
397.878	0.12
398.083	0.06
398.289	0.02
398.494	0.12
398.7	0.06
398.905	0
399.111	0.07
399.316	-0.05
399.522	0.05
399.727	0.06
399.932	0.06
400.138	0.06
400.343	0.1
400.549	0.05
400.754	0.03
400.959	0.09
401.165	0.05
401.37	0.07
401.575	0.07
401.78	0.04
401.986	0.04
402.191	0.04
402.396	0.04
402.601	0.09
402.807	0.03
403.012	0.05
403.217	0.05
403.422	0.08
403.627	0.05
403.832	0.04
404.037	0.05
404.243	0.03
404.448	0
404.653	0.04
404.858	0.03
405.063	0.06
405.268	0.03
405.473	0.02
405.678	0.02
405.883	0.12
406.088	0.04
406.293	-0.01
406.498	0.01
406.703	0.12
406.907	0.04
407.112	-0.02
407.317	0.07
407.522	0.1
407.727	-0.01
407.932	0.06
408.136	0.06
408.341	0.08
408.546	0.07
408.751	0.06
408.956	0.06
409.16	0.08
409.365	0.04
409.57	0.03
409.774	0.07
409.979	0.11
410.184	0.04
410.388	0.02
410.593	0.07
410.798	0.05
411.002	-0.01
411.207	0.05
411.411	0.03
411.616	0.04
411.82	0.05
412.025	0.02
412.229	0.02
412.434	0.08
412.638	0.06
412.843	0.06
413.047	0.06
413.252	-0.02
413.456	0.04
413.66	0.08
413.865	0.02
414.069	0.08
414.273	0.02
414.478	0
414.682	0.01
414.886	-0.04
415.091	-0
415.295	-0.05
415.499	0.01
415.703	0.01
415.908	0.03
416.112	-0.04
416.316	0.06
416.52	0.01
416.724	-0.02
416.929	0.01
417.133	0.14
417.337	0.02
417.541	-0.01
417.745	0.01
417.949	0.05
418.153	0.06
418.357	-0.02
418.561	0.15
418.765	-0.01
418.969	0.14
419.173	0.04
419.377	0.03
419.581	0.12
419.785	-0.01
419.989	0.02
420.193	0.02
420.397	0.01
420.601	0.12
420.804	0.07
421.008	0.03
421.212	0.05
421.416	0.07
421.62	0.02
421.823	0.03
422.027	0.14
422.231	0.03
422.435	0.01
422.638	0.08
422.842	0.06
423.046	-0
423.249	0.05
423.453	0.08
423.657	0.04
423.86	0.04
424.064	0.06
424.268	0.09
424.471	0.03
424.675	0.12
424.878	0.11
425.082	0.06
425.285	0.06
425.489	0.05
425.692	0.06
425.896	-0.03
426.099	0.06
426.303	0.05
426.506	0.01
426.71	0.08
426.913	0.09
427.116	0.15
427.32	0.07
427.523	0.04
427.726	0.12
427.93	0.04
428.133	0.05
428.336	0.05
428.54	-0.03
428.743	0.06
428.946	0.06
429.149	0
429.353	0.03
429.556	0.04
429.759	0.02
429.962	0.06
430.165	0.05
430.368	0.03
430.571	0.05
430.775	0.07
430.978	0.05
431.181	0.06
431.384	0.06
431.587	0.01
431.79	0.04
431.993	0.03
432.196	0.04
432.399	0.06
432.602	0.11
432.805	0.03
433.008	0.01
433.211	-0.05
433.414	0.02
433.616	0.08
433.819	0.01
434.022	-0.08
434.225	0.12
434.428	0.12
434.631	0.14
434.833	0.06
435.036	0.03
435.239	0.13
435.442	0.07
435.645	0.07
435.847	0.07
436.05	0.04
436.253	0.06
436.455	0.02
436.658	0.01
436.861	0.11
437.063	0.04
437.266	0.03
437.468	0.03
437.671	0.16
437.874	0.04
438.076	0
438.279	0.01
438.481	0.07
438.684	0.04
438.886	0.06
439.089	0.01
439.291	0.08
439.494	0.07
439.696	-0
439.899	0.01
440.101	0.07
440.303	-0.03
440.506	0.07
440.708	0.07
440.91	0.05
441.113	0.03
441.315	0.05
441.517	-0
441.72	0
441.922	0.03
442.124	0.01
442.326	0.09
442.529	0.1
442.731	-0.01
442.933	0.15
443.135	0.07
443.337	0.09
443.539	0.06
443.742	0.04
443.944	0.03
444.146	-0.02
444.348	0.03
444.55	0.02
444.752	0.02
444.954	0
445.156	0.02
445.358	-0.02
445.56	0.1
445.762	0.01
445.964	0.07
446.166	0.04
446.368	0.05
446.57	0.08
446.772	-0.01
446.974	-0.01
447.175	0.05
447.377	0.02
447.579	-0.01
447.781	0
447.983	0.11
448.184	0.08
448.386	0.04
448.588	-0.02
448.79	0.09
448.991	-0
449.193	0.08
449.395	0.04
449.597	0.06
449.798	0.11
450	0.06
450.202	0.02
450.403	0.05
450.605	0.11
450.806	0.08
451.008	-0.01
451.21	0.03
451.411	0.02
451.613	0.01
451.814	0.03
452.016	0.09
452.217	0.04
452.419	0.05
452.62	0.06
452.821	0.08
453.023	0.13
453.224	0.1
453.426	0.05
453.627	0.08
453.828	0.1
454.03	0.06
454.231	0.06
454.432	-0.02
454.634	0.11
454.835	0.01
455.036	0.04
455.238	0.14
455.439	0.07
455.64	0
455.841	-0.01
456.042	0.12
456.244	0.05
456.445	0.03
456.646	0.02
456.847	0.07
457.048	0.05
457.249	0.11
457.45	0.25
457.651	-0
457.852	0.09
458.054	0.03
458.255	0.03
458.456	0.02
458.657	0.07
458.858	0.06
459.058	0.08
459.259	0.12
459.46	0.04
459.661	0.03
459.862	0.14
460.063	0.06
460.264	0.13
460.465	0.02
460.666	0.16
460.866	0.03
461.067	0.05
461.268	0.04
461.469	0.02
461.67	0.02
461.87	0.05
462.071	0.04
462.272	-0.02
462.473	0.05
462.673	0.06
462.874	0.03
463.075	0.09
463.275	-0.01
463.476	0.07
463.676	0.1
463.877	0.06
464.078	0.04
464.278	0.06
464.479	0.04
464.679	0.08
464.88	0.1
465.08	0.12
465.281	0.02
465.481	0.04
465.682	0.01
465.882	0.06
466.083	0.03
466.283	0.02
466.483	0.01
466.684	-0
466.884	0.02
467.085	0.01
467.285	0.09
467.485	-0.02
467.686	0.06
467.886	-0.03
468.086	0.05
468.286	0.06
468.487	0.05
468.687	-0.01
468.887	0.03
469.087	0.08
469.287	0.06
469.488	0
469.688	0.04
469.888	0.07
470.088	0.06
470.288	0.08
470.488	0.12
470.688	-0.02
470.888	0.02
471.088	0.01
471.288	0.05
471.488	0.07
471.688	0.05
471.888	0.04
472.088	0.07
472.288	0.08
472.488	0.01
472.688	-0.01
472.888	0.05
473.088	0.04
473.288	0.04
473.488	0.04
473.688	0.1
473.887	0.05
474.087	0.03
474.287	0.05
474.487	0.02
474.687	0.03
474.886	0
475.086	0.03
475.286	0.03
475.486	0.02
475.685	0.04
475.885	0.04
476.085	0.07
476.284	0.07
476.484	0.04
476.684	0.07
476.883	0.09
477.083	0.05
477.282	0.02
477.482	0.12
477.681	0.1
477.881	-0.01
478.08	-0.01
478.28	0.01
478.479	0.09
478.679	0.13
478.878	0.02
479.078	0
479.277	0.05
479.477	0.03
479.676	0.03
479.875	0.03
480.075	-0.02
480.274	0.05
480.473	0.04
480.673	-0.01
480.872	0.08
481.071	0.01
481.271	0.05
481.47	0.03
481.669	0.02
481.868	-0
482.067	0.01
482.267	0.01
482.466	-0.01
482.665	0.01
482.864	0.02
483.063	0
483.262	0.05
483.461	0.07
483.661	0.05
483.86	0
484.059	0.05
484.258	0.03
484.457	0.02
484.656	0.05
484.855	0.07
485.054	-0.01
485.253	-0
485.452	-0.02
485.651	0.04
485.849	0.05
486.048	-0.01
486.247	-0
486.446	0.03
486.645	-0.01
486.844	-0
487.043	-0.01
487.241	0.06
487.44	-0
487.639	0.02
487.838	0.05
488.037	0.05
488.235	0.07
488.434	0.04
488.633	0.02
488.831	0
489.03	0.04
489.229	0
489.427	0.02
489.626	0.05
489.825	0.07
490.023	0.02
490.222	0.01
490.42	0.01
490.619	0.07
490.817	0.03
491.016	0.02
491.214	0.06
491.413	0.01
491.611	0.01
491.81	0.03
492.008	0.03
492.207	0.03
492.405	0.02
492.604	-0.03
492.802	0.02
493	0.04
493.199	0
493.397	0.02
493.595	0.02
493.794	0.01
493.992	0.06
494.19	0.02
494.388	0.03
494.587	0.01
494.785	0.03
494.983	-0.02
495.181	0.03
495.379	0.01
495.578	-0
495.776	0.03
495.974	0.03
496.172	0.02
496.37	0.02
496.568	-0.01
496.766	0.01
496.964	0.07
497.162	0.02
497.36	0
497.558	0.06
497.756	0.04
497.954	0.02
498.152	0
498.35	-0
498.548	0.02
498.746	0.03
498.944	0.01
499.142	0
499.34	-0.02
499.538	-0.01
499.736	-0.01
499.933	0.04
500.131	0.04
500.329	0.02
500.527	0.05
500.725	0.04
500.922	0.06
501.12	0.06
501.318	0.02
501.516	0.01
501.713	0.02
501.911	0.03
502.109	-0.01
502.306	0.03
502.504	0.01
502.701	0.01
502.899	0.01
503.097	0.07
503.294	0.02
503.492	0.01
503.689	0.04
503.887	0.02
504.084	0.05
504.282	0.02
504.479	-0.02
504.677	0.04
504.874	-0.01
505.072	0.01
505.269	0.01
505.466	0.06
505.664	0.03
505.861	-0.03
506.059	-0.02
506.256	0.03
506.453	0.01
506.651	0.05
506.848	0.05
507.045	0.01
507.242	0.03
507.44	0.01
507.637	0.05
507.834	0.02
508.031	0.05
508.229	-0.01
508.426	0.03
508.623	0.03
508.82	0.02
509.017	0.01
509.214	0.01
509.411	0.03
509.608	0
509.805	0.02
510.003	0.01
510.2	-0.01
510.397	0.04
510.594	0.02
510.791	0.01
510.988	0.01
511.184	0.05
511.381	0.03
511.578	0
511.775	0.03
511.972	0.01
512.169	0.01
512.366	0.01
512.563	0.04
512.76	0
512.956	0.02
513.153	0.02
513.35	0.03
513.547	-0.01
513.744	-0.01
513.94	-0.02
514.137	0.04
514.334	0.01
514.53	0.03
514.727	0.04
514.924	0.08
515.12	-0
515.317	-0
515.514	0.01
515.71	-0.02
515.907	0.04
516.103	0.03
516.3	0.05
516.497	0.05
516.693	0.05
516.89	0.02
517.086	0.02
517.283	0.05
517.479	0.03
517.676	0.03
517.872	0.01
518.068	0.01
518.265	0.02
518.461	0.01
518.658	-0.01
518.854	0.05
519.05	0
519.247	0.01
519.443	0.04
519.639	0.03
519.836	0.04
520.032	0.02
520.228	0.02
520.424	0.08
520.621	0.04
520.817	0.01
521.013	0.03
521.209	0.03
521.405	0.08
521.601	0.04
521.798	0.03
521.994	0.05
522.19	-0.01
522.386	-0.01
522.582	0.03
522.778	0.01
522.974	0.03
523.17	0.03
523.366	0.02
523.562	0.04
523.758	0.03
523.954	0
524.15	0.02
524.346	0.06
524.542	0.03
524.738	-0
524.934	0.03
525.129	-0.04
525.325	0.01
525.521	0.03
525.717	0.04
525.913	0.03
526.109	0.02
526.304	0.01
526.5	0.02
526.696	0.04
526.892	0.02
527.087	0.03
527.283	-0.01
527.479	0.01
527.674	-0
527.87	0.02
528.066	-0.01
528.261	0.03
528.457	0.04
528.653	0.02
528.848	0.02
529.044	0.03
529.239	0.02
529.435	0.05
529.63	0.04
529.826	0.08
530.021	0.04
530.217	0.03
530.412	0.03
530.608	0.02
530.803	0.02
530.999	0.02
531.194	-0.01
531.389	0.02
531.585	0
531.78	0.03
531.975	0.02
532.171	0.03
532.366	0.03
532.561	0.03
532.757	0.01
532.952	0.01
533.147	0.05
533.342	0.03
533.538	0.02
533.733	0.07
533.928	0.03
534.123	0.02
534.318	-0.02
534.513	0.04
534.709	0.01
534.904	0.01
535.099	0.01
535.294	0.03
535.489	0.03
535.684	0.02
535.879	-0
536.074	0.04
536.269	0.01
536.464	0.05
536.659	0.02
536.854	0.02
537.049	0.02
537.244	0.02
537.439	-0
537.634	0.06
537.828	0.03
538.023	0.02
538.218	0.01
538.413	0.03
538.608	-0.01
538.803	0.04
538.997	-0.01
539.192	0.06
539.387	0.04
539.582	0.05
539.776	0.01
539.971	0.01
540.166	0.03
540.36	-0
540.555	0.03
540.75	0.02
540.944	0.04
541.139	0.01
541.334	0.01
541.528	0.04
541.723	0.04
541.917	0.01
542.112	0.01
542.306	0.05
542.501	0.03
542.695	0.02
542.89	0.03
543.084	0.06
543.279	0.02
543.473	0.02
543.668	0.01
543.862	0.02
544.056	0.05
544.251	0.03
544.445	0.04
544.64	0.02
544.834	0
545.028	0.04
545.222	0.05
545.417	0.05
545.611	0.04
545.805	0.02
546	0.02
546.194	0.05
546.388	0.03
546.582	0.05
546.776	0.03
546.97	0.02
547.165	0.03
547.359	0.02
547.553	0.02
547.747	0.02
547.941	0.03
548.135	0
548.329	0.05
548.523	0.02
548.717	0.01
548.911	0.01
549.105	0.04
549.299	0.03
549.493	0.06
549.687	0.03
549.881	0.04
550.075	0.03
550.269	-0
550.463	0.05
550.657	0.01
550.85	0.02
551.044	0.02
551.238	0.03
551.432	0.03
551.626	0.01
551.82	0.03
552.013	0.03
552.207	0.03
552.401	0.06
552.594	0.02
552.788	0.05
552.982	0.03
553.176	0.02
553.369	0.03
553.563	0.04
553.756	-0.01
553.95	-0
554.144	0
554.337	0.03
554.531	0.03
554.724	0
554.918	0.03
555.111	0.04
555.305	0.01
555.498	0.07
555.692	0.05
555.885	0.01
556.079	0.04
556.272	0.01
556.466	0.04
556.659	0.03
556.852	0.03
557.046	0.03
557.239	0.06
557.432	0.01
557.626	0.02
557.819	0.06
558.012	0.04
558.206	0.04
558.399	0.04
558.592	0.04
558.785	0.02
558.979	0.07
559.172	0.02
559.365	0.06
559.558	0.04
559.751	0.02
559.944	0.06
560.138	0.01
560.331	0.03
560.524	0.01
560.717	0.05
560.91	0.03
561.103	0.04
561.296	0.06
561.489	0.06
561.682	0.03
561.875	0.06
562.068	0.03
562.261	0.03
562.454	0.06
562.647	0.02
562.84	0.06
563.032	0.02
563.225	0.04
563.418	0.03
563.611	0.01
563.804	0.01
563.997	0.01
564.19	0.02
564.382	-0.02
564.575	0.04
564.768	0.03
564.961	0.03
565.153	0.04
565.346	0.06
565.539	0.05
565.731	0.04
565.924	0.03
566.117	0.05
566.309	0.03
566.502	0.01
566.695	0.03
566.887	0.02
567.08	0.02
567.272	0.04
567.465	0.04
567.657	0.05
567.85	0.05
568.042	0.06
568.235	0.08
568.427	0.03
568.62	0.05
568.812	0.05
569.005	0.04
569.197	-0
569.389	0.05
569.582	0.06
569.774	0.04
569.966	0.01
570.159	0.01
570.351	0.05
570.543	0.02
570.736	0.05
570.928	0.01
571.12	0.02
571.312	0.02
571.505	0
571.697	0.07
571.889	0.01
572.081	0.02
572.273	0.01
572.465	0.09
572.658	0.03
572.85	0.07
573.042	0.04
573.234	0.05
573.426	0.08
573.618	-0
573.81	0.07
574.002	0.08
574.194	0.11
574.386	0.01
574.578	-0.02
574.77	0.03
574.962	0.03
575.154	0.01
575.346	0.05
575.538	0.06
575.729	0.06
575.921	0.03
576.113	0.04
576.305	0.08
576.497	0.05
576.689	0.04
576.88	0.02
577.072	0.07
577.264	0.06
577.456	0.03
577.647	0
577.839	0.05
578.031	0.07
578.223	0.01
578.414	0.01
578.606	0.07
578.798	0.05
578.989	0.02
579.181	0.04
579.372	0.06
579.564	0.04
579.755	0.04
579.947	0.08
580.139	0.06
580.33	-0.01
580.522	0.04
580.713	-0
580.905	0.07
581.096	0.06
581.287	0.07
581.479	0.04
581.67	0.05
581.862	0.05
582.053	0.06
582.244	0.01
582.436	0.05
582.627	0.06
582.818	0.03
583.01	0.02
583.201	0.06
583.392	0.11
583.583	0.05
583.775	0.05
583.966	0.01
584.157	0.06
584.348	0.04
584.54	0.01
584.731	0.04
584.922	0.06
585.113	0.05
585.304	0.08
585.495	0.09
585.686	0.06
585.877	0.08
586.068	0.07
586.259	0.07
586.45	0.07
586.641	0.03
586.832	0.02
587.023	0.08
587.214	0.08
587.405	0.07
587.596	0.06
587.787	0.08
587.978	0.06
588.169	0.04
588.36	0.06
588.551	0.08
588.742	0.07
588.932	0.07
589.123	0.06
589.314	0.09
589.505	0.09
589.696	0.11
589.886	0.08
590.077	0.02
590.268	0.08
590.458	0.04
590.649	0.03
590.84	0.11
591.03	0.1
591.221	0.05
591.412	0.05
591.602	0.1
591.793	0.1
591.984	0.05
592.174	0.07
592.365	0.14
592.555	0.07
592.746	0.12
592.936	0.1
593.127	0.1
593.317	0.12
593.508	0.08
593.698	0.07
593.889	0.08
594.079	0.08
594.269	0.07
594.46	0.11
594.65	0.1
594.84	0.1
595.031	0.08
595.221	0.07
595.411	0.05
595.602	0.13
595.792	0.1
595.982	0.1
596.172	0.14
596.363	0.09
596.553	0.1
596.743	0.11
596.933	0.13
597.123	0.14
597.314	0.09
597.504	0.08
597.694	0.15
597.884	0.12
598.074	0.11
598.264	0.09
598.454	0.13
598.644	0.13
598.834	0.14
599.024	0.1
599.214	0.14
599.404	0.16
599.594	0.13
599.784	0.16
599.974	0.17
600.164	0.16
600.354	0.13
600.544	0.08
600.734	0.15
600.924	0.17
601.114	0.13
601.303	0.15
601.493	0.16
601.683	0.15
601.873	0.17
602.063	0.13
602.252	0.2
602.442	0.12
602.632	0.15
602.821	0.14
603.011	0.2
603.201	0.17
603.39	0.15
603.58	0.18
603.77	0.2
603.959	0.23
604.149	0.19
604.339	0.2
604.528	0.24
604.718	0.26
604.907	0.2
605.097	0.21
605.286	0.18
605.476	0.22
605.665	0.26
605.855	0.2
606.044	0.27
606.234	0.24
606.423	0.25
606.612	0.21
606.802	0.26
606.991	0.27
607.181	0.29
607.37	0.24
607.559	0.22
607.749	0.2
607.938	0.25
608.127	0.25
608.316	0.28
608.506	0.26
608.695	0.3
608.884	0.27
609.073	0.31
609.263	0.36
609.452	0.32
609.641	0.33
609.83	0.32
610.019	0.33
610.208	0.32
610.397	0.33
610.586	0.4
610.775	0.34
610.965	0.32
611.154	0.35
611.343	0.38
611.532	0.4
611.721	0.39
611.91	0.36
612.099	0.41
612.287	0.39
612.476	0.38
612.665	0.44
612.854	0.39
613.043	0.45
613.232	0.45
613.421	0.41
613.61	0.49
613.798	0.45
613.987	0.51
614.176	0.5
614.365	0.52
614.554	0.51
614.742	0.55
614.931	0.5
615.12	0.54
615.309	0.53
615.497	0.58
615.686	0.52
615.875	0.59
616.063	0.58
616.252	0.6
616.44	0.61
616.629	0.62
616.818	0.65
617.006	0.67
617.195	0.67
617.383	0.7
617.572	0.63
617.76	0.68
617.949	0.71
618.137	0.75
618.326	0.78
618.514	0.73
618.703	0.73
618.891	0.85
619.079	0.74
619.268	0.86
619.456	0.81
619.644	0.88
619.833	0.88
620.021	0.87
620.209	0.85
620.398	0.94
620.586	0.92
620.774	0.96
620.962	0.96
621.151	1.05
621.339	1.05
621.527	0.95
621.715	1
621.903	1.09
622.092	1.04
622.28	1.13
622.468	1.11
622.656	1.13
622.844	1.18
623.032	1.18
623.22	1.16
623.408	1.31
623.596	1.25
623.784	1.33
623.972	1.27
624.16	1.29
624.348	1.42
624.536	1.44
624.724	1.38
624.912	1.51
625.1	1.48
625.288	1.46
625.476	1.49
625.664	1.61
625.851	1.58
626.039	1.63
626.227	1.65
626.415	1.65
626.603	1.64
626.79	1.74
626.978	1.77
627.166	1.81
627.354	1.77
627.541	1.83
627.729	1.79
627.917	1.96
628.104	2.02
628.292	2
628.48	2.08
628.667	2.05
628.855	2.16
629.042	2.21
629.23	2.18
629.418	2.28
629.605	2.28
629.793	2.31
629.98	2.34
630.168	2.41
630.355	2.42
630.543	2.5
630.73	2.51
630.917	2.57
631.105	2.72
631.292	2.66
631.48	2.72
631.667	2.84
631.854	2.81
632.042	2.83
632.229	2.83
632.416	2.97
632.604	3.01
632.791	2.97
632.978	3.1
633.165	3.16
633.353	3.24
633.54	3.3
633.727	3.26
633.914	3.36
634.101	3.37
634.289	3.51
634.476	3.5
634.663	3.56
634.85	3.59
635.037	3.65
635.224	3.62
635.411	3.84
635.598	3.87
635.785	3.88
635.972	3.95
636.159	4.07
636.346	4.15
636.533	4.13
636.72	4.23
636.907	4.28
637.094	4.37
637.281	4.31
637.468	4.51
637.655	4.55
637.842	4.7
638.029	4.66
638.215	4.75
638.402	4.85
638.589	4.88
638.776	4.96
638.963	5.03
639.149	5.22
639.336	5.32
639.523	5.3
639.709	5.41
639.896	5.4
640.083	5.49
640.27	5.71
640.456	5.7
640.643	5.8
640.829	5.71
641.016	6
641.203	5.93
641.389	6.15
641.576	6.24
641.762	6.3
641.949	6.41
642.135	6.47
642.322	6.5
642.508	6.64
642.695	6.9
642.881	6.89
643.068	6.99
643.254	7.17
643.441	7.16
643.627	7.42
643.813	7.36
644	7.6
644.186	7.66
644.372	7.87
644.559	7.9
644.745	8
644.931	8.19
645.118	8.4
645.304	8.55
645.49	8.63
645.676	8.66
645.862	8.95
646.049	9.16
646.235	9.23
646.421	9.51
646.607	9.61
646.793	9.61
646.979	9.71
647.165	10
647.352	10.19
647.538	10.27
647.724	10.43
647.91	10.66
648.096	10.82
648.282	11.05
648.468	11.08
648.654	11.37
648.84	11.5
649.026	11.76
649.212	11.77
649.397	11.96
649.583	12.41
649.769	12.47
649.955	12.62
650.141	13.01
650.327	13
650.513	13.27
650.698	13.37
650.884	13.48
651.07	13.87
651.256	14.01
651.442	14.38
651.627	14.18
651.813	14.74
651.999	14.77
652.184	15.03
652.37	15.42
652.556	15.61
652.741	15.67
652.927	15.6
653.113	16.06
653.298	16.36
653.484	16.55
653.669	16.77
653.855	16.97
654.04	17.19
654.226	17.34
654.412	17.57
654.597	17.55
654.782	17.91
654.968	18.18
655.153	18.29
655.339	18.58
655.524	18.72
655.71	18.98
655.895	19.31
656.08	19.35
656.266	19.83
656.451	19.65
656.636	19.84
656.822	20.06
657.007	20.32
657.192	20.5
657.378	20.65
657.563	20.57
657.748	20.7
657.933	21.27
658.118	20.61
658.304	21.29
658.489	21.45
658.674	21.33
658.859	21.28
659.044	21.49
659.229	21.61
659.414	21.86
659.599	21.83
659.785	21.66
659.97	21.68
660.155	21.59
660.34	21.79
660.525	21.43
660.71	21.38
660.895	21.47
661.08	21.35
661.264	20.87
661.449	20.89
661.634	20.48
661.819	20.6
662.004	19.88
662.189	19.96
662.374	19.66
662.559	19.1
662.743	18.85
662.928	18.71
663.113	18.12
663.298	17.9
663.483	17.54
663.667	17.17
663.852	16.78
664.037	16.51
664.221	16.2
664.406	15.77
664.591	15.3
664.775	14.92
664.96	14.51
665.145	13.84
665.329	13.69
665.514	13.21
665.698	12.61
665.883	12.27
666.068	12.05
666.252	11.74
666.437	11.19
666.621	10.79
666.806	10.54
666.99	10.1
667.174	9.74
667.359	9.5
667.543	9.2
667.728	8.93
667.912	8.51
668.096	8.16
668.281	7.94
668.465	7.72
668.649	7.47
668.834	7.08
669.018	7.04
669.202	6.83
669.387	6.46
669.571	6.33
669.755	6.02
669.939	5.82
670.124	5.61
670.308	5.52
670.492	5.37
670.676	5.13
670.86	4.87
671.044	4.72
671.228	4.59
671.413	4.45
671.597	4.3
671.781	4.2
671.965	4.11
672.149	3.99
672.333	3.79
672.517	3.65
672.701	3.57
672.885	3.37
673.069	3.17
673.253	3.35
673.437	3.11
673.621	2.97
673.804	2.91
673.988	2.89
674.172	2.71
674.356	2.67
674.54	2.56
674.724	2.6
674.908	2.43
675.091	2.4
675.275	2.26
675.459	2.23
675.643	2.19
675.826	2.04
676.01	2
676.194	1.95
676.377	1.97
676.561	1.83
676.745	1.75
676.928	1.71
677.112	1.7
677.296	1.61
677.479	1.57
677.663	1.5
677.846	1.5
678.03	1.41
678.213	1.34
678.397	1.35
678.58	1.28
678.764	1.25
678.947	1.16
679.131	1.1
679.314	1.2
679.498	1.14
679.681	1.11
679.865	1.13
680.048	0.98
680.231	0.99
680.415	0.93
680.598	0.95
680.781	0.88
680.965	0.88
681.148	0.9
681.331	0.83
681.514	0.84
681.698	0.79
681.881	0.81
682.064	0.76
682.247	0.77
682.43	0.66
682.614	0.73
682.797	0.73
682.98	0.68
683.163	0.63
683.346	0.68
683.529	0.59
683.712	0.56
683.895	0.6
684.078	0.54
684.261	0.53
684.444	0.57
684.627	0.57
684.81	0.51
684.993	0.51
685.176	0.54
685.359	0.52
685.542	0.49
685.725	0.55
685.908	0.44
686.091	0.47
686.274	0.48
686.457	0.53
686.639	0.44
686.822	0.45
687.005	0.4
687.188	0.42
687.371	0.52
687.553	0.42
687.736	0.43
687.919	0.49
688.102	0.43
688.284	0.32
688.467	0.37
688.65	0.35
688.832	0.32
689.015	0.31
689.197	0.28
689.38	0.41
689.563	0.4
689.745	0.21
689.928	0.27
690.11	0.32
690.293	0.32
690.475	0.24
690.658	0.27
690.84	0.27
691.023	0.26
691.205	0.23
691.388	0.29
691.57	0.28
691.752	0.27
691.935	0.14
692.117	0.28
692.3	0.3
692.482	0.23
692.664	0.28
692.847	0.23
693.029	0.27
693.211	0.24
693.393	0.16
693.576	0.16
693.758	0.24
693.94	0.18
694.122	0.23
694.304	0.17
694.487	0.16
694.669	0.28
694.851	0.15
695.033	0.18
695.215	0.16
695.397	0.17
695.579	0.22
695.761	0.13
695.943	0.07
696.125	0.25
696.308	0.25
696.49	0.07
696.671	0.28
696.853	0.18
697.035	0.38
697.217	0.14
697.399	0.19
697.581	0.08
697.763	0.17
697.945	0.16
698.127	0.15
698.309	0.05
698.491	0.17
698.672	0.24
698.854	0.23
699.036	0.25
699.218	0.11
699.399	0.2
699.581	0.19
699.763	0.13
699.945	0.11
700.126	0.13
700.308	0.2
700.49	0.15
700.671	0.01
700.853	0.17
701.035	0.12
701.216	0.17
701.398	0.09
701.579	0.16
701.761	0.23
701.943	0.04
702.124	0.1
702.306	0.13
702.487	0.27
702.669	0.17
702.85	0.1
703.031	0.04
703.213	0.25
703.394	0.17
703.576	0.14
703.757	0.19
703.938	0.19
704.12	0.3
704.301	0.13
704.483	-0.02
704.664	0.15
704.845	0.21
705.026	0.19
705.208	0.18
705.389	0.13
705.57	0.15
705.751	0.04
705.933	0.13
706.114	0.14
706.295	0.17
706.476	0.07
706.657	0.21
706.838	0.13
707.02	0.18
707.201	0.12
707.382	0.14
707.563	0.1
707.744	0.07
707.925	0.02
708.106	0.09
708.287	0.06
708.468	0.25
708.649	0.14
708.83	0.18
709.011	0.09
709.192	0.12
709.373	0.05
709.554	0.11
709.734	0.19
709.915	0.19
710.096	0.11
710.277	0.03
710.458	0.12
710.639	0.16
710.819	0.05
711	0.09
711.181	0.18
711.362	0.11
711.542	0.12
711.723	0.1
711.904	0.17
712.085	0.14
712.265	0.07
712.446	0.03
712.627	0.05
712.807	0.05
712.988	0.11
713.168	-0.01
713.349	0.16
713.53	-0.02
713.71	0.07
713.891	0.11
714.071	0.12
714.252	0.12
714.432	0.05
714.613	0.04
714.793	0.12
714.974	0.21
715.154	0.17
715.334	0.15
715.515	0.22
715.695	0.03
715.876	0.07
716.056	0.13
716.236	0.07
716.417	0.11
716.597	0.01
716.777	0.27
716.957	0.17
717.138	0.13
717.318	0.1
717.498	0.11
717.678	0.12
717.859	0.09
718.039	0.05
718.219	0.1
718.399	0.18
718.579	0.04
718.759	0.02
718.939	0.12
719.12	0.06
719.3	0.13
719.48	-0.03
719.66	0
719.84	0.16
720.02	0.11
720.2	0.08
720.38	0.09
720.56	0.13
720.74	0.06
720.92	0.1
721.1	0.23
721.279	0.17
721.459	0.12
721.639	-0.01
721.819	0.14
721.999	0.09
722.179	0.2
722.359	0.07
722.538	0.13
722.718	0.07
722.898	0.08
723.078	0.1
723.257	0.04
723.437	0.17
723.617	0.06
723.797	0.06
723.976	0.02
724.156	0.08
724.336	0.17
724.515	0.22
724.695	-0.03
724.874	-0.01
725.054	0.06
725.234	-0.02
725.413	0.13
725.593	0.05
725.772	0.04
725.952	0.12
726.131	0.05
726.311	0.11
726.49	0.09
726.67	0.02
726.849	0.01
727.028	0.09
727.208	0.08
727.387	0.09
727.567	0.02
727.746	0.1
727.925	0.08
728.105	0
728.284	0.06
728.463	-0.18
728.643	0.18
728.822	0.04
729.001	-0.03
729.18	0.11
729.359	0.17
729.539	0.05
729.718	0.12
729.897	0.13
730.076	0.01
730.255	0.02
730.434	0.11
730.614	0.14
730.793	0.13
730.972	0.02
731.151	0.11
731.33	0.2
731.509	0.15
731.688	0.04
731.867	0.08
732.046	-0.05
732.225	0.28
732.404	-0.01
732.583	0.01
732.762	0.13
732.941	0.23
733.12	0.14
733.298	0.03
733.477	0.2
733.656	0.13
733.835	-0.05
734.014	0.15
734.193	0.08
734.371	0.09
734.55	0.18
734.729	0
734.908	0.14
735.086	0.16
735.265	0.19
735.444	-0.03
735.623	-0.08
735.801	-0.05
735.98	0.04
736.159	0.08
736.337	0.12
736.516	0.09
736.694	0.14
736.873	0.06
737.052	0.16
737.23	0.23
737.409	0.08
737.587	0.2
737.766	-0.07
737.944	0.05
738.123	0.08
738.301	0.22
738.479	0.03
738.658	0.17
738.836	-0.14
739.015	0.12
739.193	0.24
739.371	0.04
739.55	0.02
739.728	0.06
739.906	0.18
740.085	0.18
740.263	-0.02
740.441	0.02
740.62	0.17
740.798	0.08
740.976	0.04
741.154	-0.03
741.332	0.29
741.511	0.02
741.689	0.08
741.867	0.13
742.045	0.13
742.223	0.14
742.401	-0
742.579	0.02
742.757	0.17
742.935	-0.03
743.114	0.09
743.292	-0.01
743.47	0.11
743.648	0.05
743.826	0.12
744.004	0.17
744.181	0.18
744.359	0.03
744.537	0.16
744.715	-0.02
744.893	0.1
745.071	0.11
745.249	0.13
745.427	0.1
745.605	0.16
745.782	0.13
745.96	0.07
746.138	0.15
746.316	0.12
746.493	0.05
746.671	0.1
746.849	0.07
747.027	0.29
747.204	-0.03
747.382	0.3
747.56	-0.09
747.737	0.16
747.915	0.01
748.093	0.08
748.27	0.02
748.448	0.05
748.625	0.01
748.803	0.02
748.98	0.07
749.158	0.09
749.335	0.16
749.513	0.1
749.69	0.04
749.868	-0
750.045	0.05
750.223	0.02
750.4	-0.12
750.578	0.22
750.755	0.04
750.932	-0.09
751.11	0.23
751.287	-0.05
751.464	0.2
751.642	0.02
751.819	0.06
751.996	0.11
752.173	-0.01
752.351	-0.03
752.528	0.18
752.705	0.08
752.882	-0.06
753.06	0.04
753.237	0.16
753.414	0.26
753.591	0.29
753.768	0.1
753.945	0.05
754.122	-0.02
754.299	0.03
754.476	0.01
754.654	0.05
754.831	0.13
755.008	0.05
755.185	0.09
755.362	-0.05
755.539	0.12
755.716	-0.08
755.892	0.03
756.069	-0.03
756.246	0.07
756.423	0.13
756.6	0.13
756.777	0.03
756.954	0.09
757.131	0.1
757.307	0.02
757.484	-0.11
757.661	0.16
757.838	0.1
758.015	0.01
758.191	0.19
758.368	0.1
758.545	0.25
758.721	0.14
758.898	0.02
759.075	0.14
759.251	0.15
759.428	0.11
759.605	0.01
759.781	0.09
759.958	0.17
760.134	0.18
760.311	0.02
760.488	0.12
760.664	0.18
760.841	0.06
761.017	-0.09
761.194	0.02
761.37	0.17
761.547	0.02
761.723	0.1
761.899	0.15
762.076	-0.02
762.252	-0.12
762.429	0.09
762.605	0.21
762.781	0.02
762.958	0.1
763.134	0.02
763.31	0.04
763.486	0.23
763.663	0.03
763.839	0.1
764.015	-0.04
764.191	-0.1
764.368	-0.02
764.544	0.07
764.72	0.2
764.896	0.05
765.072	0.17
765.248	0.1
765.425	0.01
765.601	0.07
765.777	0.12
765.953	-0.12
766.129	0.14
766.305	-0.04
766.481	0.14
766.657	0.09
766.833	0.33
767.009	-0.09
767.185	0.1
767.361	0.1
767.537	0.02
767.713	0.28
767.889	-0.04
768.065	0.03
768.24	0.06
768.416	0.14
768.592	0.01
768.768	0.07
768.944	0.09
769.12	-0.04
769.295	0.09
769.471	0.1
769.647	0.02
769.823	0.34
769.998	-0.04
770.174	0.16
770.35	0.33
770.525	0.41
770.701	0.08
770.877	0.12
771.052	-0.03
771.228	0.08
771.403	0.14
771.579	0.17
771.755	0.39
771.93	0.05
772.106	0.03
772.281	-0.16
772.457	0.1
772.632	0.23
772.808	0.05
772.983	0
773.159	0.02
773.334	0.28
773.509	0.26
773.685	-0
773.86	0.37
774.036	0.2
774.211	0.04
774.386	-0.02
774.562	0.01
774.737	0.19
774.912	0.03
775.087	0.15
775.263	0.04
775.438	0.11
775.613	0.01
775.788	0.03
775.964	0.28
776.139	0.41
776.314	-0.03
776.489	0.18
776.664	0.18
776.839	-0
777.014	0.2
777.19	0.29
777.365	0.26
777.54	0.28
777.715	0.08
777.89	0.11
778.065	-0.02
778.24	0.06
778.415	0.26
778.59	-0.06
778.765	0.15
778.94	0.12
779.115	0.03
779.289	-0.07
779.464	0.02
779.639	0.06
779.814	-0.08
779.989	-0.08
780.164	0.16
780.339	0.23
780.513	-0.11
780.688	-0.05
780.863	0.04
781.038	0.07
781.212	-0.05
781.387	0.17
781.562	0.61
781.737	-0.04
781.911	0.45
782.086	-0.01
782.261	0.1
782.435	0.33
782.61	-0.08
782.784	0.01
782.959	0.37
783.134	0.01
783.308	-0.04
783.483	0.1
783.657	0.36
783.832	0.18
784.006	-0.16
784.181	0.19
784.355	0.08
784.53	-0.11
784.704	-0.15
784.878	0.4
785.053	0.17
785.227	0.31
785.402	0.54
785.576	0.02
785.75	0.2
785.925	0.06
786.099	0.15
786.273	0.23
786.448	0.2
786.622	0.35
786.796	0.15
786.97	0.04
787.145	0.62
787.319	-0.31
787.493	-0.12
787.667	-0.23
787.841	0.2
788.015	0.3
788.19	-0
788.364	0.08
788.538	0.21
788.712	0.26
788.886	0.06
789.06	0.25
789.234	0.02
789.408	-0.08
789.582	-0.04
789.756	0.05
789.93	-0.03
790.104	0.08
790.278	0.03
790.452	-0.1
790.626	0.47
790.8	-0.04
790.973	0.25
791.147	0.62
791.321	0.32
791.495	0.17
791.669	0.13
791.843	0.36
792.016	0.16
792.19	0.34
792.364	0.09
792.538	0.57
792.711	0.33
792.885	0.05
793.059	-0.12
793.233	-0.42
793.406	0.33
793.58	0.07
793.754	0.36
793.927	0.06
794.101	0.29
794.274	0.24
794.448	0.28
794.622	-0.06
794.795	0.38
794.969	-0
795.142	0.41
795.316	0.24
795.489	0.28
795.663	0.4
795.836	-0.02
796.009	-0.04
796.183	0.41
796.356	0.18
796.53	0.25
796.703	0.17
796.876	0.78
797.05	0.12
797.223	0.09
797.396	0.21
797.57	0.13
797.743	0.51
797.916	0.25
798.09	0.35
798.263	0.37
798.436	0.25
798.609	0.22
798.782	0.21
798.956	0.1
799.129	0.08
799.302	0.01
799.475	0.18
799.648	0.05
799.821	0.02
799.994	0.08
800.167	-0.16
800.34	0.14
800.514	0.26
800.687	0.08
800.86	0.01
801.033	-0.06
801.206	0.37
801.379	0.1
801.551	0.33
801.724	0.22
801.897	0.52
802.07	-0.11
802.243	-0.09
802.416	0.06
802.589	-0.24
802.762	0.47
802.935	-0.02
803.107	0.22
803.28	0.65
803.453	0.39
803.626	0.02
803.798	-0.05
803.971	-0.07
804.144	0.24
804.317	0.02
804.489	0.29
804.662	0.22
804.835	0.06
805.007	-0.05
805.18	0.45
805.353	0.12
805.525	-0.03
805.698	0.3
805.87	0.55
806.043	0.57
806.215	0.04
806.388	0.19
806.56	0.2
806.733	0.32
806.905	0.34
807.078	-0.05
807.25	-0.2
807.423	0.32
807.595	0.46
807.768	0.08
807.94	0.67
808.112	0.38
808.285	0.1
808.457	0
808.629	0.18
808.802	0.59
808.974	0.16
809.146	-0.04
809.318	0.02
809.491	0.2
809.663	0.24
809.835	0.04
810.007	0.04
810.18	0.31
810.352	-0.03
810.524	-0.33
810.696	0.36
810.868	0.37
811.04	0.17
811.212	-0.15
811.384	0.43
811.556	0.06
811.728	0.31
811.901	0.92
812.073	0.18
812.245	-0.18
812.417	0.42
812.589	-0.46
812.76	0.54
812.932	0.46
813.104	0.29
813.276	-0.09
813.448	0.35
813.62	0.23
813.792	0.49
813.964	0.02
814.136	0.55
814.307	0.32
814.479	-0.12
814.651	-0.1
814.823	0.89
814.995	-0.13
815.166	0
815.338	-0.27
815.51	-0.39
815.681	0.74
815.853	0.31
816.025	0.24
816.196	0.53
816.368	0.29
816.54	-0.42
816.711	-0.1
816.883	0.31
817.054	0.49
817.226	-0.13
817.398	-0.11
817.569	-0.16
817.741	0.42
817.912	-0.06
818.084	0.14
818.255	0.79
818.426	0.26
818.598	0.07
818.769	-0.17
818.941	0.48
819.112	0.45
819.283	0.62
819.455	0.02
819.626	0.1
819.798	0.23
819.969	0.19
820.14	0.02
820.311	0.56
820.483	0.38
820.654	0.69
820.825	0.2
820.996	-0.2
821.168	-0.38
821.339	0.11
821.51	-0.37
821.681	-0.19
821.852	0.56
822.023	-0.18
822.195	0.03
822.366	0.42
822.537	0.49
822.708	0.23
822.879	-0.37
823.05	0.82
823.221	0.37
823.392	0.59
823.563	0.54
823.734	0.09
823.905	-0.35
824.076	0.07
824.247	-0.07
824.418	-0.67
824.589	0.52
824.759	0.44
824.93	0.47
825.101	-0.18
825.272	0.29
825.443	0.91
825.614	0.83
825.784	-0.84
825.955	1.09
826.126	0.98
826.297	0.55
826.467	0.41
826.638	1
826.809	-0.29
826.98	0.56
827.15	1.35
827.321	0.39
827.492	0.93
827.662	0.16
827.833	0.82
828.003	0.83
828.174	-0.38
828.345	-0.04
828.515	0.39
828.686	0.61
828.856	0.19
829.027	0.38
829.197	0.99
829.368	0.4
829.538	0.28
829.709	0
829.879	0.34
830.049	0.34
830.22	-0.05
830.39	0.56
830.56	0.7
830.731	0.37
830.901	-0.04
831.072	0.28
831.242	0.56
831.412	0.56
831.582	0.32
831.753	-0.3
831.923	0.74
832.093	0.27
832.263	0.29
832.434	-0.89
832.604	0.54
832.774	0.8
832.944	0.25
833.114	-0.42
833.284	0.5
833.454	-0.26
833.624	0.16
833.795	0.11
833.965	0.95
834.135	1.29
834.305	-0.52
834.475	-0.35
834.645	0.24
834.815	-0.45
834.985	-0.16
835.155	-0.5
835.325	0.63
835.494	0.56
835.664	0.06
835.834	-0.25
836.004	0.7
836.174	0.61
836.344	0.8
836.514	-0.66
836.684	0.22
836.853	0.99
837.023	0.15
837.193	0.27
837.363	0.46
837.532	0.83
837.702	-0.22
837.872	0.09
838.041	1.06
838.211	0.99
838.381	-0.63
838.55	0.5
838.72	1.91
838.89	1.01
839.059	0.35
839.229	-0.08
839.398	1.57
839.568	0.47
839.738	0.21
839.907	1.09
840.077	0.65
840.246	0.07
840.416	0.17
840.585	-0.18
840.755	1.79
840.924	1.1
841.093	0.01
841.263	0.07
841.432	0.56
841.602	-0.05
841.771	0.11
841.94	0.82
842.11	2.14
842.279	1.35
842.448	0.3
842.617	-0.07
842.787	1.66
842.956	0.49
843.125	0.18
843.294	0.18
843.464	1.22
843.633	-0.14
843.802	-1.02
843.971	0.29
844.14	1.29
844.309	0.28
844.479	-0.26
844.648	-0.52
844.817	0.33
844.986	0.25
845.155	-0.22
845.324	0.2
845.493	0.34
845.662	-0.11
845.831	0.76
846	0.53
846.169	0.05
846.338	1.72
846.507	-0.1
846.676	1.16
846.844	0.56
847.013	0.44
847.182	-0.33
847.351	0.02
847.52	0.51
847.689	0.39
847.858	0.4
848.026	-0.25
848.195	-0.06
848.364	0.51
848.533	0.62
848.701	-0.29
848.87	-0.94
849.039	1.43
849.207	0.27
849.376	1.85
849.545	1.48
849.713	-0.44
849.882	0.13
850.051	0.86
850.219	0.74
850.388	1.69
850.556	-0.39
850.725	-0.15
850.893	0.97
851.062	0.04
851.23	1.68
851.399	-0.59
851.567	-0.58
851.736	-0.37
851.904	-0.39
852.073	0.45
852.241	0.57
852.41	0.69
852.578	0.97
852.746	-0.59
852.915	1.15
853.083	-0.08
853.251	-0.29
853.42	-0.69
853.588	0.5
853.756	1.26
853.924	0.17
854.093	0.79
854.261	0.51
854.429	-0.93
854.597	0.36
854.765	-1.13
854.934	1.02
855.102	1.02
855.27	1.31
855.438	0.52
855.606	1.8
855.774	0.05
855.942	-0.63
856.11	-1.41
856.278	0.57
856.446	1.67
856.614	1.15
856.782	0.39
856.95	1.78
857.118	1.78
857.286	1.3
857.454	-0.78
857.622	1.54
857.79	0.77
857.958	-1
858.126	0.71
858.294	-1.02
858.462	0.85
858.629	0.63
858.797	-1.01
858.965	0.41
859.133	0.75
859.301	0.26
859.468	0.43
859.636	-0.19
859.804	2.22
859.971	-0.03
860.139	-0.8
860.307	2.09
860.474	1.18
860.642	0.39
860.81	0.15
860.977	0.05
861.145	0.95
861.313	0.63
861.48	-0.79
861.648	1.7
861.815	0.72
861.983	-0.36
862.15	0.44
862.318	1.55
862.485	1.93
862.653	-0.45
862.82	-1.16
862.988	2.1
863.155	1.55
863.322	-0.26
863.49	-1.88
863.657	0.2
863.824	1.36
863.992	1.65
864.159	1.12
864.326	0.68
864.494	0.99
864.661	3.63
864.828	-0.5
864.996	1.48
865.163	2.45
865.33	0.05
865.497	-0.85
865.664	0.26
865.832	-0.64
865.999	0.04
866.166	-2.01
866.333	-0.06
866.5	-0.06
866.667	0.81
866.834	0.52
867.001	0.62
867.168	-0.57
867.335	0.26
867.502	0.01
867.669	0.15
867.836	4.22
868.003	0.25
868.17	0.85
868.337	-0.65
868.504	3.28
868.671	-1.41
868.838	-0.92
869.005	0.48
869.172	1.27
869.339	0.39
869.505	0.93
869.672	0.58
869.839	2.25
870.006	1.34
870.173	-0.92
870.339	1.43
870.506	4.39
870.673	0.55
870.84	1.15
871.006	2.5
871.173	0.35
871.34	-0.11
871.506	0.86
871.673	1.38
871.839	-1.96
872.006	0.05
872.173	0.72
872.339	1.23
872.506	2.08
872.672	-0.14
872.839	0.26
873.005	2.4
873.172	3.35
873.338	1.97
873.505	1.12
873.671	0.55
873.838	0.78
874.004	-1.11
874.171	1.02
874.337	1.09
874.503	1.53
874.67	-0.19
874.836	-0.66
875.002	2.81
875.169	2.27
875.335	0.35
875.501	0.21
875.668	1.37
875.834	0.53
876	1.21
876.166	1.71
876.332	0.63
876.499	3.25
876.665	0.99
876.831	1.24
876.997	2.07
877.163	1.28
877.329	-0.39
877.495	0.71
877.662	1.85
877.828	0.8
877.994	0.97
878.16	-1.61
878.326	-0.37
878.492	1.46
878.658	-0.98
878.824	2.91
878.99	2.43
879.156	0.29
879.322	3.51
879.487	-0.62
879.653	-0.02
879.819	-1.07
879.985	-0.45
880.151	1.36
880.317	0.97
880.483	1.27
880.648	4.14
880.814	1.12
880.98	2.13
881.146	-1.94
881.312	0.15
881.477	-0.87
881.643	1.26
881.809	3.33
881.974	1.75
882.14	-1.22
882.306	0.96
882.471	4.63
882.637	-0.89
882.803	1.01
882.968	2.99
883.134	3.68
883.299	2.2
883.465	0.52
883.63	1.82
883.796	0.46
883.961	1.62
884.127	0.57
884.292	-2.9
884.458	0.5
884.623	0.49
