Data from Apollo_Calib_20240827__AbsoluteIrradiance__682__10-31-00-807.txt Node

Date: Wed Aug 28 10:31:00 BST 2024
User: biology
Spectrometer: FLMT08252
Trigger mode: 0
Integration Time (sec): 5.000000E-1
Scans to average: 5
Electric dark correction enabled: true
Nonlinearity correction enabled: false
Boxcar width: 0
XAxis mode: Wavelengths
Number of Pixels in Spectrum: 3648
>>>>>Begin Spectral Data<<<<<
179.588	-0
179.809	-0
180.03	-0
180.251	-0
180.473	-0
180.694	0
180.915	0
181.136	0
181.357	0
181.578	0
181.799	0
182.02	-0
182.241	-0
182.462	-0
182.683	0
182.904	-0
183.125	-0
183.346	0
183.567	0
183.788	0
184.009	-0
184.23	0
184.451	0
184.672	-0
184.892	0
185.113	0
185.334	0
185.555	0
185.776	0
185.996	0
186.217	0
186.438	0
186.659	0
186.879	0
187.1	0
187.321	-0
187.541	0
187.762	0
187.983	0
188.203	0
188.424	0
188.644	0
188.865	0
189.086	0
189.306	0
189.527	0
189.747	0
189.968	0
190.188	0
190.409	0
190.629	0
190.849	0
191.07	-0
191.29	0
191.511	0
191.731	-0
191.951	-0
192.172	0
192.392	0
192.612	-0
192.833	0
193.053	0
193.273	0
193.493	0
193.714	0
193.934	0
194.154	0
194.374	0
194.594	0
194.815	0
195.035	0
195.255	0
195.475	-0
195.695	0
195.915	0
196.135	0
196.355	0
196.575	0
196.795	0
197.015	0
197.235	-0
197.455	0
197.675	0
197.895	0
198.115	0
198.335	0
198.555	-0
198.775	0
198.995	0
199.214	0
199.434	0
199.654	-0
199.874	0
200.094	1.15
200.313	0.2
200.533	-0.02
200.753	-0.29
200.973	1.55
201.192	0.7
201.412	-0.24
201.632	0.51
201.851	1.69
202.071	-0.07
202.291	0.22
202.51	-0.58
202.73	0.57
202.95	0.37
203.169	0.4
203.389	0.31
203.608	0.68
203.828	0.33
204.047	0.38
204.267	0.29
204.486	0.38
204.706	0.47
204.925	0.42
205.145	-0.1
205.364	0.75
205.583	0.62
205.803	-0.08
206.022	-0.01
206.242	0.6
206.461	0.64
206.68	0.18
206.9	0.46
207.119	0.44
207.338	0.68
207.557	0.03
207.777	-0.13
207.996	-0.09
208.215	0.57
208.434	-0.1
208.654	0.09
208.873	0.56
209.092	0.84
209.311	0.27
209.53	0.3
209.749	0.2
209.968	0.09
210.187	-0.05
210.407	-0.09
210.626	0.19
210.845	0.52
211.064	0.44
211.283	-0.24
211.502	0.36
211.721	0.14
211.94	0.15
212.159	0.35
212.377	0.49
212.596	0.52
212.815	0.18
213.034	0.28
213.253	0.46
213.472	0.41
213.691	-0.16
213.91	-0.12
214.128	-0
214.347	0.5
214.566	-0.09
214.785	0.05
215.003	0.49
215.222	0.18
215.441	0.25
215.66	-0.12
215.878	0.07
216.097	0.37
216.316	-0.08
216.534	0.08
216.753	0.21
216.972	0.1
217.19	0.16
217.409	0.04
217.627	0.09
217.846	-0.03
218.064	0.11
218.283	-0
218.501	0.53
218.72	0.41
218.938	0.07
219.157	0.08
219.375	0.41
219.594	0.1
219.812	-0.02
220.031	-0.02
220.249	0.31
220.467	0.37
220.686	0.04
220.904	-0.1
221.122	0.04
221.341	0.37
221.559	0.23
221.777	-0.05
221.995	0.11
222.214	0.25
222.432	0.02
222.65	0.37
222.868	0.17
223.086	0.12
223.305	0.21
223.523	0.06
223.741	0.37
223.959	0.04
224.177	-0.1
224.395	-0.07
224.613	0.24
224.831	0.27
225.049	0.03
225.267	0
225.485	0.14
225.703	0.11
225.921	0.05
226.139	0.06
226.357	0.3
226.575	0.14
226.793	0.06
227.011	0.48
227.229	0.17
227.447	0.31
227.665	0.17
227.883	-0.05
228.1	0.19
228.318	0.22
228.536	-0.05
228.754	-0.12
228.972	0.19
229.189	0.27
229.407	0.06
229.625	0.05
229.843	0.25
230.06	0.18
230.278	0.09
230.496	0.12
230.713	0.21
230.931	0.27
231.149	-0.02
231.366	-0.09
231.584	0.14
231.801	0.44
232.019	0.12
232.236	-0.06
232.454	0.06
232.671	0.23
232.889	0.05
233.106	-0.02
233.324	0.12
233.541	0.13
233.759	0.13
233.976	0.09
234.194	0.14
234.411	0.04
234.628	-0.06
234.846	0.03
235.063	0.06
235.28	0.07
235.498	0.13
235.715	-0.07
235.932	0.13
236.149	0.11
236.367	-0.02
236.584	0.09
236.801	0.05
237.018	0.23
237.236	0.22
237.453	-0.11
237.67	0.21
237.887	0.1
238.104	0.08
238.321	0.04
238.538	0.04
238.755	0.26
238.973	-0.04
239.19	0.07
239.407	0.17
239.624	0.17
239.841	-0.01
240.058	0.04
240.275	0.17
240.492	0.07
240.709	0.09
240.925	0.07
241.142	0.1
241.359	-0.04
241.576	-0.05
241.793	0.09
242.01	0.12
242.227	0.29
242.444	0.14
242.66	0.12
242.877	0.08
243.094	0.08
243.311	0.13
243.527	0.07
243.744	0.14
243.961	0.18
244.178	0.04
244.394	-0.04
244.611	0.15
244.828	0.27
245.044	-0.02
245.261	0.07
245.477	0.07
245.694	0.14
245.911	0.03
246.127	0.1
246.344	0.12
246.56	0.06
246.777	0.03
246.993	0.06
247.21	0.1
247.426	0.16
247.643	0.02
247.859	0.04
248.076	0.04
248.292	0.2
248.508	0.05
248.725	0.09
248.941	0.09
249.157	0.26
249.374	0.02
249.59	0.14
249.806	0.04
250.023	0.13
250.239	0
250.455	-0.03
250.671	0.07
250.888	0.14
251.104	0.12
251.32	0.05
251.536	0.12
251.752	0.08
251.969	0.01
252.185	0.02
252.401	0.24
252.617	0.07
252.833	0
253.049	0.08
253.265	0.07
253.481	0.11
253.697	0.05
253.913	-0.02
254.129	0.12
254.345	0.08
254.561	0.04
254.777	0.1
254.993	0.14
255.209	0.09
255.425	0.06
255.641	0.01
255.857	0.09
256.073	0.09
256.288	0.02
256.504	-0.02
256.72	0.1
256.936	0.13
257.152	0.08
257.367	-0.02
257.583	0.15
257.799	0.1
258.015	0.07
258.23	-0.02
258.446	0.19
258.662	0.07
258.877	-0.05
259.093	0.03
259.309	0.08
259.524	0.11
259.74	0.03
259.955	-0.01
260.171	0.13
260.387	0.04
260.602	0.07
260.818	0.14
261.033	-0.04
261.249	0.06
261.464	0.04
261.68	-0
261.895	0.1
262.11	0.17
262.326	0.02
262.541	0.01
262.757	0.19
262.972	0.07
263.187	-0
263.403	0.05
263.618	0.15
263.833	0.06
264.049	-0
264.264	0.09
264.479	0.08
264.694	0.2
264.91	0.02
265.125	0.05
265.34	0.17
265.555	0.14
265.77	0.05
265.986	-0.01
266.201	0.18
266.416	0.15
266.631	0.05
266.846	0.12
267.061	0.11
267.276	0.11
267.491	-0.05
267.706	0.07
267.921	0.08
268.136	0.1
268.351	0.09
268.566	-0.04
268.781	0.22
268.996	0.12
269.211	0.1
269.426	-0.02
269.641	0.07
269.856	0.09
270.071	-0.01
270.285	-0
270.5	0.13
270.715	0.08
270.93	0.11
271.145	0.02
271.359	0.16
271.574	-0.04
271.789	0.04
272.004	0.01
272.218	0.03
272.433	0.12
272.648	-0
272.862	0.1
273.077	-0
273.292	0.1
273.506	0
273.721	0.04
273.936	0.08
274.15	0.16
274.365	0.08
274.579	0.08
274.794	0.13
275.008	0.19
275.223	-0.01
275.437	0.09
275.652	0.11
275.866	0.16
276.081	0.04
276.295	0.1
276.509	0.09
276.724	0.03
276.938	0.1
277.153	0.13
277.367	0.17
277.581	0.04
277.796	0.01
278.01	-0.01
278.224	0.12
278.438	0.2
278.653	-0.01
278.867	0.03
279.081	-0.07
279.295	0.02
279.51	0.12
279.724	0.02
279.938	0.1
280.152	0.04
280.366	0.04
280.58	0.1
280.794	0.12
281.008	0.07
281.222	0.13
281.437	0.16
281.651	0.09
281.865	0.11
282.079	0.03
282.293	0.01
282.507	0.01
282.721	0.07
282.935	0.04
283.148	-0.04
283.362	0.06
283.576	-0.04
283.79	0.11
284.004	0.09
284.218	0.08
284.432	-0.01
284.646	0.03
284.859	0.04
285.073	0.06
285.287	0.07
285.501	0.09
285.714	-0.01
285.928	0.06
286.142	0.03
286.356	-0.01
286.569	0.05
286.783	0.09
286.997	0.1
287.21	0.06
287.424	0.07
287.637	0.06
287.851	0.04
288.065	0.06
288.278	0.01
288.492	0.01
288.705	0.02
288.919	0.09
289.132	-0.02
289.346	0.12
289.559	-0.03
289.773	-0.03
289.986	0.05
290.2	0.04
290.413	0.06
290.626	0.03
290.84	0.02
291.053	0.02
291.267	0.11
291.48	0.06
291.693	0.07
291.906	-0.03
292.12	0.03
292.333	0.02
292.546	0.05
292.76	0.16
292.973	0.09
293.186	0.06
293.399	0.04
293.612	0.1
293.826	0.08
294.039	0.07
294.252	0.04
294.465	0.06
294.678	0.07
294.891	0.1
295.104	0.01
295.317	0.01
295.53	0.05
295.743	0.04
295.956	0.03
296.169	0.13
296.382	0.1
296.595	0.05
296.808	0.04
297.021	0.14
297.234	0.09
297.447	0.05
297.66	0.09
297.873	0.13
298.086	0.07
298.299	0.01
298.511	0.01
298.724	-0.01
298.937	0
299.15	0.03
299.363	0.05
299.575	0.08
299.788	0.07
300.001	0.04
300.213	-0.02
300.426	0.01
300.639	0.02
300.852	0.01
301.064	0.11
301.277	0.14
301.489	0.07
301.702	0.08
301.915	0.06
302.127	0.05
302.34	0.07
302.552	0.08
302.765	0.03
302.977	0.09
303.19	0
303.402	0.04
303.615	0.07
303.827	0
304.04	0.03
304.252	0.08
304.464	0.01
304.677	0.14
304.889	0.08
305.102	-0.01
305.314	0.05
305.526	0.12
305.739	0.08
305.951	0.03
306.163	0.02
306.375	0.13
306.588	0.03
306.8	-0.01
307.012	-0.01
307.224	0.04
307.436	0.1
307.649	-0.04
307.861	0.06
308.073	0.05
308.285	0.01
308.497	-0.01
308.709	0.07
308.921	0.03
309.133	0.07
309.346	0.03
309.558	0
309.77	0.07
309.982	0.1
310.194	0.06
310.406	0.04
310.617	0.12
310.829	0.05
311.041	0.08
311.253	-0
311.465	0.01
311.677	0.01
311.889	0.04
312.101	0.06
312.313	0.09
312.524	0.08
312.736	-0.01
312.948	0.05
313.16	0.11
313.372	0.08
313.583	0.06
313.795	0.02
314.007	0.02
314.218	0.05
314.43	0.01
314.642	-0.01
314.853	-0.02
315.065	0.05
315.277	0.02
315.488	0.05
315.7	0.09
315.912	0.04
316.123	-0
316.335	0.03
316.546	0.14
316.758	0.02
316.969	-0
317.181	0.04
317.392	0.06
317.604	0.08
317.815	-0.04
318.026	0.03
318.238	-0
318.449	0.04
318.661	-0.02
318.872	0.03
319.083	-0.02
319.295	0.05
319.506	0.02
319.717	0.06
319.929	0.05
320.14	0.01
320.351	0.05
320.562	-0.01
320.774	0.04
320.985	0.03
321.196	0.02
321.407	-0.03
321.618	0.06
321.829	0.01
322.041	0.07
322.252	0.07
322.463	0.04
322.674	0.03
322.885	0.01
323.096	0.04
323.307	-0.01
323.518	0.04
323.729	0.01
323.94	0.03
324.151	0.04
324.362	0.03
324.573	0.04
324.784	0.02
324.995	0.09
325.206	0.05
325.417	0.03
325.628	0.03
325.838	0.06
326.049	0.04
326.26	0.01
326.471	0.03
326.682	0.05
326.892	0.05
327.103	-0.06
327.314	-0.03
327.525	0.09
327.735	0
327.946	0.05
328.157	0.02
328.368	0.07
328.578	0.05
328.789	0.03
328.999	0.04
329.21	0.06
329.421	0.04
329.631	-0.01
329.842	0.02
330.052	0.06
330.263	0.06
330.473	0.07
330.684	0.02
330.894	0.04
331.105	0.03
331.315	0.02
331.526	-0.03
331.736	0.09
331.947	0.06
332.157	0.07
332.367	-0.01
332.578	0.08
332.788	0.09
332.999	0.08
333.209	0.07
333.419	-0.02
333.629	0.01
333.84	0.11
334.05	0.05
334.26	0.07
334.47	0.04
334.681	0.11
334.891	0.03
335.101	0.06
335.311	0.07
335.521	0.01
335.732	-0.02
335.942	0.09
336.152	0.05
336.362	0.08
336.572	0.06
336.782	0.08
336.992	0.05
337.202	0.01
337.412	0.01
337.622	0.03
337.832	0.03
338.042	0.02
338.252	0.02
338.462	0.01
338.672	0.06
338.882	0.05
339.092	-0
339.302	0.1
339.511	0.07
339.721	0.04
339.931	0.03
340.141	0.03
340.351	0.08
340.561	0.06
340.77	0.08
340.98	0.05
341.19	0.09
341.4	0.01
341.609	0
341.819	0.01
342.029	-0
342.238	0.01
342.448	0.01
342.658	0.09
342.867	0.07
343.077	0.03
343.286	0.06
343.496	0.05
343.706	0.09
343.915	-0.03
344.125	0.07
344.334	0.06
344.544	0.04
344.753	-0
344.963	0.01
345.172	0.01
345.381	0.03
345.591	0.01
345.8	0.06
346.01	0.11
346.219	0.1
346.428	-0.12
346.638	0.02
346.847	0.05
347.056	0.1
347.266	0.01
347.475	-0.01
347.684	0.09
347.893	0.04
348.103	0.02
348.312	0.04
348.521	-0.01
348.73	0.1
348.94	0.06
349.149	0.04
349.358	0.03
349.567	0.02
349.776	-0.02
349.985	0.05
350.194	0.08
350.403	0.09
350.612	-0.03
350.821	0.02
351.03	-0.01
351.239	-0.03
351.448	0.02
351.657	0.02
351.866	0.06
352.075	0.01
352.284	0.08
352.493	0.01
352.702	0.14
352.911	0.04
353.12	0.08
353.329	0.01
353.538	0.05
353.746	0
353.955	-0
354.164	0.05
354.373	0.04
354.582	0.08
354.79	0.05
354.999	0.06
355.208	0.01
355.416	0.05
355.625	0.02
355.834	0.05
356.042	0.06
356.251	0.02
356.46	0.02
356.668	0.08
356.877	0.1
357.085	0.09
357.294	-0.03
357.503	0.04
357.711	0.08
357.92	0.13
358.128	0.02
358.337	-0.02
358.545	0.05
358.754	-0
358.962	0.08
359.17	0.02
359.379	0.07
359.587	0.05
359.796	-0.01
360.004	0.08
360.212	0.08
360.421	0.07
360.629	0.05
360.837	0.02
361.046	0.08
361.254	0.16
361.462	0.04
361.67	0.05
361.879	-0
362.087	0.08
362.295	0.05
362.503	-0.02
362.711	-0.02
362.92	0.01
363.128	-0.01
363.336	0.02
363.544	0.01
363.752	0.02
363.96	0.04
364.168	-0.01
364.376	0.01
364.584	0.06
364.792	0.09
365	0.04
365.208	0.03
365.416	0.03
365.624	0.06
365.832	0.02
366.04	0.13
366.248	0.04
366.456	0.02
366.664	0.04
366.872	0.02
367.079	0.02
367.287	0.05
367.495	0.07
367.703	0.01
367.911	0.01
368.118	0.03
368.326	0.01
368.534	-0.01
368.742	0.1
368.949	-0.01
369.157	-0
369.365	0.05
369.572	-0.01
369.78	0.04
369.988	0.08
370.195	0.09
370.403	0.05
370.61	0
370.818	0.05
371.026	0.04
371.233	-0.02
371.441	0.04
371.648	0.03
371.856	0.03
372.063	0.05
372.271	0.05
372.478	0.04
372.685	0.01
372.893	0.07
373.1	0.03
373.308	0.02
373.515	0.08
373.722	0.04
373.93	0
374.137	0.08
374.344	0.08
374.552	0.11
374.759	0.03
374.966	0
375.173	0.01
375.381	0.03
375.588	0.03
375.795	0
376.002	0.01
376.209	0.04
376.417	0.02
376.624	-0.02
376.831	0.06
377.038	0.02
377.245	-0.01
377.452	-0.02
377.659	0.04
377.866	0.03
378.073	0.03
378.28	0.02
378.487	0.02
378.694	0.07
378.901	0.04
379.108	0.02
379.315	0.08
379.522	0.13
379.729	0.04
379.936	0.01
380.143	0.05
380.35	0.04
380.557	0.03
380.763	0.03
380.97	0.04
381.177	0.05
381.384	0.08
381.591	-0.02
381.797	0.03
382.004	0.01
382.211	0.01
382.418	0
382.624	0.07
382.831	0.04
383.038	0.04
383.244	0.04
383.451	0.03
383.658	0.07
383.864	0.05
384.071	0
384.277	0.08
384.484	-0.02
384.69	0.06
384.897	-0.01
385.103	0.02
385.31	0.03
385.516	-0.03
385.723	-0.03
385.929	0.05
386.136	0
386.342	0.07
386.549	0.04
386.755	0.09
386.961	0.11
387.168	0.05
387.374	0.04
387.58	0.06
387.787	0.02
387.993	0.07
388.199	-0.03
388.406	-0.02
388.612	0.01
388.818	-0.02
389.024	0.04
389.231	0.06
389.437	0.07
389.643	0.08
389.849	0.03
390.055	0.03
390.261	0.04
390.467	0.07
390.674	0
390.88	0.04
391.086	0.09
391.292	-0.04
391.498	0.04
391.704	-0.01
391.91	0.05
392.116	0.04
392.322	-0.06
392.528	0.04
392.734	0.01
392.94	0.05
393.146	0.02
393.352	0.03
393.557	0
393.763	0.02
393.969	0.04
394.175	0.03
394.381	0.03
394.587	-0
394.792	0.02
394.998	0.06
395.204	0.11
395.41	0.02
395.615	0.06
395.821	0.04
396.027	0.1
396.233	0.02
396.438	0.08
396.644	0.04
396.85	0.05
397.055	0
397.261	0.04
397.466	0.13
397.672	0.02
397.878	0.08
398.083	0.05
398.289	0.03
398.494	0.12
398.7	0.02
398.905	-0.04
399.111	0.12
399.316	-0.01
399.522	0.05
399.727	0.01
399.932	0.03
400.138	0.01
400.343	0.11
400.549	0.05
400.754	0.02
400.959	0.07
401.165	0
401.37	0.04
401.575	0.12
401.78	0.03
401.986	0.04
402.191	-0.01
402.396	-0.02
402.601	0.05
402.807	0.11
403.012	-0.01
403.217	0.05
403.422	0.06
403.627	0.1
403.832	0.03
404.037	0.05
404.243	0.04
404.448	-0.02
404.653	0.01
404.858	0.05
405.063	0.06
405.268	0.02
405.473	0
405.678	0.03
405.883	0.19
406.088	0.07
406.293	-0.04
406.498	-0.01
406.703	0.1
406.907	-0.02
407.112	0.02
407.317	0.05
407.522	0.05
407.727	-0.01
407.932	0.03
408.136	0.05
408.341	0.02
408.546	-0
408.751	0.05
408.956	0
409.16	0.08
409.365	0
409.57	-0.01
409.774	0.04
409.979	0.01
410.184	0.03
410.388	-0.02
410.593	0.1
410.798	0.02
411.002	0.02
411.207	0.02
411.411	0.06
411.616	0.01
411.82	-0.01
412.025	0.03
412.229	0.01
412.434	0.1
412.638	0.04
412.843	0.04
413.047	0.04
413.252	-0.03
413.456	0
413.66	0.06
413.865	0.05
414.069	0.12
414.273	0.01
414.478	0
414.682	0.03
414.886	0.01
415.091	-0.04
415.295	-0.04
415.499	0.05
415.703	0.03
415.908	0
416.112	-0.05
416.316	0.05
416.52	0.02
416.724	0.02
416.929	-0
417.133	0.11
417.337	-0.05
417.541	-0.02
417.745	0.03
417.949	0.03
418.153	0.07
418.357	-0.01
418.561	0.08
418.765	0.02
418.969	0.16
419.173	0.09
419.377	-0.01
419.581	0.08
419.785	-0
419.989	-0.02
420.193	0
420.397	0.04
420.601	0.09
420.804	0.08
421.008	0.01
421.212	0.01
421.416	0.07
421.62	-0.01
421.823	0.02
422.027	0.1
422.231	0.08
422.435	0.01
422.638	0.08
422.842	0.05
423.046	-0.01
423.249	0.07
423.453	0.04
423.657	0.06
423.86	-0.02
424.064	0.02
424.268	0.09
424.471	-0
424.675	0.1
424.878	0.11
425.082	0.05
425.285	0.06
425.489	0.07
425.692	0.01
425.896	-0.03
426.099	0.04
426.303	-0
426.506	-0.03
426.71	0.03
426.913	0.13
427.116	0.04
427.32	-0
427.523	0.02
427.726	0.11
427.93	0.01
428.133	0.02
428.336	0.01
428.54	0.01
428.743	0.04
428.946	0.07
429.149	0.01
429.353	0.06
429.556	0.03
429.759	0.04
429.962	-0.01
430.165	0.07
430.368	0.06
430.571	0
430.775	0.08
430.978	-0.01
431.181	0.08
431.384	0.04
431.587	0.01
431.79	0.02
431.993	0.06
432.196	0.05
432.399	0
432.602	0.07
432.805	0
433.008	0.01
433.211	-0.03
433.414	0.05
433.616	0.06
433.819	0.04
434.022	-0.05
434.225	0.08
434.428	0.02
434.631	0.13
434.833	0.03
435.036	0.05
435.239	0.09
435.442	0.06
435.645	-0.02
435.847	0
436.05	0.06
436.253	-0.02
436.455	0.02
436.658	0.01
436.861	0.11
437.063	0.04
437.266	0.04
437.468	0.04
437.671	0.12
437.874	-0.02
438.076	0.01
438.279	-0.06
438.481	0.01
438.684	-0.03
438.886	0.04
439.089	-0.05
439.291	0.03
439.494	0.07
439.696	0.01
439.899	-0
440.101	0.02
440.303	-0.03
440.506	0.05
440.708	0.09
440.91	0.03
441.113	0
441.315	0.08
441.517	-0.03
441.72	0.06
441.922	-0.03
442.124	-0.03
442.326	0.07
442.529	0.1
442.731	0.01
442.933	0.07
443.135	0.03
443.337	0.01
443.539	0.02
443.742	-0
443.944	0.07
444.146	-0.02
444.348	0.01
444.55	0.02
444.752	0.01
444.954	-0.04
445.156	0.02
445.358	0.02
445.56	0.07
445.762	-0.02
445.964	0
446.166	-0.01
446.368	-0.02
446.57	0.08
446.772	0.06
446.974	0
447.175	0.02
447.377	0.01
447.579	-0.02
447.781	-0.01
447.983	0.07
448.184	-0.01
448.386	0
448.588	-0.08
448.79	0.06
448.991	0
449.193	0.07
449.395	0.03
449.597	0.07
449.798	0.05
450	0.02
450.202	0.02
450.403	-0.01
450.605	0.07
450.806	0.05
451.008	-0.03
451.21	0.03
451.411	0.03
451.613	0.01
451.814	0.04
452.016	0.06
452.217	0.05
452.419	0.03
452.62	0.03
452.821	0.04
453.023	0.13
453.224	0.06
453.426	0.01
453.627	0.07
453.828	0.09
454.03	0.06
454.231	0.02
454.432	0.01
454.634	0.13
454.835	-0.02
455.036	-0.05
455.238	0.1
455.439	0.12
455.64	-0
455.841	-0.06
456.042	0.1
456.244	0.06
456.445	-0.02
456.646	-0
456.847	-0
457.048	0.06
457.249	0.02
457.45	0.24
457.651	-0.04
457.852	0.08
458.054	0.05
458.255	0.06
458.456	0.08
458.657	0.02
458.858	-0.04
459.058	0.05
459.259	0.06
459.46	0.01
459.661	0.01
459.862	0.14
460.063	0.03
460.264	0.05
460.465	-0.03
460.666	0.14
460.866	0.02
461.067	0.01
461.268	0.01
461.469	0
461.67	0.01
461.87	0.01
462.071	0.02
462.272	-0.04
462.473	0.05
462.673	0.06
462.874	-0
463.075	0.07
463.275	0
463.476	0
463.676	0.02
463.877	0.05
464.078	0.01
464.278	-0.02
464.479	0.01
464.679	0.03
464.88	0.06
465.08	0.11
465.281	-0.04
465.481	0.02
465.682	0.04
465.882	0.04
466.083	0.02
466.283	0.01
466.483	0.03
466.684	-0.05
466.884	0.01
467.085	0.02
467.285	0.09
467.485	-0.02
467.686	0.07
467.886	-0.02
468.086	0.02
468.286	0.06
468.487	0.05
468.687	-0.01
468.887	0.02
469.087	0.05
469.287	0
469.488	-0.04
469.688	0.02
469.888	0.07
470.088	0.03
470.288	0.1
470.488	0.02
470.688	0.02
470.888	-0.07
471.088	-0.02
471.288	0.05
471.488	0.07
471.688	0.06
471.888	-0.02
472.088	0.02
472.288	0.05
472.488	-0
472.688	0.02
472.888	0
473.088	0.03
473.288	0.02
473.488	0.04
473.688	0.06
473.887	0.03
474.087	0.01
474.287	0.03
474.487	-0.01
474.687	0.03
474.886	-0.04
475.086	0.01
475.286	0.03
475.486	0.03
475.685	0.02
475.885	0.03
476.085	-0
476.284	0.04
476.484	0.01
476.684	0
476.883	0.09
477.083	0.05
477.282	0.01
477.482	0.09
477.681	0.09
477.881	0
478.08	-0
478.28	-0.02
478.479	0.04
478.679	0.05
478.878	0.02
479.078	-0.02
479.277	-0.01
479.477	0.04
479.676	0.06
479.875	0.02
480.075	-0.03
480.274	0.03
480.473	0.02
480.673	-0.03
480.872	0.05
481.071	0.04
481.271	0.03
481.47	0.01
481.669	-0
481.868	0.03
482.067	-0.01
482.267	-0
482.466	0.01
482.665	0.02
482.864	-0.03
483.063	-0.01
483.262	0.04
483.461	0.07
483.661	0.05
483.86	0
484.059	0.04
484.258	-0.01
484.457	0.01
484.656	0.02
484.855	0.06
485.054	0.01
485.253	-0.04
485.452	-0.02
485.651	-0
485.849	0.01
486.048	-0.04
486.247	-0
486.446	0.01
486.645	-0.02
486.844	0.01
487.043	0
487.241	0.03
487.44	-0.04
487.639	0.01
487.838	0.04
488.037	0.02
488.235	0.05
488.434	0.01
488.633	-0.02
488.831	0.02
489.03	0.03
489.229	0.02
489.427	0.01
489.626	0.03
489.825	0.04
490.023	0
490.222	0.01
490.42	0.05
490.619	0.05
490.817	0.03
491.016	0.01
491.214	0.04
491.413	0.01
491.611	-0
491.81	0.02
492.008	0.01
492.207	0.04
492.405	0.01
492.604	-0.04
492.802	0.02
493	0.01
493.199	-0
493.397	0.02
493.595	0.01
493.794	0.01
493.992	0.04
494.19	0.02
494.388	0.02
494.587	-0.01
494.785	0.01
494.983	-0.02
495.181	-0.01
495.379	0.01
495.578	-0.01
495.776	0.04
495.974	0.01
496.172	0.02
496.37	-0
496.568	-0.01
496.766	-0
496.964	0.04
497.162	0.01
497.36	-0.01
497.558	0.05
497.756	0.02
497.954	0.03
498.152	-0.01
498.35	0.02
498.548	-0.01
498.746	0.02
498.944	-0.02
499.142	0.02
499.34	-0.01
499.538	-0.01
499.736	0.01
499.933	0.05
500.131	0.06
500.329	0.01
500.527	0.04
500.725	0.01
500.922	0.03
501.12	0.01
501.318	-0
501.516	-0.02
501.713	0.02
501.911	0.02
502.109	-0.01
502.306	0.02
502.504	-0.01
502.701	-0
502.899	0.02
503.097	0.06
503.294	0.03
503.492	0
503.689	0.02
503.887	0.03
504.084	0.03
504.282	0.02
504.479	-0.03
504.677	0.03
504.874	-0.02
505.072	0.01
505.269	0.03
505.466	0.04
505.664	0.02
505.861	-0.01
506.059	-0.02
506.256	0.02
506.453	-0
506.651	0.04
506.848	0.04
507.045	0.03
507.242	0.01
507.44	-0.01
507.637	0
507.834	-0
508.031	0.04
508.229	-0.02
508.426	0.02
508.623	0.03
508.82	-0.01
509.017	-0.01
509.214	0.01
509.411	0.02
509.608	-0
509.805	0.01
510.003	-0.01
510.2	-0.02
510.397	0.03
510.594	-0.03
510.791	-0
510.988	0
511.184	0.02
511.381	0.01
511.578	-0
511.775	0.03
511.972	-0
512.169	0.01
512.366	0.02
512.563	0.04
512.76	-0
512.956	0.02
513.153	-0.02
513.35	0.01
513.547	0
513.744	0
513.94	-0.03
514.137	0.02
514.334	0.01
514.53	0
514.727	0.02
514.924	0.07
515.12	-0.03
515.317	-0.03
515.514	0
515.71	0.01
515.907	0
516.103	0.01
516.3	0.03
516.497	0.03
516.693	0.04
516.89	0.03
517.086	-0.01
517.283	0.03
517.479	0.01
517.676	0.02
517.872	0.01
518.068	0.01
518.265	-0
518.461	-0
518.658	-0.02
518.854	0.01
519.05	0.01
519.247	-0.02
519.443	0.02
519.639	0.03
519.836	0.01
520.032	0.02
520.228	-0.01
520.424	0.04
520.621	0.02
520.817	0.01
521.013	0.02
521.209	0.02
521.405	0.05
521.601	0.02
521.798	0
521.994	0.03
522.19	-0
522.386	-0.01
522.582	0.01
522.778	0.01
522.974	-0
523.17	0.01
523.366	0.01
523.562	0.02
523.758	-0
523.954	-0.01
524.15	0.01
524.346	0.02
524.542	-0.01
524.738	-0
524.934	0.01
525.129	0.02
525.325	0.02
525.521	0.01
525.717	0.03
525.913	0.01
526.109	0.05
526.304	0.01
526.5	0.01
526.696	0.03
526.892	-0
527.087	0.01
527.283	0
527.479	0.04
527.674	0
527.87	-0
528.066	0.01
528.261	0.03
528.457	-0.01
528.653	0.01
528.848	0.01
529.044	0.01
529.239	0.01
529.435	0.03
529.63	0.02
529.826	0.06
530.021	0.02
530.217	0.03
530.412	-0.02
530.608	0
530.803	0.02
530.999	-0
531.194	-0.02
531.389	0.01
531.585	-0.04
531.78	0.01
531.975	0.02
532.171	0.03
532.366	-0.01
532.561	0.03
532.757	-0.01
532.952	0.02
533.147	0.02
533.342	-0.01
533.538	0.01
533.733	0.03
533.928	0
534.123	0
534.318	0.01
534.513	0
534.709	0.01
534.904	-0
535.099	-0.01
535.294	0.01
535.489	0.02
535.684	0
535.879	-0.03
536.074	0.02
536.269	-0
536.464	0.04
536.659	-0.01
536.854	-0.01
537.049	0.01
537.244	0.01
537.439	0
537.634	0.04
537.828	0.02
538.023	-0
538.218	-0.01
538.413	-0.01
538.608	-0
538.803	0.04
538.997	-0.02
539.192	0.04
539.387	0.01
539.582	0.01
539.776	0.03
539.971	0
540.166	0
540.36	-0.01
540.555	0.01
540.75	-0.01
540.944	0.01
541.139	-0.01
541.334	-0.02
541.528	0.01
541.723	0.01
541.917	-0.01
542.112	-0.04
542.306	-0.02
542.501	-0.01
542.695	0.02
542.89	-0.02
543.084	0.01
543.279	0.01
543.473	-0
543.668	0.01
543.862	-0.01
544.056	0
544.251	0
544.445	0.02
544.64	-0.02
544.834	-0.01
545.028	0.01
545.222	0.01
545.417	0.01
545.611	0.02
545.805	-0.01
546	0.01
546.194	0.01
546.388	-0
546.582	0.02
546.776	0.01
546.97	0.01
547.165	0.02
547.359	0.02
547.553	-0.01
547.747	0.02
547.941	0.01
548.135	0.01
548.329	-0
548.523	0
548.717	-0.01
548.911	-0.02
549.105	0.02
549.299	0.02
549.493	0.03
549.687	0.01
549.881	0
550.075	0.01
550.269	-0.02
550.463	0.05
550.657	-0.02
550.85	0.02
551.044	-0
551.238	0.02
551.432	-0.02
551.626	-0.02
551.82	0.01
552.013	0.01
552.207	0.02
552.401	0.02
552.594	-0.01
552.788	-0
552.982	0.01
553.176	-0.01
553.369	0.02
553.563	0
553.756	-0.02
553.95	-0.02
554.144	-0.02
554.337	0.03
554.531	0.02
554.724	0
554.918	0.02
555.111	0.04
555.305	0.03
555.498	0.05
555.692	0.03
555.885	-0.01
556.079	0.03
556.272	-0.04
556.466	0.01
556.659	0.02
556.852	0.02
557.046	-0.01
557.239	0.03
557.432	-0.01
557.626	-0.02
557.819	0.03
558.012	0.03
558.206	0.03
558.399	-0.01
558.592	0.01
558.785	-0.01
558.979	0.04
559.172	0.01
559.365	0.02
559.558	0.01
559.751	0.01
559.944	0.02
560.138	0
560.331	0.01
560.524	0
560.717	0
560.91	0.01
561.103	0.03
561.296	0.01
561.489	0.01
561.682	0.01
561.875	0.03
562.068	0.02
562.261	0.02
562.454	0.04
562.647	0.02
562.84	0.04
563.032	-0.01
563.225	0.04
563.418	0.02
563.611	-0
563.804	-0.01
563.997	-0.03
564.19	-0.02
564.382	-0.02
564.575	-0
564.768	-0.01
564.961	0.01
565.153	0
565.346	0.03
565.539	0.03
565.731	0
565.924	0.01
566.117	0.04
566.309	0.02
566.502	0.02
566.695	0
566.887	0.01
567.08	-0.02
567.272	-0.02
567.465	-0
567.657	0.01
567.85	-0.01
568.042	0.01
568.235	0.05
568.427	-0
568.62	0.03
568.812	0.03
569.005	0
569.197	-0.02
569.389	-0.01
569.582	0.02
569.774	0.02
569.966	-0.03
570.159	-0.01
570.351	0.02
570.543	0
570.736	0.01
570.928	-0.02
571.12	0
571.312	-0.01
571.505	-0.05
571.697	0.04
571.889	0.02
572.081	-0
572.273	-0.03
572.465	0.04
572.658	0.01
572.85	0.02
573.042	0.03
573.234	0.02
573.426	0.04
573.618	-0.02
573.81	0.04
574.002	0.04
574.194	0.05
574.386	-0.03
574.578	-0.05
574.77	-0.02
574.962	-0.01
575.154	-0.02
575.346	0
575.538	0.04
575.729	-0.01
575.921	0.01
576.113	-0.01
576.305	0.02
576.497	-0
576.689	-0.01
576.88	-0.01
577.072	0.02
577.264	0.02
577.456	0.01
577.647	-0.05
577.839	-0.01
578.031	0.04
578.223	-0.03
578.414	-0.02
578.606	0.02
578.798	0.03
578.989	-0.01
579.181	0
579.372	0.01
579.564	-0.02
579.755	0.03
579.947	0.01
580.139	0.04
580.33	-0.02
580.522	-0.02
580.713	-0.07
580.905	0.02
581.096	0.03
581.287	0.01
581.479	0.01
581.67	0.04
581.862	0.02
582.053	-0.02
582.244	-0.03
582.436	0
582.627	0.03
582.818	0.01
583.01	-0.04
583.201	0.01
583.392	0.05
583.583	0.01
583.775	-0.01
583.966	-0
584.157	0
584.348	-0
584.54	-0.02
584.731	0
584.922	0
585.113	-0.02
585.304	0.02
585.495	0.05
585.686	0.01
585.877	0.03
586.068	0.02
586.259	0
586.45	-0
586.641	-0.01
586.832	-0.05
587.023	0.01
587.214	0.02
587.405	0.01
587.596	-0.01
587.787	0.04
587.978	0.02
588.169	0.01
588.36	-0.01
588.551	0.04
588.742	-0.02
588.932	0.02
589.123	-0.01
589.314	0.04
589.505	0.02
589.696	-0
589.886	0
590.077	-0.03
590.268	0.01
590.458	-0.04
590.649	-0.02
590.84	0.04
591.03	-0.02
591.221	-0.03
591.412	-0.02
591.602	0.04
591.793	0.04
591.984	-0
592.174	-0.01
592.365	0.04
592.555	-0.01
592.746	0.04
592.936	0.01
593.127	0.02
593.317	0.02
593.508	-0.02
593.698	-0.01
593.889	0.03
594.079	0.02
594.269	-0
594.46	-0.01
594.65	0.02
594.84	0
595.031	-0.01
595.221	-0.01
595.411	-0.04
595.602	0.04
595.792	-0
595.982	-0.01
596.172	0.05
596.363	0.03
596.553	0.03
596.743	0.01
596.933	-0.01
597.123	0.05
597.314	-0
597.504	-0
597.694	0.01
597.884	0.02
598.074	-0.01
598.264	-0
598.454	0.02
598.644	0.03
598.834	0.04
599.024	-0.05
599.214	-0.01
599.404	0.04
599.594	-0
599.784	-0.01
599.974	0.06
600.164	0.06
600.354	-0.02
600.544	-0.04
600.734	0.03
600.924	0.06
601.114	-0
601.303	0.01
601.493	0.01
601.683	0
601.873	0
602.063	-0.02
602.252	0.03
602.442	-0.06
602.632	-0.02
602.821	-0.04
603.011	0.04
603.201	-0.01
603.39	-0.02
603.58	-0.01
603.77	0.03
603.959	0.05
604.149	0.04
604.339	0.01
604.528	0.06
604.718	0.05
604.907	0.01
605.097	0
605.286	-0.03
605.476	0.04
605.665	0.01
605.855	0.01
606.044	0.03
606.234	0.03
606.423	-0.02
606.612	-0.02
606.802	0.02
606.991	0.01
607.181	0.01
607.37	-0.01
607.559	0.01
607.749	-0.01
607.938	0
608.127	-0.01
608.316	-0.01
608.506	0.04
608.695	-0.01
608.884	-0.02
609.073	0.04
609.263	-0.01
609.452	0.05
609.641	0.01
609.83	-0.04
610.019	0.06
610.208	-0.02
610.397	0
610.586	0.03
610.775	-0.01
610.965	0
611.154	-0.02
611.343	0
611.532	0.02
611.721	0.01
611.91	0
612.099	0.03
612.287	0.01
612.476	-0.05
612.665	0.02
612.854	0.02
613.043	0.04
613.232	-0
613.421	-0.03
613.61	0.01
613.798	0.01
613.987	0.04
614.176	-0.01
614.365	0.05
614.554	0.01
614.742	0.01
614.931	0.02
615.12	0.04
615.309	0.01
615.497	0.03
615.686	-0.01
615.875	0.01
616.063	0
616.252	-0.02
616.44	-0.02
616.629	0.01
616.818	0.04
617.006	-0.01
617.195	0.01
617.383	0.03
617.572	0.01
617.76	-0.01
617.949	-0
618.137	0.03
618.326	0.06
618.514	-0.01
618.703	-0
618.891	0.08
619.079	-0.04
619.268	0
619.456	-0.01
619.644	0.04
619.833	0.02
620.021	-0
620.209	-0.02
620.398	-0.01
620.586	0.01
620.774	0.03
620.962	0
621.151	0.08
621.339	0.02
621.527	-0.03
621.715	-0.02
621.903	-0.04
622.092	-0.04
622.28	0.02
622.468	-0
622.656	0.04
622.844	0.04
623.032	-0.02
623.22	-0.03
623.408	0.06
623.596	0.04
623.784	0.02
623.972	-0.04
624.16	-0.01
624.348	0.07
624.536	0.03
624.724	0.02
624.912	0.07
625.1	0.01
625.288	-0.02
625.476	-0.01
625.664	0.04
625.851	0
626.039	-0.02
626.227	0.03
626.415	0
626.603	-0.03
626.79	0.03
626.978	0.01
627.166	0.05
627.354	0.01
627.541	-0.01
627.729	-0.05
627.917	0.04
628.104	0.05
628.292	0.01
628.48	0.02
628.667	0.04
628.855	0.02
629.042	0.03
629.23	0.01
629.418	0
629.605	0.02
629.793	-0.01
629.98	-0.01
630.168	0.02
630.355	0.01
630.543	0.03
630.73	-0
630.917	0.06
631.105	0.06
631.292	-0.02
631.48	0
631.667	0.07
631.854	0.02
632.042	0.03
632.229	-0.03
632.416	-0.01
632.604	-0
632.791	0.01
632.978	0.03
633.165	0.02
633.353	0.07
633.54	0.02
633.727	-0.04
633.914	0.02
634.101	-0.07
634.289	0.06
634.476	-0.01
634.663	-0.01
634.85	0.03
635.037	-0.02
635.224	-0.03
635.411	0.06
635.598	0.05
635.785	-0.01
635.972	0.03
636.159	0.06
636.346	-0.04
636.533	0.04
636.72	0.02
636.907	0.01
637.094	0.04
637.281	0
637.468	0.02
637.655	0.04
637.842	0
638.029	-0.02
638.215	0.03
638.402	0.02
638.589	-0
638.776	-0.01
638.963	-0.01
639.149	0.03
639.336	0.07
639.523	0.01
639.709	0.03
639.896	0.01
640.083	0.07
640.27	0.03
640.456	-0.02
640.643	0.03
640.829	-0.01
641.016	-0.01
641.203	-0
641.389	0.05
641.576	0.01
641.762	-0
641.949	0
642.135	0.04
642.322	0.03
642.508	-0.05
642.695	0.02
642.881	0.02
643.068	0.02
643.254	0.02
643.441	0.05
643.627	0.03
643.813	-0.02
644	0.02
644.186	-0
644.372	-0.02
644.559	0.05
644.745	0.01
644.931	-0
645.118	0.02
645.304	-0
645.49	0
645.676	0.03
645.862	0.04
646.049	0.04
646.235	0.04
646.421	0.08
646.607	0.07
646.793	-0
646.979	0
647.165	0.01
647.352	0.01
647.538	0.04
647.724	0.02
647.91	0.06
648.096	0.06
648.282	0.04
648.468	0.01
648.654	0.01
648.84	0.05
649.026	0
649.212	0.04
649.397	-0.01
649.583	-0.03
649.769	0.05
649.955	0.03
650.141	0.06
650.327	0.11
650.513	-0.01
650.698	0.04
650.884	-0.03
651.07	0.04
651.256	0.04
651.442	0.02
651.627	0.02
651.813	0.05
651.999	0.05
652.184	0.06
652.37	0.01
652.556	-0.01
652.741	0.07
652.927	-0.02
653.113	0.03
653.298	0.04
653.484	0.01
653.669	0.01
653.855	0.05
654.04	0.03
654.226	-0.01
654.412	0
654.597	-0.03
654.782	0
654.968	0.1
655.153	0.04
655.339	0.02
655.524	-0.02
655.71	0.08
655.895	-0.01
656.08	0.01
656.266	0.08
656.451	0.01
656.636	0
656.822	0.04
657.007	0
657.192	0.03
657.378	-0.03
657.563	0.06
657.748	0.06
657.933	0.07
658.118	0.02
658.304	0.01
658.489	0.05
658.674	0.03
658.859	0.01
659.044	0.07
659.229	0.08
659.414	0.01
659.599	0.04
659.785	0.02
659.97	0.03
660.155	0.08
660.34	0.05
660.525	0.06
660.71	0.04
660.895	0.1
661.08	0.01
661.264	0.03
661.449	0.07
661.634	0.08
661.819	0.07
662.004	0.07
662.189	-0.03
662.374	-0
662.559	0.02
662.743	0.02
662.928	0.05
663.113	0.05
663.298	0
663.483	0.02
663.667	0.08
663.852	0.04
664.037	0.11
664.221	0.02
664.406	0.08
664.591	0.05
664.775	0.03
664.96	0.03
665.145	0.06
665.329	0.08
665.514	0.01
665.698	0.04
665.883	0.01
666.068	0.13
666.252	0.05
666.437	0.04
666.621	0.07
666.806	0.1
666.99	0.07
667.174	-0.01
667.359	0.12
667.543	0.08
667.728	0.06
667.912	0.03
668.096	0.11
668.281	0.02
668.465	0.09
668.649	0.08
668.834	0.02
669.018	0.08
669.202	0.03
669.387	0.05
669.571	0.11
669.755	0.05
669.939	0.07
670.124	0.1
670.308	0.13
670.492	0.1
670.676	0.09
670.86	0.06
671.044	0.05
671.228	0.13
671.413	0.07
671.597	0.09
671.781	0.06
671.965	0.12
672.149	0.12
672.333	0.1
672.517	0.09
672.701	0.12
672.885	0.07
673.069	0.06
673.253	0.18
673.437	0.06
673.621	0.07
673.804	0.12
673.988	0.12
674.172	0.14
674.356	0.08
674.54	0.11
674.724	0.18
674.908	0.12
675.091	0.1
675.275	0.11
675.459	0.16
675.643	0.14
675.826	0.17
676.01	0.11
676.194	0.15
676.377	0.2
676.561	0.18
676.745	0.13
676.928	0.17
677.112	0.2
677.296	0.11
677.479	0.12
677.663	0.15
677.846	0.18
678.03	0.12
678.213	0.15
678.397	0.24
678.58	0.11
678.764	0.14
678.947	0.15
679.131	0.13
679.314	0.19
679.498	0.17
679.681	0.16
679.865	0.19
680.048	0.18
680.231	0.19
680.415	0.2
680.598	0.2
680.781	0.21
680.965	0.17
681.148	0.23
681.331	0.22
681.514	0.25
681.698	0.19
681.881	0.26
682.064	0.24
682.247	0.21
682.43	0.16
682.614	0.26
682.797	0.31
682.98	0.24
683.163	0.19
683.346	0.29
683.529	0.22
683.712	0.21
683.895	0.28
684.078	0.21
684.261	0.23
684.444	0.29
684.627	0.29
684.81	0.26
684.993	0.27
685.176	0.37
685.359	0.25
685.542	0.26
685.725	0.37
685.908	0.26
686.091	0.27
686.274	0.36
686.457	0.33
686.639	0.28
686.822	0.34
687.005	0.29
687.188	0.33
687.371	0.4
687.553	0.39
687.736	0.39
687.919	0.41
688.102	0.41
688.284	0.34
688.467	0.39
688.65	0.34
688.832	0.35
689.015	0.42
689.197	0.33
689.38	0.49
689.563	0.48
689.745	0.4
689.928	0.38
690.11	0.42
690.293	0.42
690.475	0.37
690.658	0.47
690.84	0.44
691.023	0.45
691.205	0.44
691.388	0.46
691.57	0.5
691.752	0.55
691.935	0.42
692.117	0.53
692.3	0.51
692.482	0.48
692.664	0.48
692.847	0.58
693.029	0.59
693.211	0.55
693.393	0.51
693.576	0.57
693.758	0.59
693.94	0.59
694.122	0.57
694.304	0.65
694.487	0.63
694.669	0.66
694.851	0.6
695.033	0.66
695.215	0.63
695.397	0.6
695.579	0.67
695.761	0.64
695.943	0.6
696.125	0.81
696.308	0.75
696.49	0.65
696.671	0.86
696.853	0.76
697.035	0.91
697.217	0.77
697.399	0.85
697.581	0.79
697.763	0.83
697.945	0.81
698.127	0.86
698.309	0.89
698.491	0.82
698.672	0.96
698.854	0.89
699.036	0.94
699.218	0.89
699.399	1
699.581	0.99
699.763	0.95
699.945	0.95
700.126	0.96
700.308	1.03
700.49	1
700.671	0.95
700.853	1.1
701.035	1.13
701.216	1.12
701.398	1.1
701.579	1.12
701.761	1.25
701.943	1.1
702.124	1.21
702.306	1.17
702.487	1.41
702.669	1.31
702.85	1.2
703.031	1.26
703.213	1.37
703.394	1.36
703.576	1.33
703.757	1.51
703.938	1.42
704.12	1.52
704.301	1.45
704.483	1.48
704.664	1.5
704.845	1.64
705.026	1.63
705.208	1.52
705.389	1.61
705.57	1.65
705.751	1.68
705.933	1.68
706.114	1.72
706.295	1.73
706.476	1.72
706.657	1.81
706.838	1.77
707.02	1.91
707.201	1.86
707.382	1.83
707.563	1.92
707.744	2
707.925	1.86
708.106	1.96
708.287	2.12
708.468	2.11
708.649	2.14
708.83	2.19
709.011	2.08
709.192	2.28
709.373	2.15
709.554	2.3
709.734	2.41
709.915	2.4
710.096	2.42
710.277	2.33
710.458	2.48
710.639	2.48
710.819	2.45
711	2.47
711.181	2.6
711.362	2.77
711.542	2.73
711.723	2.74
711.904	2.8
712.085	2.76
712.265	2.91
712.446	2.78
712.627	2.96
712.807	3.14
712.988	3.05
713.168	2.94
713.349	3.07
713.53	3.03
713.71	3.17
713.891	3.26
714.071	3.29
714.252	3.33
714.432	3.5
714.613	3.33
714.793	3.58
714.974	3.77
715.154	3.66
715.334	3.9
715.515	3.83
715.695	3.79
715.876	3.9
716.056	3.88
716.236	3.92
716.417	4.1
716.597	4.07
716.777	4.38
716.957	4.19
717.138	4.34
717.318	4.37
717.498	4.39
717.678	4.55
717.859	4.57
718.039	4.64
718.219	4.73
718.399	4.88
718.579	4.83
718.759	4.94
718.939	5.05
719.12	5.15
719.3	5.16
719.48	5.05
719.66	5.2
719.84	5.46
720.02	5.48
720.2	5.47
720.38	5.63
720.56	5.88
720.74	5.69
720.92	5.89
721.1	6.13
721.279	6.12
721.459	6.13
721.639	6.25
721.819	6.27
721.999	6.39
722.179	6.5
722.359	6.41
722.538	6.62
722.718	6.74
722.898	7.05
723.078	7
723.257	7.13
723.437	7.24
723.617	7.32
723.797	7.48
723.976	7.53
724.156	7.8
724.336	7.75
724.515	8.07
724.695	8.14
724.874	8.06
725.054	8.16
725.234	8.29
725.413	8.43
725.593	8.46
725.772	8.62
725.952	8.79
726.131	8.65
726.311	8.84
726.49	9
726.67	9.09
726.849	9.05
727.028	9.3
727.208	9.39
727.387	9.63
727.567	9.63
727.746	9.71
727.925	9.84
728.105	9.8
728.284	10.05
728.463	10.04
728.643	10.41
728.822	10.21
729.001	10.5
729.18	10.88
729.359	10.82
729.539	11.05
729.718	10.88
729.897	11.16
730.076	11.19
730.255	11.22
730.434	11.57
730.614	11.69
730.793	11.9
730.972	11.88
731.151	12.14
731.33	12.11
731.509	12.06
731.688	12.25
731.867	12.5
732.046	12.37
732.225	12.79
732.404	12.61
732.583	12.88
732.762	12.98
732.941	13.26
733.12	13.56
733.298	13.43
733.477	13.65
733.656	13.59
733.835	13.87
734.014	14.05
734.193	14
734.371	14.29
734.55	14.42
734.729	14.42
734.908	14.32
735.086	14.48
735.265	14.62
735.444	14.56
735.623	14.92
735.801	15.14
735.98	15.4
736.159	15.19
736.337	15.39
736.516	15.51
736.694	15.37
736.873	15.55
737.052	15.96
737.23	15.52
737.409	15.39
737.587	15.89
737.766	15.72
737.944	15.47
738.123	16.05
738.301	15.75
738.479	15.83
738.658	15.76
738.836	15.61
739.015	15.75
739.193	15.67
739.371	15.63
739.55	15.33
739.728	15.17
739.906	15.33
740.085	15.42
740.263	15.21
740.441	14.73
740.62	15.2
740.798	14.8
740.976	14.17
741.154	14.24
741.332	14.24
741.511	13.69
741.689	13.64
741.867	13.68
742.045	13.2
742.223	12.75
742.401	12.63
742.579	12.43
742.757	12.31
742.935	12.02
743.114	11.86
743.292	11.52
743.47	11.34
743.648	10.99
743.826	10.83
744.004	10.64
744.181	10.28
744.359	9.87
744.537	9.8
744.715	9.34
744.893	9.3
745.071	8.98
745.249	8.65
745.427	8.6
745.605	8.4
745.782	7.96
745.96	7.95
746.138	7.82
746.316	7.44
746.493	7.1
746.671	6.87
746.849	6.69
747.027	6.63
747.204	6.19
747.382	6.23
747.56	5.69
747.737	5.74
747.915	5.49
748.093	5.56
748.27	5.16
748.448	5.11
748.625	4.97
748.803	4.64
748.98	4.59
749.158	4.5
749.335	4.34
749.513	4.1
749.69	4.04
749.868	3.98
750.045	3.86
750.223	3.77
750.4	3.49
750.578	3.83
750.755	3.53
750.932	3.15
751.11	3.25
751.287	3.1
751.464	3.28
751.642	2.89
751.819	2.95
751.996	2.64
752.173	2.65
752.351	2.46
752.528	2.58
752.705	2.43
752.882	2.42
753.06	2.35
753.237	2.34
753.414	2.48
753.591	2.39
753.768	2.01
753.945	2.04
754.122	1.98
754.299	1.93
754.476	1.75
754.654	1.83
754.831	1.9
755.008	1.8
755.185	1.72
755.362	1.43
755.539	1.6
755.716	1.44
755.892	1.53
756.069	1.42
756.246	1.41
756.423	1.45
756.6	1.61
756.777	1.27
756.954	1.33
757.131	1.18
757.307	1.19
757.484	1.04
757.661	1.08
757.838	1.14
758.015	1.02
758.191	1.04
758.368	0.98
758.545	1.16
758.721	1.07
758.898	0.79
759.075	0.88
759.251	0.99
759.428	0.97
759.605	0.73
759.781	0.88
759.958	0.87
760.134	0.86
760.311	0.76
760.488	0.91
760.664	0.94
760.841	0.69
761.017	0.67
761.194	0.76
761.37	0.84
761.547	0.75
761.723	0.61
761.899	0.8
762.076	0.58
762.252	0.57
762.429	0.58
762.605	0.58
762.781	0.53
762.958	0.56
763.134	0.58
763.31	0.41
763.486	0.49
763.663	0.38
763.839	0.56
764.015	0.35
764.191	0.29
764.368	0.45
764.544	0.43
764.72	0.34
764.896	0.61
765.072	0.4
765.248	0.32
765.425	0.44
765.601	0.39
765.777	0.38
765.953	0.17
766.129	0.27
766.305	0.22
766.481	0.41
766.657	0.27
766.833	0.51
767.009	0.21
767.185	0.3
767.361	0.23
767.537	0.22
767.713	0.5
767.889	0.31
768.065	0.32
768.24	0.05
768.416	0.38
768.592	0.25
768.768	0.21
768.944	0.43
769.12	0.2
769.295	0.17
769.471	0.26
769.647	0.22
769.823	0.32
769.998	0.22
770.174	0.16
770.35	0.55
770.525	0.6
770.701	0.3
770.877	0.22
771.052	0.13
771.228	0.43
771.403	0.37
771.579	0.3
771.755	0.41
771.93	0.1
772.106	0.15
772.281	0.03
772.457	0.15
772.632	0.19
772.808	0.14
772.983	0.13
773.159	0.06
773.334	0.4
773.509	0.14
773.685	0.18
773.86	0.54
774.036	0.42
774.211	0.06
774.386	0.1
774.562	0.19
774.737	0.19
774.912	-0.16
775.087	0.32
775.263	0.15
775.438	0.2
775.613	0.01
775.788	0.2
775.964	0.34
776.139	0.4
776.314	-0.02
776.489	0.3
776.664	0.23
776.839	-0
777.014	0.29
777.19	0.24
777.365	0.29
777.54	0.36
777.715	0.08
777.89	0.2
778.065	-0.01
778.24	0.22
778.415	0.2
778.59	0.02
778.765	0.11
778.94	0.18
779.115	0.16
779.289	-0.05
779.464	0.14
779.639	0.03
779.814	-0.06
779.989	0.01
780.164	0.28
780.339	0.28
780.513	0.11
780.688	0.1
780.863	0.14
781.038	0.24
781.212	-0.01
781.387	0.18
781.562	0.43
781.737	0.1
781.911	0.18
782.086	0.05
782.261	0.16
782.435	0.58
782.61	0.06
782.784	0.03
782.959	0.45
783.134	0.15
783.308	-0.05
783.483	0.17
783.657	0.42
783.832	0.39
784.006	-0.16
784.181	0.02
784.355	0.54
784.53	-0.03
784.704	0
784.878	0.28
785.053	0.21
785.227	0.11
785.402	0.5
785.576	-0.27
785.75	0.14
785.925	0.12
786.099	0.15
786.273	0.24
786.448	0.33
786.622	0.29
786.796	0.16
786.97	0.02
787.145	0.73
787.319	-0.15
787.493	-0.12
787.667	0.1
787.841	0.33
788.015	0.43
788.19	0.11
788.364	0.35
788.538	0.2
788.712	0.19
788.886	0.04
789.06	0.32
789.234	0.41
789.408	-0.02
789.582	0.14
789.756	0.16
789.93	-0.06
790.104	0.16
790.278	0.14
790.452	-0.11
790.626	0.4
790.8	0.14
790.973	0.29
791.147	0.32
791.321	0.22
791.495	0.5
791.669	0.13
791.843	0.32
792.016	0.34
792.19	0.57
792.364	-0.11
792.538	0.66
792.711	0.31
792.885	0.15
793.059	-0.11
793.233	-0.31
793.406	0.35
793.58	0.22
793.754	0.22
793.927	0.11
794.101	0.34
794.274	0.04
794.448	0.41
794.622	-0.06
794.795	0.27
794.969	0.01
795.142	0.34
795.316	0.11
795.489	0.13
795.663	0.68
795.836	0.11
796.009	0.12
796.183	0.34
796.356	0.17
796.53	0.06
796.703	-0.04
796.876	0.55
797.05	-0.11
797.223	0.08
797.396	0.42
797.57	0.16
797.743	0.68
797.916	0.12
798.09	-0.01
798.263	0.35
798.436	0.22
798.609	0.13
798.782	-0.09
798.956	0.27
799.129	0.2
799.302	0.09
799.475	0.06
799.648	-0.04
799.821	0.04
799.994	0.13
800.167	-0.35
800.34	0.19
800.514	0.25
800.687	-0.05
800.86	-0.07
801.033	0.34
801.206	0
801.379	-0.11
801.551	0.07
801.724	0.37
801.897	0.34
802.07	0.12
802.243	-0.42
802.416	0.08
802.589	0.27
802.762	0.38
802.935	0.05
803.107	0.62
803.28	0.25
803.453	0.52
803.626	-0.21
803.798	0.08
803.971	0.1
804.144	0.44
804.317	0.29
804.489	0.21
804.662	-0.04
804.835	-0.02
805.007	-0.16
805.18	0.56
805.353	0.22
805.525	-0.22
805.698	-0.04
805.87	0.32
806.043	0.33
806.215	-0.33
806.388	0
806.56	0.17
806.733	0.4
806.905	0.41
807.078	0.02
807.25	-0.03
807.423	0.14
807.595	0.23
807.768	0.11
807.94	0.41
808.112	0.26
808.285	0.2
808.457	0.33
808.629	0.17
808.802	0.34
808.974	-0
809.146	0.28
809.318	-0.15
809.491	0.29
809.663	0.5
809.835	0.2
810.007	0.39
810.18	0.35
810.352	-0.18
810.524	0.31
810.696	0.26
810.868	0.38
811.04	-0.03
811.212	-0.15
811.384	0.87
811.556	0.62
811.728	-0.27
811.901	0.74
812.073	0.07
812.245	0.72
812.417	0.14
812.589	-0.15
812.76	-0.06
812.932	0.26
813.104	0.4
813.276	-0.01
813.448	0.29
813.62	0.13
813.792	0.55
813.964	0.64
814.136	0.07
814.307	0.23
814.479	-0.18
814.651	0.1
814.823	1.05
814.995	-0.02
815.166	0.66
815.338	-0.23
815.51	-0.07
815.681	0.95
815.853	0.09
816.025	0.29
816.196	0.23
816.368	0.27
816.54	0.07
816.711	0.17
816.883	0.27
817.054	1.06
817.226	-0.36
817.398	0.39
817.569	0.03
817.741	0.29
817.912	-0.02
818.084	0.05
818.255	0.48
818.426	-0.32
818.598	-0.02
818.769	0.26
818.941	-0.04
819.112	0.65
819.283	0.17
819.455	-0.21
819.626	0.54
819.798	0.52
819.969	0.36
820.14	0.15
820.311	-0.44
820.483	0.5
820.654	0.15
820.825	0.28
820.996	-0.15
821.168	-0.16
821.339	0.37
821.51	-0.71
821.681	1.16
821.852	0.12
822.023	-0.18
822.195	-0.2
822.366	0.64
822.537	0.64
822.708	0.27
822.879	-0.5
823.05	1.04
823.221	0.07
823.392	0.18
823.563	0.35
823.734	0.49
823.905	0.35
824.076	-0.03
824.247	-0.13
824.418	0.17
824.589	0.59
824.759	0.34
824.93	0.56
825.101	-0.18
825.272	0.53
825.443	1.08
825.614	1.11
825.784	-0.86
825.955	1.65
826.126	0.37
826.297	-0.09
826.467	0.54
826.638	0.96
826.809	-0.95
826.98	0.01
827.15	0.06
827.321	0.17
827.492	1.47
827.662	1.1
827.833	1.23
828.003	1.04
828.174	-0.49
828.345	-0.16
828.515	0.56
828.686	0.92
828.856	0.1
829.027	0.21
829.197	-0
829.368	-0.12
829.538	0.44
829.709	0.28
829.879	0.01
830.049	0.37
830.22	-0.44
830.39	0.2
830.56	0.87
830.731	0.76
830.901	-0.45
831.072	0.33
831.242	0.27
831.412	0.51
831.582	0.22
831.753	-0.25
831.923	0.55
832.093	0.4
832.263	0.5
832.434	-0.07
832.604	0.22
832.774	1.25
832.944	0.56
833.114	0.3
833.284	0.24
833.454	-0.49
833.624	0.23
833.795	0.06
833.965	0.97
834.135	1.03
834.305	-0.74
834.475	-0.31
834.645	0.01
834.815	-0.42
834.985	0.06
835.155	-0.08
835.325	0.17
835.494	0.86
835.664	0.25
835.834	-0.62
836.004	0.52
836.174	0.67
836.344	-0.15
836.514	-0.76
836.684	0.33
836.853	0.76
837.023	0.65
837.193	0.11
837.363	0.89
837.532	0.97
837.702	-0.06
837.872	0.08
838.041	0.71
838.211	1.76
838.381	-0.45
838.55	0.66
838.72	1.97
838.89	1.04
839.059	0.35
839.229	0.21
839.398	1.61
839.568	0.17
839.738	0.03
839.907	1.51
840.077	0.47
840.246	-0.28
840.416	-0.04
840.585	-0.5
840.755	1.47
840.924	0.75
841.093	-0.18
841.263	-0.33
841.432	1.1
841.602	-0.21
841.771	-0.27
841.94	0.56
842.11	1.83
842.279	1.25
842.448	-1.02
842.617	-0.06
842.787	1.12
842.956	0.01
843.125	0.09
843.294	0.12
843.464	0.91
843.633	0.59
843.802	-1.15
843.971	0.2
844.14	1.39
844.309	0.88
844.479	-1.15
844.648	0.12
844.817	0.14
844.986	0.98
845.155	0.15
845.324	0.97
845.493	0.27
845.662	-0.06
845.831	0.65
846	0.87
846.169	0.74
846.338	1.35
846.507	1
846.676	1.04
846.844	0.39
847.013	0.97
847.182	0.26
847.351	0.11
847.52	0.63
847.689	1.59
847.858	0.31
848.026	0.29
848.195	-0.21
848.364	0.57
848.533	-0.59
848.701	-0.23
848.87	-0.17
849.039	0.37
849.207	1.54
849.376	1.63
849.545	1.02
849.713	0.22
849.882	0.08
850.051	0.69
850.219	0.54
850.388	0.67
850.556	0.27
850.725	-0.18
850.893	0.37
851.062	0.18
851.23	0.96
851.399	-0.71
851.567	-0.65
851.736	0.94
851.904	-0.17
852.073	0
852.241	0.9
852.41	0.44
852.578	1.12
852.746	0.4
852.915	0.99
853.083	0.65
853.251	-0.01
853.42	-0.15
853.588	0.21
853.756	1.27
853.924	0.22
854.093	0.19
854.261	0.3
854.429	-0.16
854.597	1.12
854.765	-1.18
854.934	0.25
855.102	2.09
855.27	-0.53
855.438	0.26
855.606	1.94
855.774	1.41
855.942	-1.39
856.11	-1.83
856.278	0.65
856.446	0.81
856.614	0.15
856.782	-0.02
856.95	1.72
857.118	1.03
857.286	1.2
857.454	-0.77
857.622	1.66
857.79	1.67
857.958	-1.01
858.126	0.52
858.294	-2.29
858.462	0.9
858.629	0.49
858.797	-0.01
858.965	1.03
859.133	0.5
859.301	0.81
859.468	1.37
859.636	0.57
859.804	2.05
859.971	0.76
860.139	0.14
860.307	2.24
860.474	0.45
860.642	-0.03
860.81	0.56
860.977	0.02
861.145	0.46
861.313	1.11
861.48	2.08
861.648	1.61
861.815	0.09
861.983	-0.64
862.15	-0.08
862.318	1.29
862.485	1.21
862.653	0.36
862.82	-0.51
862.988	2.42
863.155	0.54
863.322	0.22
863.49	0.3
863.657	-0.46
863.824	2.55
863.992	1.81
864.159	2.04
864.326	1.46
864.494	-0.2
864.661	3.54
864.828	-0.48
864.996	1.53
865.163	3.28
865.33	0.2
865.497	-2.47
865.664	1.18
865.832	-1.12
865.999	1
866.166	0.49
866.333	-0.01
866.5	0.37
866.667	1.15
866.834	0.13
867.001	2.66
867.168	0.38
867.335	1.98
867.502	-1.15
867.669	1.31
867.836	3.83
868.003	0.14
868.17	2.1
868.337	2.37
868.504	2.7
868.671	-0.13
868.838	0.91
869.005	1.3
869.172	2.48
869.339	1.68
869.505	1.06
869.672	0.61
869.839	2.15
870.006	1.99
870.173	-1.18
870.339	1.21
870.506	3.29
870.673	-0.7
870.84	2.34
871.006	1.62
871.173	1.3
871.34	0.2
871.506	-0.89
871.673	2.15
871.839	0.43
872.006	1.46
872.173	-0.6
872.339	0.85
872.506	3.39
872.672	2.17
872.839	0.36
873.005	0.92
873.172	3.17
873.338	1.94
873.505	1.28
873.671	0.75
873.838	0.99
874.004	-1.54
874.171	-0.59
874.337	2.28
874.503	2.43
874.67	0.92
874.836	1.54
875.002	2.24
875.169	1.38
875.335	2.31
875.501	1.43
875.668	2.79
875.834	-0.03
876	2.92
876.166	1.4
876.332	1.69
876.499	4.07
876.665	1.31
876.831	2.4
876.997	5.06
877.163	1.84
877.329	0.76
877.495	0.94
877.662	4.15
877.828	2.75
877.994	1.04
878.16	-0.2
878.326	1.28
878.492	2.4
878.658	0.73
878.824	-0.46
878.99	2.42
879.156	-0.31
879.322	4.75
879.487	1.04
879.653	2.81
879.819	1.07
879.985	-0.16
880.151	1.43
880.317	2.46
880.483	0.61
880.648	2.14
880.814	-1.02
880.98	2.61
881.146	-2.13
881.312	1.34
881.477	1.4
881.643	2.23
881.809	4.26
881.974	4.22
882.14	-0.56
882.306	1.95
882.471	4.85
882.637	0.76
882.803	4.07
882.968	3.82
883.134	3.37
883.299	-0.07
883.465	2.1
883.63	3.46
883.796	2.9
883.961	2.93
884.127	3.62
884.292	-3.65
884.458	-0.49
884.623	-0.49
