Data from Apollo_Calib_20240827__AbsoluteIrradiance__448__06-37-02-938.txt Node

Date: Wed Aug 28 06:37:02 BST 2024
User: biology
Spectrometer: FLMT08252
Trigger mode: 0
Integration Time (sec): 5.000000E-1
Scans to average: 5
Electric dark correction enabled: true
Nonlinearity correction enabled: false
Boxcar width: 0
XAxis mode: Wavelengths
Number of Pixels in Spectrum: 3648
>>>>>Begin Spectral Data<<<<<
179.588	-0
179.809	-0
180.03	-0
180.251	-0
180.473	-0
180.694	0
180.915	0
181.136	-0
181.357	0
181.578	-0
181.799	-0
182.02	-0
182.241	-0
182.462	-0
182.683	0
182.904	-0
183.125	0
183.346	0
183.567	0
183.788	0
184.009	0
184.23	0
184.451	0
184.672	0
184.892	0
185.113	0
185.334	0
185.555	0
185.776	0
185.996	0
186.217	0
186.438	0
186.659	0
186.879	0
187.1	0
187.321	0
187.541	0
187.762	0
187.983	0
188.203	0
188.424	0
188.644	0
188.865	0
189.086	0
189.306	0
189.527	0
189.747	0
189.968	0
190.188	0
190.409	0
190.629	0
190.849	0
191.07	0
191.29	0
191.511	0
191.731	0
191.951	0
192.172	0
192.392	0
192.612	0
192.833	0
193.053	0
193.273	0
193.493	0
193.714	0
193.934	0
194.154	0
194.374	0
194.594	0
194.815	0
195.035	0
195.255	0
195.475	0
195.695	0
195.915	0
196.135	0
196.355	0
196.575	0
196.795	0
197.015	0
197.235	0
197.455	0
197.675	0
197.895	0
198.115	0
198.335	0
198.555	0
198.775	0
198.995	0
199.214	0
199.434	0
199.654	0
199.874	0
200.094	0.55
200.313	1.9
200.533	0.89
200.753	0.2
200.973	1.73
201.192	2.22
201.412	0.82
201.632	1.09
201.851	2.36
202.071	1.08
202.291	0.81
202.51	0.58
202.73	1.66
202.95	1.05
203.169	1.01
203.389	0.87
203.608	1.65
203.828	0.78
204.047	0.82
204.267	1.9
204.486	1.4
204.706	0.98
204.925	0.53
205.145	0.63
205.364	1.4
205.583	1.8
205.803	0.67
206.022	0.65
206.242	0.77
206.461	0.9
206.68	0.65
206.9	0.79
207.119	1.51
207.338	1.43
207.557	0.85
207.777	0.64
207.996	0.58
208.215	1.21
208.434	0.36
208.654	0.44
208.873	0.84
209.092	1.3
209.311	0.66
209.53	0.5
209.749	0.83
209.968	0.62
210.187	0.48
210.407	0.29
210.626	0.63
210.845	0.79
211.064	0.8
211.283	0.18
211.502	0.98
211.721	0.68
211.94	0.41
212.159	0.83
212.377	0.84
212.596	0.96
212.815	0.78
213.034	0.89
213.253	0.88
213.472	0.94
213.691	0.56
213.91	0.42
214.128	0.48
214.347	0.79
214.566	0.1
214.785	0.13
215.003	0.52
215.222	0.88
215.441	0.55
215.66	0.3
215.878	0.42
216.097	0.78
216.316	0.28
216.534	0.56
216.753	0.56
216.972	0.38
217.19	0.44
217.409	0.36
217.627	0.36
217.846	0.55
218.064	0.4
218.283	0.39
218.501	0.97
218.72	0.62
218.938	0.3
219.157	0.4
219.375	0.76
219.594	0.62
219.812	0.13
220.031	0.22
220.249	0.89
220.467	0.78
220.686	0.32
220.904	0.24
221.122	0.38
221.341	0.77
221.559	0.46
221.777	0.18
221.995	0.38
222.214	0.46
222.432	0.46
222.65	0.52
222.868	0.63
223.086	0.52
223.305	0.47
223.523	0.28
223.741	0.49
223.959	0.32
224.177	0.14
224.395	0.14
224.613	0.37
224.831	0.54
225.049	0.14
225.267	0.36
225.485	0.47
225.703	0.36
225.921	0.29
226.139	0.27
226.357	0.62
226.575	0.49
226.793	0.35
227.011	0.99
227.229	0.38
227.447	0.56
227.665	0.41
227.883	0.09
228.1	0.43
228.318	0.38
228.536	0.11
228.754	0.28
228.972	0.5
229.189	0.48
229.407	0.3
229.625	0.31
229.843	0.52
230.06	0.47
230.278	0.15
230.496	0.4
230.713	0.42
230.931	0.44
231.149	0.26
231.366	0.13
231.584	0.31
231.801	0.72
232.019	0.22
232.236	0.16
232.454	0.11
232.671	0.42
232.889	0.21
233.106	0.28
233.324	0.3
233.541	0.29
233.759	0.28
233.976	0.12
234.194	0.34
234.411	0.29
234.628	0.32
234.846	0.25
235.063	0.28
235.28	0.35
235.498	0.24
235.715	0.21
235.932	0.5
236.149	0.39
236.367	0.22
236.584	0.26
236.801	0.32
237.018	0.38
237.236	0.23
237.453	0.1
237.67	0.46
237.887	0.26
238.104	0.18
238.321	0.14
238.538	0.17
238.755	0.44
238.973	0.14
239.19	0.26
239.407	0.2
239.624	0.32
239.841	0.17
240.058	0.15
240.275	0.36
240.492	0.28
240.709	0.28
240.925	0.29
241.142	0.27
241.359	0.21
241.576	0.12
241.793	0.21
242.01	0.25
242.227	0.35
242.444	0.42
242.66	0.39
242.877	0.25
243.094	0.23
243.311	0.21
243.527	0.19
243.744	0.16
243.961	0.25
244.178	0.25
244.394	0.2
244.611	0.39
244.828	0.36
245.044	0.2
245.261	0.14
245.477	0.26
245.694	0.25
245.911	0.21
246.127	0.32
246.344	0.36
246.56	0.29
246.777	0.23
246.993	0.25
247.21	0.32
247.426	0.29
247.643	0.21
247.859	0.1
248.076	0.18
248.292	0.29
248.508	0.18
248.725	0.22
248.941	0.22
249.157	0.32
249.374	0.14
249.59	0.28
249.806	0.22
250.023	0.27
250.239	0.15
250.455	0.23
250.671	0.18
250.888	0.26
251.104	0.3
251.32	0.12
251.536	0.19
251.752	0.2
251.969	0.22
252.185	0.22
252.401	0.37
252.617	0.18
252.833	0.2
253.049	0.21
253.265	0.27
253.481	0.23
253.697	0.23
253.913	0.13
254.129	0.31
254.345	0.21
254.561	0.2
254.777	0.16
254.993	0.34
255.209	0.27
255.425	0.15
255.641	0.16
255.857	0.29
256.073	0.32
256.288	0.15
256.504	0.18
256.72	0.24
256.936	0.32
257.152	0.22
257.367	0.12
257.583	0.28
257.799	0.32
258.015	0.16
258.23	0.18
258.446	0.33
258.662	0.24
258.877	0.17
259.093	0.14
259.309	0.25
259.524	0.3
259.74	0.11
259.955	0.12
260.171	0.29
260.387	0.18
260.602	0.3
260.818	0.23
261.033	0.12
261.249	0.16
261.464	0.2
261.68	0.17
261.895	0.24
262.11	0.26
262.326	0.16
262.541	0.16
262.757	0.26
262.972	0.27
263.187	0.2
263.403	0.18
263.618	0.24
263.833	0.27
264.049	0.13
264.264	0.23
264.479	0.26
264.694	0.24
264.91	0.15
265.125	0.17
265.34	0.26
265.555	0.33
265.77	0.22
265.986	0.15
266.201	0.26
266.416	0.26
266.631	0.21
266.846	0.22
267.061	0.27
267.276	0.22
267.491	0.06
267.706	0.16
267.921	0.22
268.136	0.25
268.351	0.24
268.566	0.12
268.781	0.3
268.996	0.18
269.211	0.19
269.426	0.11
269.641	0.09
269.856	0.29
270.071	0.1
270.285	0.1
270.5	0.23
270.715	0.27
270.93	0.16
271.145	0.26
271.359	0.27
271.574	0.14
271.789	0.17
272.004	0.11
272.218	0.15
272.433	0.23
272.648	0.13
272.862	0.3
273.077	0.19
273.292	0.13
273.506	0.19
273.721	0.21
273.936	0.24
274.15	0.27
274.365	0.15
274.579	0.19
274.794	0.25
275.008	0.28
275.223	0.09
275.437	0.17
275.652	0.32
275.866	0.25
276.081	0.15
276.295	0.22
276.509	0.15
276.724	0.21
276.938	0.17
277.153	0.19
277.367	0.25
277.581	0.13
277.796	0.13
278.01	0.11
278.224	0.21
278.438	0.31
278.653	0.06
278.867	0.15
279.081	0
279.295	0.12
279.51	0.17
279.724	0.08
279.938	0.21
280.152	0.19
280.366	0.16
280.58	0.19
280.794	0.24
281.008	0.24
281.222	0.23
281.437	0.23
281.651	0.16
281.865	0.26
282.079	0.11
282.293	0.09
282.507	0.11
282.721	0.16
282.935	0.15
283.148	0.07
283.362	0.15
283.576	0.13
283.79	0.17
284.004	0.12
284.218	0.2
284.432	0.16
284.646	0.14
284.859	0.11
285.073	0.15
285.287	0.14
285.501	0.13
285.714	0.17
285.928	0.22
286.142	0.15
286.356	0.13
286.569	0.08
286.783	0.27
286.997	0.23
287.21	0.2
287.424	0.15
287.637	0.13
287.851	0.16
288.065	0.23
288.278	0.15
288.492	0.16
288.705	0.13
288.919	0.18
289.132	0.11
289.346	0.21
289.559	0.11
289.773	0.13
289.986	0.14
290.2	0.18
290.413	0.21
290.626	0.13
290.84	0.15
291.053	0.14
291.267	0.24
291.48	0.17
291.693	0.12
291.906	0.12
292.12	0.11
292.333	0.12
292.546	0.12
292.76	0.21
292.973	0.17
293.186	0.14
293.399	0.06
293.612	0.2
293.826	0.15
294.039	0.13
294.252	0.13
294.465	0.2
294.678	0.15
294.891	0.17
295.104	0.07
295.317	0.15
295.53	0.15
295.743	0.1
295.956	0.15
296.169	0.17
296.382	0.18
296.595	0.15
296.808	0.12
297.021	0.22
297.234	0.22
297.447	0.13
297.66	0.2
297.873	0.21
298.086	0.16
298.299	0.1
298.511	0.13
298.724	0.14
298.937	0.14
299.15	0.12
299.363	0.1
299.575	0.21
299.788	0.14
300.001	0.12
300.213	0.1
300.426	0.12
300.639	0.14
300.852	0.09
301.064	0.14
301.277	0.25
301.489	0.18
301.702	0.16
301.915	0.15
302.127	0.14
302.34	0.18
302.552	0.19
302.765	0.1
302.977	0.18
303.19	0.12
303.402	0.12
303.615	0.13
303.827	0.12
304.04	0.12
304.252	0.19
304.464	0.11
304.677	0.21
304.889	0.17
305.102	0.12
305.314	0.1
305.526	0.19
305.739	0.16
305.951	0.12
306.163	0.13
306.375	0.2
306.588	0.1
306.8	0.11
307.012	0.12
307.224	0.13
307.436	0.22
307.649	0.07
307.861	0.18
308.073	0.15
308.285	0.13
308.497	0.07
308.709	0.11
308.921	0.16
309.133	0.19
309.346	0.12
309.558	0.11
309.77	0.23
309.982	0.21
310.194	0.17
310.406	0.1
310.617	0.22
310.829	0.14
311.041	0.16
311.253	0.13
311.465	0.11
311.677	0.15
311.889	0.15
312.101	0.1
312.313	0.21
312.524	0.17
312.736	0.07
312.948	0.11
313.16	0.22
313.372	0.18
313.583	0.16
313.795	0.12
314.007	0.08
314.218	0.21
314.43	0.12
314.642	0.12
314.853	0.12
315.065	0.2
315.277	0.11
315.488	0.16
315.7	0.21
315.912	0.14
316.123	0.13
316.335	0.12
316.546	0.22
316.758	0.15
316.969	0.13
317.181	0.13
317.392	0.14
317.604	0.2
317.815	0.12
318.026	0.1
318.238	0.12
318.449	0.2
318.661	0.08
318.872	0.07
319.083	0.14
319.295	0.2
319.506	0.11
319.717	0.16
319.929	0.18
320.14	0.13
320.351	0.15
320.562	0.1
320.774	0.19
320.985	0.16
321.196	0.13
321.407	0.04
321.618	0.17
321.829	0.19
322.041	0.14
322.252	0.17
322.463	0.21
322.674	0.16
322.885	0.08
323.096	0.11
323.307	0.1
323.518	0.18
323.729	0.15
323.94	0.17
324.151	0.14
324.362	0.13
324.573	0.14
324.784	0.16
324.995	0.19
325.206	0.14
325.417	0.13
325.628	0.12
325.838	0.11
326.049	0.14
326.26	0.16
326.471	0.13
326.682	0.16
326.892	0.14
327.103	0.1
327.314	0.09
327.525	0.21
327.735	0.16
327.946	0.18
328.157	0.12
328.368	0.19
328.578	0.11
328.789	0.16
328.999	0.13
329.21	0.11
329.421	0.18
329.631	0.1
329.842	0.06
330.052	0.17
330.263	0.15
330.473	0.16
330.684	0.12
330.894	0.12
331.105	0.15
331.315	0.18
331.526	0.1
331.736	0.22
331.947	0.16
332.157	0.14
332.367	0.1
332.578	0.13
332.788	0.21
332.999	0.21
333.209	0.11
333.419	0.1
333.629	0.13
333.84	0.17
334.05	0.14
334.26	0.2
334.47	0.15
334.681	0.19
334.891	0.12
335.101	0.18
335.311	0.21
335.521	0.16
335.732	0.1
335.942	0.23
336.152	0.17
336.362	0.11
336.572	0.13
336.782	0.18
336.992	0.1
337.202	0.11
337.412	0.11
337.622	0.16
337.832	0.14
338.042	0.12
338.252	0.05
338.462	0.12
338.672	0.14
338.882	0.11
339.092	0.13
339.302	0.19
339.511	0.14
339.721	0.13
339.931	0.12
340.141	0.2
340.351	0.18
340.561	0.19
340.77	0.16
340.98	0.14
341.19	0.16
341.4	0.14
341.609	0.12
341.819	0.08
342.029	0.09
342.238	0.14
342.448	0.12
342.658	0.14
342.867	0.13
343.077	0.14
343.286	0.13
343.496	0.13
343.706	0.19
343.915	0.14
344.125	0.15
344.334	0.13
344.544	0.08
344.753	0.11
344.963	0.13
345.172	0.12
345.381	0.12
345.591	0.11
345.8	0.15
346.01	0.17
346.219	0.16
346.428	0.01
346.638	0.15
346.847	0.14
347.056	0.22
347.266	0.09
347.475	0.12
347.684	0.13
347.893	0.16
348.103	0.11
348.312	0.14
348.521	0.13
348.73	0.12
348.94	0.13
349.149	0.15
349.358	0.08
349.567	0.08
349.776	0.05
349.985	0.13
350.194	0.19
350.403	0.18
350.612	0.1
350.821	0.13
351.03	0.13
351.239	0.08
351.448	0.11
351.657	0.11
351.866	0.21
352.075	0.18
352.284	0.19
352.493	0.06
352.702	0.19
352.911	0.17
353.12	0.13
353.329	0.09
353.538	0.14
353.746	0.19
353.955	0.13
354.164	0.14
354.373	0.13
354.582	0.15
354.79	0.13
354.999	0.16
355.208	0.09
355.416	0.23
355.625	0.07
355.834	0.1
356.042	0.18
356.251	0.15
356.46	0.07
356.668	0.12
356.877	0.2
357.085	0.18
357.294	0.05
357.503	0.17
357.711	0.11
357.92	0.33
358.128	0.13
358.337	0.12
358.545	0.13
358.754	0.12
358.962	0.15
359.17	0.16
359.379	0.15
359.587	0.16
359.796	0.14
360.004	0.18
360.212	0.14
360.421	0.17
360.629	0.14
360.837	0.18
361.046	0.15
361.254	0.21
361.462	0.14
361.67	0.11
361.879	0.15
362.087	0.17
362.295	0.13
362.503	0.1
362.711	0.05
362.92	0.1
363.128	0.13
363.336	0.08
363.544	0.11
363.752	0.12
363.96	0.11
364.168	0.13
364.376	0.12
364.584	0.14
364.792	0.19
365	0.11
365.208	0.12
365.416	0.15
365.624	0.18
365.832	0.12
366.04	0.2
366.248	0.13
366.456	0.17
366.664	0.13
366.872	0.16
367.079	0.1
367.287	0.14
367.495	0.17
367.703	0.14
367.911	0.15
368.118	0.1
368.326	0.17
368.534	0.1
368.742	0.21
368.949	0.05
369.157	0.14
369.365	0.18
369.572	0.14
369.78	0.12
369.988	0.18
370.195	0.13
370.403	0.16
370.61	0.1
370.818	0.09
371.026	0.22
371.233	0.14
371.441	0.1
371.648	0.11
371.856	0.13
372.063	0.18
372.271	0.1
372.478	0.09
372.685	0.14
372.893	0.18
373.1	0.12
373.308	0.12
373.515	0.22
373.722	0.25
373.93	0.11
374.137	0.15
374.344	0.19
374.552	0.16
374.759	0.18
374.966	0.11
375.173	0.13
375.381	0.21
375.588	0.14
375.795	0.07
376.002	0.15
376.209	0.14
376.417	0.12
376.624	0.1
376.831	0.19
377.038	0.13
377.245	0.07
377.452	0.08
377.659	0.15
377.866	0.12
378.073	0.11
378.28	0.16
378.487	0.15
378.694	0.2
378.901	0.16
379.108	0.13
379.315	0.19
379.522	0.2
379.729	0.14
379.936	0.13
380.143	0.16
380.35	0.13
380.557	0.16
380.763	0.14
380.97	0.14
381.177	0.16
381.384	0.15
381.591	0.11
381.797	0.13
382.004	0.13
382.211	0.17
382.418	0.16
382.624	0.22
382.831	0.19
383.038	0.15
383.244	0.14
383.451	0.14
383.658	0.18
383.864	0.12
384.071	0.09
384.277	0.2
384.484	0.13
384.69	0.18
384.897	0.11
385.103	0.15
385.31	0.12
385.516	0.13
385.723	0.11
385.929	0.14
386.136	0.14
386.342	0.16
386.549	0.15
386.755	0.18
386.961	0.15
387.168	0.14
387.374	0.14
387.58	0.19
387.787	0.18
387.993	0.15
388.199	0.13
388.406	0.18
388.612	0.15
388.818	0.14
389.024	0.1
389.231	0.15
389.437	0.19
389.643	0.21
389.849	0.16
390.055	0.21
390.261	0.14
390.467	0.19
390.674	0.09
390.88	0.14
391.086	0.17
391.292	0.11
391.498	0.18
391.704	0.17
391.91	0.14
392.116	0.12
392.322	0.09
392.528	0.16
392.734	0.15
392.94	0.17
393.146	0.14
393.352	0.12
393.557	0.18
393.763	0.17
393.969	0.21
394.175	0.17
394.381	0.17
394.587	0.13
394.792	0.16
394.998	0.19
395.204	0.25
395.41	0.14
395.615	0.19
395.821	0.2
396.027	0.17
396.233	0.15
396.438	0.19
396.644	0.27
396.85	0.21
397.055	0.15
397.261	0.17
397.466	0.26
397.672	0.14
397.878	0.19
398.083	0.21
398.289	0.12
398.494	0.22
398.7	0.24
398.905	0.1
399.111	0.24
399.316	0.12
399.522	0.18
399.727	0.18
399.932	0.16
400.138	0.16
400.343	0.23
400.549	0.2
400.754	0.22
400.959	0.18
401.165	0.15
401.37	0.14
401.575	0.12
401.78	0.21
401.986	0.15
402.191	0.13
402.396	0.14
402.601	0.19
402.807	0.21
403.012	0.17
403.217	0.21
403.422	0.15
403.627	0.13
403.832	0.19
404.037	0.24
404.243	0.23
404.448	0.15
404.653	0.14
404.858	0.21
405.063	0.2
405.268	0.19
405.473	0.13
405.678	0.13
405.883	0.32
406.088	0.24
406.293	0.15
406.498	0.19
406.703	0.22
406.907	0.21
407.112	0.11
407.317	0.23
407.522	0.23
407.727	0.13
407.932	0.23
408.136	0.29
408.341	0.19
408.546	0.17
408.751	0.18
408.956	0.18
409.16	0.24
409.365	0.15
409.57	0.17
409.774	0.21
409.979	0.24
410.184	0.21
410.388	0.14
410.593	0.23
410.798	0.18
411.002	0.2
411.207	0.23
411.411	0.19
411.616	0.13
411.82	0.17
412.025	0.24
412.229	0.18
412.434	0.19
412.638	0.22
412.843	0.17
413.047	0.22
413.252	0.15
413.456	0.17
413.66	0.2
413.865	0.14
414.069	0.25
414.273	0.18
414.478	0.19
414.682	0.17
414.886	0.18
415.091	0.13
415.295	0.12
415.499	0.19
415.703	0.19
415.908	0.22
416.112	0.08
416.316	0.29
416.52	0.18
416.724	0.14
416.929	0.17
417.133	0.28
417.337	0.16
417.541	0.16
417.745	0.2
417.949	0.29
418.153	0.21
418.357	0.19
418.561	0.32
418.765	0.18
418.969	0.29
419.173	0.19
419.377	0.21
419.581	0.29
419.785	0.2
419.989	0.21
420.193	0.23
420.397	0.22
420.601	0.26
420.804	0.29
421.008	0.22
421.212	0.24
421.416	0.29
421.62	0.21
421.823	0.21
422.027	0.35
422.231	0.25
422.435	0.19
422.638	0.24
422.842	0.2
423.046	0.15
423.249	0.23
423.453	0.23
423.657	0.25
423.86	0.21
424.064	0.21
424.268	0.26
424.471	0.26
424.675	0.3
424.878	0.25
425.082	0.23
425.285	0.26
425.489	0.24
425.692	0.21
425.896	0.18
426.099	0.25
426.303	0.19
426.506	0.13
426.71	0.24
426.913	0.31
427.116	0.27
427.32	0.21
427.523	0.25
427.726	0.34
427.93	0.21
428.133	0.25
428.336	0.21
428.54	0.24
428.743	0.23
428.946	0.26
429.149	0.23
429.353	0.28
429.556	0.27
429.759	0.19
429.962	0.26
430.165	0.24
430.368	0.24
430.571	0.22
430.775	0.23
430.978	0.16
431.181	0.26
431.384	0.22
431.587	0.19
431.79	0.22
431.993	0.27
432.196	0.26
432.399	0.2
432.602	0.22
432.805	0.23
433.008	0.24
433.211	0.18
433.414	0.3
433.616	0.3
433.819	0.22
434.022	0.18
434.225	0.33
434.428	0.29
434.631	0.37
434.833	0.25
435.036	0.2
435.239	0.27
435.442	0.25
435.645	0.22
435.847	0.26
436.05	0.24
436.253	0.28
436.455	0.22
436.658	0.25
436.861	0.31
437.063	0.22
437.266	0.24
437.468	0.3
437.671	0.36
437.874	0.26
438.076	0.2
438.279	0.2
438.481	0.26
438.684	0.22
438.886	0.28
439.089	0.17
439.291	0.29
439.494	0.27
439.696	0.23
439.899	0.27
440.101	0.31
440.303	0.23
440.506	0.29
440.708	0.3
440.91	0.3
441.113	0.22
441.315	0.36
441.517	0.26
441.72	0.31
441.922	0.27
442.124	0.23
442.326	0.33
442.529	0.38
442.731	0.22
442.933	0.37
443.135	0.27
443.337	0.25
443.539	0.26
443.742	0.24
443.944	0.31
444.146	0.23
444.348	0.23
444.55	0.24
444.752	0.26
444.954	0.25
445.156	0.29
445.358	0.23
445.56	0.3
445.762	0.28
445.964	0.27
446.166	0.23
446.368	0.26
446.57	0.33
446.772	0.28
446.974	0.25
447.175	0.27
447.377	0.24
447.579	0.22
447.781	0.2
447.983	0.34
448.184	0.32
448.386	0.31
448.588	0.21
448.79	0.3
448.991	0.25
449.193	0.26
449.395	0.36
449.597	0.31
449.798	0.35
450	0.37
450.202	0.29
450.403	0.34
450.605	0.33
450.806	0.33
451.008	0.25
451.21	0.29
451.411	0.29
451.613	0.27
451.814	0.32
452.016	0.37
452.217	0.35
452.419	0.34
452.62	0.33
452.821	0.36
453.023	0.4
453.224	0.33
453.426	0.28
453.627	0.31
453.828	0.38
454.03	0.29
454.231	0.39
454.432	0.29
454.634	0.36
454.835	0.34
455.036	0.26
455.238	0.4
455.439	0.41
455.64	0.35
455.841	0.36
456.042	0.47
456.244	0.38
456.445	0.32
456.646	0.25
456.847	0.35
457.048	0.43
457.249	0.42
457.45	0.66
457.651	0.35
457.852	0.39
458.054	0.36
458.255	0.37
458.456	0.42
458.657	0.38
458.858	0.36
459.058	0.41
459.259	0.47
459.46	0.36
459.661	0.38
459.862	0.57
460.063	0.41
460.264	0.49
460.465	0.39
460.666	0.53
460.866	0.41
461.067	0.39
461.268	0.4
461.469	0.41
461.67	0.39
461.87	0.44
462.071	0.41
462.272	0.42
462.473	0.41
462.673	0.47
462.874	0.43
463.075	0.45
463.275	0.43
463.476	0.49
463.676	0.47
463.877	0.53
464.078	0.48
464.278	0.52
464.479	0.55
464.679	0.48
464.88	0.59
465.08	0.62
465.281	0.53
465.481	0.49
465.682	0.51
465.882	0.54
466.083	0.57
466.283	0.57
466.483	0.53
466.684	0.52
466.884	0.51
467.085	0.54
467.285	0.62
467.485	0.52
467.686	0.56
467.886	0.52
468.086	0.61
468.286	0.65
468.487	0.61
468.687	0.54
468.887	0.62
469.087	0.68
469.287	0.66
469.488	0.6
469.688	0.72
469.888	0.75
470.088	0.69
470.288	0.75
470.488	0.71
470.688	0.65
470.888	0.71
471.088	0.64
471.288	0.72
471.488	0.77
471.688	0.8
471.888	0.73
472.088	0.84
472.288	0.84
472.488	0.77
472.688	0.76
472.888	0.83
473.088	0.87
473.288	0.86
473.488	0.81
473.688	1.03
473.887	0.95
474.087	0.91
474.287	0.96
474.487	0.87
474.687	0.98
474.886	0.99
475.086	0.99
475.286	1.02
475.486	1.04
475.685	1.05
475.885	1.03
476.085	1.02
476.284	1.12
476.484	1.11
476.684	1.16
476.883	1.22
477.083	1.21
477.282	1.16
477.482	1.28
477.681	1.24
477.881	1.21
478.08	1.23
478.28	1.25
478.479	1.3
478.679	1.35
478.878	1.35
479.078	1.36
479.277	1.41
479.477	1.43
479.676	1.46
479.875	1.48
480.075	1.47
480.274	1.48
480.473	1.57
480.673	1.54
480.872	1.66
481.071	1.65
481.271	1.68
481.47	1.67
481.669	1.7
481.868	1.72
482.067	1.74
482.267	1.74
482.466	1.8
482.665	1.8
482.864	1.87
483.063	1.92
483.262	1.99
483.461	2.05
483.661	2.09
483.86	2.07
484.059	2.15
484.258	2.2
484.457	2.22
484.656	2.23
484.855	2.31
485.054	2.17
485.253	2.31
485.452	2.32
485.651	2.44
485.849	2.44
486.048	2.47
486.247	2.52
486.446	2.6
486.645	2.61
486.844	2.71
487.043	2.7
487.241	2.78
487.44	2.83
487.639	2.89
487.838	2.9
488.037	2.94
488.235	3.05
488.434	3.14
488.633	2.95
488.831	3.26
489.03	3.25
489.229	3.25
489.427	3.36
489.626	3.41
489.825	3.44
490.023	3.54
490.222	3.53
490.42	3.61
490.619	3.73
490.817	3.76
491.016	3.83
491.214	3.91
491.413	3.98
491.611	3.94
491.81	4.04
492.008	4.07
492.207	4.25
492.405	4.27
492.604	4.32
492.802	4.42
493	4.55
493.199	4.6
493.397	4.67
493.595	4.79
493.794	4.75
493.992	4.98
494.19	5
494.388	5.13
494.587	5.08
494.785	5.15
494.983	5.09
495.181	5.36
495.379	5.53
495.578	5.59
495.776	5.64
495.974	5.59
496.172	5.81
496.37	6.04
496.568	6.12
496.766	6.12
496.964	6.29
497.162	6.37
497.36	6.51
497.558	6.53
497.756	6.71
497.954	6.74
498.152	6.99
498.35	7.11
498.548	7.06
498.746	7.16
498.944	7.29
499.142	7.33
499.34	7.54
499.538	7.87
499.736	7.71
499.933	7.78
500.131	7.91
500.329	8.26
500.527	8.28
500.725	8.57
500.922	8.61
501.12	8.73
501.318	8.93
501.516	9.02
501.713	9.19
501.911	9.26
502.109	9.27
502.306	9.58
502.504	9.45
502.701	9.72
502.899	9.93
503.097	10.33
503.294	10.08
503.492	10.5
503.689	10.72
503.887	10.64
504.084	10.79
504.282	10.91
504.479	11.04
504.677	11.39
504.874	11.49
505.072	11.25
505.269	11.9
505.466	12.02
505.664	12.15
505.861	12.07
506.059	12.5
506.256	12.45
506.453	12.66
506.651	12.93
506.848	13.16
507.045	13.14
507.242	13.27
507.44	13.45
507.637	13.78
507.834	13.69
508.031	14.16
508.229	14.02
508.426	14.02
508.623	14.51
508.82	14.8
509.017	14.63
509.214	14.74
509.411	15.19
509.608	15.16
509.805	15.47
510.003	15.5
510.2	15.69
510.397	16.11
510.594	15.86
510.791	16.19
510.988	16.19
511.184	16.16
511.381	15.96
511.578	16.47
511.775	16.93
511.972	16.75
512.169	16.96
512.366	17.07
512.563	17.34
512.76	17.53
512.956	17.69
513.153	17.53
513.35	17.5
513.547	17.61
513.744	17.86
513.94	18.01
514.137	18.21
514.334	18.16
514.53	18.34
514.727	18.9
514.924	18.51
515.12	18.58
515.317	18.75
515.514	18.37
515.71	18.42
515.907	19.12
516.103	19.04
516.3	18.77
516.497	19.06
516.693	19.11
516.89	19.15
517.086	19.28
517.283	19.15
517.479	18.8
517.676	19.45
517.872	19.45
518.068	19.37
518.265	19.35
518.461	19.18
518.658	19.49
518.854	19.31
519.05	19.64
519.247	19.68
519.443	19.29
519.639	19.58
519.836	19.2
520.032	19.08
520.228	19.49
520.424	19.13
520.621	19.27
520.817	19.36
521.013	19.02
521.209	19.4
521.405	19.3
521.601	19.11
521.798	18.91
521.994	18.74
522.19	18.64
522.386	18.8
522.582	18.84
522.778	18.98
522.974	18.59
523.17	18.5
523.366	18.17
523.562	18.26
523.758	18.36
523.954	17.76
524.15	18.05
524.346	17.98
524.542	17.97
524.738	17.78
524.934	17.88
525.129	17.64
525.325	17.24
525.521	17.17
525.717	17.47
525.913	16.98
526.109	16.92
526.304	17.12
526.5	16.81
526.696	16.71
526.892	16.39
527.087	16.82
527.283	16.43
527.479	16.17
527.674	15.76
527.87	15.9
528.066	15.81
528.261	15.73
528.457	15.34
528.653	15.64
528.848	15.4
529.044	15.21
529.239	14.98
529.435	14.78
529.63	14.64
529.826	14.39
530.021	14.43
530.217	14.34
530.412	14.18
530.608	14.1
530.803	13.93
530.999	13.58
531.194	13.68
531.389	13.64
531.585	13.45
531.78	13.55
531.975	13.17
532.171	13.07
532.366	13.01
532.561	12.8
532.757	12.65
532.952	12.79
533.147	12.24
533.342	12.28
533.538	12.02
533.733	12.2
533.928	11.66
534.123	11.82
534.318	11.8
534.513	11.5
534.709	11.58
534.904	11.38
535.099	11.37
535.294	11.21
535.489	11.07
535.684	10.84
535.879	10.72
536.074	10.7
536.269	10.62
536.464	10.59
536.659	10.34
536.854	10.17
537.049	10.26
537.244	10
537.439	9.92
537.634	9.78
537.828	9.75
538.023	9.59
538.218	9.49
538.413	9.33
538.608	9.31
538.803	9.16
538.997	9.09
539.192	9
539.387	8.86
539.582	8.79
539.776	8.64
539.971	8.62
540.166	8.56
540.36	8.4
540.555	8.47
540.75	8.28
540.944	8.17
541.139	8.15
541.334	7.97
541.528	7.86
541.723	7.85
541.917	7.83
542.112	7.59
542.306	7.43
542.501	7.42
542.695	7.38
542.89	7.24
543.084	7.25
543.279	7.17
543.473	7.15
543.668	7.08
543.862	6.91
544.056	6.78
544.251	6.79
544.445	6.74
544.64	6.71
544.834	6.34
545.028	6.21
545.222	6.37
545.417	6.52
545.611	6.32
545.805	6.21
546	5.97
546.194	6.03
546.388	6
546.582	5.84
546.776	5.75
546.97	5.74
547.165	5.66
547.359	5.6
547.553	5.47
547.747	5.41
547.941	5.53
548.135	5.32
548.329	5.31
548.523	5.27
548.717	5.11
548.911	5.02
549.105	4.93
549.299	5.02
549.493	4.94
549.687	4.85
549.881	4.86
550.075	4.76
550.269	4.57
550.463	4.59
550.657	4.59
550.85	4.46
551.044	4.4
551.238	4.44
551.432	4.3
551.626	4.26
551.82	4.26
552.013	4.09
552.207	4.15
552.401	4.09
552.594	4.01
552.788	3.94
552.982	3.88
553.176	3.8
553.369	3.85
553.563	3.78
553.756	3.66
553.95	3.64
554.144	3.65
554.337	3.59
554.531	3.43
554.724	3.52
554.918	3.5
555.111	3.41
555.305	3.37
555.498	3.3
555.692	3.32
555.885	3.22
556.079	3.18
556.272	3.16
556.466	3.13
556.659	3.07
556.852	3.07
557.046	2.93
557.239	2.91
557.432	2.87
557.626	2.84
557.819	2.9
558.012	2.83
558.206	2.82
558.399	2.77
558.592	2.69
558.785	2.66
558.979	2.63
559.172	2.63
559.365	2.58
559.558	2.5
559.751	2.48
559.944	2.48
560.138	2.44
560.331	2.43
560.524	2.39
560.717	2.37
560.91	2.32
561.103	2.29
561.296	2.22
561.489	2.24
561.682	2.26
561.875	2.22
562.068	2.18
562.261	2.14
562.454	2.18
562.647	2.11
562.84	2.08
563.032	2.03
563.225	2.01
563.418	1.96
563.611	1.94
563.804	1.95
563.997	1.86
564.19	1.82
564.382	1.9
564.575	1.84
564.768	1.86
564.961	1.81
565.153	1.73
565.346	1.71
565.539	1.76
565.731	1.72
565.924	1.7
566.117	1.69
566.309	1.65
566.502	1.62
566.695	1.6
566.887	1.61
567.08	1.56
567.272	1.55
567.465	1.5
567.657	1.51
567.85	1.49
568.042	1.5
568.235	1.5
568.427	1.4
568.62	1.44
568.812	1.42
569.005	1.41
569.197	1.29
569.389	1.39
569.582	1.34
569.774	1.32
569.966	1.27
570.159	1.28
570.351	1.22
570.543	1.22
570.736	1.25
570.928	1.19
571.12	1.21
571.312	1.18
571.505	1.11
571.697	1.25
571.889	1.12
572.081	1.14
572.273	1.09
572.465	1.14
572.658	1.11
572.85	1.08
573.042	1.1
573.234	1.05
573.426	1.06
573.618	1.02
573.81	1.02
574.002	1.04
574.194	1.02
574.386	0.94
574.578	0.89
574.77	0.95
574.962	0.93
575.154	0.89
575.346	0.91
575.538	0.93
575.729	0.87
575.921	0.89
576.113	0.89
576.305	0.89
576.497	0.84
576.689	0.84
576.88	0.81
577.072	0.86
577.264	0.79
577.456	0.79
577.647	0.75
577.839	0.82
578.031	0.8
578.223	0.74
578.414	0.71
578.606	0.76
578.798	0.72
578.989	0.73
579.181	0.75
579.372	0.74
579.564	0.69
579.755	0.72
579.947	0.71
580.139	0.72
580.33	0.63
580.522	0.66
580.713	0.58
580.905	0.65
581.096	0.68
581.287	0.64
581.479	0.6
581.67	0.65
581.862	0.63
582.053	0.61
582.244	0.53
582.436	0.59
582.627	0.59
582.818	0.56
583.01	0.6
583.201	0.58
583.392	0.57
583.583	0.56
583.775	0.51
583.966	0.55
584.157	0.54
584.348	0.55
584.54	0.5
584.731	0.52
584.922	0.52
585.113	0.49
585.304	0.54
585.495	0.57
585.686	0.52
585.877	0.54
586.068	0.51
586.259	0.49
586.45	0.47
586.641	0.46
586.832	0.4
587.023	0.45
587.214	0.45
587.405	0.48
587.596	0.43
587.787	0.5
587.978	0.44
588.169	0.41
588.36	0.41
588.551	0.45
588.742	0.4
588.932	0.45
589.123	0.37
589.314	0.45
589.505	0.41
589.696	0.42
589.886	0.39
590.077	0.38
590.268	0.41
590.458	0.35
590.649	0.35
590.84	0.42
591.03	0.36
591.221	0.36
591.412	0.32
591.602	0.41
591.793	0.43
591.984	0.33
592.174	0.35
592.365	0.43
592.555	0.36
592.746	0.35
592.936	0.38
593.127	0.37
593.317	0.41
593.508	0.34
593.698	0.32
593.889	0.35
594.079	0.33
594.269	0.32
594.46	0.34
594.65	0.33
594.84	0.32
595.031	0.29
595.221	0.3
595.411	0.27
595.602	0.35
595.792	0.32
595.982	0.3
596.172	0.36
596.363	0.31
596.553	0.3
596.743	0.3
596.933	0.31
597.123	0.31
597.314	0.27
597.504	0.28
597.694	0.31
597.884	0.3
598.074	0.28
598.264	0.27
598.454	0.28
598.644	0.27
598.834	0.26
599.024	0.21
599.214	0.25
599.404	0.29
599.594	0.26
599.784	0.27
599.974	0.33
600.164	0.27
600.354	0.23
600.544	0.2
600.734	0.26
600.924	0.29
601.114	0.21
601.303	0.25
601.493	0.25
601.683	0.23
601.873	0.27
602.063	0.2
602.252	0.28
602.442	0.18
602.632	0.22
602.821	0.19
603.011	0.27
603.201	0.22
603.39	0.19
603.58	0.19
603.77	0.21
603.959	0.28
604.149	0.23
604.339	0.21
604.528	0.24
604.718	0.26
604.907	0.2
605.097	0.19
605.286	0.19
605.476	0.24
605.665	0.24
605.855	0.2
606.044	0.24
606.234	0.21
606.423	0.2
606.612	0.16
606.802	0.23
606.991	0.24
607.181	0.25
607.37	0.21
607.559	0.19
607.749	0.17
607.938	0.19
608.127	0.18
608.316	0.19
608.506	0.23
608.695	0.21
608.884	0.18
609.073	0.19
609.263	0.23
609.452	0.22
609.641	0.19
609.83	0.16
610.019	0.22
610.208	0.18
610.397	0.16
610.586	0.2
610.775	0.17
610.965	0.14
611.154	0.15
611.343	0.21
611.532	0.19
611.721	0.15
611.91	0.17
612.099	0.19
612.287	0.19
612.476	0.13
612.665	0.18
612.854	0.16
613.043	0.23
613.232	0.15
613.421	0.14
613.61	0.17
613.798	0.14
613.987	0.19
614.176	0.16
614.365	0.21
614.554	0.21
614.742	0.2
614.931	0.14
615.12	0.2
615.309	0.16
615.497	0.16
615.686	0.17
615.875	0.16
616.063	0.15
616.252	0.14
616.44	0.18
616.629	0.19
616.818	0.2
617.006	0.16
617.195	0.16
617.383	0.16
617.572	0.15
617.76	0.17
617.949	0.16
618.137	0.2
618.326	0.18
618.514	0.11
618.703	0.12
618.891	0.22
619.079	0.12
619.268	0.18
619.456	0.12
619.644	0.18
619.833	0.16
620.021	0.12
620.209	0.11
620.398	0.12
620.586	0.12
620.774	0.18
620.962	0.15
621.151	0.21
621.339	0.15
621.527	0.1
621.715	0.11
621.903	0.1
622.092	0.13
622.28	0.19
622.468	0.15
622.656	0.13
622.844	0.2
623.032	0.17
623.22	0.11
623.408	0.2
623.596	0.14
623.784	0.18
623.972	0.13
624.16	0.15
624.348	0.2
624.536	0.13
624.724	0.12
624.912	0.18
625.1	0.18
625.288	0.1
625.476	0.13
625.664	0.14
625.851	0.12
626.039	0.15
626.227	0.15
626.415	0.12
626.603	0.09
626.79	0.16
626.978	0.13
627.166	0.17
627.354	0.13
627.541	0.13
627.729	0.11
627.917	0.14
628.104	0.22
628.292	0.14
628.48	0.11
628.667	0.16
628.855	0.16
629.042	0.16
629.23	0.1
629.418	0.14
629.605	0.14
629.793	0.13
629.98	0.1
630.168	0.14
630.355	0.14
630.543	0.14
630.73	0.1
630.917	0.16
631.105	0.2
631.292	0.14
631.48	0.14
631.667	0.21
631.854	0.13
632.042	0.13
632.229	0.08
632.416	0.16
632.604	0.12
632.791	0.1
632.978	0.17
633.165	0.15
633.353	0.22
633.54	0.16
633.727	0.08
633.914	0.12
634.101	0.08
634.289	0.16
634.476	0.1
634.663	0.13
634.85	0.17
635.037	0.07
635.224	0.06
635.411	0.19
635.598	0.16
635.785	0.12
635.972	0.12
636.159	0.14
636.346	0.1
636.533	0.11
636.72	0.1
636.907	0.11
637.094	0.17
637.281	0.13
637.468	0.13
637.655	0.11
637.842	0.13
638.029	0.12
638.215	0.17
638.402	0.12
638.589	0.09
638.776	0.12
638.963	0.1
639.149	0.15
639.336	0.2
639.523	0.08
639.709	0.1
639.896	0.1
640.083	0.19
640.27	0.15
640.456	0.12
640.643	0.18
640.829	0.06
641.016	0.11
641.203	0.1
641.389	0.12
641.576	0.14
641.762	0.1
641.949	0.08
642.135	0.12
642.322	0.13
642.508	0.06
642.695	0.13
642.881	0.1
643.068	0.13
643.254	0.15
643.441	0.15
643.627	0.13
643.813	0.09
644	0.14
644.186	0.08
644.372	0.07
644.559	0.17
644.745	0.09
644.931	0.09
645.118	0.13
645.304	0.13
645.49	0.09
645.676	0.12
645.862	0.13
646.049	0.17
646.235	0.14
646.421	0.2
646.607	0.2
646.793	0.1
646.979	0.09
647.165	0.14
647.352	0.11
647.538	0.14
647.724	0.09
647.91	0.14
648.096	0.15
648.282	0.15
648.468	0.13
648.654	0.14
648.84	0.16
649.026	0.12
649.212	0.11
649.397	0.1
649.583	0.07
649.769	0.13
649.955	0.12
650.141	0.14
650.327	0.2
650.513	0.09
650.698	0.14
650.884	0.03
651.07	0.14
651.256	0.12
651.442	0.11
651.627	0.11
651.813	0.15
651.999	0.12
652.184	0.13
652.37	0.1
652.556	0.13
652.741	0.16
652.927	0.06
653.113	0.13
653.298	0.12
653.484	0.11
653.669	0.05
653.855	0.11
654.04	0.13
654.226	0.11
654.412	0.11
654.597	0.07
654.782	0.12
654.968	0.16
655.153	0.12
655.339	0.1
655.524	0.09
655.71	0.14
655.895	0.08
656.08	0.15
656.266	0.19
656.451	0.13
656.636	0.1
656.822	0.15
657.007	0.12
657.192	0.1
657.378	0.06
657.563	0.12
657.748	0.15
657.933	0.15
658.118	0.09
658.304	0.09
658.489	0.17
658.674	0.14
658.859	0.09
659.044	0.14
659.229	0.13
659.414	0.08
659.599	0.1
659.785	0.09
659.97	0.13
660.155	0.14
660.34	0.14
660.525	0.15
660.71	0.11
660.895	0.18
661.08	0.1
661.264	0.13
661.449	0.19
661.634	0.16
661.819	0.11
662.004	0.15
662.189	0.05
662.374	0.11
662.559	0.07
662.743	0.09
662.928	0.12
663.113	0.1
663.298	0.08
663.483	0.12
663.667	0.14
663.852	0.1
664.037	0.18
664.221	0.13
664.406	0.19
664.591	0.16
664.775	0.12
664.96	0.08
665.145	0.12
665.329	0.16
665.514	0.14
665.698	0.11
665.883	0.1
666.068	0.2
666.252	0.14
666.437	0.03
666.621	0.14
666.806	0.18
666.99	0.11
667.174	0.07
667.359	0.19
667.543	0.09
667.728	0.11
667.912	0.09
668.096	0.16
668.281	0.17
668.465	0.14
668.649	0.19
668.834	0.14
669.018	0.14
669.202	0.1
669.387	0.13
669.571	0.19
669.755	0.11
669.939	0.16
670.124	0.14
670.308	0.21
670.492	0.14
670.676	0.12
670.86	0.15
671.044	0.11
671.228	0.19
671.413	0.11
671.597	0.11
671.781	0.12
671.965	0.17
672.149	0.13
672.333	0.15
672.517	0.11
672.701	0.2
672.885	0.14
673.069	0.07
673.253	0.19
673.437	0.16
673.621	0.1
673.804	0.15
673.988	0.17
674.172	0.19
674.356	0.1
674.54	0.15
674.724	0.25
674.908	0.12
675.091	0.18
675.275	0.16
675.459	0.2
675.643	0.24
675.826	0.2
676.01	0.15
676.194	0.18
676.377	0.2
676.561	0.23
676.745	0.19
676.928	0.16
677.112	0.24
677.296	0.09
677.479	0.17
677.663	0.13
677.846	0.2
678.03	0.14
678.213	0.15
678.397	0.2
678.58	0.12
678.764	0.15
678.947	0.12
679.131	0.16
679.314	0.24
679.498	0.14
679.681	0.16
679.865	0.21
680.048	0.17
680.231	0.19
680.415	0.14
680.598	0.17
680.781	0.13
680.965	0.12
681.148	0.19
681.331	0.19
681.514	0.19
681.698	0.16
681.881	0.2
682.064	0.16
682.247	0.22
682.43	0.08
682.614	0.2
682.797	0.19
682.98	0.17
683.163	0.1
683.346	0.21
683.529	0.15
683.712	0.15
683.895	0.16
684.078	0.15
684.261	0.1
684.444	0.18
684.627	0.18
684.81	0.1
684.993	0.15
685.176	0.15
685.359	0.08
685.542	0.15
685.725	0.23
685.908	0.17
686.091	0.15
686.274	0.23
686.457	0.14
686.639	0.14
686.822	0.17
687.005	0.11
687.188	0.16
687.371	0.24
687.553	0.18
687.736	0.19
687.919	0.23
688.102	0.25
688.284	0.16
688.467	0.15
688.65	0.1
688.832	0.06
689.015	0.14
689.197	0.1
689.38	0.27
689.563	0.21
689.745	0.1
689.928	0.1
690.11	0.13
690.293	0.14
690.475	0.1
690.658	0.19
690.84	0.11
691.023	0.15
691.205	0.1
691.388	0.1
691.57	0.2
691.752	0.18
691.935	0.05
692.117	0.11
692.3	0.16
692.482	0.13
692.664	0.19
692.847	0.14
693.029	0.26
693.211	0.18
693.393	0.13
693.576	0.14
693.758	0.12
693.94	0.15
694.122	0.11
694.304	0.15
694.487	0.11
694.669	0.21
694.851	0.11
695.033	0.15
695.215	0.18
695.397	0.1
695.579	0.18
695.761	0.11
695.943	0.12
696.125	0.2
696.308	0.17
696.49	0.11
696.671	0.27
696.853	0.14
697.035	0.28
697.217	0.16
697.399	0.24
697.581	0.08
697.763	0.15
697.945	0.09
698.127	0.09
698.309	0.19
698.491	0.13
698.672	0.17
698.854	0.22
699.036	0.23
699.218	0.22
699.399	0.21
699.581	0.2
699.763	0.19
699.945	0.15
700.126	0.09
700.308	0.18
700.49	0.19
700.671	0.12
700.853	0.14
701.035	0.23
701.216	0.21
701.398	0.11
701.579	0.18
701.761	0.17
701.943	0.15
702.124	0.13
702.306	0.12
702.487	0.26
702.669	0.11
702.85	0.12
703.031	0.09
703.213	0.29
703.394	0.15
703.576	0.12
703.757	0.28
703.938	0.24
704.12	0.29
704.301	0.17
704.483	0.14
704.664	0.14
704.845	0.18
705.026	0.22
705.208	0.14
705.389	0.17
705.57	0.21
705.751	0.15
705.933	0.15
706.114	0.22
706.295	0.16
706.476	0.06
706.657	0.23
706.838	0.23
707.02	0.23
707.201	0.15
707.382	0.14
707.563	0.26
707.744	0.14
707.925	0.12
708.106	0.13
708.287	0.18
708.468	0.23
708.649	0.12
708.83	0.16
709.011	0.14
709.192	0.26
709.373	0.11
709.554	0.16
709.734	0.24
709.915	0.22
710.096	0.12
710.277	0.07
710.458	0.18
710.639	0.21
710.819	0.04
711	0.13
711.181	0.17
711.362	0.19
711.542	0.18
711.723	0.11
711.904	0.19
712.085	0.18
712.265	0.19
712.446	0.03
712.627	0.13
712.807	0.17
712.988	0.17
713.168	0.12
713.349	0.23
713.53	0.05
713.71	0.11
713.891	0.06
714.071	0.14
714.252	0.15
714.432	0.15
714.613	0.05
714.793	0.17
714.974	0.25
715.154	0.25
715.334	0.21
715.515	0.26
715.695	0.08
715.876	0.1
716.056	0.13
716.236	0.13
716.417	0.13
716.597	0.14
716.777	0.37
716.957	0.18
717.138	0.16
717.318	0.21
717.498	0.08
717.678	0.11
717.859	0.18
718.039	0.09
718.219	0.16
718.399	0.28
718.579	0.16
718.759	0.12
718.939	0.29
719.12	0.19
719.3	0.22
719.48	0.01
719.66	0.03
719.84	0.24
720.02	0.11
720.2	0.16
720.38	0.18
720.56	0.23
720.74	0.13
720.92	0.23
721.1	0.24
721.279	0.22
721.459	0.25
721.639	0.1
721.819	0.13
721.999	0.13
722.179	0.24
722.359	0.02
722.538	0.27
722.718	0.22
722.898	0.12
723.078	0.19
723.257	0.17
723.437	0.16
723.617	0.25
723.797	0.13
723.976	0.03
724.156	0.25
724.336	0.25
724.515	0.33
724.695	0.07
724.874	0.14
725.054	0.3
725.234	0.19
725.413	0.21
725.593	0.22
725.772	0.22
725.952	0.18
726.131	0.16
726.311	0.13
726.49	0.26
726.67	0.1
726.849	0.2
727.028	0.14
727.208	0.17
727.387	0.25
727.567	0.1
727.746	0.18
727.925	0.18
728.105	0.14
728.284	0.19
728.463	0.11
728.643	0.27
728.822	0.12
729.001	0.13
729.18	0.17
729.359	0.26
729.539	0.17
729.718	0.2
729.897	0.19
730.076	0.11
730.255	0.11
730.434	0.16
730.614	0.19
730.793	0.22
730.972	0.15
731.151	0.17
731.33	0.34
731.509	0.19
731.688	0.24
731.867	0.2
732.046	0.07
732.225	0.25
732.404	0.12
732.583	0.05
732.762	0.22
732.941	0.32
733.12	0.25
733.298	0.14
733.477	0.22
733.656	0.12
733.835	0.11
734.014	0.31
734.193	0.13
734.371	0.34
734.55	0.28
734.729	0.05
734.908	0.26
735.086	0.23
735.265	0.2
735.444	0.06
735.623	0.17
735.801	0.09
735.98	0.33
736.159	0.21
736.337	0.28
736.516	0.28
736.694	0.19
736.873	0.23
737.052	0.26
737.23	0.23
737.409	0.15
737.587	0.43
737.766	0.05
737.944	0.14
738.123	0.26
738.301	0.29
738.479	0.17
738.658	0.22
738.836	-0.02
739.015	0.29
739.193	0.33
739.371	0.09
739.55	0.21
739.728	0.12
739.906	0.31
740.085	0.34
740.263	0.15
740.441	0.04
740.62	0.35
740.798	0.36
740.976	0.17
741.154	0.25
741.332	0.27
741.511	0.04
741.689	0.16
741.867	0.29
742.045	0.2
742.223	0.07
742.401	0.21
742.579	0.08
742.757	0.32
742.935	0.07
743.114	0.19
743.292	0.21
743.47	0.19
743.648	0.15
743.826	0.17
744.004	0.28
744.181	0.18
744.359	0.16
744.537	0.32
744.715	0.21
744.893	0.17
745.071	0.16
745.249	0.17
745.427	0.22
745.605	0.19
745.782	0.11
745.96	0.28
746.138	0.21
746.316	0.27
746.493	0.12
746.671	0.09
746.849	0.21
747.027	0.34
747.204	0.22
747.382	0.32
747.56	0.07
747.737	0.17
747.915	0.12
748.093	0.24
748.27	0.03
748.448	0.09
748.625	0.02
748.803	0.14
748.98	0.17
749.158	0.21
749.335	0.28
749.513	0.21
749.69	0.08
749.868	0.2
750.045	0.3
750.223	0.12
750.4	-0.08
750.578	0.28
750.755	0.19
750.932	0.01
751.11	0.33
751.287	-0.03
751.464	0.27
751.642	0.09
751.819	0.23
751.996	0.16
752.173	0.11
752.351	-0.05
752.528	0.24
752.705	0.07
752.882	0.12
753.06	0.27
753.237	0.33
753.414	0.25
753.591	0.31
753.768	0.21
753.945	0.08
754.122	0.1
754.299	0.2
754.476	0.13
754.654	0.19
754.831	0.3
755.008	0.25
755.185	0.2
755.362	0.1
755.539	0.12
755.716	0.19
755.892	0.16
756.069	0.14
756.246	0.13
756.423	0.22
756.6	0.31
756.777	0.16
756.954	0.18
757.131	0.16
757.307	0.11
757.484	0.1
757.661	0.27
757.838	0.17
758.015	0.26
758.191	0.24
758.368	0.24
758.545	0.27
758.721	0.35
758.898	0.04
759.075	0.28
759.251	0.27
759.428	0.21
759.605	0.03
759.781	0.12
759.958	0.27
760.134	0.22
760.311	0.09
760.488	0.33
760.664	0.23
760.841	0.13
761.017	0.02
761.194	0.28
761.37	0.24
761.547	0.11
761.723	0.2
761.899	0.32
762.076	0.05
762.252	0.01
762.429	0.14
762.605	0.23
762.781	0.12
762.958	0.3
763.134	0.23
763.31	0.17
763.486	0.36
763.663	0.04
763.839	0.3
764.015	-0.13
764.191	0.17
764.368	0.08
764.544	0.15
764.72	0.21
764.896	0.3
765.072	0.18
765.248	0.14
765.425	0.09
765.601	0.18
765.777	0.24
765.953	0.04
766.129	0.15
766.305	0.18
766.481	0.37
766.657	0.09
766.833	0.39
767.009	0.11
767.185	0.13
767.361	0.13
767.537	0.15
767.713	0.26
767.889	0.1
768.065	0.22
768.24	0.28
768.416	0.25
768.592	0.2
768.768	0.19
768.944	0.2
769.12	0.04
769.295	0.23
769.471	0.19
769.647	0.28
769.823	0.34
769.998	0.06
770.174	0.09
770.35	0.52
770.525	0.49
770.701	0.19
770.877	0.09
771.052	0.08
771.228	0.42
771.403	0.16
771.579	0.38
771.755	0.46
771.93	0.09
772.106	-0
772.281	-0.02
772.457	0.27
772.632	0.29
772.808	-0.04
772.983	0.15
773.159	0.17
773.334	0.34
773.509	0.31
773.685	0.07
773.86	0.53
774.036	0.61
774.211	0.13
774.386	0.2
774.562	0.24
774.737	0.17
774.912	-0.01
775.087	0.35
775.263	0.11
775.438	0.22
775.613	0.18
775.788	0.09
775.964	0.23
776.139	0.61
776.314	0.01
776.489	0.28
776.664	0.25
776.839	0.09
777.014	0.38
777.19	0.24
777.365	0.49
777.54	0.35
777.715	0.15
777.89	0.3
778.065	0.2
778.24	0.11
778.415	0.33
778.59	0.11
778.765	0.24
778.94	0.19
779.115	0.11
779.289	0.24
779.464	0.26
779.639	0.17
779.814	0.02
779.989	0.1
780.164	0.34
780.339	0.29
780.513	0.06
780.688	0.07
780.863	0.3
781.038	0.48
781.212	0.1
781.387	0.36
781.562	0.54
781.737	0.15
781.911	0.38
782.086	0.08
782.261	0.05
782.435	0.55
782.61	0.11
782.784	0.14
782.959	0.34
783.134	0.15
783.308	0.04
783.483	0.16
783.657	0.58
783.832	0.4
784.006	-0.02
784.181	0.47
784.355	0.55
784.53	0.03
784.704	0.04
784.878	0.35
785.053	0.19
785.227	0.47
785.402	0.7
785.576	0.11
785.75	0.15
785.925	0.14
786.099	0.31
786.273	0.38
786.448	0.28
786.622	0.58
786.796	0.12
786.97	0.2
787.145	0.85
787.319	-0.01
787.493	-0.02
787.667	-0.15
787.841	0.13
788.015	0.36
788.19	0.22
788.364	0.44
788.538	0.5
788.712	0.27
788.886	0.25
789.06	0.47
789.234	0.41
789.408	0.27
789.582	0.26
789.756	0.33
789.93	-0.06
790.104	0.14
790.278	-0.01
790.452	0.29
790.626	0.32
790.8	-0.01
790.973	0.39
791.147	0.54
791.321	0.34
791.495	0.44
791.669	0.23
791.843	0.43
792.016	0.12
792.19	0.53
792.364	0.06
792.538	0.88
792.711	0.34
792.885	0.08
793.059	0.16
793.233	-0.15
793.406	0.36
793.58	0.48
793.754	0.23
793.927	0.08
794.101	0.45
794.274	0.25
794.448	0.43
794.622	-0.01
794.795	0.43
794.969	0.21
795.142	0.5
795.316	0.29
795.489	0.43
795.663	0.61
795.836	0.31
796.009	0.19
796.183	0.57
796.356	0.41
796.53	0.35
796.703	0.23
796.876	0.99
797.05	0.27
797.223	0.22
797.396	0.52
797.57	0.23
797.743	0.69
797.916	0.1
798.09	0.02
798.263	0.43
798.436	0.44
798.609	0.04
798.782	0.38
798.956	0.48
799.129	0.18
799.302	0.12
799.475	0.03
799.648	0.05
799.821	0.16
799.994	0.23
800.167	-0.06
800.34	0.17
800.514	0.31
800.687	0.23
800.86	0.01
801.033	0.32
801.206	0.37
801.379	-0.09
801.551	0.66
801.724	0.56
801.897	0.49
802.07	0.45
802.243	-0.4
802.416	0.05
802.589	0.03
802.762	0.42
802.935	0.42
803.107	0.49
803.28	0.83
803.453	0.4
803.626	0.18
803.798	0.56
803.971	0.09
804.144	0.47
804.317	0.59
804.489	0.44
804.662	0.23
804.835	0.31
805.007	-0.03
805.18	0.77
805.353	0.39
805.525	0.09
805.698	0.1
805.87	0.38
806.043	0.6
806.215	-0.04
806.388	0.15
806.56	0.08
806.733	0.8
806.905	0.37
807.078	-0.12
807.25	0.34
807.423	0.54
807.595	0.44
807.768	0.36
807.94	0.44
808.112	0.56
808.285	0.49
808.457	0.13
808.629	0.64
808.802	0.79
808.974	0.54
809.146	0.55
809.318	0.18
809.491	0.39
809.663	0.67
809.835	0.52
810.007	0.86
810.18	0.76
810.352	0.17
810.524	0.31
810.696	0.3
810.868	0.83
811.04	0.01
811.212	0.14
811.384	0.48
811.556	0.83
811.728	0.33
811.901	1.1
812.073	0.35
812.245	0.81
812.417	0.55
812.589	-0.13
812.76	0.39
812.932	0.36
813.104	0.88
813.276	0.42
813.448	0.75
813.62	0.48
813.792	0.45
813.964	0.23
814.136	0.71
814.307	0.02
814.479	0.1
814.651	0.08
814.823	1.35
814.995	0.53
815.166	0.32
815.338	0.21
815.51	-0.14
815.681	1.13
815.853	0.28
816.025	0.25
816.196	0.9
816.368	0.64
816.54	-0.14
816.711	-0.12
816.883	0.64
817.054	1.55
817.226	-0.1
817.398	0.5
817.569	0.03
817.741	0.26
817.912	0.48
818.084	0.13
818.255	0.78
818.426	-0.27
818.598	0.22
818.769	0.03
818.941	0.68
819.112	0.66
819.283	1
819.455	0.08
819.626	0.67
819.798	0.49
819.969	0.29
820.14	0.17
820.311	0.51
820.483	0.35
820.654	0.4
820.825	0.17
820.996	0.19
821.168	-0.36
821.339	0.54
821.51	-0.25
821.681	0.26
821.852	0.76
822.023	0.23
822.195	0.09
822.366	0.45
822.537	0.5
822.708	0.29
822.879	0.38
823.05	0.78
823.221	0.39
823.392	1.06
823.563	0.54
823.734	0.66
823.905	0.66
824.076	0.02
824.247	-0.31
824.418	0.59
824.589	1.43
824.759	-0.21
824.93	0.2
825.101	0.6
825.272	1.29
825.443	0.94
825.614	1.18
825.784	-0.17
825.955	1.19
826.126	1.14
826.297	0.13
826.467	1.02
826.638	1.33
826.809	-0.06
826.98	0.83
827.15	0.92
827.321	0.54
827.492	1.54
827.662	0.56
827.833	1.41
828.003	0.68
828.174	-0.58
828.345	-0.47
828.515	0.98
828.686	0.5
828.856	0.3
829.027	0.88
829.197	0.69
829.368	0.66
829.538	-0.13
829.709	0.62
829.879	0.85
830.049	0.68
830.22	0.46
830.39	0.54
830.56	0.83
830.731	0.77
830.901	0.21
831.072	0.26
831.242	0.92
831.412	0.41
831.582	0.06
831.753	-0.32
831.923	1.26
832.093	0.96
832.263	0.78
832.434	0.01
832.604	0.35
832.774	1.12
832.944	0.17
833.114	0.35
833.284	0.48
833.454	-0.13
833.624	-0.06
833.795	0.07
833.965	0.98
834.135	0.56
834.305	0.13
834.475	-0.37
834.645	0.24
834.815	-0.08
834.985	-0.11
835.155	0.22
835.325	1.31
835.494	1.08
835.664	0.5
835.834	-0.45
836.004	0.63
836.174	1.14
836.344	0.04
836.514	-0.48
836.684	0.59
836.853	0.19
837.023	0.59
837.193	-0.55
837.363	1.64
837.532	0.99
837.702	0.08
837.872	0.23
838.041	1.08
838.211	1.47
838.381	0.51
838.55	0.3
838.72	2.24
838.89	0.97
839.059	0.2
839.229	0.6
839.398	1.6
839.568	0.99
839.738	0.31
839.907	2.37
840.077	1.15
840.246	0.37
840.416	-0.04
840.585	-0.39
840.755	1.62
840.924	1.95
841.093	0.35
841.263	0.65
841.432	0.95
841.602	0.02
841.771	-0.45
841.94	0.89
842.11	2.9
842.279	1.8
842.448	0.03
842.617	-0.96
842.787	1.85
842.956	-0.16
843.125	0.5
843.294	1.51
843.464	1.9
843.633	1.03
843.802	-0.16
843.971	1.05
844.14	1.45
844.309	1.09
844.479	0.08
844.648	0.13
844.817	0.56
844.986	0.46
845.155	0.46
845.324	0.04
845.493	0.59
845.662	0.57
845.831	1.33
846	0.69
846.169	-0
846.338	2.69
846.507	0.71
846.676	0.44
846.844	0.27
847.013	1.6
847.182	0.44
847.351	0.56
847.52	0.55
847.689	1.12
847.858	0.77
848.026	-0.06
848.195	0.64
848.364	0.55
848.533	0.84
848.701	0.07
848.87	0.6
849.039	1.44
849.207	1.29
849.376	2
849.545	1.45
849.713	0.32
849.882	0.09
850.051	-0.2
850.219	1.33
850.388	2.13
850.556	-0.36
850.725	1.04
850.893	0.96
851.062	0.86
851.23	1.46
851.399	-0.34
851.567	0.91
851.736	0.8
851.904	-0.31
852.073	1.32
852.241	1.1
852.41	0.71
852.578	0.59
852.746	0.89
852.915	1.97
853.083	1.36
853.251	-0.43
853.42	-0.1
853.588	0.32
853.756	2.51
853.924	0.43
854.093	0.69
854.261	0.21
854.429	-0.97
854.597	1.68
854.765	0
854.934	2.07
855.102	2.12
855.27	0.87
855.438	2.03
855.606	1.57
855.774	2.93
855.942	-0.11
856.11	0.13
856.278	0.33
856.446	1.94
856.614	1.49
856.782	-1.19
856.95	2.21
857.118	2.29
857.286	1.25
857.454	0.12
857.622	2.53
857.79	1.75
857.958	-0.61
858.126	0.55
858.294	-1.42
858.462	0.71
858.629	-0.24
858.797	-0.2
858.965	1.56
859.133	1.62
859.301	0.57
859.468	1.28
859.636	-0.32
859.804	1.72
859.971	1.94
860.139	0.66
860.307	2.47
860.474	1.48
860.642	0.18
860.81	0.36
860.977	-0.51
861.145	1.51
861.313	0.07
861.48	1.13
861.648	1.45
861.815	0.98
861.983	0.16
862.15	0.11
862.318	2.5
862.485	1.59
862.653	0.36
862.82	-0.96
862.988	2.38
863.155	1.76
863.322	-0.22
863.49	0.94
863.657	1.29
863.824	2.86
863.992	0.87
864.159	0.93
864.326	2.26
864.494	1.22
864.661	2.65
864.828	-0.19
864.996	1.81
865.163	3.01
865.33	1.61
865.497	-1.12
865.664	0.8
865.832	-1.06
865.999	0.3
866.166	0.32
866.333	0.72
866.5	-0.68
866.667	2.8
866.834	1.82
867.001	3.57
867.168	-0.51
867.335	0.39
867.502	-0.29
867.669	1.27
867.836	2.05
868.003	2.35
868.17	2.8
868.337	1.04
868.504	4.58
868.671	-1.48
868.838	-0.5
869.005	2.29
869.172	2.95
869.339	3
869.505	1.24
869.672	2.44
869.839	3.77
870.006	1.94
870.173	-1.43
870.339	-0.28
870.506	2.25
870.673	-0.94
870.84	1.81
871.006	0.61
871.173	0.13
871.34	0.28
871.506	-1.58
871.673	2.43
871.839	-1.43
872.006	-0.26
872.173	-0.01
872.339	0.39
872.506	2.94
872.672	0.12
872.839	-0.13
873.005	2.29
873.172	3.42
873.338	2.58
873.505	0.22
873.671	1.29
873.838	1.6
874.004	0.21
874.171	0.62
874.337	2.16
874.503	2.88
874.67	1.26
874.836	1.09
875.002	4.36
875.169	1.81
875.335	0.64
875.501	0.78
875.668	3.39
875.834	2.26
876	1.75
876.166	2.22
876.332	2.25
876.499	3.04
876.665	0.57
876.831	0.61
876.997	4.46
877.163	3.66
877.329	1.07
877.495	0.83
877.662	0.59
877.828	0.14
877.994	1.65
878.16	0.86
878.326	0.49
878.492	0.49
878.658	1.71
878.824	1.75
878.99	2.98
879.156	-0.61
879.322	3.72
879.487	1.35
879.653	3.5
879.819	0.47
879.985	-0.16
880.151	1.44
880.317	2.03
880.483	2.12
880.648	1.76
880.814	-0.05
880.98	1.92
881.146	-2.75
881.312	-1.49
881.477	0.83
881.643	2.32
881.809	2.81
881.974	2.34
882.14	-1.01
882.306	1.8
882.471	5.23
882.637	0.36
882.803	0.94
882.968	3.93
883.134	4.48
883.299	0.51
883.465	0.96
883.63	0.72
883.796	1.37
883.961	1.63
884.127	1.07
884.292	-3.85
884.458	0.64
884.623	0.63
