Data from Apollo_Calib_20240827__AbsoluteIrradiance__449__06-38-00-538.txt Node

Date: Wed Aug 28 06:38:00 BST 2024
User: biology
Spectrometer: FLMT08252
Trigger mode: 0
Integration Time (sec): 5.000000E-1
Scans to average: 5
Electric dark correction enabled: true
Nonlinearity correction enabled: false
Boxcar width: 0
XAxis mode: Wavelengths
Number of Pixels in Spectrum: 3648
>>>>>Begin Spectral Data<<<<<
179.588	-0
179.809	-0
180.03	-0
180.251	-0
180.473	-0
180.694	0
180.915	0
181.136	-0
181.357	0
181.578	0
181.799	-0
182.02	-0
182.241	-0
182.462	-0
182.683	0
182.904	-0
183.125	-0
183.346	0
183.567	0
183.788	0
184.009	0
184.23	0
184.451	0
184.672	0
184.892	0
185.113	0
185.334	0
185.555	0
185.776	0
185.996	0
186.217	0
186.438	0
186.659	0
186.879	0
187.1	0
187.321	0
187.541	0
187.762	0
187.983	0
188.203	0
188.424	0
188.644	0
188.865	0
189.086	0
189.306	0
189.527	0
189.747	0
189.968	0
190.188	0
190.409	0
190.629	0
190.849	0
191.07	0
191.29	0
191.511	0
191.731	0
191.951	0
192.172	0
192.392	0
192.612	0
192.833	0
193.053	0
193.273	0
193.493	0
193.714	0
193.934	0
194.154	0
194.374	0
194.594	0
194.815	0
195.035	0
195.255	0
195.475	0
195.695	0
195.915	0
196.135	0
196.355	0
196.575	0
196.795	0
197.015	0
197.235	0
197.455	0
197.675	0
197.895	0
198.115	0
198.335	0
198.555	0
198.775	0
198.995	0
199.214	0
199.434	0
199.654	0
199.874	0
200.094	0.58
200.313	1.49
200.533	1.08
200.753	0.86
200.973	2.67
201.192	1.82
201.412	0.35
201.632	1.06
201.851	2.35
202.071	1.02
202.291	0.98
202.51	0.67
202.73	1.85
202.95	1.14
203.169	0.83
203.389	1.03
203.608	1.68
203.828	1.09
204.047	0.9
204.267	1.64
204.486	1.37
204.706	1.04
204.925	1.17
205.145	0.72
205.364	1.54
205.583	1.72
205.803	0.97
206.022	0.86
206.242	1.11
206.461	1.12
206.68	0.76
206.9	1.04
207.119	1.78
207.338	1.13
207.557	0.54
207.777	0.62
207.996	0.59
208.215	1.61
208.434	0.6
208.654	0.41
208.873	0.97
209.092	1.44
209.311	0.79
209.53	0.69
209.749	0.83
209.968	0.47
210.187	0.81
210.407	0.4
210.626	0.68
210.845	1.04
211.064	0.84
211.283	0.48
211.502	0.92
211.721	0.56
211.94	0.55
212.159	0.83
212.377	0.97
212.596	0.97
212.815	0.65
213.034	0.72
213.253	0.81
213.472	0.63
213.691	0.48
213.91	0.56
214.128	0.43
214.347	1.16
214.566	0.33
214.785	0.14
215.003	0.82
215.222	0.71
215.441	0.77
215.66	0.27
215.878	0.58
216.097	0.63
216.316	0.37
216.534	0.48
216.753	0.63
216.972	0.54
217.19	0.57
217.409	0.35
217.627	0.38
217.846	0.48
218.064	0.36
218.283	0.28
218.501	1.04
218.72	0.67
218.938	0.37
219.157	0.47
219.375	0.74
219.594	0.62
219.812	0.42
220.031	0.28
220.249	0.87
220.467	0.75
220.686	0.23
220.904	0.3
221.122	0.32
221.341	0.82
221.559	0.37
221.777	0.3
221.995	0.49
222.214	0.67
222.432	0.26
222.65	0.55
222.868	0.48
223.086	0.52
223.305	0.54
223.523	0.35
223.741	0.77
223.959	0.38
224.177	0.19
224.395	0.33
224.613	0.45
224.831	0.55
225.049	0.3
225.267	0.43
225.485	0.51
225.703	0.46
225.921	0.37
226.139	0.29
226.357	0.51
226.575	0.45
226.793	0.37
227.011	1.04
227.229	0.37
227.447	0.59
227.665	0.36
227.883	0.06
228.1	0.36
228.318	0.46
228.536	0.29
228.754	0.17
228.972	0.43
229.189	0.38
229.407	0.3
229.625	0.41
229.843	0.47
230.06	0.53
230.278	0.34
230.496	0.31
230.713	0.49
230.931	0.39
231.149	0.44
231.366	0.23
231.584	0.26
231.801	0.71
232.019	0.28
232.236	0.21
232.454	0.14
232.671	0.39
232.889	0.37
233.106	0.24
233.324	0.27
233.541	0.22
233.759	0.34
233.976	0.21
234.194	0.32
234.411	0.37
234.628	0.25
234.846	0.29
235.063	0.33
235.28	0.25
235.498	0.25
235.715	0.24
235.932	0.43
236.149	0.32
236.367	0.24
236.584	0.23
236.801	0.17
237.018	0.4
237.236	0.33
237.453	0.2
237.67	0.46
237.887	0.25
238.104	0.27
238.321	0.12
238.538	0.31
238.755	0.28
238.973	0.19
239.19	0.36
239.407	0.33
239.624	0.35
239.841	0.19
240.058	0.17
240.275	0.37
240.492	0.31
240.709	0.31
240.925	0.31
241.142	0.29
241.359	0.17
241.576	0.26
241.793	0.23
242.01	0.25
242.227	0.39
242.444	0.36
242.66	0.36
242.877	0.33
243.094	0.17
243.311	0.3
243.527	0.31
243.744	0.34
243.961	0.35
244.178	0.17
244.394	0.23
244.611	0.41
244.828	0.4
245.044	0.2
245.261	0.2
245.477	0.3
245.694	0.32
245.911	0.19
246.127	0.25
246.344	0.36
246.56	0.34
246.777	0.22
246.993	0.29
247.21	0.24
247.426	0.15
247.643	0.28
247.859	0.14
248.076	0.19
248.292	0.44
248.508	0.2
248.725	0.29
248.941	0.28
249.157	0.37
249.374	0.22
249.59	0.19
249.806	0.32
250.023	0.28
250.239	0.15
250.455	0.23
250.671	0.25
250.888	0.31
251.104	0.27
251.32	0.22
251.536	0.27
251.752	0.26
251.969	0.3
252.185	0.33
252.401	0.37
252.617	0.32
252.833	0.23
253.049	0.18
253.265	0.25
253.481	0.26
253.697	0.19
253.913	0.19
254.129	0.27
254.345	0.24
254.561	0.21
254.777	0.19
254.993	0.19
255.209	0.26
255.425	0.18
255.641	0.21
255.857	0.32
256.073	0.2
256.288	0.08
256.504	0.26
256.72	0.24
256.936	0.33
257.152	0.32
257.367	0.14
257.583	0.23
257.799	0.26
258.015	0.2
258.23	0.16
258.446	0.43
258.662	0.21
258.877	0.18
259.093	0.15
259.309	0.28
259.524	0.27
259.74	0.17
259.955	0.09
260.171	0.22
260.387	0.22
260.602	0.33
260.818	0.25
261.033	0.16
261.249	0.21
261.464	0.22
261.68	0.1
261.895	0.26
262.11	0.29
262.326	0.21
262.541	0.1
262.757	0.3
262.972	0.29
263.187	0.22
263.403	0.15
263.618	0.28
263.833	0.19
264.049	0.17
264.264	0.2
264.479	0.26
264.694	0.29
264.91	0.11
265.125	0.18
265.34	0.28
265.555	0.34
265.77	0.22
265.986	0.18
266.201	0.27
266.416	0.31
266.631	0.19
266.846	0.22
267.061	0.26
267.276	0.24
267.491	0.12
267.706	0.22
267.921	0.23
268.136	0.2
268.351	0.22
268.566	0.13
268.781	0.3
268.996	0.23
269.211	0.19
269.426	0.11
269.641	0.13
269.856	0.25
270.071	0.13
270.285	0.12
270.5	0.23
270.715	0.27
270.93	0.2
271.145	0.21
271.359	0.3
271.574	0.08
271.789	0.2
272.004	0.17
272.218	0.16
272.433	0.24
272.648	0.16
272.862	0.25
273.077	0.2
273.292	0.2
273.506	0.15
273.721	0.2
273.936	0.21
274.15	0.25
274.365	0.18
274.579	0.25
274.794	0.25
275.008	0.25
275.223	0.1
275.437	0.14
275.652	0.24
275.866	0.26
276.081	0.19
276.295	0.27
276.509	0.15
276.724	0.21
276.938	0.17
277.153	0.21
277.367	0.26
277.581	0.16
277.796	0.17
278.01	0.16
278.224	0.19
278.438	0.26
278.653	0.13
278.867	0.16
279.081	-0.08
279.295	0.15
279.51	0.2
279.724	0.05
279.938	0.2
280.152	0.16
280.366	0.12
280.58	0.13
280.794	0.31
281.008	0.25
281.222	0.2
281.437	0.28
281.651	0.21
281.865	0.25
282.079	0.18
282.293	0.07
282.507	0.13
282.721	0.16
282.935	0.2
283.148	0.08
283.362	0.08
283.576	0.14
283.79	0.2
284.004	0.16
284.218	0.26
284.432	0.15
284.646	0.18
284.859	0.13
285.073	0.16
285.287	0.16
285.501	0.21
285.714	0.18
285.928	0.12
286.142	0.18
286.356	0.12
286.569	0.13
286.783	0.29
286.997	0.2
287.21	0.17
287.424	0.1
287.637	0.15
287.851	0.13
288.065	0.21
288.278	0.14
288.492	0.2
288.705	0.2
288.919	0.19
289.132	0.1
289.346	0.2
289.559	0.06
289.773	0.12
289.986	0.2
290.2	0.18
290.413	0.21
290.626	0.11
290.84	0.13
291.053	0.15
291.267	0.24
291.48	0.16
291.693	0.16
291.906	0.16
292.12	0.17
292.333	0.13
292.546	0.11
292.76	0.23
292.973	0.21
293.186	0.16
293.399	0.13
293.612	0.2
293.826	0.17
294.039	0.16
294.252	0.14
294.465	0.21
294.678	0.17
294.891	0.17
295.104	0.09
295.317	0.16
295.53	0.16
295.743	0.18
295.956	0.15
296.169	0.25
296.382	0.21
296.595	0.13
296.808	0.11
297.021	0.21
297.234	0.23
297.447	0.15
297.66	0.18
297.873	0.21
298.086	0.21
298.299	0.14
298.511	0.11
298.724	0.14
298.937	0.1
299.15	0.11
299.363	0.16
299.575	0.19
299.788	0.16
300.001	0.15
300.213	0.06
300.426	0.15
300.639	0.16
300.852	0.11
301.064	0.18
301.277	0.24
301.489	0.21
301.702	0.16
301.915	0.13
302.127	0.14
302.34	0.16
302.552	0.16
302.765	0.11
302.977	0.18
303.19	0.1
303.402	0.15
303.615	0.11
303.827	0.1
304.04	0.15
304.252	0.16
304.464	0.14
304.677	0.25
304.889	0.24
305.102	0.16
305.314	0.11
305.526	0.13
305.739	0.16
305.951	0.09
306.163	0.17
306.375	0.21
306.588	0.12
306.8	0.13
307.012	0.08
307.224	0.18
307.436	0.22
307.649	0.08
307.861	0.14
308.073	0.2
308.285	0.13
308.497	0.1
308.709	0.11
308.921	0.17
309.133	0.16
309.346	0.11
309.558	0.12
309.77	0.19
309.982	0.24
310.194	0.18
310.406	0.1
310.617	0.21
310.829	0.16
311.041	0.17
311.253	0.09
311.465	0.17
311.677	0.15
311.889	0.12
312.101	0.15
312.313	0.17
312.524	0.17
312.736	0.09
312.948	0.13
313.16	0.22
313.372	0.18
313.583	0.14
313.795	0.12
314.007	0.11
314.218	0.19
314.43	0.1
314.642	0.12
314.853	0.09
315.065	0.17
315.277	0.14
315.488	0.18
315.7	0.19
315.912	0.19
316.123	0.15
316.335	0.12
316.546	0.2
316.758	0.11
316.969	0.12
317.181	0.15
317.392	0.13
317.604	0.2
317.815	0.12
318.026	0.1
318.238	0.14
318.449	0.17
318.661	0.09
318.872	0.1
319.083	0.08
319.295	0.16
319.506	0.13
319.717	0.14
319.929	0.21
320.14	0.14
320.351	0.18
320.562	0.11
320.774	0.17
320.985	0.16
321.196	0.07
321.407	0.06
321.618	0.18
321.829	0.2
322.041	0.17
322.252	0.12
322.463	0.1
322.674	0.18
322.885	0.13
323.096	0.11
323.307	0.1
323.518	0.16
323.729	0.12
323.94	0.16
324.151	0.12
324.362	0.18
324.573	0.14
324.784	0.1
324.995	0.15
325.206	0.15
325.417	0.13
325.628	0.15
325.838	0.14
326.049	0.16
326.26	0.16
326.471	0.15
326.682	0.17
326.892	0.17
327.103	0.06
327.314	0.1
327.525	0.19
327.735	0.17
327.946	0.15
328.157	0.07
328.368	0.19
328.578	0.1
328.789	0.17
328.999	0.18
329.21	0.15
329.421	0.18
329.631	0.13
329.842	0.13
330.052	0.17
330.263	0.18
330.473	0.14
330.684	0.16
330.894	0.13
331.105	0.19
331.315	0.16
331.526	0.11
331.736	0.22
331.947	0.18
332.157	0.16
332.367	0.06
332.578	0.15
332.788	0.26
332.999	0.17
333.209	0.18
333.419	0.1
333.629	0.14
333.84	0.14
334.05	0.13
334.26	0.17
334.47	0.14
334.681	0.18
334.891	0.16
335.101	0.16
335.311	0.22
335.521	0.16
335.732	0.12
335.942	0.17
336.152	0.15
336.362	0.16
336.572	0.12
336.782	0.19
336.992	0.13
337.202	0.15
337.412	0.1
337.622	0.17
337.832	0.17
338.042	0.15
338.252	0.13
338.462	0.11
338.672	0.14
338.882	0.15
339.092	0.15
339.302	0.21
339.511	0.17
339.721	0.11
339.931	0.15
340.141	0.2
340.351	0.21
340.561	0.17
340.77	0.19
340.98	0.12
341.19	0.16
341.4	0.13
341.609	0.08
341.819	0.11
342.029	0.05
342.238	0.13
342.448	0.1
342.658	0.21
342.867	0.15
343.077	0.14
343.286	0.16
343.496	0.16
343.706	0.18
343.915	0.1
344.125	0.16
344.334	0.13
344.544	0.06
344.753	0.1
344.963	0.14
345.172	0.11
345.381	0.13
345.591	0.13
345.8	0.17
346.01	0.18
346.219	0.16
346.428	0.04
346.638	0.15
346.847	0.12
347.056	0.23
347.266	0.13
347.475	0.11
347.684	0.19
347.893	0.15
348.103	0.17
348.312	0.09
348.521	0.11
348.73	0.14
348.94	0.17
349.149	0.13
349.358	0.09
349.567	0.12
349.776	0.07
349.985	0.1
350.194	0.16
350.403	0.2
350.612	0.11
350.821	0.11
351.03	0.13
351.239	0.11
351.448	0.19
351.657	0.09
351.866	0.18
352.075	0.12
352.284	0.18
352.493	0.08
352.702	0.16
352.911	0.14
353.12	0.13
353.329	0.09
353.538	0.14
353.746	0.16
353.955	0.13
354.164	0.19
354.373	0.16
354.582	0.2
354.79	0.13
354.999	0.17
355.208	0.16
355.416	0.18
355.625	0.1
355.834	0.13
356.042	0.18
356.251	0.13
356.46	0.08
356.668	0.12
356.877	0.22
357.085	0.18
357.294	0.03
357.503	0.16
357.711	0.16
357.92	0.24
358.128	0.19
358.337	0.09
358.545	0.17
358.754	0.16
358.962	0.19
359.17	0.11
359.379	0.16
359.587	0.18
359.796	0.15
360.004	0.22
360.212	0.18
360.421	0.19
360.629	0.12
360.837	0.16
361.046	0.15
361.254	0.2
361.462	0.16
361.67	0.13
361.879	0.15
362.087	0.24
362.295	0.16
362.503	0.14
362.711	0.1
362.92	0.11
363.128	0.12
363.336	0.08
363.544	0.07
363.752	0.13
363.96	0.13
364.168	0.1
364.376	0.13
364.584	0.15
364.792	0.17
365	0.18
365.208	0.16
365.416	0.16
365.624	0.19
365.832	0.1
366.04	0.19
366.248	0.14
366.456	0.16
366.664	0.16
366.872	0.16
367.079	0.14
367.287	0.12
367.495	0.14
367.703	0.14
367.911	0.12
368.118	0.15
368.326	0.13
368.534	0.08
368.742	0.16
368.949	0.15
369.157	0.1
369.365	0.14
369.572	0.14
369.78	0.11
369.988	0.2
370.195	0.19
370.403	0.15
370.61	0.11
370.818	0.14
371.026	0.19
371.233	0.1
371.441	0.17
371.648	0.1
371.856	0.17
372.063	0.11
372.271	0.14
372.478	0.14
372.685	0.12
372.893	0.19
373.1	0.12
373.308	0.12
373.515	0.22
373.722	0.18
373.93	0.15
374.137	0.18
374.344	0.23
374.552	0.2
374.759	0.21
374.966	0.13
375.173	0.12
375.381	0.2
375.588	0.17
375.795	0.08
376.002	0.15
376.209	0.1
376.417	0.11
376.624	0.16
376.831	0.14
377.038	0.11
377.245	0.09
377.452	0.1
377.659	0.19
377.866	0.1
378.073	0.16
378.28	0.13
378.487	0.19
378.694	0.15
378.901	0.13
379.108	0.13
379.315	0.22
379.522	0.24
379.729	0.2
379.936	0.16
380.143	0.15
380.35	0.12
380.557	0.15
380.763	0.16
380.97	0.13
381.177	0.17
381.384	0.2
381.591	0.08
381.797	0.13
382.004	0.16
382.211	0.17
382.418	0.15
382.624	0.17
382.831	0.2
383.038	0.18
383.244	0.15
383.451	0.15
383.658	0.16
383.864	0.15
384.071	0.12
384.277	0.24
384.484	0.11
384.69	0.17
384.897	0.12
385.103	0.14
385.31	0.08
385.516	0.12
385.723	0.12
385.929	0.14
386.136	0.16
386.342	0.2
386.549	0.14
386.755	0.21
386.961	0.18
387.168	0.13
387.374	0.19
387.58	0.2
387.787	0.17
387.993	0.16
388.199	0.15
388.406	0.13
388.612	0.12
388.818	0.12
389.024	0.16
389.231	0.14
389.437	0.22
389.643	0.19
389.849	0.15
390.055	0.16
390.261	0.14
390.467	0.17
390.674	0.13
390.88	0.18
391.086	0.21
391.292	0.11
391.498	0.17
391.704	0.17
391.91	0.15
392.116	0.16
392.322	0.05
392.528	0.17
392.734	0.16
392.94	0.17
393.146	0.16
393.352	0.18
393.557	0.12
393.763	0.15
393.969	0.19
394.175	0.17
394.381	0.19
394.587	0.13
394.792	0.15
394.998	0.19
395.204	0.16
395.41	0.15
395.615	0.2
395.821	0.2
396.027	0.21
396.233	0.16
396.438	0.17
396.644	0.18
396.85	0.17
397.055	0.16
397.261	0.19
397.466	0.13
397.672	0.19
397.878	0.24
398.083	0.18
398.289	0.16
398.494	0.24
398.7	0.2
398.905	0.1
399.111	0.25
399.316	0.12
399.522	0.18
399.727	0.18
399.932	0.16
400.138	0.16
400.343	0.18
400.549	0.2
400.754	0.16
400.959	0.17
401.165	0.14
401.37	0.2
401.575	0.29
401.78	0.17
401.986	0.13
402.191	0.2
402.396	0.16
402.601	0.22
402.807	0.21
403.012	0.25
403.217	0.19
403.422	0.15
403.627	0.14
403.832	0.17
404.037	0.2
404.243	0.22
404.448	0.21
404.653	0.18
404.858	0.25
405.063	0.15
405.268	0.14
405.473	0.12
405.678	0.16
405.883	0.35
406.088	0.23
406.293	0.13
406.498	0.14
406.703	0.21
406.907	0.19
407.112	0.18
407.317	0.19
407.522	0.23
407.727	0.11
407.932	0.22
408.136	0.27
408.341	0.24
408.546	0.19
408.751	0.21
408.956	0.24
409.16	0.22
409.365	0.18
409.57	0.18
409.774	0.18
409.979	0.19
410.184	0.24
410.388	0.13
410.593	0.28
410.798	0.24
411.002	0.23
411.207	0.23
411.411	0.22
411.616	0.16
411.82	0.21
412.025	0.23
412.229	0.17
412.434	0.3
412.638	0.22
412.843	0.18
413.047	0.19
413.252	0.19
413.456	0.23
413.66	0.21
413.865	0.16
414.069	0.26
414.273	0.19
414.478	0.15
414.682	0.25
414.886	0.17
415.091	0.13
415.295	0.13
415.499	0.23
415.703	0.16
415.908	0.25
416.112	0.1
416.316	0.22
416.52	0.19
416.724	0.15
416.929	0.15
417.133	0.29
417.337	0.17
417.541	0.2
417.745	0.22
417.949	0.23
418.153	0.2
418.357	0.14
418.561	0.33
418.765	0.22
418.969	0.33
419.173	0.23
419.377	0.19
419.581	0.28
419.785	0.24
419.989	0.18
420.193	0.24
420.397	0.21
420.601	0.28
420.804	0.29
421.008	0.23
421.212	0.26
421.416	0.28
421.62	0.22
421.823	0.25
422.027	0.32
422.231	0.25
422.435	0.22
422.638	0.23
422.842	0.2
423.046	0.19
423.249	0.25
423.453	0.28
423.657	0.21
423.86	0.25
424.064	0.23
424.268	0.29
424.471	0.25
424.675	0.26
424.878	0.31
425.082	0.22
425.285	0.31
425.489	0.23
425.692	0.2
425.896	0.2
426.099	0.28
426.303	0.2
426.506	0.14
426.71	0.28
426.913	0.31
427.116	0.3
427.32	0.29
427.523	0.26
427.726	0.28
427.93	0.2
428.133	0.27
428.336	0.14
428.54	0.19
428.743	0.24
428.946	0.3
429.149	0.22
429.353	0.26
429.556	0.26
429.759	0.24
429.962	0.21
430.165	0.26
430.368	0.22
430.571	0.23
430.775	0.25
430.978	0.21
431.181	0.24
431.384	0.26
431.587	0.22
431.79	0.22
431.993	0.22
432.196	0.19
432.399	0.23
432.602	0.31
432.805	0.22
433.008	0.24
433.211	0.19
433.414	0.31
433.616	0.3
433.819	0.25
434.022	0.16
434.225	0.33
434.428	0.28
434.631	0.37
434.833	0.29
435.036	0.25
435.239	0.28
435.442	0.28
435.645	0.29
435.847	0.27
436.05	0.32
436.253	0.24
436.455	0.23
436.658	0.24
436.861	0.31
437.063	0.23
437.266	0.23
437.468	0.27
437.671	0.42
437.874	0.26
438.076	0.19
438.279	0.19
438.481	0.25
438.684	0.23
438.886	0.3
439.089	0.18
439.291	0.3
439.494	0.33
439.696	0.25
439.899	0.24
440.101	0.28
440.303	0.21
440.506	0.27
440.708	0.32
440.91	0.32
441.113	0.27
441.315	0.33
441.517	0.22
441.72	0.29
441.922	0.22
442.124	0.24
442.326	0.34
442.529	0.32
442.731	0.26
442.933	0.33
443.135	0.29
443.337	0.23
443.539	0.26
443.742	0.29
443.944	0.29
444.146	0.24
444.348	0.23
444.55	0.22
444.752	0.28
444.954	0.24
445.156	0.3
445.358	0.24
445.56	0.35
445.762	0.29
445.964	0.3
446.166	0.28
446.368	0.25
446.57	0.36
446.772	0.3
446.974	0.23
447.175	0.26
447.377	0.23
447.579	0.31
447.781	0.21
447.983	0.39
448.184	0.31
448.386	0.34
448.588	0.24
448.79	0.33
448.991	0.29
449.193	0.27
449.395	0.3
449.597	0.38
449.798	0.33
450	0.33
450.202	0.31
450.403	0.31
450.605	0.34
450.806	0.31
451.008	0.26
451.21	0.29
451.411	0.34
451.613	0.3
451.814	0.3
452.016	0.33
452.217	0.37
452.419	0.39
452.62	0.3
452.821	0.38
453.023	0.4
453.224	0.34
453.426	0.3
453.627	0.28
453.828	0.4
454.03	0.35
454.231	0.36
454.432	0.3
454.634	0.4
454.835	0.31
455.036	0.3
455.238	0.38
455.439	0.43
455.64	0.31
455.841	0.34
456.042	0.46
456.244	0.4
456.445	0.35
456.646	0.23
456.847	0.31
457.048	0.4
457.249	0.47
457.45	0.63
457.651	0.3
457.852	0.42
458.054	0.4
458.255	0.31
458.456	0.45
458.657	0.43
458.858	0.4
459.058	0.39
459.259	0.43
459.46	0.41
459.661	0.36
459.862	0.6
460.063	0.37
460.264	0.44
460.465	0.34
460.666	0.52
460.866	0.4
461.067	0.44
461.268	0.42
461.469	0.37
461.67	0.44
461.87	0.38
462.071	0.42
462.272	0.38
462.473	0.44
462.673	0.5
462.874	0.43
463.075	0.49
463.275	0.39
463.476	0.49
463.676	0.51
463.877	0.5
464.078	0.48
464.278	0.56
464.479	0.51
464.679	0.54
464.88	0.54
465.08	0.63
465.281	0.52
465.481	0.53
465.682	0.46
465.882	0.58
466.083	0.54
466.283	0.54
466.483	0.53
466.684	0.51
466.884	0.54
467.085	0.56
467.285	0.6
467.485	0.55
467.686	0.61
467.886	0.55
468.086	0.54
468.286	0.58
468.487	0.62
468.687	0.55
468.887	0.62
469.087	0.68
469.287	0.63
469.488	0.59
469.688	0.67
469.888	0.73
470.088	0.74
470.288	0.8
470.488	0.72
470.688	0.62
470.888	0.69
471.088	0.63
471.288	0.76
471.488	0.82
471.688	0.81
471.888	0.74
472.088	0.87
472.288	0.8
472.488	0.8
472.688	0.78
472.888	0.89
473.088	0.84
473.288	0.81
473.488	0.83
473.688	1.02
473.887	0.86
474.087	0.89
474.287	0.95
474.487	0.9
474.687	1
474.886	0.95
475.086	0.95
475.286	1.06
475.486	1
475.685	1.02
475.885	1.05
476.085	1.1
476.284	1.13
476.484	1.12
476.684	1.13
476.883	1.22
477.083	1.22
477.282	1.15
477.482	1.27
477.681	1.28
477.881	1.23
478.08	1.26
478.28	1.26
478.479	1.34
478.679	1.38
478.878	1.33
479.078	1.33
479.277	1.39
479.477	1.41
479.676	1.42
479.875	1.44
480.075	1.42
480.274	1.51
480.473	1.57
480.673	1.61
480.872	1.68
481.071	1.62
481.271	1.74
481.47	1.67
481.669	1.73
481.868	1.73
482.067	1.77
482.267	1.72
482.466	1.83
482.665	1.83
482.864	1.84
483.063	1.87
483.262	1.99
483.461	2.03
483.661	2.1
483.86	2.06
484.059	2.17
484.258	2.19
484.457	2.19
484.656	2.23
484.855	2.32
485.054	2.21
485.253	2.31
485.452	2.32
485.651	2.45
485.849	2.46
486.048	2.46
486.247	2.55
486.446	2.61
486.645	2.65
486.844	2.68
487.043	2.72
487.241	2.79
487.44	2.82
487.639	2.91
487.838	2.91
488.037	2.93
488.235	3.06
488.434	3.12
488.633	2.97
488.831	3.22
489.03	3.28
489.229	3.26
489.427	3.34
489.626	3.43
489.825	3.44
490.023	3.57
490.222	3.54
490.42	3.58
490.619	3.76
490.817	3.82
491.016	3.8
491.214	3.88
491.413	3.97
491.611	3.93
491.81	3.99
492.008	4.11
492.207	4.23
492.405	4.31
492.604	4.26
492.802	4.41
493	4.5
493.199	4.6
493.397	4.69
493.595	4.79
493.794	4.78
493.992	4.99
494.19	4.97
494.388	5.18
494.587	5.12
494.785	5.13
494.983	5.18
495.181	5.39
495.379	5.48
495.578	5.64
495.776	5.66
495.974	5.63
496.172	5.77
496.37	6.04
496.568	6.1
496.766	6.11
496.964	6.3
497.162	6.36
497.36	6.57
497.558	6.55
497.756	6.74
497.954	6.78
498.152	6.95
498.35	7.1
498.548	7.05
498.746	7.16
498.944	7.3
499.142	7.32
499.34	7.58
499.538	7.8
499.736	7.63
499.933	7.81
500.131	7.9
500.329	8.31
500.527	8.29
500.725	8.49
500.922	8.64
501.12	8.72
501.318	8.93
501.516	8.98
501.713	9.23
501.911	9.28
502.109	9.27
502.306	9.55
502.504	9.47
502.701	9.76
502.899	9.92
503.097	10.29
503.294	10.14
503.492	10.54
503.689	10.66
503.887	10.63
504.084	10.85
504.282	10.93
504.479	11.02
504.677	11.48
504.874	11.48
505.072	11.33
505.269	11.93
505.466	11.99
505.664	12.2
505.861	12.1
506.059	12.46
506.256	12.53
506.453	12.75
506.651	13.01
506.848	13.22
507.045	13.16
507.242	13.3
507.44	13.59
507.637	13.76
507.834	13.77
508.031	14.21
508.229	14.19
508.426	14.01
508.623	14.52
508.82	14.85
509.017	14.66
509.214	14.71
509.411	15.17
509.608	15.1
509.805	15.49
510.003	15.55
510.2	15.64
510.397	16.07
510.594	15.9
510.791	16.26
510.988	16.3
511.184	16.13
511.381	16.03
511.578	16.62
511.775	16.9
511.972	16.83
512.169	16.98
512.366	17.13
512.563	17.41
512.76	17.62
512.956	17.72
513.153	17.66
513.35	17.44
513.547	17.62
513.744	17.98
513.94	17.97
514.137	18.22
514.334	18.16
514.53	18.39
514.727	18.96
514.924	18.47
515.12	18.64
515.317	18.72
515.514	18.56
515.71	18.5
515.907	19.09
516.103	19.06
516.3	18.8
516.497	19.18
516.693	19.09
516.89	19.11
517.086	19.25
517.283	19.22
517.479	18.8
517.676	19.39
517.872	19.44
518.068	19.35
518.265	19.38
518.461	19.19
518.658	19.5
518.854	19.32
519.05	19.63
519.247	19.61
519.443	19.27
519.639	19.63
519.836	19.24
520.032	19.09
520.228	19.49
520.424	19.09
520.621	19.25
520.817	19.35
521.013	19.03
521.209	19.5
521.405	19.27
521.601	19.03
521.798	18.93
521.994	18.75
522.19	18.62
522.386	18.78
522.582	18.83
522.778	18.96
522.974	18.59
523.17	18.49
523.366	18.26
523.562	18.31
523.758	18.26
523.954	17.81
524.15	18.21
524.346	18.07
524.542	18.01
524.738	17.67
524.934	17.86
525.129	17.71
525.325	17.25
525.521	17.2
525.717	17.52
525.913	17.1
526.109	16.92
526.304	17.1
526.5	16.85
526.696	16.68
526.892	16.48
527.087	16.85
527.283	16.47
527.479	16.13
527.674	15.69
527.87	15.91
528.066	15.86
528.261	15.65
528.457	15.43
528.653	15.7
528.848	15.3
529.044	15.27
529.239	14.89
529.435	14.81
529.63	14.57
529.826	14.41
530.021	14.37
530.217	14.26
530.412	14.15
530.608	14.05
530.803	13.91
530.999	13.59
531.194	13.64
531.389	13.68
531.585	13.46
531.78	13.47
531.975	13.18
532.171	13.03
532.366	12.96
532.561	12.88
532.757	12.55
532.952	12.83
533.147	12.29
533.342	12.36
533.538	12.07
533.733	12.24
533.928	11.59
534.123	11.77
534.318	11.82
534.513	11.5
534.709	11.59
534.904	11.39
535.099	11.32
535.294	11.14
535.489	11.12
535.684	10.87
535.879	10.75
536.074	10.74
536.269	10.65
536.464	10.48
536.659	10.32
536.854	10.18
537.049	10.13
537.244	9.97
537.439	9.84
537.634	9.77
537.828	9.74
538.023	9.66
538.218	9.55
538.413	9.29
538.608	9.31
538.803	9.27
538.997	9.09
539.192	9
539.387	8.86
539.582	8.83
539.776	8.61
539.971	8.66
540.166	8.65
540.36	8.43
540.555	8.41
540.75	8.31
540.944	8.14
541.139	8.11
541.334	8.02
541.528	7.94
541.723	7.9
541.917	7.83
542.112	7.57
542.306	7.51
542.501	7.42
542.695	7.45
542.89	7.23
543.084	7.21
543.279	7.15
543.473	7.1
543.668	7.1
543.862	6.8
544.056	6.7
544.251	6.74
544.445	6.74
544.64	6.69
544.834	6.4
545.028	6.18
545.222	6.36
545.417	6.5
545.611	6.33
545.805	6.17
546	5.98
546.194	6.03
546.388	5.95
546.582	5.88
546.776	5.79
546.97	5.8
547.165	5.63
547.359	5.65
547.553	5.5
547.747	5.43
547.941	5.51
548.135	5.31
548.329	5.32
548.523	5.29
548.717	5.11
548.911	5.08
549.105	4.95
549.299	5.01
549.493	4.92
549.687	4.77
549.881	4.8
550.075	4.72
550.269	4.61
550.463	4.63
550.657	4.57
550.85	4.49
551.044	4.4
551.238	4.42
551.432	4.32
551.626	4.29
551.82	4.21
552.013	4.14
552.207	4.12
552.401	4.11
552.594	4.01
552.788	3.92
552.982	3.87
553.176	3.82
553.369	3.93
553.563	3.83
553.756	3.69
553.95	3.64
554.144	3.63
554.337	3.63
554.531	3.49
554.724	3.48
554.918	3.45
555.111	3.41
555.305	3.37
555.498	3.3
555.692	3.29
555.885	3.22
556.079	3.18
556.272	3.09
556.466	3.13
556.659	3.06
556.852	3.06
557.046	2.95
557.239	2.91
557.432	2.9
557.626	2.9
557.819	2.88
558.012	2.85
558.206	2.83
558.399	2.75
558.592	2.71
558.785	2.62
558.979	2.66
559.172	2.64
559.365	2.58
559.558	2.51
559.751	2.5
559.944	2.52
560.138	2.45
560.331	2.37
560.524	2.39
560.717	2.35
560.91	2.32
561.103	2.31
561.296	2.25
561.489	2.29
561.682	2.24
561.875	2.2
562.068	2.19
562.261	2.12
562.454	2.18
562.647	2.09
562.84	2.09
563.032	2.07
563.225	2.01
563.418	1.96
563.611	1.98
563.804	1.97
563.997	1.88
564.19	1.78
564.382	1.88
564.575	1.84
564.768	1.81
564.961	1.8
565.153	1.75
565.346	1.73
565.539	1.79
565.731	1.75
565.924	1.7
566.117	1.7
566.309	1.64
566.502	1.57
566.695	1.6
566.887	1.61
567.08	1.54
567.272	1.55
567.465	1.46
567.657	1.53
567.85	1.49
568.042	1.5
568.235	1.48
568.427	1.42
568.62	1.46
568.812	1.42
569.005	1.41
569.197	1.33
569.389	1.35
569.582	1.37
569.774	1.33
569.966	1.29
570.159	1.28
570.351	1.27
570.543	1.22
570.736	1.25
570.928	1.18
571.12	1.22
571.312	1.2
571.505	1.12
571.697	1.18
571.889	1.11
572.081	1.12
572.273	1.12
572.465	1.14
572.658	1.1
572.85	1.11
573.042	1.06
573.234	1.04
573.426	1.08
573.618	0.99
573.81	1.05
574.002	1.05
574.194	1.02
574.386	0.98
574.578	0.91
574.77	0.96
574.962	0.95
575.154	0.87
575.346	0.92
575.538	0.91
575.729	0.89
575.921	0.88
576.113	0.88
576.305	0.91
576.497	0.83
576.689	0.85
576.88	0.84
577.072	0.85
577.264	0.8
577.456	0.82
577.647	0.74
577.839	0.84
578.031	0.83
578.223	0.74
578.414	0.74
578.606	0.78
578.798	0.76
578.989	0.73
579.181	0.77
579.372	0.74
579.564	0.71
579.755	0.69
579.947	0.68
580.139	0.7
580.33	0.62
580.522	0.68
580.713	0.59
580.905	0.66
581.096	0.66
581.287	0.64
581.479	0.65
581.67	0.67
581.862	0.64
582.053	0.62
582.244	0.57
582.436	0.63
582.627	0.59
582.818	0.57
583.01	0.54
583.201	0.59
583.392	0.62
583.583	0.57
583.775	0.51
583.966	0.56
584.157	0.55
584.348	0.57
584.54	0.49
584.731	0.55
584.922	0.5
585.113	0.49
585.304	0.53
585.495	0.53
585.686	0.52
585.877	0.52
586.068	0.52
586.259	0.5
586.45	0.51
586.641	0.49
586.832	0.43
587.023	0.5
587.214	0.45
587.405	0.46
587.596	0.44
587.787	0.47
587.978	0.47
588.169	0.42
588.36	0.4
588.551	0.43
588.742	0.4
588.932	0.44
589.123	0.39
589.314	0.43
589.505	0.45
589.696	0.43
589.886	0.38
590.077	0.37
590.268	0.42
590.458	0.39
590.649	0.36
590.84	0.44
591.03	0.35
591.221	0.38
591.412	0.34
591.602	0.41
591.793	0.38
591.984	0.32
592.174	0.33
592.365	0.46
592.555	0.34
592.746	0.37
592.936	0.36
593.127	0.39
593.317	0.38
593.508	0.34
593.698	0.34
593.889	0.35
594.079	0.33
594.269	0.29
594.46	0.32
594.65	0.34
594.84	0.33
595.031	0.28
595.221	0.3
595.411	0.29
595.602	0.32
595.792	0.32
595.982	0.28
596.172	0.36
596.363	0.32
596.553	0.3
596.743	0.3
596.933	0.3
597.123	0.31
597.314	0.27
597.504	0.27
597.694	0.31
597.884	0.27
598.074	0.27
598.264	0.27
598.454	0.29
598.644	0.26
598.834	0.28
599.024	0.24
599.214	0.26
599.404	0.31
599.594	0.26
599.784	0.22
599.974	0.31
600.164	0.27
600.354	0.24
600.544	0.23
600.734	0.3
600.924	0.31
601.114	0.23
601.303	0.23
601.493	0.25
601.683	0.22
601.873	0.25
602.063	0.21
602.252	0.26
602.442	0.18
602.632	0.22
602.821	0.19
603.011	0.3
603.201	0.25
603.39	0.2
603.58	0.19
603.77	0.26
603.959	0.26
604.149	0.25
604.339	0.2
604.528	0.27
604.718	0.24
604.907	0.21
605.097	0.22
605.286	0.19
605.476	0.23
605.665	0.25
605.855	0.2
606.044	0.27
606.234	0.22
606.423	0.23
606.612	0.19
606.802	0.19
606.991	0.22
607.181	0.19
607.37	0.17
607.559	0.18
607.749	0.19
607.938	0.21
608.127	0.17
608.316	0.18
608.506	0.22
608.695	0.2
608.884	0.17
609.073	0.19
609.263	0.22
609.452	0.2
609.641	0.21
609.83	0.18
610.019	0.19
610.208	0.16
610.397	0.2
610.586	0.2
610.775	0.19
610.965	0.18
611.154	0.17
611.343	0.18
611.532	0.22
611.721	0.17
611.91	0.17
612.099	0.23
612.287	0.18
612.476	0.15
612.665	0.19
612.854	0.19
613.043	0.23
613.232	0.18
613.421	0.11
613.61	0.17
613.798	0.15
613.987	0.21
614.176	0.18
614.365	0.21
614.554	0.17
614.742	0.21
614.931	0.15
615.12	0.19
615.309	0.15
615.497	0.19
615.686	0.15
615.875	0.16
616.063	0.14
616.252	0.14
616.44	0.17
616.629	0.17
616.818	0.2
617.006	0.15
617.195	0.15
617.383	0.16
617.572	0.15
617.76	0.14
617.949	0.14
618.137	0.16
618.326	0.19
618.514	0.12
618.703	0.12
618.891	0.23
619.079	0.1
619.268	0.21
619.456	0.14
619.644	0.2
619.833	0.16
620.021	0.14
620.209	0.11
620.398	0.18
620.586	0.17
620.774	0.21
620.962	0.13
621.151	0.22
621.339	0.17
621.527	0.13
621.715	0.13
621.903	0.12
622.092	0.14
622.28	0.17
622.468	0.16
622.656	0.19
622.844	0.14
623.032	0.13
623.22	0.09
623.408	0.2
623.596	0.12
623.784	0.2
623.972	0.12
624.16	0.13
624.348	0.21
624.536	0.16
624.724	0.12
624.912	0.2
625.1	0.19
625.288	0.12
625.476	0.14
625.664	0.17
625.851	0.13
626.039	0.14
626.227	0.16
626.415	0.16
626.603	0.08
626.79	0.15
626.978	0.11
627.166	0.17
627.354	0.14
627.541	0.13
627.729	0.07
627.917	0.17
628.104	0.17
628.292	0.18
628.48	0.14
628.667	0.15
628.855	0.17
629.042	0.15
629.23	0.13
629.418	0.13
629.605	0.14
629.793	0.13
629.98	0.1
630.168	0.13
630.355	0.17
630.543	0.19
630.73	0.09
630.917	0.17
631.105	0.18
631.292	0.12
631.48	0.1
631.667	0.19
631.854	0.14
632.042	0.17
632.229	0.08
632.416	0.13
632.604	0.13
632.791	0.09
632.978	0.16
633.165	0.16
633.353	0.22
633.54	0.16
633.727	0.05
633.914	0.12
634.101	0.06
634.289	0.18
634.476	0.1
634.663	0.08
634.85	0.15
635.037	0.09
635.224	0.09
635.411	0.17
635.598	0.14
635.785	0.14
635.972	0.16
636.159	0.15
636.346	0.1
636.533	0.15
636.72	0.15
636.907	0.12
637.094	0.17
637.281	0.08
637.468	0.13
637.655	0.11
637.842	0.15
638.029	0.13
638.215	0.15
638.402	0.15
638.589	0.1
638.776	0.09
638.963	0.1
639.149	0.15
639.336	0.2
639.523	0.12
639.709	0.11
639.896	0.13
640.083	0.18
640.27	0.13
640.456	0.1
640.643	0.16
640.829	0.07
641.016	0.13
641.203	0.12
641.389	0.13
641.576	0.12
641.762	0.12
641.949	0.11
642.135	0.16
642.322	0.12
642.508	0.08
642.695	0.13
642.881	0.12
643.068	0.09
643.254	0.12
643.441	0.17
643.627	0.1
643.813	0.1
644	0.16
644.186	0.09
644.372	0.14
644.559	0.2
644.745	0.08
644.931	0.1
645.118	0.13
645.304	0.15
645.49	0.14
645.676	0.12
645.862	0.12
646.049	0.18
646.235	0.12
646.421	0.19
646.607	0.19
646.793	0.12
646.979	0.11
647.165	0.15
647.352	0.11
647.538	0.14
647.724	0.14
647.91	0.15
648.096	0.16
648.282	0.19
648.468	0.12
648.654	0.13
648.84	0.11
649.026	0.14
649.212	0.13
649.397	0.09
649.583	0.11
649.769	0.17
649.955	0.13
650.141	0.15
650.327	0.18
650.513	0.06
650.698	0.15
650.884	0.03
651.07	0.14
651.256	0.14
651.442	0.15
651.627	0.13
651.813	0.12
651.999	0.1
652.184	0.16
652.37	0.1
652.556	0.11
652.741	0.2
652.927	0.03
653.113	0.12
653.298	0.12
653.484	0.11
653.669	0.06
653.855	0.13
654.04	0.15
654.226	0.12
654.412	0.1
654.597	0.07
654.782	0.13
654.968	0.16
655.153	0.14
655.339	0.09
655.524	0.06
655.71	0.13
655.895	0.11
656.08	0.1
656.266	0.15
656.451	0.16
656.636	0.08
656.822	0.14
657.007	0.11
657.192	0.08
657.378	0.07
657.563	0.15
657.748	0.12
657.933	0.16
658.118	0.11
658.304	0.09
658.489	0.2
658.674	0.14
658.859	0.07
659.044	0.11
659.229	0.17
659.414	0.11
659.599	0.13
659.785	0.1
659.97	0.11
660.155	0.17
660.34	0.15
660.525	0.12
660.71	0.13
660.895	0.18
661.08	0.1
661.264	0.11
661.449	0.22
661.634	0.17
661.819	0.16
662.004	0.17
662.189	0.08
662.374	0.1
662.559	0.12
662.743	0.07
662.928	0.15
663.113	0.09
663.298	0.06
663.483	0.13
663.667	0.15
663.852	0.08
664.037	0.12
664.221	0.12
664.406	0.16
664.591	0.15
664.775	0.16
664.96	0.15
665.145	0.11
665.329	0.18
665.514	0.08
665.698	0.12
665.883	0.1
666.068	0.19
666.252	0.14
666.437	0.1
666.621	0.12
666.806	0.18
666.99	0.13
667.174	0.1
667.359	0.2
667.543	0.14
667.728	0.13
667.912	0.09
668.096	0.18
668.281	0.13
668.465	0.12
668.649	0.15
668.834	0.12
669.018	0.14
669.202	0.13
669.387	0.13
669.571	0.16
669.755	0.13
669.939	0.17
670.124	0.13
670.308	0.21
670.492	0.2
670.676	0.12
670.86	0.14
671.044	0.12
671.228	0.24
671.413	0.13
671.597	0.13
671.781	0.11
671.965	0.17
672.149	0.14
672.333	0.16
672.517	0.11
672.701	0.2
672.885	0.11
673.069	0.11
673.253	0.19
673.437	0.14
673.621	0.09
673.804	0.14
673.988	0.15
674.172	0.14
674.356	0.07
674.54	0.15
674.724	0.24
674.908	0.17
675.091	0.17
675.275	0.11
675.459	0.2
675.643	0.26
675.826	0.17
676.01	0.18
676.194	0.15
676.377	0.2
676.561	0.18
676.745	0.17
676.928	0.13
677.112	0.21
677.296	0.13
677.479	0.13
677.663	0.15
677.846	0.18
678.03	0.18
678.213	0.18
678.397	0.21
678.58	0.16
678.764	0.18
678.947	0.12
679.131	0.12
679.314	0.23
679.498	0.12
679.681	0.19
679.865	0.25
680.048	0.17
680.231	0.15
680.415	0.14
680.598	0.16
680.781	0.14
680.965	0.15
681.148	0.2
681.331	0.12
681.514	0.19
681.698	0.14
681.881	0.2
682.064	0.17
682.247	0.2
682.43	0.11
682.614	0.22
682.797	0.24
682.98	0.23
683.163	0.1
683.346	0.22
683.529	0.09
683.712	0.1
683.895	0.19
684.078	0.14
684.261	0.13
684.444	0.18
684.627	0.2
684.81	0.15
684.993	0.15
685.176	0.2
685.359	0.12
685.542	0.12
685.725	0.22
685.908	0.16
686.091	0.14
686.274	0.21
686.457	0.16
686.639	0.15
686.822	0.16
687.005	0.16
687.188	0.19
687.371	0.21
687.553	0.17
687.736	0.21
687.919	0.24
688.102	0.2
688.284	0.13
688.467	0.14
688.65	0.17
688.832	0.14
689.015	0.17
689.197	0.1
689.38	0.27
689.563	0.24
689.745	0.13
689.928	0.15
690.11	0.11
690.293	0.23
690.475	0.11
690.658	0.19
690.84	0.16
691.023	0.15
691.205	0.14
691.388	0.19
691.57	0.23
691.752	0.21
691.935	0.1
692.117	0.13
692.3	0.22
692.482	0.1
692.664	0.21
692.847	0.16
693.029	0.2
693.211	0.19
693.393	0.14
693.576	0.15
693.758	0.1
693.94	0.14
694.122	0.14
694.304	0.16
694.487	0.14
694.669	0.26
694.851	0.12
695.033	0.18
695.215	0.16
695.397	0.15
695.579	0.17
695.761	0.16
695.943	0.11
696.125	0.25
696.308	0.22
696.49	0.03
696.671	0.28
696.853	0.15
697.035	0.35
697.217	0.19
697.399	0.21
697.581	0.11
697.763	0.1
697.945	0.1
698.127	0.19
698.309	0.21
698.491	0.17
698.672	0.18
698.854	0.19
699.036	0.27
699.218	0.17
699.399	0.25
699.581	0.17
699.763	0.17
699.945	0.17
700.126	0.11
700.308	0.17
700.49	0.13
700.671	0.09
700.853	0.14
701.035	0.12
701.216	0.17
701.398	0.16
701.579	0.15
701.761	0.24
701.943	0.19
702.124	0.15
702.306	0.14
702.487	0.25
702.669	0.17
702.85	0.17
703.031	0.13
703.213	0.22
703.394	0.19
703.576	0.1
703.757	0.23
703.938	0.24
704.12	0.27
704.301	0.15
704.483	0.17
704.664	0.23
704.845	0.23
705.026	0.22
705.208	0.16
705.389	0.19
705.57	0.17
705.751	0.19
705.933	0.18
706.114	0.17
706.295	0.11
706.476	0.09
706.657	0.26
706.838	0.21
707.02	0.19
707.201	0.17
707.382	0.14
707.563	0.16
707.744	0.13
707.925	0.17
708.106	0.17
708.287	0.2
708.468	0.31
708.649	0.16
708.83	0.19
709.011	0.09
709.192	0.25
709.373	0.09
709.554	0.14
709.734	0.21
709.915	0.22
710.096	0.21
710.277	0.1
710.458	0.23
710.639	0.25
710.819	0.08
711	0.22
711.181	0.26
711.362	0.27
711.542	0.18
711.723	0.18
711.904	0.21
712.085	0.13
712.265	0.2
712.446	0.17
712.627	0.12
712.807	0.12
712.988	0.14
713.168	0.11
713.349	0.22
713.53	0.07
713.71	0.14
713.891	0.09
714.071	0.17
714.252	0.09
714.432	0.17
714.613	0.06
714.793	0.19
714.974	0.25
715.154	0.25
715.334	0.22
715.515	0.32
715.695	0.05
715.876	0.16
716.056	0.21
716.236	0.13
716.417	0.12
716.597	0.11
716.777	0.34
716.957	0.18
717.138	0.17
717.318	0.18
717.498	0.05
717.678	0.17
717.859	0.13
718.039	0.11
718.219	0.24
718.399	0.29
718.579	0.19
718.759	0.11
718.939	0.2
719.12	0.22
719.3	0.24
719.48	0.04
719.66	0.09
719.84	0.26
720.02	0.06
720.2	0.17
720.38	0.22
720.56	0.26
720.74	0.08
720.92	0.2
721.1	0.22
721.279	0.26
721.459	0.25
721.639	0.08
721.819	0.22
721.999	0.17
722.179	0.22
722.359	0.08
722.538	0.1
722.718	0.17
722.898	0.11
723.078	0.22
723.257	0.17
723.437	0.19
723.617	0.18
723.797	0.13
723.976	0.22
724.156	0.24
724.336	0.24
724.515	0.3
724.695	-0.01
724.874	0.18
725.054	0.24
725.234	0.13
725.413	0.24
725.593	0.17
725.772	0.16
725.952	0.16
726.131	0.18
726.311	0.2
726.49	0.19
726.67	0.13
726.849	0.14
727.028	0.23
727.208	0.15
727.387	0.18
727.567	0.1
727.746	0.17
727.925	0.08
728.105	0.16
728.284	0.17
728.463	0.16
728.643	0.23
728.822	0.18
729.001	0.14
729.18	0.17
729.359	0.23
729.539	0.15
729.718	0.16
729.897	0.26
730.076	0.21
730.255	0.1
730.434	0.18
730.614	0.32
730.793	0.27
730.972	0.18
731.151	0.17
731.33	0.29
731.509	0.24
731.688	0.26
731.867	0.16
732.046	0.11
732.225	0.35
732.404	0.1
732.583	-0.04
732.762	0.24
732.941	0.21
733.12	0.22
733.298	0.24
733.477	0.33
733.656	0.17
733.835	0.12
734.014	0.28
734.193	0.2
734.371	0.25
734.55	0.25
734.729	0.12
734.908	0.25
735.086	0.23
735.265	0.24
735.444	-0.05
735.623	0.08
735.801	0.07
735.98	0.23
736.159	0.19
736.337	0.32
736.516	0.14
736.694	0.21
736.873	0.2
737.052	0.33
737.23	0.39
737.409	0.23
737.587	0.39
737.766	0.11
737.944	0.32
738.123	0.22
738.301	0.38
738.479	0.18
738.658	0.25
738.836	0.01
739.015	0.23
739.193	0.34
739.371	0.15
739.55	0.13
739.728	-0.01
739.906	0.35
740.085	0.34
740.263	0.24
740.441	0.04
740.62	0.43
740.798	0.29
740.976	0.15
741.154	0.13
741.332	0.43
741.511	0.18
741.689	0.19
741.867	0.21
742.045	0.29
742.223	0.28
742.401	0.12
742.579	0.19
742.757	0.15
742.935	0.1
743.114	0.14
743.292	0.21
743.47	0.18
743.648	0.19
743.826	0.12
744.004	0.22
744.181	0.22
744.359	0.11
744.537	0.14
744.715	0.11
744.893	0.14
745.071	0.29
745.249	0.23
745.427	0.27
745.605	0.21
745.782	0.26
745.96	0.28
746.138	0.31
746.316	0.29
746.493	0.19
746.671	0.23
746.849	0.14
747.027	0.38
747.204	0.21
747.382	0.22
747.56	0.07
747.737	0.27
747.915	0.16
748.093	0.17
748.27	0.06
748.448	0.11
748.625	0
748.803	0.07
748.98	0.12
749.158	0.27
749.335	0.35
749.513	0.21
749.69	0.23
749.868	0.15
750.045	0.31
750.223	0.15
750.4	-0.06
750.578	0.41
750.755	0.15
750.932	-0.02
751.11	0.35
751.287	0.07
751.464	0.28
751.642	0.2
751.819	0.2
751.996	0.12
752.173	0.09
752.351	0.02
752.528	0.25
752.705	0.17
752.882	0.08
753.06	0.13
753.237	0.16
753.414	0.32
753.591	0.41
753.768	0.13
753.945	0.16
754.122	0.13
754.299	0.23
754.476	0.12
754.654	0.22
754.831	0.16
755.008	0.29
755.185	0.23
755.362	0.13
755.539	0.21
755.716	0.14
755.892	0.23
756.069	0.19
756.246	0.13
756.423	0.18
756.6	0.25
756.777	0.22
756.954	0.23
757.131	0.2
757.307	0.17
757.484	0.16
757.661	0.38
757.838	0.26
758.015	0.05
758.191	0.21
758.368	0.38
758.545	0.37
758.721	0.23
758.898	0.05
759.075	0.18
759.251	0.31
759.428	0.32
759.605	0.03
759.781	0.24
759.958	0.27
760.134	0.28
760.311	0.15
760.488	0.3
760.664	0.29
760.841	0.17
761.017	0.16
761.194	0.23
761.37	0.33
761.547	0.19
761.723	0.19
761.899	0.23
762.076	0.16
762.252	0.14
762.429	0.11
762.605	0.3
762.781	0.08
762.958	0.31
763.134	0.14
763.31	0.08
763.486	0.3
763.663	0.06
763.839	0.27
764.015	0.02
764.191	0.16
764.368	0.16
764.544	0.03
764.72	0.29
764.896	0.17
765.072	0.21
765.248	0.25
765.425	0.18
765.601	0.21
765.777	0.27
765.953	-0.04
766.129	0.17
766.305	0.12
766.481	0.28
766.657	0.25
766.833	0.29
767.009	0.06
767.185	0.22
767.361	0.1
767.537	0.11
767.713	0.48
767.889	0.2
768.065	0.26
768.24	0.29
768.416	0.35
768.592	0.16
768.768	0.12
768.944	0.28
769.12	0.15
769.295	0.13
769.471	0.2
769.647	0.19
769.823	0.38
769.998	0.18
770.174	0.06
770.35	0.44
770.525	0.45
770.701	0.11
770.877	0.37
771.052	0.13
771.228	0.42
771.403	0.23
771.579	0.25
771.755	0.47
771.93	0.03
772.106	0.03
772.281	0.12
772.457	0.28
772.632	0.19
772.808	0.09
772.983	0.1
773.159	0.06
773.334	0.3
773.509	0.15
773.685	0.17
773.86	0.62
774.036	0.37
774.211	0.22
774.386	0.13
774.562	0.22
774.737	0.24
774.912	0.22
775.087	0.38
775.263	0.19
775.438	0.14
775.613	0.26
775.788	0.2
775.964	0.44
776.139	0.58
776.314	0.1
776.489	0.11
776.664	0.12
776.839	0.12
777.014	0.41
777.19	0.42
777.365	0.42
777.54	0.37
777.715	0.15
777.89	0.11
778.065	0.18
778.24	0.25
778.415	0.49
778.59	-0.13
778.765	0.1
778.94	0.23
779.115	0.14
779.289	0.24
779.464	0.23
779.639	0.38
779.814	0.11
779.989	0.16
780.164	0.46
780.339	0.22
780.513	-0.05
780.688	0.13
780.863	0.42
781.038	0.4
781.212	0.01
781.387	0.1
781.562	0.39
781.737	0.12
781.911	0.48
782.086	0.12
782.261	0.24
782.435	0.58
782.61	0.19
782.784	0.25
782.959	0.35
783.134	0.17
783.308	0.02
783.483	0.2
783.657	0.58
783.832	0.51
784.006	-0.14
784.181	0.14
784.355	0.45
784.53	0.05
784.704	0.15
784.878	0.32
785.053	0.29
785.227	0.48
785.402	0.61
785.576	0.11
785.75	0.2
785.925	0.09
786.099	0.21
786.273	0.48
786.448	0.49
786.622	0.34
786.796	0.26
786.97	-0
787.145	0.57
787.319	-0.11
787.493	0.1
787.667	0.11
787.841	0.38
788.015	0.44
788.19	0.14
788.364	0.27
788.538	0.41
788.712	0.51
788.886	0.24
789.06	0.36
789.234	0.44
789.408	-0.04
789.582	0.25
789.756	0.13
789.93	0.2
790.104	0.36
790.278	0.38
790.452	-0.01
790.626	0.33
790.8	0.19
790.973	0.53
791.147	0.54
791.321	0.69
791.495	0.31
791.669	0.34
791.843	0.49
792.016	0.25
792.19	0.6
792.364	0.2
792.538	0.73
792.711	0.63
792.885	0.23
793.059	0.02
793.233	-0.17
793.406	0.36
793.58	0.21
793.754	0.31
793.927	0.08
794.101	0.6
794.274	0.43
794.448	0.63
794.622	-0.04
794.795	0.72
794.969	0.31
795.142	0.7
795.316	0.22
795.489	0.24
795.663	0.52
795.836	0.23
796.009	0.23
796.183	0.61
796.356	0.56
796.53	0.5
796.703	0.36
796.876	0.63
797.05	0.21
797.223	0.17
797.396	0.36
797.57	0.4
797.743	0.62
797.916	0.25
798.09	0.34
798.263	0.64
798.436	0.48
798.609	0.13
798.782	0.21
798.956	0.5
799.129	0.13
799.302	0.33
799.475	0.09
799.648	0.1
799.821	0.28
799.994	0.44
800.167	0.06
800.34	0.19
800.514	0.38
800.687	0.29
800.86	0.18
801.033	0.43
801.206	0.53
801.379	0.05
801.551	0.68
801.724	0.59
801.897	0.79
802.07	0.29
802.243	-0.18
802.416	0.21
802.589	-0.19
802.762	0.32
802.935	0.44
803.107	0.58
803.28	0.8
803.453	0.47
803.626	0.16
803.798	0.45
803.971	0.39
804.144	0.6
804.317	0.38
804.489	0.85
804.662	0.32
804.835	0.58
805.007	0.36
805.18	0.47
805.353	0.46
805.525	0
805.698	0.27
805.87	0.71
806.043	0.62
806.215	-0.03
806.388	0.29
806.56	0.63
806.733	0.71
806.905	0.41
807.078	0.22
807.25	0.52
807.423	0.46
807.595	0.58
807.768	0.17
807.94	0.75
808.112	0.68
808.285	0.43
808.457	0.29
808.629	0.36
808.802	0.66
808.974	0.15
809.146	0.31
809.318	0.02
809.491	0.86
809.663	0.62
809.835	0.3
810.007	0.48
810.18	0.47
810.352	0.07
810.524	0.21
810.696	0.69
810.868	0.87
811.04	0.12
811.212	0.22
811.384	0.62
811.556	0.61
811.728	0.57
811.901	0.89
812.073	0.5
812.245	0.24
812.417	0.19
812.589	-0.55
812.76	0.31
812.932	0.35
813.104	0.7
813.276	0.3
813.448	0.57
813.62	-0.04
813.792	0.26
813.964	0.18
814.136	0.16
814.307	0.14
814.479	0.29
814.651	0.52
814.823	1.09
814.995	0.5
815.166	0.68
815.338	-0.01
815.51	0.06
815.681	1.36
815.853	0.04
816.025	0.2
816.196	0.74
816.368	0.99
816.54	0.21
816.711	0.2
816.883	0.48
817.054	1.4
817.226	-0.06
817.398	0.72
817.569	0.42
817.741	0.72
817.912	0.15
818.084	0.45
818.255	0.94
818.426	0.07
818.598	0.67
818.769	-0.23
818.941	0.66
819.112	0.87
819.283	0.37
819.455	-0.12
819.626	0.63
819.798	0.61
819.969	0.82
820.14	0.51
820.311	0.38
820.483	0.89
820.654	0.79
820.825	0.06
820.996	0.28
821.168	0.29
821.339	0.65
821.51	0.18
821.681	0.07
821.852	0.1
822.023	-0.1
822.195	0.12
822.366	0.89
822.537	0.35
822.708	0.47
822.879	0.07
823.05	0.95
823.221	0.76
823.392	0.78
823.563	0.58
823.734	0.7
823.905	0.93
824.076	0.49
824.247	0.53
824.418	0.98
824.589	1.2
824.759	0.32
824.93	0.76
825.101	-0.17
825.272	0.9
825.443	1.07
825.614	1.15
825.784	-0.59
825.955	1.23
826.126	1.34
826.297	0.26
826.467	1.24
826.638	1.19
826.809	-0.02
826.98	-0.07
827.15	0.59
827.321	0.64
827.492	1.08
827.662	0.68
827.833	1.12
828.003	0.91
828.174	0.12
828.345	-0.12
828.515	1.68
828.686	0.72
828.856	0.56
829.027	0.57
829.197	0.47
829.368	0.29
829.538	0.54
829.709	-0.17
829.879	1.02
830.049	0.53
830.22	0.51
830.39	0.1
830.56	0.79
830.731	0.6
830.901	-0.12
831.072	0.48
831.242	0.7
831.412	0.51
831.582	0.37
831.753	0.3
831.923	1.14
832.093	0.49
832.263	0.5
832.434	0.24
832.604	0.26
832.774	0.87
832.944	0.78
833.114	0.41
833.284	0.29
833.454	-0.3
833.624	0.53
833.795	-0.14
833.965	1.09
834.135	1.16
834.305	-0.28
834.475	-0.08
834.645	0.47
834.815	0.18
834.985	-0.06
835.155	0.28
835.325	1.28
835.494	0.68
835.664	0.68
835.834	-0.13
836.004	0.13
836.174	1.47
836.344	0.86
836.514	0
836.684	0.67
836.853	1.08
837.023	1.03
837.193	-0.03
837.363	0.87
837.532	1.09
837.702	1.07
837.872	0.68
838.041	1.27
838.211	1.19
838.381	-0.13
838.55	0.49
838.72	2.57
838.89	1.65
839.059	0.43
839.229	-0.19
839.398	1.94
839.568	0.84
839.738	0.36
839.907	1.47
840.077	1.18
840.246	-0.05
840.416	-0.49
840.585	-0.52
840.755	2.04
840.924	1.42
841.093	-0.62
841.263	1.25
841.432	1.02
841.602	-0.04
841.771	-0.04
841.94	0.87
842.11	2.61
842.279	2.5
842.448	-0.04
842.617	-0.21
842.787	2.06
842.956	-0.13
843.125	0.62
843.294	1.13
843.464	1.2
843.633	1.41
843.802	0.29
843.971	0.03
844.14	1.37
844.309	1.23
844.479	0.25
844.648	0.3
844.817	0.36
844.986	0.78
845.155	0.46
845.324	0.96
845.493	0.86
845.662	-0.02
845.831	1.62
846	1.34
846.169	1.4
846.338	2.5
846.507	0.82
846.676	0.62
846.844	1.05
847.013	2.24
847.182	0.77
847.351	0.04
847.52	0.17
847.689	1.36
847.858	0.99
848.026	0.25
848.195	0.22
848.364	0.51
848.533	0.13
848.701	0.96
848.87	1.26
849.039	1.15
849.207	1.67
849.376	2.59
849.545	1.88
849.713	-0.18
849.882	0.96
850.051	0.95
850.219	1.81
850.388	1.54
850.556	0.27
850.725	1.13
850.893	1.26
851.062	0.9
851.23	1.31
851.399	-0.76
851.567	-0.11
851.736	0.16
851.904	-0.1
852.073	1.31
852.241	1.73
852.41	1.07
852.578	0.54
852.746	-0.25
852.915	1.28
853.083	0.69
853.251	0.41
853.42	0.55
853.588	1.23
853.756	1.2
853.924	1.02
854.093	0.92
854.261	-0.09
854.429	-0.14
854.597	1.36
854.765	0.37
854.934	1.52
855.102	2.45
855.27	0.23
855.438	1.45
855.606	2.01
855.774	2.81
855.942	0.37
856.11	-0.76
856.278	2.49
856.446	2.1
856.614	0.88
856.782	-0.1
856.95	2.5
857.118	2.08
857.286	0.78
857.454	0.28
857.622	3.23
857.79	1.29
857.958	0.37
858.126	0.55
858.294	-0.28
858.462	1.2
858.629	0.86
858.797	-0.67
858.965	2.14
859.133	1.3
859.301	1.48
859.468	0.69
859.636	-0.12
859.804	2.46
859.971	1.73
860.139	0.37
860.307	2.03
860.474	2.1
860.642	0.79
860.81	0.87
860.977	0.41
861.145	2.09
861.313	0.65
861.48	1.33
861.648	2.31
861.815	2.06
861.983	-0.33
862.15	0.99
862.318	3.61
862.485	3.28
862.653	0.82
862.82	1.81
862.988	2.21
863.155	0.7
863.322	0.45
863.49	0.04
863.657	1.2
863.824	2.3
863.992	3.04
864.159	1.29
864.326	3.81
864.494	0.35
864.661	3.94
864.828	-0.82
864.996	3.71
865.163	3.3
865.33	-0.1
865.497	-0.11
865.664	1.89
865.832	-0.49
865.999	0.49
866.166	0.2
866.333	0.39
866.5	1.04
866.667	0.47
866.834	0.26
867.001	2.02
867.168	-0.5
867.335	1.35
867.502	0.11
867.669	2.2
867.836	4.48
868.003	0.64
868.17	1.64
868.337	0.05
868.504	3.3
868.671	-0.68
868.838	0.46
869.005	2.8
869.172	2.28
869.339	1.41
869.505	1.23
869.672	0.7
869.839	2.88
870.006	0.84
870.173	-0.23
870.339	1.85
870.506	2.94
870.673	-0.14
870.84	3.51
871.006	1.8
871.173	0.47
871.34	3.21
871.506	0.77
871.673	0.9
871.839	-1.48
872.006	0.33
872.173	-0.14
872.339	0.73
872.506	3.48
872.672	1.88
872.839	-0.1
873.005	0.42
873.172	4.57
873.338	2.52
873.505	1.41
873.671	2.93
873.838	2.31
874.004	-1.1
874.171	0.14
874.337	1.97
874.503	1.83
874.67	1.24
874.836	0.92
875.002	3.74
875.169	2.61
875.335	0.86
875.501	0.62
875.668	3.83
875.834	1.58
876	2.99
876.166	0.2
876.332	1.71
876.499	3.96
876.665	0.91
876.831	0.92
876.997	4.25
877.163	4.05
877.329	0.21
877.495	1.83
877.662	3.26
877.828	2.37
877.994	3.1
878.16	-1.36
878.326	1.09
878.492	1.13
878.658	0.36
878.824	2.73
878.99	2.14
879.156	1.35
879.322	4.15
879.487	1.74
879.653	1.61
879.819	2.04
879.985	0.39
880.151	1.57
880.317	2.21
880.483	1.87
880.648	2.1
880.814	0.21
880.98	2.37
881.146	-1.97
881.312	1.64
881.477	0.77
881.643	1.23
881.809	3.79
881.974	3.78
882.14	0.53
882.306	2.11
882.471	2.77
882.637	1.41
882.803	1.8
882.968	5.8
883.134	4.47
883.299	1.71
883.465	1.69
883.63	2.04
883.796	2.15
883.961	3.73
884.127	3.65
884.292	-3.24
884.458	0.85
884.623	0.85
