Data from Apollo_Calib_20240827__AbsoluteIrradiance__731__11-20-01-494.txt Node

Date: Wed Aug 28 11:20:01 BST 2024
User: biology
Spectrometer: FLMT08252
Trigger mode: 0
Integration Time (sec): 5.000000E-1
Scans to average: 5
Electric dark correction enabled: true
Nonlinearity correction enabled: false
Boxcar width: 0
XAxis mode: Wavelengths
Number of Pixels in Spectrum: 3648
>>>>>Begin Spectral Data<<<<<
179.588	-0
179.809	-0
180.03	-0
180.251	-0
180.473	-0
180.694	0
180.915	0
181.136	-0
181.357	0
181.578	0
181.799	-0
182.02	0
182.241	-0
182.462	-0
182.683	0
182.904	-0
183.125	-0
183.346	0
183.567	0
183.788	0
184.009	-0
184.23	0
184.451	0
184.672	-0
184.892	0
185.113	0
185.334	0
185.555	0
185.776	0
185.996	0
186.217	0
186.438	0
186.659	-0
186.879	0
187.1	0
187.321	-0
187.541	0
187.762	0
187.983	0
188.203	0
188.424	0
188.644	0
188.865	0
189.086	0
189.306	0
189.527	0
189.747	0
189.968	0
190.188	0
190.409	0
190.629	0
190.849	0
191.07	0
191.29	0
191.511	0
191.731	0
191.951	-0
192.172	0
192.392	0
192.612	0
192.833	0
193.053	0
193.273	0
193.493	0
193.714	0
193.934	0
194.154	0
194.374	0
194.594	0
194.815	0
195.035	0
195.255	0
195.475	0
195.695	0
195.915	0
196.135	0
196.355	0
196.575	0
196.795	0
197.015	-0
197.235	0
197.455	0
197.675	0
197.895	0
198.115	-0
198.335	0
198.555	0
198.775	0
198.995	0
199.214	0
199.434	0
199.654	0
199.874	0
200.094	1.94
200.313	0.58
200.533	0.16
200.753	0.01
200.973	1.58
201.192	2.05
201.412	0.3
201.632	0.21
201.851	1.46
202.071	0.44
202.291	0.3
202.51	-0.32
202.73	1.34
202.95	0.56
203.169	-0.24
203.389	0.44
203.608	0.9
203.828	0.06
204.047	0.35
204.267	0.83
204.486	0.52
204.706	0.88
204.925	0.8
205.145	0.23
205.364	0.98
205.583	1.26
205.803	0.44
206.022	0.17
206.242	0.55
206.461	0.5
206.68	0.09
206.9	0.44
207.119	0.94
207.338	0.89
207.557	0.18
207.777	0.04
207.996	0.34
208.215	1.11
208.434	0.31
208.654	0.14
208.873	0.61
209.092	0.65
209.311	0.56
209.53	0.16
209.749	0.41
209.968	0.23
210.187	0.56
210.407	-0.12
210.626	0.03
210.845	0.85
211.064	0.25
211.283	0.18
211.502	0.6
211.721	0.18
211.94	0.16
212.159	0.6
212.377	0.57
212.596	0.74
212.815	0.37
213.034	0.18
213.253	0.48
213.472	0.47
213.691	0.13
213.91	0.12
214.128	0.3
214.347	0.62
214.566	-0.21
214.785	-0.3
215.003	0.48
215.222	0.34
215.441	0.33
215.66	-0.1
215.878	0.48
216.097	0.54
216.316	0.01
216.534	0.21
216.753	0.37
216.972	0.08
217.19	0.03
217.409	0.1
217.627	0.1
217.846	0.18
218.064	0.34
218.283	-0.06
218.501	0.82
218.72	0.46
218.938	-0.01
219.157	0.19
219.375	0.43
219.594	0.35
219.812	0.04
220.031	0.14
220.249	0.59
220.467	0.56
220.686	0.18
220.904	0.03
221.122	0.15
221.341	0.52
221.559	0.33
221.777	0.02
221.995	0.14
222.214	0.44
222.432	0.05
222.65	0.32
222.868	0.24
223.086	0.16
223.305	0.29
223.523	0.12
223.741	0.43
223.959	0.01
224.177	-0.09
224.395	-0.05
224.613	0.2
224.831	0.3
225.049	0.06
225.267	0.12
225.485	0.21
225.703	0.07
225.921	0.19
226.139	-0.01
226.357	0.34
226.575	0.26
226.793	0.11
227.011	0.91
227.229	0.17
227.447	0.28
227.665	0.11
227.883	-0
228.1	0.29
228.318	0.21
228.536	-0.11
228.754	0.08
228.972	0.2
229.189	0.51
229.407	0.1
229.625	0.08
229.843	0.43
230.06	0.17
230.278	0.04
230.496	0.06
230.713	0.2
230.931	0.4
231.149	0.15
231.366	-0.14
231.584	0.19
231.801	0.47
232.019	0.11
232.236	0.02
232.454	0.09
232.671	0.27
232.889	0.08
233.106	0.05
233.324	0.14
233.541	0.2
233.759	0.05
233.976	0.04
234.194	0.26
234.411	0.08
234.628	0.1
234.846	0.14
235.063	0.15
235.28	0.06
235.498	0.15
235.715	0.08
235.932	0.22
236.149	0.06
236.367	0.15
236.584	0.28
236.801	0.11
237.018	0.33
237.236	0.16
237.453	-0.13
237.67	0.32
237.887	0.17
238.104	0.11
238.321	-0.02
238.538	0.18
238.755	0.21
238.973	-0.01
239.19	0.05
239.407	0.2
239.624	0.24
239.841	0
240.058	0.06
240.275	0.2
240.492	0.08
240.709	0.15
240.925	0.03
241.142	0.16
241.359	0
241.576	0.02
241.793	0.16
242.01	0.25
242.227	0.29
242.444	0.16
242.66	0.23
242.877	0.15
243.094	0.09
243.311	0.16
243.527	0.11
243.744	0.23
243.961	0.22
244.178	0.05
244.394	0.03
244.611	0.17
244.828	0.29
245.044	0.13
245.261	0.12
245.477	0.18
245.694	0.26
245.911	0.09
246.127	0.12
246.344	0.28
246.56	0.2
246.777	0.06
246.993	0.09
247.21	0.16
247.426	0.1
247.643	0.12
247.859	-0.04
248.076	0.08
248.292	0.33
248.508	0.08
248.725	0.14
248.941	0.2
249.157	0.3
249.374	0.07
249.59	0.08
249.806	0.11
250.023	0.35
250.239	0.07
250.455	0
250.671	0.16
250.888	0.19
251.104	0.17
251.32	0.08
251.536	0.12
251.752	0.14
251.969	0.14
252.185	0.15
252.401	0.31
252.617	0.16
252.833	0.11
253.049	0.12
253.265	0.11
253.481	0.21
253.697	0.16
253.913	0.03
254.129	0.13
254.345	0.25
254.561	0.04
254.777	0.12
254.993	0.17
255.209	0.21
255.425	0.09
255.641	0.07
255.857	0.23
256.073	0.13
256.288	-0
256.504	0.07
256.72	0.2
256.936	0.21
257.152	0.04
257.367	0.02
257.583	0.2
257.799	0.16
258.015	0.06
258.23	0.07
258.446	0.3
258.662	0.09
258.877	0
259.093	0.05
259.309	0.18
259.524	0.17
259.74	0.1
259.955	-0.02
260.171	0.14
260.387	0.09
260.602	0.16
260.818	0.15
261.033	0.04
261.249	0.11
261.464	0.13
261.68	-0.02
261.895	0.05
262.11	0.14
262.326	0.07
262.541	0.05
262.757	0.17
262.972	0.11
263.187	0.13
263.403	0.11
263.618	0.27
263.833	0.11
264.049	0.09
264.264	0.12
264.479	0.08
264.694	0.22
264.91	0.05
265.125	0.12
265.34	0.14
265.555	0.22
265.77	0.14
265.986	0.06
266.201	0.16
266.416	0.21
266.631	0.06
266.846	0.05
267.061	0.09
267.276	0.15
267.491	0.02
267.706	0.13
267.921	0.15
268.136	0.16
268.351	0.08
268.566	0.04
268.781	0.22
268.996	0.15
269.211	0.07
269.426	-0.04
269.641	0.09
269.856	0.18
270.071	0.05
270.285	0
270.5	0.16
270.715	0.2
270.93	0.08
271.145	0.11
271.359	0.17
271.574	0.1
271.789	0.11
272.004	0.03
272.218	0.07
272.433	0.18
272.648	0.01
272.862	0.15
273.077	0.11
273.292	0.13
273.506	0.11
273.721	0.07
273.936	0.1
274.15	0.16
274.365	0.12
274.579	0.16
274.794	0.14
275.008	0.19
275.223	0.01
275.437	0.11
275.652	0.16
275.866	0.13
276.081	0.11
276.295	0.16
276.509	0.14
276.724	0.12
276.938	0.12
277.153	0.12
277.367	0.19
277.581	0.09
277.796	0.06
278.01	0.04
278.224	0.14
278.438	0.28
278.653	0.04
278.867	0.06
279.081	-0.06
279.295	0.09
279.51	0.08
279.724	-0.04
279.938	0.09
280.152	0.12
280.366	0.04
280.58	0.14
280.794	0.19
281.008	0.13
281.222	0.13
281.437	0.23
281.651	0.09
281.865	0.15
282.079	0.07
282.293	-0.02
282.507	0.09
282.721	0.09
282.935	0.08
283.148	0.03
283.362	0.05
283.576	0.02
283.79	0.15
284.004	0.05
284.218	0.18
284.432	0.08
284.646	0.04
284.859	0.04
285.073	0.07
285.287	0.15
285.501	0.07
285.714	0.08
285.928	0.15
286.142	0.08
286.356	0.09
286.569	0.05
286.783	0.18
286.997	0.09
287.21	0.12
287.424	0.08
287.637	0.08
287.851	0.09
288.065	0.15
288.278	0.08
288.492	0.09
288.705	0.08
288.919	0.11
289.132	0.02
289.346	0.11
289.559	0.04
289.773	0.01
289.986	0.11
290.2	0.09
290.413	0.16
290.626	0.05
290.84	0.09
291.053	0.01
291.267	0.19
291.48	0.13
291.693	0.09
291.906	0.06
292.12	0.09
292.333	0.06
292.546	0.07
292.76	0.22
292.973	0.06
293.186	0.16
293.399	0.03
293.612	0.18
293.826	0.07
294.039	0.06
294.252	0.1
294.465	0.11
294.678	0.14
294.891	0.12
295.104	0.05
295.317	0.06
295.53	0.08
295.743	0.07
295.956	0.07
296.169	0.14
296.382	0.11
296.595	0.06
296.808	0.02
297.021	0.09
297.234	0.1
297.447	0.11
297.66	0.11
297.873	0.13
298.086	0.17
298.299	0.04
298.511	0.04
298.724	0.1
298.937	0.04
299.15	0.08
299.363	0.11
299.575	0.11
299.788	0.11
300.001	0.03
300.213	0.05
300.426	0.05
300.639	0.08
300.852	0.07
301.064	0.11
301.277	0.14
301.489	0.13
301.702	0.13
301.915	0.1
302.127	0.08
302.34	0.13
302.552	0.12
302.765	0.02
302.977	0.16
303.19	0.04
303.402	0.02
303.615	0.06
303.827	0.08
304.04	0.06
304.252	0.13
304.464	0.06
304.677	0.17
304.889	0.15
305.102	0.08
305.314	0.06
305.526	0.11
305.739	0.11
305.951	0.07
306.163	0.08
306.375	0.16
306.588	0.06
306.8	0.1
307.012	0.01
307.224	0.1
307.436	0.14
307.649	0.04
307.861	0.08
308.073	0.11
308.285	0.08
308.497	0.05
308.709	0.07
308.921	0.08
309.133	0.14
309.346	0.05
309.558	0.11
309.77	0.14
309.982	0.12
310.194	0.12
310.406	0.06
310.617	0.13
310.829	0.09
311.041	0.11
311.253	0.04
311.465	0.08
311.677	0.1
311.889	0.08
312.101	0.07
312.313	0.13
312.524	0.15
312.736	0.03
312.948	0.05
313.16	0.14
313.372	0.13
313.583	0.1
313.795	0.05
314.007	0.03
314.218	0.12
314.43	0.07
314.642	0.04
314.853	0.03
315.065	0.12
315.277	0.08
315.488	0.07
315.7	0.15
315.912	0.1
316.123	0.08
316.335	0.06
316.546	0.2
316.758	0.11
316.969	0.07
317.181	0.05
317.392	0.1
317.604	0.17
317.815	0.04
318.026	0.03
318.238	0.06
318.449	0.09
318.661	0.02
318.872	0.04
319.083	0.05
319.295	0.11
319.506	0.06
319.717	0.09
319.929	0.15
320.14	0.08
320.351	0.09
320.562	0.06
320.774	0.11
320.985	0.07
321.196	0.06
321.407	0.01
321.618	0.12
321.829	0.11
322.041	0.09
322.252	0.08
322.463	0.14
322.674	0.09
322.885	0.02
323.096	0.07
323.307	0.07
323.518	0.09
323.729	0.05
323.94	0.02
324.151	0.07
324.362	0.13
324.573	0.06
324.784	0.03
324.995	0.15
325.206	0.1
325.417	0.1
325.628	0.04
325.838	0.12
326.049	0.1
326.26	0.14
326.471	0.06
326.682	0.11
326.892	0.08
327.103	0.04
327.314	0.03
327.525	0.15
327.735	0.05
327.946	0.06
328.157	0.07
328.368	0.16
328.578	0.08
328.789	0.12
328.999	0.11
329.21	0.04
329.421	0.09
329.631	0.05
329.842	0.06
330.052	0.15
330.263	0.1
330.473	0.15
330.684	0.08
330.894	0.03
331.105	0.07
331.315	0.1
331.526	0.03
331.736	0.18
331.947	0.05
332.157	0.07
332.367	0.06
332.578	0.09
332.788	0.19
332.999	0.13
333.209	0.09
333.419	0.02
333.629	0.1
333.84	0.11
334.05	0.11
334.26	0.17
334.47	0.1
334.681	0.13
334.891	0.05
335.101	0.11
335.311	0.21
335.521	0.1
335.732	0.04
335.942	0.11
336.152	0.14
336.362	0.07
336.572	0.09
336.782	0.09
336.992	0.06
337.202	0.07
337.412	0.07
337.622	0.11
337.832	0.08
338.042	0.07
338.252	0.04
338.462	0.02
338.672	0.08
338.882	0.04
339.092	0.05
339.302	0.15
339.511	0.09
339.721	0.07
339.931	-0.01
340.141	0.11
340.351	0.13
340.561	0.1
340.77	0.09
340.98	0.08
341.19	0.09
341.4	0.04
341.609	0.05
341.819	0.07
342.029	0.05
342.238	0.12
342.448	0.08
342.658	0.08
342.867	0.12
343.077	0.1
343.286	0.08
343.496	0.1
343.706	0.19
343.915	0.05
344.125	0.08
344.334	0.12
344.544	0
344.753	0.07
344.963	0.05
345.172	0.05
345.381	0.03
345.591	0.07
345.8	0.05
346.01	0.11
346.219	0.17
346.428	-0.05
346.638	0.08
346.847	0.07
347.056	0.15
347.266	0.04
347.475	0.08
347.684	0.16
347.893	0.1
348.103	0.09
348.312	0.07
348.521	0.09
348.73	0.08
348.94	0.13
349.149	0.02
349.358	0.06
349.567	0.07
349.776	0.03
349.985	0.04
350.194	0.11
350.403	0.12
350.612	0.02
350.821	0.12
351.03	0.1
351.239	-0
351.448	0.12
351.657	0.05
351.866	0.15
352.075	0.1
352.284	0.14
352.493	0.08
352.702	0.16
352.911	0.11
353.12	0.11
353.329	0.09
353.538	0.08
353.746	0.09
353.955	0.04
354.164	0.12
354.373	0.06
354.582	0.12
354.79	0.1
354.999	0.08
355.208	0.1
355.416	0.16
355.625	0.03
355.834	0.08
356.042	0.16
356.251	0.04
356.46	0.03
356.668	0.12
356.877	0.15
357.085	0.11
357.294	0.02
357.503	0.09
357.711	0.06
357.92	0.22
358.128	0.11
358.337	0.05
358.545	0.09
358.754	0.05
358.962	0.11
359.17	0.04
359.379	0.09
359.587	0.1
359.796	0.06
360.004	0.14
360.212	0.12
360.421	0.13
360.629	0.09
360.837	0.07
361.046	0.1
361.254	0.16
361.462	0.07
361.67	0.06
361.879	0.06
362.087	0.16
362.295	0.11
362.503	0.09
362.711	0.03
362.92	0.04
363.128	0.06
363.336	0.04
363.544	0.03
363.752	0.06
363.96	0.04
364.168	0.01
364.376	0.09
364.584	0.11
364.792	0.14
365	0.12
365.208	0.09
365.416	0.1
365.624	0.13
365.832	0.04
366.04	0.15
366.248	0.1
366.456	0.11
366.664	0.08
366.872	0.08
367.079	0.06
367.287	0.12
367.495	0.08
367.703	0.09
367.911	0.09
368.118	0.08
368.326	0.07
368.534	0.04
368.742	0.14
368.949	0.02
369.157	0.04
369.365	0.13
369.572	0.06
369.78	0.05
369.988	0.13
370.195	0.12
370.403	0.15
370.61	0.05
370.818	0.09
371.026	0.13
371.233	0.08
371.441	0.11
371.648	0.08
371.856	0.04
372.063	0.12
372.271	0.06
372.478	0.06
372.685	0.07
372.893	0.17
373.1	0.06
373.308	0.07
373.515	0.15
373.722	0.12
373.93	0.07
374.137	0.09
374.344	0.17
374.552	0.09
374.759	0.11
374.966	0.08
375.173	0.05
375.381	0.13
375.588	0.07
375.795	0.01
376.002	0.08
376.209	0.06
376.417	0.09
376.624	0.1
376.831	0.11
377.038	0.09
377.245	-0.01
377.452	0.07
377.659	0.09
377.866	0.05
378.073	0.04
378.28	0.1
378.487	0.13
378.694	0.12
378.901	0.07
379.108	0.06
379.315	0.13
379.522	0.17
379.729	0.11
379.936	0.06
380.143	0.06
380.35	0.09
380.557	0.08
380.763	0.08
380.97	0.11
381.177	0.13
381.384	0.06
381.591	0.03
381.797	0.1
382.004	0.08
382.211	0.11
382.418	0.02
382.624	0.15
382.831	0.08
383.038	0.08
383.244	0.09
383.451	0.09
383.658	0.09
383.864	0.05
384.071	0.08
384.277	0.12
384.484	0.08
384.69	0.19
384.897	0.06
385.103	0.06
385.31	0.07
385.516	0.1
385.723	0.06
385.929	0.1
386.136	0.05
386.342	0.1
386.549	0.06
386.755	0.12
386.961	0.09
387.168	0.11
387.374	0.1
387.58	0.13
387.787	0.11
387.993	0.12
388.199	0.09
388.406	0.08
388.612	0.1
388.818	0.08
389.024	0.07
389.231	0.1
389.437	0.12
389.643	0.12
389.849	0.06
390.055	0.1
390.261	0.07
390.467	0.12
390.674	0.05
390.88	0.06
391.086	0.12
391.292	0.06
391.498	0.13
391.704	0.12
391.91	0.1
392.116	0.06
392.322	0.02
392.528	0.1
392.734	0.1
392.94	0.14
393.146	0.11
393.352	0.11
393.557	0.07
393.763	0.09
393.969	0.17
394.175	0.1
394.381	0.13
394.587	0.08
394.792	0.1
394.998	0.14
395.204	0.14
395.41	0.08
395.615	0.15
395.821	0.09
396.027	0.14
396.233	0.09
396.438	0.1
396.644	0.1
396.85	0.12
397.055	0.11
397.261	0.13
397.466	0.07
397.672	0.13
397.878	0.12
398.083	0.1
398.289	0.11
398.494	0.14
398.7	0.13
398.905	0.03
399.111	0.17
399.316	0.08
399.522	0.09
399.727	0.11
399.932	0.13
400.138	0.1
400.343	0.19
400.549	0.09
400.754	0.12
400.959	0.16
401.165	0.11
401.37	0.13
401.575	0.19
401.78	0.14
401.986	0.11
402.191	0.08
402.396	0.11
402.601	0.18
402.807	0.18
403.012	0.16
403.217	0.17
403.422	0.15
403.627	0.12
403.832	0.09
404.037	0.17
404.243	0.18
404.448	0.1
404.653	0.12
404.858	0.15
405.063	0.17
405.268	0.13
405.473	0.12
405.678	0.09
405.883	0.31
406.088	0.19
406.293	0.09
406.498	0.11
406.703	0.18
406.907	0.17
407.112	0.1
407.317	0.17
407.522	0.21
407.727	0.11
407.932	0.15
408.136	0.24
408.341	0.18
408.546	0.2
408.751	0.19
408.956	0.14
409.16	0.26
409.365	0.15
409.57	0.16
409.774	0.19
409.979	0.24
410.184	0.15
410.388	0.18
410.593	0.28
410.798	0.24
411.002	0.19
411.207	0.28
411.411	0.22
411.616	0.18
411.82	0.22
412.025	0.27
412.229	0.25
412.434	0.34
412.638	0.25
412.843	0.27
413.047	0.33
413.252	0.29
413.456	0.32
413.66	0.31
413.865	0.29
414.069	0.4
414.273	0.29
414.478	0.32
414.682	0.34
414.886	0.3
415.091	0.36
415.295	0.32
415.499	0.44
415.703	0.38
415.908	0.44
416.112	0.35
416.316	0.53
416.52	0.48
416.724	0.44
416.929	0.45
417.133	0.63
417.337	0.49
417.541	0.5
417.745	0.5
417.949	0.63
418.153	0.62
418.357	0.58
418.561	0.72
418.765	0.64
418.969	0.76
419.173	0.76
419.377	0.74
419.581	0.88
419.785	0.76
419.989	0.73
420.193	0.88
420.397	0.86
420.601	1.01
420.804	0.96
421.008	0.94
421.212	1.03
421.416	1.02
421.62	1.01
421.823	1.06
422.027	1.14
422.231	1.08
422.435	1.08
422.638	1.14
422.842	1.11
423.046	1.15
423.249	1.28
423.453	1.25
423.657	1.31
423.86	1.31
424.064	1.34
424.268	1.54
424.471	1.38
424.675	1.57
424.878	1.52
425.082	1.6
425.285	1.63
425.489	1.59
425.692	1.7
425.896	1.64
426.099	1.76
426.303	1.74
426.506	1.79
426.71	1.88
426.913	2
427.116	2.05
427.32	1.98
427.523	2.03
427.726	2.16
427.93	2.16
428.133	2.32
428.336	2.25
428.54	2.27
428.743	2.38
428.946	2.6
429.149	2.51
429.353	2.56
429.556	2.56
429.759	2.52
429.962	2.55
430.165	2.58
430.368	2.53
430.571	2.54
430.775	2.59
430.978	2.52
431.181	2.53
431.384	2.6
431.587	2.63
431.79	2.73
431.993	2.71
432.196	2.83
432.399	2.83
432.602	3.03
432.805	3.02
433.008	3.18
433.211	3.06
433.414	3.27
433.616	3.3
433.819	3.22
434.022	3.3
434.225	3.4
434.428	3.39
434.631	3.68
434.833	3.4
435.036	3.47
435.239	3.63
435.442	3.59
435.645	3.66
435.847	3.68
436.05	3.8
436.253	3.9
436.455	3.84
436.658	3.89
436.861	4.05
437.063	4.01
437.266	3.98
437.468	4.14
437.671	4.35
437.874	4.26
438.076	4.19
438.279	4.4
438.481	4.46
438.684	4.76
438.886	4.56
439.089	4.65
439.291	4.77
439.494	4.87
439.696	4.81
439.899	5.08
440.101	5.31
440.303	5.29
440.506	5.6
440.708	5.57
440.91	5.61
441.113	5.71
441.315	5.79
441.517	5.73
441.72	5.97
441.922	5.84
442.124	5.84
442.326	5.96
442.529	6.22
442.731	6.02
442.933	6.3
443.135	6.2
443.337	6.15
443.539	6.38
443.742	6.32
443.944	6.58
444.146	6.52
444.348	6.51
444.55	6.49
444.752	6.52
444.954	6.58
445.156	6.68
445.358	6.7
445.56	6.95
445.762	6.84
445.964	7
446.166	6.98
446.368	6.9
446.57	6.98
446.772	6.85
446.974	6.74
447.175	6.92
447.377	6.81
447.579	6.92
447.781	6.75
447.983	6.76
448.184	6.66
448.386	6.75
448.588	6.58
448.79	6.6
448.991	6.61
449.193	6.71
449.395	6.5
449.597	6.45
449.798	6.31
450	6.21
450.202	6.13
450.403	6.17
450.605	6.23
450.806	5.95
451.008	5.94
451.21	5.85
451.411	5.73
451.613	5.42
451.814	5.44
452.016	5.52
452.217	5.16
452.419	5.23
452.62	5
452.821	4.95
453.023	4.93
453.224	4.77
453.426	4.52
453.627	4.23
453.828	4.32
454.03	4.27
454.231	4.32
454.432	4.25
454.634	4.17
454.835	3.94
455.036	3.95
455.238	3.79
455.439	3.77
455.64	3.57
455.841	3.47
456.042	3.56
456.244	3.43
456.445	3.38
456.646	3.14
456.847	3.17
457.048	3.2
457.249	3.18
457.45	3.16
457.651	2.88
457.852	2.79
458.054	2.61
458.255	2.62
458.456	2.67
458.657	2.62
458.858	2.53
459.058	2.41
459.259	2.47
459.46	2.37
459.661	2.31
459.862	2.43
460.063	2.28
460.264	2.24
460.465	2.08
460.666	2.27
460.866	2.07
461.067	1.97
461.268	1.98
461.469	1.94
461.67	1.98
461.87	1.86
462.071	1.88
462.272	1.86
462.473	1.84
462.673	1.88
462.874	1.81
463.075	1.82
463.275	1.83
463.476	1.9
463.676	1.84
463.877	1.79
464.078	1.8
464.278	1.81
464.479	1.74
464.679	1.77
464.88	1.74
465.08	1.73
465.281	1.57
465.481	1.51
465.682	1.45
465.882	1.5
466.083	1.48
466.283	1.5
466.483	1.38
466.684	1.36
466.884	1.33
467.085	1.32
467.285	1.35
467.485	1.24
467.686	1.25
467.886	1.16
468.086	1.23
468.286	1.24
468.487	1.29
468.687	1.17
468.887	1.11
469.087	1.24
469.287	1.16
469.488	1.04
469.688	1.19
469.888	1.16
470.088	1.16
470.288	1.11
470.488	1.07
470.688	0.99
470.888	0.99
471.088	0.93
471.288	1.01
471.488	1
471.688	0.98
471.888	0.88
472.088	1.01
472.288	0.96
472.488	0.88
472.688	0.85
472.888	0.91
473.088	0.94
473.288	0.92
473.488	0.84
473.688	0.94
473.887	0.84
474.087	0.81
474.287	0.84
474.487	0.82
474.687	0.87
474.886	0.75
475.086	0.8
475.286	0.79
475.486	0.77
475.685	0.77
475.885	0.76
476.085	0.77
476.284	0.78
476.484	0.81
476.684	0.73
476.883	0.83
477.083	0.74
477.282	0.73
477.482	0.84
477.681	0.77
477.881	0.71
478.08	0.7
478.28	0.68
478.479	0.77
478.679	0.74
478.878	0.7
479.078	0.69
479.277	0.71
479.477	0.69
479.676	0.75
479.875	0.67
480.075	0.62
480.274	0.68
480.473	0.75
480.673	0.64
480.872	0.71
481.071	0.71
481.271	0.72
481.47	0.65
481.669	0.67
481.868	0.66
482.067	0.65
482.267	0.66
482.466	0.63
482.665	0.64
482.864	0.63
483.063	0.64
483.262	0.68
483.461	0.72
483.661	0.78
483.86	0.69
484.059	0.74
484.258	0.67
484.457	0.65
484.656	0.69
484.855	0.73
485.054	0.65
485.253	0.68
485.452	0.67
485.651	0.71
485.849	0.71
486.048	0.67
486.247	0.7
486.446	0.71
486.645	0.67
486.844	0.7
487.043	0.7
487.241	0.74
487.44	0.69
487.639	0.74
487.838	0.73
488.037	0.73
488.235	0.82
488.434	0.72
488.633	0.69
488.831	0.78
489.03	0.8
489.229	0.76
489.427	0.76
489.626	0.85
489.825	0.81
490.023	0.79
490.222	0.78
490.42	0.84
490.619	0.81
490.817	0.83
491.016	0.81
491.214	0.88
491.413	0.84
491.611	0.85
491.81	0.86
492.008	0.85
492.207	0.91
492.405	0.91
492.604	0.85
492.802	0.91
493	0.95
493.199	0.9
493.397	0.94
493.595	0.94
493.794	0.91
493.992	1.04
494.19	0.96
494.388	0.99
494.587	0.96
494.785	0.99
494.983	0.97
495.181	1.01
495.379	1.04
495.578	1.06
495.776	1.06
495.974	1.04
496.172	1.09
496.37	1.09
496.568	1.08
496.766	1.09
496.964	1.16
497.162	1.16
497.36	1.12
497.558	1.18
497.756	1.2
497.954	1.19
498.152	1.21
498.35	1.24
498.548	1.19
498.746	1.25
498.944	1.23
499.142	1.23
499.34	1.26
499.538	1.35
499.736	1.28
499.933	1.35
500.131	1.35
500.329	1.39
500.527	1.39
500.725	1.42
500.922	1.43
501.12	1.4
501.318	1.46
501.516	1.44
501.713	1.47
501.911	1.46
502.109	1.44
502.306	1.54
502.504	1.46
502.701	1.53
502.899	1.54
503.097	1.66
503.294	1.55
503.492	1.59
503.689	1.64
503.887	1.62
504.084	1.66
504.282	1.65
504.479	1.61
504.677	1.72
504.874	1.68
505.072	1.64
505.269	1.7
505.466	1.75
505.664	1.78
505.861	1.73
506.059	1.76
506.256	1.79
506.453	1.82
506.651	1.87
506.848	1.9
507.045	1.86
507.242	1.85
507.44	1.86
507.637	1.94
507.834	1.91
508.031	1.96
508.229	1.9
508.426	1.93
508.623	2
508.82	1.99
509.017	1.93
509.214	1.96
509.411	2.04
509.608	1.98
509.805	2.11
510.003	2.03
510.2	2.05
510.397	2.13
510.594	2.05
510.791	2.11
510.988	2.1
511.184	2.11
511.381	2.09
511.578	2.16
511.775	2.19
511.972	2.19
512.169	2.2
512.366	2.2
512.563	2.24
512.76	2.27
512.956	2.27
513.153	2.23
513.35	2.27
513.547	2.22
513.744	2.3
513.94	2.26
514.137	2.31
514.334	2.33
514.53	2.35
514.727	2.43
514.924	2.4
515.12	2.38
515.317	2.35
515.514	2.34
515.71	2.35
515.907	2.45
516.103	2.4
516.3	2.38
516.497	2.49
516.693	2.47
516.89	2.46
517.086	2.41
517.283	2.48
517.479	2.44
517.676	2.51
517.872	2.51
518.068	2.51
518.265	2.53
518.461	2.47
518.658	2.52
518.854	2.55
519.05	2.58
519.247	2.6
519.443	2.57
519.639	2.62
519.836	2.57
520.032	2.56
520.228	2.6
520.424	2.61
520.621	2.61
520.817	2.63
521.013	2.6
521.209	2.67
521.405	2.68
521.601	2.67
521.798	2.63
521.994	2.7
522.19	2.65
522.386	2.65
522.582	2.71
522.778	2.77
522.974	2.65
523.17	2.72
523.366	2.72
523.562	2.75
523.758	2.75
523.954	2.65
524.15	2.71
524.346	2.75
524.542	2.78
524.738	2.72
524.934	2.8
525.129	2.79
525.325	2.7
525.521	2.78
525.717	2.84
525.913	2.75
526.109	2.77
526.304	2.83
526.5	2.81
526.696	2.85
526.892	2.77
527.087	2.88
527.283	2.82
527.479	2.84
527.674	2.77
527.87	2.81
528.066	2.8
528.261	2.9
528.457	2.85
528.653	2.88
528.848	2.86
529.044	2.91
529.239	2.83
529.435	2.88
529.63	2.85
529.826	2.87
530.021	2.86
530.217	2.87
530.412	2.83
530.608	2.87
530.803	2.89
530.999	2.86
531.194	2.84
531.389	2.95
531.585	2.9
531.78	2.94
531.975	2.94
532.171	2.96
532.366	2.88
532.561	2.9
532.757	2.9
532.952	3
533.147	2.87
533.342	2.93
533.538	2.91
533.733	3.05
533.928	2.88
534.123	2.95
534.318	2.99
534.513	2.92
534.709	3
534.904	2.94
535.099	2.94
535.294	2.97
535.489	3
535.684	2.95
535.879	2.93
536.074	2.95
536.269	2.97
536.464	3.01
536.659	2.98
536.854	2.98
537.049	3.02
537.244	2.96
537.439	2.95
537.634	3
537.828	3.02
538.023	2.99
538.218	2.96
538.413	2.96
538.608	2.97
538.803	3.01
538.997	2.94
539.192	3
539.387	3.01
539.582	3
539.776	2.97
539.971	3.01
540.166	3.03
540.36	2.98
540.555	3.05
540.75	2.96
540.944	2.99
541.139	2.99
541.334	3
541.528	3.05
541.723	3
541.917	3.03
542.112	2.98
542.306	2.96
542.501	2.94
542.695	3.01
542.89	2.97
543.084	3.04
543.279	3.02
543.473	3.01
543.668	3.07
543.862	2.97
544.056	2.99
544.251	3.02
544.445	3.08
544.64	3.01
544.834	2.9
545.028	2.95
545.222	3.02
545.417	3.08
545.611	3.01
545.805	3.03
546	2.93
546.194	3.06
546.388	3.03
546.582	3.02
546.776	2.99
546.97	3.03
547.165	3.05
547.359	3.05
547.553	2.97
547.747	2.99
547.941	3.1
548.135	3.06
548.329	3.03
548.523	3.03
548.717	2.96
548.911	3.04
549.105	3
549.299	3.07
549.493	3.05
549.687	3.05
549.881	3.08
550.075	2.99
550.269	2.97
550.463	3.04
550.657	3.04
550.85	3.03
551.044	3.03
551.238	3.01
551.432	2.98
551.626	3.04
551.82	3.02
552.013	2.99
552.207	3.08
552.401	3.09
552.594	3.04
552.788	3
552.982	3.03
553.176	2.99
553.369	3.07
553.563	3.07
553.756	2.97
553.95	3.08
554.144	3.06
554.337	3.03
554.531	2.98
554.724	3.02
554.918	3.05
555.111	3.02
555.305	3.08
555.498	3.07
555.692	3.11
555.885	3.05
556.079	3.04
556.272	3.07
556.466	3.05
556.659	3
556.852	3.06
557.046	3
557.239	3.06
557.432	3.03
557.626	3.04
557.819	3.12
558.012	3.07
558.206	3.1
558.399	3.03
558.592	3.02
558.785	2.97
558.979	3.05
559.172	3.03
559.365	3.1
559.558	3.01
559.751	3.02
559.944	3.1
560.138	3.06
560.331	3.05
560.524	3.02
560.717	3.01
560.91	3.08
561.103	2.99
561.296	2.99
561.489	3.06
561.682	3.05
561.875	3.08
562.068	3.08
562.261	3.06
562.454	3.1
562.647	3.06
562.84	3.06
563.032	3.07
563.225	3.01
563.418	3.02
563.611	3.05
563.804	3.06
563.997	2.95
564.19	2.92
564.382	3.03
564.575	3.06
564.768	3.03
564.961	3.04
565.153	2.97
565.346	3
565.539	3.1
565.731	3.08
565.924	3.04
566.117	3.09
566.309	3.07
566.502	3.01
566.695	2.96
566.887	3.06
567.08	3.03
567.272	3.02
567.465	3
567.657	3.07
567.85	2.99
568.042	3.07
568.235	3.06
568.427	2.94
568.62	3.04
568.812	3.01
569.005	3.04
569.197	2.97
569.389	3.06
569.582	3.04
569.774	3.05
569.966	2.99
570.159	2.96
570.351	2.99
570.543	2.99
570.736	3.02
570.928	2.96
571.12	3.04
571.312	2.99
571.505	2.94
571.697	3.02
571.889	2.99
572.081	2.99
572.273	2.94
572.465	3.06
572.658	2.99
572.85	3
573.042	3.03
573.234	2.97
573.426	2.99
573.618	2.96
573.81	3
574.002	3
574.194	3.02
574.386	2.95
574.578	2.88
574.77	2.97
574.962	2.96
575.154	2.91
575.346	2.94
575.538	2.93
575.729	2.92
575.921	2.95
576.113	3
576.305	2.96
576.497	3
576.689	2.94
576.88	2.89
577.072	3.01
577.264	2.93
577.456	2.94
577.647	2.89
577.839	2.95
578.031	2.99
578.223	2.89
578.414	2.89
578.606	2.94
578.798	2.97
578.989	2.91
579.181	2.95
579.372	2.96
579.564	2.93
579.755	2.94
579.947	2.9
580.139	2.97
580.33	2.84
580.522	2.93
580.713	2.84
580.905	2.86
581.096	2.93
581.287	2.93
581.479	2.88
581.67	2.93
581.862	2.91
582.053	2.92
582.244	2.85
582.436	2.91
582.627	2.91
582.818	2.87
583.01	2.82
583.201	2.9
583.392	2.88
583.583	2.89
583.775	2.8
583.966	2.89
584.157	2.86
584.348	2.91
584.54	2.79
584.731	2.87
584.922	2.85
585.113	2.77
585.304	2.86
585.495	2.85
585.686	2.88
585.877	2.87
586.068	2.88
586.259	2.86
586.45	2.82
586.641	2.83
586.832	2.84
587.023	2.84
587.214	2.81
587.405	2.87
587.596	2.77
587.787	2.82
587.978	2.82
588.169	2.76
588.36	2.78
588.551	2.78
588.742	2.79
588.932	2.82
589.123	2.74
589.314	2.83
589.505	2.77
589.696	2.8
589.886	2.75
590.077	2.74
590.268	2.76
590.458	2.71
590.649	2.64
590.84	2.78
591.03	2.75
591.221	2.67
591.412	2.74
591.602	2.78
591.793	2.75
591.984	2.71
592.174	2.7
592.365	2.82
592.555	2.65
592.746	2.75
592.936	2.74
593.127	2.7
593.317	2.71
593.508	2.68
593.698	2.66
593.889	2.69
594.079	2.71
594.269	2.63
594.46	2.65
594.65	2.63
594.84	2.66
595.031	2.6
595.221	2.63
595.411	2.64
595.602	2.66
595.792	2.63
595.982	2.57
596.172	2.67
596.363	2.61
596.553	2.6
596.743	2.59
596.933	2.62
597.123	2.6
597.314	2.53
597.504	2.55
597.694	2.64
597.884	2.58
598.074	2.55
598.264	2.55
598.454	2.54
598.644	2.54
598.834	2.61
599.024	2.49
599.214	2.53
599.404	2.56
599.594	2.5
599.784	2.47
599.974	2.54
600.164	2.5
600.354	2.47
600.544	2.44
600.734	2.51
600.924	2.47
601.114	2.49
601.303	2.48
601.493	2.48
601.683	2.5
601.873	2.46
602.063	2.4
602.252	2.48
602.442	2.39
602.632	2.43
602.821	2.39
603.011	2.5
603.201	2.37
603.39	2.41
603.58	2.38
603.77	2.4
603.959	2.45
604.149	2.41
604.339	2.4
604.528	2.41
604.718	2.4
604.907	2.36
605.097	2.34
605.286	2.32
605.476	2.36
605.665	2.35
605.855	2.36
606.044	2.43
606.234	2.36
606.423	2.34
606.612	2.33
606.802	2.31
606.991	2.32
607.181	2.33
607.37	2.33
607.559	2.26
607.749	2.25
607.938	2.28
608.127	2.26
608.316	2.3
608.506	2.27
608.695	2.27
608.884	2.24
609.073	2.28
609.263	2.3
609.452	2.31
609.641	2.18
609.83	2.19
610.019	2.22
610.208	2.19
610.397	2.23
610.586	2.21
610.775	2.17
610.965	2.16
611.154	2.09
611.343	2.18
611.532	2.16
611.721	2.23
611.91	2.11
612.099	2.15
612.287	2.1
612.476	2.08
612.665	2.15
612.854	2.09
613.043	2.1
613.232	2.1
613.421	2.02
613.61	2.11
613.798	2.06
613.987	2.16
614.176	2.1
614.365	2.11
614.554	2.04
614.742	2.1
614.931	2
615.12	2.14
615.309	2.03
615.497	2.01
615.686	1.94
615.875	2.03
616.063	2
616.252	1.97
616.44	1.96
616.629	1.99
616.818	1.96
617.006	2
617.195	1.95
617.383	2
617.572	1.9
617.76	1.94
617.949	1.92
618.137	1.96
618.326	1.98
618.514	1.86
618.703	1.89
618.891	1.96
619.079	1.82
619.268	1.96
619.456	1.85
619.644	1.88
619.833	1.85
620.021	1.87
620.209	1.79
620.398	1.88
620.586	1.81
620.774	1.89
620.962	1.8
621.151	1.92
621.339	1.82
621.527	1.76
621.715	1.78
621.903	1.82
622.092	1.76
622.28	1.85
622.468	1.76
622.656	1.74
622.844	1.76
623.032	1.76
623.22	1.72
623.408	1.84
623.596	1.78
623.784	1.76
623.972	1.7
624.16	1.73
624.348	1.8
624.536	1.75
624.724	1.64
624.912	1.72
625.1	1.73
625.288	1.65
625.476	1.71
625.664	1.74
625.851	1.59
626.039	1.68
626.227	1.64
626.415	1.68
626.603	1.6
626.79	1.65
626.978	1.65
627.166	1.68
627.354	1.62
627.541	1.55
627.729	1.48
627.917	1.67
628.104	1.64
628.292	1.59
628.48	1.62
628.667	1.58
628.855	1.64
629.042	1.63
629.23	1.58
629.418	1.58
629.605	1.56
629.793	1.51
629.98	1.53
630.168	1.52
630.355	1.56
630.543	1.55
630.73	1.46
630.917	1.56
631.105	1.55
631.292	1.54
631.48	1.48
631.667	1.6
631.854	1.52
632.042	1.49
632.229	1.45
632.416	1.49
632.604	1.47
632.791	1.4
632.978	1.49
633.165	1.47
633.353	1.5
633.54	1.56
633.727	1.38
633.914	1.38
634.101	1.37
634.289	1.48
634.476	1.4
634.663	1.38
634.85	1.43
635.037	1.34
635.224	1.32
635.411	1.44
635.598	1.39
635.785	1.35
635.972	1.35
636.159	1.37
636.346	1.35
636.533	1.32
636.72	1.33
636.907	1.35
637.094	1.35
637.281	1.29
637.468	1.33
637.655	1.34
637.842	1.28
638.029	1.28
638.215	1.32
638.402	1.28
638.589	1.28
638.776	1.28
638.963	1.24
639.149	1.3
639.336	1.31
639.523	1.28
639.709	1.25
639.896	1.22
640.083	1.3
640.27	1.27
640.456	1.21
640.643	1.24
640.829	1.18
641.016	1.21
641.203	1.17
641.389	1.22
641.576	1.21
641.762	1.2
641.949	1.15
642.135	1.21
642.322	1.17
642.508	1.12
642.695	1.16
642.881	1.14
643.068	1.14
643.254	1.15
643.441	1.19
643.627	1.16
643.813	1.06
644	1.14
644.186	1.07
644.372	1.16
644.559	1.13
644.745	1.13
644.931	1.07
645.118	1.09
645.304	1.12
645.49	1.1
645.676	1.03
645.862	1.06
646.049	1.13
646.235	1.03
646.421	1.19
646.607	1.13
646.793	1.01
646.979	1.02
647.165	1.05
647.352	1.06
647.538	1.06
647.724	1
647.91	1.02
648.096	1.05
648.282	1.04
648.468	0.99
648.654	1.03
648.84	1.01
649.026	0.97
649.212	0.97
649.397	0.99
649.583	0.95
649.769	0.97
649.955	1.02
650.141	0.97
650.327	1
650.513	0.88
650.698	0.98
650.884	0.89
651.07	1
651.256	0.98
651.442	0.92
651.627	0.91
651.813	0.96
651.999	0.9
652.184	0.94
652.37	0.9
652.556	0.88
652.741	0.94
652.927	0.83
653.113	0.83
653.298	0.9
653.484	0.89
653.669	0.8
653.855	0.89
654.04	0.95
654.226	0.87
654.412	0.88
654.597	0.82
654.782	0.88
654.968	0.89
655.153	0.87
655.339	0.84
655.524	0.82
655.71	0.87
655.895	0.83
656.08	0.81
656.266	0.85
656.451	0.8
656.636	0.81
656.822	0.8
657.007	0.79
657.192	0.81
657.378	0.78
657.563	0.82
657.748	0.84
657.933	0.8
658.118	0.79
658.304	0.75
658.489	0.79
658.674	0.77
658.859	0.73
659.044	0.79
659.229	0.8
659.414	0.75
659.599	0.76
659.785	0.73
659.97	0.73
660.155	0.78
660.34	0.77
660.525	0.72
660.71	0.74
660.895	0.8
661.08	0.69
661.264	0.67
661.449	0.78
661.634	0.76
661.819	0.74
662.004	0.77
662.189	0.62
662.374	0.72
662.559	0.67
662.743	0.65
662.928	0.68
663.113	0.63
663.298	0.64
663.483	0.66
663.667	0.7
663.852	0.64
664.037	0.73
664.221	0.62
664.406	0.7
664.591	0.66
664.775	0.69
664.96	0.68
665.145	0.64
665.329	0.69
665.514	0.65
665.698	0.63
665.883	0.57
666.068	0.7
666.252	0.63
666.437	0.59
666.621	0.63
666.806	0.61
666.99	0.64
667.174	0.58
667.359	0.63
667.543	0.58
667.728	0.6
667.912	0.54
668.096	0.63
668.281	0.62
668.465	0.6
668.649	0.61
668.834	0.57
669.018	0.59
669.202	0.59
669.387	0.55
669.571	0.64
669.755	0.5
669.939	0.59
670.124	0.58
670.308	0.61
670.492	0.61
670.676	0.62
670.86	0.53
671.044	0.47
671.228	0.59
671.413	0.5
671.597	0.53
671.781	0.55
671.965	0.57
672.149	0.57
672.333	0.59
672.517	0.52
672.701	0.55
672.885	0.55
673.069	0.45
673.253	0.55
673.437	0.53
673.621	0.48
673.804	0.54
673.988	0.52
674.172	0.49
674.356	0.47
674.54	0.49
674.724	0.63
674.908	0.52
675.091	0.59
675.275	0.49
675.459	0.55
675.643	0.51
675.826	0.54
676.01	0.53
676.194	0.47
676.377	0.52
676.561	0.53
676.745	0.57
676.928	0.54
677.112	0.55
677.296	0.46
677.479	0.44
677.663	0.47
677.846	0.51
678.03	0.49
678.213	0.46
678.397	0.5
678.58	0.44
678.764	0.47
678.947	0.43
679.131	0.44
679.314	0.49
679.498	0.46
679.681	0.46
679.865	0.49
680.048	0.42
680.231	0.41
680.415	0.42
680.598	0.48
680.781	0.41
680.965	0.43
681.148	0.43
681.331	0.41
681.514	0.47
681.698	0.41
681.881	0.42
682.064	0.45
682.247	0.45
682.43	0.39
682.614	0.44
682.797	0.5
682.98	0.48
683.163	0.39
683.346	0.42
683.529	0.44
683.712	0.38
683.895	0.42
684.078	0.37
684.261	0.35
684.444	0.41
684.627	0.45
684.81	0.35
684.993	0.4
685.176	0.41
685.359	0.36
685.542	0.32
685.725	0.45
685.908	0.41
686.091	0.37
686.274	0.4
686.457	0.41
686.639	0.41
686.822	0.41
687.005	0.39
687.188	0.41
687.371	0.5
687.553	0.43
687.736	0.39
687.919	0.49
688.102	0.39
688.284	0.31
688.467	0.38
688.65	0.39
688.832	0.32
689.015	0.35
689.197	0.28
689.38	0.45
689.563	0.45
689.745	0.29
689.928	0.32
690.11	0.37
690.293	0.39
690.475	0.24
690.658	0.36
690.84	0.3
691.023	0.36
691.205	0.3
691.388	0.34
691.57	0.39
691.752	0.37
691.935	0.28
692.117	0.37
692.3	0.35
692.482	0.3
692.664	0.32
692.847	0.35
693.029	0.37
693.211	0.36
693.393	0.29
693.576	0.29
693.758	0.29
693.94	0.28
694.122	0.3
694.304	0.32
694.487	0.23
694.669	0.35
694.851	0.29
695.033	0.31
695.215	0.33
695.397	0.26
695.579	0.31
695.761	0.28
695.943	0.23
696.125	0.38
696.308	0.27
696.49	0.19
696.671	0.45
696.853	0.27
697.035	0.41
697.217	0.33
697.399	0.36
697.581	0.22
697.763	0.31
697.945	0.21
698.127	0.33
698.309	0.32
698.491	0.27
698.672	0.27
698.854	0.33
699.036	0.41
699.218	0.3
699.399	0.39
699.581	0.34
699.763	0.27
699.945	0.26
700.126	0.22
700.308	0.32
700.49	0.24
700.671	0.24
700.853	0.2
701.035	0.26
701.216	0.25
701.398	0.25
701.579	0.27
701.761	0.3
701.943	0.24
702.124	0.23
702.306	0.27
702.487	0.42
702.669	0.28
702.85	0.17
703.031	0.19
703.213	0.36
703.394	0.35
703.576	0.26
703.757	0.36
703.938	0.29
704.12	0.36
704.301	0.23
704.483	0.21
704.664	0.23
704.845	0.38
705.026	0.29
705.208	0.26
705.389	0.27
705.57	0.29
705.751	0.23
705.933	0.29
706.114	0.38
706.295	0.28
706.476	0.25
706.657	0.29
706.838	0.27
707.02	0.28
707.201	0.17
707.382	0.2
707.563	0.31
707.744	0.24
707.925	0.16
708.106	0.24
708.287	0.26
708.468	0.3
708.649	0.19
708.83	0.29
709.011	0.23
709.192	0.3
709.373	0.18
709.554	0.17
709.734	0.29
709.915	0.33
710.096	0.18
710.277	0.05
710.458	0.22
710.639	0.28
710.819	0.2
711	0.21
711.181	0.31
711.362	0.27
711.542	0.23
711.723	0.26
711.904	0.23
712.085	0.24
712.265	0.21
712.446	0.14
712.627	0.16
712.807	0.22
712.988	0.22
713.168	0.14
713.349	0.24
713.53	0.05
713.71	0.08
713.891	0.19
714.071	0.12
714.252	0.12
714.432	0.17
714.613	0.13
714.793	0.19
714.974	0.28
715.154	0.26
715.334	0.31
715.515	0.32
715.695	0.17
715.876	0.16
716.056	0.16
716.236	0.12
716.417	0.16
716.597	0.14
716.777	0.34
716.957	0.19
717.138	0.21
717.318	0.2
717.498	0.09
717.678	0.19
717.859	0.17
718.039	0.17
718.219	0.25
718.399	0.22
718.579	0.14
718.759	0.08
718.939	0.21
719.12	0.2
719.3	0.2
719.48	0.04
719.66	-0.02
719.84	0.25
720.02	0.22
720.2	0.07
720.38	0.21
720.56	0.27
720.74	0.11
720.92	0.16
721.1	0.29
721.279	0.25
721.459	0.12
721.639	0.06
721.819	0.16
721.999	0.08
722.179	0.2
722.359	0.11
722.538	0.18
722.718	0.23
722.898	0.13
723.078	0.21
723.257	0.11
723.437	0.2
723.617	0.17
723.797	0.15
723.976	0.2
724.156	0.22
724.336	0.22
724.515	0.34
724.695	0.03
724.874	0.14
725.054	0.23
725.234	0.1
725.413	0.17
725.593	0.16
725.772	0.12
725.952	0.17
726.131	0.22
726.311	0.13
726.49	0.2
726.67	0.05
726.849	0.1
727.028	0.23
727.208	0.21
727.387	0.17
727.567	0.09
727.746	0.21
727.925	0.11
728.105	0.05
728.284	0.14
728.463	0.09
728.643	0.18
728.822	0.07
729.001	0.05
729.18	0.13
729.359	0.19
729.539	0.09
729.718	0.15
729.897	0.14
730.076	0.19
730.255	0.12
730.434	0.12
730.614	0.26
730.793	0.23
730.972	0.07
731.151	0.14
731.33	0.29
731.509	0.18
731.688	0.21
731.867	0.19
732.046	-0.01
732.225	0.39
732.404	0.17
732.583	0.06
732.762	0.19
732.941	0.26
733.12	0.13
733.298	0.11
733.477	0.18
733.656	0.17
733.835	0.04
734.014	0.21
734.193	0.1
734.371	0.32
734.55	0.24
734.729	0.01
734.908	0.18
735.086	0.2
735.265	0.31
735.444	0.06
735.623	0.09
735.801	0.15
735.98	0.16
736.159	0.15
736.337	0.26
736.516	0.16
736.694	0.13
736.873	0.16
737.052	0.37
737.23	0.31
737.409	0.05
737.587	0.38
737.766	-0.05
737.944	0.09
738.123	0.2
738.301	0.13
738.479	0.05
738.658	0.19
738.836	-0.04
739.015	0.17
739.193	0.3
739.371	0.02
739.55	0.1
739.728	-0.07
739.906	0.29
740.085	0.34
740.263	0.12
740.441	-0.11
740.62	0.38
740.798	0.16
740.976	-0.01
741.154	0.12
741.332	0.31
741.511	0
741.689	0.2
741.867	0.16
742.045	0.18
742.223	0.21
742.401	0.06
742.579	0.1
742.757	0.13
742.935	-0.01
743.114	0.16
743.292	0.21
743.47	0.04
743.648	0.14
743.826	0.14
744.004	0.15
744.181	0.27
744.359	0.03
744.537	0.12
744.715	0.08
744.893	0.15
745.071	0.11
745.249	0.1
745.427	0.08
745.605	0.17
745.782	0.12
745.96	0.16
746.138	0.24
746.316	0.21
746.493	0.15
746.671	0.1
746.849	0.12
747.027	0.24
747.204	0.03
747.382	0.19
747.56	-0.06
747.737	0.16
747.915	0.08
748.093	0.23
748.27	0.11
748.448	0.13
748.625	0.08
748.803	0
748.98	0.17
749.158	0.16
749.335	0.11
749.513	0.14
749.69	0.07
749.868	0.1
750.045	0.15
750.223	0.1
750.4	0.02
750.578	0.31
750.755	0.22
750.932	-0.06
751.11	0.19
751.287	0.03
751.464	0.22
751.642	0.04
751.819	0.17
751.996	0.09
752.173	0.1
752.351	0.02
752.528	0.12
752.705	0.12
752.882	0.11
753.06	0.17
753.237	0.21
753.414	0.24
753.591	0.41
753.768	0.22
753.945	-0
754.122	0.03
754.299	0.25
754.476	0.1
754.654	0.08
754.831	0.13
755.008	0.1
755.185	0.1
755.362	-0.03
755.539	0.21
755.716	0.06
755.892	0.17
756.069	0.05
756.246	0.06
756.423	0.14
756.6	0.18
756.777	0.11
756.954	0.19
757.131	0.08
757.307	0.04
757.484	-0.02
757.661	0.07
757.838	0.19
758.015	-0.04
758.191	0.2
758.368	0.08
758.545	0.39
758.721	0.08
758.898	0.02
759.075	0.22
759.251	0.21
759.428	0.21
759.605	-0.06
759.781	0.15
759.958	0.24
760.134	0.18
760.311	0.06
760.488	0.24
760.664	0.19
760.841	0.11
761.017	0.06
761.194	0.11
761.37	0.15
761.547	0.14
761.723	0.08
761.899	0.18
762.076	0.07
762.252	0.07
762.429	0.2
762.605	0.24
762.781	0.01
762.958	0.11
763.134	0.12
763.31	0.1
763.486	0.23
763.663	-0.05
763.839	0.04
764.015	-0.09
764.191	0.02
764.368	0.03
764.544	0.08
764.72	0.26
764.896	0.22
765.072	0.1
765.248	0.09
765.425	0.03
765.601	0.12
765.777	0.18
765.953	-0.1
766.129	0.11
766.305	-0.16
766.481	0.16
766.657	0.06
766.833	0.27
767.009	-0.11
767.185	0.11
767.361	0.11
767.537	-0.05
767.713	0.32
767.889	0.04
768.065	0.13
768.24	0.14
768.416	0.16
768.592	0.14
768.768	0.09
768.944	0.15
769.12	-0.01
769.295	0.03
769.471	0.08
769.647	0.12
769.823	0.29
769.998	0.2
770.174	0.04
770.35	0.45
770.525	0.38
770.701	0.13
770.877	0.14
771.052	0.06
771.228	0.05
771.403	0.07
771.579	0.21
771.755	0.44
771.93	0.12
772.106	0.08
772.281	-0.17
772.457	0.1
772.632	0.15
772.808	-0.08
772.983	-0.05
773.159	-0.13
773.334	0.42
773.509	0.11
773.685	0.03
773.86	0.49
774.036	0.36
774.211	0.07
774.386	0.08
774.562	0.12
774.737	0.12
774.912	-0.01
775.087	0.25
775.263	0.17
775.438	0.08
775.613	-0.09
775.788	0.1
775.964	0.21
776.139	0.42
776.314	0.04
776.489	0.12
776.664	0.11
776.839	0.01
777.014	0.2
777.19	0.19
777.365	0.41
777.54	0.43
777.715	0.13
777.89	0.16
778.065	-0.12
778.24	0.05
778.415	0.16
778.59	0.09
778.765	-0.06
778.94	0.08
779.115	0.1
779.289	0.01
779.464	0.13
779.639	0.08
779.814	-0.12
779.989	-0.04
780.164	0.11
780.339	0.25
780.513	0.04
780.688	0.06
780.863	0.07
781.038	0.11
781.212	-0.02
781.387	0.07
781.562	0.37
781.737	-0.01
781.911	0.35
782.086	0.09
782.261	0.09
782.435	0.32
782.61	-0.07
782.784	0.21
782.959	0.49
783.134	-0.07
783.308	-0.13
783.483	0.13
783.657	0.58
783.832	0.21
784.006	-0.34
784.181	0.08
784.355	0.24
784.53	-0.13
784.704	0.1
784.878	0.23
785.053	0.13
785.227	0.33
785.402	0.38
785.576	-0.06
785.75	0.13
785.925	0.16
786.099	0.03
786.273	0.25
786.448	0.23
786.622	0.31
786.796	0.02
786.97	0.19
787.145	0.69
787.319	-0.48
787.493	-0.05
787.667	-0.44
787.841	0.01
788.015	0.44
788.19	0.1
788.364	0.19
788.538	0.47
788.712	0.28
788.886	0.13
789.06	0.31
789.234	0.02
789.408	-0.09
789.582	0.02
789.756	0.05
789.93	-0.08
790.104	0.03
790.278	-0.11
790.452	-0.13
790.626	0.19
790.8	0.09
790.973	0.4
791.147	0.27
791.321	0.22
791.495	0.27
791.669	0.27
791.843	0.41
792.016	0.17
792.19	0.69
792.364	-0.29
792.538	0.73
792.711	0.12
792.885	0.08
793.059	-0.12
793.233	0.09
793.406	0.35
793.58	0.2
793.754	0.39
793.927	0.06
794.101	0.46
794.274	0.17
794.448	0.33
794.622	-0.05
794.795	0.56
794.969	0.2
795.142	0.35
795.316	-0.12
795.489	-0.01
795.663	0.39
795.836	0.24
796.009	0.07
796.183	0.5
796.356	0.43
796.53	0.24
796.703	0.04
796.876	0.74
797.05	0.12
797.223	0.05
797.396	0.21
797.57	0.22
797.743	0.19
797.916	0.15
798.09	0.08
798.263	0.33
798.436	0.2
798.609	0.07
798.782	0.02
798.956	0.01
799.129	0.12
799.302	-0
799.475	-0.1
799.648	0.07
799.821	-0.07
799.994	0.06
800.167	-0.38
800.34	0.07
800.514	0.31
800.687	-0.02
800.86	-0.13
801.033	0.15
801.206	0.42
801.379	0.1
801.551	0.74
801.724	0.23
801.897	0.63
802.07	-0.14
802.243	-0.31
802.416	0.07
802.589	0
802.762	0.26
802.935	0.01
803.107	0.56
803.28	0.47
803.453	0.26
803.626	0.16
803.798	-0.04
803.971	0
804.144	0.33
804.317	0.4
804.489	0.66
804.662	0.16
804.835	0.23
805.007	-0.11
805.18	0.39
805.353	0.07
805.525	-0.27
805.698	-0.09
805.87	0.43
806.043	0.5
806.215	-0.24
806.388	-0.19
806.56	0.48
806.733	0.54
806.905	0.29
807.078	0.16
807.25	0.03
807.423	0.25
807.595	0.1
807.768	0.33
807.94	0.46
808.112	0.58
808.285	0.43
808.457	0.02
808.629	0.18
808.802	0.24
808.974	0.37
809.146	0.07
809.318	-0.05
809.491	-0.01
809.663	0.49
809.835	0.04
810.007	0.45
810.18	0.14
810.352	-0.03
810.524	0.16
810.696	0.38
810.868	0.53
811.04	-0.1
811.212	0.26
811.384	0.49
811.556	-0.15
811.728	0.1
811.901	1.09
812.073	0.03
812.245	0.57
812.417	0.25
812.589	-0.02
812.76	0.37
812.932	0.43
813.104	0.04
813.276	0.25
813.448	0.76
813.62	0.14
813.792	0.17
813.964	0.37
814.136	0.17
814.307	-0.17
814.479	-0.07
814.651	0.26
814.823	0.92
814.995	0.11
815.166	0.29
815.338	-0.04
815.51	-0.28
815.681	1.04
815.853	0.47
816.025	0.42
816.196	0.51
816.368	0.66
816.54	-0.1
816.711	-0.11
816.883	0.61
817.054	1.36
817.226	-0.31
817.398	0.32
817.569	-0.18
817.741	0.11
817.912	0.19
818.084	-0.18
818.255	0.31
818.426	0.41
818.598	0.47
818.769	0.11
818.941	0.56
819.112	0.84
819.283	0.51
819.455	-0.41
819.626	-0.02
819.798	0.37
819.969	0.13
820.14	-0.09
820.311	-0.32
820.483	0.3
820.654	0.45
820.825	-0.09
820.996	-0.14
821.168	-0.06
821.339	-0.01
821.51	-0.3
821.681	0.39
821.852	0.17
822.023	-0.3
822.195	-0.17
822.366	0.71
822.537	0.16
822.708	0.79
822.879	-0.16
823.05	0.72
823.221	0.26
823.392	0.65
823.563	0.27
823.734	0.16
823.905	-0.01
824.076	-0.41
824.247	0.04
824.418	-0.17
824.589	0.65
824.759	-0.01
824.93	0.06
825.101	-0.97
825.272	0.48
825.443	1.14
825.614	1.09
825.784	-0.73
825.955	0.7
826.126	0.73
826.297	0.05
826.467	0.82
826.638	0.77
826.809	-0.06
826.98	0.19
827.15	0.28
827.321	0.11
827.492	0.95
827.662	0.45
827.833	1.62
828.003	0.8
828.174	-0.25
828.345	-0.99
828.515	0.36
828.686	0.14
828.856	-0.05
829.027	0.12
829.197	-0.15
829.368	0.22
829.538	0.21
829.709	0.01
829.879	0.7
830.049	0.3
830.22	-0.08
830.39	0.36
830.56	0.52
830.731	0.21
830.901	0.07
831.072	0.79
831.242	0.32
831.412	0.46
831.582	0.18
831.753	-0.07
831.923	0.54
832.093	0.61
832.263	-0.09
832.434	-0.46
832.604	-0.02
832.774	0.99
832.944	0.13
833.114	0.41
833.284	0.69
833.454	-0.75
833.624	-0.4
833.795	-0.31
833.965	1.07
834.135	1.01
834.305	-0.58
834.475	-0.31
834.645	0.23
834.815	-0.26
834.985	0.33
835.155	-0.04
835.325	0.91
835.494	0.56
835.664	0.09
835.834	-0.56
836.004	0.45
836.174	0.16
836.344	0.08
836.514	-0.67
836.684	0.37
836.853	0.26
837.023	0.5
837.193	-0.07
837.363	0.74
837.532	0.53
837.702	-0.07
837.872	-0.85
838.041	0.85
838.211	1.53
838.381	-0.47
838.55	0.1
838.72	1.81
838.89	1.39
839.059	-0.33
839.229	-0.17
839.398	1.34
839.568	0.61
839.738	0.09
839.907	1.14
840.077	0.32
840.246	-0.71
840.416	-0.38
840.585	-0.56
840.755	1.5
840.924	1.5
841.093	-0.58
841.263	-0.01
841.432	0.52
841.602	-1.01
841.771	0.1
841.94	0.2
842.11	1.55
842.279	1.44
842.448	-0.12
842.617	-0.44
842.787	1.34
842.956	-0.45
843.125	-0.04
843.294	0.63
843.464	0.82
843.633	0.72
843.802	-0.85
843.971	0.23
844.14	-0.5
844.309	0.82
844.479	-0.99
844.648	-0.51
844.817	0.17
844.986	0.27
845.155	-0.57
845.324	0.57
845.493	0.01
845.662	0.02
845.831	0.63
846	1.39
846.169	-0.24
846.338	1.56
846.507	0.42
846.676	0.29
846.844	-0.06
847.013	1.68
847.182	-0.08
847.351	-0.31
847.52	0.6
847.689	0.4
847.858	-0.61
848.026	0.23
848.195	0.48
848.364	0.22
848.533	0.36
848.701	-0.28
848.87	0.42
849.039	1.32
849.207	1.3
849.376	0.89
849.545	1.71
849.713	-0.54
849.882	0.31
850.051	0.27
850.219	0.5
850.388	0.78
850.556	-0.24
850.725	-0.89
850.893	0.69
851.062	0.12
851.23	1.36
851.399	-0.57
851.567	0.38
851.736	0.31
851.904	-0.97
852.073	-0.19
852.241	1.44
852.41	-0.02
852.578	0.17
852.746	-0.68
852.915	0.78
853.083	-0.63
853.251	-1.27
853.42	0.44
853.588	0.71
853.756	1.33
853.924	0.11
854.093	0.19
854.261	1.35
854.429	-1.93
854.597	1.08
854.765	-0.72
854.934	1.02
855.102	2.26
855.27	0.78
855.438	1.12
855.606	1.59
855.774	2.19
855.942	-1.1
856.11	-0.46
856.278	0.08
856.446	1.03
856.614	-1.32
856.782	0.25
856.95	2.14
857.118	0.29
857.286	0.18
857.454	-1.24
857.622	0.59
857.79	2.42
857.958	-0.13
858.126	-0.24
858.294	-1.81
858.462	0.37
858.629	-0.46
858.797	-0.92
858.965	1.24
859.133	0.06
859.301	-0.74
859.468	0.26
859.636	0.76
859.804	0.92
859.971	1.1
860.139	0.55
860.307	1.77
860.474	1.13
860.642	0.47
860.81	-0.47
860.977	0.02
861.145	2
861.313	0.31
861.48	0.64
861.648	1.79
861.815	0.76
861.983	-0.83
862.15	-0.16
862.318	0.85
862.485	2.3
862.653	-1
862.82	-1.11
862.988	3.89
863.155	2.21
863.322	-1.33
863.49	-1.03
863.657	-1.36
863.824	2.27
863.992	0.69
864.159	0.5
864.326	1.36
864.494	0.03
864.661	2.93
864.828	-0.91
864.996	1.96
865.163	1.79
865.33	-0.1
865.497	-1.34
865.664	-0.71
865.832	-0.62
865.999	-1.03
866.166	-0.76
866.333	-0.04
866.5	-0.01
866.667	-0.58
866.834	-0.1
867.001	2.39
867.168	-1.99
867.335	0.83
867.502	-1.02
867.669	0.97
867.836	2.78
868.003	0.27
868.17	0.82
868.337	-1.09
868.504	3.45
868.671	-1.59
868.838	-1.49
869.005	0.9
869.172	3.1
869.339	1.41
869.505	0.65
869.672	0.76
869.839	2.51
870.006	1
870.173	-2.28
870.339	-0.12
870.506	2.04
870.673	-0.82
870.84	1.61
871.006	0.61
871.173	0.61
871.34	1.66
871.506	-1.66
871.673	1.99
871.839	-1.09
872.006	0.97
872.173	-1.44
872.339	-0.38
872.506	3.52
872.672	-0.56
872.839	-1.78
873.005	-0.68
873.172	3.77
873.338	1.81
873.505	1.35
873.671	-0.65
873.838	2.07
874.004	-2.58
874.171	-0.08
874.337	-0.75
874.503	1.81
874.67	1.04
874.836	-0.29
875.002	3.17
875.169	3.57
875.335	2.05
875.501	0.99
875.668	1.91
875.834	1.3
876	-0.83
876.166	2.33
876.332	1.31
876.499	2.8
876.665	1.38
876.831	1.26
876.997	3.04
877.163	1.4
877.329	-0.62
877.495	1.41
877.662	2.37
877.828	1.82
877.994	0.28
878.16	-2.29
878.326	-1.33
878.492	1.63
878.658	-1.27
878.824	0.67
878.99	1.85
879.156	-0.74
879.322	3.1
879.487	-0.28
879.653	0.19
879.819	0.81
879.985	-0.57
880.151	0.69
880.317	1.82
880.483	-0.35
880.648	2.66
880.814	-2.96
880.98	0.04
881.146	-1.72
881.312	-2.43
881.477	0.42
881.643	0.51
881.809	2.83
881.974	2.64
882.14	-2.59
882.306	1.36
882.471	3.41
882.637	0.34
882.803	0.87
882.968	3.46
883.134	3.2
883.299	-0.46
883.465	0.34
883.63	0.92
883.796	0.9
883.961	1.83
884.127	0.54
884.292	-2.04
884.458	0.39
884.623	0.39
