Data from Apollo_Calib_20240827__AbsoluteIrradiance__615__09-24-01-758.txt Node

Date: Wed Aug 28 09:24:01 BST 2024
User: biology
Spectrometer: FLMT08252
Trigger mode: 0
Integration Time (sec): 5.000000E-1
Scans to average: 5
Electric dark correction enabled: true
Nonlinearity correction enabled: false
Boxcar width: 0
XAxis mode: Wavelengths
Number of Pixels in Spectrum: 3648
>>>>>Begin Spectral Data<<<<<
179.588	-0
179.809	-0
180.03	-0
180.251	-0
180.473	-0
180.694	0
180.915	0
181.136	-0
181.357	0
181.578	-0
181.799	-0
182.02	-0
182.241	-0
182.462	-0
182.683	0
182.904	-0
183.125	-0
183.346	0
183.567	0
183.788	-0
184.009	-0
184.23	0
184.451	-0
184.672	-0
184.892	-0
185.113	0
185.334	-0
185.555	-0
185.776	-0
185.996	-0
186.217	0
186.438	0
186.659	-0
186.879	-0
187.1	-0
187.321	-0
187.541	-0
187.762	-0
187.983	-0
188.203	0
188.424	0
188.644	-0
188.865	0
189.086	-0
189.306	-0
189.527	-0
189.747	0
189.968	-0
190.188	0
190.409	-0
190.629	0
190.849	-0
191.07	-0
191.29	0
191.511	0
191.731	-0
191.951	-0
192.172	-0
192.392	-0
192.612	-0
192.833	-0
193.053	0
193.273	0
193.493	-0
193.714	-0
193.934	0
194.154	0
194.374	-0
194.594	-0
194.815	-0
195.035	-0
195.255	-0
195.475	-0
195.695	0
195.915	0
196.135	-0
196.355	0
196.575	0
196.795	0
197.015	-0
197.235	-0
197.455	-0
197.675	0
197.895	-0
198.115	-0
198.335	-0
198.555	-0
198.775	0
198.995	0
199.214	0
199.434	0
199.654	-0
199.874	-0
200.094	0.42
200.313	-0.78
200.533	-1.1
200.753	-1.1
200.973	0.68
201.192	0.18
201.412	-1.3
201.632	-0.59
201.851	0.62
202.071	-0.97
202.291	-0.06
202.51	-1.16
202.73	0.34
202.95	-0.53
203.169	-0.51
203.389	0.07
203.608	0.34
203.828	-0.85
204.047	-0.9
204.267	0.18
204.486	0.02
204.706	0.1
204.925	-0.1
205.145	-0.62
205.364	0.11
205.583	0.48
205.803	-0.46
206.022	-0.34
206.242	-0.1
206.461	-0.09
206.68	-0.42
206.9	0.07
207.119	0.26
207.338	0.34
207.557	-0.08
207.777	-0.14
207.996	-0.46
208.215	0.36
208.434	-0.3
208.654	-0.62
208.873	0.18
209.092	0.02
209.311	-0.23
209.53	-0.48
209.749	-0.23
209.968	-0.19
210.187	-0.23
210.407	-0.59
210.626	-0.41
210.845	0.06
211.064	-0
211.283	-0.46
211.502	0.38
211.721	-0.08
211.94	-0.04
212.159	0.21
212.377	0.08
212.596	0.08
212.815	0.05
213.034	-0.16
213.253	0.21
213.472	0.14
213.691	-0.03
213.91	-0.37
214.128	-0.26
214.347	0.32
214.566	-0.48
214.785	-0.52
215.003	-0.03
215.222	-0
215.441	-0.22
215.66	-0.38
215.878	-0.23
216.097	0.25
216.316	-0.42
216.534	-0.21
216.753	0.01
216.972	-0.03
217.19	-0.17
217.409	-0.25
217.627	-0.25
217.846	-0.22
218.064	-0.09
218.283	-0.31
218.501	0.37
218.72	0.15
218.938	-0.4
219.157	-0.25
219.375	-0.06
219.594	0.11
219.812	-0.23
220.031	-0.26
220.249	0.25
220.467	0.16
220.686	-0.16
220.904	-0.31
221.122	-0.33
221.341	0.21
221.559	-0.06
221.777	-0.23
221.995	-0.16
222.214	-0.06
222.432	-0.19
222.65	0.05
222.868	0.05
223.086	-0.01
223.305	-0.02
223.523	-0.04
223.741	0.09
223.959	-0.31
224.177	-0.3
224.395	-0.06
224.613	-0.12
224.831	0.1
225.049	-0.13
225.267	-0.12
225.485	-0
225.703	-0.11
225.921	-0.16
226.139	-0.08
226.357	0.1
226.575	0.08
226.793	-0.13
227.011	0.47
227.229	-0.01
227.447	-0.11
227.665	-0.22
227.883	-0.31
228.1	-0.02
228.318	-0.02
228.536	-0.35
228.754	-0.28
228.972	0.15
229.189	0.07
229.407	-0.15
229.625	-0.16
229.843	0.03
230.06	-0.02
230.278	-0.2
230.496	-0.06
230.713	-0.05
230.931	0.07
231.149	-0.13
231.366	-0.27
231.584	-0.12
231.801	0.22
232.019	-0.15
232.236	-0.25
232.454	-0.12
232.671	0.02
232.889	-0.03
233.106	-0.13
233.324	-0.18
233.541	-0.05
233.759	-0.02
233.976	-0.15
234.194	-0.05
234.411	-0.15
234.628	-0.18
234.846	-0.13
235.063	-0.15
235.28	-0.05
235.498	-0.02
235.715	-0.23
235.932	0.04
236.149	0.01
236.367	-0.04
236.584	-0.08
236.801	-0.13
237.018	0.13
237.236	-0.1
237.453	-0.23
237.67	0.12
237.887	-0.08
238.104	-0.11
238.321	-0.13
238.538	-0.14
238.755	0.1
238.973	-0.33
239.19	-0.04
239.407	0.03
239.624	-0
239.841	-0.2
240.058	-0.27
240.275	-0.06
240.492	-0.11
240.709	-0.02
240.925	-0.1
241.142	-0.08
241.359	-0.17
241.576	-0.13
241.793	-0.02
242.01	-0.09
242.227	0.01
242.444	0.01
242.66	0.09
242.877	-0
243.094	-0.12
243.311	-0.02
243.527	-0.1
243.744	0.05
243.961	-0.01
244.178	-0.14
244.394	-0.08
244.611	0.09
244.828	0.13
245.044	-0.12
245.261	-0.08
245.477	-0.05
245.694	-0.01
245.911	-0.02
246.127	0
246.344	0.14
246.56	0.01
246.777	-0.08
246.993	0
247.21	-0.01
247.426	0.01
247.643	-0.05
247.859	-0.12
248.076	0.01
248.292	0.15
248.508	-0.11
248.725	0.07
248.941	-0.05
249.157	0.07
249.374	-0.09
249.59	-0.04
249.806	-0.05
250.023	0.04
250.239	-0.06
250.455	-0.12
250.671	-0.03
250.888	-0.01
251.104	0.01
251.32	-0.1
251.536	-0.1
251.752	-0.08
251.969	0.03
252.185	-0.1
252.401	0.1
252.617	0.09
252.833	-0.15
253.049	-0.07
253.265	-0.03
253.481	-0.01
253.697	-0.08
253.913	-0.1
254.129	0
254.345	0.01
254.561	-0.11
254.777	0.05
254.993	0.01
255.209	0.02
255.425	-0.03
255.641	-0.08
255.857	0.04
256.073	-0.11
256.288	-0.16
256.504	-0.05
256.72	-0.06
256.936	0.11
257.152	-0.06
257.367	-0.06
257.583	-0.05
257.799	0.01
258.015	-0.1
258.23	-0.06
258.446	0.07
258.662	-0.1
258.877	-0.05
259.093	-0.09
259.309	-0.05
259.524	0.05
259.74	-0.07
259.955	-0.12
260.171	-0.02
260.387	-0.07
260.602	0.01
260.818	0.03
261.033	-0.06
261.249	-0.1
261.464	-0.09
261.68	-0.12
261.895	-0.1
262.11	0.05
262.326	-0.11
262.541	-0.11
262.757	-0.01
262.972	-0.04
263.187	-0.03
263.403	-0.03
263.618	-0.06
263.833	0.03
264.049	-0.08
264.264	-0.05
264.479	0.05
264.694	0.08
264.91	-0.18
265.125	-0.03
265.34	-0.02
265.555	0.13
265.77	0.06
265.986	-0.03
266.201	0.05
266.416	0.1
266.631	-0.07
266.846	-0.06
267.061	0.05
267.276	0.03
267.491	-0.15
267.706	-0
267.921	0.03
268.136	0.01
268.351	-0.11
268.566	-0.11
268.781	-0.02
268.996	-0.01
269.211	-0.02
269.426	-0.12
269.641	-0.03
269.856	0.06
270.071	-0.09
270.285	-0.07
270.5	0.04
270.715	-0
270.93	-0.01
271.145	-0.04
271.359	-0
271.574	-0.05
271.789	-0.04
272.004	-0.07
272.218	-0.08
272.433	0.01
272.648	-0.09
272.862	0.02
273.077	-0.01
273.292	-0.08
273.506	-0.07
273.721	-0.07
273.936	-0.04
274.15	0.04
274.365	-0.04
274.579	-0.06
274.794	-0.02
275.008	0.05
275.223	-0.09
275.437	-0.07
275.652	0.02
275.866	-0.02
276.081	-0.01
276.295	0.05
276.509	-0
276.724	-0.05
276.938	-0.05
277.153	0.02
277.367	-0.02
277.581	-0.04
277.796	-0.05
278.01	-0.11
278.224	-0.01
278.438	0.09
278.653	-0.09
278.867	-0.06
279.081	0.02
279.295	-0.02
279.51	0.01
279.724	-0.1
279.938	0
280.152	-0.03
280.366	-0.08
280.58	-0
280.794	0.05
281.008	0.04
281.222	0.02
281.437	0.12
281.651	-0.02
281.865	0.06
282.079	-0.06
282.293	-0.15
282.507	-0.11
282.721	-0.04
282.935	-0.06
283.148	-0.1
283.362	-0.07
283.576	-0.06
283.79	0.02
284.004	-0.13
284.218	-0.04
284.432	-0.03
284.646	-0.04
284.859	0
285.073	0.03
285.287	0.04
285.501	-0.05
285.714	-0.05
285.928	-0.03
286.142	0.01
286.356	-0.02
286.569	-0.06
286.783	0.04
286.997	0.03
287.21	0.02
287.424	-0.01
287.637	0.01
287.851	-0.05
288.065	0
288.278	0
288.492	0.01
288.705	-0.01
288.919	0.03
289.132	-0.08
289.346	0.05
289.559	-0.07
289.773	-0.03
289.986	-0.02
290.2	-0.03
290.413	0.02
290.626	-0.03
290.84	-0.02
291.053	-0.02
291.267	0.04
291.48	0
291.693	-0.01
291.906	-0.04
292.12	-0.06
292.333	-0.06
292.546	-0
292.76	0.03
292.973	0.04
293.186	0.01
293.399	-0.01
293.612	0.03
293.826	-0.04
294.039	0.01
294.252	-0.04
294.465	-0.01
294.678	0
294.891	-0.02
295.104	-0.05
295.317	-0.03
295.53	0.01
295.743	-0.02
295.956	-0.02
296.169	0.02
296.382	0.03
296.595	0
296.808	-0.07
297.021	0.01
297.234	0
297.447	-0.06
297.66	0.02
297.873	0.01
298.086	0.02
298.299	-0.02
298.511	-0.06
298.724	-0.05
298.937	-0.07
299.15	-0.05
299.363	0.02
299.575	0.04
299.788	0.03
300.001	0
300.213	-0.03
300.426	-0.05
300.639	-0.01
300.852	-0.07
301.064	0.04
301.277	0.07
301.489	0.01
301.702	-0.01
301.915	-0
302.127	-0.01
302.34	0
302.552	0
302.765	-0.05
302.977	0.03
303.19	-0.02
303.402	-0.06
303.615	-0
303.827	-0.01
304.04	-0.05
304.252	0.02
304.464	-0
304.677	0.04
304.889	0.01
305.102	-0.01
305.314	-0.03
305.526	0.02
305.739	0.03
305.951	-0.03
306.163	-0.03
306.375	0.05
306.588	-0.05
306.8	-0.02
307.012	-0.08
307.224	0.02
307.436	0.01
307.649	-0.1
307.861	0
308.073	-0.04
308.285	-0.01
308.497	-0.06
308.709	0.01
308.921	0
309.133	-0.02
309.346	-0.03
309.558	0.02
309.77	0
309.982	0.04
310.194	-0
310.406	-0.05
310.617	0.09
310.829	0.01
311.041	-0.02
311.253	-0.03
311.465	-0.04
311.677	0
311.889	0
312.101	-0.05
312.313	0.04
312.524	0.04
312.736	-0.04
312.948	0
313.16	0.08
313.372	0.03
313.583	0.05
313.795	-0.03
314.007	-0.05
314.218	0.05
314.43	-0.03
314.642	-0.03
314.853	-0.02
315.065	0
315.277	0.01
315.488	0.01
315.7	-0.01
315.912	0.03
316.123	-0.01
316.335	-0.01
316.546	0.12
316.758	-0.04
316.969	-0.03
317.181	-0.01
317.392	0
317.604	0.05
317.815	-0.02
318.026	-0.05
318.238	0.01
318.449	0
318.661	-0.1
318.872	-0.07
319.083	-0.03
319.295	-0.01
319.506	-0.02
319.717	0.01
319.929	-0
320.14	-0.02
320.351	0
320.562	0
320.774	-0.01
320.985	-0.01
321.196	-0.04
321.407	-0.1
321.618	0.03
321.829	0.03
322.041	0.02
322.252	0.03
322.463	0.02
322.674	-0.06
322.885	-0.07
323.096	-0.04
323.307	-0.05
323.518	-0.02
323.729	-0.08
323.94	0
324.151	-0.02
324.362	0.01
324.573	0.04
324.784	-0.06
324.995	0.07
325.206	0.02
325.417	-0.03
325.628	0.01
325.838	-0.01
326.049	0
326.26	0.03
326.471	-0.03
326.682	-0.02
326.892	0.01
327.103	-0.08
327.314	-0.04
327.525	0.02
327.735	0.01
327.946	-0.03
328.157	-0.05
328.368	-0.01
328.578	-0.04
328.789	-0.01
328.999	-0.02
329.21	-0.05
329.421	0
329.631	-0.06
329.842	-0.02
330.052	0.06
330.263	-0.03
330.473	-0.02
330.684	-0.01
330.894	-0.05
331.105	-0.03
331.315	-0.01
331.526	-0.09
331.736	0.1
331.947	0
332.157	-0.01
332.367	-0.06
332.578	0.08
332.788	0.02
332.999	0.07
333.209	-0
333.419	-0.06
333.629	0.01
333.84	-0.01
334.05	-0
334.26	0.02
334.47	-0.04
334.681	0.03
334.891	-0.01
335.101	0.03
335.311	0.12
335.521	-0.01
335.732	-0.09
335.942	0.05
336.152	0.02
336.362	-0.02
336.572	-0.03
336.782	-0.01
336.992	-0.03
337.202	-0.03
337.412	-0.05
337.622	0.02
337.832	-0
338.042	-0.01
338.252	-0.01
338.462	-0.04
338.672	-0.01
338.882	-0.03
339.092	-0.02
339.302	0.05
339.511	0.02
339.721	-0.04
339.931	-0.06
340.141	0.01
340.351	0.07
340.561	0.04
340.77	-0.02
340.98	-0.01
341.19	0.03
341.4	-0.05
341.609	-0.07
341.819	-0.05
342.029	-0.03
342.238	-0.03
342.448	-0.02
342.658	0.04
342.867	-0.03
343.077	-0.01
343.286	0.02
343.496	-0.03
343.706	0.03
343.915	-0.08
344.125	-0.04
344.334	0.01
344.544	-0.1
344.753	-0.04
344.963	-0.04
345.172	-0.05
345.381	-0.04
345.591	-0.03
345.8	0.02
346.01	0.06
346.219	0.05
346.428	-0.16
346.638	-0
346.847	-0.05
347.056	0.05
347.266	-0.02
347.475	-0.05
347.684	0.01
347.893	0.02
348.103	-0
348.312	-0.03
348.521	-0.03
348.73	0.01
348.94	0.01
349.149	-0.05
349.358	-0.02
349.567	-0
349.776	-0.08
349.985	-0.01
350.194	0.01
350.403	0.01
350.612	-0.03
350.821	-0.03
351.03	-0.02
351.239	-0.08
351.448	-0.01
351.657	-0.04
351.866	0.04
352.075	-0.05
352.284	0.03
352.493	-0.05
352.702	0.03
352.911	0.01
353.12	0.02
353.329	-0.03
353.538	0.01
353.746	0.01
353.955	-0.01
354.164	0.02
354.373	-0.01
354.582	-0.01
354.79	-0.01
354.999	0.07
355.208	-0.03
355.416	0.02
355.625	-0.05
355.834	-0.03
356.042	0.02
356.251	0.01
356.46	-0.02
356.668	-0.03
356.877	0.07
357.085	0.03
357.294	-0.09
357.503	0.03
357.711	0.01
357.92	0.11
358.128	-0.01
358.337	-0.01
358.545	-0
358.754	-0.03
358.962	0.01
359.17	-0.03
359.379	-0.02
359.587	0.02
359.796	-0.01
360.004	0.05
360.212	-0
360.421	0.03
360.629	-0.05
360.837	-0.04
361.046	-0.01
361.254	0.07
361.462	-0.02
361.67	-0.03
361.879	0.02
362.087	0.06
362.295	-0.02
362.503	-0.04
362.711	-0.04
362.92	-0.08
363.128	0
363.336	-0.05
363.544	-0.04
363.752	-0.03
363.96	-0.02
364.168	-0.06
364.376	0
364.584	-0.02
364.792	0.05
365	0
365.208	-0.03
365.416	0.03
365.624	0.05
365.832	-0.03
366.04	0.02
366.248	-0.03
366.456	-0.03
366.664	0.02
366.872	-0
367.079	-0.05
367.287	-0.02
367.495	0.01
367.703	-0.01
367.911	-0.04
368.118	-0.05
368.326	-0.03
368.534	-0.04
368.742	0.03
368.949	-0.06
369.157	-0.03
369.365	-0.02
369.572	-0.02
369.78	-0.03
369.988	-0.01
370.195	0.02
370.403	0.02
370.61	-0.02
370.818	0.04
371.026	0.06
371.233	-0.04
371.441	0.01
371.648	-0.04
371.856	0.01
372.063	-0.02
372.271	-0
372.478	-0.04
372.685	-0.02
372.893	0.02
373.1	-0.04
373.308	-0.03
373.515	0.03
373.722	0.01
373.93	-0.02
374.137	-0
374.344	0.04
374.552	-0.01
374.759	0.01
374.966	-0.05
375.173	-0.02
375.381	0.03
375.588	-0.02
375.795	-0.1
376.002	-0.03
376.209	-0.03
376.417	-0.01
376.624	0.01
376.831	-0.01
377.038	-0.05
377.245	-0.09
377.452	-0.01
377.659	-0.05
377.866	-0.06
378.073	-0.06
378.28	-0.03
378.487	0.03
378.694	0.01
378.901	-0.03
379.108	0.01
379.315	0.02
379.522	0.07
379.729	0.01
379.936	-0.03
380.143	-0
380.35	0.03
380.557	0.02
380.763	-0
380.97	-0.01
381.177	-0
381.384	0.01
381.591	-0.04
381.797	-0.05
382.004	0.01
382.211	-0.02
382.418	-0.06
382.624	-0.02
382.831	0.07
383.038	-0.04
383.244	0.02
383.451	-0.03
383.658	0.01
383.864	-0.03
384.071	-0.02
384.277	0.05
384.484	-0.03
384.69	0.04
384.897	-0.01
385.103	-0.02
385.31	-0.04
385.516	-0.05
385.723	-0.03
385.929	0.02
386.136	-0.06
386.342	-0
386.549	-0.01
386.755	0
386.961	0
387.168	-0.02
387.374	-0.02
387.58	0.01
387.787	-0.02
387.993	-0.03
388.199	0
388.406	-0.04
388.612	-0.02
388.818	-0.03
389.024	-0.04
389.231	-0.02
389.437	0.08
389.643	0.01
389.849	-0.01
390.055	-0.03
390.261	0.01
390.467	-0.02
390.674	-0.06
390.88	-0.03
391.086	0.01
391.292	-0.03
391.498	-0.04
391.704	0
391.91	-0.01
392.116	-0.03
392.322	-0.1
392.528	-0.01
392.734	-0.06
392.94	0.02
393.146	-0.04
393.352	-0.01
393.557	-0.02
393.763	-0.03
393.969	0.01
394.175	-0.01
394.381	-0.01
394.587	-0.05
394.792	-0.04
394.998	0.04
395.204	0.04
395.41	-0.01
395.615	-0.01
395.821	0.02
396.027	0.02
396.233	-0.03
396.438	-0.04
396.644	0.04
396.85	0.05
397.055	-0.05
397.261	-0.03
397.466	-0.03
397.672	0
397.878	-0.01
398.083	0.03
398.289	-0.07
398.494	0.04
398.7	0.01
398.905	-0.1
399.111	-0.01
399.316	-0.05
399.522	0.01
399.727	-0.01
399.932	-0.07
400.138	-0.07
400.343	0.03
400.549	0
400.754	0.01
400.959	0.04
401.165	-0.01
401.37	0.01
401.575	0.1
401.78	-0
401.986	-0.07
402.191	-0.04
402.396	-0.04
402.601	-0.01
402.807	-0.03
403.012	-0.02
403.217	0.05
403.422	-0.02
403.627	-0.03
403.832	-0.03
404.037	-0
404.243	0.01
404.448	-0.02
404.653	-0.02
404.858	0.03
405.063	0.02
405.268	-0.03
405.473	-0.06
405.678	-0.03
405.883	0.12
406.088	0.03
406.293	-0.09
406.498	-0.07
406.703	0.03
406.907	-0.01
407.112	-0.05
407.317	-0.01
407.522	0.01
407.727	-0.09
407.932	-0.01
408.136	0.06
408.341	-0
408.546	0.02
408.751	0.03
408.956	-0.05
409.16	0.02
409.365	-0.01
409.57	-0.06
409.774	-0.02
409.979	0.05
410.184	-0.03
410.388	-0.05
410.593	0.04
410.798	-0.01
411.002	-0.01
411.207	0.04
411.411	-0.01
411.616	-0.06
411.82	-0
412.025	0.04
412.229	-0.05
412.434	0.05
412.638	-0.02
412.843	-0.01
413.047	-0.02
413.252	-0.08
413.456	-0.04
413.66	0.01
413.865	-0.06
414.069	0.04
414.273	-0.08
414.478	-0.06
414.682	-0.01
414.886	-0.05
415.091	-0.05
415.295	-0.12
415.499	-0.01
415.703	-0.06
415.908	0.01
416.112	-0.09
416.316	-0.04
416.52	-0.06
416.724	-0.11
416.929	-0.07
417.133	0.06
417.337	-0.06
417.541	-0.04
417.745	-0.02
417.949	-0.01
418.153	0.01
418.357	-0.07
418.561	-0.01
418.765	0
418.969	0.08
419.173	-0.01
419.377	-0.05
419.581	0.02
419.785	-0.03
419.989	-0.09
420.193	-0.08
420.397	-0.07
420.601	0
420.804	0.02
421.008	-0
421.212	-0.06
421.416	0.01
421.62	-0.03
421.823	-0.03
422.027	0.04
422.231	-0.03
422.435	-0.04
422.638	0.02
422.842	-0.01
423.046	-0.07
423.249	-0.01
423.453	0.02
423.657	0.05
423.86	-0.06
424.064	-0.01
424.268	0.04
424.471	-0.03
424.675	0.04
424.878	0.02
425.082	-0.01
425.285	0.02
425.489	-0.06
425.692	0
425.896	-0.08
426.099	-0.01
426.303	-0.06
426.506	-0.08
426.71	0.01
426.913	0.06
427.116	0.06
427.32	-0.06
427.523	-0.03
427.726	0.06
427.93	-0.06
428.133	-0
428.336	-0.03
428.54	-0.07
428.743	0.02
428.946	-0.01
429.149	-0.04
429.353	-0.02
429.556	-0.08
429.759	0.02
429.962	-0.02
430.165	-0.03
430.368	-0.07
430.571	-0.06
430.775	0
430.978	-0.06
431.181	0.01
431.384	-0.01
431.587	-0.04
431.79	-0.05
431.993	-0.09
432.196	-0.03
432.399	-0.01
432.602	0.02
432.805	-0.02
433.008	-0.02
433.211	-0.09
433.414	0.04
433.616	0.03
433.819	-0.03
434.022	-0.08
434.225	0.08
434.428	0.03
434.631	0.07
434.833	-0.03
435.036	-0.07
435.239	-0.01
435.442	0.02
435.645	-0.03
435.847	0
436.05	-0
436.253	-0.07
436.455	-0.05
436.658	-0
436.861	0.03
437.063	-0.01
437.266	-0.05
437.468	-0.02
437.671	0.11
437.874	-0.05
438.076	-0.09
438.279	-0.02
438.481	-0.04
438.684	-0.07
438.886	-0.01
439.089	-0.07
439.291	-0.02
439.494	-0.01
439.696	-0.05
439.899	-0.03
440.101	0.01
440.303	-0.13
440.506	0.05
440.708	-0.01
440.91	-0.02
441.113	-0.03
441.315	0.02
441.517	-0.08
441.72	-0
441.922	-0.08
442.124	-0.07
442.326	0.02
442.529	0.03
442.731	-0.02
442.933	0.09
443.135	-0.01
443.337	-0.05
443.539	0.01
443.742	-0.03
443.944	-0.02
444.146	-0.03
444.348	-0.06
444.55	-0.08
444.752	0
444.954	-0.01
445.156	-0.01
445.358	-0.02
445.56	0.07
445.762	-0.01
445.964	-0.06
446.166	-0.02
446.368	-0.08
446.57	0.02
446.772	0
446.974	-0.05
447.175	0.02
447.377	-0.02
447.579	-0.02
447.781	-0.1
447.983	0.03
448.184	-0.07
448.386	-0.04
448.588	-0.14
448.79	-0.01
448.991	-0.04
449.193	-0
449.395	-0.04
449.597	0.01
449.798	-0.02
450	0.03
450.202	-0.02
450.403	-0.02
450.605	0
450.806	-0.01
451.008	-0.09
451.21	0.01
451.411	-0.01
451.613	-0.02
451.814	-0.01
452.016	-0.02
452.217	0
452.419	0.06
452.62	0.01
452.821	-0
453.023	0.02
453.224	0.02
453.426	-0.04
453.627	0.01
453.828	-0.01
454.03	-0.05
454.231	0.02
454.432	-0.06
454.634	0.02
454.835	-0.05
455.036	-0.08
455.238	0
455.439	0.06
455.64	-0.06
455.841	-0.05
456.042	0.08
456.244	-0.01
456.445	-0.01
456.646	-0.06
456.847	-0.04
457.048	0.02
457.249	0.02
457.45	0.21
457.651	-0.08
457.852	0
458.054	0.01
458.255	-0.03
458.456	0.02
458.657	-0.01
458.858	-0.04
459.058	-0.02
459.259	0.02
459.46	-0.04
459.661	-0.05
459.862	0.1
460.063	-0.05
460.264	0.07
460.465	-0.04
460.666	0.1
460.866	-0
461.067	-0.04
461.268	-0
461.469	-0.07
461.67	-0.03
461.87	-0
462.071	-0.02
462.272	-0.05
462.473	-0.04
462.673	0
462.874	-0.04
463.075	0.01
463.275	-0.04
463.476	-0.05
463.676	-0
463.877	-0.03
464.078	-0.05
464.278	0.04
464.479	-0.03
464.679	0.02
464.88	-0.05
465.08	0.05
465.281	-0.04
465.481	-0.09
465.682	0.01
465.882	0.02
466.083	-0.01
466.283	-0.04
466.483	0
466.684	-0.06
466.884	-0.06
467.085	-0.05
467.285	0.04
467.485	-0.03
467.686	-0.03
467.886	-0.09
468.086	-0.03
468.286	-0.03
468.487	-0.02
468.687	-0.06
468.887	-0.04
469.087	0.03
469.287	-0
469.488	-0.06
469.688	-0.04
469.888	0
470.088	0.03
470.288	0.02
470.488	0
470.688	-0.01
470.888	-0.05
471.088	-0.02
471.288	0.04
471.488	-0.01
471.688	-0.01
471.888	-0.03
472.088	0.02
472.288	-0.01
472.488	-0.05
472.688	-0.05
472.888	-0.02
473.088	0
473.288	-0.03
473.488	-0.01
473.688	0.07
473.887	-0.02
474.087	-0.04
474.287	-0
474.487	-0.03
474.687	0
474.886	-0.05
475.086	-0.04
475.286	0.02
475.486	-0.02
475.685	-0.01
475.885	-0.03
476.085	-0.01
476.284	0.02
476.484	-0.03
476.684	0.01
476.883	0.04
477.083	-0.01
477.282	-0.04
477.482	0.03
477.681	0.04
477.881	-0.01
478.08	0
478.28	-0.01
478.479	-0.01
478.679	0.05
478.878	-0.05
479.078	-0.02
479.277	-0.03
479.477	-0.03
479.676	0.06
479.875	-0.03
480.075	-0.04
480.274	0.02
480.473	0
480.673	-0.02
480.872	0.01
481.071	0
481.271	-0.01
481.47	-0.02
481.669	-0.02
481.868	-0.05
482.067	-0.05
482.267	-0.02
482.466	-0.01
482.665	-0.05
482.864	-0.04
483.063	-0.03
483.262	0
483.461	0.04
483.661	0.02
483.86	-0.01
484.059	-0.04
484.258	-0.03
484.457	-0.03
484.656	-0.02
484.855	0.03
485.054	-0.01
485.253	-0.04
485.452	-0.07
485.651	-0.02
485.849	-0.01
486.048	-0.03
486.247	-0.05
486.446	-0.02
486.645	-0.03
486.844	-0.04
487.043	-0
487.241	-0.01
487.44	-0.06
487.639	-0.01
487.838	0.02
488.037	-0.01
488.235	0.04
488.434	-0.01
488.633	-0.05
488.831	0
489.03	0.02
489.229	-0
489.427	-0.01
489.626	0
489.825	0.02
490.023	-0.02
490.222	-0.02
490.42	0.01
490.619	0.03
490.817	0
491.016	-0.03
491.214	0.03
491.413	-0.02
491.611	-0.04
491.81	-0.03
492.008	-0.02
492.207	0.02
492.405	0.01
492.604	-0.05
492.802	-0.02
493	-0.03
493.199	-0.06
493.397	-0.02
493.595	-0.02
493.794	-0.01
493.992	0.02
494.19	-0.02
494.388	-0
494.587	-0.02
494.785	0.01
494.983	-0.04
495.181	-0.02
495.379	-0.02
495.578	-0.01
495.776	-0
495.974	0.01
496.172	-0.02
496.37	-0.02
496.568	-0.02
496.766	-0.02
496.964	0.01
497.162	-0.02
497.36	-0.04
497.558	0.02
497.756	0.01
497.954	-0.03
498.152	-0.03
498.35	0.01
498.548	-0.02
498.746	-0.02
498.944	-0.03
499.142	-0.01
499.34	-0.03
499.538	-0.02
499.736	-0.02
499.933	0.01
500.131	0.02
500.329	-0.01
500.527	0.01
500.725	-0
500.922	0
501.12	0.01
501.318	0.01
501.516	-0.03
501.713	-0.02
501.911	-0.02
502.109	-0.04
502.306	-0
502.504	-0.02
502.701	-0.03
502.899	-0.01
503.097	0.02
503.294	-0.03
503.492	-0.03
503.689	0
503.887	0.02
504.084	0.02
504.282	-0.02
504.479	-0.05
504.677	-0
504.874	-0.03
505.072	-0.02
505.269	-0.04
505.466	-0.01
505.664	-0.01
505.861	-0.05
506.059	-0.04
506.256	0.01
506.453	0.01
506.651	-0
506.848	0
507.045	-0.01
507.242	0.01
507.44	-0.03
507.637	-0.02
507.834	-0.03
508.031	0.01
508.229	-0.01
508.426	-0.01
508.623	0.02
508.82	-0.04
509.017	-0.05
509.214	-0.01
509.411	-0
509.608	0
509.805	-0.02
510.003	-0.01
510.2	-0.02
510.397	0.01
510.594	-0.03
510.791	-0.02
510.988	-0.02
511.184	0.03
511.381	-0.01
511.578	-0.04
511.775	0.01
511.972	-0.04
512.169	-0.02
512.366	-0.02
512.563	0
512.76	-0.02
512.956	0.05
513.153	-0.02
513.35	-0.01
513.547	-0.01
513.744	-0.02
513.94	-0.04
514.137	-0.02
514.334	-0.03
514.53	-0
514.727	-0.01
514.924	0.05
515.12	-0.01
515.317	-0.04
515.514	-0.02
515.71	-0.04
515.907	-0.02
516.103	-0.02
516.3	-0
516.497	-0
516.693	0.03
516.89	0
517.086	-0.04
517.283	0.04
517.479	-0
517.676	-0.01
517.872	-0.01
518.068	-0.02
518.265	-0.03
518.461	-0.04
518.658	-0.02
518.854	-0.01
519.05	-0.04
519.247	-0.04
519.443	0
519.639	-0.01
519.836	-0.02
520.032	-0
520.228	-0
520.424	0.03
520.621	0.01
520.817	-0.01
521.013	-0.01
521.209	-0.01
521.405	0.04
521.601	-0
521.798	-0.01
521.994	0.02
522.19	-0.01
522.386	-0.03
522.582	-0
522.778	-0
522.974	-0.04
523.17	-0.01
523.366	-0.01
523.562	0.01
523.758	-0
523.954	-0.02
524.15	-0.03
524.346	0.03
524.542	-0.02
524.738	-0.03
524.934	-0.01
525.129	-0.01
525.325	-0.02
525.521	-0
525.717	0.01
525.913	-0.02
526.109	-0
526.304	-0.02
526.5	0.01
526.696	0
526.892	-0.01
527.087	-0.02
527.283	-0.03
527.479	-0.01
527.674	-0.02
527.87	-0
528.066	-0.02
528.261	-0.01
528.457	-0
528.653	-0.02
528.848	-0.01
529.044	-0.02
529.239	-0.02
529.435	0.02
529.63	0
529.826	0.02
530.021	-0
530.217	0.01
530.412	-0.03
530.608	-0.03
530.803	-0
530.999	-0.03
531.194	-0.03
531.389	-0.01
531.585	-0.05
531.78	-0
531.975	-0.01
532.171	0.02
532.366	0
532.561	-0.01
532.757	-0.03
532.952	-0.02
533.147	-0
533.342	-0.02
533.538	-0.05
533.733	0.03
533.928	-0.02
534.123	-0.01
534.318	-0.02
534.513	-0.03
534.709	-0.02
534.904	-0.02
535.099	-0.03
535.294	0
535.489	-0.02
535.684	-0.02
535.879	-0.04
536.074	-0.01
536.269	-0.03
536.464	-0.01
536.659	-0.03
536.854	-0.01
537.049	-0.01
537.244	-0.02
537.439	-0.04
537.634	0.03
537.828	0.02
538.023	-0.01
538.218	-0.05
538.413	-0.02
538.608	-0.03
538.803	-0.01
538.997	-0.05
539.192	0.01
539.387	0
539.582	-0.01
539.776	0
539.971	-0.02
540.166	-0.01
540.36	-0.05
540.555	0
540.75	-0.02
540.944	-0.02
541.139	-0.04
541.334	-0.02
541.528	-0.01
541.723	0.01
541.917	-0.01
542.112	-0.06
542.306	-0.02
542.501	-0.02
542.695	-0.01
542.89	-0.03
543.084	0.02
543.279	-0.03
543.473	-0
543.668	-0.01
543.862	0
544.056	0
544.251	-0
544.445	0
544.64	-0.01
544.834	-0.04
545.028	0.01
545.222	-0.01
545.417	0.01
545.611	0
545.805	-0.02
546	-0.02
546.194	-0.02
546.388	-0.01
546.582	-0
546.776	-0.01
546.97	-0
547.165	0
547.359	-0
547.553	-0.03
547.747	-0.01
547.941	-0
548.135	0
548.329	0
548.523	0.01
548.717	-0.01
548.911	-0.02
549.105	-0.01
549.299	0.01
549.493	0.01
549.687	-0
549.881	-0
550.075	-0.01
550.269	-0.02
550.463	0.02
550.657	-0.03
550.85	-0.02
551.044	-0.01
551.238	0.01
551.432	-0.04
551.626	-0.03
551.82	0.01
552.013	-0.02
552.207	0
552.401	0.02
552.594	-0.01
552.788	-0.01
552.982	-0.01
553.176	-0.03
553.369	0.01
553.563	-0
553.756	-0.05
553.95	-0.05
554.144	0.01
554.337	-0.01
554.531	-0.02
554.724	0.01
554.918	-0.04
555.111	0.02
555.305	-0.02
555.498	0.03
555.692	-0
555.885	-0.02
556.079	0.02
556.272	-0.03
556.466	-0
556.659	-0.01
556.852	-0.01
557.046	-0.02
557.239	0.01
557.432	-0.05
557.626	-0.04
557.819	-0.01
558.012	0.02
558.206	0.02
558.399	-0.02
558.592	0.01
558.785	-0.02
558.979	0.01
559.172	-0.02
559.365	0.02
559.558	0.01
559.751	-0.02
559.944	0.01
560.138	-0.03
560.331	-0.02
560.524	-0.02
560.717	-0.01
560.91	0
561.103	0.01
561.296	0.01
561.489	-0.02
561.682	-0.01
561.875	0.02
562.068	-0.01
562.261	0
562.454	0.01
562.647	0.01
562.84	0.02
563.032	-0.01
563.225	0
563.418	-0.03
563.611	-0.03
563.804	-0.02
563.997	-0.03
564.19	-0.05
564.382	-0.06
564.575	-0.03
564.768	-0.02
564.961	-0.01
565.153	-0.04
565.346	0
565.539	0.02
565.731	0.01
565.924	0
566.117	-0
566.309	0.02
566.502	-0.03
566.695	-0.04
566.887	0
567.08	-0.03
567.272	-0.01
567.465	-0.03
567.657	0
567.85	0.02
568.042	0.04
568.235	0.02
568.427	-0.01
568.62	-0.02
568.812	-0.01
569.005	-0.01
569.197	-0.03
569.389	-0.01
569.582	0.02
569.774	0
569.966	-0.07
570.159	-0.04
570.351	-0
570.543	-0.05
570.736	-0.01
570.928	-0.04
571.12	-0.02
571.312	-0.02
571.505	-0.04
571.697	0.03
571.889	-0.01
572.081	-0.03
572.273	-0.03
572.465	0.03
572.658	-0
572.85	0.02
573.042	-0.03
573.234	0
573.426	0.01
573.618	-0.05
573.81	-0.01
574.002	0.01
574.194	0.03
574.386	-0.04
574.578	-0.06
574.77	-0.03
574.962	-0.02
575.154	-0.04
575.346	-0.03
575.538	-0.03
575.729	-0.04
575.921	-0.03
576.113	-0.01
576.305	0.01
576.497	-0.01
576.689	-0
576.88	-0.04
577.072	0.02
577.264	-0.05
577.456	-0.02
577.647	-0.07
577.839	-0.01
578.031	0
578.223	-0.05
578.414	-0.06
578.606	-0.02
578.798	-0.02
578.989	-0.02
579.181	0.01
579.372	0
579.564	-0.02
579.755	-0.02
579.947	-0.02
580.139	0.01
580.33	-0.05
580.522	-0.04
580.713	-0.08
580.905	-0.01
581.096	-0
581.287	-0.01
581.479	-0.01
581.67	0.03
581.862	-0.02
582.053	-0.03
582.244	-0.05
582.436	0.02
582.627	-0.02
582.818	-0.04
583.01	-0.04
583.201	-0.02
583.392	0.02
583.583	0.01
583.775	-0.02
583.966	-0.03
584.157	-0.05
584.348	-0.03
584.54	-0.05
584.731	0.01
584.922	-0.01
585.113	-0.04
585.304	-0
585.495	0.02
585.686	-0
585.877	-0.01
586.068	-0.01
586.259	0
586.45	-0
586.641	-0.03
586.832	-0.06
587.023	-0.02
587.214	-0.03
587.405	-0.03
587.596	-0.03
587.787	0.03
587.978	-0.02
588.169	-0.03
588.36	-0.03
588.551	-0
588.742	-0.03
588.932	-0.03
589.123	-0.02
589.314	0.02
589.505	-0.01
589.696	-0.01
589.886	-0.03
590.077	-0.06
590.268	-0.01
590.458	-0.06
590.649	-0.05
590.84	0.02
591.03	-0.03
591.221	-0.06
591.412	-0.06
591.602	-0.02
591.793	0.02
591.984	-0.05
592.174	-0.04
592.365	0.06
592.555	-0.02
592.746	0.01
592.936	-0
593.127	-0
593.317	0.04
593.508	-0.04
593.698	-0.02
593.889	-0
594.079	-0.01
594.269	-0.03
594.46	-0.02
594.65	-0.02
594.84	-0
595.031	-0.04
595.221	-0.03
595.411	-0.05
595.602	-0
595.792	-0.01
595.982	-0.02
596.172	0.02
596.363	0
596.553	-0.01
596.743	-0.02
596.933	-0.01
597.123	0.01
597.314	-0.05
597.504	-0.02
597.694	0.01
597.884	-0.02
598.074	-0.04
598.264	-0.05
598.454	-0.01
598.644	-0.01
598.834	-0.03
599.024	-0.05
599.214	-0.04
599.404	-0.01
599.594	-0.03
599.784	-0.05
599.974	0.06
600.164	0.02
600.354	-0.06
600.544	-0.05
600.734	-0.01
600.924	0.03
601.114	-0.03
601.303	-0
601.493	0.01
601.683	-0.01
601.873	-0
602.063	-0.08
602.252	0.04
602.442	-0.09
602.632	-0.05
602.821	-0.05
603.011	0.01
603.201	-0.02
603.39	-0.05
603.58	-0.05
603.77	-0.02
603.959	0
604.149	-0.01
604.339	-0.01
604.528	0.04
604.718	-0
604.907	-0.02
605.097	-0.03
605.286	-0.03
605.476	0.02
605.665	-0.01
605.855	-0
606.044	0.03
606.234	-0.01
606.423	-0.02
606.612	-0.05
606.802	-0.02
606.991	0
607.181	-0.01
607.37	-0.08
607.559	-0.02
607.749	-0.06
607.938	-0.04
608.127	-0.02
608.316	-0.03
608.506	0.01
608.695	-0.02
608.884	-0.05
609.073	-0.03
609.263	0.01
609.452	0
609.641	0.01
609.83	-0.03
610.019	-0.01
610.208	-0.02
610.397	-0.02
610.586	0.02
610.775	-0.04
610.965	-0.01
611.154	-0.03
611.343	0.01
611.532	-0.02
611.721	-0.03
611.91	-0.02
612.099	0.03
612.287	-0.03
612.476	-0.05
612.665	-0.01
612.854	-0.02
613.043	0.05
613.232	-0.01
613.421	-0.07
613.61	-0
613.798	-0.03
613.987	0.01
614.176	-0.04
614.365	0.03
614.554	0
614.742	0.01
614.931	-0.05
615.12	0.01
615.309	-0.03
615.497	0.01
615.686	-0.02
615.875	-0.02
616.063	0.02
616.252	-0
616.44	-0.06
616.629	-0.03
616.818	0.01
617.006	-0.03
617.195	-0.02
617.383	0.02
617.572	0.01
617.76	-0.03
617.949	-0.02
618.137	0.02
618.326	0.04
618.514	-0.06
618.703	-0.03
618.891	0.05
619.079	-0.06
619.268	-0.01
619.456	-0.06
619.644	-0
619.833	0.01
620.021	-0.05
620.209	-0.07
620.398	-0.01
620.586	-0.01
620.774	0.02
620.962	-0.02
621.151	0.02
621.339	-0.04
621.527	-0.07
621.715	-0.05
621.903	-0.06
622.092	-0.07
622.28	-0.01
622.468	-0.03
622.656	-0.05
622.844	0.01
623.032	-0.04
623.22	-0.06
623.408	-0
623.596	0
623.784	-0.02
623.972	-0.05
624.16	-0.03
624.348	0.03
624.536	-0.05
624.724	-0.04
624.912	0.03
625.1	0
625.288	-0.04
625.476	-0.03
625.664	0.02
625.851	-0.07
626.039	-0.06
626.227	-0.01
626.415	-0.02
626.603	-0.06
626.79	-0.01
626.978	-0.02
627.166	0
627.354	-0.01
627.541	-0.05
627.729	-0.06
627.917	-0.01
628.104	0.04
628.292	-0
628.48	-0.03
628.667	-0.01
628.855	0.01
629.042	-0.02
629.23	-0.03
629.418	-0.06
629.605	-0.02
629.793	-0.05
629.98	-0.05
630.168	0.01
630.355	-0.01
630.543	-0.01
630.73	-0.05
630.917	0.02
631.105	0.06
631.292	-0.03
631.48	-0.03
631.667	0.06
631.854	-0.03
632.042	-0.03
632.229	-0.07
632.416	0.01
632.604	-0.01
632.791	-0.05
632.978	0.04
633.165	0.01
633.353	0.04
633.54	0.04
633.727	-0.07
633.914	-0.03
634.101	-0.09
634.289	0.03
634.476	-0.05
634.663	-0.05
634.85	0.02
635.037	-0.04
635.224	-0.08
635.411	0
635.598	0
635.785	-0.05
635.972	-0.02
636.159	0.01
636.346	-0.05
636.533	-0.02
636.72	-0.03
636.907	-0.03
637.094	-0.01
637.281	-0.05
637.468	-0.01
637.655	-0.05
637.842	-0.01
638.029	-0.05
638.215	0.02
638.402	-0.01
638.589	-0.03
638.776	-0.03
638.963	-0.04
639.149	0.03
639.336	0.03
639.523	-0
639.709	-0.02
639.896	-0.06
640.083	0.03
640.27	-0.01
640.456	-0
640.643	0.01
640.829	-0.04
641.016	-0.02
641.203	-0.04
641.389	0.02
641.576	-0.02
641.762	-0.05
641.949	-0.06
642.135	-0.02
642.322	0
642.508	-0.08
642.695	-0.02
642.881	-0.04
643.068	-0.02
643.254	-0.02
643.441	0.01
643.627	-0.01
643.813	-0.05
644	-0.01
644.186	-0.06
644.372	-0.01
644.559	-0.02
644.745	-0.01
644.931	-0.06
645.118	-0.02
645.304	-0
645.49	-0.04
645.676	-0.07
645.862	-0.02
646.049	0.03
646.235	-0.01
646.421	0.03
646.607	0.05
646.793	-0.04
646.979	-0.05
647.165	0.01
647.352	0
647.538	-0.01
647.724	-0.02
647.91	-0.01
648.096	-0
648.282	0.01
648.468	0
648.654	-0.03
648.84	0
649.026	-0.01
649.212	-0.03
649.397	-0.07
649.583	-0.06
649.769	0
649.955	0
650.141	-0.01
650.327	0.05
650.513	-0.07
650.698	-0
650.884	-0.11
651.07	0
651.256	0
651.442	-0.01
651.627	0
651.813	0.01
651.999	-0.02
652.184	0
652.37	-0.03
652.556	-0.05
652.741	0.02
652.927	-0.09
653.113	-0.01
653.298	-0.05
653.484	-0.03
653.669	-0.07
653.855	-0.02
654.04	0.01
654.226	-0.03
654.412	-0.03
654.597	-0.05
654.782	-0.01
654.968	0.03
655.153	-0.01
655.339	-0.03
655.524	-0.05
655.71	0.02
655.895	-0.03
656.08	-0.05
656.266	0.03
656.451	-0.02
656.636	-0.05
656.822	-0.01
657.007	-0.04
657.192	-0.04
657.378	-0.08
657.563	-0.02
657.748	-0.01
657.933	-0.01
658.118	-0.06
658.304	-0.05
658.489	-0.02
658.674	0.01
658.859	-0.06
659.044	-0.01
659.229	0.02
659.414	-0.04
659.599	-0.03
659.785	-0.08
659.97	-0.03
660.155	-0
660.34	-0.05
660.525	-0.01
660.71	-0.06
660.895	0.02
661.08	-0.02
661.264	-0.03
661.449	0.01
661.634	0.02
661.819	0.01
662.004	-0.01
662.189	-0.06
662.374	-0.03
662.559	-0.1
662.743	-0.11
662.928	0
663.113	-0.03
663.298	-0.07
663.483	-0.06
663.667	0.01
663.852	-0.07
664.037	0.02
664.221	-0.02
664.406	-0
664.591	-0.02
664.775	-0.04
664.96	-0.05
665.145	-0.01
665.329	0.02
665.514	-0.03
665.698	0
665.883	-0.08
666.068	0.02
666.252	-0.01
666.437	-0.03
666.621	-0.02
666.806	0.01
666.99	-0.02
667.174	-0.07
667.359	0.06
667.543	-0.07
667.728	-0.02
667.912	-0.08
668.096	0.01
668.281	-0.03
668.465	-0.04
668.649	-0.02
668.834	-0.07
669.018	-0.02
669.202	-0.05
669.387	-0.03
669.571	0
669.755	-0.03
669.939	-0.04
670.124	0
670.308	0.07
670.492	0.02
670.676	0.01
670.86	-0.05
671.044	-0.06
671.228	-0.01
671.413	-0.05
671.597	-0.04
671.781	-0.05
671.965	0.01
672.149	-0.04
672.333	0.02
672.517	-0.05
672.701	0.03
672.885	-0.06
673.069	-0.1
673.253	0.03
673.437	-0.05
673.621	-0.05
673.804	-0.01
673.988	-0.04
674.172	-0.02
674.356	-0.07
674.54	-0.02
674.724	0.07
674.908	-0.04
675.091	0.05
675.275	-0.02
675.459	-0
675.643	-0.02
675.826	-0.03
676.01	-0.03
676.194	-0.06
676.377	0
676.561	0
676.745	-0.03
676.928	-0.03
677.112	0
677.296	-0.07
677.479	-0.05
677.663	-0.05
677.846	0.01
678.03	-0.05
678.213	-0.03
678.397	-0.01
678.58	-0.05
678.764	-0.02
678.947	-0.07
679.131	-0.07
679.314	0
679.498	-0.01
679.681	-0.03
679.865	0.04
680.048	0
680.231	-0.04
680.415	-0.05
680.598	-0.04
680.781	-0.05
680.965	-0.05
681.148	-0
681.331	-0.04
681.514	-0
681.698	-0.05
681.881	-0.03
682.064	-0.01
682.247	-0.03
682.43	-0.11
682.614	0.02
682.797	0.01
682.98	-0.02
683.163	-0.07
683.346	0.01
683.529	-0
683.712	-0.07
683.895	0.04
684.078	-0.03
684.261	-0.02
684.444	-0.05
684.627	0.01
684.81	-0.06
684.993	-0.07
685.176	0.01
685.359	-0.03
685.542	-0.06
685.725	0.05
685.908	-0.05
686.091	-0.04
686.274	0.01
686.457	0.01
686.639	-0.06
686.822	0.01
687.005	0.01
687.188	-0.04
687.371	0.06
687.553	0
687.736	0.03
687.919	0.05
688.102	0.03
688.284	0
688.467	0.02
688.65	0
688.832	-0.03
689.015	-0.04
689.197	-0.03
689.38	0.04
689.563	0.06
689.745	-0.05
689.928	-0.07
690.11	-0
690.293	0.02
690.475	-0.09
690.658	0.02
690.84	-0.05
691.023	-0.02
691.205	-0.03
691.388	-0.06
691.57	-0.06
691.752	0.01
691.935	-0.07
692.117	-0.03
692.3	-0.01
692.482	-0.03
692.664	0.01
692.847	-0.02
693.029	0.05
693.211	-0.02
693.393	-0.03
693.576	-0.03
693.758	-0.04
693.94	-0.07
694.122	-0.03
694.304	-0.02
694.487	-0.02
694.669	0.03
694.851	-0.03
695.033	0.02
695.215	-0.06
695.397	-0.07
695.579	-0.02
695.761	-0.02
695.943	-0.07
696.125	0.02
696.308	0.03
696.49	-0.12
696.671	0.08
696.853	-0.01
697.035	0.11
697.217	-0.06
697.399	0.03
697.581	-0.03
697.763	-0.01
697.945	-0.09
698.127	0.01
698.309	0.04
698.491	-0.01
698.672	0.06
698.854	0.03
699.036	0.04
699.218	-0.04
699.399	-0.01
699.581	0.04
699.763	-0.05
699.945	-0.06
700.126	-0.04
700.308	0
700.49	-0.05
700.671	-0.06
700.853	-0.03
701.035	-0
701.216	0.01
701.398	-0.08
701.579	-0.01
701.761	-0
701.943	-0.02
702.124	-0.06
702.306	0.01
702.487	0.07
702.669	-0.04
702.85	-0.08
703.031	-0.09
703.213	0.13
703.394	0.06
703.576	-0.07
703.757	0
703.938	0.06
704.12	0.13
704.301	-0.02
704.483	-0.05
704.664	-0.01
704.845	0.08
705.026	0.05
705.208	-0.02
705.389	-0.01
705.57	0.02
705.751	-0.05
705.933	-0.05
706.114	0.02
706.295	-0.09
706.476	-0.06
706.657	0.02
706.838	0.07
707.02	-0.01
707.201	-0.02
707.382	-0.06
707.563	0.03
707.744	-0.03
707.925	-0.09
708.106	-0.03
708.287	0
708.468	-0.01
708.649	0
708.83	-0.04
709.011	-0.07
709.192	0.02
709.373	-0.08
709.554	-0.04
709.734	-0.01
709.915	-0
710.096	-0.02
710.277	-0.14
710.458	-0.01
710.639	-0.01
710.819	-0.13
711	-0.06
711.181	0.08
711.362	0
711.542	-0.02
711.723	-0.05
711.904	0.08
712.085	0.03
712.265	0.02
712.446	-0.06
712.627	-0.04
712.807	-0.07
712.988	-0.02
713.168	-0.12
713.349	0.01
713.53	-0.18
713.71	-0.07
713.891	-0.07
714.071	-0.05
714.252	-0.07
714.432	-0.03
714.613	-0.16
714.793	-0.07
714.974	0.05
715.154	0.1
715.334	-0
715.515	0.06
715.695	-0.13
715.876	-0.03
716.056	-0.03
716.236	-0
716.417	0.03
716.597	-0.05
716.777	0.1
716.957	-0.03
717.138	-0.04
717.318	-0.01
717.498	-0.12
717.678	0.01
717.859	-0.06
718.039	-0.09
718.219	-0.03
718.399	0.02
718.579	-0.13
718.759	-0.04
718.939	-0.05
719.12	-0.04
719.3	0.03
719.48	-0.2
719.66	-0.2
719.84	0.07
720.02	-0.03
720.2	-0.12
720.38	-0.04
720.56	0.06
720.74	0
720.92	-0.03
721.1	0.02
721.279	0.04
721.459	-0.02
721.639	-0.08
721.819	0.02
721.999	-0.09
722.179	0.04
722.359	-0.1
722.538	-0.02
722.718	0
722.898	-0.02
723.078	-0.04
723.257	-0.1
723.437	0.04
723.617	-0.01
723.797	-0.01
723.976	-0.04
724.156	0.01
724.336	0.08
724.515	0.09
724.695	-0.1
724.874	-0.02
725.054	-0.02
725.234	-0.1
725.413	0.05
725.593	-0.04
725.772	-0.06
725.952	0.02
726.131	-0.09
726.311	0.02
726.49	-0.04
726.67	-0.16
726.849	-0.07
727.028	-0.03
727.208	-0.09
727.387	-0.01
727.567	-0.15
727.746	-0.09
727.925	-0.07
728.105	-0.04
728.284	-0.09
728.463	-0.06
728.643	0.08
728.822	-0.12
729.001	-0.06
729.18	-0.1
729.359	0
729.539	-0.01
729.718	-0.02
729.897	0.04
730.076	-0.08
730.255	-0.22
730.434	0.01
730.614	0.04
730.793	0
730.972	-0.09
731.151	-0.05
731.33	0.04
731.509	-0.09
731.688	-0.03
731.867	-0.08
732.046	-0.12
732.225	0.14
732.404	-0.16
732.583	-0.12
732.762	0.01
732.941	0.05
733.12	-0.04
733.298	-0.06
733.477	-0
733.656	-0
733.835	-0.23
734.014	0.08
734.193	-0.05
734.371	0
734.55	-0
734.729	-0.1
734.908	-0.01
735.086	-0.03
735.265	0.04
735.444	-0.17
735.623	-0.12
735.801	-0.13
735.98	-0.01
736.159	-0.09
736.337	0.02
736.516	0.03
736.694	-0.08
736.873	-0.08
737.052	-0.02
737.23	-0
737.409	-0.11
737.587	0.09
737.766	-0.22
737.944	-0.14
738.123	-0.04
738.301	0.04
738.479	-0.01
738.658	0
738.836	-0.24
739.015	0.02
739.193	0.08
739.371	-0.17
739.55	-0.05
739.728	-0.17
739.906	0.1
740.085	0.07
740.263	-0.05
740.441	-0.16
740.62	0.15
740.798	0.09
740.976	-0.1
741.154	-0.18
741.332	0.18
741.511	-0.12
741.689	-0.02
741.867	-0
742.045	0.04
742.223	0
742.401	-0.09
742.579	-0.12
742.757	0.02
742.935	-0.21
743.114	-0.08
743.292	-0.08
743.47	-0.01
743.648	0.02
743.826	-0.16
744.004	-0.01
744.181	0.06
744.359	0.01
744.537	0.04
744.715	-0.09
744.893	-0.02
745.071	-0.05
745.249	-0.04
745.427	-0.04
745.605	0.13
745.782	-0.1
745.96	-0.05
746.138	-0.05
746.316	0.07
746.493	-0.08
746.671	-0.08
746.849	-0.18
747.027	0.11
747.204	-0.09
747.382	-0.06
747.56	-0.16
747.737	-0.07
747.915	-0.13
748.093	0.07
748.27	-0.08
748.448	-0.1
748.625	-0.11
748.803	-0.06
748.98	-0.01
749.158	-0.05
749.335	0.16
749.513	-0.03
749.69	-0.05
749.868	-0.09
750.045	0.03
750.223	-0.07
750.4	-0.24
750.578	0.09
750.755	0.01
750.932	-0.18
751.11	0.12
751.287	-0.17
751.464	0.09
751.642	-0.09
751.819	0.02
751.996	0.01
752.173	-0.02
752.351	-0.07
752.528	0.03
752.705	-0.01
752.882	-0.1
753.06	0.05
753.237	0.07
753.414	0.16
753.591	0.15
753.768	-0.03
753.945	-0.11
754.122	-0.14
754.299	0.02
754.476	-0.16
754.654	0.06
754.831	0.14
755.008	-0.15
755.185	-0.04
755.362	-0.19
755.539	-0.03
755.716	0.03
755.892	-0.11
756.069	-0.08
756.246	-0.06
756.423	-0.09
756.6	0.13
756.777	0.05
756.954	0.1
757.131	-0.05
757.307	-0.08
757.484	-0.18
757.661	0.01
757.838	-0.09
758.015	-0.32
758.191	-0.03
758.368	0.11
758.545	0.14
758.721	0.01
758.898	-0.13
759.075	0.01
759.251	0.07
759.428	0.09
759.605	-0.08
759.781	-0.08
759.958	-0.06
760.134	0.02
760.311	-0.1
760.488	0.1
760.664	0.11
760.841	-0.07
761.017	-0.1
761.194	0.09
761.37	0
761.547	0.04
761.723	-0.17
761.899	0.11
762.076	-0.05
762.252	-0.05
762.429	-0.09
762.605	-0.02
762.781	-0.12
762.958	-0.01
763.134	-0.19
763.31	-0.07
763.486	0.28
763.663	-0.19
763.839	0.12
764.015	-0.19
764.191	-0.18
764.368	-0.11
764.544	-0.13
764.72	0.03
764.896	-0.03
765.072	-0.1
765.248	-0.15
765.425	-0.17
765.601	0.06
765.777	-0.05
765.953	-0.24
766.129	-0.16
766.305	-0.06
766.481	-0
766.657	0.08
766.833	0.17
767.009	-0.12
767.185	-0.07
767.361	-0.06
767.537	-0.15
767.713	0.15
767.889	-0.11
768.065	0.03
768.24	-0.22
768.416	0.18
768.592	-0.15
768.768	0
768.944	0.21
769.12	-0.12
769.295	-0.03
769.471	-0.1
769.647	-0.03
769.823	-0.03
769.998	-0.18
770.174	-0.13
770.35	0.22
770.525	0.21
770.701	0.05
770.877	-0.04
771.052	-0.23
771.228	0.1
771.403	-0.01
771.579	-0.05
771.755	0.31
771.93	-0.19
772.106	-0.21
772.281	-0.33
772.457	0.04
772.632	0.01
772.808	-0.3
772.983	-0.1
773.159	-0.33
773.334	0.1
773.509	0.07
773.685	-0.17
773.86	0.12
774.036	0.12
774.211	-0.07
774.386	-0.24
774.562	-0.02
774.737	0.13
774.912	-0.21
775.087	-0.02
775.263	-0.02
775.438	0.03
775.613	-0.12
775.788	-0.11
775.964	0.02
776.139	0.24
776.314	-0.13
776.489	-0.09
776.664	0.13
776.839	-0.22
777.014	0.02
777.19	0.08
777.365	0.14
777.54	0.17
777.715	-0.11
777.89	-0.04
778.065	-0.17
778.24	-0.04
778.415	0.01
778.59	-0.28
778.765	-0.04
778.94	-0.18
779.115	-0.06
779.289	0.14
779.464	0.01
779.639	-0.15
779.814	-0.27
779.989	-0.13
780.164	0.09
780.339	-0.09
780.513	-0.28
780.688	-0.22
780.863	-0.11
781.038	0.14
781.212	-0.19
781.387	-0.05
781.562	0.32
781.737	-0.24
781.911	0.06
782.086	-0.24
782.261	-0.25
782.435	0.19
782.61	-0.12
782.784	0.03
782.959	-0
783.134	-0.18
783.308	-0.16
783.483	0
783.657	0.29
783.832	0.11
784.006	-0.25
784.181	-0.1
784.355	0.14
784.53	-0.04
784.704	-0.22
784.878	0.24
785.053	-0.01
785.227	0.16
785.402	0.17
785.576	-0.3
785.75	0.1
785.925	-0.21
786.099	0.06
786.273	-0.09
786.448	0.1
786.622	0.22
786.796	-0.18
786.97	-0.1
787.145	0.48
787.319	-0.51
787.493	-0.13
787.667	-0.24
787.841	-0.22
788.015	0.01
788.19	-0.29
788.364	-0
788.538	0.26
788.712	0.05
788.886	-0.12
789.06	0.05
789.234	0.12
789.408	-0.31
789.582	-0.05
789.756	-0.03
789.93	-0.35
790.104	-0.12
790.278	-0.2
790.452	-0.26
790.626	0.21
790.8	-0.27
790.973	-0
791.147	0.32
791.321	0.19
791.495	0.16
791.669	0.17
791.843	-0.12
792.016	-0.02
792.19	0.34
792.364	-0.31
792.538	0.48
792.711	0.11
792.885	-0.13
793.059	-0.44
793.233	-0.79
793.406	0.14
793.58	0.02
793.754	-0.02
793.927	0.02
794.101	0.21
794.274	-0.07
794.448	0.25
794.622	-0.28
794.795	0.3
794.969	-0.25
795.142	0.29
795.316	-0.14
795.489	0.05
795.663	0.42
795.836	-0.22
796.009	-0.29
796.183	0.32
796.356	0.08
796.53	-0.02
796.703	-0.07
796.876	0.3
797.05	-0.11
797.223	-0.25
797.396	-0.01
797.57	0.04
797.743	0.16
797.916	0.02
798.09	-0.26
798.263	0.13
798.436	0.1
798.609	-0.24
798.782	-0.15
798.956	0.29
799.129	-0.04
799.302	-0.09
799.475	-0.03
799.648	-0.29
799.821	-0.49
799.994	-0.01
800.167	-0.51
800.34	-0.03
800.514	-0.07
800.687	-0.24
800.86	-0.15
801.033	-0
801.206	-0.22
801.379	-0.21
801.551	0.05
801.724	0.32
801.897	0.04
802.07	-0.07
802.243	-0.78
802.416	0.03
802.589	-0.29
802.762	0.19
802.935	-0.13
803.107	0.08
803.28	0.15
803.453	0.29
803.626	-0.35
803.798	-0.15
803.971	-0.17
804.144	-0.01
804.317	-0.01
804.489	0.26
804.662	0.01
804.835	-0.11
805.007	0.01
805.18	0.38
805.353	0.34
805.525	-0.34
805.698	-0.29
805.87	0.09
806.043	0.08
806.215	-0.39
806.388	-0.43
806.56	0.18
806.733	0.4
806.905	0.04
807.078	-0.52
807.25	-0.4
807.423	-0.11
807.595	0.1
807.768	-0.05
807.94	0.42
808.112	-0.01
808.285	-0.17
808.457	-0.19
808.629	0.02
808.802	0.14
808.974	-0.24
809.146	-0.36
809.318	-0.38
809.491	-0.25
809.663	-0.08
809.835	-0.28
810.007	0.49
810.18	0.09
810.352	-0.51
810.524	-0.34
810.696	0.13
810.868	0.35
811.04	-0.14
811.212	-0.04
811.384	0.07
811.556	-0.21
811.728	0.04
811.901	0.51
812.073	-0.07
812.245	-0.06
812.417	0.02
812.589	-0.68
812.76	-0.07
812.932	0.01
813.104	0.19
813.276	0.02
813.448	0.18
813.62	-0.08
813.792	0.27
813.964	0.13
814.136	0.11
814.307	-0.2
814.479	-0.32
814.651	0.03
814.823	0.55
814.995	-0.15
815.166	-0.3
815.338	-0.41
815.51	-0.21
815.681	0.57
815.853	-0.35
816.025	0.05
816.196	0.49
816.368	0.23
816.54	-0.86
816.711	-0.45
816.883	0.04
817.054	0.64
817.226	-1.11
817.398	-0.22
817.569	-0.34
817.741	0.01
817.912	-0.4
818.084	-0.12
818.255	-0.43
818.426	-0.31
818.598	-0.5
818.769	-0.44
818.941	0.03
819.112	-0.1
819.283	0.02
819.455	-0.19
819.626	0.01
819.798	0.02
819.969	0.23
820.14	0.04
820.311	-0.36
820.483	0.02
820.654	-0.07
820.825	-0.35
820.996	-0.09
821.168	-0.29
821.339	-0.15
821.51	-0.72
821.681	-0.57
821.852	0.04
822.023	-0.78
822.195	-1.21
822.366	0.35
822.537	0.04
822.708	0.09
822.879	-0.19
823.05	0.21
823.221	0.14
823.392	0
823.563	-0.2
823.734	-0.57
823.905	-0.47
824.076	-0.47
824.247	-0.49
824.418	-0.4
824.589	0.37
824.759	-0.48
824.93	0.09
825.101	-0.73
825.272	0.53
825.443	0.33
825.614	0.28
825.784	-0.95
825.955	0.91
826.126	0.53
826.297	-0.35
826.467	0.41
826.638	0.92
826.809	-0.67
826.98	-0.21
827.15	-0.68
827.321	-0.01
827.492	0.66
827.662	0.47
827.833	0.68
828.003	0.38
828.174	-0.46
828.345	-0.97
828.515	0.6
828.686	0.55
828.856	-0.25
829.027	-0.19
829.197	0.22
829.368	0.19
829.538	-0.04
829.709	-0.32
829.879	0.05
830.049	0.31
830.22	-0.37
830.39	-0.26
830.56	0.53
830.731	-0
830.901	-0.67
831.072	-0.05
831.242	0.21
831.412	0.31
831.582	-0.75
831.753	-0.64
831.923	0.26
832.093	-0.56
832.263	-0.97
832.434	-1.05
832.604	-0.56
832.774	0.32
832.944	-0.18
833.114	-0.48
833.284	0.64
833.454	-0.23
833.624	-0.88
833.795	-0.75
833.965	0.52
834.135	-0.04
834.305	-1.07
834.475	-0.76
834.645	-0.34
834.815	-0.47
834.985	-0.65
835.155	-0.4
835.325	-0.35
835.494	0.33
835.664	-0.27
835.834	-0.95
836.004	0.26
836.174	-0.01
836.344	-0.38
836.514	-1.06
836.684	-0.47
836.853	-0.12
837.023	-0.21
837.193	-0
837.363	0.77
837.532	0.59
837.702	0.04
837.872	-1.04
838.041	0.96
838.211	0.98
838.381	-1.02
838.55	-0.21
838.72	1.87
838.89	0.25
839.059	-0.16
839.229	-0.3
839.398	0.96
839.568	-0.39
839.738	-0.46
839.907	1.2
840.077	-0.59
840.246	-0.45
840.416	-0.47
840.585	-0.71
840.755	0.99
840.924	1.23
841.093	-0.91
841.263	-0.8
841.432	0.26
841.602	-0.89
841.771	-1.1
841.94	-0.22
842.11	1.32
842.279	1.7
842.448	-0.86
842.617	-0.36
842.787	0.65
842.956	-0.73
843.125	0.38
843.294	-0.11
843.464	0.59
843.633	-0.45
843.802	-0.98
843.971	-0.49
844.14	1
844.309	0.25
844.479	-0.99
844.648	-0.62
844.817	-0.53
844.986	-0.2
845.155	-0.37
845.324	-1.01
845.493	-0.26
845.662	-0.92
845.831	-0.3
846	0.47
846.169	0.28
846.338	0.02
846.507	0.13
846.676	0.05
846.844	-0.02
847.013	1.27
847.182	-0.14
847.351	-0.6
847.52	0.55
847.689	0.83
847.858	-0.04
848.026	-0.12
848.195	-0.25
848.364	-0.29
848.533	-1.85
848.701	-0.81
848.87	-0.49
849.039	0.17
849.207	0.6
849.376	0.54
849.545	0.7
849.713	-0.65
849.882	-0.99
850.051	-0.22
850.219	-0.05
850.388	0.32
850.556	-0.38
850.725	-1.09
850.893	-0.17
851.062	-0.84
851.23	1.14
851.399	-1.59
851.567	-0.41
851.736	-0.35
851.904	0.03
852.073	0.21
852.241	1.02
852.41	-0.25
852.578	-1.1
852.746	-1
852.915	0.54
853.083	-0.63
853.251	-1.09
853.42	-1.53
853.588	0.21
853.756	1.31
853.924	-0.04
854.093	-0.71
854.261	-0.09
854.429	-0.96
854.597	-0.71
854.765	-0.67
854.934	1
855.102	-0.74
855.27	-0.02
855.438	0.23
855.606	0.27
855.774	1.21
855.942	-2.07
856.11	-1.96
856.278	-0.67
856.446	0.33
856.614	-0.54
856.782	-1.08
856.95	1.14
857.118	0.16
857.286	-0.08
857.454	-0.76
857.622	0.8
857.79	-0.04
857.958	-2.53
858.126	-1.28
858.294	-2.76
858.462	-0.05
858.629	0.1
858.797	-1.18
858.965	0.44
859.133	1.17
859.301	0.53
859.468	0.82
859.636	-0.76
859.804	0.34
859.971	-0.8
860.139	-1.23
860.307	0.22
860.474	-0.82
860.642	-1
860.81	-1.65
860.977	-1.6
861.145	-0.39
861.313	-1.43
861.48	0.55
861.648	0.65
861.815	-0.32
861.983	-2.96
862.15	-1.14
862.318	-0.43
862.485	1
862.653	0.18
862.82	-1.07
862.988	1.78
863.155	-0.55
863.322	-1.85
863.49	-2.51
863.657	-0.4
863.824	1.26
863.992	1.74
864.159	0.81
864.326	1.24
864.494	-1.46
864.661	1.99
864.828	-0.92
864.996	0.85
865.163	1.73
865.33	-0.9
865.497	-1.63
865.664	-0.68
865.832	-2.88
865.999	0.32
866.166	-0.56
866.333	-1.45
866.5	-1.29
866.667	-0.8
866.834	-1.61
867.001	1.58
867.168	-1.53
867.335	0.18
867.502	-1.65
867.669	-0.55
867.836	1.98
868.003	-1.63
868.17	0.47
868.337	-0.53
868.504	3.73
868.671	-2.23
868.838	0.1
869.005	0.45
869.172	1.04
869.339	0.09
869.505	-0.82
869.672	0.88
869.839	1.33
870.006	0.94
870.173	-0.54
870.339	0.27
870.506	2.62
870.673	-1.17
870.84	-0.51
871.006	0.17
871.173	-1.55
871.34	-0.48
871.506	-1.38
871.673	-0.05
871.839	-1.65
872.006	-0.12
872.173	-0.86
872.339	0.44
872.506	1.65
872.672	-1.02
872.839	-1.7
873.005	-0.29
873.172	1.91
873.338	0.51
873.505	-0.29
873.671	0.47
873.838	0.3
874.004	-1.4
874.171	-2.53
874.337	-1.24
874.503	0.8
874.67	1.05
874.836	-0.61
875.002	2.35
875.169	0.43
875.335	-0.04
875.501	-2.26
875.668	1.32
875.834	0.72
876	0.17
876.166	0.55
876.332	1.59
876.499	2.47
876.665	0.92
876.831	0.47
876.997	2.61
877.163	-0
877.329	-1.01
877.495	0.05
877.662	-0.13
877.828	-0.08
877.994	0.48
878.16	-2.42
878.326	-1.28
878.492	-1.73
878.658	-1.1
878.824	0.44
878.99	0.5
879.156	-3.56
879.322	2.01
879.487	-0.73
879.653	-0.17
879.819	1
879.985	-1.64
880.151	1.55
880.317	0.6
880.483	-0.02
880.648	-0.04
880.814	-3.05
880.98	1.4
881.146	-0.12
881.312	-0.55
881.477	0.88
881.643	0.92
881.809	1.01
881.974	2.38
882.14	-2.8
882.306	-1.09
882.471	2.13
882.637	-1.54
882.803	0.07
882.968	3.21
883.134	1.87
883.299	-1.35
883.465	-0.38
883.63	0.02
883.796	1.08
883.961	-0.04
884.127	-0.02
884.292	-5.44
884.458	-2.24
884.623	-2.23
