Data from Apollo_Calib_20240827__AbsoluteIrradiance__683__10-32-01-604.txt Node

Date: Wed Aug 28 10:32:01 BST 2024
User: biology
Spectrometer: FLMT08252
Trigger mode: 0
Integration Time (sec): 5.000000E-1
Scans to average: 5
Electric dark correction enabled: true
Nonlinearity correction enabled: false
Boxcar width: 0
XAxis mode: Wavelengths
Number of Pixels in Spectrum: 3648
>>>>>Begin Spectral Data<<<<<
179.588	-0
179.809	-0
180.03	-0
180.251	-0
180.473	-0
180.694	0
180.915	0
181.136	-0
181.357	0
181.578	-0
181.799	-0
182.02	-0
182.241	-0
182.462	-0
182.683	0
182.904	-0
183.125	-0
183.346	0
183.567	0
183.788	0
184.009	-0
184.23	0
184.451	0
184.672	0
184.892	0
185.113	0
185.334	0
185.555	-0
185.776	-0
185.996	0
186.217	0
186.438	0
186.659	0
186.879	0
187.1	0
187.321	0
187.541	0
187.762	0
187.983	0
188.203	0
188.424	0
188.644	0
188.865	0
189.086	-0
189.306	0
189.527	0
189.747	0
189.968	-0
190.188	0
190.409	0
190.629	0
190.849	0
191.07	0
191.29	0
191.511	0
191.731	-0
191.951	0
192.172	0
192.392	0
192.612	0
192.833	0
193.053	0
193.273	0
193.493	0
193.714	0
193.934	0
194.154	0
194.374	0
194.594	0
194.815	0
195.035	0
195.255	0
195.475	0
195.695	0
195.915	0
196.135	-0
196.355	0
196.575	0
196.795	0
197.015	-0
197.235	0
197.455	-0
197.675	0
197.895	-0
198.115	0
198.335	0
198.555	-0
198.775	0
198.995	0
199.214	0
199.434	0
199.654	-0
199.874	0
200.094	1.49
200.313	0.3
200.533	-0.35
200.753	0.11
200.973	1.25
201.192	0.66
201.412	-0.47
201.632	0.38
201.851	0.94
202.071	0.07
202.291	-0.14
202.51	-0.29
202.73	1.1
202.95	0.2
203.169	0.02
203.389	0.47
203.608	0.16
203.828	0.11
204.047	-0.11
204.267	0.67
204.486	0.33
204.706	0.36
204.925	0.33
205.145	-0
205.364	0.54
205.583	1.02
205.803	0.11
206.022	-0.02
206.242	0.34
206.461	0.34
206.68	-0.18
206.9	0.01
207.119	0.45
207.338	0.98
207.557	-0.12
207.777	0.24
207.996	0.21
208.215	0.74
208.434	-0.03
208.654	-0.16
208.873	0.32
209.092	0.71
209.311	0.23
209.53	0.3
209.749	0.13
209.968	-0.07
210.187	0.12
210.407	-0.31
210.626	-0.05
210.845	0.36
211.064	0.17
211.283	-0.25
211.502	0.39
211.721	0.37
211.94	0.22
212.159	0.47
212.377	0.37
212.596	0.5
212.815	0.34
213.034	0.28
213.253	0.62
213.472	0.37
213.691	0.26
213.91	-0.32
214.128	-0.07
214.347	0.5
214.566	-0.28
214.785	-0.08
215.003	0.32
215.222	0.13
215.441	0.14
215.66	-0
215.878	0.1
216.097	0.4
216.316	0.06
216.534	0.01
216.753	0.29
216.972	0.28
217.19	0.17
217.409	0.02
217.627	-0.09
217.846	0.25
218.064	0.25
218.283	0.02
218.501	0.66
218.72	0.18
218.938	0.01
219.157	-0.06
219.375	0.2
219.594	0.38
219.812	-0.14
220.031	0.01
220.249	0.34
220.467	0.36
220.686	-0.02
220.904	-0.03
221.122	0.02
221.341	0.57
221.559	0.36
221.777	0.03
221.995	0.11
222.214	0.28
222.432	0.03
222.65	0.31
222.868	0.16
223.086	0.14
223.305	0.23
223.523	0.05
223.741	0.25
223.959	0.08
224.177	-0.22
224.395	0.06
224.613	0.11
224.831	0.21
225.049	-0.14
225.267	0.06
225.485	0.13
225.703	-0.08
225.921	0.01
226.139	-0.09
226.357	0.19
226.575	0.19
226.793	0.05
227.011	0.71
227.229	0.13
227.447	0.35
227.665	0.04
227.883	-0.18
228.1	0.11
228.318	0.06
228.536	-0.11
228.754	-0.06
228.972	0.25
229.189	0.19
229.407	-0.02
229.625	-0.06
229.843	0.29
230.06	0.2
230.278	-0.06
230.496	0.03
230.713	0.18
230.931	0.3
231.149	0.08
231.366	-0.1
231.584	0.25
231.801	0.46
232.019	0.01
232.236	-0.06
232.454	0.04
232.671	0.2
232.889	0.08
233.106	0
233.324	0.15
233.541	0.06
233.759	0.06
233.976	0.03
234.194	0.14
234.411	0.19
234.628	0.08
234.846	0.02
235.063	0.14
235.28	0.1
235.498	0.07
235.715	-0.01
235.932	0.25
236.149	0.14
236.367	-0.02
236.584	0.16
236.801	-0
237.018	0.16
237.236	0.15
237.453	-0.1
237.67	0.23
237.887	0.01
238.104	0.1
238.321	0.08
238.538	-0.04
238.755	0.18
238.973	-0.13
239.19	0.04
239.407	0.13
239.624	0.14
239.841	-0.07
240.058	0.07
240.275	0.05
240.492	0.11
240.709	0.12
240.925	0.01
241.142	0.04
241.359	0.05
241.576	-0.04
241.793	0.05
242.01	0.1
242.227	0.09
242.444	0.13
242.66	0.08
242.877	0.1
243.094	-0.03
243.311	0.1
243.527	0.11
243.744	0.07
243.961	0.24
244.178	0.04
244.394	0.1
244.611	0.25
244.828	0.3
245.044	-0.02
245.261	0.08
245.477	0.08
245.694	0.18
245.911	0.01
246.127	0.04
246.344	0.23
246.56	0.06
246.777	0.13
246.993	0.06
247.21	0.17
247.426	0.13
247.643	0.03
247.859	0
248.076	0
248.292	0.33
248.508	0.11
248.725	0.04
248.941	0.11
249.157	0.11
249.374	0.12
249.59	0.09
249.806	0.03
250.023	0.11
250.239	0.01
250.455	0
250.671	0.13
250.888	0.09
251.104	0.13
251.32	0.04
251.536	0.1
251.752	-0.01
251.969	0.08
252.185	0.05
252.401	0.26
252.617	0.14
252.833	0.01
253.049	-0.01
253.265	0.11
253.481	0.09
253.697	-0.05
253.913	0.04
254.129	0.05
254.345	0.06
254.561	0.04
254.777	0.09
254.993	0.12
255.209	0.06
255.425	0.01
255.641	0.06
255.857	0.12
256.073	0.09
256.288	-0.04
256.504	0.02
256.72	0.05
256.936	0.13
257.152	0.11
257.367	-0.02
257.583	0.06
257.799	0.14
258.015	0.05
258.23	0.02
258.446	0.2
258.662	0.04
258.877	0.01
259.093	0.02
259.309	0.08
259.524	0.12
259.74	-0.02
259.955	0.01
260.171	0.08
260.387	0.11
260.602	0.16
260.818	0.11
261.033	-0.01
261.249	0.09
261.464	0.1
261.68	-0.04
261.895	0.08
262.11	0.13
262.326	0.1
262.541	-0.01
262.757	0.08
262.972	0.14
263.187	0.08
263.403	0.06
263.618	0.18
263.833	0.06
264.049	0.01
264.264	0.02
264.479	0.12
264.694	0.16
264.91	0
265.125	0.06
265.34	0.1
265.555	0.21
265.77	0.11
265.986	-0.01
266.201	0.07
266.416	0.12
266.631	0.03
266.846	0.08
267.061	0.06
267.276	0.09
267.491	-0.06
267.706	0.08
267.921	0.1
268.136	0.07
268.351	0.09
268.566	-0
268.781	0.15
268.996	0.03
269.211	0.07
269.426	-0.02
269.641	0.03
269.856	0.16
270.071	-0
270.285	-0.04
270.5	0.11
270.715	0.12
270.93	0.02
271.145	0.05
271.359	0.14
271.574	0.05
271.789	0.09
272.004	0.01
272.218	0.1
272.433	0.08
272.648	0.01
272.862	0.17
273.077	0.05
273.292	0.06
273.506	0
273.721	0.06
273.936	0.11
274.15	0.1
274.365	0.03
274.579	0.11
274.794	0.08
275.008	0.12
275.223	-0.1
275.437	0.02
275.652	0.14
275.866	0.07
276.081	0.03
276.295	0.1
276.509	0.09
276.724	0.07
276.938	0.07
277.153	0.08
277.367	0.1
277.581	0.05
277.796	-0
278.01	0.02
278.224	0.05
278.438	0.18
278.653	-0.01
278.867	0.01
279.081	-0.13
279.295	0.02
279.51	0.1
279.724	-0.03
279.938	0.09
280.152	0.05
280.366	-0.03
280.58	0.03
280.794	0.11
281.008	0.13
281.222	0.06
281.437	0.15
281.651	0.09
281.865	0.13
282.079	0.05
282.293	-0.07
282.507	0.03
282.721	0.03
282.935	0.03
283.148	0.03
283.362	0.03
283.576	0.01
283.79	0.06
284.004	-0
284.218	0.12
284.432	0.03
284.646	0.05
284.859	0
285.073	0.02
285.287	0.02
285.501	0.06
285.714	0.02
285.928	0.06
286.142	0.06
286.356	-0.01
286.569	0.08
286.783	0.12
286.997	0.06
287.21	0.09
287.424	0.04
287.637	0.06
287.851	0.02
288.065	0.12
288.278	0.04
288.492	0.04
288.705	0.07
288.919	0.07
289.132	-0.01
289.346	0.07
289.559	-0
289.773	-0.02
289.986	0.03
290.2	0.07
290.413	0.05
290.626	0.01
290.84	0.04
291.053	0.07
291.267	0.06
291.48	0.08
291.693	0.06
291.906	0.02
292.12	0.01
292.333	0.02
292.546	-0.03
292.76	0.1
292.973	0.04
293.186	0.03
293.399	0.02
293.612	0.13
293.826	0.01
294.039	0.08
294.252	-0
294.465	0.09
294.678	0.09
294.891	0.06
295.104	0
295.317	0.02
295.53	0.04
295.743	0.02
295.956	0.02
296.169	0.11
296.382	0.09
296.595	0.06
296.808	-0
297.021	0.1
297.234	0.08
297.447	0.02
297.66	0.09
297.873	0.1
298.086	0.11
298.299	0.01
298.511	-0.02
298.724	0.02
298.937	0.02
299.15	-0
299.363	0.06
299.575	0.06
299.788	0.04
300.001	0.06
300.213	-0
300.426	0.05
300.639	0.01
300.852	0.02
301.064	0.09
301.277	0.08
301.489	0.09
301.702	0.11
301.915	0.03
302.127	0.04
302.34	0.05
302.552	0.05
302.765	0.01
302.977	0.08
303.19	0.03
303.402	0.05
303.615	0.06
303.827	-0
304.04	0.02
304.252	0.09
304.464	0.04
304.677	0.1
304.889	0.14
305.102	0.02
305.314	0
305.526	0.07
305.739	0.07
305.951	0.05
306.163	0.04
306.375	0.13
306.588	-0
306.8	0.02
307.012	-0.03
307.224	0.07
307.436	0.06
307.649	-0.03
307.861	0.07
308.073	0.06
308.285	0.01
308.497	0.02
308.709	-0.01
308.921	0.05
309.133	0.1
309.346	0.04
309.558	0.05
309.77	0.08
309.982	0.17
310.194	0.08
310.406	0.03
310.617	0.13
310.829	0.06
311.041	0.07
311.253	0.01
311.465	-0.01
311.677	0.01
311.889	0.05
312.101	0.03
312.313	0.08
312.524	0.08
312.736	-0.02
312.948	-0.01
313.16	0.12
313.372	0.06
313.583	0.06
313.795	0.02
314.007	0.01
314.218	0.08
314.43	0.02
314.642	-0.01
314.853	-0.02
315.065	0.05
315.277	-0.01
315.488	0.07
315.7	0.08
315.912	0.05
316.123	0.02
316.335	0.01
316.546	0.14
316.758	0.08
316.969	0.01
317.181	0.03
317.392	0.03
317.604	0.06
317.815	0.02
318.026	0.03
318.238	-0.05
318.449	0.09
318.661	0.01
318.872	-0.01
319.083	-0.01
319.295	0.07
319.506	-0
319.717	0.07
319.929	0.08
320.14	0.07
320.351	0.05
320.562	0.02
320.774	-0.01
320.985	0.03
321.196	-0.03
321.407	-0.02
321.618	0.08
321.829	0.04
322.041	0.09
322.252	0.06
322.463	0.05
322.674	0.07
322.885	-0.03
323.096	-0.03
323.307	0.02
323.518	0.08
323.729	-0.01
323.94	0
324.151	-0.04
324.362	0
324.573	0.06
324.784	0.01
324.995	0.09
325.206	0.07
325.417	0.01
325.628	0.05
325.838	0.04
326.049	0.05
326.26	0.05
326.471	-0.04
326.682	0.07
326.892	0.03
327.103	0.02
327.314	-0.03
327.525	0.07
327.735	0.02
327.946	0.05
328.157	0.02
328.368	0.06
328.578	0
328.789	0.06
328.999	0.05
329.21	0.03
329.421	0.03
329.631	-0.02
329.842	0.03
330.052	0.08
330.263	0.05
330.473	0.05
330.684	0.04
330.894	0.05
331.105	-0
331.315	0.03
331.526	-0.01
331.736	0.1
331.947	0.07
332.157	0.08
332.367	0.02
332.578	0.06
332.788	0.04
332.999	0.11
333.209	0.01
333.419	0.02
333.629	0.04
333.84	0.05
334.05	0.02
334.26	0.07
334.47	0.04
334.681	0.1
334.891	0.06
335.101	0.08
335.311	0.11
335.521	0.05
335.732	-0.04
335.942	0.1
336.152	0.09
336.362	0.05
336.572	0.02
336.782	0.05
336.992	0.02
337.202	0.06
337.412	-0.01
337.622	0.07
337.832	0.01
338.042	0.06
338.252	-0.01
338.462	0
338.672	0.04
338.882	0.04
339.092	-0
339.302	0.09
339.511	0.01
339.721	0.05
339.931	0.01
340.141	0.07
340.351	0.12
340.561	0.05
340.77	0.04
340.98	0.04
341.19	0.03
341.4	0.04
341.609	-0.05
341.819	0.02
342.029	0.02
342.238	0.08
342.448	0.03
342.658	0.06
342.867	0.06
343.077	0.03
343.286	0.03
343.496	0.02
343.706	0.1
343.915	-0.02
344.125	0.06
344.334	0.01
344.544	-0.01
344.753	-0.03
344.963	0.02
345.172	-0
345.381	0
345.591	0.02
345.8	0.02
346.01	0.09
346.219	0.05
346.428	-0.12
346.638	0.01
346.847	0.04
347.056	0.08
347.266	0.06
347.475	0.03
347.684	0.07
347.893	0.05
348.103	0.04
348.312	0.02
348.521	0.02
348.73	0.04
348.94	0.08
349.149	0.06
349.358	0.03
349.567	-0.02
349.776	0
349.985	0.02
350.194	0.08
350.403	0.07
350.612	-0.04
350.821	0.01
351.03	0.02
351.239	-0.03
351.448	-0.02
351.657	0.01
351.866	0.12
352.075	0.02
352.284	0.06
352.493	-0.01
352.702	0.12
352.911	0.09
353.12	0.05
353.329	0.01
353.538	0.07
353.746	0.01
353.955	0.01
354.164	0.05
354.373	0.03
354.582	0.09
354.79	0.03
354.999	0.06
355.208	0.02
355.416	0.1
355.625	0.02
355.834	0.03
356.042	0.05
356.251	-0.03
356.46	-0.04
356.668	0.03
356.877	0.1
357.085	0.07
357.294	-0.03
357.503	0.06
357.711	0.02
357.92	0.14
358.128	0.03
358.337	0.04
358.545	0.05
358.754	-0
358.962	0.1
359.17	0.03
359.379	0.04
359.587	0.05
359.796	0.04
360.004	0.1
360.212	0.07
360.421	0.07
360.629	0.03
360.837	0
361.046	0.05
361.254	0.11
361.462	0.06
361.67	0.01
361.879	0.1
362.087	0.07
362.295	0.04
362.503	0.06
362.711	0.01
362.92	0.03
363.128	0.04
363.336	-0
363.544	-0.03
363.752	-0
363.96	-0.02
364.168	-0.02
364.376	-0
364.584	0.04
364.792	0.05
365	0.06
365.208	0.03
365.416	0.03
365.624	0.05
365.832	0
366.04	0.06
366.248	0.05
366.456	0.03
366.664	0.03
366.872	0.04
367.079	0.03
367.287	0.05
367.495	0.02
367.703	0.02
367.911	-0.02
368.118	0.04
368.326	0.01
368.534	0.01
368.742	0.1
368.949	0.04
369.157	0.03
369.365	0.07
369.572	0.04
369.78	0.02
369.988	0.1
370.195	0.02
370.403	0.07
370.61	-0.01
370.818	0.06
371.026	0.11
371.233	0.03
371.441	0.07
371.648	0.02
371.856	0.04
372.063	0.03
372.271	-0.02
372.478	0.01
372.685	-0.03
372.893	0.09
373.1	0.04
373.308	0.03
373.515	0.09
373.722	0.04
373.93	0.03
374.137	0.06
374.344	0.09
374.552	0.06
374.759	0.06
374.966	0.04
375.173	0.01
375.381	0.09
375.588	0.03
375.795	-0.02
376.002	-0.02
376.209	0.03
376.417	0.01
376.624	0.05
376.831	0.05
377.038	0.03
377.245	-0.03
377.452	-0.01
377.659	0.02
377.866	0.01
378.073	0.03
378.28	0
378.487	0.1
378.694	0.06
378.901	0.03
379.108	0.06
379.315	0.04
379.522	0.1
379.729	0.03
379.936	0
380.143	0.04
380.35	0.08
380.557	0.01
380.763	0.05
380.97	0.01
381.177	0.03
381.384	0.03
381.591	-0.02
381.797	0.05
382.004	0.03
382.211	0.06
382.418	-0.06
382.624	0.09
382.831	0.07
383.038	0.02
383.244	0.02
383.451	0
383.658	0.01
383.864	0.01
384.071	0.02
384.277	0.12
384.484	0.03
384.69	0.08
384.897	-0
385.103	0.01
385.31	0.05
385.516	0.02
385.723	-0.04
385.929	0.07
386.136	-0.02
386.342	0.06
386.549	-0.03
386.755	0.05
386.961	0.05
387.168	0.02
387.374	0.02
387.58	0.07
387.787	-0.01
387.993	0.05
388.199	0.03
388.406	0.04
388.612	0.02
388.818	0.02
389.024	0.02
389.231	0.07
389.437	0.1
389.643	0.06
389.849	0.03
390.055	0.02
390.261	0
390.467	0.06
390.674	0.02
390.88	-0
391.086	0.05
391.292	-0.02
391.498	0.09
391.704	0.03
391.91	0.01
392.116	0.04
392.322	-0.07
392.528	0.04
392.734	0.03
392.94	0.02
393.146	0
393.352	0.06
393.557	0.02
393.763	0.01
393.969	0.01
394.175	0
394.381	0.03
394.587	-0
394.792	0.06
394.998	0.06
395.204	0.11
395.41	0.01
395.615	0.03
395.821	0.02
396.027	0.04
396.233	-0.01
396.438	0.03
396.644	0.04
396.85	0.09
397.055	0.03
397.261	0.03
397.466	0.08
397.672	0.04
397.878	0.02
398.083	0.01
398.289	0.02
398.494	0.09
398.7	0.03
398.905	0
399.111	0.07
399.316	-0.02
399.522	0.01
399.727	0.01
399.932	0.01
400.138	0.02
400.343	0.07
400.549	0.04
400.754	0.04
400.959	0.01
401.165	0.02
401.37	0.01
401.575	0.09
401.78	0
401.986	-0.04
402.191	0.02
402.396	0.05
402.601	0.01
402.807	0.03
403.012	0.06
403.217	0.04
403.422	-0.01
403.627	0.02
403.832	0.02
404.037	0.07
404.243	0.03
404.448	-0.02
404.653	0.03
404.858	0
405.063	0.03
405.268	-0.01
405.473	-0.03
405.678	0.02
405.883	0.16
406.088	0.04
406.293	-0.01
406.498	0
406.703	0.02
406.907	-0
407.112	-0.01
407.317	0.02
407.522	0.04
407.727	-0.01
407.932	0.03
408.136	0.13
408.341	0.05
408.546	0.02
408.751	0.09
408.956	0.02
409.16	0.05
409.365	0.04
409.57	0.02
409.774	0.07
409.979	0.08
410.184	0.05
410.388	0.01
410.593	0.09
410.798	0.02
411.002	0.01
411.207	0.03
411.411	0.07
411.616	0.01
411.82	-0.01
412.025	0.03
412.229	0.03
412.434	0.08
412.638	0.04
412.843	0.04
413.047	0.05
413.252	0.01
413.456	-0.04
413.66	0.12
413.865	0
414.069	0.1
414.273	0.03
414.478	0.02
414.682	0.02
414.886	0.01
415.091	-0.01
415.295	-0.03
415.499	0.04
415.703	0
415.908	0.03
416.112	-0.07
416.316	0.05
416.52	-0
416.724	-0.01
416.929	0.01
417.133	0.14
417.337	-0.03
417.541	0.01
417.745	-0.02
417.949	0.03
418.153	0.06
418.357	-0.05
418.561	0.07
418.765	0
418.969	0.11
419.173	0.05
419.377	0.01
419.581	0.13
419.785	-0.01
419.989	-0.05
420.193	0
420.397	0.05
420.601	0.07
420.804	0.07
421.008	-0.02
421.212	0.04
421.416	0.06
421.62	0.01
421.823	0.03
422.027	0.11
422.231	0.05
422.435	0.02
422.638	0.06
422.842	0.01
423.046	-0.02
423.249	-0.01
423.453	0.07
423.657	0.07
423.86	0.03
424.064	0.06
424.268	0.08
424.471	0.07
424.675	0.07
424.878	0.09
425.082	0.02
425.285	0.09
425.489	0.06
425.692	0.08
425.896	0.04
426.099	0.07
426.303	-0.03
426.506	-0.03
426.71	0.04
426.913	0.07
427.116	0.08
427.32	0.04
427.523	0.07
427.726	0.13
427.93	0.03
428.133	0
428.336	-0.02
428.54	-0.05
428.743	0.04
428.946	0.07
429.149	0.01
429.353	-0
429.556	-0.01
429.759	0.03
429.962	-0.02
430.165	0.03
430.368	0.03
430.571	-0.02
430.775	0.04
430.978	-0.02
431.181	0.05
431.384	0.01
431.587	0.02
431.79	0.07
431.993	0.09
432.196	-0.03
432.399	0.02
432.602	0.08
432.805	0.03
433.008	-0
433.211	-0.05
433.414	0.05
433.616	0.05
433.819	0.03
434.022	-0
434.225	0.1
434.428	0.04
434.631	0.08
434.833	0.04
435.036	0.03
435.239	0.04
435.442	0.05
435.645	0.04
435.847	0.03
436.05	0.07
436.253	0.03
436.455	-0.02
436.658	0.02
436.861	0.11
437.063	0
437.266	0.01
437.468	0.06
437.671	0.16
437.874	0.03
438.076	-0.03
438.279	-0.01
438.481	-0.01
438.684	-0.03
438.886	0.09
439.089	-0.1
439.291	-0.01
439.494	0.05
439.696	-0.05
439.899	0
440.101	0.05
440.303	-0.07
440.506	0.05
440.708	-0.01
440.91	0.04
441.113	-0.04
441.315	0.05
441.517	-0.01
441.72	0.04
441.922	0.04
442.124	0
442.326	0.07
442.529	0.1
442.731	0
442.933	0.11
443.135	0.03
443.337	-0.01
443.539	0.01
443.742	0.01
443.944	0.02
444.146	-0.01
444.348	0.03
444.55	-0.01
444.752	0
444.954	-0.02
445.156	0.03
445.358	-0
445.56	0.06
445.762	0.02
445.964	0.04
446.166	-0.02
446.368	-0.05
446.57	0.07
446.772	0.05
446.974	-0
447.175	0.03
447.377	0.01
447.579	-0.02
447.781	-0.07
447.983	0.09
448.184	0.05
448.386	0.03
448.588	-0.05
448.79	0.01
448.991	-0.01
449.193	0.01
449.395	0.02
449.597	0.06
449.798	0.02
450	0.05
450.202	0.02
450.403	0.01
450.605	0.12
450.806	0.01
451.008	-0.04
451.21	0.02
451.411	0.05
451.613	0.02
451.814	0.02
452.016	0.01
452.217	0.06
452.419	0.07
452.62	0.02
452.821	0.05
453.023	0.07
453.224	0.09
453.426	0.03
453.627	0.09
453.828	0.05
454.03	0.05
454.231	0.03
454.432	0.01
454.634	0.15
454.835	-0.06
455.036	-0.03
455.238	0.11
455.439	0.04
455.64	-0.01
455.841	-0.02
456.042	0.09
456.244	0.06
456.445	-0.01
456.646	-0.1
456.847	-0.03
457.048	0.07
457.249	0.1
457.45	0.19
457.651	-0
457.852	0.08
458.054	0.03
458.255	-0.02
458.456	0.03
458.657	0.04
458.858	-0.01
459.058	-0.01
459.259	0.03
459.46	0.03
459.661	-0.01
459.862	0.13
460.063	0
460.264	0.06
460.465	-0.01
460.666	0.15
460.866	0.04
461.067	0.02
461.268	0.01
461.469	0.01
461.67	0
461.87	0
462.071	0.03
462.272	-0.01
462.473	0.02
462.673	0.06
462.874	-0.06
463.075	0.05
463.275	-0.01
463.476	0.05
463.676	0
463.877	0.02
464.078	0.01
464.278	0.08
464.479	0.05
464.679	0.03
464.88	0.01
465.08	0.07
465.281	-0.02
465.481	-0
465.682	0.01
465.882	0.08
466.083	0.05
466.283	0.03
466.483	-0.02
466.684	-0.04
466.884	-0.03
467.085	0.01
467.285	0
467.485	-0.03
467.686	0.01
467.886	-0.03
468.086	0.03
468.286	0.04
468.487	-0.01
468.687	-0.06
468.887	-0.03
469.087	0.04
469.287	0.06
469.488	-0.07
469.688	0.08
469.888	0.06
470.088	0.06
470.288	0.06
470.488	0.05
470.688	-0.03
470.888	0.01
471.088	-0.04
471.288	0.05
471.488	0.07
471.688	0
471.888	-0.03
472.088	0.05
472.288	0.07
472.488	0.01
472.688	-0.01
472.888	0.01
473.088	-0.01
473.288	0.03
473.488	-0.01
473.688	0.13
473.887	0.04
474.087	-0.02
474.287	0.04
474.487	-0.02
474.687	0.06
474.886	-0.03
475.086	-0
475.286	0.02
475.486	0.04
475.685	0.03
475.885	-0.04
476.085	0.02
476.284	0.03
476.484	-0.02
476.684	0.05
476.883	0.04
477.083	0.03
477.282	0.03
477.482	0.08
477.681	0.07
477.881	0.02
478.08	-0.03
478.28	-0.03
478.479	0.05
478.679	0.08
478.878	-0.01
479.078	-0.02
479.277	-0.02
479.477	0.04
479.676	0.07
479.875	0.01
480.075	-0.08
480.274	0.07
480.473	0.04
480.673	-0.02
480.872	0.04
481.071	0.06
481.271	0.03
481.47	-0
481.669	-0
481.868	-0.01
482.067	-0.01
482.267	-0.01
482.466	-0.02
482.665	-0.01
482.864	-0.03
483.063	-0.02
483.262	0.03
483.461	0.07
483.661	0.05
483.86	-0
484.059	0.01
484.258	0.03
484.457	0.01
484.656	0.02
484.855	0.05
485.054	-0.01
485.253	-0
485.452	-0.01
485.651	0.02
485.849	-0.01
486.048	-0.01
486.247	-0
486.446	0.01
486.645	-0.01
486.844	0
487.043	0.01
487.241	0.01
487.44	-0.03
487.639	0.03
487.838	0.05
488.037	0.01
488.235	0.05
488.434	0.02
488.633	0
488.831	0.05
489.03	0.04
489.229	0.03
489.427	0.01
489.626	0.06
489.825	0.07
490.023	0.02
490.222	0.02
490.42	0.05
490.619	0.03
490.817	0.01
491.016	-0.02
491.214	0.02
491.413	0.01
491.611	0.01
491.81	0.01
492.008	0.02
492.207	0.04
492.405	0.01
492.604	0
492.802	0.02
493	-0
493.199	-0
493.397	0.01
493.595	-0
493.794	0.01
493.992	0.02
494.19	0
494.388	0.01
494.587	-0.02
494.785	0.02
494.983	-0.02
495.181	0
495.379	0.01
495.578	-0.01
495.776	0.04
495.974	0.01
496.172	-0
496.37	0
496.568	0
496.766	-0.03
496.964	0.03
497.162	-0.01
497.36	0.01
497.558	0.04
497.756	0.02
497.954	-0.01
498.152	-0.01
498.35	0.01
498.548	0
498.746	0.02
498.944	-0.02
499.142	0.01
499.34	-0.03
499.538	0.01
499.736	-0
499.933	0.05
500.131	0.05
500.329	0.02
500.527	0.02
500.725	0.05
500.922	0.03
501.12	0.02
501.318	0.02
501.516	-0.02
501.713	0.02
501.911	0
502.109	-0.02
502.306	0
502.504	-0
502.701	-0.01
502.899	-0.01
503.097	0.06
503.294	0.02
503.492	-0.01
503.689	0.01
503.887	0.04
504.084	0.05
504.282	0.03
504.479	-0.02
504.677	0.02
504.874	-0.03
505.072	0.01
505.269	0.01
505.466	0.02
505.664	0.02
505.861	-0.03
506.059	-0.02
506.256	0.04
506.453	-0
506.651	0.05
506.848	0.03
507.045	0.01
507.242	0
507.44	0.01
507.637	0.01
507.834	0.01
508.031	0.01
508.229	0
508.426	0.01
508.623	0.03
508.82	-0.01
509.017	-0.02
509.214	-0.01
509.411	0.03
509.608	-0
509.805	0.02
510.003	-0.01
510.2	0
510.397	0.03
510.594	-0
510.791	-0.01
510.988	0.01
511.184	0.03
511.381	0.02
511.578	-0.01
511.775	0.04
511.972	-0.01
512.169	0.01
512.366	0
512.563	0.01
512.76	-0
512.956	0.05
513.153	-0
513.35	0.02
513.547	-0
513.744	-0.02
513.94	-0.03
514.137	0.01
514.334	-0.02
514.53	0
514.727	0.01
514.924	0.03
515.12	-0.02
515.317	-0.02
515.514	0.01
515.71	-0
515.907	-0
516.103	0.01
516.3	0.03
516.497	0.03
516.693	0.03
516.89	0.02
517.086	-0.02
517.283	0.02
517.479	0.01
517.676	0.02
517.872	0
518.068	-0.01
518.265	-0
518.461	0.02
518.658	-0.03
518.854	0.03
519.05	-0.01
519.247	0.01
519.443	0.03
519.639	0.03
519.836	0.01
520.032	0.03
520.228	0.01
520.424	0
520.621	0.02
520.817	0.01
521.013	0.02
521.209	0.02
521.405	0.02
521.601	0.02
521.798	0.02
521.994	0.03
522.19	-0
522.386	-0.04
522.582	0.01
522.778	0.02
522.974	-0.01
523.17	0.03
523.366	0.01
523.562	0.03
523.758	0.02
523.954	-0.01
524.15	-0
524.346	0.03
524.542	0
524.738	-0.01
524.934	0.02
525.129	0.03
525.325	-0
525.521	0
525.717	0.01
525.913	0.02
526.109	0.02
526.304	0.02
526.5	0.03
526.696	0.03
526.892	-0
527.087	0.01
527.283	0
527.479	0.02
527.674	-0.01
527.87	0.01
528.066	0.02
528.261	0.02
528.457	0.03
528.653	0.03
528.848	-0.01
529.044	0.01
529.239	0.01
529.435	0.04
529.63	-0.01
529.826	0.05
530.021	0.01
530.217	0.04
530.412	-0
530.608	0
530.803	0.01
530.999	-0.01
531.194	-0.03
531.389	0.02
531.585	-0.03
531.78	-0
531.975	0.01
532.171	0.03
532.366	0
532.561	0
532.757	-0.02
532.952	-0.01
533.147	0.03
533.342	-0
533.538	0.02
533.733	0.05
533.928	-0.01
534.123	-0.01
534.318	-0.04
534.513	0.01
534.709	0
534.904	-0.01
535.099	0
535.294	-0
535.489	0.01
535.684	-0.01
535.879	-0.02
536.074	0.03
536.269	0
536.464	0.02
536.659	-0.01
536.854	-0.01
537.049	0.03
537.244	0.01
537.439	-0.01
537.634	0.03
537.828	-0
538.023	0.01
538.218	-0.02
538.413	-0.01
538.608	-0.05
538.803	0.03
538.997	-0.02
539.192	0.04
539.387	0.02
539.582	0.02
539.776	0.01
539.971	-0.01
540.166	-0.01
540.36	-0.01
540.555	0.02
540.75	0.02
540.944	0
541.139	-0.03
541.334	0.03
541.528	0.01
541.723	0.02
541.917	-0
542.112	-0.04
542.306	0.01
542.501	0
542.695	0.02
542.89	-0.01
543.084	-0
543.279	-0
543.473	-0.03
543.668	0
543.862	-0.01
544.056	0.02
544.251	0
544.445	0.01
544.64	0.01
544.834	-0.03
545.028	0.01
545.222	0.02
545.417	0.01
545.611	-0.01
545.805	0.01
546	-0.02
546.194	0
546.388	-0.02
546.582	0.01
546.776	-0
546.97	0.01
547.165	0.02
547.359	0.02
547.553	-0.03
547.747	0.02
547.941	0
548.135	0.01
548.329	0.02
548.523	-0
548.717	-0.01
548.911	-0.02
549.105	0
549.299	-0.01
549.493	0.04
549.687	0.03
549.881	0.01
550.075	0.02
550.269	-0.02
550.463	0.01
550.657	-0.01
550.85	0.01
551.044	-0.01
551.238	0.02
551.432	-0.02
551.626	-0.02
551.82	0.01
552.013	-0
552.207	0
552.401	0.02
552.594	0.01
552.788	0.02
552.982	0.04
553.176	-0.01
553.369	0.04
553.563	0
553.756	-0.03
553.95	-0.01
554.144	0.01
554.337	0.01
554.531	-0.01
554.724	0.01
554.918	-0
555.111	0.03
555.305	0.01
555.498	0.05
555.692	0.04
555.885	0.01
556.079	-0.01
556.272	-0.02
556.466	0.02
556.659	0.02
556.852	0.01
557.046	0.02
557.239	0.03
557.432	-0.01
557.626	0.01
557.819	0.03
558.012	0.02
558.206	0.02
558.399	0.02
558.592	0.01
558.785	0
558.979	0.02
559.172	0
559.365	0.03
559.558	0
559.751	0.01
559.944	0.01
560.138	-0.01
560.331	0.01
560.524	-0.01
560.717	0.01
560.91	-0
561.103	0.02
561.296	0.01
561.489	0.01
561.682	-0.01
561.875	0.04
562.068	0.02
562.261	-0.01
562.454	0.07
562.647	0.02
562.84	0.03
563.032	-0.02
563.225	0.03
563.418	-0.02
563.611	0.01
563.804	-0.01
563.997	-0.01
564.19	-0.03
564.382	-0.05
564.575	0.02
564.768	0
564.961	-0.01
565.153	-0
565.346	0.03
565.539	0.03
565.731	0.02
565.924	0.01
566.117	0.04
566.309	0.02
566.502	-0
566.695	0.01
566.887	0.02
567.08	-0.03
567.272	-0.01
567.465	-0.01
567.657	0.05
567.85	0.02
568.042	0.04
568.235	0.04
568.427	0
568.62	0.01
568.812	0.03
569.005	0.02
569.197	-0.01
569.389	0.04
569.582	0.03
569.774	0
569.966	-0
570.159	-0.02
570.351	0.01
570.543	0.01
570.736	0.01
570.928	-0.01
571.12	0.03
571.312	-0.02
571.505	-0.02
571.697	0.02
571.889	-0.03
572.081	0.02
572.273	-0.01
572.465	0.05
572.658	0.01
572.85	0.02
573.042	0.02
573.234	0.01
573.426	0.04
573.618	-0.04
573.81	0.03
574.002	0.04
574.194	0.04
574.386	-0.02
574.578	-0.04
574.77	-0.01
574.962	0.01
575.154	-0.02
575.346	0
575.538	0
575.729	0
575.921	-0.02
576.113	0.01
576.305	0.01
576.497	0
576.689	-0.01
576.88	-0.01
577.072	0.02
577.264	0
577.456	-0.01
577.647	-0.07
577.839	0.01
578.031	0.03
578.223	-0.03
578.414	-0.04
578.606	0.01
578.798	0.01
578.989	-0.01
579.181	-0.02
579.372	0.02
579.564	0
579.755	0.01
579.947	0.02
580.139	0.03
580.33	-0.04
580.522	-0.03
580.713	-0.05
580.905	-0.02
581.096	0.02
581.287	0.01
581.479	0
581.67	0.01
581.862	0
582.053	-0.02
582.244	-0.04
582.436	-0.02
582.627	0.03
582.818	-0.02
583.01	-0.01
583.201	0.03
583.392	0.04
583.583	0
583.775	-0.01
583.966	-0.02
584.157	-0.01
584.348	-0.01
584.54	-0.04
584.731	0.03
584.922	-0.01
585.113	-0.02
585.304	0.03
585.495	0.02
585.686	-0.01
585.877	0.02
586.068	0.03
586.259	-0.01
586.45	-0
586.641	-0.02
586.832	-0.03
587.023	0
587.214	0
587.405	0.01
587.596	-0.01
587.787	0.04
587.978	0.03
588.169	-0.03
588.36	-0.01
588.551	-0
588.742	0
588.932	0.02
589.123	0.02
589.314	0.03
589.505	0.03
589.696	0.03
589.886	-0.04
590.077	-0.04
590.268	0.02
590.458	-0.03
590.649	-0.02
590.84	0.03
591.03	-0.02
591.221	-0.02
591.412	-0.02
591.602	0.02
591.793	0.04
591.984	-0.04
592.174	-0.04
592.365	0.07
592.555	-0.03
592.746	0.03
592.936	0.03
593.127	0.05
593.317	0.03
593.508	0
593.698	-0.01
593.889	0.01
594.079	0.01
594.269	-0.03
594.46	0
594.65	0.01
594.84	0.02
595.031	-0.05
595.221	0
595.411	-0.04
595.602	0.04
595.792	0.02
595.982	-0
596.172	0.04
596.363	0.03
596.553	0.01
596.743	0.01
596.933	0.01
597.123	0.04
597.314	0
597.504	-0.02
597.694	0.05
597.884	0.03
598.074	0.01
598.264	-0.02
598.454	0.02
598.644	-0.01
598.834	0.01
599.024	-0.03
599.214	0.02
599.404	0.03
599.594	0.02
599.784	-0.03
599.974	0.05
600.164	0.02
600.354	-0.03
600.544	-0.05
600.734	0.03
600.924	0.04
601.114	-0.01
601.303	0.01
601.493	0.02
601.683	-0
601.873	0.01
602.063	-0.04
602.252	0.05
602.442	-0.05
602.632	0
602.821	-0.01
603.011	0
603.201	-0.01
603.39	-0.02
603.58	-0
603.77	0.02
603.959	0.02
604.149	0.01
604.339	-0
604.528	0.05
604.718	0.03
604.907	-0.01
605.097	-0.01
605.286	-0.03
605.476	0.03
605.665	0.04
605.855	0
606.044	0.05
606.234	0.02
606.423	-0
606.612	-0.03
606.802	-0.03
606.991	0.03
607.181	0.01
607.37	-0.01
607.559	0.04
607.749	-0.01
607.938	0
608.127	-0.01
608.316	-0.01
608.506	0.02
608.695	0.01
608.884	0
609.073	0.02
609.263	0.01
609.452	0.06
609.641	0.03
609.83	-0.01
610.019	0.02
610.208	-0.02
610.397	-0
610.586	0.03
610.775	-0.03
610.965	0.01
611.154	-0.01
611.343	0.03
611.532	0.03
611.721	-0.01
611.91	-0.02
612.099	0.02
612.287	0.01
612.476	-0
612.665	0.03
612.854	-0.01
613.043	0.03
613.232	0.01
613.421	-0.02
613.61	0.01
613.798	0
613.987	0.06
614.176	0.03
614.365	0.05
614.554	0.02
614.742	0.06
614.931	-0.03
615.12	0.04
615.309	0.01
615.497	0.03
615.686	-0.01
615.875	-0.01
616.063	0.05
616.252	0
616.44	-0.02
616.629	0
616.818	0.04
617.006	-0.01
617.195	-0.01
617.383	0.01
617.572	0.02
617.76	-0.01
617.949	-0.01
618.137	0.01
618.326	0.03
618.514	-0.01
618.703	0.02
618.891	0.05
619.079	-0.05
619.268	0.03
619.456	-0.02
619.644	0.07
619.833	-0.01
620.021	-0.02
620.209	-0.02
620.398	0.02
620.586	-0
620.774	0.03
620.962	-0
621.151	0.09
621.339	-0
621.527	-0.01
621.715	-0.04
621.903	-0.02
622.092	-0.05
622.28	0.03
622.468	0.02
622.656	0
622.844	0.01
623.032	-0.03
623.22	-0.03
623.408	0.01
623.596	0.03
623.784	0.03
623.972	-0.01
624.16	-0.01
624.348	0.05
624.536	0.02
624.724	-0.02
624.912	0.04
625.1	0.03
625.288	-0.02
625.476	-0.04
625.664	0.02
625.851	-0.02
626.039	-0
626.227	0.03
626.415	0
626.603	-0.03
626.79	-0
626.978	-0.01
627.166	0.05
627.354	0.01
627.541	-0.02
627.729	-0.04
627.917	0.03
628.104	0.03
628.292	0.02
628.48	0.02
628.667	0.02
628.855	0.04
629.042	0.01
629.23	-0.01
629.418	0.04
629.605	0.03
629.793	0
629.98	-0
630.168	-0.03
630.355	0.01
630.543	0.02
630.73	-0.01
630.917	0.04
631.105	0.05
631.292	-0.01
631.48	0.02
631.667	0.12
631.854	0.01
632.042	-0.03
632.229	0
632.416	0
632.604	-0.01
632.791	-0.02
632.978	0.04
633.165	0.03
633.353	0.07
633.54	0.03
633.727	-0.04
633.914	0.02
634.101	-0.04
634.289	0.04
634.476	-0.01
634.663	-0.03
634.85	0.03
635.037	0.01
635.224	-0.05
635.411	0.04
635.598	0.05
635.785	0.01
635.972	-0
636.159	0.06
636.346	-0.01
636.533	0.02
636.72	0.03
636.907	-0
637.094	0.03
637.281	0.01
637.468	0.01
637.655	0
637.842	0.02
638.029	-0.02
638.215	0.06
638.402	0.06
638.589	-0.02
638.776	0
638.963	0.02
639.149	0.04
639.336	0.05
639.523	0.03
639.709	0.05
639.896	-0
640.083	0.07
640.27	0.01
640.456	0.02
640.643	0.03
640.829	-0.02
641.016	0.01
641.203	-0.03
641.389	0.04
641.576	0.02
641.762	-0
641.949	-0.02
642.135	0.04
642.322	0.03
642.508	-0.05
642.695	0.04
642.881	0
643.068	-0
643.254	-0
643.441	0.03
643.627	-0
643.813	-0.01
644	0.05
644.186	-0.02
644.372	-0.04
644.559	0.07
644.745	0
644.931	0.02
645.118	-0
645.304	-0
645.49	-0.01
645.676	0.01
645.862	0.04
646.049	0.06
646.235	0.03
646.421	0.12
646.607	0.1
646.793	0.03
646.979	-0.02
647.165	0.05
647.352	0
647.538	0.07
647.724	0.02
647.91	0.05
648.096	0.06
648.282	0.03
648.468	0.01
648.654	0.03
648.84	0.07
649.026	0.02
649.212	0.01
649.397	-0
649.583	0.02
649.769	0.06
649.955	0.04
650.141	0.04
650.327	0.07
650.513	0
650.698	0.05
650.884	-0.05
651.07	0.03
651.256	0.02
651.442	0.02
651.627	-0.01
651.813	0.02
651.999	0.02
652.184	0.02
652.37	0.02
652.556	0.02
652.741	0.11
652.927	-0.04
653.113	0.03
653.298	0.03
653.484	-0.01
653.669	0.01
653.855	0.02
654.04	0.05
654.226	0.01
654.412	0.04
654.597	-0
654.782	0.03
654.968	0.05
655.153	0.05
655.339	0.03
655.524	0
655.71	0.06
655.895	0.04
656.08	0.05
656.266	0.05
656.451	0.06
656.636	0.02
656.822	0.05
657.007	0.01
657.192	0.03
657.378	-0.04
657.563	0.03
657.748	0.02
657.933	0.06
658.118	-0
658.304	0.01
658.489	0.07
658.674	0.03
658.859	-0.01
659.044	0.08
659.229	0.03
659.414	0.01
659.599	0.03
659.785	0
659.97	0.05
660.155	0.07
660.34	0.06
660.525	0.03
660.71	0.05
660.895	0.09
661.08	0.05
661.264	0.01
661.449	0.14
661.634	0.1
661.819	0.07
662.004	0.05
662.189	-0.01
662.374	0.02
662.559	-0.01
662.743	0
662.928	-0.01
663.113	0.03
663.298	0.02
663.483	0.05
663.667	0.08
663.852	0.02
664.037	0.11
664.221	0.04
664.406	0.07
664.591	0.07
664.775	0.1
664.96	0.06
665.145	0.06
665.329	0.08
665.514	0.04
665.698	0.04
665.883	0.01
666.068	0.1
666.252	0.06
666.437	0.09
666.621	0.07
666.806	0.1
666.99	0.06
667.174	0.01
667.359	0.15
667.543	0.05
667.728	0.07
667.912	0.04
668.096	0.06
668.281	0.03
668.465	0.09
668.649	0.09
668.834	0.04
669.018	0.04
669.202	0.08
669.387	0.03
669.571	0.1
669.755	0.06
669.939	0.08
670.124	0.12
670.308	0.12
670.492	0.08
670.676	0.12
670.86	0.1
671.044	0.05
671.228	0.15
671.413	0.09
671.597	0.07
671.781	0.09
671.965	0.13
672.149	0.09
672.333	0.09
672.517	0.07
672.701	0.16
672.885	0.09
673.069	0.07
673.253	0.17
673.437	0.11
673.621	0.05
673.804	0.08
673.988	0.12
674.172	0.11
674.356	0.09
674.54	0.1
674.724	0.19
674.908	0.11
675.091	0.19
675.275	0.12
675.459	0.13
675.643	0.21
675.826	0.13
676.01	0.11
676.194	0.13
676.377	0.18
676.561	0.17
676.745	0.16
676.928	0.15
677.112	0.23
677.296	0.11
677.479	0.14
677.663	0.16
677.846	0.19
678.03	0.18
678.213	0.15
678.397	0.2
678.58	0.19
678.764	0.16
678.947	0.14
679.131	0.1
679.314	0.18
679.498	0.14
679.681	0.17
679.865	0.27
680.048	0.2
680.231	0.2
680.415	0.2
680.598	0.22
680.781	0.21
680.965	0.2
681.148	0.23
681.331	0.18
681.514	0.2
681.698	0.16
681.881	0.2
682.064	0.21
682.247	0.22
682.43	0.15
682.614	0.24
682.797	0.26
682.98	0.23
683.163	0.16
683.346	0.31
683.529	0.24
683.712	0.17
683.895	0.3
684.078	0.21
684.261	0.24
684.444	0.28
684.627	0.33
684.81	0.21
684.993	0.2
685.176	0.29
685.359	0.21
685.542	0.27
685.725	0.38
685.908	0.31
686.091	0.31
686.274	0.37
686.457	0.37
686.639	0.27
686.822	0.38
687.005	0.32
687.188	0.33
687.371	0.41
687.553	0.37
687.736	0.36
687.919	0.46
688.102	0.51
688.284	0.39
688.467	0.39
688.65	0.38
688.832	0.36
689.015	0.36
689.197	0.34
689.38	0.5
689.563	0.49
689.745	0.37
689.928	0.35
690.11	0.42
690.293	0.47
690.475	0.37
690.658	0.43
690.84	0.47
691.023	0.48
691.205	0.43
691.388	0.46
691.57	0.52
691.752	0.53
691.935	0.44
692.117	0.45
692.3	0.51
692.482	0.46
692.664	0.48
692.847	0.56
693.029	0.58
693.211	0.61
693.393	0.51
693.576	0.57
693.758	0.56
693.94	0.6
694.122	0.6
694.304	0.58
694.487	0.6
694.669	0.7
694.851	0.58
695.033	0.62
695.215	0.59
695.397	0.65
695.579	0.66
695.761	0.62
695.943	0.67
696.125	0.76
696.308	0.75
696.49	0.58
696.671	0.76
696.853	0.73
697.035	1
697.217	0.78
697.399	0.81
697.581	0.76
697.763	0.86
697.945	0.79
698.127	0.85
698.309	0.89
698.491	0.89
698.672	0.88
698.854	0.95
699.036	1
699.218	0.93
699.399	1.04
699.581	0.99
699.763	0.93
699.945	0.94
700.126	0.91
700.308	1.07
700.49	0.94
700.671	1.01
700.853	1.04
701.035	1
701.216	1.14
701.398	1.06
701.579	1.13
701.761	1.17
701.943	1.11
702.124	1.07
702.306	1.16
702.487	1.38
702.669	1.17
702.85	1.31
703.031	1.12
703.213	1.4
703.394	1.37
703.576	1.34
703.757	1.46
703.938	1.49
704.12	1.56
704.301	1.41
704.483	1.44
704.664	1.52
704.845	1.6
705.026	1.6
705.208	1.57
705.389	1.57
705.57	1.68
705.751	1.57
705.933	1.66
706.114	1.76
706.295	1.67
706.476	1.67
706.657	1.79
706.838	1.87
707.02	1.97
707.201	1.82
707.382	1.9
707.563	1.91
707.744	1.95
707.925	1.91
708.106	1.95
708.287	2.08
708.468	2.17
708.649	2.17
708.83	2.16
709.011	2.17
709.192	2.17
709.373	2.18
709.554	2.29
709.734	2.41
709.915	2.4
710.096	2.34
710.277	2.28
710.458	2.59
710.639	2.49
710.819	2.44
711	2.47
711.181	2.61
711.362	2.73
711.542	2.69
711.723	2.64
711.904	2.84
712.085	2.85
712.265	2.95
712.446	2.8
712.627	2.92
712.807	2.97
712.988	3.11
713.168	3.07
713.349	3.05
713.53	3.02
713.71	3.24
713.891	3.27
714.071	3.29
714.252	3.4
714.432	3.37
714.613	3.37
714.793	3.55
714.974	3.62
715.154	3.75
715.334	3.76
715.515	3.74
715.695	3.74
715.876	3.82
716.056	3.96
716.236	3.9
716.417	4.16
716.597	3.98
716.777	4.46
716.957	4.19
717.138	4.27
717.318	4.33
717.498	4.46
717.678	4.55
717.859	4.5
718.039	4.48
718.219	4.69
718.399	4.82
718.579	4.83
718.759	4.9
718.939	5.04
719.12	5.06
719.3	5.15
719.48	5.1
719.66	5.13
719.84	5.47
720.02	5.45
720.2	5.48
720.38	5.71
720.56	5.84
720.74	5.64
720.92	5.88
721.1	6.1
721.279	6.13
721.459	6.25
721.639	6.27
721.819	6.24
721.999	6.38
722.179	6.52
722.359	6.26
722.538	6.75
722.718	6.8
722.898	6.79
723.078	6.94
723.257	7.12
723.437	7.14
723.617	7.3
723.797	7.22
723.976	7.48
724.156	7.68
724.336	7.82
724.515	8.12
724.695	7.95
724.874	8.1
725.054	8.21
725.234	8.12
725.413	8.4
725.593	8.34
725.772	8.45
725.952	8.78
726.131	8.75
726.311	8.88
726.49	8.96
726.67	8.97
726.849	9.33
727.028	9.39
727.208	9.15
727.387	9.5
727.567	9.72
727.746	9.76
727.925	9.89
728.105	9.93
728.284	10
728.463	10.04
728.643	10.25
728.822	10.28
729.001	10.39
729.18	10.77
729.359	10.78
729.539	11.07
729.718	10.85
729.897	11.13
730.076	11.2
730.255	11.17
730.434	11.49
730.614	11.79
730.793	11.91
730.972	11.83
731.151	12
731.33	12.09
731.509	12.21
731.688	12.04
731.867	12.51
732.046	12.3
732.225	12.83
732.404	12.55
732.583	12.85
732.762	13.23
732.941	13.24
733.12	13.51
733.298	13.43
733.477	13.81
733.656	13.66
733.835	13.81
734.014	14.02
734.193	14.03
734.371	14.39
734.55	14.23
734.729	14.18
734.908	14.24
735.086	14.74
735.265	14.84
735.444	14.45
735.623	15
735.801	15.21
735.98	15.21
736.159	15.17
736.337	15.23
736.516	15.38
736.694	15.21
736.873	15.48
737.052	15.74
737.23	15.55
737.409	15.52
737.587	15.9
737.766	15.57
737.944	15.74
738.123	16
738.301	15.95
738.479	15.98
738.658	16.05
738.836	15.75
739.015	15.68
739.193	15.63
739.371	15.58
739.55	15.16
739.728	15.22
739.906	15.47
740.085	15.27
740.263	15.08
740.441	14.58
740.62	15.15
740.798	14.62
740.976	14.46
741.154	13.92
741.332	14.45
741.511	13.71
741.689	13.71
741.867	13.7
742.045	13.23
742.223	12.72
742.401	12.53
742.579	12.4
742.757	12.56
742.935	11.91
743.114	11.71
743.292	11.69
743.47	11.18
743.648	11.29
743.826	11.03
744.004	10.58
744.181	10.37
744.359	9.91
744.537	9.82
744.715	9.4
744.893	9.33
745.071	9.13
745.249	8.82
745.427	8.34
745.605	8.2
745.782	8.12
745.96	7.95
746.138	7.78
746.316	7.55
746.493	6.98
746.671	6.87
746.849	6.66
747.027	6.7
747.204	6.31
747.382	6.35
747.56	5.67
747.737	5.71
747.915	5.66
748.093	5.52
748.27	5.25
748.448	5.17
748.625	4.77
748.803	4.77
748.98	4.45
749.158	4.42
749.335	4.31
749.513	4.15
749.69	4
749.868	4.05
750.045	3.89
750.223	3.8
750.4	3.42
750.578	3.76
750.755	3.56
750.932	3.21
751.11	3.44
751.287	2.99
751.464	3.18
751.642	2.91
751.819	3.01
751.996	2.81
752.173	2.66
752.351	2.51
752.528	2.68
752.705	2.35
752.882	2.38
753.06	2.39
753.237	2.31
753.414	2.48
753.591	2.25
753.768	2.15
753.945	1.95
754.122	2.01
754.299	1.94
754.476	1.72
754.654	1.98
754.831	1.9
755.008	1.66
755.185	1.63
755.362	1.54
755.539	1.61
755.716	1.44
755.892	1.49
756.069	1.48
756.246	1.43
756.423	1.3
756.6	1.56
756.777	1.12
756.954	1.36
757.131	1.16
757.307	1.06
757.484	1.15
757.661	1.22
757.838	1.13
758.015	1.09
758.191	1.04
758.368	1.11
758.545	1.15
758.721	1.01
758.898	0.72
759.075	0.97
759.251	0.88
759.428	0.97
759.605	0.82
759.781	0.8
759.958	0.8
760.134	0.98
760.311	0.73
760.488	0.93
760.664	0.85
760.841	0.69
761.017	0.59
761.194	0.75
761.37	0.65
761.547	0.68
761.723	0.59
761.899	0.75
762.076	0.55
762.252	0.62
762.429	0.48
762.605	0.59
762.781	0.51
762.958	0.58
763.134	0.39
763.31	0.42
763.486	0.69
763.663	0.3
763.839	0.46
764.015	0.26
764.191	0.5
764.368	0.46
764.544	0.4
764.72	0.45
764.896	0.5
765.072	0.44
765.248	0.35
765.425	0.28
765.601	0.21
765.777	0.34
765.953	0.32
766.129	0.32
766.305	0.34
766.481	0.39
766.657	0.36
766.833	0.42
767.009	0.15
767.185	0.24
767.361	0.35
767.537	0.19
767.713	0.41
767.889	0.24
768.065	0.27
768.24	0.1
768.416	0.41
768.592	0.31
768.768	0.18
768.944	0.42
769.12	0.18
769.295	0.15
769.471	0.27
769.647	0.22
769.823	0.38
769.998	0.1
770.174	0.08
770.35	0.6
770.525	0.45
770.701	0.24
770.877	0.34
771.052	0.08
771.228	0.42
771.403	0.3
771.579	0.34
771.755	0.41
771.93	0.08
772.106	0.11
772.281	-0.02
772.457	0.34
772.632	0.26
772.808	0.15
772.983	0.16
773.159	-0.02
773.334	0.46
773.509	0.18
773.685	0.14
773.86	0.53
774.036	0.42
774.211	0.24
774.386	0.01
774.562	0.21
774.737	0.19
774.912	-0.01
775.087	0.23
775.263	0.25
775.438	0.17
775.613	0.19
775.788	0.1
775.964	0.32
776.139	0.44
776.314	0.14
776.489	0.2
776.664	0.36
776.839	0.05
777.014	0.19
777.19	0.34
777.365	0.11
777.54	0.38
777.715	0.08
777.89	0.09
778.065	0.01
778.24	0.23
778.415	0.37
778.59	0.03
778.765	-0.04
778.94	0.2
779.115	0.07
779.289	0.02
779.464	0.07
779.639	0.14
779.814	-0.02
779.989	0.02
780.164	0.16
780.339	0.24
780.513	-0.01
780.688	-0.06
780.863	0.25
781.038	0.23
781.212	-0.01
781.387	0.08
781.562	0.36
781.737	-0.04
781.911	0.21
782.086	0.04
782.261	0.11
782.435	0.22
782.61	0.09
782.784	-0.07
782.959	0.3
783.134	0.08
783.308	-0.01
783.483	0.14
783.657	0.48
783.832	0.3
784.006	-0.25
784.181	0.28
784.355	0.45
784.53	-0.06
784.704	-0.16
784.878	0.43
785.053	0.29
785.227	0.47
785.402	0.3
785.576	-0.13
785.75	0.07
785.925	0.15
786.099	0.09
786.273	0.04
786.448	0.3
786.622	0.33
786.796	0.06
786.97	0.12
787.145	0.59
787.319	-0.19
787.493	0.15
787.667	-0.31
787.841	0.11
788.015	0.33
788.19	0.04
788.364	0.18
788.538	0.32
788.712	0.34
788.886	0.03
789.06	0.26
789.234	0.31
789.408	-0.04
789.582	0.11
789.756	0.13
789.93	-0.15
790.104	0.1
790.278	0.04
790.452	0.09
790.626	0.09
790.8	-0
790.973	0.24
791.147	0.43
791.321	0.34
791.495	0.41
791.669	0.11
791.843	0.07
792.016	0.24
792.19	0.84
792.364	-0.11
792.538	0.6
792.711	0.19
792.885	0.17
793.059	-0.05
793.233	-0.27
793.406	0.27
793.58	0.23
793.754	0.12
793.927	-0.02
794.101	0.51
794.274	0.22
794.448	0.12
794.622	-0.09
794.795	0.4
794.969	0.04
795.142	0.34
795.316	0.06
795.489	-0.12
795.663	0.48
795.836	0.11
796.009	-0.08
796.183	0.41
796.356	0.34
796.53	0.17
796.703	0.09
796.876	0.65
797.05	0.07
797.223	-0.23
797.396	0.19
797.57	0.07
797.743	0.73
797.916	0.25
798.09	0.03
798.263	0.55
798.436	0.06
798.609	0.05
798.782	0.15
798.956	0.21
799.129	0.1
799.302	0.09
799.475	0.13
799.648	-0.07
799.821	0.12
799.994	0.12
800.167	-0.25
800.34	0.03
800.514	0.2
800.687	0.11
800.86	0.12
801.033	-0.11
801.206	-0.01
801.379	0.09
801.551	0.34
801.724	0.39
801.897	0.69
802.07	0.19
802.243	-0.31
802.416	-0.06
802.589	0.1
802.762	0.36
802.935	0.24
803.107	0.28
803.28	0.64
803.453	0.27
803.626	0.14
803.798	0.12
803.971	-0.06
804.144	0.47
804.317	0.31
804.489	0.55
804.662	-0.06
804.835	0.31
805.007	-0.29
805.18	0.89
805.353	0.17
805.525	0.08
805.698	-0.22
805.87	0.3
806.043	0.21
806.215	-0.11
806.388	0.09
806.56	0.2
806.733	0.38
806.905	0.34
807.078	0
807.25	0.07
807.423	0.34
807.595	0.19
807.768	0.31
807.94	0.24
808.112	0.4
808.285	0.07
808.457	-0.11
808.629	0.38
808.802	0.46
808.974	0.58
809.146	0.19
809.318	-0.2
809.491	0.2
809.663	0.32
809.835	0.05
810.007	0.28
810.18	0.15
810.352	-0.22
810.524	0.41
810.696	0.16
810.868	0.58
811.04	-0.1
811.212	-0.29
811.384	0.55
811.556	0.31
811.728	-0.01
811.901	0.8
812.073	0.29
812.245	0.48
812.417	0.33
812.589	-0.19
812.76	0.1
812.932	0.19
813.104	0.46
813.276	-0.16
813.448	0.59
813.62	0.14
813.792	0.19
813.964	0.44
814.136	0.21
814.307	-0.27
814.479	-0.19
814.651	-0.12
814.823	1.03
814.995	-0.01
815.166	0.28
815.338	0.07
815.51	-0.43
815.681	1.02
815.853	-0.08
816.025	0.2
816.196	0.81
816.368	0.27
816.54	-0.37
816.711	0.03
816.883	0.44
817.054	1.1
817.226	-0.37
817.398	0.21
817.569	0.39
817.741	0.28
817.912	-0.02
818.084	0.28
818.255	0.46
818.426	0.07
818.598	0.24
818.769	-0.15
818.941	0.25
819.112	0.94
819.283	0.3
819.455	-0.25
819.626	-0.07
819.798	0.29
819.969	0.26
820.14	0.36
820.311	0.05
820.483	0.53
820.654	0.34
820.825	0.1
820.996	-0.27
821.168	-0.21
821.339	0.24
821.51	0.06
821.681	1.06
821.852	0.44
822.023	0.25
822.195	-0.31
822.366	0.41
822.537	0.26
822.708	0.36
822.879	0.15
823.05	0.79
823.221	0.5
823.392	0.62
823.563	0.51
823.734	0.19
823.905	-0.11
824.076	0.01
824.247	-0.37
824.418	0.33
824.589	0.64
824.759	0.12
824.93	0.33
825.101	-0.43
825.272	1
825.443	1.25
825.614	0.6
825.784	-0.46
825.955	1.75
826.126	0.95
826.297	0.18
826.467	0.86
826.638	0.43
826.809	-0.87
826.98	0.21
827.15	0.44
827.321	0.17
827.492	0.76
827.662	0.48
827.833	1.09
828.003	0.52
828.174	-0.81
828.345	-0.48
828.515	0.21
828.686	0.37
828.856	-0.12
829.027	0.48
829.197	-0.11
829.368	0.1
829.538	-0.18
829.709	-0.06
829.879	0.2
830.049	0.28
830.22	0.17
830.39	0.66
830.56	0.38
830.731	0.22
830.901	-0.62
831.072	0.22
831.242	0.33
831.412	0.46
831.582	0.51
831.753	-0.3
831.923	0.6
832.093	-0.02
832.263	0.61
832.434	-0.03
832.604	0.22
832.774	0.14
832.944	0.16
833.114	0.01
833.284	0.22
833.454	-0.24
833.624	0.17
833.795	0.01
833.965	0.49
834.135	0.99
834.305	-0.57
834.475	-0.67
834.645	0.46
834.815	-0.21
834.985	-0.29
835.155	-0.36
835.325	0.15
835.494	0.57
835.664	0.23
835.834	0
836.004	0.68
836.174	0.3
836.344	0.4
836.514	-0.07
836.684	0.33
836.853	-0.21
837.023	0.55
837.193	0.01
837.363	0.77
837.532	1
837.702	0.31
837.872	0.13
838.041	0.45
838.211	1.38
838.381	-0.42
838.55	0.39
838.72	1.48
838.89	1.13
839.059	-0.15
839.229	-0.07
839.398	1.53
839.568	0.3
839.738	0.78
839.907	0.94
840.077	0.33
840.246	-0.72
840.416	-0.84
840.585	-0.66
840.755	0.57
840.924	0.97
841.093	-0.75
841.263	-0.17
841.432	0.77
841.602	-0.4
841.771	0.35
841.94	0.9
842.11	1.87
842.279	2
842.448	-0.57
842.617	-0.82
842.787	0.74
842.956	-0.89
843.125	-0.28
843.294	0.26
843.464	1.42
843.633	0.65
843.802	-0.66
843.971	0.43
844.14	0.8
844.309	1.35
844.479	-1.16
844.648	-0.85
844.817	-0.6
844.986	0.45
845.155	-0.25
845.324	0.59
845.493	0.04
845.662	-0.25
845.831	1.54
846	0.93
846.169	0.5
846.338	1.26
846.507	0.86
846.676	0.24
846.844	0.38
847.013	1.32
847.182	0.59
847.351	-0.81
847.52	0.5
847.689	-0.2
847.858	0.13
848.026	-0.21
848.195	0.13
848.364	0.21
848.533	-0.34
848.701	-0.17
848.87	0.98
849.039	1.57
849.207	0.84
849.376	1.71
849.545	2.06
849.713	0.14
849.882	-0.23
850.051	-0.03
850.219	0.44
850.388	0.6
850.556	0.23
850.725	0.13
850.893	1.35
851.062	0.34
851.23	0.88
851.399	0.11
851.567	0.64
851.736	0.2
851.904	-0.38
852.073	1.14
852.241	1.95
852.41	0.26
852.578	0.06
852.746	-0.25
852.915	0.65
853.083	0.48
853.251	-0.68
853.42	0.25
853.588	0.84
853.756	1.77
853.924	0.84
854.093	0.43
854.261	0.55
854.429	-1.15
854.597	0.97
854.765	-1.74
854.934	0.77
855.102	0.99
855.27	0.23
855.438	1.07
855.606	1.76
855.774	1.47
855.942	-0.28
856.11	-0.49
856.278	0.69
856.446	1.27
856.614	0.7
856.782	0.04
856.95	1.91
857.118	1.65
857.286	0.27
857.454	-0.76
857.622	2.21
857.79	-0.77
857.958	-0.62
858.126	-0.36
858.294	-2.24
858.462	0.73
858.629	-0.09
858.797	0.22
858.965	1.79
859.133	0.7
859.301	1.02
859.468	1.73
859.636	0.34
859.804	2.74
859.971	1.47
860.139	-0.42
860.307	1.26
860.474	1.1
860.642	0.05
860.81	0.78
860.977	0.34
861.145	2.04
861.313	0.71
861.48	-0.75
861.648	1.22
861.815	0.36
861.983	-1.1
862.15	-0.02
862.318	0.44
862.485	0.78
862.653	0.19
862.82	-0.51
862.988	1.37
863.155	3.32
863.322	-0.55
863.49	-0.13
863.657	-1.09
863.824	2.16
863.992	0.46
864.159	1.44
864.326	1.57
864.494	0.58
864.661	4.81
864.828	-0.55
864.996	2.58
865.163	2.44
865.33	0.1
865.497	-0.75
865.664	0.16
865.832	-1.23
865.999	-0.26
866.166	-0.39
866.333	0.36
866.5	-0.31
866.667	0.32
866.834	-0.26
867.001	2.69
867.168	0.5
867.335	1.25
867.502	-2.1
867.669	1.98
867.836	2.38
868.003	-0.05
868.17	0.29
868.337	2.37
868.504	2.52
868.671	-0.27
868.838	-0.1
869.005	0.7
869.172	0.77
869.339	-1.25
869.505	-0.03
869.672	0.94
869.839	0.54
870.006	1.66
870.173	-2.6
870.339	1.87
870.506	3.13
870.673	0.12
870.84	1.17
871.006	1.69
871.173	1.25
871.34	0.42
871.506	0.17
871.673	2.12
871.839	0.01
872.006	0.69
872.173	1.3
872.339	0.98
872.506	2.11
872.672	-0.13
872.839	-0.18
873.005	0.49
873.172	2.42
873.338	2.97
873.505	1.48
873.671	2.68
873.838	0.48
874.004	-0.98
874.171	0.19
874.337	0.96
874.503	1.9
874.67	1.62
874.836	-0.36
875.002	2.53
875.169	2.68
875.335	0.77
875.501	-0.91
875.668	2.61
875.834	1.62
876	0.81
876.166	3.53
876.332	1.96
876.499	5.28
876.665	1.02
876.831	2.87
876.997	3.9
877.163	2.96
877.329	1.47
877.495	0.55
877.662	3.12
877.828	2.17
877.994	0.52
878.16	0.04
878.326	-0.12
878.492	2.58
878.658	0.64
878.824	2.38
878.99	3.33
879.156	1.98
879.322	3.44
879.487	-0.27
879.653	-0.12
879.819	3.19
879.985	0.01
880.151	2.08
880.317	3.28
880.483	2.32
880.648	2.83
880.814	-1.39
880.98	2.31
881.146	0.93
881.312	1.53
881.477	1.51
881.643	2.11
881.809	2.83
881.974	1.45
882.14	-0.99
882.306	1.17
882.471	4.58
882.637	0.23
882.803	1.84
882.968	5.8
883.134	4.08
883.299	1.6
883.465	0.25
883.63	2.71
883.796	2.99
883.961	1.25
884.127	1.53
884.292	-2.26
884.458	-0.22
884.623	-0.22
