Data from Apollo_Calib_20240827__AbsoluteIrradiance__568__08-37-02-666.txt Node

Date: Wed Aug 28 08:37:02 BST 2024
User: biology
Spectrometer: FLMT08252
Trigger mode: 0
Integration Time (sec): 5.000000E-1
Scans to average: 5
Electric dark correction enabled: true
Nonlinearity correction enabled: false
Boxcar width: 0
XAxis mode: Wavelengths
Number of Pixels in Spectrum: 3648
>>>>>Begin Spectral Data<<<<<
179.588	-0
179.809	-0
180.03	-0
180.251	-0
180.473	-0
180.694	0
180.915	0
181.136	-0
181.357	0
181.578	-0
181.799	0
182.02	-0
182.241	-0
182.462	-0
182.683	0
182.904	0
183.125	-0
183.346	0
183.567	0
183.788	-0
184.009	-0
184.23	0
184.451	0
184.672	0
184.892	-0
185.113	0
185.334	0
185.555	-0
185.776	0
185.996	0
186.217	-0
186.438	0
186.659	-0
186.879	0
187.1	0
187.321	-0
187.541	0
187.762	0
187.983	0
188.203	0
188.424	0
188.644	0
188.865	0
189.086	0
189.306	0
189.527	0
189.747	0
189.968	-0
190.188	0
190.409	0
190.629	0
190.849	-0
191.07	-0
191.29	0
191.511	0
191.731	-0
191.951	0
192.172	0
192.392	0
192.612	0
192.833	0
193.053	0
193.273	0
193.493	-0
193.714	-0
193.934	0
194.154	0
194.374	0
194.594	0
194.815	0
195.035	0
195.255	0
195.475	-0
195.695	0
195.915	0
196.135	0
196.355	0
196.575	0
196.795	0
197.015	-0
197.235	-0
197.455	-0
197.675	0
197.895	0
198.115	-0
198.335	0
198.555	-0
198.775	0
198.995	0
199.214	0
199.434	-0
199.654	-0
199.874	-0
200.094	0.67
200.313	-0.09
200.533	-0.02
200.753	-1.13
200.973	1.08
201.192	1.57
201.412	-0.52
201.632	-0.12
201.851	1.03
202.071	-0.34
202.291	-0
202.51	-0.16
202.73	0.66
202.95	0.27
203.169	0.05
203.389	0.05
203.608	0.44
203.828	-0.4
204.047	-0.24
204.267	0.5
204.486	-0.09
204.706	0.06
204.925	0.26
205.145	-0.08
205.364	0.74
205.583	0.43
205.803	-0.21
206.022	-0.56
206.242	0.12
206.461	-0.23
206.68	-0.19
206.9	0.35
207.119	0.59
207.338	0.5
207.557	-0.23
207.777	0.12
207.996	-0.09
208.215	0.25
208.434	0.12
208.654	-0.29
208.873	-0.13
209.092	0.62
209.311	0.22
209.53	0.06
209.749	0.03
209.968	-0.22
210.187	0.1
210.407	-0.07
210.626	0.04
210.845	0.38
211.064	0.19
211.283	0.03
211.502	0.35
211.721	-0.04
211.94	-0.02
212.159	0.34
212.377	0.23
212.596	0.39
212.815	-0.08
213.034	0.11
213.253	0.31
213.472	-0.07
213.691	-0.02
213.91	-0.18
214.128	-0.08
214.347	0.41
214.566	-0.29
214.785	-0.21
215.003	0.3
215.222	0.2
215.441	0.13
215.66	-0.25
215.878	-0.01
216.097	0.35
216.316	0.1
216.534	0.18
216.753	0.16
216.972	-0.04
217.19	0.02
217.409	-0.15
217.627	-0.17
217.846	-0.07
218.064	0.15
218.283	0.14
218.501	0.48
218.72	0.24
218.938	-0.1
219.157	-0.05
219.375	0.43
219.594	0.15
219.812	-0.23
220.031	-0.11
220.249	0.34
220.467	0.16
220.686	-0.07
220.904	-0.11
221.122	-0.09
221.341	0.43
221.559	0.11
221.777	-0.01
221.995	0.15
222.214	0.23
222.432	-0.09
222.65	0.27
222.868	-0
223.086	0.1
223.305	0.12
223.523	-0.04
223.741	0.26
223.959	-0.26
224.177	-0.1
224.395	-0
224.613	0.03
224.831	0.17
225.049	-0.13
225.267	0.04
225.485	-0.01
225.703	0.09
225.921	-0.03
226.139	-0.04
226.357	0.23
226.575	0.12
226.793	-0.07
227.011	0.46
227.229	0.05
227.447	0.17
227.665	-0.04
227.883	-0.1
228.1	0.11
228.318	0.11
228.536	-0.12
228.754	-0.02
228.972	0.06
229.189	0.12
229.407	0.03
229.625	0.07
229.843	0.31
230.06	0.05
230.278	-0.03
230.496	0.01
230.713	0.2
230.931	-0.17
231.149	-0.06
231.366	-0.09
231.584	0.01
231.801	0.29
232.019	0.02
232.236	-0.01
232.454	-0.15
232.671	0.11
232.889	0.05
233.106	-0.09
233.324	0.03
233.541	0.13
233.759	0.08
233.976	-0.05
234.194	0.14
234.411	0.06
234.628	-0.17
234.846	-0.1
235.063	0.02
235.28	-0.01
235.498	0.03
235.715	-0.14
235.932	0.3
236.149	0.04
236.367	-0
236.584	0.14
236.801	0.01
237.018	0.14
237.236	0.09
237.453	-0.18
237.67	0.1
237.887	-0.05
238.104	-0.04
238.321	-0.12
238.538	0.01
238.755	0.08
238.973	-0.19
239.19	0.09
239.407	0.05
239.624	0.04
239.841	-0.1
240.058	0.05
240.275	0.03
240.492	-0.06
240.709	-0.01
240.925	0.02
241.142	0.06
241.359	-0.13
241.576	-0.02
241.793	0.03
242.01	0.03
242.227	0.05
242.444	0.01
242.66	0.06
242.877	0.04
243.094	0.03
243.311	0.09
243.527	0.06
243.744	0.11
243.961	0.21
244.178	-0.07
244.394	0.04
244.611	0.11
244.828	0.18
245.044	-0.08
245.261	-0.05
245.477	0.09
245.694	-0.01
245.911	-0.01
246.127	-0.01
246.344	0.12
246.56	0.05
246.777	0.02
246.993	0.05
247.21	0.07
247.426	0.13
247.643	0.01
247.859	-0.14
248.076	-0.09
248.292	0.15
248.508	0.04
248.725	0.06
248.941	0.03
249.157	0.12
249.374	0.01
249.59	-0.04
249.806	0
250.023	0.11
250.239	-0.08
250.455	0.05
250.671	0.05
250.888	0.1
251.104	0.05
251.32	0.03
251.536	0.04
251.752	0.04
251.969	0.05
252.185	0.06
252.401	0.2
252.617	0.12
252.833	-0.02
253.049	0.03
253.265	0.07
253.481	0.07
253.697	-0.01
253.913	-0.06
254.129	0.04
254.345	0.06
254.561	0.01
254.777	-0.02
254.993	0.09
255.209	0.02
255.425	-0.03
255.641	-0.02
255.857	0.04
256.073	0.08
256.288	-0.07
256.504	-0.03
256.72	-0.03
256.936	0.19
257.152	0.01
257.367	0.01
257.583	-0.01
257.799	0.1
258.015	-0.07
258.23	-0.02
258.446	0.16
258.662	0.01
258.877	-0.07
259.093	-0.06
259.309	0.07
259.524	0.06
259.74	0.02
259.955	-0.08
260.171	-0.04
260.387	0.01
260.602	0.09
260.818	0.04
261.033	-0.04
261.249	-0.02
261.464	-0
261.68	-0.07
261.895	-0.02
262.11	0.05
262.326	-0.02
262.541	-0.09
262.757	0.09
262.972	0.06
263.187	0.05
263.403	0.02
263.618	0.12
263.833	0.04
264.049	-0.06
264.264	0.07
264.479	0.1
264.694	0.07
264.91	-0.11
265.125	0.01
265.34	0.07
265.555	0.13
265.77	0.06
265.986	-0.04
266.201	0.09
266.416	0.14
266.631	-0.03
266.846	0.01
267.061	0.01
267.276	0.05
267.491	-0.08
267.706	-0.03
267.921	0.06
268.136	0.04
268.351	0.03
268.566	-0.02
268.781	0.12
268.996	0.11
269.211	0.01
269.426	-0.07
269.641	-0.03
269.856	0.09
270.071	-0.04
270.285	-0.05
270.5	0.14
270.715	0.07
270.93	0.01
271.145	-0.02
271.359	0.02
271.574	-0.05
271.789	0.01
272.004	-0
272.218	-0.02
272.433	0.11
272.648	0.01
272.862	0.09
273.077	0
273.292	0.06
273.506	-0.02
273.721	0.03
273.936	0.02
274.15	0.07
274.365	-0
274.579	0.04
274.794	0.01
275.008	0.05
275.223	-0.11
275.437	0
275.652	-0.01
275.866	0.08
276.081	0.04
276.295	0.01
276.509	0.02
276.724	0.05
276.938	0.05
277.153	0.06
277.367	0.11
277.581	-0
277.796	-0.05
278.01	-0.04
278.224	0.08
278.438	0.12
278.653	-0
278.867	0.03
279.081	-0.09
279.295	-0
279.51	0.06
279.724	-0.07
279.938	0.1
280.152	0.06
280.366	0.02
280.58	0.03
280.794	0.03
281.008	0.03
281.222	0.06
281.437	0.12
281.651	0.01
281.865	0.08
282.079	0.01
282.293	-0.06
282.507	0
282.721	0.03
282.935	0.04
283.148	-0.03
283.362	-0.03
283.576	-0.06
283.79	0.02
284.004	0.01
284.218	0.03
284.432	-0.01
284.646	0.01
284.859	-0.01
285.073	0.03
285.287	0.01
285.501	-0.02
285.714	-0.02
285.928	0.04
286.142	0.02
286.356	0.02
286.569	0.01
286.783	0.07
286.997	0.03
287.21	0.04
287.424	0
287.637	0.01
287.851	-0.01
288.065	0.03
288.278	-0.02
288.492	0.01
288.705	0.02
288.919	0.05
289.132	-0.04
289.346	0.04
289.559	-0.06
289.773	0
289.986	0.02
290.2	0.01
290.413	0.05
290.626	-0.01
290.84	0.02
291.053	0.06
291.267	0.11
291.48	0
291.693	0.08
291.906	0.02
292.12	0.01
292.333	-0.04
292.546	0.03
292.76	0.1
292.973	0.02
293.186	0.01
293.399	-0.02
293.612	0.09
293.826	0.04
294.039	0
294.252	0.04
294.465	0.05
294.678	0.02
294.891	0.07
295.104	-0.04
295.317	0.01
295.53	0.01
295.743	-0.02
295.956	0.01
296.169	0.07
296.382	0.06
296.595	-0
296.808	-0.02
297.021	0.05
297.234	0.05
297.447	0.02
297.66	0.06
297.873	0.1
298.086	0.03
298.299	-0.04
298.511	-0.05
298.724	-0.01
298.937	-0.03
299.15	-0.02
299.363	0.03
299.575	0.05
299.788	0.05
300.001	-0.03
300.213	-0.02
300.426	0.02
300.639	-0.01
300.852	-0.01
301.064	0.07
301.277	0.07
301.489	0.03
301.702	0.02
301.915	0.05
302.127	-0.02
302.34	0.07
302.552	0.04
302.765	0.02
302.977	0
303.19	-0.02
303.402	0.01
303.615	0
303.827	0
304.04	0.04
304.252	0.07
304.464	0.03
304.677	0.08
304.889	0.05
305.102	-0.02
305.314	-0.03
305.526	0.07
305.739	0.04
305.951	0.03
306.163	0.01
306.375	0.07
306.588	-0.01
306.8	-0.01
307.012	-0.03
307.224	0.05
307.436	0.09
307.649	-0.03
307.861	0.04
308.073	0.06
308.285	0.02
308.497	0.01
308.709	0.02
308.921	0.04
309.133	0.1
309.346	0.03
309.558	0.01
309.77	0.06
309.982	0.05
310.194	0.09
310.406	0.03
310.617	0.08
310.829	0.05
311.041	0.06
311.253	-0.03
311.465	0
311.677	0.02
311.889	-0.01
312.101	0.02
312.313	0.06
312.524	0.04
312.736	-0.02
312.948	-0.02
313.16	0.07
313.372	0.04
313.583	-0.01
313.795	0.01
314.007	-0.04
314.218	0.03
314.43	0.06
314.642	-0.02
314.853	0.01
315.065	0.01
315.277	0.06
315.488	0.02
315.7	0.03
315.912	0.06
316.123	-0.01
316.335	-0
316.546	0.1
316.758	0.02
316.969	-0.02
317.181	0.04
317.392	0.02
317.604	0.07
317.815	-0.01
318.026	0.01
318.238	-0
318.449	0.02
318.661	-0.06
318.872	-0.06
319.083	-0.03
319.295	0.04
319.506	-0
319.717	0.03
319.929	0.05
320.14	0.02
320.351	0.03
320.562	0.01
320.774	0.05
320.985	0.02
321.196	-0
321.407	-0.05
321.618	0.07
321.829	0.03
322.041	0.04
322.252	0.04
322.463	0.03
322.674	0.01
322.885	-0
323.096	-0.01
323.307	0.01
323.518	0.03
323.729	0
323.94	-0.01
324.151	-0.02
324.362	0.05
324.573	0.01
324.784	0.01
324.995	0.05
325.206	0.03
325.417	0
325.628	0
325.838	-0.04
326.049	0
326.26	0.03
326.471	-0.01
326.682	0.06
326.892	-0.03
327.103	-0.05
327.314	-0.06
327.525	0.09
327.735	0.01
327.946	0.04
328.157	-0.01
328.368	0.03
328.578	0.03
328.789	0.06
328.999	-0
329.21	0.03
329.421	-0.01
329.631	-0.04
329.842	-0.03
330.052	0.03
330.263	0.01
330.473	0.06
330.684	-0.02
330.894	-0.03
331.105	0.02
331.315	0.01
331.526	-0.06
331.736	0.07
331.947	0.05
332.157	-0
332.367	-0.02
332.578	0.03
332.788	0.06
332.999	0.05
333.209	0
333.419	-0.04
333.629	0.04
333.84	0.03
334.05	-0.01
334.26	0.09
334.47	0.01
334.681	0.06
334.891	0.02
335.101	0.05
335.311	0.08
335.521	0.04
335.732	0
335.942	0.04
336.152	0.04
336.362	0.02
336.572	0.05
336.782	0.05
336.992	0
337.202	0.02
337.412	-0.05
337.622	0.04
337.832	0.04
338.042	0.03
338.252	-0.03
338.462	0.02
338.672	0.03
338.882	0.06
339.092	-0.06
339.302	0.11
339.511	0.02
339.721	-0.01
339.931	-0.03
340.141	0.01
340.351	0.05
340.561	0.04
340.77	-0.01
340.98	-0.01
341.19	0.01
341.4	-0.01
341.609	-0.05
341.819	0
342.029	-0.02
342.238	0.08
342.448	-0.03
342.658	0.03
342.867	0.04
343.077	0.03
343.286	0.05
343.496	-0.02
343.706	0.08
343.915	-0.03
344.125	0.03
344.334	0.03
344.544	-0.04
344.753	0.01
344.963	0.01
345.172	-0
345.381	-0.01
345.591	0.01
345.8	0
346.01	0.05
346.219	0.05
346.428	-0.11
346.638	-0.01
346.847	0.04
347.056	0.1
347.266	-0.03
347.475	-0.01
347.684	0.01
347.893	0.06
348.103	0.03
348.312	-0.01
348.521	0.03
348.73	-0.01
348.94	0
349.149	0
349.358	-0
349.567	0.02
349.776	-0.05
349.985	0.01
350.194	0.08
350.403	0.09
350.612	-0.04
350.821	0
351.03	0.01
351.239	-0.03
351.448	-0.01
351.657	0
351.866	0.09
352.075	0.01
352.284	0.01
352.493	-0.03
352.702	0.01
352.911	0.04
353.12	-0
353.329	-0.02
353.538	0.04
353.746	-0.01
353.955	-0.03
354.164	0.03
354.373	0.03
354.582	0.04
354.79	0.01
354.999	0.04
355.208	0
355.416	0.07
355.625	-0.04
355.834	0.06
356.042	0.03
356.251	-0.02
356.46	-0.02
356.668	0.02
356.877	0.09
357.085	0.04
357.294	-0.03
357.503	0.04
357.711	-0
357.92	0.13
358.128	0.01
358.337	0.03
358.545	0.02
358.754	-0.02
358.962	0.02
359.17	-0.02
359.379	0.04
359.587	0.04
359.796	0.03
360.004	0.07
360.212	0.04
360.421	0.04
360.629	-0.01
360.837	-0.07
361.046	0.01
361.254	0.12
361.462	0.06
361.67	-0.04
361.879	0.02
362.087	0.06
362.295	0.01
362.503	-0.02
362.711	-0.04
362.92	-0.01
363.128	-0.01
363.336	-0.02
363.544	-0.05
363.752	0
363.96	0.04
364.168	-0.04
364.376	0.03
364.584	-0.01
364.792	0.04
365	0.01
365.208	0.03
365.416	0.05
365.624	0.05
365.832	-0.01
366.04	0.06
366.248	0.04
366.456	0.01
366.664	0.04
366.872	0.02
367.079	0.02
367.287	0.04
367.495	0.02
367.703	0.02
367.911	0.03
368.118	-0
368.326	-0
368.534	-0.01
368.742	0.09
368.949	-0.06
369.157	0.02
369.365	0.02
369.572	-0.01
369.78	-0.02
369.988	0.07
370.195	0.04
370.403	0.04
370.61	0
370.818	-0
371.026	0.06
371.233	-0
371.441	0.01
371.648	-0.01
371.856	0.06
372.063	-0.01
372.271	0.04
372.478	-0.01
372.685	-0.03
372.893	0.07
373.1	0.03
373.308	-0.02
373.515	0.04
373.722	0.01
373.93	-0
374.137	0.03
374.344	0.03
374.552	0.07
374.759	0
374.966	0.02
375.173	0
375.381	0.06
375.588	-0.01
375.795	-0.06
376.002	-0.01
376.209	-0.03
376.417	0
376.624	0.01
376.831	0.03
377.038	0.02
377.245	-0.06
377.452	0.01
377.659	0.03
377.866	-0.03
378.073	-0.02
378.28	0
378.487	0.04
378.694	0.04
378.901	0.04
379.108	0
379.315	0.07
379.522	0.06
379.729	0.04
379.936	0.01
380.143	0.03
380.35	0.05
380.557	0.03
380.763	0
380.97	-0
381.177	0
381.384	-0.01
381.591	-0.03
381.797	0
382.004	0.02
382.211	0.02
382.418	-0.02
382.624	0.04
382.831	0.06
383.038	0.01
383.244	0.04
383.451	0
383.658	0.02
383.864	0.03
384.071	0.02
384.277	0.05
384.484	-0.03
384.69	0.05
384.897	-0.01
385.103	-0.01
385.31	0.01
385.516	0
385.723	-0.01
385.929	0.02
386.136	0.01
386.342	0.03
386.549	0.03
386.755	0.05
386.961	0.03
387.168	0
387.374	-0.02
387.58	0.02
387.787	-0.01
387.993	-0
388.199	-0
388.406	0
388.612	-0
388.818	0.02
389.024	-0.01
389.231	0.02
389.437	0.06
389.643	0.05
389.849	-0.02
390.055	0.04
390.261	0.03
390.467	0.05
390.674	0
390.88	-0.01
391.086	0.07
391.292	-0.05
391.498	0.02
391.704	-0
391.91	0.01
392.116	0.03
392.322	-0.06
392.528	0.02
392.734	0.02
392.94	-0.01
393.146	-0.01
393.352	-0.03
393.557	0.01
393.763	-0
393.969	0.03
394.175	-0.03
394.381	0.02
394.587	-0.03
394.792	0.03
394.998	0.04
395.204	0.1
395.41	0.01
395.615	0.04
395.821	0.01
396.027	0.04
396.233	-0.02
396.438	0.05
396.644	-0.04
396.85	0.03
397.055	0.03
397.261	-0.01
397.466	-0.03
397.672	0.05
397.878	0.07
398.083	0
398.289	0.01
398.494	0.05
398.7	0.05
398.905	-0.06
399.111	0.09
399.316	-0.02
399.522	0.02
399.727	0
399.932	-0
400.138	-0.01
400.343	0.02
400.549	0.04
400.754	0.04
400.959	0.03
401.165	0.02
401.37	0.03
401.575	0.08
401.78	-0
401.986	0.01
402.191	0.02
402.396	0.02
402.601	0
402.807	0.03
403.012	0.04
403.217	0.08
403.422	0.02
403.627	-0.01
403.832	-0
404.037	-0
404.243	0.01
404.448	-0.04
404.653	-0.03
404.858	0.02
405.063	0.06
405.268	-0.03
405.473	-0.01
405.678	-0.05
405.883	0.1
406.088	0
406.293	-0.07
406.498	-0.02
406.703	0.02
406.907	-0.01
407.112	-0.02
407.317	0.01
407.522	0.01
407.727	-0.05
407.932	-0
408.136	0.05
408.341	-0.01
408.546	0.02
408.751	0.05
408.956	-0.05
409.16	0.03
409.365	0.03
409.57	-0.04
409.774	0.02
409.979	0.07
410.184	0.01
410.388	-0.04
410.593	0.02
410.798	0.03
411.002	-0.01
411.207	0.05
411.411	0.03
411.616	-0.04
411.82	0.03
412.025	0.05
412.229	-0
412.434	0.09
412.638	-0
412.843	0.02
413.047	0.03
413.252	-0.03
413.456	-0.03
413.66	0.03
413.865	-0
414.069	0.09
414.273	-0.03
414.478	0.02
414.682	-0.03
414.886	-0.01
415.091	-0.04
415.295	-0.1
415.499	0.02
415.703	-0
415.908	0.04
416.112	-0.06
416.316	0.04
416.52	0.04
416.724	-0.04
416.929	-0.02
417.133	0.06
417.337	-0.08
417.541	-0
417.745	-0.02
417.949	0.05
418.153	0.04
418.357	-0.05
418.561	0.09
418.765	0.01
418.969	0.13
419.173	0.01
419.377	-0.03
419.581	0.09
419.785	-0.05
419.989	-0.06
420.193	0.01
420.397	-0.01
420.601	0.09
420.804	0.06
421.008	0.04
421.212	0.01
421.416	0.08
421.62	-0.01
421.823	-0.01
422.027	0.09
422.231	-0.02
422.435	-0.01
422.638	0
422.842	-0
423.046	-0.01
423.249	0.02
423.453	0.01
423.657	-0.01
423.86	0.01
424.064	0.02
424.268	0.04
424.471	0.01
424.675	0.06
424.878	0.09
425.082	-0.01
425.285	0.06
425.489	0.03
425.692	-0
425.896	-0.06
426.099	0.05
426.303	-0.02
426.506	-0.06
426.71	0.03
426.913	0.03
427.116	0.06
427.32	0.01
427.523	-0.03
427.726	0.1
427.93	-0.07
428.133	0.02
428.336	-0.05
428.54	0
428.743	0.03
428.946	0.05
429.149	-0.02
429.353	0.05
429.556	0.02
429.759	0
429.962	-0.05
430.165	0.02
430.368	0.02
430.571	0.02
430.775	0.05
430.978	0.03
431.181	0.01
431.384	0.01
431.587	-0.02
431.79	0.02
431.993	-0.03
432.196	0.02
432.399	-0.02
432.602	0.06
432.805	-0
433.008	-0.01
433.211	-0.05
433.414	-0
433.616	0.04
433.819	0.01
434.022	-0.05
434.225	0.03
434.428	0.05
434.631	0.11
434.833	0.04
435.036	-0.01
435.239	0.04
435.442	0.01
435.645	-0.04
435.847	0.02
436.05	0.08
436.253	-0.02
436.455	-0.01
436.658	-0.02
436.861	0.08
437.063	-0.01
437.266	-0.01
437.468	0.05
437.671	0.13
437.874	0.02
438.076	-0.06
438.279	-0.12
438.481	0
438.684	-0.03
438.886	0.04
439.089	-0.06
439.291	0.01
439.494	0.06
439.696	-0.01
439.899	-0.02
440.101	0.02
440.303	-0.03
440.506	0.02
440.708	-0.01
440.91	0.04
441.113	-0.04
441.315	0.01
441.517	-0.03
441.72	0.05
441.922	-0.04
442.124	-0.07
442.326	0.07
442.529	0.02
442.731	-0.04
442.933	0.09
443.135	-0.02
443.337	-0.04
443.539	-0.02
443.742	0.01
443.944	-0.01
444.146	-0.04
444.348	-0
444.55	-0.02
444.752	-0
444.954	-0.05
445.156	-0.02
445.358	-0.05
445.56	0.07
445.762	0.01
445.964	0.01
446.166	-0.01
446.368	-0.01
446.57	0.11
446.772	0.02
446.974	0.01
447.175	0.02
447.377	-0.01
447.579	-0.01
447.781	-0.09
447.983	0.11
448.184	-0.02
448.386	0
448.588	-0.11
448.79	0.01
448.991	-0.02
449.193	-0.01
449.395	0.02
449.597	0.02
449.798	-0.02
450	0.04
450.202	0.04
450.403	0.01
450.605	0.06
450.806	0.03
451.008	-0.02
451.21	-0.01
451.411	0.04
451.613	-0.03
451.814	0
452.016	0.03
452.217	0.02
452.419	0.02
452.62	0
452.821	0.03
453.023	0.03
453.224	0.09
453.426	-0.03
453.627	0.05
453.828	0.06
454.03	-0.04
454.231	-0
454.432	-0.03
454.634	0.06
454.835	0.01
455.036	-0.03
455.238	0.02
455.439	0.05
455.64	-0.05
455.841	-0.03
456.042	0.1
456.244	0.05
456.445	-0.05
456.646	-0.01
456.847	0
457.048	0.02
457.249	0.11
457.45	0.2
457.651	-0
457.852	0
458.054	0.03
458.255	-0.02
458.456	0.02
458.657	0.03
458.858	-0.01
459.058	0.06
459.259	0.05
459.46	-0.02
459.661	-0.03
459.862	0.08
460.063	0.02
460.264	0.07
460.465	-0.07
460.666	0.1
460.866	-0.02
461.067	0.02
461.268	0.05
461.469	0.01
461.67	0.05
461.87	-0.03
462.071	-0.02
462.272	-0.01
462.473	0.03
462.673	0.02
462.874	-0
463.075	0.05
463.275	-0.04
463.476	0.03
463.676	0.01
463.877	0.03
464.078	0.01
464.278	0.06
464.479	0.01
464.679	0.03
464.88	0.02
465.08	0.1
465.281	0
465.481	-0.03
465.682	0.01
465.882	0.02
466.083	0.02
466.283	-0
466.483	-0.02
466.684	-0
466.884	-0.04
467.085	0.02
467.285	0.06
467.485	-0.01
467.686	0.01
467.886	-0.03
468.086	-0.02
468.286	-0
468.487	0.04
468.687	-0.03
468.887	-0.02
469.087	0.04
469.287	-0.01
469.488	-0.03
469.688	0.05
469.888	0.05
470.088	0.05
470.288	0.04
470.488	0.05
470.688	-0.06
470.888	-0.04
471.088	-0.05
471.288	0.02
471.488	-0
471.688	0.03
471.888	-0.04
472.088	0.07
472.288	0.03
472.488	-0.01
472.688	-0.02
472.888	-0.02
473.088	0.05
473.288	-0
473.488	0.05
473.688	0.12
473.887	0.03
474.087	-0.01
474.287	0.03
474.487	-0.05
474.687	0.02
474.886	0.02
475.086	-0
475.286	0.03
475.486	-0.01
475.685	0.04
475.885	-0.02
476.085	-0.01
476.284	0.08
476.484	-0.01
476.684	0.04
476.883	0.08
477.083	0.08
477.282	0.01
477.482	0.04
477.681	0.07
477.881	0.03
478.08	-0.03
478.28	-0.03
478.479	0.06
478.679	0.1
478.878	-0.03
479.078	-0.01
479.277	0.01
479.477	0.02
479.676	0.08
479.875	0.02
480.075	-0.05
480.274	0.01
480.473	0.04
480.673	-0.03
480.872	0.02
481.071	0.04
481.271	0.04
481.47	0.02
481.669	0.03
481.868	-0.02
482.067	-0.03
482.267	-0.04
482.466	-0.05
482.665	-0.04
482.864	-0.05
483.063	-0.02
483.262	0.02
483.461	0.06
483.661	0.02
483.86	0.02
484.059	0
484.258	-0
484.457	0.02
484.656	0.02
484.855	0.04
485.054	-0.04
485.253	-0.04
485.452	-0.02
485.651	-0.01
485.849	-0.01
486.048	-0
486.247	-0.01
486.446	0.01
486.645	-0.02
486.844	-0.02
487.043	0.01
487.241	0.04
487.44	-0.03
487.639	0.01
487.838	0.03
488.037	0.01
488.235	0.06
488.434	0
488.633	-0.02
488.831	0.02
489.03	0.05
489.229	0.02
489.427	0.01
489.626	0.05
489.825	0.05
490.023	0.02
490.222	0
490.42	0
490.619	0.01
490.817	0.02
491.016	0
491.214	0.03
491.413	-0.02
491.611	-0.01
491.81	0.01
492.008	0.03
492.207	0.03
492.405	0
492.604	-0.04
492.802	-0.02
493	-0.01
493.199	-0.01
493.397	-0.01
493.595	-0.02
493.794	-0.01
493.992	0.04
494.19	-0.01
494.388	-0.01
494.587	-0.01
494.785	0
494.983	-0.02
495.181	-0
495.379	-0
495.578	0
495.776	0.02
495.974	-0.01
496.172	0
496.37	-0.01
496.568	-0.03
496.766	-0.01
496.964	0.02
497.162	0.02
497.36	-0.02
497.558	0.02
497.756	0.03
497.954	-0.01
498.152	-0.03
498.35	0
498.548	-0.01
498.746	0.02
498.944	-0.01
499.142	-0.01
499.34	-0.02
499.538	0.01
499.736	-0.02
499.933	0.04
500.131	0.03
500.329	0.01
500.527	0.04
500.725	0.03
500.922	0.02
501.12	0.02
501.318	0.03
501.516	-0.02
501.713	0.01
501.911	-0.02
502.109	0.01
502.306	0.01
502.504	-0
502.701	0
502.899	-0.01
503.097	0.02
503.294	0.01
503.492	-0.01
503.689	0.01
503.887	0.01
504.084	0.05
504.282	-0
504.479	-0.02
504.677	0.03
504.874	-0.02
505.072	0.01
505.269	0.01
505.466	0.03
505.664	0.02
505.861	-0.03
506.059	-0.03
506.256	0.03
506.453	-0.03
506.651	0.03
506.848	0.04
507.045	0.02
507.242	0
507.44	0.01
507.637	0.01
507.834	-0.01
508.031	0.03
508.229	-0.01
508.426	0.02
508.623	0.02
508.82	0.01
509.017	-0.01
509.214	-0.03
509.411	0.01
509.608	-0.02
509.805	0.01
510.003	0.01
510.2	-0
510.397	0.03
510.594	-0.02
510.791	-0.02
510.988	0.01
511.184	0.03
511.381	0.01
511.578	-0.01
511.775	0.02
511.972	-0.01
512.169	0.02
512.366	0.01
512.563	0.02
512.76	-0.01
512.956	-0.01
513.153	0
513.35	0.02
513.547	-0.02
513.744	-0.01
513.94	-0.03
514.137	0.01
514.334	0.02
514.53	0.03
514.727	0.02
514.924	0.06
515.12	-0.02
515.317	-0.03
515.514	0.01
515.71	-0.02
515.907	-0
516.103	0.02
516.3	0.03
516.497	0.02
516.693	0.04
516.89	-0
517.086	-0.01
517.283	0.05
517.479	0.03
517.676	0
517.872	0.01
518.068	-0.01
518.265	-0.02
518.461	0
518.658	-0.01
518.854	0.02
519.05	0
519.247	-0
519.443	0.02
519.639	0
519.836	0.01
520.032	-0.01
520.228	0.03
520.424	0.04
520.621	0.01
520.817	0.01
521.013	0.02
521.209	0
521.405	0.04
521.601	0
521.798	0.02
521.994	0.02
522.19	-0
522.386	-0.02
522.582	-0.01
522.778	-0
522.974	-0.01
523.17	0.02
523.366	-0.01
523.562	0.04
523.758	0.01
523.954	-0.01
524.15	-0
524.346	0.01
524.542	0.02
524.738	-0.01
524.934	0.01
525.129	0
525.325	0.01
525.521	-0
525.717	0.03
525.913	0.02
526.109	0
526.304	-0.02
526.5	0.02
526.696	0.01
526.892	-0
527.087	0
527.283	-0.01
527.479	0.04
527.674	-0.01
527.87	-0.01
528.066	-0.01
528.261	0.02
528.457	0.01
528.653	-0.01
528.848	0
529.044	-0
529.239	0
529.435	0.04
529.63	0.02
529.826	0.04
530.021	0.03
530.217	0.01
530.412	-0
530.608	-0.01
530.803	-0
530.999	-0.03
531.194	-0.03
531.389	0.02
531.585	-0.03
531.78	0.01
531.975	-0.01
532.171	0.04
532.366	-0.01
532.561	-0
532.757	-0.02
532.952	-0.01
533.147	0.02
533.342	0.01
533.538	-0.01
533.733	0.03
533.928	0.02
534.123	-0.01
534.318	-0.01
534.513	-0.02
534.709	-0.01
534.904	-0.02
535.099	-0.01
535.294	0.01
535.489	0.01
535.684	-0
535.879	-0.01
536.074	0.01
536.269	0.01
536.464	0.02
536.659	0.01
536.854	0.01
537.049	0.02
537.244	0.03
537.439	0.01
537.634	0.02
537.828	0.02
538.023	0.01
538.218	-0.02
538.413	-0.01
538.608	-0.04
538.803	0.01
538.997	-0.03
539.192	0.01
539.387	0
539.582	0.01
539.776	-0.01
539.971	0
540.166	0
540.36	-0.03
540.555	0
540.75	-0
540.944	-0
541.139	-0.03
541.334	0.01
541.528	0.02
541.723	0.02
541.917	0
542.112	-0.03
542.306	0
542.501	0.01
542.695	0.01
542.89	-0.02
543.084	-0.02
543.279	0
543.473	0.01
543.668	-0.01
543.862	0
544.056	0.02
544.251	0.02
544.445	0.02
544.64	0.01
544.834	-0.02
545.028	0.01
545.222	-0
545.417	-0
545.611	-0
545.805	0.01
546	0.01
546.194	-0.01
546.388	0
546.582	0.03
546.776	0
546.97	0.02
547.165	0.01
547.359	0.02
547.553	-0.01
547.747	0.01
547.941	0.01
548.135	-0.01
548.329	0.02
548.523	0.01
548.717	-0
548.911	-0.01
549.105	-0
549.299	0.03
549.493	0.04
549.687	0.02
549.881	0.02
550.075	-0.01
550.269	-0.01
550.463	0.02
550.657	-0
550.85	0.01
551.044	-0.01
551.238	0.03
551.432	-0.02
551.626	-0.01
551.82	0.01
552.013	-0
552.207	0.01
552.401	0.02
552.594	0.01
552.788	0.02
552.982	0
553.176	-0.02
553.369	0.04
553.563	0.01
553.756	-0.02
553.95	-0.03
554.144	0
554.337	0.03
554.531	0.01
554.724	0
554.918	0.01
555.111	0.01
555.305	0.01
555.498	0.06
555.692	0.02
555.885	0
556.079	0.02
556.272	-0.01
556.466	0.04
556.659	-0.01
556.852	0.01
557.046	0.01
557.239	0.02
557.432	-0.02
557.626	-0.02
557.819	0.01
558.012	0.04
558.206	0.02
558.399	0.01
558.592	0.02
558.785	0.01
558.979	0.02
559.172	0.02
559.365	0.01
559.558	0.01
559.751	-0.02
559.944	-0.01
560.138	0.02
560.331	0.01
560.524	0
560.717	0.01
560.91	0.01
561.103	0.04
561.296	0.01
561.489	0.02
561.682	0.03
561.875	0.04
562.068	0.01
562.261	0.01
562.454	0.05
562.647	0.02
562.84	-0
563.032	0
563.225	0.03
563.418	-0.02
563.611	-0.01
563.804	-0.01
563.997	-0.02
564.19	-0.01
564.382	-0.02
564.575	0.03
564.768	-0.01
564.961	-0
565.153	-0.02
565.346	0.04
565.539	0.01
565.731	0.01
565.924	-0
566.117	0.02
566.309	0.01
566.502	-0
566.695	0
566.887	0.02
567.08	-0.02
567.272	0
567.465	0
567.657	0.01
567.85	0.02
568.042	0.02
568.235	0.04
568.427	0.02
568.62	0.01
568.812	0.03
569.005	0
569.197	-0
569.389	0.01
569.582	0.03
569.774	0.02
569.966	0.01
570.159	-0.03
570.351	0.03
570.543	-0
570.736	0
570.928	-0.01
571.12	0.01
571.312	-0
571.505	-0.01
571.697	0.04
571.889	-0.04
572.081	0.02
572.273	-0
572.465	0.06
572.658	0
572.85	0
573.042	0.01
573.234	0
573.426	0.06
573.618	-0.03
573.81	0.04
574.002	0.04
574.194	0.03
574.386	-0.03
574.578	-0.03
574.77	0
574.962	-0
575.154	-0.02
575.346	0
575.538	0.01
575.729	0.01
575.921	-0.02
576.113	0.01
576.305	0.04
576.497	0.01
576.689	-0.01
576.88	-0.01
577.072	0.04
577.264	0.03
577.456	0
577.647	-0.05
577.839	0.02
578.031	0.05
578.223	-0.02
578.414	-0.05
578.606	0.04
578.798	0.01
578.989	-0.01
579.181	0.02
579.372	0.02
579.564	-0
579.755	0.03
579.947	0.03
580.139	0.05
580.33	-0.03
580.522	-0
580.713	-0.04
580.905	0.02
581.096	0.03
581.287	0.02
581.479	-0.02
581.67	0.02
581.862	0.02
582.053	-0
582.244	-0.01
582.436	0.03
582.627	0.03
582.818	0.02
583.01	-0.02
583.201	0.04
583.392	0.05
583.583	0.03
583.775	0.01
583.966	-0.02
584.157	0.01
584.348	0.01
584.54	-0.03
584.731	0.03
584.922	0
585.113	-0.01
585.304	0.04
585.495	0.05
585.686	0.01
585.877	0.04
586.068	0.01
586.259	0.04
586.45	0.04
586.641	0.01
586.832	-0.02
587.023	0.01
587.214	0.03
587.405	0.01
587.596	0.01
587.787	0.03
587.978	0
588.169	0
588.36	0.01
588.551	0.03
588.742	-0
588.932	0.03
589.123	0.01
589.314	0.05
589.505	0.02
589.696	0.03
589.886	0
590.077	-0.03
590.268	0.04
590.458	0.01
590.649	-0
590.84	0.04
591.03	0.02
591.221	-0.02
591.412	0.01
591.602	0.04
591.793	0.06
591.984	-0
592.174	0.02
592.365	0.1
592.555	0.01
592.746	0.05
592.936	0.05
593.127	0.03
593.317	0.05
593.508	0.01
593.698	0.02
593.889	0.02
594.079	0.03
594.269	0.03
594.46	0.01
594.65	0.04
594.84	0.04
595.031	-0
595.221	0.02
595.411	-0.03
595.602	0.03
595.792	0.03
595.982	0.03
596.172	0.07
596.363	0.04
596.553	0.04
596.743	0.02
596.933	0.06
597.123	0.07
597.314	-0
597.504	0.01
597.694	0.08
597.884	0.07
598.074	0.05
598.264	0.03
598.454	0.08
598.644	0.06
598.834	0.03
599.024	-0.01
599.214	0.04
599.404	0.08
599.594	0.05
599.784	0.01
599.974	0.09
600.164	0.07
600.354	0.04
600.544	0.02
600.734	0.06
600.924	0.09
601.114	0.04
601.303	0.05
601.493	0.06
601.683	0.06
601.873	0.08
602.063	0.01
602.252	0.08
602.442	0.01
602.632	0.03
602.821	0.03
603.011	0.1
603.201	0.05
603.39	0.06
603.58	0.05
603.77	0.08
603.959	0.12
604.149	0.07
604.339	0.06
604.528	0.11
604.718	0.12
604.907	0.09
605.097	0.08
605.286	0.04
605.476	0.1
605.665	0.14
605.855	0.07
606.044	0.13
606.234	0.09
606.423	0.07
606.612	0.09
606.802	0.12
606.991	0.12
607.181	0.14
607.37	0.07
607.559	0.07
607.749	0.05
607.938	0.1
608.127	0.08
608.316	0.07
608.506	0.12
608.695	0.1
608.884	0.1
609.073	0.14
609.263	0.12
609.452	0.18
609.641	0.1
609.83	0.09
610.019	0.14
610.208	0.11
610.397	0.14
610.586	0.16
610.775	0.09
610.965	0.14
611.154	0.16
611.343	0.14
611.532	0.16
611.721	0.15
611.91	0.12
612.099	0.18
612.287	0.15
612.476	0.15
612.665	0.16
612.854	0.16
613.043	0.22
613.232	0.14
613.421	0.14
613.61	0.19
613.798	0.16
613.987	0.22
614.176	0.22
614.365	0.22
614.554	0.22
614.742	0.24
614.931	0.2
615.12	0.24
615.309	0.22
615.497	0.23
615.686	0.22
615.875	0.25
616.063	0.23
616.252	0.25
616.44	0.24
616.629	0.26
616.818	0.26
617.006	0.28
617.195	0.27
617.383	0.25
617.572	0.27
617.76	0.28
617.949	0.29
618.137	0.32
618.326	0.34
618.514	0.31
618.703	0.29
618.891	0.35
619.079	0.26
619.268	0.38
619.456	0.32
619.644	0.4
619.833	0.35
620.021	0.35
620.209	0.32
620.398	0.38
620.586	0.36
620.774	0.45
620.962	0.42
621.151	0.45
621.339	0.41
621.527	0.4
621.715	0.43
621.903	0.4
622.092	0.43
622.28	0.49
622.468	0.47
622.656	0.47
622.844	0.53
623.032	0.48
623.22	0.44
623.408	0.58
623.596	0.56
623.784	0.54
623.972	0.51
624.16	0.53
624.348	0.61
624.536	0.6
624.724	0.6
624.912	0.66
625.1	0.64
625.288	0.61
625.476	0.61
625.664	0.67
625.851	0.63
626.039	0.71
626.227	0.74
626.415	0.68
626.603	0.68
626.79	0.76
626.978	0.77
627.166	0.82
627.354	0.74
627.541	0.79
627.729	0.7
627.917	0.86
628.104	0.87
628.292	0.86
628.48	0.87
628.667	0.86
628.855	0.95
629.042	1
629.23	0.92
629.418	0.98
629.605	0.94
629.793	0.98
629.98	1.03
630.168	1
630.355	1.05
630.543	1.11
630.73	1.06
630.917	1.1
631.105	1.23
631.292	1.18
631.48	1.2
631.667	1.27
631.854	1.22
632.042	1.22
632.229	1.25
632.416	1.35
632.604	1.29
632.791	1.28
632.978	1.42
633.165	1.39
633.353	1.46
633.54	1.49
633.727	1.42
633.914	1.45
634.101	1.43
634.289	1.6
634.476	1.53
634.663	1.57
634.85	1.57
635.037	1.59
635.224	1.62
635.411	1.7
635.598	1.75
635.785	1.76
635.972	1.77
636.159	1.83
636.346	1.82
636.533	1.85
636.72	1.89
636.907	1.95
637.094	1.94
637.281	1.95
637.468	2.02
637.655	2.08
637.842	2.11
638.029	2.15
638.215	2.13
638.402	2.21
638.589	2.23
638.776	2.3
638.963	2.29
639.149	2.46
639.336	2.44
639.523	2.43
639.709	2.43
639.896	2.47
640.083	2.58
640.27	2.65
640.456	2.68
640.643	2.72
640.829	2.64
641.016	2.77
641.203	2.81
641.389	2.9
641.576	2.9
641.762	2.95
641.949	3
642.135	3.07
642.322	3.14
642.508	3.12
642.695	3.31
642.881	3.26
643.068	3.3
643.254	3.4
643.441	3.51
643.627	3.58
643.813	3.5
644	3.69
644.186	3.67
644.372	3.87
644.559	3.92
644.745	3.97
644.931	3.97
645.118	4.08
645.304	4.16
645.49	4.23
645.676	4.29
645.862	4.4
646.049	4.61
646.235	4.52
646.421	4.78
646.607	4.81
646.793	4.72
646.979	4.83
647.165	4.94
647.352	5.04
647.538	5.16
647.724	5.27
647.91	5.37
648.096	5.51
648.282	5.6
648.468	5.58
648.654	5.79
648.84	5.84
649.026	5.92
649.212	6.04
649.397	6.15
649.583	6.24
649.769	6.35
649.955	6.34
650.141	6.67
650.327	6.59
650.513	6.76
650.698	6.88
650.884	6.82
651.07	7.15
651.256	7.26
651.442	7.33
651.627	7.23
651.813	7.6
651.999	7.55
652.184	7.73
652.37	7.85
652.556	7.92
652.741	8.1
652.927	8.03
653.113	8.29
653.298	8.39
653.484	8.57
653.669	8.56
653.855	8.71
654.04	8.94
654.226	8.96
654.412	9.07
654.597	9.04
654.782	9.34
654.968	9.45
655.153	9.52
655.339	9.66
655.524	9.7
655.71	9.87
655.895	9.97
656.08	10.09
656.266	10.27
656.451	10.17
656.636	10.28
656.822	10.45
657.007	10.5
657.192	10.56
657.378	10.57
657.563	10.6
657.748	10.55
657.933	10.79
658.118	10.46
658.304	10.83
658.489	10.83
658.674	10.67
658.859	10.62
659.044	10.56
659.229	10.52
659.414	10.52
659.599	10.46
659.785	10.17
659.97	10.15
660.155	10.07
660.34	9.98
660.525	9.73
660.71	9.57
660.895	9.47
661.08	9.29
661.264	8.9
661.449	8.94
661.634	8.5
661.819	8.52
662.004	8.05
662.189	8
662.374	7.75
662.559	7.47
662.743	7.12
662.928	6.96
663.113	6.76
663.298	6.6
663.483	6.34
663.667	6.13
663.852	5.88
664.037	5.79
664.221	5.5
664.406	5.35
664.591	5.09
664.775	4.95
664.96	4.81
665.145	4.56
665.329	4.44
665.514	4.18
665.698	3.99
665.883	3.81
666.068	3.87
666.252	3.68
666.437	3.45
666.621	3.41
666.806	3.26
666.99	3.15
667.174	2.99
667.359	2.86
667.543	2.77
667.728	2.69
667.912	2.51
668.096	2.52
668.281	2.34
668.465	2.35
668.649	2.26
668.834	2.04
669.018	2.07
669.202	1.98
669.387	1.9
669.571	1.89
669.755	1.74
669.939	1.73
670.124	1.71
670.308	1.65
670.492	1.56
670.676	1.51
670.86	1.44
671.044	1.37
671.228	1.41
671.413	1.28
671.597	1.24
671.781	1.2
671.965	1.2
672.149	1.16
672.333	1.12
672.517	1.03
672.701	1.04
672.885	0.97
673.069	0.87
673.253	0.99
673.437	0.9
673.621	0.85
673.804	0.87
673.988	0.84
674.172	0.76
674.356	0.69
674.54	0.7
674.724	0.79
674.908	0.68
675.091	0.71
675.275	0.65
675.459	0.63
675.643	0.7
675.826	0.56
676.01	0.53
676.194	0.49
676.377	0.55
676.561	0.54
676.745	0.49
676.928	0.51
677.112	0.5
677.296	0.39
677.479	0.44
677.663	0.41
677.846	0.43
678.03	0.39
678.213	0.33
678.397	0.38
678.58	0.35
678.764	0.35
678.947	0.25
679.131	0.25
679.314	0.39
679.498	0.26
679.681	0.31
679.865	0.33
680.048	0.26
680.231	0.23
680.415	0.24
680.598	0.24
680.781	0.24
680.965	0.24
681.148	0.24
681.331	0.21
681.514	0.25
681.698	0.19
681.881	0.23
682.064	0.18
682.247	0.22
682.43	0.14
682.614	0.23
682.797	0.26
682.98	0.22
683.163	0.13
683.346	0.2
683.529	0.14
683.712	0.09
683.895	0.19
684.078	0.1
684.261	0.12
684.444	0.15
684.627	0.16
684.81	0.16
684.993	0.15
685.176	0.14
685.359	0.09
685.542	0.14
685.725	0.14
685.908	0.14
686.091	0.11
686.274	0.21
686.457	0.12
686.639	0.1
686.822	0.15
687.005	0.14
687.188	0.16
687.371	0.19
687.553	0.19
687.736	0.1
687.919	0.18
688.102	0.21
688.284	0.04
688.467	0.14
688.65	0.08
688.832	0.04
689.015	0.09
689.197	0.03
689.38	0.16
689.563	0.19
689.745	0.09
689.928	0.01
690.11	0.08
690.293	0.07
690.475	0.01
690.658	0.1
690.84	0.03
691.023	0.07
691.205	0.04
691.388	0.09
691.57	0.11
691.752	0.16
691.935	-0.01
692.117	0.06
692.3	0.07
692.482	0
692.664	0.06
692.847	0.07
693.029	0.1
693.211	0.1
693.393	0.06
693.576	0.04
693.758	0.08
693.94	0.08
694.122	0.08
694.304	0.08
694.487	0.05
694.669	0.13
694.851	0.02
695.033	0.08
695.215	-0
695.397	0.04
695.579	0.06
695.761	-0.02
695.943	-0.01
696.125	0.12
696.308	0.07
696.49	-0.02
696.671	0.16
696.853	0.05
697.035	0.14
697.217	0.07
697.399	0.1
697.581	0.07
697.763	0.02
697.945	-0.01
698.127	0.04
698.309	0.13
698.491	0.06
698.672	0.05
698.854	0.07
699.036	0.11
699.218	0.01
699.399	0.08
699.581	0.07
699.763	0.05
699.945	0.04
700.126	0.01
700.308	0.04
700.49	0.05
700.671	-0.07
700.853	0.04
701.035	0.03
701.216	0.05
701.398	0
701.579	0.1
701.761	0.06
701.943	0.01
702.124	0.03
702.306	0.05
702.487	0.11
702.669	0.04
702.85	0.03
703.031	0.01
703.213	0.16
703.394	0.05
703.576	0.02
703.757	0.09
703.938	0.08
704.12	0.13
704.301	0.01
704.483	0.01
704.664	0.02
704.845	0.14
705.026	0.06
705.208	0.03
705.389	0.11
705.57	0.07
705.751	0.07
705.933	0.06
706.114	0.09
706.295	0.01
706.476	0
706.657	0.17
706.838	0.05
707.02	0.11
707.201	-0.05
707.382	0.02
707.563	0.01
707.744	0.03
707.925	0.02
708.106	-0.02
708.287	0.08
708.468	0.11
708.649	0.05
708.83	0.05
709.011	0.02
709.192	0.05
709.373	-0.08
709.554	0.03
709.734	0.11
709.915	0.07
710.096	0.01
710.277	-0.09
710.458	0.08
710.639	0.03
710.819	-0.02
711	0
711.181	0.08
711.362	0.06
711.542	0.05
711.723	0
711.904	0.11
712.085	0.03
712.265	0.04
712.446	-0.03
712.627	-0.05
712.807	0.04
712.988	0.02
713.168	0
713.349	0.14
713.53	-0.13
713.71	-0.02
713.891	-0
714.071	0.04
714.252	-0.04
714.432	-0.02
714.613	-0.04
714.793	0.03
714.974	0.12
715.154	0.13
715.334	0.06
715.515	0.13
715.695	-0.09
715.876	0.04
716.056	0
716.236	0.01
716.417	0.04
716.597	-0.07
716.777	0.14
716.957	-0.05
717.138	0.04
717.318	0.01
717.498	-0.02
717.678	0.02
717.859	0.07
718.039	-0.06
718.219	0.06
718.399	0.08
718.579	0.01
718.759	-0.01
718.939	0.04
719.12	0.04
719.3	0.02
719.48	-0.07
719.66	-0.02
719.84	0.04
720.02	0.04
720.2	-0.12
720.38	0.07
720.56	0.09
720.74	0.03
720.92	0.07
721.1	0.12
721.279	0.09
721.459	0
721.639	-0.04
721.819	0.03
721.999	-0
722.179	0.05
722.359	-0.03
722.538	0.06
722.718	-0.05
722.898	0.03
723.078	0.03
723.257	0
723.437	0.05
723.617	0.02
723.797	-0.04
723.976	0.04
724.156	0.08
724.336	0.1
724.515	0.15
724.695	-0.12
724.874	0.07
725.054	0.04
725.234	-0.02
725.413	0.02
725.593	0.09
725.772	-0.02
725.952	-0.01
726.131	0.01
726.311	-0.01
726.49	0.01
726.67	-0.01
726.849	-0.04
727.028	0.02
727.208	0.05
727.387	0.05
727.567	-0.1
727.746	-0.02
727.925	-0.08
728.105	-0.06
728.284	-0.03
728.463	-0.08
728.643	0.09
728.822	-0.06
729.001	-0.14
729.18	-0.06
729.359	0.06
729.539	0.04
729.718	0
729.897	0.08
730.076	-0.02
730.255	-0.11
730.434	0.06
730.614	0.09
730.793	0.04
730.972	-0.03
731.151	0.08
731.33	0.17
731.509	0.04
731.688	0.08
731.867	0.01
732.046	-0.13
732.225	0.22
732.404	-0.09
732.583	-0.14
732.762	0.01
732.941	0.13
733.12	0.01
733.298	0.01
733.477	0.08
733.656	-0.07
733.835	-0.05
734.014	0.07
734.193	-0.02
734.371	0.08
734.55	0.06
734.729	-0.17
734.908	0.07
735.086	0.01
735.265	0.11
735.444	-0.15
735.623	-0.09
735.801	-0.03
735.98	0.07
736.159	0.1
736.337	0.14
736.516	0.09
736.694	0.01
736.873	-0.05
737.052	0.15
737.23	0.04
737.409	0.03
737.587	0.16
737.766	-0.13
737.944	-0.15
738.123	0.01
738.301	0.14
738.479	-0.05
738.658	0.05
738.836	-0.16
739.015	0.07
739.193	0.11
739.371	-0.06
739.55	-0.01
739.728	-0.04
739.906	0.18
740.085	0.2
740.263	-0.09
740.441	-0.01
740.62	0.2
740.798	0.03
740.976	-0.08
741.154	-0.04
741.332	0.17
741.511	-0.03
741.689	0.04
741.867	0.16
742.045	0.07
742.223	-0.01
742.401	-0.07
742.579	0.01
742.757	0.04
742.935	-0.04
743.114	-0.07
743.292	-0.05
743.47	-0.08
743.648	-0.01
743.826	-0.18
744.004	0.14
744.181	0.05
744.359	-0.06
744.537	0.04
744.715	0.03
744.893	-0.07
745.071	0.03
745.249	0.02
745.427	0.13
745.605	0.1
745.782	0.01
745.96	0.11
746.138	0.06
746.316	0.06
746.493	0.02
746.671	0.02
746.849	-0.01
747.027	0.14
747.204	-0.07
747.382	0.17
747.56	-0.14
747.737	0.11
747.915	-0.1
748.093	0.03
748.27	-0.07
748.448	-0.09
748.625	-0.08
748.803	-0.14
748.98	-0.04
749.158	0.06
749.335	0.1
749.513	0
749.69	0.06
749.868	0
750.045	-0
750.223	-0.07
750.4	-0.18
750.578	0.11
750.755	-0
750.932	-0.06
751.11	0.18
751.287	-0.09
751.464	0.02
751.642	0.01
751.819	0.07
751.996	-0.04
752.173	0.04
752.351	-0.14
752.528	0.01
752.705	-0.01
752.882	0.04
753.06	0
753.237	0.07
753.414	0.15
753.591	0.17
753.768	0.04
753.945	-0.08
754.122	-0.05
754.299	0.07
754.476	-0.06
754.654	0
754.831	0.12
755.008	0.05
755.185	0.06
755.362	-0.1
755.539	0.02
755.716	-0.12
755.892	-0.01
756.069	0.06
756.246	-0.04
756.423	-0.12
756.6	0.14
756.777	-0.03
756.954	0.1
757.131	-0.02
757.307	-0.06
757.484	-0.16
757.661	0.08
757.838	-0.04
758.015	-0.14
758.191	0.07
758.368	-0.02
758.545	0.14
758.721	0.02
758.898	-0.12
759.075	0.07
759.251	0.04
759.428	0.19
759.605	-0.07
759.781	0.1
759.958	0.12
760.134	0.03
760.311	0.06
760.488	0.09
760.664	0.11
760.841	0.02
761.017	-0.04
761.194	0.14
761.37	0.09
761.547	-0.02
761.723	0.19
761.899	0.08
762.076	-0.01
762.252	-0.13
762.429	-0.13
762.605	0.01
762.781	-0.09
762.958	0.09
763.134	-0.08
763.31	0.13
763.486	0.12
763.663	-0.11
763.839	0.07
764.015	-0.21
764.191	-0.02
764.368	0.06
764.544	-0.13
764.72	0.07
764.896	0.08
765.072	0.03
765.248	-0.04
765.425	-0.01
765.601	-0.05
765.777	0.02
765.953	-0.13
766.129	-0.03
766.305	-0.1
766.481	0.04
766.657	0.01
766.833	0.13
767.009	-0.09
767.185	-0.02
767.361	0.04
767.537	-0.1
767.713	0.17
767.889	-0.14
768.065	-0.05
768.24	0.07
768.416	0.18
768.592	-0.11
768.768	-0.04
768.944	0.03
769.12	-0.17
769.295	-0.02
769.471	0.02
769.647	-0.02
769.823	0.15
769.998	-0.08
770.174	-0.04
770.35	0.41
770.525	0.22
770.701	0
770.877	0.05
771.052	0.07
771.228	0.14
771.403	0.09
771.579	0.19
771.755	0.23
771.93	-0.15
772.106	-0.08
772.281	-0.24
772.457	0.13
772.632	0.06
772.808	-0.06
772.983	-0.03
773.159	-0.12
773.334	0.11
773.509	0.05
773.685	-0.05
773.86	0.34
774.036	0.2
774.211	0.03
774.386	0.04
774.562	-0.16
774.737	-0.01
774.912	-0.05
775.087	0.14
775.263	0.1
775.438	0.05
775.613	-0.19
775.788	-0.01
775.964	0.02
776.139	0.44
776.314	-0.14
776.489	0.09
776.664	0.04
776.839	-0.05
777.014	0.15
777.19	0.22
777.365	0.22
777.54	0.09
777.715	-0.08
777.89	-0.1
778.065	-0.29
778.24	0.15
778.415	0.06
778.59	-0.16
778.765	-0.05
778.94	0.06
779.115	-0.18
779.289	-0.1
779.464	-0.11
779.639	0.01
779.814	-0.08
779.989	-0.16
780.164	0.21
780.339	-0
780.513	-0.04
780.688	-0.07
780.863	0.1
781.038	0.18
781.212	-0.07
781.387	0.04
781.562	0.34
781.737	-0.09
781.911	0.29
782.086	-0.12
782.261	0.07
782.435	0.27
782.61	-0.14
782.784	0.09
782.959	0.26
783.134	-0.14
783.308	-0.25
783.483	-0.05
783.657	0.25
783.832	0.33
784.006	-0.18
784.181	-0.03
784.355	0.16
784.53	-0.21
784.704	-0.17
784.878	0.27
785.053	0.21
785.227	0.08
785.402	0.36
785.576	-0.24
785.75	-0.03
785.925	0.11
786.099	-0.07
786.273	-0.05
786.448	0.15
786.622	0.3
786.796	-0.01
786.97	0.09
787.145	0.27
787.319	-0.4
787.493	-0.06
787.667	-0.26
787.841	-0.15
788.015	0.1
788.19	0.04
788.364	0.01
788.538	0.15
788.712	0.06
788.886	-0.14
789.06	0.2
789.234	0.33
789.408	-0.16
789.582	0.07
789.756	-0.11
789.93	-0.13
790.104	-0.05
790.278	-0.2
790.452	-0
790.626	0.34
790.8	-0.03
790.973	0.24
791.147	0.06
791.321	0.24
791.495	0.31
791.669	0.1
791.843	0.12
792.016	0.23
792.19	0.1
792.364	-0.14
792.538	0.37
792.711	0.04
792.885	-0.08
793.059	-0.05
793.233	-0.6
793.406	0.13
793.58	-0.12
793.754	0.05
793.927	0.14
794.101	0.36
794.274	0.07
794.448	0.13
794.622	-0.1
794.795	0.53
794.969	-0.06
795.142	0.43
795.316	-0.06
795.489	-0.22
795.663	0.38
795.836	0.05
796.009	-0.18
796.183	0.21
796.356	0.26
796.53	-0.1
796.703	-0.29
796.876	0.4
797.05	0.16
797.223	0.02
797.396	0.29
797.57	0
797.743	0.51
797.916	-0.25
798.09	0.2
798.263	0.24
798.436	0.13
798.609	0.09
798.782	-0.08
798.956	0.11
799.129	0.1
799.302	0.12
799.475	-0.24
799.648	-0.09
799.821	-0.33
799.994	-0.1
800.167	-0.18
800.34	0.08
800.514	-0.02
800.687	-0.1
800.86	-0.03
801.033	-0.25
801.206	-0
801.379	-0.21
801.551	0.2
801.724	0.23
801.897	0.28
802.07	-0.02
802.243	-0.24
802.416	-0.17
802.589	-0.22
802.762	0.06
802.935	-0.07
803.107	0.3
803.28	0.47
803.453	0.29
803.626	-0.07
803.798	-0.08
803.971	-0.4
804.144	0.06
804.317	0.02
804.489	0.08
804.662	0.1
804.835	-0.04
805.007	-0.23
805.18	0.4
805.353	-0.03
805.525	-0.12
805.698	-0.16
805.87	0.02
806.043	0.21
806.215	-0.21
806.388	-0.23
806.56	0.07
806.733	0.12
806.905	-0.13
807.078	-0.27
807.25	-0.07
807.423	0.23
807.595	-0.11
807.768	0.1
807.94	0.43
808.112	0.06
808.285	-0.08
808.457	-0.12
808.629	0.16
808.802	0.43
808.974	-0.01
809.146	-0.14
809.318	-0.27
809.491	-0.07
809.663	0.14
809.835	-0.19
810.007	0.25
810.18	-0.11
810.352	-0.33
810.524	0.16
810.696	0.43
810.868	0.6
811.04	0.03
811.212	-0.1
811.384	0.28
811.556	0.21
811.728	0.01
811.901	0.6
812.073	-0.12
812.245	0.21
812.417	0.01
812.589	-0.76
812.76	0.14
812.932	0.14
813.104	0.38
813.276	0.15
813.448	0.46
813.62	0.46
813.792	0.14
813.964	0.21
814.136	0.12
814.307	-0.11
814.479	-0.1
814.651	-0.03
814.823	0.9
814.995	-0.08
815.166	-0.31
815.338	-0.41
815.51	-0.34
815.681	0.48
815.853	-0.26
816.025	-0.15
816.196	0.1
816.368	0.42
816.54	-0.56
816.711	-0.09
816.883	0.09
817.054	0.89
817.226	-0.62
817.398	0.13
817.569	0.08
817.741	0.38
817.912	-0.2
818.084	-0.18
818.255	-0
818.426	-0.42
818.598	-0.29
818.769	-0.14
818.941	-0.27
819.112	0.52
819.283	0.01
819.455	-0.32
819.626	-0.08
819.798	0.1
819.969	0.06
820.14	0.01
820.311	-0.18
820.483	-0.11
820.654	0.25
820.825	0.07
820.996	-0.38
821.168	0.19
821.339	-0.14
821.51	-0.17
821.681	0.09
821.852	-0.32
822.023	-0.15
822.195	0.06
822.366	0.29
822.537	-0.12
822.708	0.23
822.879	0.07
823.05	0.65
823.221	-0.07
823.392	0.71
823.563	-0.2
823.734	0.25
823.905	0.05
824.076	-0.3
824.247	-0.18
824.418	-0.1
824.589	0.34
824.759	-0.21
824.93	0.01
825.101	-0.45
825.272	0.06
825.443	0.57
825.614	0.18
825.784	-0.56
825.955	0.8
826.126	-0.29
826.297	-0.18
826.467	0.84
826.638	0.4
826.809	-0.22
826.98	-0.71
827.15	0.64
827.321	0.14
827.492	0.59
827.662	0.32
827.833	1.08
828.003	0.1
828.174	-0.14
828.345	-0.5
828.515	1.04
828.686	-0.33
828.856	0.01
829.027	0.03
829.197	0.02
829.368	0.22
829.538	-0.02
829.709	-0.43
829.879	-0.17
830.049	-0.24
830.22	-0.43
830.39	0.29
830.56	0.89
830.731	-0.05
830.901	-0.49
831.072	-0.37
831.242	0.49
831.412	-0.05
831.582	0.36
831.753	-0.26
831.923	0.74
832.093	-0.58
832.263	0.24
832.434	-0.45
832.604	0.23
832.774	0.46
832.944	-0.83
833.114	-0.47
833.284	0.12
833.454	-0.13
833.624	-0.13
833.795	-0.53
833.965	0.6
834.135	1.17
834.305	-0.64
834.475	-0.16
834.645	0.1
834.815	-0.68
834.985	-0.69
835.155	-0.97
835.325	0.33
835.494	-0.12
835.664	-0.43
835.834	-0.76
836.004	0.32
836.174	0.09
836.344	0.18
836.514	-0.28
836.684	0.12
836.853	0.16
837.023	0.14
837.193	-0.4
837.363	1.09
837.532	0.49
837.702	0.46
837.872	-0.77
838.041	0.54
838.211	1.21
838.381	-0.93
838.55	0.31
838.72	1.32
838.89	1.46
839.059	-0.56
839.229	-0.01
839.398	1.42
839.568	0.59
839.738	-0.19
839.907	0.94
840.077	0.37
840.246	-0.5
840.416	-0.8
840.585	-0.72
840.755	0.32
840.924	1.25
841.093	-0.88
841.263	-0.34
841.432	0.09
841.602	-0.54
841.771	-0.42
841.94	-0.04
842.11	2.43
842.279	0.85
842.448	-0.82
842.617	-0.44
842.787	0.81
842.956	-1.07
843.125	-0.01
843.294	0.04
843.464	1.65
843.633	-0.33
843.802	0.15
843.971	-0.35
844.14	0.03
844.309	0.46
844.479	-0.82
844.648	-0.18
844.817	-0.21
844.986	0.36
845.155	0.12
845.324	0.22
845.493	0.31
845.662	-0.09
845.831	0.64
846	0.69
846.169	-0.61
846.338	1.15
846.507	-0.05
846.676	0.19
846.844	-0.98
847.013	0.85
847.182	0.71
847.351	0.49
847.52	0.23
847.689	0.08
847.858	0.13
848.026	-0.23
848.195	-0.47
848.364	-0.78
848.533	-0.21
848.701	0.45
848.87	-0.53
849.039	0.08
849.207	0.32
849.376	1.31
849.545	1.07
849.713	0.63
849.882	-0.57
850.051	0.06
850.219	1.09
850.388	0.67
850.556	-0.74
850.725	-0.36
850.893	0.73
851.062	-0.36
851.23	0.92
851.399	-0.74
851.567	-0.57
851.736	-0.44
851.904	-0.95
852.073	0.09
852.241	1.25
852.41	0.7
852.578	-0.68
852.746	0.25
852.915	0.47
853.083	0.53
853.251	-0.87
853.42	-0.4
853.588	-0.15
853.756	2.56
853.924	-0.61
854.093	0.79
854.261	0.4
854.429	-0.74
854.597	-0.09
854.765	-0.8
854.934	0.88
855.102	-0.43
855.27	-0.68
855.438	0.58
855.606	0.92
855.774	1.41
855.942	-1.36
856.11	-1.86
856.278	-0.03
856.446	1.31
856.614	-0.13
856.782	-0.15
856.95	2.2
857.118	0.38
857.286	0.16
857.454	-0.83
857.622	1.3
857.79	0.78
857.958	0.1
858.126	-0.07
858.294	-2.15
858.462	0.11
858.629	-0.35
858.797	-0.99
858.965	0.42
859.133	-0.07
859.301	-0.1
859.468	1.15
859.636	-0.28
859.804	1.65
859.971	1.12
860.139	-0.9
860.307	1.53
860.474	0.49
860.642	-0.93
860.81	-0.28
860.977	-0.9
861.145	1.01
861.313	-0.2
861.48	-0.07
861.648	0.08
861.815	0.58
861.983	-1.02
862.15	-0.75
862.318	1.6
862.485	0.56
862.653	-0.68
862.82	0.11
862.988	1.5
863.155	1.03
863.322	-0.98
863.49	-0.67
863.657	-0.45
863.824	2.08
863.992	1.82
864.159	-0.18
864.326	1.29
864.494	-0.42
864.661	2.57
864.828	-0.61
864.996	1.88
865.163	2.09
865.33	-0.02
865.497	-2.3
865.664	-0.03
865.832	0
865.999	0.4
866.166	-1.02
866.333	-1.61
866.5	0.65
866.667	0.95
866.834	-0.09
867.001	0.87
867.168	-1.84
867.335	-0.46
867.502	-1.31
867.669	0.11
867.836	3.16
868.003	-0.34
868.17	1.7
868.337	2.46
868.504	1.9
868.671	-1.15
868.838	-0.29
869.005	-1.56
869.172	1.69
869.339	0.49
869.505	-0.04
869.672	-0.3
869.839	1.73
870.006	-1.18
870.173	-1.59
870.339	-1.12
870.506	2.96
870.673	-0.56
870.84	1.14
871.006	0.45
871.173	2.49
871.34	0.16
871.506	0.69
871.673	1.77
871.839	-1.34
872.006	-0.45
872.173	-0.65
872.339	-0.54
872.506	1.53
872.672	0.4
872.839	-0.28
873.005	-0.05
873.172	1.39
873.338	1.44
873.505	0.71
873.671	-1.19
873.838	0.97
874.004	-2.14
874.171	-1.72
874.337	0.66
874.503	0.97
874.67	0.14
874.836	0.71
875.002	2.34
875.169	-0.31
875.335	-0.48
875.501	-0.68
875.668	1.1
875.834	0.04
876	-0.71
876.166	1.63
876.332	0.96
876.499	2.66
876.665	-0.03
876.831	-0.87
876.997	1.14
877.163	0.92
877.329	-1.08
877.495	1.18
877.662	1.96
877.828	1.12
877.994	0.19
878.16	-0.38
878.326	-1.99
878.492	1.23
878.658	-0.92
878.824	0.28
878.99	1.64
879.156	-0.91
879.322	4.02
879.487	-2.33
879.653	-0.59
879.819	-0.03
879.985	-0.22
880.151	0.38
880.317	0.98
880.483	2.06
880.648	2.21
880.814	-2.66
880.98	1.95
881.146	-2.64
881.312	-1.61
881.477	-0.24
881.643	0.81
881.809	1.61
881.974	1.25
882.14	-2.64
882.306	2.72
882.471	0.91
882.637	-0.88
882.803	1.62
882.968	2.27
883.134	4.01
883.299	0.45
883.465	-0.41
883.63	1.09
883.796	1.22
883.961	-0.65
884.127	0.99
884.292	-2.5
884.458	-2.21
884.623	-2.21
