Data from Apollo_Calib_20240827__AbsoluteIrradiance__483__07-12-02-061.txt Node

Date: Wed Aug 28 07:12:02 BST 2024
User: biology
Spectrometer: FLMT08252
Trigger mode: 0
Integration Time (sec): 5.000000E-1
Scans to average: 5
Electric dark correction enabled: true
Nonlinearity correction enabled: false
Boxcar width: 0
XAxis mode: Wavelengths
Number of Pixels in Spectrum: 3648
>>>>>Begin Spectral Data<<<<<
179.588	-0
179.809	-0
180.03	-0
180.251	-0
180.473	-0
180.694	0
180.915	0
181.136	-0
181.357	0
181.578	-0
181.799	0
182.02	-0
182.241	-0
182.462	-0
182.683	0
182.904	-0
183.125	-0
183.346	0
183.567	0
183.788	-0
184.009	-0
184.23	0
184.451	0
184.672	-0
184.892	-0
185.113	0
185.334	0
185.555	-0
185.776	-0
185.996	0
186.217	0
186.438	-0
186.659	-0
186.879	0
187.1	-0
187.321	-0
187.541	-0
187.762	0
187.983	-0
188.203	-0
188.424	0
188.644	-0
188.865	-0
189.086	0
189.306	0
189.527	-0
189.747	-0
189.968	-0
190.188	-0
190.409	-0
190.629	0
190.849	-0
191.07	-0
191.29	0
191.511	-0
191.731	-0
191.951	-0
192.172	-0
192.392	0
192.612	0
192.833	0
193.053	0
193.273	0
193.493	-0
193.714	-0
193.934	0
194.154	0
194.374	0
194.594	0
194.815	-0
195.035	-0
195.255	-0
195.475	-0
195.695	0
195.915	0
196.135	-0
196.355	0
196.575	0
196.795	0
197.015	-0
197.235	-0
197.455	-0
197.675	0
197.895	-0
198.115	-0
198.335	0
198.555	-0
198.775	0
198.995	0
199.214	0
199.434	-0
199.654	-0
199.874	-0
200.094	-1.49
200.313	-0.74
200.533	-0.51
200.753	-1.29
200.973	0.29
201.192	0.28
201.412	-0.89
201.632	-0.26
201.851	-0.01
202.071	-0.29
202.291	-0.26
202.51	-0.84
202.73	0.09
202.95	-0.57
203.169	-0.34
203.389	-0.58
203.608	-0.03
203.828	-0.8
204.047	-0.42
204.267	0.33
204.486	0.31
204.706	0.02
204.925	-0.17
205.145	-0.64
205.364	0.64
205.583	0.36
205.803	-0.46
206.022	-0.46
206.242	-0.01
206.461	0.17
206.68	-0.37
206.9	0.12
207.119	0.14
207.338	0.43
207.557	-0.33
207.777	-0.05
207.996	-0.2
208.215	0.26
208.434	-0.43
208.654	-0.6
208.873	-0.04
209.092	0.38
209.311	-0.18
209.53	-0.12
209.749	-0.28
209.968	-0.15
210.187	-0.26
210.407	-0.61
210.626	-0.1
210.845	0.12
211.064	-0.24
211.283	-0.47
211.502	0.21
211.721	0
211.94	0.06
212.159	0.38
212.377	0.04
212.596	0.25
212.815	0.03
213.034	-0.08
213.253	-0.12
213.472	0.3
213.691	-0.23
213.91	-0.21
214.128	-0.18
214.347	0.48
214.566	-0.42
214.785	-0.37
215.003	0.16
215.222	0.08
215.441	-0.06
215.66	-0.24
215.878	-0.17
216.097	0.29
216.316	-0.36
216.534	-0.28
216.753	-0
216.972	-0.1
217.19	-0.09
217.409	-0.29
217.627	-0.17
217.846	-0.14
218.064	-0.06
218.283	-0.1
218.501	0.3
218.72	0.15
218.938	-0.24
219.157	-0.09
219.375	0.22
219.594	0
219.812	-0.21
220.031	-0.21
220.249	0.03
220.467	0.21
220.686	-0.16
220.904	-0.29
221.122	-0.23
221.341	0.12
221.559	-0.12
221.777	-0.28
221.995	0
222.214	-0.02
222.432	-0.32
222.65	0.12
222.868	-0.07
223.086	-0.09
223.305	0.12
223.523	0.03
223.741	0.22
223.959	-0.17
224.177	-0.19
224.395	-0.18
224.613	-0.02
224.831	0.04
225.049	-0.34
225.267	-0.04
225.485	-0.03
225.703	-0.29
225.921	-0.12
226.139	-0.18
226.357	0.09
226.575	-0.04
226.793	-0.21
227.011	0.41
227.229	0.02
227.447	0.01
227.665	-0.14
227.883	-0.24
228.1	-0.17
228.318	-0.09
228.536	-0.32
228.754	-0.16
228.972	0
229.189	0.19
229.407	-0.18
229.625	-0.19
229.843	0.09
230.06	-0.06
230.278	-0.09
230.496	0.05
230.713	0.04
230.931	0.11
231.149	-0.08
231.366	-0.27
231.584	-0.06
231.801	0.33
232.019	0.01
232.236	-0.14
232.454	-0.08
232.671	0.08
232.889	-0.08
233.106	-0.24
233.324	-0.15
233.541	-0.06
233.759	-0.07
233.976	-0.03
234.194	-0.11
234.411	-0.09
234.628	-0.16
234.846	-0.14
235.063	-0.13
235.28	-0.04
235.498	-0.12
235.715	-0.16
235.932	0.14
236.149	-0.03
236.367	-0.13
236.584	0.08
236.801	-0.1
237.018	-0.01
237.236	-0.02
237.453	-0.24
237.67	0.2
237.887	-0.15
238.104	-0.11
238.321	-0.13
238.538	-0.1
238.755	-0
238.973	-0.18
239.19	-0.1
239.407	-0.04
239.624	-0.08
239.841	-0.08
240.058	0.03
240.275	-0.05
240.492	-0.13
240.709	-0.01
240.925	-0
241.142	-0.1
241.359	-0.11
241.576	-0.09
241.793	-0.06
242.01	-0.09
242.227	0.08
242.444	0.1
242.66	0.14
242.877	0
243.094	-0.05
243.311	-0.05
243.527	-0.15
243.744	-0.07
243.961	0.11
244.178	-0.07
244.394	0.01
244.611	0.09
244.828	0.19
245.044	-0.11
245.261	-0.04
245.477	0.04
245.694	-0.03
245.911	-0.05
246.127	-0.01
246.344	0.1
246.56	0.06
246.777	-0.05
246.993	-0.01
247.21	0.05
247.426	-0.08
247.643	-0.09
247.859	-0.12
248.076	-0.02
248.292	0.06
248.508	-0.03
248.725	-0.04
248.941	0.05
249.157	0.08
249.374	-0.11
249.59	-0.12
249.806	-0.08
250.023	0.07
250.239	-0.03
250.455	-0.04
250.671	0.04
250.888	-0.03
251.104	-0.01
251.32	-0.05
251.536	-0
251.752	-0.06
251.969	0.01
252.185	0.01
252.401	0.11
252.617	0.02
252.833	-0.09
253.049	0.06
253.265	-0.01
253.481	-0.07
253.697	-0.04
253.913	-0.06
254.129	-0
254.345	0.04
254.561	-0.06
254.777	-0.06
254.993	0.02
255.209	-0
255.425	-0.08
255.641	-0.06
255.857	0.08
256.073	0.02
256.288	-0.07
256.504	-0.06
256.72	0.02
256.936	0.1
257.152	-0.01
257.367	-0.05
257.583	0.04
257.799	0.07
258.015	-0.1
258.23	-0.1
258.446	0.02
258.662	-0.04
258.877	-0.07
259.093	-0.11
259.309	-0.07
259.524	0.03
259.74	-0.09
259.955	-0.12
260.171	-0.05
260.387	-0.07
260.602	0.06
260.818	0
261.033	-0.1
261.249	-0.11
261.464	-0.07
261.68	-0.07
261.895	0.04
262.11	0.07
262.326	-0.08
262.541	-0.14
262.757	0.09
262.972	0.01
263.187	0.02
263.403	-0.03
263.618	0.05
263.833	-0.06
264.049	-0.1
264.264	-0.08
264.479	0.08
264.694	0.07
264.91	-0.1
265.125	-0.01
265.34	-0.02
265.555	0.07
265.77	0.04
265.986	-0.09
266.201	-0.01
266.416	0.01
266.631	-0.02
266.846	-0
267.061	0.01
267.276	0.02
267.491	-0.14
267.706	0.02
267.921	0.01
268.136	-0
268.351	-0.03
268.566	-0.06
268.781	0.05
268.996	-0.01
269.211	-0.01
269.426	-0.09
269.641	-0.02
269.856	0.05
270.071	-0.08
270.285	-0.1
270.5	0.09
270.715	0.04
270.93	-0.05
271.145	-0.03
271.359	0
271.574	-0.06
271.789	-0.07
272.004	-0.01
272.218	-0.04
272.433	0.01
272.648	-0.07
272.862	0.03
273.077	0.01
273.292	-0.02
273.506	-0.02
273.721	-0.04
273.936	0.06
274.15	0.06
274.365	-0.08
274.579	0.04
274.794	0.02
275.008	0.06
275.223	-0.06
275.437	-0.01
275.652	0.03
275.866	-0.02
276.081	0
276.295	0.07
276.509	-0.01
276.724	-0.02
276.938	-0.01
277.153	-0.06
277.367	0.07
277.581	-0.04
277.796	-0.04
278.01	-0.02
278.224	0.02
278.438	0.12
278.653	-0.03
278.867	-0.09
279.081	0.02
279.295	0.03
279.51	-0.02
279.724	-0.1
279.938	-0.01
280.152	0.03
280.366	-0.08
280.58	-0
280.794	0.1
281.008	0.02
281.222	0.01
281.437	0.1
281.651	0.01
281.865	0.04
282.079	-0.02
282.293	-0.1
282.507	-0.09
282.721	-0.03
282.935	0
283.148	-0.08
283.362	-0.07
283.576	-0.03
283.79	-0.03
284.004	-0.05
284.218	0.08
284.432	-0.03
284.646	0
284.859	0
285.073	-0.03
285.287	-0.02
285.501	-0.02
285.714	0
285.928	-0.04
286.142	-0.01
286.356	-0.06
286.569	-0.05
286.783	0.07
286.997	0.05
287.21	0
287.424	0.02
287.637	-0.01
287.851	-0.03
288.065	0.07
288.278	0.02
288.492	-0.04
288.705	-0.03
288.919	-0.04
289.132	-0.07
289.346	0.08
289.559	-0.08
289.773	-0.08
289.986	-0.03
290.2	0.01
290.413	0.02
290.626	-0.07
290.84	0.04
291.053	0
291.267	0.11
291.48	-0.01
291.693	0.01
291.906	-0.1
292.12	-0
292.333	-0.02
292.546	-0.04
292.76	0.06
292.973	0.02
293.186	0.05
293.399	-0.02
293.612	0.05
293.826	-0
294.039	-0.02
294.252	0.02
294.465	0.02
294.678	0.01
294.891	-0
295.104	-0.02
295.317	-0.01
295.53	-0.01
295.743	0.01
295.956	-0.06
296.169	0.09
296.382	0.02
296.595	-0.03
296.808	-0.07
297.021	0.06
297.234	0.02
297.447	-0.02
297.66	-0.01
297.873	0.06
298.086	0.07
298.299	-0.03
298.511	-0.04
298.724	-0.01
298.937	-0.07
299.15	-0.03
299.363	-0.01
299.575	0.01
299.788	0.05
300.001	-0.01
300.213	-0.04
300.426	-0.06
300.639	-0.03
300.852	-0.01
301.064	0.03
301.277	0.03
301.489	0.03
301.702	0.02
301.915	-0.01
302.127	-0.02
302.34	-0
302.552	0
302.765	-0.05
302.977	0.03
303.19	-0.03
303.402	-0.04
303.615	-0.03
303.827	-0.05
304.04	-0.03
304.252	0.02
304.464	-0.03
304.677	0.07
304.889	0.02
305.102	-0.02
305.314	-0
305.526	0.03
305.739	0.05
305.951	-0.05
306.163	-0.02
306.375	0.06
306.588	-0.04
306.8	-0.03
307.012	-0.07
307.224	-0.03
307.436	0.02
307.649	-0.07
307.861	-0
308.073	0.01
308.285	-0.05
308.497	-0.04
308.709	-0.02
308.921	-0.02
309.133	0.04
309.346	-0.01
309.558	-0.01
309.77	-0.02
309.982	0.09
310.194	0.02
310.406	-0.02
310.617	0.05
310.829	-0.02
311.041	-0.01
311.253	-0.08
311.465	0
311.677	-0.01
311.889	-0.01
312.101	-0.03
312.313	0.04
312.524	0.06
312.736	-0.09
312.948	-0.05
313.16	0.04
313.372	0.02
313.583	0.01
313.795	0.01
314.007	-0.03
314.218	0.02
314.43	-0.01
314.642	-0.01
314.853	-0.02
315.065	0.02
315.277	-0.02
315.488	-0
315.7	0.06
315.912	-0.01
316.123	-0.01
316.335	-0.04
316.546	0.09
316.758	0.01
316.969	-0.01
317.181	0.01
317.392	-0.02
317.604	0.04
317.815	-0.04
318.026	-0.03
318.238	-0.03
318.449	-0.03
318.661	-0.05
318.872	-0.07
319.083	-0.02
319.295	0.04
319.506	-0.02
319.717	-0.02
319.929	-0.03
320.14	0.01
320.351	0.03
320.562	-0.02
320.774	-0.01
320.985	-0.01
321.196	-0.08
321.407	-0.07
321.618	0.02
321.829	-0.03
322.041	-0
322.252	0.01
322.463	-0
322.674	0
322.885	-0.06
323.096	-0.04
323.307	-0.01
323.518	0.01
323.729	-0.03
323.94	0
324.151	-0.04
324.362	-0.01
324.573	0.02
324.784	-0
324.995	0.05
325.206	0.01
325.417	0.02
325.628	-0
325.838	-0
326.049	-0.04
326.26	0.03
326.471	-0.01
326.682	0.02
326.892	-0.02
327.103	-0.07
327.314	-0.05
327.525	-0.05
327.735	-0
327.946	0
328.157	-0.07
328.368	0.03
328.578	-0.05
328.789	0
328.999	-0.01
329.21	0
329.421	0.02
329.631	-0.03
329.842	-0.04
330.052	0.03
330.263	0.02
330.473	0.02
330.684	-0.04
330.894	-0.04
331.105	0
331.315	-0.02
331.526	-0.06
331.736	0.06
331.947	-0.03
332.157	0.02
332.367	-0.03
332.578	0.05
332.788	0.06
332.999	0.04
333.209	-0.02
333.419	-0.05
333.629	-0.04
333.84	0.01
334.05	-0.01
334.26	0.07
334.47	0.03
334.681	0.02
334.891	-0.05
335.101	0.03
335.311	0.11
335.521	-0.01
335.732	-0.03
335.942	0.04
336.152	0.03
336.362	-0.01
336.572	0.04
336.782	0.04
336.992	-0.05
337.202	0.02
337.412	-0.04
337.622	0.03
337.832	-0.03
338.042	-0.05
338.252	-0.01
338.462	-0.01
338.672	-0.03
338.882	0.01
339.092	0.03
339.302	0.1
339.511	0.04
339.721	-0.02
339.931	-0.05
340.141	0.01
340.351	0.02
340.561	-0.02
340.77	-0
340.98	-0.02
341.19	0.03
341.4	-0
341.609	-0.06
341.819	-0.03
342.029	-0.05
342.238	-0.03
342.448	-0.07
342.658	0.05
342.867	0.01
343.077	-0.01
343.286	-0.01
343.496	-0.03
343.706	0.05
343.915	-0.07
344.125	-0.03
344.334	0.04
344.544	-0.07
344.753	-0.05
344.963	-0.01
345.172	-0.03
345.381	-0.05
345.591	-0.04
345.8	-0.03
346.01	0.06
346.219	-0.01
346.428	-0.12
346.638	-0.02
346.847	-0.02
347.056	0.04
347.266	-0.05
347.475	-0.07
347.684	0.03
347.893	0.04
348.103	0.02
348.312	-0.05
348.521	0.01
348.73	-0.04
348.94	-0.04
349.149	-0.04
349.358	-0.01
349.567	-0.03
349.776	-0.06
349.985	-0.04
350.194	0.08
350.403	0.01
350.612	-0.06
350.821	-0.02
351.03	-0.03
351.239	-0.04
351.448	-0
351.657	-0.03
351.866	0.05
352.075	0.01
352.284	0.01
352.493	-0.09
352.702	0.07
352.911	0.03
353.12	-0.02
353.329	-0.05
353.538	0.01
353.746	-0.01
353.955	-0.02
354.164	0.01
354.373	0.01
354.582	-0.01
354.79	-0.01
354.999	0.03
355.208	-0.01
355.416	0.04
355.625	-0
355.834	-0.02
356.042	0.01
356.251	-0.04
356.46	-0.06
356.668	0.01
356.877	0.09
357.085	0.01
357.294	-0.11
357.503	-0
357.711	-0.02
357.92	0.08
358.128	-0.04
358.337	-0.02
358.545	-0.02
358.754	-0.04
358.962	0.02
359.17	-0.03
359.379	0
359.587	0
359.796	-0
360.004	0.03
360.212	0.02
360.421	0.03
360.629	-0.01
360.837	-0.01
361.046	0.06
361.254	0.09
361.462	0.02
361.67	-0.03
361.879	0.01
362.087	0.02
362.295	0
362.503	-0.04
362.711	-0.05
362.92	-0.03
363.128	-0.05
363.336	-0.03
363.544	-0.07
363.752	-0.01
363.96	-0.05
364.168	-0.04
364.376	-0.01
364.584	-0.01
364.792	0.01
365	0.03
365.208	-0.02
365.416	-0.01
365.624	-0.01
365.832	-0.03
366.04	0.03
366.248	-0.02
366.456	0.04
366.664	0.02
366.872	0
367.079	-0
367.287	-0.02
367.495	0.02
367.703	-0.04
367.911	-0.04
368.118	-0.02
368.326	0
368.534	-0.06
368.742	0.05
368.949	-0.06
369.157	-0.04
369.365	0.03
369.572	-0.03
369.78	-0
369.988	0
370.195	0.03
370.403	0.05
370.61	0
370.818	-0
371.026	0.04
371.233	-0.05
371.441	-0.02
371.648	-0.05
371.856	-0.03
372.063	0.01
372.271	-0
372.478	-0.04
372.685	-0.08
372.893	-0
373.1	0.01
373.308	-0.03
373.515	0.05
373.722	0.02
373.93	-0.03
374.137	-0.02
374.344	0.08
374.552	0.04
374.759	0.02
374.966	0
375.173	-0.02
375.381	0.05
375.588	-0.02
375.795	-0.08
376.002	-0.05
376.209	-0.03
376.417	-0.01
376.624	-0
376.831	0.05
377.038	-0.01
377.245	-0.09
377.452	0.01
377.659	-0
377.866	-0.03
378.073	-0.04
378.28	0.01
378.487	-0.01
378.694	-0.02
378.901	-0.01
379.108	-0.02
379.315	0.04
379.522	0.11
379.729	-0.02
379.936	-0.03
380.143	-0.04
380.35	-0.02
380.557	-0.03
380.763	-0
380.97	-0.02
381.177	0.01
381.384	-0.01
381.591	0.01
381.797	-0.04
382.004	-0
382.211	-0.02
382.418	0.01
382.624	0.05
382.831	0.04
383.038	-0.01
383.244	-0.03
383.451	-0.02
383.658	0.04
383.864	-0.05
384.071	-0.02
384.277	0.01
384.484	-0.03
384.69	0
384.897	-0.02
385.103	-0.03
385.31	-0.01
385.516	-0.04
385.723	-0.06
385.929	-0.02
386.136	-0.07
386.342	-0
386.549	-0.02
386.755	0.02
386.961	-0.02
387.168	-0.02
387.374	-0
387.58	0.02
387.787	-0.02
387.993	-0.01
388.199	0
388.406	-0.02
388.612	-0.01
388.818	-0.04
389.024	-0.01
389.231	-0
389.437	0.04
389.643	0.03
389.849	-0.02
390.055	0.03
390.261	0.03
390.467	0.03
390.674	-0.07
390.88	0.01
391.086	0
391.292	-0.03
391.498	0
391.704	0.01
391.91	-0.02
392.116	0.01
392.322	-0.08
392.528	-0.02
392.734	-0
392.94	-0.01
393.146	-0.03
393.352	-0.04
393.557	-0.04
393.763	-0.04
393.969	-0.04
394.175	-0.02
394.381	0.01
394.587	-0.06
394.792	-0.07
394.998	0.02
395.204	0.08
395.41	-0.06
395.615	0.01
395.821	0.01
396.027	0.02
396.233	-0.02
396.438	-0.03
396.644	0.06
396.85	0.01
397.055	-0.03
397.261	-0
397.466	-0.01
397.672	-0.03
397.878	0.02
398.083	0.05
398.289	-0.06
398.494	0.03
398.7	-0
398.905	-0.06
399.111	0.04
399.316	-0.09
399.522	-0.02
399.727	-0.06
399.932	0.03
400.138	-0.04
400.343	0.03
400.549	-0.02
400.754	0.02
400.959	0.01
401.165	-0.03
401.37	0.03
401.575	0.05
401.78	-0.01
401.986	-0.04
402.191	-0.07
402.396	-0
402.601	0.03
402.807	0.01
403.012	0.04
403.217	0.01
403.422	-0.02
403.627	-0.07
403.832	-0.04
404.037	-0
404.243	0.01
404.448	-0.03
404.653	-0.05
404.858	0
405.063	0.04
405.268	-0.02
405.473	-0.01
405.678	-0.06
405.883	0.12
406.088	-0.03
406.293	-0.06
406.498	-0.01
406.703	0.01
406.907	-0.04
407.112	-0.07
407.317	-0.01
407.522	0.01
407.727	-0.06
407.932	-0.01
408.136	0.06
408.341	-0.03
408.546	-0.03
408.751	0.02
408.956	-0.03
409.16	-0
409.365	-0.04
409.57	-0.03
409.774	-0.01
409.979	0
410.184	-0.03
410.388	-0.02
410.593	0.03
410.798	-0.04
411.002	-0.03
411.207	0.01
411.411	-0.02
411.616	-0.07
411.82	-0
412.025	-0.03
412.229	-0.05
412.434	0.05
412.638	0.04
412.843	-0.06
413.047	0.03
413.252	-0.05
413.456	-0.07
413.66	0.04
413.865	-0.04
414.069	0.01
414.273	-0.02
414.478	-0.09
414.682	-0.03
414.886	-0.07
415.091	-0.07
415.295	-0.06
415.499	-0.01
415.703	-0.01
415.908	0.02
416.112	-0.1
416.316	-0.01
416.52	-0.02
416.724	-0.04
416.929	-0.08
417.133	0.08
417.337	-0.01
417.541	-0.06
417.745	-0.03
417.949	-0
418.153	0
418.357	-0.08
418.561	0.03
418.765	0.01
418.969	0.09
419.173	0
419.377	-0.02
419.581	0.1
419.785	-0.04
419.989	-0.06
420.193	-0.02
420.397	-0.03
420.601	0.03
420.804	0.03
421.008	-0.03
421.212	0
421.416	0.04
421.62	-0.04
421.823	-0
422.027	0.1
422.231	0.02
422.435	-0.03
422.638	0.01
422.842	-0.05
423.046	-0.08
423.249	0.03
423.453	0.06
423.657	-0
423.86	0
424.064	-0.01
424.268	0.01
424.471	0.02
424.675	0.06
424.878	0.04
425.082	-0.01
425.285	-0.01
425.489	-0.06
425.692	-0.02
425.896	-0.07
426.099	0.01
426.303	-0.05
426.506	-0.13
426.71	0.02
426.913	0.06
427.116	0.04
427.32	-0.04
427.523	-0.01
427.726	0.04
427.93	-0.08
428.133	-0.03
428.336	-0.07
428.54	-0.05
428.743	0
428.946	-0.01
429.149	-0.06
429.353	-0.02
429.556	-0.02
429.759	-0.04
429.962	-0.03
430.165	-0.02
430.368	0.01
430.571	-0.04
430.775	0.03
430.978	-0.03
431.181	-0.05
431.384	-0.01
431.587	-0.04
431.79	-0.02
431.993	-0.01
432.196	-0.04
432.399	-0.01
432.602	0.03
432.805	-0
433.008	-0.04
433.211	-0.12
433.414	-0
433.616	0.02
433.819	0
434.022	-0.12
434.225	0.04
434.428	0.03
434.631	0.1
434.833	-0
435.036	-0
435.239	0.04
435.442	0.01
435.645	-0.03
435.847	-0.05
436.05	0.03
436.253	-0.02
436.455	-0.07
436.658	-0.04
436.861	0.07
437.063	-0.06
437.266	-0.06
437.468	0.01
437.671	0.1
437.874	0.01
438.076	-0.04
438.279	-0.1
438.481	0
438.684	-0.08
438.886	-0.02
439.089	-0.07
439.291	-0.03
439.494	-0
439.696	-0.01
439.899	-0.04
440.101	-0.03
440.303	-0.06
440.506	0.02
440.708	-0.01
440.91	0.02
441.113	-0.05
441.315	-0.03
441.517	-0.07
441.72	-0.01
441.922	-0.08
442.124	-0.06
442.326	-0.03
442.529	0.08
442.731	-0.09
442.933	0.04
443.135	-0.01
443.337	-0.02
443.539	-0.06
443.742	-0.06
443.944	-0.03
444.146	-0.02
444.348	-0.04
444.55	-0.08
444.752	-0.01
444.954	-0.04
445.156	-0.05
445.358	-0.01
445.56	0.05
445.762	-0.02
445.964	0.01
446.166	-0.04
446.368	-0.05
446.57	0.02
446.772	0.01
446.974	-0.04
447.175	-0.02
447.377	-0.02
447.579	-0.03
447.781	-0.08
447.983	0.1
448.184	-0.03
448.386	0.01
448.588	-0.12
448.79	-0.03
448.991	-0.02
449.193	-0.04
449.395	0.03
449.597	0.02
449.798	0.01
450	0.03
450.202	-0.03
450.403	-0.05
450.605	-0.03
450.806	-0.01
451.008	-0.14
451.21	-0.07
451.411	-0.01
451.613	-0.03
451.814	0
452.016	0.01
452.217	0
452.419	0
452.62	-0.02
452.821	0.01
453.023	0.02
453.224	0.01
453.426	-0.02
453.627	0.01
453.828	-0.01
454.03	0.01
454.231	-0.07
454.432	-0.04
454.634	0.11
454.835	-0.03
455.036	-0.04
455.238	-0.01
455.439	0.1
455.64	-0.05
455.841	-0.03
456.042	0.04
456.244	0
456.445	-0
456.646	-0.1
456.847	-0.09
457.048	-0.01
457.249	0.03
457.45	0.16
457.651	-0.07
457.852	0.05
458.054	0
458.255	-0.04
458.456	0.04
458.657	0.03
458.858	-0.05
459.058	-0.02
459.259	0.04
459.46	-0.01
459.661	-0.08
459.862	0.08
460.063	-0.06
460.264	0.06
460.465	-0.09
460.666	0.1
460.866	-0.04
461.067	0.03
461.268	0.01
461.469	-0.02
461.67	-0.02
461.87	-0.05
462.071	-0.05
462.272	-0.07
462.473	-0.01
462.673	0.02
462.874	-0.08
463.075	-0.03
463.275	-0.08
463.476	-0.02
463.676	-0.01
463.877	0
464.078	-0.04
464.278	0.02
464.479	-0.08
464.679	-0.01
464.88	-0.03
465.08	0.05
465.281	-0.02
465.481	-0.03
465.682	-0.02
465.882	0.04
466.083	-0.02
466.283	0.04
466.483	-0.02
466.684	-0.09
466.884	-0.05
467.085	-0.05
467.285	0.03
467.485	-0.04
467.686	-0.03
467.886	-0.03
468.086	-0.02
468.286	0.01
468.487	-0.03
468.687	-0.05
468.887	-0.01
469.087	0.03
469.287	-0.01
469.488	-0.03
469.688	-0.01
469.888	0.07
470.088	0.01
470.288	0.06
470.488	0.02
470.688	-0.05
470.888	-0.02
471.088	-0.04
471.288	0.06
471.488	0.02
471.688	-0
471.888	-0.03
472.088	0.06
472.288	0.04
472.488	-0.03
472.688	-0.05
472.888	0.02
473.088	-0.02
473.288	0.01
473.488	-0.04
473.688	0.06
473.887	-0.01
474.087	-0.02
474.287	-0.01
474.487	-0.03
474.687	0.02
474.886	-0.05
475.086	-0
475.286	-0
475.486	-0
475.685	0
475.885	-0.03
476.085	-0.02
476.284	0
476.484	-0.03
476.684	0
476.883	0.02
477.083	-0.02
477.282	-0.03
477.482	0.06
477.681	0.06
477.881	-0
478.08	-0.07
478.28	-0.04
478.479	0
478.679	0.05
478.878	-0.03
479.078	-0.02
479.277	-0.02
479.477	-0.01
479.676	0.06
479.875	-0
480.075	-0.07
480.274	-0
480.473	0
480.673	-0.05
480.872	0.02
481.071	-0.01
481.271	-0
481.47	-0.01
481.669	-0.01
481.868	-0
482.067	-0.04
482.267	-0.01
482.466	-0.05
482.665	-0.03
482.864	-0.05
483.063	-0.04
483.262	0.01
483.461	0.06
483.661	0
483.86	0.01
484.059	0.01
484.258	0
484.457	-0
484.656	-0.02
484.855	0.04
485.054	-0.03
485.253	-0.06
485.452	-0.05
485.651	-0
485.849	-0
486.048	-0.02
486.247	-0.04
486.446	0.01
486.645	-0.03
486.844	-0.03
487.043	-0.03
487.241	0.03
487.44	-0.02
487.639	-0.02
487.838	0.01
488.037	0.01
488.235	0.04
488.434	0
488.633	-0.03
488.831	0.01
489.03	0.02
489.229	0.01
489.427	0.01
489.626	-0.01
489.825	0.02
490.023	-0.01
490.222	-0.02
490.42	0.03
490.619	0.03
490.817	0.01
491.016	-0.02
491.214	0.02
491.413	-0.01
491.611	-0.02
491.81	-0.01
492.008	0.02
492.207	0.01
492.405	-0
492.604	-0.02
492.802	0
493	-0.02
493.199	-0.02
493.397	-0.01
493.595	-0.02
493.794	-0.02
493.992	0.02
494.19	0.01
494.388	0
494.587	-0
494.785	-0
494.983	-0.04
495.181	0
495.379	0
495.578	0
495.776	0.01
495.974	-0.01
496.172	-0.03
496.37	-0.03
496.568	-0.01
496.766	-0.03
496.964	0.03
497.162	-0.01
497.36	-0.03
497.558	0.02
497.756	0.02
497.954	-0.01
498.152	-0.02
498.35	-0.01
498.548	-0
498.746	0
498.944	-0.03
499.142	-0.01
499.34	-0.03
499.538	0.01
499.736	-0.03
499.933	0.04
500.131	0.01
500.329	-0.01
500.527	0.03
500.725	0.02
500.922	0
501.12	0.01
501.318	0
501.516	-0.04
501.713	-0.01
501.911	-0.03
502.109	-0.06
502.306	-0.01
502.504	-0.03
502.701	-0.01
502.899	-0.01
503.097	0.02
503.294	-0
503.492	0
503.689	0
503.887	0
504.084	0.03
504.282	-0.01
504.479	-0.04
504.677	0
504.874	-0.03
505.072	0
505.269	-0.03
505.466	0.03
505.664	0.01
505.861	-0.03
506.059	-0.07
506.256	-0
506.453	-0.03
506.651	0.04
506.848	0.01
507.045	0.01
507.242	0
507.44	-0.01
507.637	-0.01
507.834	-0.01
508.031	0.01
508.229	-0.04
508.426	0.01
508.623	0.01
508.82	-0.03
509.017	-0.01
509.214	-0.02
509.411	-0
509.608	-0.05
509.805	-0.02
510.003	-0.02
510.2	-0.02
510.397	0.02
510.594	-0.01
510.791	-0.03
510.988	-0.02
511.184	0.03
511.381	-0.03
511.578	-0.03
511.775	0.01
511.972	-0.02
512.169	-0.02
512.366	-0.02
512.563	0
512.76	-0.03
512.956	-0.01
513.153	-0.02
513.35	-0
513.547	-0.02
513.744	-0.03
513.94	-0.04
514.137	-0
514.334	-0.01
514.53	-0
514.727	0.01
514.924	0.03
515.12	-0.02
515.317	-0.04
515.514	-0.02
515.71	-0.06
515.907	-0
516.103	-0
516.3	0.01
516.497	0.02
516.693	0.04
516.89	-0.02
517.086	-0.04
517.283	0.04
517.479	-0.02
517.676	-0.01
517.872	-0.02
518.068	-0.03
518.265	-0.02
518.461	-0.03
518.658	-0.02
518.854	0
519.05	-0.01
519.247	-0.02
519.443	-0.01
519.639	0.01
519.836	0.01
520.032	0.01
520.228	0.01
520.424	0.02
520.621	-0
520.817	-0.01
521.013	-0
521.209	0.02
521.405	0.03
521.601	0
521.798	0
521.994	0.02
522.19	-0.03
522.386	-0.03
522.582	-0.01
522.778	-0.02
522.974	-0.03
523.17	-0.02
523.366	0
523.562	0.03
523.758	-0.02
523.954	-0.02
524.15	0
524.346	-0.01
524.542	-0.02
524.738	-0.03
524.934	-0.01
525.129	0.01
525.325	0.01
525.521	-0
525.717	0.02
525.913	-0.01
526.109	0
526.304	-0.01
526.5	-0
526.696	0.04
526.892	-0.02
527.087	0.01
527.283	-0.02
527.479	0
527.674	-0.03
527.87	-0
528.066	-0.03
528.261	0.01
528.457	0
528.653	-0.01
528.848	-0.01
529.044	-0
529.239	0
529.435	0.02
529.63	0.01
529.826	0.04
530.021	0.01
530.217	0.01
530.412	-0.01
530.608	-0.01
530.803	-0.01
530.999	-0.02
531.194	-0.05
531.389	0.01
531.585	-0.06
531.78	-0.02
531.975	-0.01
532.171	0.01
532.366	-0.01
532.561	-0
532.757	-0.02
532.952	-0.01
533.147	0
533.342	-0.02
533.538	-0
533.733	0.03
533.928	-0.02
534.123	0.01
534.318	-0.03
534.513	-0.02
534.709	0.02
534.904	-0.03
535.099	-0.01
535.294	-0
535.489	-0.01
535.684	-0.02
535.879	-0.03
536.074	0.01
536.269	-0.02
536.464	0.01
536.659	-0.04
536.854	-0.01
537.049	0.01
537.244	-0.01
537.439	-0.02
537.634	0.03
537.828	0.01
538.023	-0.02
538.218	-0.02
538.413	-0.03
538.608	-0.04
538.803	-0
538.997	-0.03
539.192	0.02
539.387	0.01
539.582	-0.02
539.776	0.03
539.971	-0.02
540.166	-0.02
540.36	-0.04
540.555	0.01
540.75	-0.02
540.944	-0.01
541.139	-0.05
541.334	-0.02
541.528	-0
541.723	0.01
541.917	0.01
542.112	-0.04
542.306	-0.01
542.501	-0
542.695	-0.01
542.89	-0.03
543.084	-0.01
543.279	0
543.473	0.02
543.668	-0.02
543.862	-0.02
544.056	0.02
544.251	-0.01
544.445	0.01
544.64	-0.02
544.834	-0.05
545.028	0.01
545.222	0.01
545.417	0.02
545.611	0.01
545.805	-0.01
546	-0.03
546.194	0.02
546.388	-0.02
546.582	0.02
546.776	-0
546.97	-0.01
547.165	-0
547.359	0.01
547.553	-0
547.747	0
547.941	0.01
548.135	0.01
548.329	0
548.523	0.01
548.717	0
548.911	-0.02
549.105	-0.01
549.299	-0.01
549.493	0.02
549.687	0.01
549.881	0.02
550.075	0.01
550.269	-0.03
550.463	0.02
550.657	-0.02
550.85	-0
551.044	0.01
551.238	0.02
551.432	0
551.626	-0.03
551.82	-0
552.013	-0.02
552.207	0.02
552.401	0.01
552.594	0
552.788	-0.03
552.982	-0.01
553.176	-0.01
553.369	0.01
553.563	0
553.756	-0.02
553.95	-0.02
554.144	0.01
554.337	0.02
554.531	0.02
554.724	-0
554.918	-0.02
555.111	0.02
555.305	-0.01
555.498	0.03
555.692	0.01
555.885	-0.01
556.079	0.02
556.272	-0.02
556.466	0
556.659	-0
556.852	-0.01
557.046	-0
557.239	0.02
557.432	0.01
557.626	-0.01
557.819	0.01
558.012	0.02
558.206	0
558.399	0
558.592	0.01
558.785	-0.02
558.979	0.01
559.172	0
559.365	0.01
559.558	0.01
559.751	-0
559.944	0.01
560.138	-0.05
560.331	0
560.524	-0.02
560.717	-0.01
560.91	-0.01
561.103	0.01
561.296	0.01
561.489	0
561.682	-0.01
561.875	0.02
562.068	0.02
562.261	0.01
562.454	0.03
562.647	0.01
562.84	0.02
563.032	-0
563.225	0.01
563.418	0.01
563.611	-0.02
563.804	0.01
563.997	-0.02
564.19	-0.02
564.382	-0.02
564.575	0
564.768	-0.01
564.961	-0
565.153	-0
565.346	0.03
565.539	-0
565.731	0.02
565.924	0.03
566.117	-0
566.309	0.01
566.502	-0.01
566.695	0.01
566.887	0
567.08	-0.04
567.272	-0.01
567.465	-0.04
567.657	-0.01
567.85	0.01
568.042	-0.01
568.235	0.04
568.427	-0
568.62	0.01
568.812	0.02
569.005	0.01
569.197	-0.04
569.389	0.01
569.582	0.01
569.774	0.01
569.966	-0.03
570.159	-0.03
570.351	0.02
570.543	-0.02
570.736	0
570.928	-0.04
571.12	0.02
571.312	-0
571.505	-0.02
571.697	0.03
571.889	-0.02
572.081	0.01
572.273	-0.02
572.465	0.03
572.658	0.01
572.85	0.02
573.042	-0
573.234	-0.01
573.426	0.07
573.618	-0.02
573.81	0.01
574.002	0.03
574.194	0.05
574.386	-0.03
574.578	-0.02
574.77	-0.01
574.962	-0
575.154	-0.02
575.346	0.02
575.538	0.01
575.729	-0
575.921	-0
576.113	0.01
576.305	0.04
576.497	-0
576.689	0.02
576.88	-0.01
577.072	0.01
577.264	0.04
577.456	0.02
577.647	-0.03
577.839	0.02
578.031	0.08
578.223	-0
578.414	-0.02
578.606	0.03
578.798	0.03
578.989	0
579.181	0.01
579.372	0.01
579.564	-0.01
579.755	0.02
579.947	0.04
580.139	0.05
580.33	-0.05
580.522	-0
580.713	-0.05
580.905	0.01
581.096	0.04
581.287	0.04
581.479	0.02
581.67	0.06
581.862	0.05
582.053	0.02
582.244	-0.02
582.436	0.03
582.627	0.02
582.818	0.03
583.01	-0.01
583.201	0.07
583.392	0.08
583.583	0.06
583.775	0.03
583.966	0.03
584.157	0.05
584.348	0.05
584.54	-0.01
584.731	0.05
584.922	0.06
585.113	0.02
585.304	0.07
585.495	0.08
585.686	0.07
585.877	0.08
586.068	0.07
586.259	0.07
586.45	0.08
586.641	0.04
586.832	0.03
587.023	0.09
587.214	0.08
587.405	0.08
587.596	0.07
587.787	0.1
587.978	0.08
588.169	0.07
588.36	0.06
588.551	0.08
588.742	0.11
588.932	0.13
589.123	0.07
589.314	0.14
589.505	0.1
589.696	0.11
589.886	0.11
590.077	0.07
590.268	0.1
590.458	0.09
590.649	0.08
590.84	0.14
591.03	0.1
591.221	0.09
591.412	0.09
591.602	0.16
591.793	0.17
591.984	0.1
592.174	0.14
592.365	0.2
592.555	0.13
592.746	0.17
592.936	0.14
593.127	0.21
593.317	0.18
593.508	0.14
593.698	0.17
593.889	0.17
594.079	0.18
594.269	0.16
594.46	0.17
594.65	0.17
594.84	0.18
595.031	0.16
595.221	0.19
595.411	0.18
595.602	0.25
595.792	0.22
595.982	0.19
596.172	0.28
596.363	0.24
596.553	0.24
596.743	0.22
596.933	0.22
597.123	0.24
597.314	0.22
597.504	0.25
597.694	0.3
597.884	0.26
598.074	0.26
598.264	0.27
598.454	0.29
598.644	0.29
598.834	0.28
599.024	0.24
599.214	0.28
599.404	0.33
599.594	0.29
599.784	0.3
599.974	0.37
600.164	0.35
600.354	0.31
600.544	0.31
600.734	0.33
600.924	0.38
601.114	0.35
601.303	0.37
601.493	0.4
601.683	0.36
601.873	0.42
602.063	0.38
602.252	0.46
602.442	0.37
602.632	0.4
602.821	0.42
603.011	0.48
603.201	0.46
603.39	0.43
603.58	0.44
603.77	0.48
603.959	0.52
604.149	0.5
604.339	0.54
604.528	0.6
604.718	0.56
604.907	0.52
605.097	0.55
605.286	0.55
605.476	0.57
605.665	0.63
605.855	0.57
606.044	0.65
606.234	0.63
606.423	0.64
606.612	0.64
606.802	0.66
606.991	0.68
607.181	0.7
607.37	0.71
607.559	0.68
607.749	0.71
607.938	0.72
608.127	0.74
608.316	0.78
608.506	0.81
608.695	0.82
608.884	0.81
609.073	0.82
609.263	0.9
609.452	0.95
609.641	0.92
609.83	0.92
610.019	0.96
610.208	0.98
610.397	0.97
610.586	1.07
610.775	1.05
610.965	1.03
611.154	1.04
611.343	1.12
611.532	1.1
611.721	1.19
611.91	1.14
612.099	1.23
612.287	1.2
612.476	1.25
612.665	1.33
612.854	1.31
613.043	1.36
613.232	1.39
613.421	1.36
613.61	1.44
613.798	1.41
613.987	1.55
614.176	1.55
614.365	1.62
614.554	1.64
614.742	1.72
614.931	1.6
615.12	1.78
615.309	1.74
615.497	1.77
615.686	1.72
615.875	1.85
616.063	1.86
616.252	1.87
616.44	1.95
616.629	2.05
616.818	2.01
617.006	2.05
617.195	2.09
617.383	2.14
617.572	2.13
617.76	2.21
617.949	2.26
618.137	2.34
618.326	2.4
618.514	2.3
618.703	2.35
618.891	2.45
619.079	2.43
619.268	2.56
619.456	2.49
619.644	2.58
619.833	2.6
620.021	2.61
620.209	2.57
620.398	2.73
620.586	2.69
620.774	2.82
620.962	2.79
621.151	2.92
621.339	2.85
621.527	2.84
621.715	2.85
621.903	2.93
622.092	2.88
622.28	2.99
622.468	2.93
622.656	3.03
622.844	2.99
623.032	3.04
623.22	2.93
623.408	3.09
623.596	3.07
623.784	3.08
623.972	2.99
624.16	2.99
624.348	3.1
624.536	3.09
624.724	2.92
624.912	2.99
625.1	3.01
625.288	2.97
625.476	2.87
625.664	2.96
625.851	2.83
626.039	2.8
626.227	2.7
626.415	2.69
626.603	2.55
626.79	2.61
626.978	2.53
627.166	2.56
627.354	2.38
627.541	2.35
627.729	2.22
627.917	2.31
628.104	2.2
628.292	2.16
628.48	2.11
628.667	1.98
628.855	2.02
629.042	1.94
629.23	1.83
629.418	1.79
629.605	1.73
629.793	1.65
629.98	1.54
630.168	1.49
630.355	1.5
630.543	1.41
630.73	1.32
630.917	1.32
631.105	1.33
631.292	1.23
631.48	1.15
631.667	1.18
631.854	1.1
632.042	1.06
632.229	0.96
632.416	0.97
632.604	0.91
632.791	0.86
632.978	0.9
633.165	0.85
633.353	0.81
633.54	0.81
633.727	0.65
633.914	0.7
634.101	0.6
634.289	0.73
634.476	0.63
634.663	0.56
634.85	0.59
635.037	0.5
635.224	0.44
635.411	0.57
635.598	0.53
635.785	0.47
635.972	0.47
636.159	0.48
636.346	0.4
636.533	0.38
636.72	0.39
636.907	0.35
637.094	0.4
637.281	0.33
637.468	0.37
637.655	0.3
637.842	0.32
638.029	0.27
638.215	0.31
638.402	0.32
638.589	0.24
638.776	0.26
638.963	0.27
639.149	0.29
639.336	0.34
639.523	0.2
639.709	0.23
639.896	0.22
640.083	0.26
640.27	0.21
640.456	0.17
640.643	0.22
640.829	0.17
641.016	0.15
641.203	0.13
641.389	0.19
641.576	0.18
641.762	0.15
641.949	0.1
642.135	0.17
642.322	0.12
642.508	0.07
642.695	0.12
642.881	0.1
643.068	0.08
643.254	0.12
643.441	0.15
643.627	0.09
643.813	0.04
644	0.13
644.186	0.06
644.372	0.11
644.559	0.11
644.745	0.09
644.931	0.06
645.118	0.08
645.304	0.07
645.49	0.06
645.676	0.02
645.862	0.06
646.049	0.11
646.235	0.04
646.421	0.13
646.607	0.07
646.793	0.04
646.979	0.01
647.165	0.07
647.352	0.06
647.538	0.11
647.724	0.02
647.91	0.06
648.096	0.07
648.282	0.08
648.468	0.03
648.654	0.03
648.84	0.04
649.026	0.05
649.212	0.03
649.397	-0.01
649.583	-0.01
649.769	0.05
649.955	0.03
650.141	0.06
650.327	0.08
650.513	-0
650.698	0.07
650.884	-0.01
651.07	0.05
651.256	0.04
651.442	0.01
651.627	0.04
651.813	0.04
651.999	0
652.184	0.03
652.37	0.02
652.556	-0
652.741	0.06
652.927	-0.03
653.113	0.01
653.298	0.01
653.484	-0.01
653.669	-0.03
653.855	0.04
654.04	0.04
654.226	0.01
654.412	0.02
654.597	-0.04
654.782	0.01
654.968	0.05
655.153	0.04
655.339	-0
655.524	-0.04
655.71	0.03
655.895	-0.03
656.08	0
656.266	0.03
656.451	0.02
656.636	-0.02
656.822	0.01
657.007	-0
657.192	-0.04
657.378	-0.04
657.563	0
657.748	-0.01
657.933	0.02
658.118	-0.01
658.304	-0
658.489	0.05
658.674	0.03
658.859	-0.03
659.044	0.03
659.229	0.02
659.414	-0.02
659.599	-0.01
659.785	-0.02
659.97	-0.04
660.155	0.04
660.34	0.01
660.525	-0.01
660.71	-0.01
660.895	0.04
661.08	-0.01
661.264	-0.03
661.449	0.03
661.634	0.05
661.819	0.01
662.004	0.02
662.189	-0.08
662.374	-0.03
662.559	-0.02
662.743	-0.07
662.928	0.01
663.113	-0.01
663.298	-0.03
663.483	-0.01
663.667	0.05
663.852	-0.08
664.037	0.02
664.221	-0.02
664.406	0.04
664.591	0.04
664.775	-0
664.96	-0.01
665.145	-0.01
665.329	0.01
665.514	-0.03
665.698	-0
665.883	-0.08
666.068	0.06
666.252	-0.03
666.437	-0.02
666.621	-0.04
666.806	0.02
666.99	-0.03
667.174	-0.07
667.359	0.05
667.543	-0.01
667.728	-0.02
667.912	-0.07
668.096	-0.01
668.281	-0.01
668.465	-0.02
668.649	-0.01
668.834	-0.01
669.018	0.01
669.202	-0.02
669.387	-0.03
669.571	0.04
669.755	-0.03
669.939	-0.03
670.124	-0.02
670.308	0.05
670.492	0.01
670.676	0
670.86	-0.01
671.044	-0.06
671.228	-0
671.413	-0.05
671.597	-0.05
671.781	-0.08
671.965	-0.05
672.149	-0.03
672.333	-0.01
672.517	0
672.701	-0.02
672.885	-0.03
673.069	-0.06
673.253	0.04
673.437	-0.01
673.621	-0.03
673.804	-0.01
673.988	-0.01
674.172	-0.01
674.356	-0.08
674.54	-0.02
674.724	0.08
674.908	-0.05
675.091	0.02
675.275	-0.05
675.459	0.04
675.643	0.06
675.826	-0.01
676.01	-0.02
676.194	-0.02
676.377	0.03
676.561	0.03
676.745	0
676.928	-0.03
677.112	0.05
677.296	-0.04
677.479	-0.04
677.663	-0.05
677.846	0.01
678.03	0.03
678.213	-0.03
678.397	-0.03
678.58	-0.02
678.764	-0.03
678.947	-0.03
679.131	-0.09
679.314	-0.02
679.498	-0.02
679.681	0.02
679.865	0.03
680.048	0.03
680.231	-0.03
680.415	-0.03
680.598	-0.03
680.781	-0.03
680.965	-0.04
681.148	-0.02
681.331	0.01
681.514	0.01
681.698	-0
681.881	0.03
682.064	-0.05
682.247	0.02
682.43	-0.11
682.614	-0
682.797	0.04
682.98	-0.01
683.163	-0.03
683.346	0
683.529	-0.04
683.712	-0.04
683.895	0.05
684.078	-0.03
684.261	-0
684.444	0.02
684.627	-0.01
684.81	-0.04
684.993	-0.02
685.176	-0
685.359	-0.03
685.542	-0.05
685.725	0.05
685.908	-0.02
686.091	-0.05
686.274	0.04
686.457	-0.01
686.639	-0.01
686.822	0.03
687.005	0.03
687.188	0
687.371	0.05
687.553	-0.04
687.736	-0.02
687.919	0.03
688.102	-0
688.284	-0.05
688.467	0
688.65	-0.05
688.832	-0.02
689.015	-0.01
689.197	-0.05
689.38	0.06
689.563	0.03
689.745	-0.03
689.928	-0.07
690.11	0.02
690.293	0.01
690.475	-0.13
690.658	0.02
690.84	0
691.023	0.01
691.205	-0.01
691.388	-0
691.57	0.09
691.752	-0
691.935	-0.1
692.117	-0.03
692.3	0
692.482	0.01
692.664	0.02
692.847	0
693.029	0.1
693.211	0
693.393	-0
693.576	-0.05
693.758	0
693.94	-0.02
694.122	-0.04
694.304	-0.03
694.487	-0.05
694.669	0.05
694.851	-0.06
695.033	0.03
695.215	-0.05
695.397	-0.07
695.579	0.04
695.761	-0.02
695.943	-0.11
696.125	0.06
696.308	-0
696.49	-0.07
696.671	0.07
696.853	-0.02
697.035	0.11
697.217	-0
697.399	0.02
697.581	-0.08
697.763	0
697.945	-0.05
698.127	0.01
698.309	-0.16
698.491	-0.01
698.672	-0.02
698.854	-0.01
699.036	0.06
699.218	-0.02
699.399	0.03
699.581	0.05
699.763	0.01
699.945	-0.01
700.126	-0.08
700.308	-0.03
700.49	-0.04
700.671	-0.14
700.853	-0.07
701.035	-0.03
701.216	-0.02
701.398	-0.09
701.579	-0.02
701.761	0.03
701.943	-0.08
702.124	-0.08
702.306	0.01
702.487	0.14
702.669	-0.03
702.85	-0.06
703.031	-0.01
703.213	0.09
703.394	0.04
703.576	-0.04
703.757	0.06
703.938	0.05
704.12	0.14
704.301	0.01
704.483	-0.07
704.664	0
704.845	0.07
705.026	0.06
705.208	-0.01
705.389	-0.03
705.57	-0.02
705.751	0.03
705.933	-0.03
706.114	0.03
706.295	-0.01
706.476	-0.06
706.657	0.12
706.838	-0.03
707.02	0.02
707.201	-0.08
707.382	-0.01
707.563	0.12
707.744	-0.04
707.925	-0.07
708.106	-0.09
708.287	0.01
708.468	0.06
708.649	0.01
708.83	0.03
709.011	-0.06
709.192	0.04
709.373	-0.08
709.554	-0.02
709.734	0.07
709.915	-0.03
710.096	-0.02
710.277	-0.08
710.458	-0.02
710.639	0.07
710.819	-0.15
711	-0.03
711.181	0.05
711.362	0.02
711.542	-0
711.723	-0.08
711.904	0.06
712.085	0.02
712.265	-0
712.446	-0.11
712.627	-0.09
712.807	-0.01
712.988	0.01
713.168	-0.09
713.349	0.01
713.53	-0.15
713.71	-0.06
713.891	-0.1
714.071	0
714.252	-0.08
714.432	-0.03
714.613	-0.06
714.793	0
714.974	0.04
715.154	0.05
715.334	-0
715.515	0.08
715.695	-0.11
715.876	-0.05
716.056	-0.07
716.236	-0.03
716.417	-0.04
716.597	-0.09
716.777	0.09
716.957	-0.03
717.138	-0
717.318	-0.01
717.498	-0.05
717.678	-0.02
717.859	-0.04
718.039	-0.11
718.219	0.01
718.399	-0.01
718.579	-0.09
718.759	-0.03
718.939	0.05
719.12	-0.05
719.3	0.01
719.48	-0.14
719.66	-0.06
719.84	0.08
720.02	-0.02
720.2	-0.13
720.38	-0.03
720.56	0.04
720.74	-0.09
720.92	0.01
721.1	0.09
721.279	-0
721.459	0.01
721.639	-0.11
721.819	0.02
721.999	-0.04
722.179	0.03
722.359	-0.09
722.538	-0.04
722.718	-0.12
722.898	-0.09
723.078	-0
723.257	-0.06
723.437	-0.05
723.617	-0.03
723.797	-0.08
723.976	-0.05
724.156	0
724.336	0.1
724.515	0.09
724.695	-0.13
724.874	-0.05
725.054	0.02
725.234	-0.05
725.413	-0.01
725.593	-0.08
725.772	-0.01
725.952	-0.09
726.131	-0.09
726.311	-0.04
726.49	-0.03
726.67	-0.08
726.849	-0.04
727.028	0.03
727.208	-0.09
727.387	-0.03
727.567	-0.11
727.746	0.04
727.925	-0.13
728.105	-0.11
728.284	-0.17
728.463	0.03
728.643	0.06
728.822	-0.1
729.001	-0.06
729.18	0.01
729.359	-0.04
729.539	-0.06
729.718	0.01
729.897	0.05
730.076	-0.05
730.255	-0.1
730.434	-0
730.614	0.03
730.793	0.04
730.972	-0.08
731.151	-0.1
731.33	0.04
731.509	-0.03
731.688	0.04
731.867	-0.02
732.046	-0.13
732.225	0.23
732.404	-0.08
732.583	-0.13
732.762	-0.02
732.941	0.02
733.12	-0.03
733.298	-0.05
733.477	0.07
733.656	-0.04
733.835	-0.11
734.014	0.06
734.193	0.01
734.371	-0.06
734.55	0
734.729	-0.21
734.908	0.11
735.086	0.01
735.265	0.06
735.444	-0.13
735.623	-0.1
735.801	-0.19
735.98	0.04
736.159	0.01
736.337	0.12
736.516	-0.01
736.694	-0.01
736.873	-0.09
737.052	0.07
737.23	0.1
737.409	-0.11
737.587	0.17
737.766	-0.18
737.944	-0.03
738.123	0.02
738.301	0.06
738.479	0.08
738.658	0.01
738.836	-0.13
739.015	0.09
739.193	0.08
739.371	-0.16
739.55	-0.07
739.728	-0.07
739.906	0.06
740.085	0.04
740.263	-0.05
740.441	-0.26
740.62	0.04
740.798	0.04
740.976	-0.08
741.154	-0.11
741.332	0.12
741.511	-0.03
741.689	0
741.867	-0.01
742.045	-0.1
742.223	-0.13
742.401	-0.13
742.579	-0.06
742.757	-0.02
742.935	-0.17
743.114	-0.12
743.292	-0.09
743.47	-0.02
743.648	-0.05
743.826	0.01
744.004	0.06
744.181	-0.02
744.359	-0.05
744.537	0
744.715	-0.07
744.893	-0.09
745.071	0.06
745.249	0.1
745.427	-0.09
745.605	0
745.782	0.03
745.96	0.12
746.138	0.05
746.316	0.02
746.493	-0.08
746.671	-0.01
746.849	-0
747.027	0.1
747.204	-0.03
747.382	0.04
747.56	-0.16
747.737	0.05
747.915	-0.12
748.093	-0.03
748.27	-0.06
748.448	-0.06
748.625	-0.18
748.803	-0.12
748.98	-0.04
749.158	-0.01
749.335	-0.01
749.513	-0.13
749.69	-0.16
749.868	-0.09
750.045	0.09
750.223	-0.08
750.4	-0.26
750.578	0.2
750.755	-0.12
750.932	-0.18
751.11	0.03
751.287	-0.13
751.464	0.19
751.642	-0.13
751.819	-0.04
751.996	-0.02
752.173	-0.02
752.351	-0.12
752.528	-0.07
752.705	-0.03
752.882	-0.16
753.06	-0.08
753.237	-0.04
753.414	0.08
753.591	0.14
753.768	-0.06
753.945	-0.09
754.122	-0.19
754.299	0.02
754.476	-0.13
754.654	0.03
754.831	-0.03
755.008	0.01
755.185	-0.07
755.362	-0.14
755.539	0.06
755.716	-0.07
755.892	-0.07
756.069	-0.03
756.246	-0.02
756.423	-0.11
756.6	0.17
756.777	-0.05
756.954	0.15
757.131	-0.04
757.307	-0.1
757.484	-0.11
757.661	-0.01
757.838	-0.06
758.015	-0.08
758.191	0.15
758.368	0.15
758.545	0.08
758.721	0.05
758.898	-0.09
759.075	-0.03
759.251	0.01
759.428	0.04
759.605	-0.25
759.781	-0.06
759.958	-0.06
760.134	0.11
760.311	-0.15
760.488	0.12
760.664	0.04
760.841	-0.01
761.017	-0.13
761.194	0.12
761.37	0.06
761.547	-0.05
761.723	-0.02
761.899	0.08
762.076	-0.11
762.252	-0.17
762.429	-0.03
762.605	-0.07
762.781	0.04
762.958	0.05
763.134	-0.17
763.31	-0.09
763.486	0.1
763.663	-0.26
763.839	-0.02
764.015	-0.18
764.191	-0.12
764.368	-0
764.544	-0.16
764.72	0.07
764.896	0.05
765.072	-0.1
765.248	-0.1
765.425	-0.17
765.601	-0.07
765.777	0.03
765.953	-0.17
766.129	-0.14
766.305	-0.21
766.481	0.02
766.657	0.02
766.833	0.13
767.009	-0.33
767.185	-0.1
767.361	-0.13
767.537	-0.07
767.713	0.18
767.889	-0.14
768.065	-0.09
768.24	-0.02
768.416	0.06
768.592	-0.09
768.768	0.03
768.944	-0.03
769.12	-0.14
769.295	-0.03
769.471	-0.02
769.647	-0
769.823	0.07
769.998	-0.09
770.174	-0.13
770.35	0.18
770.525	0.22
770.701	-0.06
770.877	-0.04
771.052	-0.18
771.228	0.15
771.403	0.01
771.579	0.11
771.755	0.17
771.93	-0.05
772.106	-0.08
772.281	-0.23
772.457	-0.04
772.632	0.03
772.808	-0.17
772.983	-0.08
773.159	-0.23
773.334	0.06
773.509	-0.07
773.685	0.01
773.86	0.26
774.036	0.2
774.211	0.08
774.386	-0.01
774.562	-0.04
774.737	-0.07
774.912	-0.18
775.087	0.1
775.263	-0.14
775.438	0.03
775.613	0.04
775.788	-0.14
775.964	0.06
776.139	0.19
776.314	-0.15
776.489	0.03
776.664	-0.03
776.839	-0.15
777.014	0.19
777.19	0.05
777.365	0.24
777.54	0.2
777.715	-0.11
777.89	0.04
778.065	-0.13
778.24	0.05
778.415	0.1
778.59	-0.22
778.765	0.1
778.94	-0.07
779.115	-0.17
779.289	-0.02
779.464	-0.04
779.639	-0.05
779.814	-0.26
779.989	-0.21
780.164	0.18
780.339	-0.07
780.513	-0.05
780.688	-0.1
780.863	0.05
781.038	0.11
781.212	-0.06
781.387	-0.06
781.562	0.29
781.737	-0.23
781.911	0.08
782.086	0.01
782.261	0.07
782.435	0.22
782.61	-0.1
782.784	-0.27
782.959	-0.05
783.134	-0.18
783.308	-0.21
783.483	-0.12
783.657	0.3
783.832	0.18
784.006	-0.5
784.181	0.12
784.355	0.14
784.53	-0.23
784.704	-0.19
784.878	0.35
785.053	0.09
785.227	0.3
785.402	0.27
785.576	-0.25
785.75	-0.12
785.925	0.17
786.099	-0.19
786.273	-0.13
786.448	0.16
786.622	-0.08
786.796	-0.26
786.97	-0
787.145	0.39
787.319	-0.55
787.493	-0.09
787.667	-0.41
787.841	-0.1
788.015	0.01
788.19	-0.13
788.364	-0.17
788.538	0.11
788.712	-0.03
788.886	-0.28
789.06	0.05
789.234	0.16
789.408	-0.31
789.582	-0.09
789.756	0.2
789.93	-0.29
790.104	-0.16
790.278	-0.2
790.452	-0.31
790.626	0.16
790.8	-0.14
790.973	-0.07
791.147	0.22
791.321	0.16
791.495	0.02
791.669	0.02
791.843	0.13
792.016	0.18
792.19	0.1
792.364	-0.15
792.538	0.23
792.711	0.07
792.885	-0.04
793.059	-0.18
793.233	-0.65
793.406	0.37
793.58	-0.08
793.754	-0.21
793.927	0.02
794.101	0.32
794.274	-0.08
794.448	-0.11
794.622	-0.12
794.795	0.11
794.969	-0.24
795.142	0.39
795.316	-0.24
795.489	-0.42
795.663	0.16
795.836	-0.25
796.009	-0.22
796.183	0.38
796.356	-0.25
796.53	0.17
796.703	-0.24
796.876	0.33
797.05	-0.13
797.223	0.03
797.396	-0.05
797.57	0.09
797.743	0.2
797.916	-0.11
798.09	-0.22
798.263	-0.04
798.436	0.22
798.609	-0.16
798.782	-0.23
798.956	-0.07
799.129	-0.24
799.302	-0.24
799.475	-0.13
799.648	-0.18
799.821	-0.29
799.994	-0.2
800.167	-0.3
800.34	0.02
800.514	0.21
800.687	-0.21
800.86	-0.24
801.033	0.04
801.206	-0.22
801.379	-0.57
801.551	0.44
801.724	0.01
801.897	0.16
802.07	-0.31
802.243	-0.56
802.416	-0.26
802.589	-0.26
802.762	-0.3
802.935	-0.18
803.107	0.17
803.28	0.12
803.453	-0.14
803.626	-0.22
803.798	-0.18
803.971	-0.52
804.144	-0.27
804.317	0.01
804.489	0.13
804.662	-0.29
804.835	-0.23
805.007	-0.25
805.18	0.27
805.353	0.11
805.525	-0.47
805.698	-0.44
805.87	-0.06
806.043	0.21
806.215	-0.38
806.388	-0.24
806.56	0.1
806.733	0.23
806.905	-0.01
807.078	-0.44
807.25	-0.31
807.423	0.43
807.595	-0.29
807.768	-0.19
807.94	0.34
808.112	-0.06
808.285	-0.14
808.457	-0.16
808.629	-0.1
808.802	-0.12
808.974	0.1
809.146	-0.2
809.318	-0.44
809.491	-0.1
809.663	0.22
809.835	-0.25
810.007	0.06
810.18	-0.29
810.352	-0.42
810.524	-0.26
810.696	-0.07
810.868	0.45
811.04	-0.34
811.212	0.06
811.384	0.23
811.556	-0.19
811.728	-0.28
811.901	0.63
812.073	-0.06
812.245	0.03
812.417	-0.14
812.589	-0.48
812.76	0.17
812.932	-0.04
813.104	0.42
813.276	-0.1
813.448	0.24
813.62	-0.54
813.792	0.35
813.964	-0.15
814.136	0.04
814.307	0.09
814.479	-0.3
814.651	0.26
814.823	0.6
814.995	0.17
815.166	-0.17
815.338	0.1
815.51	-0.41
815.681	0.55
815.853	-0.34
816.025	0.31
816.196	-0.12
816.368	0.19
816.54	-0.48
816.711	-0.57
816.883	0.21
817.054	0.49
817.226	-1.16
817.398	-0.19
817.569	-0.07
817.741	-0.38
817.912	0.05
818.084	-0.48
818.255	0.14
818.426	-0.04
818.598	-0.09
818.769	-0.58
818.941	0.06
819.112	0.87
819.283	0.28
819.455	-0.35
819.626	0.04
819.798	-0.07
819.969	-0.02
820.14	-0.34
820.311	-0.55
820.483	-0.06
820.654	-0.33
820.825	-0.12
820.996	-0.18
821.168	-0.77
821.339	0.18
821.51	-0.55
821.681	-0.42
821.852	-0.19
822.023	-0.59
822.195	-0.11
822.366	0.69
822.537	-0.03
822.708	-0.15
822.879	-0.13
823.05	0.36
823.221	-0.42
823.392	0.16
823.563	-0.15
823.734	-0.04
823.905	-0.23
824.076	-0.37
824.247	-0.37
824.418	-0.26
824.589	-0.02
824.759	-0.61
824.93	0.12
825.101	-0.84
825.272	0.52
825.443	0.55
825.614	-0.09
825.784	-0.94
825.955	0.79
826.126	0.5
826.297	-0.2
826.467	0.57
826.638	0.25
826.809	-0.71
826.98	-0.73
827.15	-0.04
827.321	-0.3
827.492	0.85
827.662	-0.21
827.833	1.11
828.003	-0.14
828.174	-1.13
828.345	-0.85
828.515	0.18
828.686	0.54
828.856	0.01
829.027	-0.02
829.197	0.18
829.368	-0.41
829.538	-0.24
829.709	-0.32
829.879	-0.3
830.049	-0.36
830.22	-0.28
830.39	0.06
830.56	0.27
830.731	-0.95
830.901	-0.65
831.072	-0.14
831.242	0.01
831.412	0.4
831.582	0.34
831.753	-0.87
831.923	0.34
832.093	0.32
832.263	-0.42
832.434	-0.74
832.604	-0.28
832.774	0.37
832.944	-0.09
833.114	-0.31
833.284	0.25
833.454	-0.61
833.624	-0.16
833.795	0.09
833.965	-0.02
834.135	0.7
834.305	-0.83
834.475	-0.29
834.645	-0.12
834.815	-0.66
834.985	-0.35
835.155	-0.47
835.325	-0.22
835.494	0.01
835.664	-0.08
835.834	-0.93
836.004	0.24
836.174	-0.21
836.344	-0.4
836.514	-0.86
836.684	-0.42
836.853	0.19
837.023	-0.05
837.193	-0.43
837.363	0.91
837.532	0.44
837.702	-0.32
837.872	-0.64
838.041	0.48
838.211	1.14
838.381	-0.98
838.55	0.17
838.72	0.92
838.89	0.93
839.059	-0.69
839.229	-1.02
839.398	1.4
839.568	-0.07
839.738	-0.37
839.907	1.02
840.077	0.23
840.246	-0.26
840.416	-0.17
840.585	-1.18
840.755	1.51
840.924	0.13
841.093	-0.1
841.263	-0.71
841.432	-0.14
841.602	0.04
841.771	-0.63
841.94	-0.06
842.11	1.09
842.279	1.83
842.448	-1.19
842.617	-0.47
842.787	0.8
842.956	-0.76
843.125	0.4
843.294	-0.29
843.464	0.78
843.633	0.13
843.802	-1.86
843.971	-0.39
844.14	0.66
844.309	0.53
844.479	-1.14
844.648	-1.67
844.817	-0.37
844.986	-0.32
845.155	0.21
845.324	-1.08
845.493	-0.28
845.662	-0.6
845.831	-0.19
846	-0.29
846.169	-0.11
846.338	0.42
846.507	-0.46
846.676	-0.33
846.844	-0.63
847.013	-0.13
847.182	-0.26
847.351	-0.79
847.52	-0.17
847.689	0.53
847.858	0.5
848.026	0.32
848.195	-0.31
848.364	-0.11
848.533	-0.73
848.701	-1.06
848.87	-0.19
849.039	0.81
849.207	0.23
849.376	-0.35
849.545	0.99
849.713	-0.32
849.882	-0.59
850.051	-1.31
850.219	0.29
850.388	0.76
850.556	-1.12
850.725	-0.76
850.893	-0.01
851.062	-0.64
851.23	0.34
851.399	-2.35
851.567	-1.2
851.736	-0.72
851.904	-0.76
852.073	0.11
852.241	0.16
852.41	-0.71
852.578	-0.4
852.746	-0.13
852.915	0.31
853.083	0.33
853.251	-0.94
853.42	-0.39
853.588	-0.42
853.756	0.95
853.924	-0.06
854.093	-1.3
854.261	0.14
854.429	-0.19
854.597	-0.28
854.765	-1.76
854.934	0.13
855.102	1.08
855.27	-0.71
855.438	-0.16
855.606	0.14
855.774	0.5
855.942	-1.26
856.11	-2.61
856.278	-0.62
856.446	0.81
856.614	0.23
856.782	-1.15
856.95	0.55
857.118	-0.54
857.286	-0.68
857.454	-0.95
857.622	1.31
857.79	-0.29
857.958	-1.66
858.126	-0.89
858.294	-2.95
858.462	0.43
858.629	-1.43
858.797	-0.27
858.965	0.45
859.133	0.12
859.301	-0.67
859.468	0.62
859.636	-0.32
859.804	1.09
859.971	-0.2
860.139	-1.07
860.307	1.61
860.474	-0.53
860.642	-0.71
860.81	-0.74
860.977	-0.61
861.145	1.13
861.313	-0.3
861.48	-0.06
861.648	1.47
861.815	-1.06
861.983	-1.89
862.15	-1.07
862.318	-0.15
862.485	0.83
862.653	-2.05
862.82	-1.53
862.988	0.74
863.155	0.13
863.322	-2.3
863.49	-1.53
863.657	-0.94
863.824	0.73
863.992	0.88
864.159	0.91
864.326	0.44
864.494	-1.1
864.661	1.36
864.828	-2.35
864.996	1.48
865.163	1.81
865.33	-1.25
865.497	-2.43
865.664	-1.29
865.832	-1.06
865.999	-1.34
866.166	-0.63
866.333	-0.88
866.5	-1.47
866.667	0
866.834	-1.18
867.001	1.06
867.168	-2.96
867.335	-1.02
867.502	-2.93
867.669	-1.82
867.836	2.12
868.003	-1.55
868.17	0.54
868.337	-2.3
868.504	1.37
868.671	-1.57
868.838	-3.12
869.005	-0.42
869.172	-0.34
869.339	0.85
869.505	-1.84
869.672	-0.25
869.839	1.81
870.006	-1.92
870.173	-2.49
870.339	1.37
870.506	1.23
870.673	-2.16
870.84	0.9
871.006	1.33
871.173	-1.93
871.34	-0.8
871.506	-3.02
871.673	1.58
871.839	-0.41
872.006	-0.02
872.173	-1.28
872.339	-0.53
872.506	-0.06
872.672	-1.59
872.839	-2
873.005	-1.7
873.172	1.44
873.338	-0.17
873.505	-0.02
873.671	-0.66
873.838	-0.71
874.004	-2.14
874.171	-0.92
874.337	0.5
874.503	1.34
874.67	-0.48
874.836	-1.07
875.002	2.2
875.169	1.7
875.335	-0.42
875.501	-2.01
875.668	1.99
875.834	0.94
876	0.62
876.166	0.09
876.332	0.65
876.499	1.99
876.665	-1.99
876.831	-1.06
876.997	1.94
877.163	-0.24
877.329	-1.41
877.495	-1.46
877.662	1.67
877.828	1.7
877.994	0.5
878.16	-4.47
878.326	-1.18
878.492	0.91
878.658	-0.39
878.824	0.71
878.99	1.08
879.156	-2.2
879.322	1.48
879.487	-2.33
879.653	-0.07
879.819	-0.37
879.985	-2.21
880.151	0.54
880.317	1.52
880.483	-1.68
880.648	1.5
880.814	-3.34
880.98	0.25
881.146	-3.04
881.312	-1.54
881.477	-0.26
881.643	0.13
881.809	1.15
881.974	0.4
882.14	-2.97
882.306	0.32
882.471	2.07
882.637	-2.38
882.803	0.02
882.968	2.83
883.134	1.78
883.299	-0.71
883.465	-2.71
883.63	1.23
883.796	1.47
883.961	0.4
884.127	-0.05
884.292	-3.51
884.458	-2.58
884.623	-2.58
