Data from Apollo_Calib_20240827__AbsoluteIrradiance__311__04-20-02-455.txt Node

Date: Wed Aug 28 04:20:02 BST 2024
User: biology
Spectrometer: FLMT08252
Trigger mode: 0
Integration Time (sec): 5.000000E-1
Scans to average: 5
Electric dark correction enabled: true
Nonlinearity correction enabled: false
Boxcar width: 0
XAxis mode: Wavelengths
Number of Pixels in Spectrum: 3648
>>>>>Begin Spectral Data<<<<<
179.588	-0
179.809	-0
180.03	-0
180.251	-0
180.473	-0
180.694	0
180.915	0
181.136	-0
181.357	0
181.578	-0
181.799	0
182.02	-0
182.241	-0
182.462	-0
182.683	0
182.904	-0
183.125	-0
183.346	-0
183.567	-0
183.788	-0
184.009	-0
184.23	0
184.451	-0
184.672	-0
184.892	-0
185.113	-0
185.334	0
185.555	-0
185.776	-0
185.996	0
186.217	0
186.438	-0
186.659	-0
186.879	-0
187.1	0
187.321	-0
187.541	-0
187.762	-0
187.983	-0
188.203	0
188.424	0
188.644	-0
188.865	0
189.086	-0
189.306	0
189.527	-0
189.747	0
189.968	-0
190.188	0
190.409	-0
190.629	0
190.849	-0
191.07	-0
191.29	0
191.511	-0
191.731	-0
191.951	-0
192.172	-0
192.392	-0
192.612	-0
192.833	-0
193.053	0
193.273	0
193.493	-0
193.714	-0
193.934	0
194.154	0
194.374	0
194.594	-0
194.815	-0
195.035	-0
195.255	0
195.475	-0
195.695	-0
195.915	0
196.135	-0
196.355	0
196.575	0
196.795	-0
197.015	-0
197.235	-0
197.455	-0
197.675	0
197.895	-0
198.115	-0
198.335	0
198.555	-0
198.775	0
198.995	0
199.214	0
199.434	-0
199.654	-0
199.874	-0
200.094	0.35
200.313	-0.23
200.533	-0.52
200.753	-1.27
200.973	0.58
201.192	0.58
201.412	-1.17
201.632	-1.05
201.851	0.56
202.071	-0.49
202.291	-0.56
202.51	-0.7
202.73	0.27
202.95	-0.34
203.169	-0.57
203.389	-0.37
203.608	0.05
203.828	-0.83
204.047	-0.6
204.267	-0.02
204.486	0.17
204.706	0.21
204.925	-0.4
205.145	-0.92
205.364	0.28
205.583	0.25
205.803	-0.46
206.022	-0.57
206.242	-0.1
206.461	-0.09
206.68	-0.46
206.9	-0.02
207.119	0.42
207.338	0.4
207.557	-0.41
207.777	-0.31
207.996	-0.22
208.215	0.43
208.434	-0.02
208.654	-0.54
208.873	0.11
209.092	0.55
209.311	-0.31
209.53	-0.33
209.749	-0.53
209.968	-0.39
210.187	-0.13
210.407	-0.56
210.626	-0.14
210.845	0.06
211.064	-0.35
211.283	-0.21
211.502	-0.01
211.721	-0.23
211.94	-0.17
212.159	0.05
212.377	0.02
212.596	0.3
212.815	-0.07
213.034	0.13
213.253	0.27
213.472	0
213.691	-0.39
213.91	-0.16
214.128	-0.45
214.347	0.35
214.566	-0.57
214.785	-0.57
215.003	0.16
215.222	-0.07
215.441	-0.32
215.66	-0.43
215.878	-0.08
216.097	0.35
216.316	-0.44
216.534	-0.2
216.753	-0.05
216.972	0.01
217.19	-0.12
217.409	-0.35
217.627	-0.11
217.846	-0.19
218.064	0.01
218.283	-0.24
218.501	0.28
218.72	0.17
218.938	-0.34
219.157	-0.2
219.375	-0.04
219.594	-0
219.812	-0.3
220.031	-0.28
220.249	0.31
220.467	0.24
220.686	-0.3
220.904	-0.3
221.122	-0.19
221.341	0.19
221.559	0.06
221.777	-0.29
221.995	-0.13
222.214	-0.01
222.432	-0.19
222.65	0.03
222.868	0.08
223.086	-0.01
223.305	-0.06
223.523	-0.25
223.741	0.15
223.959	-0.11
224.177	-0.32
224.395	-0.2
224.613	0
224.831	0.07
225.049	-0.31
225.267	-0.17
225.485	0.04
225.703	-0.24
225.921	-0.1
226.139	-0.08
226.357	0.14
226.575	0.09
226.793	-0.19
227.011	0.64
227.229	-0.1
227.447	0.25
227.665	0
227.883	-0.08
228.1	-0.07
228.318	0.13
228.536	-0.35
228.754	-0.17
228.972	-0.06
229.189	0.01
229.407	-0.06
229.625	-0.14
229.843	0.24
230.06	0.07
230.278	-0.21
230.496	-0.13
230.713	0.07
230.931	0.18
231.149	-0.16
231.366	-0.32
231.584	-0.05
231.801	0.24
232.019	-0.13
232.236	-0.15
232.454	-0.19
232.671	0.14
232.889	-0.09
233.106	-0.18
233.324	-0.05
233.541	-0.1
233.759	-0.1
233.976	-0.18
234.194	0.03
234.411	-0.02
234.628	-0.23
234.846	-0.16
235.063	-0.05
235.28	-0.01
235.498	-0.1
235.715	-0.17
235.932	0.04
236.149	-0.08
236.367	-0.28
236.584	-0.03
236.801	-0.2
237.018	0.03
237.236	0.01
237.453	-0.24
237.67	0.07
237.887	-0.16
238.104	-0.05
238.321	-0.18
238.538	-0.22
238.755	0.13
238.973	-0.27
239.19	-0.04
239.407	0
239.624	-0.09
239.841	-0.09
240.058	-0.08
240.275	0.03
240.492	-0.06
240.709	0.01
240.925	-0.1
241.142	0.04
241.359	-0.14
241.576	-0.22
241.793	-0.11
242.01	-0.03
242.227	0.02
242.444	-0
242.66	0.08
242.877	-0.03
243.094	-0.12
243.311	-0.04
243.527	-0.07
243.744	0.01
243.961	0.06
244.178	-0.1
244.394	-0.05
244.611	0.15
244.828	0.09
245.044	-0.13
245.261	-0.07
245.477	-0.03
245.694	0.02
245.911	-0.17
246.127	-0.01
246.344	0.21
246.56	0.02
246.777	-0.13
246.993	-0.06
247.21	0.07
247.426	-0.14
247.643	-0.1
247.859	-0.1
248.076	-0.06
248.292	0.18
248.508	-0.11
248.725	-0.08
248.941	-0.02
249.157	0.1
249.374	-0.14
249.59	-0.04
249.806	-0.04
250.023	-0
250.239	-0.15
250.455	-0.05
250.671	-0.09
250.888	0.03
251.104	0
251.32	-0.05
251.536	-0
251.752	-0.09
251.969	-0.06
252.185	-0.11
252.401	0.16
252.617	0.01
252.833	-0.1
253.049	-0.03
253.265	-0.06
253.481	-0.03
253.697	-0.08
253.913	-0.14
254.129	0.03
254.345	0.02
254.561	-0.08
254.777	-0.04
254.993	-0.01
255.209	0
255.425	-0.05
255.641	-0.15
255.857	0.05
256.073	0.02
256.288	-0.09
256.504	-0.1
256.72	0.03
256.936	0.17
257.152	-0.04
257.367	-0.11
257.583	-0.02
257.799	0.08
258.015	-0.1
258.23	-0.11
258.446	0.15
258.662	-0.06
258.877	-0.14
259.093	-0.07
259.309	0.03
259.524	0.05
259.74	-0.04
259.955	-0.13
260.171	0
260.387	0.02
260.602	-0.04
260.818	0.05
261.033	-0.05
261.249	-0.04
261.464	-0.03
261.68	-0.15
261.895	-0.04
262.11	0.03
262.326	-0.04
262.541	-0.13
262.757	0.12
262.972	-0
263.187	-0.03
263.403	-0.02
263.618	-0.01
263.833	0.02
264.049	-0.13
264.264	0.02
264.479	0.03
264.694	0.01
264.91	-0.17
265.125	-0.07
265.34	0
265.555	0.09
265.77	0.02
265.986	-0.08
266.201	0.06
266.416	0.07
266.631	-0.03
266.846	-0.03
267.061	0.07
267.276	0.08
267.491	-0.16
267.706	0.06
267.921	0.01
268.136	-0.01
268.351	-0
268.566	-0.13
268.781	0.09
268.996	0
269.211	-0.02
269.426	-0.07
269.641	-0.07
269.856	0.01
270.071	-0.09
270.285	-0.08
270.5	0.05
270.715	0
270.93	-0.06
271.145	0.02
271.359	0.08
271.574	-0.11
271.789	-0.07
272.004	-0.06
272.218	-0.06
272.433	0.03
272.648	-0.04
272.862	0
273.077	-0.06
273.292	-0.06
273.506	-0.14
273.721	-0.03
273.936	0.01
274.15	0.08
274.365	-0.05
274.579	0.03
274.794	0.02
275.008	0.05
275.223	-0.1
275.437	-0.04
275.652	0.05
275.866	0.02
276.081	0.06
276.295	0.04
276.509	-0.05
276.724	-0.06
276.938	0
277.153	-0.01
277.367	0
277.581	-0.02
277.796	-0.09
278.01	-0.03
278.224	0.01
278.438	0.1
278.653	-0.09
278.867	-0.12
279.081	-0.16
279.295	-0.13
279.51	-0.01
279.724	-0.13
279.938	0.06
280.152	0
280.366	-0.05
280.58	-0.01
280.794	0.05
281.008	0.06
281.222	0.04
281.437	0.07
281.651	0.03
281.865	0.06
282.079	-0.03
282.293	-0.12
282.507	-0.1
282.721	-0.01
282.935	-0.02
283.148	-0.12
283.362	-0.03
283.576	-0.04
283.79	-0.03
284.004	-0.07
284.218	0.06
284.432	-0.07
284.646	-0.05
284.859	-0.01
285.073	-0.07
285.287	0.01
285.501	-0.01
285.714	-0.01
285.928	0
286.142	0
286.356	-0.06
286.569	-0.01
286.783	0.05
286.997	0.03
287.21	0.02
287.424	-0.01
287.637	-0.07
287.851	-0.04
288.065	0.01
288.278	-0.03
288.492	-0.01
288.705	-0.01
288.919	0.01
289.132	-0.05
289.346	0.06
289.559	-0.08
289.773	-0.03
289.986	-0
290.2	-0.05
290.413	0.02
290.626	-0.05
290.84	-0.01
291.053	-0.03
291.267	0.1
291.48	0.02
291.693	-0.04
291.906	-0.03
292.12	-0.03
292.333	-0.07
292.546	-0.01
292.76	0.06
292.973	0.01
293.186	0.05
293.399	-0.01
293.612	0.04
293.826	0
294.039	0.03
294.252	-0
294.465	0.01
294.678	0.03
294.891	0.01
295.104	-0.04
295.317	-0.06
295.53	0.02
295.743	0.01
295.956	-0.05
296.169	0.15
296.382	0.03
296.595	0.01
296.808	-0.11
297.021	0.06
297.234	0.01
297.447	0.03
297.66	0.01
297.873	0.06
298.086	0.05
298.299	-0.01
298.511	-0.06
298.724	-0.04
298.937	-0.03
299.15	-0.05
299.363	-0.01
299.575	0
299.788	0.04
300.001	0.02
300.213	-0.07
300.426	-0.01
300.639	-0.02
300.852	-0.04
301.064	0.03
301.277	0.07
301.489	0.02
301.702	0.01
301.915	0.01
302.127	-0.01
302.34	0.03
302.552	0.01
302.765	-0.04
302.977	0.04
303.19	0
303.402	-0.04
303.615	0
303.827	-0.04
304.04	-0.03
304.252	-0
304.464	-0.04
304.677	0.09
304.889	0.06
305.102	-0.04
305.314	-0.02
305.526	-0.03
305.739	0.05
305.951	-0.03
306.163	-0.05
306.375	0.07
306.588	-0.05
306.8	-0.05
307.012	-0.06
307.224	-0.04
307.436	0.08
307.649	-0.09
307.861	0.01
308.073	0.02
308.285	-0.01
308.497	-0.06
308.709	-0.02
308.921	-0.02
309.133	0.01
309.346	-0.04
309.558	-0.04
309.77	0.03
309.982	0.06
310.194	0.02
310.406	-0.04
310.617	0.07
310.829	0.01
311.041	-0
311.253	-0.06
311.465	-0.03
311.677	0.05
311.889	-0.04
312.101	-0.05
312.313	0.01
312.524	0.06
312.736	-0.08
312.948	-0.04
313.16	0.1
313.372	0.01
313.583	-0.04
313.795	-0.02
314.007	-0.05
314.218	0.03
314.43	0.01
314.642	-0.04
314.853	-0.05
315.065	0.03
315.277	-0.06
315.488	0
315.7	0.06
315.912	0
316.123	-0.06
316.335	-0.02
316.546	0.1
316.758	-0
316.969	-0.03
317.181	0.02
317.392	0.01
317.604	0.07
317.815	-0.07
318.026	-0.1
318.238	-0.01
318.449	0.01
318.661	-0.02
318.872	-0.06
319.083	-0.05
319.295	-0
319.506	-0.01
319.717	0.02
319.929	-0.02
320.14	-0.01
320.351	0.02
320.562	-0.04
320.774	-0.03
320.985	-0
321.196	-0.05
321.407	-0.09
321.618	0.04
321.829	0.01
322.041	0.02
322.252	-0.02
322.463	0
322.674	0.02
322.885	-0.07
323.096	-0.08
323.307	-0.01
323.518	-0
323.729	-0.06
323.94	-0.04
324.151	-0.08
324.362	0.02
324.573	-0.05
324.784	-0.03
324.995	0.06
325.206	0.06
325.417	-0.04
325.628	-0.03
325.838	-0.04
326.049	-0.01
326.26	0
326.471	-0.07
326.682	0
326.892	-0.02
327.103	-0.08
327.314	-0.07
327.525	0.01
327.735	-0.01
327.946	0.04
328.157	-0.05
328.368	0.03
328.578	-0.03
328.789	-0.02
328.999	-0.02
329.21	-0.06
329.421	0.03
329.631	-0.04
329.842	-0.05
330.052	-0.01
330.263	-0.01
330.473	0.01
330.684	-0.03
330.894	-0.02
331.105	-0.02
331.315	-0.03
331.526	-0.1
331.736	0.08
331.947	0.03
332.157	0
332.367	-0.1
332.578	0.08
332.788	0.04
332.999	0.05
333.209	-0
333.419	-0.08
333.629	0
333.84	-0.01
334.05	-0.04
334.26	0.06
334.47	0.04
334.681	0.05
334.891	-0.02
335.101	0.02
335.311	0.12
335.521	-0
335.732	-0.07
335.942	0.07
336.152	0.04
336.362	-0
336.572	-0.03
336.782	0.05
336.992	-0
337.202	-0.02
337.412	-0.06
337.622	0.02
337.832	-0.02
338.042	-0.01
338.252	-0.06
338.462	-0.05
338.672	-0.01
338.882	-0.01
339.092	-0.01
339.302	0.03
339.511	-0.01
339.721	-0.05
339.931	-0.08
340.141	0.06
340.351	0.03
340.561	0.02
340.77	-0.03
340.98	-0.02
341.19	0.01
341.4	-0.03
341.609	-0.06
341.819	-0.02
342.029	-0.11
342.238	0.01
342.448	-0.03
342.658	0.02
342.867	0.01
343.077	-0.05
343.286	-0
343.496	-0.02
343.706	0.03
343.915	-0.07
344.125	0.04
344.334	-0.02
344.544	-0.07
344.753	-0.03
344.963	-0.01
345.172	-0.02
345.381	-0.02
345.591	-0.05
345.8	-0.01
346.01	0.04
346.219	0.07
346.428	-0.13
346.638	-0.03
346.847	-0.02
347.056	0.04
347.266	-0.03
347.475	-0.04
347.684	0.04
347.893	0.02
348.103	-0.03
348.312	-0.04
348.521	0.01
348.73	-0.02
348.94	-0.02
349.149	-0.04
349.358	-0.02
349.567	-0.05
349.776	-0.08
349.985	-0.04
350.194	-0
350.403	0.06
350.612	-0.05
350.821	-0.03
351.03	0.02
351.239	-0.04
351.448	-0
351.657	-0.02
351.866	0.08
352.075	0.01
352.284	0
352.493	-0.07
352.702	0.06
352.911	0.02
353.12	-0
353.329	-0.04
353.538	-0.02
353.746	0
353.955	-0.04
354.164	0.02
354.373	-0.03
354.582	-0
354.79	-0.02
354.999	0.02
355.208	-0.03
355.416	0.1
355.625	-0.05
355.834	-0.05
356.042	0.03
356.251	-0.04
356.46	-0.06
356.668	-0.01
356.877	0.1
357.085	0.03
357.294	-0.13
357.503	0.01
357.711	-0.03
357.92	0.09
358.128	-0
358.337	-0.03
358.545	0.02
358.754	-0.01
358.962	0.04
359.17	-0.04
359.379	-0
359.587	0.04
359.796	-0.02
360.004	0.02
360.212	0.03
360.421	0.01
360.629	-0.04
360.837	-0.03
361.046	0.04
361.254	0.11
361.462	0.02
361.67	-0.06
361.879	-0.03
362.087	0.05
362.295	0.01
362.503	-0.06
362.711	-0.07
362.92	-0.04
363.128	-0.05
363.336	-0.03
363.544	-0.11
363.752	-0.03
363.96	-0.07
364.168	-0.02
364.376	-0.01
364.584	0.01
364.792	0.03
365	0.03
365.208	0.01
365.416	-0.02
365.624	0.01
365.832	-0.03
366.04	0.08
366.248	0.01
366.456	0.02
366.664	-0.02
366.872	-0.04
367.079	0.04
367.287	-0
367.495	0.03
367.703	-0.01
367.911	0.02
368.118	-0.03
368.326	0.01
368.534	-0.03
368.742	0.07
368.949	-0.08
369.157	-0.03
369.365	-0.02
369.572	-0.03
369.78	-0.05
369.988	0.04
370.195	-0.02
370.403	0.03
370.61	-0.02
370.818	-0.01
371.026	0.03
371.233	-0.04
371.441	0.01
371.648	-0.02
371.856	0.02
372.063	-0.02
372.271	-0
372.478	-0.03
372.685	-0.06
372.893	0.06
373.1	-0.03
373.308	-0.04
373.515	0.1
373.722	0.01
373.93	-0
374.137	0.04
374.344	0.06
374.552	0.02
374.759	0.02
374.966	0.03
375.173	-0.02
375.381	0.09
375.588	0.01
375.795	-0.05
376.002	-0.04
376.209	-0.03
376.417	0.01
376.624	0.01
376.831	-0.01
377.038	0.01
377.245	-0.08
377.452	-0.03
377.659	-0.02
377.866	-0.01
378.073	-0.05
378.28	-0.05
378.487	0.04
378.694	0.02
378.901	-0.06
379.108	-0.02
379.315	-0
379.522	0.08
379.729	-0.01
379.936	-0.01
380.143	-0
380.35	0.03
380.557	-0.02
380.763	-0.01
380.97	-0.03
381.177	0.05
381.384	-0.03
381.591	-0.04
381.797	0.02
382.004	-0.02
382.211	0.03
382.418	-0
382.624	0.03
382.831	0.03
383.038	-0.06
383.244	-0.03
383.451	-0.03
383.658	-0.01
383.864	-0.01
384.071	-0.03
384.277	0.09
384.484	-0.08
384.69	0.01
384.897	-0.02
385.103	-0.03
385.31	-0.08
385.516	-0.05
385.723	-0.05
385.929	-0.01
386.136	-0.02
386.342	0.07
386.549	-0.06
386.755	0.04
386.961	0.01
387.168	-0.01
387.374	-0.02
387.58	0.02
387.787	-0.02
387.993	-0.01
388.199	-0.05
388.406	-0.08
388.612	0
388.818	-0.03
389.024	-0.06
389.231	0.03
389.437	0.03
389.643	0.04
389.849	-0.05
390.055	-0.02
390.261	0.03
390.467	0.02
390.674	-0.08
390.88	-0.02
391.086	-0.03
391.292	-0.04
391.498	0.05
391.704	-0.02
391.91	-0
392.116	-0.05
392.322	-0.1
392.528	0
392.734	-0.03
392.94	-0
393.146	-0.03
393.352	0.02
393.557	-0.03
393.763	0.03
393.969	-0.02
394.175	0.01
394.381	0
394.587	-0.05
394.792	-0.04
394.998	0.05
395.204	0.05
395.41	0.01
395.615	0.01
395.821	0.03
396.027	0.03
396.233	-0.07
396.438	-0.01
396.644	0.04
396.85	-0
397.055	-0.04
397.261	-0.03
397.466	-0.04
397.672	-0.02
397.878	0.01
398.083	-0.01
398.289	-0.05
398.494	0.01
398.7	0.01
398.905	-0.11
399.111	0.03
399.316	-0.06
399.522	-0.03
399.727	-0.05
399.932	-0.04
400.138	0.01
400.343	0.03
400.549	0.02
400.754	0.04
400.959	0.05
401.165	0.01
401.37	0.02
401.575	0.07
401.78	0.01
401.986	-0.07
402.191	0
402.396	-0.01
402.601	-0.01
402.807	-0.02
403.012	-0.01
403.217	0.01
403.422	0.03
403.627	0.02
403.832	-0.08
404.037	-0.03
404.243	0.01
404.448	-0.01
404.653	0.01
404.858	-0
405.063	0.01
405.268	-0.06
405.473	-0.05
405.678	-0.04
405.883	0.11
406.088	0.01
406.293	-0.05
406.498	-0.02
406.703	0.01
406.907	-0.02
407.112	-0.07
407.317	0.01
407.522	0.01
407.727	-0.04
407.932	0.02
408.136	0.07
408.341	-0.04
408.546	-0.03
408.751	-0.01
408.956	-0.03
409.16	0.04
409.365	-0.03
409.57	-0.06
409.774	0.04
409.979	0.05
410.184	0.02
410.388	-0.07
410.593	0.05
410.798	0.03
411.002	-0.04
411.207	0.02
411.411	-0.01
411.616	-0.06
411.82	-0.02
412.025	0.03
412.229	-0.05
412.434	0.11
412.638	0.02
412.843	-0
413.047	-0.01
413.252	-0.1
413.456	-0.04
413.66	0.06
413.865	-0.05
414.069	0.03
414.273	-0.05
414.478	-0.03
414.682	0.01
414.886	-0.03
415.091	-0.03
415.295	-0.1
415.499	0.06
415.703	-0.01
415.908	0.04
416.112	-0.11
416.316	0.06
416.52	-0.03
416.724	-0.1
416.929	-0.05
417.133	0.12
417.337	-0.05
417.541	-0.04
417.745	-0.02
417.949	0.03
418.153	0.04
418.357	-0.06
418.561	0.12
418.765	0.04
418.969	0.12
419.173	0.05
419.377	-0.02
419.581	0.09
419.785	-0.02
419.989	-0.04
420.193	0
420.397	0.01
420.601	0.04
420.804	0.07
421.008	0.03
421.212	0.01
421.416	0.04
421.62	-0.02
421.823	0.07
422.027	0.1
422.231	0.06
422.435	0.06
422.638	0.05
422.842	0.03
423.046	-0.04
423.249	0.04
423.453	0.06
423.657	0.06
423.86	0.06
424.064	0.04
424.268	0.14
424.471	0.07
424.675	0.13
424.878	0.11
425.082	0.04
425.285	0.12
425.489	0.08
425.692	0.08
425.896	0.04
426.099	0.09
426.303	0.02
426.506	-0.02
426.71	0.1
426.913	0.16
427.116	0.12
427.32	0.14
427.523	0.06
427.726	0.18
427.93	0.05
428.133	0.09
428.336	0.07
428.54	0.08
428.743	0.14
428.946	0.14
429.149	0.08
429.353	0.08
429.556	0.14
429.759	0.13
429.962	0.09
430.165	0.14
430.368	0.11
430.571	0.09
430.775	0.14
430.978	0.11
431.181	0.19
431.384	0.14
431.587	0.13
431.79	0.17
431.993	0.14
432.196	0.14
432.399	0.11
432.602	0.25
432.805	0.13
433.008	0.14
433.211	0.13
433.414	0.24
433.616	0.25
433.819	0.19
434.022	0.12
434.225	0.3
434.428	0.25
434.631	0.35
434.833	0.2
435.036	0.22
435.239	0.3
435.442	0.28
435.645	0.23
435.847	0.26
436.05	0.3
436.253	0.27
436.455	0.24
436.658	0.25
436.861	0.36
437.063	0.23
437.266	0.29
437.468	0.3
437.671	0.41
437.874	0.36
438.076	0.25
438.279	0.24
438.481	0.36
438.684	0.29
438.886	0.35
439.089	0.26
439.291	0.4
439.494	0.42
439.696	0.36
439.899	0.39
440.101	0.43
440.303	0.39
440.506	0.49
440.708	0.49
440.91	0.54
441.113	0.44
441.315	0.48
441.517	0.46
441.72	0.6
441.922	0.52
442.124	0.52
442.326	0.63
442.529	0.68
442.731	0.59
442.933	0.67
443.135	0.65
443.337	0.59
443.539	0.64
443.742	0.66
443.944	0.71
444.146	0.74
444.348	0.69
444.55	0.72
444.752	0.73
444.954	0.73
445.156	0.84
445.358	0.74
445.56	0.9
445.762	0.79
445.964	0.84
446.166	0.82
446.368	0.85
446.57	0.87
446.772	0.86
446.974	0.86
447.175	0.88
447.377	0.84
447.579	0.91
447.781	0.82
447.983	0.95
448.184	0.86
448.386	0.91
448.588	0.78
448.79	0.89
448.991	0.84
449.193	0.95
449.395	0.87
449.597	0.92
449.798	0.83
450	0.84
450.202	0.88
450.403	0.89
450.605	0.91
450.806	0.79
451.008	0.75
451.21	0.77
451.411	0.8
451.613	0.72
451.814	0.73
452.016	0.77
452.217	0.68
452.419	0.74
452.62	0.68
452.821	0.71
453.023	0.77
453.224	0.6
453.426	0.6
453.627	0.56
453.828	0.63
454.03	0.56
454.231	0.64
454.432	0.51
454.634	0.69
454.835	0.51
455.036	0.47
455.238	0.53
455.439	0.49
455.64	0.43
455.841	0.37
456.042	0.51
456.244	0.48
456.445	0.38
456.646	0.3
456.847	0.3
457.048	0.43
457.249	0.46
457.45	0.6
457.651	0.26
457.852	0.36
458.054	0.31
458.255	0.31
458.456	0.34
458.657	0.27
458.858	0.27
459.058	0.28
459.259	0.37
459.46	0.24
459.661	0.27
459.862	0.38
460.063	0.22
460.264	0.34
460.465	0.22
460.666	0.37
460.866	0.16
461.067	0.23
461.268	0.19
461.469	0.22
461.67	0.2
461.87	0.16
462.071	0.23
462.272	0.18
462.473	0.2
462.673	0.22
462.874	0.13
463.075	0.21
463.275	0.14
463.476	0.21
463.676	0.18
463.877	0.19
464.078	0.18
464.278	0.22
464.479	0.19
464.679	0.18
464.88	0.2
465.08	0.26
465.281	0.12
465.481	0.12
465.682	0.09
465.882	0.19
466.083	0.12
466.283	0.11
466.483	0.15
466.684	0.06
466.884	0.13
467.085	0.08
467.285	0.18
467.485	0.05
467.686	0.11
467.886	0.05
468.086	0.09
468.286	0.13
468.487	0.13
468.687	0.04
468.887	0.1
469.087	0.17
469.287	0.06
469.488	0.02
469.688	0.16
469.888	0.14
470.088	0.14
470.288	0.11
470.488	0.15
470.688	0
470.888	0.07
471.088	0.01
471.288	0.07
471.488	0.09
471.688	0.12
471.888	0.04
472.088	0.12
472.288	0.12
472.488	0.03
472.688	0.04
472.888	0.11
473.088	0.07
473.288	0.05
473.488	0.05
473.688	0.17
473.887	0.09
474.087	0.03
474.287	0.05
474.487	0.02
474.687	0.07
474.886	0.01
475.086	0
475.286	0.06
475.486	0.02
475.685	0.05
475.885	-0
476.085	0.04
476.284	0.08
476.484	0
476.684	0.05
476.883	0.12
477.083	0.06
477.282	-0
477.482	0.09
477.681	0.1
477.881	0.05
478.08	0.01
478.28	-0.02
478.479	0.06
478.679	0.08
478.878	0.01
479.078	-0.01
479.277	0.02
479.477	0.03
479.676	0.07
479.875	0.05
480.075	-0.02
480.274	0.01
480.473	0.02
480.673	-0.05
480.872	0.06
481.071	0.03
481.271	0.02
481.47	0.01
481.669	0.01
481.868	-0
482.067	-0.02
482.267	-0.03
482.466	-0
482.665	-0.02
482.864	-0.05
483.063	-0.03
483.262	0.04
483.461	0.05
483.661	0.03
483.86	0.01
484.059	0.04
484.258	0.01
484.457	-0.01
484.656	0.01
484.855	0.06
485.054	-0.01
485.253	-0.01
485.452	-0.04
485.651	0.01
485.849	0.01
486.048	-0.03
486.247	-0.03
486.446	0.01
486.645	-0.02
486.844	-0.02
487.043	-0.02
487.241	0.01
487.44	-0.02
487.639	0.01
487.838	0.03
488.037	0
488.235	0.04
488.434	0.01
488.633	-0.04
488.831	0.06
489.03	0.03
489.229	0.01
489.427	-0.01
489.626	0.05
489.825	0.06
490.023	0.01
490.222	-0.02
490.42	0.02
490.619	0.03
490.817	0.01
491.016	-0.02
491.214	0.03
491.413	0
491.611	-0
491.81	0
492.008	0.01
492.207	-0
492.405	0
492.604	-0.05
492.802	0.02
493	0.01
493.199	0.01
493.397	-0.03
493.595	0.02
493.794	-0.01
493.992	0.07
494.19	-0.01
494.388	0
494.587	-0.02
494.785	-0.01
494.983	-0.04
495.181	0.01
495.379	0.03
495.578	-0.05
495.776	0.01
495.974	0.01
496.172	-0.01
496.37	-0.02
496.568	-0.03
496.766	-0.03
496.964	0.03
497.162	-0.01
497.36	-0.05
497.558	0
497.756	0.03
497.954	-0.01
498.152	-0.03
498.35	-0
498.548	0.01
498.746	-0.01
498.944	-0.03
499.142	-0.02
499.34	-0.02
499.538	0
499.736	-0.02
499.933	0.05
500.131	0.02
500.329	-0
500.527	0.03
500.725	0.02
500.922	0.01
501.12	0.01
501.318	-0.01
501.516	-0.05
501.713	-0
501.911	-0.03
502.109	-0.03
502.306	-0
502.504	-0
502.701	-0.03
502.899	-0.02
503.097	0.05
503.294	0
503.492	-0.02
503.689	-0.02
503.887	0.01
504.084	0.03
504.282	-0.02
504.479	-0.05
504.677	-0.01
504.874	-0.04
505.072	-0.01
505.269	-0.01
505.466	0.01
505.664	0.02
505.861	-0.05
506.059	-0.01
506.256	0.03
506.453	0
506.651	0.05
506.848	0.03
507.045	0
507.242	0
507.44	-0.01
507.637	-0
507.834	-0.02
508.031	0.01
508.229	-0.04
508.426	-0.01
508.623	0.01
508.82	-0.02
509.017	-0.02
509.214	-0.02
509.411	-0
509.608	-0.02
509.805	-0.01
510.003	-0.03
510.2	-0.02
510.397	0
510.594	-0.03
510.791	-0.03
510.988	-0.03
511.184	0.01
511.381	-0.02
511.578	-0.01
511.775	0.03
511.972	-0.01
512.169	-0
512.366	-0.01
512.563	0.02
512.76	-0.01
512.956	0.01
513.153	-0.03
513.35	-0.01
513.547	-0.02
513.744	-0.03
513.94	-0.04
514.137	0.02
514.334	-0.02
514.53	0.01
514.727	0
514.924	0.05
515.12	-0.02
515.317	-0.05
515.514	-0.04
515.71	-0.01
515.907	0.02
516.103	-0.02
516.3	0
516.497	0.02
516.693	0.01
516.89	-0.01
517.086	-0.04
517.283	0.02
517.479	-0.01
517.676	-0.02
517.872	-0.01
518.068	-0.05
518.265	-0.03
518.461	-0.03
518.658	-0.03
518.854	-0.01
519.05	-0.02
519.247	-0.03
519.443	0.02
519.639	0.01
519.836	0.01
520.032	-0.01
520.228	-0.02
520.424	0.03
520.621	0.01
520.817	-0.01
521.013	-0
521.209	0.03
521.405	0.03
521.601	-0
521.798	-0.01
521.994	0.01
522.19	-0.03
522.386	-0.03
522.582	-0
522.778	0.01
522.974	-0.01
523.17	-0.02
523.366	-0.01
523.562	0.03
523.758	-0.01
523.954	-0.02
524.15	-0.03
524.346	0
524.542	-0.02
524.738	-0.03
524.934	-0
525.129	-0.03
525.325	-0.01
525.521	0
525.717	0.02
525.913	-0.01
526.109	-0.01
526.304	-0.02
526.5	0
526.696	-0
526.892	-0
527.087	0
527.283	-0.01
527.479	0.01
527.674	-0.02
527.87	-0.03
528.066	-0.04
528.261	0
528.457	0.01
528.653	-0.02
528.848	-0.03
529.044	0
529.239	-0.02
529.435	0.02
529.63	-0
529.826	0.04
530.021	0.01
530.217	0.01
530.412	-0.02
530.608	-0.02
530.803	-0.01
530.999	-0.01
531.194	-0.04
531.389	-0
531.585	-0.06
531.78	-0.01
531.975	-0.03
532.171	0.02
532.366	-0
532.561	-0.01
532.757	-0.03
532.952	-0.03
533.147	0
533.342	-0.01
533.538	-0.03
533.733	0.03
533.928	-0.02
534.123	-0.04
534.318	-0.04
534.513	-0
534.709	-0.01
534.904	-0.01
535.099	-0.01
535.294	-0.01
535.489	-0.01
535.684	0
535.879	-0.04
536.074	0
536.269	-0.01
536.464	-0.01
536.659	-0.02
536.854	-0.01
537.049	-0.01
537.244	-0.02
537.439	-0.02
537.634	0.02
537.828	-0
538.023	-0.01
538.218	-0.04
538.413	-0
538.608	-0.05
538.803	0.01
538.997	-0.04
539.192	0.02
539.387	-0
539.582	0.01
539.776	-0.02
539.971	-0.02
540.166	-0.01
540.36	-0.03
540.555	-0.01
540.75	-0.02
540.944	-0.03
541.139	-0.04
541.334	-0.02
541.528	-0.01
541.723	0.02
541.917	-0.03
542.112	-0.05
542.306	-0
542.501	-0.01
542.695	0.01
542.89	-0.01
543.084	0
543.279	0.01
543.473	-0.01
543.668	-0.03
543.862	0.01
544.056	0.01
544.251	-0.02
544.445	-0.01
544.64	-0
544.834	-0.03
545.028	-0
545.222	-0
545.417	0.01
545.611	-0.01
545.805	-0.01
546	-0.03
546.194	-0.03
546.388	-0.01
546.582	0.03
546.776	0.01
546.97	0.01
547.165	0.01
547.359	0.01
547.553	-0.02
547.747	-0.01
547.941	-0.01
548.135	-0.01
548.329	0.02
548.523	-0
548.717	-0.01
548.911	-0.02
549.105	-0.02
549.299	0.01
549.493	0.02
549.687	-0
549.881	0
550.075	0
550.269	-0.04
550.463	0.01
550.657	-0.04
550.85	-0.01
551.044	-0.03
551.238	-0.01
551.432	-0.03
551.626	-0.02
551.82	0.01
552.013	-0.04
552.207	-0
552.401	0.01
552.594	0.01
552.788	-0.02
552.982	-0.01
553.176	-0.02
553.369	0
553.563	0.01
553.756	-0.03
553.95	-0.05
554.144	-0.01
554.337	0.01
554.531	-0.01
554.724	-0.01
554.918	-0.01
555.111	-0.01
555.305	0.01
555.498	0.02
555.692	0
555.885	-0.01
556.079	0
556.272	-0.01
556.466	0.01
556.659	0.02
556.852	-0.01
557.046	-0.01
557.239	0.03
557.432	-0.04
557.626	-0.04
557.819	0.01
558.012	0.02
558.206	-0.01
558.399	-0
558.592	0
558.785	-0.02
558.979	0.01
559.172	0
559.365	0.01
559.558	0.01
559.751	-0.02
559.944	0.02
560.138	-0.04
560.331	-0
560.524	-0.04
560.717	-0.01
560.91	0.01
561.103	0.02
561.296	-0.03
561.489	-0
561.682	-0.01
561.875	0.02
562.068	-0.01
562.261	-0.02
562.454	0.05
562.647	-0.02
562.84	0.04
563.032	-0.03
563.225	-0
563.418	-0.02
563.611	-0.01
563.804	-0.02
563.997	-0.04
564.19	-0.05
564.382	-0
564.575	-0
564.768	-0
564.961	-0.01
565.153	-0.02
565.346	0.01
565.539	-0.02
565.731	0.01
565.924	0
566.117	-0.01
566.309	0
566.502	-0.01
566.695	-0.02
566.887	0
567.08	-0.06
567.272	-0.03
567.465	-0.01
567.657	0
567.85	0.01
568.042	-0.02
568.235	0.02
568.427	-0
568.62	0
568.812	0.02
569.005	-0
569.197	-0.05
569.389	-0.01
569.582	-0.01
569.774	-0
569.966	-0.05
570.159	-0.05
570.351	0
570.543	-0.04
570.736	-0.03
570.928	-0.03
571.12	-0.02
571.312	-0.02
571.505	-0.05
571.697	0.03
571.889	-0.01
572.081	-0.01
572.273	-0.03
572.465	0.02
572.658	-0.02
572.85	0
573.042	-0.03
573.234	-0.02
573.426	0.05
573.618	-0.01
573.81	-0.01
574.002	0.04
574.194	0.03
574.386	-0.04
574.578	-0.07
574.77	-0.04
574.962	-0.02
575.154	-0.05
575.346	-0.02
575.538	0.02
575.729	-0.02
575.921	-0.04
576.113	-0
576.305	0.01
576.497	-0.03
576.689	-0.01
576.88	-0.06
577.072	0.02
577.264	-0.01
577.456	-0
577.647	-0.09
577.839	-0.01
578.031	0.02
578.223	-0.05
578.414	-0.07
578.606	-0.01
578.798	-0.01
578.989	-0.02
579.181	-0.03
579.372	-0.04
579.564	-0
579.755	-0.02
579.947	-0.01
580.139	0
580.33	-0.07
580.522	-0.03
580.713	-0.06
580.905	-0
581.096	0
581.287	-0.02
581.479	-0.03
581.67	0.01
581.862	-0.01
582.053	-0.02
582.244	-0.06
582.436	-0.01
582.627	0
582.818	-0.05
583.01	-0.05
583.201	0.01
583.392	0.02
583.583	0
583.775	-0.05
583.966	-0.03
584.157	-0.03
584.348	-0.02
584.54	-0.06
584.731	-0.01
584.922	-0
585.113	-0.05
585.304	-0.02
585.495	0.02
585.686	-0.01
585.877	0.03
586.068	-0.01
586.259	0.01
586.45	0
586.641	-0.05
586.832	-0.05
587.023	-0
587.214	-0.03
587.405	-0.01
587.596	-0.04
587.787	0.03
587.978	0.01
588.169	-0.04
588.36	-0.04
588.551	0.01
588.742	-0.02
588.932	-0.01
589.123	-0
589.314	0.02
589.505	0.02
589.696	-0
589.886	-0.05
590.077	-0.04
590.268	-0.01
590.458	-0.07
590.649	-0.06
590.84	0.04
591.03	-0.02
591.221	-0.05
591.412	-0.05
591.602	0.04
591.793	0.02
591.984	-0.07
592.174	-0.03
592.365	0.08
592.555	-0.03
592.746	0.02
592.936	-0.02
593.127	0
593.317	0.04
593.508	-0.03
593.698	-0.03
593.889	0.01
594.079	-0
594.269	-0.05
594.46	-0.05
594.65	0.01
594.84	-0.03
595.031	-0.06
595.221	-0.02
595.411	-0.05
595.602	0.02
595.792	-0.02
595.982	-0.07
596.172	0.06
596.363	0.01
596.553	-0
596.743	-0.03
596.933	0.01
597.123	0.03
597.314	-0.04
597.504	-0.02
597.694	0.01
597.884	0.02
598.074	-0.03
598.264	-0.04
598.454	0.01
598.644	0.01
598.834	0.02
599.024	-0.01
599.214	-0.01
599.404	0.04
599.594	-0.03
599.784	-0.06
599.974	0
600.164	0.02
600.354	-0.04
600.544	-0.04
600.734	-0
600.924	0.02
601.114	-0.03
601.303	-0.01
601.493	0.03
601.683	0.01
601.873	-0.02
602.063	-0.05
602.252	0.01
602.442	-0.07
602.632	-0.05
602.821	-0.05
603.011	0.03
603.201	-0.03
603.39	-0.06
603.58	-0.04
603.77	-0.01
603.959	0.01
604.149	-0.01
604.339	-0.03
604.528	0.01
604.718	0.01
604.907	-0.04
605.097	-0.03
605.286	-0.03
605.476	0.01
605.665	0.02
605.855	-0.02
606.044	0.02
606.234	0.02
606.423	-0.02
606.612	-0.08
606.802	-0.01
606.991	-0
607.181	0.01
607.37	-0.06
607.559	-0.03
607.749	-0.06
607.938	-0.04
608.127	-0.03
608.316	-0.05
608.506	0.01
608.695	-0.02
608.884	-0.04
609.073	0.02
609.263	0.02
609.452	0.03
609.641	0.01
609.83	-0.01
610.019	-0.01
610.208	-0.05
610.397	-0.01
610.586	0.01
610.775	-0.05
610.965	-0.02
611.154	-0.06
611.343	0.04
611.532	-0.02
611.721	-0.07
611.91	-0.05
612.099	0.02
612.287	-0.04
612.476	-0.03
612.665	-0.02
612.854	-0.04
613.043	0.04
613.232	-0.04
613.421	-0.06
613.61	-0.03
613.798	-0.04
613.987	0.01
614.176	0.01
614.365	0.01
614.554	0.01
614.742	0.01
614.931	-0.04
615.12	0.03
615.309	-0.01
615.497	-0
615.686	-0.04
615.875	-0.03
616.063	0.01
616.252	-0.05
616.44	-0.02
616.629	-0.01
616.818	0.02
617.006	-0.03
617.195	-0.03
617.383	0.02
617.572	-0
617.76	-0.05
617.949	-0.05
618.137	-0.02
618.326	0.06
618.514	-0.02
618.703	-0.05
618.891	0.03
619.079	-0.06
619.268	-0.01
619.456	-0.06
619.644	0.03
619.833	-0.02
620.021	-0.03
620.209	-0.06
620.398	0.02
620.586	-0.03
620.774	-0.02
620.962	-0.03
621.151	0.04
621.339	-0.02
621.527	-0.07
621.715	-0.05
621.903	-0.02
622.092	-0.05
622.28	0
622.468	-0.03
622.656	-0.03
622.844	0.03
623.032	-0.06
623.22	-0.06
623.408	0.01
623.596	-0.01
623.784	0.01
623.972	-0.05
624.16	-0
624.348	0.05
624.536	-0.03
624.724	-0.06
624.912	0.03
625.1	-0
625.288	-0.06
625.476	-0.03
625.664	0.01
625.851	-0.07
626.039	-0.01
626.227	-0.01
626.415	-0.01
626.603	-0.08
626.79	-0.03
626.978	-0.05
627.166	-0
627.354	-0.02
627.541	-0.04
627.729	-0.12
627.917	-0.01
628.104	0.02
628.292	-0.02
628.48	-0.01
628.667	-0.04
628.855	-0.02
629.042	-0.01
629.23	-0.04
629.418	0.01
629.605	-0.04
629.793	-0.04
629.98	-0.04
630.168	-0.01
630.355	0.02
630.543	-0.03
630.73	-0.04
630.917	0
631.105	0.05
631.292	-0.04
631.48	-0.02
631.667	0.05
631.854	0.01
632.042	-0.04
632.229	-0.06
632.416	0.03
632.604	-0.01
632.791	-0.04
632.978	0.02
633.165	0
633.353	0.05
633.54	0.05
633.727	-0.1
633.914	-0.04
634.101	-0.1
634.289	0.01
634.476	-0.04
634.663	-0.07
634.85	0.01
635.037	-0.07
635.224	-0.05
635.411	0.02
635.598	0.04
635.785	-0.03
635.972	-0.06
636.159	0.01
636.346	-0.07
636.533	-0.02
636.72	-0.04
636.907	-0.02
637.094	0.04
637.281	-0.02
637.468	0.01
637.655	-0.02
637.842	-0.02
638.029	-0.05
638.215	0.03
638.402	-0.01
638.589	-0.03
638.776	-0.02
638.963	-0.03
639.149	0.01
639.336	0.07
639.523	-0.02
639.709	-0.04
639.896	-0.04
640.083	0.06
640.27	-0
640.456	-0.05
640.643	0.02
640.829	-0.09
641.016	-0.02
641.203	-0.08
641.389	0.04
641.576	0
641.762	-0.02
641.949	-0.05
642.135	-0.02
642.322	-0.02
642.508	-0.04
642.695	-0.02
642.881	-0.02
643.068	-0
643.254	-0.03
643.441	0.03
643.627	-0.03
643.813	-0.03
644	0.02
644.186	-0.07
644.372	0.02
644.559	0.04
644.745	-0.03
644.931	-0.05
645.118	-0.03
645.304	-0.02
645.49	-0.06
645.676	-0.04
645.862	0.01
646.049	0.03
646.235	-0.03
646.421	0.05
646.607	0.07
646.793	-0.03
646.979	-0.05
647.165	0.01
647.352	-0.02
647.538	0.03
647.724	-0.04
647.91	-0.01
648.096	0.02
648.282	0.03
648.468	-0.04
648.654	-0
648.84	0.01
649.026	-0.03
649.212	-0.03
649.397	-0.05
649.583	-0.06
649.769	0.02
649.955	-0.02
650.141	0.01
650.327	0.03
650.513	-0.06
650.698	-0
650.884	-0.1
651.07	0.01
651.256	-0.03
651.442	-0.05
651.627	-0.02
651.813	0.01
651.999	-0.02
652.184	0.02
652.37	-0.03
652.556	-0.05
652.741	0.02
652.927	-0.09
653.113	-0.04
653.298	-0.01
653.484	-0.02
653.669	-0.07
653.855	-0.01
654.04	-0.02
654.226	-0.02
654.412	-0.02
654.597	-0.05
654.782	-0.01
654.968	0.04
655.153	-0
655.339	-0.02
655.524	-0.07
655.71	0
655.895	-0.02
656.08	-0.04
656.266	0.02
656.451	-0.01
656.636	-0.05
656.822	0.02
657.007	-0.05
657.192	-0.03
657.378	-0.1
657.563	-0.04
657.748	0.01
657.933	0
658.118	-0.05
658.304	-0.05
658.489	0.03
658.674	-0.02
658.859	-0.04
659.044	-0.05
659.229	-0.01
659.414	-0.05
659.599	-0.03
659.785	-0.04
659.97	-0.06
660.155	0.02
660.34	-0.01
660.525	0
660.71	-0.05
660.895	0.01
661.08	-0.02
661.264	-0.05
661.449	0.03
661.634	0.05
661.819	-0.04
662.004	0.02
662.189	-0.08
662.374	-0.05
662.559	-0.06
662.743	-0.05
662.928	-0.03
663.113	-0.02
663.298	-0.06
663.483	-0.08
663.667	-0
663.852	-0.06
664.037	-0
664.221	-0.05
664.406	0.01
664.591	-0.01
664.775	-0.02
664.96	-0.03
665.145	0.01
665.329	0.03
665.514	-0.06
665.698	-0.02
665.883	-0.06
666.068	0.04
666.252	-0.04
666.437	-0.08
666.621	-0.03
666.806	-0
666.99	-0.02
667.174	-0.09
667.359	0.06
667.543	-0.03
667.728	-0.03
667.912	-0.09
668.096	-0
668.281	-0.02
668.465	-0.02
668.649	-0.02
668.834	-0.09
669.018	-0.03
669.202	-0.01
669.387	-0.04
669.571	0.07
669.755	-0.05
669.939	-0.06
670.124	-0.04
670.308	0.03
670.492	-0.01
670.676	-0.02
670.86	-0.01
671.044	-0.03
671.228	0
671.413	-0.09
671.597	-0.05
671.781	-0.04
671.965	0.01
672.149	-0.04
672.333	-0.07
672.517	-0.05
672.701	0.04
672.885	-0.05
673.069	-0.06
673.253	0.04
673.437	-0.06
673.621	-0.09
673.804	-0.05
673.988	-0.02
674.172	-0.03
674.356	-0.08
674.54	-0.07
674.724	0.06
674.908	-0.03
675.091	0.03
675.275	-0.01
675.459	-0.01
675.643	-0.06
675.826	0.02
676.01	-0.02
676.194	0
676.377	0.03
676.561	-0.02
676.745	-0.02
676.928	0.06
677.112	0.07
677.296	-0.02
677.479	-0.05
677.663	-0.03
677.846	0.03
678.03	-0.04
678.213	-0.05
678.397	-0.01
678.58	-0.02
678.764	-0.05
678.947	-0.08
679.131	-0.1
679.314	0
679.498	-0.03
679.681	-0.04
679.865	0.02
680.048	-0.03
680.231	-0.05
680.415	-0.04
680.598	-0.05
680.781	-0.07
680.965	-0.05
681.148	-0
681.331	-0.06
681.514	-0.03
681.698	-0.07
681.881	-0.02
682.064	0.01
682.247	0.02
682.43	-0.08
682.614	-0.02
682.797	0.02
682.98	0.03
683.163	-0.09
683.346	-0.01
683.529	-0.06
683.712	-0.08
683.895	0.01
684.078	-0.09
684.261	-0
684.444	-0
684.627	-0.03
684.81	-0.03
684.993	-0.03
685.176	-0
685.359	-0.09
685.542	-0.05
685.725	0.05
685.908	-0.08
686.091	-0.04
686.274	0.01
686.457	0.02
686.639	0.01
686.822	0.02
687.005	-0.05
687.188	0.01
687.371	0.03
687.553	-0.03
687.736	0.03
687.919	0.04
688.102	0.06
688.284	-0.08
688.467	-0.01
688.65	0.01
688.832	-0.02
689.015	-0.04
689.197	-0.05
689.38	0.1
689.563	0.12
689.745	-0.06
689.928	-0.05
690.11	-0.07
690.293	-0.02
690.475	-0.1
690.658	0.01
690.84	-0.02
691.023	-0.05
691.205	-0.05
691.388	-0.03
691.57	0.02
691.752	0.05
691.935	-0.05
692.117	-0.07
692.3	-0.01
692.482	0.02
692.664	0.02
692.847	0.03
693.029	0.05
693.211	-0
693.393	-0.05
693.576	-0.05
693.758	-0.02
693.94	-0.09
694.122	-0.01
694.304	-0.06
694.487	-0.05
694.669	0.06
694.851	-0.06
695.033	0
695.215	-0.04
695.397	-0.04
695.579	-0
695.761	-0.11
695.943	-0.06
696.125	0.04
696.308	-0.02
696.49	-0.1
696.671	0.09
696.853	-0.07
697.035	0.12
697.217	-0.05
697.399	0.02
697.581	-0.03
697.763	-0.02
697.945	-0.12
698.127	-0.03
698.309	-0
698.491	0.01
698.672	-0.01
698.854	0.03
699.036	0.1
699.218	-0.03
699.399	0.05
699.581	0.01
699.763	-0.03
699.945	-0.08
700.126	-0.09
700.308	-0.04
700.49	0
700.671	-0.09
700.853	-0.06
701.035	-0.04
701.216	0
701.398	-0.1
701.579	-0.02
701.761	0.11
701.943	-0.03
702.124	-0.04
702.306	-0.03
702.487	0.06
702.669	-0.04
702.85	-0.1
703.031	-0.05
703.213	0.06
703.394	0.06
703.576	-0.04
703.757	0.07
703.938	-0.01
704.12	0.1
704.301	-0.04
704.483	-0.12
704.664	0.01
704.845	0.05
705.026	0.03
705.208	-0.03
705.389	-0.03
705.57	-0.04
705.751	-0.06
705.933	-0.02
706.114	0.05
706.295	-0.01
706.476	-0.11
706.657	0.06
706.838	0.03
707.02	0.02
707.201	-0.05
707.382	-0.07
707.563	0
707.744	-0.05
707.925	-0.12
708.106	-0.05
708.287	0.01
708.468	0.1
708.649	-0.03
708.83	-0.02
709.011	-0.07
709.192	-0.01
709.373	-0.1
709.554	-0.04
709.734	0.05
709.915	0.04
710.096	-0.04
710.277	-0.13
710.458	-0.05
710.639	-0.02
710.819	-0.14
711	-0.05
711.181	0.04
711.362	0.05
711.542	0.03
711.723	-0.05
711.904	0.06
712.085	-0.01
712.265	-0.01
712.446	-0.12
712.627	-0.05
712.807	-0.05
712.988	-0.04
713.168	-0.11
713.349	0.06
713.53	-0.2
713.71	-0.12
713.891	-0.08
714.071	0.03
714.252	-0.07
714.432	-0.14
714.613	-0.09
714.793	-0.03
714.974	0.1
715.154	0.04
715.334	0.01
715.515	0.1
715.695	-0.09
715.876	-0.02
716.056	-0.08
716.236	-0.04
716.417	-0.02
716.597	-0.07
716.777	0.11
716.957	-0.07
717.138	-0.01
717.318	0.05
717.498	-0.06
717.678	-0.01
717.859	0.02
718.039	-0.09
718.219	-0.07
718.399	0.04
718.579	-0.08
718.759	-0.22
718.939	0.03
719.12	-0.07
719.3	-0.07
719.48	-0.15
719.66	-0.13
719.84	0.1
720.02	-0.04
720.2	-0
720.38	-0.03
720.56	0.09
720.74	-0.03
720.92	-0.03
721.1	0.05
721.279	0.07
721.459	-0.02
721.639	-0.12
721.819	0.03
721.999	-0.07
722.179	-0.02
722.359	-0.1
722.538	-0.02
722.718	-0
722.898	-0.09
723.078	-0.09
723.257	-0.08
723.437	0.03
723.617	-0.02
723.797	-0.05
723.976	0
724.156	-0
724.336	0.05
724.515	0.14
724.695	-0.17
724.874	-0.04
725.054	0.07
725.234	-0.14
725.413	-0.02
725.593	-0.06
725.772	-0.02
725.952	-0.07
726.131	-0.02
726.311	-0.01
726.49	-0.04
726.67	-0.12
726.849	-0.06
727.028	0.04
727.208	0.01
727.387	-0
727.567	-0.23
727.746	-0.03
727.925	-0.07
728.105	-0.12
728.284	-0.02
728.463	-0.03
728.643	-0.04
728.822	-0.1
729.001	-0.15
729.18	0
729.359	-0.01
729.539	-0.07
729.718	-0.01
729.897	0.02
730.076	-0.09
730.255	-0.1
730.434	-0.05
730.614	0.06
730.793	0.04
730.972	-0
731.151	-0.03
731.33	0.02
731.509	-0.02
731.688	0.02
731.867	-0
732.046	-0.12
732.225	0.1
732.404	-0.1
732.583	-0.14
732.762	-0.08
732.941	0.01
733.12	-0.02
733.298	-0.04
733.477	0.08
733.656	-0.05
733.835	-0.12
734.014	0.07
734.193	0.07
734.371	-0.02
734.55	-0.05
734.729	-0.2
734.908	-0.03
735.086	-0
735.265	0.04
735.444	-0.2
735.623	-0.11
735.801	-0.18
735.98	-0.11
736.159	-0.01
736.337	-0.05
736.516	0.01
736.694	0.03
736.873	-0.07
737.052	0.02
737.23	-0.07
737.409	-0.08
737.587	0.13
737.766	-0.16
737.944	-0.12
738.123	0.01
738.301	-0.02
738.479	-0.04
738.658	-0.08
738.836	-0.27
739.015	-0.03
739.193	0.18
739.371	-0.16
739.55	0.04
739.728	-0.17
739.906	0.02
740.085	0.15
740.263	0
740.441	-0.15
740.62	0.17
740.798	0.15
740.976	-0.14
741.154	-0.1
741.332	0.1
741.511	-0.13
741.689	0.01
741.867	-0.07
742.045	-0.08
742.223	-0.15
742.401	-0.13
742.579	-0.12
742.757	-0.05
742.935	-0.16
743.114	-0.15
743.292	-0.12
743.47	-0.09
743.648	0.03
743.826	0.02
744.004	0.02
744.181	-0.04
744.359	-0.05
744.537	0.03
744.715	-0.13
744.893	0
745.071	-0
745.249	-0.15
745.427	-0.08
745.605	0.06
745.782	-0.13
745.96	-0.05
746.138	-0.11
746.316	0.03
746.493	-0.07
746.671	-0.05
746.849	-0.08
747.027	0.05
747.204	-0.15
747.382	0.02
747.56	-0.1
747.737	0.01
747.915	-0.11
748.093	-0.04
748.27	-0.1
748.448	-0.06
748.625	-0.16
748.803	-0.19
748.98	-0.1
749.158	-0.02
749.335	0.01
749.513	-0.04
749.69	-0.02
749.868	0
750.045	0.06
750.223	-0.11
750.4	-0.25
750.578	0.14
750.755	0.02
750.932	-0.25
751.11	0
751.287	-0.19
751.464	0.16
751.642	-0.15
751.819	0.01
751.996	-0.06
752.173	-0.22
752.351	-0.12
752.528	-0.06
752.705	-0.1
752.882	-0.12
753.06	0.09
753.237	-0.06
753.414	0.18
753.591	0.04
753.768	-0.02
753.945	-0.15
754.122	-0.08
754.299	0.03
754.476	-0.11
754.654	-0.01
754.831	0.07
755.008	-0.13
755.185	-0.06
755.362	-0.15
755.539	-0.02
755.716	-0.14
755.892	-0.16
756.069	-0.12
756.246	-0.11
756.423	-0.08
756.6	0.02
756.777	-0.06
756.954	0.28
757.131	-0.09
757.307	-0.17
757.484	-0.19
757.661	0.04
757.838	0.02
758.015	-0.24
758.191	0.06
758.368	-0.1
758.545	0.14
758.721	0.04
758.898	-0.21
759.075	0.02
759.251	-0.04
759.428	-0.05
759.605	-0.19
759.781	-0.11
759.958	-0.11
760.134	0.03
760.311	-0.01
760.488	0.17
760.664	0.1
760.841	0.06
761.017	-0.19
761.194	0.05
761.37	0.06
761.547	0
761.723	-0.03
761.899	0.15
762.076	-0.11
762.252	-0.13
762.429	-0.14
762.605	-0.03
762.781	-0.13
762.958	0.07
763.134	-0.1
763.31	-0.05
763.486	0.05
763.663	-0.24
763.839	0.1
764.015	-0.3
764.191	-0.11
764.368	-0.04
764.544	-0.13
764.72	0.01
764.896	0.05
765.072	-0.01
765.248	-0.07
765.425	-0.11
765.601	0.1
765.777	-0.02
765.953	-0.31
766.129	-0.11
766.305	-0.19
766.481	-0.03
766.657	0.04
766.833	0.14
767.009	-0.21
767.185	-0.2
767.361	-0.03
767.537	-0.1
767.713	0.12
767.889	-0.15
768.065	-0.08
768.24	-0.26
768.416	0.01
768.592	-0.02
768.768	-0.03
768.944	0.03
769.12	-0.15
769.295	-0.14
769.471	-0.01
769.647	-0.14
769.823	0.1
769.998	-0.12
770.174	-0.12
770.35	0.35
770.525	0.07
770.701	-0.04
770.877	-0.08
771.052	-0.03
771.228	0.28
771.403	0.01
771.579	0.08
771.755	0.26
771.93	-0.04
772.106	-0.12
772.281	-0.29
772.457	-0.02
772.632	0.03
772.808	-0.17
772.983	-0.19
773.159	-0.1
773.334	0.17
773.509	0.07
773.685	-0.24
773.86	0.4
774.036	0.11
774.211	-0.05
774.386	-0.07
774.562	-0.02
774.737	0.08
774.912	-0.23
775.087	0.1
775.263	-0.13
775.438	-0.16
775.613	-0.15
775.788	-0.13
775.964	0.19
776.139	0.32
776.314	-0.3
776.489	-0.05
776.664	-0.05
776.839	-0.16
777.014	0.01
777.19	0.17
777.365	0.31
777.54	0.15
777.715	-0.03
777.89	-0.07
778.065	-0.29
778.24	-0.2
778.415	0.13
778.59	-0.34
778.765	-0.17
778.94	0.06
779.115	-0.09
779.289	0.08
779.464	-0.11
779.639	-0.03
779.814	-0.22
779.989	-0.23
780.164	0.07
780.339	0.07
780.513	-0.05
780.688	-0.12
780.863	-0
781.038	0.12
781.212	-0.21
781.387	0.09
781.562	0.3
781.737	-0.08
781.911	0.23
782.086	-0.08
782.261	-0.06
782.435	0.09
782.61	-0.21
782.784	-0.04
782.959	0.07
783.134	-0.09
783.308	-0.33
783.483	-0.1
783.657	0.43
783.832	0.22
784.006	-0.44
784.181	-0.12
784.355	0.18
784.53	-0.15
784.704	-0.18
784.878	0.12
785.053	-0.14
785.227	0.14
785.402	0.22
785.576	-0.31
785.75	-0.11
785.925	-0.26
786.099	0.17
786.273	0.17
786.448	0.29
786.622	0.19
786.796	-0.28
786.97	-0.04
787.145	0.46
787.319	-0.16
787.493	-0.26
787.667	-0.33
787.841	0.01
788.015	0.08
788.19	-0.15
788.364	0.11
788.538	0.16
788.712	0.14
788.886	-0.06
789.06	0.21
789.234	-0.08
789.408	-0.19
789.582	-0.1
789.756	-0.04
789.93	-0.22
790.104	-0.21
790.278	-0.22
790.452	-0.2
790.626	0.12
790.8	-0.19
790.973	-0.01
791.147	0.08
791.321	0.24
791.495	0.22
791.669	-0.04
791.843	-0.16
792.016	-0.04
792.19	0.19
792.364	-0.22
792.538	0.36
792.711	0.23
792.885	-0.15
793.059	-0.37
793.233	-0.48
793.406	0.09
793.58	0.11
793.754	0.02
793.927	-0.17
794.101	0.19
794.274	-0.05
794.448	0.02
794.622	-0.15
794.795	0.4
794.969	-0.17
795.142	0.2
795.316	-0.14
795.489	-0.34
795.663	0.4
795.836	-0.09
796.009	-0.27
796.183	0.3
796.356	-0.14
796.53	0.01
796.703	0.06
796.876	0.47
797.05	-0.2
797.223	0.03
797.396	-0.18
797.57	0.02
797.743	0.23
797.916	0.01
798.09	-0.02
798.263	-0.04
798.436	0.01
798.609	-0.25
798.782	0.07
798.956	-0.01
799.129	-0.19
799.302	-0.25
799.475	-0.22
799.648	-0.21
799.821	-0.15
799.994	-0.11
800.167	-0.49
800.34	-0.16
800.514	-0.13
800.687	-0.18
800.86	-0.45
801.033	-0
801.206	-0.04
801.379	-0.27
801.551	0.03
801.724	0.33
801.897	0.16
802.07	-0.09
802.243	-0.56
802.416	-0.21
802.589	-0.37
802.762	0.06
802.935	0.08
803.107	0.17
803.28	0.09
803.453	-0.05
803.626	-0.1
803.798	0.09
803.971	-0.33
804.144	0.11
804.317	0.16
804.489	-0.01
804.662	-0.04
804.835	-0.25
805.007	-0.32
805.18	0.33
805.353	0.17
805.525	-0.37
805.698	-0.04
805.87	-0.07
806.043	0.29
806.215	-0.15
806.388	-0.41
806.56	0.2
806.733	-0.02
806.905	-0.14
807.078	-0.32
807.25	0.14
807.423	0.11
807.595	-0.33
807.768	-0.18
807.94	0.23
808.112	0.14
808.285	-0.28
808.457	-0.17
808.629	-0.15
808.802	0.12
808.974	-0.06
809.146	-0.37
809.318	-0.31
809.491	-0.09
809.663	-0.12
809.835	-0.18
810.007	0.4
810.18	-0.22
810.352	-0.53
810.524	-0.26
810.696	0.05
810.868	0.41
811.04	-0.2
811.212	-0.17
811.384	0.07
811.556	0.05
811.728	-0.15
811.901	0.55
812.073	-0.04
812.245	0.4
812.417	-0.07
812.589	-0.84
812.76	0.09
812.932	0.21
813.104	-0.02
813.276	-0.29
813.448	0.57
813.62	0.17
813.792	-0.02
813.964	-0.19
814.136	0.25
814.307	-0.4
814.479	-0.55
814.651	-0.09
814.823	0.86
814.995	-0.23
815.166	0.31
815.338	-0.21
815.51	-0.64
815.681	0.92
815.853	0.07
816.025	-0.08
816.196	0.39
816.368	0.29
816.54	-0.59
816.711	-0.41
816.883	-0.34
817.054	0.63
817.226	-0.5
817.398	0.19
817.569	-0.11
817.741	0.01
817.912	-0.31
818.084	-0.16
818.255	0.05
818.426	-0.84
818.598	0.15
818.769	-0.19
818.941	0.27
819.112	0.71
819.283	0.33
819.455	-0.15
819.626	-0.22
819.798	-0.18
819.969	-0.01
820.14	-0.6
820.311	-0.1
820.483	-0.13
820.654	-0.15
820.825	-0.21
820.996	-0.12
821.168	-0.83
821.339	-0.17
821.51	-0.43
821.681	-0.06
821.852	-0.18
822.023	-0.56
822.195	-0.41
822.366	0.13
822.537	0.04
822.708	0
822.879	-0.26
823.05	0.68
823.221	-0.28
823.392	0.06
823.563	0.06
823.734	0.33
823.905	-0.29
824.076	-0.41
824.247	0.01
824.418	-0.63
824.589	0.67
824.759	-0.36
824.93	0.15
825.101	-0.34
825.272	0.34
825.443	0.47
825.614	0.39
825.784	-0.64
825.955	0.65
826.126	0.41
826.297	-0.21
826.467	0.14
826.638	0.43
826.809	-1.02
826.98	-0.2
827.15	0.07
827.321	-0.08
827.492	0.38
827.662	-0.63
827.833	0.61
828.003	0.3
828.174	-0.82
828.345	-0.38
828.515	0.3
828.686	-0.1
828.856	-0.47
829.027	-0.37
829.197	-0.15
829.368	-0.12
829.538	0.01
829.709	-0.55
829.879	0.12
830.049	0.07
830.22	-0.65
830.39	-0.05
830.56	0.4
830.731	-0.32
830.901	-0.29
831.072	-0.12
831.242	0.22
831.412	0.04
831.582	-0.23
831.753	-0.94
831.923	-0.39
832.093	-0.02
832.263	-0.06
832.434	-0.88
832.604	-0.48
832.774	0.43
832.944	-0.03
833.114	-0.67
833.284	0.08
833.454	-0.69
833.624	-0.45
833.795	-0.82
833.965	0.71
834.135	0.84
834.305	-0.77
834.475	-1.11
834.645	0.12
834.815	-0.72
834.985	-0.77
835.155	-0.31
835.325	0.01
835.494	-0.03
835.664	-0.44
835.834	-0.96
836.004	0.04
836.174	-0.2
836.344	-0.05
836.514	-0.48
836.684	-0.7
836.853	0.38
837.023	0.02
837.193	0.12
837.363	0.38
837.532	0.17
837.702	-0.7
837.872	-0.17
838.041	0.45
838.211	1.52
838.381	-1.21
838.55	0.4
838.72	2.1
838.89	1.23
839.059	-0.09
839.229	-0.61
839.398	1.51
839.568	0.23
839.738	0.02
839.907	0.27
840.077	-0.02
840.246	-0.25
840.416	-1.25
840.585	-1.04
840.755	0.76
840.924	0.25
841.093	-1.35
841.263	-0.76
841.432	-0.19
841.602	-1.33
841.771	-0.44
841.94	-0.2
842.11	1.26
842.279	0.88
842.448	-1.11
842.617	-0.98
842.787	0.67
842.956	-0.6
843.125	-0.54
843.294	0.3
843.464	0.6
843.633	-0.29
843.802	-0.82
843.971	-0.7
844.14	0.24
844.309	0.77
844.479	-1.33
844.648	-0.62
844.817	0.22
844.986	0.06
845.155	-0.84
845.324	-0.04
845.493	-0.51
845.662	-0.88
845.831	0.45
846	0.77
846.169	-0.52
846.338	0.44
846.507	-0.52
846.676	-0.35
846.844	-0.34
847.013	0.13
847.182	0.38
847.351	-1.26
847.52	-0.12
847.689	-0.26
847.858	0.01
848.026	-1.4
848.195	0.3
848.364	-0.6
848.533	-0.68
848.701	-0.47
848.87	0.31
849.039	0.37
849.207	0.83
849.376	1.52
849.545	1.52
849.713	-0.38
849.882	-0.51
850.051	-1.03
850.219	0.29
850.388	0.2
850.556	-2.12
850.725	-1.19
850.893	-0.52
851.062	-0.27
851.23	0.71
851.399	-2.14
851.567	-1.62
851.736	-1.02
851.904	-1.58
852.073	-0.03
852.241	0.26
852.41	-0.59
852.578	-0.44
852.746	-0.87
852.915	1.06
853.083	-0.19
853.251	-1.79
853.42	-0.19
853.588	0.18
853.756	0.5
853.924	-0.57
854.093	-0.7
854.261	-0.02
854.429	-0.5
854.597	-0.06
854.765	-1.82
854.934	-0.75
855.102	1.12
855.27	-1.02
855.438	-0.74
855.606	1.15
855.774	0.99
855.942	-1.92
856.11	-1.29
856.278	-0.96
856.446	-0.02
856.614	-0.96
856.782	-1.45
856.95	0.19
857.118	1.2
857.286	0.61
857.454	-1.11
857.622	0.7
857.79	0.25
857.958	-1.15
858.126	-1.16
858.294	-3.02
858.462	0.35
858.629	-0.09
858.797	-1.91
858.965	-0.14
859.133	0.41
859.301	-0.49
859.468	0.75
859.636	-1.04
859.804	1.08
859.971	0.56
860.139	-1.74
860.307	0.6
860.474	0.05
860.642	-1.56
860.81	-1.8
860.977	-1.22
861.145	0.57
861.313	-0.63
861.48	-1.3
861.648	1.27
861.815	-1.18
861.983	-1.38
862.15	-1.3
862.318	0.75
862.485	1.72
862.653	-0.91
862.82	-2.44
862.988	1.29
863.155	0.42
863.322	-2.2
863.49	-1.61
863.657	-1.4
863.824	2.12
863.992	-0.38
864.159	-1.27
864.326	1.5
864.494	-0.7
864.661	2.59
864.828	-1.59
864.996	0.05
865.163	0.75
865.33	-0.35
865.497	-2.84
865.664	-0.99
865.832	-0.65
865.999	-1.11
866.166	-2.26
866.333	-1.28
866.5	-1.81
866.667	-0.64
866.834	-1.09
867.001	1.54
867.168	-3.12
867.335	-0.14
867.502	-3.52
867.669	0.05
867.836	2.63
868.003	-1.39
868.17	0.32
868.337	-0.43
868.504	3.15
868.671	-1.6
868.838	-1.52
869.005	0.41
869.172	-0.31
869.339	-1.44
869.505	0.07
869.672	0.46
869.839	2.21
870.006	-0.7
870.173	-1.49
870.339	0.51
870.506	1.98
870.673	-2.49
870.84	0.46
871.006	-0.2
871.173	0.59
871.34	1.23
871.506	-3.38
871.673	1.24
871.839	-1.4
872.006	-0.59
872.173	-1.72
872.339	-0.61
872.506	1.21
872.672	-0.01
872.839	-2.96
873.005	0.57
873.172	2.2
873.338	-0.18
873.505	-0.9
873.671	-0.92
873.838	0.92
874.004	-3.23
874.171	-1.88
874.337	-0.77
874.503	1.98
874.67	-0.82
874.836	-1.22
875.002	0.9
875.169	0.07
875.335	0.37
875.501	-1.52
875.668	1.22
875.834	0.66
876	-0.19
876.166	-0.12
876.332	0.65
876.499	2.91
876.665	-1.72
876.831	-1.4
876.997	3.28
877.163	0.15
877.329	-1.7
877.495	1.12
877.662	0.44
877.828	0.61
877.994	-1.34
878.16	-3.45
878.326	-1.29
878.492	0.71
878.658	-1.53
878.824	0.6
878.99	-0.11
879.156	-2.4
879.322	3.12
879.487	-1.19
879.653	-0.26
879.819	-0.22
879.985	-2.24
880.151	0.86
880.317	-0.11
880.483	-2.11
880.648	0.45
880.814	-3
880.98	0.38
881.146	-1.46
881.312	-1.76
881.477	-2.77
881.643	-0.33
881.809	2.28
881.974	0.25
882.14	-1.67
882.306	-1.2
882.471	4.11
882.637	-0.45
882.803	0.68
882.968	2.94
883.134	3.63
883.299	-0.35
883.465	-0.2
883.63	-0.95
883.796	0.6
883.961	1.13
884.127	0.97
884.292	-3.93
884.458	-1.93
884.623	-1.93
