Data from Apollo_Calib_20240827__AbsoluteIrradiance__702__10-51-00-760.txt Node

Date: Wed Aug 28 10:51:00 BST 2024
User: biology
Spectrometer: FLMT08252
Trigger mode: 0
Integration Time (sec): 5.000000E-1
Scans to average: 5
Electric dark correction enabled: true
Nonlinearity correction enabled: false
Boxcar width: 0
XAxis mode: Wavelengths
Number of Pixels in Spectrum: 3648
>>>>>Begin Spectral Data<<<<<
179.588	-0
179.809	-0
180.03	-0
180.251	-0
180.473	-0
180.694	0
180.915	0
181.136	-0
181.357	0
181.578	-0
181.799	0
182.02	-0
182.241	-0
182.462	-0
182.683	0
182.904	-0
183.125	-0
183.346	0
183.567	0
183.788	-0
184.009	-0
184.23	0
184.451	0
184.672	-0
184.892	-0
185.113	-0
185.334	0
185.555	-0
185.776	-0
185.996	0
186.217	0
186.438	0
186.659	-0
186.879	0
187.1	-0
187.321	-0
187.541	-0
187.762	0
187.983	0
188.203	0
188.424	-0
188.644	0
188.865	-0
189.086	-0
189.306	0
189.527	0
189.747	-0
189.968	-0
190.188	0
190.409	0
190.629	0
190.849	-0
191.07	-0
191.29	0
191.511	0
191.731	-0
191.951	-0
192.172	-0
192.392	-0
192.612	-0
192.833	0
193.053	0
193.273	0
193.493	-0
193.714	-0
193.934	0
194.154	0
194.374	-0
194.594	-0
194.815	-0
195.035	0
195.255	-0
195.475	-0
195.695	-0
195.915	0
196.135	-0
196.355	0
196.575	0
196.795	0
197.015	-0
197.235	-0
197.455	-0
197.675	0
197.895	-0
198.115	-0
198.335	0
198.555	-0
198.775	0
198.995	0
199.214	0
199.434	0
199.654	-0
199.874	0
200.094	0.53
200.313	-0.07
200.533	-0.63
200.753	-0.39
200.973	0.58
201.192	0.2
201.412	-0.96
201.632	-0.22
201.851	0.97
202.071	-0.58
202.291	-0.57
202.51	-0.59
202.73	0.72
202.95	-0.43
203.169	-0.66
203.389	-0.23
203.608	0.22
203.828	-0.55
204.047	-0.2
204.267	0.57
204.486	0.11
204.706	0.14
204.925	-0.27
205.145	-0.09
205.364	0.07
205.583	0.56
205.803	-0.19
206.022	-0.56
206.242	-0.23
206.461	-0.16
206.68	-0.36
206.9	-0.2
207.119	0.74
207.338	0.23
207.557	-0.12
207.777	-0.13
207.996	-0.04
208.215	0.46
208.434	-0.29
208.654	-0.5
208.873	0
209.092	0.55
209.311	-0.2
209.53	-0.03
209.749	-0.07
209.968	-0.32
210.187	0.12
210.407	-0.51
210.626	0.14
210.845	0.19
211.064	0.1
211.283	-0.21
211.502	0.17
211.721	0.08
211.94	-0.22
212.159	0.06
212.377	0.16
212.596	0.26
212.815	-0.06
213.034	0.07
213.253	0.12
213.472	0.03
213.691	-0.1
213.91	-0.17
214.128	-0.03
214.347	0.24
214.566	-0.3
214.785	-0.28
215.003	0.06
215.222	0.07
215.441	-0.01
215.66	-0.18
215.878	-0.03
216.097	0.13
216.316	-0.19
216.534	-0.17
216.753	0.21
216.972	-0.13
217.19	-0.18
217.409	-0.19
217.627	-0.04
217.846	0
218.064	-0.05
218.283	-0.11
218.501	0.24
218.72	0.3
218.938	-0.19
219.157	-0.25
219.375	0.2
219.594	0.19
219.812	-0.19
220.031	-0.26
220.249	0.28
220.467	0.35
220.686	-0.04
220.904	-0.09
221.122	-0.07
221.341	0.23
221.559	0.01
221.777	-0.13
221.995	-0.08
222.214	0.2
222.432	-0.16
222.65	0.09
222.868	0.03
223.086	0.06
223.305	0.1
223.523	0.02
223.741	0.32
223.959	-0.09
224.177	-0.18
224.395	-0.15
224.613	-0.02
224.831	0.06
225.049	-0.22
225.267	-0.08
225.485	0.15
225.703	0.02
225.921	-0.04
226.139	-0.15
226.357	0.08
226.575	0.14
226.793	-0.1
227.011	0.52
227.229	0.17
227.447	0.07
227.665	0.03
227.883	-0.23
228.1	0.02
228.318	0.14
228.536	-0.21
228.754	-0.12
228.972	0
229.189	0.01
229.407	-0.1
229.625	-0.04
229.843	0.31
230.06	0.24
230.278	-0.02
230.496	-0.03
230.713	-0.01
230.931	0.2
231.149	-0.13
231.366	-0.24
231.584	-0.07
231.801	0.27
232.019	-0.01
232.236	-0.14
232.454	-0.15
232.671	0.02
232.889	-0.09
233.106	-0.26
233.324	-0.04
233.541	0.01
233.759	0
233.976	-0.14
234.194	-0.07
234.411	-0.14
234.628	-0.13
234.846	-0.1
235.063	-0.02
235.28	-0.01
235.498	-0.01
235.715	-0.1
235.932	0.17
236.149	-0.02
236.367	-0.11
236.584	-0.04
236.801	-0.01
237.018	0.11
237.236	0.01
237.453	-0.2
237.67	0.05
237.887	-0.06
238.104	-0.07
238.321	-0.1
238.538	-0.09
238.755	0.04
238.973	-0.17
239.19	-0.03
239.407	-0.06
239.624	-0.06
239.841	-0.19
240.058	-0.1
240.275	0.05
240.492	-0.03
240.709	-0.1
240.925	-0.14
241.142	0.01
241.359	-0.05
241.576	-0.13
241.793	-0.18
242.01	-0.08
242.227	0.14
242.444	-0.08
242.66	0.01
242.877	0.04
243.094	-0.1
243.311	0.06
243.527	-0.1
243.744	0.03
243.961	0.02
244.178	0.03
244.394	-0
244.611	0.08
244.828	0.13
245.044	-0.15
245.261	-0.06
245.477	0.01
245.694	-0.05
245.911	-0.09
246.127	0.03
246.344	0.15
246.56	0.08
246.777	-0.06
246.993	0.02
247.21	0.04
247.426	0.06
247.643	-0.07
247.859	-0.07
248.076	-0.06
248.292	0.19
248.508	-0.07
248.725	0.02
248.941	0.06
249.157	0.18
249.374	-0.09
249.59	-0.02
249.806	-0.02
250.023	-0.01
250.239	-0.03
250.455	-0.02
250.671	-0.01
250.888	0.05
251.104	0.01
251.32	-0.02
251.536	-0.11
251.752	-0.08
251.969	-0.01
252.185	0.02
252.401	0.09
252.617	-0.07
252.833	-0.03
253.049	-0.01
253.265	0.04
253.481	0.02
253.697	-0.04
253.913	-0.14
254.129	0
254.345	0.01
254.561	-0.07
254.777	0.01
254.993	0.04
255.209	-0.01
255.425	-0.06
255.641	-0.01
255.857	0.07
256.073	0.03
256.288	-0.14
256.504	-0.06
256.72	0
256.936	0.1
257.152	0
257.367	-0.06
257.583	0
257.799	0.06
258.015	-0.02
258.23	-0.07
258.446	0.1
258.662	-0.02
258.877	-0.1
259.093	-0.12
259.309	-0.07
259.524	0
259.74	-0.06
259.955	-0
260.171	-0.05
260.387	-0.03
260.602	-0
260.818	0.03
261.033	-0.08
261.249	0.01
261.464	0.04
261.68	-0.11
261.895	0.01
262.11	-0.01
262.326	-0.06
262.541	-0.13
262.757	0.06
262.972	0.01
263.187	-0.01
263.403	0.02
263.618	-0.02
263.833	0.05
264.049	-0.05
264.264	-0.03
264.479	-0.07
264.694	0.14
264.91	-0.03
265.125	-0.03
265.34	0.02
265.555	0.09
265.77	0.01
265.986	-0.03
266.201	0.02
266.416	0.11
266.631	-0.07
266.846	0.04
267.061	-0.02
267.276	0.08
267.491	-0.16
267.706	0.04
267.921	0.02
268.136	0.05
268.351	0
268.566	-0.07
268.781	0.1
268.996	0.09
269.211	0.02
269.426	-0.1
269.641	-0.06
269.856	0.04
270.071	-0.08
270.285	-0.11
270.5	0.08
270.715	0.14
270.93	-0
271.145	0.03
271.359	0.05
271.574	-0.01
271.789	-0
272.004	-0.01
272.218	0.01
272.433	0.07
272.648	-0.04
272.862	0.07
273.077	-0
273.292	0.01
273.506	-0.09
273.721	-0.01
273.936	0.07
274.15	0.07
274.365	-0.02
274.579	0.06
274.794	0.05
275.008	0.01
275.223	-0.1
275.437	-0.01
275.652	-0.04
275.866	0.03
276.081	-0.03
276.295	0.11
276.509	-0.01
276.724	-0.01
276.938	-0.05
277.153	-0.01
277.367	0.02
277.581	-0.09
277.796	-0.03
278.01	-0.04
278.224	0.07
278.438	0.14
278.653	-0.06
278.867	-0.06
279.081	0.07
279.295	0.01
279.51	0.02
279.724	-0.09
279.938	0.02
280.152	0.04
280.366	-0.09
280.58	0
280.794	0.03
281.008	0.04
281.222	0.07
281.437	0.08
281.651	0.03
281.865	0.04
282.079	0.03
282.293	-0.13
282.507	-0.04
282.721	-0.03
282.935	0.01
283.148	-0.1
283.362	-0.03
283.576	-0.07
283.79	0.05
284.004	-0.01
284.218	0.01
284.432	-0.02
284.646	0.05
284.859	-0.01
285.073	-0.02
285.287	0.01
285.501	-0.01
285.714	0.01
285.928	-0.02
286.142	0
286.356	-0.02
286.569	-0.06
286.783	0.09
286.997	0.02
287.21	0
287.424	0.04
287.637	0.02
287.851	-0.03
288.065	0.01
288.278	-0.03
288.492	0.02
288.705	0.01
288.919	0.04
289.132	-0.06
289.346	0.04
289.559	-0.06
289.773	-0.05
289.986	-0.01
290.2	0.03
290.413	0.03
290.626	-0.08
290.84	-0.01
291.053	-0.02
291.267	0.06
291.48	-0.01
291.693	-0.06
291.906	-0.03
292.12	-0.02
292.333	-0.03
292.546	-0.01
292.76	0.05
292.973	0.01
293.186	0.05
293.399	-0.05
293.612	0.04
293.826	-0
294.039	-0
294.252	0.01
294.465	0.02
294.678	-0.03
294.891	0.04
295.104	-0.03
295.317	0
295.53	0.02
295.743	0.01
295.956	-0.02
296.169	0.06
296.382	0.05
296.595	0.05
296.808	-0.03
297.021	0.06
297.234	0.04
297.447	0.01
297.66	0.07
297.873	0.05
298.086	-0.01
298.299	-0.04
298.511	-0.06
298.724	-0.05
298.937	-0.02
299.15	-0.01
299.363	-0
299.575	0
299.788	0.05
300.001	0.02
300.213	-0.04
300.426	-0
300.639	-0.03
300.852	-0.06
301.064	0.02
301.277	0.04
301.489	0.04
301.702	0.01
301.915	-0
302.127	-0
302.34	0.02
302.552	0.01
302.765	-0.02
302.977	0.07
303.19	-0.03
303.402	-0.02
303.615	-0.01
303.827	-0.02
304.04	-0.06
304.252	0.02
304.464	-0.05
304.677	0.1
304.889	0.05
305.102	-0.01
305.314	-0.03
305.526	0.03
305.739	0.03
305.951	-0.05
306.163	0
306.375	0.06
306.588	-0.04
306.8	0.01
307.012	-0.02
307.224	0
307.436	0.01
307.649	-0.06
307.861	0.05
308.073	0.04
308.285	-0.04
308.497	-0.02
308.709	-0.02
308.921	0.02
309.133	0.02
309.346	-0
309.558	0.01
309.77	0.03
309.982	0.05
310.194	0.05
310.406	-0.08
310.617	0.07
310.829	0.06
311.041	0.01
311.253	-0
311.465	-0.02
311.677	-0
311.889	0
312.101	-0.05
312.313	0.08
312.524	0.05
312.736	-0.07
312.948	0
313.16	0.08
313.372	0.02
313.583	0.05
313.795	0.02
314.007	-0.02
314.218	0.02
314.43	-0.01
314.642	-0.05
314.853	-0.06
315.065	0.03
315.277	-0.02
315.488	-0.02
315.7	0.02
315.912	0.02
316.123	-0
316.335	0
316.546	0.11
316.758	0.01
316.969	-0.03
317.181	0.04
317.392	0
317.604	0.06
317.815	-0.03
318.026	-0.01
318.238	-0.01
318.449	0.03
318.661	-0.08
318.872	-0.06
319.083	-0.05
319.295	0.05
319.506	-0.01
319.717	-0.02
319.929	0.04
320.14	-0
320.351	-0.01
320.562	-0.03
320.774	0.01
320.985	-0.01
321.196	-0.06
321.407	-0.06
321.618	0.05
321.829	0.02
322.041	0.02
322.252	0.05
322.463	0.01
322.674	0
322.885	-0.03
323.096	-0.04
323.307	-0.01
323.518	0.04
323.729	-0.04
323.94	-0.03
324.151	-0.04
324.362	-0
324.573	-0.01
324.784	-0.02
324.995	0.08
325.206	0.02
325.417	-0
325.628	-0.04
325.838	-0.03
326.049	0.04
326.26	0.02
326.471	0.03
326.682	0.03
326.892	-0.01
327.103	-0.07
327.314	-0.06
327.525	0.07
327.735	0.03
327.946	0.02
328.157	-0.01
328.368	0.01
328.578	-0.08
328.789	0.05
328.999	-0
329.21	-0.02
329.421	0.01
329.631	-0.04
329.842	-0.04
330.052	0.01
330.263	0.04
330.473	0.02
330.684	-0
330.894	-0
331.105	-0.02
331.315	-0.02
331.526	-0.06
331.736	0.04
331.947	0.02
332.157	0.03
332.367	-0.02
332.578	0.04
332.788	0.07
332.999	0.05
333.209	-0.03
333.419	-0.04
333.629	0.02
333.84	0.01
334.05	-0.01
334.26	0.07
334.47	-0.02
334.681	0.05
334.891	-0.03
335.101	0.07
335.311	0.06
335.521	0.04
335.732	-0.06
335.942	0.07
336.152	0.02
336.362	0
336.572	-0.03
336.782	0.04
336.992	-0
337.202	-0.04
337.412	-0.04
337.622	0
337.832	0.06
338.042	0
338.252	-0.06
338.462	-0.01
338.672	0
338.882	-0.01
339.092	0.03
339.302	0.05
339.511	0.03
339.721	-0.07
339.931	-0.06
340.141	0.05
340.351	0.08
340.561	-0
340.77	0.02
340.98	-0
341.19	0.03
341.4	-0
341.609	-0.07
341.819	-0.05
342.029	-0.01
342.238	-0
342.448	-0.06
342.658	0.02
342.867	0.04
343.077	0.03
343.286	0.01
343.496	0.06
343.706	0.05
343.915	-0.09
344.125	0.02
344.334	0.04
344.544	-0.07
344.753	0
344.963	-0
345.172	-0.03
345.381	-0.04
345.591	-0.04
345.8	0.02
346.01	0.04
346.219	0.06
346.428	-0.13
346.638	-0.01
346.847	0.01
347.056	0.08
347.266	-0.01
347.475	-0.02
347.684	0.04
347.893	0.01
348.103	0.01
348.312	0.01
348.521	0.01
348.73	0.02
348.94	-0
349.149	0
349.358	-0.02
349.567	-0.01
349.776	-0.07
349.985	0
350.194	0.03
350.403	0.03
350.612	-0.07
350.821	-0.02
351.03	0.01
351.239	-0.05
351.448	0.01
351.657	0.01
351.866	0.11
352.075	-0.03
352.284	0.01
352.493	-0.07
352.702	0.06
352.911	0.01
353.12	0.02
353.329	-0.02
353.538	0.03
353.746	0.01
353.955	-0.05
354.164	0.02
354.373	-0.02
354.582	0.04
354.79	-0.02
354.999	-0.01
355.208	-0.06
355.416	0.06
355.625	-0.07
355.834	-0.01
356.042	0.03
356.251	-0.04
356.46	-0.03
356.668	0
356.877	0.05
357.085	0.04
357.294	-0.06
357.503	-0.02
357.711	0.02
357.92	0.12
358.128	0
358.337	-0
358.545	0.03
358.754	-0.03
358.962	0.03
359.17	0.03
359.379	0.02
359.587	0.03
359.796	-0.03
360.004	0.05
360.212	0.01
360.421	0.05
360.629	-0.07
360.837	-0.01
361.046	0.04
361.254	0.08
361.462	0.01
361.67	-0.03
361.879	0.01
362.087	0.07
362.295	-0.01
362.503	-0.02
362.711	-0.03
362.92	-0.01
363.128	-0.02
363.336	-0.03
363.544	-0.03
363.752	-0.01
363.96	0.01
364.168	-0
364.376	0.02
364.584	-0.03
364.792	0.04
365	0.08
365.208	0.01
365.416	0.03
365.624	0.02
365.832	-0.02
366.04	0.05
366.248	-0
366.456	0.02
366.664	0
366.872	-0.01
367.079	-0.01
367.287	0.02
367.495	0.04
367.703	0
367.911	-0
368.118	-0.01
368.326	0.02
368.534	-0.05
368.742	0.07
368.949	-0.05
369.157	-0.02
369.365	0.06
369.572	-0.04
369.78	-0.01
369.988	0.04
370.195	0.06
370.403	0.05
370.61	-0.02
370.818	0.01
371.026	0.03
371.233	-0.05
371.441	-0.04
371.648	-0.04
371.856	0.02
372.063	0.05
372.271	-0.01
372.478	-0.03
372.685	-0.01
372.893	0.03
373.1	-0.04
373.308	-0.01
373.515	0.05
373.722	-0.01
373.93	0.01
374.137	0.05
374.344	0.05
374.552	0.04
374.759	0.03
374.966	0.03
375.173	-0.03
375.381	0.03
375.588	-0
375.795	-0.06
376.002	-0.04
376.209	-0.06
376.417	0.04
376.624	0.02
376.831	0.03
377.038	-0
377.245	-0.08
377.452	-0.05
377.659	0.03
377.866	-0.03
378.073	-0.01
378.28	-0.03
378.487	0.06
378.694	0.01
378.901	0.01
379.108	0.01
379.315	-0.01
379.522	0.07
379.729	0.02
379.936	0
380.143	-0.01
380.35	-0
380.557	-0.01
380.763	0.01
380.97	0.02
381.177	0.02
381.384	0.01
381.591	-0.05
381.797	-0.01
382.004	0.01
382.211	0.05
382.418	-0.05
382.624	0.01
382.831	0.07
383.038	0.02
383.244	0.02
383.451	0
383.658	0.03
383.864	0
384.071	-0.03
384.277	0.07
384.484	-0.03
384.69	0.01
384.897	-0.04
385.103	0.01
385.31	-0.05
385.516	-0.04
385.723	-0.05
385.929	-0.02
386.136	-0
386.342	-0
386.549	0
386.755	0.03
386.961	0.04
387.168	-0.04
387.374	0
387.58	0.01
387.787	0
387.993	-0
388.199	0.01
388.406	-0.02
388.612	0.01
388.818	0.01
389.024	0.01
389.231	-0.02
389.437	0.02
389.643	-0.01
389.849	-0
390.055	-0
390.261	0.04
390.467	0.02
390.674	-0.05
390.88	-0
391.086	0.06
391.292	-0.05
391.498	-0.01
391.704	-0.03
391.91	-0
392.116	-0.03
392.322	-0.11
392.528	0.04
392.734	-0.02
392.94	0.03
393.146	0
393.352	0.02
393.557	-0.01
393.763	-0.02
393.969	0.01
394.175	-0.01
394.381	-0.02
394.587	-0.05
394.792	-0.05
394.998	0.04
395.204	0.07
395.41	-0.02
395.615	0.01
395.821	0.03
396.027	0.02
396.233	-0.09
396.438	-0.01
396.644	0.02
396.85	0.04
397.055	-0.03
397.261	0.01
397.466	0.09
397.672	0.01
397.878	0.02
398.083	0.04
398.289	-0.02
398.494	0.03
398.7	-0.01
398.905	-0.09
399.111	0.07
399.316	-0.03
399.522	0.01
399.727	-0.03
399.932	-0.05
400.138	-0.06
400.343	0.05
400.549	0.05
400.754	0.02
400.959	0.05
401.165	0.01
401.37	0.05
401.575	-0.06
401.78	0
401.986	-0.03
402.191	-0.05
402.396	-0.03
402.601	0.01
402.807	-0.01
403.012	0
403.217	0.08
403.422	-0
403.627	-0.05
403.832	-0.02
404.037	0.04
404.243	-0
404.448	-0.08
404.653	-0
404.858	-0
405.063	0.04
405.268	-0.05
405.473	-0.06
405.678	-0.06
405.883	0.11
406.088	0
406.293	-0.07
406.498	-0.03
406.703	0.05
406.907	0.01
407.112	-0.05
407.317	0.04
407.522	0.08
407.727	-0.03
407.932	-0.02
408.136	0.05
408.341	-0.01
408.546	0.03
408.751	0.01
408.956	-0.02
409.16	0.07
409.365	-0.02
409.57	-0.02
409.774	-0.01
409.979	0.02
410.184	-0.06
410.388	-0.07
410.593	0.05
410.798	0.01
411.002	0.02
411.207	-0.02
411.411	0
411.616	-0.05
411.82	-0.01
412.025	0.03
412.229	-0.03
412.434	0.06
412.638	0.02
412.843	-0.03
413.047	0.03
413.252	-0.03
413.456	0.01
413.66	0.03
413.865	-0.06
414.069	0.05
414.273	-0.04
414.478	0
414.682	0.02
414.886	-0.06
415.091	-0.05
415.295	-0.07
415.499	0.02
415.703	-0.03
415.908	0.02
416.112	-0.08
416.316	0.06
416.52	-0
416.724	-0.03
416.929	-0.03
417.133	0.13
417.337	0.02
417.541	-0.04
417.745	0.02
417.949	0.01
418.153	0.02
418.357	-0.07
418.561	0.1
418.765	0.03
418.969	0.08
419.173	0.07
419.377	0.05
419.581	0.08
419.785	-0.03
419.989	-0.02
420.193	0.03
420.397	0.03
420.601	0.05
420.804	0.05
421.008	0.03
421.212	0.05
421.416	0.06
421.62	-0.04
421.823	-0.02
422.027	0.1
422.231	0.05
422.435	0.03
422.638	0.08
422.842	0
423.046	0.01
423.249	0.09
423.453	0.1
423.657	0.08
423.86	-0
424.064	0.06
424.268	0.08
424.471	0.06
424.675	0.12
424.878	0.13
425.082	0.02
425.285	0.09
425.489	0.05
425.692	0.07
425.896	0.02
426.099	0.08
426.303	0.01
426.506	0.01
426.71	0.05
426.913	0.14
427.116	0.17
427.32	0.05
427.523	0.06
427.726	0.17
427.93	0.03
428.133	0.08
428.336	0.01
428.54	0.01
428.743	0.11
428.946	0.08
429.149	0.05
429.353	0.08
429.556	0.06
429.759	0.06
429.962	0.03
430.165	0.1
430.368	0.03
430.571	0.03
430.775	0.05
430.978	0.04
431.181	0.07
431.384	0.1
431.587	0.06
431.79	0.09
431.993	0.14
432.196	0.08
432.399	0.03
432.602	0.16
432.805	0.09
433.008	0.06
433.211	0.03
433.414	0.1
433.616	0.14
433.819	0.09
434.022	-0.02
434.225	0.16
434.428	0.14
434.631	0.2
434.833	0.06
435.036	0.1
435.239	0.14
435.442	0.12
435.645	0.1
435.847	0.1
436.05	0.15
436.253	0.13
436.455	0.1
436.658	0.14
436.861	0.18
437.063	0.11
437.266	0.1
437.468	0.13
437.671	0.26
437.874	0.1
438.076	0.08
438.279	0.09
438.481	0.14
438.684	0.09
438.886	0.14
439.089	0.05
439.291	0.11
439.494	0.2
439.696	0.1
439.899	0.17
440.101	0.18
440.303	0.1
440.506	0.23
440.708	0.14
440.91	0.16
441.113	0.08
441.315	0.19
441.517	0.1
441.72	0.24
441.922	0.16
442.124	0.13
442.326	0.22
442.529	0.24
442.731	0.18
442.933	0.27
443.135	0.18
443.337	0.13
443.539	0.24
443.742	0.15
443.944	0.24
444.146	0.13
444.348	0.19
444.55	0.17
444.752	0.19
444.954	0.14
445.156	0.23
445.358	0.19
445.56	0.27
445.762	0.21
445.964	0.19
446.166	0.21
446.368	0.17
446.57	0.28
446.772	0.25
446.974	0.21
447.175	0.24
447.377	0.17
447.579	0.17
447.781	0.13
447.983	0.25
448.184	0.2
448.386	0.25
448.588	0.11
448.79	0.21
448.991	0.15
449.193	0.24
449.395	0.2
449.597	0.28
449.798	0.22
450	0.21
450.202	0.17
450.403	0.19
450.605	0.23
450.806	0.2
451.008	0.11
451.21	0.17
451.411	0.16
451.613	0.16
451.814	0.17
452.016	0.18
452.217	0.16
452.419	0.2
452.62	0.15
452.821	0.17
453.023	0.18
453.224	0.17
453.426	0.16
453.627	0.15
453.828	0.19
454.03	0.11
454.231	0.1
454.432	0.1
454.634	0.22
454.835	0.06
455.036	0.02
455.238	0.16
455.439	0.14
455.64	0.09
455.841	0.08
456.042	0.25
456.244	0.13
456.445	0.07
456.646	0.04
456.847	0.09
457.048	0.11
457.249	0.16
457.45	0.24
457.651	0.05
457.852	0.14
458.054	0.13
458.255	0.07
458.456	0.12
458.657	0.05
458.858	0.02
459.058	0.08
459.259	0.1
459.46	0
459.661	0.03
459.862	0.18
460.063	0.03
460.264	0.11
460.465	-0.03
460.666	0.17
460.866	0.08
461.067	0.07
461.268	0.07
461.469	0.08
461.67	0.04
461.87	0.06
462.071	0.02
462.272	0.04
462.473	0.09
462.673	0.08
462.874	-0.04
463.075	0.11
463.275	0.02
463.476	0.07
463.676	0.03
463.877	0.03
464.078	0.04
464.278	0.13
464.479	0.08
464.679	0.02
464.88	0
465.08	0.13
465.281	0
465.481	0
465.682	0.03
465.882	0.04
466.083	0.08
466.283	0.08
466.483	0.02
466.684	0
466.884	0.05
467.085	0.09
467.285	0.05
467.485	-0.03
467.686	0.02
467.886	0
468.086	0.01
468.286	0.03
468.487	0.06
468.687	-0.03
468.887	0.03
469.087	0.05
469.287	0.04
469.488	-0.02
469.688	0.04
469.888	0.06
470.088	0.05
470.288	0.08
470.488	0.06
470.688	-0
470.888	0.01
471.088	-0.02
471.288	0.05
471.488	0.05
471.688	0.06
471.888	0
472.088	0.08
472.288	0.06
472.488	0.01
472.688	0.02
472.888	0.05
473.088	-0
473.288	0.04
473.488	0.04
473.688	0.11
473.887	0.01
474.087	0.01
474.287	0.03
474.487	0
474.687	0.02
474.886	0.03
475.086	0.01
475.286	0.02
475.486	-0
475.685	0.01
475.885	0.01
476.085	0.03
476.284	0.07
476.484	-0.01
476.684	0.03
476.883	0.05
477.083	0.06
477.282	-0.01
477.482	0.05
477.681	0.07
477.881	0.03
478.08	-0.03
478.28	-0.01
478.479	0.06
478.679	0.08
478.878	0
479.078	-0
479.277	0
479.477	0.01
479.676	0.04
479.875	0.03
480.075	-0.03
480.274	0.04
480.473	0.03
480.673	-0.03
480.872	0.05
481.071	0.04
481.271	0.02
481.47	0
481.669	-0.01
481.868	0.04
482.067	0.01
482.267	0.01
482.466	-0.02
482.665	-0.02
482.864	-0
483.063	-0.01
483.262	0.04
483.461	0.05
483.661	0.03
483.86	0.02
484.059	0.02
484.258	0.02
484.457	-0
484.656	0.01
484.855	0.06
485.054	-0.03
485.253	0.01
485.452	-0
485.651	0.01
485.849	0.01
486.048	0
486.247	-0.02
486.446	0.05
486.645	-0.01
486.844	-0.01
487.043	-0
487.241	0.04
487.44	-0.01
487.639	0.01
487.838	0.05
488.037	0.02
488.235	0.05
488.434	0.04
488.633	-0.01
488.831	0.04
489.03	0.07
489.229	0.04
489.427	0.04
489.626	0.05
489.825	0.07
490.023	0.03
490.222	0
490.42	0.02
490.619	0.05
490.817	0.02
491.016	0.02
491.214	0.04
491.413	0.02
491.611	-0.01
491.81	0.02
492.008	0.04
492.207	0.04
492.405	0.02
492.604	-0
492.802	-0.02
493	0.03
493.199	0.01
493.397	0.02
493.595	0.03
493.794	0.04
493.992	0.07
494.19	0.03
494.388	0.05
494.587	0.01
494.785	0.03
494.983	-0
495.181	0.04
495.379	0.03
495.578	0.04
495.776	0.06
495.974	0.05
496.172	0.02
496.37	0.02
496.568	0.01
496.766	0
496.964	0.06
497.162	0.05
497.36	0
497.558	0.03
497.756	0.06
497.954	0.03
498.152	0.03
498.35	0.04
498.548	0.04
498.746	0.03
498.944	0.03
499.142	0.02
499.34	0.02
499.538	0.05
499.736	0.03
499.933	0.08
500.131	0.06
500.329	0.07
500.527	0.04
500.725	0.07
500.922	0.06
501.12	0.07
501.318	0.05
501.516	0.01
501.713	0.05
501.911	0.04
502.109	0.04
502.306	0.06
502.504	0.05
502.701	0.01
502.899	0.06
503.097	0.1
503.294	0.05
503.492	0.05
503.689	0.07
503.887	0.05
504.084	0.09
504.282	0.06
504.479	0
504.677	0.09
504.874	0.04
505.072	0.03
505.269	0.05
505.466	0.07
505.664	0.06
505.861	0.04
506.059	0.03
506.256	0.07
506.453	0.04
506.651	0.1
506.848	0.1
507.045	0.05
507.242	0.06
507.44	0.05
507.637	0.07
507.834	0.05
508.031	0.1
508.229	0.04
508.426	0.07
508.623	0.07
508.82	0.05
509.017	0.04
509.214	0.05
509.411	0.05
509.608	0.04
509.805	0.07
510.003	0.05
510.2	0.05
510.397	0.08
510.594	0.07
510.791	0.05
510.988	0.07
511.184	0.08
511.381	0.08
511.578	0.05
511.775	0.09
511.972	0.07
512.169	0.07
512.366	0.07
512.563	0.08
512.76	0.07
512.956	0.07
513.153	0.07
513.35	0.09
513.547	0.05
513.744	0.03
513.94	0.04
514.137	0.08
514.334	0.07
514.53	0.09
514.727	0.07
514.924	0.13
515.12	0.05
515.317	0.07
515.514	0.06
515.71	0.04
515.907	0.08
516.103	0.09
516.3	0.09
516.497	0.1
516.693	0.1
516.89	0.09
517.086	0.06
517.283	0.08
517.479	0.09
517.676	0.06
517.872	0.07
518.068	0.06
518.265	0.07
518.461	0.08
518.658	0.04
518.854	0.1
519.05	0.08
519.247	0.04
519.443	0.1
519.639	0.11
519.836	0.09
520.032	0.07
520.228	0.06
520.424	0.13
520.621	0.1
520.817	0.09
521.013	0.11
521.209	0.08
521.405	0.14
521.601	0.1
521.798	0.08
521.994	0.12
522.19	0.06
522.386	0.05
522.582	0.08
522.778	0.08
522.974	0.09
523.17	0.09
523.366	0.06
523.562	0.14
523.758	0.07
523.954	0.07
524.15	0.08
524.346	0.13
524.542	0.07
524.738	0.08
524.934	0.09
525.129	0.11
525.325	0.08
525.521	0.08
525.717	0.11
525.913	0.1
526.109	0.08
526.304	0.1
526.5	0.08
526.696	0.11
526.892	0.1
527.087	0.09
527.283	0.07
527.479	0.11
527.674	0.07
527.87	0.06
528.066	0.09
528.261	0.11
528.457	0.1
528.653	0.06
528.848	0.09
529.044	0.11
529.239	0.1
529.435	0.12
529.63	0.09
529.826	0.12
530.021	0.11
530.217	0.11
530.412	0.08
530.608	0.06
530.803	0.09
530.999	0.07
531.194	0.07
531.389	0.09
531.585	0.04
531.78	0.1
531.975	0.1
532.171	0.11
532.366	0.09
532.561	0.1
532.757	0.06
532.952	0.08
533.147	0.1
533.342	0.09
533.538	0.06
533.733	0.13
533.928	0.09
534.123	0.1
534.318	0.06
534.513	0.08
534.709	0.09
534.904	0.08
535.099	0.07
535.294	0.1
535.489	0.11
535.684	0.08
535.879	0.07
536.074	0.1
536.269	0.06
536.464	0.11
536.659	0.08
536.854	0.09
537.049	0.11
537.244	0.08
537.439	0.07
537.634	0.11
537.828	0.1
538.023	0.11
538.218	0.06
538.413	0.08
538.608	0.07
538.803	0.11
538.997	0.07
539.192	0.11
539.387	0.09
539.582	0.1
539.776	0.09
539.971	0.07
540.166	0.09
540.36	0.08
540.555	0.1
540.75	0.08
540.944	0.1
541.139	0.08
541.334	0.1
541.528	0.1
541.723	0.1
541.917	0.1
542.112	0.07
542.306	0.08
542.501	0.08
542.695	0.1
542.89	0.08
543.084	0.12
543.279	0.1
543.473	0.09
543.668	0.09
543.862	0.09
544.056	0.09
544.251	0.11
544.445	0.12
544.64	0.1
544.834	0.06
545.028	0.09
545.222	0.11
545.417	0.1
545.611	0.1
545.805	0.1
546	0.09
546.194	0.07
546.388	0.1
546.582	0.11
546.776	0.1
546.97	0.11
547.165	0.1
547.359	0.13
547.553	0.08
547.747	0.1
547.941	0.13
548.135	0.09
548.329	0.09
548.523	0.09
548.717	0.09
548.911	0.11
549.105	0.09
549.299	0.09
549.493	0.1
549.687	0.11
549.881	0.13
550.075	0.1
550.269	0.05
550.463	0.1
550.657	0.07
550.85	0.09
551.044	0.06
551.238	0.1
551.432	0.09
551.626	0.09
551.82	0.1
552.013	0.07
552.207	0.09
552.401	0.14
552.594	0.09
552.788	0.1
552.982	0.1
553.176	0.09
553.369	0.1
553.563	0.11
553.756	0.05
553.95	0.06
554.144	0.09
554.337	0.11
554.531	0.12
554.724	0.09
554.918	0.09
555.111	0.11
555.305	0.1
555.498	0.16
555.692	0.12
555.885	0.09
556.079	0.11
556.272	0.08
556.466	0.12
556.659	0.1
556.852	0.09
557.046	0.08
557.239	0.12
557.432	0.08
557.626	0.07
557.819	0.12
558.012	0.11
558.206	0.12
558.399	0.11
558.592	0.12
558.785	0.08
558.979	0.11
559.172	0.11
559.365	0.12
559.558	0.1
559.751	0.09
559.944	0.13
560.138	0.07
560.331	0.07
560.524	0.08
560.717	0.09
560.91	0.1
561.103	0.1
561.296	0.11
561.489	0.12
561.682	0.12
561.875	0.11
562.068	0.11
562.261	0.09
562.454	0.11
562.647	0.11
562.84	0.08
563.032	0.11
563.225	0.12
563.418	0.1
563.611	0.09
563.804	0.1
563.997	0.06
564.19	0.05
564.382	0.03
564.575	0.08
564.768	0.1
564.961	0.06
565.153	0.09
565.346	0.09
565.539	0.11
565.731	0.11
565.924	0.12
566.117	0.11
566.309	0.11
566.502	0.08
566.695	0.09
566.887	0.12
567.08	0.07
567.272	0.11
567.465	0.08
567.657	0.09
567.85	0.12
568.042	0.1
568.235	0.13
568.427	0.09
568.62	0.1
568.812	0.12
569.005	0.09
569.197	0.06
569.389	0.09
569.582	0.1
569.774	0.11
569.966	0.07
570.159	0.06
570.351	0.13
570.543	0.08
570.736	0.1
570.928	0.07
571.12	0.12
571.312	0.07
571.505	0.04
571.697	0.13
571.889	0.07
572.081	0.1
572.273	0.06
572.465	0.14
572.658	0.1
572.85	0.09
573.042	0.08
573.234	0.08
573.426	0.15
573.618	0.06
573.81	0.12
574.002	0.15
574.194	0.12
574.386	0.05
574.578	0.02
574.77	0.06
574.962	0.1
575.154	0.06
575.346	0.1
575.538	0.1
575.729	0.06
575.921	0.09
576.113	0.09
576.305	0.11
576.497	0.11
576.689	0.08
576.88	0.08
577.072	0.11
577.264	0.09
577.456	0.07
577.647	0.03
577.839	0.11
578.031	0.09
578.223	0.07
578.414	0.07
578.606	0.11
578.798	0.09
578.989	0.07
579.181	0.12
579.372	0.11
579.564	0.06
579.755	0.11
579.947	0.08
580.139	0.11
580.33	0.04
580.522	0.1
580.713	0.03
580.905	0.09
581.096	0.09
581.287	0.1
581.479	0.07
581.67	0.1
581.862	0.09
582.053	0.07
582.244	0.02
582.436	0.09
582.627	0.1
582.818	0.06
583.01	0.05
583.201	0.1
583.392	0.11
583.583	0.09
583.775	0.08
583.966	0.07
584.157	0.08
584.348	0.09
584.54	0.05
584.731	0.1
584.922	0.09
585.113	0.08
585.304	0.11
585.495	0.11
585.686	0.1
585.877	0.09
586.068	0.11
586.259	0.09
586.45	0.08
586.641	0.07
586.832	0.03
587.023	0.09
587.214	0.07
587.405	0.08
587.596	0.05
587.787	0.14
587.978	0.08
588.169	0.08
588.36	0.08
588.551	0.09
588.742	0.07
588.932	0.11
589.123	0.08
589.314	0.13
589.505	0.1
589.696	0.08
589.886	0.07
590.077	0.05
590.268	0.08
590.458	0.06
590.649	0.04
590.84	0.12
591.03	0.05
591.221	0.04
591.412	0.03
591.602	0.1
591.793	0.11
591.984	0.05
592.174	0.06
592.365	0.18
592.555	0.05
592.746	0.12
592.936	0.11
593.127	0.12
593.317	0.11
593.508	0.06
593.698	0.09
593.889	0.09
594.079	0.07
594.269	0.04
594.46	0.04
594.65	0.09
594.84	0.08
595.031	0.05
595.221	0.08
595.411	0.05
595.602	0.12
595.792	0.08
595.982	0.06
596.172	0.1
596.363	0.12
596.553	0.13
596.743	0.08
596.933	0.08
597.123	0.11
597.314	0.04
597.504	0.05
597.694	0.11
597.884	0.06
598.074	0.06
598.264	0.07
598.454	0.09
598.644	0.07
598.834	0.05
599.024	0.02
599.214	0.07
599.404	0.08
599.594	0.07
599.784	0.05
599.974	0.12
600.164	0.1
600.354	0.04
600.544	0.03
600.734	0.1
600.924	0.11
601.114	0.03
601.303	0.08
601.493	0.09
601.683	0.09
601.873	0.06
602.063	0.04
602.252	0.1
602.442	0.01
602.632	0.06
602.821	0.06
603.011	0.09
603.201	0.08
603.39	0.03
603.58	0.05
603.77	0.08
603.959	0.08
604.149	0.06
604.339	0.06
604.528	0.09
604.718	0.08
604.907	0.06
605.097	0.05
605.286	0.02
605.476	0.11
605.665	0.09
605.855	0.09
606.044	0.1
606.234	0.07
606.423	0.03
606.612	0.04
606.802	0.08
606.991	0.08
607.181	0.06
607.37	0.02
607.559	0.07
607.749	0.02
607.938	0.08
608.127	0.06
608.316	0.05
608.506	0.06
608.695	0.05
608.884	0.03
609.073	0.06
609.263	0.08
609.452	0.1
609.641	0.07
609.83	0.02
610.019	0.08
610.208	0.04
610.397	0.08
610.586	0.1
610.775	0.04
610.965	0.07
611.154	0.02
611.343	0.02
611.532	0.07
611.721	0.04
611.91	0.04
612.099	0.07
612.287	0.05
612.476	0.04
612.665	0.07
612.854	0.02
613.043	0.11
613.232	0.04
613.421	0.02
613.61	0.08
613.798	0.04
613.987	0.07
614.176	0.05
614.365	0.07
614.554	0.06
614.742	0.06
614.931	0.01
615.12	0.1
615.309	0.04
615.497	0.08
615.686	0.03
615.875	0.04
616.063	0.06
616.252	0.05
616.44	0.07
616.629	0.05
616.818	0.1
617.006	0.06
617.195	0.06
617.383	0.06
617.572	0.07
617.76	0.04
617.949	0.05
618.137	0.08
618.326	0.07
618.514	0.05
618.703	0.02
618.891	0.12
619.079	-0.03
619.268	0.1
619.456	0.02
619.644	0.1
619.833	0.06
620.021	0.01
620.209	-0.01
620.398	0.05
620.586	0.02
620.774	0.08
620.962	0.07
621.151	0.12
621.339	0.04
621.527	0.03
621.715	0.03
621.903	0.03
622.092	0.01
622.28	0.04
622.468	0.06
622.656	0.01
622.844	0.02
623.032	0.04
623.22	-0.02
623.408	0.06
623.596	0.08
623.784	0.09
623.972	0
624.16	0.03
624.348	0.07
624.536	0.03
624.724	0.03
624.912	0.1
625.1	0.09
625.288	0.01
625.476	0.04
625.664	0.07
625.851	-0.01
626.039	0.05
626.227	0.03
626.415	0.05
626.603	-0
626.79	0.04
626.978	0.03
627.166	0.05
627.354	0.04
627.541	0.01
627.729	-0.02
627.917	0.06
628.104	0.09
628.292	0.06
628.48	0.05
628.667	0.06
628.855	0.02
629.042	0.07
629.23	0.02
629.418	0.05
629.605	0.05
629.793	0.03
629.98	0.01
630.168	0.01
630.355	0
630.543	0.06
630.73	-0
630.917	0.05
631.105	0.1
631.292	0.01
631.48	0.03
631.667	0.08
631.854	0.04
632.042	0.03
632.229	-0.01
632.416	0.06
632.604	0.02
632.791	0.01
632.978	0.06
633.165	0.06
633.353	0.07
633.54	0.08
633.727	-0
633.914	-0
634.101	0.08
634.289	0.08
634.476	0
634.663	-0
634.85	0
635.037	-0.01
635.224	-0.04
635.411	0.04
635.598	0.1
635.785	0.03
635.972	0.02
636.159	0.06
636.346	-0.03
636.533	0.03
636.72	0.03
636.907	0.02
637.094	0.05
637.281	0.02
637.468	0.05
637.655	0.04
637.842	0.02
638.029	0.01
638.215	0.07
638.402	0.04
638.589	0.02
638.776	0.01
638.963	0.02
639.149	0.06
639.336	0.1
639.523	0.02
639.709	0.02
639.896	0
640.083	0.08
640.27	0.08
640.456	0.01
640.643	0.04
640.829	-0.01
641.016	0.02
641.203	-0.02
641.389	0.09
641.576	0.05
641.762	0.04
641.949	-0.05
642.135	0.02
642.322	0.04
642.508	-0.03
642.695	0.02
642.881	0.02
643.068	0.04
643.254	0
643.441	0.07
643.627	0
643.813	0.01
644	0.07
644.186	0.02
644.372	-0.02
644.559	0.06
644.745	0.01
644.931	-0.02
645.118	0.03
645.304	0.04
645.49	-0.02
645.676	0.01
645.862	0.04
646.049	0.09
646.235	0.05
646.421	0.08
646.607	0.1
646.793	0.03
646.979	0.01
647.165	0.03
647.352	0.03
647.538	0.04
647.724	0.04
647.91	0.04
648.096	0.04
648.282	0.05
648.468	0.02
648.654	0.03
648.84	0.06
649.026	0.02
649.212	0.02
649.397	-0.01
649.583	-0.05
649.769	0.05
649.955	0
650.141	0.04
650.327	0.06
650.513	0
650.698	0.03
650.884	-0.01
651.07	0.06
651.256	0.03
651.442	0.01
651.627	0
651.813	0.04
651.999	0.03
652.184	0.06
652.37	-0.01
652.556	0.01
652.741	0.06
652.927	-0
653.113	0.01
653.298	0.03
653.484	0.01
653.669	-0.02
653.855	0.02
654.04	0.03
654.226	0.04
654.412	-0
654.597	-0
654.782	0.02
654.968	0.06
655.153	0.02
655.339	-0.01
655.524	-0.03
655.71	0.09
655.895	0.01
656.08	0
656.266	0.09
656.451	0.03
656.636	-0.04
656.822	0.01
657.007	0.02
657.192	0.02
657.378	-0.04
657.563	0.02
657.748	0.02
657.933	0.04
658.118	-0.06
658.304	-0
658.489	0.07
658.674	0.05
658.859	-0.02
659.044	0.03
659.229	0.05
659.414	-0.02
659.599	0.04
659.785	-0.01
659.97	-0.02
660.155	0
660.34	0.01
660.525	-0.02
660.71	-0.04
660.895	0.06
661.08	-0
661.264	-0.01
661.449	0.05
661.634	0.07
661.819	0.01
662.004	0.03
662.189	-0.05
662.374	-0.02
662.559	-0.04
662.743	0.01
662.928	-0.01
663.113	0.01
663.298	-0.03
663.483	-0
663.667	0.01
663.852	-0.02
664.037	0.06
664.221	-0.01
664.406	0.07
664.591	0.02
664.775	0.04
664.96	-0.01
665.145	0.01
665.329	0.02
665.514	0.02
665.698	-0
665.883	-0.06
666.068	0.06
666.252	-0.01
666.437	-0.03
666.621	-0.01
666.806	0.03
666.99	0.01
667.174	-0.04
667.359	0.07
667.543	-0
667.728	0
667.912	-0.04
668.096	0.02
668.281	0.01
668.465	-0.02
668.649	0.01
668.834	-0.01
669.018	0
669.202	-0
669.387	-0.04
669.571	0.07
669.755	-0.01
669.939	0.03
670.124	-0
670.308	0.08
670.492	0.07
670.676	-0.01
670.86	-0.02
671.044	-0.01
671.228	0.02
671.413	-0.04
671.597	-0.04
671.781	-0.03
671.965	0.03
672.149	-0.03
672.333	-0.01
672.517	-0.03
672.701	0.06
672.885	-0.03
673.069	-0.01
673.253	0.06
673.437	-0.04
673.621	-0.04
673.804	0
673.988	-0
674.172	-0.02
674.356	-0.05
674.54	0.01
674.724	0.1
674.908	0.01
675.091	0.04
675.275	0.03
675.459	0.05
675.643	-0.02
675.826	0.01
676.01	0.02
676.194	-0.02
676.377	0.06
676.561	0.01
676.745	0.03
676.928	0.06
677.112	0.06
677.296	-0.03
677.479	-0.01
677.663	0.01
677.846	0.02
678.03	0.01
678.213	-0
678.397	0
678.58	-0.02
678.764	-0
678.947	0
679.131	-0.09
679.314	0.05
679.498	-0.01
679.681	-0
679.865	0.04
680.048	0.06
680.231	-0.02
680.415	-0.01
680.598	-0.03
680.781	0
680.965	-0.03
681.148	0.04
681.331	-0.02
681.514	-0
681.698	0.01
681.881	0.01
682.064	0.02
682.247	0.02
682.43	-0.08
682.614	0.06
682.797	0.03
682.98	0.03
683.163	-0.01
683.346	0.01
683.529	0.02
683.712	0
683.895	0.04
684.078	-0.03
684.261	-0.02
684.444	0.01
684.627	0.01
684.81	-0.02
684.993	-0.06
685.176	0.02
685.359	-0.04
685.542	-0.03
685.725	0.05
685.908	-0.02
686.091	-0
686.274	0.03
686.457	0.01
686.639	0.02
686.822	0.05
687.005	0
687.188	0.02
687.371	0.06
687.553	-0
687.736	0.02
687.919	0.05
688.102	0.08
688.284	-0.07
688.467	-0.05
688.65	0
688.832	0
689.015	-0.02
689.197	-0.03
689.38	0.09
689.563	0.03
689.745	-0.01
689.928	-0.05
690.11	0.02
690.293	0
690.475	-0.04
690.658	0.04
690.84	-0.01
691.023	-0.02
691.205	-0.01
691.388	-0
691.57	0.03
691.752	0.01
691.935	-0.11
692.117	-0.01
692.3	0.01
692.482	0.04
692.664	0.03
692.847	-0.01
693.029	0.12
693.211	0
693.393	0.02
693.576	-0.03
693.758	0.06
693.94	-0.03
694.122	0.05
694.304	0.01
694.487	-0.02
694.669	0.08
694.851	-0.03
695.033	0.02
695.215	-0.03
695.397	-0.04
695.579	0.04
695.761	-0.02
695.943	-0.08
696.125	0.04
696.308	0.03
696.49	-0.09
696.671	0.14
696.853	-0.01
697.035	0.12
697.217	-0.05
697.399	0.05
697.581	-0.01
697.763	0.05
697.945	-0.01
698.127	0.05
698.309	0.05
698.491	0.01
698.672	0.08
698.854	0.05
699.036	0.07
699.218	-0.03
699.399	0.03
699.581	0.04
699.763	-0.06
699.945	-0.02
700.126	-0.13
700.308	-0
700.49	0.04
700.671	-0.13
700.853	-0.08
701.035	0.01
701.216	0.01
701.398	-0.08
701.579	0.01
701.761	0.06
701.943	-0.06
702.124	-0.05
702.306	-0.04
702.487	0.14
702.669	0.02
702.85	-0.06
703.031	-0.08
703.213	0.03
703.394	0.06
703.576	-0.08
703.757	0.04
703.938	0.06
704.12	0.22
704.301	0.02
704.483	0.02
704.664	0.02
704.845	0.09
705.026	0.04
705.208	-0
705.389	-0.04
705.57	-0.05
705.751	-0.04
705.933	0.08
706.114	0.03
706.295	0.04
706.476	-0.05
706.657	0.11
706.838	-0.02
707.02	0.05
707.201	0
707.382	0.03
707.563	0.07
707.744	-0.02
707.925	-0.04
708.106	-0.06
708.287	0.03
708.468	0.08
708.649	-0.05
708.83	0.03
709.011	-0.1
709.192	0.02
709.373	-0.07
709.554	-0.02
709.734	0.04
709.915	0.08
710.096	-0.04
710.277	-0.11
710.458	0.01
710.639	0.08
710.819	-0.09
711	0.01
711.181	0.09
711.362	0.02
711.542	0.06
711.723	-0.06
711.904	0.09
712.085	0.03
712.265	-0.02
712.446	-0.08
712.627	-0.03
712.807	-0.01
712.988	0.04
713.168	-0.09
713.349	0.07
713.53	-0.1
713.71	-0.05
713.891	-0.05
714.071	-0.02
714.252	-0.02
714.432	-0.03
714.613	-0.15
714.793	0.06
714.974	0.09
715.154	0.05
715.334	0.04
715.515	0.11
715.695	-0.04
715.876	0.03
716.056	-0.01
716.236	0
716.417	-0.01
716.597	-0
716.777	0.12
716.957	0.03
717.138	0.02
717.318	-0.03
717.498	-0.08
717.678	0
717.859	0.03
718.039	-0.1
718.219	0.05
718.399	0.09
718.579	-0.14
718.759	-0.06
718.939	0.02
719.12	-0.01
719.3	0.04
719.48	-0.15
719.66	-0.1
719.84	0.06
720.02	0.04
720.2	-0.1
720.38	0.03
720.56	0.12
720.74	-0.04
720.92	0.01
721.1	0.07
721.279	0.07
721.459	-0.01
721.639	-0.1
721.819	-0.01
721.999	-0.01
722.179	0.07
722.359	-0.1
722.538	-0.04
722.718	-0.02
722.898	-0
723.078	-0.03
723.257	0.01
723.437	0.03
723.617	-0.01
723.797	-0.05
723.976	-0.01
724.156	0.07
724.336	0.06
724.515	0.1
724.695	-0.15
724.874	-0
725.054	0.03
725.234	-0.05
725.413	0.01
725.593	-0.01
725.772	-0.03
725.952	-0.02
726.131	-0.02
726.311	0.01
726.49	-0.01
726.67	-0.07
726.849	-0.1
727.028	0.08
727.208	0.04
727.387	-0.01
727.567	-0.07
727.746	0
727.925	-0.12
728.105	-0.08
728.284	-0.03
728.463	-0.08
728.643	0
728.822	-0.05
729.001	-0
729.18	0.07
729.359	0.05
729.539	-0.08
729.718	0.02
729.897	0.06
730.076	-0.04
730.255	-0.08
730.434	-0.02
730.614	0.01
730.793	0.03
730.972	-0.08
731.151	0.03
731.33	0.06
731.509	0.05
731.688	0.09
731.867	-0.03
732.046	-0.09
732.225	0.09
732.404	-0.13
732.583	-0.12
732.762	-0.13
732.941	0.1
733.12	0.02
733.298	-0.04
733.477	0.08
733.656	-0.01
733.835	-0.08
734.014	0.05
734.193	-0.06
734.371	-0.04
734.55	0.01
734.729	-0.11
734.908	0.04
735.086	0
735.265	0.02
735.444	-0.11
735.623	-0.11
735.801	-0.12
735.98	0.04
736.159	-0.03
736.337	0.06
736.516	0.03
736.694	0
736.873	-0.04
737.052	0.15
737.23	0.09
737.409	-0.07
737.587	0.14
737.766	-0.15
737.944	-0.09
738.123	0
738.301	0.09
738.479	0.01
738.658	0.05
738.836	-0.19
739.015	-0.08
739.193	0.08
739.371	0.05
739.55	0.06
739.728	-0.16
739.906	0.07
740.085	0.22
740.263	-0.03
740.441	-0.13
740.62	0.08
740.798	0.14
740.976	-0.09
741.154	-0.1
741.332	0.13
741.511	-0.04
741.689	-0.01
741.867	0.12
742.045	0.03
742.223	0.02
742.401	-0.1
742.579	-0.07
742.757	0.06
742.935	-0.16
743.114	-0.12
743.292	-0.18
743.47	0.05
743.648	-0.06
743.826	0
744.004	0.1
744.181	0.1
744.359	-0.02
744.537	0.07
744.715	-0.04
744.893	0.01
745.071	0.02
745.249	0.01
745.427	0.06
745.605	0.08
745.782	-0.02
745.96	0.05
746.138	0.1
746.316	0.03
746.493	-0.1
746.671	0
746.849	-0
747.027	0.04
747.204	-0.12
747.382	0.01
747.56	-0.13
747.737	-0.01
747.915	-0.1
748.093	0.04
748.27	-0.17
748.448	-0.06
748.625	-0.04
748.803	-0.11
748.98	-0.12
749.158	-0.01
749.335	0.05
749.513	-0.06
749.69	-0.03
749.868	-0.04
750.045	0.01
750.223	-0.03
750.4	-0.19
750.578	0.2
750.755	0.07
750.932	-0.18
751.11	0.08
751.287	-0.15
751.464	0.09
751.642	-0.1
751.819	-0
751.996	0.06
752.173	-0.13
752.351	-0.16
752.528	0.09
752.705	-0.07
752.882	-0.03
753.06	0.03
753.237	0.08
753.414	0.26
753.591	0.14
753.768	-0.04
753.945	-0.01
754.122	-0.01
754.299	0.06
754.476	-0.12
754.654	-0.02
754.831	0.03
755.008	0.14
755.185	-0.11
755.362	-0.08
755.539	0.09
755.716	-0.09
755.892	-0.03
756.069	-0.04
756.246	0.07
756.423	0.01
756.6	0.13
756.777	-0.07
756.954	0.12
757.131	-0.05
757.307	-0.21
757.484	-0.1
757.661	0.03
757.838	0.05
758.015	-0.16
758.191	-0
758.368	-0.05
758.545	0.08
758.721	0.02
758.898	-0.15
759.075	0.04
759.251	0.16
759.428	-0.07
759.605	-0.09
759.781	-0.11
759.958	0.09
760.134	0.1
760.311	-0.12
760.488	0.14
760.664	0.19
760.841	-0.05
761.017	-0.14
761.194	0.03
761.37	0.07
761.547	0.08
761.723	-0.04
761.899	0.06
762.076	-0.03
762.252	-0.12
762.429	-0.09
762.605	0.13
762.781	-0.07
762.958	0.07
763.134	-0.07
763.31	-0.1
763.486	0.15
763.663	-0.21
763.839	0.04
764.015	-0.18
764.191	-0.1
764.368	-0.07
764.544	-0.06
764.72	-0.04
764.896	0.04
765.072	0.06
765.248	0
765.425	0.03
765.601	-0.09
765.777	0.02
765.953	-0.09
766.129	0.1
766.305	-0.15
766.481	0.07
766.657	0.03
766.833	0.1
767.009	-0.14
767.185	0.01
767.361	0.01
767.537	-0.1
767.713	0.2
767.889	0.04
768.065	0.02
768.24	0.11
768.416	0.09
768.592	-0.04
768.768	0.05
768.944	0.07
769.12	-0.16
769.295	-0.05
769.471	-0.02
769.647	-0.03
769.823	0.21
769.998	-0.1
770.174	-0.03
770.35	0.22
770.525	0.13
770.701	0.11
770.877	-0.08
771.052	-0.11
771.228	0.13
771.403	-0.06
771.579	0.01
771.755	0.22
771.93	-0.05
772.106	-0.09
772.281	-0.26
772.457	-0.03
772.632	-0.01
772.808	-0.14
772.983	-0.13
773.159	-0.07
773.334	0.11
773.509	0.11
773.685	-0.07
773.86	0.2
774.036	0.17
774.211	0.01
774.386	-0.09
774.562	0.09
774.737	0.13
774.912	-0.19
775.087	0.03
775.263	-0.05
775.438	0.06
775.613	-0.05
775.788	0.04
775.964	0.07
776.139	0.2
776.314	-0.19
776.489	0.18
776.664	0.13
776.839	-0.19
777.014	0.2
777.19	0.1
777.365	0.23
777.54	0.28
777.715	-0.12
777.89	-0.1
778.065	-0.12
778.24	0.15
778.415	0.17
778.59	-0.15
778.765	-0.16
778.94	0.01
779.115	-0.03
779.289	-0.04
779.464	0.05
779.639	-0.15
779.814	-0.24
779.989	-0.23
780.164	0.25
780.339	0.1
780.513	-0.23
780.688	-0.03
780.863	0.08
781.038	0.14
781.212	-0.17
781.387	0.1
781.562	0.32
781.737	-0.11
781.911	0.21
782.086	-0.14
782.261	0.19
782.435	0.33
782.61	-0.01
782.784	-0.06
782.959	0.11
783.134	-0.14
783.308	-0.07
783.483	-0.04
783.657	0.29
783.832	0.27
784.006	-0.42
784.181	-0.06
784.355	0.14
784.53	-0.27
784.704	-0.07
784.878	0.26
785.053	0.16
785.227	-0.02
785.402	0.22
785.576	-0.19
785.75	-0.09
785.925	-0.06
786.099	0.13
786.273	-0.2
786.448	0.11
786.622	0.06
786.796	0.08
786.97	-0.17
787.145	0.43
787.319	-0.4
787.493	-0.2
787.667	-0.31
787.841	0.1
788.015	0.09
788.19	-0.3
788.364	0.22
788.538	-0.01
788.712	0.06
788.886	0.04
789.06	0.22
789.234	0.22
789.408	-0.32
789.582	0.02
789.756	-0.01
789.93	-0.1
790.104	-0.01
790.278	-0.18
790.452	0.03
790.626	0.13
790.8	0.1
790.973	-0.05
791.147	0.03
791.321	0.19
791.495	0.09
791.669	-0
791.843	0.15
792.016	0.02
792.19	0.38
792.364	-0.04
792.538	0.49
792.711	0.19
792.885	-0.04
793.059	0
793.233	-0.33
793.406	0.31
793.58	0.05
793.754	-0.08
793.927	0.04
794.101	0.2
794.274	-0.2
794.448	0.37
794.622	-0.24
794.795	0.55
794.969	-0.12
795.142	0.25
795.316	-0.18
795.489	-0.15
795.663	0.4
795.836	-0.08
796.009	-0.31
796.183	0.34
796.356	0.07
796.53	0.15
796.703	-0.11
796.876	0.5
797.05	0.1
797.223	-0.04
797.396	0
797.57	0.06
797.743	0.25
797.916	-0.13
798.09	0.11
798.263	0.2
798.436	0.03
798.609	-0.14
798.782	-0.19
798.956	0.18
799.129	-0.18
799.302	0.08
799.475	-0.26
799.648	-0.16
799.821	-0.46
799.994	-0.12
800.167	-0.21
800.34	0.03
800.514	0.2
800.687	-0
800.86	0.1
801.033	-0.08
801.206	0.04
801.379	-0.31
801.551	0.19
801.724	0.13
801.897	0.12
802.07	0.11
802.243	-0.47
802.416	-0.09
802.589	-0.37
802.762	0.01
802.935	-0.07
803.107	0.27
803.28	0.15
803.453	0.26
803.626	0.1
803.798	0.21
803.971	-0.04
804.144	-0.03
804.317	0.23
804.489	0.31
804.662	0.12
804.835	-0.05
805.007	-0.24
805.18	0.27
805.353	-0.1
805.525	-0.37
805.698	-0.3
805.87	0.22
806.043	0.16
806.215	-0.07
806.388	-0.37
806.56	0.4
806.733	0.48
806.905	-0.31
807.078	-0.06
807.25	-0.39
807.423	0.29
807.595	-0.11
807.768	-0.12
807.94	0.31
808.112	-0.24
808.285	-0.13
808.457	0.1
808.629	0.05
808.802	0.18
808.974	-0.01
809.146	-0.12
809.318	-0.31
809.491	-0.02
809.663	0.14
809.835	-0.06
810.007	0.05
810.18	0.26
810.352	-0.36
810.524	-0.11
810.696	-0.23
810.868	0.54
811.04	-0.05
811.212	-0.06
811.384	0.43
811.556	0.65
811.728	-0.03
811.901	0.48
812.073	-0.33
812.245	0.54
812.417	0.22
812.589	-0.62
812.76	0.1
812.932	0.19
813.104	0.3
813.276	0.17
813.448	0.24
813.62	0.02
813.792	0.04
813.964	-0.09
814.136	0.15
814.307	-0.24
814.479	-0.27
814.651	0.21
814.823	0.79
814.995	0.02
815.166	0.14
815.338	-0.29
815.51	-0.27
815.681	0.74
815.853	-0.01
816.025	0.13
816.196	0.25
816.368	0.37
816.54	-0.28
816.711	-0.45
816.883	0.24
817.054	0.69
817.226	-0.34
817.398	0.24
817.569	-0.06
817.741	-0.27
817.912	-0.04
818.084	-0.16
818.255	-0.12
818.426	-0.5
818.598	-0.01
818.769	-0.21
818.941	0.32
819.112	0.3
819.283	-0.04
819.455	-0.39
819.626	-0.11
819.798	0.31
819.969	0.01
820.14	-0.15
820.311	-0.25
820.483	0.35
820.654	0.26
820.825	-0.13
820.996	-0.13
821.168	-0.24
821.339	0.08
821.51	-0.64
821.681	1.02
821.852	0.23
822.023	-0.41
822.195	-0.65
822.366	0.18
822.537	0.08
822.708	-0.32
822.879	-0.75
823.05	0.59
823.221	-0.29
823.392	-0.05
823.563	-0.02
823.734	0.17
823.905	-0.18
824.076	-0.47
824.247	-0.47
824.418	-0.59
824.589	0.2
824.759	-0.13
824.93	0.2
825.101	-0.62
825.272	0.65
825.443	0.45
825.614	0.05
825.784	-0.93
825.955	0.78
826.126	1.14
826.297	-0.15
826.467	0.85
826.638	0.81
826.809	-0.88
826.98	0.14
827.15	-0.03
827.321	-0.11
827.492	1.03
827.662	-0.38
827.833	0.58
828.003	0.28
828.174	-0.25
828.345	-0.58
828.515	1.09
828.686	-0
828.856	-0.1
829.027	-0.13
829.197	0.37
829.368	0.56
829.538	-0.17
829.709	-0.29
829.879	-0.16
830.049	0.08
830.22	-0.48
830.39	0.07
830.56	0.45
830.731	-0.04
830.901	-0.4
831.072	-0.03
831.242	-0.14
831.412	0.03
831.582	0.2
831.753	-0.58
831.923	0.37
832.093	0.08
832.263	0.08
832.434	-0.57
832.604	-0.37
832.774	0.8
832.944	0.28
833.114	-0.12
833.284	-0.09
833.454	-0.58
833.624	-0.15
833.795	-0.2
833.965	0.13
834.135	0.43
834.305	-1.05
834.475	-0.82
834.645	0.69
834.815	-0.21
834.985	-0.04
835.155	-0.5
835.325	0.01
835.494	-0.22
835.664	-0.15
835.834	-1.16
836.004	0.14
836.174	-0.45
836.344	0.1
836.514	-1.09
836.684	0.2
836.853	0.66
837.023	-0.25
837.193	0.16
837.363	0.81
837.532	0.5
837.702	-0.05
837.872	-0.43
838.041	0.31
838.211	0.88
838.381	-0.76
838.55	0.6
838.72	1.2
838.89	0.64
839.059	-0.25
839.229	0.03
839.398	1.22
839.568	-0.17
839.738	-0.38
839.907	1.09
840.077	0.72
840.246	-0.47
840.416	-1.13
840.585	-0.78
840.755	1.39
840.924	1.45
841.093	-0.62
841.263	0.04
841.432	0.29
841.602	-0.12
841.771	-1.35
841.94	0.09
842.11	1.78
842.279	1.32
842.448	-0.93
842.617	-0.69
842.787	1.09
842.956	-0.77
843.125	0.04
843.294	0.47
843.464	0.55
843.633	0.13
843.802	-1.44
843.971	-0.14
844.14	-0.11
844.309	0.61
844.479	-1.52
844.648	-1.03
844.817	-0.62
844.986	0.08
845.155	-0.39
845.324	-0.1
845.493	0.29
845.662	-1.28
845.831	0.41
846	-0
846.169	0.48
846.338	0.65
846.507	0.38
846.676	-0.31
846.844	-0.06
847.013	0.98
847.182	-0.02
847.351	-0.26
847.52	0.14
847.689	0.61
847.858	0.01
848.026	-0.82
848.195	-0
848.364	-0.39
848.533	-0.51
848.701	-0.48
848.87	0.07
849.039	0.96
849.207	0.36
849.376	0.46
849.545	0.76
849.713	-0.71
849.882	-0.13
850.051	0.11
850.219	0.58
850.388	0.65
850.556	-0.16
850.725	-0.02
850.893	-0.21
851.062	-0.78
851.23	0.09
851.399	-1.96
851.567	-0.42
851.736	-0.81
851.904	-0.68
852.073	-0.22
852.241	1.31
852.41	0.15
852.578	0.29
852.746	-0.52
852.915	1.17
853.083	-0.1
853.251	-0.99
853.42	-0.07
853.588	0.57
853.756	1.18
853.924	-0.17
854.093	0.07
854.261	0.1
854.429	-1.7
854.597	-0.51
854.765	-0.71
854.934	-0.31
855.102	0.52
855.27	-0.64
855.438	-0.36
855.606	1.5
855.774	1.9
855.942	-0.95
856.11	-1.84
856.278	0.34
856.446	0.43
856.614	0.66
856.782	-0.65
856.95	0.93
857.118	0.5
857.286	0.66
857.454	-1.31
857.622	0.79
857.79	0.27
857.958	-0.49
858.126	0.71
858.294	-2.11
858.462	-0.74
858.629	-1.19
858.797	-1.62
858.965	0.34
859.133	1.09
859.301	-0.2
859.468	0.36
859.636	-0.31
859.804	2.27
859.971	0.42
860.139	-0.44
860.307	0.66
860.474	0.21
860.642	-0.71
860.81	-0.53
860.977	-1.07
861.145	1.89
861.313	-0.45
861.48	0.27
861.648	1.18
861.815	0.88
861.983	0.02
862.15	-0.77
862.318	0.32
862.485	2.87
862.653	-0.55
862.82	-1.15
862.988	2.45
863.155	1.55
863.322	-0.67
863.49	-1.73
863.657	-1.01
863.824	2.93
863.992	1.61
864.159	1.06
864.326	1.56
864.494	-0.8
864.661	1.49
864.828	-2.63
864.996	1.2
865.163	2.61
865.33	-0.3
865.497	-3.36
865.664	-1.97
865.832	-2.22
865.999	-0.09
866.166	-1.72
866.333	-1.33
866.5	-0.11
866.667	0.07
866.834	0.22
867.001	1.04
867.168	-1.79
867.335	0.64
867.502	-2.79
867.669	1.01
867.836	1.48
868.003	-0.76
868.17	0.24
868.337	-1.86
868.504	2.33
868.671	-2.35
868.838	-0.8
869.005	0.57
869.172	1.06
869.339	-0.21
869.505	0.04
869.672	-1.24
869.839	1.26
870.006	0.23
870.173	-2.93
870.339	0.38
870.506	3.46
870.673	-0.13
870.84	1.01
871.006	-0.15
871.173	-0.21
871.34	-0.08
871.506	-2.25
871.673	1.95
871.839	-2.4
872.006	-0.97
872.173	2.35
872.339	1.65
872.506	1.01
872.672	-0.45
872.839	-3.37
873.005	0.43
873.172	2.05
873.338	-1.09
873.505	1.77
873.671	-0.42
873.838	0.79
874.004	-1.86
874.171	-0.29
874.337	0.6
874.503	0.56
874.67	0.32
874.836	-0.24
875.002	4.08
875.169	1.14
875.335	0.73
875.501	-0.72
875.668	2.04
875.834	0.28
876	-0.75
876.166	0.91
876.332	0.37
876.499	2.61
876.665	0.18
876.831	-1.15
876.997	2.01
877.163	1.04
877.329	-1.16
877.495	1.37
877.662	-0.15
877.828	2.8
877.994	-1.38
878.16	-3.38
878.326	-0.76
878.492	1.33
878.658	-0.19
878.824	1.48
878.99	1.39
879.156	-1.75
879.322	1.06
879.487	1.47
879.653	0.3
879.819	0.52
879.985	-1.68
880.151	0.48
880.317	0.45
880.483	1.4
880.648	1.23
880.814	-2.43
880.98	0.5
881.146	-2.59
881.312	-1.02
881.477	-2.05
881.643	0.24
881.809	1.09
881.974	1.48
882.14	-2.03
882.306	0.37
882.471	2.18
882.637	-1.24
882.803	2.41
882.968	3.33
883.134	2.07
883.299	-1.07
883.465	-0.12
883.63	2.09
883.796	2.29
883.961	-1.15
884.127	-0.45
884.292	-5.14
884.458	-1.94
884.623	-1.94
