Data from Apollo_Calib_20240827__AbsoluteIrradiance__489__07-18-00-447.txt Node

Date: Wed Aug 28 07:18:00 BST 2024
User: biology
Spectrometer: FLMT08252
Trigger mode: 0
Integration Time (sec): 5.000000E-1
Scans to average: 5
Electric dark correction enabled: true
Nonlinearity correction enabled: false
Boxcar width: 0
XAxis mode: Wavelengths
Number of Pixels in Spectrum: 3648
>>>>>Begin Spectral Data<<<<<
179.588	-0
179.809	-0
180.03	-0
180.251	-0
180.473	-0
180.694	0
180.915	0
181.136	-0
181.357	0
181.578	0
181.799	-0
182.02	-0
182.241	-0
182.462	-0
182.683	0
182.904	-0
183.125	0
183.346	0
183.567	0
183.788	-0
184.009	-0
184.23	0
184.451	0
184.672	-0
184.892	-0
185.113	0
185.334	-0
185.555	-0
185.776	-0
185.996	0
186.217	0
186.438	-0
186.659	-0
186.879	0
187.1	-0
187.321	-0
187.541	-0
187.762	0
187.983	0
188.203	-0
188.424	0
188.644	-0
188.865	0
189.086	-0
189.306	0
189.527	0
189.747	0
189.968	-0
190.188	0
190.409	0
190.629	0
190.849	-0
191.07	-0
191.29	0
191.511	0
191.731	-0
191.951	-0
192.172	0
192.392	0
192.612	-0
192.833	-0
193.053	0
193.273	0
193.493	-0
193.714	-0
193.934	0
194.154	0
194.374	0
194.594	-0
194.815	0
195.035	0
195.255	-0
195.475	-0
195.695	0
195.915	0
196.135	0
196.355	0
196.575	0
196.795	0
197.015	-0
197.235	-0
197.455	-0
197.675	0
197.895	-0
198.115	-0
198.335	-0
198.555	-0
198.775	0
198.995	0
199.214	0
199.434	-0
199.654	-0
199.874	-0
200.094	-1.46
200.313	-0.24
200.533	-0.9
200.753	-0.69
200.973	0.2
201.192	0.48
201.412	-0.52
201.632	-0.38
201.851	0.91
202.071	-0.28
202.291	-0.31
202.51	-0.81
202.73	0.26
202.95	-0.26
203.169	-0.12
203.389	-0.3
203.608	0.11
203.828	-0.78
204.047	-0.25
204.267	0.13
204.486	-0.14
204.706	0.29
204.925	-0.58
205.145	-0.26
205.364	0.26
205.583	0.82
205.803	-0.17
206.022	-0.26
206.242	-0.32
206.461	-0.36
206.68	-0.31
206.9	-0.14
207.119	0.36
207.338	0.51
207.557	-0.14
207.777	-0.25
207.996	-0.15
208.215	0.13
208.434	-0.27
208.654	-0.72
208.873	-0.23
209.092	0.1
209.311	-0.17
209.53	-0.09
209.749	-0.31
209.968	-0.4
210.187	-0.16
210.407	-0.26
210.626	-0.01
210.845	0.15
211.064	-0.04
211.283	-0.31
211.502	0.2
211.721	-0.09
211.94	0.01
212.159	0.06
212.377	0.21
212.596	0.28
212.815	0.05
213.034	-0.07
213.253	0.38
213.472	-0.03
213.691	-0.19
213.91	-0.45
214.128	-0.12
214.347	0.19
214.566	-0.52
214.785	-0.29
215.003	0.18
215.222	0.04
215.441	-0
215.66	-0.21
215.878	-0.05
216.097	0.26
216.316	-0.24
216.534	-0.28
216.753	0.16
216.972	-0.04
217.19	-0.06
217.409	-0.12
217.627	-0.27
217.846	-0.02
218.064	-0.04
218.283	-0.22
218.501	0.56
218.72	0.25
218.938	-0.12
219.157	-0.17
219.375	0.08
219.594	-0.12
219.812	-0.2
220.031	-0.05
220.249	0.25
220.467	0.2
220.686	-0.1
220.904	-0.26
221.122	-0.2
221.341	0.26
221.559	0
221.777	-0.26
221.995	-0.15
222.214	0.16
222.432	-0.17
222.65	0.16
222.868	-0.09
223.086	0.07
223.305	0.18
223.523	-0.21
223.741	0.11
223.959	-0.15
224.177	-0.36
224.395	-0.1
224.613	-0.06
224.831	0.09
225.049	-0.11
225.267	-0.2
225.485	0.09
225.703	0.06
225.921	-0.11
226.139	-0.03
226.357	-0.05
226.575	0.15
226.793	-0.16
227.011	0.34
227.229	-0.04
227.447	0.1
227.665	-0.1
227.883	-0.35
228.1	0.01
228.318	0.1
228.536	-0.36
228.754	-0.23
228.972	0.07
229.189	0.06
229.407	-0.15
229.625	-0.1
229.843	0.18
230.06	0.02
230.278	-0.17
230.496	-0.12
230.713	0.02
230.931	0.23
231.149	0.12
231.366	-0.24
231.584	-0.11
231.801	0.17
232.019	-0.04
232.236	-0.11
232.454	-0.15
232.671	0.02
232.889	-0.03
233.106	-0.25
233.324	-0.07
233.541	-0.06
233.759	-0.14
233.976	-0.09
234.194	-0.14
234.411	0.03
234.628	-0.14
234.846	-0.07
235.063	-0.09
235.28	-0.02
235.498	-0.04
235.715	-0.2
235.932	0.04
236.149	0.02
236.367	-0.12
236.584	0
236.801	-0.08
237.018	0.14
237.236	0.06
237.453	-0.14
237.67	0.1
237.887	-0.06
238.104	0.03
238.321	-0.13
238.538	-0.14
238.755	0.1
238.973	-0.14
239.19	-0.08
239.407	0.04
239.624	0.02
239.841	-0.19
240.058	-0.1
240.275	0.03
240.492	-0.08
240.709	0.06
240.925	-0.07
241.142	-0.01
241.359	-0.14
241.576	-0.06
241.793	-0.14
242.01	0.04
242.227	-0.02
242.444	-0.03
242.66	0.1
242.877	0.06
243.094	-0.06
243.311	-0
243.527	0.01
243.744	0.01
243.961	0.13
244.178	-0.02
244.394	-0.03
244.611	0.1
244.828	0.12
245.044	-0.18
245.261	-0.08
245.477	0.08
245.694	0.05
245.911	-0.1
246.127	0.05
246.344	0.08
246.56	0.04
246.777	-0.04
246.993	-0.02
247.21	-0.02
247.426	0.02
247.643	-0.05
247.859	-0.11
248.076	-0.08
248.292	0.23
248.508	-0.02
248.725	-0.07
248.941	0.01
249.157	0.01
249.374	-0.02
249.59	0.04
249.806	-0.06
250.023	0.12
250.239	-0.11
250.455	-0.09
250.671	-0.05
250.888	0.04
251.104	-0
251.32	0.03
251.536	-0.07
251.752	-0.09
251.969	-0.05
252.185	-0.07
252.401	0.15
252.617	0.06
252.833	-0.06
253.049	-0.05
253.265	-0.04
253.481	-0.04
253.697	0.03
253.913	-0.13
254.129	-0.01
254.345	-0
254.561	-0.1
254.777	0.01
254.993	0.06
255.209	0.04
255.425	-0.05
255.641	-0.08
255.857	0.05
256.073	0.04
256.288	-0.1
256.504	-0.05
256.72	-0.01
256.936	0.11
257.152	-0.05
257.367	-0.06
257.583	0.03
257.799	0.06
258.015	-0.08
258.23	-0.07
258.446	0.09
258.662	-0.05
258.877	-0.08
259.093	-0.1
259.309	-0.03
259.524	0.03
259.74	-0.08
259.955	-0.12
260.171	0.03
260.387	-0.02
260.602	0.15
260.818	0.04
261.033	-0.04
261.249	-0
261.464	-0.07
261.68	-0.11
261.895	0.04
262.11	0
262.326	-0.05
262.541	-0.08
262.757	0.08
262.972	0.03
263.187	-0
263.403	-0.01
263.618	0.03
263.833	-0.04
264.049	-0.04
264.264	-0.06
264.479	-0.02
264.694	0.06
264.91	-0.1
265.125	-0.07
265.34	-0.02
265.555	0.15
265.77	0.02
265.986	-0.06
266.201	0.07
266.416	0.09
266.631	-0.06
266.846	0
267.061	-0.02
267.276	0.03
267.491	-0.14
267.706	0.04
267.921	-0.01
268.136	0.03
268.351	-0.01
268.566	-0.08
268.781	0.12
268.996	0.07
269.211	-0.04
269.426	-0.08
269.641	-0.03
269.856	0.05
270.071	-0.13
270.285	-0.16
270.5	0.05
270.715	0.03
270.93	0.03
271.145	0.04
271.359	0.03
271.574	-0.11
271.789	0.02
272.004	-0.04
272.218	0
272.433	0.06
272.648	-0.05
272.862	0.02
273.077	0.04
273.292	-0.01
273.506	-0.02
273.721	-0.05
273.936	0.03
274.15	0.08
274.365	-0.01
274.579	0.02
274.794	0.07
275.008	0.08
275.223	-0.03
275.437	-0
275.652	-0.03
275.866	0.04
276.081	-0.01
276.295	0.02
276.509	0.05
276.724	-0.06
276.938	0.01
277.153	0.04
277.367	0.07
277.581	-0.09
277.796	-0.06
278.01	-0.08
278.224	0.05
278.438	0.14
278.653	-0.07
278.867	-0.08
279.081	-0.17
279.295	-0.06
279.51	-0
279.724	-0.06
279.938	0
280.152	0
280.366	-0.02
280.58	-0.02
280.794	0.04
281.008	0.05
281.222	0.02
281.437	0.15
281.651	0.03
281.865	0.11
282.079	-0.01
282.293	-0.07
282.507	-0.1
282.721	0.01
282.935	-0
283.148	-0.11
283.362	-0.03
283.576	-0.03
283.79	-0.01
284.004	-0.02
284.218	0.06
284.432	-0.08
284.646	-0.05
284.859	-0.05
285.073	0
285.287	-0
285.501	-0.01
285.714	0.02
285.928	0.02
286.142	-0.02
286.356	-0.04
286.569	0
286.783	0.04
286.997	0.05
287.21	0.02
287.424	0.01
287.637	-0.02
287.851	0.01
288.065	0.03
288.278	-0.06
288.492	0.01
288.705	-0.01
288.919	-0.01
289.132	-0.05
289.346	0.05
289.559	-0.07
289.773	-0.04
289.986	-0.05
290.2	-0.03
290.413	0.04
290.626	-0.07
290.84	-0
291.053	-0
291.267	0.02
291.48	-0.05
291.693	-0.01
291.906	-0.08
292.12	-0.07
292.333	-0.04
292.546	-0.03
292.76	0.03
292.973	0.01
293.186	0.03
293.399	-0.06
293.612	0.04
293.826	0
294.039	0.02
294.252	-0.04
294.465	0.03
294.678	0.07
294.891	-0.03
295.104	-0.07
295.317	-0.02
295.53	-0.01
295.743	-0.03
295.956	-0.02
296.169	0.05
296.382	0.05
296.595	-0.01
296.808	-0.08
297.021	0.03
297.234	0.02
297.447	-0.01
297.66	0.06
297.873	0.05
298.086	0.02
298.299	-0.05
298.511	-0.04
298.724	-0.07
298.937	-0.06
299.15	-0.03
299.363	-0.01
299.575	0.03
299.788	0
300.001	-0.02
300.213	-0.07
300.426	-0
300.639	-0
300.852	-0.01
301.064	0.05
301.277	0.04
301.489	0.05
301.702	0.03
301.915	0.01
302.127	0
302.34	0.01
302.552	0.01
302.765	0
302.977	0.04
303.19	-0.03
303.402	-0.04
303.615	-0.01
303.827	-0.08
304.04	-0.01
304.252	0.01
304.464	-0.07
304.677	0.1
304.889	0.07
305.102	-0.02
305.314	-0.05
305.526	0.06
305.739	0.02
305.951	-0.01
306.163	0.01
306.375	0.05
306.588	-0.01
306.8	-0.01
307.012	-0.07
307.224	0.05
307.436	0.05
307.649	-0.05
307.861	-0
308.073	0.02
308.285	-0.05
308.497	-0.03
308.709	-0.03
308.921	0.01
309.133	0.04
309.346	-0.03
309.558	-0.01
309.77	0.06
309.982	0.06
310.194	0.04
310.406	-0.05
310.617	0.08
310.829	0.02
311.041	0.03
311.253	0.01
311.465	0.03
311.677	-0.06
311.889	0
312.101	-0.04
312.313	0.06
312.524	0.02
312.736	-0.06
312.948	0.03
313.16	0.06
313.372	0.03
313.583	0.01
313.795	-0.04
314.007	-0.02
314.218	0.02
314.43	0
314.642	-0.09
314.853	-0.03
315.065	0.04
315.277	-0
315.488	-0
315.7	0.02
315.912	0.04
316.123	-0.02
316.335	0
316.546	0.07
316.758	-0.04
316.969	-0.04
317.181	0
317.392	-0.02
317.604	0.02
317.815	-0.04
318.026	-0.02
318.238	-0
318.449	-0.01
318.661	-0.08
318.872	-0.05
319.083	-0.05
319.295	0.03
319.506	0.01
319.717	0.04
319.929	0.02
320.14	0.01
320.351	0.02
320.562	-0.06
320.774	-0.01
320.985	0
321.196	-0.1
321.407	-0.09
321.618	0.05
321.829	0.01
322.041	0
322.252	0.01
322.463	0.01
322.674	-0.04
322.885	-0.02
323.096	-0.04
323.307	0.03
323.518	0.01
323.729	-0.04
323.94	-0
324.151	-0.03
324.362	0.01
324.573	-0.01
324.784	-0.08
324.995	0.07
325.206	0.02
325.417	-0.02
325.628	-0.03
325.838	-0.03
326.049	0.04
326.26	0.03
326.471	-0.03
326.682	0.01
326.892	-0.02
327.103	-0.08
327.314	-0.07
327.525	0.07
327.735	0.01
327.946	-0.01
328.157	-0.03
328.368	0.01
328.578	-0
328.789	-0.01
328.999	0
329.21	0.01
329.421	-0.01
329.631	-0.06
329.842	0.01
330.052	0.04
330.263	0.05
330.473	0.03
330.684	-0.02
330.894	-0.01
331.105	-0.01
331.315	0.01
331.526	-0.07
331.736	0.04
331.947	0.05
332.157	0.01
332.367	-0.05
332.578	-0
332.788	0.01
332.999	0.01
333.209	0.03
333.419	-0.04
333.629	0.02
333.84	0.05
334.05	-0.02
334.26	0.04
334.47	0.03
334.681	0.02
334.891	-0.02
335.101	0.03
335.311	0.05
335.521	-0.03
335.732	-0.07
335.942	0.07
336.152	0.04
336.362	0.02
336.572	0.01
336.782	0.03
336.992	-0.05
337.202	-0
337.412	0.01
337.622	0.03
337.832	0.01
338.042	0
338.252	-0.04
338.462	-0.02
338.672	0.02
338.882	-0.03
339.092	-0.02
339.302	0.09
339.511	0.03
339.721	-0.04
339.931	-0.03
340.141	0.05
340.351	0.05
340.561	0.03
340.77	0.01
340.98	-0.03
341.19	0.05
341.4	-0.03
341.609	-0
341.819	0
342.029	-0.05
342.238	0.02
342.448	-0.05
342.658	0.03
342.867	0.01
343.077	-0.01
343.286	0.01
343.496	-0.01
343.706	0.03
343.915	-0.04
344.125	-0.01
344.334	0.01
344.544	-0.05
344.753	-0.01
344.963	-0.04
345.172	-0.04
345.381	-0.02
345.591	-0.03
345.8	0
346.01	0.05
346.219	0.07
346.428	-0.16
346.638	-0.03
346.847	-0
347.056	0.04
347.266	0.01
347.475	-0.01
347.684	0.04
347.893	0.01
348.103	-0.02
348.312	-0.01
348.521	-0.02
348.73	-0.04
348.94	-0.03
349.149	-0.07
349.358	-0
349.567	-0.04
349.776	-0.03
349.985	-0.05
350.194	0.03
350.403	0.05
350.612	-0.07
350.821	-0.01
351.03	-0.01
351.239	-0.06
351.448	-0
351.657	-0.02
351.866	0.07
352.075	-0.01
352.284	-0.01
352.493	-0.03
352.702	0.03
352.911	0.04
353.12	0.02
353.329	-0.05
353.538	-0.04
353.746	-0.01
353.955	-0.03
354.164	0.03
354.373	-0.01
354.582	0.02
354.79	0.04
354.999	0.02
355.208	0.03
355.416	0.02
355.625	-0.01
355.834	0
356.042	0.01
356.251	-0.03
356.46	-0.01
356.668	0.01
356.877	0.08
357.085	-0.01
357.294	-0.1
357.503	-0.03
357.711	-0.03
357.92	0.11
358.128	0
358.337	-0.02
358.545	-0.01
358.754	-0.02
358.962	0.01
359.17	-0.02
359.379	0.01
359.587	0.03
359.796	0.02
360.004	0.02
360.212	0.04
360.421	0.08
360.629	-0.02
360.837	0
361.046	0.02
361.254	0.05
361.462	-0.01
361.67	-0.02
361.879	-0.01
362.087	0.05
362.295	0.03
362.503	-0.03
362.711	-0.05
362.92	-0.04
363.128	0.01
363.336	-0.04
363.544	-0.07
363.752	-0.04
363.96	-0.01
364.168	-0
364.376	0.01
364.584	0.02
364.792	0.04
365	0.03
365.208	-0.02
365.416	0.02
365.624	0.02
365.832	-0.05
366.04	0.05
366.248	0.03
366.456	0.05
366.664	-0.01
366.872	0.02
367.079	-0.05
367.287	0.02
367.495	-0.03
367.703	-0.01
367.911	-0.02
368.118	0.03
368.326	0
368.534	-0.04
368.742	0.04
368.949	-0.04
369.157	0
369.365	0.03
369.572	-0.04
369.78	-0.07
369.988	0.02
370.195	0.04
370.403	0
370.61	-0.02
370.818	0.02
371.026	0.01
371.233	-0.03
371.441	-0
371.648	-0.03
371.856	0.01
372.063	0.01
372.271	-0.05
372.478	-0.01
372.685	-0
372.893	0.04
373.1	-0.01
373.308	-0.03
373.515	0.06
373.722	0.04
373.93	-0.05
374.137	0.02
374.344	0.04
374.552	0.05
374.759	0.02
374.966	0.04
375.173	-0.01
375.381	0.04
375.588	-0
375.795	-0.1
376.002	-0.03
376.209	-0.01
376.417	-0.03
376.624	-0.04
376.831	-0
377.038	-0.02
377.245	-0.09
377.452	-0.03
377.659	-0.02
377.866	-0.03
378.073	0
378.28	-0
378.487	0.01
378.694	-0
378.901	-0.01
379.108	-0.03
379.315	-0.01
379.522	0.07
379.729	0.03
379.936	-0.01
380.143	-0.01
380.35	0.01
380.557	-0.02
380.763	0.01
380.97	0
381.177	-0.02
381.384	-0.01
381.591	-0.01
381.797	-0
382.004	-0.01
382.211	0.02
382.418	-0.01
382.624	0.05
382.831	0.01
383.038	-0.03
383.244	0.01
383.451	-0
383.658	0.03
383.864	-0.03
384.071	-0.04
384.277	0.06
384.484	-0.06
384.69	0.02
384.897	-0.06
385.103	-0.03
385.31	-0.05
385.516	-0.04
385.723	0.01
385.929	-0.02
386.136	-0.01
386.342	0.01
386.549	-0.03
386.755	0.02
386.961	0.02
387.168	-0.03
387.374	0
387.58	0.02
387.787	0.02
387.993	-0.02
388.199	0.03
388.406	-0.02
388.612	-0.01
388.818	-0.06
389.024	-0.03
389.231	-0.03
389.437	0.09
389.643	0
389.849	0
390.055	0.02
390.261	0.01
390.467	0.01
390.674	-0.04
390.88	0.02
391.086	0.1
391.292	-0.05
391.498	0.03
391.704	-0
391.91	0.01
392.116	-0.04
392.322	-0.07
392.528	-0.01
392.734	-0.01
392.94	-0
393.146	-0.04
393.352	0.05
393.557	-0.02
393.763	0.01
393.969	-0.02
394.175	-0.01
394.381	0.02
394.587	-0.05
394.792	-0.01
394.998	0.02
395.204	0.06
395.41	-0.01
395.615	0.05
395.821	0.03
396.027	-0.02
396.233	-0.04
396.438	-0.03
396.644	0.03
396.85	0.03
397.055	-0.02
397.261	-0.02
397.466	0.08
397.672	-0.01
397.878	0
398.083	0.07
398.289	-0.02
398.494	0.05
398.7	0.01
398.905	-0.08
399.111	0.02
399.316	-0.05
399.522	0.02
399.727	0.01
399.932	-0.04
400.138	0.02
400.343	0.02
400.549	0.01
400.754	0
400.959	-0.01
401.165	0.01
401.37	0.03
401.575	0.07
401.78	-0.02
401.986	-0.05
402.191	-0.02
402.396	-0
402.601	0.03
402.807	0
403.012	-0.01
403.217	0.01
403.422	-0.04
403.627	-0.02
403.832	-0.04
404.037	0
404.243	0.03
404.448	-0.04
404.653	-0.08
404.858	-0.03
405.063	0.05
405.268	-0
405.473	-0.03
405.678	-0.05
405.883	0.07
406.088	0.01
406.293	-0.05
406.498	-0.02
406.703	0.03
406.907	-0.01
407.112	-0.02
407.317	-0.02
407.522	0.05
407.727	-0.05
407.932	0
408.136	0.08
408.341	0.02
408.546	0.03
408.751	0.02
408.956	-0.04
409.16	0.04
409.365	0.01
409.57	-0.04
409.774	-0.05
409.979	0.02
410.184	0.01
410.388	-0.06
410.593	-0
410.798	0
411.002	-0.04
411.207	0.03
411.411	0.01
411.616	-0.01
411.82	-0.02
412.025	0.02
412.229	-0.05
412.434	0.05
412.638	0.03
412.843	0.01
413.047	-0.02
413.252	-0.06
413.456	-0.05
413.66	0.01
413.865	-0.01
414.069	0.09
414.273	-0.01
414.478	-0.02
414.682	-0.03
414.886	-0.05
415.091	-0.04
415.295	-0.05
415.499	0
415.703	-0.02
415.908	-0.02
416.112	-0.03
416.316	0.02
416.52	-0.01
416.724	-0.04
416.929	-0.02
417.133	0.07
417.337	-0
417.541	-0
417.745	0.02
417.949	0.01
418.153	0
418.357	-0.07
418.561	0.09
418.765	0.04
418.969	0.12
419.173	-0
419.377	0.02
419.581	0.05
419.785	-0.06
419.989	-0.08
420.193	-0.04
420.397	-0.02
420.601	0.05
420.804	0.04
421.008	-0.01
421.212	-0.03
421.416	0.04
421.62	-0.04
421.823	-0.02
422.027	0.11
422.231	0.02
422.435	0.01
422.638	0.05
422.842	-0.01
423.046	-0.06
423.249	0.02
423.453	0.04
423.657	0.02
423.86	-0.01
424.064	0.04
424.268	0
424.471	-0.03
424.675	0.01
424.878	0.04
425.082	-0.02
425.285	0.03
425.489	-0.02
425.692	0.01
425.896	-0.05
426.099	0.03
426.303	-0.04
426.506	-0.07
426.71	0
426.913	0.03
427.116	0.07
427.32	-0.03
427.523	-0.02
427.726	0.04
427.93	-0.01
428.133	0.04
428.336	-0.05
428.54	-0.11
428.743	0.03
428.946	0.04
429.149	-0.04
429.353	-0.02
429.556	-0.05
429.759	-0.01
429.962	-0.04
430.165	-0.03
430.368	-0.01
430.571	-0.03
430.775	0.02
430.978	-0.01
431.181	0.01
431.384	-0.03
431.587	-0.01
431.79	-0.02
431.993	-0.09
432.196	-0.02
432.399	-0.03
432.602	0.03
432.805	-0.01
433.008	-0.02
433.211	-0.09
433.414	-0.02
433.616	0.02
433.819	-0.02
434.022	-0.12
434.225	0.04
434.428	0.01
434.631	0.1
434.833	-0
435.036	0.01
435.239	0.02
435.442	-0.01
435.645	-0.05
435.847	0.05
436.05	0.08
436.253	-0
436.455	-0.04
436.658	-0.02
436.861	0.08
437.063	-0.03
437.266	-0.06
437.468	0.01
437.671	0.12
437.874	0.01
438.076	-0.05
438.279	-0.12
438.481	-0.02
438.684	-0.09
438.886	-0.01
439.089	-0.09
439.291	-0.02
439.494	0.05
439.696	-0
439.899	-0.04
440.101	-0.03
440.303	-0.1
440.506	0.01
440.708	0
440.91	0.04
441.113	-0.06
441.315	-0
441.517	-0.04
441.72	0.03
441.922	-0.01
442.124	-0.07
442.326	0.02
442.529	0.01
442.731	-0.04
442.933	0.07
443.135	-0.06
443.337	-0.03
443.539	-0.01
443.742	0.01
443.944	0.02
444.146	-0.05
444.348	-0.01
444.55	-0.02
444.752	-0.02
444.954	-0.06
445.156	0.03
445.358	-0.04
445.56	0.02
445.762	-0.06
445.964	-0.02
446.166	-0.04
446.368	-0.05
446.57	0.05
446.772	-0.01
446.974	-0.04
447.175	0.01
447.377	-0.06
447.579	-0.04
447.781	-0.08
447.983	0.08
448.184	-0.04
448.386	0.01
448.588	-0.1
448.79	-0.01
448.991	-0.06
449.193	0
449.395	-0.04
449.597	0.01
449.798	-0.01
450	0.03
450.202	-0
450.403	-0.01
450.605	0.04
450.806	0.03
451.008	-0.08
451.21	0.01
451.411	0
451.613	-0.05
451.814	-0.01
452.016	-0
452.217	0.03
452.419	0.04
452.62	-0.01
452.821	0.01
453.023	0.04
453.224	0.01
453.426	-0.03
453.627	0.03
453.828	0.02
454.03	-0.02
454.231	-0.03
454.432	-0.07
454.634	0.06
454.835	-0.05
455.036	-0.04
455.238	0.03
455.439	0.06
455.64	-0.01
455.841	-0.03
456.042	0.02
456.244	0.03
456.445	-0.05
456.646	-0.08
456.847	-0.01
457.048	0.02
457.249	0.03
457.45	0.18
457.651	-0.02
457.852	0.07
458.054	0.02
458.255	-0.04
458.456	0.07
458.657	0.01
458.858	-0.02
459.058	-0.02
459.259	0
459.46	-0.05
459.661	-0.04
459.862	0.05
460.063	-0.04
460.264	0.02
460.465	-0.07
460.666	0.06
460.866	-0.04
461.067	-0.02
461.268	-0.01
461.469	-0.03
461.67	-0.02
461.87	-0
462.071	-0.01
462.272	-0.03
462.473	0.01
462.673	0.04
462.874	-0.03
463.075	0
463.275	-0.04
463.476	0.03
463.676	-0
463.877	0.04
464.078	-0.04
464.278	0.02
464.479	-0.05
464.679	-0.01
464.88	-0.03
465.08	0.07
465.281	-0.05
465.481	-0.02
465.682	-0.02
465.882	0.01
466.083	0.02
466.283	0.01
466.483	-0.02
466.684	-0.03
466.884	-0.05
467.085	-0.04
467.285	0.02
467.485	-0.04
467.686	-0.02
467.886	-0.05
468.086	-0.03
468.286	-0.04
468.487	-0.02
468.687	-0.03
468.887	-0.02
469.087	-0.02
469.287	-0.01
469.488	-0.08
469.688	0.01
469.888	-0
470.088	0.05
470.288	0.02
470.488	0.08
470.688	-0.08
470.888	-0.01
471.088	-0.05
471.288	0.05
471.488	0.03
471.688	-0.02
471.888	-0.02
472.088	0.05
472.288	0.02
472.488	-0.04
472.688	-0.05
472.888	-0
473.088	0.02
473.288	-0
473.488	-0
473.688	0.07
473.887	0.01
474.087	-0.01
474.287	-0
474.487	-0.03
474.687	0.03
474.886	-0.02
475.086	-0.05
475.286	-0.02
475.486	0.02
475.685	-0
475.885	-0.02
476.085	-0.03
476.284	0.01
476.484	-0
476.684	0.03
476.883	0.05
477.083	0.03
477.282	-0.04
477.482	0.04
477.681	0.05
477.881	0.03
478.08	-0.03
478.28	-0.04
478.479	-0.01
478.679	0.06
478.878	-0.05
479.078	-0.04
479.277	-0.03
479.477	-0.07
479.676	0.03
479.875	-0.02
480.075	-0.07
480.274	-0.01
480.473	0.01
480.673	-0.02
480.872	0.02
481.071	0.01
481.271	-0.02
481.47	-0.02
481.669	-0.01
481.868	-0.04
482.067	-0.04
482.267	-0.01
482.466	-0.05
482.665	-0.03
482.864	-0.06
483.063	-0.01
483.262	0.03
483.461	0.04
483.661	0.01
483.86	0
484.059	-0
484.258	0.01
484.457	-0
484.656	-0
484.855	0.02
485.054	-0.05
485.253	-0.02
485.452	-0.03
485.651	0.01
485.849	-0.01
486.048	-0.03
486.247	-0
486.446	0.01
486.645	-0.04
486.844	-0.03
487.043	-0.04
487.241	-0.01
487.44	-0.03
487.639	-0
487.838	0.01
488.037	-0.02
488.235	0.04
488.434	-0
488.633	-0.02
488.831	0
489.03	0.01
489.229	0.01
489.427	-0
489.626	0.03
489.825	0.03
490.023	-0.01
490.222	-0
490.42	0.02
490.619	0.02
490.817	-0
491.016	-0.01
491.214	0.02
491.413	-0.02
491.611	-0.02
491.81	-0.01
492.008	0.01
492.207	0.01
492.405	-0.01
492.604	-0.03
492.802	0.02
493	-0.01
493.199	-0.04
493.397	0
493.595	-0
493.794	-0.01
493.992	0.04
494.19	-0.01
494.388	0.01
494.587	-0
494.785	0.01
494.983	-0.04
495.181	-0.01
495.379	0.01
495.578	-0.01
495.776	0
495.974	0.03
496.172	-0.03
496.37	-0.03
496.568	-0.02
496.766	-0.03
496.964	0.04
497.162	-0
497.36	-0.02
497.558	0
497.756	0.02
497.954	0
498.152	-0.03
498.35	-0.02
498.548	0.01
498.746	0
498.944	-0.02
499.142	-0
499.34	-0.03
499.538	-0.01
499.736	-0.02
499.933	0.02
500.131	0.04
500.329	-0
500.527	0.04
500.725	0.04
500.922	0
501.12	-0.01
501.318	0.02
501.516	-0.03
501.713	0.02
501.911	-0.01
502.109	-0.05
502.306	0.01
502.504	-0.01
502.701	-0.02
502.899	-0.02
503.097	0.03
503.294	-0
503.492	-0.01
503.689	0.01
503.887	0.01
504.084	0.04
504.282	-0
504.479	-0.03
504.677	-0
504.874	-0.01
505.072	-0.01
505.269	-0.01
505.466	0.03
505.664	0.01
505.861	-0.04
506.059	-0.02
506.256	0.01
506.453	-0.01
506.651	0.03
506.848	0.02
507.045	-0.01
507.242	0.02
507.44	-0.03
507.637	-0.01
507.834	-0
508.031	0.01
508.229	-0.03
508.426	-0.01
508.623	0.01
508.82	-0.03
509.017	-0.01
509.214	-0.01
509.411	0
509.608	-0.01
509.805	0.01
510.003	-0.01
510.2	-0
510.397	0.03
510.594	-0.01
510.791	-0.03
510.988	-0.02
511.184	0.02
511.381	-0.02
511.578	-0.04
511.775	0.03
511.972	-0.01
512.169	0
512.366	0
512.563	0.02
512.76	-0.02
512.956	0
513.153	-0.02
513.35	-0.01
513.547	-0.01
513.744	-0
513.94	-0.02
514.137	-0
514.334	0
514.53	0.01
514.727	0.01
514.924	0.07
515.12	-0.02
515.317	-0.03
515.514	-0.03
515.71	-0.03
515.907	-0.01
516.103	0
516.3	0.02
516.497	0.02
516.693	0.03
516.89	-0
517.086	-0.03
517.283	0.02
517.479	-0
517.676	0
517.872	-0
518.068	-0.02
518.265	-0.02
518.461	-0.01
518.658	-0.01
518.854	-0.02
519.05	-0
519.247	-0.03
519.443	0.03
519.639	0.02
519.836	-0.01
520.032	-0.01
520.228	-0.01
520.424	0.05
520.621	0.01
520.817	-0.01
521.013	0.02
521.209	0.01
521.405	0.03
521.601	0.01
521.798	0
521.994	0.03
522.19	-0.02
522.386	-0.05
522.582	0.02
522.778	0
522.974	-0.02
523.17	-0.01
523.366	-0.01
523.562	0.03
523.758	-0
523.954	0.01
524.15	-0.02
524.346	0
524.542	-0.03
524.738	-0.02
524.934	-0.02
525.129	-0.03
525.325	-0.02
525.521	-0
525.717	0.03
525.913	0.01
526.109	-0
526.304	0
526.5	-0.01
526.696	0.02
526.892	-0.01
527.087	0
527.283	-0.03
527.479	0.01
527.674	-0.01
527.87	-0.02
528.066	-0.04
528.261	0.04
528.457	0.01
528.653	-0.01
528.848	-0.01
529.044	0.01
529.239	0.01
529.435	0.03
529.63	0.01
529.826	0.03
530.021	0.01
530.217	0.01
530.412	-0.01
530.608	-0.02
530.803	-0.02
530.999	-0.01
531.194	-0.05
531.389	-0.02
531.585	-0.06
531.78	0.01
531.975	-0.03
532.171	0.02
532.366	-0
532.561	0.01
532.757	-0.02
532.952	-0.01
533.147	0.01
533.342	0.01
533.538	-0.03
533.733	0.03
533.928	-0.01
534.123	-0.01
534.318	-0.04
534.513	-0.02
534.709	0.01
534.904	-0.01
535.099	-0.01
535.294	0
535.489	0
535.684	-0.01
535.879	-0.05
536.074	-0
536.269	-0.02
536.464	0.01
536.659	0
536.854	-0.02
537.049	-0
537.244	0.01
537.439	-0
537.634	0.01
537.828	0.01
538.023	-0.01
538.218	-0.03
538.413	-0.02
538.608	-0.01
538.803	-0
538.997	-0.03
539.192	0.02
539.387	0.01
539.582	0.01
539.776	0.01
539.971	-0.02
540.166	0.01
540.36	-0.04
540.555	0.01
540.75	-0.01
540.944	-0.01
541.139	-0.04
541.334	-0.03
541.528	-0
541.723	0
541.917	-0
542.112	-0.04
542.306	-0.02
542.501	0
542.695	0.01
542.89	-0
543.084	-0
543.279	-0
543.473	-0.01
543.668	-0
543.862	0
544.056	0.02
544.251	0.01
544.445	-0
544.64	0.01
544.834	-0.04
545.028	-0.02
545.222	0
545.417	0.02
545.611	-0.01
545.805	-0.01
546	-0
546.194	-0
546.388	-0.01
546.582	-0.01
546.776	0.02
546.97	-0
547.165	0.03
547.359	0.01
547.553	-0.02
547.747	-0
547.941	0.02
548.135	0
548.329	0.03
548.523	0.01
548.717	0
548.911	-0
549.105	-0.01
549.299	-0.01
549.493	0
549.687	0.01
549.881	0.02
550.075	-0
550.269	-0.03
550.463	0.02
550.657	-0.03
550.85	-0
551.044	-0.03
551.238	0.02
551.432	-0
551.626	-0.03
551.82	0.01
552.013	-0.02
552.207	0
552.401	0.02
552.594	-0
552.788	-0.01
552.982	0.02
553.176	-0.02
553.369	0.01
553.563	0.02
553.756	-0.03
553.95	-0.02
554.144	0.01
554.337	0.02
554.531	0
554.724	0.03
554.918	0.01
555.111	0.02
555.305	0.01
555.498	0.04
555.692	0.01
555.885	-0.03
556.079	-0.01
556.272	-0.01
556.466	0.03
556.659	-0.01
556.852	-0.02
557.046	-0.02
557.239	0.03
557.432	-0.03
557.626	-0.01
557.819	0.01
558.012	0.01
558.206	0.02
558.399	0
558.592	-0.01
558.785	0
558.979	0.03
559.172	0.01
559.365	0.01
559.558	0
559.751	-0
559.944	0.02
560.138	-0.02
560.331	0
560.524	0
560.717	-0.01
560.91	0
561.103	0.01
561.296	-0
561.489	0.02
561.682	-0.02
561.875	0.02
562.068	0.03
562.261	0
562.454	0.03
562.647	0.01
562.84	0.01
563.032	0
563.225	0.01
563.418	-0.01
563.611	0.01
563.804	0.01
563.997	-0.01
564.19	-0.03
564.382	0.03
564.575	-0.02
564.768	0
564.961	0.02
565.153	-0
565.346	0.03
565.539	0.02
565.731	0.03
565.924	0.04
566.117	0.02
566.309	0
566.502	-0.01
566.695	0.03
566.887	0.03
567.08	-0.03
567.272	0.01
567.465	-0.03
567.657	0.04
567.85	-0
568.042	-0.01
568.235	0.03
568.427	0
568.62	0.02
568.812	0
569.005	0.02
569.197	-0.03
569.389	0.02
569.582	0.03
569.774	0.01
569.966	-0.03
570.159	-0.05
570.351	0.02
570.543	0.01
570.736	0
570.928	-0.02
571.12	0.02
571.312	-0
571.505	-0.01
571.697	0.02
571.889	-0.01
572.081	0.01
572.273	-0
572.465	0.04
572.658	0.02
572.85	0.01
573.042	0.03
573.234	-0.01
573.426	0.04
573.618	-0.01
573.81	0.02
574.002	0.04
574.194	0.04
574.386	-0.03
574.578	-0.05
574.77	-0.01
574.962	0.02
575.154	0.01
575.346	0.02
575.538	0.03
575.729	-0
575.921	0.01
576.113	0.02
576.305	0.04
576.497	0.02
576.689	0.02
576.88	0.01
577.072	0.04
577.264	0.01
577.456	0.02
577.647	-0.03
577.839	0.02
578.031	0.07
578.223	0.02
578.414	-0.02
578.606	0.07
578.798	0.05
578.989	0.02
579.181	0.02
579.372	0.02
579.564	0.02
579.755	0.03
579.947	0.02
580.139	0.05
580.33	-0.02
580.522	0.03
580.713	-0.01
580.905	0.04
581.096	0.07
581.287	0.03
581.479	0.04
581.67	0.08
581.862	0.04
582.053	0.05
582.244	0.02
582.436	0.02
582.627	0.07
582.818	0.04
583.01	0.06
583.201	0.08
583.392	0.08
583.583	0.04
583.775	0.06
583.966	0.06
584.157	0.05
584.348	0.07
584.54	0.04
584.731	0.09
584.922	0.07
585.113	0.05
585.304	0.09
585.495	0.11
585.686	0.07
585.877	0.12
586.068	0.09
586.259	0.08
586.45	0.09
586.641	0.07
586.832	0.05
587.023	0.07
587.214	0.09
587.405	0.13
587.596	0.08
587.787	0.14
587.978	0.13
588.169	0.08
588.36	0.09
588.551	0.12
588.742	0.1
588.932	0.16
589.123	0.13
589.314	0.15
589.505	0.13
589.696	0.12
589.886	0.14
590.077	0.11
590.268	0.13
590.458	0.11
590.649	0.1
590.84	0.16
591.03	0.11
591.221	0.11
591.412	0.1
591.602	0.18
591.793	0.19
591.984	0.15
592.174	0.15
592.365	0.24
592.555	0.15
592.746	0.19
592.936	0.21
593.127	0.2
593.317	0.21
593.508	0.21
593.698	0.19
593.889	0.23
594.079	0.23
594.269	0.17
594.46	0.22
594.65	0.24
594.84	0.25
595.031	0.23
595.221	0.23
595.411	0.21
595.602	0.27
595.792	0.26
595.982	0.27
596.172	0.33
596.363	0.26
596.553	0.27
596.743	0.29
596.933	0.29
597.123	0.31
597.314	0.27
597.504	0.29
597.694	0.36
597.884	0.34
598.074	0.31
598.264	0.34
598.454	0.37
598.644	0.32
598.834	0.36
599.024	0.3
599.214	0.38
599.404	0.41
599.594	0.39
599.784	0.38
599.974	0.46
600.164	0.41
600.354	0.42
600.544	0.4
600.734	0.47
600.924	0.45
601.114	0.45
601.303	0.45
601.493	0.49
601.683	0.48
601.873	0.49
602.063	0.5
602.252	0.53
602.442	0.47
602.632	0.49
602.821	0.51
603.011	0.61
603.201	0.54
603.39	0.56
603.58	0.56
603.77	0.6
603.959	0.65
604.149	0.61
604.339	0.61
604.528	0.68
604.718	0.67
604.907	0.62
605.097	0.68
605.286	0.68
605.476	0.69
605.665	0.71
605.855	0.76
606.044	0.78
606.234	0.78
606.423	0.8
606.612	0.75
606.802	0.79
606.991	0.8
607.181	0.86
607.37	0.84
607.559	0.84
607.749	0.85
607.938	0.91
608.127	0.95
608.316	0.94
608.506	0.96
608.695	0.98
608.884	0.98
609.073	1.03
609.263	1.12
609.452	1.13
609.641	1.11
609.83	1.08
610.019	1.15
610.208	1.16
610.397	1.2
610.586	1.27
610.775	1.2
610.965	1.27
611.154	1.27
611.343	1.32
611.532	1.31
611.721	1.35
611.91	1.39
612.099	1.45
612.287	1.42
612.476	1.47
612.665	1.56
612.854	1.5
613.043	1.63
613.232	1.65
613.421	1.61
613.61	1.71
613.798	1.72
613.987	1.81
614.176	1.78
614.365	1.88
614.554	1.94
614.742	1.93
614.931	1.92
615.12	2.05
615.309	2.05
615.497	2.05
615.686	2.09
615.875	2.16
616.063	2.18
616.252	2.25
616.44	2.26
616.629	2.31
616.818	2.45
617.006	2.38
617.195	2.41
617.383	2.5
617.572	2.53
617.76	2.61
617.949	2.68
618.137	2.68
618.326	2.71
618.514	2.65
618.703	2.77
618.891	2.89
619.079	2.84
619.268	2.97
619.456	2.97
619.644	3.06
619.833	3.08
620.021	3.09
620.209	3.05
620.398	3.18
620.586	3.16
620.774	3.28
620.962	3.29
621.151	3.34
621.339	3.34
621.527	3.33
621.715	3.35
621.903	3.5
622.092	3.47
622.28	3.57
622.468	3.46
622.656	3.58
622.844	3.55
623.032	3.61
623.22	3.49
623.408	3.7
623.596	3.63
623.784	3.69
623.972	3.63
624.16	3.64
624.348	3.72
624.536	3.71
624.724	3.57
624.912	3.61
625.1	3.65
625.288	3.63
625.476	3.57
625.664	3.57
625.851	3.53
626.039	3.51
626.227	3.43
626.415	3.36
626.603	3.26
626.79	3.33
626.978	3.27
627.166	3.22
627.354	3.1
627.541	3.06
627.729	2.88
627.917	3
628.104	2.93
628.292	2.79
628.48	2.76
628.667	2.64
628.855	2.69
629.042	2.58
629.23	2.44
629.418	2.35
629.605	2.34
629.793	2.22
629.98	2.16
630.168	2.09
630.355	2
630.543	2.02
630.73	1.82
630.917	1.82
631.105	1.81
631.292	1.7
631.48	1.65
631.667	1.64
631.854	1.54
632.042	1.45
632.229	1.32
632.416	1.39
632.604	1.3
632.791	1.19
632.978	1.2
633.165	1.16
633.353	1.14
633.54	1.09
633.727	0.96
633.914	1
634.101	0.89
634.289	0.96
634.476	0.87
634.663	0.85
634.85	0.84
635.037	0.74
635.224	0.72
635.411	0.78
635.598	0.72
635.785	0.67
635.972	0.66
636.159	0.66
636.346	0.56
636.533	0.58
636.72	0.58
636.907	0.51
637.094	0.54
637.281	0.46
637.468	0.51
637.655	0.47
637.842	0.43
638.029	0.41
638.215	0.47
638.402	0.43
638.589	0.36
638.776	0.37
638.963	0.34
639.149	0.36
639.336	0.41
639.523	0.31
639.709	0.3
639.896	0.28
640.083	0.33
640.27	0.33
640.456	0.26
640.643	0.28
640.829	0.21
641.016	0.25
641.203	0.21
641.389	0.26
641.576	0.24
641.762	0.22
641.949	0.2
642.135	0.21
642.322	0.2
642.508	0.13
642.695	0.22
642.881	0.14
643.068	0.16
643.254	0.15
643.441	0.19
643.627	0.16
643.813	0.14
644	0.21
644.186	0.12
644.372	0.19
644.559	0.18
644.745	0.11
644.931	0.09
645.118	0.08
645.304	0.15
645.49	0.08
645.676	0.11
645.862	0.11
646.049	0.15
646.235	0.12
646.421	0.17
646.607	0.16
646.793	0.1
646.979	0.02
647.165	0.13
647.352	0.07
647.538	0.08
647.724	0.08
647.91	0.08
648.096	0.1
648.282	0.08
648.468	0.03
648.654	0.08
648.84	0.05
649.026	0.06
649.212	0.07
649.397	0.02
649.583	0.01
649.769	0.07
649.955	0.06
650.141	0.06
650.327	0.09
650.513	0.01
650.698	0.04
650.884	-0.02
651.07	0.06
651.256	0.02
651.442	0.01
651.627	0.06
651.813	0.05
651.999	0.02
652.184	0.03
652.37	0.01
652.556	0.03
652.741	0.06
652.927	-0.04
653.113	0.06
653.298	0.03
653.484	0.04
653.669	-0.05
653.855	0.03
654.04	0.05
654.226	0.03
654.412	0.03
654.597	0.02
654.782	0.03
654.968	0.04
655.153	0.04
655.339	0.02
655.524	-0.03
655.71	0.06
655.895	0.01
656.08	0.02
656.266	0.09
656.451	0.05
656.636	-0.02
656.822	0.04
657.007	0
657.192	-0.03
657.378	-0.04
657.563	0.04
657.748	0.04
657.933	0.04
658.118	0.01
658.304	-0.01
658.489	0.04
658.674	0.02
658.859	-0.02
659.044	0.01
659.229	0.03
659.414	-0.02
659.599	-0.02
659.785	-0.04
659.97	0.01
660.155	0.04
660.34	0.01
660.525	-0.01
660.71	0.02
660.895	0.03
661.08	-0.02
661.264	-0.03
661.449	0.05
661.634	0.07
661.819	-0.01
662.004	0.05
662.189	-0.08
662.374	-0.01
662.559	-0.02
662.743	-0.03
662.928	-0.04
663.113	-0.01
663.298	-0.07
663.483	-0.03
663.667	0.03
663.852	-0.05
664.037	0.04
664.221	-0.04
664.406	0.04
664.591	0.05
664.775	-0.04
664.96	0.03
665.145	0
665.329	-0.01
665.514	-0
665.698	0.01
665.883	-0.05
666.068	0.06
666.252	0.03
666.437	-0.01
666.621	0
666.806	0.02
666.99	-0.02
667.174	-0.04
667.359	0.03
667.543	-0.01
667.728	-0.06
667.912	-0.07
668.096	0.02
668.281	0.02
668.465	0.01
668.649	0.03
668.834	-0.05
669.018	-0
669.202	-0.01
669.387	-0.03
669.571	0.06
669.755	-0.03
669.939	0.01
670.124	-0.01
670.308	0.07
670.492	-0.01
670.676	-0.02
670.86	0.02
671.044	-0.05
671.228	0.01
671.413	-0.04
671.597	-0.04
671.781	-0.04
671.965	-0.01
672.149	0.01
672.333	-0.01
672.517	-0.02
672.701	0.03
672.885	-0.01
673.069	-0.04
673.253	0.01
673.437	-0.03
673.621	-0.04
673.804	-0
673.988	-0.01
674.172	0.02
674.356	-0.05
674.54	-0.03
674.724	0.05
674.908	0.01
675.091	0.02
675.275	0.01
675.459	0.04
675.643	-0.02
675.826	0.05
676.01	0.03
676.194	-0.02
676.377	0.03
676.561	0.01
676.745	0.03
676.928	0.04
677.112	0.08
677.296	-0.04
677.479	-0.02
677.663	-0.02
677.846	0.01
678.03	-0.05
678.213	-0.05
678.397	0.01
678.58	0
678.764	-0.02
678.947	-0.04
679.131	-0.07
679.314	0.06
679.498	-0.02
679.681	0.05
679.865	0.04
680.048	0.02
680.231	0.02
680.415	-0.02
680.598	-0.03
680.781	-0.02
680.965	-0.02
681.148	0.04
681.331	0.02
681.514	0.02
681.698	-0.04
681.881	-0.01
682.064	-0.03
682.247	0.02
682.43	-0.05
682.614	0
682.797	0.04
682.98	0.01
683.163	-0.07
683.346	0.03
683.529	-0
683.712	-0.03
683.895	0.02
684.078	-0.08
684.261	0.02
684.444	0.01
684.627	0.01
684.81	-0.01
684.993	-0.01
685.176	0.01
685.359	-0
685.542	-0.01
685.725	0.07
685.908	-0.03
686.091	-0.02
686.274	0.03
686.457	0.01
686.639	-0.05
686.822	0.03
687.005	-0.02
687.188	0
687.371	0.05
687.553	0.02
687.736	0.02
687.919	0.1
688.102	0.06
688.284	-0.07
688.467	-0.02
688.65	0.01
688.832	-0.06
689.015	-0.03
689.197	-0.06
689.38	0.09
689.563	0.06
689.745	-0.05
689.928	-0.05
690.11	-0.05
690.293	-0.02
690.475	-0.03
690.658	0.03
690.84	0
691.023	0.01
691.205	-0
691.388	0.04
691.57	0.04
691.752	0.02
691.935	-0.12
692.117	-0.03
692.3	0.07
692.482	-0.06
692.664	0.01
692.847	0.02
693.029	0.06
693.211	0.04
693.393	-0.05
693.576	-0.04
693.758	-0.01
693.94	-0.02
694.122	-0.07
694.304	-0.07
694.487	0.01
694.669	0.04
694.851	-0.02
695.033	-0.03
695.215	-0.04
695.397	-0.03
695.579	-0
695.761	-0.03
695.943	-0.14
696.125	0.07
696.308	0.03
696.49	-0.1
696.671	0.06
696.853	0.01
697.035	0.14
697.217	0.02
697.399	0.05
697.581	-0.07
697.763	0.01
697.945	-0.01
698.127	-0
698.309	0.08
698.491	-0.05
698.672	-0.03
698.854	0.01
699.036	0.08
699.218	-0.03
699.399	0
699.581	-0.01
699.763	-0.02
699.945	-0.02
700.126	-0.1
700.308	-0.01
700.49	-0.07
700.671	-0.1
700.853	-0.13
701.035	0.02
701.216	-0.01
701.398	-0.04
701.579	-0.03
701.761	0.03
701.943	-0.01
702.124	-0.04
702.306	0.01
702.487	0.09
702.669	0.01
702.85	-0.09
703.031	-0.09
703.213	0.11
703.394	0.04
703.576	-0.03
703.757	0.05
703.938	0.06
704.12	0.17
704.301	-0.01
704.483	-0.08
704.664	-0.03
704.845	0.1
705.026	-0.02
705.208	-0.01
705.389	0.02
705.57	0.02
705.751	-0.01
705.933	-0.01
706.114	0.08
706.295	0.05
706.476	-0.03
706.657	0.09
706.838	0
707.02	0.05
707.201	-0.04
707.382	-0.01
707.563	-0
707.744	-0.02
707.925	-0.05
708.106	-0.08
708.287	-0.04
708.468	0.05
708.649	-0.06
708.83	-0.01
709.011	-0.04
709.192	0.07
709.373	-0.08
709.554	-0.03
709.734	0.01
709.915	0.05
710.096	-0.01
710.277	-0.05
710.458	-0.03
710.639	0.03
710.819	-0.07
711	0.01
711.181	0.04
711.362	0.1
711.542	0.02
711.723	-0.04
711.904	0.02
712.085	-0.01
712.265	-0
712.446	-0.17
712.627	-0.07
712.807	-0.01
712.988	-0
713.168	-0.08
713.349	-0.02
713.53	-0.11
713.71	-0.04
713.891	-0.06
714.071	-0.01
714.252	-0.09
714.432	-0.05
714.613	-0.1
714.793	-0.07
714.974	0.08
715.154	0.07
715.334	-0.02
715.515	0.09
715.695	-0.04
715.876	-0.06
716.056	-0.03
716.236	-0.08
716.417	-0.03
716.597	-0.03
716.777	0.07
716.957	0.01
717.138	-0
717.318	0.01
717.498	-0.08
717.678	-0
717.859	0
718.039	-0.07
718.219	0.02
718.399	0.11
718.579	-0.07
718.759	-0.09
718.939	0.04
719.12	-0.09
719.3	-0
719.48	-0.17
719.66	-0.13
719.84	0.08
720.02	-0.04
720.2	-0.08
720.38	0.03
720.56	0.06
720.74	-0.04
720.92	-0.05
721.1	0.05
721.279	0.09
721.459	-0.03
721.639	-0.03
721.819	0.01
721.999	-0.04
722.179	0.07
722.359	-0.07
722.538	-0.02
722.718	-0.04
722.898	-0.02
723.078	-0.03
723.257	-0.1
723.437	-0.03
723.617	-0.05
723.797	-0.05
723.976	-0.01
724.156	-0.01
724.336	0.04
724.515	0.11
724.695	-0.08
724.874	-0.09
725.054	0.09
725.234	-0.03
725.413	-0.02
725.593	0
725.772	-0
725.952	0.06
726.131	-0.02
726.311	-0.06
726.49	-0.03
726.67	-0.02
726.849	-0.05
727.028	0.04
727.208	0.03
727.387	0.06
727.567	-0.1
727.746	-0.03
727.925	-0.08
728.105	-0.05
728.284	-0.01
728.463	-0.1
728.643	0.08
728.822	-0.03
729.001	-0.04
729.18	-0.02
729.359	0.06
729.539	0.01
729.718	-0.06
729.897	0.06
730.076	-0
730.255	-0.05
730.434	-0.01
730.614	0.05
730.793	0
730.972	-0.02
731.151	-0.04
731.33	0.05
731.509	0.04
731.688	-0.01
731.867	-0.05
732.046	-0.12
732.225	0.15
732.404	-0.12
732.583	-0.07
732.762	0.02
732.941	0.03
733.12	0
733.298	-0.01
733.477	0.11
733.656	-0.02
733.835	-0.09
734.014	0.16
734.193	-0.11
734.371	0.01
734.55	0.01
734.729	-0.09
734.908	-0.02
735.086	-0.07
735.265	0.08
735.444	-0.15
735.623	-0.12
735.801	-0.09
735.98	-0.05
736.159	-0.06
736.337	0.05
736.516	0.04
736.694	0.04
736.873	-0.09
737.052	0.07
737.23	0.03
737.409	-0.12
737.587	0.12
737.766	-0.13
737.944	-0.08
738.123	0.01
738.301	0.07
738.479	-0.05
738.658	0.06
738.836	-0.24
739.015	-0.05
739.193	0.01
739.371	-0.12
739.55	-0.04
739.728	-0.19
739.906	0.11
740.085	0.12
740.263	-0.06
740.441	-0.17
740.62	0.2
740.798	0.03
740.976	-0.06
741.154	-0.23
741.332	0.14
741.511	-0.13
741.689	-0.03
741.867	0.02
742.045	-0.07
742.223	-0
742.401	-0.04
742.579	-0.11
742.757	-0.04
742.935	-0.2
743.114	-0.11
743.292	0.01
743.47	0.09
743.648	-0.05
743.826	-0.11
744.004	0.02
744.181	-0.1
744.359	-0.06
744.537	-0.1
744.715	-0.03
744.893	-0.05
745.071	-0.01
745.249	0.02
745.427	-0.07
745.605	0.03
745.782	-0.05
745.96	0.01
746.138	-0.03
746.316	0.12
746.493	-0.07
746.671	-0.11
746.849	-0.1
747.027	0
747.204	-0.15
747.382	0.12
747.56	-0.14
747.737	-0.02
747.915	-0.1
748.093	0.02
748.27	-0.06
748.448	-0.07
748.625	-0.14
748.803	-0.11
748.98	-0.1
749.158	-0.09
749.335	0.14
749.513	-0.05
749.69	0.03
749.868	-0.05
750.045	0.06
750.223	-0.16
750.4	-0.16
750.578	0.19
750.755	0.06
750.932	-0.16
751.11	0.21
751.287	-0.11
751.464	-0.03
751.642	-0.13
751.819	-0.03
751.996	-0.05
752.173	-0.05
752.351	-0.17
752.528	-0.07
752.705	-0.05
752.882	-0.02
753.06	-0.02
753.237	0.1
753.414	0.15
753.591	0.09
753.768	0.02
753.945	-0.12
754.122	-0.09
754.299	-0.02
754.476	-0.01
754.654	-0.08
754.831	-0.01
755.008	0.01
755.185	-0.08
755.362	-0.03
755.539	0
755.716	-0.15
755.892	-0.01
756.069	-0.07
756.246	-0.05
756.423	-0.05
756.6	0.16
756.777	-0.01
756.954	0.13
757.131	-0.01
757.307	-0.14
757.484	-0.1
757.661	0.03
757.838	0.01
758.015	-0.13
758.191	0.05
758.368	0.02
758.545	0.07
758.721	-0.01
758.898	-0.01
759.075	0.09
759.251	0.05
759.428	0.04
759.605	-0.16
759.781	-0.1
759.958	0
760.134	-0.02
760.311	-0.11
760.488	0.13
760.664	0.07
760.841	-0.02
761.017	-0.08
761.194	0.1
761.37	0.07
761.547	-0.05
761.723	-0.07
761.899	0.08
762.076	-0.08
762.252	-0.04
762.429	-0.12
762.605	0.04
762.781	-0.09
762.958	0.07
763.134	-0.15
763.31	0.06
763.486	0.09
763.663	-0.16
763.839	0.05
764.015	-0.08
764.191	-0.11
764.368	0.02
764.544	-0.03
764.72	0.17
764.896	0.05
765.072	0.03
765.248	-0.07
765.425	-0
765.601	-0.01
765.777	-0.06
765.953	-0.35
766.129	-0.12
766.305	-0.05
766.481	0.01
766.657	-0.02
766.833	0.12
767.009	-0.17
767.185	-0.11
767.361	-0.03
767.537	-0.14
767.713	0.05
767.889	-0.1
768.065	-0
768.24	-0.32
768.416	0.01
768.592	-0.17
768.768	-0.18
768.944	-0.1
769.12	-0.21
769.295	0
769.471	-0.13
769.647	-0.06
769.823	0.19
769.998	-0.14
770.174	-0.19
770.35	0.14
770.525	0.21
770.701	0.05
770.877	-0.12
771.052	-0.07
771.228	0.11
771.403	0.05
771.579	0.09
771.755	0.33
771.93	-0.05
772.106	-0.22
772.281	-0.18
772.457	-0.06
772.632	-0.02
772.808	-0.19
772.983	-0.01
773.159	-0.18
773.334	-0.05
773.509	-0.03
773.685	-0.09
773.86	0.33
774.036	0.19
774.211	0.02
774.386	-0.05
774.562	-0.16
774.737	-0.05
774.912	-0.16
775.087	-0.02
775.263	-0.11
775.438	0.1
775.613	-0.13
775.788	0.04
775.964	0.16
776.139	0.23
776.314	-0.18
776.489	-0.03
776.664	0.02
776.839	-0.16
777.014	0.12
777.19	0.13
777.365	0.11
777.54	0.16
777.715	-0
777.89	-0.1
778.065	-0.2
778.24	-0.09
778.415	0.07
778.59	-0.28
778.765	-0.17
778.94	0.16
779.115	-0.08
779.289	-0.2
779.464	-0.07
779.639	0.02
779.814	-0.27
779.989	-0.09
780.164	0.04
780.339	-0.05
780.513	-0.04
780.688	-0.14
780.863	0.01
781.038	0.03
781.212	-0.06
781.387	-0.14
781.562	0.25
781.737	-0.12
781.911	0.15
782.086	-0.03
782.261	-0.11
782.435	0.27
782.61	-0.15
782.784	-0.25
782.959	0.2
783.134	-0.04
783.308	-0.16
783.483	-0.12
783.657	0.26
783.832	-0.04
784.006	-0.45
784.181	-0.07
784.355	0.16
784.53	-0.26
784.704	-0.14
784.878	0.23
785.053	0.13
785.227	0.15
785.402	0.32
785.576	-0.41
785.75	0.03
785.925	-0.11
786.099	0.13
786.273	0.01
786.448	0.01
786.622	0.16
786.796	-0.02
786.97	-0.24
787.145	0.5
787.319	-0.45
787.493	-0.08
787.667	-0.35
787.841	-0.02
788.015	0.1
788.19	0.1
788.364	0.04
788.538	-0.03
788.712	0.16
788.886	-0.21
789.06	0.31
789.234	0.25
789.408	-0.25
789.582	0.06
789.756	-0.29
789.93	-0.31
790.104	-0.22
790.278	-0.18
790.452	-0.06
790.626	0.08
790.8	0.03
790.973	0.04
791.147	0.37
791.321	0.21
791.495	0.11
791.669	-0.08
791.843	0.03
792.016	0.01
792.19	0.35
792.364	-0.24
792.538	0.32
792.711	0.16
792.885	-0.17
793.059	-0.23
793.233	-0.49
793.406	0.16
793.58	-0.12
793.754	0.11
793.927	-0.15
794.101	0.28
794.274	0.01
794.448	0.14
794.622	-0.12
794.795	0.04
794.969	-0.21
795.142	0.17
795.316	0.07
795.489	-0.21
795.663	0.3
795.836	-0.08
796.009	-0.34
796.183	0.22
796.356	0.2
796.53	0.34
796.703	-0.03
796.876	0.53
797.05	-0.21
797.223	-0.17
797.396	0.12
797.57	0.11
797.743	0.29
797.916	-0.08
798.09	-0.07
798.263	0.04
798.436	0.13
798.609	0.09
798.782	0.14
798.956	0.08
799.129	0.11
799.302	-0.29
799.475	-0.2
799.648	-0.13
799.821	-0.23
799.994	0.08
800.167	-0.04
800.34	-0.14
800.514	0.17
800.687	-0.3
800.86	-0.05
801.033	-0.17
801.206	-0.16
801.379	-0.47
801.551	-0.07
801.724	-0.13
801.897	0.31
802.07	-0.17
802.243	-0.46
802.416	-0.05
802.589	-0.4
802.762	-0.02
802.935	-0.01
803.107	0.07
803.28	0.35
803.453	0.31
803.626	-0.25
803.798	-0.03
803.971	-0.11
804.144	-0.01
804.317	-0
804.489	0.32
804.662	-0.15
804.835	-0.14
805.007	-0.47
805.18	0.59
805.353	-0.05
805.525	-0.41
805.698	-0.45
805.87	0.43
806.043	0.11
806.215	-0.45
806.388	-0.32
806.56	-0.24
806.733	0.29
806.905	0.08
807.078	-0.33
807.25	-0.05
807.423	0.17
807.595	-0
807.768	0.05
807.94	-0.2
808.112	0.19
808.285	0.12
808.457	-0.08
808.629	-0.07
808.802	-0
808.974	0.2
809.146	-0.13
809.318	-0.63
809.491	0.12
809.663	-0.04
809.835	-0.34
810.007	0.18
810.18	-0.14
810.352	-0.35
810.524	-0.06
810.696	0.14
810.868	0.11
811.04	-0.23
811.212	-0.13
811.384	0.07
811.556	-0.06
811.728	-0.17
811.901	0.76
812.073	-0.06
812.245	0.2
812.417	0.18
812.589	-0.68
812.76	-0.16
812.932	0.24
813.104	-0.01
813.276	-0.23
813.448	0.67
813.62	0.08
813.792	-0.18
813.964	-0.09
814.136	0.09
814.307	-0.67
814.479	-0.28
814.651	-0.28
814.823	0.67
814.995	0.1
815.166	-0.18
815.338	-0.34
815.51	-0.81
815.681	0.8
815.853	-0.06
816.025	-0.54
816.196	0.68
816.368	0.6
816.54	-0.42
816.711	-0.14
816.883	0.22
817.054	0.76
817.226	-0.81
817.398	0.48
817.569	-0.3
817.741	0
817.912	-0.11
818.084	-0.25
818.255	-0.02
818.426	-0.43
818.598	-0.5
818.769	-0.43
818.941	0.14
819.112	0.67
819.283	0.34
819.455	-0.47
819.626	-0.3
819.798	0.28
819.969	-0.17
820.14	-0.34
820.311	-0.2
820.483	0.11
820.654	0.02
820.825	-0.4
820.996	-0.19
821.168	-0.53
821.339	-0.25
821.51	-0.45
821.681	0.16
821.852	-0.12
822.023	-0.44
822.195	-0.25
822.366	0
822.537	0.22
822.708	-0.3
822.879	-0.2
823.05	-0
823.221	-0.23
823.392	-0.09
823.563	-0.26
823.734	0.07
823.905	-0
824.076	-0.54
824.247	-0.39
824.418	-0.32
824.589	0.51
824.759	-0.38
824.93	-0.46
825.101	-0.72
825.272	0.28
825.443	0.67
825.614	0.54
825.784	-0.99
825.955	0.93
826.126	0.09
826.297	0.25
826.467	0.32
826.638	0.9
826.809	-1.22
826.98	0.11
827.15	0.29
827.321	-0.12
827.492	0.21
827.662	0.11
827.833	0.62
828.003	0.04
828.174	-0.58
828.345	-0.36
828.515	0.5
828.686	0.31
828.856	-0.21
829.027	0.07
829.197	0.2
829.368	-0.02
829.538	-0.48
829.709	-0.33
829.879	0.04
830.049	-0.74
830.22	-0.42
830.39	-0.29
830.56	0.21
830.731	-0.12
830.901	-0.46
831.072	-0.35
831.242	-0.37
831.412	0.34
831.582	0.22
831.753	-0.59
831.923	0.4
832.093	-0.32
832.263	-0.59
832.434	-0.77
832.604	-0.85
832.774	0.45
832.944	-0.4
833.114	-0.16
833.284	0.56
833.454	-0.32
833.624	-0.25
833.795	0.16
833.965	0.82
834.135	0.58
834.305	-0.62
834.475	-0.37
834.645	-0.25
834.815	-0.59
834.985	-0.47
835.155	-0.44
835.325	-0.09
835.494	-0.16
835.664	-0.78
835.834	-0.6
836.004	-0.14
836.174	0.32
836.344	0.2
836.514	-1.12
836.684	-0.29
836.853	0.11
837.023	0.22
837.193	-0.19
837.363	0.19
837.532	0.18
837.702	-0.37
837.872	-0.87
838.041	0.65
838.211	0.71
838.381	-1.37
838.55	0.11
838.72	1.68
838.89	1.13
839.059	-0.27
839.229	-0.74
839.398	0.69
839.568	0.25
839.738	-0.96
839.907	0.59
840.077	-0.61
840.246	-0.48
840.416	-1.29
840.585	-0.82
840.755	0.65
840.924	0.65
841.093	-0.86
841.263	0.12
841.432	0.17
841.602	-0.41
841.771	-0.05
841.94	-0.83
842.11	0.14
842.279	1.32
842.448	-0.87
842.617	-0.38
842.787	1.39
842.956	-1
843.125	0.1
843.294	-0
843.464	0.4
843.633	0.22
843.802	-1.14
843.971	-0.06
844.14	0.35
844.309	0.84
844.479	-0.29
844.648	-0.65
844.817	-0.47
844.986	-0.33
845.155	-0.37
845.324	-0.61
845.493	-0.14
845.662	-0.51
845.831	0.42
846	-0.01
846.169	-0.01
846.338	0.48
846.507	-0.75
846.676	1.07
846.844	-0.03
847.013	0.19
847.182	-0.53
847.351	0.24
847.52	0.23
847.689	0.12
847.858	-0.25
848.026	-0.46
848.195	0.1
848.364	-0.35
848.533	-0.6
848.701	-0.93
848.87	0.17
849.039	1.08
849.207	0.58
849.376	0.38
849.545	0.67
849.713	-0.49
849.882	-0.57
850.051	0.07
850.219	-0.2
850.388	1.04
850.556	-1.63
850.725	-1.75
850.893	0.24
851.062	-1.05
851.23	0.53
851.399	-1.69
851.567	-1.47
851.736	-0.23
851.904	-0.94
852.073	0.08
852.241	0.91
852.41	1.16
852.578	-0.59
852.746	-0.42
852.915	1.22
853.083	-0.51
853.251	-0.65
853.42	-1.24
853.588	-0.22
853.756	1.12
853.924	-1.65
854.093	0.08
854.261	-0.41
854.429	-2.48
854.597	0.05
854.765	-1.1
854.934	-0.17
855.102	1.13
855.27	-1.26
855.438	0.17
855.606	-0.44
855.774	0.28
855.942	-1.71
856.11	-1.59
856.278	0.49
856.446	0.43
856.614	-0.29
856.782	-1.14
856.95	0.06
857.118	-0.12
857.286	-0.25
857.454	-0.01
857.622	1.28
857.79	1.51
857.958	-0.51
858.126	-0.56
858.294	-1.55
858.462	-0.47
858.629	-0.01
858.797	-0.72
858.965	0.15
859.133	-0.46
859.301	-1.32
859.468	0.92
859.636	-1.37
859.804	1.38
859.971	0.57
860.139	-0.16
860.307	-0.4
860.474	0.04
860.642	-0.74
860.81	-1.18
860.977	-0.2
861.145	0.78
861.313	-1.02
861.48	-0.71
861.648	1.01
861.815	-0.58
861.983	-2.55
862.15	0.27
862.318	0.6
862.485	0.58
862.653	-0.75
862.82	-0.91
862.988	1.95
863.155	0.6
863.322	-0.89
863.49	-1.21
863.657	-0.78
863.824	0.85
863.992	0.11
864.159	0.87
864.326	0.64
864.494	-1.05
864.661	2.43
864.828	-0.78
864.996	1.16
865.163	0.9
865.33	-1.83
865.497	-2.25
865.664	-0.62
865.832	-0.86
865.999	-0.41
866.166	-1.29
866.333	-0.31
866.5	-2.14
866.667	-1.34
866.834	-0.65
867.001	0.57
867.168	-1.8
867.335	-0.49
867.502	-3.01
867.669	0.53
867.836	0.96
868.003	-0.52
868.17	0.73
868.337	-2.75
868.504	2.12
868.671	-1.67
868.838	-1.27
869.005	-0.03
869.172	1.51
869.339	-0.47
869.505	-0.99
869.672	-1.01
869.839	1.37
870.006	0.55
870.173	-1.14
870.339	0.52
870.506	2.86
870.673	-1.93
870.84	1.97
871.006	-0.91
871.173	-0.1
871.34	-0.7
871.506	-1.04
871.673	-0.67
871.839	-1.44
872.006	-0.03
872.173	-0.31
872.339	-0
872.506	0.79
872.672	-1.9
872.839	-1.23
873.005	-1.1
873.172	3.6
873.338	0.57
873.505	1.61
873.671	-0.56
873.838	0.63
874.004	-1.31
874.171	-0.12
874.337	-0.33
874.503	1.18
874.67	0.74
874.836	-1.02
875.002	2.38
875.169	0.12
875.335	1.22
875.501	-0.54
875.668	1.69
875.834	0.23
876	-1.02
876.166	1.88
876.332	-0.54
876.499	2.94
876.665	-1.65
876.831	-2.03
876.997	2.76
877.163	0.42
877.329	-1.47
877.495	-0.26
877.662	0.95
877.828	-0.13
877.994	-0.68
878.16	-3.16
878.326	-0.83
878.492	0.79
878.658	-1.74
878.824	0.95
878.99	1.34
879.156	-1.49
879.322	2.91
879.487	-2.09
879.653	0.69
879.819	-0.86
879.985	-1.49
880.151	0.58
880.317	1.4
880.483	-0.08
880.648	0.2
880.814	-2.37
880.98	-0.53
881.146	-1.62
881.312	-0.6
881.477	-1.28
881.643	0.22
881.809	1.47
881.974	2.46
882.14	-2.27
882.306	-0.79
882.471	2.73
882.637	-0.45
882.803	0.43
882.968	2.32
883.134	4.36
883.299	0.11
883.465	-2.52
883.63	-0.65
883.796	2.59
883.961	1.28
884.127	0.54
884.292	-3.88
884.458	-3.71
884.623	-3.71
