Data from Apollo_Calib_20240827__AbsoluteIrradiance__541__08-10-00-328.txt Node

Date: Wed Aug 28 08:10:00 BST 2024
User: biology
Spectrometer: FLMT08252
Trigger mode: 0
Integration Time (sec): 5.000000E-1
Scans to average: 5
Electric dark correction enabled: true
Nonlinearity correction enabled: false
Boxcar width: 0
XAxis mode: Wavelengths
Number of Pixels in Spectrum: 3648
>>>>>Begin Spectral Data<<<<<
179.588	-0
179.809	-0
180.03	-0
180.251	-0
180.473	-0
180.694	0
180.915	0
181.136	-0
181.357	0
181.578	-0
181.799	-0
182.02	-0
182.241	-0
182.462	0
182.683	0
182.904	0
183.125	-0
183.346	0
183.567	0
183.788	-0
184.009	-0
184.23	0
184.451	0
184.672	-0
184.892	-0
185.113	-0
185.334	0
185.555	-0
185.776	-0
185.996	-0
186.217	-0
186.438	-0
186.659	-0
186.879	0
187.1	-0
187.321	-0
187.541	-0
187.762	-0
187.983	-0
188.203	-0
188.424	-0
188.644	-0
188.865	-0
189.086	-0
189.306	-0
189.527	0
189.747	-0
189.968	-0
190.188	0
190.409	-0
190.629	0
190.849	-0
191.07	-0
191.29	0
191.511	-0
191.731	-0
191.951	-0
192.172	0
192.392	-0
192.612	-0
192.833	-0
193.053	-0
193.273	0
193.493	-0
193.714	-0
193.934	0
194.154	0
194.374	0
194.594	-0
194.815	-0
195.035	0
195.255	-0
195.475	-0
195.695	-0
195.915	0
196.135	-0
196.355	0
196.575	0
196.795	-0
197.015	-0
197.235	-0
197.455	-0
197.675	0
197.895	-0
198.115	-0
198.335	-0
198.555	-0
198.775	0
198.995	-0
199.214	0
199.434	-0
199.654	-0
199.874	-0
200.094	0.87
200.313	-0.89
200.533	-0.52
200.753	-0.63
200.973	0.13
201.192	0.26
201.412	-0.93
201.632	-0.32
201.851	0.68
202.071	-0.44
202.291	-0.28
202.51	-0.9
202.73	0.12
202.95	-0.56
203.169	-0.6
203.389	-0.09
203.608	-0.01
203.828	-0.33
204.047	0.09
204.267	0.35
204.486	-0.23
204.706	-0.12
204.925	-0.16
205.145	-0.29
205.364	-0.08
205.583	0.48
205.803	-0.28
206.022	-0.76
206.242	-0.11
206.461	0.07
206.68	-0.28
206.9	-0.22
207.119	0.46
207.338	0.35
207.557	-0.23
207.777	-0.45
207.996	-0.39
208.215	0.27
208.434	-0.46
208.654	-0.51
208.873	-0.22
209.092	0.35
209.311	-0.18
209.53	-0.28
209.749	-0.25
209.968	-0.49
210.187	-0.26
210.407	-0.49
210.626	-0.41
210.845	0.12
211.064	-0.12
211.283	-0.54
211.502	0.05
211.721	-0.23
211.94	-0.24
212.159	0.04
212.377	0.19
212.596	0.39
212.815	-0.1
213.034	-0.09
213.253	0
213.472	0.01
213.691	-0.16
213.91	-0.29
214.128	-0.31
214.347	0.24
214.566	-0.38
214.785	-0.43
215.003	0.05
215.222	-0.08
215.441	-0.2
215.66	-0.38
215.878	-0.19
216.097	0.05
216.316	-0.26
216.534	-0.36
216.753	-0.14
216.972	-0.02
217.19	-0.26
217.409	-0.29
217.627	-0.15
217.846	-0.17
218.064	-0.15
218.283	-0.18
218.501	0.33
218.72	0.06
218.938	-0.23
219.157	-0.09
219.375	0.1
219.594	0.1
219.812	-0.19
220.031	-0.31
220.249	0.22
220.467	0.16
220.686	-0.39
220.904	-0.16
221.122	-0.16
221.341	0.17
221.559	-0.1
221.777	-0.19
221.995	-0.02
222.214	0.02
222.432	-0.24
222.65	0.07
222.868	-0.09
223.086	-0.13
223.305	0.02
223.523	-0.03
223.741	0.26
223.959	-0.17
224.177	-0.27
224.395	-0.13
224.613	-0.1
224.831	0.11
225.049	-0.1
225.267	-0.04
225.485	-0.07
225.703	-0.15
225.921	-0.11
226.139	-0.06
226.357	0.02
226.575	0.04
226.793	-0.17
227.011	0.31
227.229	0.16
227.447	0.17
227.665	-0
227.883	-0.34
228.1	-0.06
228.318	0.08
228.536	-0.29
228.754	-0.16
228.972	-0.08
229.189	-0.01
229.407	-0.19
229.625	-0.1
229.843	0.18
230.06	0.02
230.278	-0.16
230.496	-0.11
230.713	-0.03
230.931	0.03
231.149	-0.05
231.366	-0.26
231.584	-0.06
231.801	0.23
232.019	-0.06
232.236	-0.16
232.454	-0.18
232.671	-0.03
232.889	0.01
233.106	-0.12
233.324	-0.04
233.541	0
233.759	-0.07
233.976	-0.1
234.194	-0.06
234.411	-0.01
234.628	-0.13
234.846	0.01
235.063	-0.08
235.28	-0.1
235.498	-0.06
235.715	-0.16
235.932	0.12
236.149	0.05
236.367	-0.15
236.584	-0.01
236.801	-0.19
237.018	-0.03
237.236	0.04
237.453	-0.19
237.67	0.09
237.887	-0.1
238.104	-0.05
238.321	-0.13
238.538	-0.17
238.755	0.11
238.973	-0.25
239.19	-0.08
239.407	-0.05
239.624	0.04
239.841	-0.24
240.058	-0.19
240.275	0.06
240.492	-0.05
240.709	-0.05
240.925	-0.04
241.142	-0.07
241.359	-0.05
241.576	-0.16
241.793	-0.15
242.01	-0.07
242.227	-0.07
242.444	0.08
242.66	-0.02
242.877	-0.06
243.094	-0.1
243.311	-0.01
243.527	-0.06
243.744	-0.05
243.961	-0
244.178	-0.12
244.394	-0.04
244.611	0.04
244.828	0.11
245.044	-0.1
245.261	-0.05
245.477	-0.04
245.694	0.03
245.911	-0.11
246.127	-0.05
246.344	0.06
246.56	0.09
246.777	-0.15
246.993	0.05
247.21	-0.01
247.426	0.09
247.643	-0.11
247.859	-0.16
248.076	-0.13
248.292	0.15
248.508	-0.08
248.725	-0.01
248.941	-0
249.157	0.1
249.374	-0.09
249.59	-0.02
249.806	0.02
250.023	-0.04
250.239	-0.14
250.455	-0.07
250.671	-0.07
250.888	0.01
251.104	0.01
251.32	-0.04
251.536	-0.07
251.752	-0.12
251.969	0.02
252.185	-0.11
252.401	0.08
252.617	0.01
252.833	-0.11
253.049	-0.08
253.265	-0.06
253.481	-0.02
253.697	-0.12
253.913	-0.11
254.129	-0.01
254.345	-0.05
254.561	-0.06
254.777	-0.01
254.993	0.05
255.209	0.08
255.425	0.04
255.641	-0.11
255.857	0.06
256.073	-0.03
256.288	-0.14
256.504	-0.08
256.72	0.06
256.936	0.1
257.152	0
257.367	-0.04
257.583	0.05
257.799	0.02
258.015	-0.08
258.23	-0.06
258.446	0.04
258.662	-0.06
258.877	-0.12
259.093	-0.09
259.309	-0.01
259.524	-0.03
259.74	-0.09
259.955	-0.14
260.171	-0.03
260.387	-0.06
260.602	0.05
260.818	-0.03
261.033	-0.08
261.249	0.01
261.464	-0.07
261.68	-0.15
261.895	-0.01
262.11	0.03
262.326	-0.08
262.541	-0.16
262.757	-0.01
262.972	0.04
263.187	0.05
263.403	-0.06
263.618	-0.01
263.833	-0.01
264.049	-0.06
264.264	0.01
264.479	-0.07
264.694	0.03
264.91	-0.11
265.125	-0.02
265.34	0.05
265.555	0.09
265.77	-0.03
265.986	-0.13
266.201	0.06
266.416	0.09
266.631	-0.06
266.846	0.01
267.061	-0.02
267.276	0
267.491	-0.16
267.706	-0
267.921	0.02
268.136	-0.01
268.351	-0.07
268.566	-0.09
268.781	0.07
268.996	0.05
269.211	-0.07
269.426	-0.06
269.641	-0.06
269.856	0.08
270.071	-0.12
270.285	-0.1
270.5	0.04
270.715	0
270.93	-0.02
271.145	-0.02
271.359	-0.02
271.574	-0.03
271.789	-0.07
272.004	-0.08
272.218	-0.08
272.433	-0
272.648	-0.09
272.862	-0.01
273.077	-0
273.292	-0.04
273.506	-0
273.721	-0.07
273.936	0
274.15	-0
274.365	-0.01
274.579	0.02
274.794	0.03
275.008	0.03
275.223	-0.14
275.437	-0.01
275.652	-0.02
275.866	0.02
276.081	-0.04
276.295	-0
276.509	-0
276.724	-0.03
276.938	-0.03
277.153	0.03
277.367	-0.03
277.581	-0.01
277.796	-0.01
278.01	-0.09
278.224	0.02
278.438	0.05
278.653	-0.05
278.867	-0.06
279.081	-0.17
279.295	-0
279.51	0.01
279.724	-0.09
279.938	-0.01
280.152	-0.06
280.366	0.01
280.58	-0.01
280.794	0.06
281.008	0.03
281.222	0.02
281.437	0.02
281.651	0.01
281.865	0.04
282.079	-0.05
282.293	-0.09
282.507	-0.03
282.721	-0.06
282.935	-0.02
283.148	-0.1
283.362	-0.07
283.576	-0.08
283.79	0.03
284.004	-0.04
284.218	0.04
284.432	-0.05
284.646	-0.04
284.859	-0.01
285.073	0
285.287	-0.04
285.501	-0.01
285.714	-0.06
285.928	-0.06
286.142	0.01
286.356	-0.04
286.569	-0.07
286.783	0.05
286.997	0
287.21	0.05
287.424	0.02
287.637	0.02
287.851	-0.03
288.065	0
288.278	-0.02
288.492	-0.07
288.705	-0.01
288.919	0.02
289.132	-0.06
289.346	0.01
289.559	-0.07
289.773	-0.05
289.986	-0.04
290.2	-0.05
290.413	0.01
290.626	-0.08
290.84	-0.03
291.053	-0.03
291.267	0.05
291.48	-0.04
291.693	-0
291.906	-0.05
292.12	-0.05
292.333	-0.1
292.546	-0.04
292.76	0.06
292.973	0
293.186	0
293.399	-0.05
293.612	0.03
293.826	0
294.039	-0.06
294.252	-0.05
294.465	-0.02
294.678	0.01
294.891	-0
295.104	-0.06
295.317	-0.02
295.53	-0
295.743	-0.06
295.956	-0.05
296.169	0.05
296.382	0.01
296.595	-0.02
296.808	-0.04
297.021	0.01
297.234	0.02
297.447	-0.02
297.66	0.01
297.873	0.05
298.086	0.02
298.299	-0.04
298.511	-0.1
298.724	-0
298.937	-0.03
299.15	-0.06
299.363	-0
299.575	0.03
299.788	0.03
300.001	-0.03
300.213	-0.03
300.426	0
300.639	-0.05
300.852	-0.05
301.064	0
301.277	0.07
301.489	0.04
301.702	0.03
301.915	-0
302.127	-0.01
302.34	-0.01
302.552	0.01
302.765	-0.03
302.977	-0
303.19	-0.01
303.402	-0.03
303.615	-0.02
303.827	-0.05
304.04	-0.02
304.252	0.02
304.464	-0.01
304.677	0.08
304.889	0.03
305.102	-0.03
305.314	-0.06
305.526	0.08
305.739	0.02
305.951	-0.04
306.163	-0.04
306.375	0.09
306.588	-0.02
306.8	-0.04
307.012	-0.09
307.224	0.01
307.436	0
307.649	-0.05
307.861	-0.02
308.073	0.01
308.285	-0.03
308.497	-0.05
308.709	0.02
308.921	-0.01
309.133	0.02
309.346	0
309.558	0
309.77	0.03
309.982	0.04
310.194	0.03
310.406	-0.02
310.617	0.05
310.829	-0
311.041	-0.01
311.253	-0.04
311.465	-0.04
311.677	-0.03
311.889	-0.02
312.101	-0.05
312.313	0.01
312.524	0.05
312.736	-0.05
312.948	-0.03
313.16	0.09
313.372	0.02
313.583	0.02
313.795	-0.03
314.007	-0.02
314.218	0.03
314.43	-0.04
314.642	-0.01
314.853	-0.08
315.065	-0
315.277	-0.06
315.488	-0
315.7	0.04
315.912	0.01
316.123	-0.03
316.335	-0.03
316.546	0.1
316.758	-0.03
316.969	-0.02
317.181	-0.01
317.392	-0
317.604	0.04
317.815	-0.05
318.026	-0.03
318.238	-0
318.449	-0.01
318.661	-0.09
318.872	-0.08
319.083	-0.09
319.295	0
319.506	-0.02
319.717	0
319.929	0.02
320.14	-0.03
320.351	0.03
320.562	-0.03
320.774	-0.02
320.985	-0.01
321.196	-0.05
321.407	-0.06
321.618	-0.01
321.829	0.01
322.041	0
322.252	-0.03
322.463	0.01
322.674	0.03
322.885	-0.03
323.096	-0.07
323.307	-0.05
323.518	-0
323.729	-0.04
323.94	-0
324.151	-0.07
324.362	-0.03
324.573	-0
324.784	-0.04
324.995	0.07
325.206	-0.01
325.417	-0.02
325.628	-0.03
325.838	-0.01
326.049	-0.05
326.26	0.03
326.471	-0.05
326.682	-0.02
326.892	-0.01
327.103	-0.06
327.314	-0.06
327.525	-0
327.735	-0.05
327.946	-0.02
328.157	-0.06
328.368	-0
328.578	-0.08
328.789	-0
328.999	0.01
329.21	-0.08
329.421	0
329.631	-0.07
329.842	-0.01
330.052	0
330.263	0.04
330.473	0.01
330.684	-0.02
330.894	-0.02
331.105	-0.03
331.315	-0.02
331.526	-0.07
331.736	0.1
331.947	0.02
332.157	-0.01
332.367	-0.05
332.578	0.01
332.788	0.03
332.999	0.04
333.209	-0
333.419	-0.07
333.629	0.01
333.84	0.01
334.05	-0.01
334.26	0.05
334.47	-0
334.681	0.03
334.891	-0.02
335.101	0.02
335.311	0.03
335.521	-0.02
335.732	-0.05
335.942	0.06
336.152	-0.02
336.362	-0.01
336.572	-0.04
336.782	0.05
336.992	-0.03
337.202	-0.01
337.412	-0.04
337.622	0.01
337.832	-0
338.042	-0.04
338.252	-0.09
338.462	-0
338.672	-0
338.882	0.01
339.092	-0.05
339.302	0.08
339.511	0
339.721	-0.04
339.931	-0.04
340.141	0.03
340.351	0.04
340.561	0.05
340.77	-0.01
340.98	0
341.19	0
341.4	-0.01
341.609	-0.03
341.819	-0
342.029	-0.09
342.238	0
342.448	-0.06
342.658	0
342.867	0.01
343.077	-0.01
343.286	0.01
343.496	-0.03
343.706	0.06
343.915	-0.08
344.125	-0.01
344.334	0.01
344.544	-0.08
344.753	-0.03
344.963	-0.04
345.172	-0.03
345.381	0.04
345.591	-0.05
345.8	-0.02
346.01	0.01
346.219	0.01
346.428	-0.14
346.638	-0.04
346.847	-0.02
347.056	0.02
347.266	-0.04
347.475	-0.01
347.684	0.01
347.893	-0.02
348.103	0.01
348.312	-0.01
348.521	-0.01
348.73	0
348.94	-0.01
349.149	-0.05
349.358	-0.02
349.567	-0.02
349.776	-0.06
349.985	-0.03
350.194	-0.01
350.403	0.01
350.612	-0.05
350.821	-0.03
351.03	-0.04
351.239	-0.02
351.448	-0.05
351.657	-0.01
351.866	0.06
352.075	-0.03
352.284	-0.03
352.493	-0.07
352.702	0.03
352.911	-0
353.12	0.01
353.329	-0.05
353.538	-0.01
353.746	-0.02
353.955	-0.02
354.164	-0.01
354.373	0.02
354.582	-0
354.79	-0.02
354.999	0.01
355.208	-0.04
355.416	0.07
355.625	-0.03
355.834	-0.02
356.042	-0.04
356.251	-0.05
356.46	-0.07
356.668	-0.03
356.877	0.07
357.085	0.01
357.294	-0.09
357.503	-0.01
357.711	-0.03
357.92	0.09
358.128	0.04
358.337	-0.03
358.545	-0.01
358.754	-0.04
358.962	-0.01
359.17	-0.02
359.379	0.02
359.587	0.01
359.796	-0.03
360.004	0.01
360.212	-0.01
360.421	0.04
360.629	-0.05
360.837	-0.04
361.046	0.06
361.254	0.09
361.462	-0.03
361.67	-0.05
361.879	-0.02
362.087	0.05
362.295	-0.02
362.503	-0.02
362.711	-0.01
362.92	-0.04
363.128	-0.05
363.336	-0.09
363.544	-0.07
363.752	-0.08
363.96	-0.06
364.168	-0.05
364.376	-0.01
364.584	0.03
364.792	0
365	-0.01
365.208	-0.01
365.416	-0.04
365.624	0.01
365.832	-0.04
366.04	0.04
366.248	0.03
366.456	0
366.664	0.02
366.872	-0.03
367.079	-0.01
367.287	-0.02
367.495	0.01
367.703	0
367.911	-0
368.118	0
368.326	-0.01
368.534	-0.05
368.742	0.04
368.949	-0.04
369.157	-0.06
369.365	0.03
369.572	-0.04
369.78	-0.02
369.988	0.02
370.195	0.03
370.403	-0.02
370.61	-0.05
370.818	-0
371.026	0.02
371.233	0.01
371.441	-0.02
371.648	-0.05
371.856	0.04
372.063	0.01
372.271	-0.05
372.478	-0.03
372.685	-0.05
372.893	0.01
373.1	-0.06
373.308	-0.03
373.515	0.02
373.722	0.02
373.93	0.03
374.137	0
374.344	0.07
374.552	-0.02
374.759	0.02
374.966	-0.05
375.173	-0.04
375.381	0.02
375.588	-0.01
375.795	-0.09
376.002	-0.01
376.209	-0.05
376.417	-0.02
376.624	-0.01
376.831	-0
377.038	-0.04
377.245	-0.07
377.452	-0.03
377.659	0.01
377.866	-0.06
378.073	-0
378.28	-0.04
378.487	0.01
378.694	0.04
378.901	-0.03
379.108	-0.01
379.315	-0.01
379.522	0.09
379.729	-0.02
379.936	-0.02
380.143	-0.03
380.35	-0.06
380.557	-0.06
380.763	0.01
380.97	-0.01
381.177	-0.02
381.384	-0.01
381.591	-0.04
381.797	-0
382.004	-0.01
382.211	0.01
382.418	-0
382.624	0.05
382.831	0.01
383.038	-0.04
383.244	0.01
383.451	-0.03
383.658	-0.01
383.864	-0.04
384.071	-0.06
384.277	0.05
384.484	-0.05
384.69	0.01
384.897	-0.07
385.103	-0.05
385.31	-0
385.516	-0.02
385.723	-0.05
385.929	-0.03
386.136	-0.08
386.342	0.02
386.549	-0.03
386.755	0.03
386.961	0.01
387.168	-0.06
387.374	-0.03
387.58	0.01
387.787	-0.02
387.993	0.01
388.199	-0.06
388.406	-0.06
388.612	-0.02
388.818	-0.05
389.024	-0.05
389.231	-0.01
389.437	0.06
389.643	0.03
389.849	-0.03
390.055	-0.01
390.261	-0
390.467	0.01
390.674	-0.05
390.88	-0.03
391.086	0
391.292	-0.03
391.498	-0.01
391.704	-0
391.91	-0.02
392.116	-0.03
392.322	-0.1
392.528	0
392.734	-0.03
392.94	-0.02
393.146	-0.1
393.352	0.02
393.557	-0.08
393.763	-0.02
393.969	-0.01
394.175	-0
394.381	0.05
394.587	-0.07
394.792	0
394.998	0.02
395.204	0.04
395.41	0
395.615	0.07
395.821	-0.01
396.027	-0.02
396.233	-0.07
396.438	-0.01
396.644	0.04
396.85	0.01
397.055	-0.01
397.261	-0
397.466	0.07
397.672	-0.04
397.878	0.03
398.083	0.01
398.289	-0.04
398.494	0.02
398.7	0
398.905	-0.07
399.111	0.06
399.316	-0.05
399.522	-0.01
399.727	-0.02
399.932	-0.01
400.138	-0.01
400.343	0.05
400.549	0
400.754	-0.03
400.959	-0.05
401.165	-0.04
401.37	0.03
401.575	0.05
401.78	-0.03
401.986	-0.01
402.191	-0.01
402.396	-0.03
402.601	0.03
402.807	-0
403.012	-0
403.217	0.04
403.422	-0.06
403.627	-0.06
403.832	-0.05
404.037	-0.04
404.243	0.02
404.448	-0.03
404.653	-0.02
404.858	-0.04
405.063	0.03
405.268	-0.06
405.473	-0.04
405.678	-0.04
405.883	0.09
406.088	0.03
406.293	-0.1
406.498	-0.04
406.703	-0.02
406.907	-0.02
407.112	-0.07
407.317	0.01
407.522	0.03
407.727	-0.07
407.932	0.01
408.136	0.03
408.341	0.01
408.546	-0.02
408.751	-0.01
408.956	-0.01
409.16	-0.01
409.365	-0.02
409.57	-0.04
409.774	-0.05
409.979	0.04
410.184	0.01
410.388	0.01
410.593	0.02
410.798	0.01
411.002	-0.02
411.207	-0.03
411.411	-0
411.616	-0.04
411.82	-0.07
412.025	0.01
412.229	-0.03
412.434	0.03
412.638	-0.01
412.843	-0.02
413.047	-0.02
413.252	-0.07
413.456	-0.05
413.66	0.01
413.865	-0.06
414.069	0.01
414.273	-0.06
414.478	-0.06
414.682	-0.05
414.886	-0.06
415.091	-0.07
415.295	-0.12
415.499	0.02
415.703	-0.05
415.908	0.04
416.112	-0.08
416.316	0.01
416.52	-0.03
416.724	-0.07
416.929	-0.04
417.133	0.06
417.337	0
417.541	-0.02
417.745	-0.08
417.949	-0.02
418.153	0.02
418.357	-0.11
418.561	0.03
418.765	-0.01
418.969	0.1
419.173	0.04
419.377	-0
419.581	0.03
419.785	0
419.989	-0.05
420.193	-0.01
420.397	0.01
420.601	-0.02
420.804	0.02
421.008	-0.06
421.212	-0.01
421.416	-0.01
421.62	-0.04
421.823	0
422.027	0.04
422.231	-0.01
422.435	-0.03
422.638	-0.01
422.842	-0.05
423.046	-0.01
423.249	0.02
423.453	0.03
423.657	-0.02
423.86	-0.02
424.064	-0.07
424.268	-0.01
424.471	-0.01
424.675	0.04
424.878	0.04
425.082	-0.04
425.285	0.06
425.489	-0.02
425.692	0
425.896	-0.08
426.099	0.02
426.303	-0.02
426.506	-0.1
426.71	0.02
426.913	0.03
427.116	0.03
427.32	-0.04
427.523	0
427.726	0.06
427.93	-0.08
428.133	-0.05
428.336	-0.09
428.54	-0.06
428.743	0.01
428.946	0
429.149	-0.04
429.353	-0.03
429.556	-0.06
429.759	-0.04
429.962	-0.06
430.165	-0.06
430.368	-0.03
430.571	-0.04
430.775	0.03
430.978	-0.06
431.181	-0.01
431.384	0.02
431.587	-0.05
431.79	-0.05
431.993	0.01
432.196	-0.03
432.399	-0.02
432.602	0.03
432.805	-0.03
433.008	-0.04
433.211	-0.09
433.414	0.01
433.616	0.02
433.819	-0.06
434.022	-0.09
434.225	0.05
434.428	-0.02
434.631	0.05
434.833	-0.02
435.036	-0.07
435.239	0.04
435.442	-0.03
435.645	-0.02
435.847	-0.02
436.05	0.03
436.253	0
436.455	-0.07
436.658	-0.02
436.861	0.07
437.063	-0.06
437.266	-0.01
437.468	-0.06
437.671	0.07
437.874	-0.07
438.076	-0.12
438.279	-0.07
438.481	-0.03
438.684	-0.05
438.886	-0.01
439.089	-0.09
439.291	-0.06
439.494	0.02
439.696	-0.08
439.899	-0.05
440.101	0.03
440.303	-0.1
440.506	0.03
440.708	0.04
440.91	0.06
441.113	-0.04
441.315	0
441.517	-0.04
441.72	-0.02
441.922	-0.07
442.124	-0.09
442.326	0.01
442.529	0.05
442.731	-0.04
442.933	0.01
443.135	-0.04
443.337	-0.06
443.539	-0.07
443.742	-0.04
443.944	0.01
444.146	-0.06
444.348	-0.05
444.55	-0.04
444.752	-0.02
444.954	-0.08
445.156	-0.03
445.358	-0.08
445.56	-0.02
445.762	-0.03
445.964	-0.01
446.166	-0.01
446.368	-0.06
446.57	-0.03
446.772	-0.04
446.974	-0.05
447.175	-0.05
447.377	-0.05
447.579	-0.05
447.781	-0.09
447.983	0.09
448.184	-0.03
448.386	-0.01
448.588	-0.09
448.79	0.04
448.991	-0.07
449.193	-0.06
449.395	-0.01
449.597	-0.01
449.798	0.03
450	-0.01
450.202	-0.01
450.403	-0.05
450.605	-0.01
450.806	0
451.008	-0.09
451.21	-0.03
451.411	-0.01
451.613	-0.03
451.814	-0.07
452.016	-0.01
452.217	-0.07
452.419	0.02
452.62	0
452.821	0.03
453.023	0.07
453.224	0.06
453.426	-0.04
453.627	0.03
453.828	-0.01
454.03	-0.01
454.231	-0.02
454.432	-0.04
454.634	0.03
454.835	-0.03
455.036	-0.06
455.238	-0.01
455.439	0.07
455.64	-0.1
455.841	-0.04
456.042	0.05
456.244	-0.04
456.445	-0.1
456.646	-0.08
456.847	-0.04
457.048	0.02
457.249	0.03
457.45	0.18
457.651	-0.05
457.852	0.05
458.054	-0.04
458.255	-0.01
458.456	0.01
458.657	0.02
458.858	-0.08
459.058	0.02
459.259	0.02
459.46	-0.07
459.661	-0.02
459.862	0.05
460.063	-0.03
460.264	0.05
460.465	-0.1
460.666	0.07
460.866	0.02
461.067	-0.05
461.268	-0.04
461.469	-0.05
461.67	-0
461.87	-0.05
462.071	-0.05
462.272	-0.04
462.473	-0.02
462.673	-0.02
462.874	-0.05
463.075	-0.04
463.275	-0.05
463.476	-0.02
463.676	-0.02
463.877	-0.01
464.078	-0.04
464.278	0.04
464.479	-0.05
464.679	-0.03
464.88	0.01
465.08	0.06
465.281	-0.07
465.481	-0.03
465.682	-0.03
465.882	0.04
466.083	-0.01
466.283	-0
466.483	0.01
466.684	-0.02
466.884	-0.04
467.085	-0.05
467.285	0.02
467.485	-0.08
467.686	-0.04
467.886	-0.05
468.086	-0.01
468.286	-0.01
468.487	0.02
468.687	-0.07
468.887	-0.06
469.087	0.02
469.287	0.01
469.488	-0.04
469.688	-0.03
469.888	0.06
470.088	-0.02
470.288	-0.02
470.488	0.04
470.688	-0.04
470.888	-0.03
471.088	-0.04
471.288	0.01
471.488	-0.02
471.688	0
471.888	-0.09
472.088	-0.01
472.288	0.02
472.488	-0.04
472.688	-0.07
472.888	-0.04
473.088	-0.06
473.288	-0.03
473.488	-0.03
473.688	0.03
473.887	-0.06
474.087	-0.01
474.287	-0.01
474.487	-0.01
474.687	-0.03
474.886	-0.07
475.086	-0.05
475.286	-0.03
475.486	-0.01
475.685	-0.05
475.885	-0.04
476.085	-0.01
476.284	0.02
476.484	0
476.684	0.01
476.883	0.02
477.083	-0.01
477.282	-0.05
477.482	0.03
477.681	0.05
477.881	-0.01
478.08	-0.04
478.28	-0.03
478.479	0.02
478.679	0.02
478.878	-0.03
479.078	-0.05
479.277	-0.03
479.477	-0.03
479.676	0.01
479.875	-0.01
480.075	-0.04
480.274	0.04
480.473	-0.01
480.673	-0.04
480.872	0.04
481.071	0.02
481.271	0.01
481.47	-0.05
481.669	-0.01
481.868	-0.03
482.067	-0.05
482.267	-0.02
482.466	-0.04
482.665	-0.03
482.864	-0.03
483.063	-0.06
483.262	-0
483.461	0.04
483.661	0.01
483.86	-0.01
484.059	-0.02
484.258	-0.01
484.457	-0
484.656	-0.01
484.855	0.01
485.054	-0.06
485.253	-0.04
485.452	-0.03
485.651	-0.02
485.849	0.03
486.048	-0.01
486.247	-0.04
486.446	-0
486.645	-0.03
486.844	-0.03
487.043	-0.02
487.241	0.01
487.44	-0.05
487.639	-0.02
487.838	0.01
488.037	0.02
488.235	0.05
488.434	-0.01
488.633	-0.03
488.831	-0
489.03	0.04
489.229	0.01
489.427	-0.03
489.626	0
489.825	0.02
490.023	-0.01
490.222	-0.02
490.42	-0.01
490.619	0.03
490.817	0.01
491.016	-0.02
491.214	-0
491.413	-0.01
491.611	-0.02
491.81	-0.02
492.008	0
492.207	0
492.405	-0
492.604	-0.05
492.802	-0.02
493	-0.03
493.199	-0.03
493.397	-0.02
493.595	-0.01
493.794	-0.02
493.992	0.03
494.19	-0
494.388	0
494.587	-0.03
494.785	0
494.983	-0.04
495.181	-0.01
495.379	-0.02
495.578	-0.05
495.776	-0.03
495.974	0
496.172	-0.04
496.37	-0.04
496.568	-0.03
496.766	-0.03
496.964	0.02
497.162	-0.02
497.36	-0.04
497.558	0.01
497.756	0.02
497.954	0.01
498.152	-0.05
498.35	-0.01
498.548	-0.04
498.746	-0
498.944	-0.05
499.142	-0.02
499.34	-0.06
499.538	-0.01
499.736	-0.04
499.933	0.02
500.131	0.03
500.329	-0.02
500.527	0.01
500.725	0.02
500.922	-0.01
501.12	-0
501.318	-0.01
501.516	-0.02
501.713	-0.01
501.911	-0.02
502.109	-0.04
502.306	-0
502.504	-0
502.701	-0.04
502.899	-0.02
503.097	0.03
503.294	-0
503.492	-0.02
503.689	0.01
503.887	0.02
504.084	0.03
504.282	-0.01
504.479	-0.04
504.677	-0
504.874	-0.05
505.072	0
505.269	-0.02
505.466	0.01
505.664	-0
505.861	-0.03
506.059	-0.05
506.256	-0.03
506.453	-0.05
506.651	0.04
506.848	0.01
507.045	-0.01
507.242	-0.01
507.44	-0.02
507.637	-0.03
507.834	-0.03
508.031	0.01
508.229	-0.01
508.426	-0.02
508.623	0.01
508.82	-0.02
509.017	-0.06
509.214	-0.02
509.411	-0.02
509.608	-0.03
509.805	-0.05
510.003	-0.04
510.2	-0.02
510.397	-0.01
510.594	-0.02
510.791	-0.03
510.988	-0.03
511.184	-0.01
511.381	-0
511.578	-0.02
511.775	0
511.972	-0.03
512.169	-0.01
512.366	-0.01
512.563	0.03
512.76	-0.03
512.956	0.01
513.153	-0.01
513.35	-0.03
513.547	-0.02
513.744	-0.03
513.94	-0.04
514.137	0
514.334	-0
514.53	0
514.727	-0
514.924	0.04
515.12	-0.03
515.317	-0.04
515.514	-0.02
515.71	-0.02
515.907	-0.01
516.103	-0.02
516.3	-0
516.497	0.03
516.693	0.02
516.89	-0.02
517.086	-0.04
517.283	0.02
517.479	0
517.676	-0.01
517.872	-0
518.068	-0.04
518.265	-0.04
518.461	-0.04
518.658	-0.03
518.854	0
519.05	-0.03
519.247	-0.02
519.443	-0.02
519.639	-0
519.836	-0.02
520.032	-0.02
520.228	-0.02
520.424	0.01
520.621	0.01
520.817	-0.01
521.013	0.01
521.209	-0
521.405	0.03
521.601	-0.01
521.798	-0
521.994	0.02
522.19	-0.03
522.386	-0.04
522.582	-0.01
522.778	-0.02
522.974	-0.01
523.17	-0.03
523.366	-0.03
523.562	0.01
523.758	-0.01
523.954	-0.04
524.15	-0.02
524.346	-0
524.542	-0.03
524.738	-0.04
524.934	-0.02
525.129	-0.07
525.325	0.02
525.521	-0.02
525.717	0.02
525.913	-0.02
526.109	-0.04
526.304	-0.01
526.5	0.01
526.696	0.01
526.892	-0.01
527.087	-0.01
527.283	-0.03
527.479	-0.01
527.674	-0.03
527.87	-0.01
528.066	-0.05
528.261	0.02
528.457	-0
528.653	-0.02
528.848	-0.03
529.044	-0.01
529.239	-0.02
529.435	0.02
529.63	0
529.826	0.01
530.021	-0
530.217	0.01
530.412	-0.03
530.608	-0.03
530.803	-0.01
530.999	-0.01
531.194	-0.05
531.389	-0.01
531.585	-0.06
531.78	-0.02
531.975	-0.02
532.171	0.02
532.366	-0.03
532.561	-0
532.757	-0.04
532.952	-0.02
533.147	0.02
533.342	-0.01
533.538	-0.03
533.733	0.02
533.928	-0.02
534.123	-0.02
534.318	-0.04
534.513	-0.01
534.709	-0
534.904	-0.03
535.099	-0.03
535.294	0.01
535.489	0.01
535.684	-0.05
535.879	-0.04
536.074	0.01
536.269	-0.02
536.464	-0
536.659	-0.02
536.854	-0.02
537.049	0
537.244	-0.01
537.439	-0.03
537.634	0.02
537.828	-0
538.023	-0.01
538.218	-0.03
538.413	0
538.608	-0.04
538.803	0.01
538.997	-0.03
539.192	0.02
539.387	0
539.582	-0
539.776	-0.03
539.971	-0.04
540.166	-0.03
540.36	-0.03
540.555	-0.01
540.75	-0.01
540.944	-0.01
541.139	-0.05
541.334	-0.02
541.528	0.03
541.723	-0.01
541.917	-0.03
542.112	-0.04
542.306	-0.01
542.501	-0.03
542.695	-0.01
542.89	-0.04
543.084	-0
543.279	-0.01
543.473	-0.03
543.668	-0.01
543.862	-0.03
544.056	-0.01
544.251	-0.02
544.445	0.01
544.64	-0.02
544.834	-0.04
545.028	-0
545.222	-0
545.417	0.01
545.611	-0.02
545.805	-0.01
546	-0.02
546.194	-0.01
546.388	-0.04
546.582	0.02
546.776	-0.01
546.97	-0
547.165	-0
547.359	0.01
547.553	-0.02
547.747	-0.03
547.941	-0.01
548.135	-0.02
548.329	0.01
548.523	0.01
548.717	-0.03
548.911	-0.03
549.105	-0.02
549.299	-0.02
549.493	-0
549.687	0.01
549.881	0
550.075	-0
550.269	-0.04
550.463	-0
550.657	-0.02
550.85	-0.01
551.044	-0.02
551.238	-0.01
551.432	-0.04
551.626	-0.06
551.82	-0.01
552.013	-0.01
552.207	0
552.401	0.01
552.594	-0.01
552.788	-0.02
552.982	-0
553.176	-0.02
553.369	-0.02
553.563	-0
553.756	-0.05
553.95	-0.03
554.144	-0.02
554.337	0.02
554.531	0
554.724	-0.01
554.918	-0.03
555.111	0.02
555.305	-0.02
555.498	0.02
555.692	0.01
555.885	-0.03
556.079	-0
556.272	-0.02
556.466	-0
556.659	-0.02
556.852	-0.02
557.046	0
557.239	0
557.432	-0.05
557.626	-0.03
557.819	-0.01
558.012	0
558.206	-0
558.399	-0
558.592	-0.01
558.785	-0.03
558.979	0
559.172	0.02
559.365	0.01
559.558	-0.01
559.751	-0.01
559.944	-0.03
560.138	-0.03
560.331	-0.02
560.524	-0.03
560.717	-0
560.91	0
561.103	0.01
561.296	0
561.489	0.01
561.682	0.01
561.875	0.04
562.068	0.01
562.261	-0
562.454	0.02
562.647	-0
562.84	0
563.032	-0.02
563.225	-0
563.418	-0.01
563.611	-0.02
563.804	0.01
563.997	-0.01
564.19	-0.03
564.382	-0.07
564.575	-0.04
564.768	-0.02
564.961	-0.04
565.153	-0.03
565.346	0
565.539	0.01
565.731	-0
565.924	0.01
566.117	0.01
566.309	-0.01
566.502	-0.02
566.695	-0.01
566.887	-0.01
567.08	-0.04
567.272	-0.01
567.465	-0.02
567.657	-0
567.85	0
568.042	0.01
568.235	0
568.427	-0
568.62	-0.03
568.812	0
569.005	-0.01
569.197	-0.03
569.389	-0
569.582	-0.01
569.774	-0
569.966	-0.05
570.159	-0.05
570.351	-0.01
570.543	-0.03
570.736	-0.01
570.928	-0.02
571.12	0.01
571.312	-0.03
571.505	-0.04
571.697	0.01
571.889	-0.02
572.081	-0
572.273	-0.02
572.465	0.01
572.658	-0.03
572.85	0.02
573.042	-0.02
573.234	-0.01
573.426	0.01
573.618	-0.04
573.81	0.01
574.002	0.02
574.194	0.03
574.386	-0.05
574.578	-0.06
574.77	-0.04
574.962	-0
575.154	-0.06
575.346	-0.03
575.538	0.01
575.729	-0.04
575.921	-0.04
576.113	-0.02
576.305	0.01
576.497	-0.02
576.689	-0
576.88	-0.03
577.072	0.01
577.264	-0.01
577.456	-0
577.647	-0.07
577.839	-0.02
578.031	0.04
578.223	-0.07
578.414	-0.03
578.606	0.01
578.798	-0.01
578.989	-0.01
579.181	-0.03
579.372	-0.03
579.564	-0.03
579.755	-0.02
579.947	-0.02
580.139	0
580.33	-0.04
580.522	-0.03
580.713	-0.08
580.905	-0.01
581.096	0
581.287	-0
581.479	-0.02
581.67	-0
581.862	0.01
582.053	-0.01
582.244	-0.06
582.436	-0.02
582.627	-0.02
582.818	-0.02
583.01	-0.05
583.201	0.03
583.392	-0.02
583.583	-0.03
583.775	-0
583.966	-0.04
584.157	-0.03
584.348	-0.03
584.54	-0.06
584.731	-0.01
584.922	-0
585.113	-0.03
585.304	0.01
585.495	0.02
585.686	-0
585.877	0.02
586.068	-0.01
586.259	-0.01
586.45	-0.03
586.641	-0.02
586.832	-0.06
587.023	-0.01
587.214	-0.01
587.405	0
587.596	-0.02
587.787	0.01
587.978	0.01
588.169	-0.03
588.36	-0.03
588.551	-0.01
588.742	-0.03
588.932	-0.02
589.123	-0.01
589.314	0
589.505	-0.01
589.696	0.01
589.886	-0.05
590.077	-0.04
590.268	-0.03
590.458	-0.04
590.649	-0.04
590.84	0.02
591.03	-0.06
591.221	-0.04
591.412	-0.05
591.602	0.01
591.793	0.04
591.984	-0.02
592.174	0
592.365	0.04
592.555	-0.05
592.746	-0
592.936	0
593.127	0.01
593.317	0.03
593.508	-0.03
593.698	-0.03
593.889	-0.01
594.079	0.01
594.269	-0.03
594.46	-0.01
594.65	-0
594.84	-0.03
595.031	-0.03
595.221	-0.03
595.411	-0.07
595.602	-0
595.792	-0.02
595.982	-0
596.172	0.02
596.363	-0.02
596.553	-0.02
596.743	-0
596.933	-0.02
597.123	0.02
597.314	-0.02
597.504	-0.05
597.694	0.02
597.884	-0.02
598.074	-0.01
598.264	-0.02
598.454	-0
598.644	-0
598.834	-0.04
599.024	-0.06
599.214	-0.03
599.404	0
599.594	-0.03
599.784	-0.04
599.974	0.02
600.164	0
600.354	-0.04
600.544	-0.05
600.734	-0
600.924	0.01
601.114	-0.05
601.303	0.01
601.493	0
601.683	-0.02
601.873	-0
602.063	-0.05
602.252	0
602.442	-0.07
602.632	-0.05
602.821	-0.05
603.011	0.01
603.201	-0.02
603.39	-0.04
603.58	-0.04
603.77	-0.01
603.959	0.01
604.149	-0.04
604.339	-0.01
604.528	0.01
604.718	0
604.907	-0.01
605.097	-0.05
605.286	-0.07
605.476	-0
605.665	-0.02
605.855	-0.02
606.044	0.01
606.234	-0.02
606.423	0
606.612	-0.04
606.802	0.01
606.991	-0.03
607.181	-0.02
607.37	-0.05
607.559	-0
607.749	-0.05
607.938	-0.02
608.127	-0.03
608.316	-0.04
608.506	-0.01
608.695	-0.02
608.884	-0.05
609.073	-0.02
609.263	0.02
609.452	-0.01
609.641	-0
609.83	-0.04
610.019	-0.01
610.208	-0.02
610.397	-0.03
610.586	0.01
610.775	-0.04
610.965	-0.03
611.154	-0.02
611.343	-0.02
611.532	0
611.721	-0.04
611.91	-0.03
612.099	-0.01
612.287	-0.03
612.476	-0.05
612.665	-0.02
612.854	-0.05
613.043	0.02
613.232	-0.03
613.421	-0.05
613.61	0
613.798	0
613.987	-0.01
614.176	-0.02
614.365	-0.01
614.554	-0.02
614.742	-0.03
614.931	-0.02
615.12	-0.02
615.309	-0.03
615.497	-0.01
615.686	-0.04
615.875	-0.02
616.063	0
616.252	-0.02
616.44	-0.01
616.629	-0.02
616.818	0
617.006	-0.01
617.195	-0.04
617.383	-0
617.572	-0.03
617.76	-0.03
617.949	-0.02
618.137	0
618.326	0
618.514	-0.06
618.703	-0.02
618.891	0.04
619.079	-0.07
619.268	0.01
619.456	-0.03
619.644	0
619.833	-0.03
620.021	-0.03
620.209	-0.08
620.398	0.01
620.586	-0.02
620.774	0.02
620.962	-0.02
621.151	0.02
621.339	-0.03
621.527	-0.05
621.715	-0.04
621.903	-0.04
622.092	-0.05
622.28	-0.04
622.468	-0.01
622.656	-0.02
622.844	-0.01
623.032	-0.04
623.22	-0.08
623.408	0.02
623.596	-0.02
623.784	0.04
623.972	-0.04
624.16	-0.03
624.348	0.02
624.536	-0.03
624.724	-0.04
624.912	0.03
625.1	0.01
625.288	-0.04
625.476	-0.03
625.664	0.02
625.851	-0.02
626.039	-0.05
626.227	-0.01
626.415	-0.05
626.603	-0.07
626.79	0.02
626.978	-0.01
627.166	0.01
627.354	-0.03
627.541	-0.03
627.729	-0.07
627.917	0.01
628.104	0.01
628.292	0.03
628.48	-0.02
628.667	-0.01
628.855	0
629.042	-0
629.23	-0.04
629.418	-0.03
629.605	-0.01
629.793	-0.05
629.98	-0.04
630.168	-0.03
630.355	-0.05
630.543	0.01
630.73	-0.07
630.917	0
631.105	0.04
631.292	-0.01
631.48	-0.02
631.667	-0.01
631.854	-0.03
632.042	-0.01
632.229	-0.03
632.416	-0.01
632.604	-0.05
632.791	-0.05
632.978	0.02
633.165	0.01
633.353	0.04
633.54	0.03
633.727	-0.1
633.914	-0.07
634.101	-0.09
634.289	0.02
634.476	-0.06
634.663	-0.03
634.85	-0.02
635.037	-0.06
635.224	-0.07
635.411	0.01
635.598	0.01
635.785	-0.02
635.972	-0.02
636.159	-0
636.346	-0.04
636.533	0.01
636.72	-0.01
636.907	-0.04
637.094	0.01
637.281	-0.04
637.468	0.02
637.655	-0.01
637.842	0.01
638.029	-0.05
638.215	0.03
638.402	-0.02
638.589	-0.03
638.776	-0.05
638.963	-0.05
639.149	0.03
639.336	0.03
639.523	-0
639.709	-0.02
639.896	-0.03
640.083	0.04
640.27	-0
640.456	-0.03
640.643	0.01
640.829	-0.07
641.016	-0.04
641.203	-0.04
641.389	0.04
641.576	-0.01
641.762	-0.02
641.949	-0.03
642.135	-0
642.322	0
642.508	-0.06
642.695	-0.03
642.881	-0.01
643.068	-0.02
643.254	-0.01
643.441	-0
643.627	-0.03
643.813	-0.04
644	0.01
644.186	-0.04
644.372	-0.05
644.559	0.01
644.745	-0.03
644.931	-0.02
645.118	0.01
645.304	-0.02
645.49	-0.05
645.676	-0
645.862	0.02
646.049	0.04
646.235	-0.01
646.421	0.05
646.607	0.03
646.793	-0.05
646.979	-0.04
647.165	0.02
647.352	0.01
647.538	0.03
647.724	0.03
647.91	0
648.096	0.06
648.282	0.02
648.468	-0
648.654	0.01
648.84	-0.01
649.026	-0.02
649.212	0.02
649.397	-0.05
649.583	-0.07
649.769	0.03
649.955	-0
650.141	0.01
650.327	0.06
650.513	-0.03
650.698	0.03
650.884	-0.05
651.07	0.02
651.256	-0.02
651.442	-0
651.627	-0.01
651.813	0.03
651.999	-0.01
652.184	0.03
652.37	-0.01
652.556	-0.02
652.741	0.05
652.927	-0.04
653.113	-0.01
653.298	0.01
653.484	0
653.669	-0.05
653.855	0.01
654.04	0.02
654.226	0.03
654.412	0.02
654.597	-0.05
654.782	0.02
654.968	0.04
655.153	0.02
655.339	-0.02
655.524	-0.04
655.71	0.05
655.895	-0.03
656.08	0
656.266	0.02
656.451	0.02
656.636	-0.02
656.822	0.01
657.007	-0.06
657.192	-0.01
657.378	-0.05
657.563	0.02
657.748	0.01
657.933	0.02
658.118	-0.01
658.304	-0.01
658.489	0.07
658.674	0.05
658.859	-0.04
659.044	0.02
659.229	0.02
659.414	-0.01
659.599	-0.01
659.785	-0.04
659.97	-0
660.155	0.06
660.34	0.04
660.525	0.01
660.71	0
660.895	0.05
661.08	-0.02
661.264	-0.03
661.449	0.05
661.634	0.06
661.819	0.01
662.004	0.05
662.189	-0.1
662.374	-0.02
662.559	-0.04
662.743	-0.06
662.928	0.01
663.113	-0.02
663.298	-0.06
663.483	-0.02
663.667	0.01
663.852	-0.05
664.037	0.04
664.221	-0.04
664.406	0.02
664.591	0.01
664.775	0
664.96	0
665.145	-0.01
665.329	0.01
665.514	-0.04
665.698	0.01
665.883	-0.08
666.068	0.07
666.252	-0
666.437	-0.03
666.621	-0
666.806	0.01
666.99	-0.02
667.174	-0.05
667.359	0.01
667.543	-0.02
667.728	-0.05
667.912	-0.08
668.096	0.02
668.281	-0.04
668.465	-0.06
668.649	-0.03
668.834	-0.08
669.018	-0.01
669.202	-0.01
669.387	-0.07
669.571	-0.01
669.755	-0.06
669.939	-0.03
670.124	0
670.308	0.04
670.492	0.05
670.676	0.01
670.86	0
671.044	-0.04
671.228	0.03
671.413	-0.03
671.597	-0.04
671.781	-0.07
671.965	-0.03
672.149	-0.01
672.333	-0.01
672.517	-0.04
672.701	0.03
672.885	-0.02
673.069	-0.05
673.253	-0.02
673.437	-0.04
673.621	-0.05
673.804	-0.01
673.988	-0
674.172	-0.03
674.356	-0.05
674.54	-0.05
674.724	0.05
674.908	-0.05
675.091	0
675.275	-0.06
675.459	0.02
675.643	-0.05
675.826	-0.03
676.01	-0.02
676.194	-0.03
676.377	0.02
676.561	0.01
676.745	-0.03
676.928	-0.01
677.112	0.01
677.296	-0.07
677.479	-0.06
677.663	-0.01
677.846	0
678.03	-0.03
678.213	-0.05
678.397	-0.02
678.58	-0.01
678.764	-0.05
678.947	-0.11
679.131	-0.06
679.314	-0.05
679.498	-0.08
679.681	-0.01
679.865	0.08
680.048	-0.04
680.231	-0.05
680.415	-0.03
680.598	-0.02
680.781	-0.05
680.965	-0.04
681.148	-0
681.331	-0.05
681.514	0.02
681.698	-0.05
681.881	0.02
682.064	-0.02
682.247	-0.02
682.43	-0.1
682.614	0.01
682.797	0.06
682.98	0.02
683.163	-0.07
683.346	-0
683.529	-0.07
683.712	-0.05
683.895	0.01
684.078	-0.09
684.261	-0.03
684.444	-0.02
684.627	-0.03
684.81	-0.07
684.993	-0.05
685.176	-0.02
685.359	-0.06
685.542	-0.03
685.725	0.04
685.908	-0.03
686.091	-0.07
686.274	0.07
686.457	0.02
686.639	-0.03
686.822	0.02
687.005	-0.06
687.188	0.03
687.371	0.03
687.553	-0.04
687.736	0.02
687.919	0.07
688.102	0.04
688.284	-0
688.467	-0.04
688.65	-0.02
688.832	-0.06
689.015	0
689.197	-0.1
689.38	0.08
689.563	0.06
689.745	-0.06
689.928	-0.06
690.11	-0
690.293	-0.03
690.475	-0.08
690.658	-0.02
690.84	-0.04
691.023	-0.08
691.205	-0.06
691.388	-0.03
691.57	0.02
691.752	-0.04
691.935	-0.11
692.117	-0.1
692.3	0.01
692.482	-0.06
692.664	-0.05
692.847	-0.01
693.029	0.04
693.211	0.05
693.393	0
693.576	-0.07
693.758	-0.03
693.94	-0.05
694.122	-0.08
694.304	0.02
694.487	-0.03
694.669	0.02
694.851	-0.04
695.033	-0.03
695.215	-0.04
695.397	-0.03
695.579	-0.01
695.761	-0.04
695.943	-0.11
696.125	0.07
696.308	-0.02
696.49	-0.12
696.671	0.08
696.853	-0.07
697.035	0.08
697.217	0
697.399	-0.05
697.581	-0.06
697.763	0.01
697.945	-0.06
698.127	-0.01
698.309	-0
698.491	-0.06
698.672	0.05
698.854	0.01
699.036	0.03
699.218	-0.09
699.399	0.02
699.581	-0.03
699.763	-0.03
699.945	-0.06
700.126	-0.04
700.308	0.03
700.49	-0.04
700.671	-0.13
700.853	-0.04
701.035	-0.04
701.216	-0.01
701.398	-0.12
701.579	-0.03
701.761	0.05
701.943	-0.05
702.124	-0.11
702.306	-0.01
702.487	0.13
702.669	-0.02
702.85	-0.07
703.031	-0.09
703.213	0.07
703.394	-0
703.576	-0.09
703.757	0.06
703.938	0.03
704.12	0.12
704.301	0
704.483	-0.09
704.664	0.02
704.845	0.04
705.026	0.01
705.208	-0.03
705.389	-0.07
705.57	-0.05
705.751	-0.02
705.933	-0.03
706.114	0.05
706.295	0
706.476	-0.13
706.657	0.08
706.838	0.03
707.02	0.03
707.201	-0.07
707.382	-0.08
707.563	0.04
707.744	-0.04
707.925	-0.04
708.106	-0.02
708.287	-0.01
708.468	0.04
708.649	-0.04
708.83	-0.01
709.011	-0.03
709.192	-0.04
709.373	-0.09
709.554	0
709.734	-0.01
709.915	0.05
710.096	0.01
710.277	-0.13
710.458	-0.06
710.639	-0.01
710.819	-0.12
711	-0.02
711.181	0.06
711.362	0.05
711.542	-0.02
711.723	-0.02
711.904	-0
712.085	-0
712.265	-0
712.446	-0.14
712.627	-0.05
712.807	-0.06
712.988	-0.06
713.168	-0.16
713.349	0.04
713.53	-0.17
713.71	-0.04
713.891	-0.08
714.071	-0.05
714.252	-0.1
714.432	-0.05
714.613	-0.1
714.793	-0.06
714.974	0
715.154	0.04
715.334	-0.04
715.515	0.01
715.695	-0.09
715.876	-0
716.056	-0.04
716.236	-0.1
716.417	-0.08
716.597	-0.13
716.777	0.13
716.957	-0.02
717.138	-0.08
717.318	-0.06
717.498	-0.06
717.678	-0.01
717.859	0.05
718.039	-0.15
718.219	-0.02
718.399	0.11
718.579	-0.11
718.759	-0.1
718.939	-0.06
719.12	0.03
719.3	0.03
719.48	-0.14
719.66	-0.1
719.84	0.11
720.02	-0.04
720.2	-0.05
720.38	-0.01
720.56	0.03
720.74	-0.05
720.92	-0.06
721.1	0.06
721.279	0.05
721.459	0.02
721.639	-0.12
721.819	-0.01
721.999	-0.05
722.179	0.06
722.359	-0.07
722.538	0.01
722.718	-0.01
722.898	-0.1
723.078	-0.05
723.257	-0.03
723.437	-0.01
723.617	0.02
723.797	-0.08
723.976	0.01
724.156	0.03
724.336	0.07
724.515	0.11
724.695	-0.12
724.874	-0.05
725.054	-0.02
725.234	-0.1
725.413	0.03
725.593	-0.05
725.772	-0.07
725.952	-0.03
726.131	-0.04
726.311	-0.01
726.49	-0.02
726.67	-0.1
726.849	-0.04
727.028	-0.06
727.208	-0.14
727.387	0.06
727.567	-0.08
727.746	-0.02
727.925	-0.03
728.105	-0.16
728.284	-0.07
728.463	-0.13
728.643	-0.07
728.822	-0.17
729.001	-0.08
729.18	0.01
729.359	0.02
729.539	-0.09
729.718	-0.02
729.897	0.04
730.076	-0.03
730.255	-0.2
730.434	-0.01
730.614	-0.01
730.793	0.08
730.972	-0.03
731.151	-0.06
731.33	0.1
731.509	0.04
731.688	-0.08
731.867	-0.02
732.046	-0.15
732.225	0.15
732.404	-0.12
732.583	-0.17
732.762	-0.1
732.941	0.01
733.12	-0.04
733.298	0.01
733.477	-0.02
733.656	0.01
733.835	-0.11
734.014	0.09
734.193	0
734.371	0.03
734.55	0.02
734.729	-0.15
734.908	0
735.086	0.03
735.265	0.05
735.444	-0.17
735.623	-0.09
735.801	-0.12
735.98	0.01
736.159	-0.13
736.337	0.1
736.516	0.03
736.694	-0.05
736.873	-0.01
737.052	0.02
737.23	0.13
737.409	-0.16
737.587	0.11
737.766	-0.22
737.944	-0.12
738.123	-0.01
738.301	-0.04
738.479	-0.16
738.658	-0.02
738.836	-0.22
739.015	-0
739.193	0.07
739.371	-0.16
739.55	-0.17
739.728	-0.06
739.906	-0.01
740.085	0.17
740.263	-0.13
740.441	-0.25
740.62	0.17
740.798	0.03
740.976	-0.12
741.154	-0.17
741.332	0.06
741.511	-0.1
741.689	0.03
741.867	-0.09
742.045	0.01
742.223	-0.13
742.401	-0.15
742.579	-0.14
742.757	0.07
742.935	-0.14
743.114	-0.02
743.292	-0.08
743.47	-0.04
743.648	-0.04
743.826	-0.12
744.004	0.04
744.181	-0.03
744.359	-0.11
744.537	0.03
744.715	-0.07
744.893	-0.12
745.071	-0.09
745.249	-0.05
745.427	-0.02
745.605	-0.02
745.782	-0.06
745.96	0.08
746.138	0.01
746.316	0.07
746.493	-0.08
746.671	-0.04
746.849	-0.03
747.027	0.02
747.204	-0.08
747.382	0.03
747.56	-0.08
747.737	-0.17
747.915	-0.13
748.093	0.04
748.27	-0.07
748.448	-0.2
748.625	-0.17
748.803	-0.16
748.98	-0.12
749.158	-0.05
749.335	-0.03
749.513	-0.06
749.69	-0.03
749.868	-0.02
750.045	-0.08
750.223	-0.07
750.4	-0.27
750.578	0.1
750.755	-0.09
750.932	-0.1
751.11	0.06
751.287	-0.1
751.464	-0.01
751.642	-0.06
751.819	0.05
751.996	-0.04
752.173	-0.06
752.351	-0.08
752.528	-0.02
752.705	0
752.882	-0.19
753.06	-0.03
753.237	0.06
753.414	0.08
753.591	0.1
753.768	-0.07
753.945	-0.05
754.122	-0.18
754.299	0.03
754.476	-0.12
754.654	-0.1
754.831	0.01
755.008	-0.03
755.185	-0.17
755.362	-0.16
755.539	-0.01
755.716	-0.09
755.892	-0.06
756.069	0.03
756.246	-0.14
756.423	-0.08
756.6	0.1
756.777	-0.02
756.954	-0.05
757.131	-0.06
757.307	-0.16
757.484	-0.13
757.661	0.02
757.838	-0.01
758.015	-0.14
758.191	-0.01
758.368	0.08
758.545	0.15
758.721	-0.06
758.898	-0.09
759.075	0.01
759.251	-0.04
759.428	0.15
759.605	-0.17
759.781	-0.06
759.958	-0.06
760.134	0.05
760.311	-0.2
760.488	0.03
760.664	0.13
760.841	-0.04
761.017	-0.06
761.194	0.11
761.37	0.08
761.547	0.03
761.723	-0.06
761.899	-0
762.076	-0.05
762.252	-0.12
762.429	-0.13
762.605	0.03
762.781	-0.08
762.958	0
763.134	-0.05
763.31	-0.12
763.486	0.16
763.663	-0.23
763.839	-0.03
764.015	-0.26
764.191	-0.11
764.368	-0.09
764.544	-0.08
764.72	-0.02
764.896	-0.05
765.072	-0.08
765.248	-0.16
765.425	-0.04
765.601	-0.04
765.777	-0.08
765.953	-0.26
766.129	-0.07
766.305	-0.09
766.481	0.1
766.657	-0.04
766.833	0.14
767.009	-0.11
767.185	-0.18
767.361	-0.03
767.537	-0.19
767.713	0.09
767.889	-0.21
768.065	0.06
768.24	-0.29
768.416	0.09
768.592	-0.17
768.768	-0.01
768.944	0.1
769.12	-0.34
769.295	-0.11
769.471	0.05
769.647	-0.09
769.823	0.14
769.998	-0.01
770.174	-0.12
770.35	0.18
770.525	0.15
770.701	-0.02
770.877	-0.02
771.052	-0.12
771.228	0.11
771.403	0.13
771.579	0.06
771.755	0.34
771.93	-0.06
772.106	-0.15
772.281	-0.17
772.457	-0.07
772.632	-0.01
772.808	-0.17
772.983	-0.13
773.159	-0.21
773.334	0.11
773.509	0.06
773.685	-0.16
773.86	0.22
774.036	-0.02
774.211	-0.07
774.386	-0.22
774.562	-0.07
774.737	0.07
774.912	-0.16
775.087	-0.05
775.263	0.07
775.438	0
775.613	-0.13
775.788	-0.07
775.964	-0.06
776.139	0.26
776.314	-0.22
776.489	-0
776.664	-0.09
776.839	-0.16
777.014	0.11
777.19	0.11
777.365	0.16
777.54	0.03
777.715	-0.09
777.89	-0.03
778.065	-0.1
778.24	0.05
778.415	0
778.59	-0.19
778.765	-0.13
778.94	0.05
779.115	-0.23
779.289	-0.01
779.464	-0.07
779.639	-0.01
779.814	-0.24
779.989	-0.19
780.164	0.1
780.339	-0.16
780.513	-0.18
780.688	-0.06
780.863	-0.09
781.038	0.21
781.212	-0.29
781.387	-0.04
781.562	0.14
781.737	-0.24
781.911	0.1
782.086	-0
782.261	-0.06
782.435	0.05
782.61	-0.15
782.784	-0.13
782.959	0.16
783.134	-0.21
783.308	-0.29
783.483	-0.05
783.657	0.29
783.832	-0.04
784.006	-0.41
784.181	-0.19
784.355	0.12
784.53	-0.25
784.704	-0.28
784.878	0.03
785.053	0.24
785.227	0.08
785.402	0.23
785.576	-0.24
785.75	0.02
785.925	-0.18
786.099	-0.03
786.273	-0.1
786.448	0.22
786.622	0
786.796	-0
786.97	-0.26
787.145	0.23
787.319	-0.42
787.493	-0.14
787.667	-0.44
787.841	0.11
788.015	0.1
788.19	-0.24
788.364	-0.05
788.538	-0.09
788.712	0.1
788.886	-0.05
789.06	0
789.234	0.1
789.408	-0.26
789.582	-0.16
789.756	-0.11
789.93	-0.5
790.104	0.1
790.278	-0
790.452	-0.23
790.626	0.19
790.8	-0.37
790.973	0.12
791.147	0.17
791.321	0.03
791.495	0.01
791.669	0.19
791.843	0.11
792.016	0.15
792.19	0.35
792.364	-0.1
792.538	0.36
792.711	0.25
792.885	-0.18
793.059	-0.37
793.233	-0.58
793.406	0.19
793.58	-0.09
793.754	-0.02
793.927	-0.24
794.101	0.16
794.274	-0
794.448	0.09
794.622	-0.14
794.795	0.2
794.969	-0.3
795.142	0.45
795.316	-0.23
795.489	-0.39
795.663	0.25
795.836	0.07
796.009	-0.41
796.183	0.26
796.356	0.11
796.53	-0.16
796.703	-0.3
796.876	0.37
797.05	-0.23
797.223	-0.1
797.396	0.17
797.57	0.08
797.743	0.06
797.916	-0.06
798.09	-0.21
798.263	-0.01
798.436	0.05
798.609	-0.29
798.782	-0.18
798.956	-0.16
799.129	0.1
799.302	-0.19
799.475	-0.1
799.648	-0.16
799.821	-0.23
799.994	0.14
800.167	-0.38
800.34	-0.13
800.514	0.1
800.687	0.07
800.86	-0.33
801.033	0.06
801.206	0.01
801.379	-0.24
801.551	0.13
801.724	0.14
801.897	0.16
802.07	0.12
802.243	-0.52
802.416	-0.33
802.589	-0.24
802.762	-0.17
802.935	0.12
803.107	-0.01
803.28	0.09
803.453	-0.07
803.626	-0.35
803.798	-0.07
803.971	-0.16
804.144	-0.08
804.317	0.05
804.489	0.06
804.662	-0.15
804.835	-0.04
805.007	-0.42
805.18	0.14
805.353	0.19
805.525	-0.2
805.698	-0.23
805.87	0.26
806.043	-0.06
806.215	-0.31
806.388	-0.22
806.56	-0.25
806.733	0.46
806.905	0.09
807.078	-0.28
807.25	-0.37
807.423	0.28
807.595	0.07
807.768	-0.04
807.94	0.35
808.112	0.06
808.285	-0.21
808.457	-0.43
808.629	-0.08
808.802	0.42
808.974	0.18
809.146	-0.19
809.318	-0.23
809.491	-0.05
809.663	0.08
809.835	0.17
810.007	-0.18
810.18	-0.48
810.352	-0.79
810.524	-0.25
810.696	0.12
810.868	0.33
811.04	-0.18
811.212	-0.25
811.384	0.49
811.556	0.09
811.728	-0.38
811.901	0.31
812.073	-0.12
812.245	-0.01
812.417	0.07
812.589	-0.88
812.76	0.07
812.932	0.05
813.104	0.26
813.276	-0.07
813.448	0.23
813.62	0.06
813.792	-0.3
813.964	-0.02
814.136	-0.06
814.307	-0.06
814.479	-0.28
814.651	-0.32
814.823	0.4
814.995	-0.24
815.166	-0.15
815.338	-0.12
815.51	-0.72
815.681	0.81
815.853	-0.24
816.025	-0.09
816.196	0.32
816.368	0.15
816.54	-0.56
816.711	-0.41
816.883	-0.27
817.054	0.57
817.226	-0.47
817.398	-0.13
817.569	-0.37
817.741	-0.32
817.912	-0.03
818.084	-0.14
818.255	0.04
818.426	-0.76
818.598	-0.15
818.769	-0.51
818.941	0.16
819.112	0.39
819.283	0.41
819.455	-0.57
819.626	0.12
819.798	-0.37
819.969	-0.22
820.14	-0.05
820.311	-0.42
820.483	0.13
820.654	0.16
820.825	-0.06
820.996	-0.23
821.168	-0.03
821.339	-0.35
821.51	-0.31
821.681	-0.31
821.852	0.13
822.023	-0.37
822.195	-1.16
822.366	0.34
822.537	-0.09
822.708	0.14
822.879	0.03
823.05	0.92
823.221	-0.19
823.392	0.2
823.563	-0.21
823.734	-0.02
823.905	-0.33
824.076	-0.01
824.247	-0.84
824.418	-0.45
824.589	0.2
824.759	-0.45
824.93	0.15
825.101	-0.72
825.272	-0.12
825.443	0.16
825.614	0.13
825.784	-1.09
825.955	0.63
826.126	0.34
826.297	0.01
826.467	1.25
826.638	0.23
826.809	-0.4
826.98	-0.64
827.15	-0.49
827.321	0.18
827.492	0.71
827.662	0.04
827.833	1.09
828.003	-0.03
828.174	-0.61
828.345	-0.93
828.515	0.18
828.686	-0.26
828.856	-0.36
829.027	-0.31
829.197	-0.06
829.368	0.09
829.538	0.14
829.709	0.02
829.879	-0.01
830.049	-0.18
830.22	-0.18
830.39	-0.1
830.56	0.48
830.731	0.19
830.901	-0.4
831.072	-0.26
831.242	0.17
831.412	-0.06
831.582	-0.19
831.753	-0.47
831.923	0.07
832.093	0.08
832.263	-0.2
832.434	-0.98
832.604	-0.12
832.774	0.38
832.944	-0.17
833.114	-0.35
833.284	0.21
833.454	-0.79
833.624	-0.6
833.795	-0.75
833.965	-0.12
834.135	0.42
834.305	-0.74
834.475	-0.29
834.645	-0.37
834.815	-0.78
834.985	-0.49
835.155	-0.17
835.325	-0.37
835.494	0.1
835.664	-0.78
835.834	-0.86
836.004	-0.07
836.174	-0.09
836.344	-0.04
836.514	-0.92
836.684	-0.44
836.853	-0.24
837.023	-0.36
837.193	0.04
837.363	-0.12
837.532	0.29
837.702	0.01
837.872	-0.75
838.041	-0.09
838.211	0.84
838.381	-1.12
838.55	-0.32
838.72	1.36
838.89	0.99
839.059	-0.1
839.229	-0.47
839.398	0.99
839.568	-0.44
839.738	-0.14
839.907	0.68
840.077	0.42
840.246	-0.98
840.416	-0.98
840.585	-0.6
840.755	1.01
840.924	0.37
841.093	-1.15
841.263	-0.45
841.432	-0.67
841.602	-0.93
841.771	-0.4
841.94	0.27
842.11	1.2
842.279	0.88
842.448	-1.42
842.617	-0.87
842.787	1.27
842.956	-0.85
843.125	-0.78
843.294	0.01
843.464	0.62
843.633	-0.57
843.802	-0.82
843.971	-0.27
844.14	0.3
844.309	-0.04
844.479	-0.44
844.648	-0.72
844.817	-0.28
844.986	0.74
845.155	-0.27
845.324	-0.25
845.493	-0.29
845.662	-1.22
845.831	0.04
846	-0.3
846.169	-0.2
846.338	0.71
846.507	0.28
846.676	0.52
846.844	-0.21
847.013	0.45
847.182	-0.67
847.351	-0.23
847.52	0.4
847.689	-0.06
847.858	-1.13
848.026	-0.57
848.195	-0.56
848.364	-0.8
848.533	-0.73
848.701	-1.71
848.87	0.8
849.039	0.1
849.207	-0.08
849.376	0.59
849.545	0.16
849.713	-0.17
849.882	-0.28
850.051	-0.1
850.219	0.71
850.388	1.2
850.556	-0.89
850.725	-1.23
850.893	-0.34
851.062	-0.73
851.23	0.55
851.399	-1.46
851.567	-1.18
851.736	-0.65
851.904	-1.3
852.073	-1.09
852.241	1.23
852.41	1.4
852.578	-0.47
852.746	-1.56
852.915	-0.11
853.083	-0.25
853.251	-0.91
853.42	-0.12
853.588	-0.48
853.756	0.34
853.924	-0.72
854.093	0.18
854.261	-0.27
854.429	-0.98
854.597	0.44
854.765	-1.77
854.934	-0.87
855.102	0.27
855.27	-1.31
855.438	-0.44
855.606	0.24
855.774	1
855.942	-1.93
856.11	-1.63
856.278	0.08
856.446	0.36
856.614	-0.26
856.782	-0.79
856.95	0.37
857.118	-0.89
857.286	0.57
857.454	-1.15
857.622	0.69
857.79	0.05
857.958	-0.8
858.126	-0.03
858.294	-3.06
858.462	-0.17
858.629	-1.56
858.797	-0.71
858.965	0.33
859.133	-0.26
859.301	-1.05
859.468	0.42
859.636	-1.28
859.804	1.02
859.971	0.93
860.139	-1.36
860.307	0.37
860.474	-1.02
860.642	-0.5
860.81	-1.08
860.977	-0.36
861.145	-0.48
861.313	-1.84
861.48	0.21
861.648	0.76
861.815	-0.63
861.983	-1.7
862.15	-0.23
862.318	0.8
862.485	1.08
862.653	-0.43
862.82	-1.02
862.988	1.04
863.155	-0.33
863.322	-1.44
863.49	-2.18
863.657	-0.44
863.824	1.2
863.992	-0
864.159	-0.75
864.326	-0.15
864.494	-2.46
864.661	1.85
864.828	-1.67
864.996	0.87
865.163	1.81
865.33	-0.51
865.497	-2.37
865.664	-1.71
865.832	-2.01
865.999	-0.23
866.166	-1.37
866.333	-2.01
866.5	-1.06
866.667	-0.83
866.834	-2.04
867.001	1.25
867.168	-1.71
867.335	-1.05
867.502	-1.72
867.669	-2.33
867.836	2.13
868.003	-0.89
868.17	0.71
868.337	1.02
868.504	1.82
868.671	-1.91
868.838	-2.23
869.005	0.74
869.172	-0.37
869.339	-2.18
869.505	-0.14
869.672	-0.95
869.839	1.82
870.006	-0.16
870.173	-2.54
870.339	0.76
870.506	-0.43
870.673	-1.12
870.84	0.03
871.006	-0.08
871.173	-1.24
871.34	-0
871.506	-1.27
871.673	0.32
871.839	-1.71
872.006	-1.21
872.173	-0.84
872.339	-0.3
872.506	1.82
872.672	-1.15
872.839	-2.4
873.005	-0.12
873.172	2.58
873.338	0.7
873.505	-0.52
873.671	-0.89
873.838	0.02
874.004	-1.33
874.171	-1.69
874.337	1.58
874.503	0.45
874.67	-1.65
874.836	-1.57
875.002	1.8
875.169	0.76
875.335	0.84
875.501	-0.23
875.668	0.48
875.834	-0.55
876	-2.19
876.166	0.89
876.332	0.9
876.499	3.32
876.665	-2.59
876.831	1.42
876.997	1.87
877.163	0.51
877.329	-2.75
877.495	-1.52
877.662	1.89
877.828	-0.11
877.994	-1.31
878.16	-2.14
878.326	-0.2
878.492	0.46
878.658	-1.22
878.824	0.11
878.99	1.32
879.156	-1.36
879.322	1.77
879.487	-0.39
879.653	1.64
879.819	0.02
879.985	-1.58
880.151	2.71
880.317	-0.06
880.483	-0.78
880.648	0.86
880.814	-1.62
880.98	0.26
881.146	-3.32
881.312	-1.56
881.477	-0.6
881.643	-0.08
881.809	1.41
881.974	0.02
882.14	-2.82
882.306	-0.56
882.471	3.71
882.637	-1.28
882.803	0.51
882.968	0.99
883.134	2.09
883.299	-1.03
883.465	-0.3
883.63	1.53
883.796	0.69
883.961	2.18
884.127	1.47
884.292	-4.21
884.458	-1.96
884.623	-1.95
