Data from Apollo_Calib_20240827__AbsoluteIrradiance__457__06-46-00-521.txt Node

Date: Wed Aug 28 06:46:00 BST 2024
User: biology
Spectrometer: FLMT08252
Trigger mode: 0
Integration Time (sec): 5.000000E-1
Scans to average: 5
Electric dark correction enabled: true
Nonlinearity correction enabled: false
Boxcar width: 0
XAxis mode: Wavelengths
Number of Pixels in Spectrum: 3648
>>>>>Begin Spectral Data<<<<<
179.588	-0
179.809	-0
180.03	-0
180.251	-0
180.473	-0
180.694	0
180.915	0
181.136	-0
181.357	0
181.578	-0
181.799	-0
182.02	-0
182.241	-0
182.462	-0
182.683	0
182.904	-0
183.125	-0
183.346	0
183.567	-0
183.788	-0
184.009	-0
184.23	0
184.451	0
184.672	-0
184.892	-0
185.113	0
185.334	0
185.555	-0
185.776	-0
185.996	0
186.217	0
186.438	-0
186.659	-0
186.879	0
187.1	-0
187.321	-0
187.541	-0
187.762	-0
187.983	0
188.203	-0
188.424	0
188.644	-0
188.865	-0
189.086	-0
189.306	-0
189.527	-0
189.747	-0
189.968	-0
190.188	0
190.409	-0
190.629	0
190.849	-0
191.07	-0
191.29	0
191.511	-0
191.731	-0
191.951	-0
192.172	-0
192.392	-0
192.612	-0
192.833	-0
193.053	0
193.273	0
193.493	-0
193.714	-0
193.934	0
194.154	0
194.374	0
194.594	0
194.815	0
195.035	0
195.255	-0
195.475	-0
195.695	-0
195.915	-0
196.135	-0
196.355	0
196.575	0
196.795	0
197.015	-0
197.235	-0
197.455	-0
197.675	0
197.895	-0
198.115	-0
198.335	0
198.555	-0
198.775	-0
198.995	0
199.214	0
199.434	-0
199.654	-0
199.874	-0
200.094	-1.2
200.313	-0.91
200.533	-0.48
200.753	-0.69
200.973	0.73
201.192	0.72
201.412	-0.61
201.632	-0.4
201.851	0.89
202.071	-0.47
202.291	-0.81
202.51	-1.1
202.73	0.52
202.95	-0.07
203.169	-0.89
203.389	-0.24
203.608	-0.15
203.828	-0.54
204.047	-0.15
204.267	0.53
204.486	-0.26
204.706	-0.21
204.925	0.02
205.145	-0.38
205.364	0.37
205.583	0.4
205.803	-0.82
206.022	-0.63
206.242	-0.08
206.461	-0.35
206.68	-0.7
206.9	-0.2
207.119	0.4
207.338	0.35
207.557	-0.17
207.777	-0.22
207.996	-0.09
208.215	0.32
208.434	-0.32
208.654	-0.46
208.873	0.01
209.092	0.06
209.311	-0.07
209.53	-0.39
209.749	-0.03
209.968	-0.4
210.187	-0.06
210.407	-0.49
210.626	-0.31
210.845	0.18
211.064	0.11
211.283	-0.48
211.502	0.31
211.721	-0.15
211.94	-0.27
212.159	-0.03
212.377	0.15
212.596	0.17
212.815	0.11
213.034	-0
213.253	0.29
213.472	0.18
213.691	-0.28
213.91	-0.34
214.128	-0.31
214.347	0.28
214.566	-0.36
214.785	-0.34
215.003	-0.07
215.222	-0.08
215.441	-0.11
215.66	-0.23
215.878	0.06
216.097	0.14
216.316	-0.12
216.534	-0.27
216.753	-0.1
216.972	0.04
217.19	-0.18
217.409	-0.27
217.627	-0.14
217.846	0.03
218.064	-0.19
218.283	-0.23
218.501	0.3
218.72	0.3
218.938	-0.34
219.157	-0.15
219.375	0.08
219.594	0.16
219.812	-0.2
220.031	-0.23
220.249	0.28
220.467	0.1
220.686	-0.18
220.904	-0.22
221.122	-0.25
221.341	0.32
221.559	0.02
221.777	-0.25
221.995	-0.24
222.214	0.08
222.432	-0.12
222.65	0.07
222.868	0.12
223.086	0.03
223.305	0.03
223.523	0.02
223.741	0.24
223.959	-0.08
224.177	-0.28
224.395	-0.1
224.613	0.04
224.831	0.06
225.049	-0.18
225.267	-0.13
225.485	0.07
225.703	-0.13
225.921	-0.05
226.139	-0.12
226.357	0.07
226.575	0.01
226.793	-0.08
227.011	0.51
227.229	0.03
227.447	0.04
227.665	-0.11
227.883	-0.27
228.1	0.05
228.318	-0.09
228.536	-0.33
228.754	-0.15
228.972	-0.01
229.189	0.03
229.407	-0.1
229.625	-0
229.843	0.11
230.06	0.11
230.278	-0.12
230.496	-0.07
230.713	-0.01
230.931	0.15
231.149	-0.07
231.366	-0.28
231.584	-0.08
231.801	0.41
232.019	-0.07
232.236	-0.19
232.454	-0.13
232.671	-0.02
232.889	-0.02
233.106	-0.22
233.324	-0.16
233.541	-0.06
233.759	-0.07
233.976	-0.14
234.194	-0.14
234.411	0
234.628	-0.08
234.846	-0.02
235.063	-0.06
235.28	-0.09
235.498	-0.02
235.715	-0.03
235.932	-0.02
236.149	-0.11
236.367	-0.18
236.584	-0.06
236.801	-0.13
237.018	0.08
237.236	0
237.453	-0.15
237.67	0.11
237.887	-0.08
238.104	-0.08
238.321	-0.25
238.538	-0.12
238.755	0.12
238.973	-0.28
239.19	-0.01
239.407	0.01
239.624	0.04
239.841	-0.13
240.058	-0.13
240.275	0.07
240.492	-0.03
240.709	-0.06
240.925	-0.12
241.142	-0.08
241.359	-0.16
241.576	-0.16
241.793	-0.07
242.01	0.02
242.227	0.13
242.444	0.05
242.66	0.11
242.877	-0.02
243.094	-0.07
243.311	-0.04
243.527	0.05
243.744	0.03
243.961	0.06
244.178	-0.08
244.394	-0.08
244.611	0.09
244.828	0.17
245.044	-0.15
245.261	0.06
245.477	0.1
245.694	0
245.911	-0.05
246.127	0.04
246.344	0.09
246.56	-0.02
246.777	-0.07
246.993	-0.01
247.21	0.05
247.426	-0.03
247.643	-0.08
247.859	-0.1
248.076	-0.04
248.292	0.14
248.508	-0.12
248.725	0.03
248.941	-0.03
249.157	0.04
249.374	-0.12
249.59	-0.08
249.806	-0.04
250.023	0
250.239	-0.12
250.455	-0.09
250.671	0.03
250.888	0.01
251.104	0.02
251.32	0.01
251.536	-0.07
251.752	-0.12
251.969	-0.04
252.185	0
252.401	0.12
252.617	-0.04
252.833	-0.06
253.049	-0
253.265	0.01
253.481	-0.01
253.697	-0.13
253.913	-0.11
254.129	0.01
254.345	0.05
254.561	-0.02
254.777	-0.06
254.993	-0
255.209	0.05
255.425	-0.02
255.641	-0.11
255.857	0.02
256.073	0
256.288	-0.11
256.504	-0.13
256.72	-0.02
256.936	0.15
257.152	-0.01
257.367	-0.11
257.583	0.02
257.799	0
258.015	-0.08
258.23	-0.05
258.446	0.08
258.662	0.04
258.877	-0.1
259.093	-0.08
259.309	-0.05
259.524	0.04
259.74	-0.1
259.955	-0.11
260.171	-0.05
260.387	-0.01
260.602	0.03
260.818	0.03
261.033	-0.09
261.249	-0.04
261.464	-0.03
261.68	-0.15
261.895	0.06
262.11	0.07
262.326	-0.03
262.541	-0.08
262.757	0.07
262.972	-0.03
263.187	0.02
263.403	-0.04
263.618	0.06
263.833	-0.01
264.049	-0.04
264.264	-0.02
264.479	-0
264.694	0.08
264.91	-0.1
265.125	0.03
265.34	-0.02
265.555	0.13
265.77	-0.04
265.986	-0.02
266.201	0.02
266.416	0.07
266.631	-0.05
266.846	0
267.061	0.01
267.276	0.03
267.491	-0.13
267.706	0
267.921	0.03
268.136	-0.04
268.351	-0.03
268.566	-0.12
268.781	-0.01
268.996	0.08
269.211	-0.03
269.426	-0.14
269.641	-0.03
269.856	0.06
270.071	-0.09
270.285	-0.11
270.5	0.08
270.715	0.02
270.93	-0.01
271.145	-0.01
271.359	-0.02
271.574	-0.06
271.789	-0.02
272.004	-0.04
272.218	-0.04
272.433	0.03
272.648	-0.15
272.862	0.03
273.077	-0.01
273.292	-0.04
273.506	-0.04
273.721	0.01
273.936	-0.03
274.15	0.06
274.365	-0.03
274.579	0.04
274.794	0.02
275.008	0.09
275.223	-0.12
275.437	0.01
275.652	0.04
275.866	0.03
276.081	0.01
276.295	0.04
276.509	-0.02
276.724	-0.01
276.938	-0.08
277.153	0.04
277.367	0.05
277.581	-0.04
277.796	-0.08
278.01	-0.06
278.224	0.01
278.438	0.08
278.653	-0.07
278.867	-0.02
279.081	-0.2
279.295	-0.01
279.51	-0
279.724	-0.11
279.938	0.09
280.152	0.02
280.366	-0.04
280.58	0.01
280.794	0.03
281.008	0.02
281.222	0.05
281.437	0.07
281.651	0.03
281.865	0.07
282.079	-0.05
282.293	-0.07
282.507	-0.05
282.721	-0.02
282.935	-0.02
283.148	-0.06
283.362	-0.06
283.576	-0.09
283.79	-0.03
284.004	-0.09
284.218	0.09
284.432	-0.01
284.646	-0.04
284.859	-0.04
285.073	-0.03
285.287	0.03
285.501	-0
285.714	-0.03
285.928	0.03
286.142	0.01
286.356	-0.05
286.569	-0.09
286.783	0.09
286.997	0.02
287.21	-0.02
287.424	0.04
287.637	-0.01
287.851	-0.06
288.065	-0.02
288.278	-0.02
288.492	-0.01
288.705	0.01
288.919	0.03
289.132	-0.06
289.346	-0.01
289.559	-0.09
289.773	-0.08
289.986	-0.01
290.2	-0.02
290.413	0.02
290.626	-0.07
290.84	-0.05
291.053	0.01
291.267	0.06
291.48	0.01
291.693	-0.01
291.906	-0.05
292.12	-0.04
292.333	-0.05
292.546	-0.07
292.76	0.08
292.973	-0.02
293.186	0
293.399	-0.03
293.612	0.06
293.826	0.01
294.039	-0.02
294.252	-0.04
294.465	0.01
294.678	0.04
294.891	-0.07
295.104	-0.07
295.317	-0
295.53	0.02
295.743	-0.02
295.956	0.01
296.169	0.07
296.382	0.01
296.595	-0.02
296.808	-0.01
297.021	0.09
297.234	0
297.447	0.01
297.66	0.03
297.873	0.05
298.086	-0.01
298.299	-0.06
298.511	-0.09
298.724	-0.04
298.937	-0.05
299.15	-0.04
299.363	0.02
299.575	0.05
299.788	-0.01
300.001	-0.04
300.213	-0.04
300.426	-0.02
300.639	-0.01
300.852	-0.06
301.064	0
301.277	0.02
301.489	-0.01
301.702	0.04
301.915	0.01
302.127	0.03
302.34	-0
302.552	0.01
302.765	-0.04
302.977	0.05
303.19	-0.05
303.402	-0.03
303.615	0.01
303.827	-0.03
304.04	-0.05
304.252	-0.01
304.464	-0.02
304.677	0.11
304.889	0.02
305.102	-0.06
305.314	-0.03
305.526	0
305.739	0.04
305.951	-0.03
306.163	-0.02
306.375	0.04
306.588	-0.02
306.8	-0.07
307.012	-0.03
307.224	-0.02
307.436	0.07
307.649	-0.09
307.861	-0.02
308.073	0.02
308.285	-0.02
308.497	-0.04
308.709	-0.03
308.921	-0
309.133	0.04
309.346	-0.04
309.558	-0.02
309.77	0.04
309.982	0.05
310.194	0.01
310.406	-0.03
310.617	0.07
310.829	0.01
311.041	0.05
311.253	-0.02
311.465	-0.02
311.677	0
311.889	0
312.101	-0.07
312.313	0.02
312.524	0.01
312.736	-0.1
312.948	-0
313.16	0.06
313.372	-0
313.583	0.01
313.795	-0.02
314.007	-0.02
314.218	0.03
314.43	-0
314.642	-0.01
314.853	-0.05
315.065	0.02
315.277	-0.02
315.488	-0.03
315.7	0.05
315.912	0.01
316.123	0
316.335	-0.03
316.546	0.12
316.758	-0.01
316.969	-0.02
317.181	-0.02
317.392	-0.05
317.604	0.02
317.815	-0.05
318.026	-0.05
318.238	-0.04
318.449	0.08
318.661	-0.04
318.872	-0.06
319.083	-0.05
319.295	0
319.506	-0.07
319.717	0.02
319.929	0.04
320.14	0.02
320.351	-0.01
320.562	-0.07
320.774	-0.01
320.985	-0.01
321.196	-0.03
321.407	-0.07
321.618	0.06
321.829	0.01
322.041	0.05
322.252	-0.02
322.463	-0
322.674	0.04
322.885	-0.06
323.096	-0.03
323.307	-0.01
323.518	0.04
323.729	-0.05
323.94	-0.03
324.151	0.02
324.362	-0.02
324.573	-0
324.784	-0.04
324.995	0.02
325.206	0.04
325.417	-0.03
325.628	-0.01
325.838	0
326.049	-0.01
326.26	0.04
326.471	-0.02
326.682	0.01
326.892	-0.01
327.103	-0.07
327.314	-0.08
327.525	0.05
327.735	-0.02
327.946	-0.01
328.157	-0.05
328.368	0.05
328.578	-0.03
328.789	-0.01
328.999	0.02
329.21	0
329.421	0.01
329.631	-0.09
329.842	-0.01
330.052	-0.02
330.263	-0.01
330.473	0
330.684	-0.01
330.894	-0.04
331.105	-0
331.315	0.01
331.526	-0.08
331.736	0.04
331.947	-0.03
332.157	0
332.367	-0.02
332.578	0.06
332.788	0.05
332.999	-0
333.209	0.02
333.419	-0.07
333.629	0.02
333.84	0.01
334.05	-0.03
334.26	0.04
334.47	0
334.681	0.07
334.891	0.01
335.101	0.02
335.311	0.07
335.521	0.04
335.732	-0.06
335.942	0.05
336.152	0.06
336.362	-0.04
336.572	0.01
336.782	0.05
336.992	-0.03
337.202	-0.04
337.412	-0.08
337.622	0.01
337.832	0.04
338.042	-0.02
338.252	-0.05
338.462	-0.03
338.672	0.03
338.882	-0
339.092	-0.06
339.302	0.03
339.511	0.04
339.721	-0.03
339.931	-0.02
340.141	0.05
340.351	0.03
340.561	0
340.77	0.03
340.98	0.01
341.19	0.04
341.4	-0.04
341.609	-0.04
341.819	0
342.029	-0.05
342.238	-0
342.448	-0.01
342.658	0.06
342.867	0.01
343.077	0.02
343.286	0.02
343.496	0.02
343.706	0.07
343.915	-0.07
344.125	0
344.334	0.01
344.544	-0.06
344.753	0
344.963	-0.02
345.172	-0.03
345.381	-0.04
345.591	-0.01
345.8	0.01
346.01	0.05
346.219	0.04
346.428	-0.11
346.638	0
346.847	-0.01
347.056	0.05
347.266	-0.02
347.475	0
347.684	0.06
347.893	0.05
348.103	0.02
348.312	-0.05
348.521	0
348.73	0.01
348.94	0.01
349.149	-0.03
349.358	-0.02
349.567	-0.03
349.776	-0.05
349.985	-0.06
350.194	0
350.403	0.01
350.612	-0.09
350.821	-0.01
351.03	-0.01
351.239	-0.06
351.448	0.02
351.657	-0.02
351.866	0.11
352.075	-0.01
352.284	-0.01
352.493	-0.06
352.702	0.06
352.911	0.02
353.12	0
353.329	-0.02
353.538	0.04
353.746	-0.05
353.955	0
354.164	0.01
354.373	-0
354.582	0.07
354.79	0.05
354.999	0.02
355.208	-0.02
355.416	0.06
355.625	-0.06
355.834	-0.06
356.042	0.01
356.251	-0.01
356.46	-0.06
356.668	0.04
356.877	0.1
357.085	0.04
357.294	-0.07
357.503	0.02
357.711	-0.02
357.92	0.13
358.128	0.02
358.337	-0.01
358.545	0.04
358.754	-0.01
358.962	0.02
359.17	-0.02
359.379	0.01
359.587	0.08
359.796	-0.04
360.004	-0.01
360.212	0.05
360.421	0.03
360.629	-0.03
360.837	0.02
361.046	0.01
361.254	0.07
361.462	-0.02
361.67	-0.04
361.879	-0.02
362.087	0.04
362.295	0.04
362.503	-0.01
362.711	-0.07
362.92	-0.05
363.128	-0.03
363.336	-0.04
363.544	-0.04
363.752	-0.04
363.96	-0.02
364.168	-0.02
364.376	-0
364.584	-0
364.792	0.04
365	-0.01
365.208	-0.01
365.416	-0.03
365.624	0.05
365.832	-0.01
366.04	0.06
366.248	-0.01
366.456	0.02
366.664	0.01
366.872	-0.02
367.079	0.03
367.287	-0.03
367.495	0.01
367.703	0.03
367.911	-0.03
368.118	-0.02
368.326	0
368.534	-0.04
368.742	0.04
368.949	-0.07
369.157	-0.06
369.365	0.03
369.572	-0.02
369.78	-0.04
369.988	0.02
370.195	-0.01
370.403	0.03
370.61	-0.06
370.818	-0.01
371.026	0.04
371.233	-0.02
371.441	-0.01
371.648	-0.04
371.856	-0
372.063	0.02
372.271	-0.03
372.478	-0.01
372.685	-0.05
372.893	0.06
373.1	-0.01
373.308	-0.01
373.515	0.04
373.722	0.02
373.93	-0.01
374.137	0.02
374.344	0.04
374.552	0.03
374.759	0.04
374.966	0.03
375.173	-0.03
375.381	0.06
375.588	-0.03
375.795	-0.05
376.002	0
376.209	-0.05
376.417	-0.02
376.624	0.02
376.831	0.01
377.038	-0.02
377.245	-0.06
377.452	-0.02
377.659	0.01
377.866	-0.04
378.073	-0.02
378.28	-0.06
378.487	0.01
378.694	0.02
378.901	-0.01
379.108	0.03
379.315	-0.01
379.522	0.06
379.729	0.01
379.936	-0.02
380.143	-0.02
380.35	-0.01
380.557	-0.05
380.763	0.04
380.97	-0.01
381.177	0
381.384	-0
381.591	-0.01
381.797	0.03
382.004	0
382.211	0.03
382.418	0.01
382.624	0.04
382.831	0.01
383.038	-0.03
383.244	0.02
383.451	-0.01
383.658	0.05
383.864	-0.02
384.071	-0.05
384.277	0.04
384.484	-0.02
384.69	0.02
384.897	-0.03
385.103	-0.01
385.31	-0.05
385.516	-0.03
385.723	-0.02
385.929	-0.02
386.136	-0.07
386.342	-0
386.549	-0.02
386.755	0.06
386.961	-0.01
387.168	-0.04
387.374	0.02
387.58	0.02
387.787	-0.04
387.993	0.06
388.199	0.04
388.406	-0.04
388.612	-0.01
388.818	-0.02
389.024	-0.04
389.231	0
389.437	0.03
389.643	0.03
389.849	0
390.055	0.02
390.261	0.01
390.467	-0
390.674	-0.03
390.88	0.01
391.086	0.03
391.292	-0.04
391.498	0.04
391.704	0
391.91	0
392.116	-0.07
392.322	-0.08
392.528	-0.01
392.734	-0.05
392.94	0
393.146	-0.02
393.352	-0.01
393.557	-0.04
393.763	0.01
393.969	0.01
394.175	-0.01
394.381	-0.02
394.587	0
394.792	-0.02
394.998	0.05
395.204	0.06
395.41	-0.06
395.615	-0.04
395.821	0.01
396.027	-0
396.233	-0.09
396.438	0.02
396.644	0.06
396.85	0.01
397.055	-0.06
397.261	-0.04
397.466	0.03
397.672	0.01
397.878	0.01
398.083	0.03
398.289	-0.05
398.494	0.04
398.7	0.01
398.905	-0.09
399.111	0.07
399.316	-0.04
399.522	-0.01
399.727	-0.02
399.932	0.01
400.138	0.01
400.343	0.04
400.549	0.01
400.754	0.02
400.959	-0.01
401.165	-0.02
401.37	-0.02
401.575	0.11
401.78	-0.03
401.986	-0.07
402.191	0
402.396	-0.02
402.601	0.01
402.807	-0.01
403.012	-0.01
403.217	0.04
403.422	0.01
403.627	-0.07
403.832	-0.06
404.037	0.02
404.243	-0.03
404.448	-0.06
404.653	-0.02
404.858	-0.01
405.063	0.03
405.268	-0.08
405.473	-0.04
405.678	-0.09
405.883	0.12
406.088	-0.01
406.293	-0.06
406.498	-0.07
406.703	-0.01
406.907	-0.04
407.112	-0.09
407.317	0.04
407.522	0
407.727	-0.08
407.932	0
408.136	0.04
408.341	-0.02
408.546	0.02
408.751	-0
408.956	0
409.16	0.05
409.365	-0
409.57	-0
409.774	-0.01
409.979	0.03
410.184	0.01
410.388	-0.06
410.593	0.01
410.798	-0
411.002	-0.04
411.207	0.02
411.411	-0.01
411.616	-0.08
411.82	-0.02
412.025	0.02
412.229	-0.04
412.434	0.04
412.638	0.02
412.843	-0.02
413.047	-0.02
413.252	-0.06
413.456	-0.04
413.66	0.05
413.865	0
414.069	0.04
414.273	-0
414.478	-0.03
414.682	-0.07
414.886	-0.03
415.091	-0.06
415.295	-0.12
415.499	-0.01
415.703	-0.02
415.908	0.04
416.112	-0.07
416.316	0.04
416.52	-0.08
416.724	-0.05
416.929	-0.03
417.133	0.03
417.337	-0.01
417.541	-0.05
417.745	-0.05
417.949	0.03
418.153	-0.04
418.357	-0.04
418.561	0.1
418.765	0
418.969	0.05
419.173	0.04
419.377	-0.02
419.581	0.09
419.785	-0.06
419.989	-0.05
420.193	-0.04
420.397	-0.01
420.601	0.07
420.804	0.06
421.008	0
421.212	-0.01
421.416	0.01
421.62	-0.01
421.823	-0.01
422.027	0.07
422.231	-0.02
422.435	-0.01
422.638	0.02
422.842	-0.02
423.046	-0.06
423.249	0.01
423.453	-0.01
423.657	-0.01
423.86	-0.02
424.064	-0.04
424.268	0.04
424.471	-0.02
424.675	0.06
424.878	0.06
425.082	-0.01
425.285	0.05
425.489	-0.02
425.692	0.02
425.896	-0.04
426.099	0.01
426.303	-0.07
426.506	-0.05
426.71	0.04
426.913	0.04
427.116	0.05
427.32	-0.02
427.523	-0
427.726	0.04
427.93	-0.05
428.133	-0.03
428.336	-0.04
428.54	-0.06
428.743	-0.02
428.946	0.01
429.149	-0.05
429.353	-0.02
429.556	0.01
429.759	-0.05
429.962	-0.08
430.165	-0.01
430.368	-0.02
430.571	-0.02
430.775	-0.02
430.978	-0.05
431.181	-0.01
431.384	-0.02
431.587	0.01
431.79	-0
431.993	-0.03
432.196	-0.05
432.399	-0.04
432.602	0.01
432.805	-0
433.008	0
433.211	-0.09
433.414	0.01
433.616	0.02
433.819	-0.06
434.022	-0.11
434.225	0.08
434.428	-0.04
434.631	0.02
434.833	-0
435.036	-0.04
435.239	0.07
435.442	-0.02
435.645	-0.01
435.847	-0.04
436.05	-0.03
436.253	-0.01
436.455	-0.13
436.658	-0.02
436.861	0.11
437.063	-0.02
437.266	-0.04
437.468	-0.02
437.671	0.08
437.874	0.01
438.076	-0.09
438.279	-0.08
438.481	-0.04
438.684	-0.09
438.886	0.03
439.089	-0.08
439.291	0.03
439.494	0
439.696	-0.04
439.899	-0.02
440.101	-0.03
440.303	-0.07
440.506	-0.01
440.708	-0.01
440.91	0.03
441.113	-0.07
441.315	0.02
441.517	-0.09
441.72	0.01
441.922	-0.09
442.124	-0.06
442.326	0.02
442.529	0.05
442.731	-0.07
442.933	0.05
443.135	0.02
443.337	-0.06
443.539	-0.04
443.742	-0.07
443.944	0.03
444.146	-0.03
444.348	-0.04
444.55	-0.05
444.752	-0.01
444.954	-0.06
445.156	-0.03
445.358	-0
445.56	0.03
445.762	-0.09
445.964	-0.03
446.166	-0.03
446.368	-0.02
446.57	0.05
446.772	-0.03
446.974	-0.05
447.175	-0.02
447.377	-0.03
447.579	-0.04
447.781	-0.08
447.983	0.02
448.184	-0.05
448.386	-0
448.588	-0.07
448.79	0.03
448.991	-0.07
449.193	0.01
449.395	-0.02
449.597	0.03
449.798	0.02
450	-0.01
450.202	-0.05
450.403	-0.03
450.605	0.01
450.806	-0.01
451.008	-0.1
451.21	-0.03
451.411	-0.05
451.613	-0.02
451.814	0.01
452.016	0
452.217	0.02
452.419	0.04
452.62	-0.06
452.821	0.07
453.023	0.02
453.224	0.05
453.426	-0.02
453.627	0.02
453.828	0.07
454.03	0.01
454.231	-0.02
454.432	-0.05
454.634	0.06
454.835	-0.06
455.036	-0.04
455.238	0.05
455.439	0.12
455.64	-0.08
455.841	-0.04
456.042	0.08
456.244	0.04
456.445	-0.03
456.646	-0.06
456.847	-0.03
457.048	0.03
457.249	0.03
457.45	0.14
457.651	-0.09
457.852	0.02
458.054	-0.04
458.255	-0.04
458.456	0.01
458.657	-0.03
458.858	-0.06
459.058	-0
459.259	0.04
459.46	0.02
459.661	-0.02
459.862	0.1
460.063	-0.01
460.264	0.05
460.465	-0.05
460.666	0.05
460.866	-0.03
461.067	-0
461.268	-0.02
461.469	-0.04
461.67	0
461.87	-0.05
462.071	-0.04
462.272	-0.07
462.473	-0.03
462.673	0.01
462.874	-0.05
463.075	0.01
463.275	-0.04
463.476	-0
463.676	-0.01
463.877	-0.02
464.078	-0.01
464.278	0.02
464.479	-0.02
464.679	-0
464.88	-0.04
465.08	0
465.281	-0.04
465.481	-0.01
465.682	-0.04
465.882	0.03
466.083	-0.04
466.283	-0.01
466.483	-0.05
466.684	-0.09
466.884	-0.02
467.085	-0.01
467.285	0.04
467.485	-0.1
467.686	-0
467.886	-0.05
468.086	-0.03
468.286	0
468.487	0.01
468.687	-0.05
468.887	-0.01
469.087	0.02
469.287	-0
469.488	-0.02
469.688	0.03
469.888	0.03
470.088	0.09
470.288	0
470.488	0.03
470.688	-0.04
470.888	-0.04
471.088	-0.02
471.288	0.02
471.488	0.06
471.688	0.03
471.888	-0.02
472.088	0.08
472.288	0.05
472.488	-0.05
472.688	-0.06
472.888	0.01
473.088	0
473.288	0.01
473.488	-0.02
473.688	0.1
473.887	-0.02
474.087	-0.02
474.287	-0.02
474.487	-0.07
474.687	-0
474.886	-0.06
475.086	-0.02
475.286	0.02
475.486	0.01
475.685	-0.01
475.885	-0
476.085	0
476.284	0.04
476.484	-0.03
476.684	0.01
476.883	0.05
477.083	-0.02
477.282	-0.04
477.482	0.06
477.681	0.08
477.881	-0.01
478.08	-0.01
478.28	-0.04
478.479	0.05
478.679	0.05
478.878	-0.04
479.078	-0.04
479.277	-0.04
479.477	-0.02
479.676	0.02
479.875	-0.02
480.075	-0.06
480.274	0.02
480.473	0.03
480.673	-0.01
480.872	0.05
481.071	-0.01
481.271	-0.02
481.47	-0.02
481.669	-0.04
481.868	-0.01
482.067	-0.02
482.267	-0.04
482.466	-0.04
482.665	-0.04
482.864	-0.04
483.063	-0.06
483.262	0.01
483.461	0.05
483.661	0.01
483.86	-0.02
484.059	0.01
484.258	0
484.457	-0.02
484.656	-0.02
484.855	0.05
485.054	-0.05
485.253	-0.04
485.452	-0.03
485.651	-0.01
485.849	-0.04
486.048	-0.04
486.247	-0.04
486.446	0.01
486.645	-0.04
486.844	-0.03
487.043	-0.01
487.241	0.02
487.44	-0.02
487.639	-0.02
487.838	0.01
488.037	0.01
488.235	0.04
488.434	-0
488.633	-0.03
488.831	0.01
489.03	0.01
489.229	-0
489.427	-0.03
489.626	0.02
489.825	0.02
490.023	-0.02
490.222	-0.03
490.42	0.03
490.619	0.03
490.817	0
491.016	-0.02
491.214	0.01
491.413	-0.02
491.611	0
491.81	-0
492.008	0.01
492.207	-0
492.405	-0
492.604	-0.04
492.802	-0
493	0.01
493.199	-0.04
493.397	-0.01
493.595	-0.02
493.794	-0.02
493.992	0.03
494.19	0
494.388	0.04
494.587	-0.01
494.785	-0.01
494.983	-0.04
495.181	-0.02
495.379	-0.01
495.578	-0.01
495.776	0.02
495.974	0.01
496.172	-0.03
496.37	-0.02
496.568	-0.03
496.766	-0.01
496.964	0.02
497.162	-0.02
497.36	-0.04
497.558	0
497.756	0.02
497.954	0.01
498.152	-0.02
498.35	0
498.548	-0.01
498.746	0.01
498.944	-0.03
499.142	-0.01
499.34	-0.03
499.538	-0.01
499.736	-0.02
499.933	0.02
500.131	0.03
500.329	-0.01
500.527	0.01
500.725	0.02
500.922	0.01
501.12	-0
501.318	-0.02
501.516	-0.03
501.713	0.01
501.911	-0.01
502.109	-0.03
502.306	0.01
502.504	-0.02
502.701	-0
502.899	-0.02
503.097	0.03
503.294	0.02
503.492	-0.01
503.689	0.01
503.887	0.01
504.084	0.05
504.282	0.01
504.479	-0.05
504.677	0.01
504.874	-0.03
505.072	-0.02
505.269	-0.02
505.466	0.02
505.664	0
505.861	-0.06
506.059	-0.05
506.256	0.01
506.453	-0.02
506.651	0.04
506.848	0.01
507.045	0.01
507.242	-0.01
507.44	-0.03
507.637	-0.01
507.834	-0
508.031	-0
508.229	-0.03
508.426	-0
508.623	-0.01
508.82	-0.03
509.017	-0.02
509.214	-0.02
509.411	0.01
509.608	-0.05
509.805	-0
510.003	-0.01
510.2	-0.02
510.397	0
510.594	-0.04
510.791	-0.02
510.988	-0.01
511.184	0.01
511.381	0.01
511.578	-0.05
511.775	0.02
511.972	-0.02
512.169	-0.02
512.366	0
512.563	-0.01
512.76	-0.02
512.956	0.01
513.153	-0.02
513.35	0
513.547	-0.01
513.744	-0.03
513.94	-0.04
514.137	0
514.334	-0
514.53	-0.01
514.727	-0.01
514.924	0.03
515.12	-0.02
515.317	-0.05
515.514	-0.02
515.71	-0.04
515.907	-0
516.103	-0.01
516.3	0
516.497	0.02
516.693	0.03
516.89	0
517.086	-0.04
517.283	0.02
517.479	0
517.676	-0.01
517.872	-0
518.068	-0
518.265	-0.02
518.461	-0.04
518.658	-0.04
518.854	-0.01
519.05	-0.01
519.247	-0.02
519.443	0.01
519.639	0.01
519.836	-0
520.032	-0.02
520.228	0.02
520.424	0.03
520.621	0.01
520.817	-0.02
521.013	0.01
521.209	0.03
521.405	0.02
521.601	-0
521.798	-0
521.994	0.03
522.19	-0.02
522.386	-0.06
522.582	0.02
522.778	-0
522.974	-0.01
523.17	-0
523.366	-0.01
523.562	-0.01
523.758	-0
523.954	-0.04
524.15	-0.03
524.346	0.03
524.542	-0.03
524.738	-0.03
524.934	0.02
525.129	-0.01
525.325	-0
525.521	0
525.717	0.02
525.913	0.02
526.109	-0
526.304	-0.02
526.5	0
526.696	0
526.892	-0.02
527.087	0.02
527.283	-0.02
527.479	-0.01
527.674	-0.01
527.87	-0
528.066	-0.02
528.261	0.02
528.457	0.01
528.653	-0.02
528.848	0
529.044	-0.01
529.239	-0.02
529.435	0
529.63	0.02
529.826	0.05
530.021	0.02
530.217	0.03
530.412	-0.03
530.608	-0.04
530.803	-0.03
530.999	-0.01
531.194	-0.05
531.389	-0.01
531.585	-0.03
531.78	-0.02
531.975	-0.02
532.171	0.02
532.366	-0.02
532.561	-0
532.757	-0.02
532.952	-0
533.147	0.02
533.342	-0.02
533.538	0.01
533.733	0.04
533.928	0
534.123	-0.02
534.318	-0.05
534.513	-0.01
534.709	0.01
534.904	-0.04
535.099	-0.02
535.294	-0
535.489	0
535.684	-0.03
535.879	-0.03
536.074	0.01
536.269	-0.02
536.464	0.01
536.659	-0.03
536.854	-0.02
537.049	-0.01
537.244	-0.01
537.439	-0
537.634	0.02
537.828	-0.01
538.023	-0.02
538.218	-0.03
538.413	-0
538.608	-0.03
538.803	-0.01
538.997	-0.05
539.192	0.01
539.387	-0.01
539.582	0
539.776	0.01
539.971	-0.03
540.166	-0
540.36	-0.04
540.555	-0.01
540.75	-0.01
540.944	-0.02
541.139	-0.04
541.334	-0.01
541.528	0
541.723	0.01
541.917	0
542.112	-0.05
542.306	-0.03
542.501	-0.01
542.695	-0.02
542.89	-0.02
543.084	-0.01
543.279	-0
543.473	-0.02
543.668	0
543.862	0.01
544.056	0
544.251	-0.02
544.445	0.01
544.64	-0.01
544.834	-0.03
545.028	-0.01
545.222	0.01
545.417	0.01
545.611	0.01
545.805	-0.01
546	-0.01
546.194	0.01
546.388	-0.02
546.582	-0.01
546.776	-0.01
546.97	-0.01
547.165	0.02
547.359	0.03
547.553	-0.03
547.747	-0.01
547.941	-0.01
548.135	-0.01
548.329	0.01
548.523	-0
548.717	-0.01
548.911	-0.02
549.105	-0.01
549.299	-0.01
549.493	0.02
549.687	0.01
549.881	-0.01
550.075	-0.02
550.269	-0.04
550.463	-0
550.657	-0.01
550.85	-0.01
551.044	-0.03
551.238	0.01
551.432	-0.02
551.626	-0.04
551.82	-0.01
552.013	-0.01
552.207	-0.02
552.401	0.02
552.594	-0
552.788	-0.01
552.982	0.01
553.176	-0.01
553.369	-0.01
553.563	-0
553.756	-0.04
553.95	-0
554.144	-0.01
554.337	0.01
554.531	0
554.724	-0.01
554.918	-0.03
555.111	0.01
555.305	-0.01
555.498	0.05
555.692	0.03
555.885	-0.03
556.079	0.01
556.272	-0.02
556.466	0.01
556.659	-0.01
556.852	-0
557.046	0
557.239	0.01
557.432	-0.04
557.626	-0.02
557.819	-0.01
558.012	0.01
558.206	0.01
558.399	-0.02
558.592	0.02
558.785	-0.02
558.979	0
559.172	0
559.365	0.01
559.558	-0.01
559.751	-0.02
559.944	-0.02
560.138	0
560.331	-0.01
560.524	-0.03
560.717	-0.02
560.91	-0.01
561.103	0.01
561.296	-0
561.489	-0
561.682	-0
561.875	0.02
562.068	0.01
562.261	0.01
562.454	0.03
562.647	0.01
562.84	-0
563.032	-0.01
563.225	0.02
563.418	0
563.611	-0.01
563.804	-0.02
563.997	-0.07
564.19	-0.03
564.382	-0.01
564.575	0
564.768	0.01
564.961	-0.01
565.153	-0.03
565.346	0.04
565.539	0
565.731	0
565.924	0.04
566.117	0.01
566.309	-0.01
566.502	-0.02
566.695	-0.01
566.887	-0.01
567.08	-0.02
567.272	-0.02
567.465	-0.01
567.657	0
567.85	-0.01
568.042	0.01
568.235	0.03
568.427	-0.02
568.62	-0.01
568.812	0.01
569.005	0
569.197	-0.04
569.389	-0.02
569.582	-0
569.774	0
569.966	-0.04
570.159	-0.05
570.351	0.01
570.543	-0.02
570.736	-0
570.928	-0.04
571.12	-0.01
571.312	-0.01
571.505	-0.02
571.697	0.02
571.889	-0.03
572.081	0.01
572.273	-0.03
572.465	0.04
572.658	-0.03
572.85	0
573.042	-0.01
573.234	-0.01
573.426	0.05
573.618	-0.04
573.81	0.02
574.002	0.01
574.194	0.05
574.386	-0.06
574.578	-0.06
574.77	-0.02
574.962	-0.02
575.154	-0.05
575.346	-0.02
575.538	0
575.729	-0.02
575.921	0.01
576.113	-0.03
576.305	0.02
576.497	-0
576.689	-0
576.88	-0.03
577.072	0
577.264	-0.02
577.456	-0.01
577.647	-0.05
577.839	-0.01
578.031	0.02
578.223	-0.04
578.414	-0.03
578.606	0.01
578.798	-0.01
578.989	-0.01
579.181	-0.03
579.372	-0.03
579.564	-0.01
579.755	-0.03
579.947	-0.01
580.139	0.02
580.33	-0.03
580.522	-0.03
580.713	-0.07
580.905	-0.01
581.096	-0.01
581.287	-0.02
581.479	-0.01
581.67	0.02
581.862	-0.02
582.053	-0.02
582.244	-0.05
582.436	-0.01
582.627	-0
582.818	-0.01
583.01	-0.04
583.201	0
583.392	0.02
583.583	-0
583.775	-0.02
583.966	-0.02
584.157	-0.01
584.348	-0.02
584.54	-0.05
584.731	0.01
584.922	-0.03
585.113	-0.06
585.304	-0
585.495	0
585.686	-0.01
585.877	0.01
586.068	-0
586.259	0.04
586.45	0.01
586.641	-0.06
586.832	-0.07
587.023	-0.01
587.214	-0.01
587.405	-0.01
587.596	-0.01
587.787	0.03
587.978	0.01
588.169	-0.02
588.36	-0.01
588.551	0.02
588.742	-0.05
588.932	-0
589.123	0.01
589.314	0.01
589.505	-0
589.696	0
589.886	-0.02
590.077	-0.04
590.268	0
590.458	-0.06
590.649	-0.03
590.84	0.02
591.03	-0.04
591.221	-0.02
591.412	-0.06
591.602	0.03
591.793	0.01
591.984	-0.06
592.174	-0.01
592.365	0.04
592.555	-0.02
592.746	0.01
592.936	0
593.127	0
593.317	0.03
593.508	-0.03
593.698	-0.01
593.889	0.01
594.079	-0.01
594.269	-0.04
594.46	-0.02
594.65	0
594.84	-0.02
595.031	-0.04
595.221	-0.04
595.411	-0.03
595.602	0
595.792	-0.02
595.982	-0.04
596.172	0.04
596.363	0.02
596.553	-0.01
596.743	-0
596.933	-0.01
597.123	0.04
597.314	-0.03
597.504	-0.01
597.694	0.02
597.884	0.03
598.074	-0.03
598.264	-0.01
598.454	-0.01
598.644	0.02
598.834	-0.01
599.024	-0.08
599.214	-0.03
599.404	0.04
599.594	-0.02
599.784	-0.02
599.974	0.04
600.164	-0.01
600.354	-0.04
600.544	-0.05
600.734	-0
600.924	0.01
601.114	-0.05
601.303	-0.02
601.493	0
601.683	-0.02
601.873	-0.02
602.063	-0.06
602.252	0.04
602.442	-0.08
602.632	-0.02
602.821	-0.04
603.011	0.01
603.201	-0.03
603.39	-0.05
603.58	-0.03
603.77	0.01
603.959	0.03
604.149	0.02
604.339	-0.02
604.528	0.04
604.718	-0.01
604.907	0
605.097	-0
605.286	-0.02
605.476	0.02
605.665	0.01
605.855	-0.02
606.044	0.03
606.234	-0.01
606.423	-0.02
606.612	-0.04
606.802	0.02
606.991	0.03
607.181	-0.01
607.37	-0.04
607.559	-0.01
607.749	-0.06
607.938	-0.02
608.127	-0.02
608.316	-0.03
608.506	0.02
608.695	0
608.884	-0.04
609.073	-0
609.263	0.01
609.452	0.04
609.641	-0.01
609.83	-0.04
610.019	0
610.208	-0.03
610.397	-0.01
610.586	0.03
610.775	-0.01
610.965	-0.02
611.154	-0.01
611.343	0.03
611.532	-0.01
611.721	-0.03
611.91	-0.04
612.099	0.01
612.287	0.04
612.476	-0.03
612.665	-0.01
612.854	-0.03
613.043	0.02
613.232	-0.02
613.421	-0.05
613.61	0
613.798	-0.03
613.987	0.05
614.176	-0.01
614.365	0.03
614.554	-0.01
614.742	0.04
614.931	-0.01
615.12	0.03
615.309	0.01
615.497	0.01
615.686	-0.02
615.875	-0.02
616.063	0
616.252	-0.02
616.44	-0
616.629	0
616.818	0.01
617.006	0
617.195	-0
617.383	0.01
617.572	-0
617.76	-0.01
617.949	-0.02
618.137	0.03
618.326	-0
618.514	-0.02
618.703	-0.01
618.891	0.06
619.079	-0.05
619.268	0.02
619.456	-0.03
619.644	0.04
619.833	-0.01
620.021	0.01
620.209	-0.04
620.398	0.01
620.586	0.01
620.774	0.04
620.962	0.03
621.151	0.1
621.339	0.03
621.527	-0.02
621.715	-0.05
621.903	-0.06
622.092	-0.03
622.28	0.05
622.468	-0
622.656	0
622.844	0.03
623.032	-0
623.22	-0.06
623.408	-0.01
623.596	0.03
623.784	0.05
623.972	-0.02
624.16	-0.03
624.348	0.07
624.536	0.02
624.724	-0.01
624.912	0.05
625.1	0.04
625.288	-0.01
625.476	-0.02
625.664	0.06
625.851	-0.01
626.039	-0.01
626.227	0
626.415	-0.01
626.603	-0.04
626.79	-0.01
626.978	0
627.166	0.01
627.354	0.01
627.541	-0.01
627.729	-0.08
627.917	0.03
628.104	0.03
628.292	0
628.48	0.01
628.667	0.02
628.855	-0
629.042	0
629.23	-0.02
629.418	-0.01
629.605	-0.05
629.793	-0.03
629.98	-0.04
630.168	-0.05
630.355	-0.03
630.543	-0.01
630.73	-0.04
630.917	0.04
631.105	0.04
631.292	-0.02
631.48	-0.03
631.667	0.05
631.854	-0.01
632.042	-0.01
632.229	-0.05
632.416	-0.04
632.604	-0.02
632.791	-0.04
632.978	0.02
633.165	0.01
633.353	0.04
633.54	0.01
633.727	-0.05
633.914	-0.04
634.101	-0.06
634.289	0.03
634.476	-0.02
634.663	-0.05
634.85	0.04
635.037	-0.06
635.224	-0.07
635.411	0.02
635.598	0.03
635.785	-0
635.972	0.01
636.159	0.03
636.346	-0.05
636.533	0
636.72	-0.02
636.907	-0.01
637.094	0.02
637.281	0.01
637.468	0.03
637.655	-0
637.842	0.01
638.029	-0.03
638.215	-0.01
638.402	0
638.589	-0.06
638.776	-0.06
638.963	-0.04
639.149	0.01
639.336	0.07
639.523	0.01
639.709	-0.03
639.896	-0.02
640.083	0.04
640.27	0.02
640.456	-0.01
640.643	0.01
640.829	-0.08
641.016	-0.03
641.203	-0.04
641.389	-0
641.576	0.01
641.762	-0.02
641.949	-0.06
642.135	0.01
642.322	0.01
642.508	-0.06
642.695	0
642.881	-0.01
643.068	-0.01
643.254	-0.02
643.441	0.02
643.627	-0.02
643.813	-0.06
644	0.04
644.186	-0.03
644.372	0.02
644.559	-0.01
644.745	-0.05
644.931	-0.04
645.118	-0.02
645.304	0.01
645.49	-0.05
645.676	-0.03
645.862	-0.03
646.049	0.04
646.235	-0.02
646.421	0.04
646.607	0.04
646.793	-0.01
646.979	-0.05
647.165	-0
647.352	0.01
647.538	0.01
647.724	-0.03
647.91	-0.01
648.096	0.01
648.282	0.04
648.468	0.02
648.654	0.01
648.84	0.03
649.026	-0.02
649.212	0.02
649.397	-0.03
649.583	-0.04
649.769	0.03
649.955	-0.03
650.141	-0.01
650.327	0.04
650.513	-0.03
650.698	0
650.884	-0.08
651.07	-0.02
651.256	-0
651.442	-0.02
651.627	-0.02
651.813	0.02
651.999	-0.02
652.184	-0.01
652.37	-0.02
652.556	-0.06
652.741	0.04
652.927	-0.06
653.113	-0.01
653.298	0.02
653.484	-0.03
653.669	-0.08
653.855	-0.03
654.04	0.01
654.226	0.01
654.412	-0.03
654.597	-0.06
654.782	0
654.968	0
655.153	0.01
655.339	-0.02
655.524	-0.03
655.71	0
655.895	-0.04
656.08	-0.02
656.266	0.03
656.451	0.01
656.636	-0.04
656.822	-0
657.007	-0.05
657.192	-0.02
657.378	-0.07
657.563	0
657.748	0
657.933	0.03
658.118	-0.03
658.304	-0.04
658.489	0.02
658.674	-0
658.859	-0.06
659.044	-0.02
659.229	0.01
659.414	-0.03
659.599	-0.01
659.785	-0.03
659.97	-0.02
660.155	0.02
660.34	0.03
660.525	-0.04
660.71	-0.04
660.895	0.03
661.08	-0.08
661.264	-0.02
661.449	0.02
661.634	0.06
661.819	-0.01
662.004	-0.01
662.189	-0.08
662.374	-0.02
662.559	-0.04
662.743	-0.06
662.928	-0.02
663.113	-0.02
663.298	-0.07
663.483	-0.04
663.667	-0
663.852	-0.08
664.037	0.03
664.221	-0.06
664.406	0
664.591	0.03
664.775	0.01
664.96	-0.03
665.145	-0.01
665.329	0.01
665.514	-0.05
665.698	-0.02
665.883	-0.08
666.068	0.06
666.252	-0.01
666.437	-0.07
666.621	-0.03
666.806	0.03
666.99	0
667.174	-0.06
667.359	0.03
667.543	-0.01
667.728	-0.01
667.912	-0.06
668.096	0.01
668.281	-0.04
668.465	-0.03
668.649	-0.03
668.834	-0.06
669.018	-0.02
669.202	0.01
669.387	-0.05
669.571	0.02
669.755	-0.05
669.939	-0.04
670.124	-0.02
670.308	0.04
670.492	0.02
670.676	-0
670.86	-0.04
671.044	-0.06
671.228	0.03
671.413	-0.04
671.597	-0.04
671.781	-0.03
671.965	-0
672.149	-0.06
672.333	-0.06
672.517	-0.04
672.701	-0.01
672.885	-0.03
673.069	-0.1
673.253	0.03
673.437	-0.02
673.621	-0.06
673.804	-0.02
673.988	0.01
674.172	-0.03
674.356	-0.03
674.54	-0.04
674.724	0.09
674.908	-0.03
675.091	0.01
675.275	-0.04
675.459	0.01
675.643	-0.05
675.826	-0
676.01	0.01
676.194	-0.02
676.377	0.04
676.561	-0
676.745	-0.01
676.928	-0.01
677.112	0.04
677.296	-0.06
677.479	-0.03
677.663	-0.04
677.846	-0.01
678.03	-0.03
678.213	0.01
678.397	-0.01
678.58	-0.05
678.764	0
678.947	-0.04
679.131	-0.08
679.314	0.01
679.498	-0.04
679.681	-0.01
679.865	0.06
680.048	-0.05
680.231	-0.05
680.415	-0.01
680.598	-0.02
680.781	-0.02
680.965	-0.01
681.148	0.01
681.331	-0.03
681.514	0.01
681.698	-0.03
681.881	0.02
682.064	0
682.247	0
682.43	-0.05
682.614	0.02
682.797	0.03
682.98	0.05
683.163	-0.07
683.346	0.02
683.529	-0.02
683.712	-0.06
683.895	0.04
684.078	-0.02
684.261	0
684.444	0
684.627	0.06
684.81	-0.02
684.993	-0.02
685.176	0.03
685.359	-0.06
685.542	-0.07
685.725	0.03
685.908	-0.01
686.091	-0.03
686.274	0.02
686.457	0.05
686.639	-0.04
686.822	-0
687.005	-0.04
687.188	0.02
687.371	0.06
687.553	-0
687.736	-0
687.919	0.09
688.102	0
688.284	-0.01
688.467	-0.01
688.65	-0.07
688.832	-0.03
689.015	0
689.197	-0.08
689.38	0.06
689.563	0.05
689.745	-0.03
689.928	-0.05
690.11	0.02
690.293	-0.01
690.475	-0.07
690.658	0.01
690.84	-0.01
691.023	0.01
691.205	-0.02
691.388	-0.03
691.57	0.02
691.752	0.02
691.935	-0.07
692.117	-0.04
692.3	-0.04
692.482	-0.03
692.664	-0.04
692.847	0.04
693.029	0.09
693.211	-0.02
693.393	-0.04
693.576	-0.05
693.758	-0.05
693.94	-0.05
694.122	-0.03
694.304	0
694.487	-0.04
694.669	0.07
694.851	-0.05
695.033	0.02
695.215	-0.05
695.397	-0.02
695.579	0.01
695.761	-0.03
695.943	-0.09
696.125	0.06
696.308	0.02
696.49	-0.1
696.671	0.1
696.853	0
697.035	0.08
697.217	0.04
697.399	0.01
697.581	-0.03
697.763	0
697.945	-0.07
698.127	0.01
698.309	0.03
698.491	-0.01
698.672	0
698.854	0.06
699.036	0.01
699.218	-0.05
699.399	0.04
699.581	-0.01
699.763	-0.03
699.945	-0.06
700.126	-0.12
700.308	-0.02
700.49	-0.03
700.671	-0.16
700.853	-0.03
701.035	-0.04
701.216	0.01
701.398	-0.05
701.579	-0.06
701.761	0.11
701.943	-0.06
702.124	-0.07
702.306	-0.05
702.487	0.16
702.669	-0.05
702.85	-0.03
703.031	-0.15
703.213	0.11
703.394	0.04
703.576	-0.08
703.757	0.07
703.938	0.06
704.12	0.17
704.301	-0.02
704.483	-0.06
704.664	-0.01
704.845	0.07
705.026	0.05
705.208	0.03
705.389	0.03
705.57	-0.02
705.751	-0.03
705.933	-0.05
706.114	0.03
706.295	-0.07
706.476	-0.1
706.657	0.07
706.838	0.05
707.02	0.09
707.201	-0.05
707.382	-0.01
707.563	0.04
707.744	-0.08
707.925	-0.05
708.106	-0.06
708.287	0.01
708.468	0
708.649	-0.04
708.83	-0.01
709.011	-0.01
709.192	0.03
709.373	-0.08
709.554	-0.01
709.734	0.05
709.915	0.01
710.096	-0.07
710.277	-0.12
710.458	-0.05
710.639	-0.02
710.819	-0.13
711	0
711.181	0.06
711.362	0.09
711.542	0.07
711.723	-0.04
711.904	0.05
712.085	0.03
712.265	-0
712.446	-0.08
712.627	-0.06
712.807	0.03
712.988	0.03
713.168	-0.06
713.349	-0.03
713.53	-0.13
713.71	-0.15
713.891	-0.06
714.071	-0.07
714.252	-0.05
714.432	-0.03
714.613	-0.12
714.793	-0.01
714.974	0.1
715.154	0.05
715.334	0.04
715.515	0.07
715.695	-0.07
715.876	-0.05
716.056	-0.03
716.236	-0.01
716.417	-0.09
716.597	-0.08
716.777	0.11
716.957	-0.01
717.138	0.02
717.318	-0.05
717.498	-0.15
717.678	-0.05
717.859	-0
718.039	-0.14
718.219	0.02
718.399	0.01
718.579	-0.11
718.759	-0.08
718.939	0.01
719.12	-0.07
719.3	-0.03
719.48	-0.16
719.66	-0.19
719.84	0.07
720.02	0
720.2	-0.03
720.38	-0.07
720.56	0.04
720.74	-0.08
720.92	0.04
721.1	0.07
721.279	0.09
721.459	0
721.639	-0.12
721.819	0.03
721.999	0
722.179	-0
722.359	-0.07
722.538	0.02
722.718	0.02
722.898	-0.07
723.078	-0.1
723.257	-0.09
723.437	-0.04
723.617	0.05
723.797	-0.12
723.976	-0.05
724.156	-0.01
724.336	0.07
724.515	0.11
724.695	-0.12
724.874	-0.05
725.054	-0.01
725.234	-0.04
725.413	-0.04
725.593	-0.05
725.772	-0
725.952	-0.01
726.131	-0.03
726.311	0.03
726.49	0.03
726.67	-0.06
726.849	-0.06
727.028	0.08
727.208	-0.06
727.387	-0.06
727.567	-0.04
727.746	-0.05
727.925	-0.11
728.105	-0.14
728.284	-0.02
728.463	-0.06
728.643	0.05
728.822	-0.09
729.001	-0
729.18	-0.1
729.359	-0.02
729.539	-0.04
729.718	-0.01
729.897	0.06
730.076	0.06
730.255	-0.12
730.434	-0.04
730.614	-0.01
730.793	0.02
730.972	-0.04
731.151	0.01
731.33	0.08
731.509	0.04
731.688	-0.05
731.867	0.03
732.046	-0.13
732.225	0.19
732.404	-0.04
732.583	-0.14
732.762	-0
732.941	0
733.12	0.03
733.298	-0.06
733.477	-0.05
733.656	-0.08
733.835	-0.1
734.014	0.07
734.193	-0.02
734.371	0.03
734.55	-0.01
734.729	-0.09
734.908	-0.02
735.086	0.02
735.265	0.1
735.444	-0.12
735.623	-0.15
735.801	-0.09
735.98	-0.01
736.159	-0.03
736.337	0.01
736.516	0.02
736.694	-0.05
736.873	0.01
737.052	0.11
737.23	0.03
737.409	-0.11
737.587	0.03
737.766	-0.16
737.944	-0.08
738.123	0.07
738.301	-0
738.479	-0.03
738.658	0.07
738.836	-0.15
739.015	-0.02
739.193	-0.01
739.371	-0.09
739.55	-0.04
739.728	-0.11
739.906	0.05
740.085	0.15
740.263	-0.05
740.441	-0.21
740.62	0.09
740.798	0.04
740.976	-0.09
741.154	-0.22
741.332	0.23
741.511	-0.06
741.689	0.04
741.867	-0
742.045	-0.02
742.223	-0.03
742.401	-0.1
742.579	-0.05
742.757	-0.01
742.935	-0.19
743.114	-0.05
743.292	-0.01
743.47	-0.01
743.648	-0.02
743.826	-0.15
744.004	0
744.181	-0.03
744.359	-0.14
744.537	0.01
744.715	0.03
744.893	-0.02
745.071	-0.06
745.249	-0.07
745.427	-0.09
745.605	0.02
745.782	-0.03
745.96	0.02
746.138	0.03
746.316	0.12
746.493	0.02
746.671	-0.06
746.849	-0.09
747.027	0.08
747.204	-0.12
747.382	-0.03
747.56	-0.17
747.737	-0.01
747.915	-0.08
748.093	0.13
748.27	-0.14
748.448	-0.03
748.625	-0.07
748.803	-0.16
748.98	-0.06
749.158	0.04
749.335	0.12
749.513	-0.07
749.69	0.03
749.868	-0.11
750.045	0
750.223	-0.06
750.4	-0.31
750.578	0.18
750.755	0.02
750.932	-0.14
751.11	0.13
751.287	-0.19
751.464	0.13
751.642	-0.05
751.819	0.04
751.996	-0.03
752.173	-0.1
752.351	-0.18
752.528	0.1
752.705	0.01
752.882	-0.13
753.06	-0.06
753.237	0.08
753.414	0.15
753.591	0.13
753.768	0.08
753.945	-0.08
754.122	0.01
754.299	0.09
754.476	-0.08
754.654	0.06
754.831	-0.08
755.008	-0.03
755.185	-0.11
755.362	-0.19
755.539	0.06
755.716	-0.14
755.892	-0
756.069	-0.06
756.246	0.04
756.423	-0.1
756.6	0.12
756.777	-0.12
756.954	0.1
757.131	-0.06
757.307	-0.12
757.484	-0.18
757.661	0.05
757.838	-0.02
758.015	-0.19
758.191	0.1
758.368	0.07
758.545	0.07
758.721	0.08
758.898	-0.15
759.075	0.04
759.251	0.02
759.428	0.03
759.605	-0.16
759.781	-0.02
759.958	-0.01
760.134	0.01
760.311	-0.14
760.488	0.11
760.664	0.07
760.841	-0.06
761.017	-0.05
761.194	0.1
761.37	0.05
761.547	0
761.723	0.02
761.899	0.09
762.076	-0.12
762.252	-0.2
762.429	-0.1
762.605	0.01
762.781	-0.06
762.958	0.01
763.134	0.04
763.31	-0.14
763.486	0.15
763.663	-0.11
763.839	0.07
764.015	-0.22
764.191	-0.01
764.368	-0
764.544	-0.07
764.72	-0.07
764.896	-0.02
765.072	-0.02
765.248	0.01
765.425	-0.11
765.601	-0.01
765.777	-0.01
765.953	-0.28
766.129	0.02
766.305	-0.09
766.481	0.03
766.657	-0.08
766.833	0.16
767.009	-0.17
767.185	-0.05
767.361	-0.07
767.537	-0.1
767.713	0.1
767.889	0.07
768.065	-0.01
768.24	0.03
768.416	0.17
768.592	-0.11
768.768	-0.12
768.944	0.05
769.12	-0.18
769.295	-0.17
769.471	0.03
769.647	-0.02
769.823	0.16
769.998	-0.08
770.174	-0.08
770.35	0.3
770.525	0.26
770.701	0
770.877	0.05
771.052	0.02
771.228	0.12
771.403	-0.02
771.579	0.03
771.755	0.27
771.93	-0.09
772.106	-0.16
772.281	-0.12
772.457	-0.11
772.632	0.05
772.808	-0.26
772.983	-0.12
773.159	-0.2
773.334	0.06
773.509	-0.03
773.685	-0.1
773.86	0.25
774.036	0.16
774.211	0.03
774.386	-0.09
774.562	0.14
774.737	-0.07
774.912	-0.16
775.087	0.01
775.263	-0.14
775.438	0.06
775.613	-0.07
775.788	-0.1
775.964	0.17
776.139	0.14
776.314	-0.22
776.489	-0.01
776.664	-0.08
776.839	-0.16
777.014	0.02
777.19	0.1
777.365	0.09
777.54	0.22
777.715	-0.09
777.89	-0.03
778.065	-0.15
778.24	0
778.415	0.08
778.59	-0.14
778.765	-0.05
778.94	-0.18
779.115	-0.07
779.289	-0.11
779.464	0.07
779.639	0.01
779.814	-0.14
779.989	-0.2
780.164	0.23
780.339	-0.02
780.513	-0.3
780.688	-0.18
780.863	-0.04
781.038	0.02
781.212	-0.19
781.387	-0.07
781.562	0.3
781.737	-0.03
781.911	0.22
782.086	-0.08
782.261	-0.02
782.435	0.34
782.61	0
782.784	-0.07
782.959	0.42
783.134	-0.01
783.308	-0.31
783.483	-0.21
783.657	0.33
783.832	-0.13
784.006	-0.17
784.181	-0.11
784.355	0.13
784.53	-0.23
784.704	-0.06
784.878	0.45
785.053	-0
785.227	0.05
785.402	0.43
785.576	-0.31
785.75	-0.1
785.925	-0.21
786.099	0.05
786.273	-0.09
786.448	0.21
786.622	0.11
786.796	-0.15
786.97	-0
787.145	0.2
787.319	-0.45
787.493	-0.01
787.667	-0.33
787.841	0.14
788.015	0.06
788.19	-0.25
788.364	-0.01
788.538	0.08
788.712	0.03
788.886	-0.04
789.06	0.27
789.234	0.03
789.408	-0.39
789.582	0.03
789.756	0.09
789.93	-0.19
790.104	0.01
790.278	-0.14
790.452	-0.22
790.626	0.17
790.8	-0.35
790.973	0.12
791.147	0.15
791.321	0.18
791.495	0.23
791.669	0.08
791.843	0.01
792.016	0.03
792.19	0.53
792.364	0.12
792.538	0.37
792.711	0.41
792.885	-0.12
793.059	-0.28
793.233	-0.41
793.406	0.03
793.58	-0.12
793.754	0.05
793.927	-0.01
794.101	0.42
794.274	-0.07
794.448	0.13
794.622	-0.24
794.795	0.21
794.969	-0.19
795.142	0.33
795.316	-0.26
795.489	-0.35
795.663	0.45
795.836	-0.01
796.009	-0.16
796.183	0.4
796.356	-0.01
796.53	0.28
796.703	-0.02
796.876	0.39
797.05	-0.21
797.223	0.01
797.396	0.17
797.57	-0.12
797.743	0.37
797.916	-0.04
798.09	-0.11
798.263	0.35
798.436	0.1
798.609	-0.13
798.782	-0.11
798.956	0.16
799.129	0.09
799.302	-0.17
799.475	-0.08
799.648	-0.27
799.821	-0.12
799.994	0.13
800.167	-0.18
800.34	-0.15
800.514	0.14
800.687	-0.07
800.86	-0.2
801.033	-0.01
801.206	0.02
801.379	-0.15
801.551	0.47
801.724	0.07
801.897	0.51
802.07	-0.14
802.243	-0.38
802.416	-0.11
802.589	0.05
802.762	0.02
802.935	0.01
803.107	0.17
803.28	0.52
803.453	0.25
803.626	-0.12
803.798	-0.21
803.971	-0.04
804.144	-0.08
804.317	-0.01
804.489	0.4
804.662	-0.21
804.835	0.13
805.007	-0.36
805.18	0.33
805.353	0.34
805.525	-0.67
805.698	-0.4
805.87	0.2
806.043	0.17
806.215	-0.53
806.388	-0.24
806.56	0.16
806.733	0.3
806.905	-0.15
807.078	-0.15
807.25	-0.35
807.423	0.15
807.595	-0.09
807.768	0.03
807.94	0.34
808.112	0.45
808.285	-0.08
808.457	-0.33
808.629	0.13
808.802	-0.09
808.974	-0.18
809.146	0.01
809.318	-0.33
809.491	-0.34
809.663	0.29
809.835	-0.24
810.007	0.35
810.18	0.11
810.352	-0.21
810.524	-0.19
810.696	0.37
810.868	0.49
811.04	0.07
811.212	-0.09
811.384	0.16
811.556	-0.15
811.728	-0
811.901	0.82
812.073	-0.35
812.245	0.58
812.417	-0.15
812.589	-0.85
812.76	0.29
812.932	0.2
813.104	0.43
813.276	0.09
813.448	0.15
813.62	-0.24
813.792	0.15
813.964	-0.27
814.136	0.27
814.307	-0.16
814.479	0
814.651	-0.07
814.823	0.66
814.995	-0.02
815.166	0.06
815.338	-0.34
815.51	-0.48
815.681	0.81
815.853	-0.07
816.025	-0.02
816.196	0.57
816.368	0.38
816.54	-0.58
816.711	-0.39
816.883	0.04
817.054	0.87
817.226	-0.83
817.398	0.18
817.569	-0.21
817.741	-0.13
817.912	-0.13
818.084	0.12
818.255	0
818.426	-0.55
818.598	-0.01
818.769	0.1
818.941	0.02
819.112	0.7
819.283	0.36
819.455	-0.3
819.626	-0.14
819.798	0.56
819.969	0.05
820.14	-0.14
820.311	0.03
820.483	0.09
820.654	0.3
820.825	-0.29
820.996	0.08
821.168	-0.07
821.339	-0.34
821.51	-0.44
821.681	-0.39
821.852	-0.05
822.023	-0.48
822.195	-1.05
822.366	0.33
822.537	0.01
822.708	0.23
822.879	0.29
823.05	0.7
823.221	-0.07
823.392	0.08
823.563	0.1
823.734	0.06
823.905	-0.4
824.076	-0.25
824.247	-0.53
824.418	-0.23
824.589	0.54
824.759	-0.1
824.93	0.3
825.101	-0.77
825.272	0.2
825.443	0.88
825.614	0.13
825.784	-1.24
825.955	0.84
826.126	0.38
826.297	0.09
826.467	0.71
826.638	0.36
826.809	-0.28
826.98	0.01
827.15	0.53
827.321	-0.44
827.492	0.41
827.662	0.1
827.833	0.81
828.003	0.38
828.174	-0.34
828.345	-0.6
828.515	0.55
828.686	0.05
828.856	-0.1
829.027	-0.01
829.197	0.17
829.368	0.01
829.538	-0.23
829.709	-0.56
829.879	0.17
830.049	-0.27
830.22	0.05
830.39	-0.1
830.56	0.81
830.731	-0.19
830.901	-0.8
831.072	-0.13
831.242	0.35
831.412	-0.04
831.582	0.05
831.753	-0.88
831.923	0.78
832.093	0.54
832.263	0.08
832.434	-0.63
832.604	-0.2
832.774	0.77
832.944	-0.45
833.114	-0.17
833.284	-0.41
833.454	-0.54
833.624	-0.72
833.795	-0.28
833.965	0.88
834.135	0.16
834.305	-1.08
834.475	-0.58
834.645	0.03
834.815	-0.71
834.985	-0.57
835.155	-0.38
835.325	-0.19
835.494	-0.42
835.664	-0.27
835.834	-0.77
836.004	0.19
836.174	0.63
836.344	-0.07
836.514	-1.14
836.684	-0.79
836.853	0.41
837.023	-0.08
837.193	-0.12
837.363	0.73
837.532	1
837.702	-0.46
837.872	0.06
838.041	0.03
838.211	1.76
838.381	-0.98
838.55	0.08
838.72	2.66
838.89	1.33
839.059	-0.16
839.229	-0.51
839.398	1.12
839.568	-0.07
839.738	0.13
839.907	0.38
840.077	0.49
840.246	-0.3
840.416	-0.52
840.585	-1.72
840.755	1.02
840.924	-0.32
841.093	-0.77
841.263	-0.04
841.432	0.73
841.602	-0.66
841.771	-0.33
841.94	-0.34
842.11	1.84
842.279	1.23
842.448	-0.71
842.617	-0.96
842.787	1.45
842.956	-1.18
843.125	0.04
843.294	0.02
843.464	1.23
843.633	-0.17
843.802	-0.71
843.971	-0.58
844.14	0.77
844.309	0.68
844.479	-0.22
844.648	-0.36
844.817	-0.72
844.986	0.36
845.155	-0.2
845.324	0.64
845.493	-0.25
845.662	-0.36
845.831	0.7
846	0.04
846.169	-1.36
846.338	0.95
846.507	0.51
846.676	0.52
846.844	0.3
847.013	0.39
847.182	-0.29
847.351	0.09
847.52	-0.61
847.689	-0.02
847.858	-0.03
848.026	-0.62
848.195	0.44
848.364	-0.98
848.533	-0.51
848.701	-0.97
848.87	0.11
849.039	1.26
849.207	0.16
849.376	0.62
849.545	-0.48
849.713	-0.52
849.882	-0.83
850.051	-0.26
850.219	-0.19
850.388	0.47
850.556	-0.23
850.725	-0.74
850.893	0.05
851.062	-0.68
851.23	0.32
851.399	-1.5
851.567	-0.5
851.736	-0.06
851.904	-1.81
852.073	0.58
852.241	0.23
852.41	0.52
852.578	-0.55
852.746	-0.87
852.915	0.13
853.083	0.31
853.251	-1.59
853.42	-0.79
853.588	0.44
853.756	0.63
853.924	0.02
854.093	-0.32
854.261	-0.43
854.429	-2.2
854.597	-0.68
854.765	-0.76
854.934	0.76
855.102	1.52
855.27	0.07
855.438	0.84
855.606	0.27
855.774	1.69
855.942	-1.67
856.11	-1.63
856.278	-0.23
856.446	0.96
856.614	0.02
856.782	-0.38
856.95	-0.01
857.118	0.54
857.286	-0.1
857.454	0.14
857.622	0.8
857.79	0.68
857.958	-1
858.126	-1.51
858.294	-2.83
858.462	0.7
858.629	-0.74
858.797	-1.14
858.965	0.19
859.133	0.28
859.301	-1.29
859.468	0.51
859.636	-0.74
859.804	1.37
859.971	0.3
860.139	-1.68
860.307	0.94
860.474	0.39
860.642	-0.05
860.81	-0.42
860.977	-0.61
861.145	-0.04
861.313	-0.11
861.48	-0.41
861.648	0.83
861.815	-0.13
861.983	-1.75
862.15	-0.91
862.318	0.89
862.485	0.6
862.653	-1.43
862.82	-0.18
862.988	1.55
863.155	0.63
863.322	-1.61
863.49	-1.33
863.657	1.06
863.824	1.07
863.992	0.19
864.159	1.56
864.326	1.36
864.494	-2.22
864.661	2.34
864.828	-0.99
864.996	1.67
865.163	1.02
865.33	-2.17
865.497	-3.1
865.664	-0.7
865.832	-2.65
865.999	-1.16
866.166	-1.74
866.333	-1.34
866.5	-1.12
866.667	-0.2
866.834	-1.44
867.001	1.22
867.168	-1.86
867.335	0.01
867.502	-0.65
867.669	0.18
867.836	1.38
868.003	-1.01
868.17	0.22
868.337	2.36
868.504	2.33
868.671	-2.39
868.838	-0.11
869.005	-0.43
869.172	-0.06
869.339	-1.08
869.505	-1.39
869.672	0.51
869.839	0.74
870.006	-0.02
870.173	-1.95
870.339	0.93
870.506	2.18
870.673	-1.69
870.84	0.25
871.006	1
871.173	-1.75
871.34	0.46
871.506	-1.73
871.673	1.75
871.839	-3.48
872.006	0.61
872.173	-0.44
872.339	0.31
872.506	1.84
872.672	-0.95
872.839	-1.53
873.005	-0.03
873.172	2.83
873.338	1.87
873.505	-0.34
873.671	-0.39
873.838	1.15
874.004	-2.01
874.171	-1.9
874.337	0.02
874.503	2.63
874.67	-1.08
874.836	0.22
875.002	-0.19
875.169	1.86
875.335	-0.1
875.501	-1.02
875.668	0.51
875.834	0.12
876	0.21
876.166	1.47
876.332	0.22
876.499	3.09
876.665	-2.34
876.831	-1.26
876.997	1.5
877.163	0.92
877.329	-1.41
877.495	-0.62
877.662	0.84
877.828	1.28
877.994	-0.06
878.16	-2.27
878.326	-1.26
878.492	0.85
878.658	-1.41
878.824	0.33
878.99	0.58
879.156	-2.63
879.322	1.98
879.487	-0.92
879.653	1.35
879.819	0.35
879.985	-0.32
880.151	1.06
880.317	1.36
880.483	0.77
880.648	3.04
880.814	-3.3
880.98	0.26
881.146	-1.8
881.312	-0.15
881.477	1.56
881.643	1.67
881.809	2.13
881.974	1.65
882.14	-2.61
882.306	0.21
882.471	4.37
882.637	-0.58
882.803	0.39
882.968	1.42
883.134	1.94
883.299	0.28
883.465	0.95
883.63	1.27
883.796	-1.14
883.961	2.3
884.127	0.63
884.292	-4.94
884.458	-1.37
884.623	-1.36
