Data from Apollo_Calib_20240827__AbsoluteIrradiance__172__02-01-03-073.txt Node

Date: Wed Aug 28 02:01:03 BST 2024
User: biology
Spectrometer: FLMT08252
Trigger mode: 0
Integration Time (sec): 5.000000E-1
Scans to average: 5
Electric dark correction enabled: true
Nonlinearity correction enabled: false
Boxcar width: 0
XAxis mode: Wavelengths
Number of Pixels in Spectrum: 3648
>>>>>Begin Spectral Data<<<<<
179.588	-0
179.809	-0
180.03	-0
180.251	-0
180.473	-0
180.694	0
180.915	0
181.136	-0
181.357	0
181.578	-0
181.799	0
182.02	-0
182.241	0
182.462	-0
182.683	0
182.904	-0
183.125	-0
183.346	0
183.567	0
183.788	-0
184.009	-0
184.23	0
184.451	0
184.672	-0
184.892	-0
185.113	0
185.334	0
185.555	-0
185.776	-0
185.996	0
186.217	0
186.438	-0
186.659	-0
186.879	0
187.1	0
187.321	-0
187.541	-0
187.762	-0
187.983	-0
188.203	-0
188.424	0
188.644	-0
188.865	-0
189.086	-0
189.306	0
189.527	0
189.747	0
189.968	-0
190.188	0
190.409	-0
190.629	0
190.849	-0
191.07	-0
191.29	0
191.511	-0
191.731	-0
191.951	-0
192.172	0
192.392	-0
192.612	-0
192.833	-0
193.053	0
193.273	0
193.493	-0
193.714	-0
193.934	0
194.154	0
194.374	-0
194.594	0
194.815	0
195.035	-0
195.255	0
195.475	-0
195.695	0
195.915	0
196.135	-0
196.355	0
196.575	0
196.795	0
197.015	-0
197.235	-0
197.455	-0
197.675	0
197.895	-0
198.115	-0
198.335	0
198.555	0
198.775	0
198.995	0
199.214	0
199.434	-0
199.654	-0
199.874	-0
200.094	0.93
200.313	-0.41
200.533	-0.45
200.753	-0.61
200.973	0.9
201.192	0.53
201.412	-1.36
201.632	-0.62
201.851	0.71
202.071	-0.67
202.291	-0.6
202.51	-0.72
202.73	0.11
202.95	-0.11
203.169	-0.23
203.389	-0.07
203.608	0.24
203.828	-0.83
204.047	-0.27
204.267	0.33
204.486	-0.09
204.706	0.1
204.925	0
205.145	-0.16
205.364	0.19
205.583	0.53
205.803	-0.31
206.022	-0.39
206.242	-0.04
206.461	0.17
206.68	-0.07
206.9	0.11
207.119	0.65
207.338	0.8
207.557	-0.4
207.777	-0.23
207.996	0.01
208.215	0.52
208.434	-0.32
208.654	-0.79
208.873	0.41
209.092	0.42
209.311	-0.02
209.53	-0.19
209.749	-0.13
209.968	-0.18
210.187	-0.31
210.407	-0.37
210.626	-0.36
210.845	0.19
211.064	0.05
211.283	-0.29
211.502	0.44
211.721	-0.08
211.94	-0.16
212.159	0.28
212.377	0.21
212.596	0.24
212.815	0.02
213.034	-0.09
213.253	0.12
213.472	0.2
213.691	-0.1
213.91	-0.23
214.128	-0.2
214.347	0.42
214.566	-0.4
214.785	-0.33
215.003	0.22
215.222	0.05
215.441	-0.14
215.66	-0.3
215.878	0.01
216.097	0.17
216.316	-0.11
216.534	-0.23
216.753	0.07
216.972	0
217.19	-0.04
217.409	-0.2
217.627	-0.13
217.846	-0.18
218.064	0.13
218.283	-0.24
218.501	0.34
218.72	0.26
218.938	-0.3
219.157	-0.26
219.375	0.15
219.594	0.1
219.812	-0.07
220.031	-0.1
220.249	0.17
220.467	0.2
220.686	-0.08
220.904	-0.38
221.122	-0.17
221.341	0.38
221.559	0.05
221.777	-0.28
221.995	-0.01
222.214	0.19
222.432	-0.01
222.65	0.13
222.868	-0
223.086	0.05
223.305	0.14
223.523	0.01
223.741	0.32
223.959	-0.13
224.177	-0.25
224.395	-0.3
224.613	-0.08
224.831	0.18
225.049	-0.21
225.267	-0.08
225.485	-0.02
225.703	-0
225.921	0.06
226.139	-0.15
226.357	0.1
226.575	0.05
226.793	-0.11
227.011	0.51
227.229	-0.03
227.447	0.14
227.665	-0.14
227.883	-0.22
228.1	0.11
228.318	-0.02
228.536	-0.26
228.754	-0.3
228.972	0.18
229.189	0.06
229.407	-0.1
229.625	-0.01
229.843	0.12
230.06	0.13
230.278	-0.18
230.496	-0.01
230.713	0.06
230.931	0.16
231.149	-0.07
231.366	-0.27
231.584	-0.07
231.801	0.31
232.019	-0.19
232.236	-0.21
232.454	-0.09
232.671	0
232.889	-0.11
233.106	-0.06
233.324	0.05
233.541	-0.12
233.759	-0.04
233.976	-0.1
234.194	0.05
234.411	0.04
234.628	-0.16
234.846	-0.12
235.063	0.07
235.28	0.05
235.498	-0
235.715	-0.08
235.932	0.06
236.149	-0.02
236.367	-0.08
236.584	-0.01
236.801	-0.11
237.018	0.02
237.236	0.05
237.453	-0.18
237.67	0.14
237.887	-0.02
238.104	-0.02
238.321	-0.13
238.538	-0.03
238.755	0.19
238.973	-0.2
239.19	0.03
239.407	0.21
239.624	-0
239.841	-0.14
240.058	-0.13
240.275	0.07
240.492	-0.01
240.709	0.02
240.925	0.05
241.142	-0.02
241.359	-0.14
241.576	-0.11
241.793	-0.03
242.01	-0.09
242.227	0.06
242.444	-0.01
242.66	0.08
242.877	0.06
243.094	-0.03
243.311	0.01
243.527	0.03
243.744	-0.02
243.961	0.04
244.178	-0.05
244.394	0
244.611	0.1
244.828	0.15
245.044	-0.12
245.261	-0.05
245.477	0.08
245.694	-0.05
245.911	-0.11
246.127	0.01
246.344	0.13
246.56	0.03
246.777	0.05
246.993	-0.01
247.21	0.03
247.426	0.05
247.643	-0.13
247.859	-0.1
248.076	-0.11
248.292	0.14
248.508	-0.01
248.725	-0.06
248.941	0.05
249.157	0.1
249.374	-0.07
249.59	0.03
249.806	-0.01
250.023	0.08
250.239	-0.11
250.455	-0.04
250.671	-0.02
250.888	0.05
251.104	0.01
251.32	-0.07
251.536	-0.04
251.752	-0.06
251.969	-0.01
252.185	0.03
252.401	0.19
252.617	-0.03
252.833	-0.1
253.049	0.05
253.265	0.08
253.481	0
253.697	-0.07
253.913	-0.05
254.129	0.08
254.345	-0.01
254.561	-0.08
254.777	-0.1
254.993	0.09
255.209	0.03
255.425	-0.1
255.641	-0.07
255.857	0.08
256.073	0.14
256.288	-0.11
256.504	-0.04
256.72	0.03
256.936	0.06
257.152	0.02
257.367	-0.08
257.583	-0
257.799	0.04
258.015	-0.02
258.23	-0.06
258.446	0.14
258.662	0
258.877	-0.11
259.093	-0.09
259.309	0.02
259.524	0.01
259.74	-0.01
259.955	-0.1
260.171	0.01
260.387	0.01
260.602	0.04
260.818	0.06
261.033	-0.06
261.249	-0.05
261.464	0
261.68	-0.09
261.895	-0.01
262.11	0.07
262.326	-0.03
262.541	-0.11
262.757	0.07
262.972	0.03
263.187	0
263.403	0.02
263.618	0.03
263.833	0
264.049	-0.03
264.264	-0.02
264.479	0.02
264.694	0.18
264.91	-0.06
265.125	-0.01
265.34	0.07
265.555	0.13
265.77	0.05
265.986	-0.06
266.201	0.03
266.416	0.07
266.631	-0.01
266.846	0.03
267.061	0.01
267.276	0.04
267.491	-0.14
267.706	0.01
267.921	0.04
268.136	-0.02
268.351	-0
268.566	-0.06
268.781	0.11
268.996	0.06
269.211	-0.03
269.426	-0.11
269.641	-0.02
269.856	0.05
270.071	-0.05
270.285	-0.06
270.5	0.03
270.715	0.09
270.93	0.09
271.145	0.03
271.359	0.08
271.574	-0.09
271.789	0.01
272.004	-0.06
272.218	-0.03
272.433	0
272.648	-0.04
272.862	0.07
273.077	0.06
273.292	0
273.506	-0.11
273.721	-0.06
273.936	0.07
274.15	0.07
274.365	-0.02
274.579	0.14
274.794	0.02
275.008	0.09
275.223	-0.1
275.437	0.03
275.652	0.04
275.866	0.05
276.081	-0.04
276.295	0.05
276.509	0.04
276.724	0.03
276.938	0.04
277.153	0.01
277.367	0.15
277.581	-0
277.796	-0.05
278.01	-0.03
278.224	0.04
278.438	0.15
278.653	-0.04
278.867	-0.07
279.081	-0.03
279.295	-0.02
279.51	0.04
279.724	-0.03
279.938	0.04
280.152	0.01
280.366	-0.02
280.58	0.02
280.794	0.13
281.008	0.07
281.222	0.01
281.437	0.15
281.651	-0
281.865	0.07
282.079	-0.02
282.293	-0.13
282.507	-0.03
282.721	-0.02
282.935	-0.01
283.148	-0.09
283.362	-0.04
283.576	-0.07
283.79	0.02
284.004	0
284.218	0.05
284.432	-0.03
284.646	-0.03
284.859	0
285.073	-0.02
285.287	0.01
285.501	-0.01
285.714	-0.02
285.928	0.02
286.142	0.05
286.356	-0.01
286.569	-0.05
286.783	0.05
286.997	0.04
287.21	-0.01
287.424	-0.01
287.637	0
287.851	-0
288.065	0.05
288.278	0.04
288.492	0.03
288.705	-0.03
288.919	0.05
289.132	-0.08
289.346	0.05
289.559	-0.03
289.773	-0.02
289.986	-0.01
290.2	0.01
290.413	0.05
290.626	-0.05
290.84	-0.03
291.053	-0.02
291.267	0.08
291.48	0.04
291.693	0.01
291.906	-0.04
292.12	0.05
292.333	-0.03
292.546	-0.03
292.76	0.08
292.973	0
293.186	0.06
293.399	-0.02
293.612	0.03
293.826	-0
294.039	-0.06
294.252	-0.03
294.465	0.08
294.678	0.04
294.891	0.05
295.104	-0.03
295.317	-0.03
295.53	0.03
295.743	-0
295.956	0.04
296.169	0.09
296.382	0.05
296.595	0.03
296.808	-0.04
297.021	0.08
297.234	0.05
297.447	0.04
297.66	0.04
297.873	0.05
298.086	0.02
298.299	0.02
298.511	-0.03
298.724	0.04
298.937	0
299.15	-0.03
299.363	-0.02
299.575	0.03
299.788	0.04
300.001	0.01
300.213	0.01
300.426	-0.03
300.639	-0.01
300.852	-0.01
301.064	0.05
301.277	0.07
301.489	0.04
301.702	0.04
301.915	0.04
302.127	0.01
302.34	0.03
302.552	0.02
302.765	-0.03
302.977	0.03
303.19	-0
303.402	-0.01
303.615	0
303.827	0.01
304.04	-0.01
304.252	0.06
304.464	-0.03
304.677	0.09
304.889	0.04
305.102	-0.04
305.314	-0.02
305.526	0.09
305.739	0.03
305.951	-0.05
306.163	0
306.375	0.11
306.588	-0.03
306.8	-0.02
307.012	-0.01
307.224	0.04
307.436	0.09
307.649	-0.06
307.861	0.01
308.073	0.06
308.285	0
308.497	-0.03
308.709	-0.02
308.921	0.02
309.133	0.05
309.346	0.04
309.558	-0.02
309.77	0.04
309.982	0.03
310.194	0.08
310.406	-0.01
310.617	0.07
310.829	0.05
311.041	0.04
311.253	0.01
311.465	-0.03
311.677	-0.03
311.889	0.03
312.101	-0.01
312.313	0.05
312.524	0.08
312.736	-0.03
312.948	-0.03
313.16	0.12
313.372	0.07
313.583	0.04
313.795	-0.03
314.007	-0.03
314.218	0.05
314.43	0.05
314.642	0.01
314.853	-0.06
315.065	0.04
315.277	0.04
315.488	0.04
315.7	0.08
315.912	0.02
316.123	0.02
316.335	-0.01
316.546	0.12
316.758	0.03
316.969	-0.05
317.181	0.02
317.392	-0.04
317.604	0.09
317.815	-0.05
318.026	-0.03
318.238	-0.02
318.449	0.02
318.661	-0.04
318.872	-0.03
319.083	-0.03
319.295	0.06
319.506	0
319.717	0.02
319.929	0.03
320.14	0.02
320.351	-0
320.562	-0.01
320.774	0.03
320.985	-0.01
321.196	-0.05
321.407	-0.04
321.618	0.03
321.829	0.01
322.041	0.07
322.252	0.03
322.463	0.05
322.674	0.03
322.885	-0.04
323.096	-0.03
323.307	0.03
323.518	0
323.729	-0.03
323.94	-0.02
324.151	-0.02
324.362	0.02
324.573	0.02
324.784	-0.02
324.995	0.03
325.206	0.06
325.417	0.01
325.628	0.01
325.838	0.02
326.049	0
326.26	0.05
326.471	-0.02
326.682	0.06
326.892	0
327.103	-0.06
327.314	-0.03
327.525	0.07
327.735	0.04
327.946	-0.03
328.157	0
328.368	0.04
328.578	0.02
328.789	0.04
328.999	0.01
329.21	-0.01
329.421	0.08
329.631	-0.03
329.842	-0.03
330.052	0.04
330.263	0.05
330.473	0
330.684	-0.01
330.894	-0
331.105	0.02
331.315	0.01
331.526	-0.07
331.736	0.09
331.947	0.05
332.157	0.03
332.367	0.01
332.578	0.05
332.788	0.05
332.999	0.01
333.209	-0.01
333.419	-0.04
333.629	0.02
333.84	0.03
334.05	-0.01
334.26	0.09
334.47	0.05
334.681	0.06
334.891	0.03
335.101	0.07
335.311	0.1
335.521	0
335.732	-0.01
335.942	0.07
336.152	0.02
336.362	-0.01
336.572	0.06
336.782	0.02
336.992	0.03
337.202	0.02
337.412	-0.01
337.622	-0.01
337.832	0.03
338.042	0.02
338.252	-0.03
338.462	0.03
338.672	0
338.882	-0.06
339.092	-0.01
339.302	0.08
339.511	0.03
339.721	-0.02
339.931	-0.01
340.141	0.03
340.351	0.04
340.561	0.01
340.77	-0
340.98	0.03
341.19	0.02
341.4	-0.01
341.609	-0.02
341.819	0.02
342.029	-0.03
342.238	0.05
342.448	-0.01
342.658	0.03
342.867	0.04
343.077	0.06
343.286	0.07
343.496	0.03
343.706	0.09
343.915	-0.02
344.125	0.01
344.334	0.03
344.544	-0.01
344.753	-0.01
344.963	-0
345.172	-0.03
345.381	-0.04
345.591	-0.04
345.8	0.02
346.01	0.04
346.219	0.04
346.428	-0.09
346.638	-0.01
346.847	0.05
347.056	0.08
347.266	-0.02
347.475	0.02
347.684	0.06
347.893	0.06
348.103	0.04
348.312	-0.03
348.521	0.03
348.73	0.02
348.94	0.01
349.149	-0
349.358	0.02
349.567	-0.04
349.776	-0.08
349.985	-0.02
350.194	0.05
350.403	0.08
350.612	-0.02
350.821	-0.05
351.03	0.05
351.239	-0.04
351.448	0.02
351.657	-0.02
351.866	0.04
352.075	0.03
352.284	0.01
352.493	-0.06
352.702	0.08
352.911	0.03
353.12	0.02
353.329	0.01
353.538	0.04
353.746	-0.01
353.955	-0.02
354.164	0.04
354.373	-0
354.582	0.04
354.79	0.03
354.999	0.07
355.208	0
355.416	0.09
355.625	0
355.834	-0.02
356.042	0.02
356.251	-0.01
356.46	-0.05
356.668	0.03
356.877	0.09
357.085	0.04
357.294	-0.04
357.503	0.04
357.711	-0
357.92	0.16
358.128	0.03
358.337	-0.02
358.545	0.04
358.754	0.02
358.962	0.06
359.17	-0
359.379	0.05
359.587	0.01
359.796	-0.01
360.004	0.06
360.212	0.05
360.421	0.08
360.629	-0.05
360.837	-0.01
361.046	0.06
361.254	0.16
361.462	0.01
361.67	-0.03
361.879	0.05
362.087	0.08
362.295	0.04
362.503	-0.01
362.711	-0.04
362.92	-0.03
363.128	-0.01
363.336	-0.02
363.544	-0.02
363.752	0.01
363.96	-0.01
364.168	0.03
364.376	0.03
364.584	0.04
364.792	0.05
365	0.07
365.208	0.05
365.416	0.05
365.624	0.03
365.832	0.03
366.04	0.09
366.248	0.04
366.456	0.03
366.664	0.06
366.872	0
367.079	0.03
367.287	0
367.495	0.04
367.703	-0.01
367.911	-0.02
368.118	0.01
368.326	0.05
368.534	-0.01
368.742	0.11
368.949	-0.05
369.157	-0.02
369.365	0.05
369.572	0.01
369.78	-0
369.988	0.04
370.195	0.04
370.403	0.06
370.61	-0.01
370.818	-0.01
371.026	0.09
371.233	-0
371.441	0.04
371.648	-0.01
371.856	0.04
372.063	0.06
372.271	0.03
372.478	0.03
372.685	0.01
372.893	0.09
373.1	0.01
373.308	0.01
373.515	0.13
373.722	0.04
373.93	0
374.137	0.05
374.344	0.12
374.552	0.05
374.759	0.05
374.966	0.04
375.173	0.03
375.381	0.09
375.588	0.06
375.795	-0.06
376.002	-0.02
376.209	0.03
376.417	-0
376.624	0.04
376.831	0.08
377.038	0.03
377.245	0
377.452	0
377.659	0.06
377.866	0
378.073	0.01
378.28	0.07
378.487	0.08
378.694	0.05
378.901	0.03
379.108	0.04
379.315	0.09
379.522	0.1
379.729	0.06
379.936	0.05
380.143	0.11
380.35	0.06
380.557	0.03
380.763	0.07
380.97	0.03
381.177	0.08
381.384	0.05
381.591	0
381.797	0.09
382.004	0.08
382.211	0.12
382.418	0.08
382.624	0.1
382.831	0.11
383.038	0.05
383.244	0.05
383.451	0.07
383.658	0.1
383.864	0.06
384.071	0.04
384.277	0.13
384.484	0.06
384.69	0.1
384.897	0.08
385.103	0.09
385.31	0.11
385.516	0.09
385.723	0.08
385.929	0.14
386.136	0.09
386.342	0.14
386.549	0.09
386.755	0.19
386.961	0.19
387.168	0.12
387.374	0.17
387.58	0.19
387.787	0.22
387.993	0.2
388.199	0.17
388.406	0.21
388.612	0.19
388.818	0.19
389.024	0.24
389.231	0.26
389.437	0.31
389.643	0.29
389.849	0.28
390.055	0.26
390.261	0.32
390.467	0.34
390.674	0.3
390.88	0.35
391.086	0.43
391.292	0.32
391.498	0.5
391.704	0.46
391.91	0.46
392.116	0.48
392.322	0.38
392.528	0.55
392.734	0.56
392.94	0.6
393.146	0.62
393.352	0.65
393.557	0.68
393.763	0.73
393.969	0.78
394.175	0.8
394.381	0.86
394.587	0.82
394.792	0.91
394.998	1.04
395.204	1.09
395.41	1.04
395.615	1.16
395.821	1.24
396.027	1.37
396.233	1.37
396.438	1.43
396.644	1.61
396.85	1.6
397.055	1.69
397.261	1.8
397.466	1.88
397.672	1.88
397.878	2.12
398.083	2.05
398.289	2.15
398.494	2.29
398.7	2.41
398.905	2.39
399.111	2.67
399.316	2.69
399.522	2.8
399.727	2.89
399.932	3
400.138	3.07
400.343	3.37
400.549	3.33
400.754	3.56
400.959	3.76
401.165	3.91
401.37	4.12
401.575	4.51
401.78	4.45
401.986	4.65
402.191	4.85
402.396	5.16
402.601	5.26
402.807	5.53
403.012	5.62
403.217	6.16
403.422	6.11
403.627	6.34
403.832	6.68
404.037	6.76
404.243	6.8
404.448	7.08
404.653	7.32
404.858	7.48
405.063	7.38
405.268	7.75
405.473	7.89
405.678	7.95
405.883	8.44
406.088	8.39
406.293	8.34
406.498	8.75
406.703	8.57
406.907	8.81
407.112	8.96
407.317	9.24
407.522	9.32
407.727	9.48
407.932	9.52
408.136	9.69
408.341	9.35
408.546	9.45
408.751	9.41
408.956	9.37
409.16	9.46
409.365	9.36
409.57	9.09
409.774	9.04
409.979	8.94
410.184	8.84
410.388	8.58
410.593	8.66
410.798	8.45
411.002	8.54
411.207	8.25
411.411	8.05
411.616	7.84
411.82	7.82
412.025	7.51
412.229	7.42
412.434	7.14
412.638	6.99
412.843	6.78
413.047	6.53
413.252	6.24
413.456	6.35
413.66	6.12
413.865	5.87
414.069	5.64
414.273	5.62
414.478	5.34
414.682	5.13
414.886	5.1
415.091	4.81
415.295	4.82
415.499	4.74
415.703	4.43
415.908	4.44
416.112	4.2
416.316	4.27
416.52	4.03
416.724	3.94
416.929	3.81
417.133	4.05
417.337	3.74
417.541	3.64
417.745	3.51
417.949	3.55
418.153	3.48
418.357	3.3
418.561	3.4
418.765	3.22
418.969	3.21
419.173	3.18
419.377	2.94
419.581	3.12
419.785	2.95
419.989	2.89
420.193	2.83
420.397	2.8
420.601	2.8
420.804	2.73
421.008	2.54
421.212	2.56
421.416	2.41
421.62	2.31
421.823	2.29
422.027	2.29
422.231	2.1
422.435	1.98
422.638	1.96
422.842	1.88
423.046	1.84
423.249	1.88
423.453	1.73
423.657	1.7
423.86	1.61
424.064	1.57
424.268	1.65
424.471	1.5
424.675	1.57
424.878	1.48
425.082	1.36
425.285	1.52
425.489	1.35
425.692	1.3
425.896	1.21
426.099	1.22
426.303	1.17
426.506	1.11
426.71	1.16
426.913	1.13
427.116	1.2
427.32	1.06
427.523	1.06
427.726	1.11
427.93	0.93
428.133	0.99
428.336	0.91
428.54	0.9
428.743	0.96
428.946	0.98
429.149	0.87
429.353	0.93
429.556	0.81
429.759	0.83
429.962	0.76
430.165	0.78
430.368	0.71
430.571	0.68
430.775	0.74
430.978	0.67
431.181	0.67
431.384	0.66
431.587	0.57
431.79	0.61
431.993	0.63
432.196	0.63
432.399	0.64
432.602	0.68
432.805	0.58
433.008	0.58
433.211	0.52
433.414	0.6
433.616	0.63
433.819	0.55
434.022	0.46
434.225	0.61
434.428	0.55
434.631	0.66
434.833	0.54
435.036	0.51
435.239	0.54
435.442	0.5
435.645	0.48
435.847	0.49
436.05	0.52
436.253	0.47
436.455	0.41
436.658	0.46
436.861	0.47
437.063	0.4
437.266	0.4
437.468	0.41
437.671	0.58
437.874	0.38
438.076	0.32
438.279	0.34
438.481	0.4
438.684	0.3
438.886	0.34
439.089	0.27
439.291	0.33
439.494	0.38
439.696	0.33
439.899	0.4
440.101	0.37
440.303	0.29
440.506	0.39
440.708	0.3
440.91	0.32
441.113	0.31
441.315	0.34
441.517	0.24
441.72	0.38
441.922	0.19
442.124	0.22
442.326	0.34
442.529	0.41
442.731	0.25
442.933	0.34
443.135	0.25
443.337	0.23
443.539	0.24
443.742	0.21
443.944	0.25
444.146	0.19
444.348	0.22
444.55	0.19
444.752	0.24
444.954	0.15
445.156	0.21
445.358	0.15
445.56	0.28
445.762	0.23
445.964	0.24
446.166	0.18
446.368	0.21
446.57	0.23
446.772	0.17
446.974	0.14
447.175	0.19
447.377	0.16
447.579	0.16
447.781	0.11
447.983	0.27
448.184	0.18
448.386	0.21
448.588	0.08
448.79	0.14
448.991	0.15
449.193	0.11
449.395	0.18
449.597	0.17
449.798	0.19
450	0.14
450.202	0.14
450.403	0.16
450.605	0.2
450.806	0.15
451.008	0.07
451.21	0.17
451.411	0.16
451.613	0.1
451.814	0.2
452.016	0.2
452.217	0.13
452.419	0.18
452.62	0.16
452.821	0.15
453.023	0.2
453.224	0.16
453.426	0.11
453.627	0.17
453.828	0.18
454.03	0.15
454.231	0.2
454.432	0.08
454.634	0.23
454.835	0.09
455.036	0.08
455.238	0.19
455.439	0.21
455.64	0.07
455.841	0.06
456.042	0.26
456.244	0.16
456.445	0.07
456.646	0.07
456.847	0.1
457.048	0.09
457.249	0.15
457.45	0.34
457.651	0.1
457.852	0.19
458.054	0.13
458.255	0.13
458.456	0.12
458.657	0.13
458.858	0.03
459.058	0.14
459.259	0.13
459.46	0.09
459.661	0.07
459.862	0.24
460.063	0.09
460.264	0.14
460.465	0.09
460.666	0.22
460.866	0.09
461.067	0.15
461.268	0.12
461.469	0.12
461.67	0.12
461.87	0.1
462.071	0.08
462.272	0.04
462.473	0.14
462.673	0.16
462.874	0.05
463.075	0.15
463.275	0.04
463.476	0.18
463.676	0.14
463.877	0.12
464.078	0.13
464.278	0.19
464.479	0.06
464.679	0.11
464.88	0.1
465.08	0.16
465.281	0.07
465.481	0.01
465.682	0.09
465.882	0.15
466.083	0.11
466.283	0.1
466.483	0.06
466.684	0.07
466.884	0.03
467.085	0.09
467.285	0.18
467.485	0.02
467.686	0.11
467.886	0.09
468.086	0.06
468.286	0.15
468.487	0.09
468.687	0.06
468.887	0.11
469.087	0.13
469.287	0.09
469.488	0.06
469.688	0.15
469.888	0.13
470.088	0.15
470.288	0.15
470.488	0.16
470.688	0.06
470.888	0.1
471.088	0.08
471.288	0.14
471.488	0.12
471.688	0.15
471.888	0.05
472.088	0.12
472.288	0.14
472.488	0.05
472.688	0.06
472.888	0.08
473.088	0.1
473.288	0.12
473.488	0.1
473.688	0.18
473.887	0.09
474.087	0.04
474.287	0.1
474.487	0.06
474.687	0.1
474.886	0.08
475.086	0.06
475.286	0.09
475.486	0.1
475.685	0.07
475.885	0.02
476.085	0.07
476.284	0.09
476.484	0.08
476.684	0.07
476.883	0.11
477.083	0.1
477.282	0.05
477.482	0.1
477.681	0.13
477.881	0.12
478.08	0.03
478.28	0.03
478.479	0.09
478.679	0.13
478.878	0.03
479.078	0.05
479.277	0.05
479.477	0.06
479.676	0.09
479.875	0.03
480.075	-0.01
480.274	0.09
480.473	0.08
480.673	0.01
480.872	0.09
481.071	0.06
481.271	0.07
481.47	0.07
481.669	0.05
481.868	0.02
482.067	0.01
482.267	0.06
482.466	0
482.665	0.02
482.864	0.01
483.063	-0
483.262	0.09
483.461	0.13
483.661	0.06
483.86	0.05
484.059	0.09
484.258	0.04
484.457	0.05
484.656	0.07
484.855	0.07
485.054	0.02
485.253	-0
485.452	0.02
485.651	0.05
485.849	0.04
486.048	0.01
486.247	0.01
486.446	0.06
486.645	0
486.844	0.02
487.043	0.05
487.241	0.09
487.44	0.02
487.639	0.03
487.838	0.06
488.037	0.06
488.235	0.09
488.434	0.04
488.633	0.02
488.831	0.06
489.03	0.08
489.229	0.03
489.427	0.03
489.626	0.08
489.825	0.08
490.023	0.04
490.222	-0
490.42	0.04
490.619	0.08
490.817	0.05
491.016	0.02
491.214	0.06
491.413	0.03
491.611	0.02
491.81	0.03
492.008	0.08
492.207	0.05
492.405	0.05
492.604	0
492.802	0.01
493	0.05
493.199	0.02
493.397	0.03
493.595	0.03
493.794	0.01
493.992	0.09
494.19	0.02
494.388	0.06
494.587	0.03
494.785	0.03
494.983	-0
495.181	0.05
495.379	0.06
495.578	0.02
495.776	0.04
495.974	0.04
496.172	0.04
496.37	-0
496.568	0.01
496.766	0.01
496.964	0.06
497.162	0.03
497.36	0.02
497.558	0.06
497.756	0.06
497.954	0.04
498.152	0.01
498.35	0.02
498.548	0.02
498.746	0.03
498.944	0.02
499.142	0.02
499.34	-0.02
499.538	0.06
499.736	0.01
499.933	0.06
500.131	0.07
500.329	0.04
500.527	0.06
500.725	0.05
500.922	0.04
501.12	0.05
501.318	0.04
501.516	0.02
501.713	0.05
501.911	0.03
502.109	0.02
502.306	0.04
502.504	0.02
502.701	0.01
502.899	-0
503.097	0.07
503.294	0.05
503.492	0.01
503.689	0.04
503.887	0.06
504.084	0.07
504.282	0.04
504.479	-0.01
504.677	0.04
504.874	-0
505.072	0.04
505.269	0.03
505.466	0.05
505.664	0.03
505.861	-0
506.059	0.01
506.256	0.04
506.453	-0.01
506.651	0.08
506.848	0.04
507.045	0.04
507.242	0.04
507.44	0.03
507.637	0.01
507.834	0.01
508.031	0.03
508.229	0.01
508.426	0.04
508.623	0.04
508.82	0.03
509.017	0
509.214	0.05
509.411	0.03
509.608	-0.02
509.805	0.01
510.003	0
510.2	-0.01
510.397	0.07
510.594	-0.01
510.791	-0
510.988	0.02
511.184	0.05
511.381	0.03
511.578	-0
511.775	0.05
511.972	0
512.169	0.01
512.366	0.02
512.563	0.04
512.76	0.01
512.956	0.05
513.153	0.02
513.35	0.04
513.547	0.02
513.744	0.02
513.94	-0
514.137	0.04
514.334	0.03
514.53	0.02
514.727	0.02
514.924	0.03
515.12	-0.01
515.317	-0.01
515.514	-0
515.71	-0.03
515.907	-0
516.103	0.02
516.3	0.03
516.497	0.04
516.693	0.04
516.89	0.01
517.086	0
517.283	0.02
517.479	0.03
517.676	0
517.872	0.01
518.068	0.02
518.265	0.01
518.461	0
518.658	-0.01
518.854	0.04
519.05	0.02
519.247	0
519.443	0.02
519.639	0.04
519.836	0.04
520.032	0.04
520.228	0.01
520.424	0.07
520.621	0.04
520.817	0
521.013	0.02
521.209	0
521.405	0.06
521.601	0.03
521.798	0.01
521.994	0.03
522.19	0
522.386	-0.02
522.582	0.01
522.778	-0.01
522.974	0
523.17	0.02
523.366	0
523.562	0.03
523.758	0.03
523.954	-0.01
524.15	-0.01
524.346	0.03
524.542	-0.01
524.738	-0
524.934	0.01
525.129	0.03
525.325	0
525.521	0.01
525.717	0.02
525.913	0
526.109	0.03
526.304	0.01
526.5	0.04
526.696	0.04
526.892	0.03
527.087	0.02
527.283	-0.01
527.479	0
527.674	0
527.87	0.01
528.066	0.01
528.261	0.03
528.457	0.01
528.653	0
528.848	0.01
529.044	0.02
529.239	0.02
529.435	0.03
529.63	0.02
529.826	0.06
530.021	0.03
530.217	0.04
530.412	-0.01
530.608	-0.02
530.803	0.01
530.999	0.01
531.194	-0.03
531.389	0.03
531.585	-0.04
531.78	0.02
531.975	-0.01
532.171	0.02
532.366	0.02
532.561	0
532.757	0.01
532.952	0.01
533.147	0.04
533.342	0.01
533.538	-0
533.733	0.03
533.928	-0
534.123	-0
534.318	-0.02
534.513	-0.01
534.709	0.01
534.904	-0
535.099	0.01
535.294	0.01
535.489	0.02
535.684	0.01
535.879	-0.01
536.074	0.02
536.269	-0.03
536.464	0
536.659	0.02
536.854	0.01
537.049	0.03
537.244	0.02
537.439	-0
537.634	0.05
537.828	0.01
538.023	-0
538.218	-0.04
538.413	-0
538.608	-0.03
538.803	0.03
538.997	-0.02
539.192	0.05
539.387	0.02
539.582	0.02
539.776	0.03
539.971	-0.01
540.166	-0.01
540.36	-0.02
540.555	0.02
540.75	-0.01
540.944	-0.01
541.139	-0.04
541.334	0.02
541.528	0.04
541.723	0.02
541.917	-0
542.112	-0.05
542.306	0.01
542.501	0.02
542.695	0.01
542.89	-0.02
543.084	0.01
543.279	0.01
543.473	0.01
543.668	0.02
543.862	-0.01
544.056	0.03
544.251	0.02
544.445	0.02
544.64	-0
544.834	-0.01
545.028	0.03
545.222	0.01
545.417	0.03
545.611	-0
545.805	-0.02
546	-0
546.194	0.01
546.388	-0.01
546.582	0.03
546.776	-0
546.97	-0.01
547.165	0.03
547.359	0.03
547.553	-0
547.747	0.03
547.941	0.01
548.135	-0
548.329	0.01
548.523	0.03
548.717	0
548.911	-0
549.105	0
549.299	0.01
549.493	0.04
549.687	0.03
549.881	0.02
550.075	0.02
550.269	-0.03
550.463	0.02
550.657	-0.01
550.85	0.01
551.044	-0.03
551.238	0.01
551.432	0.01
551.626	-0.03
551.82	0.01
552.013	-0.02
552.207	0.01
552.401	0.03
552.594	0
552.788	-0
552.982	0
553.176	-0.01
553.369	0.02
553.563	0.01
553.756	-0.03
553.95	-0.02
554.144	0
554.337	0.02
554.531	0.03
554.724	0
554.918	-0.01
555.111	0.03
555.305	0
555.498	0.07
555.692	0.02
555.885	-0.03
556.079	0.01
556.272	0
556.466	0.05
556.659	0.01
556.852	-0.01
557.046	-0.01
557.239	0.03
557.432	-0.02
557.626	-0
557.819	0.01
558.012	0.01
558.206	0.02
558.399	-0.01
558.592	0.02
558.785	-0
558.979	0.01
559.172	0.01
559.365	0.04
559.558	0.05
559.751	-0.01
559.944	0.03
560.138	-0.03
560.331	-0
560.524	-0.01
560.717	-0
560.91	0.02
561.103	0.02
561.296	-0
561.489	0.03
561.682	0.01
561.875	0.03
562.068	0.04
562.261	0.01
562.454	0.01
562.647	0.02
562.84	0.02
563.032	-0.02
563.225	0.01
563.418	-0.02
563.611	-0.02
563.804	0
563.997	-0.02
564.19	-0.02
564.382	-0
564.575	0
564.768	0.01
564.961	-0.01
565.153	-0.03
565.346	0.02
565.539	0.02
565.731	0.01
565.924	0.02
566.117	0.02
566.309	0
566.502	-0.01
566.695	-0.01
566.887	-0.01
567.08	-0.02
567.272	-0.01
567.465	-0
567.657	-0
567.85	0
568.042	0.01
568.235	0.05
568.427	-0
568.62	0.01
568.812	0.04
569.005	-0
569.197	-0.06
569.389	-0
569.582	-0.01
569.774	-0.02
569.966	-0.04
570.159	-0.01
570.351	-0
570.543	-0.01
570.736	0.01
570.928	0.01
571.12	0.01
571.312	-0.02
571.505	-0.01
571.697	0.04
571.889	-0.01
572.081	-0.02
572.273	-0
572.465	0.05
572.658	-0.02
572.85	0.02
573.042	-0.01
573.234	-0.01
573.426	0.04
573.618	-0.02
573.81	0.02
574.002	0.02
574.194	0.03
574.386	-0.03
574.578	-0.06
574.77	0
574.962	-0.01
575.154	-0.04
575.346	0.01
575.538	0.01
575.729	-0.01
575.921	-0.02
576.113	-0.01
576.305	0.02
576.497	0
576.689	-0.02
576.88	-0.02
577.072	0.03
577.264	-0.01
577.456	0
577.647	-0.06
577.839	-0.01
578.031	0.05
578.223	-0.02
578.414	-0.04
578.606	0.02
578.798	0.02
578.989	-0.02
579.181	0
579.372	0
579.564	0.01
579.755	-0.01
579.947	0.02
580.139	0.01
580.33	-0.04
580.522	-0.02
580.713	-0.06
580.905	-0
581.096	0.02
581.287	-0
581.479	0.01
581.67	0.02
581.862	-0.01
582.053	-0.02
582.244	-0.04
582.436	-0
582.627	0.01
582.818	0.01
583.01	-0.05
583.201	0.04
583.392	0.04
583.583	0.01
583.775	-0.04
583.966	-0.01
584.157	0
584.348	-0.03
584.54	-0.04
584.731	0.04
584.922	-0.01
585.113	-0.04
585.304	0.02
585.495	0.03
585.686	-0
585.877	0.02
586.068	0.01
586.259	0.02
586.45	-0.01
586.641	0
586.832	-0.03
587.023	0
587.214	0.02
587.405	0.01
587.596	-0.03
587.787	0.05
587.978	0.01
588.169	-0.03
588.36	0
588.551	0.02
588.742	-0.02
588.932	0.03
589.123	-0.01
589.314	0.03
589.505	0.02
589.696	-0.01
589.886	-0.06
590.077	-0.03
590.268	0.02
590.458	-0.05
590.649	-0.06
590.84	0.03
591.03	-0.02
591.221	-0.05
591.412	-0.04
591.602	0.03
591.793	0.04
591.984	-0.03
592.174	-0.02
592.365	0.09
592.555	-0.01
592.746	0.04
592.936	-0.02
593.127	0.01
593.317	0.03
593.508	-0.02
593.698	-0.04
593.889	0.02
594.079	-0
594.269	-0.04
594.46	-0.01
594.65	-0
594.84	-0.02
595.031	-0.05
595.221	-0.01
595.411	-0.04
595.602	0.02
595.792	-0.02
595.982	-0.02
596.172	0.05
596.363	0.04
596.553	-0.02
596.743	-0.02
596.933	0.01
597.123	0.02
597.314	-0.04
597.504	-0.01
597.694	0.03
597.884	0.04
598.074	-0.02
598.264	-0.03
598.454	0.02
598.644	-0.04
598.834	0.03
599.024	-0.08
599.214	-0.01
599.404	0.05
599.594	-0.01
599.784	-0.04
599.974	0.03
600.164	0.03
600.354	-0.04
600.544	-0.05
600.734	-0
600.924	0.02
601.114	-0.03
601.303	-0.02
601.493	0
601.683	0.01
601.873	-0
602.063	-0.07
602.252	0.02
602.442	-0.07
602.632	-0.03
602.821	-0.03
603.011	0.01
603.201	-0
603.39	-0.05
603.58	-0.02
603.77	0.01
603.959	0.05
604.149	-0
604.339	-0.01
604.528	0.03
604.718	0.04
604.907	-0.03
605.097	-0.02
605.286	-0.05
605.476	0
605.665	0.03
605.855	-0.03
606.044	0.05
606.234	0.01
606.423	-0
606.612	-0.04
606.802	0.02
606.991	0.01
607.181	0.02
607.37	-0.03
607.559	0.01
607.749	-0.02
607.938	-0.02
608.127	-0.02
608.316	-0.04
608.506	0.03
608.695	-0
608.884	-0.04
609.073	0.01
609.263	0
609.452	0.02
609.641	0.02
609.83	-0.02
610.019	-0.02
610.208	-0.03
610.397	-0
610.586	-0.01
610.775	-0.02
610.965	-0.01
611.154	0.01
611.343	0.01
611.532	0.03
611.721	-0.04
611.91	-0.04
612.099	0.02
612.287	-0.04
612.476	-0.03
612.665	0.01
612.854	-0.02
613.043	0.02
613.232	-0.03
613.421	-0.06
613.61	0.01
613.798	-0.03
613.987	0.02
614.176	-0.02
614.365	0.01
614.554	0.01
614.742	0.01
614.931	-0.04
615.12	0.02
615.309	-0
615.497	0.01
615.686	-0.02
615.875	-0
616.063	-0
616.252	-0.02
616.44	0
616.629	0.02
616.818	0.02
617.006	-0.03
617.195	-0.02
617.383	0.01
617.572	-0
617.76	-0.03
617.949	-0.02
618.137	-0.01
618.326	0.02
618.514	-0.04
618.703	-0.04
618.891	0.03
619.079	-0.07
619.268	0.04
619.456	-0.03
619.644	0.03
619.833	-0.02
620.021	0
620.209	-0.05
620.398	0.02
620.586	0
620.774	0.03
620.962	-0.01
621.151	0.04
621.339	-0.01
621.527	-0.05
621.715	-0.06
621.903	-0.03
622.092	-0.03
622.28	0.01
622.468	-0.01
622.656	-0.01
622.844	0
623.032	-0.03
623.22	-0.06
623.408	0.01
623.596	-0.03
623.784	0.02
623.972	-0.03
624.16	-0.01
624.348	0.05
624.536	-0.02
624.724	-0.02
624.912	0.03
625.1	0.06
625.288	-0.03
625.476	-0.04
625.664	0.03
625.851	-0.05
626.039	-0.05
626.227	0.04
626.415	-0.01
626.603	-0.07
626.79	0.01
626.978	0.01
627.166	0.02
627.354	-0
627.541	-0.02
627.729	-0.07
627.917	0.04
628.104	0.03
628.292	0.03
628.48	0.01
628.667	-0.03
628.855	-0.03
629.042	0.02
629.23	-0.01
629.418	0
629.605	-0.03
629.793	-0.01
629.98	-0.01
630.168	-0.01
630.355	-0.01
630.543	0.02
630.73	-0.05
630.917	0.04
631.105	0.06
631.292	-0.04
631.48	-0.01
631.667	0.07
631.854	0.01
632.042	-0.03
632.229	-0.05
632.416	0.01
632.604	0
632.791	-0.04
632.978	0.01
633.165	-0
633.353	0.04
633.54	0.02
633.727	-0.08
633.914	-0.06
634.101	-0.08
634.289	0.04
634.476	-0.03
634.663	-0.02
634.85	-0.01
635.037	-0.03
635.224	-0.07
635.411	0.02
635.598	0.02
635.785	0.01
635.972	-0
636.159	0.03
636.346	-0.07
636.533	-0.01
636.72	-0.01
636.907	-0.01
637.094	0
637.281	-0.04
637.468	0.02
637.655	-0.03
637.842	-0.04
638.029	-0.04
638.215	0.02
638.402	0.02
638.589	-0.03
638.776	-0.02
638.963	-0.05
639.149	0.01
639.336	0.06
639.523	0.01
639.709	-0.03
639.896	0
640.083	0.04
640.27	0.03
640.456	-0.02
640.643	-0.01
640.829	-0.06
641.016	-0.01
641.203	-0.04
641.389	-0
641.576	0.04
641.762	-0.01
641.949	-0.04
642.135	-0.01
642.322	-0.02
642.508	-0.07
642.695	0.01
642.881	-0.01
643.068	-0.05
643.254	-0.04
643.441	0.04
643.627	-0.04
643.813	-0.03
644	0.03
644.186	-0
644.372	-0.07
644.559	0.04
644.745	-0.03
644.931	-0.05
645.118	-0.01
645.304	-0.03
645.49	-0.02
645.676	-0.04
645.862	-0.01
646.049	0.04
646.235	0.03
646.421	0.05
646.607	0.04
646.793	-0.03
646.979	-0.03
647.165	0.03
647.352	-0.02
647.538	0.02
647.724	0.02
647.91	0.02
648.096	0
648.282	0.03
648.468	-0.02
648.654	-0.02
648.84	-0.01
649.026	-0.01
649.212	0.01
649.397	-0.04
649.583	-0.05
649.769	0.02
649.955	-0.04
650.141	0.01
650.327	0.03
650.513	-0.02
650.698	0.02
650.884	-0.08
651.07	0.03
651.256	-0
651.442	-0.04
651.627	-0.05
651.813	-0
651.999	-0.03
652.184	-0.02
652.37	-0.02
652.556	-0.04
652.741	0.04
652.927	-0.06
653.113	-0.01
653.298	-0.01
653.484	-0.04
653.669	-0.07
653.855	-0
654.04	0.06
654.226	-0.01
654.412	-0.02
654.597	-0.05
654.782	0.02
654.968	0.02
655.153	-0.03
655.339	-0.06
655.524	-0.04
655.71	-0
655.895	-0.03
656.08	-0.05
656.266	0.02
656.451	0.01
656.636	-0.04
656.822	-0.02
657.007	-0.07
657.192	-0.01
657.378	-0.06
657.563	0.02
657.748	0.03
657.933	0.01
658.118	-0.04
658.304	-0.06
658.489	0.02
658.674	0.01
658.859	-0.06
659.044	-0.01
659.229	-0.02
659.414	-0.03
659.599	-0.01
659.785	-0.06
659.97	-0.03
660.155	0.02
660.34	-0.04
660.525	-0
660.71	-0.04
660.895	0.03
661.08	-0.02
661.264	-0.02
661.449	0.06
661.634	0.05
661.819	-0
662.004	0.02
662.189	-0.1
662.374	-0.06
662.559	-0.05
662.743	-0.07
662.928	0.01
663.113	-0.03
663.298	-0.05
663.483	-0.03
663.667	-0
663.852	-0.09
664.037	0.02
664.221	-0.02
664.406	0
664.591	-0
664.775	-0.04
664.96	-0.04
665.145	0.02
665.329	-0
665.514	-0.05
665.698	-0.01
665.883	-0.07
666.068	0.02
666.252	-0.05
666.437	-0.06
666.621	-0.01
666.806	0.05
666.99	-0.07
667.174	-0.04
667.359	0.03
667.543	-0.06
667.728	-0.02
667.912	-0.08
668.096	-0.01
668.281	-0.03
668.465	-0.02
668.649	-0.01
668.834	-0.05
669.018	-0.03
669.202	-0.05
669.387	-0.04
669.571	0.03
669.755	-0.04
669.939	-0.03
670.124	-0.02
670.308	0.04
670.492	0.02
670.676	0.01
670.86	-0.03
671.044	-0.03
671.228	0.03
671.413	-0.05
671.597	-0.01
671.781	-0.05
671.965	0.01
672.149	-0.02
672.333	-0.02
672.517	-0.02
672.701	0.02
672.885	-0.05
673.069	-0.06
673.253	-0
673.437	-0.06
673.621	-0.05
673.804	-0.06
673.988	0.02
674.172	0
674.356	-0.08
674.54	-0.03
674.724	0.06
674.908	-0.02
675.091	0.02
675.275	-0.04
675.459	0.02
675.643	-0.03
675.826	-0.02
676.01	-0
676.194	-0.02
676.377	0.01
676.561	0.01
676.745	0.01
676.928	-0.02
677.112	0.04
677.296	-0.04
677.479	-0.01
677.663	-0.06
677.846	0.04
678.03	-0.03
678.213	-0.06
678.397	0.02
678.58	-0.01
678.764	-0.03
678.947	-0.02
679.131	-0.02
679.314	-0.02
679.498	-0.01
679.681	0.03
679.865	-0.01
680.048	-0.03
680.231	-0.04
680.415	-0
680.598	-0.02
680.781	-0.04
680.965	-0.05
681.148	-0.03
681.331	-0.06
681.514	-0
681.698	-0.05
681.881	-0.01
682.064	0.02
682.247	0.01
682.43	-0.11
682.614	-0
682.797	0.09
682.98	0.02
683.163	-0.05
683.346	0
683.529	-0.09
683.712	-0.04
683.895	-0.04
684.078	-0.05
684.261	-0.05
684.444	-0
684.627	0.01
684.81	-0.03
684.993	-0.01
685.176	-0.02
685.359	-0.06
685.542	-0.04
685.725	0.05
685.908	-0.05
686.091	-0.02
686.274	0.01
686.457	0.02
686.639	-0.01
686.822	0.01
687.005	-0
687.188	0.06
687.371	0.07
687.553	0.01
687.736	0.02
687.919	0.03
688.102	0.03
688.284	-0.07
688.467	-0.02
688.65	0.02
688.832	-0.03
689.015	-0
689.197	-0.08
689.38	0.07
689.563	0.04
689.745	-0.05
689.928	-0.06
690.11	-0.01
690.293	-0
690.475	-0.09
690.658	0.02
690.84	0
691.023	-0.02
691.205	-0.03
691.388	-0.02
691.57	-0.02
691.752	-0
691.935	-0.14
692.117	-0.04
692.3	0.05
692.482	0.01
692.664	-0
692.847	-0.04
693.029	0.04
693.211	0.02
693.393	-0.06
693.576	-0.05
693.758	-0.03
693.94	0.01
694.122	-0.03
694.304	-0.06
694.487	-0.02
694.669	0.04
694.851	-0.1
695.033	0.01
695.215	-0.02
695.397	-0.03
695.579	-0.03
695.761	-0.07
695.943	-0.12
696.125	0.09
696.308	0.01
696.49	-0.1
696.671	0.08
696.853	-0.03
697.035	0.12
697.217	-0.02
697.399	-0.04
697.581	-0.06
697.763	-0.04
697.945	-0.03
698.127	0.03
698.309	0.01
698.491	-0.04
698.672	0.05
698.854	0.03
699.036	0.03
699.218	-0.05
699.399	0.03
699.581	0.03
699.763	0.02
699.945	-0.05
700.126	-0.02
700.308	0.04
700.49	-0.02
700.671	-0.17
700.853	-0.05
701.035	-0.02
701.216	0.02
701.398	-0.09
701.579	-0.06
701.761	-0.01
701.943	-0
702.124	-0.08
702.306	0
702.487	0.1
702.669	0
702.85	-0.01
703.031	-0.04
703.213	0.12
703.394	0.05
703.576	-0.04
703.757	0.03
703.938	-0.02
704.12	0.15
704.301	-0.02
704.483	-0.09
704.664	-0.04
704.845	0.03
705.026	-0.02
705.208	-0.05
705.389	-0.02
705.57	-0.01
705.751	-0.01
705.933	-0.05
706.114	0.12
706.295	-0.03
706.476	-0.08
706.657	0.1
706.838	0.04
707.02	0.1
707.201	-0.09
707.382	-0.03
707.563	0.06
707.744	-0.04
707.925	-0.04
708.106	-0.02
708.287	-0.05
708.468	0.07
708.649	-0.04
708.83	0.04
709.011	-0.01
709.192	0.06
709.373	-0.09
709.554	-0.07
709.734	0.02
709.915	0.02
710.096	0.03
710.277	-0.1
710.458	0.01
710.639	0
710.819	-0.09
711	-0.03
711.181	0.02
711.362	0.11
711.542	-0.06
711.723	-0.01
711.904	0.03
712.085	-0.04
712.265	0.03
712.446	-0.07
712.627	-0.05
712.807	-0.01
712.988	-0.05
713.168	-0.11
713.349	0.06
713.53	-0.14
713.71	-0.09
713.891	-0.07
714.071	0.04
714.252	-0.07
714.432	-0.08
714.613	-0.11
714.793	-0.02
714.974	0.06
715.154	-0.01
715.334	0.01
715.515	-0
715.695	-0.06
715.876	-0.03
716.056	-0.02
716.236	-0.03
716.417	-0.08
716.597	-0.06
716.777	0.12
716.957	0.01
717.138	-0.08
717.318	-0.03
717.498	-0.08
717.678	-0.02
717.859	0.02
718.039	-0.13
718.219	0
718.399	0.01
718.579	-0.12
718.759	-0.11
718.939	-0.03
719.12	0.01
719.3	-0.04
719.48	-0.18
719.66	-0.14
719.84	0.09
720.02	-0.01
720.2	-0.15
720.38	-0.02
720.56	0.02
720.74	-0.01
720.92	-0.02
721.1	0.04
721.279	0.06
721.459	-0.03
721.639	-0.06
721.819	0.02
721.999	0
722.179	0.05
722.359	-0.06
722.538	-0.04
722.718	-0
722.898	-0.07
723.078	-0.05
723.257	-0.05
723.437	0
723.617	-0.07
723.797	-0.06
723.976	0.02
724.156	-0.02
724.336	0.04
724.515	0.08
724.695	-0.16
724.874	-0.02
725.054	0.02
725.234	-0.11
725.413	0
725.593	-0.05
725.772	-0.1
725.952	0
726.131	-0.1
726.311	-0.06
726.49	-0.03
726.67	-0.11
726.849	-0.13
727.028	0.06
727.208	-0.05
727.387	0.04
727.567	-0.19
727.746	0.01
727.925	-0.05
728.105	-0.16
728.284	-0.07
728.463	-0.07
728.643	-0.02
728.822	-0.11
729.001	-0.11
729.18	0.06
729.359	0.05
729.539	-0.06
729.718	0
729.897	0.02
730.076	-0.06
730.255	-0.14
730.434	0.01
730.614	-0.02
730.793	0.08
730.972	-0.12
731.151	-0.07
731.33	0.01
731.509	0.01
731.688	-0.02
731.867	0.05
732.046	-0.12
732.225	0.18
732.404	-0.09
732.583	-0.2
732.762	0.04
732.941	0.04
733.12	-0.01
733.298	-0.01
733.477	0.09
733.656	-0.09
733.835	-0.15
734.014	0.06
734.193	-0.06
734.371	0.01
734.55	-0.01
734.729	-0.07
734.908	-0.02
735.086	-0
735.265	0.05
735.444	-0.23
735.623	-0.12
735.801	-0.11
735.98	-0.05
736.159	-0.07
736.337	0.13
736.516	-0.08
736.694	0.02
736.873	-0.09
737.052	0.19
737.23	0.07
737.409	-0.13
737.587	0.15
737.766	-0.22
737.944	-0.05
738.123	-0.02
738.301	-0.04
738.479	-0.14
738.658	0.04
738.836	-0.18
739.015	-0
739.193	-0.02
739.371	-0.12
739.55	-0.11
739.728	-0.11
739.906	0.06
740.085	0.08
740.263	-0.01
740.441	-0.17
740.62	0.13
740.798	0.09
740.976	-0.13
741.154	-0.09
741.332	0.04
741.511	-0.13
741.689	-0.01
741.867	0.05
742.045	-0.11
742.223	-0.11
742.401	-0.12
742.579	-0.07
742.757	0.01
742.935	-0.18
743.114	-0.1
743.292	-0.11
743.47	0.02
743.648	-0.08
743.826	0.03
744.004	0.06
744.181	0.03
744.359	-0.01
744.537	-0.01
744.715	-0.1
744.893	-0.06
745.071	0.09
745.249	-0.13
745.427	-0.06
745.605	0.04
745.782	0.14
745.96	0.03
746.138	-0
746.316	0.1
746.493	-0.03
746.671	0.03
746.849	-0.03
747.027	0.09
747.204	-0.07
747.382	-0.04
747.56	-0.11
747.737	-0.19
747.915	-0.09
748.093	-0.12
748.27	-0.18
748.448	-0.1
748.625	-0.23
748.803	-0.04
748.98	-0.11
749.158	0.05
749.335	0.11
749.513	-0.08
749.69	-0.06
749.868	-0.06
750.045	0.01
750.223	-0.06
750.4	-0.25
750.578	0.12
750.755	-0.09
750.932	-0.22
751.11	0.15
751.287	-0.14
751.464	0.13
751.642	-0.15
751.819	-0.1
751.996	0.03
752.173	-0.11
752.351	-0.16
752.528	-0.04
752.705	0.04
752.882	-0.12
753.06	0.1
753.237	0.04
753.414	0.08
753.591	0.13
753.768	-0.08
753.945	-0.14
754.122	-0.2
754.299	-0.09
754.476	-0.19
754.654	0.03
754.831	0.03
755.008	0.12
755.185	-0.16
755.362	-0.07
755.539	0.04
755.716	-0.13
755.892	-0.01
756.069	-0.01
756.246	-0.04
756.423	-0.09
756.6	0.05
756.777	-0.2
756.954	0.15
757.131	-0.01
757.307	-0.22
757.484	-0.09
757.661	-0.05
757.838	0.02
758.015	-0.23
758.191	0.07
758.368	-0.06
758.545	0.08
758.721	-0.06
758.898	-0.07
759.075	0.02
759.251	0.12
759.428	0.14
759.605	-0.19
759.781	-0.06
759.958	-0.01
760.134	0.07
760.311	-0.23
760.488	0.08
760.664	0.11
760.841	-0.16
761.017	-0.2
761.194	0.08
761.37	0.08
761.547	-0.03
761.723	-0.1
761.899	-0.06
762.076	-0.12
762.252	-0.12
762.429	-0.03
762.605	0.1
762.781	-0.08
762.958	0.17
763.134	-0.08
763.31	-0.01
763.486	0.1
763.663	-0.21
763.839	-0.03
764.015	-0.15
764.191	-0.15
764.368	-0.05
764.544	-0.03
764.72	0.02
764.896	0.19
765.072	0.04
765.248	-0.09
765.425	-0.07
765.601	-0.04
765.777	-0.02
765.953	-0.2
766.129	-0.13
766.305	-0.09
766.481	-0.08
766.657	0.01
766.833	0.15
767.009	-0.23
767.185	-0.04
767.361	-0.22
767.537	-0.28
767.713	0.12
767.889	-0.16
768.065	0.03
768.24	-0.22
768.416	0.08
768.592	-0.14
768.768	-0.13
768.944	-0.06
769.12	-0.12
769.295	-0.11
769.471	-0.03
769.647	-0.07
769.823	0.17
769.998	-0.15
770.174	-0.24
770.35	0.32
770.525	0.16
770.701	-0.07
770.877	-0.07
771.052	-0.09
771.228	0.03
771.403	0.09
771.579	0.01
771.755	0.16
771.93	-0.09
772.106	-0.28
772.281	-0.12
772.457	-0.05
772.632	0.14
772.808	-0.21
772.983	-0.17
773.159	-0.17
773.334	0.06
773.509	0.01
773.685	-0.15
773.86	0.17
774.036	0.18
774.211	-0.05
774.386	-0.02
774.562	0.1
774.737	0.11
774.912	-0.17
775.087	0.18
775.263	-0.13
775.438	-0.03
775.613	-0.03
775.788	-0.13
775.964	0.15
776.139	0.27
776.314	-0.18
776.489	-0.08
776.664	-0.03
776.839	-0.15
777.014	0.15
777.19	0.1
777.365	0.21
777.54	0.13
777.715	-0.02
777.89	0.02
778.065	-0.19
778.24	-0.19
778.415	0.16
778.59	-0.22
778.765	-0.25
778.94	0.14
779.115	-0.05
779.289	0.02
779.464	0.12
779.639	-0.02
779.814	-0.17
779.989	-0.17
780.164	0.11
780.339	-0.11
780.513	-0.08
780.688	-0.2
780.863	-0.13
781.038	0.11
781.212	-0.2
781.387	0.01
781.562	0.18
781.737	-0
781.911	0.21
782.086	-0.23
782.261	-0.01
782.435	0.15
782.61	-0.03
782.784	-0.07
782.959	0.11
783.134	-0.18
783.308	-0.31
783.483	-0.13
783.657	0.12
783.832	0.21
784.006	-0.38
784.181	-0
784.355	0.17
784.53	0.07
784.704	-0.28
784.878	0.34
785.053	0.02
785.227	0.21
785.402	0.31
785.576	-0.19
785.75	-0.07
785.925	-0.05
786.099	0.08
786.273	0.05
786.448	0.07
786.622	-0.02
786.796	-0.1
786.97	-0.34
787.145	0.37
787.319	-0.45
787.493	-0.01
787.667	-0.16
787.841	-0.1
788.015	0.19
788.19	0.01
788.364	-0.11
788.538	-0.02
788.712	0.13
788.886	-0.17
789.06	-0
789.234	0.1
789.408	-0.34
789.582	-0.01
789.756	-0.33
789.93	-0.44
790.104	-0.02
790.278	-0.05
790.452	-0.21
790.626	-0.05
790.8	-0.17
790.973	0.19
791.147	0.14
791.321	0.29
791.495	0.13
791.669	0.12
791.843	0.01
792.016	0.01
792.19	0.15
792.364	-0.25
792.538	0.4
792.711	0.13
792.885	-0.09
793.059	-0.3
793.233	-0.61
793.406	0.26
793.58	-0.1
793.754	-0.05
793.927	-0.32
794.101	0.29
794.274	-0.03
794.448	0.42
794.622	-0.42
794.795	0.33
794.969	-0.12
795.142	0.5
795.316	-0.12
795.489	-0.15
795.663	0.5
795.836	-0.24
796.009	-0.24
796.183	0.15
796.356	-0.02
796.53	0.03
796.703	-0.01
796.876	0.72
797.05	0.04
797.223	-0.13
797.396	-0.11
797.57	0.07
797.743	0.27
797.916	-0.11
798.09	0.05
798.263	0.38
798.436	0.05
798.609	-0.21
798.782	-0.12
798.956	0
799.129	-0.14
799.302	-0.15
799.475	-0.19
799.648	-0.05
799.821	-0.15
799.994	-0.28
800.167	-0.29
800.34	-0.23
800.514	0.05
800.687	-0.13
800.86	-0.42
801.033	-0.1
801.206	-0.13
801.379	-0.15
801.551	0.08
801.724	-0.1
801.897	0.41
802.07	-0.15
802.243	-0.6
802.416	-0.26
802.589	-0.25
802.762	0.08
802.935	-0.08
803.107	0.21
803.28	0.04
803.453	-0.17
803.626	-0.62
803.798	-0.12
803.971	-0.35
804.144	-0.05
804.317	0.28
804.489	0.23
804.662	0.1
804.835	-0.1
805.007	-0.13
805.18	0.15
805.353	0.03
805.525	-0.19
805.698	-0.34
805.87	0.1
806.043	0.24
806.215	-0.44
806.388	-0.48
806.56	0.14
806.733	0.07
806.905	0.17
807.078	-0.28
807.25	-0.4
807.423	0.2
807.595	0.07
807.768	-0.06
807.94	0.21
808.112	-0.1
808.285	0.21
808.457	-0.12
808.629	-0.18
808.802	0.4
808.974	-0.13
809.146	-0.28
809.318	-0.36
809.491	0.27
809.663	0.04
809.835	0.01
810.007	0.43
810.18	-0.22
810.352	-0.33
810.524	-0.42
810.696	-0.09
810.868	0.38
811.04	-0.17
811.212	-0.31
811.384	0.32
811.556	-0.14
811.728	-0.2
811.901	0.65
812.073	-0.31
812.245	0.18
812.417	0.05
812.589	-0.57
812.76	-0.12
812.932	-0.07
813.104	0.07
813.276	0.05
813.448	0.48
813.62	0
813.792	0.09
813.964	0.1
814.136	0.46
814.307	-0.19
814.479	-0.46
814.651	-0.45
814.823	0.61
814.995	0.15
815.166	0.23
815.338	-0.23
815.51	-0.49
815.681	0.52
815.853	0.07
816.025	-0.4
816.196	0.09
816.368	-0.46
816.54	-0.57
816.711	-0.52
816.883	0.14
817.054	0.81
817.226	-0.83
817.398	-0.19
817.569	-0.23
817.741	0.16
817.912	-0.3
818.084	-0.23
818.255	0.32
818.426	-0.16
818.598	-0.27
818.769	-0.13
818.941	0.61
819.112	0.57
819.283	0.11
819.455	-0.27
819.626	0.01
819.798	0.2
819.969	0.29
820.14	-0.32
820.311	-0.28
820.483	0.52
820.654	-0.16
820.825	0
820.996	-0.06
821.168	-0.23
821.339	0.03
821.51	-0.43
821.681	-0.16
821.852	-0.15
822.023	-0.43
822.195	-0.59
822.366	0.14
822.537	-0.2
822.708	0.02
822.879	-0.31
823.05	0.5
823.221	-0.47
823.392	0.25
823.563	-0.44
823.734	0.12
823.905	-0.18
824.076	-0.35
824.247	-0.69
824.418	-0.4
824.589	0.34
824.759	-0.96
824.93	-0.04
825.101	-1.34
825.272	1.11
825.443	0.59
825.614	0.56
825.784	-0.82
825.955	0.8
826.126	0.67
826.297	-0.34
826.467	0.85
826.638	0.35
826.809	-1.17
826.98	-0.37
827.15	-0.16
827.321	-0.22
827.492	0.57
827.662	0.01
827.833	0.65
828.003	0.46
828.174	-0.8
828.345	-0.85
828.515	0.97
828.686	0.1
828.856	0.05
829.027	-0.12
829.197	-0.04
829.368	-0.06
829.538	-0.47
829.709	-0.17
829.879	0.08
830.049	-0.31
830.22	-0.37
830.39	-0.28
830.56	1.06
830.731	-0.24
830.901	-0.35
831.072	-0.11
831.242	-0.32
831.412	-0.01
831.582	-0.29
831.753	-0.97
831.923	0.26
832.093	-0.15
832.263	-0.79
832.434	-0.71
832.604	0.17
832.774	0.24
832.944	-0.65
833.114	-0.8
833.284	-0.19
833.454	-0.52
833.624	-0.69
833.795	-0.55
833.965	0.8
834.135	0.47
834.305	-1.15
834.475	-0.78
834.645	-0.15
834.815	-0.64
834.985	-0.38
835.155	-0.71
835.325	0.73
835.494	0.86
835.664	-0.24
835.834	-0.92
836.004	0.11
836.174	-0.02
836.344	-0.51
836.514	-0.63
836.684	-0.01
836.853	-0.17
837.023	-0.35
837.193	0.19
837.363	-0.22
837.532	0.66
837.702	0.12
837.872	-0.84
838.041	0.5
838.211	0.77
838.381	-1.56
838.55	-0.19
838.72	2.26
838.89	1.11
839.059	-0.45
839.229	-0.72
839.398	1.32
839.568	-0.13
839.738	-0.02
839.907	0.96
840.077	0.28
840.246	-0.59
840.416	-0.05
840.585	0.01
840.755	0.75
840.924	1.29
841.093	-0.71
841.263	0.02
841.432	-0.57
841.602	-1.17
841.771	-1.09
841.94	0.59
842.11	1.35
842.279	0.6
842.448	-1.44
842.617	-0.85
842.787	1.43
842.956	-0.95
843.125	-0.18
843.294	-0.33
843.464	1.06
843.633	-0.53
843.802	-1.45
843.971	-0.86
844.14	0.12
844.309	0.41
844.479	-0.98
844.648	-1.01
844.817	-0.43
844.986	0.3
845.155	-0.99
845.324	-0.07
845.493	-0.14
845.662	-1.03
845.831	0.19
846	0.08
846.169	0
846.338	1.38
846.507	-0.42
846.676	0.47
846.844	-0.83
847.013	0.13
847.182	0.2
847.351	-0.01
847.52	-0.74
847.689	0.54
847.858	-0.49
848.026	-0.54
848.195	-0.8
848.364	-1.11
848.533	-0.53
848.701	-0.7
848.87	-0.29
849.039	-0.21
849.207	0.43
849.376	0.82
849.545	1.12
849.713	-0.35
849.882	-0.85
850.051	-0.24
850.219	0.56
850.388	0.99
850.556	-0.95
850.725	-0.74
850.893	0.84
851.062	-0.83
851.23	-0.36
851.399	-1.95
851.567	-0.12
851.736	-0.84
851.904	-1.35
852.073	-0.3
852.241	1.11
852.41	-0.65
852.578	-0.97
852.746	-1.1
852.915	0.12
853.083	-0.38
853.251	-0.71
853.42	-0.71
853.588	-0.07
853.756	-0.58
853.924	-0.83
854.093	-0.95
854.261	-0.09
854.429	-1.55
854.597	-0.73
854.765	-0.32
854.934	-0.44
855.102	0.3
855.27	-1.04
855.438	-0.46
855.606	0.96
855.774	0.71
855.942	-1.24
856.11	-1.66
856.278	-0.41
856.446	1.79
856.614	0.5
856.782	-0.96
856.95	0.65
857.118	1.54
857.286	-0.34
857.454	-2.32
857.622	1.32
857.79	1.34
857.958	-1.23
858.126	0.62
858.294	-2.34
858.462	-0.65
858.629	-1.5
858.797	-1.64
858.965	-0.55
859.133	-0.17
859.301	-0.54
859.468	0.18
859.636	-0.96
859.804	1.01
859.971	0.05
860.139	-0.3
860.307	-0.05
860.474	0.48
860.642	-1.23
860.81	-0.92
860.977	-0.43
861.145	0.28
861.313	-0.99
861.48	-0.5
861.648	0.72
861.815	-0.82
861.983	-1.28
862.15	0.18
862.318	-1.08
862.485	2.26
862.653	-0.02
862.82	-1.38
862.988	2.33
863.155	2.38
863.322	-1.28
863.49	-1.15
863.657	-0.37
863.824	2.33
863.992	0.84
864.159	0.1
864.326	0.32
864.494	-0.73
864.661	1.52
864.828	-1.33
864.996	1.47
865.163	2.1
865.33	-1.97
865.497	-3.3
865.664	-0.1
865.832	-2.5
865.999	-1.45
866.166	-1.34
866.333	-1.07
866.5	-1.48
866.667	-1.09
866.834	0.48
867.001	1.29
867.168	-2.08
867.335	0.76
867.502	-2.99
867.669	0.36
867.836	2.2
868.003	0.42
868.17	1.25
868.337	-2.14
868.504	1.34
868.671	-1.33
868.838	-0.56
869.005	0.11
869.172	0.59
869.339	-0.91
869.505	0.41
869.672	0.16
869.839	0.41
870.006	0.46
870.173	-0.82
870.339	0.38
870.506	1.64
870.673	-0.23
870.84	0.62
871.006	1.13
871.173	-1.24
871.34	-0.48
871.506	-2
871.673	0.13
871.839	-1.43
872.006	-1.68
872.173	-1.33
872.339	0.04
872.506	1.43
872.672	0.5
872.839	-2.09
873.005	-0.41
873.172	3.09
873.338	1.64
873.505	0.64
873.671	1.57
873.838	1.02
874.004	-1.9
874.171	-0.87
874.337	-0.25
874.503	1.39
874.67	-0.29
874.836	-0.12
875.002	1.68
875.169	0.32
875.335	-0.49
875.501	-0.59
875.668	0.99
875.834	-0.12
876	-0.25
876.166	-0.59
876.332	0.56
876.499	2.02
876.665	-1.65
876.831	-0.89
876.997	2.68
877.163	1.64
877.329	-0.88
877.495	-1.64
877.662	1.43
877.828	0.63
877.994	-0.16
878.16	-3.12
878.326	0.93
878.492	-1.74
878.658	-0.48
878.824	-1.32
878.99	0.91
879.156	0.21
879.322	2.47
879.487	-0.43
879.653	-1.04
879.819	-0.95
879.985	-1.71
880.151	0.3
880.317	0.64
880.483	1.12
880.648	0.71
880.814	-5.04
880.98	0.7
881.146	-2.89
881.312	-0.95
881.477	-1.05
881.643	-0.02
881.809	2.32
881.974	2.97
882.14	-2.95
882.306	-1.48
882.471	3.22
882.637	-0.17
882.803	0.77
882.968	2.64
883.134	3.03
883.299	0.21
883.465	0.13
883.63	0.47
883.796	1.38
883.961	-0.17
884.127	0.82
884.292	-2.78
884.458	-1.51
884.623	-1.51
