Data from Apollo_Calib_20240827__AbsoluteIrradiance__107__00-56-02-424.txt Node

Date: Wed Aug 28 00:56:02 BST 2024
User: biology
Spectrometer: FLMT08252
Trigger mode: 0
Integration Time (sec): 5.000000E-1
Scans to average: 5
Electric dark correction enabled: true
Nonlinearity correction enabled: false
Boxcar width: 0
XAxis mode: Wavelengths
Number of Pixels in Spectrum: 3648
>>>>>Begin Spectral Data<<<<<
179.588	-0
179.809	-0
180.03	-0
180.251	-0
180.473	-0
180.694	0
180.915	0
181.136	-0
181.357	0
181.578	-0
181.799	-0
182.02	-0
182.241	0
182.462	-0
182.683	0
182.904	-0
183.125	-0
183.346	0
183.567	0
183.788	-0
184.009	-0
184.23	0
184.451	0
184.672	-0
184.892	-0
185.113	0
185.334	0
185.555	-0
185.776	-0
185.996	0
186.217	0
186.438	-0
186.659	-0
186.879	-0
187.1	-0
187.321	-0
187.541	-0
187.762	-0
187.983	-0
188.203	-0
188.424	-0
188.644	-0
188.865	0
189.086	-0
189.306	-0
189.527	0
189.747	-0
189.968	-0
190.188	0
190.409	0
190.629	0
190.849	-0
191.07	-0
191.29	0
191.511	-0
191.731	-0
191.951	-0
192.172	-0
192.392	0
192.612	-0
192.833	-0
193.053	0
193.273	0
193.493	-0
193.714	0
193.934	0
194.154	0
194.374	0
194.594	0
194.815	-0
195.035	0
195.255	-0
195.475	-0
195.695	0
195.915	-0
196.135	-0
196.355	0
196.575	0
196.795	0
197.015	-0
197.235	-0
197.455	0
197.675	0
197.895	-0
198.115	-0
198.335	0
198.555	-0
198.775	0
198.995	0
199.214	0
199.434	-0
199.654	-0
199.874	-0
200.094	0.76
200.313	-0.15
200.533	-0.74
200.753	-0.49
200.973	0.88
201.192	0.07
201.412	-1.27
201.632	-0.4
201.851	0.73
202.071	-0.55
202.291	-0.42
202.51	-0.82
202.73	0.13
202.95	-0.34
203.169	-0.24
203.389	-0.19
203.608	0.04
203.828	-0.61
204.047	-0.12
204.267	0.1
204.486	-0.03
204.706	0.29
204.925	0.04
205.145	-0.12
205.364	0.23
205.583	0.59
205.803	-0.18
206.022	-0.6
206.242	-0.23
206.461	-0.06
206.68	-0.67
206.9	-0.1
207.119	0.49
207.338	0.27
207.557	-0.08
207.777	-0.01
207.996	-0.23
208.215	0.25
208.434	-0.6
208.654	-0.69
208.873	-0.03
209.092	0.22
209.311	-0.2
209.53	-0.28
209.749	-0.14
209.968	-0.34
210.187	-0.4
210.407	-0.6
210.626	-0.11
210.845	0.23
211.064	-0.14
211.283	-0.52
211.502	0.3
211.721	-0.16
211.94	-0.12
212.159	0.12
212.377	0.09
212.596	0.37
212.815	0.03
213.034	0.07
213.253	0.32
213.472	0.19
213.691	-0.25
213.91	-0.37
214.128	-0.17
214.347	0.36
214.566	-0.45
214.785	-0.22
215.003	0.08
215.222	-0.14
215.441	-0.16
215.66	-0.25
215.878	0.01
216.097	0.1
216.316	-0.31
216.534	0.04
216.753	0.16
216.972	-0.05
217.19	0.01
217.409	-0.15
217.627	-0.1
217.846	-0.06
218.064	-0.15
218.283	-0.09
218.501	0.38
218.72	-0.08
218.938	-0.11
219.157	-0.04
219.375	0.27
219.594	-0.11
219.812	-0.28
220.031	-0.29
220.249	0.36
220.467	0.14
220.686	-0.22
220.904	-0.2
221.122	-0.2
221.341	0.26
221.559	0.02
221.777	-0.2
221.995	0.08
222.214	0.21
222.432	-0.28
222.65	0.01
222.868	0.02
223.086	-0.08
223.305	0.13
223.523	-0.1
223.741	0.2
223.959	-0.15
224.177	-0.15
224.395	-0.05
224.613	0.02
224.831	0.07
225.049	-0.23
225.267	-0.07
225.485	-0.05
225.703	-0.02
225.921	-0.13
226.139	-0.14
226.357	-0.02
226.575	-0.1
226.793	-0.09
227.011	0.5
227.229	-0.09
227.447	0.13
227.665	-0.05
227.883	-0.17
228.1	-0.13
228.318	0.02
228.536	-0.2
228.754	-0.14
228.972	0.12
229.189	0.12
229.407	-0.1
229.625	-0.06
229.843	0.03
230.06	0.07
230.278	-0.11
230.496	0.05
230.713	-0.03
230.931	0.14
231.149	-0.14
231.366	-0.16
231.584	-0.11
231.801	0.23
232.019	-0.12
232.236	-0.09
232.454	-0.17
232.671	-0.01
232.889	-0.08
233.106	-0.12
233.324	-0.04
233.541	-0.01
233.759	-0.03
233.976	-0.08
234.194	-0.06
234.411	0.02
234.628	-0.16
234.846	-0.08
235.063	0.05
235.28	-0.09
235.498	-0.02
235.715	-0.2
235.932	0.09
236.149	-0.04
236.367	-0.11
236.584	-0.04
236.801	-0.08
237.018	-0.02
237.236	0.03
237.453	-0.12
237.67	0.02
237.887	-0.05
238.104	-0.05
238.321	-0.13
238.538	-0.09
238.755	-0.01
238.973	-0.21
239.19	-0.04
239.407	0.04
239.624	-0.03
239.841	-0.15
240.058	-0.09
240.275	0.04
240.492	-0.12
240.709	0.02
240.925	-0.08
241.142	-0.02
241.359	-0.09
241.576	-0.12
241.793	-0.08
242.01	0.05
242.227	0.01
242.444	-0
242.66	0.1
242.877	0.02
243.094	-0.09
243.311	-0.06
243.527	-0.01
243.744	0.08
243.961	0.09
244.178	-0.15
244.394	-0.04
244.611	0.08
244.828	0.09
245.044	-0.01
245.261	-0.07
245.477	-0.01
245.694	-0.04
245.911	-0.04
246.127	-0.05
246.344	0.13
246.56	-0.03
246.777	-0.02
246.993	-0.08
247.21	0.07
247.426	0.12
247.643	-0.11
247.859	-0.14
248.076	-0.03
248.292	0.19
248.508	-0.06
248.725	0.09
248.941	0.06
249.157	0.07
249.374	0
249.59	0.02
249.806	0.03
250.023	0.02
250.239	-0.09
250.455	-0.06
250.671	0.02
250.888	-0.05
251.104	0.02
251.32	-0.02
251.536	-0.06
251.752	0.02
251.969	-0.03
252.185	0.03
252.401	0.11
252.617	0.03
252.833	-0.07
253.049	0
253.265	-0
253.481	0.06
253.697	-0.01
253.913	-0.1
254.129	-0.07
254.345	-0.02
254.561	-0.01
254.777	-0.08
254.993	0.06
255.209	-0.01
255.425	-0.05
255.641	-0.1
255.857	0.07
256.073	0.05
256.288	-0.09
256.504	-0.17
256.72	-0.06
256.936	0.2
257.152	-0.02
257.367	-0.08
257.583	0.03
257.799	-0.01
258.015	-0.03
258.23	-0.05
258.446	0.1
258.662	-0.03
258.877	-0.08
259.093	-0.01
259.309	0.03
259.524	0
259.74	-0.09
259.955	-0.16
260.171	-0.04
260.387	-0.03
260.602	0.03
260.818	0.09
261.033	-0.1
261.249	0
261.464	-0.1
261.68	-0.05
261.895	-0.03
262.11	0.13
262.326	-0.05
262.541	-0.08
262.757	0.04
262.972	0.01
263.187	-0.04
263.403	0.05
263.618	0.04
263.833	-0.01
264.049	-0.06
264.264	-0.03
264.479	0.05
264.694	0.1
264.91	-0.08
265.125	0.02
265.34	0.07
265.555	0.14
265.77	-0
265.986	-0.04
266.201	0.02
266.416	0.06
266.631	-0.04
266.846	-0.02
267.061	0.06
267.276	0.03
267.491	-0.16
267.706	0.05
267.921	0.07
268.136	-0.05
268.351	0.01
268.566	-0.08
268.781	0.08
268.996	0.05
269.211	0.01
269.426	-0.06
269.641	-0.07
269.856	0.08
270.071	-0.07
270.285	-0.13
270.5	0
270.715	0.04
270.93	0.01
271.145	0.01
271.359	0.07
271.574	-0.04
271.789	-0.05
272.004	-0.01
272.218	0
272.433	0.09
272.648	-0.02
272.862	0.06
273.077	-0.02
273.292	-0
273.506	-0.03
273.721	0.02
273.936	0.01
274.15	0.07
274.365	-0.02
274.579	0.04
274.794	0.04
275.008	0.09
275.223	-0.07
275.437	0.02
275.652	0.04
275.866	0.01
276.081	-0.01
276.295	0.01
276.509	0.04
276.724	0
276.938	0.03
277.153	0.06
277.367	0.06
277.581	-0.02
277.796	-0.07
278.01	-0.04
278.224	-0.02
278.438	0.11
278.653	-0.06
278.867	-0.07
279.081	-0.18
279.295	-0
279.51	0.04
279.724	-0.07
279.938	0.03
280.152	0.06
280.366	-0.11
280.58	-0
280.794	0.08
281.008	0.03
281.222	0.06
281.437	0.09
281.651	0
281.865	0.05
282.079	-0.06
282.293	-0.1
282.507	-0.03
282.721	0.01
282.935	-0.03
283.148	-0.06
283.362	-0.04
283.576	-0.05
283.79	0.02
284.004	-0.07
284.218	0.09
284.432	-0.01
284.646	0.03
284.859	-0.04
285.073	-0.02
285.287	0
285.501	-0.01
285.714	0
285.928	-0.02
286.142	-0.02
286.356	-0
286.569	-0
286.783	0.04
286.997	-0
287.21	-0.03
287.424	0.01
287.637	-0.04
287.851	-0.04
288.065	-0.01
288.278	-0.03
288.492	0.05
288.705	-0.01
288.919	0.07
289.132	-0.07
289.346	0.06
289.559	-0.03
289.773	-0.08
289.986	0
290.2	-0
290.413	0.04
290.626	-0.03
290.84	-0.04
291.053	-0.01
291.267	0.07
291.48	-0
291.693	0.02
291.906	0.01
292.12	0
292.333	-0.03
292.546	-0
292.76	0.09
292.973	-0
293.186	-0
293.399	-0.06
293.612	0.03
293.826	0.02
294.039	-0.02
294.252	-0.04
294.465	0.04
294.678	-0.01
294.891	0.04
295.104	-0.03
295.317	-0
295.53	-0.02
295.743	0.01
295.956	0.01
296.169	0.05
296.382	0.05
296.595	-0.01
296.808	-0.03
297.021	0.04
297.234	0.02
297.447	-0.01
297.66	0.04
297.873	0.06
298.086	0.05
298.299	-0.06
298.511	-0.07
298.724	0.04
298.937	0
299.15	-0.07
299.363	-0
299.575	0.03
299.788	0.03
300.001	-0.01
300.213	-0
300.426	-0
300.639	0.01
300.852	-0
301.064	0.05
301.277	0.06
301.489	0.04
301.702	0.04
301.915	-0.02
302.127	0.02
302.34	0.02
302.552	0.01
302.765	-0.04
302.977	0.03
303.19	0.01
303.402	0.03
303.615	-0
303.827	-0.04
304.04	-0.01
304.252	-0.02
304.464	0
304.677	0.11
304.889	0.02
305.102	-0.01
305.314	-0.03
305.526	0.06
305.739	0.05
305.951	-0.02
306.163	-0.02
306.375	0.04
306.588	-0.04
306.8	-0.02
307.012	-0.04
307.224	-0.03
307.436	0.04
307.649	-0.09
307.861	0.05
308.073	0.05
308.285	0.02
308.497	-0.02
308.709	-0.02
308.921	0.01
309.133	0.05
309.346	-0.01
309.558	-0.01
309.77	0.03
309.982	0
310.194	0.02
310.406	-0.06
310.617	0.05
310.829	0.04
311.041	0.03
311.253	-0.03
311.465	-0.01
311.677	-0
311.889	-0.01
312.101	-0.03
312.313	0.02
312.524	0.02
312.736	-0.03
312.948	-0.02
313.16	0.08
313.372	0.03
313.583	0.04
313.795	-0.02
314.007	-0.02
314.218	0.02
314.43	0.01
314.642	-0.01
314.853	-0.04
315.065	0.07
315.277	0.02
315.488	0.04
315.7	0.05
315.912	0.03
316.123	0
316.335	0.04
316.546	0.08
316.758	0
316.969	-0.06
317.181	-0.03
317.392	0.03
317.604	0.02
317.815	0
318.026	-0.03
318.238	-0.03
318.449	0.02
318.661	-0.06
318.872	-0.03
319.083	-0.06
319.295	0
319.506	0
319.717	0.01
319.929	0.06
320.14	0.02
320.351	-0.01
320.562	0.01
320.774	-0.02
320.985	0.02
321.196	-0.02
321.407	-0.05
321.618	0.04
321.829	0.01
322.041	0.02
322.252	0.03
322.463	0.03
322.674	-0
322.885	-0.01
323.096	-0.02
323.307	0.04
323.518	-0.02
323.729	0
323.94	-0.04
324.151	-0.02
324.362	0.03
324.573	0.02
324.784	-0
324.995	0.05
325.206	0
325.417	-0
325.628	-0.02
325.838	0.05
326.049	0.01
326.26	0.08
326.471	-0.03
326.682	-0.01
326.892	-0.01
327.103	-0.07
327.314	-0.01
327.525	0.07
327.735	0.01
327.946	-0.01
328.157	-0.04
328.368	0.02
328.578	-0
328.789	0.02
328.999	0.01
329.21	-0.03
329.421	-0.01
329.631	-0.03
329.842	-0.01
330.052	0.05
330.263	0.01
330.473	0
330.684	-0.01
330.894	-0.03
331.105	0
331.315	0.01
331.526	-0.04
331.736	0.07
331.947	0.03
332.157	-0
332.367	-0.02
332.578	0.06
332.788	0.06
332.999	0.06
333.209	-0.02
333.419	-0.02
333.629	-0.02
333.84	0.03
334.05	-0.01
334.26	0.06
334.47	0.01
334.681	0.06
334.891	0.01
335.101	0.01
335.311	0.07
335.521	0.02
335.732	-0.04
335.942	0.06
336.152	-0
336.362	0.05
336.572	-0
336.782	0.03
336.992	-0.01
337.202	0.01
337.412	-0.04
337.622	0.02
337.832	0.01
338.042	-0.02
338.252	0.01
338.462	0.01
338.672	0.01
338.882	0.05
339.092	-0
339.302	0.07
339.511	0.03
339.721	-0.03
339.931	0.01
340.141	0.06
340.351	0.06
340.561	0.02
340.77	0.02
340.98	-0
341.19	0.03
341.4	-0
341.609	-0.04
341.819	0.01
342.029	-0.04
342.238	0
342.448	-0.02
342.658	0.03
342.867	0.06
343.077	-0.03
343.286	0.03
343.496	0.02
343.706	0.03
343.915	-0.04
344.125	-0.04
344.334	0.02
344.544	-0.03
344.753	-0.02
344.963	-0.02
345.172	-0.02
345.381	-0
345.591	-0.01
345.8	0.01
346.01	0.07
346.219	0.05
346.428	-0.15
346.638	0.02
346.847	-0.02
347.056	0.07
347.266	-0.04
347.475	0.03
347.684	0.05
347.893	-0
348.103	-0.01
348.312	0.02
348.521	-0.01
348.73	0
348.94	0.02
349.149	0.01
349.358	0.01
349.567	0
349.776	-0.03
349.985	-0.03
350.194	0.08
350.403	0.03
350.612	-0.06
350.821	-0.02
351.03	0.01
351.239	-0
351.448	-0.05
351.657	0.01
351.866	0.05
352.075	-0
352.284	0.03
352.493	-0.04
352.702	0.07
352.911	0
353.12	-0.03
353.329	-0.01
353.538	0.02
353.746	-0.01
353.955	-0.02
354.164	0.06
354.373	-0.01
354.582	-0.01
354.79	0.06
354.999	0.05
355.208	-0
355.416	0.05
355.625	-0.06
355.834	-0.04
356.042	-0
356.251	0.02
356.46	-0.01
356.668	-0
356.877	0.11
357.085	0.03
357.294	-0.06
357.503	0.04
357.711	-0
357.92	0.11
358.128	0.04
358.337	-0.02
358.545	0.03
358.754	0.01
358.962	0.05
359.17	-0.03
359.379	0.02
359.587	0.06
359.796	-0
360.004	0.08
360.212	0.06
360.421	0.01
360.629	0.01
360.837	-0.01
361.046	0.01
361.254	0.13
361.462	0.03
361.67	-0
361.879	0.03
362.087	0.08
362.295	0.01
362.503	-0
362.711	-0.05
362.92	-0.02
363.128	-0.01
363.336	-0.04
363.544	-0.03
363.752	-0.01
363.96	-0.02
364.168	0.02
364.376	0.02
364.584	0.03
364.792	0.07
365	0.06
365.208	0.02
365.416	0.01
365.624	0.07
365.832	0.02
366.04	0.09
366.248	0.07
366.456	0.05
366.664	0.05
366.872	0.03
367.079	0.03
367.287	0.09
367.495	0.05
367.703	0.04
367.911	0.05
368.118	0.08
368.326	0.05
368.534	0.01
368.742	0.16
368.949	0.06
369.157	0.1
369.365	0.11
369.572	0.11
369.78	0.13
369.988	0.19
370.195	0.18
370.403	0.18
370.61	0.16
370.818	0.2
371.026	0.27
371.233	0.21
371.441	0.28
371.648	0.2
371.856	0.33
372.063	0.31
372.271	0.36
372.478	0.35
372.685	0.35
372.893	0.47
373.1	0.41
373.308	0.45
373.515	0.59
373.722	0.51
373.93	0.59
374.137	0.64
374.344	0.74
374.552	0.74
374.759	0.77
374.966	0.81
375.173	0.87
375.381	0.88
375.588	0.88
375.795	0.87
376.002	0.94
376.209	0.95
376.417	1.11
376.624	1.12
376.831	1.25
377.038	1.23
377.245	1.24
377.452	1.38
377.659	1.46
377.866	1.49
378.073	1.64
378.28	1.65
378.487	1.81
378.694	1.85
378.901	1.92
379.108	1.97
379.315	2.11
379.522	2.22
379.729	2.26
379.936	2.32
380.143	2.45
380.35	2.52
380.557	2.68
380.763	2.74
380.97	2.8
381.177	2.89
381.384	3.13
381.591	3.15
381.797	3.18
382.004	3.31
382.211	3.45
382.418	3.45
382.624	3.56
382.831	3.54
383.038	3.72
383.244	3.57
383.451	3.58
383.658	3.53
383.864	3.61
384.071	3.53
384.277	3.62
384.484	3.51
384.69	3.39
384.897	3.32
385.103	3.24
385.31	3.2
385.516	3.14
385.723	2.97
385.929	3.02
386.136	2.78
386.342	2.72
386.549	2.6
386.755	2.59
386.961	2.49
387.168	2.36
387.374	2.25
387.58	2.24
387.787	2.06
387.993	2.03
388.199	1.88
388.406	1.77
388.612	1.63
388.818	1.63
389.024	1.54
389.231	1.56
389.437	1.53
389.643	1.48
389.849	1.44
390.055	1.34
390.261	1.33
390.467	1.27
390.674	1.22
390.88	1.22
391.086	1.18
391.292	1.14
391.498	1.18
391.704	1.08
391.91	1.03
392.116	0.98
392.322	0.85
392.528	0.96
392.734	0.88
392.94	0.91
393.146	0.84
393.352	0.82
393.557	0.79
393.763	0.78
393.969	0.78
394.175	0.71
394.381	0.73
394.587	0.65
394.792	0.66
394.998	0.64
395.204	0.67
395.41	0.54
395.615	0.58
395.821	0.57
396.027	0.54
396.233	0.49
396.438	0.5
396.644	0.51
396.85	0.5
397.055	0.4
397.261	0.43
397.466	0.47
397.672	0.44
397.878	0.44
398.083	0.4
398.289	0.33
398.494	0.39
398.7	0.32
398.905	0.26
399.111	0.37
399.316	0.27
399.522	0.33
399.727	0.29
399.932	0.23
400.138	0.27
400.343	0.26
400.549	0.27
400.754	0.24
400.959	0.24
401.165	0.2
401.37	0.24
401.575	0.31
401.78	0.23
401.986	0.18
402.191	0.21
402.396	0.18
402.601	0.23
402.807	0.22
403.012	0.18
403.217	0.23
403.422	0.19
403.627	0.16
403.832	0.16
404.037	0.23
404.243	0.2
404.448	0.15
404.653	0.16
404.858	0.13
405.063	0.18
405.268	0.13
405.473	0.13
405.678	0.14
405.883	0.28
406.088	0.16
406.293	0.09
406.498	0.1
406.703	0.12
406.907	0.13
407.112	0.08
407.317	0.1
407.522	0.2
407.727	0.04
407.932	0.1
408.136	0.21
408.341	0.14
408.546	0.12
408.751	0.08
408.956	0.08
409.16	0.12
409.365	0.07
409.57	0.12
409.774	0.09
409.979	0.16
410.184	0.08
410.388	0.06
410.593	0.14
410.798	0.13
411.002	0.09
411.207	0.11
411.411	0.09
411.616	0.05
411.82	0.06
412.025	0.12
412.229	0.08
412.434	0.12
412.638	0.1
412.843	0.1
413.047	0.05
413.252	0.03
413.456	0.02
413.66	0.09
413.865	0.06
414.069	0.06
414.273	0.05
414.478	0.06
414.682	0.03
414.886	0.01
415.091	-0.02
415.295	-0.01
415.499	0.08
415.703	0.02
415.908	0.09
416.112	-0.01
416.316	0.08
416.52	0.05
416.724	-0.03
416.929	-0
417.133	0.13
417.337	-0
417.541	0.06
417.745	0.05
417.949	0.06
418.153	0.09
418.357	-0.01
418.561	0.1
418.765	0.03
418.969	0.11
419.173	0.11
419.377	0.01
419.581	0.12
419.785	-0.01
419.989	0.01
420.193	0.01
420.397	0.02
420.601	0.09
420.804	0.09
421.008	0.01
421.212	0.03
421.416	0.07
421.62	-0
421.823	0.07
422.027	0.15
422.231	0.07
422.435	0.05
422.638	0.07
422.842	0.04
423.046	0.02
423.249	0.08
423.453	0.07
423.657	0.03
423.86	0.05
424.064	0.04
424.268	0.07
424.471	0.04
424.675	0.11
424.878	0.06
425.082	0.03
425.285	0.1
425.489	0.01
425.692	0.02
425.896	0.02
426.099	0.05
426.303	-0.02
426.506	0.01
426.71	0.05
426.913	0.11
427.116	0.1
427.32	0.04
427.523	0.02
427.726	0.11
427.93	0.01
428.133	0.03
428.336	0.02
428.54	0.03
428.743	0.07
428.946	0.14
429.149	0
429.353	-0
429.556	0.02
429.759	0.09
429.962	0.02
430.165	0.05
430.368	0.03
430.571	0.01
430.775	0.07
430.978	0.01
431.181	0.04
431.384	0.02
431.587	0.04
431.79	0.05
431.993	0.01
432.196	0.01
432.399	0.02
432.602	0.08
432.805	0.11
433.008	0.02
433.211	0
433.414	0.06
433.616	0.1
433.819	0.04
434.022	0.03
434.225	0.11
434.428	0.07
434.631	0.11
434.833	0.07
435.036	0.07
435.239	0.12
435.442	0.06
435.645	0.05
435.847	0.07
436.05	0.12
436.253	0.07
436.455	0.01
436.658	0.04
436.861	0.11
437.063	0.01
437.266	0.09
437.468	0.06
437.671	0.17
437.874	0.04
438.076	-0.03
438.279	-0.01
438.481	0.06
438.684	0.01
438.886	0.08
439.089	-0.04
439.291	0.03
439.494	0.08
439.696	-0.03
439.899	0.09
440.101	0.06
440.303	0.02
440.506	0.12
440.708	0.08
440.91	0.09
441.113	0.01
441.315	0.07
441.517	0.01
441.72	0.11
441.922	0
442.124	-0.01
442.326	0.06
442.529	0.1
442.731	0.05
442.933	0.19
443.135	0.02
443.337	0.04
443.539	0.05
443.742	0.07
443.944	0.08
444.146	0.04
444.348	0.06
444.55	0.05
444.752	0.06
444.954	0.05
445.156	0.09
445.358	0.03
445.56	0.12
445.762	0.04
445.964	0.07
446.166	0.03
446.368	0.08
446.57	0.13
446.772	0.05
446.974	0.06
447.175	0.07
447.377	0
447.579	0
447.781	0.02
447.983	0.15
448.184	0.09
448.386	0.08
448.588	0.04
448.79	0.05
448.991	0.05
449.193	0.1
449.395	0.09
449.597	0.13
449.798	0.06
450	0.13
450.202	0.05
450.403	0.1
450.605	0.12
450.806	0.06
451.008	0.03
451.21	0.1
451.411	0.09
451.613	0.03
451.814	0.07
452.016	0.09
452.217	0.08
452.419	0.09
452.62	0.05
452.821	0.1
453.023	0.16
453.224	0.09
453.426	0.07
453.627	0.08
453.828	0.09
454.03	0.01
454.231	0.11
454.432	0.06
454.634	0.17
454.835	0.06
455.036	0.04
455.238	0.08
455.439	0.14
455.64	0.02
455.841	-0
456.042	0.19
456.244	0.06
456.445	0.02
456.646	0.01
456.847	0.01
457.048	0.16
457.249	0.07
457.45	0.19
457.651	-0.03
457.852	0.08
458.054	0.07
458.255	0.1
458.456	0.09
458.657	0.05
458.858	0.02
459.058	0.02
459.259	0.09
459.46	0.06
459.661	-0.01
459.862	0.17
460.063	0.02
460.264	0.13
460.465	0.02
460.666	0.12
460.866	0.01
461.067	0.04
461.268	0.06
461.469	0.01
461.67	0.05
461.87	0
462.071	0
462.272	-0.02
462.473	0.04
462.673	0.06
462.874	-0.03
463.075	0.04
463.275	-0.02
463.476	0.07
463.676	-0.03
463.877	0.09
464.078	0.03
464.278	0.06
464.479	-0
464.679	0.06
464.88	-0
465.08	0.09
465.281	0.01
465.481	0.02
465.682	0.03
465.882	0.07
466.083	0.04
466.283	0.04
466.483	0
466.684	0.01
466.884	0.02
467.085	0.04
467.285	0.03
467.485	-0.01
467.686	0.05
467.886	-0.05
468.086	0.02
468.286	0
468.487	0.04
468.687	0
468.887	0
469.087	0.03
469.287	0.01
469.488	-0.04
469.688	0.07
469.888	0.08
470.088	0.09
470.288	0.06
470.488	0.06
470.688	-0.01
470.888	-0.02
471.088	-0.02
471.288	0.06
471.488	0.07
471.688	0.05
471.888	-0.01
472.088	0.03
472.288	0.02
472.488	-0.02
472.688	-0.02
472.888	0
473.088	0.03
473.288	0.04
473.488	0.04
473.688	0.07
473.887	0.02
474.087	0.02
474.287	0.04
474.487	-0.07
474.687	0.04
474.886	-0.01
475.086	-0.03
475.286	0.03
475.486	-0.01
475.685	0.01
475.885	-0.03
476.085	-0.02
476.284	0.05
476.484	-0
476.684	0.03
476.883	0.08
477.083	0.02
477.282	-0.02
477.482	0.08
477.681	0.07
477.881	0.05
478.08	-0.01
478.28	-0.02
478.479	0.04
478.679	0.09
478.878	0.01
479.078	-0.02
479.277	0.02
479.477	-0
479.676	0.05
479.875	0.01
480.075	-0.05
480.274	0.03
480.473	0.04
480.673	-0.01
480.872	0.05
481.071	0
481.271	0.01
481.47	0.01
481.669	0
481.868	-0.04
482.067	-0
482.267	-0.03
482.466	-0.04
482.665	-0.01
482.864	-0.02
483.063	-0.04
483.262	0.04
483.461	0.06
483.661	0.06
483.86	0.02
484.059	0.03
484.258	0
484.457	0.02
484.656	0.02
484.855	0.02
485.054	-0.03
485.253	-0.02
485.452	-0.03
485.651	-0.01
485.849	0.02
486.048	-0.03
486.247	-0.01
486.446	-0.01
486.645	-0.01
486.844	-0.02
487.043	-0
487.241	0.01
487.44	-0.01
487.639	-0.01
487.838	0.02
488.037	0.03
488.235	0.07
488.434	0.01
488.633	-0.01
488.831	0.02
489.03	0.03
489.229	0.04
489.427	-0.01
489.626	0.03
489.825	0.05
490.023	-0
490.222	0.01
490.42	0.03
490.619	0.04
490.817	0.02
491.016	-0.02
491.214	0.04
491.413	-0.03
491.611	-0
491.81	0.03
492.008	0.04
492.207	0.02
492.405	0.01
492.604	-0.04
492.802	-0.02
493	0.01
493.199	-0.01
493.397	0.01
493.595	0.01
493.794	0.01
493.992	0.07
494.19	0.01
494.388	0.02
494.587	0.01
494.785	0.01
494.983	-0.03
495.181	0.01
495.379	0
495.578	0.01
495.776	0.02
495.974	0.01
496.172	-0
496.37	-0.01
496.568	-0.01
496.766	0
496.964	0.02
497.162	0.02
497.36	-0.03
497.558	0.03
497.756	0.02
497.954	0.01
498.152	-0.02
498.35	-0.01
498.548	0.01
498.746	0.03
498.944	-0.02
499.142	-0.02
499.34	-0.02
499.538	-0
499.736	-0.03
499.933	0.02
500.131	0.05
500.329	-0.01
500.527	0.04
500.725	0.02
500.922	0.01
501.12	0
501.318	-0
501.516	-0
501.713	0
501.911	0
502.109	-0.02
502.306	0.03
502.504	0.01
502.701	0.01
502.899	0
503.097	0.04
503.294	0.02
503.492	-0
503.689	-0
503.887	0.03
504.084	0.05
504.282	0.01
504.479	-0.01
504.677	0.02
504.874	-0.04
505.072	0.01
505.269	-0.01
505.466	0.03
505.664	0
505.861	-0.03
506.059	-0.01
506.256	0.03
506.453	-0
506.651	0.03
506.848	0.05
507.045	0.01
507.242	-0
507.44	-0.01
507.637	0
507.834	0.03
508.031	0.04
508.229	-0.02
508.426	0.03
508.623	0.02
508.82	-0
509.017	-0.01
509.214	0
509.411	0
509.608	-0.01
509.805	-0.01
510.003	-0.01
510.2	-0.02
510.397	0.01
510.594	-0.01
510.791	-0.01
510.988	-0.01
511.184	0.04
511.381	0
511.578	-0.02
511.775	0.04
511.972	-0.01
512.169	0
512.366	0.01
512.563	0.02
512.76	-0.01
512.956	0
513.153	-0.02
513.35	0.02
513.547	-0
513.744	-0
513.94	-0.02
514.137	0.03
514.334	0.02
514.53	0.01
514.727	0
514.924	0.03
515.12	-0.01
515.317	-0.02
515.514	-0.02
515.71	-0.02
515.907	-0.01
516.103	-0
516.3	0.02
516.497	0.02
516.693	0.03
516.89	-0
517.086	-0.02
517.283	0.06
517.479	0
517.676	-0.01
517.872	0
518.068	-0.02
518.265	-0.01
518.461	-0
518.658	-0.02
518.854	0.02
519.05	-0
519.247	-0.01
519.443	0.03
519.639	-0
519.836	-0
520.032	0.01
520.228	0.01
520.424	0.03
520.621	0.02
520.817	-0.01
521.013	0.01
521.209	0.01
521.405	0.05
521.601	-0.01
521.798	-0
521.994	0.03
522.19	-0
522.386	-0.03
522.582	0
522.778	0.01
522.974	-0
523.17	0.01
523.366	-0
523.562	0.01
523.758	0.02
523.954	-0.02
524.15	-0.01
524.346	0.01
524.542	-0.04
524.738	0.02
524.934	0.01
525.129	-0.02
525.325	-0.01
525.521	-0.01
525.717	-0
525.913	-0.02
526.109	-0.01
526.304	0.01
526.5	0
526.696	0.01
526.892	-0.01
527.087	0
527.283	-0.01
527.479	0
527.674	-0
527.87	0
528.066	-0
528.261	0.01
528.457	0
528.653	-0
528.848	-0.02
529.044	0.01
529.239	-0.01
529.435	0.03
529.63	0
529.826	0.06
530.021	0.01
530.217	-0.01
530.412	-0.01
530.608	-0
530.803	0.02
530.999	-0.01
531.194	-0.02
531.389	-0
531.585	-0.02
531.78	-0.01
531.975	0.01
532.171	0.02
532.366	-0.02
532.561	-0.01
532.757	-0.02
532.952	-0
533.147	0.01
533.342	-0.02
533.538	-0.02
533.733	0.04
533.928	0.01
534.123	0.01
534.318	-0.02
534.513	0
534.709	0.01
534.904	-0.03
535.099	-0.02
535.294	-0
535.489	-0
535.684	0
535.879	-0.02
536.074	0.02
536.269	-0.02
536.464	0
536.659	-0.01
536.854	-0.01
537.049	0.03
537.244	0.02
537.439	-0.01
537.634	0.03
537.828	0.02
538.023	0
538.218	-0.04
538.413	0.03
538.608	-0.02
538.803	0.02
538.997	-0.02
539.192	0.03
539.387	0.04
539.582	0.01
539.776	-0
539.971	-0.03
540.166	-0.01
540.36	-0.01
540.555	0
540.75	-0
540.944	0.02
541.139	-0.03
541.334	-0.01
541.528	0.01
541.723	0.02
541.917	0
542.112	-0.03
542.306	-0.01
542.501	-0.01
542.695	0.02
542.89	-0
543.084	-0.01
543.279	-0.02
543.473	0.02
543.668	0.01
543.862	-0.01
544.056	0.01
544.251	0.02
544.445	0
544.64	-0.01
544.834	-0.03
545.028	0.01
545.222	0
545.417	0.01
545.611	0.02
545.805	0.01
546	0.01
546.194	-0.01
546.388	-0.01
546.582	0.01
546.776	-0
546.97	-0
547.165	0.01
547.359	0.04
547.553	-0.02
547.747	-0
547.941	-0
548.135	0.03
548.329	-0.01
548.523	0.02
548.717	-0
548.911	-0.01
549.105	-0
549.299	0.01
549.493	0.03
549.687	0.01
549.881	-0
550.075	-0.01
550.269	-0.02
550.463	0.03
550.657	-0.01
550.85	-0.01
551.044	-0.04
551.238	0.01
551.432	-0.02
551.626	-0.02
551.82	0
552.013	-0.01
552.207	-0
552.401	0.01
552.594	0.03
552.788	0
552.982	0
553.176	-0.01
553.369	0.02
553.563	0.03
553.756	-0.04
553.95	-0.02
554.144	0.01
554.337	0.03
554.531	-0.01
554.724	-0
554.918	-0
555.111	0.02
555.305	0.01
555.498	0.05
555.692	0.03
555.885	-0.02
556.079	-0.01
556.272	-0.03
556.466	0.03
556.659	0.01
556.852	-0
557.046	-0.01
557.239	0.03
557.432	-0.03
557.626	0
557.819	0.02
558.012	0.03
558.206	0
558.399	-0
558.592	0
558.785	-0.01
558.979	-0.01
559.172	0.01
559.365	0.01
559.558	0.01
559.751	0.02
559.944	-0.01
560.138	-0
560.331	-0.02
560.524	0
560.717	-0.01
560.91	0.02
561.103	0.01
561.296	0
561.489	0
561.682	0.01
561.875	0.02
562.068	0.01
562.261	-0.01
562.454	0.03
562.647	0.01
562.84	0.01
563.032	-0.02
563.225	0
563.418	0.01
563.611	0
563.804	-0
563.997	-0.02
564.19	-0.03
564.382	0.03
564.575	-0.03
564.768	0.01
564.961	0.01
565.153	-0
565.346	0.04
565.539	0.04
565.731	0.01
565.924	0.04
566.117	0.04
566.309	-0.02
566.502	-0.04
566.695	-0.01
566.887	0.01
567.08	-0.01
567.272	0
567.465	-0.03
567.657	0.01
567.85	0.02
568.042	0.03
568.235	0.03
568.427	0.02
568.62	0
568.812	0.03
569.005	-0.01
569.197	-0.04
569.389	-0
569.582	0.01
569.774	0
569.966	-0.03
570.159	-0.04
570.351	0
570.543	0.01
570.736	0
570.928	-0.04
571.12	0.01
571.312	-0.01
571.505	-0.02
571.697	0.03
571.889	-0.03
572.081	-0.01
572.273	-0.01
572.465	0.03
572.658	-0.01
572.85	0
573.042	-0.01
573.234	-0
573.426	0.02
573.618	-0.03
573.81	-0.01
574.002	0.02
574.194	0.04
574.386	-0.04
574.578	-0.06
574.77	-0.03
574.962	0
575.154	-0.05
575.346	-0.02
575.538	0.01
575.729	-0.02
575.921	-0.01
576.113	-0.01
576.305	0.04
576.497	-0.02
576.689	0
576.88	-0.04
577.072	0.02
577.264	0
577.456	-0.01
577.647	-0.05
577.839	0.01
578.031	0.02
578.223	-0.03
578.414	-0.04
578.606	0.03
578.798	0.01
578.989	-0.01
579.181	-0.01
579.372	-0.01
579.564	-0.01
579.755	-0.02
579.947	0.01
580.139	0.01
580.33	-0.04
580.522	-0.03
580.713	-0.06
580.905	-0.01
581.096	0
581.287	-0.02
581.479	0.01
581.67	0.01
581.862	0.02
582.053	-0.01
582.244	-0.03
582.436	0
582.627	-0.01
582.818	-0.03
583.01	-0.05
583.201	0.02
583.392	0.03
583.583	0.01
583.775	-0.02
583.966	-0
584.157	-0.01
584.348	-0.01
584.54	-0.04
584.731	0.02
584.922	-0.02
585.113	-0.02
585.304	0.02
585.495	0.03
585.686	-0.01
585.877	0.01
586.068	0
586.259	0.01
586.45	0.02
586.641	-0
586.832	-0.06
587.023	0.02
587.214	-0.01
587.405	-0.01
587.596	-0.02
587.787	0.05
587.978	0.01
588.169	0.01
588.36	-0.02
588.551	-0.01
588.742	-0.04
588.932	0.01
589.123	0
589.314	0.03
589.505	0.02
589.696	-0
589.886	-0.02
590.077	-0.03
590.268	-0.01
590.458	-0.05
590.649	-0.04
590.84	0.04
591.03	-0.01
591.221	-0.02
591.412	-0.03
591.602	-0
591.793	0.02
591.984	-0.01
592.174	-0
592.365	0.05
592.555	-0.03
592.746	0.02
592.936	0.02
593.127	0.01
593.317	0.01
593.508	-0.02
593.698	-0.02
593.889	-0.01
594.079	-0.02
594.269	-0.02
594.46	-0.01
594.65	0.01
594.84	-0.01
595.031	-0.04
595.221	-0.01
595.411	-0.07
595.602	0.03
595.792	-0.01
595.982	0
596.172	0.05
596.363	0.01
596.553	0.01
596.743	0.01
596.933	-0
597.123	0.02
597.314	-0.04
597.504	-0.03
597.694	0.01
597.884	-0.03
598.074	-0.02
598.264	-0.02
598.454	0.01
598.644	0
598.834	-0.01
599.024	-0.09
599.214	-0.02
599.404	0.02
599.594	-0.02
599.784	-0.03
599.974	0.02
600.164	0.03
600.354	-0.04
600.544	-0.03
600.734	0.02
600.924	0.04
601.114	-0.02
601.303	-0.02
601.493	0.01
601.683	-0.02
601.873	-0.01
602.063	-0.03
602.252	0.03
602.442	-0.05
602.632	-0.05
602.821	-0.05
603.011	0.02
603.201	0.01
603.39	-0.01
603.58	-0.02
603.77	0.01
603.959	0.02
604.149	0.01
604.339	-0
604.528	0.02
604.718	0.01
604.907	0.01
605.097	-0.02
605.286	-0.05
605.476	0.03
605.665	0.02
605.855	-0.03
606.044	0.01
606.234	0.02
606.423	-0.03
606.612	-0.02
606.802	-0
606.991	0.02
607.181	0.03
607.37	-0.05
607.559	0
607.749	-0.03
607.938	0.02
608.127	-0.01
608.316	-0.03
608.506	0.02
608.695	0
608.884	-0.02
609.073	0
609.263	0.03
609.452	0.03
609.641	0.02
609.83	-0.04
610.019	-0.01
610.208	-0.01
610.397	0
610.586	0
610.775	-0.04
610.965	-0.02
611.154	-0.02
611.343	0.01
611.532	0.02
611.721	-0.03
611.91	-0.01
612.099	0.04
612.287	-0.03
612.476	-0.04
612.665	0.04
612.854	0
613.043	0.04
613.232	-0.03
613.421	-0.05
613.61	-0
613.798	-0.03
613.987	0.03
614.176	-0
614.365	0.03
614.554	-0
614.742	0.04
614.931	0
615.12	-0.01
615.309	-0.01
615.497	0.01
615.686	-0.04
615.875	0.02
616.063	-0.01
616.252	-0.02
616.44	-0.01
616.629	-0.01
616.818	0
617.006	-0.01
617.195	0
617.383	0.03
617.572	-0.02
617.76	-0
617.949	0.01
618.137	-0.02
618.326	-0
618.514	-0.05
618.703	-0.03
618.891	0.05
619.079	-0.05
619.268	0.02
619.456	-0
619.644	0.04
619.833	-0.01
620.021	-0.02
620.209	-0.04
620.398	-0.01
620.586	0.01
620.774	0.01
620.962	-0.01
621.151	0.03
621.339	0.01
621.527	-0.03
621.715	-0.04
621.903	-0.03
622.092	-0.04
622.28	0.03
622.468	0.02
622.656	-0.03
622.844	0.04
623.032	-0.03
623.22	-0.05
623.408	0.02
623.596	0.01
623.784	0.03
623.972	-0.01
624.16	-0.03
624.348	0.02
624.536	-0.02
624.724	-0.02
624.912	0.03
625.1	-0.01
625.288	-0.04
625.476	-0.03
625.664	0.03
625.851	-0.04
626.039	0.01
626.227	0.01
626.415	-0.04
626.603	-0.05
626.79	0.01
626.978	-0.02
627.166	0
627.354	0
627.541	-0.01
627.729	-0.06
627.917	0.01
628.104	0.05
628.292	-0.01
628.48	-0.03
628.667	-0.01
628.855	0
629.042	0.04
629.23	-0
629.418	-0
629.605	0
629.793	-0.02
629.98	-0.01
630.168	-0.01
630.355	-0.02
630.543	-0.02
630.73	-0.04
630.917	-0.01
631.105	0.05
631.292	-0.02
631.48	-0
631.667	0.07
631.854	0.03
632.042	-0.01
632.229	-0.04
632.416	-0
632.604	-0.02
632.791	-0.04
632.978	0.02
633.165	0.01
633.353	0.04
633.54	0.04
633.727	-0.06
633.914	-0.01
634.101	-0.06
634.289	0.04
634.476	0.02
634.663	-0.02
634.85	0.02
635.037	-0.04
635.224	-0.04
635.411	0.02
635.598	0.04
635.785	0
635.972	0.04
636.159	0.05
636.346	-0.03
636.533	0.01
636.72	0
636.907	0.01
637.094	0.04
637.281	-0.02
637.468	0.05
637.655	0.02
637.842	0.03
638.029	-0.01
638.215	0.04
638.402	0.01
638.589	-0.03
638.776	0.02
638.963	0.01
639.149	0.05
639.336	0.08
639.523	0.02
639.709	0.01
639.896	0.02
640.083	0.08
640.27	0.04
640.456	0.03
640.643	0.06
640.829	-0.03
641.016	0.02
641.203	-0.02
641.389	0.05
641.576	0.03
641.762	0.02
641.949	-0.02
642.135	0.05
642.322	0.06
642.508	0
642.695	0.04
642.881	0.01
643.068	0.01
643.254	0.03
643.441	0.06
643.627	0.02
643.813	-0.01
644	0.07
644.186	-0.02
644.372	0.01
644.559	0.05
644.745	0.05
644.931	0.03
645.118	0.04
645.304	0.05
645.49	0.01
645.676	0.04
645.862	0.03
646.049	0.06
646.235	0
646.421	0.12
646.607	0.1
646.793	0.02
646.979	0.02
647.165	0.04
647.352	0.05
647.538	0.08
647.724	0.04
647.91	0.07
648.096	0.06
648.282	0.05
648.468	0.02
648.654	0.04
648.84	0.05
649.026	0.04
649.212	0.05
649.397	0.02
649.583	-0.01
649.769	0.06
649.955	0.05
650.141	0.08
650.327	0.11
650.513	-0
650.698	0.09
650.884	0.01
651.07	0.08
651.256	0.05
651.442	0.08
651.627	0.05
651.813	0.08
651.999	0.06
652.184	0.08
652.37	0.08
652.556	0.02
652.741	0.07
652.927	0.01
653.113	0.07
653.298	0.08
653.484	0.07
653.669	-0.02
653.855	0.07
654.04	0.08
654.226	0.08
654.412	0.08
654.597	0.03
654.782	0.07
654.968	0.12
655.153	0.11
655.339	0.08
655.524	0.05
655.71	0.12
655.895	0.07
656.08	0.06
656.266	0.14
656.451	0.13
656.636	0.06
656.822	0.09
657.007	0.08
657.192	0.1
657.378	0.09
657.563	0.12
657.748	0.1
657.933	0.13
658.118	0.09
658.304	0.05
658.489	0.11
658.674	0.09
658.859	0.08
659.044	0.09
659.229	0.06
659.414	0.08
659.599	0.09
659.785	0.04
659.97	0.1
660.155	0.12
660.34	0.07
660.525	0.1
660.71	0.07
660.895	0.12
661.08	0.04
661.264	0.07
661.449	0.13
661.634	0.13
661.819	0.11
662.004	0.08
662.189	0.02
662.374	0.07
662.559	0.04
662.743	0.03
662.928	0.06
663.113	0.06
663.298	0.01
663.483	0.05
663.667	0.06
663.852	0.01
664.037	0.11
664.221	0.04
664.406	0.09
664.591	0.08
664.775	0.04
664.96	0.04
665.145	0.02
665.329	0.09
665.514	0.01
665.698	0.04
665.883	-0.03
666.068	0.1
666.252	0.05
666.437	-0
666.621	0.02
666.806	0.07
666.99	0
667.174	-0.03
667.359	0.07
667.543	-0.01
667.728	0.03
667.912	-0.02
668.096	0.05
668.281	0.01
668.465	-0
668.649	-0.01
668.834	0
669.018	0.03
669.202	-0.03
669.387	0
669.571	0.07
669.755	-0.01
669.939	-0.02
670.124	0.02
670.308	0.07
670.492	0.03
670.676	0
670.86	-0
671.044	-0.04
671.228	0.03
671.413	-0.02
671.597	-0.04
671.781	-0.01
671.965	0.01
672.149	-0
672.333	-0.02
672.517	-0.01
672.701	0
672.885	-0.01
673.069	-0.03
673.253	0.05
673.437	0.01
673.621	-0.05
673.804	0
673.988	-0.01
674.172	0.01
674.356	-0.04
674.54	-0.04
674.724	0.07
674.908	-0.02
675.091	0.04
675.275	-0.02
675.459	0.04
675.643	0.03
675.826	0
676.01	-0.01
676.194	0.03
676.377	0.05
676.561	-0.01
676.745	-0.03
676.928	0.02
677.112	0.05
677.296	-0.04
677.479	-0
677.663	-0.03
677.846	0.04
678.03	-0.03
678.213	0
678.397	0.03
678.58	-0.05
678.764	-0.04
678.947	-0.03
679.131	-0.02
679.314	0.03
679.498	-0.02
679.681	-0.01
679.865	0.05
680.048	0.01
680.231	-0.02
680.415	-0.04
680.598	-0.01
680.781	-0.03
680.965	-0.01
681.148	0.02
681.331	0
681.514	-0.02
681.698	-0.03
681.881	0.02
682.064	-0.01
682.247	-0.01
682.43	-0.06
682.614	-0.01
682.797	0.02
682.98	-0
683.163	-0.04
683.346	0.07
683.529	-0.03
683.712	-0.05
683.895	0.03
684.078	-0.07
684.261	-0.04
684.444	-0.01
684.627	0.01
684.81	-0.04
684.993	-0.03
685.176	0.01
685.359	-0.07
685.542	-0.03
685.725	0.05
685.908	-0.02
686.091	-0
686.274	0.02
686.457	0.02
686.639	-0
686.822	-0
687.005	-0.02
687.188	0.01
687.371	0.02
687.553	-0
687.736	0.01
687.919	0.05
688.102	0.02
688.284	-0.07
688.467	0.05
688.65	-0.02
688.832	-0.01
689.015	-0.01
689.197	-0.06
689.38	0.11
689.563	0.05
689.745	-0
689.928	-0.01
690.11	-0
690.293	-0.03
690.475	-0.06
690.658	-0.01
690.84	-0.06
691.023	0.01
691.205	-0.05
691.388	0.06
691.57	0.04
691.752	0.03
691.935	-0.07
692.117	-0.04
692.3	0.03
692.482	-0
692.664	0.02
692.847	-0.01
693.029	0.03
693.211	0
693.393	0
693.576	0.01
693.758	-0.05
693.94	-0.04
694.122	-0.02
694.304	-0.03
694.487	-0.04
694.669	0.05
694.851	-0.07
695.033	-0.02
695.215	-0.06
695.397	-0.05
695.579	-0.02
695.761	-0.03
695.943	-0.09
696.125	0.09
696.308	0.03
696.49	-0.13
696.671	0.07
696.853	0.02
697.035	0.05
697.217	-0.01
697.399	0
697.581	-0.03
697.763	-0.05
697.945	-0.03
698.127	0.01
698.309	0.04
698.491	-0.02
698.672	0.01
698.854	0.06
699.036	-0
699.218	-0.01
699.399	0.04
699.581	0.02
699.763	0.03
699.945	-0.07
700.126	-0.11
700.308	0
700.49	-0.03
700.671	-0.08
700.853	0.02
701.035	-0.1
701.216	-0.04
701.398	0
701.579	-0.05
701.761	0.09
701.943	-0.05
702.124	-0.04
702.306	0.02
702.487	0.08
702.669	-0.04
702.85	0
703.031	-0.01
703.213	0.09
703.394	0.09
703.576	-0.04
703.757	0.04
703.938	-0
704.12	0.13
704.301	0.04
704.483	-0
704.664	-0.01
704.845	0.11
705.026	0.03
705.208	-0.02
705.389	0.03
705.57	0.04
705.751	-0.01
705.933	0
706.114	0.05
706.295	-0.04
706.476	-0.09
706.657	0.08
706.838	0.02
707.02	0.02
707.201	-0.06
707.382	-0.06
707.563	-0.06
707.744	-0.02
707.925	-0
708.106	-0.05
708.287	0
708.468	0.07
708.649	-0.06
708.83	-0
709.011	0
709.192	0.07
709.373	-0.11
709.554	0
709.734	0.09
709.915	0.02
710.096	-0.05
710.277	-0.02
710.458	-0.03
710.639	0.07
710.819	-0.09
711	0.03
711.181	0.06
711.362	0.11
711.542	0.03
711.723	0.01
711.904	0.06
712.085	0.04
712.265	0.03
712.446	-0.07
712.627	0
712.807	0.1
712.988	-0.04
713.168	-0.06
713.349	0.01
713.53	-0.07
713.71	-0.01
713.891	-0.08
714.071	0.04
714.252	-0.01
714.432	0.06
714.613	-0.07
714.793	-0.03
714.974	0.05
715.154	0.06
715.334	0.06
715.515	0.05
715.695	-0.07
715.876	0.01
716.056	0.04
716.236	0.02
716.417	0.03
716.597	0.06
716.777	0.12
716.957	0.02
717.138	-0.01
717.318	0.01
717.498	-0.04
717.678	0.03
717.859	0.03
718.039	-0.09
718.219	0.01
718.399	0.07
718.579	-0.08
718.759	-0.04
718.939	0.1
719.12	0.03
719.3	0.08
719.48	-0.05
719.66	-0.08
719.84	0.09
720.02	0.02
720.2	0
720.38	0.1
720.56	0.08
720.74	0.02
720.92	-0
721.1	0.06
721.279	0.12
721.459	0.01
721.639	-0.11
721.819	0.09
721.999	-0.02
722.179	0.1
722.359	-0.04
722.538	0.04
722.718	0.04
722.898	0.04
723.078	-0.03
723.257	-0.04
723.437	0.04
723.617	0
723.797	-0.05
723.976	-0.04
724.156	0.05
724.336	0.09
724.515	0.18
724.695	-0.07
724.874	0.04
725.054	0.06
725.234	-0.04
725.413	0.06
725.593	-0.02
725.772	0.02
725.952	0.05
726.131	0.03
726.311	-0.03
726.49	0.01
726.67	-0.04
726.849	0
727.028	0.06
727.208	-0.08
727.387	0.15
727.567	-0.11
727.746	0.03
727.925	0.11
728.105	0.04
728.284	-0.11
728.463	-0.04
728.643	0.11
728.822	0.03
729.001	-0.01
729.18	0.08
729.359	0.13
729.539	0.04
729.718	0.01
729.897	0.18
730.076	-0.02
730.255	-0.08
730.434	0.11
730.614	0.11
730.793	0.11
730.972	0.04
731.151	0.14
731.33	0.1
731.509	0.11
731.688	0.07
731.867	0.02
732.046	-0.1
732.225	0.29
732.404	-0.04
732.583	-0.04
732.762	0.04
732.941	0.14
733.12	0.1
733.298	-0.01
733.477	0.17
733.656	0.08
733.835	-0.05
734.014	0.17
734.193	0.02
734.371	0.14
734.55	0.07
734.729	0.06
734.908	0.09
735.086	0.06
735.265	0
735.444	-0.09
735.623	0.03
735.801	-0.09
735.98	0.06
736.159	0.05
736.337	0.11
736.516	0.15
736.694	0.1
736.873	-0.07
737.052	0.1
737.23	0.15
737.409	-0
737.587	0.21
737.766	-0.03
737.944	0.03
738.123	0.18
738.301	0.11
738.479	0.07
738.658	0.11
738.836	-0.06
739.015	0.16
739.193	0.17
739.371	-0.05
739.55	0.06
739.728	-0.05
739.906	0.11
740.085	0.21
740.263	0.14
740.441	-0.06
740.62	0.22
740.798	0.18
740.976	-0.02
741.154	-0.1
741.332	0.34
741.511	-0.02
741.689	0.13
741.867	0.15
742.045	0.06
742.223	0.04
742.401	0.03
742.579	0
742.757	0.08
742.935	-0.01
743.114	0.01
743.292	0.03
743.47	0.04
743.648	0.12
743.826	-0.19
744.004	0.11
744.181	0.14
744.359	0.01
744.537	0.1
744.715	0.07
744.893	0.1
745.071	0.04
745.249	-0.12
745.427	0
745.605	0.12
745.782	-0.04
745.96	0.07
746.138	-0.02
746.316	0.13
746.493	-0.01
746.671	0.01
746.849	0.12
747.027	0.2
747.204	-0.05
747.382	0.05
747.56	-0.15
747.737	0.01
747.915	-0.03
748.093	0.06
748.27	-0.03
748.448	-0.06
748.625	-0.13
748.803	-0.07
748.98	-0.08
749.158	0.04
749.335	0.07
749.513	-0.03
749.69	-0.05
749.868	0.01
750.045	0
750.223	0
750.4	-0.18
750.578	0.13
750.755	-0.01
750.932	-0.14
751.11	0.15
751.287	-0.19
751.464	0.14
751.642	-0.09
751.819	0.06
751.996	0.01
752.173	-0.05
752.351	-0.11
752.528	-0.06
752.705	-0.06
752.882	-0.06
753.06	0.04
753.237	0.01
753.414	0.07
753.591	0.12
753.768	0.04
753.945	-0.14
754.122	-0.05
754.299	0.04
754.476	-0.07
754.654	-0.06
754.831	0.02
755.008	-0.04
755.185	-0.12
755.362	-0.04
755.539	0.09
755.716	-0.14
755.892	-0.11
756.069	-0.05
756.246	-0.02
756.423	-0.11
756.6	0.19
756.777	-0.01
756.954	0.13
757.131	-0.04
757.307	-0.11
757.484	-0.09
757.661	0.02
757.838	0.05
758.015	-0.06
758.191	0.08
758.368	0.04
758.545	0.09
758.721	0.01
758.898	-0.07
759.075	-0.01
759.251	0.11
759.428	-0.04
759.605	-0.18
759.781	-0.15
759.958	0.07
760.134	0.04
760.311	-0.02
760.488	0.01
760.664	0.04
760.841	-0.11
761.017	-0.07
761.194	0.13
761.37	0.14
761.547	-0.07
761.723	-0.03
761.899	0.11
762.076	-0.14
762.252	-0.18
762.429	-0.03
762.605	0.02
762.781	-0.07
762.958	0.14
763.134	-0
763.31	-0.04
763.486	0.1
763.663	-0.15
763.839	0.02
764.015	-0.25
764.191	-0.08
764.368	-0.07
764.544	-0.06
764.72	0.06
764.896	0.04
765.072	0.05
765.248	-0.04
765.425	0.03
765.601	-0.07
765.777	-0.04
765.953	-0.26
766.129	-0.01
766.305	-0.06
766.481	0.05
766.657	-0.08
766.833	0.21
767.009	-0.13
767.185	-0.09
767.361	-0.02
767.537	-0.14
767.713	0.15
767.889	-0.14
768.065	-0.06
768.24	-0.26
768.416	0.09
768.592	-0.01
768.768	-0.01
768.944	-0.03
769.12	-0.13
769.295	-0.14
769.471	-0.04
769.647	-0.05
769.823	0.18
769.998	-0.08
770.174	-0.14
770.35	0.29
770.525	0.14
770.701	0.04
770.877	-0.1
771.052	-0.02
771.228	0.12
771.403	0.02
771.579	0.09
771.755	0.16
771.93	-0.13
772.106	-0.16
772.281	-0.19
772.457	0.11
772.632	0.01
772.808	-0.21
772.983	-0.03
773.159	-0.24
773.334	0.15
773.509	-0
773.685	-0.09
773.86	0.36
774.036	0.08
774.211	0.02
774.386	-0.1
774.562	0.04
774.737	0.03
774.912	-0.13
775.087	0.02
775.263	-0.06
775.438	-0.03
775.613	-0.08
775.788	-0.06
775.964	0.08
776.139	0.28
776.314	-0.21
776.489	0.14
776.664	0.18
776.839	-0.19
777.014	0.06
777.19	-0.02
777.365	0.3
777.54	0.29
777.715	-0.05
777.89	0.03
778.065	-0.12
778.24	-0.13
778.415	0.05
778.59	-0.18
778.765	-0.17
778.94	-0.06
779.115	-0.13
779.289	-0.03
779.464	-0.09
779.639	-0.08
779.814	-0.29
779.989	-0.14
780.164	0.03
780.339	-0.04
780.513	-0.22
780.688	-0.12
780.863	-0.21
781.038	0.12
781.212	-0.2
781.387	0.09
781.562	0.21
781.737	0.09
781.911	0.05
782.086	-0.05
782.261	0.04
782.435	0.12
782.61	-0.07
782.784	-0.04
782.959	0.27
783.134	-0.19
783.308	-0.21
783.483	-0.08
783.657	0.13
783.832	0.14
784.006	-0.26
784.181	-0.09
784.355	0.15
784.53	0.01
784.704	0.04
784.878	0.25
785.053	0.11
785.227	0.22
785.402	0.22
785.576	-0.08
785.75	0.02
785.925	-0.15
786.099	-0.09
786.273	-0.14
786.448	0.05
786.622	0.09
786.796	-0.05
786.97	-0.35
787.145	0.32
787.319	-0.3
787.493	-0.05
787.667	-0.31
787.841	-0.1
788.015	0.24
788.19	0.07
788.364	0.01
788.538	-0.04
788.712	0.08
788.886	0.12
789.06	0.27
789.234	0.26
789.408	-0.38
789.582	-0.05
789.756	-0.09
789.93	-0.29
790.104	-0.22
790.278	-0.19
790.452	-0.16
790.626	0.04
790.8	-0.01
790.973	0.01
791.147	0.13
791.321	-0.01
791.495	0.06
791.669	0.11
791.843	0.22
792.016	0.18
792.19	0.29
792.364	-0.17
792.538	0.35
792.711	0.23
792.885	-0.14
793.059	-0.15
793.233	-0.47
793.406	-0.03
793.58	-0.22
793.754	0.04
793.927	-0.04
794.101	0.27
794.274	0.21
794.448	0.08
794.622	-0.23
794.795	0.17
794.969	-0.22
795.142	0.43
795.316	-0.04
795.489	-0.22
795.663	0.19
795.836	-0.03
796.009	-0.15
796.183	0.38
796.356	0.28
796.53	0.05
796.703	0.1
796.876	0.41
797.05	-0.13
797.223	-0.05
797.396	0.26
797.57	-0.09
797.743	0.05
797.916	-0.11
798.09	-0.07
798.263	0.3
798.436	0.13
798.609	0.02
798.782	-0.1
798.956	0.16
799.129	-0.1
799.302	0.02
799.475	-0.26
799.648	-0.26
799.821	-0.29
799.994	0.08
800.167	-0.39
800.34	0.06
800.514	0.19
800.687	-0.08
800.86	-0.1
801.033	-0.25
801.206	-0.08
801.379	-0.31
801.551	0.12
801.724	0.28
801.897	0.12
802.07	-0.12
802.243	-0.35
802.416	-0.02
802.589	-0.43
802.762	0.18
802.935	0.15
803.107	0.07
803.28	0.11
803.453	0.12
803.626	-0.4
803.798	-0.11
803.971	-0.36
804.144	0.07
804.317	0.24
804.489	0.13
804.662	-0.17
804.835	0.31
805.007	-0.39
805.18	0.25
805.353	0
805.525	-0.36
805.698	-0.16
805.87	0.3
806.043	0.3
806.215	-0.18
806.388	-0.4
806.56	0.11
806.733	0.35
806.905	-0.21
807.078	-0.18
807.25	-0.04
807.423	-0.06
807.595	-0.29
807.768	-0.06
807.94	0.23
808.112	0.2
808.285	-0.1
808.457	0.04
808.629	-0.28
808.802	0.15
808.974	-0.03
809.146	-0.07
809.318	-0.37
809.491	-0.03
809.663	0.35
809.835	-0.25
810.007	0.45
810.18	0.17
810.352	-0.49
810.524	-0.04
810.696	0.04
810.868	0.01
811.04	-0.17
811.212	-0.03
811.384	0.11
811.556	-0.32
811.728	0.01
811.901	0.54
812.073	-0.23
812.245	0.26
812.417	-0.19
812.589	-0.58
812.76	-0.15
812.932	-0.06
813.104	0.01
813.276	-0.25
813.448	0.19
813.62	-0.04
813.792	0.07
813.964	-0.1
814.136	-0.16
814.307	-0.19
814.479	-0.2
814.651	0.24
814.823	0.55
814.995	-0.11
815.166	0.01
815.338	-0.37
815.51	-0.3
815.681	0.44
815.853	0
816.025	-0.32
816.196	0.27
816.368	0.11
816.54	-0.4
816.711	-0.59
816.883	-0.41
817.054	0.53
817.226	-0.61
817.398	0.34
817.569	-0.12
817.741	-0.05
817.912	-0.08
818.084	-0.05
818.255	-0.14
818.426	-0.37
818.598	-0.13
818.769	-0.38
818.941	0.24
819.112	0.2
819.283	0.3
819.455	-0.56
819.626	0.09
819.798	-0.23
819.969	-0.08
820.14	-0.03
820.311	-0.38
820.483	0.27
820.654	0.22
820.825	-0.24
820.996	-0.18
821.168	-0.08
821.339	-0.2
821.51	-0.18
821.681	-0.4
821.852	0.27
822.023	-0.3
822.195	-0.56
822.366	0.46
822.537	-0.45
822.708	0.14
822.879	-0.23
823.05	0.66
823.221	-0.21
823.392	0.3
823.563	-0.2
823.734	-0.28
823.905	-0.05
824.076	-0.73
824.247	-0.67
824.418	-0.27
824.589	0.55
824.759	-0.18
824.93	0.03
825.101	-0.23
825.272	-0.22
825.443	0.21
825.614	0.52
825.784	-1.21
825.955	0.61
826.126	0.49
826.297	0.02
826.467	0.3
826.638	0.71
826.809	-1.13
826.98	-0.33
827.15	-0.03
827.321	-0.08
827.492	0.21
827.662	0.16
827.833	0.65
828.003	-0.67
828.174	-0.43
828.345	-0.67
828.515	0.62
828.686	0.15
828.856	-0
829.027	-0.2
829.197	0.02
829.368	0.33
829.538	-0.45
829.709	-0.12
829.879	0.57
830.049	0.18
830.22	-0.65
830.39	0.03
830.56	0.22
830.731	0.3
830.901	-0.43
831.072	-0.19
831.242	-0.38
831.412	0.25
831.582	-0.23
831.753	-0.72
831.923	0.4
832.093	-0.52
832.263	-0.09
832.434	-0.54
832.604	-0.27
832.774	0.33
832.944	-0.17
833.114	-0.28
833.284	0.37
833.454	-0.37
833.624	-0.46
833.795	-0.42
833.965	0.04
834.135	0.18
834.305	-0.62
834.475	-0.79
834.645	0.04
834.815	-0.19
834.985	-0.69
835.155	-0.56
835.325	0.3
835.494	0.1
835.664	-0.37
835.834	-0.76
836.004	-0.17
836.174	-0.28
836.344	-0.1
836.514	-1.14
836.684	0.3
836.853	-0.11
837.023	-0.16
837.193	-0.3
837.363	0.44
837.532	0.12
837.702	0.07
837.872	-1.17
838.041	0.65
838.211	0.69
838.381	-1.07
838.55	0.04
838.72	1.23
838.89	1.06
839.059	0.21
839.229	-0.49
839.398	1.05
839.568	-0.35
839.738	0.22
839.907	0.39
840.077	-0.05
840.246	-0.8
840.416	-0.28
840.585	-1.05
840.755	1.17
840.924	1.2
841.093	-0.96
841.263	-0.46
841.432	-0.12
841.602	-1.43
841.771	-0.39
841.94	-0.32
842.11	0.82
842.279	0.97
842.448	-1.49
842.617	-0.39
842.787	0.57
842.956	-1.01
843.125	-0.47
843.294	0.17
843.464	0.22
843.633	0.05
843.802	-1.15
843.971	-0.64
844.14	1.19
844.309	0.62
844.479	-0.68
844.648	-1.25
844.817	-0.37
844.986	-0.07
845.155	-0.55
845.324	-0.9
845.493	0.16
845.662	-0.84
845.831	0.28
846	0.54
846.169	-0.06
846.338	1.14
846.507	0.49
846.676	0.37
846.844	-0.81
847.013	-0.12
847.182	-0.59
847.351	-1.05
847.52	-0.03
847.689	0.6
847.858	-0.18
848.026	-0.25
848.195	-0.12
848.364	-0.62
848.533	-0.13
848.701	-0.05
848.87	-1.19
849.039	0.25
849.207	1.15
849.376	0.68
849.545	0.76
849.713	-0.99
849.882	-0.27
850.051	0.27
850.219	0.04
850.388	-0.23
850.556	-1.31
850.725	-0.77
850.893	0.04
851.062	-0.7
851.23	0.95
851.399	-0.84
851.567	-1.72
851.736	0.5
851.904	-0.93
852.073	0.2
852.241	0.32
852.41	0.36
852.578	0.02
852.746	-0.21
852.915	0.25
853.083	-0.36
853.251	-0.21
853.42	0.63
853.588	0.3
853.756	1.15
853.924	0.07
854.093	-0.66
854.261	-0.01
854.429	-1.6
854.597	0.26
854.765	-0.68
854.934	-0.47
855.102	1.56
855.27	0.49
855.438	-0
855.606	0.96
855.774	0.46
855.942	-1.9
856.11	-1.7
856.278	-1.25
856.446	0.9
856.614	0.84
856.782	-0.51
856.95	0.26
857.118	0.68
857.286	-0.04
857.454	0.18
857.622	-0.11
857.79	0.32
857.958	-1.1
858.126	-0.31
858.294	-1.79
858.462	-0.13
858.629	-0.35
858.797	-0.91
858.965	-0.19
859.133	0.07
859.301	-0.41
859.468	-0.3
859.636	0.01
859.804	0.58
859.971	1.05
860.139	-0.94
860.307	0.68
860.474	-0.04
860.642	-1.38
860.81	-1.02
860.977	-0.1
861.145	1.09
861.313	0.19
861.48	0.14
861.648	1.64
861.815	-1.39
861.983	-1.64
862.15	-0.9
862.318	-0.12
862.485	0.46
862.653	-2.11
862.82	-1.17
862.988	1
863.155	-0.47
863.322	-1.85
863.49	-0.84
863.657	-0.2
863.824	1.29
863.992	0.52
864.159	0.52
864.326	0.64
864.494	-0.28
864.661	1.69
864.828	-1.84
864.996	0.86
865.163	0.98
865.33	-0.64
865.497	-2.69
865.664	0.01
865.832	-1.03
865.999	-0.02
866.166	-1.29
866.333	-1.39
866.5	-3.26
866.667	-0.25
866.834	-1.74
867.001	1.44
867.168	-2.06
867.335	-0.05
867.502	-1.18
867.669	-0.33
867.836	2.57
868.003	-0.17
868.17	1.36
868.337	2.37
868.504	0.88
868.671	-2.46
868.838	-0.94
869.005	0.19
869.172	1.36
869.339	0.2
869.505	0.25
869.672	-1.16
869.839	3.05
870.006	-0.54
870.173	-2.53
870.339	0.42
870.506	1.24
870.673	-1.11
870.84	1.92
871.006	-0.31
871.173	-0.45
871.34	0.38
871.506	-1.47
871.673	0.77
871.839	-2.69
872.006	0.44
872.173	-0.86
872.339	1.54
872.506	0.92
872.672	-0.17
872.839	-2.24
873.005	0.39
873.172	2.61
873.338	1.14
873.505	-0.26
873.671	-0.34
873.838	-0.06
874.004	-0.7
874.171	-1.25
874.337	0.27
874.503	0.39
874.67	-1.07
874.836	-0.01
875.002	2.41
875.169	-0.15
875.335	0.03
875.501	-1.27
875.668	1.97
875.834	-0.18
876	-0.01
876.166	2.98
876.332	1.18
876.499	2.84
876.665	0.28
876.831	-0.61
876.997	2.39
877.163	-1.42
877.329	-0.32
877.495	2.08
877.662	0.07
877.828	0.93
877.994	-2.2
878.16	-3.26
878.326	-2.35
878.492	0.18
878.658	0.08
878.824	1.07
878.99	-0.45
879.156	-1.42
879.322	2.9
879.487	-1.43
879.653	-0.12
879.819	1.24
879.985	-1.68
880.151	1.37
880.317	-0.62
880.483	-0.21
880.648	0.12
880.814	-2.83
880.98	0.55
881.146	-1.87
881.312	-0.25
881.477	-1.1
881.643	0.01
881.809	2.21
881.974	1.42
882.14	-1.9
882.306	0.84
882.471	2.2
882.637	0.44
882.803	0.72
882.968	2.46
883.134	4.52
883.299	-1.32
883.465	-0.06
883.63	0.18
883.796	2.04
883.961	0.33
884.127	0.12
884.292	-3.92
884.458	-2.59
884.623	-2.59
