Data from Apollo_Calib_20240827__AbsoluteIrradiance__585__08-54-00-227.txt Node

Date: Wed Aug 28 08:54:00 BST 2024
User: biology
Spectrometer: FLMT08252
Trigger mode: 0
Integration Time (sec): 5.000000E-1
Scans to average: 5
Electric dark correction enabled: true
Nonlinearity correction enabled: false
Boxcar width: 0
XAxis mode: Wavelengths
Number of Pixels in Spectrum: 3648
>>>>>Begin Spectral Data<<<<<
179.588	-0
179.809	-0
180.03	-0
180.251	-0
180.473	-0
180.694	0
180.915	0
181.136	-0
181.357	0
181.578	-0
181.799	-0
182.02	-0
182.241	0
182.462	-0
182.683	0
182.904	-0
183.125	-0
183.346	-0
183.567	0
183.788	0
184.009	-0
184.23	0
184.451	0
184.672	-0
184.892	0
185.113	0
185.334	0
185.555	-0
185.776	-0
185.996	0
186.217	0
186.438	0
186.659	0
186.879	0
187.1	-0
187.321	-0
187.541	-0
187.762	-0
187.983	0
188.203	0
188.424	0
188.644	-0
188.865	0
189.086	-0
189.306	0
189.527	0
189.747	0
189.968	-0
190.188	0
190.409	0
190.629	0
190.849	-0
191.07	-0
191.29	0
191.511	0
191.731	-0
191.951	-0
192.172	0
192.392	0
192.612	-0
192.833	-0
193.053	0
193.273	0
193.493	-0
193.714	0
193.934	0
194.154	0
194.374	0
194.594	0
194.815	0
195.035	0
195.255	0
195.475	-0
195.695	0
195.915	0
196.135	0
196.355	0
196.575	0
196.795	0
197.015	-0
197.235	-0
197.455	-0
197.675	0
197.895	-0
198.115	-0
198.335	0
198.555	0
198.775	0
198.995	0
199.214	0
199.434	0
199.654	-0
199.874	-0
200.094	1.06
200.313	-0.22
200.533	0.21
200.753	-0.67
200.973	1.27
201.192	1.03
201.412	-0.53
201.632	0.22
201.851	0.94
202.071	-0.13
202.291	-0.21
202.51	-0.04
202.73	0.64
202.95	-0.16
203.169	-0.51
203.389	0.09
203.608	0.41
203.828	-0.08
204.047	-0.05
204.267	0.65
204.486	0.35
204.706	0.25
204.925	0.1
205.145	0.21
205.364	0.47
205.583	0.65
205.803	0.07
206.022	-0.11
206.242	0.78
206.461	0.18
206.68	0.07
206.9	0.39
207.119	0.46
207.338	0.89
207.557	0.17
207.777	0.06
207.996	0.26
208.215	0.46
208.434	0.01
208.654	-0.24
208.873	0.49
209.092	0.47
209.311	-0.15
209.53	0.19
209.749	0.2
209.968	-0.04
210.187	0.23
210.407	-0.13
210.626	0.08
210.845	0.4
211.064	0.15
211.283	0.14
211.502	0.52
211.721	0.11
211.94	0.05
212.159	0.53
212.377	0.49
212.596	0.52
212.815	0.17
213.034	0.27
213.253	0.27
213.472	0.24
213.691	0.21
213.91	-0.05
214.128	-0.05
214.347	0.56
214.566	-0.01
214.785	-0.09
215.003	0.17
215.222	0.22
215.441	0.28
215.66	-0.22
215.878	0.12
216.097	0.34
216.316	-0.06
216.534	0.17
216.753	0.06
216.972	0.1
217.19	0.04
217.409	-0.1
217.627	-0.09
217.846	0.05
218.064	0.08
218.283	-0.12
218.501	0.67
218.72	0.16
218.938	0.08
219.157	-0.05
219.375	0.22
219.594	0.18
219.812	0.02
220.031	0.03
220.249	0.27
220.467	0.21
220.686	0.1
220.904	-0.05
221.122	-0.01
221.341	0.37
221.559	-0.05
221.777	-0.07
221.995	0.1
222.214	0.24
222.432	-0.02
222.65	0.17
222.868	0.1
223.086	0.25
223.305	0.26
223.523	0.02
223.741	0.33
223.959	-0.01
224.177	-0.21
224.395	-0.02
224.613	0.15
224.831	0.26
225.049	-0.04
225.267	-0.12
225.485	0.05
225.703	0.11
225.921	-0.01
226.139	0.01
226.357	0.18
226.575	0.19
226.793	0.06
227.011	0.66
227.229	0.09
227.447	0.32
227.665	0.06
227.883	-0.17
228.1	0.02
228.318	0.14
228.536	-0.1
228.754	-0.01
228.972	0.23
229.189	0.1
229.407	0.02
229.625	0.04
229.843	0.2
230.06	0.09
230.278	-0.04
230.496	0.1
230.713	0.14
230.931	0.22
231.149	-0.03
231.366	-0.13
231.584	0.04
231.801	0.29
232.019	-0.01
232.236	0.05
232.454	-0.04
232.671	0.13
232.889	0
233.106	0.03
233.324	0.07
233.541	0.12
233.759	0.02
233.976	0.01
234.194	0.12
234.411	0.02
234.628	-0.06
234.846	0.07
235.063	0.1
235.28	0.1
235.498	0.02
235.715	-0.02
235.932	0.06
236.149	0.03
236.367	-0.05
236.584	0.04
236.801	0.03
237.018	0.11
237.236	-0.04
237.453	-0.12
237.67	0.2
237.887	-0.03
238.104	0.13
238.321	-0.05
238.538	0.02
238.755	0.27
238.973	-0.15
239.19	0.02
239.407	0.14
239.624	0.04
239.841	-0.05
240.058	0.01
240.275	0.02
240.492	0.03
240.709	0.13
240.925	0.02
241.142	0.05
241.359	-0.13
241.576	0.03
241.793	0
242.01	-0.04
242.227	0.13
242.444	0.14
242.66	0.16
242.877	0.1
243.094	-0
243.311	0.09
243.527	0.07
243.744	0.04
243.961	0.05
244.178	-0.06
244.394	0.07
244.611	0.16
244.828	0.2
245.044	-0
245.261	0.06
245.477	0.04
245.694	0.14
245.911	0.01
246.127	0.13
246.344	0.2
246.56	0.1
246.777	-0.01
246.993	0.1
247.21	0.12
247.426	0.06
247.643	-0.05
247.859	-0.09
248.076	0.03
248.292	0.13
248.508	0.01
248.725	0.14
248.941	0.15
249.157	0.17
249.374	-0.06
249.59	0.02
249.806	0.07
250.023	0.12
250.239	-0.02
250.455	-0.07
250.671	0.07
250.888	0.15
251.104	0.1
251.32	-0
251.536	0.07
251.752	-0
251.969	0.08
252.185	0.1
252.401	0.14
252.617	-0.02
252.833	0.05
253.049	0.07
253.265	0.04
253.481	0.13
253.697	0.01
253.913	-0.02
254.129	0.07
254.345	0.09
254.561	-0.01
254.777	0.1
254.993	0.05
255.209	0.08
255.425	-0.01
255.641	-0.01
255.857	0.16
256.073	0.02
256.288	-0.1
256.504	0.03
256.72	0.02
256.936	0.22
257.152	-0
257.367	0.02
257.583	0.06
257.799	0.07
258.015	-0.04
258.23	0.02
258.446	0.15
258.662	0.11
258.877	-0.01
259.093	-0.01
259.309	-0
259.524	0.08
259.74	-0
259.955	-0.09
260.171	0.09
260.387	0.01
260.602	0.11
260.818	0.1
261.033	0.05
261.249	0.01
261.464	-0.02
261.68	-0.08
261.895	0.02
262.11	0.11
262.326	-0
262.541	-0.05
262.757	0.13
262.972	0.1
263.187	0.07
263.403	0.01
263.618	0.07
263.833	0.04
264.049	-0.02
264.264	0.07
264.479	0.13
264.694	0.17
264.91	-0.07
265.125	0.01
265.34	0.09
265.555	0.2
265.77	0.05
265.986	-0.07
266.201	0.12
266.416	0.08
266.631	0.03
266.846	0
267.061	0.04
267.276	0.07
267.491	-0.07
267.706	0.09
267.921	0.04
268.136	0.07
268.351	0.05
268.566	-0.06
268.781	0.1
268.996	0.07
269.211	0.03
269.426	-0.01
269.641	0.03
269.856	0.08
270.071	-0.03
270.285	-0.07
270.5	0.16
270.715	0.11
270.93	0.02
271.145	0.09
271.359	0.12
271.574	0.05
271.789	0.03
272.004	-0.04
272.218	-0.02
272.433	0.11
272.648	0
272.862	0.06
273.077	-0.03
273.292	0.04
273.506	-0.06
273.721	0.02
273.936	0.09
274.15	0.08
274.365	0.07
274.579	0.06
274.794	0.08
275.008	0.11
275.223	-0.07
275.437	0.09
275.652	0.01
275.866	0.1
276.081	0.01
276.295	0.1
276.509	0.01
276.724	-0.03
276.938	0.09
277.153	0.04
277.367	0.11
277.581	0.04
277.796	-0
278.01	-0.03
278.224	0.07
278.438	0.22
278.653	-0.02
278.867	-0.02
279.081	0.1
279.295	0.01
279.51	0.11
279.724	-0.1
279.938	0.1
280.152	0.07
280.366	0.01
280.58	0.07
280.794	0.12
281.008	0.1
281.222	0.01
281.437	0.11
281.651	0.06
281.865	0.1
282.079	0.03
282.293	-0.08
282.507	0.01
282.721	-0.03
282.935	0.05
283.148	-0.04
283.362	0.01
283.576	0.01
283.79	0.03
284.004	-0.02
284.218	0.1
284.432	0.02
284.646	-0
284.859	0.04
285.073	0.03
285.287	0.06
285.501	0.05
285.714	0.02
285.928	0.05
286.142	0.03
286.356	0.02
286.569	0.01
286.783	0.12
286.997	0.07
287.21	-0.03
287.424	-0.01
287.637	0.02
287.851	-0
288.065	0.1
288.278	0.02
288.492	0.02
288.705	0.02
288.919	0.09
289.132	-0.05
289.346	0.1
289.559	-0.04
289.773	-0.06
289.986	-0
290.2	0.02
290.413	0.11
290.626	-0
290.84	0.01
291.053	0.03
291.267	0.09
291.48	0.03
291.693	0
291.906	-0.01
292.12	0
292.333	0.02
292.546	0.02
292.76	0.13
292.973	0.06
293.186	0.1
293.399	0.02
293.612	0.05
293.826	0.03
294.039	0.05
294.252	0.03
294.465	0.08
294.678	0.04
294.891	0.04
295.104	-0.02
295.317	0.04
295.53	0.11
295.743	0.08
295.956	0.01
296.169	0.11
296.382	0.1
296.595	0.03
296.808	-0.03
297.021	0.06
297.234	0.08
297.447	0.02
297.66	0.04
297.873	0.07
298.086	0.02
298.299	0.02
298.511	0.01
298.724	0
298.937	0
299.15	0.02
299.363	0.06
299.575	0.05
299.788	0.08
300.001	0.01
300.213	0.02
300.426	0.06
300.639	-0.03
300.852	-0.01
301.064	0.06
301.277	0.09
301.489	0.04
301.702	0.07
301.915	0.01
302.127	0.05
302.34	0.04
302.552	0.08
302.765	0.02
302.977	0.05
303.19	-0.01
303.402	0.02
303.615	0.01
303.827	0
304.04	0.02
304.252	0.06
304.464	0.04
304.677	0.17
304.889	0.05
305.102	0
305.314	0.01
305.526	0.06
305.739	0.07
305.951	-0.05
306.163	0.04
306.375	0.09
306.588	0.02
306.8	-0.01
307.012	-0.03
307.224	0.04
307.436	0.06
307.649	-0.03
307.861	0.03
308.073	0.06
308.285	0.05
308.497	-0.01
308.709	0.01
308.921	0.03
309.133	0.03
309.346	-0
309.558	-0
309.77	0.06
309.982	0.07
310.194	0.04
310.406	0.01
310.617	0.07
310.829	0.02
311.041	0.11
311.253	0.01
311.465	0.01
311.677	0.06
311.889	0.04
312.101	-0.01
312.313	0.07
312.524	0.05
312.736	0
312.948	0.01
313.16	0.09
313.372	0.07
313.583	0.02
313.795	0.03
314.007	0.03
314.218	0.06
314.43	0.02
314.642	-0.02
314.853	0
315.065	0.05
315.277	0.01
315.488	0.02
315.7	0.06
315.912	0.02
316.123	0.01
316.335	0.08
316.546	0.13
316.758	0.02
316.969	0.02
317.181	0.07
317.392	0.04
317.604	0.14
317.815	-0.01
318.026	0.03
318.238	-0.01
318.449	0.06
318.661	-0.01
318.872	0.02
319.083	-0.03
319.295	0.04
319.506	-0.01
319.717	0.03
319.929	0.06
320.14	0.04
320.351	0.03
320.562	0.02
320.774	0.04
320.985	0.06
321.196	0.03
321.407	-0.03
321.618	0.08
321.829	0.02
322.041	0.05
322.252	0.05
322.463	0.06
322.674	0.04
322.885	-0.04
323.096	0.06
323.307	0.03
323.518	0.04
323.729	0.01
323.94	0.05
324.151	0.02
324.362	0.04
324.573	0.06
324.784	-0
324.995	0.06
325.206	0.04
325.417	0
325.628	0.04
325.838	0.02
326.049	0.03
326.26	0.05
326.471	0.02
326.682	0.05
326.892	0.05
327.103	-0.01
327.314	-0.05
327.525	0.09
327.735	0.01
327.946	0.02
328.157	-0.02
328.368	0.04
328.578	0.02
328.789	0.06
328.999	0.06
329.21	0.04
329.421	0.07
329.631	0.02
329.842	0.03
330.052	0.06
330.263	0.08
330.473	0.08
330.684	0.07
330.894	0.03
331.105	0.05
331.315	0.06
331.526	-0.03
331.736	0.12
331.947	0.02
332.157	0.01
332.367	-0.01
332.578	0.06
332.788	0.06
332.999	0.07
333.209	0.06
333.419	0
333.629	0.04
333.84	0.02
334.05	0.01
334.26	0.12
334.47	0.06
334.681	0.07
334.891	-0
335.101	0.06
335.311	0.12
335.521	0.02
335.732	0
335.942	0.06
336.152	0.05
336.362	-0.01
336.572	0.04
336.782	0.08
336.992	-0.02
337.202	0.02
337.412	0.01
337.622	0.02
337.832	0.01
338.042	0.07
338.252	0.02
338.462	-0
338.672	0.1
338.882	0.05
339.092	0.01
339.302	0.04
339.511	0.05
339.721	-0.03
339.931	-0.03
340.141	0.06
340.351	0.1
340.561	0.06
340.77	0.08
340.98	0.04
341.19	0.02
341.4	-0.02
341.609	-0.03
341.819	-0.01
342.029	-0.02
342.238	0.05
342.448	-0.01
342.658	0.08
342.867	0.01
343.077	0
343.286	0.05
343.496	-0.02
343.706	0.11
343.915	-0.03
344.125	0.01
344.334	0.06
344.544	-0.03
344.753	-0.02
344.963	-0.01
345.172	0.01
345.381	-0.01
345.591	0.01
345.8	0.03
346.01	0.09
346.219	0.09
346.428	-0.11
346.638	-0.02
346.847	0.04
347.056	0.1
347.266	-0.04
347.475	0.01
347.684	0.05
347.893	0.03
348.103	0.04
348.312	0.02
348.521	-0
348.73	0.01
348.94	0.05
349.149	0.05
349.358	-0
349.567	-0.02
349.776	-0.05
349.985	0.04
350.194	0.04
350.403	0.06
350.612	-0.02
350.821	0.03
351.03	0.01
351.239	-0.03
351.448	-0.01
351.657	-0.04
351.866	0.11
352.075	0.01
352.284	0.12
352.493	-0.04
352.702	0.05
352.911	0.02
353.12	0.07
353.329	0
353.538	0.05
353.746	0.01
353.955	-0.02
354.164	0.07
354.373	0.02
354.582	0.06
354.79	0
354.999	0.07
355.208	0.01
355.416	0.12
355.625	0.02
355.834	0
356.042	0.01
356.251	-0.02
356.46	-0.02
356.668	0.04
356.877	0.11
357.085	0.05
357.294	-0.06
357.503	0.06
357.711	0.02
357.92	0.11
358.128	0.02
358.337	0.03
358.545	-0.02
358.754	-0.02
358.962	0.08
359.17	0.02
359.379	0.05
359.587	0.04
359.796	0.02
360.004	0.08
360.212	0.03
360.421	0.07
360.629	0
360.837	0.02
361.046	0.08
361.254	0.12
361.462	0.02
361.67	0.02
361.879	-0.01
362.087	0.1
362.295	0.02
362.503	-0.02
362.711	-0.05
362.92	0.01
363.128	-0
363.336	-0.01
363.544	-0.03
363.752	0.02
363.96	-0
364.168	-0.02
364.376	0
364.584	-0
364.792	0.06
365	0
365.208	0.04
365.416	0.03
365.624	0.06
365.832	0.03
366.04	0.1
366.248	0.03
366.456	0.03
366.664	0.03
366.872	0.02
367.079	0.04
367.287	0.04
367.495	0.08
367.703	0.03
367.911	-0.02
368.118	0.02
368.326	0.02
368.534	0.01
368.742	0.06
368.949	-0.03
369.157	-0.01
369.365	0.1
369.572	-0.02
369.78	-0.03
369.988	0.07
370.195	0.05
370.403	0.02
370.61	0.02
370.818	0.05
371.026	0.08
371.233	-0.03
371.441	0.05
371.648	-0.03
371.856	0.01
372.063	0.04
372.271	0.03
372.478	0.01
372.685	0
372.893	0.1
373.1	0.02
373.308	0.02
373.515	0.09
373.722	0.03
373.93	0.01
374.137	0.06
374.344	0.1
374.552	0.06
374.759	0.05
374.966	-0
375.173	0.02
375.381	0.07
375.588	0
375.795	-0.02
376.002	-0.01
376.209	0.04
376.417	0.03
376.624	0.06
376.831	0.06
377.038	-0
377.245	-0.06
377.452	0.05
377.659	0.01
377.866	-0.05
378.073	-0.02
378.28	0.05
378.487	0.02
378.694	0.02
378.901	0.02
379.108	0.04
379.315	0.07
379.522	0.11
379.729	0.02
379.936	-0
380.143	0.03
380.35	0.06
380.557	-0
380.763	0.03
380.97	0.05
381.177	-0
381.384	0.04
381.591	-0.04
381.797	0.04
382.004	0.03
382.211	0.06
382.418	-0.03
382.624	0.06
382.831	0.05
383.038	0.04
383.244	0.04
383.451	0.02
383.658	-0.02
383.864	0.02
384.071	0
384.277	0.09
384.484	0.01
384.69	0.02
384.897	-0.03
385.103	0
385.31	-0.03
385.516	-0.02
385.723	-0.01
385.929	0.01
386.136	0.04
386.342	0.04
386.549	0
386.755	0.06
386.961	0.07
387.168	-0.01
387.374	0.05
387.58	0.01
387.787	0.03
387.993	0.04
388.199	-0.02
388.406	0
388.612	0.01
388.818	0.03
389.024	0.03
389.231	0.01
389.437	0.1
389.643	0.04
389.849	0.02
390.055	0.05
390.261	0.04
390.467	0.06
390.674	0.01
390.88	0.01
391.086	0.04
391.292	0.03
391.498	0.08
391.704	0
391.91	0.02
392.116	0.01
392.322	-0.1
392.528	0.02
392.734	-0.02
392.94	0.03
393.146	0.04
393.352	0.02
393.557	0.01
393.763	0.02
393.969	0.08
394.175	-0.01
394.381	0.08
394.587	-0
394.792	-0.01
394.998	0.06
395.204	0.08
395.41	0
395.615	0.06
395.821	0.05
396.027	0.06
396.233	0.01
396.438	-0.03
396.644	0.05
396.85	0.04
397.055	0.04
397.261	0.06
397.466	0.11
397.672	0.04
397.878	0.09
398.083	0.03
398.289	0.03
398.494	0.04
398.7	0.05
398.905	-0.08
399.111	0.1
399.316	-0.03
399.522	0.04
399.727	-0.02
399.932	0
400.138	0
400.343	0.11
400.549	0.06
400.754	0.01
400.959	0.04
401.165	0
401.37	0.06
401.575	0.09
401.78	0
401.986	-0.03
402.191	0.01
402.396	-0.02
402.601	0.06
402.807	0.05
403.012	0.03
403.217	0.04
403.422	0.05
403.627	-0.01
403.832	-0.02
404.037	0.09
404.243	0.05
404.448	-0.02
404.653	0.03
404.858	0.03
405.063	0.05
405.268	0.01
405.473	-0.03
405.678	0.01
405.883	0.18
406.088	0.07
406.293	-0.02
406.498	0
406.703	0.04
406.907	0.03
407.112	-0
407.317	0.06
407.522	0.03
407.727	-0.08
407.932	0.05
408.136	0.06
408.341	0.01
408.546	-0.01
408.751	0.03
408.956	0.02
409.16	0.02
409.365	0.03
409.57	-0.01
409.774	0.05
409.979	0.06
410.184	0.03
410.388	-0.03
410.593	0.07
410.798	0.03
411.002	0.01
411.207	0.05
411.411	0.02
411.616	0.02
411.82	-0.01
412.025	0.04
412.229	-0.01
412.434	0.07
412.638	-0.01
412.843	-0.03
413.047	0.07
413.252	-0.04
413.456	-0.01
413.66	0.03
413.865	-0.02
414.069	0.08
414.273	-0.01
414.478	-0.01
414.682	-0.02
414.886	0.02
415.091	-0.07
415.295	-0.1
415.499	0.02
415.703	-0.02
415.908	0.01
416.112	-0.09
416.316	0.05
416.52	-0.01
416.724	-0.05
416.929	-0
417.133	0.09
417.337	0.03
417.541	-0.02
417.745	0.02
417.949	0.01
418.153	0.03
418.357	-0.06
418.561	0.08
418.765	0
418.969	0.17
419.173	0.07
419.377	-0.04
419.581	0.11
419.785	-0.03
419.989	-0.08
420.193	0.03
420.397	-0.03
420.601	0.05
420.804	0.03
421.008	0.02
421.212	0.05
421.416	0.09
421.62	-0
421.823	0.02
422.027	0.09
422.231	0.03
422.435	0.01
422.638	0.01
422.842	-0
423.046	0.02
423.249	0.02
423.453	0.05
423.657	0.04
423.86	0.03
424.064	0.01
424.268	0.1
424.471	0.02
424.675	0.1
424.878	0.09
425.082	0.02
425.285	0.08
425.489	0.01
425.692	0.02
425.896	-0.02
426.099	0.09
426.303	-0.04
426.506	-0.02
426.71	0.03
426.913	0.06
427.116	0.08
427.32	0.02
427.523	0.01
427.726	0.12
427.93	-0.03
428.133	0
428.336	-0.02
428.54	0.01
428.743	-0.01
428.946	0.01
429.149	-0.04
429.353	0.06
429.556	-0.02
429.759	0.04
429.962	-0.01
430.165	0.01
430.368	0.03
430.571	-0.01
430.775	0.09
430.978	-0.01
431.181	0.07
431.384	0.03
431.587	-0.01
431.79	0.04
431.993	0.05
432.196	0.02
432.399	-0.01
432.602	0.08
432.805	0.03
433.008	-0.02
433.211	-0.03
433.414	0.09
433.616	0.04
433.819	0.04
434.022	-0.06
434.225	0.07
434.428	0.03
434.631	0.16
434.833	-0.01
435.036	-0.03
435.239	0.08
435.442	0.05
435.645	-0.03
435.847	0.06
436.05	0.07
436.253	0.04
436.455	-0.03
436.658	0
436.861	0.09
437.063	-0.02
437.266	-0
437.468	0.02
437.671	0.11
437.874	0.02
438.076	-0.04
438.279	-0
438.481	-0.02
438.684	-0.01
438.886	0.04
439.089	-0.06
439.291	0.04
439.494	0.06
439.696	-0.02
439.899	-0.02
440.101	0.02
440.303	-0.07
440.506	0.08
440.708	-0.01
440.91	0.04
441.113	-0.04
441.315	0
441.517	-0.02
441.72	0.06
441.922	-0.05
442.124	-0.03
442.326	0.06
442.529	0.07
442.731	-0
442.933	0.09
443.135	0.05
443.337	-0.02
443.539	0.06
443.742	-0.02
443.944	0.05
444.146	-0.01
444.348	0.02
444.55	0.01
444.752	0.05
444.954	-0.01
445.156	0.04
445.358	-0
445.56	0.07
445.762	0.01
445.964	0.01
446.166	0
446.368	-0.02
446.57	0.07
446.772	-0.01
446.974	0.02
447.175	0.02
447.377	-0.04
447.579	-0.01
447.781	-0.03
447.983	0.11
448.184	0.02
448.386	0.04
448.588	-0.05
448.79	0.03
448.991	0.01
449.193	0.01
449.395	0.04
449.597	0.09
449.798	-0.02
450	0.02
450.202	0.03
450.403	-0.01
450.605	0.06
450.806	-0
451.008	-0.03
451.21	-0.03
451.411	0.05
451.613	-0.01
451.814	0.02
452.016	0.09
452.217	0.02
452.419	0.07
452.62	0.03
452.821	0.01
453.023	0.1
453.224	0.09
453.426	0.02
453.627	0.02
453.828	0.04
454.03	-0.01
454.231	0.04
454.432	-0.01
454.634	0.11
454.835	-0.01
455.036	-0.04
455.238	0.06
455.439	0.08
455.64	0
455.841	-0.02
456.042	0.14
456.244	0.01
456.445	-0.03
456.646	-0.05
456.847	0.02
457.048	0.04
457.249	0.07
457.45	0.22
457.651	-0.01
457.852	0.07
458.054	0.01
458.255	0.03
458.456	0.08
458.657	0.07
458.858	-0.01
459.058	0.01
459.259	0.07
459.46	0.02
459.661	0.01
459.862	0.12
460.063	0.03
460.264	0.07
460.465	-0.02
460.666	0.1
460.866	0.01
461.067	0.02
461.268	0.02
461.469	0.02
461.67	0.04
461.87	0.06
462.071	-0.03
462.272	-0.05
462.473	0.01
462.673	0.05
462.874	-0.04
463.075	0.02
463.275	0
463.476	0.05
463.676	0.05
463.877	0.06
464.078	0.02
464.278	0.06
464.479	-0
464.679	0.01
464.88	0
465.08	0.11
465.281	-0.04
465.481	0.01
465.682	0.02
465.882	0.04
466.083	0.04
466.283	-0.04
466.483	0.02
466.684	-0.01
466.884	-0.04
467.085	0.04
467.285	0.09
467.485	0
467.686	0.02
467.886	-0.02
468.086	0.01
468.286	0.03
468.487	0.06
468.687	-0.02
468.887	-0.01
469.087	0.05
469.287	0.01
469.488	-0.02
469.688	0.02
469.888	0.03
470.088	0.06
470.288	0.06
470.488	0.09
470.688	0
470.888	-0
471.088	-0.01
471.288	0.09
471.488	0.04
471.688	-0.01
471.888	0.02
472.088	0.05
472.288	0.07
472.488	0.01
472.688	0
472.888	0.02
473.088	0.01
473.288	-0.03
473.488	0.02
473.688	0.15
473.887	0.03
474.087	-0.01
474.287	0.02
474.487	-0.02
474.687	0
474.886	-0
475.086	0.03
475.286	0.03
475.486	0.01
475.685	0.01
475.885	-0.02
476.085	0.03
476.284	0.04
476.484	0.05
476.684	0.02
476.883	0.09
477.083	0.03
477.282	0
477.482	0.04
477.681	0.07
477.881	0
478.08	-0.02
478.28	-0.01
478.479	0.03
478.679	0.09
478.878	0.01
479.078	-0.02
479.277	-0
479.477	0.01
479.676	0.07
479.875	0.01
480.075	-0.04
480.274	0.03
480.473	0.04
480.673	-0.01
480.872	0.04
481.071	0.02
481.271	0.03
481.47	0.02
481.669	0.01
481.868	-0.02
482.067	-0.02
482.267	-0.02
482.466	-0.01
482.665	-0.03
482.864	-0.02
483.063	-0.03
483.262	0.05
483.461	0.07
483.661	0.05
483.86	-0
484.059	0.03
484.258	-0.02
484.457	0
484.656	0.01
484.855	0.05
485.054	-0.05
485.253	-0.03
485.452	-0.03
485.651	0.02
485.849	0.01
486.048	-0.01
486.247	-0.01
486.446	0.01
486.645	-0.02
486.844	-0.02
487.043	-0.03
487.241	0.05
487.44	-0
487.639	-0.01
487.838	0.03
488.037	0.02
488.235	0.07
488.434	0.03
488.633	-0.02
488.831	0.02
489.03	0.05
489.229	-0
489.427	0
489.626	0.03
489.825	0.06
490.023	-0.01
490.222	-0.01
490.42	0
490.619	0.05
490.817	0.04
491.016	0
491.214	0.04
491.413	-0
491.611	0.02
491.81	0.01
492.008	0.03
492.207	0.04
492.405	0.02
492.604	-0
492.802	0
493	0.01
493.199	-0
493.397	0.01
493.595	0
493.794	0
493.992	0.04
494.19	0
494.388	0.01
494.587	0
494.785	0.01
494.983	-0.02
495.181	0
495.379	0
495.578	-0
495.776	0.02
495.974	0.02
496.172	0
496.37	-0.01
496.568	-0.02
496.766	-0.04
496.964	0.05
497.162	-0.01
497.36	-0.01
497.558	0.02
497.756	0.02
497.954	0.01
498.152	-0
498.35	-0
498.548	-0
498.746	0.01
498.944	-0.01
499.142	0.01
499.34	-0.02
499.538	0.02
499.736	-0.01
499.933	0.05
500.131	0.05
500.329	-0
500.527	0.04
500.725	0.03
500.922	0.03
501.12	0.02
501.318	0.02
501.516	-0.01
501.713	0.01
501.911	-0
502.109	-0.02
502.306	0.02
502.504	0
502.701	-0
502.899	-0.01
503.097	0.05
503.294	0.03
503.492	-0.02
503.689	0.02
503.887	0.02
504.084	0.08
504.282	0.02
504.479	-0.02
504.677	0
504.874	-0
505.072	0.01
505.269	-0
505.466	0.03
505.664	-0
505.861	-0.01
506.059	-0.03
506.256	0.03
506.453	0
506.651	0.06
506.848	0.04
507.045	0.02
507.242	0.01
507.44	0.04
507.637	0.01
507.834	0.01
508.031	0.04
508.229	0
508.426	0.03
508.623	0.03
508.82	-0.02
509.017	-0.04
509.214	0.01
509.411	0.02
509.608	-0.01
509.805	0.01
510.003	-0.02
510.2	-0.01
510.397	0.04
510.594	-0.02
510.791	-0
510.988	0
511.184	0.02
511.381	0.01
511.578	-0.01
511.775	0.02
511.972	-0.01
512.169	0
512.366	-0
512.563	0.02
512.76	-0.02
512.956	0.04
513.153	-0.01
513.35	0.03
513.547	0
513.744	0.01
513.94	-0.02
514.137	0.02
514.334	0.01
514.53	0.01
514.727	0.01
514.924	0.06
515.12	-0.01
515.317	-0.04
515.514	0.02
515.71	-0.02
515.907	0
516.103	0
516.3	0.02
516.497	0.02
516.693	0.06
516.89	0.01
517.086	-0.01
517.283	0.05
517.479	0.01
517.676	0.01
517.872	-0
518.068	-0.01
518.265	0.01
518.461	0
518.658	-0.02
518.854	0.01
519.05	0.01
519.247	-0.02
519.443	0.03
519.639	0.02
519.836	0.02
520.032	0.02
520.228	0.02
520.424	0.04
520.621	0.02
520.817	0.02
521.013	0.02
521.209	0
521.405	0.04
521.601	0.04
521.798	0.02
521.994	0.03
522.19	-0.01
522.386	-0.02
522.582	-0.01
522.778	-0
522.974	0.01
523.17	0.03
523.366	0
523.562	0.05
523.758	0.02
523.954	-0
524.15	0
524.346	0
524.542	0
524.738	0
524.934	0
525.129	-0.07
525.325	0.01
525.521	0.01
525.717	0.03
525.913	0.02
526.109	0.01
526.304	0.01
526.5	0.02
526.696	0.03
526.892	0
527.087	0.01
527.283	-0.01
527.479	0.03
527.674	-0.01
527.87	0.03
528.066	0.02
528.261	0.04
528.457	0.02
528.653	0.02
528.848	-0
529.044	0.03
529.239	0.01
529.435	0.04
529.63	0.02
529.826	0.07
530.021	0.01
530.217	0.03
530.412	0.02
530.608	-0.02
530.803	0.01
530.999	0
531.194	-0.03
531.389	0.01
531.585	-0.04
531.78	0.02
531.975	0.01
532.171	0.03
532.366	0.01
532.561	0
532.757	-0.02
532.952	0.03
533.147	0.03
533.342	0
533.538	0.02
533.733	0.04
533.928	0.01
534.123	0.01
534.318	-0.01
534.513	-0
534.709	0.01
534.904	-0.01
535.099	0
535.294	0.01
535.489	0.04
535.684	-0
535.879	-0.02
536.074	0.01
536.269	0
536.464	0.02
536.659	0.01
536.854	0.01
537.049	0.04
537.244	0
537.439	0.01
537.634	0.02
537.828	0.01
538.023	0
538.218	-0.01
538.413	0.02
538.608	-0.05
538.803	0.04
538.997	-0.02
539.192	0.04
539.387	0.03
539.582	0.02
539.776	0.03
539.971	-0.01
540.166	0.01
540.36	-0.03
540.555	0.01
540.75	0.04
540.944	0.01
541.139	-0.02
541.334	0
541.528	0
541.723	0.02
541.917	0.01
542.112	-0.02
542.306	0.02
542.501	0
542.695	0.01
542.89	0.01
543.084	0
543.279	-0
543.473	-0.01
543.668	0.04
543.862	0.02
544.056	0.04
544.251	0.01
544.445	0.02
544.64	0.02
544.834	-0.01
545.028	0.03
545.222	0.03
545.417	0.04
545.611	0.03
545.805	0
546	-0.01
546.194	0
546.388	0.01
546.582	0.03
546.776	0.04
546.97	0.02
547.165	0.03
547.359	0.03
547.553	-0
547.747	0.01
547.941	0.02
548.135	0.01
548.329	0.06
548.523	0.02
548.717	-0
548.911	0.01
549.105	0.03
549.299	-0.01
549.493	0.04
549.687	0.05
549.881	0.02
550.075	0.01
550.269	0.01
550.463	0.04
550.657	0.01
550.85	0.02
551.044	0.01
551.238	0.03
551.432	0
551.626	-0.02
551.82	0.01
552.013	-0.01
552.207	0.03
552.401	0.03
552.594	0.04
552.788	0
552.982	0.04
553.176	-0.01
553.369	0.03
553.563	0.05
553.756	-0.02
553.95	0.01
554.144	0.01
554.337	0.05
554.531	0.02
554.724	-0
554.918	0.02
555.111	0.04
555.305	0.01
555.498	0.07
555.692	0.05
555.885	0.01
556.079	0.02
556.272	-0.02
556.466	0.04
556.659	0.01
556.852	0
557.046	0.01
557.239	0.04
557.432	-0.01
557.626	-0
557.819	0.03
558.012	0.04
558.206	0.05
558.399	0.01
558.592	0.05
558.785	-0.01
558.979	0.04
559.172	0.03
559.365	0.04
559.558	0.03
559.751	0.01
559.944	0.02
560.138	0.01
560.331	0.01
560.524	0.02
560.717	0.01
560.91	0.03
561.103	0.02
561.296	0.01
561.489	0.02
561.682	0.02
561.875	0.05
562.068	0.02
562.261	0.03
562.454	0.06
562.647	0.04
562.84	0.03
563.032	0.01
563.225	0.02
563.418	0.01
563.611	0.01
563.804	0.02
563.997	0
564.19	-0
564.382	-0.02
564.575	0.01
564.768	0.03
564.961	0
565.153	0.01
565.346	0.05
565.539	0.07
565.731	0.04
565.924	0.05
566.117	0.04
566.309	0.03
566.502	0.01
566.695	0.04
566.887	0.04
567.08	-0.01
567.272	0.01
567.465	0.02
567.657	0.02
567.85	0.04
568.042	0.01
568.235	0.06
568.427	0.02
568.62	-0.01
568.812	0.03
569.005	0.02
569.197	0
569.389	0.02
569.582	0.04
569.774	0.04
569.966	-0.01
570.159	-0.02
570.351	0.05
570.543	0
570.736	0.03
570.928	-0.01
571.12	0.04
571.312	0.02
571.505	0.02
571.697	0.06
571.889	-0.03
572.081	0.01
572.273	-0.01
572.465	0.04
572.658	0.02
572.85	0.02
573.042	0.02
573.234	0.03
573.426	0.06
573.618	0
573.81	0.03
574.002	0.05
574.194	0.04
574.386	-0.02
574.578	-0.04
574.77	0
574.962	0.02
575.154	-0.03
575.346	0
575.538	0.06
575.729	-0
575.921	0.01
576.113	0.01
576.305	0.03
576.497	0
576.689	0
576.88	0.01
577.072	0.07
577.264	0.03
577.456	0
577.647	-0.02
577.839	0.03
578.031	0.05
578.223	-0.01
578.414	0
578.606	0.05
578.798	0.03
578.989	0.01
579.181	0.02
579.372	0.03
579.564	0.02
579.755	0.02
579.947	0.04
580.139	0.06
580.33	0
580.522	-0.01
580.713	-0.03
580.905	0.04
581.096	0.03
581.287	0.01
581.479	0.03
581.67	0.03
581.862	0.02
582.053	0.02
582.244	0
582.436	0.01
582.627	0.04
582.818	-0.01
583.01	0
583.201	0.05
583.392	0.03
583.583	0.01
583.775	0.01
583.966	0.01
584.157	0.01
584.348	0.04
584.54	-0.02
584.731	0.05
584.922	0.03
585.113	0.01
585.304	0.05
585.495	0.04
585.686	0.06
585.877	0.05
586.068	0.06
586.259	0.04
586.45	0.05
586.641	0.02
586.832	0
587.023	0.03
587.214	0.05
587.405	0.04
587.596	0.02
587.787	0.08
587.978	0.07
588.169	0.03
588.36	0.02
588.551	0.05
588.742	0.03
588.932	0.05
589.123	0.01
589.314	0.06
589.505	0.07
589.696	0.04
589.886	0.03
590.077	-0.02
590.268	0.05
590.458	0.01
590.649	0.03
590.84	0.06
591.03	0.03
591.221	0
591.412	0.01
591.602	0.06
591.793	0.08
591.984	0.01
592.174	0.05
592.365	0.12
592.555	0.04
592.746	0.04
592.936	0.1
593.127	0.06
593.317	0.08
593.508	0.05
593.698	0.06
593.889	0.09
594.079	0.07
594.269	0.03
594.46	0.02
594.65	0.06
594.84	0.06
595.031	0.01
595.221	0.04
595.411	0.05
595.602	0.09
595.792	0.06
595.982	0.04
596.172	0.12
596.363	0.07
596.553	0.09
596.743	0.06
596.933	0.06
597.123	0.09
597.314	0.04
597.504	0.06
597.694	0.11
597.884	0.09
598.074	0.07
598.264	0.04
598.454	0.09
598.644	0.07
598.834	0.09
599.024	0.04
599.214	0.05
599.404	0.14
599.594	0.06
599.784	0.07
599.974	0.12
600.164	0.12
600.354	0.05
600.544	0.05
600.734	0.07
600.924	0.11
601.114	0.08
601.303	0.11
601.493	0.09
601.683	0.08
601.873	0.12
602.063	0.08
602.252	0.13
602.442	0.05
602.632	0.08
602.821	0.08
603.011	0.12
603.201	0.09
603.39	0.09
603.58	0.09
603.77	0.13
603.959	0.15
604.149	0.13
604.339	0.13
604.528	0.18
604.718	0.15
604.907	0.11
605.097	0.12
605.286	0.11
605.476	0.16
605.665	0.16
605.855	0.13
606.044	0.21
606.234	0.14
606.423	0.15
606.612	0.11
606.802	0.15
606.991	0.2
607.181	0.17
607.37	0.13
607.559	0.17
607.749	0.15
607.938	0.16
608.127	0.17
608.316	0.12
608.506	0.22
608.695	0.18
608.884	0.18
609.073	0.2
609.263	0.24
609.452	0.22
609.641	0.23
609.83	0.18
610.019	0.22
610.208	0.2
610.397	0.23
610.586	0.25
610.775	0.24
610.965	0.22
611.154	0.21
611.343	0.25
611.532	0.25
611.721	0.22
611.91	0.27
612.099	0.31
612.287	0.24
612.476	0.27
612.665	0.28
612.854	0.25
613.043	0.32
613.232	0.29
613.421	0.26
613.61	0.31
613.798	0.29
613.987	0.38
614.176	0.33
614.365	0.35
614.554	0.37
614.742	0.39
614.931	0.33
615.12	0.39
615.309	0.34
615.497	0.37
615.686	0.35
615.875	0.38
616.063	0.36
616.252	0.39
616.44	0.4
616.629	0.43
616.818	0.44
617.006	0.42
617.195	0.44
617.383	0.43
617.572	0.46
617.76	0.46
617.949	0.44
618.137	0.52
618.326	0.51
618.514	0.43
618.703	0.48
618.891	0.58
619.079	0.48
619.268	0.59
619.456	0.55
619.644	0.59
619.833	0.55
620.021	0.57
620.209	0.57
620.398	0.64
620.586	0.62
620.774	0.69
620.962	0.65
621.151	0.77
621.339	0.69
621.527	0.65
621.715	0.68
621.903	0.72
622.092	0.7
622.28	0.8
622.468	0.75
622.656	0.79
622.844	0.8
623.032	0.84
623.22	0.78
623.408	0.86
623.596	0.85
623.784	0.94
623.972	0.85
624.16	0.87
624.348	0.99
624.536	0.98
624.724	0.98
624.912	1.01
625.1	1.03
625.288	1
625.476	1.03
625.664	1.12
625.851	1.04
626.039	1.17
626.227	1.13
626.415	1.14
626.603	1.12
626.79	1.17
626.978	1.24
627.166	1.27
627.354	1.2
627.541	1.26
627.729	1.23
627.917	1.37
628.104	1.4
628.292	1.41
628.48	1.38
628.667	1.44
628.855	1.49
629.042	1.59
629.23	1.46
629.418	1.56
629.605	1.58
629.793	1.6
629.98	1.61
630.168	1.57
630.355	1.75
630.543	1.7
630.73	1.69
630.917	1.77
631.105	1.88
631.292	1.86
631.48	1.89
631.667	1.95
631.854	1.91
632.042	2
632.229	1.94
632.416	2.1
632.604	2.13
632.791	2.09
632.978	2.23
633.165	2.19
633.353	2.32
633.54	2.32
633.727	2.3
633.914	2.36
634.101	2.32
634.289	2.49
634.476	2.39
634.663	2.43
634.85	2.52
635.037	2.58
635.224	2.56
635.411	2.74
635.598	2.72
635.785	2.76
635.972	2.8
636.159	2.89
636.346	2.88
636.533	2.9
636.72	2.98
636.907	3.08
637.094	3.04
637.281	3.07
637.468	3.15
637.655	3.21
637.842	3.29
638.029	3.32
638.215	3.34
638.402	3.41
638.589	3.36
638.776	3.52
638.963	3.54
639.149	3.71
639.336	3.78
639.523	3.78
639.709	3.88
639.896	3.89
640.083	3.94
640.27	4.12
640.456	4.06
640.643	4.17
640.829	4.09
641.016	4.26
641.203	4.29
641.389	4.42
641.576	4.49
641.762	4.52
641.949	4.6
642.135	4.73
642.322	4.78
642.508	4.84
642.695	5.04
642.881	4.94
643.068	5.04
643.254	5.21
643.441	5.33
643.627	5.45
643.813	5.32
644	5.57
644.186	5.6
644.372	5.8
644.559	5.81
644.745	5.87
644.931	6
645.118	6.12
645.304	6.26
645.49	6.31
645.676	6.42
645.862	6.55
646.049	6.79
646.235	6.83
646.421	7.06
646.607	7.19
646.793	7.21
646.979	7.19
647.165	7.46
647.352	7.53
647.538	7.69
647.724	7.74
647.91	7.92
648.096	8.08
648.282	8.3
648.468	8.38
648.654	8.6
648.84	8.6
649.026	8.82
649.212	8.78
649.397	9.05
649.583	9.22
649.769	9.33
649.955	9.49
650.141	9.76
650.327	9.72
650.513	9.99
650.698	10.17
650.884	10.16
651.07	10.48
651.256	10.51
651.442	10.79
651.627	10.77
651.813	11.2
651.999	11.16
652.184	11.33
652.37	11.54
652.556	11.64
652.741	11.87
652.927	11.85
653.113	12.12
653.298	12.34
653.484	12.41
653.669	12.63
653.855	12.75
654.04	13.07
654.226	13.03
654.412	13.22
654.597	13.25
654.782	13.46
654.968	13.76
655.153	13.89
655.339	14
655.524	14.12
655.71	14.42
655.895	14.55
656.08	14.72
656.266	14.91
656.451	14.74
656.636	15.01
656.822	15.09
657.007	15.34
657.192	15.44
657.378	15.52
657.563	15.41
657.748	15.64
657.933	15.81
658.118	15.46
658.304	16.03
658.489	15.98
658.674	15.98
658.859	15.92
659.044	15.92
659.229	15.86
659.414	15.94
659.599	15.97
659.785	15.73
659.97	15.62
660.155	15.57
660.34	15.55
660.525	15.28
660.71	15.04
660.895	15.05
661.08	14.8
661.264	14.46
661.449	14.38
661.634	13.9
661.819	13.96
662.004	13.43
662.189	13.27
662.374	12.98
662.559	12.63
662.743	12.28
662.928	12.04
663.113	11.65
663.298	11.32
663.483	11.11
663.667	10.73
663.852	10.43
664.037	10.25
664.221	9.8
664.406	9.57
664.591	9.21
664.775	8.92
664.96	8.72
665.145	8.26
665.329	8.12
665.514	7.68
665.698	7.4
665.883	7.17
666.068	7.02
666.252	6.72
666.437	6.46
666.621	6.2
666.806	6.07
666.99	5.8
667.174	5.53
667.359	5.41
667.543	5.2
667.728	5.01
667.912	4.81
668.096	4.58
668.281	4.43
668.465	4.38
668.649	4.09
668.834	3.99
669.018	3.95
669.202	3.8
669.387	3.62
669.571	3.56
669.755	3.35
669.939	3.24
670.124	3.13
670.308	3.08
670.492	3.02
670.676	2.84
670.86	2.72
671.044	2.59
671.228	2.62
671.413	2.47
671.597	2.37
671.781	2.3
671.965	2.31
672.149	2.2
672.333	2.12
672.517	2.04
672.701	2.03
672.885	1.89
673.069	1.71
673.253	1.82
673.437	1.69
673.621	1.67
673.804	1.63
673.988	1.63
674.172	1.47
674.356	1.36
674.54	1.44
674.724	1.42
674.908	1.29
675.091	1.37
675.275	1.28
675.459	1.25
675.643	1.21
675.826	1.13
676.01	1.11
676.194	1.07
676.377	1.07
676.561	1.04
676.745	0.97
676.928	0.96
677.112	0.96
677.296	0.87
677.479	0.86
677.663	0.81
677.846	0.82
678.03	0.74
678.213	0.71
678.397	0.74
678.58	0.67
678.764	0.67
678.947	0.59
679.131	0.63
679.314	0.67
679.498	0.6
679.681	0.6
679.865	0.62
680.048	0.51
680.231	0.51
680.415	0.51
680.598	0.5
680.781	0.46
680.965	0.48
681.148	0.51
681.331	0.46
681.514	0.42
681.698	0.38
681.881	0.46
682.064	0.4
682.247	0.41
682.43	0.33
682.614	0.43
682.797	0.46
682.98	0.36
683.163	0.3
683.346	0.38
683.529	0.3
683.712	0.32
683.895	0.33
684.078	0.27
684.261	0.31
684.444	0.32
684.627	0.34
684.81	0.24
684.993	0.26
685.176	0.33
685.359	0.23
685.542	0.21
685.725	0.31
685.908	0.23
686.091	0.26
686.274	0.31
686.457	0.27
686.639	0.22
686.822	0.25
687.005	0.23
687.188	0.22
687.371	0.3
687.553	0.22
687.736	0.24
687.919	0.3
688.102	0.24
688.284	0.21
688.467	0.18
688.65	0.19
688.832	0.15
689.015	0.21
689.197	0.09
689.38	0.27
689.563	0.28
689.745	0.15
689.928	0.12
690.11	0.2
690.293	0.17
690.475	0.14
690.658	0.14
690.84	0.14
691.023	0.2
691.205	0.16
691.388	0.16
691.57	0.18
691.752	0.16
691.935	0.08
692.117	0.1
692.3	0.18
692.482	0.13
692.664	0.12
692.847	0.16
693.029	0.19
693.211	0.15
693.393	0.11
693.576	0.13
693.758	0.11
693.94	0.08
694.122	0.08
694.304	0.13
694.487	0.06
694.669	0.21
694.851	0.09
695.033	0.13
695.215	0.07
695.397	0.08
695.579	0.16
695.761	0.14
695.943	0
696.125	0.18
696.308	0.14
696.49	-0
696.671	0.19
696.853	0.08
697.035	0.15
697.217	0.07
697.399	0.13
697.581	0.04
697.763	0.05
697.945	0.03
698.127	0.14
698.309	0.15
698.491	0.11
698.672	0.12
698.854	0.09
699.036	0.17
699.218	0.05
699.399	0.07
699.581	0.13
699.763	0.11
699.945	0.04
700.126	0.04
700.308	0.09
700.49	0.09
700.671	0.01
700.853	0.07
701.035	0.06
701.216	0.08
701.398	0.04
701.579	0.12
701.761	0.08
701.943	0.02
702.124	0.02
702.306	0.06
702.487	0.21
702.669	0.03
702.85	0.05
703.031	0.02
703.213	0.17
703.394	0.13
703.576	0.09
703.757	0.13
703.938	0.09
704.12	0.23
704.301	0.1
704.483	0.01
704.664	0.09
704.845	0.14
705.026	0.07
705.208	0.1
705.389	0.1
705.57	0.13
705.751	0.06
705.933	0.08
706.114	0.06
706.295	0.05
706.476	0.02
706.657	0.12
706.838	0.07
707.02	0.16
707.201	0.03
707.382	0.03
707.563	0.1
707.744	-0.03
707.925	0.08
708.106	-0.04
708.287	0.1
708.468	0.13
708.649	0.03
708.83	0.14
709.011	0.01
709.192	0.16
709.373	0.02
709.554	0.07
709.734	0.09
709.915	0.13
710.096	0.06
710.277	-0.06
710.458	0.01
710.639	0.1
710.819	-0.01
711	0.04
711.181	0.07
711.362	0.09
711.542	0.07
711.723	0.04
711.904	0.12
712.085	0.07
712.265	0.06
712.446	-0.01
712.627	0.02
712.807	0.11
712.988	0.04
713.168	-0.02
713.349	0.07
713.53	-0.09
713.71	-0.05
713.891	0.01
714.071	0.15
714.252	-0.01
714.432	0.02
714.613	-0.03
714.793	0.09
714.974	0.12
715.154	0.13
715.334	0.12
715.515	0.09
715.695	-0.02
715.876	0.07
716.056	0.07
716.236	0.05
716.417	-0.05
716.597	0.05
716.777	0.18
716.957	0.04
717.138	0.05
717.318	0.07
717.498	-0.01
717.678	0.06
717.859	0.09
718.039	-0.09
718.219	0.08
718.399	0.1
718.579	-0.04
718.759	-0.06
718.939	0.06
719.12	0.09
719.3	0.02
719.48	-0.1
719.66	-0.05
719.84	0.09
720.02	0.07
720.2	0.01
720.38	0.09
720.56	0.13
720.74	0.07
720.92	-0.02
721.1	0.08
721.279	0.15
721.459	0.05
721.639	-0.05
721.819	0.05
721.999	-0.02
722.179	0.04
722.359	-0.04
722.538	0.07
722.718	0.09
722.898	-0.05
723.078	0.04
723.257	0.08
723.437	0.04
723.617	0.02
723.797	0
723.976	-0.02
724.156	0.09
724.336	0.18
724.515	0.16
724.695	-0.08
724.874	0.02
725.054	0.13
725.234	-0.04
725.413	0.09
725.593	0.07
725.772	0.03
725.952	-0.02
726.131	0.06
726.311	-0.02
726.49	-0.02
726.67	-0.01
726.849	-0.02
727.028	0.08
727.208	0.05
727.387	0.08
727.567	-0.02
727.746	0.01
727.925	-0.03
728.105	-0.05
728.284	0.09
728.463	-0.14
728.643	0.13
728.822	-0.03
729.001	0.03
729.18	0
729.359	0.05
729.539	0.02
729.718	0.04
729.897	0.04
730.076	0.03
730.255	-0.01
730.434	0.01
730.614	0.07
730.793	0.14
730.972	0.08
731.151	0.05
731.33	0.09
731.509	0.01
731.688	-0.04
731.867	0.04
732.046	-0.06
732.225	0.21
732.404	-0.07
732.583	-0.1
732.762	0.07
732.941	0.12
733.12	0.03
733.298	0.01
733.477	0.16
733.656	0.06
733.835	-0.12
734.014	0.15
734.193	0.01
734.371	0.07
734.55	0.11
734.729	-0.13
734.908	0.09
735.086	0.05
735.265	0.13
735.444	-0.1
735.623	-0.06
735.801	-0.09
735.98	0.05
736.159	0.05
736.337	0.09
736.516	0.03
736.694	-0.03
736.873	-0.03
737.052	0.15
737.23	0.07
737.409	0.03
737.587	0.21
737.766	-0.12
737.944	-0.04
738.123	0.09
738.301	-0
738.479	-0.06
738.658	0.04
738.836	-0.09
739.015	0.12
739.193	0.15
739.371	-0.03
739.55	0.03
739.728	-0.03
739.906	0.14
740.085	0.08
740.263	-0.08
740.441	-0.12
740.62	0.25
740.798	0.07
740.976	0.04
741.154	-0.04
741.332	0.2
741.511	-0.06
741.689	0.03
741.867	0.15
742.045	-0.03
742.223	0.09
742.401	-0
742.579	-0.06
742.757	0
742.935	-0.07
743.114	-0.04
743.292	-0.04
743.47	0.08
743.648	0.1
743.826	0.01
744.004	0.05
744.181	0.08
744.359	-0.02
744.537	-0.01
744.715	-0.05
744.893	0.17
745.071	0.01
745.249	-0.15
745.427	-0.02
745.605	0.11
745.782	0.03
745.96	0.11
746.138	-0
746.316	0.11
746.493	0.01
746.671	0.13
746.849	-0.02
747.027	0.1
747.204	-0.11
747.382	0.01
747.56	-0.05
747.737	0.14
747.915	-0.06
748.093	0.11
748.27	0.01
748.448	-0.04
748.625	-0.1
748.803	-0.03
748.98	0.06
749.158	-0
749.335	0.16
749.513	0.07
749.69	0.01
749.868	0.05
750.045	0
750.223	-0.06
750.4	-0.12
750.578	0.2
750.755	0.06
750.932	-0.18
751.11	0.06
751.287	-0.1
751.464	0.06
751.642	-0.01
751.819	0.09
751.996	-0.02
752.173	-0.07
752.351	-0.02
752.528	0.2
752.705	0.02
752.882	-0.09
753.06	0.09
753.237	0.14
753.414	0.14
753.591	0.12
753.768	0.04
753.945	-0.03
754.122	0.02
754.299	0.15
754.476	-0.14
754.654	0.12
754.831	0.05
755.008	0.07
755.185	0.02
755.362	-0.1
755.539	-0.03
755.716	0
755.892	0.05
756.069	0.03
756.246	-0.05
756.423	0.03
756.6	0.12
756.777	-0.06
756.954	0.16
757.131	-0.02
757.307	-0.08
757.484	0.03
757.661	0.11
757.838	0.02
758.015	-0.11
758.191	0.1
758.368	0.07
758.545	0.23
758.721	0.15
758.898	-0.08
759.075	0.05
759.251	0.1
759.428	0.1
759.605	-0.02
759.781	0.05
759.958	0.12
760.134	0.1
760.311	0.02
760.488	0.07
760.664	0.19
760.841	0.03
761.017	-0.09
761.194	0.16
761.37	0.07
761.547	0.19
761.723	0.04
761.899	0.11
762.076	-0.02
762.252	-0.06
762.429	-0.04
762.605	0.14
762.781	0.08
762.958	0.17
763.134	-0.04
763.31	-0.02
763.486	0.04
763.663	-0.2
763.839	0.11
764.015	-0.09
764.191	0.04
764.368	0.02
764.544	-0.03
764.72	0.07
764.896	0.13
765.072	-0.03
765.248	0
765.425	-0.02
765.601	0.1
765.777	0.04
765.953	-0.08
766.129	-0.01
766.305	-0.03
766.481	0.13
766.657	0.01
766.833	0.23
767.009	-0.17
767.185	-0
767.361	-0.03
767.537	-0
767.713	0.17
767.889	-0.08
768.065	-0.06
768.24	-0.1
768.416	0.1
768.592	0.01
768.768	0.09
768.944	0.19
769.12	-0.1
769.295	-0.01
769.471	-0.17
769.647	0.09
769.823	0.08
769.998	0.02
770.174	-0.19
770.35	0.37
770.525	0.31
770.701	0.04
770.877	0.03
771.052	-0.01
771.228	0.03
771.403	0.09
771.579	0.03
771.755	0.3
771.93	-0.02
772.106	-0.18
772.281	-0.2
772.457	-0.03
772.632	0.06
772.808	-0.15
772.983	0.07
773.159	-0.18
773.334	0.2
773.509	-0.01
773.685	-0.04
773.86	0.33
774.036	0.11
774.211	0.11
774.386	-0.1
774.562	-0.07
774.737	-0.12
774.912	-0.1
775.087	0.2
775.263	0.06
775.438	-0.02
775.613	-0.2
775.788	-0.01
775.964	0.08
776.139	0.34
776.314	-0.12
776.489	0.06
776.664	0.16
776.839	-0.09
777.014	0.13
777.19	0.09
777.365	0.23
777.54	0.26
777.715	-0.11
777.89	-0.03
778.065	-0.04
778.24	0.19
778.415	0.21
778.59	-0.13
778.765	0.05
778.94	-0.05
779.115	-0.06
779.289	-0.16
779.464	-0.02
779.639	0.09
779.814	-0.2
779.989	-0.08
780.164	0.25
780.339	0.12
780.513	-0.12
780.688	-0.11
780.863	0.01
781.038	0.05
781.212	-0.14
781.387	-0.08
781.562	0.25
781.737	-0.13
781.911	0.24
782.086	0.02
782.261	0.11
782.435	0.18
782.61	-0.15
782.784	0.05
782.959	0.14
783.134	0.03
783.308	-0.38
783.483	0.02
783.657	0.36
783.832	0.17
784.006	-0.34
784.181	-0.2
784.355	0.18
784.53	-0.25
784.704	-0.03
784.878	0.34
785.053	0.19
785.227	0.03
785.402	0.11
785.576	-0.26
785.75	-0.07
785.925	-0.2
786.099	0.27
786.273	0.21
786.448	0.47
786.622	0.14
786.796	-0.12
786.97	-0.08
787.145	0.49
787.319	-0.21
787.493	-0
787.667	-0.39
787.841	-0.08
788.015	0.18
788.19	-0.02
788.364	0.08
788.538	0.15
788.712	0.19
788.886	-0.03
789.06	0.21
789.234	0.1
789.408	-0.2
789.582	-0.08
789.756	-0.13
789.93	-0.18
790.104	0.05
790.278	0.02
790.452	-0.13
790.626	0.35
790.8	0.03
790.973	0.35
791.147	0.16
791.321	0.24
791.495	0.14
791.669	0.03
791.843	0.25
792.016	0.14
792.19	0.29
792.364	-0.29
792.538	0.58
792.711	0.41
792.885	-0.12
793.059	-0.3
793.233	-0.37
793.406	0.23
793.58	0.09
793.754	0.11
793.927	0.04
794.101	0.27
794.274	-0.01
794.448	0.2
794.622	0
794.795	0.27
794.969	-0.12
795.142	0.21
795.316	-0.13
795.489	0.04
795.663	0.37
795.836	-0.2
796.009	-0.21
796.183	0.38
796.356	0.08
796.53	0.05
796.703	-0.05
796.876	0.58
797.05	-0.06
797.223	-0
797.396	0.1
797.57	-0
797.743	0.45
797.916	0.18
798.09	-0.1
798.263	0.28
798.436	-0.01
798.609	0.28
798.782	0.16
798.956	-0.15
799.129	0.2
799.302	0.04
799.475	-0.25
799.648	-0.29
799.821	-0.26
799.994	0.06
800.167	-0.41
800.34	-0.08
800.514	0.15
800.687	-0.06
800.86	-0.02
801.033	0.03
801.206	0.24
801.379	-0.19
801.551	0.51
801.724	-0.07
801.897	0.02
802.07	-0.08
802.243	-0.16
802.416	0
802.589	-0.06
802.762	0.31
802.935	0.25
803.107	0.48
803.28	0.32
803.453	0.25
803.626	-0.28
803.798	0.1
803.971	0
804.144	0.19
804.317	0.22
804.489	0.21
804.662	-0.17
804.835	-0.06
805.007	-0.21
805.18	0.48
805.353	0.25
805.525	-0.25
805.698	0.1
805.87	0.16
806.043	0.16
806.215	-0.23
806.388	0.08
806.56	-0.06
806.733	0.39
806.905	0.17
807.078	-0.32
807.25	-0.03
807.423	0.05
807.595	-0.16
807.768	-0.1
807.94	0.42
808.112	0.39
808.285	-0.06
808.457	-0.12
808.629	-0.06
808.802	0.19
808.974	-0.1
809.146	-0.01
809.318	-0.11
809.491	0.22
809.663	0.32
809.835	0.06
810.007	0.3
810.18	0.27
810.352	-0.32
810.524	0.01
810.696	0.1
810.868	0.4
811.04	-0.25
811.212	-0.24
811.384	0.52
811.556	0.09
811.728	-0.16
811.901	0.72
812.073	-0.01
812.245	0.34
812.417	0.34
812.589	-0.38
812.76	-0.12
812.932	0.01
813.104	0.39
813.276	-0.11
813.448	0.66
813.62	0.02
813.792	0.09
813.964	0.12
814.136	0.06
814.307	0.04
814.479	-0.35
814.651	-0.12
814.823	0.53
814.995	0.06
815.166	0.18
815.338	-0.29
815.51	-0.16
815.681	0.7
815.853	0.24
816.025	-0.19
816.196	0.51
816.368	0.56
816.54	-0.71
816.711	-0.45
816.883	0.28
817.054	0.78
817.226	-0.29
817.398	-0.17
817.569	-0.18
817.741	0.21
817.912	-0.19
818.084	-0.05
818.255	-0.19
818.426	0.01
818.598	0.43
818.769	-0.47
818.941	-0.21
819.112	0.7
819.283	-0.12
819.455	-0.29
819.626	0.07
819.798	0.17
819.969	0.46
820.14	-0.01
820.311	-0.42
820.483	-0.12
820.654	0.51
820.825	-0.19
820.996	0.48
821.168	-0.24
821.339	-0.39
821.51	-0.43
821.681	-0.37
821.852	0.32
822.023	-0.02
822.195	-0.44
822.366	0.18
822.537	-0.09
822.708	-0.21
822.879	-0.25
823.05	0.71
823.221	-0.53
823.392	0.15
823.563	-0.04
823.734	0.09
823.905	-0.08
824.076	0.11
824.247	-0.59
824.418	-0.67
824.589	0.97
824.759	0.06
824.93	-0.21
825.101	-0.02
825.272	0.04
825.443	0.57
825.614	0.22
825.784	-0.12
825.955	0.84
826.126	0.49
826.297	-0.23
826.467	0.99
826.638	1.08
826.809	-0.71
826.98	-0.18
827.15	-0.31
827.321	-0.08
827.492	0.63
827.662	0.04
827.833	1.29
828.003	0.07
828.174	-0.6
828.345	-0.62
828.515	0.35
828.686	0.58
828.856	0.05
829.027	0.2
829.197	0.35
829.368	0.02
829.538	-0.32
829.709	-0.27
829.879	0.43
830.049	-0.13
830.22	-0.28
830.39	-0.02
830.56	0.8
830.731	-0.71
830.901	-0.07
831.072	0.39
831.242	0.19
831.412	0.05
831.582	-0.2
831.753	-0.92
831.923	0.44
832.093	0.01
832.263	0.52
832.434	-0.54
832.604	-0.44
832.774	0.13
832.944	-0.35
833.114	0.13
833.284	0.87
833.454	-0.69
833.624	-0.48
833.795	0.05
833.965	0.94
834.135	0.18
834.305	-0.48
834.475	-0.5
834.645	-0.03
834.815	-0.74
834.985	-0.62
835.155	-0.05
835.325	0.61
835.494	0.67
835.664	-0.37
835.834	-0.46
836.004	-0.33
836.174	0.45
836.344	-0.34
836.514	-0.63
836.684	0.29
836.853	0.06
837.023	0.2
837.193	0.31
837.363	0.84
837.532	0.27
837.702	-0.82
837.872	-0.77
838.041	0.51
838.211	1.7
838.381	-0.4
838.55	0.18
838.72	1.66
838.89	1.69
839.059	0
839.229	-0.44
839.398	2.05
839.568	0.5
839.738	-0.39
839.907	0.73
840.077	0.44
840.246	-0.03
840.416	-0.02
840.585	-0.56
840.755	1.21
840.924	0.35
841.093	-0.65
841.263	-0.16
841.432	0.93
841.602	-0.62
841.771	-1.09
841.94	0.37
842.11	2.02
842.279	1.41
842.448	-0.53
842.617	-0.83
842.787	0.82
842.956	-0.25
843.125	-0.08
843.294	1.18
843.464	1.08
843.633	0.14
843.802	-0.54
843.971	0.65
844.14	1.24
844.309	1.39
844.479	-0.36
844.648	-1.12
844.817	0.45
844.986	0.2
845.155	-0.12
845.324	-0.17
845.493	-0.2
845.662	-1.25
845.831	0.75
846	0
846.169	-0.44
846.338	1.28
846.507	0.9
846.676	-0.15
846.844	-0.66
847.013	0.09
847.182	-0.31
847.351	-0.09
847.52	0.27
847.689	0.22
847.858	-0.25
848.026	0.85
848.195	0.93
848.364	0.09
848.533	-0.92
848.701	-0.67
848.87	0.53
849.039	1.02
849.207	1.51
849.376	0.82
849.545	0.58
849.713	-0.1
849.882	-0.1
850.051	0.4
850.219	-0.02
850.388	0.48
850.556	-0.61
850.725	0.08
850.893	0.44
851.062	-0.1
851.23	0.96
851.399	-0.67
851.567	0.03
851.736	0.34
851.904	-0.52
852.073	-0.14
852.241	1.13
852.41	0.48
852.578	-0.14
852.746	-0.51
852.915	0.7
853.083	-0.02
853.251	0.11
853.42	-0.4
853.588	0.1
853.756	1.89
853.924	1.1
854.093	0.35
854.261	-0.14
854.429	-0.86
854.597	0.54
854.765	-0.55
854.934	0.9
855.102	1.15
855.27	-0.17
855.438	0.92
855.606	0.73
855.774	1.57
855.942	-1.33
856.11	-1.77
856.278	0.13
856.446	-0.35
856.614	-0.27
856.782	-0.78
856.95	0.27
857.118	0.36
857.286	-0.08
857.454	-0.84
857.622	1.38
857.79	1.09
857.958	-0.42
858.126	0.12
858.294	-0.98
858.462	0.38
858.629	0.3
858.797	-0.24
858.965	0.97
859.133	0.44
859.301	-1.38
859.468	0.84
859.636	-1.41
859.804	1.9
859.971	0.68
860.139	-1.06
860.307	0.38
860.474	0.53
860.642	-0.27
860.81	-1.14
860.977	-0.31
861.145	1.59
861.313	0.29
861.48	0.8
861.648	1.54
861.815	0.85
861.983	-1.63
862.15	1.29
862.318	1.45
862.485	1.22
862.653	-0.19
862.82	-1.42
862.988	2.06
863.155	0.19
863.322	-0.8
863.49	-0.2
863.657	-1.1
863.824	1.02
863.992	0.82
864.159	0.09
864.326	0.67
864.494	-1.56
864.661	2.97
864.828	0.43
864.996	2.17
865.163	1.44
865.33	-0.4
865.497	-1.96
865.664	0.72
865.832	-2.59
865.999	-0.57
866.166	-0.74
866.333	-1.09
866.5	0.09
866.667	0.3
866.834	0.36
867.001	0.82
867.168	-1.89
867.335	-0.56
867.502	-1.05
867.669	1.29
867.836	2.43
868.003	0.88
868.17	1.59
868.337	1.71
868.504	1.69
868.671	-1.47
868.838	0.09
869.005	0.4
869.172	0.36
869.339	-0.33
869.505	-0.75
869.672	0.3
869.839	1.34
870.006	0.62
870.173	-1.7
870.339	1
870.506	1.9
870.673	-0.76
870.84	1.49
871.006	1.73
871.173	-0.11
871.34	1.23
871.506	-0.82
871.673	0.47
871.839	-1.78
872.006	1.2
872.173	-1.38
872.339	0.38
872.506	1.18
872.672	0.65
872.839	-1.78
873.005	1.6
873.172	1.55
873.338	1.05
873.505	0.79
873.671	-0.47
873.838	1.7
874.004	-1.68
874.171	-2.08
874.337	-0.46
874.503	0.35
874.67	-1
874.836	-0.41
875.002	3.04
875.169	2.14
875.335	-0.08
875.501	-1.77
875.668	0.02
875.834	-0.6
876	-1.08
876.166	1.34
876.332	1.76
876.499	1.9
876.665	-0.79
876.831	0.5
876.997	2.03
877.163	1.47
877.329	-2.52
877.495	1.61
877.662	0.39
877.828	0.72
877.994	-1.1
878.16	-3.14
878.326	-1.94
878.492	-0.15
878.658	-0.76
878.824	0.75
878.99	1.16
879.156	0.08
879.322	1.85
879.487	-0.45
879.653	-0.2
879.819	-1.21
879.985	-1.54
880.151	-0.02
880.317	-0.45
880.483	0.68
880.648	1.33
880.814	-3.64
880.98	-0.6
881.146	-2.44
881.312	0.3
881.477	-0.33
881.643	1
881.809	2.56
881.974	0.4
882.14	-1.67
882.306	0.98
882.471	2.11
882.637	-1.41
882.803	0.94
882.968	3.82
883.134	5.3
883.299	-0.22
883.465	-1.32
883.63	2.65
883.796	2.67
883.961	1.81
884.127	2.27
884.292	-3.88
884.458	-2.4
884.623	-2.39
