Data from Apollo_Calib_20240827__AbsoluteIrradiance__207__02-36-02-193.txt Node

Date: Wed Aug 28 02:36:02 BST 2024
User: biology
Spectrometer: FLMT08252
Trigger mode: 0
Integration Time (sec): 5.000000E-1
Scans to average: 5
Electric dark correction enabled: true
Nonlinearity correction enabled: false
Boxcar width: 0
XAxis mode: Wavelengths
Number of Pixels in Spectrum: 3648
>>>>>Begin Spectral Data<<<<<
179.588	-0
179.809	-0
180.03	-0
180.251	-0
180.473	-0
180.694	0
180.915	0
181.136	-0
181.357	0
181.578	-0
181.799	-0
182.02	-0
182.241	0
182.462	-0
182.683	0
182.904	-0
183.125	-0
183.346	0
183.567	0
183.788	0
184.009	-0
184.23	0
184.451	0
184.672	-0
184.892	-0
185.113	0
185.334	0
185.555	-0
185.776	-0
185.996	0
186.217	0
186.438	0
186.659	-0
186.879	0
187.1	0
187.321	-0
187.541	-0
187.762	0
187.983	0
188.203	0
188.424	0
188.644	0
188.865	0
189.086	0
189.306	0
189.527	0
189.747	0
189.968	-0
190.188	0
190.409	0
190.629	0
190.849	0
191.07	-0
191.29	0
191.511	0
191.731	-0
191.951	-0
192.172	-0
192.392	0
192.612	0
192.833	0
193.053	0
193.273	0
193.493	0
193.714	-0
193.934	0
194.154	0
194.374	0
194.594	0
194.815	0
195.035	0
195.255	0
195.475	-0
195.695	0
195.915	0
196.135	0
196.355	0
196.575	0
196.795	0
197.015	-0
197.235	-0
197.455	0
197.675	0
197.895	-0
198.115	-0
198.335	0
198.555	0
198.775	-0
198.995	0
199.214	0
199.434	0
199.654	-0
199.874	0
200.094	1.71
200.313	0.05
200.533	0.05
200.753	-1.15
200.973	1.31
201.192	0.69
201.412	-0.62
201.632	0.12
201.851	1.3
202.071	-0.49
202.291	-0.34
202.51	-0.53
202.73	0.88
202.95	0.09
203.169	-0.71
203.389	0.38
203.608	0.25
203.828	-0.03
204.047	-0.16
204.267	0.32
204.486	0.65
204.706	0.46
204.925	-0.06
205.145	-0.03
205.364	0.5
205.583	0.86
205.803	-0.15
206.022	-0.18
206.242	0.17
206.461	-0.13
206.68	-0.43
206.9	0.04
207.119	0.96
207.338	0.95
207.557	-0.06
207.777	0.01
207.996	0.11
208.215	0.37
208.434	0.11
208.654	-0.2
208.873	0.1
209.092	0.52
209.311	-0.07
209.53	0.1
209.749	0.03
209.968	-0.31
210.187	-0.14
210.407	-0.59
210.626	0.05
210.845	0.51
211.064	0.19
211.283	-0.2
211.502	0.39
211.721	0.27
211.94	0.04
212.159	0.39
212.377	0.26
212.596	0.61
212.815	0.21
213.034	0.31
213.253	0.34
213.472	0.17
213.691	-0.1
213.91	-0.11
214.128	-0.09
214.347	0.44
214.566	-0.13
214.785	-0.15
215.003	0.46
215.222	0.13
215.441	0.19
215.66	-0.2
215.878	0.03
216.097	0.38
216.316	-0.17
216.534	-0.15
216.753	0.32
216.972	0.05
217.19	0.02
217.409	-0.2
217.627	-0.06
217.846	0.11
218.064	0.06
218.283	0.05
218.501	0.58
218.72	0.31
218.938	-0.19
219.157	0
219.375	0.23
219.594	-0.02
219.812	-0.16
220.031	-0.21
220.249	0.55
220.467	0.38
220.686	-0.05
220.904	-0.11
221.122	-0.05
221.341	0.46
221.559	0.09
221.777	-0.05
221.995	-0.05
222.214	0.14
222.432	0.01
222.65	0.21
222.868	0.19
223.086	0.22
223.305	0.34
223.523	0.12
223.741	0.3
223.959	0.08
224.177	-0.19
224.395	-0.04
224.613	0.19
224.831	0.35
225.049	-0.16
225.267	-0.08
225.485	0.11
225.703	0.03
225.921	-0.01
226.139	-0.04
226.357	0.24
226.575	0.13
226.793	-0
227.011	0.88
227.229	-0.01
227.447	0.29
227.665	-0.07
227.883	-0.13
228.1	0.14
228.318	0.22
228.536	-0.18
228.754	-0.03
228.972	0.12
229.189	0.21
229.407	0.04
229.625	0.05
229.843	0.25
230.06	0.19
230.278	-0
230.496	-0.02
230.713	0.12
230.931	0.31
231.149	0
231.366	-0.15
231.584	-0.03
231.801	0.45
232.019	0.02
232.236	-0.24
232.454	-0.09
232.671	0.23
232.889	0.04
233.106	-0.06
233.324	0.13
233.541	-0.06
233.759	-0.03
233.976	-0.11
234.194	-0.04
234.411	0.04
234.628	0.04
234.846	0.01
235.063	-0.03
235.28	0.01
235.498	0.04
235.715	-0.01
235.932	0.22
236.149	0.01
236.367	-0.07
236.584	0.16
236.801	0.1
237.018	0.16
237.236	0.03
237.453	-0.1
237.67	0.24
237.887	0.05
238.104	0
238.321	-0.01
238.538	-0.1
238.755	0.2
238.973	-0.09
239.19	0.05
239.407	-0
239.624	0.05
239.841	-0.05
240.058	-0.03
240.275	0.12
240.492	0
240.709	0.06
240.925	-0.05
241.142	0.08
241.359	-0.02
241.576	-0.03
241.793	-0.03
242.01	-0.01
242.227	0.16
242.444	0.14
242.66	0.12
242.877	0.01
243.094	-0.02
243.311	0.07
243.527	-0
243.744	0.08
243.961	0.05
244.178	-0.05
244.394	0.04
244.611	0.22
244.828	0.22
245.044	-0.05
245.261	-0
245.477	0.04
245.694	0.11
245.911	-0.01
246.127	0.06
246.344	0.19
246.56	0.19
246.777	-0.02
246.993	-0
247.21	0.06
247.426	0.2
247.643	-0.07
247.859	-0.07
248.076	-0
248.292	0.27
248.508	0.01
248.725	0
248.941	0.06
249.157	0.19
249.374	0.01
249.59	0.05
249.806	0.06
250.023	0.28
250.239	-0.05
250.455	-0.07
250.671	0.1
250.888	0.05
251.104	0.04
251.32	0.02
251.536	-0.01
251.752	0.07
251.969	0.08
252.185	0.02
252.401	0.22
252.617	0.11
252.833	-0.01
253.049	-0.03
253.265	0.05
253.481	0.04
253.697	0.04
253.913	-0
254.129	0.06
254.345	0.01
254.561	0.01
254.777	0.01
254.993	0.15
255.209	0.11
255.425	0.04
255.641	-0.05
255.857	0.18
256.073	0.06
256.288	-0.06
256.504	0.03
256.72	0.07
256.936	0.21
257.152	0.01
257.367	-0.09
257.583	0.04
257.799	0.08
258.015	-0.05
258.23	0
258.446	0.2
258.662	0.05
258.877	0.02
259.093	0.02
259.309	0.02
259.524	0.07
259.74	0.06
259.955	-0.04
260.171	0.08
260.387	0.04
260.602	0.09
260.818	0.08
261.033	-0.02
261.249	-0.01
261.464	0.01
261.68	-0.06
261.895	0.11
262.11	0.09
262.326	0
262.541	-0.04
262.757	0.15
262.972	0.08
263.187	0.04
263.403	0.07
263.618	0.14
263.833	0.03
264.049	-0.04
264.264	0.04
264.479	0.14
264.694	0.12
264.91	-0
265.125	0.03
265.34	0.04
265.555	0.25
265.77	0.03
265.986	0.02
266.201	0.07
266.416	0.15
266.631	0
266.846	0.02
267.061	0.05
267.276	0.13
267.491	-0.06
267.706	0.09
267.921	0.13
268.136	0.08
268.351	0.06
268.566	-0.06
268.781	0.13
268.996	0.12
269.211	0.07
269.426	-0.06
269.641	0.01
269.856	0.11
270.071	0.04
270.285	-0.08
270.5	0.06
270.715	0.19
270.93	-0.07
271.145	0.06
271.359	0.14
271.574	0.04
271.789	0
272.004	-0.06
272.218	-0.01
272.433	0.11
272.648	-0
272.862	0.13
273.077	0.14
273.292	0.08
273.506	-0.03
273.721	0
273.936	0.12
274.15	0.17
274.365	0.02
274.579	0.05
274.794	0.07
275.008	0.17
275.223	-0.07
275.437	-0.01
275.652	0.16
275.866	0.09
276.081	0.03
276.295	0.08
276.509	0.04
276.724	0.04
276.938	0
277.153	0.05
277.367	0.09
277.581	0.01
277.796	0.01
278.01	-0.03
278.224	0.16
278.438	0.21
278.653	-0.04
278.867	0.01
279.081	-0.14
279.295	0.02
279.51	0.01
279.724	-0.07
279.938	0.09
280.152	0.08
280.366	-0.03
280.58	0.03
280.794	0.15
281.008	0.07
281.222	0.1
281.437	0.13
281.651	0.08
281.865	0.17
282.079	0.04
282.293	-0.07
282.507	-0.03
282.721	0.08
282.935	0.05
283.148	-0.05
283.362	-0.02
283.576	-0.07
283.79	0.03
284.004	0.03
284.218	0.1
284.432	0.03
284.646	0.07
284.859	0.02
285.073	0.06
285.287	0.06
285.501	0.06
285.714	0.01
285.928	0.05
286.142	0.02
286.356	0.01
286.569	-0.04
286.783	0.15
286.997	0.11
287.21	0.08
287.424	0
287.637	0
287.851	0.01
288.065	0.07
288.278	0.05
288.492	0.03
288.705	0.02
288.919	0.02
289.132	-0.06
289.346	0.11
289.559	-0.02
289.773	-0
289.986	0
290.2	-0.01
290.413	0.05
290.626	-0.03
290.84	0.01
291.053	0.05
291.267	0.03
291.48	0.1
291.693	0.06
291.906	0.03
292.12	0.08
292.333	-0
292.546	0.06
292.76	0.1
292.973	0.05
293.186	0.09
293.399	0.03
293.612	0.13
293.826	0.05
294.039	0.08
294.252	0.04
294.465	0.07
294.678	0.1
294.891	0.04
295.104	0.01
295.317	-0
295.53	0.06
295.743	0.02
295.956	0.04
296.169	0.12
296.382	0.08
296.595	0.03
296.808	0
297.021	0.1
297.234	0.09
297.447	0.05
297.66	0.06
297.873	0.09
298.086	0.13
298.299	0.03
298.511	-0.06
298.724	0.04
298.937	-0.02
299.15	0.03
299.363	0.02
299.575	0.08
299.788	0.04
300.001	0.03
300.213	-0.01
300.426	0.03
300.639	-0.01
300.852	-0.01
301.064	0.08
301.277	0.08
301.489	0.08
301.702	0.09
301.915	0.03
302.127	0.02
302.34	0.01
302.552	0.07
302.765	-0.02
302.977	0.09
303.19	0.04
303.402	0.05
303.615	0.01
303.827	0.04
304.04	0.06
304.252	0.09
304.464	0.03
304.677	0.16
304.889	0.09
305.102	0.04
305.314	-0.03
305.526	0.07
305.739	0.14
305.951	-0.01
306.163	0.05
306.375	0.09
306.588	-0.02
306.8	0.03
307.012	-0.03
307.224	0.05
307.436	0.11
307.649	0.01
307.861	0.04
308.073	0.09
308.285	0.03
308.497	-0.02
308.709	0.03
308.921	0.08
309.133	0.08
309.346	0.05
309.558	0.03
309.77	0.08
309.982	0.09
310.194	0.08
310.406	0.04
310.617	0.12
310.829	0.06
311.041	0.06
311.253	0.03
311.465	0.03
311.677	0.06
311.889	0.05
312.101	-0
312.313	0.1
312.524	0.1
312.736	-0.02
312.948	0.05
313.16	0.13
313.372	0.08
313.583	0.06
313.795	0.04
314.007	0.04
314.218	0.1
314.43	0.03
314.642	0.01
314.853	0.03
315.065	0.08
315.277	0.03
315.488	0.09
315.7	0.1
315.912	0.1
316.123	0.03
316.335	0
316.546	0.19
316.758	0.06
316.969	0.03
317.181	0.04
317.392	0.06
317.604	0.14
317.815	-0.02
318.026	0.03
318.238	0.03
318.449	0.07
318.661	-0.01
318.872	0.03
319.083	0.01
319.295	0.03
319.506	0.02
319.717	0.03
319.929	0.08
320.14	0.1
320.351	0.02
320.562	0.01
320.774	0.05
320.985	0.05
321.196	-0.01
321.407	-0.01
321.618	0.09
321.829	0.03
322.041	0.05
322.252	0.04
322.463	0.06
322.674	0.09
322.885	-0.01
323.096	0.02
323.307	0.02
323.518	0.07
323.729	0.01
323.94	0.03
324.151	0.01
324.362	0.08
324.573	0.1
324.784	0
324.995	0.1
325.206	0.07
325.417	0.01
325.628	0.04
325.838	0.09
326.049	0.08
326.26	0.12
326.471	0.04
326.682	0.07
326.892	0.03
327.103	0.01
327.314	0
327.525	0.14
327.735	0.03
327.946	-0.02
328.157	0.01
328.368	0.11
328.578	0.06
328.789	0.11
328.999	0.07
329.21	0.03
329.421	0.12
329.631	0.02
329.842	0.03
330.052	0.07
330.263	0.09
330.473	0.06
330.684	0.07
330.894	0.06
331.105	0.03
331.315	0.02
331.526	0
331.736	0.14
331.947	0.12
332.157	0.08
332.367	-0
332.578	0.1
332.788	0.11
332.999	0.05
333.209	0.06
333.419	0.02
333.629	0.11
333.84	0.09
334.05	0.07
334.26	0.14
334.47	0.04
334.681	0.15
334.891	0.02
335.101	0.1
335.311	0.16
335.521	0.02
335.732	-0.01
335.942	0.1
336.152	0.11
336.362	0.07
336.572	0.07
336.782	0.12
336.992	0.05
337.202	0.01
337.412	0.01
337.622	0.07
337.832	0.08
338.042	0.05
338.252	-0.01
338.462	0.03
338.672	0.06
338.882	0.05
339.092	0.03
339.302	0.09
339.511	0.14
339.721	-0.01
339.931	0
340.141	0.11
340.351	0.12
340.561	0.09
340.77	0.05
340.98	0.04
341.19	0.1
341.4	0.05
341.609	0.01
341.819	0.06
342.029	0.02
342.238	0.07
342.448	0.01
342.658	0.1
342.867	0.01
343.077	0.06
343.286	0.05
343.496	0.07
343.706	0.17
343.915	0
344.125	0.08
344.334	0.12
344.544	0.03
344.753	0.06
344.963	0.03
345.172	0.01
345.381	0.07
345.591	0.03
345.8	0.05
346.01	0.11
346.219	0.11
346.428	-0.05
346.638	0.05
346.847	0.05
347.056	0.13
347.266	0.03
347.475	0.05
347.684	0.08
347.893	0.12
348.103	0.08
348.312	0.04
348.521	0.06
348.73	0.07
348.94	0.04
349.149	0.03
349.358	0.09
349.567	0.05
349.776	-0.02
349.985	0.03
350.194	0.13
350.403	0.11
350.612	-0.02
350.821	0.05
351.03	0.1
351.239	0.01
351.448	0.1
351.657	0.05
351.866	0.16
352.075	0.1
352.284	0.05
352.493	0.01
352.702	0.15
352.911	0.08
353.12	0.06
353.329	0.03
353.538	0.1
353.746	0.07
353.955	0.05
354.164	0.1
354.373	0.04
354.582	0.15
354.79	0.08
354.999	0.09
355.208	0.02
355.416	0.13
355.625	0.02
355.834	0.05
356.042	0.08
356.251	0.05
356.46	0.03
356.668	0.09
356.877	0.16
357.085	0.11
357.294	0
357.503	0.08
357.711	0.03
357.92	0.21
358.128	0.07
358.337	0.05
358.545	0.09
358.754	0.04
358.962	0.11
359.17	0.04
359.379	0.11
359.587	0.09
359.796	0.06
360.004	0.11
360.212	0.12
360.421	0.12
360.629	0.07
360.837	0.03
361.046	0.14
361.254	0.17
361.462	0.07
361.67	0
361.879	0.07
362.087	0.13
362.295	0.09
362.503	0.05
362.711	0.01
362.92	0.01
363.128	0.05
363.336	0.04
363.544	0.05
363.752	0.06
363.96	0.04
364.168	0.04
364.376	0.09
364.584	0.11
364.792	0.12
365	0.08
365.208	0.09
365.416	0.08
365.624	0.1
365.832	0.06
366.04	0.11
366.248	0.1
366.456	0.06
366.664	0.1
366.872	0.08
367.079	0.07
367.287	0.04
367.495	0.1
367.703	0.12
367.911	0.05
368.118	0.05
368.326	0.11
368.534	0.04
368.742	0.11
368.949	0.02
369.157	0.05
369.365	0.1
369.572	0.07
369.78	0.07
369.988	0.16
370.195	0.12
370.403	0.14
370.61	0.08
370.818	0.06
371.026	0.11
371.233	0.08
371.441	0.11
371.648	0.05
371.856	0.07
372.063	0.14
372.271	0.06
372.478	0.06
372.685	0.08
372.893	0.13
373.1	0.04
373.308	0.06
373.515	0.2
373.722	0.16
373.93	0.13
374.137	0.15
374.344	0.18
374.552	0.16
374.759	0.11
374.966	0.13
375.173	0.1
375.381	0.16
375.588	0.12
375.795	0.03
376.002	0.1
376.209	0.07
376.417	0.12
376.624	0.11
376.831	0.11
377.038	0.11
377.245	0.07
377.452	0.14
377.659	0.16
377.866	0.08
378.073	0.07
378.28	0.13
378.487	0.14
378.694	0.18
378.901	0.13
379.108	0.13
379.315	0.23
379.522	0.2
379.729	0.13
379.936	0.11
380.143	0.18
380.35	0.1
380.557	0.15
380.763	0.16
380.97	0.14
381.177	0.17
381.384	0.2
381.591	0.08
381.797	0.19
382.004	0.24
382.211	0.18
382.418	0.19
382.624	0.23
382.831	0.22
383.038	0.17
383.244	0.21
383.451	0.2
383.658	0.29
383.864	0.23
384.071	0.22
384.277	0.3
384.484	0.22
384.69	0.33
384.897	0.23
385.103	0.22
385.31	0.26
385.516	0.31
385.723	0.23
385.929	0.37
386.136	0.25
386.342	0.35
386.549	0.33
386.755	0.39
386.961	0.45
387.168	0.43
387.374	0.45
387.58	0.51
387.787	0.49
387.993	0.55
388.199	0.47
388.406	0.55
388.612	0.55
388.818	0.55
389.024	0.56
389.231	0.62
389.437	0.73
389.643	0.72
389.849	0.74
390.055	0.8
390.261	0.8
390.467	0.85
390.674	0.87
390.88	0.96
391.086	1.01
391.292	0.98
391.498	1.16
391.704	1.19
391.91	1.2
392.116	1.16
392.322	1.18
392.528	1.4
392.734	1.37
392.94	1.49
393.146	1.52
393.352	1.62
393.557	1.65
393.763	1.72
393.969	1.89
394.175	1.92
394.381	2.06
394.587	2.04
394.792	2.25
394.998	2.49
395.204	2.58
395.41	2.57
395.615	2.68
395.821	2.84
396.027	3.01
396.233	3.21
396.438	3.35
396.644	3.7
396.85	3.75
397.055	3.93
397.261	4.09
397.466	4.39
397.672	4.39
397.878	4.71
398.083	4.73
398.289	4.86
398.494	5.06
398.7	5.31
398.905	5.39
399.111	5.81
399.316	5.83
399.522	6.06
399.727	6.29
399.932	6.64
400.138	6.7
400.343	7.15
400.549	7.25
400.754	7.73
400.959	8.04
401.165	8.46
401.37	8.8
401.575	9.42
401.78	9.47
401.986	9.8
402.191	10.18
402.396	10.64
402.601	11.07
402.807	11.39
403.012	11.66
403.217	12.55
403.422	12.5
403.627	13.22
403.832	13.7
404.037	13.91
404.243	14
404.448	14.56
404.653	15.1
404.858	15.4
405.063	15.17
405.268	15.89
405.473	16.01
405.678	16.41
405.883	17.07
406.088	17.1
406.293	17.23
406.498	17.73
406.703	17.5
406.907	18.24
407.112	18.7
407.317	19.24
407.522	19.5
407.727	19.84
407.932	19.98
408.136	20.42
408.341	20
408.546	20.04
408.751	20.32
408.956	20.06
409.16	20.44
409.365	20.38
409.57	19.78
409.774	19.87
409.979	19.74
410.184	19.49
410.388	19.5
410.593	19.48
410.798	19.39
411.002	19.51
411.207	18.96
411.411	18.88
411.616	18.41
411.82	18.44
412.025	17.93
412.229	17.69
412.434	17.25
412.638	16.85
412.843	16.45
413.047	15.91
413.252	15.53
413.456	15.7
413.66	15.05
413.865	14.69
414.069	14.06
414.273	14.03
414.478	13.45
414.682	13.16
414.886	12.84
415.091	12.44
415.295	12.14
415.499	12.05
415.703	11.47
415.908	11.38
416.112	10.98
416.316	10.9
416.52	10.49
416.724	10.15
416.929	9.93
417.133	9.96
417.337	9.51
417.541	9.45
417.745	9.07
417.949	8.82
418.153	8.76
418.357	8.62
418.561	8.51
418.765	8.2
418.969	8.1
419.173	8.04
419.377	7.71
419.581	7.73
419.785	7.53
419.989	7.26
420.193	7.33
420.397	7.07
420.601	6.93
420.804	6.79
421.008	6.55
421.212	6.51
421.416	6.18
421.62	5.98
421.823	5.75
422.027	5.69
422.231	5.43
422.435	5.22
422.638	5.01
422.842	4.94
423.046	4.89
423.249	4.82
423.453	4.61
423.657	4.48
423.86	4.4
424.064	4.3
424.268	4.21
424.471	3.95
424.675	3.99
424.878	3.9
425.082	3.76
425.285	3.86
425.489	3.56
425.692	3.53
425.896	3.3
426.099	3.34
426.303	3.17
426.506	3.17
426.71	3.13
426.913	3.15
427.116	3.06
427.32	2.91
427.523	2.78
427.726	2.88
427.93	2.77
428.133	2.81
428.336	2.66
428.54	2.63
428.743	2.64
428.946	2.64
429.149	2.45
429.353	2.4
429.556	2.33
429.759	2.26
429.962	2.14
430.165	2.18
430.368	1.98
430.571	1.96
430.775	1.94
430.978	1.85
431.181	1.84
431.384	1.81
431.587	1.73
431.79	1.77
431.993	1.76
432.196	1.63
432.399	1.72
432.602	1.74
432.805	1.61
433.008	1.69
433.211	1.54
433.414	1.67
433.616	1.58
433.819	1.55
434.022	1.44
434.225	1.6
434.428	1.54
434.631	1.58
434.833	1.45
435.036	1.35
435.239	1.46
435.442	1.31
435.645	1.35
435.847	1.3
436.05	1.35
436.253	1.27
436.455	1.19
436.658	1.17
436.861	1.27
437.063	1.16
437.266	1.11
437.468	1.12
437.671	1.24
437.874	1.08
438.076	0.99
438.279	1.02
438.481	1.04
438.684	1.01
438.886	1.04
439.089	0.93
439.291	0.94
439.494	1
439.696	0.93
439.899	0.93
440.101	1.01
440.303	0.86
440.506	0.97
440.708	1.01
440.91	0.96
441.113	0.84
441.315	0.95
441.517	0.75
441.72	0.87
441.922	0.74
442.124	0.71
442.326	0.83
442.529	0.85
442.731	0.74
442.933	0.82
443.135	0.75
443.337	0.6
443.539	0.69
443.742	0.63
443.944	0.7
444.146	0.58
444.348	0.62
444.55	0.58
444.752	0.57
444.954	0.57
445.156	0.58
445.358	0.51
445.56	0.63
445.762	0.56
445.964	0.52
446.166	0.51
446.368	0.44
446.57	0.59
446.772	0.49
446.974	0.46
447.175	0.47
447.377	0.5
447.579	0.49
447.781	0.41
447.983	0.51
448.184	0.41
448.386	0.47
448.588	0.38
448.79	0.46
448.991	0.39
449.193	0.43
449.395	0.38
449.597	0.43
449.798	0.43
450	0.4
450.202	0.44
450.403	0.39
450.605	0.4
450.806	0.41
451.008	0.33
451.21	0.36
451.411	0.37
451.613	0.37
451.814	0.38
452.016	0.41
452.217	0.39
452.419	0.39
452.62	0.38
452.821	0.37
453.023	0.44
453.224	0.4
453.426	0.32
453.627	0.34
453.828	0.37
454.03	0.34
454.231	0.35
454.432	0.26
454.634	0.45
454.835	0.27
455.036	0.25
455.238	0.34
455.439	0.41
455.64	0.27
455.841	0.32
456.042	0.44
456.244	0.39
456.445	0.24
456.646	0.25
456.847	0.28
457.048	0.38
457.249	0.42
457.45	0.59
457.651	0.26
457.852	0.37
458.054	0.3
458.255	0.28
458.456	0.35
458.657	0.33
458.858	0.27
459.058	0.31
459.259	0.34
459.46	0.32
459.661	0.32
459.862	0.46
460.063	0.31
460.264	0.38
460.465	0.24
460.666	0.46
460.866	0.31
461.067	0.33
461.268	0.23
461.469	0.3
461.67	0.3
461.87	0.28
462.071	0.31
462.272	0.29
462.473	0.27
462.673	0.34
462.874	0.25
463.075	0.27
463.275	0.24
463.476	0.33
463.676	0.32
463.877	0.28
464.078	0.3
464.278	0.28
464.479	0.28
464.679	0.3
464.88	0.3
465.08	0.41
465.281	0.26
465.481	0.28
465.682	0.28
465.882	0.28
466.083	0.28
466.283	0.28
466.483	0.25
466.684	0.21
466.884	0.26
467.085	0.23
467.285	0.33
467.485	0.25
467.686	0.26
467.886	0.21
468.086	0.25
468.286	0.25
468.487	0.28
468.687	0.22
468.887	0.23
469.087	0.29
469.287	0.22
469.488	0.19
469.688	0.25
469.888	0.28
470.088	0.29
470.288	0.29
470.488	0.31
470.688	0.2
470.888	0.19
471.088	0.22
471.288	0.27
471.488	0.27
471.688	0.24
471.888	0.21
472.088	0.3
472.288	0.23
472.488	0.21
472.688	0.18
472.888	0.24
473.088	0.25
473.288	0.26
473.488	0.21
473.688	0.25
473.887	0.21
474.087	0.19
474.287	0.23
474.487	0.16
474.687	0.24
474.886	0.21
475.086	0.2
475.286	0.19
475.486	0.18
475.685	0.14
475.885	0.19
476.085	0.21
476.284	0.21
476.484	0.17
476.684	0.22
476.883	0.27
477.083	0.17
477.282	0.16
477.482	0.23
477.681	0.25
477.881	0.16
478.08	0.15
478.28	0.13
478.479	0.17
478.679	0.23
478.878	0.13
479.078	0.11
479.277	0.15
479.477	0.13
479.676	0.21
479.875	0.16
480.075	0.08
480.274	0.19
480.473	0.18
480.673	0.11
480.872	0.16
481.071	0.17
481.271	0.19
481.47	0.14
481.669	0.11
481.868	0.17
482.067	0.13
482.267	0.11
482.466	0.11
482.665	0.1
482.864	0.07
483.063	0.07
483.262	0.16
483.461	0.18
483.661	0.15
483.86	0.11
484.059	0.13
484.258	0.14
484.457	0.13
484.656	0.1
484.855	0.14
485.054	0.09
485.253	0.1
485.452	0.07
485.651	0.13
485.849	0.13
486.048	0.1
486.247	0.1
486.446	0.14
486.645	0.05
486.844	0.1
487.043	0.09
487.241	0.14
487.44	0.08
487.639	0.1
487.838	0.14
488.037	0.11
488.235	0.18
488.434	0.09
488.633	0.1
488.831	0.09
489.03	0.13
489.229	0.12
489.427	0.09
489.626	0.15
489.825	0.15
490.023	0.09
490.222	0.09
490.42	0.12
490.619	0.15
490.817	0.13
491.016	0.09
491.214	0.14
491.413	0.11
491.611	0.1
491.81	0.09
492.008	0.13
492.207	0.13
492.405	0.11
492.604	0.05
492.802	0.1
493	0.12
493.199	0.08
493.397	0.1
493.595	0.08
493.794	0.08
493.992	0.14
494.19	0.09
494.388	0.1
494.587	0.06
494.785	0.1
494.983	0.06
495.181	0.09
495.379	0.11
495.578	0.08
495.776	0.12
495.974	0.1
496.172	0.06
496.37	0.08
496.568	0.05
496.766	0.08
496.964	0.13
497.162	0.09
497.36	0.07
497.558	0.11
497.756	0.13
497.954	0.09
498.152	0.05
498.35	0.1
498.548	0.07
498.746	0.11
498.944	0.05
499.142	0.07
499.34	0.05
499.538	0.08
499.736	0.06
499.933	0.11
500.131	0.1
500.329	0.08
500.527	0.13
500.725	0.12
500.922	0.11
501.12	0.11
501.318	0.09
501.516	0.05
501.713	0.1
501.911	0.07
502.109	0.03
502.306	0.09
502.504	0.07
502.701	0.08
502.899	0.07
503.097	0.13
503.294	0.1
503.492	0.08
503.689	0.06
503.887	0.09
504.084	0.13
504.282	0.08
504.479	0.04
504.677	0.08
504.874	0.07
505.072	0.07
505.269	0.06
505.466	0.1
505.664	0.1
505.861	0.04
506.059	0.06
506.256	0.11
506.453	0.06
506.651	0.1
506.848	0.09
507.045	0.08
507.242	0.06
507.44	0.07
507.637	0.07
507.834	0.07
508.031	0.1
508.229	0.06
508.426	0.06
508.623	0.08
508.82	0.06
509.017	0.04
509.214	0.05
509.411	0.08
509.608	0.06
509.805	0.05
510.003	0.04
510.2	0.05
510.397	0.08
510.594	0.04
510.791	0.06
510.988	0.04
511.184	0.09
511.381	0.06
511.578	0.04
511.775	0.08
511.972	0.04
512.169	0.06
512.366	0.07
512.563	0.08
512.76	0.05
512.956	0.05
513.153	0.04
513.35	0.07
513.547	0.05
513.744	0.04
513.94	0.01
514.137	0.08
514.334	0.06
514.53	0.06
514.727	0.06
514.924	0.11
515.12	0.04
515.317	0.03
515.514	0.03
515.71	0.02
515.907	0.04
516.103	0.07
516.3	0.06
516.497	0.09
516.693	0.09
516.89	0.06
517.086	0.03
517.283	0.04
517.479	0.06
517.676	0.04
517.872	0.03
518.068	0.02
518.265	0.06
518.461	0.04
518.658	0.03
518.854	0.09
519.05	0.03
519.247	0.04
519.443	0.08
519.639	0.05
519.836	0.06
520.032	0.03
520.228	0.08
520.424	0.1
520.621	0.07
520.817	0.07
521.013	0.06
521.209	0.04
521.405	0.1
521.601	0.05
521.798	0.04
521.994	0.1
522.19	0.03
522.386	0.02
522.582	0.03
522.778	0.05
522.974	0.03
523.17	0.03
523.366	0.06
523.562	0.07
523.758	0.04
523.954	0.01
524.15	0.02
524.346	0.06
524.542	0.04
524.738	0.02
524.934	0.05
525.129	0.04
525.325	0.03
525.521	0.02
525.717	0.07
525.913	0.04
526.109	0.04
526.304	0.06
526.5	0.05
526.696	0.04
526.892	0.05
527.087	0.04
527.283	0.02
527.479	0.05
527.674	0.04
527.87	0.05
528.066	0.03
528.261	0.07
528.457	0.05
528.653	0.03
528.848	0.01
529.044	0.06
529.239	0.05
529.435	0.07
529.63	0.05
529.826	0.1
530.021	0.05
530.217	0.09
530.412	0.02
530.608	0.02
530.803	0.05
530.999	0.04
531.194	-0.01
531.389	0.06
531.585	-0.02
531.78	0.01
531.975	0.04
532.171	0.05
532.366	0.05
532.561	0.03
532.757	0
532.952	0.04
533.147	0.07
533.342	0.05
533.538	0.03
533.733	0.07
533.928	0.03
534.123	0.01
534.318	0.02
534.513	0.04
534.709	0.04
534.904	0.02
535.099	0.03
535.294	0.03
535.489	0.05
535.684	0.02
535.879	0.01
536.074	0.06
536.269	0.01
536.464	0.06
536.659	0.04
536.854	0.04
537.049	0.05
537.244	0.03
537.439	0.01
537.634	0.07
537.828	0.04
538.023	0.03
538.218	-0.02
538.413	0.02
538.608	0.01
538.803	0.04
538.997	-0.03
539.192	0.06
539.387	0.05
539.582	0.03
539.776	0.04
539.971	0.03
540.166	0.03
540.36	0.01
540.555	0.03
540.75	0.01
540.944	0.05
541.139	-0.02
541.334	0.02
541.528	0.04
541.723	0.04
541.917	-0
542.112	-0.02
542.306	0.03
542.501	0.02
542.695	0.03
542.89	0.02
543.084	0.03
543.279	0.02
543.473	0.03
543.668	0.04
543.862	0.04
544.056	0.05
544.251	0.04
544.445	0.04
544.64	0.02
544.834	0
545.028	0.05
545.222	0.04
545.417	0.05
545.611	0.03
545.805	0.03
546	0.01
546.194	0.02
546.388	0.01
546.582	0.06
546.776	0.03
546.97	0.03
547.165	0.05
547.359	0.04
547.553	0.01
547.747	0.02
547.941	0.01
548.135	0.01
548.329	0.05
548.523	0.03
548.717	0.02
548.911	0.02
549.105	0.03
549.299	0.03
549.493	0.05
549.687	0.01
549.881	0.04
550.075	0.03
550.269	0.01
550.463	0.03
550.657	0.01
550.85	0.03
551.044	0.02
551.238	0.03
551.432	0.02
551.626	0.01
551.82	0.03
552.013	0.01
552.207	0.03
552.401	0.07
552.594	0.03
552.788	0.04
552.982	0.03
553.176	0.01
553.369	0.05
553.563	0.04
553.756	-0.02
553.95	-0
554.144	0.03
554.337	0.05
554.531	0.04
554.724	0.04
554.918	0.03
555.111	0.06
555.305	0.03
555.498	0.07
555.692	0.06
555.885	-0
556.079	0.04
556.272	-0.01
556.466	0.06
556.659	0.03
556.852	0.02
557.046	0.03
557.239	0.06
557.432	-0
557.626	0.02
557.819	0.03
558.012	0.02
558.206	0.04
558.399	0.03
558.592	0.06
558.785	0.01
558.979	0.03
559.172	0.03
559.365	0.03
559.558	0.04
559.751	0.04
559.944	-0.01
560.138	0.03
560.331	0.02
560.524	0.02
560.717	0.02
560.91	0.02
561.103	0.05
561.296	0.04
561.489	0.03
561.682	0.02
561.875	0.04
562.068	0.04
562.261	0.04
562.454	0.05
562.647	0.03
562.84	0.03
563.032	0.02
563.225	0.02
563.418	0.02
563.611	0.02
563.804	0.03
563.997	-0.01
564.19	-0.01
564.382	0.01
564.575	0.02
564.768	-0.02
564.961	0.01
565.153	-0.01
565.346	0.04
565.539	0.05
565.731	0.03
565.924	0.07
566.117	0.05
566.309	0.01
566.502	0.02
566.695	0.02
566.887	0
567.08	0
567.272	0.01
567.465	0.02
567.657	0.01
567.85	0.05
568.042	0.03
568.235	0.04
568.427	0.03
568.62	0.02
568.812	0.03
569.005	0.03
569.197	-0.02
569.389	0.03
569.582	0.04
569.774	0.01
569.966	0
570.159	0.01
570.351	0.02
570.543	-0.01
570.736	-0.01
570.928	-0
571.12	0.04
571.312	-0.01
571.505	-0.01
571.697	0.04
571.889	-0.01
572.081	0.02
572.273	-0.04
572.465	0.05
572.658	0.01
572.85	0.04
573.042	0.02
573.234	0.03
573.426	0.04
573.618	0.01
573.81	0.02
574.002	0.05
574.194	0.05
574.386	-0.03
574.578	-0.05
574.77	-0.01
574.962	0.01
575.154	0.02
575.346	0.01
575.538	0.03
575.729	-0.02
575.921	-0
576.113	-0
576.305	0.04
576.497	-0
576.689	0.01
576.88	-0.01
577.072	0.03
577.264	0.01
577.456	0
577.647	-0.06
577.839	0.01
578.031	0.05
578.223	0
578.414	-0.01
578.606	0.03
578.798	0.01
578.989	0
579.181	0.03
579.372	0.02
579.564	0.01
579.755	0.01
579.947	0.01
580.139	0.04
580.33	-0.02
580.522	-0
580.713	-0.05
580.905	0.01
581.096	0.03
581.287	0
581.479	0
581.67	0.04
581.862	0.01
582.053	-0.02
582.244	-0.03
582.436	-0.01
582.627	0.02
582.818	-0.03
583.01	-0.03
583.201	0.04
583.392	0.06
583.583	0.01
583.775	-0.01
583.966	0
584.157	0.02
584.348	0.02
584.54	-0.03
584.731	0.05
584.922	0.02
585.113	-0.01
585.304	0.01
585.495	0.08
585.686	0
585.877	0.01
586.068	0.05
586.259	0.04
586.45	0.05
586.641	-0.03
586.832	-0.03
587.023	0.03
587.214	0.01
587.405	0.03
587.596	-0.01
587.787	0.07
587.978	0.05
588.169	-0.02
588.36	-0
588.551	0.01
588.742	-0
588.932	-0.01
589.123	-0.01
589.314	0.05
589.505	0.04
589.696	0.04
589.886	0
590.077	-0.02
590.268	0.01
590.458	-0.03
590.649	-0.01
590.84	0.06
591.03	-0.01
591.221	-0.03
591.412	-0.04
591.602	0.04
591.793	0.05
591.984	-0.01
592.174	-0
592.365	0.07
592.555	-0.02
592.746	0.04
592.936	0.05
593.127	0.02
593.317	0.06
593.508	-0
593.698	-0.01
593.889	0.02
594.079	0.02
594.269	-0.01
594.46	0.02
594.65	0
594.84	0.01
595.031	-0
595.221	-0.01
595.411	-0.02
595.602	0.02
595.792	0.01
595.982	-0
596.172	0.07
596.363	0.03
596.553	-0.01
596.743	0
596.933	0.01
597.123	0.04
597.314	-0
597.504	-0.01
597.694	0.07
597.884	0.04
598.074	0
598.264	-0.01
598.454	0.01
598.644	0.02
598.834	-0
599.024	-0.04
599.214	0.02
599.404	0.02
599.594	-0.03
599.784	-0.05
599.974	0.09
600.164	0.03
600.354	-0.01
600.544	-0.03
600.734	0.03
600.924	0.05
601.114	0
601.303	-0
601.493	0.01
601.683	0
601.873	0.01
602.063	-0.05
602.252	0.07
602.442	-0.09
602.632	-0.03
602.821	-0.01
603.011	0.04
603.201	0.01
603.39	-0.01
603.58	-0.02
603.77	0.06
603.959	0.05
604.149	0.01
604.339	-0.01
604.528	0.02
604.718	0.04
604.907	-0.02
605.097	-0
605.286	-0.02
605.476	0.05
605.665	0.03
605.855	0
606.044	0.06
606.234	-0
606.423	-0.01
606.612	-0.05
606.802	0
606.991	0.01
607.181	0
607.37	-0.03
607.559	-0.01
607.749	-0.04
607.938	0
608.127	0.01
608.316	-0.02
608.506	0.01
608.695	-0
608.884	-0.02
609.073	-0.02
609.263	0.03
609.452	0.01
609.641	0.03
609.83	-0.02
610.019	0.03
610.208	-0.01
610.397	0.01
610.586	0.05
610.775	0.01
610.965	-0.02
611.154	-0.01
611.343	0.01
611.532	0.01
611.721	-0.03
611.91	-0.03
612.099	0.04
612.287	-0.02
612.476	-0.02
612.665	0.02
612.854	-0.02
613.043	0.04
613.232	0
613.421	-0.03
613.61	0.05
613.798	-0.02
613.987	0.03
614.176	0.02
614.365	0.05
614.554	0.02
614.742	0.02
614.931	-0
615.12	0.06
615.309	0.01
615.497	-0.01
615.686	-0.04
615.875	-0.02
616.063	-0
616.252	-0.03
616.44	-0.04
616.629	0.03
616.818	0.05
617.006	-0.01
617.195	-0
617.383	0.03
617.572	-0
617.76	-0.04
617.949	0
618.137	0.03
618.326	0.04
618.514	-0.02
618.703	-0.01
618.891	0.04
619.079	-0.05
619.268	0.03
619.456	-0.02
619.644	0.03
619.833	-0
620.021	-0.01
620.209	-0.05
620.398	0.03
620.586	0.01
620.774	0
620.962	-0.01
621.151	0.05
621.339	0.02
621.527	-0.08
621.715	-0.01
621.903	-0.01
622.092	-0.07
622.28	0.02
622.468	-0.01
622.656	0
622.844	0.04
623.032	-0.03
623.22	-0.04
623.408	0.05
623.596	0.03
623.784	0.01
623.972	-0.01
624.16	-0.02
624.348	0.05
624.536	0.01
624.724	-0.02
624.912	0.04
625.1	0.02
625.288	-0.01
625.476	-0.02
625.664	0.06
625.851	-0.04
626.039	0
626.227	0.02
626.415	0.01
626.603	-0.04
626.79	-0.01
626.978	0
627.166	0.02
627.354	-0.01
627.541	-0.01
627.729	-0.03
627.917	0.01
628.104	0.06
628.292	-0.01
628.48	0.01
628.667	0.03
628.855	-0.02
629.042	-0.02
629.23	-0.03
629.418	0.01
629.605	-0.04
629.793	-0.03
629.98	-0.04
630.168	0.01
630.355	0.01
630.543	0.02
630.73	-0.04
630.917	0.05
631.105	0.05
631.292	-0.02
631.48	-0.05
631.667	0.1
631.854	0.03
632.042	-0.01
632.229	-0.05
632.416	0.04
632.604	0
632.791	-0.05
632.978	0.02
633.165	0.03
633.353	0.08
633.54	0.03
633.727	-0.05
633.914	-0
634.101	-0.08
634.289	0.02
634.476	-0.01
634.663	-0.02
634.85	0.03
635.037	-0.04
635.224	-0.04
635.411	0.03
635.598	0.05
635.785	0.01
635.972	-0.03
636.159	0.03
636.346	-0.03
636.533	0.02
636.72	-0.01
636.907	0.01
637.094	0.02
637.281	-0.01
637.468	0
637.655	0.01
637.842	0.02
638.029	-0.02
638.215	0.02
638.402	0.02
638.589	-0.07
638.776	-0.02
638.963	-0.02
639.149	0.03
639.336	0.07
639.523	0.01
639.709	0
639.896	-0.01
640.083	0.06
640.27	0.02
640.456	-0.01
640.643	0.03
640.829	-0.05
641.016	0.02
641.203	-0.04
641.389	0.06
641.576	0.03
641.762	0.01
641.949	-0.03
642.135	0.03
642.322	-0.01
642.508	-0.03
642.695	-0.02
642.881	0
643.068	0.01
643.254	-0.01
643.441	0.04
643.627	0.02
643.813	-0.03
644	0.04
644.186	-0.02
644.372	-0.01
644.559	0.03
644.745	0.01
644.931	-0.04
645.118	-0.01
645.304	0.01
645.49	-0.03
645.676	-0.03
645.862	-0.02
646.049	0.05
646.235	0
646.421	0.03
646.607	0.07
646.793	-0.03
646.979	0
647.165	-0.01
647.352	0.02
647.538	0.08
647.724	-0.01
647.91	-0.02
648.096	0.02
648.282	0.04
648.468	0.01
648.654	-0.03
648.84	0.02
649.026	0.01
649.212	-0.04
649.397	-0.02
649.583	-0.03
649.769	0.03
649.955	-0.01
650.141	0.02
650.327	0.03
650.513	-0
650.698	0.04
650.884	-0.04
651.07	-0
651.256	0.02
651.442	-0.01
651.627	-0.01
651.813	-0.02
651.999	0.03
652.184	0.01
652.37	-0.03
652.556	-0.03
652.741	0.08
652.927	-0.07
653.113	-0.02
653.298	-0.01
653.484	-0.01
653.669	-0.06
653.855	0.01
654.04	0.01
654.226	0
654.412	-0.02
654.597	-0.03
654.782	0.02
654.968	0.07
655.153	0
655.339	-0.01
655.524	-0.02
655.71	0.04
655.895	-0.02
656.08	-0.01
656.266	0.05
656.451	0.04
656.636	-0.04
656.822	-0.01
657.007	-0.02
657.192	0.02
657.378	-0.04
657.563	0.02
657.748	0.01
657.933	-0
658.118	-0
658.304	-0
658.489	0.04
658.674	0.04
658.859	-0.02
659.044	-0
659.229	-0.02
659.414	-0.01
659.599	0.02
659.785	-0.07
659.97	-0.03
660.155	0.02
660.34	-0.01
660.525	-0.02
660.71	-0.03
660.895	0.03
661.08	-0.01
661.264	-0
661.449	0.11
661.634	0.05
661.819	0.01
662.004	0.03
662.189	-0.05
662.374	-0.01
662.559	-0.03
662.743	-0.04
662.928	0.02
663.113	-0.01
663.298	-0.07
663.483	0
663.667	0.01
663.852	-0.03
664.037	0.07
664.221	-0.02
664.406	0.05
664.591	0.01
664.775	-0.02
664.96	0.02
665.145	0.02
665.329	0.03
665.514	-0.05
665.698	-0.04
665.883	-0.06
666.068	0.06
666.252	0.01
666.437	-0.05
666.621	-0.03
666.806	0.04
666.99	-0
667.174	-0.01
667.359	0.05
667.543	-0
667.728	-0.01
667.912	-0.07
668.096	0.02
668.281	0.03
668.465	-0.05
668.649	-0.03
668.834	-0.07
669.018	-0.02
669.202	-0.04
669.387	-0.03
669.571	0.06
669.755	-0
669.939	0
670.124	-0.01
670.308	0.04
670.492	0.03
670.676	0
670.86	-0.04
671.044	-0.07
671.228	0.02
671.413	-0.06
671.597	-0.02
671.781	-0.02
671.965	-0.01
672.149	-0.01
672.333	-0.03
672.517	-0.02
672.701	0
672.885	-0.01
673.069	-0.06
673.253	0.04
673.437	-0.05
673.621	-0.06
673.804	0
673.988	-0.02
674.172	0.01
674.356	-0.03
674.54	-0
674.724	0.1
674.908	0.02
675.091	0.04
675.275	-0.04
675.459	0.07
675.643	0.01
675.826	0
676.01	0.02
676.194	-0.03
676.377	0.04
676.561	0.01
676.745	-0.02
676.928	0.04
677.112	0.04
677.296	-0.02
677.479	-0.05
677.663	-0.03
677.846	0.05
678.03	0.02
678.213	-0.02
678.397	0.03
678.58	-0.02
678.764	-0.02
678.947	-0.02
679.131	-0.07
679.314	0.06
679.498	-0.02
679.681	-0.01
679.865	0.07
680.048	0.03
680.231	-0.01
680.415	0
680.598	-0.01
680.781	0.01
680.965	-0.05
681.148	0.02
681.331	-0.01
681.514	0.02
681.698	-0.01
681.881	0.01
682.064	-0.01
682.247	0.01
682.43	-0.11
682.614	-0.01
682.797	0.05
682.98	0.03
683.163	-0.07
683.346	0.02
683.529	-0.01
683.712	-0.03
683.895	0.03
684.078	-0.04
684.261	-0.06
684.444	0
684.627	-0.01
684.81	-0.03
684.993	-0.02
685.176	0.02
685.359	-0.03
685.542	-0.02
685.725	0.05
685.908	0.05
686.091	-0.01
686.274	0.07
686.457	0.08
686.639	-0
686.822	0.04
687.005	-0.03
687.188	0.06
687.371	0.1
687.553	-0.01
687.736	0.01
687.919	0.07
688.102	0.07
688.284	-0.02
688.467	0.03
688.65	0.03
688.832	-0.01
689.015	-0.03
689.197	-0.02
689.38	0.11
689.563	0.09
689.745	-0.03
689.928	-0.07
690.11	-0.06
690.293	0.02
690.475	-0.07
690.658	0.01
690.84	-0.03
691.023	-0.03
691.205	0.01
691.388	-0.01
691.57	0
691.752	-0
691.935	-0.04
692.117	-0
692.3	0.01
692.482	0.01
692.664	0.02
692.847	0.03
693.029	0.06
693.211	0.05
693.393	-0
693.576	-0.08
693.758	-0.02
693.94	-0.02
694.122	-0.02
694.304	0.01
694.487	-0.04
694.669	0.04
694.851	-0.02
695.033	0.05
695.215	-0.01
695.397	-0.07
695.579	0.01
695.761	-0.09
695.943	-0.09
696.125	0.02
696.308	-0.02
696.49	-0.1
696.671	0.1
696.853	-0.02
697.035	0.18
697.217	0.03
697.399	0.05
697.581	-0.01
697.763	0.01
697.945	-0
698.127	0.02
698.309	0.03
698.491	-0
698.672	0.03
698.854	0.03
699.036	0.08
699.218	-0
699.399	0.02
699.581	0.07
699.763	-0.02
699.945	-0.02
700.126	-0.06
700.308	-0.02
700.49	0.01
700.671	-0.07
700.853	-0.06
701.035	-0.01
701.216	-0.03
701.398	-0.08
701.579	-0.04
701.761	0.05
701.943	-0.09
702.124	-0.02
702.306	-0.04
702.487	0.11
702.669	-0.02
702.85	-0.08
703.031	-0.09
703.213	0.04
703.394	0.03
703.576	-0.05
703.757	0.05
703.938	0.06
704.12	0.17
704.301	-0.02
704.483	-0.04
704.664	0.05
704.845	0.08
705.026	0.08
705.208	-0.02
705.389	-0.03
705.57	0.03
705.751	-0.08
705.933	-0.09
706.114	0.03
706.295	0.03
706.476	-0.01
706.657	0.09
706.838	0.07
707.02	0.02
707.201	0.02
707.382	-0.1
707.563	0.04
707.744	-0.03
707.925	-0.03
708.106	-0.01
708.287	0.03
708.468	0.09
708.649	0.03
708.83	0.08
709.011	-0.05
709.192	0
709.373	-0.04
709.554	0
709.734	0.03
709.915	0
710.096	-0
710.277	-0.12
710.458	-0.04
710.639	0.09
710.819	-0.06
711	-0.03
711.181	0.07
711.362	0.02
711.542	-0.02
711.723	-0.01
711.904	0.01
712.085	0.02
712.265	0.01
712.446	-0.12
712.627	-0
712.807	0.03
712.988	-0.04
713.168	-0.11
713.349	0.11
713.53	-0.15
713.71	-0.05
713.891	-0.07
714.071	0.01
714.252	-0.04
714.432	0.03
714.613	-0.16
714.793	-0.05
714.974	0.13
715.154	0.01
715.334	0.05
715.515	0.05
715.695	0.01
715.876	0.04
716.056	-0.06
716.236	-0.05
716.417	0
716.597	-0.04
716.777	0.09
716.957	0.01
717.138	-0.06
717.318	-0.05
717.498	-0.1
717.678	0.1
717.859	0.05
718.039	-0.08
718.219	0.02
718.399	0.01
718.579	0.02
718.759	-0.07
718.939	0.02
719.12	0.05
719.3	-0.04
719.48	-0.08
719.66	-0.14
719.84	0.06
720.02	-0.03
720.2	-0.02
720.38	-0.02
720.56	0.1
720.74	-0.02
720.92	-0.03
721.1	0.05
721.279	0.12
721.459	-0.07
721.639	-0.06
721.819	0.02
721.999	-0.02
722.179	0.05
722.359	-0.14
722.538	0.04
722.718	-0.05
722.898	-0.05
723.078	-0.06
723.257	-0.05
723.437	-0.08
723.617	-0.01
723.797	-0.01
723.976	-0.01
724.156	0.09
724.336	0.07
724.515	0.22
724.695	-0.13
724.874	-0.01
725.054	0.03
725.234	-0.07
725.413	0.04
725.593	-0.09
725.772	0.01
725.952	-0.06
726.131	-0.05
726.311	-0.1
726.49	-0.05
726.67	-0.09
726.849	-0.06
727.028	0.02
727.208	0.04
727.387	-0.02
727.567	-0.09
727.746	-0.04
727.925	-0.15
728.105	-0.05
728.284	-0.06
728.463	-0.03
728.643	0.08
728.822	-0.16
729.001	-0.05
729.18	-0.03
729.359	0.08
729.539	0.01
729.718	0.07
729.897	0.04
730.076	-0.04
730.255	-0.14
730.434	0.01
730.614	0.13
730.793	0.16
730.972	0.03
731.151	-0.02
731.33	0.06
731.509	0.01
731.688	-0.06
731.867	-0.08
732.046	-0.08
732.225	0.13
732.404	-0.12
732.583	-0.16
732.762	-0.07
732.941	0.11
733.12	0.04
733.298	-0.01
733.477	0.05
733.656	-0.01
733.835	-0.17
734.014	0.06
734.193	0.03
734.371	-0
734.55	-0.07
734.729	-0.07
734.908	-0.03
735.086	-0.01
735.265	0.05
735.444	-0.17
735.623	-0.15
735.801	-0.14
735.98	-0.1
736.159	-0.02
736.337	0.09
736.516	-0.06
736.694	-0.06
736.873	-0.09
737.052	0.17
737.23	0.11
737.409	-0.03
737.587	0.16
737.766	-0.18
737.944	-0.07
738.123	0.08
738.301	0.04
738.479	-0.02
738.658	-0
738.836	-0.24
739.015	0.01
739.193	0.06
739.371	-0.08
739.55	-0.07
739.728	-0.15
739.906	0.1
740.085	0.25
740.263	0.01
740.441	-0.24
740.62	0.12
740.798	0.04
740.976	-0.2
741.154	-0.14
741.332	0.18
741.511	-0.05
741.689	0.07
741.867	0.01
742.045	0.04
742.223	-0.09
742.401	-0.13
742.579	-0.07
742.757	0.06
742.935	-0.16
743.114	-0
743.292	-0.06
743.47	-0.01
743.648	0.07
743.826	0.05
744.004	0.12
744.181	-0.02
744.359	-0.02
744.537	-0.1
744.715	0.01
744.893	-0.01
745.071	-0.03
745.249	0.03
745.427	0.04
745.605	0.04
745.782	0.13
745.96	0.1
746.138	0.03
746.316	0.17
746.493	-0.01
746.671	-0.1
746.849	-0.03
747.027	0.19
747.204	-0.05
747.382	-0.03
747.56	-0.15
747.737	-0.02
747.915	-0.13
748.093	0.04
748.27	-0.08
748.448	-0.07
748.625	-0.17
748.803	-0.07
748.98	-0.09
749.158	-0.03
749.335	0.03
749.513	-0.07
749.69	-0.06
749.868	-0.03
750.045	0.1
750.223	-0.1
750.4	-0.2
750.578	0.12
750.755	0.03
750.932	-0.2
751.11	0.11
751.287	-0.1
751.464	0.17
751.642	-0.13
751.819	0.09
751.996	0.02
752.173	-0.06
752.351	-0.1
752.528	-0
752.705	-0.07
752.882	-0.08
753.06	-0.05
753.237	-0.04
753.414	0.23
753.591	0.24
753.768	-0.09
753.945	-0.12
754.122	-0.04
754.299	0.18
754.476	-0.07
754.654	-0.05
754.831	0.1
755.008	-0
755.185	-0.07
755.362	-0.06
755.539	0
755.716	-0.1
755.892	-0.07
756.069	0.01
756.246	-0.04
756.423	-0.14
756.6	0.07
756.777	-0.08
756.954	0.06
757.131	-0.08
757.307	-0.18
757.484	-0.03
757.661	-0.03
757.838	0.04
758.015	-0.03
758.191	0.03
758.368	0.03
758.545	0.16
758.721	0.1
758.898	-0.14
759.075	0.04
759.251	0.16
759.428	0.02
759.605	-0.22
759.781	-0.08
759.958	0.13
760.134	0.08
760.311	-0.2
760.488	0.14
760.664	0.18
760.841	0.03
761.017	-0.24
761.194	0.11
761.37	0.15
761.547	0.09
761.723	0.02
761.899	0.09
762.076	-0.1
762.252	-0.16
762.429	-0.1
762.605	-0.02
762.781	-0.02
762.958	0.01
763.134	-0.01
763.31	-0.07
763.486	0.12
763.663	-0.19
763.839	-0.01
764.015	-0.17
764.191	-0.08
764.368	0.05
764.544	-0.06
764.72	0.03
764.896	0.2
765.072	-0.02
765.248	-0.09
765.425	-0.01
765.601	-0.08
765.777	0.02
765.953	-0.19
766.129	-0.14
766.305	-0.04
766.481	0.1
766.657	0.09
766.833	0.25
767.009	-0.16
767.185	-0
767.361	-0.15
767.537	-0.19
767.713	0.2
767.889	-0.1
768.065	-0.11
768.24	0.1
768.416	0.11
768.592	-0.06
768.768	0.01
768.944	0.11
769.12	-0.1
769.295	-0.12
769.471	-0.08
769.647	-0
769.823	0.02
769.998	-0.15
770.174	-0.25
770.35	0.41
770.525	0.16
770.701	0.05
770.877	-0.06
771.052	-0.22
771.228	0.15
771.403	0.1
771.579	0
771.755	0.37
771.93	-0.14
772.106	-0.13
772.281	-0.2
772.457	0.03
772.632	0.04
772.808	-0.25
772.983	0.07
773.159	-0.12
773.334	0.21
773.509	0.07
773.685	-0.02
773.86	0.34
774.036	0.24
774.211	0.07
774.386	-0.07
774.562	-0.1
774.737	0.08
774.912	-0.08
775.087	0.12
775.263	-0.03
775.438	0.03
775.613	-0.01
775.788	0.02
775.964	0.14
776.139	0.49
776.314	-0.29
776.489	0.06
776.664	-0.04
776.839	-0.08
777.014	0.18
777.19	0.13
777.365	0.1
777.54	0.27
777.715	-0.06
777.89	0.04
778.065	-0.07
778.24	0.09
778.415	0.16
778.59	-0.22
778.765	-0.17
778.94	0.13
779.115	-0.03
779.289	-0.06
779.464	0.12
779.639	-0.02
779.814	-0.14
779.989	-0.23
780.164	0.11
780.339	0.01
780.513	-0.14
780.688	-0.3
780.863	-0.02
781.038	0.34
781.212	-0.1
781.387	-0.01
781.562	0.26
781.737	0.19
781.911	0.2
782.086	-0.26
782.261	0
782.435	0.29
782.61	-0.12
782.784	-0.07
782.959	0.12
783.134	-0.09
783.308	-0.27
783.483	-0.08
783.657	0.35
783.832	-0.08
784.006	-0.41
784.181	0.1
784.355	0.22
784.53	0.14
784.704	-0.25
784.878	0.43
785.053	0.3
785.227	0.22
785.402	0.33
785.576	-0.14
785.75	-0.15
785.925	0.01
786.099	-0.21
786.273	0.14
786.448	0.13
786.622	0.15
786.796	0.16
786.97	-0.32
787.145	0.49
787.319	-0.06
787.493	-0.09
787.667	-0.44
787.841	-0.17
788.015	0.12
788.19	-0.22
788.364	-0.04
788.538	0.08
788.712	0.08
788.886	-0
789.06	0.18
789.234	0.2
789.408	-0.3
789.582	-0.23
789.756	-0.04
789.93	-0.2
790.104	-0.11
790.278	-0.19
790.452	-0.12
790.626	0.11
790.8	-0.28
790.973	0.22
791.147	0.25
791.321	0.57
791.495	0.13
791.669	0.04
791.843	0.14
792.016	0.2
792.19	0.42
792.364	-0.16
792.538	0.56
792.711	0.25
792.885	-0.11
793.059	-0.06
793.233	-0.61
793.406	0.19
793.58	0.09
793.754	0.21
793.927	-0.32
794.101	0.14
794.274	0.25
794.448	0.09
794.622	-0.43
794.795	0.31
794.969	-0.19
795.142	0.26
795.316	-0
795.489	-0.24
795.663	0.3
795.836	-0.1
796.009	0.07
796.183	0.5
796.356	0.06
796.53	0.06
796.703	0.17
796.876	0.76
797.05	0.11
797.223	0.15
797.396	0.13
797.57	0.01
797.743	0.36
797.916	-0.08
798.09	0.08
798.263	0.5
798.436	0.13
798.609	-0.14
798.782	-0.06
798.956	-0.01
799.129	0.36
799.302	-0.24
799.475	0.05
799.648	-0.29
799.821	-0.09
799.994	-0.09
800.167	-0.4
800.34	0.08
800.514	-0.19
800.687	-0.17
800.86	0.04
801.033	0.14
801.206	0.01
801.379	-0.25
801.551	0.28
801.724	0.14
801.897	0.13
802.07	-0.01
802.243	-0.33
802.416	0.07
802.589	0.02
802.762	-0
802.935	-0.22
803.107	0.51
803.28	0.21
803.453	0.13
803.626	-0.32
803.798	-0.13
803.971	-0.24
804.144	0.1
804.317	0.27
804.489	0.3
804.662	-0.16
804.835	-0.02
805.007	-0.23
805.18	0.49
805.353	0.01
805.525	-0.43
805.698	-0.24
805.87	0.02
806.043	0.15
806.215	-0.44
806.388	-0.19
806.56	-0.13
806.733	0.29
806.905	0.08
807.078	-0.4
807.25	-0.25
807.423	0.32
807.595	-0.17
807.768	-0.04
807.94	0.17
808.112	0.12
808.285	0.08
808.457	-0.16
808.629	0.06
808.802	0.29
808.974	-0.06
809.146	0.01
809.318	-0.41
809.491	-0.38
809.663	0.03
809.835	-0.37
810.007	0.16
810.18	0.04
810.352	-0.29
810.524	-0.29
810.696	0.19
810.868	0.42
811.04	-0.31
811.212	0.18
811.384	0.46
811.556	0.26
811.728	0.14
811.901	0.75
812.073	0.09
812.245	0.37
812.417	-0.18
812.589	-0.44
812.76	0.22
812.932	0.21
813.104	0.4
813.276	-0.13
813.448	0.48
813.62	-0.17
813.792	0.05
813.964	0.29
814.136	-0.12
814.307	0
814.479	-0.22
814.651	-0.06
814.823	0.93
814.995	0.03
815.166	0.27
815.338	-0.65
815.51	-0.47
815.681	1.03
815.853	0.26
816.025	-0.51
816.196	0.5
816.368	0.17
816.54	-0.63
816.711	-0.36
816.883	0.1
817.054	0.81
817.226	-0.67
817.398	0.03
817.569	-0.18
817.741	-0.19
817.912	-0.18
818.084	-0.15
818.255	0.39
818.426	-0.13
818.598	-0.11
818.769	-0.62
818.941	0.32
819.112	0.61
819.283	0.15
819.455	-0.39
819.626	0.75
819.798	0.26
819.969	0
820.14	-0.25
820.311	-0.01
820.483	0.14
820.654	0.09
820.825	0.17
820.996	-0.15
821.168	-0.65
821.339	0.07
821.51	-0.44
821.681	-0.35
821.852	-0.18
822.023	-0.78
822.195	-0.32
822.366	0.46
822.537	-0.08
822.708	0.04
822.879	-0.6
823.05	0.57
823.221	0.07
823.392	0.42
823.563	0.39
823.734	0.04
823.905	0.07
824.076	-0.04
824.247	-1.01
824.418	0.01
824.589	0.84
824.759	-0.13
824.93	-0.5
825.101	-0.46
825.272	0.62
825.443	0.11
825.614	0.68
825.784	-0.84
825.955	1.19
826.126	0.55
826.297	-0.17
826.467	0.98
826.638	0.34
826.809	-1.39
826.98	-0.28
827.15	0.61
827.321	-0.04
827.492	0.84
827.662	-0.52
827.833	0.7
828.003	0.31
828.174	-0.3
828.345	-0.73
828.515	0.38
828.686	-0.19
828.856	-0.4
829.027	0.19
829.197	0.38
829.368	0.39
829.538	-0.35
829.709	-0.35
829.879	0.08
830.049	-0.25
830.22	0.01
830.39	-0.36
830.56	0.03
830.731	-0.43
830.901	-0.24
831.072	-0.04
831.242	-0.07
831.412	0.03
831.582	-0.86
831.753	-1.09
831.923	0.52
832.093	-0.06
832.263	0.17
832.434	-1.33
832.604	-0.72
832.774	0.52
832.944	-0.3
833.114	-0.51
833.284	-0.4
833.454	-0.92
833.624	-0.68
833.795	-0.45
833.965	0.73
834.135	0.28
834.305	-1.38
834.475	-0.95
834.645	-0.12
834.815	0.01
834.985	-0.59
835.155	-0.41
835.325	0.55
835.494	0.38
835.664	-0.59
835.834	-0.72
836.004	-0.09
836.174	0.73
836.344	-0.14
836.514	-1.04
836.684	-0.1
836.853	-0.44
837.023	-0.1
837.193	-0.81
837.363	0.35
837.532	0.42
837.702	-0.08
837.872	-0.9
838.041	0.57
838.211	1.43
838.381	-1.12
838.55	-0.42
838.72	1.01
838.89	1.27
839.059	-0.21
839.229	-0.72
839.398	1.8
839.568	-0.02
839.738	0.02
839.907	0.73
840.077	0.22
840.246	-0.21
840.416	-0.62
840.585	-1.02
840.755	1.45
840.924	0.84
841.093	-0.47
841.263	-0.87
841.432	-0.54
841.602	-0.43
841.771	-0.95
841.94	-0.62
842.11	1.15
842.279	1.8
842.448	-1.12
842.617	-0.7
842.787	0.78
842.956	-0.87
843.125	-0.14
843.294	-0.13
843.464	1.31
843.633	0.49
843.802	-1.1
843.971	-0.86
844.14	0.61
844.309	0.78
844.479	-0.74
844.648	-1.41
844.817	-0.02
844.986	0.18
845.155	-0.95
845.324	-1.03
845.493	-0.12
845.662	-1.2
845.831	0.26
846	0.11
846.169	-0.13
846.338	0.88
846.507	0.5
846.676	-0.54
846.844	-0.63
847.013	0.53
847.182	-0.15
847.351	-0.94
847.52	-0.47
847.689	0.58
847.858	0.07
848.026	0.28
848.195	-0.36
848.364	-0.51
848.533	-0.98
848.701	-0.26
848.87	-0.22
849.039	1.14
849.207	0.73
849.376	0.26
849.545	1.29
849.713	-0.76
849.882	-0.92
850.051	-0.3
850.219	-0.41
850.388	0.33
850.556	-1.28
850.725	-1.01
850.893	-0.22
851.062	-0.35
851.23	0.29
851.399	-0.84
851.567	-0.61
851.736	-0.39
851.904	-0.11
852.073	-0.48
852.241	0.53
852.41	0.67
852.578	0.41
852.746	-0.53
852.915	0.37
853.083	-0.39
853.251	-1.13
853.42	0.04
853.588	1.59
853.756	0.54
853.924	-0.72
854.093	-0.24
854.261	-0.62
854.429	-2.01
854.597	0.06
854.765	-1.57
854.934	0.47
855.102	0.08
855.27	-0.3
855.438	0.73
855.606	1.91
855.774	1.77
855.942	-1.16
856.11	-1.1
856.278	0.08
856.446	0.37
856.614	0.25
856.782	-0.94
856.95	1.71
857.118	0.85
857.286	1
857.454	-1.42
857.622	0.82
857.79	1.47
857.958	-0.49
858.126	-0.98
858.294	-2.73
858.462	0.25
858.629	0.18
858.797	-1.43
858.965	0.49
859.133	-0.33
859.301	0.64
859.468	0.51
859.636	0.32
859.804	1.04
859.971	0.25
860.139	-1.25
860.307	0.72
860.474	-0.61
860.642	-0.85
860.81	-0.42
860.977	-1.29
861.145	-0.08
861.313	0.26
861.48	-0.34
861.648	2.09
861.815	-1.2
861.983	-1.16
862.15	-0.73
862.318	0.62
862.485	1.82
862.653	-0.73
862.82	-1.93
862.988	2.46
863.155	0.82
863.322	-0.04
863.49	-1.41
863.657	0.3
863.824	3.41
863.992	-0.04
864.159	-0.24
864.326	0.66
864.494	-1.34
864.661	2.98
864.828	-1.65
864.996	1.41
865.163	1.56
865.33	-1.12
865.497	-3.09
865.664	-0.89
865.832	-1.62
865.999	-2.68
866.166	-1.61
866.333	-1.84
866.5	0.9
866.667	-0.17
866.834	-1.07
867.001	1.59
867.168	-1.15
867.335	0.34
867.502	-2.09
867.669	0.93
867.836	3.19
868.003	-1.01
868.17	0.59
868.337	3.18
868.504	1.64
868.671	-1.91
868.838	-1.82
869.005	0.43
869.172	1.57
869.339	-1.05
869.505	-0.52
869.672	0.05
869.839	0.8
870.006	-0.11
870.173	-2.79
870.339	2.52
870.506	2.68
870.673	-1.66
870.84	1.2
871.006	-0.22
871.173	0.19
871.34	-0.51
871.506	-0.64
871.673	1.35
871.839	-2.5
872.006	-0.23
872.173	-0.12
872.339	0.59
872.506	2.02
872.672	0.61
872.839	-2.38
873.005	-0.6
873.172	3.38
873.338	2.23
873.505	0.03
873.671	-1.55
873.838	1.83
874.004	-2.4
874.171	-2.21
874.337	0.82
874.503	-0.07
874.67	-2
874.836	0.33
875.002	1.38
875.169	2.26
875.335	1.03
875.501	-1.04
875.668	1.37
875.834	0.1
876	-0.45
876.166	0.5
876.332	0.72
876.499	2.33
876.665	-2.07
876.831	-0.48
876.997	2.95
877.163	1.14
877.329	-0.86
877.495	0.77
877.662	1.15
877.828	0.93
877.994	0.29
878.16	-2.46
878.326	-0.02
878.492	-0.65
878.658	-0.45
878.824	-0.22
878.99	0.15
879.156	-0.54
879.322	2.95
879.487	0.39
879.653	0.45
879.819	-0.64
879.985	-1.45
880.151	1.12
880.317	-0.15
880.483	-0.67
880.648	1.64
880.814	-4.11
880.98	2.34
881.146	-3.77
881.312	-1.41
881.477	0.49
881.643	0.71
881.809	2.52
881.974	0.83
882.14	-2.5
882.306	-0.85
882.471	2.62
882.637	-0.32
882.803	0.09
882.968	4.37
883.134	5.25
883.299	-0.96
883.465	0.82
883.63	1.36
883.796	0.89
883.961	1.17
884.127	0.82
884.292	-3.75
884.458	-2.03
884.623	-2.03
