Data from Apollo_Calib_20240827__AbsoluteIrradiance__86__00-35-01-674.txt Node

Date: Wed Aug 28 00:35:01 BST 2024
User: biology
Spectrometer: FLMT08252
Trigger mode: 0
Integration Time (sec): 5.000000E-1
Scans to average: 5
Electric dark correction enabled: true
Nonlinearity correction enabled: false
Boxcar width: 0
XAxis mode: Wavelengths
Number of Pixels in Spectrum: 3648
>>>>>Begin Spectral Data<<<<<
179.588	-0
179.809	-0
180.03	-0
180.251	-0
180.473	-0
180.694	0
180.915	0
181.136	-0
181.357	0
181.578	0
181.799	-0
182.02	-0
182.241	0
182.462	-0
182.683	0
182.904	-0
183.125	-0
183.346	0
183.567	0
183.788	-0
184.009	-0
184.23	-0
184.451	0
184.672	-0
184.892	-0
185.113	-0
185.334	0
185.555	-0
185.776	-0
185.996	0
186.217	0
186.438	-0
186.659	-0
186.879	0
187.1	-0
187.321	-0
187.541	-0
187.762	-0
187.983	-0
188.203	-0
188.424	-0
188.644	-0
188.865	0
189.086	-0
189.306	-0
189.527	-0
189.747	-0
189.968	-0
190.188	0
190.409	-0
190.629	0
190.849	-0
191.07	-0
191.29	0
191.511	0
191.731	-0
191.951	-0
192.172	-0
192.392	-0
192.612	0
192.833	0
193.053	0
193.273	0
193.493	-0
193.714	-0
193.934	0
194.154	0
194.374	-0
194.594	-0
194.815	-0
195.035	-0
195.255	-0
195.475	-0
195.695	0
195.915	0
196.135	-0
196.355	0
196.575	0
196.795	-0
197.015	-0
197.235	-0
197.455	-0
197.675	0
197.895	-0
198.115	-0
198.335	0
198.555	-0
198.775	-0
198.995	-0
199.214	0
199.434	0
199.654	-0
199.874	-0
200.094	0.46
200.313	-1.08
200.533	-0.53
200.753	-1.1
200.973	0.37
201.192	0.78
201.412	-0.55
201.632	-0.23
201.851	0.68
202.071	-0.3
202.291	-0.5
202.51	-0.77
202.73	0.13
202.95	-0.31
203.169	-0.73
203.389	-0.35
203.608	-0.31
203.828	-0.82
204.047	-0.23
204.267	0.48
204.486	-0.13
204.706	-0.2
204.925	-0.8
205.145	-0.15
205.364	0.26
205.583	0.44
205.803	-0.37
206.022	-0.52
206.242	-0.1
206.461	0.09
206.68	-0.26
206.9	0.03
207.119	0.34
207.338	0.05
207.557	-0.28
207.777	-0.36
207.996	0.04
208.215	0.35
208.434	-0.21
208.654	-0.5
208.873	-0.2
209.092	0.29
209.311	-0.03
209.53	-0.06
209.749	-0.1
209.968	-0.05
210.187	-0.21
210.407	-0.43
210.626	-0.25
210.845	0.32
211.064	0.11
211.283	-0.18
211.502	-0.02
211.721	0.11
211.94	-0.23
212.159	0.07
212.377	0.17
212.596	0.05
212.815	-0
213.034	-0.01
213.253	0.08
213.472	0.16
213.691	-0.25
213.91	-0.15
214.128	-0.02
214.347	0.38
214.566	-0.47
214.785	-0.42
215.003	0.2
215.222	0.12
215.441	-0.17
215.66	-0.31
215.878	-0.12
216.097	0.1
216.316	-0.3
216.534	-0.02
216.753	-0.04
216.972	-0.13
217.19	-0.08
217.409	-0.03
217.627	-0.04
217.846	-0.09
218.064	-0.1
218.283	-0.25
218.501	0.33
218.72	0.07
218.938	-0.24
219.157	-0.18
219.375	0.13
219.594	0.2
219.812	-0.22
220.031	-0.22
220.249	0.25
220.467	0.36
220.686	-0.17
220.904	-0.21
221.122	-0.24
221.341	0.22
221.559	-0.09
221.777	-0.07
221.995	-0.05
222.214	0.07
222.432	-0.21
222.65	0.15
222.868	0.04
223.086	-0.07
223.305	0.04
223.523	-0.05
223.741	0.29
223.959	-0.18
224.177	-0.31
224.395	-0.11
224.613	0.11
224.831	0.09
225.049	-0.09
225.267	-0.2
225.485	-0.06
225.703	-0.09
225.921	-0.1
226.139	-0.07
226.357	0.16
226.575	0.07
226.793	-0.09
227.011	0.44
227.229	-0.06
227.447	0.15
227.665	-0.13
227.883	-0.27
228.1	0.01
228.318	-0
228.536	-0.25
228.754	-0.17
228.972	0.09
229.189	0
229.407	-0.14
229.625	-0.1
229.843	0.15
230.06	-0.04
230.278	-0.07
230.496	0.04
230.713	-0.08
230.931	0.07
231.149	-0.09
231.366	-0.27
231.584	-0.09
231.801	0.35
232.019	-0.06
232.236	-0.17
232.454	-0.17
232.671	0.01
232.889	-0.11
233.106	-0.08
233.324	-0.06
233.541	-0.03
233.759	-0.06
233.976	-0.11
234.194	-0.04
234.411	-0.05
234.628	-0.22
234.846	-0.02
235.063	-0.02
235.28	-0.04
235.498	-0.1
235.715	-0.19
235.932	0.04
236.149	0.03
236.367	-0.11
236.584	0.04
236.801	-0.05
237.018	-0.02
237.236	-0.03
237.453	-0.12
237.67	0.02
237.887	-0.09
238.104	-0.05
238.321	-0.1
238.538	-0.08
238.755	0.07
238.973	-0.15
239.19	-0
239.407	-0.02
239.624	-0.03
239.841	-0.16
240.058	-0.17
240.275	0.01
240.492	-0.1
240.709	-0.07
240.925	-0.11
241.142	0.07
241.359	-0.06
241.576	0
241.793	-0.06
242.01	0.02
242.227	0.03
242.444	0.08
242.66	0.06
242.877	-0
243.094	-0.19
243.311	0.02
243.527	-0.11
243.744	-0.04
243.961	0.09
244.178	-0.14
244.394	-0.1
244.611	0.13
244.828	0.01
245.044	-0.14
245.261	-0.06
245.477	0.02
245.694	-0.09
245.911	-0.06
246.127	0.02
246.344	0.12
246.56	0.03
246.777	-0.02
246.993	0.01
247.21	0.03
247.426	0.05
247.643	-0.07
247.859	-0.17
248.076	-0.12
248.292	0.15
248.508	-0.07
248.725	-0.02
248.941	0.02
249.157	0.06
249.374	-0.08
249.59	-0.02
249.806	-0.05
250.023	0.01
250.239	-0.05
250.455	-0.04
250.671	0.01
250.888	0.02
251.104	0.01
251.32	-0.06
251.536	0.02
251.752	-0.03
251.969	0.08
252.185	0.05
252.401	0.12
252.617	0.06
252.833	0.01
253.049	-0.05
253.265	0
253.481	-0.01
253.697	-0.09
253.913	-0.09
254.129	0.07
254.345	0.02
254.561	-0.01
254.777	-0.01
254.993	0.07
255.209	0.01
255.425	-0.03
255.641	0
255.857	0.08
256.073	0.01
256.288	-0.13
256.504	-0.02
256.72	0.02
256.936	0.09
257.152	-0.07
257.367	-0.09
257.583	-0.08
257.799	0.01
258.015	-0.05
258.23	-0.08
258.446	0.17
258.662	0
258.877	-0.1
259.093	-0.04
259.309	0
259.524	-0.02
259.74	-0.01
259.955	-0.14
260.171	0
260.387	-0.03
260.602	0.04
260.818	0.09
261.033	-0.07
261.249	-0.09
261.464	-0.03
261.68	-0.12
261.895	-0.01
262.11	0.05
262.326	-0.09
262.541	-0.1
262.757	0.05
262.972	-0.01
263.187	-0.03
263.403	-0.04
263.618	0.1
263.833	-0.04
264.049	-0.08
264.264	-0.05
264.479	0.1
264.694	0.05
264.91	-0.08
265.125	-0.05
265.34	0.03
265.555	0.05
265.77	-0.06
265.986	-0.01
266.201	0.04
266.416	0.04
266.631	-0.06
266.846	0.07
267.061	0.06
267.276	-0.03
267.491	-0.19
267.706	0.05
267.921	0.02
268.136	0.01
268.351	0.01
268.566	-0.1
268.781	0.03
268.996	0.09
269.211	0.04
269.426	-0.06
269.641	-0.04
269.856	-0.03
270.071	-0.01
270.285	-0.07
270.5	0.06
270.715	0.04
270.93	0.05
271.145	-0.02
271.359	0.08
271.574	-0.09
271.789	0
272.004	-0.06
272.218	-0.05
272.433	0.07
272.648	-0.05
272.862	0.04
273.077	0.03
273.292	0.01
273.506	-0.14
273.721	-0.02
273.936	0.01
274.15	0.04
274.365	0.01
274.579	0.06
274.794	0.05
275.008	0.07
275.223	-0.1
275.437	0.01
275.652	0.07
275.866	0.02
276.081	0
276.295	0.02
276.509	-0.04
276.724	0.05
276.938	-0
277.153	-0.01
277.367	0.05
277.581	-0.07
277.796	-0.05
278.01	-0.05
278.224	0.05
278.438	0.07
278.653	-0.14
278.867	-0.03
279.081	0.05
279.295	-0
279.51	-0.01
279.724	-0.12
279.938	0.01
280.152	0.07
280.366	-0
280.58	0
280.794	0.05
281.008	0.01
281.222	0.05
281.437	0.09
281.651	0.01
281.865	0.05
282.079	-0.03
282.293	-0.11
282.507	-0.02
282.721	0.02
282.935	-0.02
283.148	-0.11
283.362	-0.03
283.576	-0.07
283.79	-0.01
284.004	-0.07
284.218	0.01
284.432	-0.05
284.646	0.01
284.859	-0.04
285.073	-0.03
285.287	-0.02
285.501	-0.03
285.714	-0.01
285.928	0.03
286.142	0
286.356	-0.07
286.569	-0.03
286.783	0.08
286.997	0.08
287.21	-0
287.424	0.03
287.637	-0.02
287.851	0.02
288.065	0.01
288.278	-0.02
288.492	0.04
288.705	-0.02
288.919	0.02
289.132	-0.06
289.346	0.08
289.559	-0.05
289.773	-0.07
289.986	-0.03
290.2	-0.02
290.413	0.04
290.626	-0.08
290.84	-0.01
291.053	-0.02
291.267	0.04
291.48	-0.02
291.693	-0.01
291.906	-0.01
292.12	-0.01
292.333	-0.03
292.546	-0.04
292.76	0.09
292.973	0.03
293.186	0.03
293.399	-0.02
293.612	0.03
293.826	-0.02
294.039	-0.04
294.252	-0.04
294.465	0.05
294.678	0.03
294.891	0.02
295.104	-0.06
295.317	-0.02
295.53	0.04
295.743	0
295.956	-0.04
296.169	0.06
296.382	0.08
296.595	0.02
296.808	-0.08
297.021	0.02
297.234	0.01
297.447	-0.01
297.66	-0.02
297.873	-0
298.086	0.01
298.299	-0.01
298.511	-0.06
298.724	0.01
298.937	-0.04
299.15	-0.04
299.363	0.03
299.575	0.02
299.788	0.05
300.001	-0.01
300.213	-0
300.426	0.01
300.639	-0.02
300.852	-0.05
301.064	0.04
301.277	0.09
301.489	0.03
301.702	0.01
301.915	0.01
302.127	-0.02
302.34	0.03
302.552	0.03
302.765	-0.05
302.977	0.04
303.19	-0.03
303.402	-0.02
303.615	0
303.827	-0
304.04	-0.04
304.252	0.01
304.464	-0.03
304.677	0.1
304.889	-0.01
305.102	0.03
305.314	-0.06
305.526	0.05
305.739	0.01
305.951	-0.03
306.163	-0.02
306.375	0.06
306.588	-0.02
306.8	-0.04
307.012	-0.06
307.224	0.02
307.436	0.04
307.649	-0.04
307.861	0.03
308.073	0.05
308.285	-0.02
308.497	-0.03
308.709	-0.01
308.921	-0.01
309.133	0.03
309.346	0.01
309.558	-0.01
309.77	0.05
309.982	0.1
310.194	0.04
310.406	-0.03
310.617	0.06
310.829	-0.01
311.041	0.03
311.253	-0.05
311.465	-0.04
311.677	-0.06
311.889	-0.01
312.101	-0.03
312.313	0.05
312.524	0.03
312.736	-0.09
312.948	-0.03
313.16	0.1
313.372	0.01
313.583	-0.02
313.795	-0.03
314.007	-0.01
314.218	-0.01
314.43	0
314.642	-0.01
314.853	-0.07
315.065	0.02
315.277	-0.02
315.488	0
315.7	0.06
315.912	0.04
316.123	-0.03
316.335	-0.02
316.546	0.09
316.758	0
316.969	-0.03
317.181	-0.01
317.392	0.02
317.604	0.07
317.815	-0.04
318.026	-0.02
318.238	-0.03
318.449	0.03
318.661	-0.06
318.872	-0.09
319.083	-0.09
319.295	0.04
319.506	-0.03
319.717	-0.03
319.929	0.04
320.14	-0.01
320.351	-0.03
320.562	-0.04
320.774	-0.02
320.985	-0
321.196	-0.01
321.407	-0.1
321.618	0.02
321.829	-0.01
322.041	0.02
322.252	0.04
322.463	-0
322.674	0.01
322.885	-0.04
323.096	0.01
323.307	-0.04
323.518	-0.01
323.729	-0.04
323.94	0.01
324.151	-0.03
324.362	-0
324.573	0.01
324.784	-0.06
324.995	0.07
325.206	0.02
325.417	-0
325.628	-0
325.838	-0.01
326.049	0.01
326.26	0.03
326.471	-0.02
326.682	0.03
326.892	0.01
327.103	-0.05
327.314	0
327.525	0.01
327.735	-0.05
327.946	-0.06
328.157	-0.02
328.368	0.02
328.578	-0.02
328.789	-0.01
328.999	-0.01
329.21	-0.01
329.421	0
329.631	0
329.842	-0.06
330.052	0.04
330.263	0.03
330.473	0.02
330.684	0
330.894	-0.01
331.105	0.01
331.315	-0
331.526	-0.06
331.736	0.08
331.947	-0.02
332.157	0.02
332.367	-0.03
332.578	0.01
332.788	0.03
332.999	0.05
333.209	-0.03
333.419	-0.05
333.629	0
333.84	0
334.05	0.01
334.26	0.05
334.47	-0
334.681	0.06
334.891	-0.03
335.101	0.02
335.311	0.06
335.521	0
335.732	-0.05
335.942	0.1
336.152	0.05
336.362	0.02
336.572	0
336.782	0.05
336.992	-0.02
337.202	-0.01
337.412	-0.03
337.622	0.02
337.832	-0
338.042	0
338.252	-0.03
338.462	-0.03
338.672	-0.02
338.882	-0.01
339.092	0.02
339.302	0.05
339.511	0.03
339.721	-0.05
339.931	-0.02
340.141	0.05
340.351	0.04
340.561	0.01
340.77	0
340.98	-0
341.19	0.06
341.4	-0.04
341.609	-0.03
341.819	-0.02
342.029	-0.07
342.238	-0.02
342.448	-0.04
342.658	-0
342.867	0
343.077	-0.02
343.286	0.04
343.496	0.02
343.706	0.07
343.915	-0.04
344.125	-0.01
344.334	0.01
344.544	-0.08
344.753	0.01
344.963	-0.02
345.172	-0.03
345.381	-0.03
345.591	-0.04
345.8	0.01
346.01	0.07
346.219	0.03
346.428	-0.13
346.638	0.02
346.847	-0.02
347.056	0.07
347.266	-0.06
347.475	0.02
347.684	0.01
347.893	0
348.103	0.01
348.312	-0.01
348.521	-0.05
348.73	-0.01
348.94	0
349.149	-0
349.358	-0.02
349.567	-0
349.776	-0.03
349.985	0.01
350.194	0.01
350.403	0.06
350.612	-0.03
350.821	-0.02
351.03	-0.01
351.239	-0.04
351.448	-0.04
351.657	-0.02
351.866	0.02
352.075	-0.03
352.284	0.04
352.493	-0.03
352.702	0.02
352.911	0.06
353.12	0.05
353.329	-0.04
353.538	0.01
353.746	0.01
353.955	-0.05
354.164	0.01
354.373	-0.05
354.582	0.05
354.79	0.02
354.999	-0.01
355.208	0.02
355.416	-0
355.625	-0.05
355.834	-0.02
356.042	0.02
356.251	-0
356.46	-0.05
356.668	0.02
356.877	0.09
357.085	0.04
357.294	-0.07
357.503	0.04
357.711	-0.02
357.92	0.12
358.128	-0.01
358.337	-0.01
358.545	-0.01
358.754	0.03
358.962	0.06
359.17	-0
359.379	-0.02
359.587	0.03
359.796	-0.04
360.004	0.05
360.212	0.02
360.421	0.01
360.629	-0.02
360.837	-0
361.046	0.05
361.254	0.08
361.462	0.02
361.67	0.02
361.879	-0
362.087	0.04
362.295	0.03
362.503	-0.02
362.711	-0.01
362.92	-0.04
363.128	-0.01
363.336	-0.03
363.544	-0.06
363.752	-0.03
363.96	0
364.168	-0.01
364.376	0.02
364.584	0
364.792	0.04
365	0.03
365.208	0.01
365.416	-0.02
365.624	0.01
365.832	-0.01
366.04	0.08
366.248	0.04
366.456	0.04
366.664	0.03
366.872	0.01
367.079	0.05
367.287	0.07
367.495	0.05
367.703	0.02
367.911	0.02
368.118	0.05
368.326	0.04
368.534	-0.04
368.742	0.11
368.949	-0
369.157	0.06
369.365	0.09
369.572	0.03
369.78	0.02
369.988	0.1
370.195	0.14
370.403	0.1
370.61	0.06
370.818	0.09
371.026	0.12
371.233	0.06
371.441	0.14
371.648	0.09
371.856	0.14
372.063	0.13
372.271	0.13
372.478	0.15
372.685	0.15
372.893	0.18
373.1	0.14
373.308	0.17
373.515	0.29
373.722	0.2
373.93	0.19
374.137	0.29
374.344	0.33
374.552	0.31
374.759	0.29
374.966	0.29
375.173	0.25
375.381	0.32
375.588	0.35
375.795	0.3
376.002	0.34
376.209	0.35
376.417	0.42
376.624	0.47
376.831	0.54
377.038	0.47
377.245	0.44
377.452	0.52
377.659	0.56
377.866	0.59
378.073	0.64
378.28	0.64
378.487	0.7
378.694	0.72
378.901	0.81
379.108	0.81
379.315	0.9
379.522	0.96
379.729	0.96
379.936	0.96
380.143	1
380.35	1.02
380.557	1.08
380.763	1.09
380.97	1.13
381.177	1.16
381.384	1.23
381.591	1.22
381.797	1.21
382.004	1.35
382.211	1.31
382.418	1.31
382.624	1.36
382.831	1.28
383.038	1.31
383.244	1.28
383.451	1.2
383.658	1.23
383.864	1.26
384.071	1.17
384.277	1.23
384.484	1.11
384.69	1.14
384.897	1.01
385.103	1
385.31	0.98
385.516	0.9
385.723	0.84
385.929	0.88
386.136	0.76
386.342	0.79
386.549	0.74
386.755	0.74
386.961	0.7
387.168	0.63
387.374	0.61
387.58	0.6
387.787	0.55
387.993	0.6
388.199	0.52
388.406	0.49
388.612	0.46
388.818	0.45
389.024	0.43
389.231	0.49
389.437	0.49
389.643	0.47
389.849	0.41
390.055	0.42
390.261	0.38
390.467	0.4
390.674	0.3
390.88	0.35
391.086	0.35
391.292	0.3
391.498	0.39
391.704	0.33
391.91	0.27
392.116	0.25
392.322	0.18
392.528	0.28
392.734	0.23
392.94	0.26
393.146	0.24
393.352	0.23
393.557	0.23
393.763	0.22
393.969	0.25
394.175	0.16
394.381	0.23
394.587	0.15
394.792	0.17
394.998	0.19
395.204	0.27
395.41	0.14
395.615	0.16
395.821	0.15
396.027	0.17
396.233	0.09
396.438	0.18
396.644	0.21
396.85	0.14
397.055	0.14
397.261	0.15
397.466	0.17
397.672	0.13
397.878	0.08
398.083	0.12
398.289	0.08
398.494	0.17
398.7	0.12
398.905	0.03
399.111	0.16
399.316	0.03
399.522	0.11
399.727	0.08
399.932	0.06
400.138	0.09
400.343	0.11
400.549	0.08
400.754	0.07
400.959	0.09
401.165	0.08
401.37	0.06
401.575	0.14
401.78	0.04
401.986	-0
402.191	0.07
402.396	0.05
402.601	0.08
402.807	0.11
403.012	0.03
403.217	0.08
403.422	0.08
403.627	0.05
403.832	0.05
404.037	0.08
404.243	0.07
404.448	0
404.653	0.04
404.858	0.05
405.063	0.09
405.268	0.03
405.473	0.02
405.678	0.02
405.883	0.16
406.088	0.06
406.293	-0
406.498	0.02
406.703	0.08
406.907	0.07
407.112	0
407.317	0.04
407.522	0.05
407.727	-0.01
407.932	0.06
408.136	0.07
408.341	0.03
408.546	0.05
408.751	0.07
408.956	-0.01
409.16	0.02
409.365	0.04
409.57	0
409.774	-0.01
409.979	0.04
410.184	0.06
410.388	-0.02
410.593	0.08
410.798	0.04
411.002	0.01
411.207	-0
411.411	0.06
411.616	-0.01
411.82	-0.03
412.025	0.05
412.229	0
412.434	0.11
412.638	0.02
412.843	0.05
413.047	0.05
413.252	0.01
413.456	-0
413.66	0.06
413.865	-0.03
414.069	0.07
414.273	0.03
414.478	-0.02
414.682	-0.01
414.886	0
415.091	-0.05
415.295	-0.08
415.499	0.02
415.703	-0.05
415.908	0.01
416.112	-0.07
416.316	0.05
416.52	-0.03
416.724	-0.01
416.929	0
417.133	0.1
417.337	-0.03
417.541	0.02
417.745	-0
417.949	0.05
418.153	0.02
418.357	-0.01
418.561	0.03
418.765	0.06
418.969	0.08
419.173	0.02
419.377	-0.02
419.581	0.1
419.785	-0.02
419.989	-0.06
420.193	0.05
420.397	-0.04
420.601	0.07
420.804	0.06
421.008	0.03
421.212	0.03
421.416	0.05
421.62	-0.04
421.823	-0
422.027	0.1
422.231	0.05
422.435	-0.03
422.638	0.02
422.842	0.01
423.046	-0.05
423.249	0.01
423.453	0.02
423.657	0.01
423.86	0.01
424.064	-0.01
424.268	0.06
424.471	-0
424.675	0.06
424.878	0.05
425.082	0.03
425.285	0.06
425.489	-0.01
425.692	0.02
425.896	-0.04
426.099	0.04
426.303	-0.01
426.506	-0.06
426.71	0.03
426.913	0.08
427.116	0.02
427.32	-0.04
427.523	0.05
427.726	0.12
427.93	-0.03
428.133	0.01
428.336	-0.05
428.54	0.01
428.743	0.05
428.946	0.08
429.149	-0.03
429.353	0.04
429.556	0.06
429.759	0.02
429.962	-0.06
430.165	-0.05
430.368	0
430.571	-0.01
430.775	0.04
430.978	0.02
431.181	0.03
431.384	0.03
431.587	0.01
431.79	0.01
431.993	0.04
432.196	0.03
432.399	-0.02
432.602	0.06
432.805	0.05
433.008	0.02
433.211	-0.07
433.414	0.04
433.616	0.06
433.819	0.02
434.022	-0.07
434.225	0.08
434.428	0.1
434.631	0.16
434.833	0.04
435.036	0.04
435.239	0.05
435.442	0.05
435.645	-0.01
435.847	-0.02
436.05	0.06
436.253	0.06
436.455	-0.06
436.658	-0
436.861	0.11
437.063	0.04
437.266	0.05
437.468	0.04
437.671	0.11
437.874	0.06
438.076	-0
438.279	0.01
438.481	0.03
438.684	-0.01
438.886	0.05
439.089	-0.06
439.291	0.04
439.494	0.05
439.696	-0.03
439.899	0.04
440.101	0.05
440.303	-0.01
440.506	0.07
440.708	-0.03
440.91	0.1
441.113	-0.03
441.315	0.07
441.517	-0.05
441.72	0.04
441.922	-0.02
442.124	0.03
442.326	0.02
442.529	0.11
442.731	0.03
442.933	0.13
443.135	0.03
443.337	-0
443.539	-0
443.742	0.01
443.944	0.01
444.146	0.01
444.348	0.03
444.55	0.06
444.752	0.07
444.954	0
445.156	0.07
445.358	0.03
445.56	0.09
445.762	0.05
445.964	0.06
446.166	0.02
446.368	0.01
446.57	0.12
446.772	0.03
446.974	0.05
447.175	0.09
447.377	0.04
447.579	0.05
447.781	-0.05
447.983	0.1
448.184	0.09
448.386	0.06
448.588	-0
448.79	0.08
448.991	0.03
449.193	0.05
449.395	0.07
449.597	0.09
449.798	0.07
450	0.04
450.202	0.04
450.403	0.06
450.605	0.1
450.806	0.07
451.008	0
451.21	0.05
451.411	0.08
451.613	0.05
451.814	0.06
452.016	0.11
452.217	0.05
452.419	0.09
452.62	0.11
452.821	0.12
453.023	0.13
453.224	0.14
453.426	0.04
453.627	0.11
453.828	0.09
454.03	0.03
454.231	0.08
454.432	0.01
454.634	0.12
454.835	0.04
455.036	0.03
455.238	0.11
455.439	0.09
455.64	-0.02
455.841	-0
456.042	0.11
456.244	0.01
456.445	0.06
456.646	-0.04
456.847	0.05
457.048	0.1
457.249	0.06
457.45	0.28
457.651	-0
457.852	0.09
458.054	0.03
458.255	0.04
458.456	0.07
458.657	0.06
458.858	0.03
459.058	0.02
459.259	0.08
459.46	-0.02
459.661	-0.01
459.862	0.11
460.063	-0.01
460.264	0.02
460.465	-0.04
460.666	0.09
460.866	0.02
461.067	0.04
461.268	0
461.469	0.01
461.67	-0.01
461.87	-0.01
462.071	-0.01
462.272	-0.01
462.473	0.01
462.673	0.06
462.874	0.01
463.075	-0.02
463.275	-0.04
463.476	0.04
463.676	0.01
463.877	0.03
464.078	-0
464.278	0.01
464.479	0
464.679	0.02
464.88	-0.03
465.08	0.09
465.281	0.01
465.481	-0.02
465.682	0
465.882	0.05
466.083	-0.02
466.283	0.03
466.483	0
466.684	-0.03
466.884	-0.03
467.085	0
467.285	0.09
467.485	-0.04
467.686	-0.01
467.886	-0.05
468.086	-0.01
468.286	0.02
468.487	0.06
468.687	-0.03
468.887	0.01
469.087	0.06
469.287	0.02
469.488	-0.04
469.688	0.06
469.888	0.05
470.088	0.02
470.288	0.02
470.488	0.05
470.688	-0.01
470.888	-0.03
471.088	0.01
471.288	0.07
471.488	-0
471.688	-0.01
471.888	-0.04
472.088	0.04
472.288	0.01
472.488	-0.02
472.688	0.01
472.888	0.01
473.088	-0.02
473.288	0
473.488	-0.01
473.688	0.1
473.887	0.01
474.087	-0
474.287	0.02
474.487	-0.06
474.687	0.02
474.886	0.01
475.086	0.01
475.286	0.02
475.486	0.05
475.685	0.02
475.885	-0.02
476.085	0
476.284	0.01
476.484	0
476.684	0.05
476.883	0.03
477.083	0
477.282	-0.02
477.482	0.08
477.681	0.03
477.881	0.03
478.08	0.01
478.28	0.03
478.479	0.05
478.679	0.06
478.878	-0.02
479.078	0
479.277	-0.01
479.477	-0
479.676	0.04
479.875	0.02
480.075	-0.05
480.274	0.03
480.473	0.01
480.673	-0.04
480.872	0.02
481.071	-0.03
481.271	0.03
481.47	-0.01
481.669	-0.01
481.868	-0.02
482.067	-0.02
482.267	-0
482.466	-0.02
482.665	-0.04
482.864	-0.03
483.063	-0.02
483.262	0.03
483.461	0.04
483.661	0
483.86	0.02
484.059	0.04
484.258	0.01
484.457	-0.01
484.656	0.01
484.855	0.03
485.054	-0.05
485.253	0.01
485.452	-0.03
485.651	-0
485.849	-0.03
486.048	-0.02
486.247	-0.03
486.446	-0.01
486.645	-0.03
486.844	-0.03
487.043	0
487.241	0.02
487.44	-0.02
487.639	-0.02
487.838	0.02
488.037	0.01
488.235	0.06
488.434	0.01
488.633	-0.03
488.831	-0.01
489.03	0.04
489.229	0.01
489.427	-0
489.626	-0.01
489.825	0.07
490.023	0.01
490.222	-0.01
490.42	0.01
490.619	0.01
490.817	-0.01
491.016	-0.01
491.214	0.02
491.413	-0.02
491.611	-0
491.81	0
492.008	0.03
492.207	0.01
492.405	0.01
492.604	-0.03
492.802	-0.03
493	-0.01
493.199	-0.03
493.397	-0
493.595	-0.02
493.794	0.01
493.992	0.05
494.19	0.02
494.388	0.01
494.587	-0.01
494.785	0.01
494.983	-0.04
495.181	0
495.379	-0
495.578	-0.03
495.776	0.01
495.974	0.03
496.172	-0.01
496.37	-0
496.568	-0.01
496.766	-0.03
496.964	0.05
497.162	-0
497.36	-0.03
497.558	-0
497.756	0.03
497.954	-0.01
498.152	-0.05
498.35	0
498.548	-0.01
498.746	0.01
498.944	-0.03
499.142	0
499.34	-0.02
499.538	-0.01
499.736	-0.02
499.933	0.04
500.131	0.02
500.329	0.01
500.527	0.02
500.725	0.03
500.922	0.01
501.12	0.01
501.318	0.01
501.516	-0.03
501.713	-0
501.911	-0.03
502.109	-0.03
502.306	0.01
502.504	0
502.701	-0.03
502.899	-0.02
503.097	0.04
503.294	0.02
503.492	0
503.689	0.01
503.887	0.02
504.084	0.05
504.282	0.01
504.479	-0.02
504.677	0.01
504.874	-0.02
505.072	0.02
505.269	-0.01
505.466	0.02
505.664	0.02
505.861	-0.02
506.059	-0.01
506.256	0.02
506.453	-0.01
506.651	0.04
506.848	0.02
507.045	0.02
507.242	-0
507.44	-0.01
507.637	-0
507.834	-0.01
508.031	0.04
508.229	-0.04
508.426	-0.01
508.623	0.02
508.82	-0.02
509.017	-0.02
509.214	0
509.411	-0
509.608	-0.04
509.805	-0
510.003	-0.02
510.2	-0.01
510.397	0.02
510.594	-0.01
510.791	-0.01
510.988	-0.01
511.184	0.02
511.381	-0
511.578	-0.01
511.775	0.02
511.972	-0.01
512.169	-0.01
512.366	-0
512.563	-0.01
512.76	-0.01
512.956	-0.02
513.153	-0.01
513.35	0.02
513.547	-0.01
513.744	-0.01
513.94	-0.03
514.137	0.01
514.334	0.01
514.53	-0.01
514.727	0
514.924	0.01
515.12	0
515.317	-0.03
515.514	-0.02
515.71	-0.03
515.907	-0.02
516.103	-0.01
516.3	0.02
516.497	0.03
516.693	0.02
516.89	0.01
517.086	-0.03
517.283	0.01
517.479	-0.01
517.676	-0.02
517.872	0
518.068	-0.01
518.265	-0.01
518.461	-0.02
518.658	0
518.854	-0
519.05	-0.02
519.247	-0.01
519.443	0.01
519.639	0.03
519.836	0.02
520.032	-0.01
520.228	-0.01
520.424	0.04
520.621	0.01
520.817	-0
521.013	0.01
521.209	-0
521.405	0.04
521.601	0.01
521.798	0
521.994	0.02
522.19	-0.02
522.386	-0.02
522.582	-0.02
522.778	-0
522.974	-0.01
523.17	-0.01
523.366	0.01
523.562	0.02
523.758	-0
523.954	-0.02
524.15	-0.02
524.346	0
524.542	-0.01
524.738	-0.02
524.934	-0.02
525.129	-0
525.325	0.02
525.521	-0.01
525.717	0.03
525.913	-0.01
526.109	-0.01
526.304	-0
526.5	0
526.696	0.01
526.892	-0.02
527.087	-0
527.283	-0.01
527.479	-0.01
527.674	-0.02
527.87	-0.01
528.066	-0.01
528.261	0.01
528.457	-0
528.653	-0.01
528.848	-0.02
529.044	0
529.239	0
529.435	0.02
529.63	0
529.826	0.03
530.021	0.01
530.217	0.02
530.412	-0
530.608	-0.02
530.803	-0
530.999	-0.01
531.194	-0.05
531.389	-0.01
531.585	-0.04
531.78	-0
531.975	-0.01
532.171	0.02
532.366	-0.02
532.561	-0.01
532.757	-0.03
532.952	0
533.147	0.01
533.342	0
533.538	-0
533.733	0.02
533.928	0
534.123	0
534.318	-0.03
534.513	-0.01
534.709	-0.01
534.904	-0.03
535.099	-0.01
535.294	-0
535.489	0.01
535.684	0
535.879	-0.03
536.074	-0
536.269	-0.01
536.464	0
536.659	0
536.854	0
537.049	0
537.244	-0.01
537.439	-0
537.634	0.04
537.828	0
538.023	-0.01
538.218	-0.04
538.413	0
538.608	-0.04
538.803	0.01
538.997	-0.04
539.192	0.03
539.387	0.02
539.582	0.01
539.776	0.02
539.971	-0.01
540.166	-0.01
540.36	-0.03
540.555	0
540.75	-0.04
540.944	0
541.139	-0.03
541.334	-0.01
541.528	0.02
541.723	0.02
541.917	-0.01
542.112	-0.03
542.306	-0.02
542.501	-0
542.695	-0.01
542.89	-0.03
543.084	0.02
543.279	0.01
543.473	-0.03
543.668	-0.01
543.862	-0
544.056	0.01
544.251	-0.01
544.445	0.01
544.64	-0.02
544.834	-0.04
545.028	-0.01
545.222	0.02
545.417	0.02
545.611	-0.01
545.805	0.02
546	0
546.194	-0
546.388	-0.02
546.582	0.01
546.776	-0.01
546.97	-0.01
547.165	-0
547.359	0.02
547.553	-0.01
547.747	-0
547.941	0
548.135	-0.01
548.329	0.02
548.523	0.02
548.717	-0.01
548.911	-0.01
549.105	-0.01
549.299	0.01
549.493	0.01
549.687	0.01
549.881	0.01
550.075	-0.02
550.269	-0.05
550.463	0.01
550.657	-0
550.85	0.01
551.044	-0.03
551.238	-0.01
551.432	-0
551.626	-0.03
551.82	0
552.013	-0.03
552.207	-0.01
552.401	0
552.594	-0
552.788	0.01
552.982	0.01
553.176	-0.04
553.369	0.02
553.563	0
553.756	-0.05
553.95	-0.04
554.144	-0.03
554.337	0.02
554.531	0.02
554.724	-0.01
554.918	-0.04
555.111	0.01
555.305	-0.01
555.498	0.05
555.692	0.02
555.885	-0.03
556.079	0.01
556.272	-0.02
556.466	0
556.659	0
556.852	-0.01
557.046	-0.01
557.239	0.02
557.432	-0.03
557.626	-0.03
557.819	0.01
558.012	0.01
558.206	0.02
558.399	0
558.592	0.01
558.785	-0.01
558.979	0.01
559.172	-0
559.365	0.02
559.558	0.02
559.751	-0.02
559.944	0.01
560.138	-0.03
560.331	-0.02
560.524	-0.01
560.717	0.01
560.91	-0.01
561.103	0
561.296	0.01
561.489	0.03
561.682	0.01
561.875	0.02
562.068	-0.01
562.261	0
562.454	0.04
562.647	-0
562.84	0
563.032	-0.01
563.225	0.01
563.418	-0
563.611	0.01
563.804	0.01
563.997	-0.02
564.19	-0.04
564.382	0.02
564.575	-0.02
564.768	-0.02
564.961	-0.01
565.153	-0.02
565.346	0.03
565.539	0.02
565.731	0.03
565.924	0
566.117	0.03
566.309	0.01
566.502	-0
566.695	-0.02
566.887	0.01
567.08	-0.03
567.272	-0
567.465	-0.03
567.657	-0.01
567.85	-0
568.042	0
568.235	0.03
568.427	0
568.62	-0.01
568.812	0.02
569.005	-0
569.197	-0.04
569.389	-0
569.582	0.01
569.774	0.01
569.966	-0.01
570.159	-0.04
570.351	0.01
570.543	0
570.736	0
570.928	-0.03
571.12	0
571.312	-0.01
571.505	-0.03
571.697	0.05
571.889	-0.04
572.081	0
572.273	-0.04
572.465	0.03
572.658	-0.01
572.85	0.03
573.042	-0.02
573.234	-0.01
573.426	0.03
573.618	-0.05
573.81	0
574.002	0.01
574.194	0.03
574.386	-0.06
574.578	-0.06
574.77	-0.03
574.962	-0.02
575.154	-0.03
575.346	-0
575.538	0.01
575.729	-0.05
575.921	-0
576.113	-0.01
576.305	0.02
576.497	-0.02
576.689	0.01
576.88	-0
577.072	0.01
577.264	-0.01
577.456	0.01
577.647	-0.03
577.839	0.01
578.031	0.04
578.223	-0.04
578.414	-0.02
578.606	0.02
578.798	-0.01
578.989	-0.02
579.181	-0
579.372	0
579.564	-0.01
579.755	-0.01
579.947	-0
580.139	0
580.33	-0.05
580.522	-0.03
580.713	-0.06
580.905	-0.01
581.096	0.01
581.287	-0.03
581.479	-0.02
581.67	-0
581.862	-0.02
582.053	-0.02
582.244	-0.05
582.436	-0.01
582.627	-0.02
582.818	-0.04
583.01	-0.06
583.201	0.02
583.392	0.01
583.583	0.01
583.775	-0.01
583.966	-0.02
584.157	-0.02
584.348	-0.02
584.54	-0.04
584.731	0.01
584.922	-0.01
585.113	-0.02
585.304	-0
585.495	0.02
585.686	0.02
585.877	0
586.068	-0
586.259	0.01
586.45	0
586.641	-0.03
586.832	-0.06
587.023	-0.01
587.214	-0
587.405	-0.02
587.596	-0.03
587.787	0.02
587.978	-0.02
588.169	-0.04
588.36	-0.01
588.551	0.01
588.742	-0.03
588.932	-0
589.123	0
589.314	0.02
589.505	0.03
589.696	0.02
589.886	-0.03
590.077	-0.05
590.268	-0
590.458	-0.04
590.649	-0.03
590.84	0.04
591.03	-0.01
591.221	-0.05
591.412	-0.05
591.602	0.02
591.793	-0.01
591.984	-0.04
592.174	-0
592.365	0.06
592.555	-0.03
592.746	0.02
592.936	0
593.127	0.01
593.317	0.05
593.508	-0.02
593.698	-0.03
593.889	0.01
594.079	0.01
594.269	-0.01
594.46	0.01
594.65	-0
594.84	-0.01
595.031	-0.02
595.221	-0.03
595.411	-0.05
595.602	-0.01
595.792	0.01
595.982	-0.02
596.172	0.05
596.363	0.01
596.553	0
596.743	0
596.933	-0.01
597.123	0.02
597.314	-0.03
597.504	-0.03
597.694	0.03
597.884	0.02
598.074	-0.03
598.264	-0.03
598.454	-0
598.644	0.01
598.834	-0.03
599.024	-0.06
599.214	-0.01
599.404	-0.01
599.594	-0.01
599.784	-0.02
599.974	0.06
600.164	0.03
600.354	-0.05
600.544	-0.04
600.734	-0.01
600.924	0.03
601.114	-0.03
601.303	0.01
601.493	-0
601.683	-0.02
601.873	-0.02
602.063	-0.05
602.252	0.01
602.442	-0.06
602.632	-0.03
602.821	-0.05
603.011	0.03
603.201	-0.01
603.39	-0.03
603.58	-0.02
603.77	-0
603.959	0.03
604.149	-0.02
604.339	-0.03
604.528	0.01
604.718	0.02
604.907	-0.02
605.097	-0
605.286	0.01
605.476	0.04
605.665	-0
605.855	-0.04
606.044	0.04
606.234	-0
606.423	-0.01
606.612	-0.03
606.802	0.01
606.991	0.01
607.181	-0
607.37	-0.05
607.559	0
607.749	-0.03
607.938	-0.03
608.127	-0
608.316	-0.02
608.506	0.03
608.695	-0.01
608.884	-0.07
609.073	-0.02
609.263	0
609.452	0
609.641	-0
609.83	-0.04
610.019	-0.02
610.208	-0.04
610.397	-0.04
610.586	-0.01
610.775	-0.04
610.965	-0.01
611.154	-0.02
611.343	0.03
611.532	0.01
611.721	-0.04
611.91	-0.04
612.099	0.02
612.287	-0.04
612.476	-0.05
612.665	0.01
612.854	-0.01
613.043	0.04
613.232	0.02
613.421	-0.04
613.61	0
613.798	-0.02
613.987	0.03
614.176	-0.02
614.365	0.02
614.554	0.01
614.742	0.02
614.931	-0.03
615.12	0.03
615.309	-0.03
615.497	0
615.686	-0.03
615.875	-0.01
616.063	0
616.252	-0.04
616.44	-0.01
616.629	0.01
616.818	-0
617.006	-0
617.195	-0.01
617.383	0.01
617.572	0.01
617.76	-0.01
617.949	-0.02
618.137	0.01
618.326	0.02
618.514	-0.04
618.703	0.01
618.891	0.04
619.079	-0.04
619.268	0.01
619.456	-0.03
619.644	0.06
619.833	0.03
620.021	-0.04
620.209	-0.05
620.398	-0
620.586	-0.01
620.774	0.02
620.962	-0.03
621.151	0.05
621.339	-0.03
621.527	-0.02
621.715	-0.05
621.903	-0.02
622.092	-0.05
622.28	-0.03
622.468	0
622.656	-0.01
622.844	0.03
623.032	-0.02
623.22	-0.05
623.408	0.02
623.596	0.02
623.784	0.03
623.972	-0
624.16	-0
624.348	0.04
624.536	0.01
624.724	-0.01
624.912	0.06
625.1	0.03
625.288	-0.02
625.476	-0.01
625.664	0.01
625.851	-0.03
626.039	0.01
626.227	-0.02
626.415	-0.02
626.603	-0.04
626.79	0.02
626.978	-0.03
627.166	0.02
627.354	-0
627.541	-0.02
627.729	-0.08
627.917	0.03
628.104	0.01
628.292	0.03
628.48	0
628.667	0.02
628.855	0.01
629.042	0.02
629.23	0
629.418	-0.03
629.605	0.01
629.793	-0.01
629.98	-0
630.168	0.02
630.355	0.03
630.543	0.02
630.73	-0.02
630.917	0.04
631.105	0.04
631.292	-0.04
631.48	-0.01
631.667	0.06
631.854	-0
632.042	0.01
632.229	-0.06
632.416	0.03
632.604	-0.03
632.791	-0.03
632.978	0.03
633.165	0.05
633.353	0.05
633.54	0.02
633.727	-0.05
633.914	-0.04
634.101	-0.09
634.289	0.06
634.476	-0.02
634.663	-0.01
634.85	0.02
635.037	-0.02
635.224	-0.04
635.411	-0
635.598	0.02
635.785	-0.01
635.972	0.01
636.159	0.06
636.346	-0
636.533	0.01
636.72	-0.03
636.907	-0.01
637.094	0.03
637.281	-0.02
637.468	0.02
637.655	0.02
637.842	0.02
638.029	-0.01
638.215	0.06
638.402	0.01
638.589	0
638.776	0.02
638.963	-0.02
639.149	0.05
639.336	0.04
639.523	0.03
639.709	-0.02
639.896	0.02
640.083	0.11
640.27	0.04
640.456	-0.01
640.643	0.04
640.829	-0.03
641.016	-0.01
641.203	-0.01
641.389	0.06
641.576	0.03
641.762	0.05
641.949	0.01
642.135	0.05
642.322	0.03
642.508	-0.03
642.695	0.03
642.881	0.03
643.068	0.01
643.254	0.01
643.441	0.08
643.627	0.01
643.813	0.01
644	0.07
644.186	-0.03
644.372	0.06
644.559	0.04
644.745	0.03
644.931	0.01
645.118	0.03
645.304	0.04
645.49	0.01
645.676	0.02
645.862	0.02
646.049	0.09
646.235	0.04
646.421	0.12
646.607	0.08
646.793	0.01
646.979	-0.02
647.165	0.07
647.352	0.06
647.538	0.05
647.724	0.03
647.91	0.03
648.096	0.04
648.282	0.04
648.468	0.03
648.654	0.06
648.84	0.05
649.026	0.05
649.212	0.07
649.397	0.03
649.583	-0.01
649.769	0.07
649.955	0.02
650.141	0.07
650.327	0.11
650.513	0.05
650.698	0.05
650.884	-0.03
651.07	0.06
651.256	0.07
651.442	0.06
651.627	0.03
651.813	0.06
651.999	0.06
652.184	0.08
652.37	0.05
652.556	0.04
652.741	0.1
652.927	-0.01
653.113	0.06
653.298	0.08
653.484	0.07
653.669	0.01
653.855	0.03
654.04	0.07
654.226	0.07
654.412	0.06
654.597	0.02
654.782	0.1
654.968	0.09
655.153	0.12
655.339	0.06
655.524	0.03
655.71	0.1
655.895	0.07
656.08	0.06
656.266	0.13
656.451	0.12
656.636	0.07
656.822	0.08
657.007	0.07
657.192	0.12
657.378	0.03
657.563	0.07
657.748	0.14
657.933	0.07
658.118	0.06
658.304	0.07
658.489	0.14
658.674	0.09
658.859	0.06
659.044	0.1
659.229	0.11
659.414	0.06
659.599	0.06
659.785	0.08
659.97	0.1
660.155	0.11
660.34	0.12
660.525	0.09
660.71	0.08
660.895	0.11
661.08	0.1
661.264	0.06
661.449	0.14
661.634	0.09
661.819	0.11
662.004	0.14
662.189	0.02
662.374	0.05
662.559	0.06
662.743	0.03
662.928	0.07
663.113	0.07
663.298	-0.01
663.483	0.03
663.667	0.12
663.852	0.04
664.037	0.11
664.221	0.01
664.406	0.07
664.591	0.09
664.775	0.06
664.96	0.02
665.145	0.02
665.329	0.04
665.514	0.03
665.698	0.02
665.883	0
666.068	0.1
666.252	0.05
666.437	0.02
666.621	0.05
666.806	0.06
666.99	0.07
667.174	0
667.359	0.09
667.543	-0
667.728	0.02
667.912	-0.03
668.096	0.08
668.281	-0
668.465	0.01
668.649	0.02
668.834	-0.01
669.018	0
669.202	0.01
669.387	-0.06
669.571	0.05
669.755	-0.01
669.939	0
670.124	-0
670.308	0.04
670.492	-0.01
670.676	0.03
670.86	-0
671.044	-0.02
671.228	0.04
671.413	-0.05
671.597	0
671.781	-0.01
671.965	0
672.149	0.02
672.333	-0.03
672.517	0.01
672.701	0.05
672.885	-0.01
673.069	-0.06
673.253	0
673.437	0.01
673.621	-0.02
673.804	-0.02
673.988	-0.01
674.172	0.01
674.356	-0.04
674.54	-0.04
674.724	0.1
674.908	0.01
675.091	-0.03
675.275	-0.02
675.459	0.02
675.643	0.08
675.826	0.02
676.01	0.01
676.194	-0.03
676.377	0.05
676.561	0.04
676.745	0.02
676.928	0.02
677.112	0.04
677.296	-0.02
677.479	-0.02
677.663	-0.03
677.846	-0.01
678.03	-0.02
678.213	-0.02
678.397	0
678.58	-0.01
678.764	-0.02
678.947	-0.04
679.131	-0.07
679.314	0.04
679.498	0
679.681	0.01
679.865	0.04
680.048	0.01
680.231	0.02
680.415	0.01
680.598	-0.02
680.781	0.01
680.965	-0.02
681.148	-0
681.331	0.01
681.514	0
681.698	-0.03
681.881	0.01
682.064	-0.06
682.247	-0.01
682.43	-0.08
682.614	0.01
682.797	0.04
682.98	0.02
683.163	-0.05
683.346	0.03
683.529	-0.05
683.712	-0.05
683.895	0.06
684.078	-0.06
684.261	-0.01
684.444	-0.01
684.627	0
684.81	-0.03
684.993	-0
685.176	0.02
685.359	-0.06
685.542	-0.02
685.725	0.03
685.908	-0.02
686.091	-0.02
686.274	0.07
686.457	0.03
686.639	-0.02
686.822	-0.02
687.005	0.03
687.188	-0
687.371	0.08
687.553	0.01
687.736	0.06
687.919	0.06
688.102	0.05
688.284	-0.03
688.467	0.01
688.65	-0.04
688.832	-0.01
689.015	0.07
689.197	-0.07
689.38	0.06
689.563	0.05
689.745	-0.06
689.928	-0.07
690.11	-0.02
690.293	0.03
690.475	-0.06
690.658	-0
690.84	-0.01
691.023	-0.03
691.205	-0.02
691.388	0.01
691.57	0.05
691.752	-0.02
691.935	-0.06
692.117	-0.03
692.3	0.01
692.482	-0.04
692.664	0.01
692.847	-0.03
693.029	0.04
693.211	0.06
693.393	-0.04
693.576	-0.02
693.758	-0.02
693.94	-0.02
694.122	-0.04
694.304	-0.06
694.487	-0.03
694.669	0.08
694.851	-0.07
695.033	0
695.215	-0.05
695.397	-0.05
695.579	0.06
695.761	-0.08
695.943	-0.05
696.125	0.09
696.308	0.03
696.49	-0.11
696.671	0.06
696.853	-0.06
697.035	0.09
697.217	-0.01
697.399	0
697.581	-0.06
697.763	-0.03
697.945	-0.08
698.127	-0.01
698.309	0.03
698.491	-0.03
698.672	0
698.854	0.06
699.036	0.04
699.218	0.02
699.399	-0
699.581	-0.02
699.763	0.03
699.945	-0.08
700.126	-0.07
700.308	-0.03
700.49	0.03
700.671	-0.06
700.853	-0.06
701.035	-0.02
701.216	0.02
701.398	-0.06
701.579	-0.03
701.761	0.06
701.943	-0.05
702.124	-0.07
702.306	-0.01
702.487	0.07
702.669	0.02
702.85	-0.05
703.031	-0.1
703.213	0.09
703.394	0.08
703.576	-0.04
703.757	0.01
703.938	0.04
704.12	0.05
704.301	0
704.483	-0.05
704.664	0.05
704.845	0.11
705.026	0.02
705.208	-0.02
705.389	0.04
705.57	0.01
705.751	-0.04
705.933	0
706.114	0.05
706.295	0.05
706.476	-0.05
706.657	0.07
706.838	0.04
707.02	0.06
707.201	-0.02
707.382	-0.01
707.563	0.06
707.744	-0.04
707.925	-0.02
708.106	-0.05
708.287	0.01
708.468	0.1
708.649	0.04
708.83	0.07
709.011	-0.04
709.192	0.04
709.373	-0.11
709.554	-0.01
709.734	0.07
709.915	0.08
710.096	0.03
710.277	-0.06
710.458	0.02
710.639	0.06
710.819	-0.12
711	-0.02
711.181	0.06
711.362	0.1
711.542	0.02
711.723	-0.04
711.904	0.06
712.085	0.03
712.265	0.02
712.446	-0.1
712.627	-0.04
712.807	0.03
712.988	-0.02
713.168	-0.04
713.349	0.02
713.53	-0.06
713.71	-0.02
713.891	-0.06
714.071	-0.03
714.252	-0.02
714.432	0.03
714.613	-0.11
714.793	0
714.974	0.02
715.154	0.02
715.334	0.13
715.515	0.12
715.695	-0.04
715.876	-0.01
716.056	-0.03
716.236	0.01
716.417	0.05
716.597	-0.03
716.777	0.14
716.957	-0.06
717.138	0.01
717.318	0
717.498	-0.03
717.678	-0
717.859	0.02
718.039	-0.1
718.219	0.03
718.399	0.09
718.579	-0.03
718.759	-0.01
718.939	0.02
719.12	0
719.3	-0.02
719.48	-0.15
719.66	-0.08
719.84	0.06
720.02	-0.03
720.2	0.01
720.38	0.04
720.56	0.05
720.74	-0.04
720.92	0.05
721.1	0.03
721.279	0.08
721.459	0.04
721.639	-0.02
721.819	0.03
721.999	-0.02
722.179	0.14
722.359	-0.09
722.538	-0
722.718	-0.01
722.898	0.01
723.078	0.06
723.257	0.06
723.437	0.05
723.617	0.12
723.797	0.08
723.976	0.07
724.156	0.11
724.336	0.06
724.515	0.16
724.695	-0.06
724.874	-0
725.054	0.08
725.234	-0.02
725.413	0.07
725.593	0.01
725.772	0.07
725.952	0.1
726.131	0.04
726.311	0.05
726.49	0.03
726.67	-0.02
726.849	-0.06
727.028	0.05
727.208	-0.01
727.387	0.11
727.567	-0.08
727.746	-0.02
727.925	0.02
728.105	-0.04
728.284	0.02
728.463	0.02
728.643	0.02
728.822	-0.11
729.001	0.07
729.18	0.1
729.359	0.09
729.539	0.07
729.718	0.03
729.897	0.14
730.076	0.01
730.255	0.03
730.434	0.09
730.614	0.09
730.793	0.14
730.972	0.03
731.151	0.02
731.33	0.12
731.509	0.08
731.688	0.14
731.867	0.13
732.046	-0.08
732.225	0.17
732.404	-0.01
732.583	-0.1
732.762	0.18
732.941	0.16
733.12	0.11
733.298	0.01
733.477	0.11
733.656	0.04
733.835	0.01
734.014	0.01
734.193	0.04
734.371	0.24
734.55	0.09
734.729	-0.03
734.908	0.18
735.086	0.11
735.265	0.18
735.444	-0.11
735.623	-0.1
735.801	0.03
735.98	0.15
736.159	0.06
736.337	0.21
736.516	0.07
736.694	0.1
736.873	0.02
737.052	0.17
737.23	0.08
737.409	0.05
737.587	0.15
737.766	-0.04
737.944	0.09
738.123	0.23
738.301	0.14
738.479	0.06
738.658	0.05
738.836	-0.04
739.015	0.19
739.193	0.19
739.371	0.02
739.55	0.09
739.728	-0.1
739.906	0.22
740.085	0.24
740.263	0.08
740.441	-0.03
740.62	0.29
740.798	0.15
740.976	-0.01
741.154	-0.02
741.332	0.11
741.511	0.02
741.689	0.13
741.867	0.1
742.045	-0.04
742.223	-0.1
742.401	-0.04
742.579	-0.04
742.757	0.13
742.935	-0.08
743.114	0.07
743.292	-0.1
743.47	0.02
743.648	-0.01
743.826	0.05
744.004	0.11
744.181	0.11
744.359	0.01
744.537	0.15
744.715	0.02
744.893	-0.02
745.071	0.02
745.249	-0.05
745.427	-0.03
745.605	0.01
745.782	0.11
745.96	0.07
746.138	0.02
746.316	0.01
746.493	-0.06
746.671	-0.02
746.849	-0.1
747.027	0.12
747.204	-0.02
747.382	0.07
747.56	-0.08
747.737	0.08
747.915	0.05
748.093	0.02
748.27	-0.01
748.448	-0.01
748.625	-0.05
748.803	-0.04
748.98	0.01
749.158	0.05
749.335	-0
749.513	0.01
749.69	0.01
749.868	-0.01
750.045	0.08
750.223	0.04
750.4	-0.22
750.578	0.13
750.755	0.04
750.932	-0.18
751.11	0.07
751.287	-0.13
751.464	0.16
751.642	-0.03
751.819	0.11
751.996	-0.05
752.173	0.01
752.351	-0.12
752.528	0.1
752.705	0.01
752.882	-0.06
753.06	0.03
753.237	0.04
753.414	0.12
753.591	0.14
753.768	-0.07
753.945	-0.03
754.122	-0.12
754.299	0.07
754.476	-0.1
754.654	0.05
754.831	0.09
755.008	0.07
755.185	-0.03
755.362	-0.08
755.539	0.01
755.716	-0.08
755.892	-0.08
756.069	-0.09
756.246	-0.13
756.423	-0.09
756.6	0.11
756.777	-0.08
756.954	0.15
757.131	0.01
757.307	-0.19
757.484	-0.15
757.661	-0.05
757.838	0.03
758.015	-0.15
758.191	0.09
758.368	-0.04
758.545	0.19
758.721	0.06
758.898	-0.04
759.075	0.07
759.251	0.14
759.428	-0.02
759.605	-0.09
759.781	-0.08
759.958	0
760.134	0.04
760.311	-0.1
760.488	0.01
760.664	0.09
760.841	-0.08
761.017	-0.08
761.194	0.15
761.37	0.02
761.547	-0.03
761.723	-0.07
761.899	0.13
762.076	0.03
762.252	-0.15
762.429	-0.09
762.605	0.04
762.781	-0.16
762.958	0.04
763.134	-0.04
763.31	0.05
763.486	0.22
763.663	-0.15
763.839	0.04
764.015	-0.21
764.191	-0.04
764.368	-0.01
764.544	-0.01
764.72	-0.01
764.896	0.06
765.072	-0.09
765.248	-0.1
765.425	0.03
765.601	-0.15
765.777	0.03
765.953	-0.19
766.129	-0.1
766.305	-0.12
766.481	0
766.657	0.07
766.833	0.11
767.009	-0.09
767.185	-0.12
767.361	0.06
767.537	-0.16
767.713	0.15
767.889	-0.05
768.065	-0.1
768.24	0.04
768.416	0.14
768.592	-0.19
768.768	-0.02
768.944	0.05
769.12	-0.16
769.295	-0.02
769.471	-0.01
769.647	-0.07
769.823	0.04
769.998	-0.07
770.174	-0.06
770.35	0.22
770.525	0.28
770.701	0.02
770.877	-0.01
771.052	-0
771.228	0.08
771.403	0.06
771.579	0.12
771.755	0.21
771.93	-0.16
772.106	-0.14
772.281	-0.08
772.457	-0.06
772.632	0.05
772.808	-0.13
772.983	0.02
773.159	-0.22
773.334	0.14
773.509	-0.01
773.685	-0.06
773.86	0.38
774.036	0.19
774.211	-0.08
774.386	-0.15
774.562	-0.06
774.737	0.16
774.912	-0.08
775.087	0
775.263	-0.03
775.438	-0.12
775.613	-0.21
775.788	-0.12
775.964	0.07
776.139	0.25
776.314	-0.09
776.489	0.02
776.664	0.02
776.839	-0.11
777.014	0.11
777.19	0.12
777.365	0.22
777.54	0.17
777.715	-0.29
777.89	-0.14
778.065	-0.12
778.24	0.07
778.415	-0.04
778.59	-0.01
778.765	-0.11
778.94	-0.07
779.115	-0.17
779.289	-0.08
779.464	0.01
779.639	-0
779.814	-0.18
779.989	-0.22
780.164	0.11
780.339	0
780.513	-0.11
780.688	-0.13
780.863	-0.14
781.038	0.08
781.212	-0.1
781.387	0.08
781.562	0.13
781.737	0.12
781.911	0.02
782.086	-0.13
782.261	-0.13
782.435	0.19
782.61	0.09
782.784	-0.06
782.959	0.21
783.134	-0.12
783.308	-0.36
783.483	0
783.657	0.29
783.832	0.15
784.006	-0.28
784.181	0
784.355	0.27
784.53	0.01
784.704	-0.22
784.878	0.24
785.053	0.12
785.227	0.27
785.402	0.24
785.576	-0.25
785.75	-0.01
785.925	0.01
786.099	-0.02
786.273	-0.09
786.448	0.14
786.622	0.09
786.796	0.05
786.97	-0.16
787.145	0.4
787.319	-0.29
787.493	-0.16
787.667	-0.29
787.841	-0.11
788.015	0.1
788.19	0.01
788.364	0.05
788.538	-0
788.712	0.13
788.886	0
789.06	-0.02
789.234	0.16
789.408	-0.15
789.582	-0.14
789.756	-0.06
789.93	-0.31
790.104	-0.01
790.278	-0.19
790.452	-0.34
790.626	0.1
790.8	-0.12
790.973	0.06
791.147	0.06
791.321	-0.05
791.495	0.17
791.669	0.01
791.843	-0.06
792.016	0.21
792.19	0.29
792.364	-0.2
792.538	0.38
792.711	0.16
792.885	-0.04
793.059	-0.25
793.233	-0.44
793.406	0.21
793.58	0.02
793.754	-0.05
793.927	-0.04
794.101	0.3
794.274	0.05
794.448	0.09
794.622	-0.4
794.795	0.27
794.969	-0.26
795.142	0.16
795.316	-0.1
795.489	-0.19
795.663	0.28
795.836	-0.14
796.009	-0.38
796.183	0.07
796.356	0.09
796.53	0.01
796.703	0.01
796.876	0.43
797.05	-0.14
797.223	-0.09
797.396	0.16
797.57	0.06
797.743	0.18
797.916	0.15
798.09	0.25
798.263	0.02
798.436	0.16
798.609	-0.33
798.782	0.08
798.956	0.26
799.129	-0.01
799.302	-0.04
799.475	-0.27
799.648	-0.43
799.821	-0.28
799.994	0.07
800.167	-0.54
800.34	0.05
800.514	-0.04
800.687	-0.26
800.86	-0.31
801.033	-0.08
801.206	-0.16
801.379	-0.08
801.551	0.12
801.724	0.09
801.897	0.14
802.07	-0.11
802.243	-0.59
802.416	-0.16
802.589	-0.14
802.762	0.24
802.935	-0.13
803.107	-0.01
803.28	0.24
803.453	-0.02
803.626	-0.39
803.798	-0.02
803.971	-0.2
804.144	-0.41
804.317	-0.17
804.489	0.4
804.662	-0.15
804.835	-0.02
805.007	-0.57
805.18	0.32
805.353	0.01
805.525	-0.1
805.698	-0.13
805.87	0.06
806.043	0.29
806.215	-0.26
806.388	0.04
806.56	0.18
806.733	0.45
806.905	-0.16
807.078	-0.18
807.25	-0.14
807.423	0.13
807.595	-0.03
807.768	0.04
807.94	0.57
808.112	-0.17
808.285	-0.31
808.457	-0.26
808.629	0.15
808.802	0.26
808.974	0.05
809.146	-0.02
809.318	-0.3
809.491	-0.03
809.663	0.34
809.835	-0.31
810.007	0.54
810.18	-0.38
810.352	-0.48
810.524	-0.02
810.696	0.21
810.868	0.4
811.04	-0.59
811.212	-0.34
811.384	0.27
811.556	0.31
811.728	-0.11
811.901	0.59
812.073	-0.19
812.245	-0.03
812.417	0.01
812.589	-0.36
812.76	-0.25
812.932	0.02
813.104	0.11
813.276	-0.34
813.448	0.25
813.62	0.04
813.792	-0.07
813.964	-0.08
814.136	0.22
814.307	0.25
814.479	-0.51
814.651	0.02
814.823	0.4
814.995	-0.2
815.166	0.27
815.338	-0.24
815.51	-0.41
815.681	0.9
815.853	0.4
816.025	-0.61
816.196	0.39
816.368	-0.27
816.54	-0.62
816.711	-0.31
816.883	-0.05
817.054	0.76
817.226	-0.6
817.398	0.04
817.569	-0.23
817.741	-0.3
817.912	-0.05
818.084	-0.48
818.255	0.26
818.426	-0.25
818.598	0.09
818.769	-0.12
818.941	0.01
819.112	0.62
819.283	0.42
819.455	-0.4
819.626	0.15
819.798	0.03
819.969	0.17
820.14	0.25
820.311	0.1
820.483	0.32
820.654	0.02
820.825	-0.03
820.996	-0.17
821.168	-0.54
821.339	0.21
821.51	-0.51
821.681	-0.09
821.852	-0.08
822.023	-0.3
822.195	-0.75
822.366	0.18
822.537	-0.1
822.708	-0.05
822.879	-0.4
823.05	0.5
823.221	0.1
823.392	0.48
823.563	-0.14
823.734	0
823.905	-0.04
824.076	-0.82
824.247	-0.64
824.418	-0.1
824.589	0.72
824.759	-0.05
824.93	-0.11
825.101	-0.75
825.272	0.37
825.443	-0.06
825.614	0.74
825.784	-0.88
825.955	0.73
826.126	0.28
826.297	0.2
826.467	0.54
826.638	0.7
826.809	-1.08
826.98	-0.26
827.15	-0.06
827.321	-0.15
827.492	0.25
827.662	0.25
827.833	0.81
828.003	0.49
828.174	-0.72
828.345	-0.72
828.515	0.72
828.686	0.02
828.856	-0.24
829.027	0.14
829.197	0.02
829.368	-0.31
829.538	-0.15
829.709	0
829.879	0.2
830.049	-0.19
830.22	0.3
830.39	0.05
830.56	0.45
830.731	-0.27
830.901	-0.84
831.072	0
831.242	0.56
831.412	0.64
831.582	0.14
831.753	-0.85
831.923	0.49
832.093	-0.14
832.263	-0.29
832.434	-0.67
832.604	-0.44
832.774	0.22
832.944	-0.12
833.114	-0.36
833.284	0.49
833.454	-0.46
833.624	-0.4
833.795	-0.57
833.965	0.92
834.135	0.28
834.305	-0.6
834.475	0.21
834.645	-0.1
834.815	-0.41
834.985	-0.93
835.155	-0.04
835.325	0.12
835.494	-0.28
835.664	-0.54
835.834	-0.67
836.004	-0.07
836.174	0.87
836.344	0.01
836.514	-0.3
836.684	0.05
836.853	0.58
837.023	0.45
837.193	-0.6
837.363	0.86
837.532	0.59
837.702	-0.37
837.872	-0.16
838.041	0.28
838.211	0.94
838.381	-1
838.55	-0.17
838.72	1.42
838.89	1.53
839.059	-0.02
839.229	-0.56
839.398	1.21
839.568	0.05
839.738	-0.03
839.907	0.71
840.077	-0.44
840.246	0
840.416	-1.13
840.585	-1.01
840.755	0.92
840.924	0.8
841.093	-0.22
841.263	0.59
841.432	0.01
841.602	-0.69
841.771	-0.87
841.94	0.25
842.11	1.63
842.279	1.62
842.448	-0.68
842.617	-0.72
842.787	1.06
842.956	-0.87
843.125	0.33
843.294	0.47
843.464	0.67
843.633	-0.08
843.802	-0.89
843.971	-0.18
844.14	0.49
844.309	0.65
844.479	-0.49
844.648	-0.8
844.817	-0.52
844.986	-0.22
845.155	-0.32
845.324	-0.25
845.493	0.65
845.662	-0.95
845.831	-0.13
846	0.78
846.169	-0.51
846.338	1
846.507	0.55
846.676	0.17
846.844	-0.08
847.013	0.96
847.182	0.68
847.351	-0.57
847.52	-0.21
847.689	0.65
847.858	-0.86
848.026	-0.66
848.195	0.43
848.364	-0.41
848.533	-1.05
848.701	-0.54
848.87	-1.03
849.039	0.6
849.207	0.65
849.376	0.85
849.545	0.99
849.713	-0.66
849.882	-0.17
850.051	-0.49
850.219	0.01
850.388	1.18
850.556	-0.39
850.725	-1.23
850.893	0.5
851.062	-0.13
851.23	-0.18
851.399	-1.44
851.567	-1.49
851.736	-0.98
851.904	-1.41
852.073	0.18
852.241	0.61
852.41	0.08
852.578	-0.91
852.746	-1.04
852.915	0.52
853.083	0.18
853.251	-1.53
853.42	-0.7
853.588	0.13
853.756	0.96
853.924	0.68
854.093	-0.58
854.261	-0.31
854.429	-1.5
854.597	0.59
854.765	-1.04
854.934	0.58
855.102	2.54
855.27	-0.45
855.438	0.54
855.606	1.47
855.774	1.5
855.942	-1.16
856.11	-0.59
856.278	-0.11
856.446	1.05
856.614	-1.19
856.782	-0.52
856.95	0.77
857.118	0.86
857.286	0.12
857.454	-0.61
857.622	0.64
857.79	0.33
857.958	-1.95
858.126	-0.36
858.294	-2.75
858.462	-0.61
858.629	-1.15
858.797	-1.05
858.965	0.19
859.133	-0.51
859.301	-1.12
859.468	0.14
859.636	-1.41
859.804	2.88
859.971	0.12
860.139	-1.18
860.307	0.99
860.474	-0.02
860.642	-1.69
860.81	-0.57
860.977	0.19
861.145	0.36
861.313	0
861.48	0.77
861.648	0.9
861.815	-0.19
861.983	-1.34
862.15	0.6
862.318	0.49
862.485	0.01
862.653	-0.01
862.82	-0.8
862.988	1.05
863.155	-0.32
863.322	-1.25
863.49	-1.42
863.657	-0.27
863.824	1.42
863.992	2.14
864.159	0.58
864.326	1.65
864.494	-1.01
864.661	2.61
864.828	-1.4
864.996	0.62
865.163	0.69
865.33	-1.38
865.497	-2.19
865.664	-0.14
865.832	-2.71
865.999	-1.45
866.166	-0.31
866.333	-2.89
866.5	0.16
866.667	0.3
866.834	-0.88
867.001	0.6
867.168	-2.56
867.335	0.86
867.502	-2.9
867.669	0
867.836	3.08
868.003	-1.01
868.17	0.15
868.337	2.77
868.504	0.21
868.671	-1.23
868.838	0.12
869.005	0.9
869.172	-0.05
869.339	0.55
869.505	0.35
869.672	0.47
869.839	0.77
870.006	0.61
870.173	-2.77
870.339	-0.8
870.506	1.72
870.673	-0.27
870.84	0.51
871.006	-0.87
871.173	-1.47
871.34	0.73
871.506	-0.99
871.673	0.45
871.839	-1.67
872.006	0.7
872.173	-1.68
872.339	-0.45
872.506	1.18
872.672	0.76
872.839	-1.53
873.005	0.25
873.172	3.43
873.338	2.25
873.505	0.84
873.671	0.29
873.838	2.07
874.004	-1.36
874.171	-1.44
874.337	1.15
874.503	1.01
874.67	1.38
874.836	0.47
875.002	1.9
875.169	0.89
875.335	-0.14
875.501	-1.02
875.668	-1.88
875.834	0.5
876	-0.44
876.166	2.68
876.332	0.9
876.499	2.51
876.665	-0.54
876.831	-2.19
876.997	1.85
877.163	0.46
877.329	-2.29
877.495	1.12
877.662	0.77
877.828	0.05
877.994	-1.2
878.16	-3.01
878.326	-0.78
878.492	-0.22
878.658	-0.46
878.824	1.28
878.99	0.95
879.156	-1.97
879.322	1.31
879.487	-1.61
879.653	-0.06
879.819	1.36
879.985	-1.38
880.151	1.9
880.317	0.64
880.483	0.86
880.648	0.56
880.814	-1.47
880.98	1.22
881.146	-3.94
881.312	-0.43
881.477	-1.73
881.643	0.19
881.809	1.98
881.974	3.06
882.14	-3.14
882.306	0.72
882.471	1.83
882.637	-1.97
882.803	2.04
882.968	1.03
883.134	3.09
883.299	0.54
883.465	-0.32
883.63	1.64
883.796	-0.13
883.961	0.73
884.127	0.45
884.292	-5.38
884.458	-3.01
884.623	-3.01
