Data from Apollo_Calib_20240827__AbsoluteIrradiance__143__01-32-02-342.txt Node

Date: Wed Aug 28 01:32:02 BST 2024
User: biology
Spectrometer: FLMT08252
Trigger mode: 0
Integration Time (sec): 5.000000E-1
Scans to average: 5
Electric dark correction enabled: true
Nonlinearity correction enabled: false
Boxcar width: 0
XAxis mode: Wavelengths
Number of Pixels in Spectrum: 3648
>>>>>Begin Spectral Data<<<<<
179.588	-0
179.809	-0
180.03	-0
180.251	-0
180.473	-0
180.694	0
180.915	0
181.136	0
181.357	0
181.578	-0
181.799	-0
182.02	-0
182.241	0
182.462	-0
182.683	-0
182.904	-0
183.125	-0
183.346	0
183.567	0
183.788	-0
184.009	-0
184.23	-0
184.451	-0
184.672	-0
184.892	-0
185.113	-0
185.334	0
185.555	-0
185.776	-0
185.996	0
186.217	-0
186.438	-0
186.659	-0
186.879	0
187.1	-0
187.321	-0
187.541	-0
187.762	-0
187.983	0
188.203	-0
188.424	0
188.644	-0
188.865	-0
189.086	-0
189.306	-0
189.527	-0
189.747	0
189.968	-0
190.188	0
190.409	0
190.629	0
190.849	-0
191.07	-0
191.29	0
191.511	-0
191.731	-0
191.951	-0
192.172	-0
192.392	-0
192.612	-0
192.833	0
193.053	0
193.273	0
193.493	-0
193.714	-0
193.934	0
194.154	0
194.374	-0
194.594	0
194.815	0
195.035	0
195.255	0
195.475	-0
195.695	0
195.915	0
196.135	-0
196.355	0
196.575	0
196.795	-0
197.015	-0
197.235	-0
197.455	-0
197.675	-0
197.895	-0
198.115	-0
198.335	0
198.555	-0
198.775	0
198.995	0
199.214	0
199.434	-0
199.654	-0
199.874	-0
200.094	0.84
200.313	-0.11
200.533	-0.54
200.753	-0.86
200.973	0.73
201.192	0.29
201.412	-0.94
201.632	-0.66
201.851	0.53
202.071	-0.77
202.291	-0.57
202.51	-0.8
202.73	0.44
202.95	-0.17
203.169	-0.55
203.389	-0.04
203.608	-0.2
203.828	-0.7
204.047	-0.41
204.267	0.33
204.486	0.34
204.706	0.25
204.925	-0.05
205.145	-0.24
205.364	0.15
205.583	0.19
205.803	-0.33
206.022	-0.51
206.242	0.13
206.461	0.31
206.68	-0.3
206.9	-0.09
207.119	0.3
207.338	0.26
207.557	-0.25
207.777	-0.47
207.996	-0.26
208.215	0.44
208.434	-0.12
208.654	-0.57
208.873	-0.28
209.092	0.63
209.311	-0.37
209.53	-0.14
209.749	-0.02
209.968	-0.11
210.187	-0.15
210.407	-0.72
210.626	-0.39
210.845	0.15
211.064	-0.09
211.283	-0.29
211.502	0.4
211.721	0.07
211.94	-0.04
212.159	0.2
212.377	0.01
212.596	0.26
212.815	-0.09
213.034	-0.12
213.253	0.21
213.472	0.29
213.691	-0.07
213.91	-0.31
214.128	-0.16
214.347	0.44
214.566	-0.3
214.785	-0.27
215.003	0.11
215.222	-0.06
215.441	-0.08
215.66	-0.17
215.878	-0.01
216.097	0.09
216.316	-0.13
216.534	-0.06
216.753	-0.01
216.972	0
217.19	-0.02
217.409	-0.28
217.627	-0.04
217.846	-0.05
218.064	0.17
218.283	-0.27
218.501	0.43
218.72	0.14
218.938	-0.26
219.157	-0.09
219.375	0.2
219.594	-0.08
219.812	-0.12
220.031	-0.23
220.249	0.35
220.467	0.27
220.686	-0.14
220.904	-0.17
221.122	-0.22
221.341	0.12
221.559	0.05
221.777	-0.37
221.995	0.03
222.214	-0.02
222.432	-0.25
222.65	0.01
222.868	-0.04
223.086	0.11
223.305	0.03
223.523	-0.14
223.741	0.21
223.959	-0.06
224.177	-0.22
224.395	-0.06
224.613	0.01
224.831	0.04
225.049	-0.24
225.267	-0.13
225.485	0.04
225.703	0.05
225.921	-0.08
226.139	-0.09
226.357	0.02
226.575	-0.02
226.793	-0.07
227.011	0.38
227.229	0.16
227.447	0.08
227.665	-0.06
227.883	-0.26
228.1	0.1
228.318	-0.02
228.536	-0.27
228.754	-0.14
228.972	0.12
229.189	0.06
229.407	-0.07
229.625	-0.12
229.843	0.09
230.06	0.12
230.278	-0.14
230.496	-0.06
230.713	0.02
230.931	0.22
231.149	-0.09
231.366	-0.22
231.584	0.02
231.801	0.3
232.019	-0.08
232.236	-0.23
232.454	-0.15
232.671	0.01
232.889	-0.1
233.106	-0.03
233.324	-0.04
233.541	-0.09
233.759	-0.09
233.976	-0.04
234.194	-0.06
234.411	-0.07
234.628	-0.15
234.846	-0.02
235.063	-0.05
235.28	-0.04
235.498	-0.07
235.715	-0.15
235.932	-0.04
236.149	-0
236.367	-0.12
236.584	-0.07
236.801	-0.05
237.018	-0.04
237.236	-0.04
237.453	-0.21
237.67	0.13
237.887	-0.04
238.104	-0.06
238.321	-0.2
238.538	-0.1
238.755	0.09
238.973	-0.19
239.19	-0.08
239.407	0.03
239.624	-0.01
239.841	-0.15
240.058	-0.1
240.275	-0.03
240.492	-0.06
240.709	-0.03
240.925	-0.11
241.142	0.05
241.359	-0.04
241.576	-0.09
241.793	-0.05
242.01	0.02
242.227	0.01
242.444	-0.06
242.66	-0.03
242.877	-0.05
243.094	-0.03
243.311	0.03
243.527	-0.08
243.744	-0.02
243.961	0.08
244.178	-0.12
244.394	-0.04
244.611	0.07
244.828	0.06
245.044	-0.11
245.261	0.01
245.477	-0
245.694	0.03
245.911	-0.12
246.127	-0.07
246.344	0.09
246.56	0.08
246.777	-0.07
246.993	-0.03
247.21	0.06
247.426	-0.02
247.643	-0.06
247.859	-0.07
248.076	-0.03
248.292	0.19
248.508	-0.12
248.725	0.02
248.941	0.01
249.157	0.04
249.374	-0.05
249.59	-0
249.806	0.05
250.023	-0.01
250.239	-0.05
250.455	-0.1
250.671	-0
250.888	-0.04
251.104	-0.06
251.32	-0.04
251.536	0.02
251.752	-0.02
251.969	-0.02
252.185	0
252.401	0.13
252.617	0.04
252.833	-0.11
253.049	-0.06
253.265	-0.06
253.481	0.01
253.697	-0.06
253.913	-0.09
254.129	0.04
254.345	0.01
254.561	-0.04
254.777	-0.02
254.993	0.08
255.209	0.03
255.425	-0.08
255.641	-0.1
255.857	0.11
256.073	0.02
256.288	-0.11
256.504	-0.07
256.72	-0.01
256.936	0.03
257.152	-0.03
257.367	-0.03
257.583	0.03
257.799	0.09
258.015	-0.14
258.23	0.02
258.446	0.12
258.662	-0.02
258.877	-0.09
259.093	-0.08
259.309	-0.05
259.524	0
259.74	-0.03
259.955	-0.1
260.171	-0.02
260.387	0.03
260.602	0.03
260.818	0.02
261.033	-0.08
261.249	-0.07
261.464	-0.11
261.68	-0.08
261.895	0
262.11	0.06
262.326	-0.08
262.541	-0.14
262.757	0.05
262.972	0.03
263.187	0.01
263.403	-0
263.618	0.03
263.833	-0.01
264.049	-0.06
264.264	-0.04
264.479	0.01
264.694	0.08
264.91	-0.05
265.125	-0.03
265.34	0.03
265.555	0.14
265.77	0.1
265.986	-0.02
266.201	-0.03
266.416	0.07
266.631	0.01
266.846	-0.03
267.061	-0.05
267.276	0.05
267.491	-0.15
267.706	-0.02
267.921	0.03
268.136	-0.01
268.351	0.04
268.566	-0.07
268.781	0.13
268.996	0.03
269.211	-0
269.426	-0.07
269.641	-0.09
269.856	0.03
270.071	-0.13
270.285	-0.13
270.5	0.05
270.715	0.02
270.93	-0.03
271.145	0.03
271.359	0.03
271.574	-0.09
271.789	-0.03
272.004	-0.02
272.218	-0.01
272.433	0.01
272.648	-0.07
272.862	0.02
273.077	-0.04
273.292	-0
273.506	-0.1
273.721	-0.01
273.936	0.01
274.15	0.06
274.365	-0.05
274.579	-0.02
274.794	0.03
275.008	0.04
275.223	-0.12
275.437	-0.03
275.652	0.03
275.866	0.01
276.081	-0.08
276.295	0.05
276.509	0.01
276.724	0
276.938	-0
277.153	0
277.367	0.03
277.581	-0.04
277.796	-0.08
278.01	-0.07
278.224	0.01
278.438	0.09
278.653	-0.05
278.867	-0.07
279.081	-0.16
279.295	-0.08
279.51	0.03
279.724	-0.12
279.938	0
280.152	0.05
280.366	-0.07
280.58	0.04
280.794	0.07
281.008	0.01
281.222	0.02
281.437	0.1
281.651	0
281.865	0.08
282.079	-0.03
282.293	-0.1
282.507	-0.08
282.721	0.01
282.935	-0.06
283.148	-0.12
283.362	-0.05
283.576	-0.05
283.79	0.05
284.004	-0.05
284.218	0.05
284.432	-0.04
284.646	-0.02
284.859	-0.04
285.073	-0.06
285.287	-0.04
285.501	-0.04
285.714	-0.06
285.928	0.04
286.142	-0
286.356	-0.01
286.569	-0.03
286.783	0.02
286.997	0.02
287.21	-0.03
287.424	-0.03
287.637	-0.02
287.851	-0.02
288.065	-0.01
288.278	-0.03
288.492	0.03
288.705	0.03
288.919	0.03
289.132	-0.08
289.346	0.06
289.559	-0.09
289.773	-0.06
289.986	0.02
290.2	0
290.413	0.04
290.626	-0.1
290.84	0.02
291.053	-0.06
291.267	0.06
291.48	-0.03
291.693	-0.01
291.906	-0.01
292.12	-0.07
292.333	-0.05
292.546	0
292.76	0.04
292.973	0.04
293.186	0.01
293.399	-0.05
293.612	0.03
293.826	-0.03
294.039	-0
294.252	-0.06
294.465	0.02
294.678	0.03
294.891	-0.01
295.104	-0.03
295.317	-0.05
295.53	-0.01
295.743	-0.03
295.956	-0.03
296.169	0.1
296.382	0.06
296.595	-0
296.808	-0.03
297.021	0.05
297.234	0.03
297.447	0
297.66	-0.01
297.873	0.1
298.086	0.02
298.299	-0.06
298.511	-0.01
298.724	-0.01
298.937	-0.02
299.15	-0.07
299.363	-0.01
299.575	0.04
299.788	0.03
300.001	-0.01
300.213	-0.05
300.426	-0.02
300.639	-0.03
300.852	-0.05
301.064	0.05
301.277	0.07
301.489	0.01
301.702	0.02
301.915	-0.04
302.127	0.01
302.34	0.03
302.552	0.01
302.765	-0.05
302.977	0.02
303.19	-0.04
303.402	-0.02
303.615	-0.02
303.827	-0.02
304.04	-0.01
304.252	0.03
304.464	-0.05
304.677	0.07
304.889	0.06
305.102	-0.04
305.314	-0.03
305.526	-0
305.739	0.04
305.951	-0.03
306.163	-0.01
306.375	0.03
306.588	-0.04
306.8	-0.01
307.012	-0.04
307.224	0
307.436	0.06
307.649	-0.05
307.861	0.02
308.073	0.04
308.285	-0
308.497	-0.07
308.709	-0.05
308.921	0.01
309.133	0.02
309.346	-0.03
309.558	-0.02
309.77	0.03
309.982	0.07
310.194	-0.01
310.406	-0.03
310.617	0.07
310.829	0.03
311.041	0.02
311.253	-0.05
311.465	-0.01
311.677	-0
311.889	-0.01
312.101	-0.01
312.313	0.06
312.524	0.01
312.736	-0.06
312.948	-0.01
313.16	0.05
313.372	0
313.583	0.01
313.795	-0.06
314.007	-0.05
314.218	0.01
314.43	0.01
314.642	-0.05
314.853	-0.1
315.065	0.02
315.277	-0.01
315.488	-0.01
315.7	-0
315.912	-0
316.123	-0.01
316.335	-0.02
316.546	0.11
316.758	-0
316.969	-0.03
317.181	-0.02
317.392	-0
317.604	0.05
317.815	-0.03
318.026	-0.03
318.238	-0.01
318.449	0.04
318.661	-0.08
318.872	-0.05
319.083	-0.06
319.295	0.01
319.506	-0.01
319.717	0.01
319.929	0
320.14	0.02
320.351	-0.01
320.562	-0
320.774	0.02
320.985	-0
321.196	-0.05
321.407	-0.05
321.618	0.05
321.829	0.03
322.041	0
322.252	-0.01
322.463	0.02
322.674	0.03
322.885	-0.04
323.096	-0
323.307	-0.03
323.518	0.08
323.729	-0.01
323.94	-0.02
324.151	-0.06
324.362	0.02
324.573	0.04
324.784	-0.04
324.995	0.03
325.206	-0.04
325.417	-0.05
325.628	-0.01
325.838	-0.01
326.049	0.02
326.26	0.02
326.471	-0.01
326.682	0.04
326.892	-0.02
327.103	-0.07
327.314	-0.05
327.525	0.06
327.735	-0
327.946	-0.06
328.157	-0.02
328.368	-0.01
328.578	-0.02
328.789	0.03
328.999	-0
329.21	0
329.421	0.01
329.631	-0.08
329.842	-0.07
330.052	-0.01
330.263	0.03
330.473	0.04
330.684	-0.03
330.894	-0.05
331.105	0
331.315	0.02
331.526	-0.08
331.736	0.11
331.947	0.02
332.157	0.02
332.367	-0.04
332.578	0.02
332.788	0.02
332.999	-0.02
333.209	-0.02
333.419	-0.09
333.629	0
333.84	0.05
334.05	0
334.26	0.04
334.47	-0.01
334.681	0.07
334.891	-0.06
335.101	0
335.311	0.05
335.521	-0.01
335.732	-0.07
335.942	0.04
336.152	0.01
336.362	0.01
336.572	-0.02
336.782	0.04
336.992	-0.02
337.202	-0.03
337.412	-0.08
337.622	0.04
337.832	-0.02
338.042	-0.01
338.252	-0.02
338.462	-0.02
338.672	0.01
338.882	0.01
339.092	0
339.302	0.03
339.511	0.01
339.721	-0.01
339.931	-0.03
340.141	0.02
340.351	0.05
340.561	0.02
340.77	-0.01
340.98	0.01
341.19	0.02
341.4	-0.05
341.609	-0.05
341.819	-0.02
342.029	-0.03
342.238	0.02
342.448	-0.01
342.658	0.01
342.867	-0.02
343.077	0.01
343.286	-0.01
343.496	0.01
343.706	0.05
343.915	-0.04
344.125	0
344.334	-0
344.544	-0.08
344.753	-0.04
344.963	-0.02
345.172	-0.02
345.381	0.02
345.591	-0.05
345.8	-0.03
346.01	0.03
346.219	0.09
346.428	-0.12
346.638	0.02
346.847	-0.01
347.056	0.05
347.266	-0.04
347.475	0.05
347.684	0.02
347.893	0.02
348.103	0.01
348.312	-0.02
348.521	-0.01
348.73	0.01
348.94	0.03
349.149	-0
349.358	-0.01
349.567	-0.03
349.776	-0.05
349.985	-0.02
350.194	0.03
350.403	0.06
350.612	-0.06
350.821	-0.03
351.03	-0.04
351.239	-0.03
351.448	-0.03
351.657	0
351.866	0.07
352.075	-0
352.284	-0.05
352.493	-0.05
352.702	0.04
352.911	0.02
353.12	0.01
353.329	-0.02
353.538	0.02
353.746	0
353.955	-0.01
354.164	0.03
354.373	0.01
354.582	0.05
354.79	0.01
354.999	-0.01
355.208	-0
355.416	0.05
355.625	-0.05
355.834	-0.02
356.042	-0.01
356.251	-0.03
356.46	-0.06
356.668	0.02
356.877	0.08
357.085	0.03
357.294	-0.1
357.503	0.01
357.711	0.02
357.92	0.12
358.128	-0
358.337	0
358.545	0.04
358.754	-0.02
358.962	0.03
359.17	-0.01
359.379	0.03
359.587	0.02
359.796	-0.01
360.004	0.03
360.212	-0
360.421	0.05
360.629	-0.03
360.837	-0.04
361.046	0.04
361.254	0.06
361.462	0.01
361.67	-0.04
361.879	-0.02
362.087	0.04
362.295	0.01
362.503	-0.01
362.711	-0.04
362.92	-0.01
363.128	-0.05
363.336	-0.08
363.544	-0.06
363.752	-0.01
363.96	-0.02
364.168	-0.02
364.376	-0.04
364.584	0.01
364.792	0.02
365	0.08
365.208	-0.01
365.416	-0.02
365.624	0.03
365.832	-0.02
366.04	0.06
366.248	0.03
366.456	0.04
366.664	0.01
366.872	0.01
367.079	-0.03
367.287	0.01
367.495	0.01
367.703	-0.03
367.911	-0
368.118	-0.01
368.326	0.02
368.534	-0.03
368.742	0.01
368.949	-0.03
369.157	-0.02
369.365	-0.01
369.572	-0.03
369.78	-0.06
369.988	0.04
370.195	0.02
370.403	0.01
370.61	-0.01
370.818	0.01
371.026	0.02
371.233	-0.06
371.441	0.01
371.648	-0
371.856	-0
372.063	-0.03
372.271	-0.02
372.478	-0.04
372.685	0.01
372.893	0.04
373.1	-0.03
373.308	-0.04
373.515	0.08
373.722	0.04
373.93	-0.02
374.137	0.04
374.344	0.06
374.552	0.02
374.759	0.01
374.966	-0.04
375.173	-0.02
375.381	0.04
375.588	0.01
375.795	-0.05
376.002	-0.03
376.209	-0.03
376.417	-0
376.624	-0.01
376.831	0.05
377.038	-0.03
377.245	-0.08
377.452	-0.04
377.659	-0.04
377.866	-0.05
378.073	-0.02
378.28	-0.03
378.487	0.02
378.694	-0
378.901	-0.03
379.108	0
379.315	0.04
379.522	0.09
379.729	-0
379.936	-0.04
380.143	-0.02
380.35	0.01
380.557	-0.01
380.763	0.01
380.97	-0.05
381.177	-0.03
381.384	-0.02
381.591	-0.04
381.797	0.02
382.004	-0.01
382.211	0.04
382.418	-0.01
382.624	0.04
382.831	0.04
383.038	0.04
383.244	-0.04
383.451	-0.03
383.658	0
383.864	-0.04
384.071	-0.03
384.277	0.04
384.484	-0.02
384.69	0.01
384.897	-0.04
385.103	-0.02
385.31	-0.04
385.516	-0.02
385.723	-0.04
385.929	-0.04
386.136	-0.01
386.342	0.03
386.549	-0.05
386.755	0.06
386.961	0.02
387.168	-0.02
387.374	-0.01
387.58	0.02
387.787	-0.04
387.993	0.05
388.199	-0.07
388.406	0.03
388.612	-0.03
388.818	-0.03
389.024	0.03
389.231	-0.03
389.437	0.05
389.643	0.06
389.849	0.03
390.055	-0.01
390.261	-0.03
390.467	0
390.674	-0.02
390.88	-0.02
391.086	0.07
391.292	-0.02
391.498	0.04
391.704	0.01
391.91	-0.03
392.116	-0.02
392.322	-0.09
392.528	0.02
392.734	-0.02
392.94	0.02
393.146	0.01
393.352	0.02
393.557	-0.01
393.763	0.01
393.969	0.03
394.175	-0.02
394.381	0.06
394.587	-0.04
394.792	-0.02
394.998	0.06
395.204	0.08
395.41	0.02
395.615	0.03
395.821	0.05
396.027	0.07
396.233	0
396.438	0.04
396.644	0.05
396.85	0.09
397.055	0.03
397.261	0.07
397.466	0.02
397.672	0.07
397.878	0.06
398.083	0.06
398.289	0.03
398.494	0.1
398.7	0.06
398.905	-0.04
399.111	0.12
399.316	0.02
399.522	0.06
399.727	0.07
399.932	0.03
400.138	0.05
400.343	0.1
400.549	0.08
400.754	0.07
400.959	0.08
401.165	0.05
401.37	0.14
401.575	0.18
401.78	0.08
401.986	0.1
402.191	0.14
402.396	0.09
402.601	0.16
402.807	0.2
403.012	0.18
403.217	0.18
403.422	0.15
403.627	0.12
403.832	0.16
404.037	0.24
404.243	0.21
404.448	0.17
404.653	0.18
404.858	0.19
405.063	0.25
405.268	0.18
405.473	0.21
405.678	0.19
405.883	0.39
406.088	0.25
406.293	0.21
406.498	0.22
406.703	0.25
406.907	0.22
407.112	0.17
407.317	0.26
407.522	0.28
407.727	0.19
407.932	0.25
408.136	0.35
408.341	0.26
408.546	0.25
408.751	0.26
408.956	0.24
409.16	0.28
409.365	0.25
409.57	0.22
409.774	0.25
409.979	0.29
410.184	0.26
410.388	0.2
410.593	0.26
410.798	0.2
411.002	0.2
411.207	0.25
411.411	0.23
411.616	0.18
411.82	0.19
412.025	0.23
412.229	0.18
412.434	0.23
412.638	0.15
412.843	0.18
413.047	0.21
413.252	0.1
413.456	0.14
413.66	0.22
413.865	0.1
414.069	0.21
414.273	0.13
414.478	0.13
414.682	0.11
414.886	0.08
415.091	0.08
415.295	0.04
415.499	0.13
415.703	0.06
415.908	0.12
416.112	-0.07
416.316	0.12
416.52	0.08
416.724	0.03
416.929	0.09
417.133	0.15
417.337	0.09
417.541	0.06
417.745	0.08
417.949	0.07
418.153	0.11
418.357	0.04
418.561	0.08
418.765	0.09
418.969	0.2
419.173	0.11
419.377	0.03
419.581	0.15
419.785	0.05
419.989	0.07
420.193	0.05
420.397	0.07
420.601	0.12
420.804	0.08
421.008	0.05
421.212	0.08
421.416	0.07
421.62	0.02
421.823	0.03
422.027	0.16
422.231	0.07
422.435	0.01
422.638	0.03
422.842	0.03
423.046	-0
423.249	0.07
423.453	0.05
423.657	0.03
423.86	0.06
424.064	0
424.268	0.09
424.471	0.07
424.675	0.12
424.878	0.13
425.082	0.01
425.285	0.07
425.489	0.03
425.692	0.04
425.896	-0
426.099	0.06
426.303	-0.03
426.506	-0
426.71	0.08
426.913	0.06
427.116	0.1
427.32	0.01
427.523	-0.01
427.726	0.06
427.93	-0.04
428.133	0.02
428.336	-0.04
428.54	-0.02
428.743	0.07
428.946	0.05
429.149	-0.01
429.353	0.04
429.556	-0.03
429.759	-0.01
429.962	-0.04
430.165	0.03
430.368	0.04
430.571	0
430.775	0.03
430.978	0
431.181	0.05
431.384	0.04
431.587	0.02
431.79	0.02
431.993	0.05
432.196	0.02
432.399	0
432.602	0.07
432.805	-0.01
433.008	-0.03
433.211	-0.09
433.414	0.03
433.616	0.05
433.819	0.02
434.022	-0.08
434.225	0.11
434.428	0.03
434.631	0.08
434.833	-0
435.036	0.05
435.239	0.03
435.442	0.03
435.645	-0.01
435.847	0.04
436.05	0.06
436.253	0.03
436.455	-0.02
436.658	-0.02
436.861	0.11
437.063	-0.03
437.266	0.01
437.468	0.03
437.671	0.18
437.874	0.01
438.076	-0.04
438.279	-0.04
438.481	0.07
438.684	-0.02
438.886	0.05
439.089	-0.07
439.291	0
439.494	0.06
439.696	0.01
439.899	-0.02
440.101	0.04
440.303	-0.03
440.506	0.06
440.708	0.02
440.91	0.04
441.113	0.01
441.315	0.05
441.517	0
441.72	0.08
441.922	0.04
442.124	0
442.326	0.04
442.529	0.13
442.731	-0.02
442.933	0.15
443.135	0.06
443.337	0.02
443.539	-0
443.742	0
443.944	0.01
444.146	-0.04
444.348	0.04
444.55	0.02
444.752	0.02
444.954	-0
445.156	0.08
445.358	0.03
445.56	0.07
445.762	0.02
445.964	0.08
446.166	0.01
446.368	-0.04
446.57	0.12
446.772	0.09
446.974	0.04
447.175	0.07
447.377	0.03
447.579	0.06
447.781	0
447.983	0.19
448.184	0.03
448.386	0.07
448.588	-0.02
448.79	0.06
448.991	0.03
449.193	0.04
449.395	0.05
449.597	0.07
449.798	0.06
450	0.07
450.202	0.06
450.403	0.09
450.605	0.08
450.806	0.03
451.008	0
451.21	0.06
451.411	0.07
451.613	0.1
451.814	0.04
452.016	0.09
452.217	0.07
452.419	0.1
452.62	0.06
452.821	0.1
453.023	0.11
453.224	0.09
453.426	0.03
453.627	0.08
453.828	0.13
454.03	0.09
454.231	0.1
454.432	-0.02
454.634	0.11
454.835	0.03
455.036	-0.04
455.238	0.09
455.439	0.13
455.64	0.01
455.841	0.04
456.042	0.14
456.244	0.09
456.445	0.01
456.646	-0
456.847	0.02
457.048	0.03
457.249	0.05
457.45	0.19
457.651	0.01
457.852	0.06
458.054	0.02
458.255	-0.02
458.456	0.03
458.657	0.01
458.858	-0
459.058	0.07
459.259	0.06
459.46	0.03
459.661	-0.02
459.862	0.17
460.063	0
460.264	0.05
460.465	0.01
460.666	0.08
460.866	-0
461.067	0.03
461.268	0.05
461.469	0
461.67	0.03
461.87	0.01
462.071	-0.05
462.272	-0.05
462.473	0.02
462.673	0.03
462.874	-0.03
463.075	0.04
463.275	-0.02
463.476	0.04
463.676	0.04
463.877	0.03
464.078	0
464.278	0.09
464.479	-0.05
464.679	0.02
464.88	0.04
465.08	0.07
465.281	-0.02
465.481	-0.05
465.682	-0.02
465.882	0.07
466.083	0.05
466.283	0
466.483	0
466.684	-0.01
466.884	-0.02
467.085	-0
467.285	0.09
467.485	-0.04
467.686	-0.02
467.886	-0.07
468.086	0.03
468.286	0.03
468.487	0.05
468.687	-0.07
468.887	-0.02
469.087	0.04
469.287	0.02
469.488	-0.07
469.688	0.05
469.888	0.05
470.088	0.12
470.288	0.08
470.488	0.05
470.688	-0.03
470.888	-0.01
471.088	-0.02
471.288	0.03
471.488	-0.02
471.688	0.02
471.888	-0.05
472.088	0.08
472.288	0.02
472.488	-0.07
472.688	-0.01
472.888	0.05
473.088	0.02
473.288	0.01
473.488	0.01
473.688	0.08
473.887	0.02
474.087	-0.02
474.287	-0.01
474.487	-0.02
474.687	0.02
474.886	-0.02
475.086	-0.01
475.286	-0.01
475.486	0
475.685	-0.02
475.885	-0
476.085	0.03
476.284	0.04
476.484	-0.01
476.684	0.05
476.883	0.03
477.083	-0.01
477.282	-0.03
477.482	0.05
477.681	0.06
477.881	0.01
478.08	0
478.28	-0.02
478.479	0.01
478.679	0.07
478.878	-0.03
479.078	-0.05
479.277	-0.01
479.477	-0.02
479.676	0.04
479.875	-0.01
480.075	-0.06
480.274	0.03
480.473	0.04
480.673	-0.01
480.872	0.03
481.071	0.03
481.271	0.01
481.47	-0.01
481.669	0.02
481.868	-0.02
482.067	-0.03
482.267	-0.02
482.466	-0.02
482.665	-0.01
482.864	-0.05
483.063	-0.03
483.262	0.03
483.461	0.02
483.661	0.04
483.86	-0.02
484.059	-0.03
484.258	-0.01
484.457	-0
484.656	-0
484.855	0.04
485.054	-0.06
485.253	-0.04
485.452	-0.04
485.651	-0
485.849	0
486.048	-0.03
486.247	-0.02
486.446	-0
486.645	-0.03
486.844	-0.01
487.043	-0.03
487.241	0.02
487.44	-0.01
487.639	-0.02
487.838	0.03
488.037	-0.01
488.235	0.04
488.434	-0.03
488.633	-0.02
488.831	-0
489.03	0.02
489.229	0.01
489.427	-0.02
489.626	0.04
489.825	0.04
490.023	-0.02
490.222	-0.02
490.42	0.03
490.619	0.02
490.817	0.02
491.016	-0
491.214	0.02
491.413	-0.03
491.611	-0.03
491.81	-0.01
492.008	0.03
492.207	0.02
492.405	0.03
492.604	-0.05
492.802	-0.01
493	0.01
493.199	-0.01
493.397	0.01
493.595	-0
493.794	-0.03
493.992	0.04
494.19	-0.01
494.388	0
494.587	-0.04
494.785	0
494.983	-0.04
495.181	-0
495.379	-0.01
495.578	-0.01
495.776	-0
495.974	-0.01
496.172	0
496.37	-0.04
496.568	-0.02
496.766	-0.02
496.964	0.03
497.162	-0
497.36	-0.04
497.558	0.02
497.756	-0
497.954	-0.02
498.152	-0.04
498.35	-0.02
498.548	-0.05
498.746	-0.02
498.944	-0.03
499.142	-0
499.34	-0.02
499.538	-0
499.736	-0.04
499.933	0.02
500.131	0
500.329	-0.02
500.527	0.02
500.725	0.02
500.922	0.01
501.12	-0.01
501.318	0.01
501.516	-0.04
501.713	0.01
501.911	-0.03
502.109	-0.03
502.306	-0
502.504	0.01
502.701	-0.01
502.899	-0.01
503.097	0.02
503.294	0
503.492	-0.03
503.689	0.01
503.887	-0
504.084	0.05
504.282	-0.02
504.479	-0.03
504.677	0.02
504.874	-0.03
505.072	0.01
505.269	0.01
505.466	0.02
505.664	-0.02
505.861	-0.04
506.059	-0.04
506.256	-0
506.453	-0.02
506.651	0.02
506.848	0.02
507.045	-0.01
507.242	0.03
507.44	-0.02
507.637	0.01
507.834	-0
508.031	0.02
508.229	-0.01
508.426	0
508.623	-0.01
508.82	-0.01
509.017	-0.02
509.214	-0.01
509.411	0.01
509.608	-0.01
509.805	-0.02
510.003	-0
510.2	-0.01
510.397	0.03
510.594	-0.02
510.791	-0.01
510.988	-0
511.184	0.01
511.381	0.01
511.578	-0.02
511.775	0.02
511.972	-0.03
512.169	-0.02
512.366	0
512.563	-0
512.76	-0.04
512.956	-0.02
513.153	-0
513.35	0.03
513.547	-0.02
513.744	-0.01
513.94	-0.04
514.137	-0.01
514.334	0
514.53	-0.03
514.727	-0.01
514.924	0.03
515.12	-0.02
515.317	-0.02
515.514	-0.01
515.71	-0.03
515.907	-0.02
516.103	-0.01
516.3	0
516.497	0.01
516.693	0.02
516.89	-0
517.086	-0.04
517.283	0.02
517.479	0
517.676	0.01
517.872	-0.01
518.068	-0.01
518.265	-0.01
518.461	-0.01
518.658	-0.03
518.854	0.01
519.05	0
519.247	-0.05
519.443	-0
519.639	0.02
519.836	-0.02
520.032	-0
520.228	-0.01
520.424	0.02
520.621	-0.01
520.817	0.01
521.013	0.02
521.209	0.01
521.405	0.03
521.601	0
521.798	-0.01
521.994	0.02
522.19	-0.04
522.386	-0.03
522.582	0.01
522.778	0
522.974	-0.02
523.17	-0.01
523.366	0.01
523.562	0.06
523.758	-0.01
523.954	-0.03
524.15	-0.01
524.346	0.03
524.542	-0.04
524.738	-0.02
524.934	-0.02
525.129	-0.09
525.325	-0
525.521	-0
525.717	0.02
525.913	-0.01
526.109	0.01
526.304	-0.03
526.5	-0.01
526.696	0.02
526.892	0
527.087	0.01
527.283	-0.01
527.479	0.02
527.674	-0.01
527.87	0.02
528.066	-0.02
528.261	0
528.457	0
528.653	-0.03
528.848	-0.01
529.044	0.01
529.239	-0.02
529.435	0.02
529.63	0
529.826	0.06
530.021	-0
530.217	0.01
530.412	-0.02
530.608	-0.02
530.803	-0
530.999	-0
531.194	-0.04
531.389	-0.02
531.585	-0.05
531.78	-0
531.975	-0.01
532.171	0.01
532.366	-0.01
532.561	-0
532.757	-0.03
532.952	-0.01
533.147	0.01
533.342	0.01
533.538	-0.02
533.733	0.01
533.928	-0
534.123	0
534.318	-0.04
534.513	-0.01
534.709	-0.01
534.904	-0.05
535.099	-0
535.294	-0.01
535.489	-0.02
535.684	-0.03
535.879	-0.03
536.074	-0.01
536.269	-0.03
536.464	-0.01
536.659	0.01
536.854	0.01
537.049	0.02
537.244	0.01
537.439	-0.02
537.634	0.02
537.828	0.01
538.023	-0.01
538.218	-0.03
538.413	-0
538.608	-0.02
538.803	-0
538.997	-0.04
539.192	0.05
539.387	0.01
539.582	-0
539.776	0
539.971	-0.03
540.166	-0.01
540.36	-0.02
540.555	-0
540.75	-0.02
540.944	-0.02
541.139	-0.05
541.334	-0.03
541.528	-0.01
541.723	0.01
541.917	-0.01
542.112	-0.05
542.306	-0.02
542.501	-0.02
542.695	-0.01
542.89	-0.03
543.084	0.02
543.279	-0
543.473	-0.01
543.668	0.01
543.862	-0.01
544.056	0.03
544.251	-0.01
544.445	0
544.64	-0.02
544.834	-0.03
545.028	-0
545.222	-0
545.417	0.02
545.611	-0.01
545.805	-0.01
546	-0.03
546.194	-0
546.388	-0.04
546.582	0
546.776	-0.02
546.97	-0
547.165	0.01
547.359	0.02
547.553	-0.02
547.747	0
547.941	-0.01
548.135	-0.01
548.329	0.01
548.523	0.01
548.717	-0.02
548.911	-0.02
549.105	-0.02
549.299	0
549.493	0
549.687	0.02
549.881	0.02
550.075	0.02
550.269	-0.02
550.463	0.01
550.657	-0.02
550.85	-0.01
551.044	-0.01
551.238	-0
551.432	-0.03
551.626	-0.04
551.82	-0.01
552.013	-0.02
552.207	0.01
552.401	0.01
552.594	-0
552.788	-0.01
552.982	0.01
553.176	-0.04
553.369	0.01
553.563	0.01
553.756	-0.05
553.95	-0.03
554.144	-0.01
554.337	0.02
554.531	-0.01
554.724	-0
554.918	-0.02
555.111	0.02
555.305	0.02
555.498	0.06
555.692	0.01
555.885	-0.01
556.079	0.02
556.272	-0
556.466	0.02
556.659	0
556.852	-0.02
557.046	0
557.239	0.02
557.432	-0.03
557.626	-0.03
557.819	0
558.012	0.02
558.206	0.01
558.399	-0
558.592	0
558.785	0
558.979	0
559.172	-0
559.365	0.02
559.558	0.01
559.751	-0
559.944	0.03
560.138	-0.02
560.331	-0.01
560.524	0
560.717	-0.01
560.91	-0.02
561.103	0.03
561.296	0
561.489	0.02
561.682	0.01
561.875	0.01
562.068	0.01
562.261	0.01
562.454	0.04
562.647	-0.02
562.84	0.02
563.032	-0.01
563.225	0.02
563.418	-0.02
563.611	-0
563.804	-0.01
563.997	-0.02
564.19	-0.05
564.382	0.01
564.575	-0
564.768	-0.01
564.961	0
565.153	0.01
565.346	0.01
565.539	0.01
565.731	0.01
565.924	0.03
566.117	0.01
566.309	0.01
566.502	-0.04
566.695	-0.02
566.887	-0
567.08	-0.03
567.272	-0.01
567.465	-0.01
567.657	0.01
567.85	-0.02
568.042	0.02
568.235	0.01
568.427	-0
568.62	0
568.812	0.01
569.005	0
569.197	-0.04
569.389	0.02
569.582	0.01
569.774	0.01
569.966	-0.03
570.159	-0.01
570.351	0
570.543	-0.01
570.736	-0.01
570.928	-0.04
571.12	0.02
571.312	-0.03
571.505	-0.06
571.697	0.02
571.889	-0.04
572.081	-0.02
572.273	-0.04
572.465	0.03
572.658	0
572.85	0
573.042	-0.03
573.234	0.01
573.426	0.02
573.618	-0.03
573.81	0.02
574.002	0.02
574.194	0.01
574.386	-0.03
574.578	-0.09
574.77	-0.03
574.962	-0
575.154	-0.06
575.346	-0
575.538	0
575.729	-0.03
575.921	-0.02
576.113	-0
576.305	-0.01
576.497	-0.02
576.689	-0.01
576.88	-0.04
577.072	0.02
577.264	-0.01
577.456	-0.04
577.647	-0.09
577.839	0
578.031	0.04
578.223	-0.05
578.414	-0.04
578.606	0.01
578.798	-0.02
578.989	-0.02
579.181	-0.02
579.372	-0
579.564	-0.01
579.755	-0
579.947	0.02
580.139	0.01
580.33	-0.08
580.522	-0.02
580.713	-0.08
580.905	-0.01
581.096	0.01
581.287	0.01
581.479	0.01
581.67	0.01
581.862	-0
582.053	-0.01
582.244	-0.06
582.436	-0.01
582.627	-0
582.818	-0.05
583.01	-0.04
583.201	0.02
583.392	0.04
583.583	0
583.775	-0.02
583.966	-0.01
584.157	-0.04
584.348	-0.02
584.54	-0.05
584.731	-0
584.922	-0.03
585.113	-0.03
585.304	0.03
585.495	0.02
585.686	-0.03
585.877	-0
586.068	0.01
586.259	-0
586.45	-0.01
586.641	-0.04
586.832	-0.05
587.023	0.03
587.214	-0.01
587.405	-0
587.596	-0.01
587.787	0.02
587.978	-0.01
588.169	-0.03
588.36	-0.03
588.551	0.02
588.742	-0.03
588.932	0
589.123	-0.02
589.314	0.02
589.505	0.02
589.696	0.01
589.886	-0.01
590.077	-0.03
590.268	-0.02
590.458	-0.05
590.649	-0.05
590.84	0.02
591.03	-0.04
591.221	-0.03
591.412	-0.04
591.602	-0
591.793	0.03
591.984	-0.02
592.174	-0.02
592.365	0.04
592.555	-0.04
592.746	0.05
592.936	0.01
593.127	-0.01
593.317	0.01
593.508	-0.03
593.698	-0.02
593.889	0.01
594.079	-0.03
594.269	-0.02
594.46	0.02
594.65	0
594.84	-0
595.031	-0.03
595.221	-0.01
595.411	-0.05
595.602	0.03
595.792	-0.01
595.982	-0.02
596.172	0.04
596.363	-0.01
596.553	0.01
596.743	-0.02
596.933	-0.02
597.123	0.01
597.314	-0.03
597.504	-0.02
597.694	0.01
597.884	0.02
598.074	-0.02
598.264	-0.03
598.454	0.01
598.644	0.01
598.834	-0
599.024	-0.08
599.214	-0.02
599.404	0
599.594	-0.04
599.784	-0.04
599.974	0.03
600.164	0.04
600.354	-0.03
600.544	-0.06
600.734	-0.01
600.924	0.03
601.114	-0.03
601.303	-0.01
601.493	0.01
601.683	-0
601.873	0.01
602.063	-0.04
602.252	0.03
602.442	-0.09
602.632	-0.01
602.821	-0.06
603.011	0.03
603.201	-0.03
603.39	-0.04
603.58	-0.05
603.77	-0.01
603.959	0.04
604.149	0.01
604.339	-0.02
604.528	0.04
604.718	0.03
604.907	0.01
605.097	-0.01
605.286	-0.05
605.476	-0
605.665	0.01
605.855	-0.03
606.044	0.05
606.234	0
606.423	-0.04
606.612	-0.04
606.802	0.02
606.991	0
607.181	-0
607.37	-0.05
607.559	-0.04
607.749	-0.04
607.938	0.01
608.127	-0.01
608.316	-0.01
608.506	0.01
608.695	-0.03
608.884	-0.03
609.073	0
609.263	0
609.452	0.02
609.641	0.02
609.83	-0.04
610.019	-0.02
610.208	-0.01
610.397	-0.02
610.586	-0.02
610.775	-0.04
610.965	-0.03
611.154	-0.03
611.343	-0.01
611.532	-0.01
611.721	-0.03
611.91	-0.01
612.099	-0.01
612.287	0
612.476	-0.02
612.665	0.03
612.854	-0.01
613.043	0.03
613.232	0
613.421	-0.05
613.61	-0.01
613.798	-0.02
613.987	0.02
614.176	-0.01
614.365	0
614.554	-0.04
614.742	0.01
614.931	-0.04
615.12	0.05
615.309	-0.01
615.497	0
615.686	-0.03
615.875	-0
616.063	-0.01
616.252	-0.01
616.44	-0.04
616.629	-0.01
616.818	0.04
617.006	0
617.195	-0.02
617.383	-0.01
617.572	0.01
617.76	-0.02
617.949	0
618.137	0.03
618.326	0.03
618.514	-0.02
618.703	-0.03
618.891	0.07
619.079	-0.07
619.268	-0.01
619.456	0
619.644	0.02
619.833	-0.02
620.021	-0.01
620.209	-0.06
620.398	-0
620.586	0.01
620.774	0.03
620.962	0.02
621.151	0.04
621.339	-0.02
621.527	-0.05
621.715	-0.06
621.903	-0.05
622.092	-0.06
622.28	-0.02
622.468	-0.01
622.656	0
622.844	0.02
623.032	-0.03
623.22	-0.04
623.408	0.03
623.596	0
623.784	0.02
623.972	-0.02
624.16	-0.04
624.348	0.04
624.536	-0.03
624.724	-0.01
624.912	0.01
625.1	0.03
625.288	-0.02
625.476	-0.02
625.664	0.01
625.851	-0
626.039	-0.01
626.227	-0
626.415	0
626.603	-0.07
626.79	-0.03
626.978	-0.03
627.166	0.02
627.354	-0.01
627.541	-0.02
627.729	-0.07
627.917	0.03
628.104	0.03
628.292	0.01
628.48	0.01
628.667	0.02
628.855	0.02
629.042	0.01
629.23	-0.05
629.418	-0.02
629.605	-0.01
629.793	-0.03
629.98	-0.01
630.168	0.01
630.355	-0.03
630.543	0.01
630.73	-0.04
630.917	0.05
631.105	0.03
631.292	-0.03
631.48	-0.02
631.667	0.04
631.854	0.04
632.042	-0
632.229	-0.03
632.416	0.04
632.604	0
632.791	-0.03
632.978	0
633.165	0.04
633.353	0.03
633.54	0.02
633.727	-0.02
633.914	-0.01
634.101	-0.07
634.289	0.04
634.476	-0.04
634.663	-0.02
634.85	0.02
635.037	-0.05
635.224	-0.07
635.411	0.04
635.598	0.04
635.785	-0.01
635.972	0.01
636.159	0.03
636.346	-0.04
636.533	0
636.72	-0
636.907	-0.01
637.094	-0.02
637.281	-0.01
637.468	0.03
637.655	0.02
637.842	-0
638.029	0
638.215	0.01
638.402	0
638.589	-0.02
638.776	0.02
638.963	-0.02
639.149	0.06
639.336	0.1
639.523	0.01
639.709	-0.01
639.896	0.01
640.083	0.05
640.27	0.03
640.456	0
640.643	-0.01
640.829	-0.05
641.016	0
641.203	-0.05
641.389	0.04
641.576	0.03
641.762	0.01
641.949	-0.03
642.135	0.05
642.322	0.03
642.508	-0.03
642.695	-0
642.881	-0
643.068	-0
643.254	-0.01
643.441	0.04
643.627	0.01
643.813	0.03
644	0.06
644.186	-0.02
644.372	-0.03
644.559	0.08
644.745	0.03
644.931	0.04
645.118	0.03
645.304	0.03
645.49	0.02
645.676	0.01
645.862	0.03
646.049	0.07
646.235	0.02
646.421	0.1
646.607	0.13
646.793	0.03
646.979	0.01
647.165	0.07
647.352	0.05
647.538	0.09
647.724	0.04
647.91	0.01
648.096	0.1
648.282	0.1
648.468	0.05
648.654	0.08
648.84	0.07
649.026	0.05
649.212	0.06
649.397	0.04
649.583	0.02
649.769	0.06
649.955	0.08
650.141	0.06
650.327	0.11
650.513	0.05
650.698	0.1
650.884	-0.04
651.07	0.06
651.256	0.06
651.442	0.07
651.627	0.05
651.813	0.03
651.999	0.06
652.184	0.12
652.37	0.05
652.556	0.04
652.741	0.14
652.927	0.01
653.113	0.08
653.298	0.08
653.484	0.06
653.669	0.03
653.855	0.07
654.04	0.1
654.226	0.04
654.412	0.08
654.597	0.02
654.782	0.1
654.968	0.12
655.153	0.09
655.339	0.06
655.524	0.04
655.71	0.11
655.895	0.05
656.08	0.1
656.266	0.12
656.451	0.11
656.636	0.08
656.822	0.08
657.007	0.05
657.192	0.04
657.378	0.04
657.563	0.09
657.748	0.11
657.933	0.12
658.118	0.07
658.304	0.09
658.489	0.12
658.674	0.13
658.859	0.08
659.044	0.13
659.229	0.13
659.414	0.08
659.599	0.06
659.785	0.04
659.97	0.1
660.155	0.09
660.34	0.1
660.525	0.09
660.71	0.11
660.895	0.14
661.08	0.07
661.264	0.09
661.449	0.16
661.634	0.08
661.819	0.08
662.004	0.11
662.189	0.02
662.374	0.06
662.559	0.04
662.743	0.05
662.928	0.05
663.113	0.05
663.298	-0
663.483	0.06
663.667	0.07
663.852	0.02
664.037	0.07
664.221	0.04
664.406	0.06
664.591	0.07
664.775	0.05
664.96	0.01
665.145	0.04
665.329	0.07
665.514	0.02
665.698	0.08
665.883	-0.05
666.068	0.11
666.252	0.01
666.437	0.02
666.621	0.04
666.806	0.04
666.99	0
667.174	-0.02
667.359	0.05
667.543	0.02
667.728	0.04
667.912	-0.05
668.096	0.02
668.281	0.02
668.465	-0
668.649	0.02
668.834	-0.01
669.018	0.03
669.202	0.01
669.387	-0.05
669.571	0.04
669.755	-0.04
669.939	0.03
670.124	-0.02
670.308	0.05
670.492	0.04
670.676	0.03
670.86	-0
671.044	-0.04
671.228	-0
671.413	-0.03
671.597	-0.03
671.781	-0.04
671.965	0.02
672.149	-0.01
672.333	-0.03
672.517	-0.02
672.701	-0.01
672.885	0
673.069	-0.06
673.253	0.02
673.437	-0.05
673.621	-0.04
673.804	0.02
673.988	0.01
674.172	-0.03
674.356	0.06
674.54	0.01
674.724	0.07
674.908	0.04
675.091	-0.01
675.275	-0.03
675.459	0.04
675.643	0.05
675.826	0
676.01	-0.02
676.194	-0.05
676.377	-0
676.561	0.04
676.745	0.02
676.928	0.03
677.112	0.02
677.296	-0.05
677.479	-0.04
677.663	-0.01
677.846	0.01
678.03	-0.02
678.213	-0.04
678.397	-0.01
678.58	-0.03
678.764	-0.03
678.947	-0.04
679.131	-0.07
679.314	0.03
679.498	-0.03
679.681	0.01
679.865	0.04
680.048	0.02
680.231	0
680.415	-0.01
680.598	-0.01
680.781	-0.02
680.965	-0.02
681.148	-0.01
681.331	-0.06
681.514	-0.03
681.698	-0.02
681.881	0
682.064	-0.02
682.247	-0.01
682.43	-0.07
682.614	0.01
682.797	0.04
682.98	-0
683.163	-0.05
683.346	0.04
683.529	-0
683.712	-0.04
683.895	-0.01
684.078	-0.05
684.261	-0.04
684.444	0
684.627	0.01
684.81	-0.05
684.993	-0
685.176	0.04
685.359	-0.06
685.542	-0.04
685.725	0
685.908	0.02
686.091	-0.05
686.274	0.03
686.457	0.03
686.639	-0.03
686.822	0
687.005	-0.01
687.188	0.02
687.371	0.06
687.553	0.03
687.736	0
687.919	0.04
688.102	0.06
688.284	-0.05
688.467	-0
688.65	-0.02
688.832	-0.05
689.015	-0
689.197	-0.06
689.38	0.08
689.563	0.05
689.745	-0.02
689.928	-0.07
690.11	-0.05
690.293	0.02
690.475	-0.04
690.658	-0.01
690.84	-0.03
691.023	-0.01
691.205	-0.03
691.388	0
691.57	0.05
691.752	0.04
691.935	-0.07
692.117	-0.02
692.3	0
692.482	-0.02
692.664	0.04
692.847	0.04
693.029	0.04
693.211	0.04
693.393	-0.07
693.576	-0.06
693.758	0
693.94	-0.05
694.122	-0.03
694.304	-0.02
694.487	0.02
694.669	0.04
694.851	-0.07
695.033	0.01
695.215	-0.03
695.397	-0.04
695.579	0.06
695.761	-0.01
695.943	-0.05
696.125	0.05
696.308	-0.01
696.49	-0.11
696.671	0.1
696.853	0
697.035	0.09
697.217	-0.02
697.399	0.03
697.581	-0.06
697.763	-0.01
697.945	-0.04
698.127	-0.01
698.309	0.05
698.491	0.08
698.672	-0
698.854	0.04
699.036	0.06
699.218	-0.02
699.399	0.06
699.581	0.02
699.763	-0
699.945	0
700.126	-0.03
700.308	0.01
700.49	-0.03
700.671	-0.07
700.853	-0.03
701.035	-0
701.216	-0.01
701.398	-0.1
701.579	-0.05
701.761	0.05
701.943	-0.03
702.124	-0.09
702.306	-0.01
702.487	0.06
702.669	0.05
702.85	-0.04
703.031	-0.06
703.213	0.07
703.394	0.04
703.576	-0.04
703.757	0.05
703.938	0.03
704.12	0.14
704.301	0.03
704.483	-0.01
704.664	-0.05
704.845	0.08
705.026	0.03
705.208	-0.03
705.389	-0.01
705.57	0.04
705.751	0.01
705.933	-0.02
706.114	0.09
706.295	-0.01
706.476	-0.03
706.657	0.09
706.838	0
707.02	0.1
707.201	-0.04
707.382	-0.02
707.563	-0
707.744	-0.02
707.925	-0.08
708.106	-0.04
708.287	0.07
708.468	0.07
708.649	0.03
708.83	0.08
709.011	-0.02
709.192	0.04
709.373	-0.04
709.554	-0.03
709.734	0.06
709.915	0.07
710.096	-0.03
710.277	-0.15
710.458	0.05
710.639	0.03
710.819	-0.04
711	0.04
711.181	0.07
711.362	0.07
711.542	0.01
711.723	0.03
711.904	0.08
712.085	-0
712.265	0.04
712.446	-0.1
712.627	-0.02
712.807	0.1
712.988	0.04
713.168	0
713.349	0.02
713.53	-0.11
713.71	-0.06
713.891	-0.13
714.071	-0.01
714.252	-0.07
714.432	-0.04
714.613	-0.12
714.793	0.03
714.974	0.06
715.154	0.1
715.334	0.08
715.515	0.09
715.695	-0.04
715.876	-0
716.056	-0.01
716.236	-0.06
716.417	-0.04
716.597	-0.05
716.777	0.1
716.957	0
717.138	-0
717.318	-0.02
717.498	-0.07
717.678	0.04
717.859	0.01
718.039	-0.08
718.219	0.05
718.399	0.04
718.579	0.01
718.759	-0.04
718.939	0.01
719.12	0.05
719.3	0.01
719.48	-0.09
719.66	-0.04
719.84	0.05
720.02	0.03
720.2	-0.07
720.38	0.06
720.56	0.12
720.74	0.01
720.92	0.08
721.1	0.09
721.279	0.07
721.459	-0.01
721.639	-0.08
721.819	0.03
721.999	0.07
722.179	0.08
722.359	-0.07
722.538	0.01
722.718	0.07
722.898	0.09
723.078	0.01
723.257	-0.03
723.437	0
723.617	0.05
723.797	0.06
723.976	0.02
724.156	0.08
724.336	0.11
724.515	0.11
724.695	-0.09
724.874	0.02
725.054	0.19
725.234	-0.01
725.413	0.06
725.593	0.07
725.772	0.06
725.952	0.02
726.131	0.03
726.311	0.08
726.49	0.07
726.67	-0.07
726.849	0.02
727.028	0.15
727.208	0.06
727.387	0.15
727.567	-0.04
727.746	0.13
727.925	-0.03
728.105	0.02
728.284	-0.02
728.463	-0.03
728.643	0.13
728.822	-0.03
729.001	0.02
729.18	0.07
729.359	0.13
729.539	0.08
729.718	0.13
729.897	0.03
730.076	0.02
730.255	-0
730.434	0.15
730.614	0.03
730.793	0.1
730.972	0.08
731.151	0.07
731.33	0.11
731.509	0.18
731.688	0.13
731.867	0.11
732.046	-0.07
732.225	0.27
732.404	0.05
732.583	0.01
732.762	0.05
732.941	0.12
733.12	0.14
733.298	-0.01
733.477	0.11
733.656	0.04
733.835	0.05
734.014	0.13
734.193	0.05
734.371	0.1
734.55	0.12
734.729	-0
734.908	0.1
735.086	0.16
735.265	0.14
735.444	-0.04
735.623	0.05
735.801	0
735.98	0.1
736.159	0.06
736.337	0.09
736.516	0.12
736.694	0.15
736.873	0.06
737.052	0.19
737.23	0.12
737.409	0.02
737.587	0.25
737.766	-0.06
737.944	-0.06
738.123	0.04
738.301	0.15
738.479	0.02
738.658	0.17
738.836	-0.1
739.015	0.02
739.193	0.15
739.371	-0.05
739.55	0.05
739.728	-0.04
739.906	0.14
740.085	0.16
740.263	0.05
740.441	-0.05
740.62	0.19
740.798	0.15
740.976	-0.04
741.154	-0.06
741.332	0.22
741.511	0.05
741.689	0.11
741.867	0.16
742.045	0
742.223	-0.01
742.401	-0.01
742.579	0.09
742.757	0.13
742.935	-0.1
743.114	0.04
743.292	0.04
743.47	0.02
743.648	0.04
743.826	-0.16
744.004	0.13
744.181	0.12
744.359	-0.05
744.537	-0
744.715	0.05
744.893	0.05
745.071	-0.05
745.249	-0.08
745.427	0.11
745.605	0
745.782	-0.05
745.96	0.05
746.138	0.14
746.316	0.12
746.493	0.04
746.671	0.06
746.849	0.04
747.027	0.23
747.204	-0.02
747.382	0.07
747.56	-0.12
747.737	-0.07
747.915	0.02
748.093	0.08
748.27	-0.09
748.448	-0.07
748.625	-0.15
748.803	-0
748.98	0.06
749.158	0.01
749.335	0.18
749.513	-0.04
749.69	-0.1
749.868	0.02
750.045	0.05
750.223	-0.03
750.4	-0.36
750.578	0.18
750.755	0.07
750.932	-0.15
751.11	0.06
751.287	-0.17
751.464	0.14
751.642	-0.13
751.819	0.03
751.996	-0.04
752.173	-0.06
752.351	-0.09
752.528	0
752.705	-0.02
752.882	-0.15
753.06	-0.04
753.237	0.09
753.414	0.16
753.591	0.14
753.768	-0.06
753.945	-0.06
754.122	-0.1
754.299	0.02
754.476	-0.1
754.654	-0
754.831	-0.05
755.008	0.1
755.185	-0.08
755.362	-0.17
755.539	-0.06
755.716	-0.03
755.892	-0.04
756.069	-0.01
756.246	-0.04
756.423	-0.05
756.6	0.19
756.777	0.06
756.954	0.03
757.131	0.02
757.307	-0.12
757.484	-0.04
757.661	0.09
757.838	-0.03
758.015	-0.12
758.191	0.05
758.368	0.01
758.545	0.06
758.721	0.1
758.898	-0.08
759.075	-0.02
759.251	0.14
759.428	0.09
759.605	-0.19
759.781	-0.07
759.958	-0.03
760.134	0.06
760.311	0.01
760.488	0.02
760.664	0.12
760.841	0.04
761.017	-0.24
761.194	0.01
761.37	0.02
761.547	-0.08
761.723	0.07
761.899	0.03
762.076	-0.1
762.252	-0.1
762.429	-0.09
762.605	0.03
762.781	-0.09
762.958	0.24
763.134	-0.08
763.31	-0.08
763.486	0.12
763.663	-0.18
763.839	0.04
764.015	-0.19
764.191	-0.19
764.368	-0.05
764.544	-0.17
764.72	0.03
764.896	0.15
765.072	0
765.248	-0.09
765.425	-0.07
765.601	0.02
765.777	-0.14
765.953	-0.25
766.129	-0.08
766.305	-0.1
766.481	0.05
766.657	0.07
766.833	0.21
767.009	-0.05
767.185	-0.14
767.361	-0.03
767.537	-0.12
767.713	0.02
767.889	-0.05
768.065	-0.06
768.24	-0.18
768.416	-0.15
768.592	-0.07
768.768	-0.09
768.944	-0.07
769.12	-0.14
769.295	-0.08
769.471	-0
769.647	0.05
769.823	0.19
769.998	-0.09
770.174	-0.1
770.35	0.37
770.525	0.22
770.701	-0
770.877	-0.07
771.052	-0.1
771.228	-0.02
771.403	0.11
771.579	-0.02
771.755	0.25
771.93	-0.03
772.106	-0.11
772.281	-0.16
772.457	0.02
772.632	0.08
772.808	-0.13
772.983	-0.2
773.159	0
773.334	0.18
773.509	-0.04
773.685	-0.02
773.86	0.23
774.036	0.05
774.211	0.07
774.386	0.01
774.562	-0.04
774.737	0.22
774.912	-0.23
775.087	0.02
775.263	0.05
775.438	0.1
775.613	-0.09
775.788	-0.13
775.964	0.03
776.139	0.31
776.314	-0.19
776.489	0.05
776.664	0
776.839	-0.01
777.014	0.07
777.19	0.16
777.365	0.06
777.54	0.08
777.715	-0.15
777.89	0.09
778.065	-0.18
778.24	-0.15
778.415	-0.03
778.59	-0.1
778.765	-0.12
778.94	-0.01
779.115	-0.08
779.289	-0.02
779.464	-0.06
779.639	-0.07
779.814	-0.22
779.989	-0.11
780.164	0.23
780.339	0.06
780.513	-0.04
780.688	-0.14
780.863	0.06
781.038	0.03
781.212	-0.14
781.387	-0.06
781.562	0.26
781.737	0.06
781.911	0.11
782.086	-0.27
782.261	0.02
782.435	0.25
782.61	-0.32
782.784	-0
782.959	0.18
783.134	-0.13
783.308	-0.13
783.483	-0.05
783.657	0.46
783.832	-0.06
784.006	-0.28
784.181	-0.03
784.355	0.13
784.53	0.02
784.704	-0.3
784.878	0.25
785.053	-0.15
785.227	0.09
785.402	0.28
785.576	-0.26
785.75	0.09
785.925	-0.05
786.099	0.13
786.273	0.05
786.448	0.07
786.622	-0.02
786.796	-0.05
786.97	-0.33
787.145	0.39
787.319	-0.09
787.493	-0.22
787.667	-0.43
787.841	0.04
788.015	0.12
788.19	-0.13
788.364	0.15
788.538	-0
788.712	0.18
788.886	-0.04
789.06	0.04
789.234	0.27
789.408	-0.29
789.582	-0.12
789.756	-0
789.93	-0.35
790.104	-0.09
790.278	-0.19
790.452	-0.35
790.626	0.08
790.8	-0.3
790.973	-0.03
791.147	0.1
791.321	0.23
791.495	0.16
791.669	0.23
791.843	0.27
792.016	0.04
792.19	0.28
792.364	-0.27
792.538	0.43
792.711	0.14
792.885	-0.18
793.059	-0.17
793.233	-0.42
793.406	0.14
793.58	0.11
793.754	0.01
793.927	-0.25
794.101	0.21
794.274	-0.03
794.448	0.25
794.622	-0.17
794.795	0.05
794.969	-0.25
795.142	0.37
795.316	-0.05
795.489	-0.24
795.663	0.38
795.836	0.06
796.009	-0.21
796.183	0.5
796.356	-0.04
796.53	-0.01
796.703	-0.15
796.876	0.34
797.05	-0.04
797.223	-0.1
797.396	0.25
797.57	0.06
797.743	0.28
797.916	-0.12
798.09	0.2
798.263	0.37
798.436	0.07
798.609	-0.17
798.782	-0.08
798.956	0.11
799.129	-0.2
799.302	-0.19
799.475	-0.3
799.648	-0.07
799.821	-0.25
799.994	0.1
800.167	-0.46
800.34	-0.11
800.514	-0.16
800.687	-0.33
800.86	-0.31
801.033	0.18
801.206	-0.05
801.379	-0.19
801.551	0.31
801.724	0.09
801.897	0.37
802.07	-0.4
802.243	-0.4
802.416	-0.18
802.589	-0.11
802.762	0.01
802.935	-0.03
803.107	0.21
803.28	0.07
803.453	0.11
803.626	-0.4
803.798	0.2
803.971	-0.14
804.144	-0.04
804.317	0.04
804.489	0.13
804.662	-0.09
804.835	0.05
805.007	-0.15
805.18	0.59
805.353	0.04
805.525	-0.34
805.698	0.03
805.87	0.32
806.043	0.29
806.215	-0.24
806.388	-0.24
806.56	0.07
806.733	0.26
806.905	-0.06
807.078	0.01
807.25	-0.21
807.423	0.04
807.595	-0.15
807.768	0
807.94	0.04
808.112	0.06
808.285	-0.16
808.457	-0.06
808.629	-0.15
808.802	0.01
808.974	0.3
809.146	0.03
809.318	-0.25
809.491	0.1
809.663	0.13
809.835	-0.37
810.007	0.11
810.18	0.1
810.352	-0.37
810.524	-0.39
810.696	0.09
810.868	0.44
811.04	-0.05
811.212	-0.07
811.384	0.32
811.556	0.13
811.728	-0.35
811.901	0.41
812.073	-0.23
812.245	0.32
812.417	0.1
812.589	-0.35
812.76	-0.19
812.932	0.33
813.104	0.03
813.276	-0.29
813.448	0.06
813.62	-0.13
813.792	0.15
813.964	-0.1
814.136	0.14
814.307	-0.4
814.479	-0.47
814.651	-0.06
814.823	0.98
814.995	0.04
815.166	0.28
815.338	-0.24
815.51	-0.49
815.681	0.58
815.853	-0.07
816.025	-0.62
816.196	0.43
816.368	0.01
816.54	-0.73
816.711	-0.4
816.883	0.15
817.054	0.98
817.226	-0.39
817.398	0.03
817.569	0.01
817.741	0.32
817.912	-0.26
818.084	-0.09
818.255	-0.09
818.426	-0.11
818.598	-0.04
818.769	-0.45
818.941	0.33
819.112	0.31
819.283	0.03
819.455	-0.62
819.626	0.35
819.798	0.53
819.969	0.19
820.14	-0.13
820.311	-0.11
820.483	0.03
820.654	0.26
820.825	-0.51
820.996	-0.3
821.168	-0.02
821.339	0.1
821.51	-0.42
821.681	0.2
821.852	-0.04
822.023	-0.38
822.195	-0.86
822.366	0.6
822.537	-0.21
822.708	-0.66
822.879	-0.48
823.05	0.35
823.221	-0.09
823.392	0
823.563	0.14
823.734	-0.31
823.905	-0.5
824.076	-0.1
824.247	-0.51
824.418	-0.29
824.589	-0.13
824.759	-0.14
824.93	-0.31
825.101	-0.18
825.272	0.48
825.443	0.33
825.614	0.65
825.784	-0.69
825.955	1
826.126	0.9
826.297	0.09
826.467	1.11
826.638	0.67
826.809	-0.71
826.98	0.21
827.15	-0
827.321	-0.33
827.492	0.82
827.662	-0.47
827.833	1.23
828.003	0.05
828.174	-0.38
828.345	-0.82
828.515	0.6
828.686	0.45
828.856	-0.13
829.027	0.09
829.197	-0.18
829.368	0.03
829.538	-0.52
829.709	-0.14
829.879	0.22
830.049	0.29
830.22	-0.38
830.39	-0.11
830.56	0
830.731	-0.41
830.901	-0.66
831.072	-0.17
831.242	-0.35
831.412	0.28
831.582	0.36
831.753	-0.94
831.923	0.43
832.093	-0.34
832.263	0.16
832.434	-1.01
832.604	-0.19
832.774	-0.11
832.944	0.3
833.114	0.14
833.284	0.66
833.454	-0.66
833.624	-0.31
833.795	-0.6
833.965	0.2
834.135	0.2
834.305	-0.9
834.475	-0.78
834.645	-0.05
834.815	0.11
834.985	-0.45
835.155	-0.51
835.325	0.97
835.494	0.16
835.664	0.02
835.834	-0.74
836.004	0.31
836.174	0.12
836.344	-0.2
836.514	-0.86
836.684	-0.43
836.853	-0.33
837.023	0.08
837.193	0.05
837.363	0.12
837.532	0.42
837.702	-0.02
837.872	-0.33
838.041	0.04
838.211	1.14
838.381	-0.37
838.55	-0.06
838.72	1.67
838.89	1.14
839.059	-0.37
839.229	-0.35
839.398	0.28
839.568	0.13
839.738	-0.04
839.907	0.74
840.077	-0.04
840.246	-0.48
840.416	-0.78
840.585	-0.65
840.755	1.06
840.924	0.2
841.093	-1.37
841.263	0.11
841.432	0.03
841.602	-0.27
841.771	-0.85
841.94	-0.17
842.11	1.51
842.279	1.02
842.448	-1.33
842.617	-0.72
842.787	1.17
842.956	-0.75
843.125	0.21
843.294	0.18
843.464	0.79
843.633	-0.22
843.802	-0.93
843.971	0.23
844.14	0.66
844.309	0.17
844.479	-1.22
844.648	-0.82
844.817	-0.49
844.986	0.49
845.155	-0.78
845.324	0.17
845.493	0.05
845.662	-0.75
845.831	0.49
846	0.55
846.169	-0.38
846.338	0.92
846.507	0.56
846.676	0.58
846.844	-0.2
847.013	1.47
847.182	0.89
847.351	-0.97
847.52	-0.15
847.689	-0.12
847.858	0.13
848.026	-0.46
848.195	-0.74
848.364	-0.61
848.533	-0.53
848.701	-0.3
848.87	-0.06
849.039	1.37
849.207	0.7
849.376	1.51
849.545	0.8
849.713	-0.58
849.882	0.05
850.051	-0.77
850.219	0.11
850.388	0.42
850.556	0.05
850.725	-0.98
850.893	0.54
851.062	-0.44
851.23	0.46
851.399	-1.38
851.567	-0.96
851.736	-0.71
851.904	-1.16
852.073	-0.57
852.241	-0.26
852.41	-0.06
852.578	-0.02
852.746	-0.1
852.915	0.42
853.083	0.3
853.251	-1.11
853.42	-0.5
853.588	1.27
853.756	0.35
853.924	0.62
854.093	-0.19
854.261	-0.38
854.429	-1.88
854.597	-0.38
854.765	-1.08
854.934	0.98
855.102	0.39
855.27	-1.13
855.438	0.78
855.606	0.91
855.774	0.43
855.942	-0.97
856.11	-1.08
856.278	-0.53
856.446	1.28
856.614	-0.33
856.782	0.1
856.95	1.23
857.118	0.57
857.286	0.37
857.454	-1.48
857.622	1.68
857.79	0.71
857.958	-0.6
858.126	-0.83
858.294	-2.36
858.462	-0.85
858.629	-0.48
858.797	-1.05
858.965	-0.51
859.133	-0.58
859.301	-1.49
859.468	0.61
859.636	-0.58
859.804	0.18
859.971	0.27
860.139	0.08
860.307	0.54
860.474	-0.37
860.642	-1.65
860.81	0.53
860.977	-0.31
861.145	1.44
861.313	-0.74
861.48	0.21
861.648	0.08
861.815	-0.3
861.983	-2.04
862.15	0.25
862.318	1.01
862.485	0.4
862.653	0.47
862.82	-1.21
862.988	2.24
863.155	1.49
863.322	-0.71
863.49	-1.6
863.657	-0.17
863.824	0.35
863.992	0.59
864.159	-0.42
864.326	2.04
864.494	-0.88
864.661	3.15
864.828	-1.46
864.996	1.44
865.163	1.56
865.33	-0.74
865.497	-2.71
865.664	-1.18
865.832	-2.61
865.999	-0.75
866.166	-1.48
866.333	0.01
866.5	-0.11
866.667	-0.23
866.834	-0.26
867.001	1.19
867.168	-2.74
867.335	0.36
867.502	-1.74
867.669	0.32
867.836	3.21
868.003	-1
868.17	0.04
868.337	1.98
868.504	4.03
868.671	-1.99
868.838	-0.34
869.005	-0.13
869.172	0.2
869.339	0.53
869.505	-1.53
869.672	0.1
869.839	0.42
870.006	0.09
870.173	-0.65
870.339	-0.35
870.506	2.79
870.673	-0.83
870.84	0.88
871.006	0.17
871.173	-0.17
871.34	-0.34
871.506	-1.88
871.673	0.98
871.839	-2.29
872.006	-0.29
872.173	-0.4
872.339	-0.06
872.506	0.32
872.672	-0.12
872.839	-3.65
873.005	0.81
873.172	3.73
873.338	1.54
873.505	0.53
873.671	1.68
873.838	1.13
874.004	-1.95
874.171	-0.76
874.337	1.02
874.503	-0.2
874.67	-1.92
874.836	0.18
875.002	2.41
875.169	1.37
875.335	0.13
875.501	-2.88
875.668	1.77
875.834	1.13
876	0.13
876.166	2.03
876.332	-0.44
876.499	2.93
876.665	-1.57
876.831	1.38
876.997	2.17
877.163	1.17
877.329	-1.82
877.495	0.16
877.662	1.44
877.828	0.56
877.994	-0.08
878.16	-2.74
878.326	-1.45
878.492	-0.64
878.658	-0.49
878.824	0.46
878.99	1.03
879.156	0.01
879.322	3.26
879.487	-1.3
879.653	1.17
879.819	0.48
879.985	-2.22
880.151	0.93
880.317	0.38
880.483	-0.14
880.648	1.54
880.814	-3.91
880.98	0.07
881.146	-2.2
881.312	-2
881.477	-0.74
881.643	1.12
881.809	1.72
881.974	1.27
882.14	-1.94
882.306	0.46
882.471	0.9
882.637	-0.36
882.803	0.25
882.968	2.89
883.134	1.79
883.299	-0.7
883.465	-0.87
883.63	2.32
883.796	1.82
883.961	0.11
884.127	-0.58
884.292	-3.87
884.458	-3.79
884.623	-3.79
