Data from Apollo_Calib_20240827__AbsoluteIrradiance__149__01-38-00-726.txt Node

Date: Wed Aug 28 01:38:00 BST 2024
User: biology
Spectrometer: FLMT08252
Trigger mode: 0
Integration Time (sec): 5.000000E-1
Scans to average: 5
Electric dark correction enabled: true
Nonlinearity correction enabled: false
Boxcar width: 0
XAxis mode: Wavelengths
Number of Pixels in Spectrum: 3648
>>>>>Begin Spectral Data<<<<<
179.588	-0
179.809	-0
180.03	-0
180.251	-0
180.473	-0
180.694	0
180.915	0
181.136	-0
181.357	0
181.578	-0
181.799	0
182.02	-0
182.241	-0
182.462	-0
182.683	0
182.904	-0
183.125	-0
183.346	0
183.567	0
183.788	-0
184.009	-0
184.23	-0
184.451	0
184.672	-0
184.892	-0
185.113	0
185.334	0
185.555	-0
185.776	-0
185.996	0
186.217	0
186.438	0
186.659	-0
186.879	0
187.1	-0
187.321	-0
187.541	-0
187.762	-0
187.983	-0
188.203	-0
188.424	-0
188.644	-0
188.865	-0
189.086	-0
189.306	-0
189.527	-0
189.747	-0
189.968	-0
190.188	0
190.409	-0
190.629	0
190.849	-0
191.07	-0
191.29	0
191.511	0
191.731	-0
191.951	-0
192.172	-0
192.392	-0
192.612	-0
192.833	0
193.053	-0
193.273	0
193.493	-0
193.714	-0
193.934	0
194.154	0
194.374	-0
194.594	-0
194.815	-0
195.035	0
195.255	0
195.475	-0
195.695	0
195.915	0
196.135	-0
196.355	0
196.575	0
196.795	0
197.015	-0
197.235	-0
197.455	-0
197.675	0
197.895	-0
198.115	-0
198.335	0
198.555	-0
198.775	-0
198.995	-0
199.214	0
199.434	-0
199.654	-0
199.874	-0
200.094	0.73
200.313	-0.02
200.533	-0.72
200.753	-0.95
200.973	0.95
201.192	-0.02
201.412	-0.73
201.632	-0.67
201.851	0.78
202.071	-0.59
202.291	-0.37
202.51	-0.64
202.73	0.5
202.95	-0.56
203.169	-0.97
203.389	0.12
203.608	-0.27
203.828	-0.27
204.047	-0.63
204.267	0.24
204.486	-0.1
204.706	0.01
204.925	-0.24
205.145	-0.34
205.364	0.28
205.583	0.37
205.803	-0.19
206.022	-0.72
206.242	-0.19
206.461	-0.22
206.68	-0.26
206.9	-0.13
207.119	0.4
207.338	0.64
207.557	-0.29
207.777	-0.34
207.996	-0
208.215	0.14
208.434	-0.36
208.654	-0.55
208.873	0.24
209.092	0.26
209.311	-0.28
209.53	-0.23
209.749	-0.32
209.968	-0.45
210.187	-0.21
210.407	-0.48
210.626	-0.25
210.845	0.48
211.064	-0.2
211.283	-0.34
211.502	0.14
211.721	-0.05
211.94	-0.3
212.159	0.08
212.377	0.12
212.596	0.22
212.815	-0.13
213.034	-0.01
213.253	0.39
213.472	0.19
213.691	-0.23
213.91	-0.15
214.128	-0.3
214.347	0.23
214.566	-0.5
214.785	-0.34
215.003	0.2
215.222	0.16
215.441	0
215.66	-0.19
215.878	-0
216.097	0.17
216.316	-0.23
216.534	-0.18
216.753	-0.1
216.972	-0.13
217.19	-0.2
217.409	-0.16
217.627	-0.22
217.846	-0.22
218.064	-0.1
218.283	-0.36
218.501	0.16
218.72	0.24
218.938	-0.3
219.157	-0.1
219.375	0.17
219.594	-0.06
219.812	-0.29
220.031	-0.24
220.249	0.34
220.467	0.2
220.686	-0.12
220.904	-0.34
221.122	-0.26
221.341	0.13
221.559	-0.08
221.777	-0.37
221.995	-0.14
222.214	-0.02
222.432	-0.16
222.65	-0.06
222.868	0.18
223.086	0.09
223.305	0.04
223.523	-0.17
223.741	0.25
223.959	-0.1
224.177	-0.22
224.395	-0.15
224.613	-0.01
224.831	0.17
225.049	-0.22
225.267	-0.07
225.485	-0.03
225.703	-0.16
225.921	-0.04
226.139	-0.16
226.357	0.04
226.575	-0.08
226.793	-0.23
227.011	0.44
227.229	0.01
227.447	0.04
227.665	-0.11
227.883	-0.27
228.1	0.08
228.318	0.07
228.536	-0.35
228.754	-0.13
228.972	0.05
229.189	0.1
229.407	-0.14
229.625	-0.11
229.843	0.18
230.06	-0.05
230.278	-0.1
230.496	-0.06
230.713	0.08
230.931	0.13
231.149	-0.02
231.366	-0.24
231.584	-0.09
231.801	0.25
232.019	-0.12
232.236	-0.24
232.454	-0.06
232.671	-0.03
232.889	-0.07
233.106	-0.2
233.324	-0.02
233.541	-0.15
233.759	-0.01
233.976	-0.08
234.194	-0.1
234.411	-0.03
234.628	-0.16
234.846	-0.07
235.063	-0.09
235.28	-0
235.498	-0.05
235.715	-0.18
235.932	0.03
236.149	-0.02
236.367	-0.17
236.584	-0.05
236.801	-0.09
237.018	-0.01
237.236	0.06
237.453	-0.1
237.67	0.1
237.887	-0.04
238.104	-0.13
238.321	-0.09
238.538	-0.06
238.755	0.09
238.973	-0.23
239.19	-0.08
239.407	-0
239.624	-0.02
239.841	-0.27
240.058	-0.22
240.275	0.05
240.492	-0.11
240.709	-0.05
240.925	0.02
241.142	-0.06
241.359	-0.11
241.576	-0.21
241.793	-0.07
242.01	-0.06
242.227	0.09
242.444	0.02
242.66	0.04
242.877	0.02
243.094	-0.08
243.311	0.03
243.527	-0.01
243.744	0.02
243.961	0.03
244.178	-0.12
244.394	0.01
244.611	0.09
244.828	0.07
245.044	-0.08
245.261	-0.13
245.477	-0.03
245.694	0
245.911	-0.09
246.127	0.04
246.344	0.12
246.56	0.02
246.777	-0.08
246.993	-0.07
247.21	-0.03
247.426	-0.06
247.643	-0.1
247.859	-0.13
248.076	-0.1
248.292	0.18
248.508	-0.18
248.725	-0.01
248.941	0.07
249.157	0.05
249.374	-0.05
249.59	-0.07
249.806	-0.09
250.023	0.05
250.239	-0.12
250.455	-0.06
250.671	0.01
250.888	-0.03
251.104	0.05
251.32	-0.04
251.536	-0.08
251.752	-0.07
251.969	0.05
252.185	-0
252.401	0.14
252.617	0
252.833	-0.06
253.049	0
253.265	-0.01
253.481	-0
253.697	-0.02
253.913	-0.13
254.129	0.03
254.345	0
254.561	-0.02
254.777	-0.04
254.993	0.05
255.209	0.01
255.425	-0.04
255.641	-0.06
255.857	0.13
256.073	-0.01
256.288	-0.16
256.504	-0.12
256.72	0.04
256.936	0.06
257.152	0.03
257.367	-0.13
257.583	-0.02
257.799	0.05
258.015	-0.12
258.23	-0.04
258.446	0.1
258.662	-0
258.877	-0.08
259.093	-0.06
259.309	-0.01
259.524	-0.04
259.74	-0.01
259.955	-0.16
260.171	-0.03
260.387	-0
260.602	0.03
260.818	0.05
261.033	-0.07
261.249	-0.06
261.464	-0.02
261.68	-0.12
261.895	-0.07
262.11	0.02
262.326	-0.08
262.541	-0.16
262.757	0.07
262.972	-0.02
263.187	-0.04
263.403	-0.08
263.618	0.03
263.833	0.01
264.049	-0.09
264.264	-0.07
264.479	0.03
264.694	0.03
264.91	-0.09
265.125	-0.06
265.34	0.04
265.555	0.16
265.77	-0.02
265.986	-0.04
266.201	-0.03
266.416	0.06
266.631	-0.05
266.846	-0.07
267.061	0.02
267.276	0.04
267.491	-0.12
267.706	-0.01
267.921	0.05
268.136	-0.06
268.351	-0.02
268.566	-0.15
268.781	0.09
268.996	-0.04
269.211	-0
269.426	-0.09
269.641	-0.03
269.856	0.09
270.071	-0.08
270.285	-0.13
270.5	0.07
270.715	0.08
270.93	-0.03
271.145	-0.02
271.359	0.06
271.574	-0.09
271.789	-0
272.004	-0.08
272.218	-0.04
272.433	0.02
272.648	-0.09
272.862	0.07
273.077	-0.01
273.292	-0.05
273.506	-0.08
273.721	0
273.936	-0
274.15	0.08
274.365	-0.1
274.579	0.05
274.794	0.02
275.008	0.05
275.223	-0.1
275.437	-0.02
275.652	0.08
275.866	0.07
276.081	-0.04
276.295	0.05
276.509	-0.03
276.724	-0.01
276.938	-0.02
277.153	0.02
277.367	-0.02
277.581	-0.01
277.796	-0.07
278.01	-0.09
278.224	0.08
278.438	0.02
278.653	-0.06
278.867	-0.04
279.081	-0.16
279.295	-0.04
279.51	-0
279.724	-0.11
279.938	0.08
280.152	0.01
280.366	-0.04
280.58	0
280.794	0.05
281.008	-0
281.222	0.02
281.437	0.04
281.651	-0.04
281.865	0.06
282.079	-0.06
282.293	-0.11
282.507	-0.13
282.721	-0.02
282.935	-0.06
283.148	-0.05
283.362	-0.03
283.576	-0.11
283.79	-0.03
284.004	-0.06
284.218	0.02
284.432	-0.05
284.646	-0.05
284.859	-0.02
285.073	-0.04
285.287	-0
285.501	-0.05
285.714	-0.01
285.928	-0.02
286.142	-0.02
286.356	-0.08
286.569	-0.03
286.783	0.03
286.997	-0.01
287.21	0.03
287.424	0.01
287.637	-0.03
287.851	0.03
288.065	0
288.278	-0.05
288.492	-0.03
288.705	-0.03
288.919	0.02
289.132	-0.05
289.346	0.06
289.559	-0.05
289.773	-0.08
289.986	-0.03
290.2	0.01
290.413	0.06
290.626	-0.11
290.84	-0.01
291.053	-0
291.267	0.08
291.48	-0.05
291.693	0.01
291.906	-0.03
292.12	-0.01
292.333	-0.04
292.546	0.01
292.76	0.06
292.973	0.03
293.186	0.05
293.399	-0.04
293.612	0.05
293.826	-0
294.039	-0.03
294.252	-0.01
294.465	0.02
294.678	0.02
294.891	-0.02
295.104	-0.07
295.317	-0.03
295.53	-0.04
295.743	-0.02
295.956	0.01
296.169	0.06
296.382	0.04
296.595	0.02
296.808	-0.06
297.021	0.05
297.234	0.05
297.447	-0.02
297.66	0.04
297.873	0.01
298.086	0.02
298.299	-0.07
298.511	-0.04
298.724	0.02
298.937	-0.06
299.15	-0.02
299.363	-0.04
299.575	0
299.788	0.01
300.001	-0.05
300.213	-0.02
300.426	-0.05
300.639	-0.04
300.852	-0.01
301.064	0.04
301.277	0.04
301.489	0.04
301.702	0.03
301.915	0.02
302.127	-0.01
302.34	0.04
302.552	0.02
302.765	-0.05
302.977	0
303.19	-0.02
303.402	-0.02
303.615	-0
303.827	-0
304.04	-0.03
304.252	-0.01
304.464	-0.06
304.677	0.06
304.889	0.06
305.102	-0.04
305.314	-0.03
305.526	0.05
305.739	0.06
305.951	-0.02
306.163	-0.01
306.375	0.09
306.588	-0.02
306.8	-0.04
307.012	-0.07
307.224	0.01
307.436	0.05
307.649	-0.11
307.861	0.05
308.073	0.07
308.285	-0.03
308.497	-0.06
308.709	0.01
308.921	-0.02
309.133	-0.03
309.346	-0.03
309.558	0.03
309.77	0.04
309.982	0.07
310.194	0.04
310.406	-0.05
310.617	0.05
310.829	0.01
311.041	0.04
311.253	-0.05
311.465	-0.01
311.677	-0.02
311.889	-0
312.101	-0.01
312.313	0.02
312.524	0.03
312.736	-0.03
312.948	-0.06
313.16	0.06
313.372	0.05
313.583	0.01
313.795	-0.02
314.007	-0.04
314.218	0.02
314.43	-0.03
314.642	-0.03
314.853	-0.06
315.065	0.05
315.277	0
315.488	0
315.7	0.01
315.912	0.03
316.123	-0.04
316.335	-0.03
316.546	0.14
316.758	-0
316.969	0.02
317.181	-0.02
317.392	-0
317.604	0.03
317.815	-0.05
318.026	-0.06
318.238	-0.04
318.449	0.01
318.661	-0.07
318.872	-0.03
319.083	-0.03
319.295	-0.02
319.506	0
319.717	0.05
319.929	-0
320.14	-0.01
320.351	0
320.562	-0.03
320.774	-0.03
320.985	0.04
321.196	-0.05
321.407	-0.05
321.618	0.04
321.829	0.01
322.041	0.03
322.252	0
322.463	0.05
322.674	-0.02
322.885	-0.05
323.096	-0
323.307	-0.02
323.518	0.02
323.729	-0.03
323.94	0.01
324.151	-0.01
324.362	-0.04
324.573	0.03
324.784	-0.06
324.995	0.09
325.206	-0
325.417	-0.03
325.628	-0
325.838	0
326.049	0.02
326.26	0.05
326.471	-0.01
326.682	0.05
326.892	-0.04
327.103	-0.1
327.314	-0.04
327.525	0.05
327.735	0
327.946	-0.01
328.157	-0.03
328.368	-0.01
328.578	-0.03
328.789	0.04
328.999	-0.03
329.21	-0.01
329.421	0.01
329.631	-0.04
329.842	-0.03
330.052	0.02
330.263	-0
330.473	0.02
330.684	-0.01
330.894	-0.03
331.105	0.03
331.315	-0.03
331.526	-0.11
331.736	0.09
331.947	-0.02
332.157	0
332.367	-0.03
332.578	-0.03
332.788	0.07
332.999	-0.03
333.209	-0.03
333.419	-0.1
333.629	-0.02
333.84	0.06
334.05	0.03
334.26	0.03
334.47	0
334.681	0.07
334.891	-0.01
335.101	0.09
335.311	0.06
335.521	-0.05
335.732	-0.05
335.942	0.01
336.152	0.02
336.362	-0.04
336.572	-0
336.782	0.01
336.992	-0.01
337.202	-0
337.412	-0.04
337.622	0.03
337.832	0.02
338.042	-0.01
338.252	-0.05
338.462	-0.02
338.672	0.01
338.882	-0.04
339.092	-0.03
339.302	0.07
339.511	0.01
339.721	0.01
339.931	-0.05
340.141	0.01
340.351	0.05
340.561	0
340.77	0
340.98	0.03
341.19	0.02
341.4	-0.02
341.609	-0.06
341.819	-0.05
342.029	-0.07
342.238	-0.03
342.448	-0.05
342.658	0.03
342.867	-0.01
343.077	0.01
343.286	-0.02
343.496	-0.02
343.706	0.06
343.915	-0.07
344.125	0
344.334	0.02
344.544	-0.05
344.753	-0.04
344.963	-0.05
345.172	-0.06
345.381	-0.05
345.591	-0.05
345.8	-0.01
346.01	0.08
346.219	0.07
346.428	-0.17
346.638	-0.02
346.847	0.02
347.056	0.07
347.266	-0.02
347.475	0.02
347.684	0.01
347.893	0.01
348.103	0.04
348.312	-0.05
348.521	-0.01
348.73	-0.01
348.94	0
349.149	-0.02
349.358	-0.01
349.567	-0.02
349.776	-0.03
349.985	-0.03
350.194	0
350.403	0.02
350.612	-0.04
350.821	-0.01
351.03	-0.02
351.239	-0.07
351.448	-0.03
351.657	-0.07
351.866	0.05
352.075	0.01
352.284	0.01
352.493	-0.1
352.702	0.07
352.911	0
353.12	-0.01
353.329	-0.01
353.538	0.01
353.746	-0
353.955	-0.04
354.164	0.02
354.373	-0
354.582	0.03
354.79	-0.01
354.999	0
355.208	-0
355.416	0.01
355.625	-0.05
355.834	-0.06
356.042	0.02
356.251	-0.01
356.46	-0.08
356.668	0.01
356.877	0.08
357.085	0
357.294	-0.06
357.503	0.01
357.711	-0
357.92	0.13
358.128	-0.04
358.337	-0
358.545	-0.01
358.754	-0.03
358.962	0.01
359.17	0
359.379	0
359.587	0.02
359.796	0.01
360.004	0.03
360.212	0.03
360.421	0.07
360.629	-0.03
360.837	-0.02
361.046	0.04
361.254	0.08
361.462	0
361.67	-0.05
361.879	0.06
362.087	0.04
362.295	-0.06
362.503	-0.05
362.711	-0.06
362.92	-0.03
363.128	-0.02
363.336	-0.05
363.544	-0.09
363.752	-0.06
363.96	-0.08
364.168	-0.07
364.376	-0.03
364.584	0.01
364.792	-0.02
365	0.04
365.208	-0.02
365.416	-0.02
365.624	0.02
365.832	-0.05
366.04	0.06
366.248	-0.01
366.456	0.01
366.664	-0
366.872	-0.01
367.079	0.01
367.287	-0.02
367.495	0.04
367.703	0
367.911	-0.03
368.118	-0.02
368.326	-0.04
368.534	-0.07
368.742	0.02
368.949	-0.07
369.157	-0.05
369.365	0.04
369.572	0
369.78	-0.03
369.988	0.02
370.195	-0.01
370.403	0.03
370.61	-0.02
370.818	-0.02
371.026	0.03
371.233	-0.04
371.441	0.01
371.648	-0.06
371.856	0.03
372.063	0.02
372.271	-0.04
372.478	0
372.685	-0.04
372.893	-0
373.1	-0.01
373.308	-0.04
373.515	0.06
373.722	-0.01
373.93	-0.04
374.137	-0.03
374.344	0.08
374.552	0.03
374.759	0.04
374.966	-0.02
375.173	-0.04
375.381	0.02
375.588	0.01
375.795	-0.04
376.002	-0.02
376.209	-0.04
376.417	-0.02
376.624	-0.05
376.831	-0
377.038	-0.01
377.245	-0.1
377.452	-0.02
377.659	-0.02
377.866	-0.05
378.073	-0.03
378.28	0.01
378.487	0.04
378.694	0.02
378.901	0
379.108	0.02
379.315	0.06
379.522	0.08
379.729	0
379.936	-0.03
380.143	0
380.35	0.01
380.557	-0.03
380.763	0.01
380.97	0.03
381.177	-0
381.384	0
381.591	-0.02
381.797	0.02
382.004	-0
382.211	0.02
382.418	-0
382.624	0.02
382.831	0.04
383.038	-0.02
383.244	-0
383.451	-0
383.658	0.05
383.864	-0.02
384.071	-0.06
384.277	0.05
384.484	-0.06
384.69	0.02
384.897	0
385.103	-0.03
385.31	-0.01
385.516	-0.05
385.723	-0.02
385.929	-0.02
386.136	0.02
386.342	0.02
386.549	-0.03
386.755	0.01
386.961	0.05
387.168	-0.03
387.374	0
387.58	0.03
387.787	-0.03
387.993	-0
388.199	-0.04
388.406	-0.06
388.612	-0.01
388.818	-0.05
389.024	0.02
389.231	0.01
389.437	0.08
389.643	0.03
389.849	0.03
390.055	-0.01
390.261	0.01
390.467	-0.01
390.674	-0.03
390.88	-0.01
391.086	0.05
391.292	-0.02
391.498	0.05
391.704	0
391.91	-0.02
392.116	-0
392.322	-0.07
392.528	0.03
392.734	-0.02
392.94	0.03
393.146	0.02
393.352	0.02
393.557	0.01
393.763	0.06
393.969	0.08
394.175	0
394.381	0.07
394.587	0.06
394.792	-0.01
394.998	0.11
395.204	0.1
395.41	-0.01
395.615	0.1
395.821	0.05
396.027	0.07
396.233	0.01
396.438	0.08
396.644	0.17
396.85	0.13
397.055	0.06
397.261	0.1
397.466	0.06
397.672	0.08
397.878	0.14
398.083	0.13
398.289	0.05
398.494	0.15
398.7	0.13
398.905	0.05
399.111	0.23
399.316	0.06
399.522	0.13
399.727	0.14
399.932	0.14
400.138	0.11
400.343	0.21
400.549	0.2
400.754	0.21
400.959	0.18
401.165	0.19
401.37	0.22
401.575	0.23
401.78	0.21
401.986	0.25
402.191	0.24
402.396	0.29
402.601	0.3
402.807	0.3
403.012	0.31
403.217	0.34
403.422	0.3
403.627	0.32
403.832	0.33
404.037	0.41
404.243	0.37
404.448	0.36
404.653	0.43
404.858	0.44
405.063	0.43
405.268	0.41
405.473	0.35
405.678	0.39
405.883	0.55
406.088	0.47
406.293	0.39
406.498	0.48
406.703	0.5
406.907	0.5
407.112	0.47
407.317	0.47
407.522	0.53
407.727	0.46
407.932	0.48
408.136	0.63
408.341	0.5
408.546	0.51
408.751	0.48
408.956	0.48
409.16	0.5
409.365	0.49
409.57	0.46
409.774	0.49
409.979	0.49
410.184	0.43
410.388	0.44
410.593	0.49
410.798	0.45
411.002	0.41
411.207	0.42
411.411	0.41
411.616	0.35
411.82	0.4
412.025	0.39
412.229	0.3
412.434	0.44
412.638	0.33
412.843	0.31
413.047	0.41
413.252	0.28
413.456	0.28
413.66	0.31
413.865	0.21
414.069	0.33
414.273	0.2
414.478	0.19
414.682	0.25
414.886	0.23
415.091	0.14
415.295	0.15
415.499	0.23
415.703	0.23
415.908	0.23
416.112	0.11
416.316	0.21
416.52	0.17
416.724	0.09
416.929	0.16
417.133	0.26
417.337	0.14
417.541	0.17
417.745	0.14
417.949	0.22
418.153	0.17
418.357	0.11
418.561	0.23
418.765	0.15
418.969	0.23
419.173	0.19
419.377	0.09
419.581	0.21
419.785	0.12
419.989	0.11
420.193	0.12
420.397	0.14
420.601	0.16
420.804	0.18
421.008	0.1
421.212	0.12
421.416	0.12
421.62	0.12
421.823	0.07
422.027	0.16
422.231	0.09
422.435	0.08
422.638	0.09
422.842	0.03
423.046	0.09
423.249	0.08
423.453	0.11
423.657	0.12
423.86	0.08
424.064	0.09
424.268	0.08
424.471	0.06
424.675	0.09
424.878	0.11
425.082	0.05
425.285	0.09
425.489	0.05
425.692	0.05
425.896	-0
426.099	0.09
426.303	0
426.506	-0.01
426.71	0.09
426.913	0.1
427.116	0.08
427.32	0.06
427.523	0.02
427.726	0.15
427.93	-0.02
428.133	0.01
428.336	-0.02
428.54	0.02
428.743	0.02
428.946	0.06
429.149	0.01
429.353	0.03
429.556	0
429.759	0.01
429.962	-0.04
430.165	0.06
430.368	-0.01
430.571	-0.01
430.775	0.04
430.978	0.03
431.181	0.07
431.384	0.03
431.587	0.02
431.79	0.05
431.993	0.01
432.196	0.02
432.399	0.04
432.602	0.12
432.805	0.02
433.008	0.03
433.211	0.01
433.414	0.09
433.616	0.04
433.819	0.03
434.022	-0.05
434.225	0.09
434.428	0.01
434.631	0.15
434.833	0.06
435.036	-0.01
435.239	0.08
435.442	0.06
435.645	-0.01
435.847	0.04
436.05	0.09
436.253	0.01
436.455	-0.01
436.658	0.03
436.861	0.15
437.063	0.02
437.266	0.02
437.468	0.07
437.671	0.18
437.874	0.09
438.076	0
438.279	-0.02
438.481	0.03
438.684	0.01
438.886	0.02
439.089	-0.09
439.291	-0.01
439.494	0.05
439.696	0.01
439.899	0.03
440.101	0.03
440.303	-0.02
440.506	0.04
440.708	0.01
440.91	0.07
441.113	0.02
441.315	0.06
441.517	-0.05
441.72	0.1
441.922	0.02
442.124	-0.04
442.326	0.04
442.529	0.11
442.731	0.02
442.933	0.15
443.135	0.05
443.337	-0.04
443.539	0.04
443.742	0.03
443.944	0.08
444.146	0.04
444.348	0.06
444.55	0.06
444.752	0.06
444.954	-0.02
445.156	0.05
445.358	0.01
445.56	0.09
445.762	0.04
445.964	0.05
446.166	0.03
446.368	0.04
446.57	0.12
446.772	0.06
446.974	0.03
447.175	0.08
447.377	0.01
447.579	0.08
447.781	-0.03
447.983	0.15
448.184	0.11
448.386	0.07
448.588	0
448.79	0.04
448.991	0
449.193	0.07
449.395	0.07
449.597	0.12
449.798	0.09
450	0.08
450.202	0.03
450.403	0.05
450.605	0.09
450.806	0.09
451.008	-0.03
451.21	0.09
451.411	0.07
451.613	0.03
451.814	0.08
452.016	0.07
452.217	0.08
452.419	0.08
452.62	0.06
452.821	0.11
453.023	0.14
453.224	0.09
453.426	0.07
453.627	0.06
453.828	0.12
454.03	0.01
454.231	0.09
454.432	0
454.634	0.13
454.835	0.01
455.036	-0.03
455.238	0.08
455.439	0.08
455.64	-0
455.841	0.01
456.042	0.11
456.244	0.05
456.445	0.01
456.646	-0.03
456.847	0.04
457.048	0.04
457.249	0.08
457.45	0.22
457.651	0.04
457.852	0.11
458.054	0.03
458.255	0.01
458.456	0.06
458.657	0.07
458.858	-0.01
459.058	0.04
459.259	0.03
459.46	-0.04
459.661	0.03
459.862	0.1
460.063	0
460.264	0.08
460.465	-0.04
460.666	0.07
460.866	0.04
461.067	0.03
461.268	0.02
461.469	0
461.67	0.06
461.87	-0.01
462.071	-0.05
462.272	-0.01
462.473	-0.01
462.673	0.05
462.874	-0.01
463.075	0.02
463.275	-0.05
463.476	0
463.676	0.01
463.877	0.05
464.078	0.01
464.278	0.06
464.479	-0.01
464.679	0.02
464.88	-0.02
465.08	0.13
465.281	-0.01
465.481	0.01
465.682	-0.04
465.882	0.01
466.083	-0.04
466.283	-0.03
466.483	0
466.684	-0.03
466.884	-0.02
467.085	-0
467.285	0.06
467.485	-0.01
467.686	-0.04
467.886	-0.04
468.086	0.04
468.286	0.01
468.487	0.06
468.687	-0.02
468.887	0.04
469.087	0
469.287	-0.03
469.488	-0.08
469.688	0.04
469.888	0.04
470.088	0.01
470.288	0.06
470.488	0.03
470.688	-0.05
470.888	0
471.088	-0.04
471.288	0.05
471.488	0.01
471.688	0.03
471.888	-0.02
472.088	0.07
472.288	0.03
472.488	-0.01
472.688	-0.02
472.888	0.01
473.088	-0.02
473.288	0.04
473.488	0.02
473.688	0.09
473.887	0.01
474.087	-0.03
474.287	0.03
474.487	0
474.687	0.04
474.886	0.03
475.086	-0.02
475.286	0.02
475.486	-0.01
475.685	-0.02
475.885	0
476.085	-0
476.284	0.04
476.484	-0.04
476.684	-0.01
476.883	0.07
477.083	-0
477.282	-0.02
477.482	0.06
477.681	0.05
477.881	0
478.08	0.01
478.28	-0.03
478.479	0.02
478.679	0.09
478.878	-0.01
479.078	-0.03
479.277	-0.03
479.477	-0.02
479.676	0.04
479.875	0
480.075	-0.04
480.274	0.03
480.473	0.03
480.673	-0.03
480.872	0.04
481.071	0.01
481.271	0.02
481.47	-0.03
481.669	-0.01
481.868	-0.01
482.067	-0.01
482.267	-0.05
482.466	-0.03
482.665	-0.04
482.864	-0.03
483.063	-0
483.262	0.01
483.461	0.07
483.661	-0.01
483.86	-0.01
484.059	-0.02
484.258	-0.02
484.457	-0.03
484.656	0.01
484.855	0.04
485.054	-0.05
485.253	-0.03
485.452	-0.06
485.651	-0.01
485.849	-0.02
486.048	-0
486.247	-0.04
486.446	-0.02
486.645	-0.03
486.844	-0.03
487.043	-0.01
487.241	0.01
487.44	-0.03
487.639	-0.03
487.838	0.02
488.037	0.01
488.235	0.04
488.434	0.01
488.633	-0.04
488.831	0.01
489.03	0.03
489.229	0.02
489.427	0.01
489.626	0.03
489.825	0.05
490.023	-0.01
490.222	0.01
490.42	0.03
490.619	0.02
490.817	-0.01
491.016	-0.02
491.214	0.04
491.413	-0.01
491.611	-0.01
491.81	0
492.008	0.01
492.207	0.02
492.405	0.01
492.604	-0.03
492.802	-0.02
493	-0.02
493.199	-0.02
493.397	-0.02
493.595	0
493.794	-0.01
493.992	0.04
494.19	-0
494.388	0.02
494.587	-0.02
494.785	-0.02
494.983	-0.04
495.181	-0.01
495.379	-0.01
495.578	-0.01
495.776	0.01
495.974	0
496.172	-0.01
496.37	-0.03
496.568	-0.02
496.766	0.01
496.964	0.02
497.162	-0.02
497.36	-0.04
497.558	0.01
497.756	0.03
497.954	-0.01
498.152	-0.03
498.35	-0.01
498.548	0.01
498.746	-0
498.944	-0.05
499.142	-0.03
499.34	-0.05
499.538	-0
499.736	-0.02
499.933	0.02
500.131	0.03
500.329	0
500.527	0.01
500.725	0.03
500.922	0.01
501.12	-0.01
501.318	0.02
501.516	-0.02
501.713	0.01
501.911	-0.02
502.109	-0.02
502.306	-0
502.504	-0.01
502.701	-0.04
502.899	-0.02
503.097	0.04
503.294	0.02
503.492	0.01
503.689	0.01
503.887	-0
504.084	0.05
504.282	-0.01
504.479	-0.04
504.677	-0
504.874	-0.02
505.072	0
505.269	-0
505.466	0.04
505.664	0.01
505.861	-0.04
506.059	0
506.256	0.02
506.453	-0.03
506.651	0.01
506.848	0.02
507.045	0
507.242	-0.01
507.44	-0.02
507.637	-0
507.834	-0.01
508.031	0.01
508.229	-0.01
508.426	0
508.623	0.01
508.82	-0.01
509.017	-0.03
509.214	-0.01
509.411	-0.02
509.608	-0.04
509.805	-0.01
510.003	-0.01
510.2	0
510.397	0.02
510.594	-0.02
510.791	-0.02
510.988	-0.02
511.184	0.04
511.381	-0.02
511.578	-0.02
511.775	0.02
511.972	-0.02
512.169	-0.02
512.366	-0.02
512.563	-0
512.76	-0.02
512.956	0
513.153	-0.02
513.35	-0
513.547	-0.02
513.744	-0.03
513.94	-0.05
514.137	0.01
514.334	-0.01
514.53	-0
514.727	-0.01
514.924	0.02
515.12	-0.01
515.317	-0.02
515.514	-0.02
515.71	-0.05
515.907	-0.02
516.103	-0
516.3	0
516.497	0.01
516.693	0.03
516.89	-0.02
517.086	-0.01
517.283	0.03
517.479	-0
517.676	-0
517.872	-0.01
518.068	-0.03
518.265	-0.03
518.461	-0.01
518.658	-0.04
518.854	0.01
519.05	-0.02
519.247	-0
519.443	0.01
519.639	0.02
519.836	-0
520.032	-0
520.228	-0
520.424	0.02
520.621	0
520.817	0
521.013	0
521.209	-0
521.405	0.04
521.601	0
521.798	-0.01
521.994	0.03
522.19	-0.03
522.386	-0.05
522.582	-0.01
522.778	-0.03
522.974	-0.01
523.17	-0.02
523.366	-0.01
523.562	0.01
523.758	0
523.954	-0.02
524.15	-0.02
524.346	0.02
524.542	-0.02
524.738	0
524.934	-0.01
525.129	-0.09
525.325	0
525.521	-0.01
525.717	0
525.913	-0
526.109	0.01
526.304	-0.03
526.5	-0.01
526.696	0.03
526.892	-0.01
527.087	-0.02
527.283	-0.03
527.479	-0
527.674	-0.01
527.87	-0.01
528.066	-0.01
528.261	0
528.457	0.02
528.653	-0.02
528.848	-0.02
529.044	-0
529.239	-0.02
529.435	0
529.63	-0
529.826	0.06
530.021	0
530.217	0
530.412	0
530.608	-0.03
530.803	0.01
530.999	0
531.194	-0.04
531.389	-0.01
531.585	-0.06
531.78	-0.01
531.975	-0.01
532.171	0
532.366	-0.03
532.561	0
532.757	-0.02
532.952	-0.02
533.147	0.02
533.342	-0.01
533.538	-0
533.733	-0.01
533.928	-0
534.123	-0.02
534.318	-0.05
534.513	-0.01
534.709	-0.01
534.904	-0.03
535.099	0
535.294	-0.02
535.489	0.01
535.684	-0.02
535.879	-0.05
536.074	-0
536.269	-0.02
536.464	0.01
536.659	-0.02
536.854	-0
537.049	-0
537.244	0.01
537.439	-0.02
537.634	0.02
537.828	0
538.023	-0.01
538.218	-0.03
538.413	0
538.608	-0.04
538.803	-0
538.997	-0.06
539.192	0.03
539.387	0.02
539.582	0
539.776	0.01
539.971	-0.01
540.166	0.01
540.36	-0.03
540.555	-0.02
540.75	-0
540.944	-0.01
541.139	-0.05
541.334	-0
541.528	0.01
541.723	0.01
541.917	-0.02
542.112	-0.04
542.306	-0.01
542.501	-0.01
542.695	0
542.89	-0.01
543.084	-0.01
543.279	-0.02
543.473	-0.03
543.668	0.01
543.862	-0.02
544.056	0.01
544.251	-0.02
544.445	-0
544.64	-0.02
544.834	-0.04
545.028	-0.01
545.222	-0.01
545.417	-0
545.611	-0
545.805	-0.02
546	-0.04
546.194	0
546.388	-0.01
546.582	0.03
546.776	-0
546.97	-0.01
547.165	-0.01
547.359	0.04
547.553	-0.04
547.747	-0.01
547.941	-0.02
548.135	-0.02
548.329	0.01
548.523	0.01
548.717	-0.02
548.911	-0.04
549.105	-0
549.299	-0.01
549.493	0.04
549.687	0
549.881	-0.01
550.075	-0.01
550.269	-0.02
550.463	-0.01
550.657	-0.02
550.85	-0.02
551.044	-0.01
551.238	-0
551.432	-0.04
551.626	-0.02
551.82	0
552.013	0
552.207	-0.01
552.401	0.01
552.594	-0.02
552.788	-0.01
552.982	0.01
553.176	-0.04
553.369	0
553.563	0.01
553.756	-0.04
553.95	-0.02
554.144	-0.02
554.337	0.03
554.531	-0.01
554.724	0.02
554.918	0.01
555.111	0.02
555.305	-0.02
555.498	0.04
555.692	-0.01
555.885	-0.03
556.079	0.01
556.272	-0
556.466	0.01
556.659	-0.01
556.852	-0.01
557.046	-0.02
557.239	0.03
557.432	-0.04
557.626	-0.02
557.819	0.02
558.012	0
558.206	0.01
558.399	-0
558.592	0.01
558.785	-0.03
558.979	0.03
559.172	-0.01
559.365	0
559.558	-0
559.751	-0.02
559.944	0
560.138	-0.03
560.331	-0.04
560.524	-0
560.717	-0
560.91	-0.01
561.103	0.02
561.296	0
561.489	-0
561.682	0.02
561.875	0.03
562.068	0.02
562.261	0
562.454	0.01
562.647	0.02
562.84	-0.01
563.032	-0.01
563.225	0
563.418	-0.03
563.611	-0.02
563.804	-0.01
563.997	-0.01
564.19	-0.05
564.382	-0.02
564.575	-0.02
564.768	0.02
564.961	-0.02
565.153	-0.02
565.346	0.02
565.539	0.02
565.731	0
565.924	0.03
566.117	0.01
566.309	-0
566.502	-0.01
566.695	0
566.887	-0.01
567.08	-0.03
567.272	-0.01
567.465	-0.04
567.657	-0.01
567.85	0.03
568.042	0
568.235	0.05
568.427	-0.01
568.62	0.01
568.812	0.01
569.005	-0.02
569.197	-0.06
569.389	-0.01
569.582	-0.02
569.774	0.03
569.966	-0.05
570.159	-0.02
570.351	0
570.543	-0.04
570.736	-0.01
570.928	-0.03
571.12	-0
571.312	-0.01
571.505	-0.04
571.697	0.04
571.889	-0.02
572.081	-0.01
572.273	-0.04
572.465	0.03
572.658	-0.02
572.85	0
573.042	-0.03
573.234	-0
573.426	0.03
573.618	-0.02
573.81	-0.01
574.002	0.02
574.194	0.02
574.386	-0.05
574.578	-0.09
574.77	-0.04
574.962	-0.01
575.154	-0.04
575.346	-0.03
575.538	0.03
575.729	-0.04
575.921	-0.01
576.113	-0.02
576.305	0.03
576.497	-0.04
576.689	-0.01
576.88	-0.01
577.072	-0
577.264	-0.02
577.456	0.01
577.647	-0.1
577.839	-0
578.031	0.01
578.223	-0.04
578.414	-0.03
578.606	0.01
578.798	0.02
578.989	-0.03
579.181	-0.02
579.372	-0.01
579.564	-0.03
579.755	-0.01
579.947	-0
580.139	-0
580.33	-0.05
580.522	-0.05
580.713	-0.07
580.905	-0.01
581.096	0.02
581.287	-0.02
581.479	-0.01
581.67	-0
581.862	0.01
582.053	-0.04
582.244	-0.03
582.436	-0.02
582.627	-0.02
582.818	-0.03
583.01	-0.05
583.201	0.03
583.392	-0
583.583	-0.03
583.775	-0.05
583.966	-0.02
584.157	-0.02
584.348	-0.01
584.54	-0.03
584.731	0.02
584.922	0
585.113	-0.03
585.304	0
585.495	0.02
585.686	-0.02
585.877	0.01
586.068	-0
586.259	-0
586.45	-0.01
586.641	-0.05
586.832	-0.06
587.023	-0.03
587.214	-0.01
587.405	-0.02
587.596	-0.04
587.787	-0
587.978	0
588.169	-0.05
588.36	-0.03
588.551	-0.01
588.742	-0.02
588.932	-0
589.123	-0.01
589.314	0.01
589.505	0.01
589.696	-0.02
589.886	-0.05
590.077	-0.04
590.268	0
590.458	-0.04
590.649	-0.06
590.84	0.02
591.03	-0.02
591.221	-0.03
591.412	-0.05
591.602	0.01
591.793	0.02
591.984	-0.05
592.174	-0.01
592.365	0.06
592.555	-0.03
592.746	0.01
592.936	-0
593.127	0.03
593.317	0.04
593.508	-0.04
593.698	-0.02
593.889	-0
594.079	-0.01
594.269	-0.06
594.46	-0.02
594.65	-0.01
594.84	-0.02
595.031	-0.04
595.221	-0.03
595.411	-0.06
595.602	0
595.792	-0.02
595.982	-0.02
596.172	0.03
596.363	0.01
596.553	-0.02
596.743	-0.04
596.933	0.01
597.123	0.01
597.314	-0.05
597.504	-0.02
597.694	0.01
597.884	0.02
598.074	-0.01
598.264	-0.04
598.454	-0.02
598.644	-0.02
598.834	0
599.024	-0.08
599.214	-0.03
599.404	0.03
599.594	-0.01
599.784	-0.02
599.974	0.02
600.164	0.03
600.354	-0.02
600.544	-0.06
600.734	-0.01
600.924	0.03
601.114	-0.04
601.303	0.02
601.493	0.01
601.683	-0.04
601.873	0
602.063	-0.05
602.252	0.01
602.442	-0.06
602.632	-0.05
602.821	-0.06
603.011	0.02
603.201	-0.02
603.39	-0.02
603.58	-0.02
603.77	-0.01
603.959	0.04
604.149	-0
604.339	-0.03
604.528	0.01
604.718	0
604.907	-0.03
605.097	-0.03
605.286	-0.05
605.476	0
605.665	-0
605.855	-0.02
606.044	0.04
606.234	-0.01
606.423	0.02
606.612	-0.03
606.802	0.02
606.991	0.04
607.181	0.01
607.37	-0.06
607.559	-0.02
607.749	-0.03
607.938	-0
608.127	-0.03
608.316	-0
608.506	0.01
608.695	-0.04
608.884	-0.04
609.073	0
609.263	0.01
609.452	0.01
609.641	0.02
609.83	-0.03
610.019	0.01
610.208	-0.04
610.397	0.01
610.586	-0.03
610.775	-0.03
610.965	-0.03
611.154	-0.02
611.343	-0.02
611.532	-0.02
611.721	-0.02
611.91	-0.04
612.099	0
612.287	-0.01
612.476	-0.06
612.665	-0.01
612.854	-0.02
613.043	-0
613.232	0.01
613.421	-0.03
613.61	-0.03
613.798	-0.04
613.987	0.01
614.176	-0.02
614.365	-0.01
614.554	0.01
614.742	-0
614.931	-0.05
615.12	0.03
615.309	-0.04
615.497	-0
615.686	-0.02
615.875	-0.03
616.063	-0
616.252	-0.03
616.44	-0.03
616.629	-0.02
616.818	0.01
617.006	-0
617.195	-0.05
617.383	-0
617.572	0.02
617.76	-0.02
617.949	-0.04
618.137	0
618.326	0.01
618.514	-0.02
618.703	-0.04
618.891	0.03
619.079	-0.04
619.268	0.01
619.456	-0.05
619.644	0.03
619.833	-0.04
620.021	-0.03
620.209	-0.06
620.398	0.01
620.586	0.01
620.774	0.02
620.962	0.02
621.151	0.04
621.339	-0.02
621.527	-0.04
621.715	-0.04
621.903	-0.06
622.092	-0.04
622.28	0.01
622.468	-0.02
622.656	0.01
622.844	0
623.032	-0.04
623.22	-0.07
623.408	0.03
623.596	-0.01
623.784	-0
623.972	0.01
624.16	-0.05
624.348	0.04
624.536	0
624.724	-0.04
624.912	0.03
625.1	0.04
625.288	-0.02
625.476	-0.01
625.664	0
625.851	-0.03
626.039	-0.02
626.227	0.03
626.415	-0.02
626.603	-0.09
626.79	-0.01
626.978	-0.06
627.166	0.01
627.354	-0.03
627.541	-0.02
627.729	-0.08
627.917	-0.03
628.104	0.05
628.292	0.02
628.48	-0.01
628.667	-0.02
628.855	0.01
629.042	0.01
629.23	-0.05
629.418	-0.02
629.605	-0.02
629.793	0
629.98	-0.03
630.168	-0.01
630.355	0.02
630.543	0.02
630.73	-0.04
630.917	0
631.105	0.05
631.292	-0.02
631.48	0.01
631.667	0.06
631.854	-0
632.042	0.02
632.229	-0.04
632.416	-0
632.604	0.01
632.791	-0.01
632.978	0.01
633.165	0.01
633.353	0.07
633.54	0.02
633.727	-0.05
633.914	-0.01
634.101	-0.05
634.289	0.05
634.476	0
634.663	-0.04
634.85	0.03
635.037	-0.04
635.224	-0.05
635.411	0.05
635.598	0.03
635.785	0.03
635.972	-0.01
636.159	0.05
636.346	-0.03
636.533	0.01
636.72	-0.03
636.907	0.01
637.094	0.05
637.281	-0.02
637.468	0.04
637.655	0
637.842	-0
638.029	-0.01
638.215	0.05
638.402	0.03
638.589	-0
638.776	-0.02
638.963	-0.05
639.149	0.02
639.336	0.07
639.523	0.01
639.709	0.02
639.896	0.03
640.083	0.06
640.27	0.01
640.456	-0.01
640.643	0.05
640.829	-0.03
641.016	0.02
641.203	-0.05
641.389	0.04
641.576	-0
641.762	0.02
641.949	-0.01
642.135	0.01
642.322	0.05
642.508	-0.03
642.695	-0.01
642.881	0.02
643.068	0.03
643.254	0.04
643.441	0.05
643.627	0
643.813	-0
644	0.06
644.186	-0.01
644.372	-0.04
644.559	0.03
644.745	-0.01
644.931	-0.01
645.118	0.03
645.304	0.03
645.49	-0.01
645.676	0.01
645.862	0
646.049	0.08
646.235	0.04
646.421	0.11
646.607	0.11
646.793	-0.01
646.979	0.03
647.165	0.04
647.352	0.04
647.538	0.06
647.724	0.05
647.91	0.06
648.096	0.07
648.282	0.05
648.468	0.05
648.654	0.05
648.84	0.03
649.026	0.07
649.212	0.03
649.397	0
649.583	-0.01
649.769	0.05
649.955	0.03
650.141	0.06
650.327	0.1
650.513	0.01
650.698	0.09
650.884	-0.02
651.07	0.07
651.256	0.06
651.442	0.07
651.627	0.05
651.813	0.04
651.999	0.05
652.184	0.09
652.37	0.06
652.556	0.03
652.741	0.09
652.927	0.02
653.113	0.08
653.298	0.07
653.484	0.05
653.669	0.01
653.855	0.06
654.04	0.12
654.226	0.11
654.412	0.05
654.597	0.03
654.782	0.09
654.968	0.06
655.153	0.09
655.339	0.04
655.524	0.06
655.71	0.1
655.895	0.07
656.08	0.07
656.266	0.07
656.451	0.12
656.636	0.08
656.822	0.06
657.007	0.07
657.192	0.05
657.378	0.04
657.563	0.07
657.748	0.1
657.933	0.1
658.118	0.06
658.304	0.06
658.489	0.13
658.674	0.12
658.859	0.06
659.044	0.09
659.229	0.09
659.414	0.06
659.599	0.09
659.785	0.06
659.97	0.03
660.155	0.12
660.34	0.12
660.525	0.07
660.71	0.06
660.895	0.12
661.08	0.07
661.264	0.06
661.449	0.14
661.634	0.11
661.819	0.1
662.004	0.11
662.189	-0.03
662.374	0.06
662.559	0.06
662.743	0.03
662.928	0.06
663.113	0.07
663.298	0.02
663.483	0.04
663.667	0.09
663.852	0.03
664.037	0.09
664.221	0.06
664.406	0.08
664.591	0.09
664.775	0.04
664.96	0.09
665.145	0.04
665.329	0.09
665.514	0
665.698	0.05
665.883	-0.03
666.068	0.12
666.252	0.04
666.437	-0
666.621	0.06
666.806	0.02
666.99	0.04
667.174	-0.02
667.359	0.09
667.543	0.03
667.728	0.02
667.912	-0.04
668.096	0.05
668.281	-0
668.465	-0
668.649	0.01
668.834	-0.05
669.018	0.04
669.202	0
669.387	-0.02
669.571	0.05
669.755	-0.02
669.939	0.01
670.124	0.04
670.308	0.05
670.492	0.06
670.676	0.01
670.86	-0
671.044	-0.04
671.228	0.01
671.413	-0.01
671.597	-0.03
671.781	-0.05
671.965	0.02
672.149	0.03
672.333	-0.02
672.517	-0.01
672.701	0.03
672.885	-0.01
673.069	-0.04
673.253	0.04
673.437	0.01
673.621	-0.05
673.804	0.01
673.988	0
674.172	-0.01
674.356	-0.06
674.54	-0.01
674.724	0.05
674.908	-0.03
675.091	0.03
675.275	-0.03
675.459	0.02
675.643	-0.01
675.826	-0.01
676.01	0.02
676.194	0.01
676.377	0.05
676.561	0
676.745	0
676.928	0.02
677.112	0.04
677.296	-0.05
677.479	-0.04
677.663	-0.02
677.846	0.02
678.03	-0
678.213	-0.02
678.397	-0.01
678.58	-0.06
678.764	-0.09
678.947	-0.07
679.131	-0.04
679.314	-0
679.498	-0.01
679.681	0.02
679.865	0.05
680.048	-0.02
680.231	-0.04
680.415	-0.01
680.598	-0.06
680.781	0
680.965	-0.06
681.148	0.03
681.331	-0.03
681.514	0.01
681.698	-0.03
681.881	-0
682.064	-0.04
682.247	0.03
682.43	-0.07
682.614	0.01
682.797	0.04
682.98	0.01
683.163	-0.07
683.346	0.01
683.529	-0.01
683.712	-0.08
683.895	-0.01
684.078	-0.06
684.261	-0.06
684.444	-0.01
684.627	-0.02
684.81	-0.05
684.993	-0.01
685.176	0
685.359	-0.07
685.542	-0.03
685.725	0.08
685.908	-0.03
686.091	-0.04
686.274	0.02
686.457	0.01
686.639	0
686.822	0.04
687.005	0
687.188	-0.03
687.371	0.06
687.553	-0.03
687.736	0.04
687.919	0.06
688.102	0.05
688.284	-0.05
688.467	-0.02
688.65	0.02
688.832	-0.06
689.015	-0.04
689.197	-0.06
689.38	0.09
689.563	0.05
689.745	-0.06
689.928	-0.02
690.11	-0.04
690.293	0.06
690.475	-0.04
690.658	0.02
690.84	-0.03
691.023	-0
691.205	-0.03
691.388	-0.02
691.57	0.01
691.752	0.02
691.935	-0.11
692.117	-0.03
692.3	0.05
692.482	0.01
692.664	-0.03
692.847	0.01
693.029	0.05
693.211	0.02
693.393	-0.03
693.576	-0.02
693.758	-0.02
693.94	-0.07
694.122	-0.05
694.304	-0.01
694.487	-0.04
694.669	0.08
694.851	-0.05
695.033	0.01
695.215	-0.03
695.397	-0.03
695.579	0.02
695.761	-0.06
695.943	-0.12
696.125	0.05
696.308	-0.01
696.49	-0.12
696.671	0.09
696.853	-0.02
697.035	0.09
697.217	0.05
697.399	0
697.581	-0.08
697.763	0.02
697.945	-0.04
698.127	0
698.309	-0
698.491	-0.04
698.672	0.02
698.854	0.05
699.036	0.06
699.218	-0.04
699.399	0.02
699.581	0.01
699.763	0.02
699.945	-0.04
700.126	-0.05
700.308	0.03
700.49	-0.02
700.671	-0.14
700.853	-0.03
701.035	-0.02
701.216	0
701.398	-0.09
701.579	-0.02
701.761	0.02
701.943	-0.04
702.124	-0.07
702.306	0.03
702.487	0.1
702.669	-0.02
702.85	-0.04
703.031	-0.08
703.213	0.07
703.394	0
703.576	-0.04
703.757	0.03
703.938	0.05
704.12	0.13
704.301	-0
704.483	-0.06
704.664	0.05
704.845	0.1
705.026	0.03
705.208	0.03
705.389	0.01
705.57	0.03
705.751	-0.04
705.933	0.01
706.114	0.1
706.295	-0.05
706.476	-0.03
706.657	0.1
706.838	-0
707.02	0.01
707.201	-0.03
707.382	-0.07
707.563	0.01
707.744	-0.02
707.925	-0.03
708.106	-0.03
708.287	-0
708.468	0.08
708.649	0
708.83	0.03
709.011	-0.04
709.192	0.07
709.373	-0.07
709.554	0.06
709.734	-0
709.915	0.06
710.096	0.03
710.277	-0.1
710.458	0
710.639	0.02
710.819	-0.1
711	0.03
711.181	0.1
711.362	0.09
711.542	-0
711.723	-0.04
711.904	0.03
712.085	-0.01
712.265	0.02
712.446	-0.07
712.627	-0
712.807	0.04
712.988	-0.09
713.168	-0.07
713.349	0.04
713.53	-0.09
713.71	-0.07
713.891	-0.03
714.071	-0
714.252	-0.03
714.432	-0.05
714.613	-0.09
714.793	-0.02
714.974	0.07
715.154	0.06
715.334	0.02
715.515	0.11
715.695	-0.06
715.876	0
716.056	-0.01
716.236	0.05
716.417	-0.03
716.597	-0.1
716.777	0.15
716.957	-0.07
717.138	-0.03
717.318	0.07
717.498	-0.05
717.678	0.06
717.859	0.03
718.039	-0.03
718.219	0.05
718.399	0.05
718.579	-0.02
718.759	-0.05
718.939	0.02
719.12	0.04
719.3	-0
719.48	-0.11
719.66	-0.06
719.84	0.15
720.02	0.02
720.2	-0
720.38	-0.01
720.56	0.1
720.74	0.02
720.92	0.08
721.1	0.13
721.279	0.1
721.459	0.04
721.639	-0.08
721.819	0.04
721.999	0.01
722.179	0.09
722.359	-0.05
722.538	0.02
722.718	0.05
722.898	-0.03
723.078	0.07
723.257	0.05
723.437	-0.03
723.617	0.04
723.797	0.05
723.976	0.07
724.156	0.05
724.336	0.11
724.515	0.06
724.695	-0.1
724.874	0
725.054	0.08
725.234	-0
725.413	0.08
725.593	0.05
725.772	0.01
725.952	-0.02
726.131	0.07
726.311	0.04
726.49	0.08
726.67	-0.04
726.849	0
727.028	0.11
727.208	0.03
727.387	0.03
727.567	-0.01
727.746	0.1
727.925	0.07
728.105	-0.05
728.284	0
728.463	0.04
728.643	0.17
728.822	-0.01
729.001	0.03
729.18	0.08
729.359	0.1
729.539	0.05
729.718	0.03
729.897	0.04
730.076	0.06
730.255	0.03
730.434	0.04
730.614	0.11
730.793	0.19
730.972	0.03
731.151	-0
731.33	0.15
731.509	0.06
731.688	0.11
731.867	0.05
732.046	-0.12
732.225	0.27
732.404	0.08
732.583	-0.02
732.762	0.1
732.941	0.17
733.12	0.09
733.298	-0.03
733.477	0.17
733.656	0.03
733.835	-0.08
734.014	0.18
734.193	0.07
734.371	0.17
734.55	0.17
734.729	-0.07
734.908	0.17
735.086	0.11
735.265	0.19
735.444	-0.08
735.623	0.02
735.801	-0.04
735.98	0.03
736.159	0.08
736.337	0.08
736.516	0.11
736.694	-0.01
736.873	0.03
737.052	0.24
737.23	0.16
737.409	-0.08
737.587	0.23
737.766	-0.14
737.944	0.08
738.123	0.07
738.301	0.19
738.479	0.13
738.658	0.13
738.836	-0.13
739.015	0.11
739.193	0.11
739.371	0.05
739.55	0.02
739.728	-0.01
739.906	0.21
740.085	0.25
740.263	0.16
740.441	-0.16
740.62	0.21
740.798	0.11
740.976	-0.1
741.154	-0.01
741.332	0.23
741.511	0.1
741.689	0.05
741.867	0.12
742.045	-0
742.223	0.02
742.401	0.04
742.579	-0.09
742.757	0.1
742.935	-0.08
743.114	-0.03
743.292	-0.08
743.47	0.07
743.648	0.06
743.826	0.09
744.004	0.12
744.181	0.07
744.359	-0.03
744.537	0
744.715	-0.1
744.893	-0.01
745.071	-0.03
745.249	-0.06
745.427	-0.05
745.605	0.08
745.782	0.09
745.96	0.15
746.138	-0.03
746.316	0.03
746.493	-0.08
746.671	0.11
746.849	-0.02
747.027	0.19
747.204	-0.05
747.382	0.04
747.56	-0.16
747.737	0.06
747.915	0
748.093	0.05
748.27	-0.11
748.448	0.01
748.625	-0.01
748.803	-0.07
748.98	-0.03
749.158	0.06
749.335	0.15
749.513	-0.04
749.69	-0.1
749.868	0.04
750.045	-0
750.223	-0.05
750.4	-0.22
750.578	0.25
750.755	-0.03
750.932	-0.19
751.11	0.13
751.287	-0.07
751.464	0.04
751.642	-0.03
751.819	0.03
751.996	0.01
752.173	-0.03
752.351	-0.14
752.528	-0.02
752.705	-0.06
752.882	-0.03
753.06	-0.01
753.237	0.04
753.414	0.07
753.591	0.12
753.768	0.03
753.945	-0.13
754.122	-0.07
754.299	-0.01
754.476	-0.08
754.654	-0.04
754.831	-0.06
755.008	0
755.185	-0.02
755.362	-0.11
755.539	0.02
755.716	-0.18
755.892	-0.08
756.069	-0.04
756.246	-0.12
756.423	-0.09
756.6	0.05
756.777	-0.01
756.954	0.04
757.131	-0.07
757.307	-0.2
757.484	-0.11
757.661	-0.02
757.838	0.08
758.015	-0.13
758.191	0.05
758.368	0.04
758.545	0.08
758.721	-0.04
758.898	-0.1
759.075	0.09
759.251	0.08
759.428	0.02
759.605	-0.07
759.781	-0.04
759.958	0.06
760.134	0.01
760.311	-0.16
760.488	0.07
760.664	0.07
760.841	-0.1
761.017	-0.09
761.194	-0.01
761.37	0.1
761.547	-0.07
761.723	-0.04
761.899	0.19
762.076	-0.16
762.252	-0.23
762.429	-0.02
762.605	0.1
762.781	-0.11
762.958	0.11
763.134	-0.13
763.31	-0
763.486	0.1
763.663	-0.21
763.839	-0.03
764.015	-0.21
764.191	-0.09
764.368	-0.03
764.544	-0.15
764.72	0.05
764.896	0.12
765.072	-0.02
765.248	-0.07
765.425	-0.07
765.601	-0.03
765.777	-0.1
765.953	-0.27
766.129	-0.06
766.305	-0.07
766.481	-0.04
766.657	0.05
766.833	0.03
767.009	-0.14
767.185	-0.11
767.361	-0.03
767.537	-0.08
767.713	0.11
767.889	-0.07
768.065	0.03
768.24	-0.31
768.416	0.23
768.592	-0.06
768.768	-0.02
768.944	0.02
769.12	-0.13
769.295	-0.1
769.471	-0.06
769.647	0.03
769.823	0.15
769.998	-0.07
770.174	-0.14
770.35	0.3
770.525	0.15
770.701	0
770.877	-0.03
771.052	-0.17
771.228	0.01
771.403	-0.12
771.579	0.12
771.755	0.12
771.93	-0.03
772.106	-0.15
772.281	-0.25
772.457	-0.01
772.632	0.04
772.808	-0.26
772.983	-0.04
773.159	-0.2
773.334	0.09
773.509	-0.1
773.685	-0.09
773.86	0.23
774.036	0.12
774.211	0.02
774.386	-0.04
774.562	-0.06
774.737	-0.08
774.912	-0.22
775.087	0.04
775.263	-0.07
775.438	-0.04
775.613	-0.12
775.788	-0.17
775.964	0.18
776.139	0.36
776.314	-0.08
776.489	0.03
776.664	-0.03
776.839	-0.12
777.014	0.1
777.19	0.05
777.365	0.23
777.54	0.04
777.715	-0.18
777.89	-0
778.065	-0.22
778.24	0.07
778.415	-0.09
778.59	-0.24
778.765	-0.13
778.94	-0.03
779.115	-0.04
779.289	0.05
779.464	-0.15
779.639	-0.09
779.814	-0.16
779.989	-0.27
780.164	0.19
780.339	0.13
780.513	-0.2
780.688	-0.17
780.863	-0.04
781.038	0.11
781.212	-0.17
781.387	-0.02
781.562	0.25
781.737	0.03
781.911	0.05
782.086	-0.06
782.261	0.09
782.435	0.28
782.61	-0.13
782.784	-0.11
782.959	0.22
783.134	-0.14
783.308	-0.17
783.483	-0.08
783.657	0.33
783.832	0.12
784.006	-0.35
784.181	-0.12
784.355	0.11
784.53	-0
784.704	-0.23
784.878	0.28
785.053	0.25
785.227	0.2
785.402	0.31
785.576	-0.19
785.75	-0.08
785.925	-0.19
786.099	-0.07
786.273	0.07
786.448	0.28
786.622	0.01
786.796	-0.04
786.97	-0.19
787.145	0.57
787.319	-0.14
787.493	-0.04
787.667	-0.29
787.841	-0
788.015	0.18
788.19	-0.12
788.364	-0.09
788.538	0.22
788.712	0.13
788.886	-0.08
789.06	0.16
789.234	0.18
789.408	-0.09
789.582	-0.14
789.756	0.01
789.93	-0.22
790.104	0.17
790.278	-0.42
790.452	-0.37
790.626	0.2
790.8	-0.06
790.973	-0
791.147	0.2
791.321	0.26
791.495	0.05
791.669	0.07
791.843	-0.12
792.016	0
792.19	0.37
792.364	-0.53
792.538	0.47
792.711	0.23
792.885	0.14
793.059	-0.26
793.233	-0.47
793.406	0.26
793.58	-0.04
793.754	-0.1
793.927	-0.12
794.101	0.25
794.274	0.01
794.448	0.15
794.622	-0.45
794.795	0.08
794.969	-0.04
795.142	0.19
795.316	-0.15
795.489	-0.1
795.663	0.4
795.836	-0.21
796.009	-0.39
796.183	0.25
796.356	0.1
796.53	0.07
796.703	-0.16
796.876	0.39
797.05	-0.09
797.223	-0.16
797.396	0.01
797.57	-0.05
797.743	0.32
797.916	0.1
798.09	-0.16
798.263	0.18
798.436	0.11
798.609	-0.19
798.782	0.01
798.956	-0.06
799.129	-0.19
799.302	-0.08
799.475	-0.25
799.648	-0.21
799.821	-0.36
799.994	-0.02
800.167	-0.45
800.34	-0.21
800.514	0.03
800.687	-0.16
800.86	0.01
801.033	-0.1
801.206	-0.03
801.379	-0.22
801.551	0.14
801.724	0.13
801.897	0.32
802.07	-0.29
802.243	-0.41
802.416	-0.18
802.589	-0.21
802.762	0.28
802.935	-0.26
803.107	0.28
803.28	0.06
803.453	0.22
803.626	-0.38
803.798	-0.23
803.971	-0.16
804.144	0.2
804.317	0.23
804.489	0.41
804.662	-0.02
804.835	-0.13
805.007	-0.44
805.18	0.32
805.353	0.05
805.525	-0.32
805.698	-0.66
805.87	-0.13
806.043	0.19
806.215	-0.39
806.388	-0.45
806.56	-0.12
806.733	0.25
806.905	-0.02
807.078	-0.15
807.25	-0.36
807.423	-0.07
807.595	-0.13
807.768	-0.18
807.94	0.02
808.112	0.06
808.285	0.21
808.457	-0.04
808.629	-0.15
808.802	0.08
808.974	0.08
809.146	-0.21
809.318	-0.61
809.491	0.07
809.663	-0.08
809.835	-0.41
810.007	0.38
810.18	-0.12
810.352	-0.2
810.524	-0.17
810.696	0.08
810.868	0.16
811.04	-0
811.212	-0.1
811.384	0.44
811.556	0.19
811.728	-0.01
811.901	0.24
812.073	-0.39
812.245	0.01
812.417	-0.12
812.589	-0.62
812.76	-0.07
812.932	-0.21
813.104	0.49
813.276	-0.42
813.448	0.22
813.62	-0.06
813.792	0.11
813.964	0.07
814.136	-0.04
814.307	-0.12
814.479	-0.27
814.651	-0.36
814.823	1.24
814.995	-0.06
815.166	0.08
815.338	-0.42
815.51	-0.45
815.681	0.61
815.853	0.07
816.025	-0.13
816.196	0.67
816.368	0.09
816.54	-0.97
816.711	-0.48
816.883	0.02
817.054	0.26
817.226	-0.82
817.398	-0.08
817.569	0.04
817.741	0.53
817.912	-0.17
818.084	-0.15
818.255	0.56
818.426	-0.26
818.598	-0.29
818.769	-0.44
818.941	0.39
819.112	0.76
819.283	0.16
819.455	-0.74
819.626	0.15
819.798	-0.05
819.969	0.36
820.14	-0.13
820.311	-0.22
820.483	-0.1
820.654	-0.03
820.825	0.12
820.996	-0.07
821.168	-0.59
821.339	-0.1
821.51	-1.07
821.681	-0.5
821.852	0.01
822.023	-0.5
822.195	-1.2
822.366	0.13
822.537	0.11
822.708	0.62
822.879	-0.52
823.05	0.2
823.221	-0.64
823.392	-0.1
823.563	-0.02
823.734	0.05
823.905	0.39
824.076	-0.57
824.247	-0.55
824.418	-0.15
824.589	0.74
824.759	-0.62
824.93	0.01
825.101	-0.49
825.272	-0.08
825.443	0.24
825.614	0.36
825.784	-1.3
825.955	0.17
826.126	0.13
826.297	0.04
826.467	0.2
826.638	0.86
826.809	-1.1
826.98	0.01
827.15	-0.19
827.321	-0.62
827.492	0.55
827.662	0.08
827.833	1.07
828.003	0.36
828.174	-0.32
828.345	-0.56
828.515	0.5
828.686	0.01
828.856	-0.08
829.027	-0.27
829.197	0.09
829.368	-0.01
829.538	-0.21
829.709	-0.41
829.879	0.16
830.049	-0.05
830.22	-0.07
830.39	-0.7
830.56	0.46
830.731	-0.11
830.901	-0.56
831.072	0.06
831.242	0.08
831.412	-0.25
831.582	0.12
831.753	-0.3
831.923	0.62
832.093	-0.14
832.263	-0.23
832.434	-0.88
832.604	-0.08
832.774	0.09
832.944	-0.78
833.114	-0.5
833.284	0.52
833.454	-0.79
833.624	-0.3
833.795	-0.54
833.965	0.62
834.135	0.5
834.305	-1.25
834.475	-0.67
834.645	-0.44
834.815	-0.21
834.985	-0.32
835.155	-0.41
835.325	0.57
835.494	0.33
835.664	-0.75
835.834	-1.09
836.004	0.11
836.174	0.22
836.344	0.21
836.514	-0.77
836.684	0.06
836.853	-0.06
837.023	0.21
837.193	-0.7
837.363	0.58
837.532	0.44
837.702	0.06
837.872	-0.5
838.041	0.13
838.211	1.17
838.381	-0.68
838.55	0.11
838.72	1.71
838.89	1.16
839.059	-0.21
839.229	-1.27
839.398	0.58
839.568	-0.56
839.738	0.33
839.907	0.65
840.077	-0.01
840.246	-1.17
840.416	-0.79
840.585	-0.36
840.755	0.99
840.924	1.04
841.093	-0.78
841.263	-0.95
841.432	0.31
841.602	-1.07
841.771	-0.69
841.94	-0.06
842.11	1.37
842.279	1.26
842.448	-1.39
842.617	-1.07
842.787	0.73
842.956	-0.48
843.125	0.08
843.294	-0.09
843.464	0.38
843.633	-0.44
843.802	-1.37
843.971	0.08
844.14	0.4
844.309	0.89
844.479	-0.9
844.648	-1.11
844.817	-0.57
844.986	0.01
845.155	-0.93
845.324	1.08
845.493	-0.07
845.662	-0.18
845.831	0.58
846	-0.08
846.169	-0.14
846.338	0.86
846.507	-0.18
846.676	-0.03
846.844	-0.94
847.013	-0.26
847.182	0.47
847.351	-0.01
847.52	-0.08
847.689	-0.4
847.858	0.39
848.026	-0.14
848.195	-0.53
848.364	-1.17
848.533	-0.97
848.701	-0.56
848.87	0.07
849.039	1.15
849.207	0.81
849.376	0.91
849.545	0.29
849.713	-0.73
849.882	-0.41
850.051	-0.18
850.219	-0.22
850.388	0.38
850.556	-1.24
850.725	-0.57
850.893	0.26
851.062	0.09
851.23	0.59
851.399	-1.33
851.567	-1.79
851.736	-0.44
851.904	-0.03
852.073	-0.17
852.241	0.21
852.41	-0.51
852.578	-0.24
852.746	-0.7
852.915	0.53
853.083	-0.48
853.251	-0.93
853.42	-0.09
853.588	1.39
853.756	0.62
853.924	-0.2
854.093	0.27
854.261	-0.99
854.429	-1.57
854.597	-0.35
854.765	-1.21
854.934	0.77
855.102	0.93
855.27	-0.89
855.438	0.43
855.606	1.53
855.774	1.83
855.942	-1.46
856.11	-2.05
856.278	0.36
856.446	1.66
856.614	-0.22
856.782	-1.08
856.95	0.59
857.118	0.76
857.286	0.23
857.454	-0.47
857.622	2.45
857.79	1.13
857.958	-1.05
858.126	-0.42
858.294	-2.3
858.462	0.07
858.629	-1.43
858.797	-0.62
858.965	0.91
859.133	-0.93
859.301	-0.95
859.468	0.76
859.636	-1.64
859.804	1.21
859.971	0.7
860.139	-0.56
860.307	1.51
860.474	-0.19
860.642	-1.78
860.81	-0.94
860.977	-0.89
861.145	0.52
861.313	-1.07
861.48	0.22
861.648	0.12
861.815	-0.59
861.983	-1.7
862.15	-0.69
862.318	0.1
862.485	0.84
862.653	-1.27
862.82	-1.37
862.988	1.22
863.155	0.65
863.322	-1.17
863.49	-0.15
863.657	-0.12
863.824	1.01
863.992	1.25
864.159	-0.72
864.326	1.49
864.494	-1.34
864.661	2.29
864.828	-2.17
864.996	2.31
865.163	2.13
865.33	-0.75
865.497	-3.81
865.664	-0.91
865.832	-0.97
865.999	-0.56
866.166	-2.72
866.333	-1.49
866.5	-1.34
866.667	-0.06
866.834	-0.62
867.001	0.15
867.168	-1.73
867.335	-0.91
867.502	-2.64
867.669	0.04
867.836	1.09
868.003	-1.38
868.17	0.61
868.337	-1.21
868.504	1.85
868.671	-1.44
868.838	-1.71
869.005	0.96
869.172	-1.22
869.339	-0.58
869.505	0.39
869.672	-0.37
869.839	2.77
870.006	-0.98
870.173	-3.25
870.339	-0.24
870.506	1.83
870.673	-2.47
870.84	0.93
871.006	-0.27
871.173	-0.15
871.34	-0.32
871.506	0.35
871.673	-0.33
871.839	-2.83
872.006	-0.49
872.173	0.05
872.339	-0.75
872.506	0.1
872.672	-1.13
872.839	-1.73
873.005	0.23
873.172	3.3
873.338	0.53
873.505	-0.54
873.671	-0.98
873.838	1.42
874.004	-2.42
874.171	-1.15
874.337	0.36
874.503	1.35
874.67	0.1
874.836	-1.52
875.002	1.9
875.169	1.7
875.335	-0.04
875.501	-0.84
875.668	2.34
875.834	1.34
876	-0.48
876.166	2.27
876.332	2.04
876.499	1.51
876.665	-0.13
876.831	-1.26
876.997	3.49
877.163	1.67
877.329	-0.83
877.495	0.97
877.662	0.2
877.828	-0.3
877.994	-0.15
878.16	-3.26
878.326	-0.3
878.492	-0.48
878.658	-1.6
878.824	0.87
878.99	-0.51
879.156	-2.55
879.322	3.02
879.487	-1.07
879.653	1.53
879.819	0.5
879.985	-1.69
880.151	1.56
880.317	1.06
880.483	1.3
880.648	0.82
880.814	-3.01
880.98	1.59
881.146	-2.61
881.312	0.47
881.477	-0.6
881.643	-0.08
881.809	-0.15
881.974	2.65
882.14	-2.54
882.306	-0.21
882.471	3.27
882.637	-2.56
882.803	1.42
882.968	2.84
883.134	3.31
883.299	-0.6
883.465	-0.23
883.63	1.81
883.796	0.95
883.961	0.17
884.127	1.52
884.292	-5.11
884.458	-2.5
884.623	-2.49
