Data from Apollo_Calib_20240827__AbsoluteIrradiance__359__05-08-02-345.txt Node

Date: Wed Aug 28 05:08:02 BST 2024
User: biology
Spectrometer: FLMT08252
Trigger mode: 0
Integration Time (sec): 5.000000E-1
Scans to average: 5
Electric dark correction enabled: true
Nonlinearity correction enabled: false
Boxcar width: 0
XAxis mode: Wavelengths
Number of Pixels in Spectrum: 3648
>>>>>Begin Spectral Data<<<<<
179.588	-0
179.809	-0
180.03	-0
180.251	-0
180.473	-0
180.694	0
180.915	0
181.136	-0
181.357	0
181.578	0
181.799	-0
182.02	-0
182.241	-0
182.462	-0
182.683	0
182.904	-0
183.125	-0
183.346	0
183.567	0
183.788	0
184.009	-0
184.23	0
184.451	0
184.672	-0
184.892	-0
185.113	0
185.334	0
185.555	0
185.776	0
185.996	0
186.217	0
186.438	0
186.659	-0
186.879	0
187.1	0
187.321	-0
187.541	-0
187.762	0
187.983	0
188.203	0
188.424	0
188.644	0
188.865	0
189.086	-0
189.306	0
189.527	0
189.747	0
189.968	0
190.188	0
190.409	0
190.629	0
190.849	-0
191.07	0
191.29	0
191.511	0
191.731	0
191.951	-0
192.172	0
192.392	0
192.612	0
192.833	0
193.053	0
193.273	0
193.493	-0
193.714	0
193.934	0
194.154	0
194.374	0
194.594	0
194.815	0
195.035	0
195.255	0
195.475	-0
195.695	0
195.915	0
196.135	0
196.355	0
196.575	0
196.795	0
197.015	-0
197.235	-0
197.455	0
197.675	0
197.895	-0
198.115	0
198.335	0
198.555	0
198.775	0
198.995	0
199.214	0
199.434	0
199.654	-0
199.874	0
200.094	1.46
200.313	0.74
200.533	-0.24
200.753	-0.16
200.973	1.54
201.192	1.2
201.412	-0.18
201.632	0.24
201.851	1.4
202.071	0.87
202.291	0.05
202.51	0.03
202.73	0.87
202.95	0.48
203.169	-0.21
203.389	0.44
203.608	0.6
203.828	0.3
204.047	0.31
204.267	0.95
204.486	0.64
204.706	0.55
204.925	0.31
205.145	0.34
205.364	0.74
205.583	1.27
205.803	0.17
206.022	-0.3
206.242	0.79
206.461	0.43
206.68	0
206.9	0.54
207.119	0.86
207.338	1.37
207.557	-0.05
207.777	0.37
207.996	0.47
208.215	0.76
208.434	0.22
208.654	-0.31
208.873	0.27
209.092	0.86
209.311	0.33
209.53	0.24
209.749	0.32
209.968	0.2
210.187	0.07
210.407	-0.09
210.626	-0.07
210.845	0.43
211.064	0.18
211.283	-0.03
211.502	0.46
211.721	0.33
211.94	0.08
212.159	0.45
212.377	0.51
212.596	0.78
212.815	0.59
213.034	0.45
213.253	0.58
213.472	0.44
213.691	0.27
213.91	0.13
214.128	0.1
214.347	0.73
214.566	-0.07
214.785	-0.02
215.003	0.59
215.222	0.41
215.441	0.14
215.66	0.09
215.878	0.38
216.097	0.57
216.316	-0
216.534	0.1
216.753	0.46
216.972	0.17
217.19	0.28
217.409	0.1
217.627	0.04
217.846	0.07
218.064	0.23
218.283	-0.03
218.501	0.76
218.72	0.53
218.938	0.22
219.157	-0.1
219.375	0.42
219.594	0.36
219.812	0.01
220.031	-0.08
220.249	0.33
220.467	0.53
220.686	0.01
220.904	-0.04
221.122	0.06
221.341	0.64
221.559	0.07
221.777	-0.04
221.995	0.14
222.214	0.39
222.432	0.16
222.65	0.2
222.868	0.14
223.086	0.13
223.305	0.4
223.523	0.22
223.741	0.48
223.959	0.14
224.177	-0.01
224.395	0.08
224.613	0.14
224.831	0.24
225.049	-0.1
225.267	0.04
225.485	0.32
225.703	0.2
225.921	0.14
226.139	0.1
226.357	0.33
226.575	0.29
226.793	0.14
227.011	0.82
227.229	0.21
227.447	0.29
227.665	-0.03
227.883	0.04
228.1	0.15
228.318	0.25
228.536	-0.19
228.754	0.03
228.972	0.37
229.189	0.25
229.407	0.11
229.625	0.11
229.843	0.37
230.06	0.32
230.278	0.02
230.496	0.03
230.713	0.07
230.931	0.35
231.149	0.07
231.366	-0.03
231.584	0.17
231.801	0.44
232.019	0.07
232.236	0.02
232.454	0.01
232.671	0.31
232.889	0.05
233.106	0
233.324	0.21
233.541	0.11
233.759	0.16
233.976	0.01
234.194	0.14
234.411	0.17
234.628	0.13
234.846	0.07
235.063	0.07
235.28	0.21
235.498	0.11
235.715	0.02
235.932	0.29
236.149	0.21
236.367	0.03
236.584	0.13
236.801	0.02
237.018	0.29
237.236	0.09
237.453	-0.05
237.67	0.32
237.887	0.1
238.104	0.13
238.321	0.06
238.538	0.11
238.755	0.34
238.973	-0.05
239.19	0.04
239.407	0.24
239.624	0.24
239.841	0.08
240.058	-0.02
240.275	0.14
240.492	0.14
240.709	0.08
240.925	0.1
241.142	0.14
241.359	0.01
241.576	-0.03
241.793	0.16
242.01	0.09
242.227	0.26
242.444	0.22
242.66	0.25
242.877	0.08
243.094	0.12
243.311	0.19
243.527	0.04
243.744	0.16
243.961	0.27
244.178	0.01
244.394	0.13
244.611	0.29
244.828	0.28
245.044	0.06
245.261	0.09
245.477	0.18
245.694	0.04
245.911	0.08
246.127	0.06
246.344	0.29
246.56	0.2
246.777	-0
246.993	0.22
247.21	0.25
247.426	0.1
247.643	0.03
247.859	-0.02
248.076	-0.02
248.292	0.28
248.508	0.18
248.725	0.19
248.941	0.17
249.157	0.27
249.374	0.06
249.59	0.09
249.806	0.14
250.023	0.33
250.239	0.02
250.455	0.06
250.671	0.16
250.888	0.18
251.104	0.19
251.32	0.11
251.536	0.13
251.752	0.1
251.969	0.18
252.185	0.14
252.401	0.36
252.617	0.19
252.833	0.09
253.049	0.09
253.265	0.16
253.481	0.14
253.697	0.07
253.913	0
254.129	0.14
254.345	0.15
254.561	0.08
254.777	0.02
254.993	0.26
255.209	0.09
255.425	0.1
255.641	0.03
255.857	0.22
256.073	0.17
256.288	0.01
256.504	0.02
256.72	0.17
256.936	0.24
257.152	0.12
257.367	0.1
257.583	0.12
257.799	0.19
258.015	0.04
258.23	0.13
258.446	0.28
258.662	0.14
258.877	0.08
259.093	-0
259.309	0.11
259.524	0.17
259.74	0.08
259.955	0.02
260.171	0.17
260.387	0.16
260.602	0.18
260.818	0.19
261.033	0.04
261.249	0.07
261.464	0.11
261.68	0.02
261.895	0.1
262.11	0.18
262.326	0.07
262.541	-0.02
262.757	0.21
262.972	0.18
263.187	0.12
263.403	0.15
263.618	0.21
263.833	0.12
264.049	0.13
264.264	0.1
264.479	0.16
264.694	0.15
264.91	0
265.125	0.03
265.34	0.18
265.555	0.24
265.77	0.14
265.986	0.09
266.201	0.16
266.416	0.21
266.631	0.11
266.846	0.13
267.061	0.15
267.276	0.13
267.491	-0.05
267.706	0.15
267.921	0.1
268.136	0.18
268.351	0.1
268.566	0.04
268.781	0.25
268.996	0.2
269.211	0.14
269.426	0.06
269.641	0.04
269.856	0.2
270.071	0.06
270.285	0.09
270.5	0.23
270.715	0.14
270.93	0.09
271.145	0.12
271.359	0.18
271.574	0.06
271.789	0.17
272.004	0.05
272.218	0.07
272.433	0.23
272.648	0.04
272.862	0.18
273.077	0.05
273.292	0.15
273.506	0.08
273.721	0.07
273.936	0.13
274.15	0.17
274.365	0.1
274.579	0.12
274.794	0.13
275.008	0.26
275.223	0.08
275.437	0.07
275.652	0.15
275.866	0.16
276.081	0.09
276.295	0.18
276.509	0.11
276.724	0.12
276.938	0.09
277.153	0.16
277.367	0.08
277.581	0.12
277.796	0.04
278.01	-0
278.224	0.18
278.438	0.27
278.653	0.03
278.867	0.1
279.081	-0.08
279.295	0.12
279.51	0.14
279.724	-0.01
279.938	0.17
280.152	0.12
280.366	0.01
280.58	0.1
280.794	0.23
281.008	0.13
281.222	0.14
281.437	0.21
281.651	0.16
281.865	0.17
282.079	0.08
282.293	-0.06
282.507	0.04
282.721	0.11
282.935	0.09
283.148	0.01
283.362	0.1
283.576	0.08
283.79	0.13
284.004	0.05
284.218	0.2
284.432	0.07
284.646	0.08
284.859	0.08
285.073	0.06
285.287	0.15
285.501	0.09
285.714	0.11
285.928	0.14
286.142	0.17
286.356	0.11
286.569	0.1
286.783	0.23
286.997	0.15
287.21	0.15
287.424	0.11
287.637	0.09
287.851	0.07
288.065	0.13
288.278	0.08
288.492	0.1
288.705	0.15
288.919	0.11
289.132	0.02
289.346	0.13
289.559	0.05
289.773	0.03
289.986	0.09
290.2	0.08
290.413	0.16
290.626	0.04
290.84	0.07
291.053	0.1
291.267	0.14
291.48	0.08
291.693	0.12
291.906	0.07
292.12	0.12
292.333	0.03
292.546	0.09
292.76	0.19
292.973	0.13
293.186	0.1
293.399	0.09
293.612	0.18
293.826	0.11
294.039	0.11
294.252	0.1
294.465	0.15
294.678	0.12
294.891	0.1
295.104	0.03
295.317	0.12
295.53	0.15
295.743	0.08
295.956	0.05
296.169	0.17
296.382	0.15
296.595	0.1
296.808	0.03
297.021	0.19
297.234	0.14
297.447	0.08
297.66	0.09
297.873	0.18
298.086	0.18
298.299	0.05
298.511	0.01
298.724	0.09
298.937	0.05
299.15	0.03
299.363	0.05
299.575	0.16
299.788	0.08
300.001	0.07
300.213	0.11
300.426	0.13
300.639	0.06
300.852	0.07
301.064	0.14
301.277	0.19
301.489	0.15
301.702	0.15
301.915	0.13
302.127	0.09
302.34	0.15
302.552	0.18
302.765	0.07
302.977	0.15
303.19	0.11
303.402	0.09
303.615	0.1
303.827	0.09
304.04	0.09
304.252	0.16
304.464	0.12
304.677	0.22
304.889	0.19
305.102	0.08
305.314	0.09
305.526	0.18
305.739	0.18
305.951	0.04
306.163	0.07
306.375	0.2
306.588	0.12
306.8	0.08
307.012	0.07
307.224	0.1
307.436	0.19
307.649	0.01
307.861	0.13
308.073	0.14
308.285	0.09
308.497	0.07
308.709	0.11
308.921	0.11
309.133	0.16
309.346	0.12
309.558	0.14
309.77	0.13
309.982	0.23
310.194	0.11
310.406	0.02
310.617	0.22
310.829	0.09
311.041	0.15
311.253	0.08
311.465	0.15
311.677	0.11
311.889	0.12
312.101	0.1
312.313	0.19
312.524	0.17
312.736	0.03
312.948	0.1
313.16	0.17
313.372	0.15
313.583	0.14
313.795	0.06
314.007	0.09
314.218	0.13
314.43	0.09
314.642	0.05
314.853	0.09
315.065	0.21
315.277	0.08
315.488	0.12
315.7	0.17
315.912	0.13
316.123	0.09
316.335	0.12
316.546	0.2
316.758	0.09
316.969	0.07
317.181	0.1
317.392	0.12
317.604	0.16
317.815	0.08
318.026	0.07
318.238	0.07
318.449	0.13
318.661	0.03
318.872	0.05
319.083	0.08
319.295	0.15
319.506	0.08
319.717	0.12
319.929	0.16
320.14	0.12
320.351	0.14
320.562	0.09
320.774	0.08
320.985	0.11
321.196	0.05
321.407	0.06
321.618	0.17
321.829	0.14
322.041	0.16
322.252	0.12
322.463	0.13
322.674	0.14
322.885	0.06
323.096	0.07
323.307	0.13
323.518	0.15
323.729	0.08
323.94	0.1
324.151	0.07
324.362	0.12
324.573	0.12
324.784	0.1
324.995	0.15
325.206	0.11
325.417	0.11
325.628	0.1
325.838	0.11
326.049	0.06
326.26	0.14
326.471	0.1
326.682	0.15
326.892	0.12
327.103	0.06
327.314	0.07
327.525	0.16
327.735	0.09
327.946	0.09
328.157	0.08
328.368	0.14
328.578	0.13
328.789	0.12
328.999	0.09
329.21	0.11
329.421	0.13
329.631	0.1
329.842	0.03
330.052	0.07
330.263	0.13
330.473	0.16
330.684	0.08
330.894	0.07
331.105	0.15
331.315	0.09
331.526	0.07
331.736	0.19
331.947	0.13
332.157	0.14
332.367	0.07
332.578	0.11
332.788	0.13
332.999	0.12
333.209	0.11
333.419	0.04
333.629	0.1
333.84	0.16
334.05	0.11
334.26	0.19
334.47	0.13
334.681	0.18
334.891	0.06
335.101	0.16
335.311	0.2
335.521	0.09
335.732	0.05
335.942	0.18
336.152	0.17
336.362	0.11
336.572	0.11
336.782	0.15
336.992	0.09
337.202	0.08
337.412	0.05
337.622	0.14
337.832	0.12
338.042	0.11
338.252	0.11
338.462	0.1
338.672	0.09
338.882	0.12
339.092	0.11
339.302	0.19
339.511	0.15
339.721	0.06
339.931	0.02
340.141	0.16
340.351	0.15
340.561	0.1
340.77	0.13
340.98	0.13
341.19	0.15
341.4	0.06
341.609	0.08
341.819	0.11
342.029	0.06
342.238	0.12
342.448	0.1
342.658	0.12
342.867	0.15
343.077	0.14
343.286	0.12
343.496	0.1
343.706	0.23
343.915	0.09
344.125	0.09
344.334	0.13
344.544	0.05
344.753	0.11
344.963	0.07
345.172	0.09
345.381	0.12
345.591	0.08
345.8	0.12
346.01	0.19
346.219	0.16
346.428	-0.01
346.638	0.09
346.847	0.1
347.056	0.19
347.266	0.08
347.475	0.1
347.684	0.17
347.893	0.15
348.103	0.13
348.312	0.07
348.521	0.11
348.73	0.14
348.94	0.11
349.149	0.09
349.358	0.1
349.567	0.06
349.776	0.04
349.985	0.05
350.194	0.12
350.403	0.19
350.612	0.06
350.821	0.07
351.03	0.13
351.239	0.06
351.448	0.14
351.657	0.07
351.866	0.2
352.075	0.09
352.284	0.15
352.493	0.07
352.702	0.17
352.911	0.09
353.12	0.12
353.329	0.13
353.538	0.14
353.746	0.11
353.955	0.08
354.164	0.09
354.373	0.09
354.582	0.15
354.79	0.12
354.999	0.14
355.208	0.1
355.416	0.19
355.625	0.03
355.834	0.11
356.042	0.11
356.251	0.1
356.46	0.08
356.668	0.08
356.877	0.2
357.085	0.14
357.294	0.05
357.503	0.11
357.711	0.11
357.92	0.25
358.128	0.12
358.337	0.11
358.545	0.1
358.754	0.09
358.962	0.17
359.17	0.08
359.379	0.12
359.587	0.1
359.796	0.1
360.004	0.18
360.212	0.14
360.421	0.17
360.629	0.09
360.837	0.07
361.046	0.16
361.254	0.21
361.462	0.14
361.67	0.06
361.879	0.12
362.087	0.19
362.295	0.13
362.503	0.1
362.711	0.07
362.92	0.13
363.128	0.07
363.336	0.09
363.544	0.03
363.752	0.09
363.96	0.11
364.168	0.08
364.376	0.08
364.584	0.15
364.792	0.14
365	0.14
365.208	0.11
365.416	0.12
365.624	0.14
365.832	0.06
366.04	0.17
366.248	0.11
366.456	0.11
366.664	0.12
366.872	0.12
367.079	0.11
367.287	0.12
367.495	0.09
367.703	0.09
367.911	0.07
368.118	0.08
368.326	0.11
368.534	0.06
368.742	0.16
368.949	0.07
369.157	0.09
369.365	0.13
369.572	0.11
369.78	0.08
369.988	0.15
370.195	0.09
370.403	0.19
370.61	0.07
370.818	0.1
371.026	0.18
371.233	0.04
371.441	0.14
371.648	0.07
371.856	0.11
372.063	0.11
372.271	0.09
372.478	0.08
372.685	0.09
372.893	0.19
373.1	0.14
373.308	0.09
373.515	0.19
373.722	0.18
373.93	0.1
374.137	0.17
374.344	0.16
374.552	0.18
374.759	0.11
374.966	0.11
375.173	0.07
375.381	0.16
375.588	0.11
375.795	0.06
376.002	0.08
376.209	0.11
376.417	0.1
376.624	0.12
376.831	0.13
377.038	0.12
377.245	0
377.452	0.11
377.659	0.18
377.866	0.08
378.073	0.11
378.28	0.09
378.487	0.19
378.694	0.14
378.901	0.15
379.108	0.11
379.315	0.15
379.522	0.2
379.729	0.15
379.936	0.09
380.143	0.13
380.35	0.12
380.557	0.12
380.763	0.12
380.97	0.11
381.177	0.16
381.384	0.13
381.591	0.12
381.797	0.13
382.004	0.19
382.211	0.14
382.418	0.16
382.624	0.12
382.831	0.17
383.038	0.1
383.244	0.14
383.451	0.08
383.658	0.16
383.864	0.11
384.071	0.1
384.277	0.21
384.484	0.14
384.69	0.18
384.897	0.11
385.103	0.13
385.31	0.12
385.516	0.11
385.723	0.09
385.929	0.13
386.136	0.1
386.342	0.18
386.549	0.11
386.755	0.2
386.961	0.17
387.168	0.09
387.374	0.14
387.58	0.19
387.787	0.13
387.993	0.18
388.199	0.12
388.406	0.11
388.612	0.1
388.818	0.06
389.024	0.09
389.231	0.16
389.437	0.19
389.643	0.15
389.849	0.16
390.055	0.15
390.261	0.11
390.467	0.14
390.674	0.13
390.88	0.14
391.086	0.16
391.292	0.07
391.498	0.15
391.704	0.21
391.91	0.15
392.116	0.11
392.322	0.06
392.528	0.18
392.734	0.13
392.94	0.16
393.146	0.14
393.352	0.17
393.557	0.11
393.763	0.12
393.969	0.22
394.175	0.13
394.381	0.18
394.587	0.15
394.792	0.1
394.998	0.2
395.204	0.22
395.41	0.11
395.615	0.17
395.821	0.15
396.027	0.15
396.233	0.1
396.438	0.14
396.644	0.24
396.85	0.17
397.055	0.19
397.261	0.13
397.466	0.14
397.672	0.11
397.878	0.18
398.083	0.23
398.289	0.13
398.494	0.19
398.7	0.2
398.905	0.05
399.111	0.22
399.316	0.09
399.522	0.17
399.727	0.15
399.932	0.19
400.138	0.14
400.343	0.2
400.549	0.22
400.754	0.15
400.959	0.22
401.165	0.17
401.37	0.21
401.575	0.29
401.78	0.18
401.986	0.2
402.191	0.17
402.396	0.2
402.601	0.2
402.807	0.2
403.012	0.22
403.217	0.24
403.422	0.2
403.627	0.16
403.832	0.17
404.037	0.25
404.243	0.27
404.448	0.18
404.653	0.21
404.858	0.24
405.063	0.22
405.268	0.21
405.473	0.16
405.678	0.19
405.883	0.4
406.088	0.27
406.293	0.17
406.498	0.24
406.703	0.3
406.907	0.25
407.112	0.18
407.317	0.25
407.522	0.29
407.727	0.21
407.932	0.22
408.136	0.37
408.341	0.28
408.546	0.31
408.751	0.29
408.956	0.29
409.16	0.35
409.365	0.26
409.57	0.31
409.774	0.33
409.979	0.38
410.184	0.38
410.388	0.28
410.593	0.38
410.798	0.37
411.002	0.38
411.207	0.4
411.411	0.41
411.616	0.38
411.82	0.47
412.025	0.44
412.229	0.44
412.434	0.52
412.638	0.49
412.843	0.43
413.047	0.46
413.252	0.48
413.456	0.47
413.66	0.59
413.865	0.58
414.069	0.67
414.273	0.55
414.478	0.56
414.682	0.61
414.886	0.65
415.091	0.61
415.295	0.62
415.499	0.72
415.703	0.74
415.908	0.83
416.112	0.71
416.316	0.88
416.52	0.87
416.724	0.88
416.929	0.91
417.133	1.11
417.337	0.99
417.541	1.02
417.745	1.04
417.949	1.19
418.153	1.18
418.357	1.13
418.561	1.37
418.765	1.32
418.969	1.38
419.173	1.47
419.377	1.4
419.581	1.62
419.785	1.53
419.989	1.63
420.193	1.69
420.397	1.8
420.601	1.88
420.804	2
421.008	1.93
421.212	2.09
421.416	2.16
421.62	2.11
421.823	2.15
422.027	2.29
422.231	2.28
422.435	2.36
422.638	2.42
422.842	2.44
423.046	2.49
423.249	2.72
423.453	2.78
423.657	2.89
423.86	2.96
424.064	3.1
424.268	3.27
424.471	3.27
424.675	3.5
424.878	3.65
425.082	3.64
425.285	3.82
425.489	3.86
425.692	4.01
425.896	4.01
426.099	4.28
426.303	4.44
426.506	4.59
426.71	4.8
426.913	5.01
427.116	5.14
427.32	5.25
427.523	5.34
427.726	5.6
427.93	5.78
428.133	6.03
428.336	6.22
428.54	6.41
428.743	6.6
428.946	6.84
429.149	6.85
429.353	7.04
429.556	7.1
429.759	7.24
429.962	7.38
430.165	7.47
430.368	7.26
430.571	7.37
430.775	7.43
430.978	7.4
431.181	7.69
431.384	7.7
431.587	7.77
431.79	8.3
431.993	8.32
432.196	8.43
432.399	8.97
432.602	9.1
432.805	9.21
433.008	9.75
433.211	9.86
433.414	10.07
433.616	10.11
433.819	10.19
434.022	10.39
434.225	10.63
434.428	10.59
434.631	11.13
434.833	10.9
435.036	11.33
435.239	11.56
435.442	11.59
435.645	11.96
435.847	12.06
436.05	12.45
436.253	12.83
436.455	12.9
436.658	12.89
436.861	13.27
437.063	13.52
437.266	13.46
437.468	14.02
437.671	14.32
437.874	14.44
438.076	14.44
438.279	15.05
438.481	15.31
438.684	16.27
438.886	15.83
439.089	16.37
439.291	16.47
439.494	17.09
439.696	17.47
439.899	18.15
440.101	18.73
440.303	19.21
440.506	20.19
440.708	20.29
440.91	20.67
441.113	21.02
441.315	21.5
441.517	21.51
441.72	22.24
441.922	22.03
442.124	22.09
442.326	22.64
442.529	23.16
442.731	23.48
442.933	24.14
443.135	23.99
443.337	24.22
443.539	25.01
443.742	24.91
443.944	25.96
444.146	25.82
444.348	25.96
444.55	26.17
444.752	26.56
444.954	26.85
445.156	26.74
445.358	27.56
445.56	28.32
445.762	28
445.964	28.68
446.166	28.56
446.368	28.9
446.57	28.9
446.772	28.5
446.974	28.26
447.175	28.91
447.377	28.71
447.579	29.21
447.781	29.14
447.983	28.55
448.184	28.16
448.386	28.67
448.588	28.12
448.79	28.09
448.991	28.71
449.193	28.87
449.395	27.83
449.597	27.25
449.798	27.21
450	26.45
450.202	26.31
450.403	26.53
450.605	26.26
450.806	25.73
451.008	25.61
451.21	25.04
451.411	24.21
451.613	22.99
451.814	23.33
452.016	23.36
452.217	22.21
452.419	22.05
452.62	21.66
452.821	21.21
453.023	20.88
453.224	20.13
453.426	19.45
453.627	18.29
453.828	18.33
454.03	18.55
454.231	18.43
454.432	18.12
454.634	17.59
454.835	17.16
455.036	16.99
455.238	16.07
455.439	15.7
455.64	15.33
455.841	15.11
456.042	15.14
456.244	14.66
456.445	14.31
456.646	13.77
456.847	13.67
457.048	13.42
457.249	13.33
457.45	12.8
457.651	12.28
457.852	11.81
458.054	11.36
458.255	11.25
458.456	11.4
458.657	11.16
458.858	10.47
459.058	10.36
459.259	10.4
459.46	9.97
459.661	9.91
459.862	9.85
460.063	9.77
460.264	9.54
460.465	9.15
460.666	9.14
460.866	8.74
461.067	8.24
461.268	8.36
461.469	8.28
461.67	8.09
461.87	7.81
462.071	7.79
462.272	7.65
462.473	7.54
462.673	7.73
462.874	7.57
463.075	7.45
463.275	7.43
463.476	7.46
463.676	7.22
463.877	7.03
464.078	6.94
464.278	6.99
464.479	6.83
464.679	6.59
464.88	6.47
465.08	6.43
465.281	6.14
465.481	5.82
465.682	5.54
465.882	5.49
466.083	5.4
466.283	5.27
466.483	5.1
466.684	4.82
466.884	4.61
467.085	4.63
467.285	4.69
467.485	4.47
467.686	4.32
467.886	4.2
468.086	4.15
468.286	4.04
468.487	4.05
468.687	3.8
468.887	3.66
469.087	3.88
469.287	3.68
469.488	3.46
469.688	3.52
469.888	3.52
470.088	3.39
470.288	3.25
470.488	3.16
470.688	3.03
470.888	2.93
471.088	2.75
471.288	2.76
471.488	2.73
471.688	2.69
471.888	2.58
472.088	2.7
472.288	2.58
472.488	2.41
472.688	2.38
472.888	2.38
473.088	2.33
473.288	2.21
473.488	2.16
473.688	2.33
473.887	2.11
474.087	2.12
474.287	2.04
474.487	1.94
474.687	1.96
474.886	1.96
475.086	1.81
475.286	1.88
475.486	1.75
475.685	1.7
475.885	1.65
476.085	1.71
476.284	1.67
476.484	1.66
476.684	1.56
476.883	1.65
477.083	1.52
477.282	1.44
477.482	1.48
477.681	1.47
477.881	1.31
478.08	1.34
478.28	1.28
478.479	1.36
478.679	1.32
478.878	1.2
479.078	1.15
479.277	1.2
479.477	1.16
479.676	1.18
479.875	1.12
480.075	1.09
480.274	1.1
480.473	1.06
480.673	1.05
480.872	1.1
481.071	1.02
481.271	1.05
481.47	0.91
481.669	0.96
481.868	0.89
482.067	0.9
482.267	0.84
482.466	0.83
482.665	0.8
482.864	0.75
483.063	0.77
483.262	0.8
483.461	0.83
483.661	0.78
483.86	0.74
484.059	0.72
484.258	0.73
484.457	0.68
484.656	0.69
484.855	0.73
485.054	0.58
485.253	0.62
485.452	0.56
485.651	0.59
485.849	0.59
486.048	0.57
486.247	0.5
486.446	0.59
486.645	0.52
486.844	0.54
487.043	0.49
487.241	0.53
487.44	0.48
487.639	0.48
487.838	0.44
488.037	0.48
488.235	0.5
488.434	0.43
488.633	0.39
488.831	0.46
489.03	0.43
489.229	0.43
489.427	0.37
489.626	0.41
489.825	0.42
490.023	0.38
490.222	0.34
490.42	0.38
490.619	0.39
490.817	0.37
491.016	0.34
491.214	0.37
491.413	0.31
491.611	0.32
491.81	0.32
492.008	0.34
492.207	0.33
492.405	0.27
492.604	0.24
492.802	0.29
493	0.31
493.199	0.25
493.397	0.29
493.595	0.27
493.794	0.26
493.992	0.3
494.19	0.25
494.388	0.27
494.587	0.22
494.785	0.26
494.983	0.2
495.181	0.24
495.379	0.23
495.578	0.24
495.776	0.21
495.974	0.23
496.172	0.21
496.37	0.21
496.568	0.19
496.766	0.2
496.964	0.22
497.162	0.19
497.36	0.18
497.558	0.22
497.756	0.2
497.954	0.2
498.152	0.18
498.35	0.18
498.548	0.18
498.746	0.16
498.944	0.16
499.142	0.16
499.34	0.15
499.538	0.17
499.736	0.14
499.933	0.22
500.131	0.19
500.329	0.18
500.527	0.21
500.725	0.18
500.922	0.19
501.12	0.16
501.318	0.16
501.516	0.13
501.713	0.14
501.911	0.13
502.109	0.1
502.306	0.18
502.504	0.13
502.701	0.13
502.899	0.12
503.097	0.17
503.294	0.15
503.492	0.12
503.689	0.15
503.887	0.13
504.084	0.17
504.282	0.13
504.479	0.09
504.677	0.12
504.874	0.09
505.072	0.11
505.269	0.12
505.466	0.13
505.664	0.14
505.861	0.1
506.059	0.1
506.256	0.14
506.453	0.11
506.651	0.15
506.848	0.14
507.045	0.14
507.242	0.11
507.44	0.12
507.637	0.1
507.834	0.12
508.031	0.12
508.229	0.08
508.426	0.08
508.623	0.12
508.82	0.1
509.017	0.07
509.214	0.1
509.411	0.11
509.608	0.07
509.805	0.08
510.003	0.07
510.2	0.09
510.397	0.14
510.594	0.06
510.791	0.07
510.988	0.1
511.184	0.11
511.381	0.11
511.578	0.04
511.775	0.13
511.972	0.08
512.169	0.09
512.366	0.09
512.563	0.1
512.76	0.09
512.956	0.11
513.153	0.09
513.35	0.1
513.547	0.05
513.744	0.06
513.94	0.07
514.137	0.1
514.334	0.1
514.53	0.09
514.727	0.08
514.924	0.15
515.12	0.06
515.317	0.06
515.514	0.05
515.71	0.06
515.907	0.06
516.103	0.08
516.3	0.1
516.497	0.1
516.693	0.13
516.89	0.07
517.086	0.06
517.283	0.08
517.479	0.08
517.676	0.07
517.872	0.06
518.068	0.06
518.265	0.05
518.461	0.05
518.658	0.05
518.854	0.07
519.05	0.06
519.247	0.07
519.443	0.08
519.639	0.09
519.836	0.07
520.032	0.07
520.228	0.07
520.424	0.11
520.621	0.09
520.817	0.07
521.013	0.09
521.209	0.07
521.405	0.11
521.601	0.08
521.798	0.08
521.994	0.12
522.19	0.06
522.386	0.02
522.582	0.06
522.778	0.07
522.974	0.03
523.17	0.06
523.366	0.07
523.562	0.1
523.758	0.07
523.954	0.05
524.15	0.03
524.346	0.07
524.542	0.05
524.738	0.04
524.934	0.06
525.129	0.07
525.325	0.06
525.521	0.07
525.717	0.09
525.913	0.06
526.109	0.07
526.304	0.05
526.5	0.08
526.696	0.08
526.892	0.05
527.087	0.05
527.283	0.03
527.479	0.09
527.674	0.06
527.87	0.06
528.066	0.06
528.261	0.07
528.457	0.07
528.653	0.05
528.848	0.04
529.044	0.07
529.239	0.05
529.435	0.07
529.63	0.05
529.826	0.1
530.021	0.06
530.217	0.07
530.412	0.04
530.608	0.03
530.803	0.07
530.999	0.05
531.194	0.01
531.389	0.08
531.585	0
531.78	0.06
531.975	0.04
532.171	0.09
532.366	0.06
532.561	0.05
532.757	0.03
532.952	0.04
533.147	0.06
533.342	0.06
533.538	0.04
533.733	0.08
533.928	0.05
534.123	0.04
534.318	0.01
534.513	0.05
534.709	0.05
534.904	0.04
535.099	0.05
535.294	0.05
535.489	0.06
535.684	0.05
535.879	0.01
536.074	0.03
536.269	0.03
536.464	0.06
536.659	0.06
536.854	0.04
537.049	0.06
537.244	0.06
537.439	0.06
537.634	0.1
537.828	0.06
538.023	0.04
538.218	0
538.413	0.05
538.608	0.04
538.803	0.06
538.997	0
539.192	0.06
539.387	0.06
539.582	0.07
539.776	0.06
539.971	0.05
540.166	0.06
540.36	0.04
540.555	0.02
540.75	0.03
540.944	0.07
541.139	0.02
541.334	0.04
541.528	0.06
541.723	0.08
541.917	0.04
542.112	-0.01
542.306	0.04
542.501	0.04
542.695	0.05
542.89	0.03
543.084	0.05
543.279	0.04
543.473	0.03
543.668	0.04
543.862	0.05
544.056	0.09
544.251	0.05
544.445	0.04
544.64	0.04
544.834	0.04
545.028	0.04
545.222	0.04
545.417	0.07
545.611	0.07
545.805	0.04
546	0.05
546.194	0.03
546.388	0.03
546.582	0.05
546.776	0.04
546.97	0.05
547.165	0.07
547.359	0.07
547.553	0.02
547.747	0.03
547.941	0.08
548.135	0.04
548.329	0.06
548.523	0.06
548.717	0.05
548.911	0.04
549.105	0.06
549.299	0.05
549.493	0.06
549.687	0.05
549.881	0.05
550.075	0.04
550.269	0.02
550.463	0.06
550.657	0.04
550.85	0.03
551.044	0.01
551.238	0.05
551.432	0.01
551.626	0.03
551.82	0.05
552.013	0.03
552.207	0.07
552.401	0.05
552.594	0.05
552.788	0.03
552.982	0.03
553.176	0.03
553.369	0.07
553.563	0.05
553.756	0.02
553.95	0.01
554.144	0.05
554.337	0.06
554.531	0.05
554.724	0.05
554.918	0.03
555.111	0.08
555.305	0.04
555.498	0.1
555.692	0.07
555.885	0.04
556.079	0.05
556.272	0.03
556.466	0.06
556.659	0.04
556.852	0.03
557.046	0.04
557.239	0.06
557.432	0.01
557.626	0.02
557.819	0.06
558.012	0.06
558.206	0.07
558.399	0.06
558.592	0.05
558.785	0.01
558.979	0.06
559.172	0.04
559.365	0.04
559.558	0.06
559.751	0.03
559.944	0.04
560.138	0.01
560.331	0.04
560.524	0.02
560.717	0.04
560.91	0.03
561.103	0.06
561.296	0.05
561.489	0.05
561.682	0.06
561.875	0.07
562.068	0.05
562.261	0.05
562.454	0.07
562.647	0.06
562.84	0.05
563.032	0.02
563.225	0.04
563.418	0.04
563.611	0.03
563.804	0.03
563.997	0.02
564.19	-0.01
564.382	0.04
564.575	0.03
564.768	0.02
564.961	0.04
565.153	0.01
565.346	0.08
565.539	0.07
565.731	0.07
565.924	0.05
566.117	0.05
566.309	0.04
566.502	0.02
566.695	0.04
566.887	0.04
567.08	0
567.272	0.03
567.465	0.02
567.657	0.05
567.85	0.06
568.042	0.06
568.235	0.08
568.427	0.04
568.62	0.03
568.812	0.06
569.005	0.06
569.197	0.02
569.389	0.04
569.582	0.04
569.774	0.03
569.966	0
570.159	-0.01
570.351	0.04
570.543	0.03
570.736	0.06
570.928	0.02
571.12	0.03
571.312	0.01
571.505	0.02
571.697	0.06
571.889	-0
572.081	0.03
572.273	0.02
572.465	0.08
572.658	0.04
572.85	0.06
573.042	0.03
573.234	0.02
573.426	0.06
573.618	0
573.81	0.04
574.002	0.08
574.194	0.09
574.386	-0.01
574.578	-0.03
574.77	0.01
574.962	0.05
575.154	-0.01
575.346	0.03
575.538	0.06
575.729	0.02
575.921	0.04
576.113	0.02
576.305	0.06
576.497	0.03
576.689	0.03
576.88	0.01
577.072	0.05
577.264	0.03
577.456	0.03
577.647	-0.04
577.839	0.04
578.031	0.06
578.223	0
578.414	-0.01
578.606	0.06
578.798	0.02
578.989	0.01
579.181	0.03
579.372	0.02
579.564	0.01
579.755	0.04
579.947	0.05
580.139	0.06
580.33	-0.02
580.522	0.03
580.713	-0.03
580.905	0.04
581.096	0.05
581.287	0.02
581.479	0.03
581.67	0.04
581.862	0.04
582.053	0.01
582.244	-0
582.436	0.02
582.627	0.04
582.818	-0.01
583.01	0
583.201	0.06
583.392	0.06
583.583	0.05
583.775	0.03
583.966	0.02
584.157	0.04
584.348	0
584.54	0.01
584.731	0.04
584.922	0.03
585.113	0.02
585.304	0.04
585.495	0.08
585.686	0.05
585.877	0.07
586.068	0.03
586.259	0.02
586.45	0.05
586.641	0.01
586.832	-0.03
587.023	0.04
587.214	0.03
587.405	-0
587.596	0.03
587.787	0.07
587.978	0.03
588.169	-0.01
588.36	0.02
588.551	0.07
588.742	0.01
588.932	0.06
589.123	0.01
589.314	0.06
589.505	0.05
589.696	0.04
589.886	-0
590.077	-0.01
590.268	0.04
590.458	0.01
590.649	-0.02
590.84	0.05
591.03	0.01
591.221	-0.02
591.412	-0.01
591.602	0.08
591.793	0.08
591.984	-0
592.174	0.02
592.365	0.11
592.555	0.02
592.746	0.04
592.936	0.05
593.127	0.05
593.317	0.06
593.508	0.01
593.698	0.03
593.889	0.03
594.079	0.03
594.269	0.02
594.46	0.03
594.65	0.03
594.84	0.03
595.031	-0.01
595.221	0
595.411	0.01
595.602	0.07
595.792	0.02
595.982	-0.01
596.172	0.1
596.363	0.02
596.553	0.03
596.743	0.03
596.933	0.04
597.123	0.08
597.314	0.01
597.504	0.02
597.694	0.08
597.884	0.01
598.074	0.02
598.264	0
598.454	0.04
598.644	0.03
598.834	0.04
599.024	-0.03
599.214	0.04
599.404	0.06
599.594	0.02
599.784	-0
599.974	0.07
600.164	0.04
600.354	-0.01
600.544	-0
600.734	0.05
600.924	0.09
601.114	0
601.303	0.01
601.493	0.02
601.683	0.06
601.873	0.05
602.063	-0.04
602.252	0.07
602.442	-0
602.632	-0.01
602.821	-0.01
603.011	0.05
603.201	0
603.39	-0.01
603.58	-0.02
603.77	0.05
603.959	0.09
604.149	0.02
604.339	0.02
604.528	0.05
604.718	0.04
604.907	0.02
605.097	-0.02
605.286	-0.03
605.476	0.05
605.665	0.03
605.855	0.02
606.044	0.06
606.234	0.05
606.423	0.03
606.612	-0.02
606.802	0.02
606.991	0.03
607.181	0.05
607.37	0
607.559	0.03
607.749	-0.02
607.938	-0
608.127	0.02
608.316	0.03
608.506	0.08
608.695	0.01
608.884	0.01
609.073	0.05
609.263	0.04
609.452	0.04
609.641	0.04
609.83	-0
610.019	0.04
610.208	-0.02
610.397	0.04
610.586	0.04
610.775	0.02
610.965	0.01
611.154	0.01
611.343	-0
611.532	0.03
611.721	-0.01
611.91	0.01
612.099	0.09
612.287	0.03
612.476	-0
612.665	0.04
612.854	0.02
613.043	0.06
613.232	-0
613.421	-0.02
613.61	0.04
613.798	0.02
613.987	0.08
614.176	0.06
614.365	0.05
614.554	0.03
614.742	0.05
614.931	0.01
615.12	0.07
615.309	0.02
615.497	0.06
615.686	0.03
615.875	-0.01
616.063	0.07
616.252	0.02
616.44	-0
616.629	0.06
616.818	0.04
617.006	0
617.195	-0.01
617.383	0.08
617.572	0.04
617.76	0.02
617.949	0
618.137	0.05
618.326	0.11
618.514	-0.01
618.703	0
618.891	0.06
619.079	-0.02
619.268	0.06
619.456	-0.01
619.644	0.08
619.833	0
620.021	0
620.209	-0.04
620.398	0.03
620.586	0.01
620.774	0.04
620.962	0.01
621.151	0.08
621.339	0.01
621.527	0.01
621.715	-0.03
621.903	0.01
622.092	-0.01
622.28	0.06
622.468	0.01
622.656	0.05
622.844	0.05
623.032	0.03
623.22	-0.04
623.408	0.03
623.596	0.03
623.784	0.07
623.972	-0
624.16	0.03
624.348	0.1
624.536	0.02
624.724	0.02
624.912	0.07
625.1	0.07
625.288	0
625.476	0.01
625.664	0.05
625.851	0.02
626.039	0.03
626.227	0.01
626.415	0.02
626.603	-0.04
626.79	0.04
626.978	0.01
627.166	0.04
627.354	0.05
627.541	-0
627.729	-0.01
627.917	0.08
628.104	0.06
628.292	0.04
628.48	0.01
628.667	0.02
628.855	0.04
629.042	0.04
629.23	0.04
629.418	0.03
629.605	0.01
629.793	0.02
629.98	0.01
630.168	0.05
630.355	0.02
630.543	0
630.73	0
630.917	0.04
631.105	0.07
631.292	0.01
631.48	0.01
631.667	0.09
631.854	0.06
632.042	0.01
632.229	-0.03
632.416	0.04
632.604	0.03
632.791	-0
632.978	0.03
633.165	0.06
633.353	0.07
633.54	0.05
633.727	-0.03
633.914	0.02
634.101	-0.03
634.289	0.07
634.476	-0.03
634.663	-0.02
634.85	0.03
635.037	-0.01
635.224	-0.06
635.411	0.03
635.598	0.06
635.785	0
635.972	0.05
636.159	0.04
636.346	-0.02
636.533	0.02
636.72	0.03
636.907	-0
637.094	0.04
637.281	0.02
637.468	0.03
637.655	0.01
637.842	0.03
638.029	0
638.215	0.08
638.402	0.04
638.589	-0.02
638.776	0.02
638.963	-0.05
639.149	0.1
639.336	0.08
639.523	-0
639.709	0.01
639.896	0.02
640.083	0.06
640.27	0.03
640.456	0.03
640.643	0.05
640.829	0.02
641.016	0.03
641.203	-0.02
641.389	0.04
641.576	0.09
641.762	0.04
641.949	-0.01
642.135	0.04
642.322	0.04
642.508	-0.01
642.695	0.01
642.881	-0.01
643.068	-0
643.254	0.02
643.441	0.07
643.627	0.01
643.813	-0.01
644	0.05
644.186	-0.01
644.372	0.02
644.559	0.03
644.745	-0.01
644.931	-0.01
645.118	0.02
645.304	0.03
645.49	-0.01
645.676	0.01
645.862	0.02
646.049	0.09
646.235	0.02
646.421	0.09
646.607	0.11
646.793	0
646.979	-0.02
647.165	0.04
647.352	0.03
647.538	0.06
647.724	0.04
647.91	0.04
648.096	0.06
648.282	0.07
648.468	0.02
648.654	0.04
648.84	0.03
649.026	0.04
649.212	-0.01
649.397	0
649.583	-0.03
649.769	0.07
649.955	0.02
650.141	0.04
650.327	0.1
650.513	-0.03
650.698	0.06
650.884	-0.03
651.07	0.03
651.256	0
651.442	0.02
651.627	0
651.813	0.04
651.999	0.02
652.184	0.04
652.37	0.01
652.556	0
652.741	0.1
652.927	-0.04
653.113	0.04
653.298	0.06
653.484	-0
653.669	-0.03
653.855	0.01
654.04	0.07
654.226	0.04
654.412	-0.01
654.597	-0.04
654.782	0.03
654.968	0.09
655.153	0.02
655.339	-0.02
655.524	0.01
655.71	0.06
655.895	0.01
656.08	-0.01
656.266	0.09
656.451	0.06
656.636	-0.02
656.822	0.05
657.007	-0.02
657.192	0.02
657.378	-0.02
657.563	0.04
657.748	0.02
657.933	0.02
658.118	0.02
658.304	0.03
658.489	0.04
658.674	0.05
658.859	-0
659.044	0.05
659.229	0.06
659.414	-0.01
659.599	0.01
659.785	-0.03
659.97	0.01
660.155	0.05
660.34	-0
660.525	0.01
660.71	0.03
660.895	0.02
661.08	0.01
661.264	-0.01
661.449	0.06
661.634	0.06
661.819	0.02
662.004	0.05
662.189	-0.03
662.374	-0.01
662.559	-0.03
662.743	-0.05
662.928	0.02
663.113	0.01
663.298	-0.05
663.483	0.01
663.667	0.02
663.852	-0.02
664.037	0.06
664.221	-0.01
664.406	0.04
664.591	0.03
664.775	0.04
664.96	0.05
665.145	0.03
665.329	0.04
665.514	0
665.698	0.03
665.883	-0.01
666.068	0.09
666.252	0.04
666.437	-0.02
666.621	0.04
666.806	0.04
666.99	0.03
667.174	-0.03
667.359	0.08
667.543	0.01
667.728	-0.04
667.912	-0.03
668.096	0.06
668.281	0.02
668.465	0
668.649	0
668.834	-0.02
669.018	0.02
669.202	0.01
669.387	-0.02
669.571	0.07
669.755	-0.03
669.939	0
670.124	0.03
670.308	0.1
670.492	0.04
670.676	0.01
670.86	0.01
671.044	-0.03
671.228	0.02
671.413	-0.02
671.597	0.03
671.781	-0.01
671.965	0.08
672.149	-0.01
672.333	0.04
672.517	0.03
672.701	0.11
672.885	0.01
673.069	-0.07
673.253	0.07
673.437	-0.01
673.621	-0.06
673.804	-0
673.988	0.02
674.172	0.02
674.356	-0.01
674.54	0.03
674.724	0.1
674.908	-0.02
675.091	0.05
675.275	-0
675.459	0.04
675.643	0.11
675.826	0.05
676.01	0.01
676.194	0.01
676.377	0.04
676.561	0.04
676.745	0
676.928	0.04
677.112	0.1
677.296	0.02
677.479	0.01
677.663	-0
677.846	0.05
678.03	0.03
678.213	0
678.397	0.05
678.58	0.03
678.764	0.01
678.947	-0.03
679.131	0.04
679.314	0.04
679.498	0.04
679.681	0.04
679.865	0.05
680.048	0.01
680.231	0.03
680.415	-0.02
680.598	0.01
680.781	-0.02
680.965	-0.04
681.148	0.03
681.331	0
681.514	0.06
681.698	-0.05
681.881	0.03
682.064	0.03
682.247	0.04
682.43	-0.03
682.614	0.04
682.797	0.05
682.98	0.11
683.163	-0
683.346	0.05
683.529	-0.01
683.712	-0.03
683.895	0.05
684.078	-0.07
684.261	0.02
684.444	0.01
684.627	0.05
684.81	0.04
684.993	0.02
685.176	0.07
685.359	0.02
685.542	-0.04
685.725	0.06
685.908	0.02
686.091	0
686.274	0.06
686.457	0.02
686.639	0.07
686.822	0.06
687.005	0.07
687.188	0.07
687.371	0.08
687.553	0.03
687.736	0.04
687.919	0.12
688.102	0.13
688.284	0
688.467	0.07
688.65	0.05
688.832	0.01
689.015	0.05
689.197	-0.04
689.38	0.15
689.563	0.08
689.745	-0
689.928	0.01
690.11	0.01
690.293	0.09
690.475	-0.07
690.658	0.07
690.84	0.06
691.023	-0.02
691.205	0.04
691.388	0.01
691.57	0.08
691.752	0.08
691.935	-0.06
692.117	0.01
692.3	0.04
692.482	0.01
692.664	0.05
692.847	0.05
693.029	0.1
693.211	0.07
693.393	0.01
693.576	0.03
693.758	-0.04
693.94	0.05
694.122	0
694.304	-0.01
694.487	0.01
694.669	0.11
694.851	-0.06
695.033	0.01
695.215	-0.02
695.397	0.01
695.579	0.1
695.761	-0.03
695.943	-0.05
696.125	0.08
696.308	0.08
696.49	-0.06
696.671	0.16
696.853	-0.04
697.035	0.15
697.217	0.1
697.399	0.09
697.581	-0.02
697.763	0.05
697.945	-0.01
698.127	0.03
698.309	0.07
698.491	0.04
698.672	0.14
698.854	0.1
699.036	0.11
699.218	-0.03
699.399	0.07
699.581	0.02
699.763	0.04
699.945	-0.02
700.126	0.01
700.308	-0.04
700.49	0
700.671	-0.01
700.853	-0.01
701.035	-0.02
701.216	0.03
701.398	-0.04
701.579	0
701.761	0.08
701.943	0.03
702.124	-0.04
702.306	-0.05
702.487	0.12
702.669	0.04
702.85	-0.01
703.031	-0.03
703.213	0.13
703.394	0.07
703.576	0.01
703.757	0.02
703.938	0.06
704.12	0.2
704.301	0.03
704.483	-0.02
704.664	0.02
704.845	0.1
705.026	0.04
705.208	0.02
705.389	0.05
705.57	0.04
705.751	0
705.933	0.02
706.114	0.13
706.295	-0
706.476	-0.04
706.657	0.13
706.838	0.07
707.02	0.06
707.201	0.03
707.382	-0.01
707.563	0.14
707.744	-0
707.925	-0.03
708.106	-0.01
708.287	0.08
708.468	0.11
708.649	-0.01
708.83	0.04
709.011	0.01
709.192	0.07
709.373	-0.01
709.554	0.01
709.734	0.1
709.915	0.06
710.096	0.06
710.277	-0.1
710.458	-0.01
710.639	0.05
710.819	-0.06
711	0.03
711.181	0.13
711.362	0.11
711.542	0.05
711.723	0.03
711.904	0.1
712.085	0.1
712.265	0.07
712.446	-0.03
712.627	0.01
712.807	-0
712.988	0.01
713.168	-0.04
713.349	0.07
713.53	-0.08
713.71	-0.03
713.891	0
714.071	-0.03
714.252	0.03
714.432	-0.07
714.613	-0.11
714.793	0.02
714.974	0.1
715.154	0.08
715.334	0.09
715.515	0.11
715.695	-0.01
715.876	0.04
716.056	-0
716.236	-0.02
716.417	0.03
716.597	-0.07
716.777	0.15
716.957	0.06
717.138	0.05
717.318	0.07
717.498	-0.05
717.678	0.03
717.859	0.09
718.039	0.02
718.219	0.01
718.399	0.08
718.579	-0.03
718.759	0.04
718.939	0.05
719.12	0.05
719.3	0.06
719.48	-0.11
719.66	-0.02
719.84	0.17
720.02	-0.01
720.2	-0.02
720.38	0.08
720.56	0.17
720.74	0.01
720.92	0.06
721.1	0.09
721.279	0.17
721.459	0.04
721.639	-0.07
721.819	0.07
721.999	-0.04
722.179	0.1
722.359	-0.02
722.538	0.03
722.718	0.08
722.898	0.03
723.078	0.02
723.257	-0.05
723.437	-0
723.617	0.07
723.797	0.04
723.976	0.08
724.156	0.16
724.336	0.13
724.515	0.18
724.695	-0.13
724.874	0.01
725.054	0.13
725.234	0.03
725.413	0.09
725.593	0.07
725.772	0.01
725.952	-0.03
726.131	0
726.311	0.07
726.49	0.05
726.67	0
726.849	-0.02
727.028	-0
727.208	-0.02
727.387	0.06
727.567	-0.07
727.746	0.02
727.925	-0.07
728.105	-0.06
728.284	-0.02
728.463	-0
728.643	0.03
728.822	-0.12
729.001	0.02
729.18	0.1
729.359	0.1
729.539	0.04
729.718	0.03
729.897	0.11
730.076	0.01
730.255	-0.07
730.434	0.08
730.614	0.11
730.793	0.11
730.972	0.09
731.151	0.07
731.33	0.09
731.509	0.18
731.688	-0
731.867	0.05
732.046	-0.13
732.225	0.23
732.404	-0.03
732.583	-0.04
732.762	0.06
732.941	0.12
733.12	0.07
733.298	0.02
733.477	0.18
733.656	0.01
733.835	-0.09
734.014	0.1
734.193	0.08
734.371	0.2
734.55	0.16
734.729	-0.05
734.908	0.14
735.086	0.05
735.265	0.22
735.444	-0.15
735.623	0.02
735.801	0.07
735.98	-0.03
736.159	0.08
736.337	0.09
736.516	0.1
736.694	0.04
736.873	-0.05
737.052	0.1
737.23	0.2
737.409	-0.04
737.587	0.28
737.766	-0.11
737.944	0.02
738.123	0.15
738.301	0.14
738.479	0.14
738.658	0.09
738.836	-0.11
739.015	0.18
739.193	0.17
739.371	-0.05
739.55	0.03
739.728	-0.08
739.906	0.15
740.085	0.15
740.263	0.04
740.441	-0.18
740.62	0.15
740.798	0.14
740.976	-0.05
741.154	-0.14
741.332	0.23
741.511	0.01
741.689	0.18
741.867	0.12
742.045	0.01
742.223	0.13
742.401	-0.04
742.579	0.05
742.757	0.15
742.935	-0.02
743.114	-0.1
743.292	0.06
743.47	0.05
743.648	0.07
743.826	0.04
744.004	0.1
744.181	0.14
744.359	-0.06
744.537	0.24
744.715	0
744.893	-0.01
745.071	-0.02
745.249	0.11
745.427	0.08
745.605	-0.01
745.782	0.08
745.96	0.03
746.138	0.1
746.316	0.08
746.493	0.07
746.671	0.07
746.849	0.07
747.027	0.15
747.204	-0.07
747.382	0.04
747.56	-0.02
747.737	0.01
747.915	-0.02
748.093	0.08
748.27	-0.04
748.448	0.1
748.625	-0.06
748.803	-0.02
748.98	-0.1
749.158	0.16
749.335	0.18
749.513	0.1
749.69	0.08
749.868	-0.03
750.045	0.09
750.223	-0
750.4	-0.16
750.578	0.3
750.755	-0
750.932	-0.09
751.11	0.1
751.287	-0.11
751.464	0.26
751.642	-0.1
751.819	0.16
751.996	0.07
752.173	0.13
752.351	-0.04
752.528	-0
752.705	0.02
752.882	0.04
753.06	-0.01
753.237	0.14
753.414	0.23
753.591	0.19
753.768	0.02
753.945	0.04
754.122	0.08
754.299	0.05
754.476	0.08
754.654	0.11
754.831	0.1
755.008	0.06
755.185	-0.09
755.362	-0.11
755.539	0.13
755.716	0.02
755.892	-0.03
756.069	0.04
756.246	-0.04
756.423	-0.08
756.6	0.18
756.777	0.02
756.954	0.14
757.131	-0.06
757.307	-0.13
757.484	-0.08
757.661	0.08
757.838	0.03
758.015	-0.11
758.191	0.03
758.368	0.06
758.545	0.19
758.721	0.08
758.898	-0.08
759.075	0.1
759.251	0.12
759.428	0.07
759.605	-0.11
759.781	-0.04
759.958	0.04
760.134	0.19
760.311	-0.05
760.488	0.2
760.664	0.28
760.841	0.08
761.017	0
761.194	0.1
761.37	0.07
761.547	0.04
761.723	0.03
761.899	0.27
762.076	-0.1
762.252	-0.1
762.429	-0.01
762.605	0.05
762.781	0.12
762.958	0.22
763.134	-0.09
763.31	-0.01
763.486	0.24
763.663	-0.12
763.839	0.13
764.015	-0.09
764.191	-0.04
764.368	-0.01
764.544	-0.01
764.72	0.14
764.896	0.07
765.072	0.08
765.248	0.02
765.425	-0.02
765.601	0.1
765.777	0.19
765.953	-0.1
766.129	-0.02
766.305	-0.06
766.481	0.06
766.657	0.08
766.833	0.24
767.009	-0.07
767.185	-0.05
767.361	-0.02
767.537	-0.15
767.713	0.13
767.889	-0.02
768.065	0.15
768.24	-0.18
768.416	0.03
768.592	0.17
768.768	0.08
768.944	0.12
769.12	0
769.295	0.19
769.471	0.1
769.647	-0.04
769.823	0.24
769.998	-0.04
770.174	0.05
770.35	0.37
770.525	0.43
770.701	0.13
770.877	0.03
771.052	0.05
771.228	0.13
771.403	0.06
771.579	0.19
771.755	0.36
771.93	-0.05
772.106	-0.1
772.281	-0.05
772.457	-0.01
772.632	0.06
772.808	-0.1
772.983	0.06
773.159	-0.23
773.334	0.22
773.509	0.07
773.685	0.01
773.86	0.39
774.036	0.23
774.211	0.04
774.386	-0.07
774.562	0.02
774.737	0.01
774.912	0.07
775.087	0.17
775.263	0.04
775.438	0.17
775.613	0.09
775.788	-0.06
775.964	0.08
776.139	0.33
776.314	-0.04
776.489	0.18
776.664	0.17
776.839	-0.01
777.014	0.2
777.19	0.23
777.365	0.24
777.54	0.26
777.715	-0.09
777.89	0.05
778.065	0.02
778.24	0.09
778.415	0.18
778.59	-0.12
778.765	0.1
778.94	0.08
779.115	-0.11
779.289	0.02
779.464	0.14
779.639	0.17
779.814	-0.14
779.989	-0.14
780.164	0.23
780.339	0.06
780.513	-0.12
780.688	-0.23
780.863	0.11
781.038	0.22
781.212	-0.12
781.387	-0.04
781.562	0.26
781.737	0.03
781.911	0.22
782.086	-0
782.261	0.14
782.435	0.41
782.61	0.02
782.784	0.07
782.959	0.11
783.134	-0.03
783.308	-0.05
783.483	0.05
783.657	0.5
783.832	0.14
784.006	-0.26
784.181	0.03
784.355	0.21
784.53	-0.19
784.704	-0.1
784.878	0.28
785.053	0.12
785.227	0.3
785.402	0.43
785.576	-0.15
785.75	0.05
785.925	0.02
786.099	-0.01
786.273	-0.02
786.448	-0.02
786.622	0.17
786.796	0.18
786.97	-0.26
787.145	0.51
787.319	-0.14
787.493	-0.04
787.667	-0.23
787.841	0.08
788.015	0.32
788.19	-0.26
788.364	0.13
788.538	0.23
788.712	0.25
788.886	-0.1
789.06	0.34
789.234	0.27
789.408	-0.12
789.582	0.03
789.756	0.09
789.93	0
790.104	0.01
790.278	-0.07
790.452	-0.01
790.626	0.33
790.8	0.05
790.973	0.25
791.147	0.41
791.321	0.46
791.495	0.44
791.669	0.14
791.843	0.19
792.016	0.13
792.19	0.39
792.364	-0.11
792.538	0.45
792.711	0.22
792.885	0.09
793.059	-0.08
793.233	-0.11
793.406	0.28
793.58	0.25
793.754	0.25
793.927	-0.1
794.101	0.08
794.274	-0.01
794.448	0.31
794.622	-0.15
794.795	0.32
794.969	-0.12
795.142	0.47
795.316	-0.06
795.489	0.08
795.663	0.39
795.836	0.09
796.009	-0.22
796.183	0.35
796.356	0.16
796.53	0.04
796.703	-0.01
796.876	0.6
797.05	0.07
797.223	-0.05
797.396	0.17
797.57	-0.02
797.743	0.47
797.916	0.14
798.09	-0.24
798.263	0.21
798.436	0.26
798.609	-0.01
798.782	-0.09
798.956	-0.09
799.129	0
799.302	-0.14
799.475	-0.21
799.648	-0.22
799.821	-0.32
799.994	-0.07
800.167	-0.27
800.34	-0.15
800.514	0.07
800.687	-0.12
800.86	-0.13
801.033	0.16
801.206	0.16
801.379	-0.17
801.551	0.45
801.724	0.37
801.897	0.49
802.07	-0.16
802.243	-0.5
802.416	0.21
802.589	0.03
802.762	0.14
802.935	0.26
803.107	0.27
803.28	0.3
803.453	0.16
803.626	0.02
803.798	0
803.971	0.23
804.144	0.12
804.317	-0.06
804.489	0.26
804.662	0.03
804.835	0.21
805.007	-0.23
805.18	0.85
805.353	0.04
805.525	-0.38
805.698	-0
805.87	0.27
806.043	0.59
806.215	-0.21
806.388	-0.23
806.56	0.12
806.733	0.6
806.905	0.09
807.078	-0.37
807.25	-0.07
807.423	0.03
807.595	-0.08
807.768	-0.06
807.94	0.54
808.112	0.44
808.285	-0.11
808.457	-0.37
808.629	0.19
808.802	0.38
808.974	0.1
809.146	-0.38
809.318	0.05
809.491	-0.1
809.663	0.35
809.835	0.01
810.007	0.04
810.18	0.17
810.352	-0.35
810.524	-0.07
810.696	0.12
810.868	0.47
811.04	-0.11
811.212	-0.01
811.384	0.54
811.556	-0.14
811.728	-0.11
811.901	1.11
812.073	0.23
812.245	0.5
812.417	0.01
812.589	-0.74
812.76	0.04
812.932	0.27
813.104	0.33
813.276	0.01
813.448	0.73
813.62	0.11
813.792	0.36
813.964	0.2
814.136	0.59
814.307	0.26
814.479	0.07
814.651	0.13
814.823	0.8
814.995	0.39
815.166	0.4
815.338	-0.1
815.51	-0.5
815.681	0.68
815.853	0.08
816.025	0.08
816.196	0.37
816.368	0.41
816.54	0.06
816.711	-0.29
816.883	0.53
817.054	0.68
817.226	-0.64
817.398	0.34
817.569	0.43
817.741	0.18
817.912	-0.11
818.084	-0.04
818.255	0.54
818.426	-0.09
818.598	0.09
818.769	-0.27
818.941	0.13
819.112	0.76
819.283	-0.1
819.455	-0.15
819.626	-0.14
819.798	0.38
819.969	0.43
820.14	0.3
820.311	-0.11
820.483	0.12
820.654	0.25
820.825	-0.06
820.996	-0.22
821.168	-0.58
821.339	0.11
821.51	-0.32
821.681	-0.28
821.852	0.18
822.023	-0.77
822.195	-0.6
822.366	0.57
822.537	0.17
822.708	-0.05
822.879	-0.11
823.05	0.92
823.221	-0.27
823.392	0.51
823.563	0.5
823.734	0.18
823.905	0.27
824.076	-0.11
824.247	-0.45
824.418	-0.21
824.589	0.8
824.759	-0.3
824.93	-0.09
825.101	-0.21
825.272	0.87
825.443	0.58
825.614	0.46
825.784	-0.73
825.955	0.63
826.126	0.91
826.297	0.45
826.467	1.28
826.638	0.89
826.809	-0.4
826.98	0.28
827.15	0.39
827.321	0.13
827.492	1.02
827.662	0.02
827.833	1.17
828.003	0.62
828.174	-0.31
828.345	-0.33
828.515	1.02
828.686	0.17
828.856	-0.05
829.027	0.73
829.197	1.02
829.368	0.5
829.538	-0.06
829.709	-0.48
829.879	0.51
830.049	0.03
830.22	-0.46
830.39	0.53
830.56	0.58
830.731	-0.2
830.901	-0.46
831.072	-0.17
831.242	-0.02
831.412	0.57
831.582	0.3
831.753	-1.03
831.923	0.64
832.093	0.1
832.263	-0.27
832.434	-0.73
832.604	-0.47
832.774	0.5
832.944	0.07
833.114	-0.6
833.284	0.56
833.454	-0.43
833.624	-0.37
833.795	-0.36
833.965	0.7
834.135	0.72
834.305	-0.71
834.475	-0.96
834.645	-0.15
834.815	0.3
834.985	-0.28
835.155	-0.01
835.325	0.08
835.494	0.59
835.664	-0.08
835.834	-0.55
836.004	0.07
836.174	0.26
836.344	0.16
836.514	-1.16
836.684	0.4
836.853	0.54
837.023	0.26
837.193	-0.02
837.363	1.03
837.532	1.03
837.702	0.32
837.872	-0.42
838.041	1.25
838.211	1.88
838.381	-0.41
838.55	-0.37
838.72	2.1
838.89	1.71
839.059	-0.19
839.229	0.19
839.398	1.3
839.568	0.53
839.738	0.35
839.907	0.96
840.077	-0.22
840.246	-0.36
840.416	0.07
840.585	-1.49
840.755	1.9
840.924	1.05
841.093	-0.41
841.263	0.02
841.432	0.04
841.602	-0.19
841.771	-0.25
841.94	-0.14
842.11	2.24
842.279	1
842.448	-1.12
842.617	-0.51
842.787	1.18
842.956	-0.61
843.125	0.56
843.294	0.06
843.464	0.39
843.633	-0.05
843.802	-0.59
843.971	-0.22
844.14	0.72
844.309	0.37
844.479	-1.14
844.648	-0.41
844.817	0.18
844.986	0.28
845.155	-0.01
845.324	0.32
845.493	0.21
845.662	0.04
845.831	0.53
846	0.2
846.169	-0.38
846.338	1.5
846.507	0.66
846.676	0.57
846.844	-0.65
847.013	1.38
847.182	-0.23
847.351	-0.45
847.52	0.86
847.689	0.52
847.858	-0.32
848.026	0.19
848.195	0.01
848.364	-0.3
848.533	-0.17
848.701	-0.33
848.87	0.95
849.039	0.78
849.207	0.78
849.376	0.84
849.545	1.21
849.713	-0.66
849.882	-0.07
850.051	0.56
850.219	0.14
850.388	0.25
850.556	-0.61
850.725	-0.33
850.893	-0.53
851.062	0.29
851.23	0.57
851.399	-1.03
851.567	-0.79
851.736	-0.46
851.904	-0.14
852.073	0.02
852.241	1.13
852.41	-1.36
852.578	0.46
852.746	-1.32
852.915	-0.18
853.083	0.3
853.251	-0.83
853.42	-0.4
853.588	-0.56
853.756	0.85
853.924	0.17
854.093	-0.14
854.261	0.67
854.429	-0.79
854.597	0.67
854.765	-0.54
854.934	1.55
855.102	0.77
855.27	-0.78
855.438	1.81
855.606	1.96
855.774	1.05
855.942	-1.34
856.11	-1.68
856.278	0.41
856.446	2.19
856.614	0.18
856.782	-0.64
856.95	2.38
857.118	0.2
857.286	0.73
857.454	-0.49
857.622	1.29
857.79	1.18
857.958	-0.25
858.126	-0.07
858.294	-2.56
858.462	-0.02
858.629	-0.22
858.797	-0.55
858.965	0.06
859.133	0.04
859.301	-0.2
859.468	-0.01
859.636	-0.02
859.804	1.82
859.971	-0.06
860.139	-1.02
860.307	0.55
860.474	-0.14
860.642	0.08
860.81	-1.07
860.977	0.54
861.145	2.43
861.313	-0.26
861.48	0
861.648	1.54
861.815	0.87
861.983	-1.27
862.15	-1.13
862.318	2.08
862.485	-0.1
862.653	-1.93
862.82	-0.85
862.988	3.06
863.155	0.42
863.322	0.62
863.49	-1.59
863.657	0.13
863.824	1.03
863.992	0.2
864.159	0.97
864.326	1.46
864.494	0.29
864.661	2.33
864.828	-1.83
864.996	1.03
865.163	2.65
865.33	0.05
865.497	-2.18
865.664	-0.93
865.832	-1.14
865.999	0.47
866.166	-0.48
866.333	-0.5
866.5	0.33
866.667	-0.1
866.834	0.57
867.001	2.87
867.168	-1.8
867.335	0.73
867.502	-2.34
867.669	0.11
867.836	2.49
868.003	0.05
868.17	1.31
868.337	1.3
868.504	1.15
868.671	-2.25
868.838	-1.45
869.005	1.02
869.172	0.21
869.339	-0.25
869.505	-0.8
869.672	-0.72
869.839	2.22
870.006	0.82
870.173	-0.58
870.339	0.75
870.506	2.55
870.673	-2.26
870.84	1.5
871.006	1.4
871.173	0.12
871.34	0.37
871.506	-0.61
871.673	1.01
871.839	-1.34
872.006	1.18
872.173	-1.11
872.339	1.49
872.506	0.72
872.672	1.52
872.839	-1.71
873.005	1.9
873.172	4.81
873.338	2.21
873.505	-0.5
873.671	0.04
873.838	0.75
874.004	-2.02
874.171	-0.44
874.337	1.36
874.503	1.4
874.67	0.14
874.836	0.71
875.002	2.96
875.169	3.01
875.335	-0.69
875.501	-1.5
875.668	2.35
875.834	-0.08
876	0.09
876.166	1.26
876.332	2.41
876.499	2.03
876.665	-0.54
876.831	-0.14
876.997	4.95
877.163	1.71
877.329	0.24
877.495	0.83
877.662	0.11
877.828	1.6
877.994	1.15
878.16	-0.79
878.326	-1.27
878.492	1.06
878.658	0.1
878.824	0
878.99	0.9
879.156	0.15
879.322	2.82
879.487	-1.86
879.653	0.83
879.819	-0.7
879.985	-1.52
880.151	-0.97
880.317	-1.02
880.483	0.7
880.648	1.67
880.814	-3.8
880.98	0.57
881.146	-2.28
881.312	-1.08
881.477	-0.88
881.643	-1.05
881.809	1.81
881.974	3.41
882.14	-3.15
882.306	-1.41
882.471	3.62
882.637	-0.71
882.803	1.5
882.968	2.14
883.134	2.49
883.299	-0.5
883.465	0.75
883.63	3.19
883.796	2.56
883.961	0.87
884.127	1.79
884.292	-2.74
884.458	-1.99
884.623	-1.99
