Data from Apollo_Calib_20240827__AbsoluteIrradiance__491__07-20-02-041.txt Node

Date: Wed Aug 28 07:20:02 BST 2024
User: biology
Spectrometer: FLMT08252
Trigger mode: 0
Integration Time (sec): 5.000000E-1
Scans to average: 5
Electric dark correction enabled: true
Nonlinearity correction enabled: false
Boxcar width: 0
XAxis mode: Wavelengths
Number of Pixels in Spectrum: 3648
>>>>>Begin Spectral Data<<<<<
179.588	-0
179.809	-0
180.03	-0
180.251	-0
180.473	-0
180.694	0
180.915	0
181.136	-0
181.357	-0
181.578	0
181.799	-0
182.02	-0
182.241	-0
182.462	-0
182.683	0
182.904	-0
183.125	-0
183.346	0
183.567	0
183.788	-0
184.009	-0
184.23	0
184.451	-0
184.672	-0
184.892	-0
185.113	-0
185.334	0
185.555	-0
185.776	-0
185.996	0
186.217	0
186.438	0
186.659	-0
186.879	0
187.1	-0
187.321	0
187.541	-0
187.762	-0
187.983	0
188.203	-0
188.424	-0
188.644	-0
188.865	0
189.086	0
189.306	-0
189.527	0
189.747	-0
189.968	-0
190.188	-0
190.409	0
190.629	0
190.849	-0
191.07	-0
191.29	0
191.511	-0
191.731	-0
191.951	-0
192.172	0
192.392	-0
192.612	0
192.833	0
193.053	0
193.273	0
193.493	-0
193.714	-0
193.934	0
194.154	0
194.374	0
194.594	0
194.815	-0
195.035	0
195.255	0
195.475	-0
195.695	0
195.915	0
196.135	-0
196.355	0
196.575	0
196.795	0
197.015	-0
197.235	-0
197.455	-0
197.675	0
197.895	-0
198.115	-0
198.335	0
198.555	-0
198.775	-0
198.995	-0
199.214	0
199.434	-0
199.654	-0
199.874	0
200.094	-1.28
200.313	0.16
200.533	-0.12
200.753	-1.05
200.973	0.5
201.192	0.33
201.412	-0.79
201.632	-0.03
201.851	0.87
202.071	-0.16
202.291	-0.15
202.51	-0.73
202.73	0.5
202.95	-0.37
203.169	-0.31
203.389	0.06
203.608	0.07
203.828	-0.46
204.047	-0.23
204.267	0.08
204.486	0.62
204.706	0.07
204.925	0.16
205.145	0.13
205.364	0.54
205.583	0.86
205.803	-0.38
206.022	-0.38
206.242	-0.11
206.461	0.16
206.68	-0.16
206.9	0.15
207.119	0.41
207.338	0.27
207.557	-0.02
207.777	-0.19
207.996	-0.41
208.215	0.29
208.434	-0.44
208.654	-0.48
208.873	-0.11
209.092	0.48
209.311	0.11
209.53	-0.12
209.749	-0.16
209.968	0.05
210.187	0.01
210.407	-0.44
210.626	0.05
210.845	0.2
211.064	0.1
211.283	-0.25
211.502	0.24
211.721	0
211.94	-0.07
212.159	0.41
212.377	0.29
212.596	0.1
212.815	0.28
213.034	-0.01
213.253	0.25
213.472	0.01
213.691	-0.06
213.91	-0.39
214.128	-0.05
214.347	0.11
214.566	-0.56
214.785	-0.31
215.003	0.07
215.222	0.1
215.441	0.06
215.66	-0.46
215.878	-0.04
216.097	0.28
216.316	-0.3
216.534	-0.15
216.753	-0.03
216.972	-0.02
217.19	-0.12
217.409	-0.22
217.627	-0.25
217.846	-0.09
218.064	0.05
218.283	-0.07
218.501	0.39
218.72	-0.01
218.938	-0.16
219.157	0.02
219.375	0.07
219.594	0.21
219.812	-0.11
220.031	-0.16
220.249	0.18
220.467	0.24
220.686	-0.13
220.904	-0.2
221.122	-0.11
221.341	0.31
221.559	-0.11
221.777	-0.37
221.995	0.12
222.214	0.06
222.432	-0.31
222.65	0.11
222.868	0.04
223.086	-0.05
223.305	0.1
223.523	-0.09
223.741	0.32
223.959	-0.23
224.177	-0.26
224.395	-0.26
224.613	0.05
224.831	0.12
225.049	-0.1
225.267	-0.12
225.485	-0.08
225.703	0.17
225.921	-0.03
226.139	-0.08
226.357	0.12
226.575	0
226.793	-0.16
227.011	0.4
227.229	0.06
227.447	0.15
227.665	-0.12
227.883	-0.27
228.1	-0.11
228.318	0.01
228.536	-0.3
228.754	-0.17
228.972	0.16
229.189	0.03
229.407	-0.06
229.625	-0.09
229.843	0.08
230.06	0.03
230.278	-0.14
230.496	-0.03
230.713	0.01
230.931	0.13
231.149	-0.04
231.366	-0.27
231.584	-0.03
231.801	0.29
232.019	-0.01
232.236	-0.07
232.454	-0.11
232.671	0.15
232.889	0.15
233.106	-0.09
233.324	-0.08
233.541	-0.08
233.759	-0.01
233.976	-0.04
234.194	-0.1
234.411	0.02
234.628	-0.09
234.846	-0.08
235.063	-0.07
235.28	0.06
235.498	-0.03
235.715	-0.07
235.932	0.09
236.149	-0.01
236.367	-0.12
236.584	0
236.801	0.02
237.018	0.09
237.236	-0
237.453	-0.19
237.67	0.26
237.887	-0.04
238.104	-0.03
238.321	-0.02
238.538	-0.06
238.755	0.1
238.973	-0.18
239.19	-0.03
239.407	0.03
239.624	-0.05
239.841	-0.15
240.058	-0.16
240.275	0.03
240.492	-0.11
240.709	-0.07
240.925	-0
241.142	0.07
241.359	-0.14
241.576	-0.04
241.793	-0.03
242.01	-0.07
242.227	0.07
242.444	-0.01
242.66	0.04
242.877	0.01
243.094	-0.01
243.311	0.01
243.527	-0.09
243.744	0.01
243.961	0.11
244.178	-0.08
244.394	-0.04
244.611	0.1
244.828	0.17
245.044	-0.07
245.261	-0.01
245.477	0.04
245.694	0.09
245.911	-0.06
246.127	-0.03
246.344	0.05
246.56	0.16
246.777	-0.04
246.993	0
247.21	0.04
247.426	0.11
247.643	-0.04
247.859	-0.14
248.076	0
248.292	0.18
248.508	-0.07
248.725	0.07
248.941	0.03
249.157	0.13
249.374	-0
249.59	-0.06
249.806	0.01
250.023	0.04
250.239	-0.01
250.455	-0.09
250.671	0.05
250.888	0.05
251.104	0.04
251.32	-0.02
251.536	-0.1
251.752	-0.05
251.969	0.03
252.185	-0.02
252.401	0.18
252.617	0.02
252.833	-0.07
253.049	-0.02
253.265	-0.02
253.481	0.09
253.697	0.01
253.913	-0.07
254.129	-0.02
254.345	0.08
254.561	0.02
254.777	-0.03
254.993	0.06
255.209	0.05
255.425	-0.06
255.641	-0
255.857	0.08
256.073	0.04
256.288	-0.09
256.504	-0.06
256.72	0.08
256.936	0.15
257.152	-0.03
257.367	-0.06
257.583	-0.08
257.799	0.07
258.015	-0.06
258.23	-0.09
258.446	0.12
258.662	-0
258.877	-0.07
259.093	-0.04
259.309	-0.03
259.524	0.11
259.74	-0.05
259.955	-0.05
260.171	0.02
260.387	-0.06
260.602	0.12
260.818	0.07
261.033	-0.08
261.249	-0.04
261.464	-0.02
261.68	-0.06
261.895	0
262.11	0.1
262.326	-0.06
262.541	-0.02
262.757	0.05
262.972	0.04
263.187	-0.05
263.403	-0.02
263.618	-0.01
263.833	0.05
264.049	-0.06
264.264	0.02
264.479	0.07
264.694	0.1
264.91	-0.05
265.125	-0.05
265.34	0.08
265.555	0.19
265.77	-0.05
265.986	-0.02
266.201	0.04
266.416	0.05
266.631	-0.04
266.846	-0.01
267.061	-0.03
267.276	0.01
267.491	-0.12
267.706	0.01
267.921	0.11
268.136	0.03
268.351	0
268.566	-0.05
268.781	0.09
268.996	0.05
269.211	-0.02
269.426	-0.05
269.641	-0.06
269.856	0.03
270.071	-0.08
270.285	-0.1
270.5	0.05
270.715	0.07
270.93	-0.01
271.145	-0.02
271.359	0.05
271.574	-0.04
271.789	0.03
272.004	-0.03
272.218	-0.07
272.433	0.07
272.648	-0
272.862	0.07
273.077	-0.06
273.292	0.01
273.506	-0.03
273.721	-0.07
273.936	0.06
274.15	0.04
274.365	-0.02
274.579	0.01
274.794	0.02
275.008	0.08
275.223	-0.02
275.437	0.03
275.652	0.04
275.866	0.03
276.081	0
276.295	0.01
276.509	0.01
276.724	0.02
276.938	-0.01
277.153	0.02
277.367	0.03
277.581	-0.02
277.796	-0.04
278.01	-0.06
278.224	0.07
278.438	0.1
278.653	-0.1
278.867	0
279.081	-0.16
279.295	-0.05
279.51	-0.03
279.724	-0.08
279.938	0.02
280.152	0.04
280.366	0.03
280.58	0.03
280.794	0.06
281.008	0.01
281.222	0.05
281.437	0.13
281.651	0.03
281.865	0.01
282.079	-0.03
282.293	-0.14
282.507	-0.02
282.721	0.03
282.935	0.04
283.148	-0.12
283.362	-0.03
283.576	-0.03
283.79	-0.01
284.004	-0.12
284.218	0.05
284.432	-0.06
284.646	-0.04
284.859	-0.01
285.073	-0.02
285.287	0.01
285.501	-0
285.714	-0.01
285.928	0.03
286.142	0.03
286.356	-0.04
286.569	0.01
286.783	0.08
286.997	0
287.21	0.01
287.424	0.03
287.637	-0.03
287.851	-0.04
288.065	0.04
288.278	-0.01
288.492	-0
288.705	0.06
288.919	0.04
289.132	-0.05
289.346	0.03
289.559	-0.08
289.773	-0.07
289.986	-0.03
290.2	-0.01
290.413	0.08
290.626	-0.02
290.84	-0.03
291.053	0
291.267	0.07
291.48	0.01
291.693	-0
291.906	-0.03
292.12	-0.04
292.333	-0.05
292.546	-0.03
292.76	0.11
292.973	-0
293.186	0.05
293.399	-0.07
293.612	0.04
293.826	0.01
294.039	0.01
294.252	-0.03
294.465	0.06
294.678	0.03
294.891	0.02
295.104	-0.04
295.317	-0
295.53	0.05
295.743	0.01
295.956	-0.02
296.169	0.08
296.382	0.09
296.595	-0.02
296.808	-0.02
297.021	0.08
297.234	0.07
297.447	0
297.66	-0
297.873	0.05
298.086	0.03
298.299	-0.02
298.511	-0.04
298.724	0.02
298.937	-0.05
299.15	-0
299.363	0.01
299.575	0.04
299.788	0.02
300.001	0.02
300.213	-0.02
300.426	0.03
300.639	-0.02
300.852	-0.01
301.064	0.06
301.277	0.06
301.489	0.05
301.702	0.03
301.915	-0
302.127	-0.01
302.34	0.06
302.552	0.03
302.765	-0.04
302.977	0.03
303.19	0
303.402	-0.01
303.615	0
303.827	-0.08
304.04	0.02
304.252	0.03
304.464	0.02
304.677	0.13
304.889	0.07
305.102	-0.01
305.314	-0
305.526	-0
305.739	-0.03
305.951	0.03
306.163	-0.01
306.375	0.07
306.588	0.01
306.8	-0.02
307.012	-0.05
307.224	0.03
307.436	0.06
307.649	-0.07
307.861	0.02
308.073	0.02
308.285	0.03
308.497	-0.04
308.709	-0.03
308.921	0.02
309.133	0.06
309.346	0
309.558	-0
309.77	0.06
309.982	0.07
310.194	0.04
310.406	-0.01
310.617	0.07
310.829	0.05
311.041	0.03
311.253	-0.03
311.465	-0.03
311.677	0.02
311.889	0.01
312.101	-0.03
312.313	0.04
312.524	0.06
312.736	-0.06
312.948	0.01
313.16	0.08
313.372	0.01
313.583	0.01
313.795	-0.04
314.007	0
314.218	0.06
314.43	0.03
314.642	-0.01
314.853	-0.06
315.065	0.07
315.277	0.01
315.488	-0
315.7	0.05
315.912	0.03
316.123	-0.01
316.335	-0.01
316.546	0.11
316.758	0.03
316.969	-0.03
317.181	0.04
317.392	0.02
317.604	0.05
317.815	-0.02
318.026	-0.03
318.238	-0.05
318.449	0.01
318.661	-0.04
318.872	-0.03
319.083	-0.04
319.295	0.04
319.506	-0.03
319.717	0.03
319.929	-0.04
320.14	0.01
320.351	0.01
320.562	-0.01
320.774	-0.03
320.985	-0.01
321.196	-0.05
321.407	-0.06
321.618	0.05
321.829	-0.02
322.041	0.02
322.252	-0.01
322.463	-0.01
322.674	0.05
322.885	-0.03
323.096	-0.01
323.307	0.02
323.518	-0.03
323.729	-0.02
323.94	-0.04
324.151	-0.05
324.362	-0.02
324.573	0.07
324.784	-0.07
324.995	0.07
325.206	0.02
325.417	-0.04
325.628	-0.04
325.838	0.02
326.049	-0.03
326.26	0.01
326.471	0.01
326.682	-0.01
326.892	0.01
327.103	-0.03
327.314	-0.07
327.525	0.05
327.735	0.03
327.946	-0.01
328.157	-0.02
328.368	0.04
328.578	-0.02
328.789	0.08
328.999	-0.03
329.21	-0.02
329.421	0.01
329.631	-0.04
329.842	-0.01
330.052	-0.02
330.263	0.03
330.473	0.07
330.684	-0.01
330.894	-0.01
331.105	0.03
331.315	0.04
331.526	-0.04
331.736	0.06
331.947	0.04
332.157	-0.01
332.367	-0.06
332.578	0.07
332.788	0.03
332.999	0.02
333.209	0
333.419	-0.01
333.629	0.02
333.84	0.03
334.05	-0.01
334.26	0.03
334.47	0.06
334.681	0.06
334.891	-0.03
335.101	0.02
335.311	0.06
335.521	-0.01
335.732	-0.09
335.942	0.03
336.152	0.01
336.362	0
336.572	0.03
336.782	0.06
336.992	-0.04
337.202	-0.02
337.412	-0.02
337.622	0.04
337.832	-0
338.042	-0.02
338.252	-0.03
338.462	-0.04
338.672	0.01
338.882	-0
339.092	-0
339.302	0.06
339.511	0.04
339.721	-0.02
339.931	-0.01
340.141	0.06
340.351	0.06
340.561	0.02
340.77	0.01
340.98	-0.03
341.19	0.09
341.4	-0
341.609	-0.07
341.819	-0.01
342.029	-0.04
342.238	0.01
342.448	-0.01
342.658	0.04
342.867	0.02
343.077	0.03
343.286	0.02
343.496	0
343.706	0.03
343.915	-0.12
344.125	0.01
344.334	0.02
344.544	-0.05
344.753	0.03
344.963	-0.01
345.172	-0.02
345.381	0
345.591	-0.03
345.8	0.02
346.01	0.03
346.219	0.08
346.428	-0.1
346.638	0.03
346.847	-0.03
347.056	0.05
347.266	-0.04
347.475	0
347.684	-0.03
347.893	-0.01
348.103	0.02
348.312	-0.01
348.521	-0.02
348.73	0
348.94	0.05
349.149	0.02
349.358	-0.04
349.567	0.01
349.776	-0.03
349.985	-0.03
350.194	0.06
350.403	0.06
350.612	-0.02
350.821	-0.02
351.03	-0.02
351.239	-0.08
351.448	-0
351.657	-0.04
351.866	0.1
352.075	-0.02
352.284	0.05
352.493	-0.02
352.702	0.06
352.911	-0
353.12	0
353.329	-0.01
353.538	0.03
353.746	0.01
353.955	-0.03
354.164	0.01
354.373	-0.01
354.582	0.05
354.79	0.05
354.999	0
355.208	0.03
355.416	0.06
355.625	-0.05
355.834	-0.01
356.042	0.01
356.251	0.01
356.46	-0.08
356.668	0.03
356.877	0.07
357.085	0.06
357.294	-0.09
357.503	0.03
357.711	-0
357.92	0.09
358.128	-0.02
358.337	-0.02
358.545	0.02
358.754	-0
358.962	0.01
359.17	-0.02
359.379	0.02
359.587	0.02
359.796	0.01
360.004	0.03
360.212	-0
360.421	0.02
360.629	0.01
360.837	0.01
361.046	0.03
361.254	0.03
361.462	0.05
361.67	0.01
361.879	0.01
362.087	0.03
362.295	0.01
362.503	0
362.711	-0.01
362.92	-0.05
363.128	-0.02
363.336	-0.03
363.544	-0.05
363.752	-0
363.96	-0.03
364.168	-0.02
364.376	0.02
364.584	-0.03
364.792	0.06
365	0.02
365.208	0
365.416	0.01
365.624	0.04
365.832	-0.02
366.04	0.06
366.248	-0.01
366.456	0.01
366.664	-0
366.872	-0
367.079	0.02
367.287	0
367.495	0.03
367.703	0.02
367.911	-0.05
368.118	-0.02
368.326	-0.01
368.534	-0.01
368.742	0.05
368.949	-0.04
369.157	-0.01
369.365	0.03
369.572	-0.02
369.78	-0.02
369.988	0.02
370.195	0.04
370.403	0.04
370.61	-0.02
370.818	0.03
371.026	0.03
371.233	-0.01
371.441	-0.02
371.648	-0.02
371.856	0.03
372.063	0.06
372.271	-0.01
372.478	-0.04
372.685	-0.01
372.893	0.03
373.1	-0.04
373.308	-0.05
373.515	0.07
373.722	-0
373.93	-0.02
374.137	0.01
374.344	0.07
374.552	0.05
374.759	0.01
374.966	0.01
375.173	-0.06
375.381	0.05
375.588	0
375.795	-0.05
376.002	-0.03
376.209	-0.04
376.417	0.01
376.624	-0.03
376.831	0
377.038	-0.02
377.245	-0.03
377.452	0
377.659	0.02
377.866	0.04
378.073	-0
378.28	0.01
378.487	0.01
378.694	0.03
378.901	-0.01
379.108	0.01
379.315	0.04
379.522	0.11
379.729	0.02
379.936	0.01
380.143	0.03
380.35	0.01
380.557	0
380.763	0.03
380.97	0
381.177	0.01
381.384	0.03
381.591	-0.01
381.797	0.01
382.004	0.01
382.211	0.06
382.418	0.05
382.624	0.02
382.831	0.02
383.038	0
383.244	0.01
383.451	-0.01
383.658	0.03
383.864	-0.02
384.071	-0
384.277	0.07
384.484	-0.03
384.69	0.04
384.897	-0.01
385.103	-0.03
385.31	-0.06
385.516	-0.03
385.723	-0.01
385.929	-0.02
386.136	0.01
386.342	0.02
386.549	-0
386.755	0.06
386.961	0.04
387.168	-0.06
387.374	-0
387.58	0
387.787	0.02
387.993	-0.02
388.199	0.02
388.406	-0.02
388.612	-0
388.818	0
389.024	-0.05
389.231	0.03
389.437	0.07
389.643	0.04
389.849	-0.06
390.055	0.02
390.261	-0.02
390.467	-0.01
390.674	-0.04
390.88	-0
391.086	-0.01
391.292	-0.07
391.498	-0.01
391.704	0
391.91	-0.04
392.116	0.01
392.322	-0.09
392.528	-0.01
392.734	0.04
392.94	0.01
393.146	-0.03
393.352	-0.02
393.557	-0.02
393.763	0.02
393.969	0.05
394.175	-0
394.381	-0.05
394.587	-0.07
394.792	-0.03
394.998	0.05
395.204	0.11
395.41	-0.01
395.615	0.02
395.821	0.03
396.027	0.03
396.233	-0.04
396.438	0.01
396.644	0.08
396.85	0.03
397.055	0.02
397.261	0.01
397.466	0.1
397.672	0.01
397.878	0.03
398.083	0.01
398.289	-0.02
398.494	0.03
398.7	-0.01
398.905	-0.02
399.111	0.04
399.316	-0.06
399.522	-0
399.727	-0.03
399.932	-0.06
400.138	0.05
400.343	0.05
400.549	-0
400.754	-0.02
400.959	0.01
401.165	-0
401.37	0.03
401.575	0.04
401.78	-0.02
401.986	-0.03
402.191	-0.04
402.396	-0
402.601	0.01
402.807	0.01
403.012	0.02
403.217	0.02
403.422	0.04
403.627	0.05
403.832	-0.03
404.037	0.01
404.243	0.04
404.448	-0.01
404.653	0.05
404.858	-0
405.063	0.02
405.268	-0.02
405.473	-0.06
405.678	-0.03
405.883	0.16
406.088	0.02
406.293	-0.04
406.498	-0.04
406.703	0.01
406.907	0
407.112	-0.07
407.317	0
407.522	0
407.727	-0.03
407.932	0.01
408.136	0.07
408.341	-0.03
408.546	-0.01
408.751	-0.02
408.956	-0.02
409.16	0.06
409.365	-0.02
409.57	-0.02
409.774	-0.05
409.979	0.05
410.184	0
410.388	-0.01
410.593	0.04
410.798	0.02
411.002	-0.07
411.207	0.05
411.411	0.05
411.616	-0.05
411.82	-0.01
412.025	0.01
412.229	-0.05
412.434	0.04
412.638	-0
412.843	-0
413.047	0.02
413.252	-0.01
413.456	-0.01
413.66	0.07
413.865	-0.03
414.069	0.06
414.273	-0.03
414.478	-0.03
414.682	-0.02
414.886	-0.04
415.091	-0.04
415.295	-0.08
415.499	-0.03
415.703	-0.04
415.908	0.03
416.112	-0.08
416.316	0.03
416.52	-0.02
416.724	-0.09
416.929	-0.02
417.133	0.09
417.337	-0.05
417.541	-0.03
417.745	-0.04
417.949	0
418.153	0.01
418.357	-0.02
418.561	0.09
418.765	-0.01
418.969	0.08
419.173	0.02
419.377	-0.03
419.581	0.07
419.785	-0.04
419.989	-0.03
420.193	-0.01
420.397	-0.02
420.601	0.05
420.804	0.05
421.008	0
421.212	-0.01
421.416	0.04
421.62	-0.04
421.823	0.02
422.027	0.09
422.231	0.02
422.435	-0.01
422.638	0.04
422.842	0.03
423.046	-0.05
423.249	0.12
423.453	0.04
423.657	0.02
423.86	-0.01
424.064	-0.01
424.268	0.03
424.471	-0.01
424.675	0.11
424.878	0.08
425.082	-0
425.285	0.04
425.489	-0.03
425.692	0.03
425.896	-0
426.099	0.05
426.303	-0.07
426.506	-0.04
426.71	0.01
426.913	0.07
427.116	0.07
427.32	-0.01
427.523	0
427.726	0.05
427.93	-0.07
428.133	-0.01
428.336	-0.04
428.54	-0.02
428.743	0.05
428.946	0.09
429.149	0.01
429.353	-0
429.556	-0.01
429.759	-0.03
429.962	-0.04
430.165	-0.04
430.368	0.01
430.571	-0.03
430.775	-0.02
430.978	0
431.181	0.02
431.384	0.02
431.587	-0.02
431.79	0.01
431.993	-0.05
432.196	-0.01
432.399	-0.04
432.602	0.01
432.805	-0.01
433.008	-0.03
433.211	-0.08
433.414	0.04
433.616	-0.02
433.819	-0.03
434.022	-0.07
434.225	0.06
434.428	0.02
434.631	0.08
434.833	0.07
435.036	0
435.239	0.04
435.442	0.01
435.645	-0.02
435.847	0.02
436.05	0.04
436.253	-0.02
436.455	-0.07
436.658	-0.03
436.861	0.07
437.063	-0.05
437.266	-0.01
437.468	-0.01
437.671	0.12
437.874	-0.02
438.076	-0.09
438.279	-0.1
438.481	-0.03
438.684	-0.09
438.886	0.03
439.089	-0.08
439.291	-0.02
439.494	0.02
439.696	-0.05
439.899	-0.01
440.101	0.04
440.303	-0.08
440.506	0.04
440.708	-0.03
440.91	0.01
441.113	-0.05
441.315	0.05
441.517	-0.04
441.72	0.04
441.922	-0.01
442.124	-0.02
442.326	0.01
442.529	0.08
442.731	-0.02
442.933	0.05
443.135	-0.01
443.337	-0.03
443.539	-0.03
443.742	0.01
443.944	0.01
444.146	-0.03
444.348	-0.02
444.55	-0.01
444.752	0.01
444.954	-0.09
445.156	-0.01
445.358	-0
445.56	0.05
445.762	0
445.964	0.02
446.166	-0.05
446.368	-0
446.57	0.03
446.772	0.01
446.974	-0.04
447.175	0.04
447.377	-0.05
447.579	-0.09
447.781	-0.07
447.983	0.1
448.184	0.01
448.386	0.01
448.588	-0.13
448.79	0.01
448.991	-0
449.193	-0.03
449.395	-0.01
449.597	0.04
449.798	-0.04
450	-0.01
450.202	-0.01
450.403	-0.01
450.605	0.06
450.806	0
451.008	-0.1
451.21	-0.02
451.411	-0.01
451.613	0
451.814	0.01
452.016	0.04
452.217	0
452.419	0.05
452.62	-0.02
452.821	0.03
453.023	0.02
453.224	0.04
453.426	0
453.627	-0.01
453.828	0.06
454.03	-0.02
454.231	-0.02
454.432	-0.03
454.634	0.07
454.835	-0.04
455.036	-0.02
455.238	0.04
455.439	0.06
455.64	-0.08
455.841	-0.01
456.042	0.1
456.244	0.02
456.445	0
456.646	-0.09
456.847	-0.05
457.048	-0
457.249	0.05
457.45	0.19
457.651	-0.06
457.852	0.02
458.054	0.03
458.255	0.02
458.456	0.02
458.657	0.01
458.858	-0.05
459.058	0.01
459.259	0.06
459.46	-0.05
459.661	-0.04
459.862	0.06
460.063	-0.01
460.264	0.06
460.465	-0.02
460.666	0.06
460.866	-0.01
461.067	0.01
461.268	-0.04
461.469	-0.03
461.67	-0.02
461.87	-0
462.071	-0.04
462.272	-0.02
462.473	0.01
462.673	0.02
462.874	-0.03
463.075	0.03
463.275	-0.04
463.476	0.02
463.676	0
463.877	0.02
464.078	0.02
464.278	0.05
464.479	-0
464.679	0.03
464.88	-0.07
465.08	0.06
465.281	-0.02
465.481	-0.05
465.682	-0.01
465.882	-0
466.083	-0.02
466.283	0
466.483	-0.02
466.684	-0.03
466.884	-0.02
467.085	-0.05
467.285	0.02
467.485	-0.06
467.686	-0.03
467.886	-0.06
468.086	-0
468.286	0.01
468.487	0.02
468.687	-0.05
468.887	-0
469.087	0.05
469.287	0.02
469.488	-0.04
469.688	0.04
469.888	-0
470.088	0.01
470.288	0.05
470.488	0.08
470.688	-0.05
470.888	-0.02
471.088	-0.03
471.288	0.02
471.488	0.02
471.688	0
471.888	-0.03
472.088	0.04
472.288	0.07
472.488	-0.01
472.688	-0.03
472.888	0.01
473.088	-0.01
473.288	-0.01
473.488	0.03
473.688	0.06
473.887	-0.02
474.087	-0.02
474.287	0.01
474.487	-0.02
474.687	0.03
474.886	-0.02
475.086	-0.01
475.286	0.01
475.486	-0.01
475.685	0.01
475.885	-0.03
476.085	-0.01
476.284	0.02
476.484	-0.02
476.684	0.03
476.883	0.03
477.083	0
477.282	-0.01
477.482	0.03
477.681	0.04
477.881	0.02
478.08	-0.06
478.28	-0.04
478.479	0.01
478.679	0.07
478.878	0
479.078	-0.03
479.277	-0
479.477	-0.03
479.676	0.06
479.875	-0.01
480.075	-0.06
480.274	0.02
480.473	0.02
480.673	-0.04
480.872	0.05
481.071	0
481.271	0.03
481.47	-0.02
481.669	-0.01
481.868	-0
482.067	-0.02
482.267	-0.02
482.466	0.02
482.665	-0.02
482.864	-0.07
483.063	-0.02
483.262	-0
483.461	0.04
483.661	0.03
483.86	0.01
484.059	0
484.258	0
484.457	-0.02
484.656	0.01
484.855	0.03
485.054	-0.02
485.253	-0.01
485.452	-0.04
485.651	0.01
485.849	-0.02
486.048	-0.02
486.247	-0.01
486.446	0.01
486.645	-0.02
486.844	-0.03
487.043	-0.01
487.241	0.01
487.44	-0.01
487.639	-0.02
487.838	-0.01
488.037	0.02
488.235	0.06
488.434	-0
488.633	-0.03
488.831	0.01
489.03	0.03
489.229	-0.01
489.427	-0.02
489.626	0.03
489.825	0.03
490.023	-0.02
490.222	-0.02
490.42	0.01
490.619	0.03
490.817	0.01
491.016	-0.03
491.214	0.02
491.413	-0.02
491.611	0.01
491.81	0.01
492.008	0.03
492.207	-0.01
492.405	0.01
492.604	-0.04
492.802	-0.03
493	0.01
493.199	-0.01
493.397	0.01
493.595	0
493.794	-0.02
493.992	0.04
494.19	0.02
494.388	0.03
494.587	-0
494.785	-0.01
494.983	-0.04
495.181	-0.01
495.379	-0.01
495.578	-0.01
495.776	0.02
495.974	-0
496.172	-0.01
496.37	-0.03
496.568	-0.02
496.766	-0.02
496.964	0.04
497.162	-0.01
497.36	-0.02
497.558	0.02
497.756	0.03
497.954	-0
498.152	-0.02
498.35	-0.01
498.548	0.01
498.746	-0
498.944	-0.03
499.142	-0.01
499.34	-0.04
499.538	0
499.736	-0.02
499.933	0.03
500.131	0.03
500.329	-0
500.527	0.01
500.725	0.03
500.922	0
501.12	0.01
501.318	-0.01
501.516	-0.03
501.713	0.01
501.911	0
502.109	-0.01
502.306	0.01
502.504	-0.01
502.701	-0.03
502.899	0.01
503.097	0.04
503.294	-0
503.492	-0
503.689	0.02
503.887	0.03
504.084	0.05
504.282	0
504.479	-0.04
504.677	-0
504.874	-0.02
505.072	-0.01
505.269	0.01
505.466	0.03
505.664	0
505.861	-0.03
506.059	-0.05
506.256	0.03
506.453	-0.02
506.651	0.02
506.848	0.02
507.045	0.02
507.242	0.02
507.44	0
507.637	-0
507.834	0.02
508.031	0.01
508.229	-0.02
508.426	0.02
508.623	0.04
508.82	-0.02
509.017	-0.02
509.214	-0.02
509.411	0.01
509.608	-0.03
509.805	0.01
510.003	-0.01
510.2	-0.01
510.397	0.01
510.594	-0.01
510.791	-0
510.988	-0.02
511.184	0.02
511.381	-0
511.578	-0.03
511.775	0.01
511.972	0
512.169	0.01
512.366	0.01
512.563	-0.02
512.76	-0.04
512.956	0.01
513.153	-0.02
513.35	0
513.547	-0
513.744	-0.02
513.94	-0.04
514.137	0.01
514.334	0
514.53	0.02
514.727	-0.02
514.924	0.05
515.12	-0.02
515.317	-0.03
515.514	-0.01
515.71	-0.02
515.907	0
516.103	0
516.3	0.03
516.497	0.02
516.693	0.03
516.89	-0
517.086	-0.02
517.283	0.04
517.479	0
517.676	-0
517.872	-0
518.068	-0.01
518.265	-0.01
518.461	-0.01
518.658	-0.03
518.854	0.01
519.05	-0.01
519.247	-0.03
519.443	0.03
519.639	0.02
519.836	0.03
520.032	0
520.228	0.01
520.424	0.04
520.621	0.01
520.817	0.01
521.013	0.03
521.209	0.02
521.405	0.05
521.601	0
521.798	0
521.994	0.04
522.19	0
522.386	-0.04
522.582	-0.02
522.778	-0.02
522.974	-0.01
523.17	-0.01
523.366	0.01
523.562	0.02
523.758	-0.01
523.954	-0.02
524.15	-0.02
524.346	0.01
524.542	0
524.738	-0.01
524.934	0
525.129	0.01
525.325	0.01
525.521	-0
525.717	0.04
525.913	0.01
526.109	-0.01
526.304	0
526.5	0.01
526.696	0.01
526.892	-0
527.087	0.01
527.283	-0.02
527.479	0.02
527.674	-0
527.87	0.01
528.066	0.01
528.261	0.03
528.457	0.02
528.653	-0
528.848	-0.01
529.044	-0
529.239	0
529.435	0.04
529.63	-0.01
529.826	0.02
530.021	0.02
530.217	0.02
530.412	-0.02
530.608	-0.02
530.803	0
530.999	0
531.194	-0.05
531.389	-0.01
531.585	-0.05
531.78	-0.01
531.975	-0.01
532.171	0.03
532.366	-0
532.561	0
532.757	-0.01
532.952	0
533.147	-0
533.342	-0.01
533.538	-0.01
533.733	0.03
533.928	-0.01
534.123	0
534.318	-0.03
534.513	-0
534.709	0
534.904	0
535.099	-0.03
535.294	-0.01
535.489	0.02
535.684	-0.01
535.879	-0.03
536.074	0.01
536.269	-0.01
536.464	0.01
536.659	-0.01
536.854	-0
537.049	-0.02
537.244	0.01
537.439	0.01
537.634	0.03
537.828	0.02
538.023	-0
538.218	-0.03
538.413	0
538.608	-0.01
538.803	0.03
538.997	-0.03
539.192	0.02
539.387	0.01
539.582	0.02
539.776	0.01
539.971	-0.01
540.166	0.02
540.36	-0.03
540.555	0.01
540.75	-0.02
540.944	0.01
541.139	-0.02
541.334	-0
541.528	0.02
541.723	0
541.917	-0.01
542.112	-0.03
542.306	0.01
542.501	-0.02
542.695	-0.01
542.89	-0.02
543.084	0
543.279	-0.02
543.473	-0.01
543.668	0
543.862	0
544.056	0.01
544.251	0
544.445	0.02
544.64	-0
544.834	-0.03
545.028	-0
545.222	0.01
545.417	0.02
545.611	0.02
545.805	0
546	-0.01
546.194	0.02
546.388	-0.04
546.582	0.01
546.776	-0.01
546.97	0
547.165	0
547.359	0.01
547.553	-0.03
547.747	0.02
547.941	-0
548.135	-0.01
548.329	0
548.523	0.03
548.717	0.01
548.911	-0.01
549.105	0
549.299	0
549.493	0.03
549.687	0.01
549.881	0
550.075	-0.01
550.269	-0.03
550.463	0.03
550.657	0
550.85	0
551.044	-0.01
551.238	0.02
551.432	-0.01
551.626	-0.04
551.82	0.02
552.013	-0.03
552.207	0.01
552.401	0.01
552.594	0
552.788	-0.02
552.982	-0
553.176	-0
553.369	0.02
553.563	0
553.756	-0.03
553.95	-0
554.144	-0.02
554.337	0.01
554.531	0.01
554.724	-0
554.918	0
555.111	0.03
555.305	0.02
555.498	0.05
555.692	0.03
555.885	-0
556.079	0.02
556.272	-0
556.466	0.03
556.659	0.01
556.852	-0.01
557.046	-0.01
557.239	0.02
557.432	-0.02
557.626	-0.01
557.819	0.01
558.012	0.02
558.206	0.01
558.399	0.01
558.592	-0
558.785	-0
558.979	0
559.172	0
559.365	0.01
559.558	0.01
559.751	0.03
559.944	0.02
560.138	0
560.331	0.01
560.524	0.01
560.717	-0.01
560.91	-0
561.103	0.02
561.296	0
561.489	0.01
561.682	-0
561.875	0.03
562.068	0.01
562.261	0.02
562.454	0.04
562.647	0.01
562.84	0.01
563.032	-0.01
563.225	-0
563.418	-0.02
563.611	-0.01
563.804	0.02
563.997	-0.01
564.19	-0.03
564.382	0.02
564.575	-0.01
564.768	-0
564.961	-0.03
565.153	-0.01
565.346	0.04
565.539	0
565.731	0
565.924	0.04
566.117	0.02
566.309	0.01
566.502	-0.01
566.695	0.02
566.887	0.01
567.08	-0.02
567.272	0
567.465	0.01
567.657	0.02
567.85	0.02
568.042	0.01
568.235	0.04
568.427	0.02
568.62	0.01
568.812	0.03
569.005	0.02
569.197	0
569.389	0.03
569.582	0.01
569.774	0.02
569.966	-0.01
570.159	0
570.351	0.03
570.543	0.02
570.736	0.01
570.928	-0.02
571.12	0.02
571.312	0.01
571.505	-0
571.697	0.03
571.889	-0.03
572.081	-0
572.273	-0.01
572.465	0.05
572.658	0.02
572.85	0.03
573.042	0.01
573.234	0.03
573.426	0.08
573.618	-0.03
573.81	0.02
574.002	0.04
574.194	0.07
574.386	-0.01
574.578	-0.04
574.77	-0.02
574.962	0.03
575.154	-0.03
575.346	0
575.538	0.03
575.729	0.01
575.921	0.01
576.113	-0.02
576.305	0.06
576.497	-0
576.689	0.03
576.88	-0
577.072	0.06
577.264	0.02
577.456	0
577.647	-0.01
577.839	0.03
578.031	0.06
578.223	0.02
578.414	0
578.606	0.06
578.798	0.04
578.989	0.02
579.181	0.05
579.372	0.05
579.564	0.01
579.755	0.04
579.947	0.03
580.139	0.06
580.33	-0
580.522	0.02
580.713	-0.02
580.905	0.06
581.096	0.07
581.287	0.05
581.479	0.06
581.67	0.06
581.862	0.04
582.053	0.03
582.244	0.01
582.436	0.07
582.627	0.06
582.818	0.07
583.01	0.04
583.201	0.09
583.392	0.08
583.583	0.06
583.775	0.05
583.966	0.06
584.157	0.05
584.348	0.06
584.54	0.06
584.731	0.07
584.922	0.07
585.113	0.06
585.304	0.1
585.495	0.12
585.686	0.1
585.877	0.09
586.068	0.09
586.259	0.09
586.45	0.09
586.641	0.08
586.832	0.06
587.023	0.09
587.214	0.09
587.405	0.1
587.596	0.09
587.787	0.13
587.978	0.11
588.169	0.08
588.36	0.1
588.551	0.12
588.742	0.09
588.932	0.13
589.123	0.11
589.314	0.15
589.505	0.13
589.696	0.14
589.886	0.11
590.077	0.09
590.268	0.15
590.458	0.13
590.649	0.11
590.84	0.19
591.03	0.15
591.221	0.1
591.412	0.14
591.602	0.2
591.793	0.21
591.984	0.13
592.174	0.16
592.365	0.24
592.555	0.17
592.746	0.2
592.936	0.22
593.127	0.21
593.317	0.23
593.508	0.21
593.698	0.18
593.889	0.19
594.079	0.23
594.269	0.19
594.46	0.24
594.65	0.23
594.84	0.24
595.031	0.2
595.221	0.26
595.411	0.21
595.602	0.3
595.792	0.26
595.982	0.27
596.172	0.35
596.363	0.29
596.553	0.29
596.743	0.29
596.933	0.32
597.123	0.34
597.314	0.3
597.504	0.26
597.694	0.37
597.884	0.33
598.074	0.34
598.264	0.32
598.454	0.35
598.644	0.36
598.834	0.36
599.024	0.34
599.214	0.36
599.404	0.43
599.594	0.4
599.784	0.36
599.974	0.48
600.164	0.41
600.354	0.41
600.544	0.4
600.734	0.46
600.924	0.47
601.114	0.44
601.303	0.46
601.493	0.5
601.683	0.47
601.873	0.49
602.063	0.44
602.252	0.53
602.442	0.47
602.632	0.53
602.821	0.51
603.011	0.59
603.201	0.58
603.39	0.59
603.58	0.56
603.77	0.6
603.959	0.68
604.149	0.63
604.339	0.64
604.528	0.69
604.718	0.69
604.907	0.69
605.097	0.67
605.286	0.65
605.476	0.72
605.665	0.78
605.855	0.7
606.044	0.8
606.234	0.77
606.423	0.77
606.612	0.8
606.802	0.81
606.991	0.86
607.181	0.88
607.37	0.82
607.559	0.84
607.749	0.89
607.938	0.91
608.127	0.93
608.316	0.96
608.506	0.96
608.695	1.02
608.884	0.98
609.073	1.04
609.263	1.08
609.452	1.09
609.641	1.08
609.83	1.05
610.019	1.12
610.208	1.15
610.397	1.17
610.586	1.23
610.775	1.23
610.965	1.29
611.154	1.29
611.343	1.35
611.532	1.32
611.721	1.38
611.91	1.38
612.099	1.46
612.287	1.44
612.476	1.46
612.665	1.52
612.854	1.52
613.043	1.62
613.232	1.61
613.421	1.63
613.61	1.7
613.798	1.73
613.987	1.83
614.176	1.85
614.365	1.91
614.554	1.89
614.742	1.99
614.931	1.92
615.12	2.05
615.309	2.05
615.497	2.08
615.686	2.05
615.875	2.15
616.063	2.16
616.252	2.24
616.44	2.35
616.629	2.34
616.818	2.35
617.006	2.43
617.195	2.46
617.383	2.48
617.572	2.49
617.76	2.58
617.949	2.6
618.137	2.71
618.326	2.73
618.514	2.72
618.703	2.8
618.891	2.91
619.079	2.83
619.268	3.01
619.456	2.93
619.644	2.99
619.833	3.01
620.021	3.07
620.209	3.05
620.398	3.19
620.586	3.22
620.774	3.24
620.962	3.29
621.151	3.41
621.339	3.32
621.527	3.36
621.715	3.4
621.903	3.5
622.092	3.38
622.28	3.57
622.468	3.38
622.656	3.54
622.844	3.54
623.032	3.63
623.22	3.53
623.408	3.68
623.596	3.67
623.784	3.68
623.972	3.64
624.16	3.67
624.348	3.7
624.536	3.76
624.724	3.6
624.912	3.64
625.1	3.62
625.288	3.58
625.476	3.59
625.664	3.66
625.851	3.5
626.039	3.46
626.227	3.43
626.415	3.41
626.603	3.27
626.79	3.3
626.978	3.22
627.166	3.23
627.354	3.09
627.541	3.11
627.729	2.87
627.917	3.02
628.104	2.95
628.292	2.79
628.48	2.77
628.667	2.73
628.855	2.66
629.042	2.59
629.23	2.47
629.418	2.41
629.605	2.32
629.793	2.24
629.98	2.16
630.168	2.09
630.355	2.03
630.543	1.99
630.73	1.85
630.917	1.83
631.105	1.87
631.292	1.74
631.48	1.62
631.667	1.66
631.854	1.55
632.042	1.44
632.229	1.35
632.416	1.39
632.604	1.32
632.791	1.23
632.978	1.27
633.165	1.17
633.353	1.2
633.54	1.11
633.727	0.99
633.914	0.94
634.101	0.85
634.289	0.96
634.476	0.86
634.663	0.87
634.85	0.86
635.037	0.76
635.224	0.71
635.411	0.77
635.598	0.71
635.785	0.69
635.972	0.65
636.159	0.66
636.346	0.59
636.533	0.59
636.72	0.56
636.907	0.56
637.094	0.55
637.281	0.5
637.468	0.52
637.655	0.47
637.842	0.46
638.029	0.41
638.215	0.46
638.402	0.39
638.589	0.35
638.776	0.41
638.963	0.36
639.149	0.38
639.336	0.43
639.523	0.33
639.709	0.33
639.896	0.32
640.083	0.32
640.27	0.32
640.456	0.25
640.643	0.3
640.829	0.24
641.016	0.26
641.203	0.22
641.389	0.28
641.576	0.25
641.762	0.22
641.949	0.17
642.135	0.2
642.322	0.19
642.508	0.15
642.695	0.22
642.881	0.17
643.068	0.17
643.254	0.16
643.441	0.19
643.627	0.15
643.813	0.14
644	0.19
644.186	0.12
644.372	0.08
644.559	0.18
644.745	0.14
644.931	0.12
645.118	0.12
645.304	0.14
645.49	0.1
645.676	0.1
645.862	0.14
646.049	0.13
646.235	0.12
646.421	0.17
646.607	0.15
646.793	0.1
646.979	0.05
647.165	0.14
647.352	0.07
647.538	0.14
647.724	0.1
647.91	0.06
648.096	0.1
648.282	0.15
648.468	0.08
648.654	0.06
648.84	0.09
649.026	0.09
649.212	0.08
649.397	0.04
649.583	0.02
649.769	0.08
649.955	0.08
650.141	0.08
650.327	0.12
650.513	0.02
650.698	0.07
650.884	-0.02
651.07	0.05
651.256	0.07
651.442	0.05
651.627	0.02
651.813	0.05
651.999	0.07
652.184	0.07
652.37	0.03
652.556	0.01
652.741	0.1
652.927	-0.05
653.113	0.02
653.298	0.02
653.484	0.03
653.669	0
653.855	0.04
654.04	0.04
654.226	0.01
654.412	0
654.597	-0.02
654.782	0.04
654.968	0.06
655.153	0.04
655.339	-0.01
655.524	-0
655.71	0.07
655.895	0.01
656.08	0.03
656.266	0.06
656.451	0.04
656.636	-0.02
656.822	0.06
657.007	-0.03
657.192	0
657.378	-0
657.563	0.03
657.748	0.06
657.933	0.03
658.118	0.01
658.304	-0.01
658.489	0.07
658.674	0.01
658.859	-0.03
659.044	0.04
659.229	0.02
659.414	0.01
659.599	-0.01
659.785	-0.05
659.97	-0.02
660.155	0.02
660.34	0.04
660.525	-0.01
660.71	0.01
660.895	0.01
661.08	0
661.264	-0
661.449	0.04
661.634	0.04
661.819	0.05
662.004	0.02
662.189	-0.02
662.374	-0.03
662.559	-0.02
662.743	-0.06
662.928	0.01
663.113	0.01
663.298	-0.03
663.483	0
663.667	0.03
663.852	-0.02
664.037	0.06
664.221	-0.03
664.406	0.01
664.591	0.06
664.775	0.02
664.96	0.03
665.145	0.03
665.329	0.04
665.514	-0.05
665.698	-0
665.883	-0.06
666.068	0.08
666.252	-0.02
666.437	-0.06
666.621	0.02
666.806	0.07
666.99	-0.01
667.174	-0.06
667.359	0.06
667.543	0.02
667.728	0
667.912	-0.04
668.096	0.01
668.281	-0.03
668.465	-0
668.649	0
668.834	-0.03
669.018	0
669.202	-0.02
669.387	-0.02
669.571	0.06
669.755	-0.05
669.939	0.03
670.124	-0.01
670.308	0.06
670.492	0.01
670.676	-0
670.86	-0.04
671.044	-0.03
671.228	0
671.413	-0.02
671.597	-0.06
671.781	-0.03
671.965	0.05
672.149	0.03
672.333	0.02
672.517	-0.04
672.701	0.01
672.885	0.01
673.069	-0.06
673.253	0.09
673.437	0
673.621	-0.08
673.804	0.02
673.988	-0.04
674.172	-0
674.356	-0.02
674.54	-0.01
674.724	0.08
674.908	0.03
675.091	0.05
675.275	-0
675.459	0.04
675.643	0.02
675.826	0.04
676.01	0.06
676.194	-0.04
676.377	0.04
676.561	-0.01
676.745	0
676.928	0.03
677.112	0.09
677.296	-0.03
677.479	-0.01
677.663	0.01
677.846	-0
678.03	0.01
678.213	-0.02
678.397	0.02
678.58	0.02
678.764	-0.07
678.947	-0.04
679.131	-0.04
679.314	0.04
679.498	-0.01
679.681	0.04
679.865	0.1
680.048	-0
680.231	-0
680.415	-0.01
680.598	-0
680.781	0.01
680.965	-0.04
681.148	0.01
681.331	-0.01
681.514	0.01
681.698	-0.05
681.881	-0
682.064	0.04
682.247	-0.01
682.43	-0.05
682.614	0.01
682.797	0.07
682.98	0.04
683.163	-0.06
683.346	0.04
683.529	-0.02
683.712	-0.02
683.895	-0
684.078	-0.07
684.261	-0.01
684.444	-0
684.627	-0.03
684.81	-0.05
684.993	-0.03
685.176	0.03
685.359	-0.05
685.542	-0.03
685.725	0.07
685.908	0.02
686.091	0.01
686.274	0.05
686.457	-0.02
686.639	-0.02
686.822	0.01
687.005	-0.02
687.188	0.04
687.371	0.07
687.553	0.04
687.736	-0
687.919	0.05
688.102	0.03
688.284	-0.02
688.467	0.02
688.65	-0.02
688.832	-0
689.015	0.04
689.197	-0.06
689.38	0.05
689.563	0.1
689.745	-0.03
689.928	0.01
690.11	0.01
690.293	0.01
690.475	-0.06
690.658	0.07
690.84	0.02
691.023	0
691.205	0.03
691.388	0.04
691.57	0.09
691.752	0.01
691.935	-0.04
692.117	-0.03
692.3	-0.01
692.482	-0.04
692.664	-0.01
692.847	-0.02
693.029	0.04
693.211	0.04
693.393	0.01
693.576	0
693.758	-0.01
693.94	-0.02
694.122	-0.03
694.304	-0.01
694.487	-0.02
694.669	0.1
694.851	-0.03
695.033	0.02
695.215	-0.02
695.397	-0.03
695.579	-0
695.761	-0
695.943	-0.03
696.125	0.03
696.308	0.03
696.49	-0.05
696.671	0.13
696.853	-0.06
697.035	0.11
697.217	0.01
697.399	0.05
697.581	-0.03
697.763	0
697.945	-0.06
698.127	0.03
698.309	0.02
698.491	-0.01
698.672	0.07
698.854	0.08
699.036	0.11
699.218	-0.03
699.399	0.02
699.581	0.03
699.763	0
699.945	-0.03
700.126	-0.03
700.308	-0.01
700.49	-0.01
700.671	-0.09
700.853	-0.02
701.035	0.01
701.216	0.04
701.398	-0.05
701.579	-0.02
701.761	0.03
701.943	-0.02
702.124	-0
702.306	-0.03
702.487	0.17
702.669	-0.01
702.85	-0.07
703.031	-0.07
703.213	0.1
703.394	0.03
703.576	-0.03
703.757	0.06
703.938	0.04
704.12	0.13
704.301	-0.01
704.483	-0.09
704.664	-0.01
704.845	0.07
705.026	0.05
705.208	0.01
705.389	-0.06
705.57	0.04
705.751	-0.08
705.933	-0.03
706.114	0.11
706.295	-0.02
706.476	-0.08
706.657	0.07
706.838	0.04
707.02	0.05
707.201	-0.03
707.382	-0.04
707.563	0
707.744	-0.03
707.925	-0.01
708.106	-0.07
708.287	-0.02
708.468	0.05
708.649	-0.04
708.83	0.08
709.011	-0.08
709.192	0.03
709.373	-0.08
709.554	-0.07
709.734	0.05
709.915	0
710.096	0.03
710.277	-0.16
710.458	-0
710.639	0.05
710.819	-0.12
711	-0
711.181	0
711.362	0.03
711.542	0.01
711.723	-0.03
711.904	0.08
712.085	0
712.265	0
712.446	-0.04
712.627	-0.03
712.807	0.03
712.988	-0
713.168	-0.05
713.349	0.02
713.53	-0.08
713.71	-0
713.891	-0.09
714.071	0.01
714.252	-0.05
714.432	-0.02
714.613	-0.07
714.793	0
714.974	0.04
715.154	0.05
715.334	0.03
715.515	0.04
715.695	-0.07
715.876	0.01
716.056	-0.05
716.236	-0.04
716.417	-0.03
716.597	-0.08
716.777	0.15
716.957	-0.02
717.138	0.05
717.318	0.03
717.498	-0.18
717.678	-0.03
717.859	-0.01
718.039	-0.08
718.219	0.05
718.399	0.05
718.579	-0.09
718.759	-0.08
718.939	0.03
719.12	-0.04
719.3	0.01
719.48	-0.13
719.66	-0.21
719.84	0.05
720.02	-0.07
720.2	0.02
720.38	-0.01
720.56	0.04
720.74	0.01
720.92	0.05
721.1	0.01
721.279	0.14
721.459	-0.02
721.639	-0.13
721.819	0.08
721.999	-0.05
722.179	-0.01
722.359	-0.09
722.538	0.02
722.718	0.04
722.898	-0.08
723.078	0.06
723.257	-0
723.437	-0.03
723.617	-0.08
723.797	0.04
723.976	-0
724.156	-0.05
724.336	0.13
724.515	0.16
724.695	-0.11
724.874	-0.05
725.054	0.08
725.234	-0.09
725.413	0.05
725.593	-0.05
725.772	0.01
725.952	-0.05
726.131	0.01
726.311	-0.04
726.49	0.01
726.67	-0.07
726.849	-0.02
727.028	0
727.208	-0.07
727.387	0.06
727.567	-0.04
727.746	-0.04
727.925	0.01
728.105	-0.08
728.284	-0.04
728.463	-0.06
728.643	0.08
728.822	-0.11
729.001	-0.02
729.18	-0.01
729.359	-0
729.539	-0.05
729.718	0
729.897	0.01
730.076	0.01
730.255	-0.04
730.434	0.09
730.614	-0
730.793	0.05
730.972	-0.03
731.151	-0.05
731.33	0.06
731.509	0.01
731.688	0.04
731.867	-0.04
732.046	-0.01
732.225	0.16
732.404	-0.03
732.583	-0.1
732.762	0.04
732.941	0.02
733.12	-0.02
733.298	-0.03
733.477	-0.03
733.656	-0.03
733.835	-0.09
734.014	0.14
734.193	-0.08
734.371	0.01
734.55	0.07
734.729	-0.08
734.908	-0.01
735.086	0.04
735.265	0.03
735.444	-0.14
735.623	-0.03
735.801	-0.13
735.98	-0.04
736.159	-0.05
736.337	0.12
736.516	0.08
736.694	0.1
736.873	-0.1
737.052	0.18
737.23	0.15
737.409	-0.13
737.587	0.12
737.766	-0.22
737.944	0.01
738.123	0.02
738.301	-0.01
738.479	-0.11
738.658	0
738.836	-0.16
739.015	0.08
739.193	-0.01
739.371	-0.08
739.55	-0.05
739.728	-0.06
739.906	0.09
740.085	0.18
740.263	-0.03
740.441	-0.22
740.62	0.11
740.798	0.05
740.976	-0.06
741.154	-0.03
741.332	0.23
741.511	-0.06
741.689	0.15
741.867	0.12
742.045	-0.07
742.223	-0.01
742.401	-0.05
742.579	-0.03
742.757	-0.03
742.935	-0.15
743.114	-0.02
743.292	-0.06
743.47	-0.02
743.648	0.04
743.826	0.08
744.004	0.09
744.181	0.02
744.359	0.03
744.537	0.08
744.715	-0.05
744.893	-0.01
745.071	0.04
745.249	0.02
745.427	-0.06
745.605	0.06
745.782	-0.05
745.96	0.04
746.138	0.01
746.316	0.07
746.493	-0.05
746.671	-0.02
746.849	0.01
747.027	0.24
747.204	-0.07
747.382	0.07
747.56	-0.17
747.737	0.09
747.915	-0.1
748.093	0.07
748.27	-0.14
748.448	-0.09
748.625	-0.06
748.803	-0.07
748.98	-0.1
749.158	0.07
749.335	0.11
749.513	0.09
749.69	-0.06
749.868	-0.05
750.045	0.01
750.223	0
750.4	-0.2
750.578	0.21
750.755	0.01
750.932	-0.22
751.11	0.14
751.287	-0.21
751.464	0.09
751.642	-0.05
751.819	0.04
751.996	0.05
752.173	-0.07
752.351	-0.09
752.528	-0
752.705	-0.08
752.882	-0.06
753.06	0.02
753.237	0.03
753.414	0.18
753.591	0.09
753.768	0.08
753.945	0.03
754.122	-0.1
754.299	-0.07
754.476	-0.11
754.654	0.04
754.831	0.04
755.008	0.1
755.185	0.03
755.362	-0.12
755.539	-0.02
755.716	-0.13
755.892	0.04
756.069	-0
756.246	-0.05
756.423	0.05
756.6	0.12
756.777	0.03
756.954	0.07
757.131	-0
757.307	-0.12
757.484	-0.13
757.661	-0
757.838	-0
758.015	-0.26
758.191	0.04
758.368	0.05
758.545	0.16
758.721	0.1
758.898	-0.07
759.075	0.01
759.251	0.12
759.428	0.12
759.605	-0.12
759.781	-0.03
759.958	0.14
760.134	-0.01
760.311	0.01
760.488	0.18
760.664	0.06
760.841	0.04
761.017	-0.12
761.194	0.05
761.37	0.15
761.547	0.08
761.723	-0.04
761.899	0.14
762.076	-0.11
762.252	-0.07
762.429	-0.08
762.605	0.06
762.781	-0.01
762.958	0.06
763.134	-0.12
763.31	0
763.486	0.1
763.663	-0.21
763.839	0.03
764.015	-0.17
764.191	-0.01
764.368	0
764.544	-0.05
764.72	-0.01
764.896	-0.02
765.072	0.11
765.248	-0.11
765.425	0.12
765.601	0.14
765.777	0.07
765.953	-0.21
766.129	-0.03
766.305	-0.16
766.481	0.01
766.657	0
766.833	0.1
767.009	-0.13
767.185	-0.15
767.361	-0.05
767.537	-0.11
767.713	0.06
767.889	-0.02
768.065	0.09
768.24	-0.16
768.416	0.12
768.592	-0.04
768.768	0.03
768.944	0.09
769.12	-0.05
769.295	-0.14
769.471	0.04
769.647	-0.05
769.823	0.17
769.998	-0.1
770.174	-0.13
770.35	0.29
770.525	0.42
770.701	0.09
770.877	0.02
771.052	-0.15
771.228	0.02
771.403	0.13
771.579	0.04
771.755	0.33
771.93	-0.09
772.106	-0.15
772.281	-0.2
772.457	0.01
772.632	-0.05
772.808	-0.15
772.983	-0.04
773.159	-0.15
773.334	0.18
773.509	-0.02
773.685	-0.06
773.86	0.3
774.036	0.11
774.211	-0.04
774.386	0.01
774.562	-0.07
774.737	0.03
774.912	-0.23
775.087	0.1
775.263	0.16
775.438	0.05
775.613	0.02
775.788	-0.02
775.964	0
776.139	0.32
776.314	-0.16
776.489	0.09
776.664	0.01
776.839	-0.21
777.014	0.07
777.19	0.08
777.365	0.16
777.54	0.21
777.715	0
777.89	0.1
778.065	-0.07
778.24	-0.02
778.415	0.19
778.59	-0.11
778.765	-0.09
778.94	0.18
779.115	-0.01
779.289	0.07
779.464	-0.09
779.639	0.05
779.814	-0.18
779.989	-0
780.164	0.18
780.339	0.17
780.513	-0.07
780.688	-0.09
780.863	-0.01
781.038	0.17
781.212	-0.01
781.387	0.08
781.562	0.28
781.737	0.03
781.911	0.22
782.086	-0.01
782.261	0.01
782.435	0.17
782.61	-0.16
782.784	0.12
782.959	0.1
783.134	-0.03
783.308	-0.15
783.483	-0.14
783.657	0.48
783.832	0.13
784.006	-0.25
784.181	-0.07
784.355	0.21
784.53	-0.26
784.704	-0.15
784.878	0.18
785.053	0.04
785.227	0.09
785.402	0.4
785.576	-0.35
785.75	-0
785.925	-0.2
786.099	0.05
786.273	0.08
786.448	0.04
786.622	0.21
786.796	0.03
786.97	-0.04
787.145	0.51
787.319	-0.59
787.493	-0.07
787.667	-0.41
787.841	0.06
788.015	0.22
788.19	-0.09
788.364	0.03
788.538	0.07
788.712	0.23
788.886	0.15
789.06	0.24
789.234	0.25
789.408	-0.27
789.582	-0.16
789.756	-0.13
789.93	-0.3
790.104	-0.05
790.278	-0.15
790.452	0.03
790.626	0.25
790.8	-0.23
790.973	0.06
791.147	0.05
791.321	0.17
791.495	0.23
791.669	0.17
791.843	0.16
792.016	-0.02
792.19	0.4
792.364	-0.12
792.538	0.37
792.711	0.25
792.885	-0.16
793.059	-0.07
793.233	-0.52
793.406	0.25
793.58	-0.05
793.754	-0.06
793.927	-0.44
794.101	0.29
794.274	-0.04
794.448	0.22
794.622	-0.18
794.795	0.4
794.969	0.05
795.142	0.33
795.316	-0.01
795.489	-0.02
795.663	0.33
795.836	-0.11
796.009	-0.01
796.183	0.37
796.356	-0.06
796.53	0.1
796.703	-0.01
796.876	0.3
797.05	-0.03
797.223	-0.09
797.396	0.1
797.57	0.1
797.743	0.38
797.916	0.09
798.09	0.11
798.263	0.21
798.436	0.27
798.609	-0.22
798.782	-0.06
798.956	-0.03
799.129	-0.18
799.302	0.02
799.475	0.09
799.648	-0.11
799.821	-0.1
799.994	0.3
800.167	-0.33
800.34	-0.18
800.514	-0.1
800.687	0.07
800.86	-0.11
801.033	-0.26
801.206	0.12
801.379	-0.33
801.551	0.1
801.724	0.08
801.897	0.18
802.07	-0.42
802.243	-0.06
802.416	0.04
802.589	-0.2
802.762	0.15
802.935	-0.11
803.107	0.35
803.28	0.21
803.453	0.16
803.626	-0.17
803.798	-0.24
803.971	-0.3
804.144	0.02
804.317	0.44
804.489	0.28
804.662	-0.08
804.835	0.35
805.007	-0.33
805.18	0.51
805.353	0.21
805.525	-0.29
805.698	-0.23
805.87	0.23
806.043	0.55
806.215	-0.16
806.388	0.09
806.56	0.03
806.733	0.03
806.905	0.13
807.078	-0
807.25	-0.04
807.423	0.15
807.595	-0.13
807.768	0.28
807.94	0.35
808.112	0.31
808.285	0.05
808.457	0.02
808.629	-0.16
808.802	-0.01
808.974	0.07
809.146	0.01
809.318	-0.28
809.491	-0.42
809.663	0.32
809.835	0.15
810.007	-0.04
810.18	-0.12
810.352	-0.11
810.524	-0.17
810.696	-0.15
810.868	0.23
811.04	-0.28
811.212	-0.18
811.384	0.33
811.556	0.2
811.728	-0.15
811.901	0.56
812.073	-0.06
812.245	0.18
812.417	0.03
812.589	-0.59
812.76	0.29
812.932	0.27
813.104	0.39
813.276	-0.11
813.448	0.66
813.62	-0.23
813.792	0.15
813.964	-0
814.136	0.15
814.307	-0.43
814.479	-0.22
814.651	-0.27
814.823	0.5
814.995	0.38
815.166	-0.23
815.338	0.11
815.51	-0.1
815.681	0.35
815.853	-0.18
816.025	-0.08
816.196	0.4
816.368	0.18
816.54	-0.06
816.711	0.02
816.883	0.35
817.054	0.98
817.226	-0.56
817.398	0.2
817.569	-0.43
817.741	0.09
817.912	0.34
818.084	-0.24
818.255	-0.31
818.426	-0.16
818.598	-0.01
818.769	-0.44
818.941	-0.13
819.112	0.36
819.283	0.19
819.455	-0.29
819.626	-0.09
819.798	0.2
819.969	-0.22
820.14	-0.24
820.311	-0.58
820.483	0.15
820.654	-0.06
820.825	0.21
820.996	-0.23
821.168	-0.14
821.339	0.17
821.51	-0.07
821.681	-0.19
821.852	0.36
822.023	-0.45
822.195	-0.16
822.366	0.26
822.537	-0.09
822.708	0.31
822.879	-0.59
823.05	0.44
823.221	-0.09
823.392	0.22
823.563	-0.05
823.734	-0.18
823.905	-0.2
824.076	-0.23
824.247	-0.46
824.418	-0.36
824.589	0.79
824.759	0.3
824.93	0.04
825.101	-0.9
825.272	0.17
825.443	0.88
825.614	0.33
825.784	-0.76
825.955	0.54
826.126	0.57
826.297	0.47
826.467	0.85
826.638	0.53
826.809	-1.18
826.98	-0.08
827.15	-0.02
827.321	0.19
827.492	0.73
827.662	-0.05
827.833	1.12
828.003	0.42
828.174	-0.42
828.345	-0.75
828.515	0.27
828.686	0.06
828.856	-0.34
829.027	-0.04
829.197	0.19
829.368	0.31
829.538	-0.22
829.709	0.03
829.879	0.66
830.049	0.2
830.22	0.09
830.39	-0.02
830.56	0.49
830.731	-0.33
830.901	-0.34
831.072	0.55
831.242	0.17
831.412	0.38
831.582	-0.03
831.753	-0.94
831.923	0.15
832.093	-0.29
832.263	-0.14
832.434	-0.45
832.604	-0.12
832.774	-0.16
832.944	0.09
833.114	-0
833.284	-0.01
833.454	-0.61
833.624	-0.57
833.795	0.07
833.965	1
834.135	0.73
834.305	-1.18
834.475	-0.61
834.645	0.33
834.815	-0.09
834.985	-0.75
835.155	-0.49
835.325	-0.33
835.494	0.54
835.664	-0.35
835.834	-0.53
836.004	-0.25
836.174	0.14
836.344	0.08
836.514	-0.77
836.684	-0.53
836.853	-0
837.023	0.21
837.193	-0.1
837.363	0.17
837.532	0.78
837.702	-0.4
837.872	-0.31
838.041	0.17
838.211	1.19
838.381	-0.84
838.55	0.01
838.72	1.87
838.89	1.25
839.059	-0.18
839.229	-0.18
839.398	0.74
839.568	0.47
839.738	-0.09
839.907	1.33
840.077	0.13
840.246	-0.35
840.416	-0.23
840.585	-1
840.755	1.16
840.924	1.11
841.093	-0.31
841.263	-0.08
841.432	-0.01
841.602	-0.09
841.771	-0.64
841.94	0.39
842.11	1.62
842.279	1.12
842.448	-0.41
842.617	-0.65
842.787	0.85
842.956	-0.87
843.125	-0.85
843.294	0.31
843.464	0.58
843.633	0.62
843.802	-0.69
843.971	-0.14
844.14	0.22
844.309	0.74
844.479	-0.59
844.648	-0.21
844.817	-1.04
844.986	0.16
845.155	0.44
845.324	0.22
845.493	-0.08
845.662	-0.72
845.831	0.11
846	1.25
846.169	-0.12
846.338	0.97
846.507	0.79
846.676	0.67
846.844	0.18
847.013	0.3
847.182	0.67
847.351	-0.2
847.52	0.02
847.689	0.21
847.858	0.06
848.026	0.43
848.195	0.14
848.364	-0.61
848.533	-0.86
848.701	-0.59
848.87	0.88
849.039	0.14
849.207	0.08
849.376	0.64
849.545	0.08
849.713	-0.58
849.882	-0.79
850.051	1.14
850.219	0.98
850.388	0.79
850.556	-0.32
850.725	0.23
850.893	0.27
851.062	0.1
851.23	-0.26
851.399	-1.25
851.567	-0.33
851.736	-0.52
851.904	-0.26
852.073	-0.04
852.241	0.6
852.41	0.28
852.578	-0.12
852.746	-0.72
852.915	0.62
853.083	0.66
853.251	-0.46
853.42	-0.95
853.588	1.25
853.756	-0.18
853.924	-0.3
854.093	0.07
854.261	0.04
854.429	-0.68
854.597	-0.07
854.765	-1.12
854.934	0.14
855.102	0.87
855.27	-0.26
855.438	1.9
855.606	0.81
855.774	0.54
855.942	-1.28
856.11	0.04
856.278	-0.37
856.446	0.55
856.614	0.14
856.782	0.44
856.95	0.83
857.118	0.19
857.286	0.35
857.454	-0.88
857.622	1.2
857.79	0.89
857.958	-0.67
858.126	-0.15
858.294	-2.75
858.462	-0.17
858.629	-0.22
858.797	-0.87
858.965	1
859.133	0.33
859.301	0.27
859.468	0.15
859.636	-0.73
859.804	1.62
859.971	1.31
860.139	-0.62
860.307	0.96
860.474	-0.65
860.642	-2.15
860.81	0.32
860.977	-1.04
861.145	1.54
861.313	-0.62
861.48	-1.15
861.648	0.96
861.815	-0.48
861.983	-2.64
862.15	-0.67
862.318	0.97
862.485	0.78
862.653	-0.62
862.82	-0.75
862.988	1.06
863.155	0.49
863.322	-0.66
863.49	-1.75
863.657	-0.45
863.824	2.55
863.992	0.62
864.159	-0.65
864.326	0.8
864.494	-0.4
864.661	2.89
864.828	-0.43
864.996	0.75
865.163	0.48
865.33	-1.46
865.497	-1.72
865.664	-0.55
865.832	-3.14
865.999	-0.56
866.166	-0.68
866.333	-0.73
866.5	-0.89
866.667	0.39
866.834	-1.26
867.001	2.68
867.168	0.1
867.335	0.59
867.502	-0.79
867.669	-0.12
867.836	2.16
868.003	0.12
868.17	1.46
868.337	-2.31
868.504	1.79
868.671	-1.71
868.838	-2
869.005	-0.22
869.172	0.56
869.339	0.03
869.505	-0.35
869.672	-0.48
869.839	-0.16
870.006	1.29
870.173	-1.59
870.339	1.13
870.506	1.88
870.673	-0.52
870.84	-0.33
871.006	0.98
871.173	0.52
871.34	1.2
871.506	-0
871.673	0.11
871.839	-1.7
872.006	-0.4
872.173	0.28
872.339	-0.51
872.506	1.04
872.672	-0.82
872.839	-1.88
873.005	-0.29
873.172	3.6
873.338	0.93
873.505	0.1
873.671	-1.38
873.838	0.15
874.004	-2.21
874.171	-0.64
874.337	-0.79
874.503	-0.47
874.67	0.67
874.836	-0.35
875.002	1.07
875.169	1.73
875.335	0.49
875.501	-1.77
875.668	1.27
875.834	-0.07
876	-0.63
876.166	0.48
876.332	0.75
876.499	1.95
876.665	-0.8
876.831	-0.42
876.997	1.33
877.163	0.46
877.329	-0.74
877.495	-0.06
877.662	0.03
877.828	-0.94
877.994	0.9
878.16	-1.2
878.326	0.07
878.492	-0.11
878.658	-0.54
878.824	0.46
878.99	1.11
879.156	1.58
879.322	2.01
879.487	-2.43
879.653	1.31
879.819	0.95
879.985	-0.78
880.151	0.61
880.317	1.4
880.483	-0.4
880.648	1.06
880.814	-2.41
880.98	2.42
881.146	-2.33
881.312	-0.58
881.477	-0.81
881.643	1.46
881.809	2.43
881.974	0.73
882.14	-1.86
882.306	1.54
882.471	1.26
882.637	-0.45
882.803	-0.42
882.968	3.12
883.134	3.03
883.299	1.1
883.465	0.73
883.63	1.49
883.796	1.51
883.961	0.86
884.127	1.43
884.292	-3.6
884.458	-2.92
884.623	-2.92
