Data from Apollo_Calib_20240827__AbsoluteIrradiance__688__10-37-02-392.txt Node

Date: Wed Aug 28 10:37:02 BST 2024
User: biology
Spectrometer: FLMT08252
Trigger mode: 0
Integration Time (sec): 5.000000E-1
Scans to average: 5
Electric dark correction enabled: true
Nonlinearity correction enabled: false
Boxcar width: 0
XAxis mode: Wavelengths
Number of Pixels in Spectrum: 3648
>>>>>Begin Spectral Data<<<<<
179.588	-0
179.809	-0
180.03	-0
180.251	-0
180.473	-0
180.694	0
180.915	0
181.136	-0
181.357	0
181.578	-0
181.799	0
182.02	-0
182.241	-0
182.462	-0
182.683	0
182.904	-0
183.125	0
183.346	0
183.567	0
183.788	0
184.009	-0
184.23	0
184.451	0
184.672	-0
184.892	0
185.113	0
185.334	0
185.555	0
185.776	0
185.996	0
186.217	0
186.438	0
186.659	0
186.879	0
187.1	0
187.321	0
187.541	0
187.762	0
187.983	0
188.203	0
188.424	0
188.644	0
188.865	0
189.086	0
189.306	0
189.527	0
189.747	0
189.968	0
190.188	0
190.409	0
190.629	0
190.849	0
191.07	0
191.29	0
191.511	0
191.731	0
191.951	0
192.172	0
192.392	0
192.612	0
192.833	0
193.053	0
193.273	0
193.493	0
193.714	0
193.934	0
194.154	0
194.374	0
194.594	0
194.815	0
195.035	0
195.255	0
195.475	0
195.695	0
195.915	0
196.135	0
196.355	0
196.575	0
196.795	0
197.015	-0
197.235	0
197.455	-0
197.675	0
197.895	0
198.115	0
198.335	0
198.555	0
198.775	0
198.995	0
199.214	0
199.434	0
199.654	0
199.874	0
200.094	1.67
200.313	0.84
200.533	0.07
200.753	-0.45
200.973	1.69
201.192	1.08
201.412	-0.45
201.632	-0.06
201.851	0.97
202.071	0.43
202.291	0.34
202.51	-0.27
202.73	0.97
202.95	0.3
203.169	0.04
203.389	0.33
203.608	0.61
203.828	0.17
204.047	0.54
204.267	0.68
204.486	0.6
204.706	0.78
204.925	0.68
205.145	0.1
205.364	0.6
205.583	0.89
205.803	0.11
206.022	-0.14
206.242	0.37
206.461	0.36
206.68	0.16
206.9	0.35
207.119	1.13
207.338	0.76
207.557	0.28
207.777	-0.14
207.996	0.36
208.215	1.18
208.434	0.38
208.654	0.01
208.873	0.5
209.092	0.86
209.311	-0.1
209.53	0.38
209.749	0.2
209.968	0.22
210.187	0.24
210.407	-0.07
210.626	0.29
210.845	0.14
211.064	0.38
211.283	0.01
211.502	0.6
211.721	0.31
211.94	0.16
212.159	0.39
212.377	0.46
212.596	0.5
212.815	0.26
213.034	0.21
213.253	0.43
213.472	0.49
213.691	0.18
213.91	-0.23
214.128	0.42
214.347	0.49
214.566	-0.02
214.785	-0.13
215.003	0.53
215.222	0.16
215.441	0.2
215.66	-0.1
215.878	0.15
216.097	0.51
216.316	0.04
216.534	0.11
216.753	0.37
216.972	0.06
217.19	0.06
217.409	0.07
217.627	0.02
217.846	0.04
218.064	0.16
218.283	0.12
218.501	0.65
218.72	0.27
218.938	0.07
219.157	-0.12
219.375	0.34
219.594	0.2
219.812	0
220.031	0.02
220.249	0.36
220.467	0.44
220.686	0.06
220.904	-0
221.122	-0.06
221.341	0.47
221.559	0.31
221.777	-0.06
221.995	0.27
222.214	0.36
222.432	-0.06
222.65	0.27
222.868	0.15
223.086	0.25
223.305	0.34
223.523	0.17
223.741	0.43
223.959	-0.06
224.177	-0.05
224.395	0.15
224.613	0.17
224.831	0.32
225.049	-0.03
225.267	0.1
225.485	0.18
225.703	-0.08
225.921	0.09
226.139	0.04
226.357	0.25
226.575	0.11
226.793	0.03
227.011	0.73
227.229	0.24
227.447	0.29
227.665	0.08
227.883	-0.19
228.1	0.22
228.318	0.2
228.536	-0.15
228.754	-0.03
228.972	0.12
229.189	0.22
229.407	0
229.625	0.05
229.843	0.25
230.06	0.2
230.278	0.11
230.496	0.08
230.713	0.22
230.931	0.26
231.149	0.06
231.366	-0.14
231.584	0.15
231.801	0.36
232.019	0.05
232.236	-0.03
232.454	0.02
232.671	0.2
232.889	0.05
233.106	-0.09
233.324	0.08
233.541	0.08
233.759	0.08
233.976	0.05
234.194	0.13
234.411	0.09
234.628	-0.05
234.846	0.15
235.063	0.12
235.28	0.06
235.498	0.19
235.715	0.06
235.932	0.11
236.149	0.18
236.367	0.06
236.584	0.16
236.801	0.05
237.018	0.14
237.236	0.14
237.453	-0
237.67	0.25
237.887	0.1
238.104	0.05
238.321	-0.02
238.538	0.05
238.755	0.2
238.973	-0.06
239.19	0.15
239.407	0.13
239.624	0.27
239.841	-0.07
240.058	0.01
240.275	0.08
240.492	0.09
240.709	0.16
240.925	0.02
241.142	0.01
241.359	0.02
241.576	0.05
241.793	0.04
242.01	0.08
242.227	0.16
242.444	0.19
242.66	0.19
242.877	0.19
243.094	0.08
243.311	0.06
243.527	0.05
243.744	0.18
243.961	0.22
244.178	0.03
244.394	0.08
244.611	0.15
244.828	0.17
245.044	0.06
245.261	0.05
245.477	0.14
245.694	0.22
245.911	0.09
246.127	0.12
246.344	0.21
246.56	0.12
246.777	0.02
246.993	0.05
247.21	0.14
247.426	0.2
247.643	0.05
247.859	0.05
248.076	0.13
248.292	0.31
248.508	0.04
248.725	0.17
248.941	0.13
249.157	0.23
249.374	0.01
249.59	0.07
249.806	0.03
250.023	0.19
250.239	0.03
250.455	0.06
250.671	0.11
250.888	0.11
251.104	0.17
251.32	0.08
251.536	0.03
251.752	0.06
251.969	0.1
252.185	0.09
252.401	0.29
252.617	0.1
252.833	-0
253.049	0.13
253.265	0.06
253.481	0.12
253.697	0.06
253.913	0.03
254.129	0.09
254.345	0.1
254.561	-0.02
254.777	0.06
254.993	0.16
255.209	0.19
255.425	0.06
255.641	0.04
255.857	0.24
256.073	0.11
256.288	-0.01
256.504	0.01
256.72	0.07
256.936	0.2
257.152	0.03
257.367	-0.04
257.583	0.08
257.799	0.11
258.015	0.05
258.23	0.06
258.446	0.18
258.662	0.07
258.877	-0.07
259.093	0.09
259.309	0.09
259.524	0.13
259.74	0.13
259.955	-0.02
260.171	0.06
260.387	0.1
260.602	0.19
260.818	0.1
261.033	0.04
261.249	-0.01
261.464	0.01
261.68	0.02
261.895	0.05
262.11	0.13
262.326	0.08
262.541	-0.07
262.757	0.18
262.972	0.08
263.187	0.1
263.403	0.07
263.618	0.1
263.833	0.13
264.049	0.02
264.264	0.09
264.479	0.18
264.694	0.19
264.91	-0.03
265.125	0.04
265.34	0.15
265.555	0.16
265.77	0.1
265.986	0.07
266.201	0.1
266.416	0.15
266.631	0.04
266.846	0.09
267.061	0.15
267.276	0.14
267.491	-0.09
267.706	0.09
267.921	0.1
268.136	0.14
268.351	0.01
268.566	0.02
268.781	0.13
268.996	0.17
269.211	0.06
269.426	0.01
269.641	0.02
269.856	0.11
270.071	0.04
270.285	-0.03
270.5	0.11
270.715	0.13
270.93	0.03
271.145	-0
271.359	0.14
271.574	-0.02
271.789	0.12
272.004	0.02
272.218	0.05
272.433	0.11
272.648	0.02
272.862	0.12
273.077	0.1
273.292	0.1
273.506	0.04
273.721	0.1
273.936	0.14
274.15	0.1
274.365	0.09
274.579	0.12
274.794	0.08
275.008	0.1
275.223	-0.01
275.437	0.04
275.652	0.1
275.866	0.12
276.081	0.03
276.295	0.12
276.509	0.07
276.724	0.07
276.938	0.07
277.153	0.11
277.367	0.12
277.581	-0.02
277.796	-0.01
278.01	0.01
278.224	0.09
278.438	0.14
278.653	-0.05
278.867	0.05
279.081	-0.07
279.295	0.04
279.51	0.05
279.724	-0.04
279.938	0.12
280.152	0.08
280.366	0.03
280.58	0.05
280.794	0.15
281.008	0.12
281.222	0.14
281.437	0.2
281.651	0.13
281.865	0.12
282.079	0.1
282.293	-0.03
282.507	0.01
282.721	0.09
282.935	0.08
283.148	-0.01
283.362	0
283.576	0.07
283.79	0
284.004	0.02
284.218	0.13
284.432	0.03
284.646	0.04
284.859	0.04
285.073	0.05
285.287	0.07
285.501	0.06
285.714	-0.02
285.928	0.09
286.142	0.07
286.356	0.03
286.569	0.04
286.783	0.13
286.997	0.13
287.21	0.05
287.424	0.06
287.637	0.06
287.851	0.05
288.065	0.07
288.278	0.02
288.492	0.05
288.705	0.03
288.919	0.08
289.132	-0.04
289.346	0.11
289.559	-0.01
289.773	-0.03
289.986	0.02
290.2	0.08
290.413	0.09
290.626	-0.03
290.84	0.04
291.053	0.05
291.267	0.09
291.48	0.07
291.693	0.09
291.906	0.04
292.12	0.05
292.333	0.02
292.546	0.03
292.76	0.12
292.973	0.07
293.186	0.06
293.399	0.07
293.612	0.07
293.826	0.03
294.039	0.05
294.252	0.05
294.465	0.05
294.678	0.05
294.891	0.09
295.104	0.02
295.317	0.06
295.53	0.12
295.743	0.03
295.956	0.09
296.169	0.12
296.382	0.11
296.595	0.06
296.808	-0
297.021	0.05
297.234	0.07
297.447	0.05
297.66	0.1
297.873	0.1
298.086	0.09
298.299	0.01
298.511	-0.02
298.724	0.04
298.937	0.04
299.15	0.02
299.363	0.06
299.575	0.07
299.788	0.08
300.001	0.02
300.213	-0
300.426	0.04
300.639	0.07
300.852	-0.03
301.064	0.08
301.277	0.12
301.489	0.11
301.702	0.1
301.915	0.05
302.127	0.05
302.34	0.07
302.552	0.06
302.765	0.02
302.977	0.05
303.19	0.01
303.402	0.03
303.615	0.05
303.827	0.02
304.04	0.03
304.252	0.08
304.464	0.04
304.677	0.16
304.889	0.11
305.102	0.02
305.314	0.08
305.526	0.07
305.739	0.09
305.951	0
306.163	0
306.375	0.1
306.588	0.01
306.8	-0.01
307.012	0
307.224	0.08
307.436	0.12
307.649	-0
307.861	0.09
308.073	0.06
308.285	0.06
308.497	0.02
308.709	0.03
308.921	0.06
309.133	0.09
309.346	0.06
309.558	0.05
309.77	0.1
309.982	0.11
310.194	0.12
310.406	-0
310.617	0.07
310.829	0.07
311.041	0.08
311.253	0.04
311.465	0.07
311.677	0.02
311.889	0.09
312.101	0.02
312.313	0.09
312.524	0.09
312.736	-0.02
312.948	0.02
313.16	0.12
313.372	0.08
313.583	0.04
313.795	0.03
314.007	0.03
314.218	0.1
314.43	0.01
314.642	0.01
314.853	-0
315.065	0.08
315.277	0.05
315.488	0.09
315.7	0.07
315.912	0.09
316.123	0.07
316.335	0.07
316.546	0.18
316.758	0.04
316.969	0.01
317.181	0.05
317.392	0.03
317.604	0.13
317.815	-0.04
318.026	-0.01
318.238	0.02
318.449	0.03
318.661	0.01
318.872	-0.01
319.083	-0.02
319.295	0.04
319.506	0.01
319.717	0.03
319.929	0.06
320.14	0.02
320.351	0.06
320.562	0.02
320.774	0.06
320.985	0.09
321.196	0
321.407	-0.04
321.618	0.06
321.829	0.07
322.041	0.09
322.252	0.07
322.463	0.09
322.674	0.1
322.885	-0.01
323.096	0.03
323.307	0.02
323.518	0.03
323.729	0
323.94	0.01
324.151	0.03
324.362	0.03
324.573	0.08
324.784	0.02
324.995	0.11
325.206	0.08
325.417	0.04
325.628	0.02
325.838	0.02
326.049	0.08
326.26	0.06
326.471	0.03
326.682	0.07
326.892	0.05
327.103	-0.01
327.314	0.04
327.525	0.05
327.735	0.04
327.946	0
328.157	0.03
328.368	0.05
328.578	0.02
328.789	0.1
328.999	0.02
329.21	0.05
329.421	0.07
329.631	0.01
329.842	0.01
330.052	0.1
330.263	0.08
330.473	0.06
330.684	0.04
330.894	0.05
331.105	0.03
331.315	0.04
331.526	0
331.736	0.1
331.947	0.07
332.157	0.08
332.367	-0
332.578	0.09
332.788	0.08
332.999	0.07
333.209	0.04
333.419	-0.03
333.629	0.07
333.84	0.09
334.05	0.08
334.26	0.09
334.47	0.06
334.681	0.07
334.891	0.02
335.101	0.08
335.311	0.14
335.521	0.03
335.732	-0.01
335.942	0.09
336.152	0.06
336.362	0.07
336.572	0.07
336.782	0.07
336.992	0.05
337.202	0.03
337.412	0.01
337.622	0.08
337.832	0.07
338.042	0.04
338.252	-0.02
338.462	0.03
338.672	0.03
338.882	-0.02
339.092	0.02
339.302	0.1
339.511	0.07
339.721	0.03
339.931	-0.02
340.141	0.12
340.351	0.12
340.561	0.03
340.77	0.05
340.98	0.02
341.19	0.05
341.4	0.01
341.609	0
341.819	0.02
342.029	0.02
342.238	0.05
342.448	0.05
342.658	0.1
342.867	0.03
343.077	0.04
343.286	0.03
343.496	0.08
343.706	0.11
343.915	0.01
344.125	0.04
344.334	0.03
344.544	0
344.753	0.02
344.963	-0.01
345.172	-0.01
345.381	-0
345.591	-0.04
345.8	0.1
346.01	0.13
346.219	0.07
346.428	-0.1
346.638	0.02
346.847	0.05
347.056	0.08
347.266	0.04
347.475	0.02
347.684	0.07
347.893	0.06
348.103	0.07
348.312	0.01
348.521	0.01
348.73	0.05
348.94	0.05
349.149	0.02
349.358	-0
349.567	0.02
349.776	0
349.985	0.01
350.194	0.09
350.403	0.07
350.612	0.02
350.821	0.04
351.03	0.06
351.239	0.04
351.448	0.09
351.657	0
351.866	0.1
352.075	0.06
352.284	0.06
352.493	-0
352.702	0.08
352.911	0.09
353.12	0.03
353.329	0.01
353.538	0.08
353.746	0.04
353.955	0.04
354.164	0.04
354.373	0.04
354.582	0.09
354.79	0.04
354.999	0.08
355.208	0.02
355.416	0.1
355.625	-0.01
355.834	0.03
356.042	0.05
356.251	0.02
356.46	-0.01
356.668	0.03
356.877	0.09
357.085	0.04
357.294	-0.02
357.503	0.05
357.711	0.01
357.92	0.14
358.128	0.05
358.337	0.04
358.545	0.06
358.754	-0.01
358.962	0.06
359.17	0.04
359.379	0.09
359.587	0.08
359.796	0.03
360.004	0.09
360.212	0.03
360.421	0.03
360.629	0.06
360.837	-0
361.046	0.05
361.254	0.13
361.462	0.04
361.67	0.02
361.879	0.06
362.087	0.09
362.295	0.06
362.503	-0.01
362.711	0
362.92	0.03
363.128	0.02
363.336	0.01
363.544	-0.02
363.752	0.03
363.96	-0
364.168	0.01
364.376	0.03
364.584	0.05
364.792	0.07
365	0.08
365.208	0.01
365.416	0.03
365.624	0.07
365.832	0.02
366.04	0.1
366.248	0.05
366.456	0.07
366.664	0.06
366.872	0.01
367.079	0.05
367.287	0.03
367.495	0.04
367.703	0.04
367.911	0
368.118	0.04
368.326	0.04
368.534	-0.02
368.742	0.11
368.949	-0.02
369.157	0.05
369.365	0.05
369.572	0.02
369.78	-0.04
369.988	0.07
370.195	0.07
370.403	0.08
370.61	0.04
370.818	0.07
371.026	0.1
371.233	-0.02
371.441	0.06
371.648	-0
371.856	0.04
372.063	0.06
372.271	-0.01
372.478	0
372.685	-0.01
372.893	0.1
373.1	0.03
373.308	-0.01
373.515	0.09
373.722	0.06
373.93	0.08
374.137	0.08
374.344	0.11
374.552	0.08
374.759	0.05
374.966	0.04
375.173	0.03
375.381	0.09
375.588	0.05
375.795	-0.02
376.002	0.02
376.209	0.02
376.417	0.05
376.624	-0
376.831	0.06
377.038	0.01
377.245	-0.02
377.452	0.03
377.659	0.04
377.866	-0.02
378.073	0.01
378.28	0.04
378.487	0.03
378.694	0.06
378.901	0.04
379.108	0.02
379.315	0.06
379.522	0.09
379.729	0.08
379.936	0.03
380.143	0.05
380.35	0.05
380.557	0.02
380.763	0.02
380.97	0.05
381.177	0.05
381.384	0.07
381.591	0.01
381.797	0.06
382.004	0.04
382.211	0.04
382.418	-0.02
382.624	0.09
382.831	0.03
383.038	-0.02
383.244	0.02
383.451	0.02
383.658	0.07
383.864	0.01
384.071	-0.01
384.277	0.1
384.484	0.02
384.69	0.08
384.897	0.04
385.103	0.02
385.31	0.03
385.516	0.02
385.723	0.03
385.929	0.07
386.136	-0
386.342	0.01
386.549	0.01
386.755	0.1
386.961	0.03
387.168	0.03
387.374	0.02
387.58	0.1
387.787	0.07
387.993	0.02
388.199	0.02
388.406	0.03
388.612	0.03
388.818	0.01
389.024	0.01
389.231	-0
389.437	0.07
389.643	0.06
389.849	0.02
390.055	0.03
390.261	0.06
390.467	0.03
390.674	0.03
390.88	0.06
391.086	0.06
391.292	0
391.498	0.01
391.704	-0.02
391.91	0.03
392.116	0.01
392.322	0.01
392.528	0.02
392.734	0.03
392.94	0.04
393.146	0.03
393.352	0.06
393.557	0.03
393.763	0.04
393.969	0.05
394.175	0.03
394.381	0.02
394.587	-0.02
394.792	0.07
394.998	0.06
395.204	0.09
395.41	-0.01
395.615	0.05
395.821	0.05
396.027	0.08
396.233	0.02
396.438	0.06
396.644	0.08
396.85	0.07
397.055	0.05
397.261	0.02
397.466	0.02
397.672	0.07
397.878	0.04
398.083	0.04
398.289	0.02
398.494	0.11
398.7	0.03
398.905	-0.04
399.111	0.08
399.316	-0.04
399.522	0.03
399.727	0.04
399.932	0.03
400.138	0.05
400.343	0.07
400.549	0.06
400.754	0.08
400.959	0.07
401.165	-0.01
401.37	0.03
401.575	0.12
401.78	0.07
401.986	0.01
402.191	0.05
402.396	-0.02
402.601	0.05
402.807	0.05
403.012	0.04
403.217	0.09
403.422	0.05
403.627	0.05
403.832	0.06
404.037	0.09
404.243	0.02
404.448	0.04
404.653	0.02
404.858	0.01
405.063	0.08
405.268	-0.03
405.473	-0.02
405.678	0.01
405.883	0.14
406.088	0.07
406.293	0.04
406.498	-0
406.703	0.05
406.907	0.02
407.112	-0.03
407.317	0.02
407.522	0.09
407.727	-0.02
407.932	0.03
408.136	0.11
408.341	0.05
408.546	0.08
408.751	0.03
408.956	-0
409.16	0.08
409.365	0.01
409.57	0.05
409.774	0.05
409.979	0.11
410.184	0.06
410.388	-0
410.593	0.09
410.798	0.05
411.002	0.02
411.207	0.03
411.411	0.07
411.616	-0.01
411.82	0.04
412.025	0.08
412.229	0.03
412.434	0.06
412.638	0.07
412.843	0.06
413.047	0.04
413.252	-0.01
413.456	0.03
413.66	0.07
413.865	0
414.069	0.1
414.273	-0
414.478	0.01
414.682	0.03
414.886	0.01
415.091	-0
415.295	0.02
415.499	0.07
415.703	0.05
415.908	0.06
416.112	-0.08
416.316	0.11
416.52	0.03
416.724	0
416.929	0.02
417.133	0.08
417.337	-0.01
417.541	-0
417.745	0.05
417.949	0.05
418.153	0.06
418.357	0.01
418.561	0.12
418.765	0.05
418.969	0.17
419.173	0.05
419.377	0.03
419.581	0.15
419.785	0.01
419.989	-0.07
420.193	0.02
420.397	0.01
420.601	0.09
420.804	0.06
421.008	-0
421.212	0.04
421.416	0.06
421.62	0.03
421.823	0.02
422.027	0.13
422.231	0.09
422.435	0.07
422.638	0.02
422.842	0.02
423.046	0.01
423.249	0.05
423.453	0.08
423.657	0.07
423.86	0.03
424.064	0.05
424.268	0.11
424.471	0.03
424.675	0.08
424.878	0.11
425.082	0.02
425.285	0.07
425.489	0.04
425.692	0.04
425.896	0.01
426.099	0.04
426.303	0.01
426.506	-0.03
426.71	0.06
426.913	0.08
427.116	0.07
427.32	-0.01
427.523	0.03
427.726	0.11
427.93	-0.01
428.133	0.04
428.336	0.02
428.54	0.01
428.743	0.07
428.946	0.05
429.149	-0.02
429.353	0.02
429.556	0.01
429.759	0.07
429.962	0.02
430.165	0.01
430.368	0.06
430.571	0.02
430.775	0.11
430.978	0.01
431.181	0.07
431.384	0.03
431.587	0.02
431.79	0.04
431.993	-0
432.196	0.03
432.399	-0.02
432.602	0.09
432.805	-0.01
433.008	-0
433.211	-0
433.414	0.08
433.616	0.05
433.819	0
434.022	-0.07
434.225	0.12
434.428	0.06
434.631	0.18
434.833	0.02
435.036	0.03
435.239	0.03
435.442	0.05
435.645	0
435.847	0.01
436.05	0.08
436.253	0.02
436.455	-0.04
436.658	0.05
436.861	0.08
437.063	0.02
437.266	0.06
437.468	0.06
437.671	0.1
437.874	0.09
438.076	-0.02
438.279	-0
438.481	0.01
438.684	-0.01
438.886	0.04
439.089	-0.03
439.291	0.02
439.494	0.1
439.696	0.01
439.899	0.02
440.101	0.04
440.303	-0.02
440.506	0.05
440.708	0.02
440.91	0.1
441.113	0.01
441.315	0.02
441.517	0
441.72	0.06
441.922	-0.03
442.124	-0.02
442.326	0.04
442.529	0.06
442.731	-0.04
442.933	0.09
443.135	0.03
443.337	0.03
443.539	-0.07
443.742	-0.01
443.944	0.06
444.146	0.01
444.348	0
444.55	-0.01
444.752	-0
444.954	0.01
445.156	0.03
445.358	-0
445.56	0.07
445.762	-0.01
445.964	0.02
446.166	0.04
446.368	-0.02
446.57	0.06
446.772	0.04
446.974	0.03
447.175	0.08
447.377	0.07
447.579	0.02
447.781	-0.04
447.983	0.15
448.184	0.07
448.386	0.07
448.588	-0.02
448.79	0.03
448.991	-0.03
449.193	-0.02
449.395	-0.01
449.597	0.04
449.798	0.04
450	0.03
450.202	0.03
450.403	0.01
450.605	0.05
450.806	0
451.008	-0.04
451.21	-0
451.411	0.03
451.613	0
451.814	0.05
452.016	0.07
452.217	0.06
452.419	0.12
452.62	0.07
452.821	0.03
453.023	0.06
453.224	0.07
453.426	-0.02
453.627	0.08
453.828	0.06
454.03	0.03
454.231	0
454.432	-0.01
454.634	0.1
454.835	0.03
455.036	-0.03
455.238	0.05
455.439	0.08
455.64	-0.01
455.841	0.01
456.042	0.09
456.244	0.07
456.445	0.02
456.646	-0.01
456.847	0
457.048	0.06
457.249	0.11
457.45	0.24
457.651	-0.02
457.852	0.08
458.054	0.02
458.255	0.05
458.456	0.06
458.657	0.08
458.858	-0.03
459.058	0.02
459.259	0.09
459.46	0.05
459.661	-0.03
459.862	0.11
460.063	0.06
460.264	0.12
460.465	-0.01
460.666	0.14
460.866	0.02
461.067	0.03
461.268	0.03
461.469	-0.01
461.67	0.03
461.87	0.01
462.071	-0.01
462.272	0.03
462.473	0.01
462.673	0.05
462.874	-0.01
463.075	0.02
463.275	0
463.476	0.07
463.676	0.05
463.877	0.08
464.078	0.05
464.278	0.07
464.479	0.04
464.679	0.04
464.88	0.04
465.08	0.12
465.281	-0.02
465.481	-0.04
465.682	0.01
465.882	0.05
466.083	0.03
466.283	0.04
466.483	-0
466.684	0.01
466.884	-0.01
467.085	0.01
467.285	0.05
467.485	-0.01
467.686	0.02
467.886	-0.01
468.086	0.02
468.286	0.03
468.487	0.05
468.687	0.01
468.887	0.01
469.087	0.06
469.287	0.02
469.488	-0.03
469.688	0.06
469.888	0.06
470.088	0.06
470.288	0.08
470.488	0.08
470.688	0.02
470.888	-0.03
471.088	0
471.288	0.04
471.488	0.05
471.688	0.05
471.888	0
472.088	0.08
472.288	0.05
472.488	-0.01
472.688	-0.04
472.888	-0.01
473.088	0.06
473.288	0.04
473.488	0.02
473.688	0.05
473.887	0.04
474.087	-0.02
474.287	0.06
474.487	0.01
474.687	0.05
474.886	-0.02
475.086	0.01
475.286	0.02
475.486	0.03
475.685	0.02
475.885	0.01
476.085	-0.01
476.284	0.05
476.484	0.02
476.684	0.04
476.883	0.07
477.083	0.03
477.282	-0.01
477.482	0.09
477.681	0.07
477.881	0.05
478.08	-0.01
478.28	-0.01
478.479	0.02
478.679	0.11
478.878	0.03
479.078	0.01
479.277	0.03
479.477	-0
479.676	0.05
479.875	0.04
480.075	-0.03
480.274	0.04
480.473	0.03
480.673	0
480.872	0.07
481.071	0.01
481.271	0.05
481.47	0
481.669	0.03
481.868	0
482.067	-0.01
482.267	-0.01
482.466	0.01
482.665	-0
482.864	-0.01
483.063	-0.03
483.262	0.05
483.461	0.03
483.661	0.05
483.86	0.02
484.059	0.03
484.258	0.02
484.457	0.01
484.656	0.02
484.855	0.05
485.054	-0.03
485.253	-0.01
485.452	-0.02
485.651	0.03
485.849	0.04
486.048	0
486.247	-0.02
486.446	0.03
486.645	-0.01
486.844	-0.01
487.043	-0.01
487.241	0.02
487.44	-0.01
487.639	0.03
487.838	0.04
488.037	0.04
488.235	0.07
488.434	0.05
488.633	0.01
488.831	0.02
489.03	0.07
489.229	0.04
489.427	-0.01
489.626	0.06
489.825	0.07
490.023	-0
490.222	0.01
490.42	0.01
490.619	0.07
490.817	0.03
491.016	0.01
491.214	0.04
491.413	-0.01
491.611	0.01
491.81	0.02
492.008	0.05
492.207	0.04
492.405	0.02
492.604	-0.03
492.802	0.01
493	0.02
493.199	0.03
493.397	0.01
493.595	0.01
493.794	-0.02
493.992	0.05
494.19	0.03
494.388	0.02
494.587	-0.02
494.785	0.02
494.983	-0.01
495.181	0.02
495.379	0.02
495.578	0
495.776	0
495.974	0.04
496.172	0.01
496.37	0.01
496.568	0
496.766	-0
496.964	0.02
497.162	0.02
497.36	-0.02
497.558	0.05
497.756	0.03
497.954	0.02
498.152	-0.01
498.35	0.02
498.548	0.02
498.746	0.01
498.944	-0.02
499.142	-0
499.34	-0.03
499.538	0
499.736	0
499.933	0.04
500.131	0.03
500.329	0.04
500.527	0.06
500.725	0.05
500.922	0.03
501.12	0.04
501.318	0.03
501.516	-0
501.713	0.04
501.911	0.01
502.109	-0.03
502.306	0.02
502.504	0.03
502.701	-0.01
502.899	0
503.097	0.02
503.294	0.03
503.492	0.02
503.689	0.03
503.887	0.03
504.084	0.08
504.282	0.04
504.479	-0.02
504.677	0.02
504.874	-0.01
505.072	0
505.269	-0
505.466	0.03
505.664	0
505.861	-0.02
506.059	-0.02
506.256	0.03
506.453	0.01
506.651	0.05
506.848	0.07
507.045	0.04
507.242	0
507.44	-0.01
507.637	0.01
507.834	0
508.031	0.02
508.229	-0.01
508.426	0.01
508.623	0.03
508.82	0
509.017	0.02
509.214	0
509.411	0.03
509.608	-0.02
509.805	0.03
510.003	-0.01
510.2	0.01
510.397	0.04
510.594	0
510.791	-0.01
510.988	0.01
511.184	0.05
511.381	0.03
511.578	-0.02
511.775	0.02
511.972	-0.01
512.169	0.01
512.366	0.02
512.563	0.02
512.76	0.01
512.956	0.03
513.153	-0.01
513.35	0.02
513.547	0.01
513.744	0.01
513.94	-0.02
514.137	0.03
514.334	0.03
514.53	0.01
514.727	-0
514.924	0.03
515.12	0
515.317	-0.01
515.514	0.02
515.71	-0.01
515.907	0.01
516.103	-0
516.3	0.02
516.497	0.03
516.693	0.04
516.89	0.01
517.086	-0.01
517.283	0.03
517.479	0.03
517.676	0.02
517.872	-0.01
518.068	-0
518.265	-0.01
518.461	-0.02
518.658	0.01
518.854	0.02
519.05	0.01
519.247	-0.01
519.443	0.03
519.639	0.02
519.836	0.02
520.032	0.03
520.228	0.01
520.424	0.06
520.621	0.02
520.817	0
521.013	0
521.209	0.04
521.405	0.06
521.601	0.03
521.798	-0
521.994	0.03
522.19	-0.02
522.386	0
522.582	0.01
522.778	0
522.974	0
523.17	0.02
523.366	0.02
523.562	0.04
523.758	-0
523.954	-0.01
524.15	0.01
524.346	0.02
524.542	0.02
524.738	-0.02
524.934	-0
525.129	0
525.325	0.01
525.521	0.01
525.717	0.03
525.913	0.02
526.109	0.02
526.304	0.01
526.5	0.04
526.696	0.05
526.892	0.03
527.087	0.02
527.283	-0.02
527.479	0.02
527.674	-0.02
527.87	0
528.066	-0.02
528.261	0.04
528.457	0.01
528.653	-0.01
528.848	0.02
529.044	0.03
529.239	0.02
529.435	0.05
529.63	0
529.826	0.06
530.021	0.01
530.217	0.04
530.412	0
530.608	-0.01
530.803	0.01
530.999	-0.01
531.194	-0.01
531.389	0
531.585	-0.04
531.78	0.01
531.975	-0
532.171	0.02
532.366	-0
532.561	0.01
532.757	-0.01
532.952	-0
533.147	0.03
533.342	0.01
533.538	0
533.733	0.04
533.928	0.03
534.123	0.01
534.318	-0.03
534.513	0.02
534.709	0.01
534.904	-0.01
535.099	-0.02
535.294	0.01
535.489	0
535.684	-0
535.879	-0
536.074	0
536.269	-0
536.464	0.03
536.659	0.01
536.854	0
537.049	0.02
537.244	0.02
537.439	0.01
537.634	0.02
537.828	0.02
538.023	0.01
538.218	-0.02
538.413	0.01
538.608	0
538.803	0.04
538.997	-0.02
539.192	0.04
539.387	-0
539.582	0.01
539.776	0.03
539.971	-0
540.166	0.01
540.36	-0.02
540.555	0.02
540.75	0.01
540.944	0.01
541.139	-0.03
541.334	0
541.528	0.05
541.723	0.01
541.917	-0.01
542.112	-0.01
542.306	0.03
542.501	0
542.695	0.02
542.89	-0.02
543.084	0
543.279	0.01
543.473	0.01
543.668	0.01
543.862	-0.01
544.056	0.01
544.251	0.03
544.445	0.04
544.64	-0.01
544.834	-0.02
545.028	0.01
545.222	0.02
545.417	0.04
545.611	0.01
545.805	-0.01
546	0.01
546.194	0.01
546.388	0.01
546.582	0.02
546.776	0
546.97	0.02
547.165	0.04
547.359	0.03
547.553	0.01
547.747	0.02
547.941	0.02
548.135	0.01
548.329	0.02
548.523	0.01
548.717	-0.01
548.911	-0.02
549.105	0.02
549.299	0.01
549.493	0.03
549.687	0.02
549.881	0.02
550.075	0.01
550.269	-0.02
550.463	0.02
550.657	-0
550.85	0.02
551.044	0
551.238	0.02
551.432	-0.01
551.626	-0.02
551.82	-0
552.013	-0.02
552.207	0.02
552.401	0.02
552.594	0.01
552.788	0.01
552.982	0.02
553.176	-0
553.369	0.02
553.563	0.02
553.756	-0.01
553.95	-0.02
554.144	0.01
554.337	0.02
554.531	0
554.724	0.02
554.918	0
555.111	0.03
555.305	0.01
555.498	0.06
555.692	0.04
555.885	-0.01
556.079	0
556.272	-0.01
556.466	0.04
556.659	0
556.852	0.01
557.046	-0.01
557.239	0.04
557.432	-0.03
557.626	0
557.819	-0
558.012	0.03
558.206	0.01
558.399	-0.01
558.592	0.02
558.785	-0.01
558.979	0.04
559.172	0.01
559.365	0.03
559.558	0.01
559.751	-0
559.944	0.03
560.138	0.01
560.331	0.01
560.524	0
560.717	0.01
560.91	-0
561.103	0.04
561.296	-0
561.489	0.02
561.682	0
561.875	0.06
562.068	0.03
562.261	0.01
562.454	0.04
562.647	0.02
562.84	0.02
563.032	0.01
563.225	0.03
563.418	0.02
563.611	0.02
563.804	0.02
563.997	0
564.19	-0.01
564.382	-0.06
564.575	-0
564.768	0.01
564.961	-0.01
565.153	0
565.346	0.03
565.539	0.03
565.731	0.03
565.924	0.04
566.117	0.03
566.309	0.03
566.502	0.02
566.695	0.01
566.887	0.01
567.08	0
567.272	0
567.465	-0
567.657	0
567.85	0.01
568.042	0.04
568.235	0.05
568.427	0.01
568.62	0.01
568.812	0.02
569.005	0.03
569.197	-0.02
569.389	-0.01
569.582	0.02
569.774	0.02
569.966	-0.03
570.159	-0
570.351	0.02
570.543	-0
570.736	0.01
570.928	-0.01
571.12	0.01
571.312	-0.02
571.505	-0.03
571.697	0.04
571.889	0
572.081	0.02
572.273	-0.02
572.465	0.03
572.658	0.01
572.85	0.02
573.042	-0.01
573.234	-0
573.426	0.04
573.618	-0.03
573.81	0.02
574.002	0.05
574.194	0.04
574.386	-0.02
574.578	-0.05
574.77	-0.01
574.962	-0
575.154	-0.01
575.346	-0.01
575.538	0.02
575.729	-0.01
575.921	0
576.113	-0.01
576.305	0.03
576.497	-0.01
576.689	-0.03
576.88	0.01
577.072	0.03
577.264	0.02
577.456	0.03
577.647	-0.06
577.839	0.02
578.031	0.04
578.223	-0.02
578.414	-0.03
578.606	0.02
578.798	0.03
578.989	-0.03
579.181	-0
579.372	0.01
579.564	-0
579.755	0.02
579.947	0.03
580.139	0.05
580.33	-0.04
580.522	-0.02
580.713	-0.06
580.905	0
581.096	0.02
581.287	0.01
581.479	0.01
581.67	0.04
581.862	0.03
582.053	-0.01
582.244	-0.05
582.436	0.01
582.627	0.02
582.818	0
583.01	-0.03
583.201	0.04
583.392	0.03
583.583	0.02
583.775	-0
583.966	0.01
584.157	-0
584.348	0.02
584.54	-0.03
584.731	0.03
584.922	0.01
585.113	-0.01
585.304	0.03
585.495	0.04
585.686	0.03
585.877	0.04
586.068	0.04
586.259	0.04
586.45	0.01
586.641	-0.01
586.832	-0.04
587.023	0.01
587.214	0.01
587.405	0
587.596	-0.04
587.787	0.02
587.978	0.02
588.169	-0.02
588.36	-0.01
588.551	0.02
588.742	0
588.932	0.01
589.123	0.01
589.314	0.01
589.505	0.04
589.696	0.02
589.886	-0.01
590.077	-0.04
590.268	0.02
590.458	-0.04
590.649	-0.03
590.84	0.07
591.03	-0.04
591.221	-0.01
591.412	-0.03
591.602	0.04
591.793	0.07
591.984	-0.02
592.174	0.01
592.365	0.08
592.555	-0.02
592.746	0.03
592.936	0.03
593.127	0.02
593.317	0.05
593.508	-0
593.698	-0.01
593.889	-0.03
594.079	0
594.269	-0.03
594.46	0.04
594.65	0.03
594.84	0.02
595.031	0
595.221	-0
595.411	-0.03
595.602	0.03
595.792	0
595.982	-0.03
596.172	0.08
596.363	-0
596.553	0.04
596.743	0.01
596.933	0
597.123	0.05
597.314	-0.02
597.504	0
597.694	0.03
597.884	0.02
598.074	0.01
598.264	0
598.454	0.04
598.644	0.01
598.834	0.02
599.024	-0.06
599.214	0
599.404	0.03
599.594	-0
599.784	-0.03
599.974	0.04
600.164	0.03
600.354	-0.02
600.544	-0.02
600.734	0.01
600.924	0.07
601.114	-0.02
601.303	0.04
601.493	-0
601.683	-0.01
601.873	0.01
602.063	-0.03
602.252	0.01
602.442	-0.06
602.632	-0.02
602.821	-0.02
603.011	0.01
603.201	-0.01
603.39	-0.02
603.58	-0.04
603.77	0.03
603.959	0.03
604.149	0
604.339	-0
604.528	0.05
604.718	0.03
604.907	-0.01
605.097	0
605.286	-0.03
605.476	0.03
605.665	0.02
605.855	-0.03
606.044	0.06
606.234	0.01
606.423	-0.01
606.612	-0.03
606.802	0
606.991	0.03
607.181	0.05
607.37	-0.02
607.559	0.01
607.749	-0.03
607.938	-0.01
608.127	0.01
608.316	0
608.506	0.02
608.695	0.02
608.884	-0.01
609.073	0.02
609.263	0.03
609.452	0.03
609.641	0.03
609.83	-0
610.019	0.02
610.208	-0
610.397	0
610.586	0.04
610.775	-0
610.965	-0.01
611.154	-0.01
611.343	0.05
611.532	0.01
611.721	-0.02
611.91	-0.02
612.099	0.02
612.287	-0.02
612.476	-0.01
612.665	0.01
612.854	0
613.043	0.06
613.232	-0.01
613.421	-0.03
613.61	0.05
613.798	-0.01
613.987	0.02
614.176	0.03
614.365	0.04
614.554	0.02
614.742	0.04
614.931	-0
615.12	0.06
615.309	-0.02
615.497	0.02
615.686	-0.01
615.875	-0.03
616.063	0.01
616.252	-0
616.44	-0.04
616.629	0.01
616.818	0.04
617.006	0.02
617.195	-0.01
617.383	0.03
617.572	0.02
617.76	0.03
617.949	0.02
618.137	0.02
618.326	0.04
618.514	-0.02
618.703	0
618.891	0.07
619.079	-0.01
619.268	0.04
619.456	-0
619.644	0.06
619.833	-0.01
620.021	-0.01
620.209	-0.04
620.398	-0
620.586	0.03
620.774	0.04
620.962	0.01
621.151	0.08
621.339	0.04
621.527	-0.05
621.715	-0.04
621.903	-0
622.092	-0.01
622.28	0.03
622.468	0.02
622.656	0.02
622.844	0.04
623.032	0.01
623.22	-0
623.408	0.02
623.596	0.03
623.784	0.02
623.972	-0.02
624.16	-0
624.348	0.07
624.536	-0.01
624.724	0
624.912	0.03
625.1	0.06
625.288	-0.02
625.476	-0.01
625.664	0.04
625.851	-0.01
626.039	-0
626.227	0.03
626.415	0.01
626.603	-0.04
626.79	-0.01
626.978	0.04
627.166	0.05
627.354	0.06
627.541	-0.02
627.729	-0.06
627.917	0.05
628.104	0.04
628.292	0.04
628.48	0.01
628.667	0.02
628.855	0.01
629.042	0.02
629.23	-0
629.418	0.01
629.605	0.01
629.793	-0.01
629.98	0
630.168	0
630.355	-0
630.543	0.02
630.73	-0.01
630.917	0.05
631.105	0.07
631.292	0.01
631.48	0.04
631.667	0.07
631.854	0.03
632.042	-0.02
632.229	-0.03
632.416	0.04
632.604	0.02
632.791	-0.02
632.978	0.02
633.165	0.01
633.353	0.05
633.54	0.03
633.727	-0.05
633.914	0.01
634.101	-0.04
634.289	0.05
634.476	-0
634.663	-0.03
634.85	0.03
635.037	-0.01
635.224	-0.02
635.411	0.05
635.598	0.04
635.785	0.02
635.972	0.05
636.159	0.05
636.346	-0.01
636.533	0.01
636.72	0.02
636.907	0.02
637.094	0.02
637.281	0.02
637.468	0
637.655	-0.01
637.842	0.03
638.029	0.01
638.215	0.05
638.402	0.01
638.589	-0.02
638.776	0
638.963	-0.01
639.149	0.03
639.336	0.1
639.523	-0
639.709	0.02
639.896	0.01
640.083	0.08
640.27	0.03
640.456	-0
640.643	0.04
640.829	-0.03
641.016	0.03
641.203	-0.01
641.389	0.07
641.576	0.04
641.762	0.04
641.949	-0.01
642.135	0.05
642.322	0.05
642.508	-0.02
642.695	0.02
642.881	-0
643.068	0
643.254	0.02
643.441	0.06
643.627	-0
643.813	0.01
644	0.07
644.186	-0.01
644.372	-0.01
644.559	0.06
644.745	-0.01
644.931	0.02
645.118	0
645.304	0.07
645.49	0
645.676	0.02
645.862	0.03
646.049	0.1
646.235	0.03
646.421	0.08
646.607	0.07
646.793	0.01
646.979	0
647.165	0.03
647.352	0.05
647.538	0.06
647.724	0.02
647.91	0.05
648.096	0.04
648.282	0.06
648.468	0.01
648.654	0.04
648.84	0.06
649.026	0.01
649.212	0.02
649.397	-0.01
649.583	0.01
649.769	0.08
649.955	0.02
650.141	0.06
650.327	0.1
650.513	0.01
650.698	0.03
650.884	-0.04
651.07	0.01
651.256	0.07
651.442	0.03
651.627	0.04
651.813	0.05
651.999	0.04
652.184	0.04
652.37	-0.01
652.556	0.01
652.741	0.06
652.927	0
653.113	0.02
653.298	0.01
653.484	0.03
653.669	-0.01
653.855	0.03
654.04	0.07
654.226	0.03
654.412	0.02
654.597	0.01
654.782	0.03
654.968	0.07
655.153	0.04
655.339	0.03
655.524	0
655.71	0.06
655.895	0.02
656.08	0
656.266	0.08
656.451	0.07
656.636	0
656.822	0.03
657.007	-0.01
657.192	0.02
657.378	-0.02
657.563	0.03
657.748	0.05
657.933	0.06
658.118	0.04
658.304	0.04
658.489	0.06
658.674	0.07
658.859	0.02
659.044	0.09
659.229	0.07
659.414	0.06
659.599	0.07
659.785	-0.01
659.97	0.05
660.155	0.09
660.34	0.07
660.525	0.03
660.71	0.03
660.895	0.07
661.08	0.02
661.264	0.03
661.449	0.1
661.634	0.08
661.819	0.09
662.004	0.07
662.189	-0.01
662.374	0.06
662.559	0.01
662.743	0.02
662.928	0.05
663.113	0.03
663.298	-0
663.483	0.03
663.667	0.07
663.852	0
664.037	0.12
664.221	0.02
664.406	0.1
664.591	0.1
664.775	0.06
664.96	0.03
665.145	0.08
665.329	0.07
665.514	0.06
665.698	0.03
665.883	-0.02
666.068	0.11
666.252	0.09
666.437	0.03
666.621	0.1
666.806	0.09
666.99	0.05
667.174	0.05
667.359	0.11
667.543	0.05
667.728	0.1
667.912	0.03
668.096	0.1
668.281	0.06
668.465	0.1
668.649	0.07
668.834	0.07
669.018	0.11
669.202	0.1
669.387	0.08
669.571	0.11
669.755	0.05
669.939	0.11
670.124	0.1
670.308	0.14
670.492	0.12
670.676	0.13
670.86	0.11
671.044	0.07
671.228	0.11
671.413	0.09
671.597	0.12
671.781	0.08
671.965	0.12
672.149	0.06
672.333	0.09
672.517	0.08
672.701	0.11
672.885	0.11
673.069	0.05
673.253	0.19
673.437	0.08
673.621	0.08
673.804	0.13
673.988	0.16
674.172	0.12
674.356	0.04
674.54	0.11
674.724	0.2
674.908	0.11
675.091	0.16
675.275	0.15
675.459	0.19
675.643	0.14
675.826	0.16
676.01	0.14
676.194	0.13
676.377	0.2
676.561	0.19
676.745	0.2
676.928	0.19
677.112	0.18
677.296	0.18
677.479	0.16
677.663	0.16
677.846	0.18
678.03	0.16
678.213	0.17
678.397	0.2
678.58	0.14
678.764	0.16
678.947	0.17
679.131	0.18
679.314	0.19
679.498	0.17
679.681	0.17
679.865	0.26
680.048	0.2
680.231	0.17
680.415	0.22
680.598	0.19
680.781	0.22
680.965	0.19
681.148	0.25
681.331	0.2
681.514	0.29
681.698	0.17
681.881	0.25
682.064	0.25
682.247	0.29
682.43	0.2
682.614	0.27
682.797	0.28
682.98	0.26
683.163	0.22
683.346	0.25
683.529	0.23
683.712	0.26
683.895	0.27
684.078	0.26
684.261	0.29
684.444	0.33
684.627	0.28
684.81	0.27
684.993	0.31
685.176	0.36
685.359	0.26
685.542	0.32
685.725	0.37
685.908	0.34
686.091	0.29
686.274	0.35
686.457	0.37
686.639	0.38
686.822	0.41
687.005	0.36
687.188	0.38
687.371	0.44
687.553	0.36
687.736	0.4
687.919	0.51
688.102	0.44
688.284	0.4
688.467	0.41
688.65	0.42
688.832	0.38
689.015	0.41
689.197	0.34
689.38	0.52
689.563	0.47
689.745	0.4
689.928	0.42
690.11	0.44
690.293	0.52
690.475	0.42
690.658	0.53
690.84	0.49
691.023	0.45
691.205	0.5
691.388	0.51
691.57	0.56
691.752	0.59
691.935	0.5
692.117	0.5
692.3	0.6
692.482	0.53
692.664	0.55
692.847	0.57
693.029	0.62
693.211	0.59
693.393	0.58
693.576	0.56
693.758	0.65
693.94	0.65
694.122	0.64
694.304	0.63
694.487	0.6
694.669	0.74
694.851	0.69
695.033	0.67
695.215	0.68
695.397	0.68
695.579	0.69
695.761	0.73
695.943	0.72
696.125	0.88
696.308	0.82
696.49	0.72
696.671	0.97
696.853	0.78
697.035	1.03
697.217	0.83
697.399	0.9
697.581	0.82
697.763	0.9
697.945	0.85
698.127	0.91
698.309	0.94
698.491	0.96
698.672	1.01
698.854	0.99
699.036	1.08
699.218	1
699.399	1.08
699.581	1.05
699.763	1.04
699.945	1.04
700.126	0.99
700.308	1.13
700.49	1.07
700.671	1.08
700.853	1.08
701.035	1.13
701.216	1.21
701.398	1.13
701.579	1.22
701.761	1.29
701.943	1.18
702.124	1.23
702.306	1.29
702.487	1.41
702.669	1.34
702.85	1.38
703.031	1.31
703.213	1.51
703.394	1.38
703.576	1.44
703.757	1.62
703.938	1.56
704.12	1.59
704.301	1.6
704.483	1.55
704.664	1.65
704.845	1.74
705.026	1.69
705.208	1.69
705.389	1.62
705.57	1.79
705.751	1.79
705.933	1.83
706.114	1.96
706.295	1.87
706.476	1.83
706.657	1.99
706.838	1.9
707.02	2.06
707.201	2
707.382	1.99
707.563	2.11
707.744	2.11
707.925	2.07
708.106	2.16
708.287	2.24
708.468	2.24
708.649	2.32
708.83	2.3
709.011	2.29
709.192	2.43
709.373	2.35
709.554	2.43
709.734	2.62
709.915	2.51
710.096	2.63
710.277	2.52
710.458	2.67
710.639	2.66
710.819	2.65
711	2.78
711.181	2.83
711.362	2.9
711.542	2.91
711.723	2.89
711.904	3.05
712.085	3.06
712.265	3.07
712.446	3.02
712.627	3.12
712.807	3.32
712.988	3.25
713.168	3.27
713.349	3.34
713.53	3.26
713.71	3.38
713.891	3.4
714.071	3.57
714.252	3.56
714.432	3.64
714.613	3.64
714.793	3.75
714.974	3.86
715.154	3.91
715.334	4.04
715.515	4.04
715.695	3.94
715.876	4.17
716.056	4.09
716.236	4.26
716.417	4.38
716.597	4.27
716.777	4.64
716.957	4.4
717.138	4.82
717.318	4.63
717.498	4.69
717.678	4.85
717.859	4.78
718.039	4.92
718.219	4.99
718.399	5.1
718.579	5.14
718.759	5.35
718.939	5.38
719.12	5.34
719.3	5.52
719.48	5.44
719.66	5.52
719.84	5.82
720.02	5.78
720.2	5.93
720.38	5.99
720.56	6.21
720.74	6.1
720.92	6.24
721.1	6.61
721.279	6.49
721.459	6.52
721.639	6.61
721.819	6.73
721.999	6.99
722.179	6.86
722.359	6.86
722.538	7.04
722.718	7.21
722.898	7.38
723.078	7.38
723.257	7.45
723.437	7.51
723.617	7.73
723.797	7.87
723.976	7.9
724.156	8.17
724.336	8.16
724.515	8.47
724.695	8.49
724.874	8.6
725.054	8.64
725.234	8.68
725.413	8.94
725.593	9.01
725.772	8.98
725.952	9.19
726.131	9.23
726.311	9.48
726.49	9.6
726.67	9.49
726.849	9.8
727.028	9.83
727.208	9.92
727.387	10.14
727.567	10.27
727.746	10.24
727.925	10.57
728.105	10.48
728.284	10.53
728.463	10.74
728.643	10.9
728.822	11.04
729.001	11
729.18	11.44
729.359	11.37
729.539	11.66
729.718	11.69
729.897	11.62
730.076	12
730.255	11.89
730.434	12.32
730.614	12.55
730.793	12.46
730.972	12.4
731.151	12.74
731.33	12.94
731.509	12.93
731.688	13
731.867	13.17
732.046	13.14
732.225	13.68
732.404	13.29
732.583	13.49
732.762	13.65
732.941	14.15
733.12	14.21
733.298	14.29
733.477	14.3
733.656	14.47
733.835	14.8
734.014	14.8
734.193	14.88
734.371	15.09
734.55	15.01
734.729	15.18
734.908	15.29
735.086	15.4
735.265	15.4
735.444	15.43
735.623	15.94
735.801	15.91
735.98	16.12
736.159	16.1
736.337	16.35
736.516	16.31
736.694	16.13
736.873	16.32
737.052	16.77
737.23	16.65
737.409	16.41
737.587	16.9
737.766	16.49
737.944	16.81
738.123	17.28
738.301	17.12
738.479	17.1
738.658	17.07
738.836	16.68
739.015	16.79
739.193	17.12
739.371	16.58
739.55	16.33
739.728	16.35
739.906	16.77
740.085	16.78
740.263	16.59
740.441	16.1
740.62	16.39
740.798	16.18
740.976	15.78
741.154	15.59
741.332	15.75
741.511	15.19
741.689	15.03
741.867	15.22
742.045	14.63
742.223	14.31
742.401	13.89
742.579	13.6
742.757	13.9
742.935	13.33
743.114	13.23
743.292	12.91
743.47	12.68
743.648	12.58
743.826	12.24
744.004	12
744.181	11.65
744.359	11.21
744.537	11.13
744.715	10.66
744.893	10.57
745.071	10.27
745.249	10.05
745.427	9.76
745.605	9.52
745.782	9.23
745.96	9.12
746.138	8.91
746.316	8.52
746.493	8.19
746.671	8.05
746.849	7.84
747.027	7.67
747.204	7.12
747.382	7.33
747.56	6.74
747.737	6.65
747.915	6.53
748.093	6.46
748.27	6.13
748.448	5.89
748.625	5.63
748.803	5.46
748.98	5.31
749.158	5.14
749.335	5.14
749.513	4.9
749.69	4.68
749.868	4.6
750.045	4.35
750.223	4.34
750.4	4.05
750.578	4.35
750.755	4.13
750.932	3.75
751.11	3.94
751.287	3.67
751.464	3.88
751.642	3.44
751.819	3.36
751.996	3.36
752.173	3.16
752.351	2.9
752.528	2.9
752.705	2.88
752.882	2.84
753.06	2.87
753.237	2.66
753.414	2.8
753.591	2.72
753.768	2.56
753.945	2.23
754.122	2.18
754.299	2.27
754.476	2.04
754.654	2.16
754.831	2.16
755.008	2.05
755.185	1.96
755.362	1.84
755.539	1.98
755.716	1.7
755.892	1.83
756.069	1.73
756.246	1.66
756.423	1.79
756.6	1.67
756.777	1.48
756.954	1.59
757.131	1.45
757.307	1.4
757.484	1.3
757.661	1.27
757.838	1.34
758.015	1.17
758.191	1.29
758.368	1.2
758.545	1.29
758.721	1.23
758.898	0.95
759.075	1.13
759.251	1.09
759.428	1.1
759.605	0.96
759.781	0.99
759.958	1.04
760.134	0.98
760.311	0.85
760.488	0.98
760.664	1
760.841	0.91
761.017	0.65
761.194	0.87
761.37	0.89
761.547	0.77
761.723	0.73
761.899	0.91
762.076	0.62
762.252	0.65
762.429	0.62
762.605	0.75
762.781	0.75
762.958	0.69
763.134	0.62
763.31	0.53
763.486	0.74
763.663	0.31
763.839	0.64
764.015	0.33
764.191	0.4
764.368	0.57
764.544	0.47
764.72	0.54
764.896	0.62
765.072	0.45
765.248	0.45
765.425	0.51
765.601	0.51
765.777	0.45
765.953	0.23
766.129	0.35
766.305	0.38
766.481	0.51
766.657	0.43
766.833	0.64
767.009	0.24
767.185	0.33
767.361	0.44
767.537	0.37
767.713	0.52
767.889	0.21
768.065	0.31
768.24	0.38
768.416	0.56
768.592	0.28
768.768	0.28
768.944	0.27
769.12	0.13
769.295	0.22
769.471	0.17
769.647	0.25
769.823	0.47
769.998	0.25
770.174	0.24
770.35	0.65
770.525	0.6
770.701	0.18
770.877	0.28
771.052	0.15
771.228	0.35
771.403	0.33
771.579	0.22
771.755	0.49
771.93	0.3
772.106	0.19
772.281	0.06
772.457	0.11
772.632	0.3
772.808	0.08
772.983	0.2
773.159	0.11
773.334	0.41
773.509	0.14
773.685	0.08
773.86	0.54
774.036	0.35
774.211	0.29
774.386	0.24
774.562	0.26
774.737	0.25
774.912	0.13
775.087	0.24
775.263	0.17
775.438	0.25
775.613	0.13
775.788	0.2
775.964	0.33
776.139	0.53
776.314	0.03
776.489	0.12
776.664	0.14
776.839	0.07
777.014	0.33
777.19	0.44
777.365	0.25
777.54	0.56
777.715	0.13
777.89	0.03
778.065	0.04
778.24	0.27
778.415	0.38
778.59	-0.04
778.765	-0.01
778.94	0.11
779.115	-0.01
779.289	0.24
779.464	0.09
779.639	0.21
779.814	0.06
779.989	-0.08
780.164	0.53
780.339	0.33
780.513	0.1
780.688	-0.06
780.863	0.16
781.038	0.47
781.212	0.07
781.387	0.21
781.562	0.55
781.737	0.15
781.911	0.39
782.086	0.07
782.261	0.12
782.435	0.43
782.61	0
782.784	0.14
782.959	0.41
783.134	0.22
783.308	-0.03
783.483	0.1
783.657	0.5
783.832	0.43
784.006	-0.02
784.181	0.25
784.355	0.42
784.53	-0.1
784.704	-0.06
784.878	0.4
785.053	0.24
785.227	0.32
785.402	0.61
785.576	-0.06
785.75	0.18
785.925	0.12
786.099	0.36
786.273	0.17
786.448	0.4
786.622	0.36
786.796	0.36
786.97	0.05
787.145	0.91
787.319	-0.29
787.493	0.09
787.667	-0.08
787.841	0.19
788.015	0.16
788.19	0.15
788.364	0.12
788.538	0.26
788.712	0.33
788.886	0.26
789.06	0.5
789.234	0.28
789.408	-0.29
789.582	-0.02
789.756	0.06
789.93	0
790.104	0.18
790.278	0.17
790.452	-0.03
790.626	0.25
790.8	-0.03
790.973	0.43
791.147	0.35
791.321	0.52
791.495	0.42
791.669	0.31
791.843	0.24
792.016	0.15
792.19	0.5
792.364	0.06
792.538	0.59
792.711	0.58
792.885	0.24
793.059	0.09
793.233	-0.49
793.406	0.42
793.58	0.15
793.754	0.14
793.927	0.42
794.101	0.34
794.274	-0.03
794.448	0.18
794.622	-0.13
794.795	0.45
794.969	0.01
795.142	0.46
795.316	0.26
795.489	-0.06
795.663	0.53
795.836	0.29
796.009	-0.14
796.183	0.6
796.356	0.52
796.53	0.12
796.703	0.05
796.876	0.89
797.05	-0.08
797.223	-0.12
797.396	0.41
797.57	0.23
797.743	0.48
797.916	0.2
798.09	0.26
798.263	0.27
798.436	0.23
798.609	0.1
798.782	0.05
798.956	0.26
799.129	0.15
799.302	-0.15
799.475	0.06
799.648	0.11
799.821	-0.02
799.994	0.01
800.167	-0.07
800.34	0.05
800.514	0.19
800.687	-0.03
800.86	0.05
801.033	0.06
801.206	0.05
801.379	-0.08
801.551	0.22
801.724	0.29
801.897	0.13
802.07	0
802.243	-0.18
802.416	0.23
802.589	-0.04
802.762	0.09
802.935	0.24
803.107	0.39
803.28	0.59
803.453	0.5
803.626	-0.01
803.798	0.19
803.971	-0.2
804.144	0.24
804.317	0.18
804.489	0.3
804.662	0.01
804.835	0.36
805.007	0.13
805.18	0.65
805.353	0.38
805.525	0.15
805.698	0.28
805.87	0.67
806.043	0.41
806.215	-0.05
806.388	0.32
806.56	0.5
806.733	0.39
806.905	0.42
807.078	-0.02
807.25	0.05
807.423	0.3
807.595	0.52
807.768	0.29
807.94	0.46
808.112	0.33
808.285	0.18
808.457	0.19
808.629	0.27
808.802	0.05
808.974	0.29
809.146	0.15
809.318	-0.28
809.491	0.2
809.663	0.46
809.835	0.07
810.007	0.65
810.18	0.03
810.352	0.09
810.524	-0.22
810.696	0.22
810.868	0.36
811.04	0.16
811.212	0.05
811.384	0.62
811.556	0.6
811.728	0.2
811.901	0.87
812.073	0.33
812.245	0.98
812.417	0.02
812.589	-0.46
812.76	-0.05
812.932	0.18
813.104	0.49
813.276	0.19
813.448	0.53
813.62	0.25
813.792	0.29
813.964	0.15
814.136	0.29
814.307	0.08
814.479	0.25
814.651	-0.01
814.823	1.07
814.995	0.46
815.166	0.52
815.338	0.04
815.51	-0.28
815.681	0.75
815.853	0.41
816.025	0.42
816.196	0.88
816.368	0.85
816.54	0.07
816.711	-0.04
816.883	0.52
817.054	1.21
817.226	-0.19
817.398	0.41
817.569	-0.12
817.741	0.33
817.912	0.14
818.084	0.21
818.255	0.36
818.426	-0.26
818.598	0.42
818.769	-0.09
818.941	0.43
819.112	0.88
819.283	0.44
819.455	0.12
819.626	0.27
819.798	0.51
819.969	0.26
820.14	0.62
820.311	0.11
820.483	0.12
820.654	0.38
820.825	0.42
820.996	-0.01
821.168	-0.39
821.339	0.14
821.51	-0.12
821.681	1.2
821.852	0.31
822.023	-0.28
822.195	-0.1
822.366	0.48
822.537	-0.04
822.708	0.2
822.879	0.28
823.05	0.91
823.221	0.32
823.392	0.08
823.563	0.24
823.734	0.38
823.905	0.48
824.076	-0.44
824.247	0.13
824.418	-0.1
824.589	1.46
824.759	0.74
824.93	0.06
825.101	-0.16
825.272	1.26
825.443	0.7
825.614	0.98
825.784	-0.96
825.955	1.05
826.126	0.66
826.297	0.1
826.467	1.11
826.638	0.72
826.809	0.12
826.98	0.59
827.15	1.11
827.321	0.83
827.492	0.67
827.662	0.63
827.833	1.33
828.003	0.95
828.174	-0.29
828.345	-0.26
828.515	0.85
828.686	0.27
828.856	0.09
829.027	0.45
829.197	0.56
829.368	1.09
829.538	-0.01
829.709	-0.36
829.879	0.38
830.049	0.1
830.22	0.11
830.39	0.7
830.56	0.49
830.731	-0.15
830.901	0.18
831.072	0.85
831.242	0.83
831.412	-0.12
831.582	0.41
831.753	-0.18
831.923	0.8
832.093	0.32
832.263	0.32
832.434	-0.28
832.604	0.44
832.774	0.8
832.944	-0.21
833.114	0.69
833.284	0.37
833.454	-0.25
833.624	-0.28
833.795	0.34
833.965	0.96
834.135	1.12
834.305	-0.08
834.475	-0.42
834.645	-0.14
834.815	-0.06
834.985	-0.44
835.155	-0.08
835.325	0.19
835.494	0.42
835.664	0.16
835.834	-0.61
836.004	0.37
836.174	0.28
836.344	0.7
836.514	-0.07
836.684	0.28
836.853	0.43
837.023	0.29
837.193	0.06
837.363	0.57
837.532	1.45
837.702	0.29
837.872	-0.23
838.041	1.01
838.211	1.95
838.381	-0.21
838.55	0.24
838.72	1.48
838.89	1.48
839.059	0.5
839.229	-0.16
839.398	1.67
839.568	0.77
839.738	0.07
839.907	1.9
840.077	0.77
840.246	0.03
840.416	-0.02
840.585	-0.27
840.755	1.56
840.924	1.05
841.093	-0.55
841.263	0.85
841.432	0.99
841.602	-0.06
841.771	-0.45
841.94	0.54
842.11	1.8
842.279	1.09
842.448	0.32
842.617	-0.33
842.787	1.77
842.956	-0.42
843.125	0.11
843.294	0.39
843.464	1.09
843.633	1.28
843.802	0.2
843.971	0.15
844.14	0.96
844.309	0.44
844.479	-0.64
844.648	-0.22
844.817	-0.18
844.986	0.94
845.155	0.79
845.324	0.4
845.493	0.82
845.662	0.09
845.831	1.29
846	0.66
846.169	0.52
846.338	1.49
846.507	0.33
846.676	1.38
846.844	-0.36
847.013	0.73
847.182	0.23
847.351	-0.24
847.52	0.27
847.689	1.43
847.858	0.63
848.026	0.01
848.195	-0.26
848.364	0.08
848.533	-0.31
848.701	-0.12
848.87	0.47
849.039	1.84
849.207	1.26
849.376	1.83
849.545	1.55
849.713	-0.34
849.882	0.13
850.051	1.25
850.219	0.64
850.388	1.29
850.556	0.45
850.725	-0.67
850.893	0.22
851.062	-0.09
851.23	1.16
851.399	-0.98
851.567	-0.37
851.736	-0.3
851.904	-0.77
852.073	0.03
852.241	0.71
852.41	0.54
852.578	0.51
852.746	-1.32
852.915	1.04
853.083	-0.16
853.251	0.07
853.42	0.31
853.588	0.39
853.756	1.4
853.924	0.1
854.093	0.34
854.261	0.78
854.429	-0.77
854.597	0.92
854.765	-0.23
854.934	2.5
855.102	2.12
855.27	0.42
855.438	1.94
855.606	2.46
855.774	1.22
855.942	-0.97
856.11	-1.04
856.278	1.56
856.446	1.57
856.614	0.81
856.782	0.4
856.95	1.49
857.118	1.97
857.286	1.47
857.454	0.98
857.622	1.26
857.79	1.41
857.958	-0.25
858.126	0.66
858.294	-1.59
858.462	0.9
858.629	-0.79
858.797	0.51
858.965	1.67
859.133	0.15
859.301	0.35
859.468	0.33
859.636	0.6
859.804	3.01
859.971	0.94
860.139	0.34
860.307	1.72
860.474	0.09
860.642	-0.52
860.81	0.83
860.977	0.78
861.145	1.61
861.313	0.34
861.48	1.74
861.648	1.26
861.815	0.55
861.983	-0.36
862.15	0.21
862.318	1.1
862.485	2.55
862.653	-0.82
862.82	-1.47
862.988	2.07
863.155	1.11
863.322	-0.13
863.49	-0.91
863.657	1.33
863.824	2.22
863.992	0.93
864.159	2.48
864.326	3.23
864.494	0.4
864.661	4.27
864.828	-1.81
864.996	2.54
865.163	3.08
865.33	-0.05
865.497	-0.61
865.664	1.55
865.832	-0.67
865.999	-0.68
866.166	0.19
866.333	-0.17
866.5	2.5
866.667	1.81
866.834	1.33
867.001	1.87
867.168	0.61
867.335	1.52
867.502	-0.94
867.669	0.84
867.836	1.92
868.003	1
868.17	0.78
868.337	3.96
868.504	4.96
868.671	-0.32
868.838	0.3
869.005	1.22
869.172	1.52
869.339	0.45
869.505	0.39
869.672	0.34
869.839	2.24
870.006	0.36
870.173	0.77
870.339	1.35
870.506	2.43
870.673	-0.02
870.84	2.84
871.006	1.77
871.173	1.48
871.34	2.55
871.506	2.16
871.673	2.61
871.839	-1.87
872.006	0.47
872.173	1.01
872.339	2.24
872.506	2.53
872.672	1.14
872.839	-0.49
873.005	1.48
873.172	1.63
873.338	2.63
873.505	1.6
873.671	3.06
873.838	2.04
874.004	0.62
874.171	0.01
874.337	1.67
874.503	1.78
874.67	1.1
874.836	0.75
875.002	2.17
875.169	2.1
875.335	2.65
875.501	0.03
875.668	4.33
875.834	1.68
876	0.35
876.166	3.11
876.332	1.7
876.499	4.85
876.665	1.52
876.831	-0.21
876.997	2.94
877.163	2.18
877.329	1.57
877.495	1.29
877.662	3.35
877.828	2.36
877.994	1.08
878.16	0.64
878.326	1.19
878.492	1.81
878.658	0.77
878.824	2.65
878.99	2.15
879.156	0.37
879.322	3.93
879.487	1.17
879.653	2.16
879.819	2.12
879.985	1.74
880.151	3.03
880.317	2.72
880.483	-0.04
880.648	2.98
880.814	-1.48
880.98	2.67
881.146	0.67
881.312	1.08
881.477	0.46
881.643	2.78
881.809	2.93
881.974	2.17
882.14	-0.29
882.306	2.84
882.471	5.16
882.637	1.05
882.803	1.04
882.968	2.13
883.134	4.28
883.299	3.14
883.465	1.54
883.63	3.59
883.796	2.25
883.961	1.76
884.127	1.11
884.292	-3.37
884.458	-0.1
884.623	-0.1
