Data from Apollo_Calib_20240827__AbsoluteIrradiance__83__00-32-02-480.txt Node

Date: Wed Aug 28 00:32:02 BST 2024
User: biology
Spectrometer: FLMT08252
Trigger mode: 0
Integration Time (sec): 5.000000E-1
Scans to average: 5
Electric dark correction enabled: true
Nonlinearity correction enabled: false
Boxcar width: 0
XAxis mode: Wavelengths
Number of Pixels in Spectrum: 3648
>>>>>Begin Spectral Data<<<<<
179.588	-0
179.809	-0
180.03	-0
180.251	-0
180.473	-0
180.694	0
180.915	0
181.136	-0
181.357	0
181.578	-0
181.799	-0
182.02	-0
182.241	0
182.462	-0
182.683	0
182.904	0
183.125	0
183.346	0
183.567	-0
183.788	-0
184.009	-0
184.23	-0
184.451	0
184.672	-0
184.892	-0
185.113	-0
185.334	0
185.555	-0
185.776	-0
185.996	0
186.217	0
186.438	-0
186.659	-0
186.879	-0
187.1	-0
187.321	-0
187.541	-0
187.762	0
187.983	0
188.203	0
188.424	-0
188.644	0
188.865	-0
189.086	-0
189.306	0
189.527	0
189.747	-0
189.968	-0
190.188	0
190.409	0
190.629	0
190.849	-0
191.07	-0
191.29	0
191.511	-0
191.731	-0
191.951	-0
192.172	0
192.392	-0
192.612	-0
192.833	0
193.053	0
193.273	-0
193.493	-0
193.714	-0
193.934	0
194.154	0
194.374	-0
194.594	0
194.815	0
195.035	-0
195.255	-0
195.475	-0
195.695	-0
195.915	0
196.135	-0
196.355	0
196.575	0
196.795	-0
197.015	-0
197.235	-0
197.455	-0
197.675	0
197.895	-0
198.115	-0
198.335	0
198.555	-0
198.775	0
198.995	0
199.214	0
199.434	-0
199.654	-0
199.874	-0
200.094	0.32
200.313	-0.73
200.533	-0.18
200.753	-0.64
200.973	0.64
201.192	0.14
201.412	-1.31
201.632	-0.35
201.851	0.81
202.071	-0.31
202.291	-0.46
202.51	-0.86
202.73	0.36
202.95	-0.71
203.169	-0.19
203.389	-0.45
203.608	0.19
203.828	-0.72
204.047	-0.32
204.267	0.33
204.486	-0.2
204.706	0.06
204.925	-0.05
205.145	-0.33
205.364	0.41
205.583	0.69
205.803	-0.32
206.022	-0.46
206.242	0
206.461	0.02
206.68	-0.49
206.9	0.03
207.119	0.11
207.338	0.68
207.557	-0.26
207.777	-0.15
207.996	-0.18
208.215	0.3
208.434	-0.31
208.654	-0.63
208.873	0.17
209.092	0.26
209.311	-0.3
209.53	-0.04
209.749	-0.46
209.968	-0.19
210.187	-0.31
210.407	-0.61
210.626	-0.17
210.845	0.04
211.064	0.01
211.283	-0.21
211.502	0.11
211.721	-0.05
211.94	-0.25
212.159	0.15
212.377	0.08
212.596	0.26
212.815	-0.02
213.034	-0.13
213.253	0.18
213.472	0.12
213.691	-0.29
213.91	-0.17
214.128	0.03
214.347	0.45
214.566	-0.33
214.785	-0.3
215.003	0.17
215.222	0.06
215.441	0.04
215.66	-0.4
215.878	-0.07
216.097	0.24
216.316	-0.21
216.534	-0.3
216.753	-0.2
216.972	0.02
217.19	-0
217.409	-0.33
217.627	-0.22
217.846	-0.14
218.064	-0.12
218.283	-0.31
218.501	0.31
218.72	0.09
218.938	-0.17
219.157	-0.1
219.375	0.11
219.594	0.1
219.812	-0.26
220.031	-0.25
220.249	0.21
220.467	0.22
220.686	-0.18
220.904	-0.4
221.122	-0.4
221.341	0.22
221.559	-0.01
221.777	-0.36
221.995	-0.09
222.214	0.03
222.432	-0.16
222.65	0.06
222.868	0.05
223.086	-0
223.305	0.08
223.523	-0.14
223.741	0.27
223.959	-0.07
224.177	-0.29
224.395	-0.11
224.613	0.04
224.831	0.06
225.049	-0.19
225.267	-0.02
225.485	-0.07
225.703	-0.09
225.921	0.02
226.139	-0.07
226.357	0.08
226.575	-0.05
226.793	-0.17
227.011	0.36
227.229	-0.02
227.447	0.08
227.665	-0.13
227.883	-0.24
228.1	0.05
228.318	0.07
228.536	-0.19
228.754	-0.2
228.972	0.07
229.189	0.1
229.407	-0.05
229.625	-0.08
229.843	0.17
230.06	0.1
230.278	-0.06
230.496	-0.07
230.713	-0.07
230.931	0.12
231.149	-0.09
231.366	-0.21
231.584	-0.04
231.801	0.28
232.019	-0.03
232.236	-0.23
232.454	-0.18
232.671	0.05
232.889	0.03
233.106	-0.24
233.324	0
233.541	0
233.759	-0.06
233.976	-0.11
234.194	-0
234.411	-0.1
234.628	-0.19
234.846	-0.01
235.063	-0.07
235.28	-0.13
235.498	0.01
235.715	-0.2
235.932	0
236.149	-0.02
236.367	-0.09
236.584	-0.02
236.801	-0.11
237.018	-0.01
237.236	-0.06
237.453	-0.14
237.67	0.12
237.887	-0.11
238.104	-0.06
238.321	-0.08
238.538	-0.16
238.755	0.09
238.973	-0.1
239.19	0.03
239.407	0.01
239.624	0
239.841	-0.26
240.058	-0.15
240.275	0.05
240.492	-0.04
240.709	-0.05
240.925	-0.08
241.142	0.06
241.359	-0.19
241.576	-0.1
241.793	-0
242.01	-0.06
242.227	0.01
242.444	0.05
242.66	0.09
242.877	0.07
243.094	-0.2
243.311	-0.02
243.527	-0.09
243.744	-0.04
243.961	-0
244.178	-0.05
244.394	-0.05
244.611	0.09
244.828	0.17
245.044	-0.11
245.261	-0.07
245.477	0.02
245.694	-0.1
245.911	-0.09
246.127	-0.02
246.344	0.11
246.56	0.06
246.777	-0.05
246.993	-0.01
247.21	0.01
247.426	-0.04
247.643	-0.04
247.859	-0.16
248.076	-0.01
248.292	0.15
248.508	-0.05
248.725	0
248.941	0.04
249.157	0.11
249.374	-0.14
249.59	-0.06
249.806	-0.07
250.023	-0.01
250.239	-0.1
250.455	-0.13
250.671	-0
250.888	-0.01
251.104	0.04
251.32	-0.05
251.536	-0.03
251.752	-0.08
251.969	0.02
252.185	-0.02
252.401	0.13
252.617	0.03
252.833	-0.09
253.049	0.02
253.265	-0.03
253.481	0.05
253.697	-0.09
253.913	-0.11
254.129	-0.04
254.345	0.01
254.561	-0.08
254.777	-0.04
254.993	0.04
255.209	0.02
255.425	0.01
255.641	-0.07
255.857	0.05
256.073	-0.07
256.288	-0.12
256.504	-0.05
256.72	0.01
256.936	0.13
257.152	-0.08
257.367	-0.06
257.583	0
257.799	0.06
258.015	-0.15
258.23	-0.05
258.446	0.06
258.662	-0.02
258.877	-0.05
259.093	-0.08
259.309	-0.08
259.524	-0.04
259.74	0
259.955	-0.16
260.171	-0.03
260.387	-0.03
260.602	0.11
260.818	0.01
261.033	-0.05
261.249	-0.08
261.464	-0.03
261.68	-0.1
261.895	0.04
262.11	0.03
262.326	0.01
262.541	-0.05
262.757	0.04
262.972	-0
263.187	-0.05
263.403	-0
263.618	0.01
263.833	-0.03
264.049	-0.06
264.264	0.01
264.479	-0.01
264.694	0.08
264.91	-0.08
265.125	-0.06
265.34	-0.01
265.555	0.12
265.77	0.06
265.986	-0.02
266.201	0.01
266.416	0.09
266.631	-0.03
266.846	-0.05
267.061	-0.05
267.276	-0.03
267.491	-0.16
267.706	0.01
267.921	0.04
268.136	0
268.351	-0.02
268.566	-0.1
268.781	0.06
268.996	-0.01
269.211	-0.02
269.426	-0.13
269.641	-0.05
269.856	0.05
270.071	-0.03
270.285	-0.09
270.5	0.02
270.715	0.04
270.93	-0.01
271.145	-0.01
271.359	0.03
271.574	-0.03
271.789	-0.07
272.004	-0.05
272.218	-0.05
272.433	0.01
272.648	-0.02
272.862	0.04
273.077	-0.06
273.292	-0.04
273.506	-0.07
273.721	-0.03
273.936	0.01
274.15	0.08
274.365	-0.06
274.579	0
274.794	0.03
275.008	0.05
275.223	-0.08
275.437	-0.01
275.652	0.06
275.866	-0.02
276.081	-0.05
276.295	0.06
276.509	-0.02
276.724	-0.02
276.938	0
277.153	0.05
277.367	0.01
277.581	-0.05
277.796	-0.01
278.01	-0.05
278.224	0.04
278.438	0.11
278.653	-0.1
278.867	-0.02
279.081	-0.19
279.295	-0.03
279.51	0.03
279.724	-0.12
279.938	0.01
280.152	0.01
280.366	-0.05
280.58	-0.03
280.794	0.05
281.008	0.03
281.222	0.03
281.437	0.09
281.651	-0.05
281.865	0.08
282.079	-0.02
282.293	-0.06
282.507	0
282.721	-0.03
282.935	-0.03
283.148	-0.13
283.362	-0
283.576	-0.09
283.79	-0.02
284.004	-0.06
284.218	0.06
284.432	-0.04
284.646	-0.05
284.859	-0.04
285.073	-0.06
285.287	0
285.501	-0.01
285.714	-0.01
285.928	-0.03
286.142	-0.01
286.356	-0.04
286.569	-0.04
286.783	0.02
286.997	0.02
287.21	-0.01
287.424	0.04
287.637	0
287.851	-0.04
288.065	0.01
288.278	0.01
288.492	-0.02
288.705	-0.01
288.919	0.01
289.132	-0.07
289.346	-0
289.559	-0.09
289.773	-0.04
289.986	-0.02
290.2	-0
290.413	0.09
290.626	-0.06
290.84	-0.06
291.053	-0.02
291.267	0.04
291.48	-0
291.693	-0.02
291.906	-0.04
292.12	-0.02
292.333	-0.01
292.546	0
292.76	0.04
292.973	-0.05
293.186	0.07
293.399	-0.02
293.612	0.02
293.826	0.01
294.039	0.01
294.252	-0.01
294.465	0.01
294.678	0.02
294.891	-0.02
295.104	-0.04
295.317	-0.02
295.53	0.01
295.743	-0
295.956	-0.05
296.169	0.03
296.382	0.03
296.595	0.02
296.808	-0.07
297.021	0.01
297.234	0.07
297.447	-0.01
297.66	0.02
297.873	0.02
298.086	0.01
298.299	-0.02
298.511	-0.11
298.724	-0.01
298.937	-0.03
299.15	-0.03
299.363	0.05
299.575	0.03
299.788	0.01
300.001	-0
300.213	-0.06
300.426	0.01
300.639	-0.01
300.852	-0.07
301.064	0.01
301.277	0.08
301.489	0.04
301.702	0.04
301.915	-0.01
302.127	-0.04
302.34	0.07
302.552	0.01
302.765	-0.04
302.977	-0.02
303.19	-0.05
303.402	-0.04
303.615	-0.01
303.827	-0.01
304.04	-0.01
304.252	0.02
304.464	-0.01
304.677	0.05
304.889	-0.03
305.102	0
305.314	-0.04
305.526	0.04
305.739	0.04
305.951	-0.02
306.163	-0.03
306.375	0.08
306.588	-0.05
306.8	-0.05
307.012	-0.07
307.224	-0.01
307.436	0.06
307.649	-0.08
307.861	0.02
308.073	0.05
308.285	-0.04
308.497	-0.03
308.709	-0.01
308.921	0.03
309.133	0.05
309.346	-0.03
309.558	-0.04
309.77	0.04
309.982	0.06
310.194	0.04
310.406	-0.01
310.617	0.06
310.829	0.03
311.041	0.03
311.253	-0.02
311.465	0.04
311.677	-0.01
311.889	-0.02
312.101	-0.05
312.313	0
312.524	0.03
312.736	-0.04
312.948	0
313.16	0.07
313.372	0.01
313.583	-0.01
313.795	-0.03
314.007	-0.04
314.218	0.05
314.43	-0.05
314.642	-0.03
314.853	-0.08
315.065	-0.01
315.277	-0.04
315.488	0.03
315.7	0.06
315.912	-0
316.123	0.03
316.335	0
316.546	0.03
316.758	-0.01
316.969	-0.02
317.181	0.03
317.392	-0.03
317.604	0.06
317.815	-0.08
318.026	-0.05
318.238	-0.01
318.449	-0.01
318.661	-0.07
318.872	-0.03
319.083	-0.06
319.295	0.04
319.506	-0.07
319.717	0.03
319.929	0
320.14	0
320.351	0.02
320.562	-0.05
320.774	-0.04
320.985	-0.02
321.196	-0.04
321.407	-0
321.618	0.05
321.829	0
322.041	0.03
322.252	0.04
322.463	0.01
322.674	0.02
322.885	-0.03
323.096	-0.03
323.307	0.01
323.518	-0.05
323.729	-0.04
323.94	-0.02
324.151	-0.01
324.362	-0.06
324.573	0.02
324.784	-0.01
324.995	0.03
325.206	-0.01
325.417	-0.04
325.628	-0.05
325.838	0.01
326.049	0.01
326.26	0.01
326.471	-0.02
326.682	-0.02
326.892	-0.04
327.103	-0.06
327.314	-0.05
327.525	0.05
327.735	-0
327.946	-0.07
328.157	-0
328.368	0.01
328.578	0.01
328.789	-0.02
328.999	0.03
329.21	-0.07
329.421	0.02
329.631	-0.04
329.842	-0.02
330.052	0.05
330.263	0.02
330.473	0.02
330.684	-0.03
330.894	-0.02
331.105	-0.01
331.315	-0.01
331.526	-0.06
331.736	0.07
331.947	0.01
332.157	0.01
332.367	-0.03
332.578	-0
332.788	-0.01
332.999	0.03
333.209	0.02
333.419	-0.08
333.629	0.01
333.84	0.02
334.05	-0.02
334.26	0.06
334.47	0.01
334.681	0.05
334.891	-0.01
335.101	-0.02
335.311	0.08
335.521	0.03
335.732	-0.06
335.942	0.06
336.152	0.01
336.362	0.02
336.572	-0
336.782	0
336.992	-0.03
337.202	-0.01
337.412	-0.05
337.622	0
337.832	-0
338.042	-0.02
338.252	-0.04
338.462	0.01
338.672	-0.01
338.882	-0.04
339.092	0
339.302	0.05
339.511	0.03
339.721	-0.08
339.931	-0
340.141	0.03
340.351	0.07
340.561	-0.04
340.77	-0.01
340.98	0
341.19	0.04
341.4	-0.03
341.609	-0.05
341.819	-0.04
342.029	-0.08
342.238	0.01
342.448	-0.02
342.658	0.02
342.867	0.02
343.077	-0.02
343.286	0.04
343.496	0.02
343.706	0.03
343.915	-0.06
344.125	0.02
344.334	0.02
344.544	-0.09
344.753	-0.03
344.963	-0.05
345.172	-0.05
345.381	-0.03
345.591	-0.06
345.8	0.04
346.01	0.05
346.219	0.02
346.428	-0.15
346.638	0.01
346.847	0
347.056	0.06
347.266	-0.02
347.475	0.02
347.684	0
347.893	0.07
348.103	-0.01
348.312	-0.02
348.521	-0.01
348.73	-0.01
348.94	0.01
349.149	-0.04
349.358	-0.02
349.567	-0.03
349.776	-0.02
349.985	-0.02
350.194	0.05
350.403	0.04
350.612	-0.04
350.821	-0.03
351.03	-0.03
351.239	-0.06
351.448	0.01
351.657	-0.01
351.866	0.07
352.075	-0.02
352.284	0.07
352.493	-0.06
352.702	0.07
352.911	0.01
353.12	0.02
353.329	-0
353.538	0.01
353.746	0.02
353.955	0.01
354.164	0.05
354.373	-0.02
354.582	0.05
354.79	0.02
354.999	0.05
355.208	-0.03
355.416	0.06
355.625	-0.02
355.834	-0.04
356.042	0.02
356.251	-0.01
356.46	-0.04
356.668	0.01
356.877	0.05
357.085	0.01
357.294	-0.09
357.503	-0.03
357.711	-0
357.92	0.11
358.128	0.01
358.337	-0.04
358.545	0.01
358.754	-0
358.962	0.03
359.17	0
359.379	-0.01
359.587	0.02
359.796	0
360.004	0.05
360.212	0.03
360.421	0.05
360.629	-0.01
360.837	-0.02
361.046	0.01
361.254	0.08
361.462	-0.01
361.67	-0.01
361.879	-0.03
362.087	0.06
362.295	0.01
362.503	-0
362.711	-0.04
362.92	-0.03
363.128	-0.05
363.336	-0.07
363.544	-0.05
363.752	-0.03
363.96	-0.04
364.168	-0.01
364.376	-0.04
364.584	0.02
364.792	0.01
365	0.06
365.208	0.04
365.416	-0.02
365.624	0.02
365.832	-0.01
366.04	0.05
366.248	0.05
366.456	0.01
366.664	0.01
366.872	-0.02
367.079	-0
367.287	0.02
367.495	0.01
367.703	0.01
367.911	0.03
368.118	-0
368.326	-0
368.534	-0.01
368.742	0.08
368.949	-0.01
369.157	0.01
369.365	0.05
369.572	0.07
369.78	-0.01
369.988	0.08
370.195	0.07
370.403	0.07
370.61	0.05
370.818	0.1
371.026	0.12
371.233	0.04
371.441	0.12
371.648	0.07
371.856	0.11
372.063	0.13
372.271	0.14
372.478	0.13
372.685	0.13
372.893	0.18
373.1	0.16
373.308	0.19
373.515	0.26
373.722	0.25
373.93	0.21
374.137	0.25
374.344	0.3
374.552	0.31
374.759	0.29
374.966	0.29
375.173	0.28
375.381	0.35
375.588	0.36
375.795	0.29
376.002	0.38
376.209	0.39
376.417	0.42
376.624	0.47
376.831	0.49
377.038	0.49
377.245	0.43
377.452	0.51
377.659	0.55
377.866	0.55
378.073	0.62
378.28	0.68
378.487	0.72
378.694	0.76
378.901	0.78
379.108	0.82
379.315	0.89
379.522	0.94
379.729	0.95
379.936	0.93
380.143	1.02
380.35	1.04
380.557	1.1
380.763	1.11
380.97	1.13
381.177	1.19
381.384	1.23
381.591	1.26
381.797	1.27
382.004	1.35
382.211	1.36
382.418	1.33
382.624	1.37
382.831	1.31
383.038	1.33
383.244	1.27
383.451	1.3
383.658	1.26
383.864	1.22
384.071	1.1
384.277	1.21
384.484	1.09
384.69	1.11
384.897	1.03
385.103	0.99
385.31	0.94
385.516	0.91
385.723	0.8
385.929	0.83
386.136	0.8
386.342	0.78
386.549	0.73
386.755	0.75
386.961	0.74
387.168	0.66
387.374	0.59
387.58	0.64
387.787	0.57
387.993	0.58
388.199	0.51
388.406	0.5
388.612	0.44
388.818	0.39
389.024	0.4
389.231	0.42
389.437	0.5
389.643	0.4
389.849	0.34
390.055	0.37
390.261	0.37
390.467	0.39
390.674	0.32
390.88	0.32
391.086	0.34
391.292	0.28
391.498	0.36
391.704	0.3
391.91	0.23
392.116	0.21
392.322	0.21
392.528	0.26
392.734	0.24
392.94	0.27
393.146	0.22
393.352	0.23
393.557	0.23
393.763	0.2
393.969	0.24
394.175	0.13
394.381	0.17
394.587	0.15
394.792	0.14
394.998	0.24
395.204	0.23
395.41	0.14
395.615	0.18
395.821	0.14
396.027	0.18
396.233	0.1
396.438	0.17
396.644	0.23
396.85	0.14
397.055	0.11
397.261	0.12
397.466	0.2
397.672	0.13
397.878	0.14
398.083	0.13
398.289	0.05
398.494	0.21
398.7	0.11
398.905	0.03
399.111	0.15
399.316	0.06
399.522	0.14
399.727	0.09
399.932	0.06
400.138	0.07
400.343	0.07
400.549	0.08
400.754	0.09
400.959	0.04
401.165	0.06
401.37	0.08
401.575	0.17
401.78	0.07
401.986	0.02
402.191	0.06
402.396	0.04
402.601	0.09
402.807	0.07
403.012	0.05
403.217	0.09
403.422	0.04
403.627	0.04
403.832	0.01
404.037	0.03
404.243	0.06
404.448	0.01
404.653	0.07
404.858	0.04
405.063	0.04
405.268	0.04
405.473	-0
405.678	-0.01
405.883	0.16
406.088	0.07
406.293	-0.02
406.498	0.04
406.703	0.04
406.907	0.01
407.112	-0
407.317	0.05
407.522	0.07
407.727	-0.01
407.932	0.01
408.136	0.12
408.341	0.01
408.546	0.07
408.751	0.04
408.956	-0.02
409.16	0.07
409.365	0.03
409.57	0.03
409.774	0.05
409.979	0.08
410.184	0.02
410.388	-0.02
410.593	0.06
410.798	0.05
411.002	-0.01
411.207	0.03
411.411	0.01
411.616	-0.05
411.82	-0.01
412.025	0.05
412.229	-0.02
412.434	0.09
412.638	0.04
412.843	-0.01
413.047	0.06
413.252	0
413.456	-0.01
413.66	0.03
413.865	-0.05
414.069	0.07
414.273	-0
414.478	-0.01
414.682	0.01
414.886	-0.04
415.091	-0.03
415.295	-0.03
415.499	0.04
415.703	0.01
415.908	0.04
416.112	-0.07
416.316	0.08
416.52	-0.06
416.724	-0.03
416.929	-0.01
417.133	0.09
417.337	-0.01
417.541	-0.04
417.745	-0.01
417.949	0.02
418.153	0
418.357	-0.04
418.561	0.08
418.765	0.01
418.969	0.09
419.173	0.06
419.377	-0.03
419.581	0.05
419.785	-0.05
419.989	-0.09
420.193	0.01
420.397	0.03
420.601	0.08
420.804	-0
421.008	0.04
421.212	0.01
421.416	0.05
421.62	-0.04
421.823	-0.04
422.027	0.07
422.231	0
422.435	-0.03
422.638	0.05
422.842	-0.02
423.046	-0.04
423.249	0.05
423.453	0.04
423.657	0.01
423.86	0.02
424.064	-0.01
424.268	0.07
424.471	-0.04
424.675	0.1
424.878	0.09
425.082	0
425.285	-0.01
425.489	0.04
425.692	-0
425.896	-0.03
426.099	0.02
426.303	-0.02
426.506	-0.06
426.71	0.03
426.913	0.06
427.116	0.06
427.32	-0.03
427.523	0.03
427.726	0.09
427.93	0.01
428.133	-0.04
428.336	-0.07
428.54	-0.01
428.743	0.04
428.946	0.04
429.149	0
429.353	0.01
429.556	0.01
429.759	-0.02
429.962	0.01
430.165	0
430.368	-0.01
430.571	0.03
430.775	0.04
430.978	-0.01
431.181	0.04
431.384	0.02
431.587	-0.03
431.79	0.02
431.993	0.04
432.196	0.02
432.399	0.02
432.602	0.05
432.805	-0.02
433.008	0.01
433.211	-0.04
433.414	0.04
433.616	0.02
433.819	0
434.022	-0.08
434.225	0.1
434.428	0
434.631	0.07
434.833	0.06
435.036	0.01
435.239	0.07
435.442	-0
435.645	-0.02
435.847	0.05
436.05	0.01
436.253	0.01
436.455	-0.07
436.658	0.03
436.861	0.09
437.063	-0.02
437.266	0.01
437.468	0.05
437.671	0.15
437.874	0.04
438.076	-0.01
438.279	-0.01
438.481	0.01
438.684	0.01
438.886	0.07
439.089	-0.03
439.291	0.02
439.494	0.06
439.696	-0.02
439.899	0.06
440.101	0.03
440.303	-0.07
440.506	0.04
440.708	0.01
440.91	0.06
441.113	-0.05
441.315	0.06
441.517	0
441.72	0.04
441.922	-0.01
442.124	-0.09
442.326	0.04
442.529	0.06
442.731	-0.01
442.933	0.1
443.135	0.02
443.337	0.03
443.539	0.04
443.742	0.01
443.944	0.03
444.146	0.03
444.348	0.01
444.55	0
444.752	0.05
444.954	0.01
445.156	0.04
445.358	0.05
445.56	0.14
445.762	0.06
445.964	0.06
446.166	0.02
446.368	0.03
446.57	0.11
446.772	0.08
446.974	0.02
447.175	0.05
447.377	0.04
447.579	0.04
447.781	0.04
447.983	0.15
448.184	0.05
448.386	0.12
448.588	0.02
448.79	0.06
448.991	0.03
449.193	0.04
449.395	0.08
449.597	0.06
449.798	0.09
450	0.07
450.202	0.12
450.403	0.07
450.605	0.11
450.806	0.09
451.008	-0.01
451.21	0.03
451.411	0.07
451.613	0.06
451.814	0.02
452.016	0.11
452.217	0.12
452.419	0.1
452.62	0.06
452.821	0.08
453.023	0.15
453.224	0.06
453.426	0.04
453.627	0.03
453.828	0.09
454.03	0.06
454.231	0.13
454.432	0.04
454.634	0.11
454.835	0.06
455.036	0.01
455.238	0.07
455.439	0.16
455.64	-0.02
455.841	0
456.042	0.14
456.244	0.09
456.445	0.03
456.646	-0.02
456.847	0.01
457.048	0.08
457.249	0.12
457.45	0.24
457.651	-0.02
457.852	0.05
458.054	0.04
458.255	0.03
458.456	0.08
458.657	-0
458.858	0.03
459.058	0.03
459.259	0.07
459.46	0.03
459.661	0.03
459.862	0.08
460.063	0.03
460.264	0.08
460.465	-0.02
460.666	0.11
460.866	0.01
461.067	0.04
461.268	0.07
461.469	0.02
461.67	0.01
461.87	-0.01
462.071	0.02
462.272	-0.05
462.473	0.02
462.673	0.04
462.874	-0.01
463.075	0.01
463.275	-0.04
463.476	0.06
463.676	0
463.877	-0.01
464.078	-0.01
464.278	0.1
464.479	-0.03
464.679	0.01
464.88	0.03
465.08	0.11
465.281	0.01
465.481	0.02
465.682	0.02
465.882	0.07
466.083	0.06
466.283	-0.02
466.483	0.01
466.684	-0.04
466.884	0.01
467.085	-0.05
467.285	0.05
467.485	-0.04
467.686	0
467.886	-0
468.086	-0.01
468.286	0.04
468.487	0.01
468.687	-0.07
468.887	0.01
469.087	0.02
469.287	-0.01
469.488	-0.03
469.688	-0.02
469.888	0.07
470.088	0.01
470.288	0.07
470.488	0.07
470.688	-0.07
470.888	-0.01
471.088	-0
471.288	0.02
471.488	0.02
471.688	0.03
471.888	-0.02
472.088	0.06
472.288	0.03
472.488	-0.02
472.688	-0.03
472.888	0.05
473.088	0
473.288	-0.01
473.488	-0.02
473.688	0.06
473.887	0.02
474.087	-0.05
474.287	0.01
474.487	-0.04
474.687	0.03
474.886	0.01
475.086	0.02
475.286	0.01
475.486	0
475.685	-0.02
475.885	-0.03
476.085	0.03
476.284	0.02
476.484	-0.03
476.684	0.05
476.883	0.03
477.083	0.03
477.282	0
477.482	0.06
477.681	0.06
477.881	0.05
478.08	-0.02
478.28	-0.03
478.479	-0.01
478.679	0.07
478.878	-0.03
479.078	-0.03
479.277	-0.02
479.477	-0.01
479.676	0.05
479.875	-0.01
480.075	-0.06
480.274	0.03
480.473	-0.01
480.673	-0.02
480.872	0.02
481.071	0.01
481.271	0.03
481.47	-0.01
481.669	0.01
481.868	-0.02
482.067	-0.03
482.267	-0.03
482.466	-0.03
482.665	-0.03
482.864	-0.06
483.063	-0.04
483.262	0.02
483.461	0.07
483.661	0.03
483.86	-0.01
484.059	0.02
484.258	0
484.457	-0.03
484.656	0.01
484.855	0.03
485.054	-0.03
485.253	-0
485.452	-0.04
485.651	-0.01
485.849	-0.01
486.048	-0.03
486.247	-0.04
486.446	-0.01
486.645	-0.03
486.844	-0.04
487.043	-0
487.241	0.01
487.44	-0.03
487.639	-0.01
487.838	0.02
488.037	-0.04
488.235	0.05
488.434	0.01
488.633	-0.03
488.831	-0
489.03	0.03
489.229	0.03
489.427	-0
489.626	0.03
489.825	0.07
490.023	0
490.222	-0.01
490.42	0.03
490.619	0.02
490.817	0.01
491.016	-0
491.214	0.02
491.413	-0.01
491.611	-0.01
491.81	-0.01
492.008	0.01
492.207	0.03
492.405	0.01
492.604	-0.03
492.802	-0.03
493	-0.01
493.199	-0.01
493.397	-0
493.595	-0.02
493.794	-0.02
493.992	0.06
494.19	0.01
494.388	0.01
494.587	-0.01
494.785	-0.02
494.983	-0.02
495.181	0
495.379	-0.01
495.578	-0
495.776	0.01
495.974	0.01
496.172	-0.03
496.37	-0.03
496.568	-0.02
496.766	-0.02
496.964	0.01
497.162	0
497.36	-0.01
497.558	0.03
497.756	0.03
497.954	-0.02
498.152	-0.02
498.35	-0
498.548	0.01
498.746	-0.01
498.944	-0.03
499.142	-0.03
499.34	-0.02
499.538	-0
499.736	-0.01
499.933	0.01
500.131	0.02
500.329	0
500.527	0.05
500.725	0.04
500.922	0.02
501.12	-0.01
501.318	0.02
501.516	-0.04
501.713	0.01
501.911	-0.01
502.109	-0.04
502.306	0.01
502.504	-0.02
502.701	-0.02
502.899	-0
503.097	0.04
503.294	-0.01
503.492	-0.03
503.689	-0
503.887	0.03
504.084	0.06
504.282	-0
504.479	-0.04
504.677	-0.02
504.874	-0.03
505.072	0.01
505.269	0
505.466	0
505.664	-0.01
505.861	-0.06
506.059	-0
506.256	0.02
506.453	-0.01
506.651	0.03
506.848	0
507.045	0
507.242	-0.01
507.44	-0.01
507.637	-0.02
507.834	0.01
508.031	0.02
508.229	-0.02
508.426	-0.03
508.623	0.02
508.82	-0.03
509.017	-0
509.214	-0
509.411	-0.02
509.608	-0.04
509.805	-0.02
510.003	-0.03
510.2	-0.03
510.397	0.04
510.594	-0.01
510.791	-0.01
510.988	0.01
511.184	0.02
511.381	0.01
511.578	-0.03
511.775	0
511.972	-0.02
512.169	-0.01
512.366	0
512.563	0.03
512.76	-0.01
512.956	0.01
513.153	-0.02
513.35	0.02
513.547	-0.01
513.744	-0.02
513.94	-0.02
514.137	0
514.334	0.01
514.53	0.01
514.727	-0.02
514.924	0.01
515.12	-0
515.317	-0.04
515.514	-0.01
515.71	-0.04
515.907	-0.02
516.103	-0
516.3	0
516.497	0.01
516.693	0.01
516.89	-0.01
517.086	-0.04
517.283	-0
517.479	0.01
517.676	-0
517.872	-0.01
518.068	-0.01
518.265	-0.01
518.461	-0.03
518.658	-0.04
518.854	-0.01
519.05	-0.01
519.247	-0
519.443	0.01
519.639	0.02
519.836	-0.02
520.032	0.01
520.228	0.02
520.424	0.03
520.621	0.02
520.817	-0.01
521.013	0.01
521.209	-0.01
521.405	0.05
521.601	0.01
521.798	-0
521.994	0.02
522.19	-0.01
522.386	-0.03
522.582	-0.02
522.778	-0.02
522.974	-0
523.17	-0.01
523.366	0
523.562	0.02
523.758	0
523.954	-0.03
524.15	0
524.346	0.01
524.542	-0.02
524.738	-0.03
524.934	-0.02
525.129	-0
525.325	0.01
525.521	-0.01
525.717	0.01
525.913	0
526.109	-0
526.304	0
526.5	0.01
526.696	0
526.892	-0.01
527.087	-0
527.283	-0.03
527.479	0.01
527.674	-0.02
527.87	-0.01
528.066	0
528.261	0.02
528.457	0
528.653	-0.01
528.848	-0.01
529.044	-0
529.239	-0.02
529.435	0.02
529.63	-0.01
529.826	0.03
530.021	-0.01
530.217	0.01
530.412	-0.02
530.608	-0
530.803	0.03
530.999	-0.01
531.194	-0.04
531.389	0.01
531.585	-0.04
531.78	-0.01
531.975	-0
532.171	0.01
532.366	-0.01
532.561	-0.01
532.757	-0.02
532.952	-0.01
533.147	-0.01
533.342	0.01
533.538	-0.01
533.733	0.02
533.928	-0.02
534.123	-0.01
534.318	-0.04
534.513	0.02
534.709	0.01
534.904	-0.02
535.099	-0.01
535.294	-0
535.489	-0.01
535.684	0
535.879	-0.05
536.074	0
536.269	-0.02
536.464	0
536.659	-0
536.854	-0.01
537.049	-0.01
537.244	-0
537.439	-0.03
537.634	0.02
537.828	-0
538.023	-0.02
538.218	-0.02
538.413	0
538.608	-0.01
538.803	0.01
538.997	-0.03
539.192	0.02
539.387	0.01
539.582	-0.02
539.776	0
539.971	-0.01
540.166	-0.02
540.36	-0.02
540.555	0
540.75	-0.01
540.944	-0.01
541.139	-0.03
541.334	-0.01
541.528	-0
541.723	0.02
541.917	-0.01
542.112	-0.04
542.306	-0.01
542.501	-0.03
542.695	-0.02
542.89	-0.04
543.084	-0
543.279	-0.02
543.473	-0
543.668	-0.01
543.862	-0.03
544.056	0.01
544.251	0
544.445	0
544.64	-0.03
544.834	-0.03
545.028	0.02
545.222	-0.01
545.417	0.01
545.611	-0
545.805	0
546	-0.01
546.194	0
546.388	0
546.582	0.01
546.776	-0
546.97	0
547.165	0
547.359	-0
547.553	-0.03
547.747	0
547.941	-0.01
548.135	0
548.329	0.03
548.523	-0.01
548.717	-0.02
548.911	-0.03
549.105	0.01
549.299	-0.01
549.493	0.02
549.687	0.01
549.881	0.02
550.075	-0.02
550.269	-0.01
550.463	0.03
550.657	-0.01
550.85	0.01
551.044	-0.01
551.238	0.01
551.432	-0.02
551.626	-0.03
551.82	0
552.013	-0.03
552.207	0.01
552.401	-0.01
552.594	0.01
552.788	-0.02
552.982	-0.01
553.176	-0.01
553.369	0.01
553.563	0.01
553.756	-0.06
553.95	-0.03
554.144	-0.03
554.337	0.02
554.531	-0.01
554.724	-0.01
554.918	-0.01
555.111	0.03
555.305	-0.01
555.498	0.05
555.692	0.02
555.885	-0.03
556.079	0.01
556.272	-0.02
556.466	0.04
556.659	0.01
556.852	-0.02
557.046	-0.01
557.239	0.01
557.432	-0.04
557.626	-0.02
557.819	0
558.012	0.04
558.206	0.02
558.399	0.01
558.592	0.01
558.785	-0.02
558.979	0.03
559.172	-0.01
559.365	0
559.558	0.01
559.751	-0.01
559.944	0.01
560.138	-0.01
560.331	0.01
560.524	-0.01
560.717	-0
560.91	-0.01
561.103	0.02
561.296	-0.01
561.489	0.01
561.682	0.01
561.875	0.03
562.068	0.02
562.261	0.02
562.454	0.03
562.647	-0
562.84	-0
563.032	-0.01
563.225	0.01
563.418	-0.01
563.611	-0.02
563.804	0
563.997	-0.03
564.19	-0.05
564.382	0
564.575	-0
564.768	0
564.961	-0.01
565.153	0
565.346	0.03
565.539	0.02
565.731	0
565.924	0.01
566.117	0.01
566.309	-0.02
566.502	-0.03
566.695	0.01
566.887	-0
567.08	-0.02
567.272	-0.01
567.465	-0.04
567.657	0.02
567.85	0.02
568.042	0.01
568.235	0.03
568.427	0.01
568.62	-0.01
568.812	0.02
569.005	0
569.197	-0.02
569.389	0.01
569.582	-0.01
569.774	0.01
569.966	-0.04
570.159	-0.04
570.351	0.01
570.543	-0.02
570.736	-0.01
570.928	-0.04
571.12	0
571.312	-0.01
571.505	-0.01
571.697	0.05
571.889	-0.01
572.081	-0.02
572.273	-0.02
572.465	0.02
572.658	0
572.85	0
573.042	-0.02
573.234	0
573.426	0.03
573.618	-0.02
573.81	0.02
574.002	0.04
574.194	0.03
574.386	-0.06
574.578	-0.07
574.77	-0.02
574.962	-0.03
575.154	-0.04
575.346	0.02
575.538	0
575.729	-0.04
575.921	-0.03
576.113	-0.03
576.305	0.05
576.497	-0.02
576.689	0
576.88	-0.02
577.072	-0
577.264	-0.01
577.456	0
577.647	-0.06
577.839	0.01
578.031	0.02
578.223	-0.04
578.414	-0.03
578.606	-0.01
578.798	-0.01
578.989	-0.01
579.181	-0
579.372	0.02
579.564	-0.02
579.755	-0.01
579.947	0
580.139	0.02
580.33	-0.04
580.522	-0.02
580.713	-0.07
580.905	0.01
581.096	0.02
581.287	-0.01
581.479	-0
581.67	0
581.862	-0
582.053	-0.04
582.244	-0.05
582.436	-0.03
582.627	-0.01
582.818	-0.03
583.01	-0.05
583.201	0.02
583.392	0.02
583.583	-0
583.775	-0.01
583.966	-0.02
584.157	-0.02
584.348	-0.02
584.54	-0.02
584.731	0.02
584.922	-0
585.113	-0.02
585.304	0
585.495	0.04
585.686	-0.01
585.877	0.03
586.068	0.01
586.259	0.01
586.45	0.02
586.641	-0.03
586.832	-0.06
587.023	0.01
587.214	-0.01
587.405	-0.02
587.596	-0.04
587.787	0.01
587.978	0.01
588.169	-0.03
588.36	-0.03
588.551	0.02
588.742	-0.02
588.932	-0.01
589.123	0.01
589.314	-0
589.505	0.02
589.696	0.01
589.886	-0.01
590.077	-0.05
590.268	-0.01
590.458	-0.03
590.649	-0.04
590.84	0.03
591.03	-0.03
591.221	-0.05
591.412	-0.04
591.602	0
591.793	0.02
591.984	-0.03
592.174	-0.01
592.365	0.03
592.555	-0.04
592.746	0.01
592.936	-0.02
593.127	0.01
593.317	0.01
593.508	-0.03
593.698	-0.01
593.889	0
594.079	-0.02
594.269	-0.02
594.46	-0
594.65	-0.01
594.84	0
595.031	-0.03
595.221	-0.01
595.411	-0.04
595.602	0.01
595.792	-0.01
595.982	-0.03
596.172	0.05
596.363	-0.02
596.553	-0
596.743	0
596.933	-0.02
597.123	0.03
597.314	-0.04
597.504	-0.04
597.694	0.01
597.884	0.02
598.074	-0.01
598.264	-0.03
598.454	0.03
598.644	-0
598.834	-0.02
599.024	-0.05
599.214	-0.01
599.404	0
599.594	-0.01
599.784	-0.05
599.974	0.02
600.164	-0.02
600.354	-0.04
600.544	-0.05
600.734	0
600.924	0.03
601.114	-0.04
601.303	-0
601.493	0.01
601.683	-0.03
601.873	-0.02
602.063	-0.03
602.252	0.02
602.442	-0.06
602.632	-0.04
602.821	-0.04
603.011	0.01
603.201	-0.02
603.39	-0.02
603.58	-0.04
603.77	-0.02
603.959	0.04
604.149	0.02
604.339	-0.01
604.528	0.01
604.718	0.03
604.907	-0.03
605.097	-0.02
605.286	0.03
605.476	0.01
605.665	-0.01
605.855	0
606.044	0.06
606.234	-0.01
606.423	-0.02
606.612	-0.05
606.802	0
606.991	0
607.181	-0.01
607.37	-0.05
607.559	-0.04
607.749	-0.03
607.938	-0.02
608.127	-0.02
608.316	-0.03
608.506	0.02
608.695	-0.01
608.884	-0.02
609.073	-0.02
609.263	0.02
609.452	0.02
609.641	-0
609.83	-0.03
610.019	-0.05
610.208	-0.02
610.397	-0.01
610.586	-0.02
610.775	-0.04
610.965	-0.04
611.154	-0.02
611.343	-0.01
611.532	-0
611.721	-0.03
611.91	-0.01
612.099	0
612.287	-0.01
612.476	-0.06
612.665	0
612.854	-0.03
613.043	0.01
613.232	-0.03
613.421	-0.04
613.61	-0.01
613.798	-0.02
613.987	0.01
614.176	0.02
614.365	0.01
614.554	0.01
614.742	-0
614.931	-0.02
615.12	0.03
615.309	-0.01
615.497	0
615.686	-0.01
615.875	0
616.063	-0.02
616.252	-0.02
616.44	-0.01
616.629	-0.01
616.818	0.03
617.006	0.01
617.195	-0.02
617.383	-0.01
617.572	-0
617.76	-0.02
617.949	-0.02
618.137	0.01
618.326	0.02
618.514	-0.02
618.703	-0.02
618.891	0.02
619.079	-0.03
619.268	0
619.456	-0.03
619.644	0.01
619.833	-0.02
620.021	-0.02
620.209	-0.05
620.398	0.02
620.586	0.02
620.774	0
620.962	-0.01
621.151	0.04
621.339	-0.03
621.527	-0.03
621.715	-0.04
621.903	-0.04
622.092	-0.05
622.28	0
622.468	-0.03
622.656	-0.02
622.844	-0.02
623.032	-0.03
623.22	-0.06
623.408	0.04
623.596	0.04
623.784	0.03
623.972	-0.03
624.16	-0.02
624.348	0.01
624.536	-0
624.724	-0.03
624.912	0.02
625.1	0.03
625.288	-0.04
625.476	-0.02
625.664	0.04
625.851	-0.03
626.039	-0.01
626.227	0.02
626.415	-0
626.603	-0.05
626.79	-0
626.978	-0.02
627.166	0.03
627.354	-0.03
627.541	-0.05
627.729	-0.08
627.917	-0
628.104	0.03
628.292	-0
628.48	0
628.667	0.01
628.855	0.02
629.042	0.01
629.23	-0.04
629.418	-0.04
629.605	-0.03
629.793	-0.04
629.98	-0.01
630.168	0.01
630.355	-0.02
630.543	-0
630.73	-0.03
630.917	0.01
631.105	0.06
631.292	-0.03
631.48	-0.03
631.667	0.05
631.854	0.01
632.042	-0.03
632.229	-0.06
632.416	0.03
632.604	-0.01
632.791	-0.04
632.978	0.04
633.165	0.02
633.353	0.09
633.54	0.02
633.727	-0.06
633.914	-0.02
634.101	-0.06
634.289	0.01
634.476	-0.03
634.663	-0.03
634.85	0.03
635.037	-0.05
635.224	-0.06
635.411	0.04
635.598	0.06
635.785	0.02
635.972	0.02
636.159	0.05
636.346	-0.02
636.533	-0
636.72	-0.03
636.907	0.01
637.094	0.02
637.281	0.01
637.468	0.05
637.655	0.02
637.842	-0
638.029	-0.01
638.215	0.02
638.402	0.04
638.589	-0.02
638.776	-0.01
638.963	-0.02
639.149	0.06
639.336	0.08
639.523	-0.01
639.709	0.05
639.896	0.01
640.083	0.06
640.27	0.04
640.456	-0
640.643	0.03
640.829	-0.04
641.016	-0
641.203	-0.05
641.389	0.07
641.576	0.05
641.762	0.02
641.949	-0.02
642.135	0.05
642.322	0.06
642.508	-0.03
642.695	0.01
642.881	-0.02
643.068	0.04
643.254	0.01
643.441	0.03
643.627	-0.04
643.813	-0.01
644	0.05
644.186	0.02
644.372	0.04
644.559	0.05
644.745	0.01
644.931	0.01
645.118	0.02
645.304	0.05
645.49	0
645.676	0.01
645.862	0.06
646.049	0.06
646.235	-0.01
646.421	0.11
646.607	0.1
646.793	0
646.979	0
647.165	0.06
647.352	0.05
647.538	0.07
647.724	0.02
647.91	0.02
648.096	0.09
648.282	0.06
648.468	0.03
648.654	0.04
648.84	0.04
649.026	0.05
649.212	0.04
649.397	0.03
649.583	0.02
649.769	0.05
649.955	0.05
650.141	0.08
650.327	0.11
650.513	0.01
650.698	0.04
650.884	-0.02
651.07	0.06
651.256	0.06
651.442	0.06
651.627	0.06
651.813	0.06
651.999	0.03
652.184	0.08
652.37	0.03
652.556	0.04
652.741	0.09
652.927	0.01
653.113	0.05
653.298	0.05
653.484	0.04
653.669	0
653.855	0.06
654.04	0.1
654.226	0.1
654.412	0.02
654.597	0.06
654.782	0.11
654.968	0.11
655.153	0.07
655.339	0.06
655.524	0.02
655.71	0.09
655.895	0.04
656.08	0.07
656.266	0.1
656.451	0.13
656.636	0.06
656.822	0.08
657.007	0.05
657.192	0.07
657.378	0
657.563	0.13
657.748	0.13
657.933	0.09
658.118	0.08
658.304	0.07
658.489	0.08
658.674	0.1
658.859	0.05
659.044	0.13
659.229	0.1
659.414	0.07
659.599	0.09
659.785	0.03
659.97	0.07
660.155	0.08
660.34	0.08
660.525	0.1
660.71	0.07
660.895	0.12
661.08	0.05
661.264	0.06
661.449	0.14
661.634	0.12
661.819	0.12
662.004	0.14
662.189	0.01
662.374	0.07
662.559	0.06
662.743	0.03
662.928	0.05
663.113	0.05
663.298	0.01
663.483	0.05
663.667	0.1
663.852	0.06
664.037	0.11
664.221	0.01
664.406	0.13
664.591	0.1
664.775	0.06
664.96	0
665.145	0.07
665.329	0.1
665.514	0.01
665.698	0.01
665.883	-0.02
666.068	0.07
666.252	0.03
666.437	0.02
666.621	0.05
666.806	0.07
666.99	0.04
667.174	-0.02
667.359	0.09
667.543	0.01
667.728	0.01
667.912	-0.03
668.096	0.05
668.281	-0.01
668.465	-0.01
668.649	0.02
668.834	0.01
669.018	-0
669.202	-0.02
669.387	-0.01
669.571	0.05
669.755	-0.01
669.939	0.02
670.124	0.01
670.308	0.06
670.492	0.04
670.676	-0
670.86	0.02
671.044	-0.02
671.228	0.05
671.413	-0.01
671.597	-0.03
671.781	-0.01
671.965	0.03
672.149	-0.02
672.333	0.01
672.517	-0.02
672.701	0.06
672.885	-0.02
673.069	-0.04
673.253	0.01
673.437	0.01
673.621	-0.03
673.804	-0.02
673.988	0
674.172	-0.03
674.356	-0.06
674.54	0
674.724	0.08
674.908	0.01
675.091	0.01
675.275	0.01
675.459	-0.01
675.643	-0.01
675.826	-0.06
676.01	-0.01
676.194	-0.06
676.377	-0.01
676.561	0.04
676.745	0.02
676.928	-0.01
677.112	0.05
677.296	-0.04
677.479	-0.03
677.663	-0.01
677.846	0.02
678.03	0.02
678.213	-0.01
678.397	0
678.58	-0.06
678.764	-0.01
678.947	-0.06
679.131	-0.03
679.314	0.03
679.498	-0.02
679.681	-0.03
679.865	0.02
680.048	-0.02
680.231	0.02
680.415	0
680.598	-0.04
680.781	-0.03
680.965	-0.03
681.148	0.02
681.331	-0.04
681.514	-0.02
681.698	-0.05
681.881	0
682.064	0.04
682.247	-0.06
682.43	-0.06
682.614	-0
682.797	0.01
682.98	0
683.163	-0.06
683.346	0.03
683.529	0.01
683.712	-0.06
683.895	0.04
684.078	-0.04
684.261	-0.04
684.444	0.02
684.627	0.01
684.81	-0.04
684.993	-0.08
685.176	0.03
685.359	-0.07
685.542	-0.06
685.725	0.03
685.908	-0.02
686.091	-0.05
686.274	0.03
686.457	0.06
686.639	-0.03
686.822	0.02
687.005	0.01
687.188	0.01
687.371	0.05
687.553	-0.03
687.736	-0.03
687.919	0.07
688.102	0.03
688.284	0.01
688.467	0
688.65	-0.02
688.832	-0.02
689.015	-0.01
689.197	-0.05
689.38	0.11
689.563	0.05
689.745	-0.04
689.928	-0.04
690.11	-0.05
690.293	-0.03
690.475	-0.07
690.658	-0
690.84	-0.01
691.023	-0.02
691.205	-0.05
691.388	-0.02
691.57	0.04
691.752	0.01
691.935	-0.09
692.117	-0.07
692.3	0.01
692.482	0
692.664	-0.01
692.847	0.04
693.029	0.04
693.211	-0.02
693.393	-0.05
693.576	-0.02
693.758	-0
693.94	-0.04
694.122	-0.01
694.304	0.01
694.487	-0.06
694.669	0.02
694.851	-0.07
695.033	-0
695.215	-0
695.397	-0.07
695.579	-0
695.761	-0.06
695.943	-0.1
696.125	0.05
696.308	0
696.49	-0.1
696.671	0.1
696.853	-0.02
697.035	0.15
697.217	-0.04
697.399	0.06
697.581	-0.04
697.763	-0.02
697.945	-0.07
698.127	0.05
698.309	0.05
698.491	-0.03
698.672	0.03
698.854	0.06
699.036	0.06
699.218	-0.02
699.399	0.04
699.581	-0.02
699.763	-0.01
699.945	-0.05
700.126	0.02
700.308	0.04
700.49	0.02
700.671	-0.07
700.853	-0.04
701.035	-0.06
701.216	-0.05
701.398	-0.01
701.579	-0.04
701.761	0.03
701.943	-0.07
702.124	-0.07
702.306	-0.01
702.487	0.07
702.669	-0.05
702.85	-0.08
703.031	-0.05
703.213	0.06
703.394	0.03
703.576	-0.07
703.757	0.04
703.938	0.07
704.12	0.15
704.301	-0.03
704.483	-0.05
704.664	0.04
704.845	0.04
705.026	-0.02
705.208	-0
705.389	-0.01
705.57	-0.02
705.751	-0.02
705.933	-0
706.114	0.02
706.295	-0.01
706.476	-0.04
706.657	0.08
706.838	0.03
707.02	0.03
707.201	-0.07
707.382	-0.05
707.563	0.04
707.744	-0.06
707.925	-0.08
708.106	-0.04
708.287	0.01
708.468	0.1
708.649	-0.03
708.83	0.02
709.011	-0.1
709.192	0.06
709.373	-0.04
709.554	-0.01
709.734	0.09
709.915	0.03
710.096	-0.01
710.277	-0.12
710.458	0.02
710.639	-0.01
710.819	-0.11
711	-0.06
711.181	0.07
711.362	0.05
711.542	0.04
711.723	0.02
711.904	0.06
712.085	0.06
712.265	0.03
712.446	-0.08
712.627	-0.02
712.807	-0.01
712.988	-0.04
713.168	-0.05
713.349	0.03
713.53	-0.11
713.71	-0.03
713.891	-0.07
714.071	0
714.252	0.04
714.432	-0
714.613	-0.1
714.793	0.02
714.974	0.08
715.154	0.06
715.334	0.05
715.515	0.09
715.695	-0.09
715.876	-0.02
716.056	0.02
716.236	-0.02
716.417	-0.01
716.597	-0.01
716.777	0.15
716.957	0.05
717.138	-0.04
717.318	0.06
717.498	-0.05
717.678	-0.01
717.859	0.04
718.039	-0
718.219	0.04
718.399	0.02
718.579	-0.07
718.759	-0.08
718.939	0
719.12	-0.05
719.3	0.03
719.48	-0.09
719.66	-0.02
719.84	0.12
720.02	0.02
720.2	0.02
720.38	0.06
720.56	0.07
720.74	-0.03
720.92	0.06
721.1	0.13
721.279	0.1
721.459	-0.01
721.639	0.01
721.819	0.05
721.999	-0
722.179	0.06
722.359	-0.12
722.538	0.09
722.718	0.04
722.898	0.01
723.078	-0.04
723.257	-0.04
723.437	0.11
723.617	0
723.797	0
723.976	0.01
724.156	0
724.336	0.09
724.515	0.2
724.695	-0.1
724.874	-0.01
725.054	0.04
725.234	-0.06
725.413	0.1
725.593	0.01
725.772	0.06
725.952	0.01
726.131	0.01
726.311	0.01
726.49	0.06
726.67	-0.07
726.849	-0.03
727.028	0.08
727.208	0.02
727.387	0.04
727.567	-0.09
727.746	-0.02
727.925	0.03
728.105	0.01
728.284	0.02
728.463	-0.03
728.643	0.05
728.822	-0.04
729.001	0.1
729.18	0.05
729.359	0.03
729.539	0.1
729.718	0.07
729.897	0.08
730.076	-0.03
730.255	0.04
730.434	0.09
730.614	0.06
730.793	0.07
730.972	0.08
731.151	0.07
731.33	0.21
731.509	0.07
731.688	0.04
731.867	0.04
732.046	-0.08
732.225	0.22
732.404	-0.05
732.583	0.05
732.762	0.15
732.941	0.09
733.12	0.06
733.298	0.03
733.477	0.16
733.656	0.09
733.835	-0.01
734.014	0.19
734.193	0.02
734.371	0.13
734.55	0.07
734.729	0.06
734.908	0.1
735.086	0.14
735.265	0.11
735.444	-0
735.623	-0.02
735.801	0.05
735.98	0.08
736.159	0.08
736.337	0.15
736.516	0.08
736.694	0.12
736.873	-0.01
737.052	0.2
737.23	0.21
737.409	0.03
737.587	0.21
737.766	-0.07
737.944	0.06
738.123	0.12
738.301	0.11
738.479	-0.01
738.658	0.08
738.836	-0.14
739.015	0.11
739.193	0.08
739.371	-0.04
739.55	-0.03
739.728	-0.06
739.906	0.19
740.085	0.22
740.263	0.01
740.441	-0.04
740.62	0.12
740.798	0.15
740.976	0.04
741.154	-0.04
741.332	0.26
741.511	-0.05
741.689	0.11
741.867	0.07
742.045	0.06
742.223	0.11
742.401	-0.03
742.579	-0.05
742.757	0.19
742.935	-0.19
743.114	0.04
743.292	-0.02
743.47	0.01
743.648	0.07
743.826	-0.1
744.004	0.14
744.181	0.16
744.359	0.09
744.537	0.04
744.715	-0.04
744.893	0.05
745.071	0.04
745.249	0.01
745.427	0.02
745.605	0.05
745.782	-0.02
745.96	0.14
746.138	-0.05
746.316	-0.04
746.493	-0.05
746.671	-0
746.849	0.06
747.027	0.04
747.204	-0.06
747.382	0.07
747.56	-0.09
747.737	-0.11
747.915	-0.09
748.093	0.06
748.27	0.03
748.448	0
748.625	-0.05
748.803	-0.04
748.98	-0.06
749.158	-0.01
749.335	0.07
749.513	-0
749.69	0.06
749.868	0.07
750.045	0.03
750.223	-0.05
750.4	-0.17
750.578	0.3
750.755	-0.02
750.932	-0.16
751.11	0.16
751.287	-0.14
751.464	0.06
751.642	-0.1
751.819	0.01
751.996	0.11
752.173	-0.03
752.351	-0.04
752.528	-0.04
752.705	-0.02
752.882	-0.08
753.06	-0.09
753.237	0.09
753.414	0.17
753.591	0.05
753.768	-0.05
753.945	-0.09
754.122	-0.12
754.299	0.13
754.476	-0.14
754.654	0.03
754.831	-0
755.008	-0.04
755.185	0.01
755.362	-0.09
755.539	0.03
755.716	-0.13
755.892	-0.01
756.069	0.09
756.246	-0.05
756.423	-0.02
756.6	0.04
756.777	-0.06
756.954	0.07
757.131	-0.12
757.307	-0.13
757.484	-0.06
757.661	-0.02
757.838	-0.02
758.015	-0.14
758.191	0.01
758.368	0.17
758.545	0.1
758.721	-0.01
758.898	-0.07
759.075	-0.04
759.251	0.12
759.428	0.08
759.605	-0.25
759.781	-0.06
759.958	-0.03
760.134	-0.01
760.311	-0.06
760.488	0.06
760.664	0.14
760.841	-0.02
761.017	-0.07
761.194	0.1
761.37	0.04
761.547	0.09
761.723	-0.02
761.899	-0.01
762.076	-0.07
762.252	-0.06
762.429	-0.12
762.605	0.07
762.781	-0.04
762.958	0.13
763.134	-0.15
763.31	-0.13
763.486	0.07
763.663	-0.06
763.839	0.01
764.015	-0.28
764.191	-0.14
764.368	-0.08
764.544	-0.12
764.72	0.11
764.896	0.05
765.072	-0.02
765.248	-0.13
765.425	-0.09
765.601	-0.02
765.777	0.01
765.953	-0.31
766.129	-0.08
766.305	-0
766.481	0.04
766.657	-0.02
766.833	0.19
767.009	-0.21
767.185	-0.02
767.361	-0.06
767.537	-0.2
767.713	0.26
767.889	-0.12
768.065	0.02
768.24	-0.06
768.416	0.12
768.592	-0.09
768.768	-0.09
768.944	0.06
769.12	-0.18
769.295	-0.05
769.471	-0.03
769.647	-0.04
769.823	0.3
769.998	-0.13
770.174	-0.22
770.35	0.25
770.525	0.08
770.701	0.06
770.877	-0.05
771.052	-0.19
771.228	0.1
771.403	-0.05
771.579	0.1
771.755	0.17
771.93	-0.17
772.106	-0.09
772.281	-0.14
772.457	-0
772.632	0.06
772.808	-0.33
772.983	-0.08
773.159	-0.19
773.334	0.23
773.509	-0.08
773.685	-0.13
773.86	0.26
774.036	0.24
774.211	0.02
774.386	0.03
774.562	0.06
774.737	-0.16
774.912	-0.13
775.087	-0.01
775.263	0.04
775.438	-0.03
775.613	-0.25
775.788	-0.08
775.964	0.07
776.139	0.37
776.314	-0.13
776.489	0
776.664	-0.02
776.839	-0.2
777.014	0.1
777.19	0.1
777.365	0.11
777.54	0.22
777.715	-0.15
777.89	0.04
778.065	-0.1
778.24	-0.06
778.415	-0
778.59	-0.09
778.765	-0.05
778.94	-0.02
779.115	0.03
779.289	-0.07
779.464	-0.07
779.639	0.04
779.814	-0.19
779.989	-0.16
780.164	0.17
780.339	-0.04
780.513	-0.21
780.688	-0.16
780.863	-0.02
781.038	-0.01
781.212	-0.27
781.387	0.06
781.562	0.04
781.737	0.07
781.911	0.11
782.086	-0.12
782.261	0.05
782.435	0.14
782.61	-0.16
782.784	-0.04
782.959	0.22
783.134	-0.25
783.308	-0.21
783.483	0.07
783.657	0.35
783.832	0.29
784.006	-0.47
784.181	0.02
784.355	0.21
784.53	0.04
784.704	-0.18
784.878	0.29
785.053	0.08
785.227	0.17
785.402	0.2
785.576	-0.28
785.75	0.08
785.925	-0.09
786.099	-0.2
786.273	-0.15
786.448	0.29
786.622	0.01
786.796	0.01
786.97	0.01
787.145	0.44
787.319	-0.35
787.493	-0.17
787.667	-0.31
787.841	-0.02
788.015	0.11
788.19	-0.16
788.364	0.09
788.538	0.09
788.712	0.02
788.886	0.04
789.06	0.13
789.234	0.23
789.408	-0.19
789.582	-0.05
789.756	0.03
789.93	-0.16
790.104	-0.24
790.278	-0.14
790.452	-0.31
790.626	0.16
790.8	-0.09
790.973	0.25
791.147	0.45
791.321	0.14
791.495	0
791.669	0.01
791.843	0
792.016	0.09
792.19	0.16
792.364	-0.16
792.538	0.37
792.711	0.18
792.885	-0.19
793.059	-0.19
793.233	-0.51
793.406	0.18
793.58	-0.16
793.754	0
793.927	-0.1
794.101	0.32
794.274	-0.01
794.448	0.02
794.622	-0.25
794.795	0.16
794.969	-0.34
795.142	0.06
795.316	-0.35
795.489	-0.12
795.663	0.39
795.836	0.13
796.009	-0.2
796.183	0.07
796.356	0.17
796.53	-0.05
796.703	0.19
796.876	0.29
797.05	-0.23
797.223	-0.16
797.396	-0.11
797.57	-0.06
797.743	0.33
797.916	0.14
798.09	-0.08
798.263	0.09
798.436	-0.01
798.609	-0.17
798.782	-0.12
798.956	0.1
799.129	0.09
799.302	-0.44
799.475	-0.37
799.648	-0.43
799.821	-0.23
799.994	-0.05
800.167	-0.21
800.34	0.03
800.514	0.11
800.687	-0.14
800.86	-0.13
801.033	0.06
801.206	-0.09
801.379	-0.2
801.551	0.22
801.724	0.23
801.897	0.34
802.07	-0.3
802.243	-0.6
802.416	0.1
802.589	-0.04
802.762	0.02
802.935	-0.31
803.107	-0.06
803.28	0.01
803.453	0.13
803.626	-0.22
803.798	0.27
803.971	-0.11
804.144	0.05
804.317	0.06
804.489	0.05
804.662	-0.2
804.835	0.19
805.007	-0.36
805.18	0.04
805.353	0.06
805.525	-0.5
805.698	-0.29
805.87	0.32
806.043	0.37
806.215	-0.25
806.388	-0.18
806.56	-0.12
806.733	0.08
806.905	-0.03
807.078	-0.1
807.25	-0.39
807.423	0.13
807.595	0.13
807.768	-0.25
807.94	0.4
808.112	0.25
808.285	-0.03
808.457	-0.19
808.629	0.04
808.802	0.11
808.974	-0.22
809.146	-0.12
809.318	-0.45
809.491	-0.16
809.663	0.07
809.835	-0.29
810.007	0.18
810.18	-0.07
810.352	-0.38
810.524	-0.18
810.696	0.13
810.868	0.23
811.04	-0.29
811.212	-0.33
811.384	0
811.556	0.25
811.728	0.1
811.901	0.44
812.073	-0.2
812.245	0.06
812.417	0.03
812.589	-0.66
812.76	-0.05
812.932	0.17
813.104	0.26
813.276	-0.04
813.448	0.26
813.62	0.1
813.792	0.04
813.964	0.13
814.136	0.19
814.307	-0.11
814.479	-0.15
814.651	-0.18
814.823	0.52
814.995	-0.31
815.166	0.19
815.338	-0.56
815.51	-0.62
815.681	0.79
815.853	0.31
816.025	-0.18
816.196	0.43
816.368	-0.16
816.54	-0.59
816.711	-0.31
816.883	-0.23
817.054	0.67
817.226	-0.53
817.398	-0.07
817.569	0
817.741	0.19
817.912	-0.13
818.084	-0.12
818.255	0.1
818.426	-0.07
818.598	-0.38
818.769	-0.25
818.941	0.16
819.112	0.58
819.283	0.15
819.455	0
819.626	-0.03
819.798	0.19
819.969	0.31
820.14	-0.11
820.311	-0.46
820.483	0.07
820.654	-0.03
820.825	-0.2
820.996	-0.37
821.168	-0.62
821.339	-0.43
821.51	-0.41
821.681	-0.28
821.852	-0.2
822.023	-0.59
822.195	-0.84
822.366	0.49
822.537	-0.11
822.708	-0.16
822.879	-0.23
823.05	0.61
823.221	-0.21
823.392	0.11
823.563	-0.25
823.734	-0.13
823.905	-0.03
824.076	-0.28
824.247	-0.7
824.418	-0.64
824.589	0.55
824.759	-0.16
824.93	-0.06
825.101	-0.32
825.272	0.18
825.443	0.54
825.614	0.16
825.784	-0.84
825.955	0.65
826.126	0.44
826.297	-0.32
826.467	0.91
826.638	0.67
826.809	-0.48
826.98	-0.48
827.15	-0.01
827.321	0.06
827.492	0.24
827.662	-0.07
827.833	0.76
828.003	0.42
828.174	-0.49
828.345	-0.63
828.515	1.21
828.686	0.15
828.856	-0.3
829.027	-0.04
829.197	0.03
829.368	-0.25
829.538	-0.11
829.709	-0.29
829.879	-0.17
830.049	-0.06
830.22	-0.51
830.39	-0.31
830.56	-0
830.731	0.12
830.901	-0.31
831.072	-0.42
831.242	0.69
831.412	-0.13
831.582	-0.13
831.753	-0.55
831.923	0.33
832.093	-0.33
832.263	-0.03
832.434	-0.51
832.604	-0.5
832.774	0.56
832.944	-0.62
833.114	-0.24
833.284	0.21
833.454	-0.96
833.624	-0.22
833.795	-0.73
833.965	0.5
834.135	0.44
834.305	-0.69
834.475	-0.3
834.645	-0.32
834.815	-0.1
834.985	-0.3
835.155	-0.37
835.325	0.48
835.494	-0.36
835.664	-0.12
835.834	-1.14
836.004	0.46
836.174	0.3
836.344	-0.03
836.514	-0.54
836.684	0.03
836.853	0.01
837.023	-0.15
837.193	-0.53
837.363	0.51
837.532	0.94
837.702	-0.08
837.872	-0.73
838.041	0.59
838.211	0.9
838.381	-0.35
838.55	-0.44
838.72	1.85
838.89	0.8
839.059	0.46
839.229	-0.73
839.398	0.52
839.568	0.16
839.738	0.51
839.907	1.14
840.077	0.29
840.246	-0.57
840.416	-0.56
840.585	-0.5
840.755	0.81
840.924	1.05
841.093	-1.05
841.263	0.37
841.432	0.38
841.602	-1.54
841.771	0.65
841.94	-0.35
842.11	1.31
842.279	1.35
842.448	-0.26
842.617	-0.08
842.787	0.84
842.956	-0.33
843.125	0.29
843.294	-0.27
843.464	0.24
843.633	-0.27
843.802	-0.99
843.971	-0.26
844.14	0.3
844.309	1
844.479	-0.07
844.648	-0.6
844.817	-1.06
844.986	0.47
845.155	-1.06
845.324	0.2
845.493	0.29
845.662	-0.58
845.831	0.07
846	0.01
846.169	-0.05
846.338	1.63
846.507	-0.15
846.676	0.67
846.844	-0.15
847.013	1.06
847.182	0.5
847.351	-0.9
847.52	0.25
847.689	1.11
847.858	-0.76
848.026	-0.39
848.195	-0.19
848.364	-0.71
848.533	-0.34
848.701	-0.18
848.87	-0.6
849.039	1.09
849.207	0.58
849.376	1.03
849.545	0.96
849.713	-0.24
849.882	-1.42
850.051	-1.11
850.219	-0.47
850.388	1.04
850.556	-0.71
850.725	-1.26
850.893	0.42
851.062	0.91
851.23	0.83
851.399	-1.36
851.567	-0.62
851.736	-0.43
851.904	-1.32
852.073	-0.3
852.241	0.52
852.41	-0.15
852.578	-0.42
852.746	-0.23
852.915	0.68
853.083	-0.06
853.251	-0.63
853.42	-0.47
853.588	-0.08
853.756	-0.09
853.924	-0.93
854.093	-0.94
854.261	-0.74
854.429	-2.09
854.597	-0.12
854.765	-1.03
854.934	0.13
855.102	1.01
855.27	-0.15
855.438	0.81
855.606	1
855.774	1.18
855.942	-1.55
856.11	-1.98
856.278	0.2
856.446	1.01
856.614	0.08
856.782	-1.13
856.95	0.42
857.118	-0.55
857.286	0.79
857.454	-1.65
857.622	1.47
857.79	0.82
857.958	-0.92
858.126	-1.03
858.294	-2.29
858.462	-0
858.629	-1.31
858.797	-1.32
858.965	-0.62
859.133	0.24
859.301	-0.46
859.468	-0.41
859.636	-1
859.804	0.53
859.971	0.66
860.139	0.05
860.307	0.83
860.474	-0.14
860.642	-0.22
860.81	-1.37
860.977	-1.29
861.145	0.43
861.313	0.73
861.48	0.48
861.648	0.37
861.815	-0
861.983	-1.91
862.15	-0.28
862.318	-0.05
862.485	1.48
862.653	-1.02
862.82	-1.05
862.988	1.13
863.155	-0.32
863.322	-1.55
863.49	-0.71
863.657	-1.23
863.824	2.42
863.992	-0.35
864.159	0.2
864.326	0.15
864.494	-0.78
864.661	2.15
864.828	-1.28
864.996	1.07
865.163	0.14
865.33	0.11
865.497	-0.58
865.664	-1.15
865.832	-1.64
865.999	-0.4
866.166	-2.47
866.333	0.01
866.5	-2.13
866.667	-0.06
866.834	-0.41
867.001	1.23
867.168	-1.76
867.335	-0.05
867.502	-0.98
867.669	1.51
867.836	1.77
868.003	-0.71
868.17	0.03
868.337	-1.89
868.504	2.19
868.671	-1.4
868.838	-1.21
869.005	-0.98
869.172	1.46
869.339	0.89
869.505	-0.54
869.672	-0.92
869.839	2.51
870.006	-0.18
870.173	-1.49
870.339	-0.35
870.506	1.24
870.673	-1.43
870.84	1.97
871.006	1.15
871.173	-1.6
871.34	-0.72
871.506	-1
871.673	1.12
871.839	-2.57
872.006	-0.74
872.173	-1.14
872.339	1.99
872.506	-0.6
872.672	0.59
872.839	-3.12
873.005	-0.95
873.172	1.53
873.338	2.58
873.505	0.3
873.671	0.03
873.838	-0.56
874.004	-3.15
874.171	-1.29
874.337	1.31
874.503	1.68
874.67	0.36
874.836	-1.4
875.002	2.54
875.169	1.14
875.335	-0.04
875.501	0.71
875.668	-1.1
875.834	0.12
876	0.8
876.166	1.32
876.332	0.35
876.499	1.96
876.665	-0.91
876.831	-0.68
876.997	2.72
877.163	1.28
877.329	-0.46
877.495	0.45
877.662	0.91
877.828	1.83
877.994	0.82
878.16	-1.26
878.326	-1.83
878.492	-2.02
878.658	-0.89
878.824	-0.08
878.99	1.19
879.156	-1.66
879.322	1.06
879.487	0.89
879.653	0.35
879.819	-0.81
879.985	-1.6
880.151	0.91
880.317	2.03
880.483	0.93
880.648	0.24
880.814	-2
880.98	0.31
881.146	-2.24
881.312	-0.74
881.477	-2.52
881.643	-0.17
881.809	2.84
881.974	1.54
882.14	-1.08
882.306	-0.29
882.471	3.5
882.637	-0.72
882.803	0.82
882.968	3.7
883.134	2.48
883.299	-1.07
883.465	0.46
883.63	0.46
883.796	1.28
883.961	2.61
884.127	1.91
884.292	-2.96
884.458	-3.83
884.623	-3.82
