Data from Apollo_Calib_20240827__AbsoluteIrradiance__325__04-34-00-823.txt Node

Date: Wed Aug 28 04:34:00 BST 2024
User: biology
Spectrometer: FLMT08252
Trigger mode: 0
Integration Time (sec): 5.000000E-1
Scans to average: 5
Electric dark correction enabled: true
Nonlinearity correction enabled: false
Boxcar width: 0
XAxis mode: Wavelengths
Number of Pixels in Spectrum: 3648
>>>>>Begin Spectral Data<<<<<
179.588	-0
179.809	-0
180.03	-0
180.251	-0
180.473	-0
180.694	0
180.915	0
181.136	-0
181.357	0
181.578	-0
181.799	0
182.02	-0
182.241	0
182.462	-0
182.683	0
182.904	-0
183.125	-0
183.346	-0
183.567	0
183.788	-0
184.009	-0
184.23	0
184.451	0
184.672	-0
184.892	-0
185.113	0
185.334	0
185.555	-0
185.776	-0
185.996	0
186.217	0
186.438	-0
186.659	-0
186.879	0
187.1	0
187.321	-0
187.541	-0
187.762	0
187.983	-0
188.203	0
188.424	0
188.644	-0
188.865	-0
189.086	-0
189.306	-0
189.527	-0
189.747	-0
189.968	-0
190.188	0
190.409	0
190.629	0
190.849	-0
191.07	-0
191.29	0
191.511	-0
191.731	-0
191.951	-0
192.172	-0
192.392	-0
192.612	-0
192.833	0
193.053	0
193.273	0
193.493	-0
193.714	-0
193.934	0
194.154	0
194.374	0
194.594	0
194.815	0
195.035	0
195.255	-0
195.475	-0
195.695	0
195.915	0
196.135	-0
196.355	0
196.575	0
196.795	-0
197.015	-0
197.235	-0
197.455	-0
197.675	0
197.895	-0
198.115	-0
198.335	0
198.555	-0
198.775	0
198.995	0
199.214	0
199.434	-0
199.654	-0
199.874	-0
200.094	1.25
200.313	0.08
200.533	-0.16
200.753	-1.18
200.973	1.19
201.192	0.63
201.412	-1.01
201.632	-0.27
201.851	1.29
202.071	-0.56
202.291	-0.92
202.51	-0.47
202.73	0.46
202.95	-0.59
203.169	-0.97
203.389	-0.35
203.608	0.42
203.828	-1.01
204.047	-0.03
204.267	-0.01
204.486	-0.08
204.706	-0.21
204.925	-0.42
205.145	0.05
205.364	0.39
205.583	0.66
205.803	-0.43
206.022	-0.39
206.242	0.27
206.461	-0.03
206.68	-0.65
206.9	0.22
207.119	0.5
207.338	0.88
207.557	-0.2
207.777	-0.66
207.996	-0.03
208.215	0.39
208.434	-0.28
208.654	-0.35
208.873	0.23
209.092	0.66
209.311	-0.12
209.53	-0.12
209.749	-0.04
209.968	-0.32
210.187	-0.1
210.407	-0.43
210.626	-0.17
210.845	-0.05
211.064	-0.14
211.283	-0.21
211.502	0.15
211.721	-0.08
211.94	-0.33
212.159	0.16
212.377	0.35
212.596	0.56
212.815	0.08
213.034	0.1
213.253	0.3
213.472	0.09
213.691	-0.13
213.91	-0.39
214.128	-0.04
214.347	0.19
214.566	-0.42
214.785	-0.27
215.003	0.4
215.222	-0.02
215.441	-0.08
215.66	-0.1
215.878	-0.07
216.097	-0.06
216.316	-0.21
216.534	-0.11
216.753	0.17
216.972	-0.01
217.19	-0.09
217.409	-0.15
217.627	-0.12
217.846	-0.22
218.064	0.11
218.283	-0.26
218.501	0.52
218.72	0.29
218.938	-0.2
219.157	-0.13
219.375	0.36
219.594	0.05
219.812	-0.33
220.031	-0.08
220.249	0.24
220.467	0.39
220.686	-0.18
220.904	-0.27
221.122	-0.12
221.341	0.29
221.559	-0.01
221.777	-0.27
221.995	0.08
222.214	0.21
222.432	-0.19
222.65	0.04
222.868	0.06
223.086	0.23
223.305	-0.02
223.523	0.05
223.741	0.35
223.959	-0.1
224.177	-0.32
224.395	-0.09
224.613	0.02
224.831	0.28
225.049	-0.26
225.267	-0.04
225.485	0.11
225.703	-0.01
225.921	-0.02
226.139	-0.17
226.357	0.05
226.575	0.05
226.793	-0.14
227.011	0.51
227.229	0.1
227.447	0.18
227.665	-0.12
227.883	-0.19
228.1	-0.01
228.318	0.03
228.536	-0.29
228.754	-0.18
228.972	0.02
229.189	0.04
229.407	-0.05
229.625	-0.04
229.843	0.17
230.06	0.17
230.278	-0.11
230.496	-0.08
230.713	0.04
230.931	0.19
231.149	-0.07
231.366	-0.25
231.584	0.03
231.801	0.3
232.019	-0.11
232.236	-0.21
232.454	-0.01
232.671	0.01
232.889	-0.13
233.106	-0.05
233.324	0.02
233.541	0
233.759	-0.11
233.976	-0.17
234.194	-0.01
234.411	0.03
234.628	-0.21
234.846	-0.1
235.063	0.03
235.28	0.03
235.498	-0.03
235.715	-0.21
235.932	0.15
236.149	0.05
236.367	-0.04
236.584	0.1
236.801	-0.01
237.018	0.13
237.236	0.02
237.453	-0.27
237.67	0.01
237.887	0.01
238.104	-0.02
238.321	-0.11
238.538	-0.09
238.755	0.13
238.973	-0.07
239.19	0.04
239.407	0.11
239.624	-0.01
239.841	-0.15
240.058	-0.1
240.275	0.03
240.492	0.01
240.709	-0.05
240.925	-0.08
241.142	0.01
241.359	-0.16
241.576	-0.07
241.793	-0.09
242.01	-0.04
242.227	0.19
242.444	0.02
242.66	0.15
242.877	0.02
243.094	-0.06
243.311	-0.05
243.527	-0.08
243.744	0.06
243.961	0.11
244.178	-0.12
244.394	-0.04
244.611	0.17
244.828	0.19
245.044	-0.11
245.261	-0.01
245.477	0.05
245.694	0.02
245.911	-0.06
246.127	-0.06
246.344	0.16
246.56	0.14
246.777	-0.03
246.993	0.03
247.21	0.02
247.426	0.12
247.643	-0.08
247.859	-0.15
248.076	-0.06
248.292	0.2
248.508	-0
248.725	0.01
248.941	-0.01
249.157	0.01
249.374	-0.03
249.59	-0.06
249.806	0.02
250.023	0.16
250.239	-0.03
250.455	-0.04
250.671	-0.04
250.888	0.02
251.104	0.03
251.32	0.01
251.536	0.07
251.752	-0.02
251.969	-0.01
252.185	-0.03
252.401	0.24
252.617	0.08
252.833	-0.05
253.049	-0.02
253.265	0
253.481	0.01
253.697	-0.04
253.913	-0.1
254.129	0.01
254.345	0.07
254.561	-0.05
254.777	-0.07
254.993	0.1
255.209	0.05
255.425	-0.1
255.641	-0.04
255.857	0.07
256.073	0.02
256.288	-0.13
256.504	-0.02
256.72	0.05
256.936	0.09
257.152	0.01
257.367	-0.1
257.583	0.04
257.799	0.12
258.015	-0
258.23	-0.04
258.446	0.14
258.662	-0.02
258.877	-0.12
259.093	-0.08
259.309	0.09
259.524	0.02
259.74	-0.01
259.955	-0.1
260.171	0.05
260.387	-0.02
260.602	0.02
260.818	0.01
261.033	-0.09
261.249	0.03
261.464	-0.06
261.68	-0.12
261.895	0.06
262.11	0.07
262.326	-0.02
262.541	-0.05
262.757	0.02
262.972	0.04
263.187	0.09
263.403	0.04
263.618	0.07
263.833	-0.01
264.049	-0.03
264.264	-0.01
264.479	0.03
264.694	0.06
264.91	-0.07
265.125	-0.02
265.34	0.13
265.555	0.14
265.77	0
265.986	-0.06
266.201	0.12
266.416	0.08
266.631	-0.03
266.846	-0
267.061	0.06
267.276	0.08
267.491	-0.15
267.706	0.06
267.921	-0.03
268.136	0.03
268.351	-0.01
268.566	-0.09
268.781	0.06
268.996	0.11
269.211	-0.04
269.426	-0.06
269.641	-0.06
269.856	0.1
270.071	-0.1
270.285	-0.09
270.5	0.04
270.715	0.06
270.93	-0.02
271.145	0.04
271.359	0.07
271.574	-0.05
271.789	0.01
272.004	-0.05
272.218	-0.01
272.433	0.07
272.648	0
272.862	0.01
273.077	-0.01
273.292	0.01
273.506	-0.04
273.721	-0
273.936	0.03
274.15	0.07
274.365	0.02
274.579	0.05
274.794	0.07
275.008	0.16
275.223	-0.06
275.437	-0.01
275.652	0.03
275.866	0.02
276.081	0.05
276.295	0.06
276.509	0.01
276.724	0.05
276.938	0.01
277.153	0.03
277.367	0.1
277.581	-0.01
277.796	-0.05
278.01	-0.04
278.224	0.07
278.438	0.13
278.653	-0.06
278.867	-0.02
279.081	0.08
279.295	0.01
279.51	0.03
279.724	-0.1
279.938	0.04
280.152	0.01
280.366	-0.01
280.58	0.01
280.794	0.05
281.008	0.09
281.222	0.05
281.437	0.19
281.651	0.07
281.865	0.15
282.079	-0.05
282.293	-0.11
282.507	-0.02
282.721	0.03
282.935	0
283.148	-0.1
283.362	-0.03
283.576	-0.05
283.79	-0
284.004	-0.05
284.218	0.02
284.432	-0.04
284.646	0.01
284.859	-0.05
285.073	0
285.287	0.05
285.501	0
285.714	-0.02
285.928	0.07
286.142	0.04
286.356	-0.03
286.569	-0.03
286.783	0.07
286.997	0.05
287.21	0.05
287.424	0.04
287.637	-0.04
287.851	0.02
288.065	0.04
288.278	-0.03
288.492	0.02
288.705	0.01
288.919	0.05
289.132	-0.03
289.346	0.08
289.559	-0.02
289.773	-0.03
289.986	-0.01
290.2	0.02
290.413	0.08
290.626	-0.02
290.84	-0.02
291.053	-0.02
291.267	0.12
291.48	-0.02
291.693	0.03
291.906	-0.02
292.12	0.02
292.333	-0.06
292.546	-0.03
292.76	0.09
292.973	0.03
293.186	0.06
293.399	-0
293.612	0.07
293.826	0.04
294.039	0
294.252	-0.02
294.465	0.04
294.678	0.04
294.891	0.02
295.104	0
295.317	-0.01
295.53	0.04
295.743	-0.01
295.956	-0.01
296.169	0.09
296.382	0.04
296.595	0.06
296.808	-0
297.021	0.04
297.234	0.06
297.447	0.03
297.66	0.07
297.873	0.1
298.086	0.08
298.299	-0.02
298.511	-0.07
298.724	-0
298.937	-0.03
299.15	-0.01
299.363	0.04
299.575	0.02
299.788	0.08
300.001	-0.02
300.213	-0.05
300.426	0.02
300.639	-0.01
300.852	0
301.064	0.06
301.277	0.09
301.489	0.03
301.702	0.05
301.915	0.04
302.127	0
302.34	0.06
302.552	0.07
302.765	-0
302.977	0.04
303.19	-0.04
303.402	0.01
303.615	0
303.827	-0.04
304.04	0.02
304.252	0.02
304.464	-0
304.677	0.12
304.889	0.05
305.102	-0.04
305.314	-0.05
305.526	0.06
305.739	0.09
305.951	-0
306.163	0
306.375	0.12
306.588	0.01
306.8	-0.01
307.012	-0.04
307.224	0.02
307.436	0.08
307.649	-0.05
307.861	0.02
308.073	0.02
308.285	-0.02
308.497	-0.05
308.709	-0.02
308.921	0.01
309.133	0.03
309.346	0.01
309.558	0.01
309.77	0.06
309.982	0.1
310.194	0.01
310.406	-0.02
310.617	0.12
310.829	0.01
311.041	0.05
311.253	-0.05
311.465	-0
311.677	0.01
311.889	0
312.101	0.01
312.313	0.02
312.524	0.06
312.736	-0.01
312.948	-0.01
313.16	0.11
313.372	0.04
313.583	0.07
313.795	-0.01
314.007	-0
314.218	0.09
314.43	0.02
314.642	-0.01
314.853	0
315.065	0.07
315.277	-0.03
315.488	0.04
315.7	0.04
315.912	0.01
316.123	0.01
316.335	-0
316.546	0.13
316.758	0.07
316.969	-0.01
317.181	-0
317.392	0
317.604	0.08
317.815	-0.03
318.026	-0.01
318.238	0.01
318.449	0.08
318.661	-0.02
318.872	-0.07
319.083	-0.07
319.295	0.06
319.506	-0.01
319.717	0.05
319.929	0.05
320.14	0.04
320.351	0.05
320.562	0.03
320.774	0.01
320.985	0.07
321.196	-0.06
321.407	-0.05
321.618	0.05
321.829	0.03
322.041	0.04
322.252	0.01
322.463	0.09
322.674	0.06
322.885	-0.05
323.096	-0.01
323.307	0.05
323.518	0.07
323.729	-0.04
323.94	0.03
324.151	0.05
324.362	0.07
324.573	0.04
324.784	-0.03
324.995	0.12
325.206	0.02
325.417	0.03
325.628	0.05
325.838	0.02
326.049	0.06
326.26	0.08
326.471	-0
326.682	0.03
326.892	-0.03
327.103	-0.06
327.314	-0.08
327.525	0.13
327.735	0.01
327.946	0.03
328.157	-0
328.368	0.07
328.578	0
328.789	0.09
328.999	0.07
329.21	0.01
329.421	0.1
329.631	0.01
329.842	-0.04
330.052	0.07
330.263	0.08
330.473	0.07
330.684	-0.02
330.894	0.03
331.105	0.02
331.315	0.01
331.526	-0.04
331.736	0.11
331.947	0.04
332.157	0.07
332.367	-0.03
332.578	0.06
332.788	0.05
332.999	0.03
333.209	0.01
333.419	-0.04
333.629	0.04
333.84	0.03
334.05	0.02
334.26	0.1
334.47	0.07
334.681	0.08
334.891	0.01
335.101	0.02
335.311	0.1
335.521	-0
335.732	-0.01
335.942	0.08
336.152	0.01
336.362	0.07
336.572	0.02
336.782	0.05
336.992	0.04
337.202	-0.04
337.412	-0.02
337.622	0.07
337.832	0.01
338.042	0.04
338.252	-0.01
338.462	-0.02
338.672	0.02
338.882	-0.03
339.092	0.01
339.302	0.05
339.511	0.05
339.721	0.01
339.931	0
340.141	0.12
340.351	0.09
340.561	0.04
340.77	0.07
340.98	0.04
341.19	0.05
341.4	-0
341.609	-0.02
341.819	0.01
342.029	-0.08
342.238	-0.02
342.448	-0.01
342.658	0.06
342.867	0.03
343.077	0.02
343.286	0
343.496	0.02
343.706	0.09
343.915	-0.02
344.125	0.03
344.334	0.04
344.544	-0.08
344.753	-0.03
344.963	0.03
345.172	0
345.381	-0.01
345.591	-0.02
345.8	0.03
346.01	0.1
346.219	0.1
346.428	-0.11
346.638	0.04
346.847	0.02
347.056	0.05
347.266	-0.03
347.475	0.01
347.684	0.04
347.893	0.03
348.103	0.05
348.312	0.02
348.521	-0.01
348.73	0.02
348.94	0.05
349.149	0.02
349.358	0.02
349.567	-0
349.776	-0.03
349.985	-0
350.194	0.06
350.403	0.09
350.612	-0.04
350.821	0.01
351.03	0.03
351.239	-0.03
351.448	0.01
351.657	0.02
351.866	0.08
352.075	0.06
352.284	0.07
352.493	-0.04
352.702	0.07
352.911	0.03
353.12	0.06
353.329	0.01
353.538	0.03
353.746	0
353.955	-0.02
354.164	0.04
354.373	0.04
354.582	0.1
354.79	0.08
354.999	0.03
355.208	-0
355.416	0.06
355.625	-0.04
355.834	-0.04
356.042	0.04
356.251	0
356.46	-0.02
356.668	0.03
356.877	0.12
357.085	0.08
357.294	-0.06
357.503	0.03
357.711	0.03
357.92	0.16
358.128	0.04
358.337	0.01
358.545	0.05
358.754	0.01
358.962	0.03
359.17	-0.03
359.379	0.03
359.587	0.04
359.796	0.01
360.004	0.04
360.212	0.05
360.421	0.05
360.629	0.01
360.837	-0.01
361.046	0.06
361.254	0.11
361.462	-0.02
361.67	-0.04
361.879	0.02
362.087	0.07
362.295	0.06
362.503	0.04
362.711	0.03
362.92	0.01
363.128	0.02
363.336	-0.01
363.544	-0.02
363.752	-0.04
363.96	-0.02
364.168	0.01
364.376	0.05
364.584	0.04
364.792	0.02
365	0.06
365.208	0.01
365.416	0.06
365.624	0.12
365.832	-0.01
366.04	0.07
366.248	0.04
366.456	0.02
366.664	0.01
366.872	-0.01
367.079	0.01
367.287	0.02
367.495	0.03
367.703	0.01
367.911	-0.01
368.118	0.01
368.326	-0.01
368.534	-0.02
368.742	0.06
368.949	-0.02
369.157	-0.01
369.365	0.09
369.572	0.06
369.78	-0.02
369.988	0.08
370.195	0.06
370.403	0.08
370.61	0
370.818	0.01
371.026	0.07
371.233	-0.01
371.441	0.05
371.648	-0.02
371.856	0.01
372.063	-0
372.271	0.01
372.478	0.01
372.685	-0.01
372.893	0.04
373.1	-0.01
373.308	0.02
373.515	0.12
373.722	0.08
373.93	0.02
374.137	0.04
374.344	0.11
374.552	0.05
374.759	0.04
374.966	0.01
375.173	0.01
375.381	0.08
375.588	0.01
375.795	-0.05
376.002	0.02
376.209	0.02
376.417	0.01
376.624	0.03
376.831	0.07
377.038	0.03
377.245	-0.06
377.452	-0.03
377.659	0.05
377.866	-0.02
378.073	0.01
378.28	0.02
378.487	0.04
378.694	0.05
378.901	0.03
379.108	-0.02
379.315	0.06
379.522	0.1
379.729	0.01
379.936	-0
380.143	0.03
380.35	0.07
380.557	0
380.763	0.03
380.97	0.05
381.177	0.04
381.384	0.07
381.591	-0.02
381.797	0.05
382.004	0.06
382.211	0.04
382.418	-0.02
382.624	0.09
382.831	0.08
383.038	0.02
383.244	0.06
383.451	0.04
383.658	0.03
383.864	-0.01
384.071	-0.03
384.277	0.07
384.484	-0.02
384.69	0.08
384.897	-0.03
385.103	-0.02
385.31	-0.03
385.516	0.01
385.723	0
385.929	0.01
386.136	0.02
386.342	0.01
386.549	0.02
386.755	0.09
386.961	0.06
387.168	-0.02
387.374	0
387.58	0.07
387.787	0.02
387.993	0.02
388.199	-0
388.406	0.03
388.612	0.06
388.818	-0.02
389.024	0
389.231	0.01
389.437	0.12
389.643	0.07
389.849	-0
390.055	0.03
390.261	0
390.467	0.06
390.674	-0.04
390.88	0.05
391.086	0.04
391.292	-0.04
391.498	0.06
391.704	0.03
391.91	0.02
392.116	0.03
392.322	-0.07
392.528	0.05
392.734	0.01
392.94	-0.01
393.146	0.03
393.352	0.06
393.557	0.03
393.763	0.01
393.969	0.06
394.175	0.05
394.381	0.04
394.587	-0.02
394.792	0.04
394.998	0.07
395.204	0.05
395.41	0.01
395.615	0.07
395.821	0.02
396.027	0.02
396.233	-0.02
396.438	0.03
396.644	0.11
396.85	0.04
397.055	0.02
397.261	0
397.466	0.14
397.672	0.08
397.878	0.06
398.083	0.04
398.289	0.04
398.494	0.08
398.7	0.06
398.905	-0.03
399.111	0.06
399.316	0
399.522	0.05
399.727	0.05
399.932	0.01
400.138	0.04
400.343	0.08
400.549	0.04
400.754	0.04
400.959	0.02
401.165	0.04
401.37	0.1
401.575	0.16
401.78	0.02
401.986	0.06
402.191	-0.03
402.396	-0
402.601	0.05
402.807	0.05
403.012	0.01
403.217	0.1
403.422	0.04
403.627	0.05
403.832	0.01
404.037	0.07
404.243	0.07
404.448	0.02
404.653	0.02
404.858	0.06
405.063	0.11
405.268	0.03
405.473	-0
405.678	0.02
405.883	0.2
406.088	0.08
406.293	-0.01
406.498	0.02
406.703	0.07
406.907	0.07
407.112	0.03
407.317	0.02
407.522	0.08
407.727	-0
407.932	0.08
408.136	0.14
408.341	0.06
408.546	0.12
408.751	0.06
408.956	0.06
409.16	0.1
409.365	0.04
409.57	0.09
409.774	0.07
409.979	0.07
410.184	0.08
410.388	0.04
410.593	0.11
410.798	0.11
411.002	0.06
411.207	0.08
411.411	0.13
411.616	0.06
411.82	0.06
412.025	0.07
412.229	0.04
412.434	0.16
412.638	0.13
412.843	0.07
413.047	0.15
413.252	0.07
413.456	0.13
413.66	0.16
413.865	0.11
414.069	0.18
414.273	0.09
414.478	0.12
414.682	0.17
414.886	0.12
415.091	0.09
415.295	0.07
415.499	0.21
415.703	0.09
415.908	0.14
416.112	0.04
416.316	0.25
416.52	0.17
416.724	0.11
416.929	0.17
417.133	0.35
417.337	0.18
417.541	0.22
417.745	0.21
417.949	0.28
418.153	0.26
418.357	0.17
418.561	0.4
418.765	0.29
418.969	0.38
419.173	0.35
419.377	0.29
419.581	0.41
419.785	0.35
419.989	0.27
420.193	0.35
420.397	0.38
420.601	0.44
420.804	0.46
421.008	0.47
421.212	0.5
421.416	0.53
421.62	0.47
421.823	0.52
422.027	0.6
422.231	0.53
422.435	0.52
422.638	0.58
422.842	0.62
423.046	0.53
423.249	0.6
423.453	0.7
423.657	0.72
423.86	0.69
424.064	0.72
424.268	0.84
424.471	0.81
424.675	0.89
424.878	0.87
425.082	0.87
425.285	0.95
425.489	0.91
425.692	0.94
425.896	0.97
426.099	1.06
426.303	0.98
426.506	1.06
426.71	1.17
426.913	1.26
427.116	1.32
427.32	1.3
427.523	1.21
427.726	1.4
427.93	1.33
428.133	1.44
428.336	1.43
428.54	1.54
428.743	1.63
428.946	1.75
429.149	1.67
429.353	1.71
429.556	1.73
429.759	1.75
429.962	1.8
430.165	1.82
430.368	1.75
430.571	1.8
430.775	1.8
430.978	1.85
431.181	1.79
431.384	1.93
431.587	1.89
431.79	2.05
431.993	2.05
432.196	2.1
432.399	2.19
432.602	2.31
432.805	2.27
433.008	2.44
433.211	2.32
433.414	2.51
433.616	2.53
433.819	2.53
434.022	2.54
434.225	2.72
434.428	2.73
434.631	2.92
434.833	2.76
435.036	2.85
435.239	2.98
435.442	2.94
435.645	3.05
435.847	3.07
436.05	3.22
436.253	3.33
436.455	3.3
436.658	3.31
436.861	3.49
437.063	3.48
437.266	3.55
437.468	3.73
437.671	3.87
437.874	3.88
438.076	3.81
438.279	3.98
438.481	4.09
438.684	4.4
438.886	4.31
439.089	4.38
439.291	4.49
439.494	4.75
439.696	4.64
439.899	5.07
440.101	5.32
440.303	5.34
440.506	5.74
440.708	5.7
440.91	5.85
441.113	6.01
441.315	6.24
441.517	6.17
441.72	6.48
441.922	6.42
442.124	6.56
442.326	6.77
442.529	6.9
442.731	6.99
442.933	7.29
443.135	7.3
443.337	7.27
443.539	7.77
443.742	7.66
443.944	8.13
444.146	8.13
444.348	8.16
444.55	8.29
444.752	8.4
444.954	8.45
445.156	8.55
445.358	8.87
445.56	9.23
445.762	9.21
445.964	9.39
446.166	9.43
446.368	9.6
446.57	9.73
446.772	9.58
446.974	9.62
447.175	9.92
447.377	9.7
447.579	10.16
447.781	9.93
447.983	10
448.184	9.77
448.386	10.05
448.588	9.9
448.79	10.03
448.991	10.25
449.193	10.19
449.395	9.96
449.597	9.74
449.798	9.73
450	9.51
450.202	9.46
450.403	9.44
450.605	9.44
450.806	9.23
451.008	9.09
451.21	9.03
451.411	8.74
451.613	8.39
451.814	8.46
452.016	8.46
452.217	7.94
452.419	8
452.62	7.7
452.821	7.62
453.023	7.5
453.224	7.22
453.426	6.97
453.627	6.52
453.828	6.64
454.03	6.56
454.231	6.59
454.432	6.37
454.634	6.32
454.835	5.94
455.036	5.88
455.238	5.65
455.439	5.53
455.64	5.27
455.841	5.17
456.042	5.29
456.244	5.09
456.445	4.82
456.646	4.59
456.847	4.66
457.048	4.55
457.249	4.54
457.45	4.5
457.651	4.05
457.852	4.05
458.054	3.84
458.255	3.75
458.456	3.8
458.657	3.78
458.858	3.44
459.058	3.45
459.259	3.52
459.46	3.33
459.661	3.23
459.862	3.39
460.063	3.25
460.264	3.14
460.465	3.02
460.666	3.11
460.866	2.92
461.067	2.72
461.268	2.72
461.469	2.74
461.67	2.67
461.87	2.54
462.071	2.61
462.272	2.51
462.473	2.52
462.673	2.59
462.874	2.48
463.075	2.5
463.275	2.41
463.476	2.44
463.676	2.46
463.877	2.37
464.078	2.3
464.278	2.35
464.479	2.28
464.679	2.21
464.88	2.14
465.08	2.16
465.281	1.99
465.481	1.93
465.682	1.82
465.882	1.86
466.083	1.8
466.283	1.82
466.483	1.73
466.684	1.59
466.884	1.48
467.085	1.51
467.285	1.57
467.485	1.42
467.686	1.45
467.886	1.34
468.086	1.3
468.286	1.28
468.487	1.34
468.687	1.2
468.887	1.22
469.087	1.27
469.287	1.17
469.488	1.07
469.688	1.17
469.888	1.14
470.088	1.1
470.288	1.01
470.488	1.01
470.688	0.98
470.888	0.94
471.088	0.8
471.288	0.94
471.488	0.85
471.688	0.92
471.888	0.82
472.088	0.93
472.288	0.85
472.488	0.72
472.688	0.71
472.888	0.76
473.088	0.72
473.288	0.67
473.488	0.62
473.688	0.74
473.887	0.63
474.087	0.6
474.287	0.66
474.487	0.56
474.687	0.6
474.886	0.58
475.086	0.51
475.286	0.59
475.486	0.54
475.685	0.48
475.885	0.48
476.085	0.53
476.284	0.5
476.484	0.5
476.684	0.49
476.883	0.5
477.083	0.44
477.282	0.42
477.482	0.5
477.681	0.48
477.881	0.39
478.08	0.4
478.28	0.36
478.479	0.44
478.679	0.49
478.878	0.36
479.078	0.37
479.277	0.32
479.477	0.31
479.676	0.37
479.875	0.31
480.075	0.25
480.274	0.35
480.473	0.36
480.673	0.27
480.872	0.35
481.071	0.29
481.271	0.34
481.47	0.25
481.669	0.27
481.868	0.27
482.067	0.23
482.267	0.24
482.466	0.23
482.665	0.24
482.864	0.22
483.063	0.2
483.262	0.25
483.461	0.25
483.661	0.24
483.86	0.22
484.059	0.26
484.258	0.2
484.457	0.2
484.656	0.21
484.855	0.23
485.054	0.17
485.253	0.18
485.452	0.14
485.651	0.18
485.849	0.17
486.048	0.16
486.247	0.14
486.446	0.18
486.645	0.11
486.844	0.12
487.043	0.16
487.241	0.16
487.44	0.11
487.639	0.14
487.838	0.17
488.037	0.13
488.235	0.2
488.434	0.15
488.633	0.12
488.831	0.16
489.03	0.14
489.229	0.12
489.427	0.11
489.626	0.15
489.825	0.15
490.023	0.1
490.222	0.08
490.42	0.12
490.619	0.13
490.817	0.11
491.016	0.08
491.214	0.11
491.413	0.07
491.611	0.07
491.81	0.07
492.008	0.08
492.207	0.09
492.405	0.09
492.604	0.05
492.802	0.1
493	0.09
493.199	0.06
493.397	0.06
493.595	0.07
493.794	0.05
493.992	0.12
494.19	0.06
494.388	0.08
494.587	0.07
494.785	0.06
494.983	0.04
495.181	0.06
495.379	0.07
495.578	0.05
495.776	0.07
495.974	0.06
496.172	0.05
496.37	0.02
496.568	0.04
496.766	0.03
496.964	0.09
497.162	0.05
497.36	0.02
497.558	0.08
497.756	0.06
497.954	0.07
498.152	0.05
498.35	0.06
498.548	0.03
498.746	0.05
498.944	0
499.142	0.02
499.34	0.02
499.538	0.04
499.736	0.02
499.933	0.1
500.131	0.06
500.329	0.02
500.527	0.06
500.725	0.07
500.922	0.07
501.12	0.06
501.318	0.03
501.516	0.01
501.713	0.07
501.911	0.02
502.109	-0.02
502.306	0.07
502.504	0.03
502.701	0.02
502.899	0.03
503.097	0.07
503.294	0.04
503.492	0.02
503.689	0.03
503.887	0.06
504.084	0.07
504.282	0.04
504.479	-0.02
504.677	0.05
504.874	0.01
505.072	0.02
505.269	0.03
505.466	0.06
505.664	0.06
505.861	-0.02
506.059	0.01
506.256	0.04
506.453	0.01
506.651	0.07
506.848	0.04
507.045	0.04
507.242	0.03
507.44	0.02
507.637	0.01
507.834	0.02
508.031	0.06
508.229	-0.02
508.426	0.04
508.623	0.05
508.82	0.01
509.017	0.01
509.214	0.01
509.411	0.04
509.608	-0.01
509.805	0.04
510.003	-0.01
510.2	-0.01
510.397	0.05
510.594	-0
510.791	0.01
510.988	-0.01
511.184	0.05
511.381	0.01
511.578	-0
511.775	0.05
511.972	0.01
512.169	-0.01
512.366	0.01
512.563	0.01
512.76	0.01
512.956	0.03
513.153	-0.01
513.35	0.04
513.547	0.01
513.744	-0.02
513.94	-0.02
514.137	0.02
514.334	0
514.53	0.02
514.727	0.02
514.924	0.05
515.12	0.01
515.317	-0.03
515.514	-0.01
515.71	-0.02
515.907	0.01
516.103	0.02
516.3	0.03
516.497	0.06
516.693	0.04
516.89	0.01
517.086	-0.02
517.283	0.02
517.479	0.01
517.676	0
517.872	0.02
518.068	0.01
518.265	-0.01
518.461	0.02
518.658	-0.04
518.854	-0
519.05	-0
519.247	-0.01
519.443	0.03
519.639	0.04
519.836	0.02
520.032	0.01
520.228	0.02
520.424	0.04
520.621	0.02
520.817	-0.01
521.013	0.02
521.209	0.03
521.405	0.06
521.601	0.02
521.798	0.01
521.994	0.06
522.19	0
522.386	-0.03
522.582	-0.02
522.778	0.02
522.974	-0
523.17	0
523.366	0.02
523.562	0.04
523.758	0.03
523.954	-0.01
524.15	-0.01
524.346	0.04
524.542	-0
524.738	-0.02
524.934	0
525.129	0.02
525.325	0.01
525.521	0.02
525.717	0.03
525.913	0.03
526.109	0.01
526.304	-0
526.5	0.03
526.696	0.05
526.892	0.03
527.087	0.01
527.283	-0.01
527.479	0.03
527.674	0
527.87	0.01
528.066	0
528.261	0.04
528.457	0.02
528.653	0.01
528.848	-0.01
529.044	0.01
529.239	0.02
529.435	0.04
529.63	0.02
529.826	0.06
530.021	0.02
530.217	0.04
530.412	0.01
530.608	0
530.803	0.02
530.999	-0.01
531.194	-0.02
531.389	0.02
531.585	-0.04
531.78	0.01
531.975	0.01
532.171	0.03
532.366	0.01
532.561	0.01
532.757	-0.01
532.952	0.03
533.147	0.03
533.342	-0
533.538	-0.01
533.733	0.04
533.928	-0
534.123	-0
534.318	-0.04
534.513	-0
534.709	-0.01
534.904	-0.02
535.099	-0.01
535.294	0.03
535.489	0.01
535.684	-0
535.879	-0.01
536.074	0.01
536.269	-0.02
536.464	0
536.659	-0.02
536.854	0.01
537.049	0
537.244	0.02
537.439	0
537.634	0.02
537.828	0.01
538.023	0.01
538.218	-0.03
538.413	0.03
538.608	-0.03
538.803	0.03
538.997	-0.03
539.192	0.03
539.387	0.02
539.582	-0
539.776	0
539.971	-0
540.166	-0
540.36	-0.02
540.555	0.01
540.75	-0
540.944	0
541.139	-0.05
541.334	-0.01
541.528	0.02
541.723	0.03
541.917	-0.01
542.112	-0.04
542.306	-0.01
542.501	-0.01
542.695	-0.01
542.89	-0.01
543.084	0.01
543.279	0
543.473	0.01
543.668	0
543.862	0
544.056	0.01
544.251	0.01
544.445	0.01
544.64	-0.01
544.834	-0.02
545.028	-0
545.222	0.02
545.417	0.02
545.611	0.02
545.805	-0.01
546	-0
546.194	0.02
546.388	-0.01
546.582	0.03
546.776	0.01
546.97	0.01
547.165	0.04
547.359	0.02
547.553	-0.03
547.747	0
547.941	0.02
548.135	0.01
548.329	0.02
548.523	0.01
548.717	0.01
548.911	-0.01
549.105	-0
549.299	0.02
549.493	0.02
549.687	0.01
549.881	0.04
550.075	0.01
550.269	-0.02
550.463	0.03
550.657	-0
550.85	0.01
551.044	-0.02
551.238	-0
551.432	-0.02
551.626	-0.03
551.82	0
552.013	-0.01
552.207	0
552.401	0.02
552.594	0.01
552.788	-0.02
552.982	-0.01
553.176	-0.01
553.369	0.02
553.563	-0
553.756	-0.03
553.95	-0.04
554.144	0.01
554.337	0.05
554.531	0.01
554.724	-0.01
554.918	0.01
555.111	0.02
555.305	-0.01
555.498	0.07
555.692	0.01
555.885	-0.01
556.079	0.01
556.272	-0.01
556.466	0.02
556.659	0.02
556.852	-0.03
557.046	0.01
557.239	0.04
557.432	-0.02
557.626	-0.02
557.819	0.01
558.012	0.01
558.206	0.01
558.399	0
558.592	0
558.785	-0
558.979	0.03
559.172	0.01
559.365	0.02
559.558	0.02
559.751	0.02
559.944	0.02
560.138	-0.01
560.331	0
560.524	-0.01
560.717	-0.02
560.91	-0.02
561.103	0.02
561.296	0.01
561.489	0.01
561.682	-0.01
561.875	0.04
562.068	0.02
562.261	0.03
562.454	0.06
562.647	0.01
562.84	0.04
563.032	0.02
563.225	0.02
563.418	-0.01
563.611	-0.01
563.804	-0
563.997	-0.03
564.19	-0.02
564.382	0
564.575	0
564.768	0.01
564.961	0
565.153	-0.01
565.346	0.04
565.539	0.02
565.731	0.01
565.924	0.04
566.117	0.04
566.309	-0
566.502	-0.04
566.695	-0.02
566.887	-0.02
567.08	-0.03
567.272	-0.02
567.465	-0.01
567.657	-0.01
567.85	0.02
568.042	0.02
568.235	0.04
568.427	-0.01
568.62	0
568.812	0.02
569.005	-0.01
569.197	-0.03
569.389	0.01
569.582	-0.01
569.774	-0
569.966	-0.02
570.159	-0.03
570.351	0.02
570.543	-0.01
570.736	-0.03
570.928	-0.02
571.12	0.03
571.312	-0.01
571.505	-0.03
571.697	0.02
571.889	-0.03
572.081	-0.02
572.273	-0.02
572.465	0.04
572.658	-0
572.85	0
573.042	-0.01
573.234	-0.01
573.426	0.04
573.618	-0.03
573.81	0
574.002	0.05
574.194	0.06
574.386	-0.04
574.578	-0.07
574.77	-0.02
574.962	-0
575.154	-0.03
575.346	-0.01
575.538	0.01
575.729	-0.02
575.921	-0
576.113	-0.02
576.305	0.02
576.497	0.02
576.689	0.01
576.88	-0.04
577.072	0.03
577.264	0.02
577.456	-0.02
577.647	-0.05
577.839	0.03
578.031	0.04
578.223	-0.05
578.414	-0.04
578.606	0.03
578.798	0.04
578.989	-0.01
579.181	-0.01
579.372	0.01
579.564	-0.02
579.755	0.01
579.947	0.01
580.139	0.01
580.33	-0.04
580.522	-0.01
580.713	-0.06
580.905	-0.01
581.096	0.01
581.287	0
581.479	-0.01
581.67	0.02
581.862	0
582.053	-0.02
582.244	-0.05
582.436	0
582.627	0
582.818	-0
583.01	-0.04
583.201	-0
583.392	0.03
583.583	-0.02
583.775	-0.01
583.966	-0.03
584.157	-0.04
584.348	0
584.54	-0.05
584.731	0
584.922	-0.01
585.113	-0.05
585.304	-0.01
585.495	0.02
585.686	0
585.877	0
586.068	0.01
586.259	0.03
586.45	-0
586.641	-0.05
586.832	-0.06
587.023	-0.01
587.214	-0
587.405	0.01
587.596	-0.01
587.787	0.04
587.978	0.02
588.169	-0.03
588.36	-0.02
588.551	0.01
588.742	-0.03
588.932	0.01
589.123	-0.02
589.314	0.02
589.505	0.02
589.696	0.02
589.886	-0.04
590.077	-0.04
590.268	0.01
590.458	-0.01
590.649	-0.04
590.84	0.04
591.03	-0.02
591.221	-0.05
591.412	-0.06
591.602	0.02
591.793	0.02
591.984	-0.03
592.174	0
592.365	0.06
592.555	-0.03
592.746	-0.01
592.936	-0.02
593.127	0.03
593.317	0.04
593.508	-0.02
593.698	-0.02
593.889	-0.01
594.079	-0
594.269	-0.02
594.46	0
594.65	0.02
594.84	-0
595.031	-0.04
595.221	-0.01
595.411	-0.04
595.602	0.01
595.792	-0.01
595.982	-0.02
596.172	0.04
596.363	-0
596.553	0.02
596.743	-0
596.933	0.02
597.123	0.04
597.314	-0.03
597.504	-0.02
597.694	0.04
597.884	0.01
598.074	-0.02
598.264	-0.05
598.454	0
598.644	0.02
598.834	-0.02
599.024	-0.03
599.214	-0
599.404	0.02
599.594	-0.02
599.784	-0.04
599.974	0.07
600.164	0.04
600.354	-0.04
600.544	-0.04
600.734	0.02
600.924	0.05
601.114	-0.03
601.303	-0.02
601.493	0.02
601.683	-0.05
601.873	0.01
602.063	-0.05
602.252	0.01
602.442	-0.08
602.632	-0.01
602.821	-0.04
603.011	0.04
603.201	0.01
603.39	-0.03
603.58	-0.04
603.77	0.01
603.959	0.03
604.149	-0.02
604.339	-0.02
604.528	0.05
604.718	0.01
604.907	-0.02
605.097	-0.03
605.286	-0.04
605.476	0
605.665	-0
605.855	-0.01
606.044	0.06
606.234	0
606.423	-0.03
606.612	-0.05
606.802	0.01
606.991	0.01
607.181	0.02
607.37	-0.06
607.559	-0.02
607.749	-0.02
607.938	-0.04
608.127	-0.04
608.316	-0.03
608.506	-0.03
608.695	-0.03
608.884	-0.04
609.073	0
609.263	0.06
609.452	0
609.641	0.03
609.83	-0.04
610.019	0.01
610.208	-0.03
610.397	0.01
610.586	0.02
610.775	-0.04
610.965	-0.02
611.154	-0.05
611.343	0.02
611.532	-0.03
611.721	-0.04
611.91	-0.02
612.099	0
612.287	0.01
612.476	-0.05
612.665	-0.01
612.854	-0.03
613.043	0.03
613.232	-0.02
613.421	-0.04
613.61	-0
613.798	-0.02
613.987	0.04
614.176	-0
614.365	0.03
614.554	0.03
614.742	0.05
614.931	-0.02
615.12	0.01
615.309	-0.01
615.497	-0.02
615.686	-0.05
615.875	-0.04
616.063	0.01
616.252	-0.04
616.44	-0.03
616.629	0.01
616.818	0.02
617.006	-0.02
617.195	0
617.383	0.02
617.572	-0.02
617.76	-0.03
617.949	-0.04
618.137	0.03
618.326	0.03
618.514	-0.01
618.703	-0.02
618.891	0.04
619.079	-0.05
619.268	0.01
619.456	-0.04
619.644	0.04
619.833	-0.02
620.021	-0.04
620.209	-0.06
620.398	0.02
620.586	-0.01
620.774	0
620.962	-0.04
621.151	0.04
621.339	-0
621.527	-0.03
621.715	-0.05
621.903	-0.02
622.092	-0.03
622.28	-0
622.468	-0.01
622.656	-0.02
622.844	0.02
623.032	-0.01
623.22	-0.06
623.408	-0
623.596	-0
623.784	0.02
623.972	-0.06
624.16	-0.02
624.348	0.08
624.536	-0
624.724	-0.03
624.912	0.03
625.1	0.01
625.288	-0.05
625.476	-0.02
625.664	0.02
625.851	-0.06
626.039	0.01
626.227	0.01
626.415	-0.01
626.603	-0.08
626.79	-0.01
626.978	-0.02
627.166	0.01
627.354	-0.03
627.541	-0.03
627.729	-0.05
627.917	-0.01
628.104	0.04
628.292	-0
628.48	-0
628.667	0.04
628.855	-0.04
629.042	-0
629.23	0
629.418	-0.02
629.605	-0.04
629.793	-0.04
629.98	0.01
630.168	-0.01
630.355	-0.01
630.543	-0.01
630.73	-0.04
630.917	0.02
631.105	0.06
631.292	-0.04
631.48	-0.02
631.667	0.06
631.854	-0.02
632.042	-0.03
632.229	-0.03
632.416	-0.02
632.604	-0.02
632.791	-0.04
632.978	0.01
633.165	-0.02
633.353	0.05
633.54	0.08
633.727	-0.06
633.914	-0.04
634.101	-0.03
634.289	0.04
634.476	-0.05
634.663	-0.04
634.85	-0.01
635.037	-0.04
635.224	-0.06
635.411	0.03
635.598	0.05
635.785	0
635.972	-0.03
636.159	0.03
636.346	-0.05
636.533	-0.01
636.72	-0.01
636.907	-0.03
637.094	0.01
637.281	-0.04
637.468	0.01
637.655	-0.02
637.842	-0.02
638.029	-0.02
638.215	0.03
638.402	-0.01
638.589	-0.04
638.776	-0.03
638.963	-0.02
639.149	0.02
639.336	0.05
639.523	-0.02
639.709	-0.02
639.896	0.01
640.083	0.05
640.27	-0
640.456	-0.01
640.643	0.02
640.829	-0.05
641.016	-0.04
641.203	-0.08
641.389	0.03
641.576	0.02
641.762	-0.01
641.949	-0.05
642.135	-0
642.322	-0
642.508	-0.03
642.695	-0.02
642.881	-0.03
643.068	-0.04
643.254	-0.03
643.441	0.03
643.627	-0.02
643.813	-0.05
644	0
644.186	-0.05
644.372	0
644.559	0.01
644.745	-0.03
644.931	-0.01
645.118	-0
645.304	-0.01
645.49	-0.04
645.676	0.01
645.862	0.03
646.049	0.05
646.235	-0.03
646.421	0.08
646.607	0.02
646.793	0.03
646.979	-0.04
647.165	0.01
647.352	-0.02
647.538	0.04
647.724	0
647.91	0
648.096	0.01
648.282	0.06
648.468	-0.02
648.654	-0.02
648.84	-0.02
649.026	0
649.212	-0
649.397	-0.05
649.583	-0.06
649.769	0.01
649.955	-0.01
650.141	0.02
650.327	0.03
650.513	-0.07
650.698	0.03
650.884	-0.07
651.07	0.01
651.256	0.02
651.442	-0.02
651.627	-0.02
651.813	0.03
651.999	-0.01
652.184	0.01
652.37	0
652.556	-0.01
652.741	0.05
652.927	-0.06
653.113	-0.02
653.298	0.02
653.484	-0.03
653.669	-0.06
653.855	-0.03
654.04	0.01
654.226	0.01
654.412	-0.02
654.597	-0.04
654.782	0.01
654.968	0.02
655.153	0.01
655.339	-0.01
655.524	-0.02
655.71	0.03
655.895	-0.04
656.08	-0.02
656.266	0.06
656.451	0.01
656.636	-0.03
656.822	-0.02
657.007	-0.03
657.192	-0.04
657.378	-0.05
657.563	-0.02
657.748	0.01
657.933	-0.02
658.118	-0.02
658.304	-0.04
658.489	-0
658.674	0.02
658.859	-0.02
659.044	-0
659.229	-0
659.414	-0.05
659.599	0
659.785	-0.07
659.97	-0.05
660.155	0.02
660.34	0.01
660.525	-0.01
660.71	-0.03
660.895	0.01
661.08	-0.04
661.264	-0.03
661.449	0.04
661.634	0.03
661.819	0.02
662.004	0.04
662.189	-0.08
662.374	-0.04
662.559	-0.07
662.743	-0.05
662.928	-0
663.113	-0.01
663.298	-0.09
663.483	-0.06
663.667	0.01
663.852	-0.07
664.037	0.03
664.221	-0.04
664.406	0.01
664.591	0.06
664.775	0
664.96	-0.1
665.145	0.01
665.329	0.02
665.514	-0.03
665.698	-0.04
665.883	-0.06
666.068	0.07
666.252	-0.02
666.437	-0.1
666.621	-0.01
666.806	0.03
666.99	-0
667.174	-0.06
667.359	0.06
667.543	0
667.728	-0.04
667.912	-0.08
668.096	0.05
668.281	-0.03
668.465	0
668.649	-0.01
668.834	-0.07
669.018	-0.01
669.202	-0.04
669.387	-0.05
669.571	0.01
669.755	-0.02
669.939	-0.04
670.124	0
670.308	0.04
670.492	0.04
670.676	-0.03
670.86	0.01
671.044	-0.03
671.228	0.04
671.413	-0.02
671.597	-0.01
671.781	-0.06
671.965	0.01
672.149	0.02
672.333	-0.02
672.517	-0.03
672.701	0.04
672.885	-0.04
673.069	-0.07
673.253	0.04
673.437	-0
673.621	-0.05
673.804	-0.02
673.988	0.01
674.172	-0.02
674.356	-0.08
674.54	-0.03
674.724	0.07
674.908	-0.05
675.091	0.03
675.275	-0
675.459	0.02
675.643	-0.01
675.826	0.02
676.01	-0
676.194	-0.02
676.377	0.06
676.561	-0.01
676.745	0
676.928	0.02
677.112	0.05
677.296	-0.04
677.479	-0.05
677.663	-0.03
677.846	0.04
678.03	-0
678.213	-0.05
678.397	0.02
678.58	-0.02
678.764	-0.06
678.947	-0.03
679.131	-0.09
679.314	0.05
679.498	0.01
679.681	-0.01
679.865	0.02
680.048	0.01
680.231	-0.04
680.415	-0.03
680.598	-0.03
680.781	-0.02
680.965	0
681.148	-0.03
681.331	-0.02
681.514	-0.03
681.698	-0.06
681.881	0.01
682.064	0.01
682.247	0
682.43	-0.06
682.614	0.05
682.797	0.03
682.98	0.04
683.163	-0.05
683.346	-0
683.529	-0
683.712	-0.06
683.895	0.02
684.078	-0.1
684.261	-0.01
684.444	0.04
684.627	0.02
684.81	-0.04
684.993	-0.05
685.176	0.04
685.359	-0.06
685.542	-0.06
685.725	0.06
685.908	-0.03
686.091	-0.05
686.274	0.01
686.457	0.01
686.639	-0.03
686.822	0.05
687.005	-0.03
687.188	0
687.371	0.05
687.553	-0
687.736	0.01
687.919	0.03
688.102	0.05
688.284	0
688.467	-0.02
688.65	-0.02
688.832	-0.04
689.015	-0.02
689.197	-0.09
689.38	0.09
689.563	0.09
689.745	-0.09
689.928	-0.01
690.11	-0.03
690.293	-0.01
690.475	-0.08
690.658	-0.05
690.84	-0.03
691.023	0.01
691.205	-0.01
691.388	-0.04
691.57	0.02
691.752	0.02
691.935	-0.12
692.117	-0.04
692.3	0
692.482	0.01
692.664	-0.02
692.847	-0
693.029	0.09
693.211	-0.01
693.393	-0.06
693.576	-0.06
693.758	0.01
693.94	-0.02
694.122	0.02
694.304	-0.03
694.487	-0.05
694.669	0.09
694.851	-0.07
695.033	-0.04
695.215	-0.05
695.397	-0.04
695.579	-0.02
695.761	-0.06
695.943	-0.09
696.125	0.04
696.308	0.02
696.49	-0.15
696.671	0.11
696.853	-0.06
697.035	0.09
697.217	-0.01
697.399	0.02
697.581	0
697.763	0
697.945	-0.08
698.127	-0.05
698.309	-0.13
698.491	-0.04
698.672	0.02
698.854	0.07
699.036	0.02
699.218	-0.05
699.399	0.04
699.581	0.06
699.763	-0.02
699.945	-0.04
700.126	-0.05
700.308	-0
700.49	-0.01
700.671	-0.13
700.853	-0.05
701.035	-0.06
701.216	-0.05
701.398	-0.07
701.579	-0.03
701.761	-0.01
701.943	-0.04
702.124	-0.07
702.306	-0.03
702.487	0.07
702.669	-0
702.85	-0.09
703.031	-0.07
703.213	0.14
703.394	0.06
703.576	-0.08
703.757	0.01
703.938	0.02
704.12	0.16
704.301	-0.02
704.483	-0.03
704.664	0.04
704.845	0.1
705.026	0.04
705.208	-0
705.389	0
705.57	-0.01
705.751	-0.03
705.933	-0.02
706.114	0.07
706.295	-0.02
706.476	-0.07
706.657	0.05
706.838	-0.02
707.02	0.05
707.201	-0.04
707.382	-0.08
707.563	0
707.744	-0.04
707.925	-0.09
708.106	-0.07
708.287	0.06
708.468	0.1
708.649	-0.04
708.83	-0.04
709.011	-0.04
709.192	0.05
709.373	-0.08
709.554	-0.05
709.734	-0
709.915	0.01
710.096	-0.08
710.277	-0.1
710.458	-0.06
710.639	0.02
710.819	-0.1
711	-0
711.181	0.15
711.362	0.04
711.542	0.02
711.723	-0.01
711.904	0.1
712.085	0.03
712.265	0.01
712.446	-0.1
712.627	0
712.807	-0.08
712.988	-0.07
713.168	-0.12
713.349	0.07
713.53	-0.13
713.71	-0.05
713.891	-0.1
714.071	-0.07
714.252	-0.08
714.432	-0.08
714.613	-0.11
714.793	0.04
714.974	0.06
715.154	0.04
715.334	0.04
715.515	0.08
715.695	-0.05
715.876	0
716.056	0
716.236	-0.03
716.417	0
716.597	-0.01
716.777	0.11
716.957	-0.02
717.138	-0.02
717.318	0.03
717.498	-0.1
717.678	0.02
717.859	-0.08
718.039	-0.06
718.219	0.01
718.399	-0.02
718.579	-0.11
718.759	-0.06
718.939	-0.02
719.12	-0.04
719.3	0
719.48	-0.12
719.66	-0.14
719.84	0.06
720.02	-0.01
720.2	-0.06
720.38	-0.04
720.56	0.1
720.74	-0.11
720.92	-0.03
721.1	0.1
721.279	0.05
721.459	-0.05
721.639	-0.18
721.819	-0.03
721.999	-0.01
722.179	0.08
722.359	-0.13
722.538	0.01
722.718	-0.03
722.898	-0.05
723.078	0.01
723.257	-0.07
723.437	-0
723.617	0.02
723.797	-0.05
723.976	-0.01
724.156	0.06
724.336	0.07
724.515	0.14
724.695	-0.17
724.874	-0.06
725.054	0.04
725.234	-0.1
725.413	0.05
725.593	-0.01
725.772	-0.05
725.952	-0.07
726.131	-0.1
726.311	-0.01
726.49	-0.06
726.67	-0.11
726.849	-0.12
727.028	-0.06
727.208	0.01
727.387	0
727.567	-0.09
727.746	-0.05
727.925	-0.05
728.105	-0.18
728.284	-0.08
728.463	-0.06
728.643	0.04
728.822	-0.14
729.001	-0.11
729.18	0.01
729.359	0.09
729.539	-0.05
729.718	-0.03
729.897	0.1
730.076	-0.11
730.255	-0.15
730.434	-0.01
730.614	0.05
730.793	0.1
730.972	-0.05
731.151	-0.05
731.33	0.07
731.509	-0.02
731.688	-0.09
731.867	-0.01
732.046	-0.09
732.225	0.14
732.404	-0.03
732.583	-0.11
732.762	-0.04
732.941	0.08
733.12	-0.03
733.298	0.02
733.477	0.14
733.656	-0.04
733.835	-0.1
734.014	0.04
734.193	-0.1
734.371	0.09
734.55	-0.05
734.729	-0.09
734.908	0.08
735.086	-0.01
735.265	0.08
735.444	-0.16
735.623	-0.17
735.801	-0.11
735.98	-0.07
736.159	0.03
736.337	0.02
736.516	-0.06
736.694	-0.03
736.873	-0.03
737.052	0.06
737.23	0.08
737.409	-0.02
737.587	0.18
737.766	-0.18
737.944	0.03
738.123	0.1
738.301	0.1
738.479	-0.04
738.658	-0.03
738.836	-0.24
739.015	-0.02
739.193	0.05
739.371	-0.09
739.55	-0.07
739.728	-0.2
739.906	0.06
740.085	0.06
740.263	0.05
740.441	-0.19
740.62	-0.03
740.798	-0.04
740.976	-0.22
741.154	-0.19
741.332	0.29
741.511	-0.05
741.689	-0.01
741.867	0
742.045	0.03
742.223	-0.05
742.401	-0.12
742.579	-0.16
742.757	0.02
742.935	-0.11
743.114	-0.1
743.292	0.03
743.47	0.02
743.648	0.02
743.826	-0.05
744.004	0.03
744.181	0.15
744.359	-0.04
744.537	0.06
744.715	-0.07
744.893	0.02
745.071	0.03
745.249	-0.05
745.427	-0.04
745.605	0.11
745.782	-0.04
745.96	0.03
746.138	0.07
746.316	0.02
746.493	-0.04
746.671	-0.03
746.849	-0.12
747.027	0.13
747.204	-0.1
747.382	-0.03
747.56	-0.06
747.737	-0.01
747.915	-0.07
748.093	-0.06
748.27	-0.13
748.448	-0.08
748.625	-0.14
748.803	-0.13
748.98	-0.08
749.158	-0.07
749.335	0.04
749.513	-0.02
749.69	-0.14
749.868	-0
750.045	-0.04
750.223	-0.06
750.4	-0.16
750.578	0.23
750.755	-0.04
750.932	-0.16
751.11	-0.02
751.287	-0.13
751.464	0.05
751.642	-0.21
751.819	0.08
751.996	0.07
752.173	0.05
752.351	-0.09
752.528	-0.04
752.705	0.05
752.882	-0.09
753.06	-0.08
753.237	0.03
753.414	0.2
753.591	0.11
753.768	-0.11
753.945	-0.05
754.122	-0.08
754.299	0.13
754.476	-0.13
754.654	-0.1
754.831	0.07
755.008	0.1
755.185	-0.05
755.362	-0.08
755.539	-0.01
755.716	-0.04
755.892	-0.2
756.069	-0.07
756.246	-0.01
756.423	-0.02
756.6	0.15
756.777	0.05
756.954	0.14
757.131	-0.08
757.307	-0.19
757.484	-0.19
757.661	0.03
757.838	0.07
758.015	-0.18
758.191	0.09
758.368	-0.05
758.545	0.13
758.721	-0.03
758.898	-0.14
759.075	-0.05
759.251	0.08
759.428	0.1
759.605	-0.1
759.781	-0.05
759.958	0.07
760.134	0.02
760.311	-0.12
760.488	0.2
760.664	0.13
760.841	-0.07
761.017	-0.14
761.194	0.01
761.37	-0.09
761.547	0.03
761.723	-0
761.899	0.07
762.076	-0.13
762.252	-0.05
762.429	-0.22
762.605	0.06
762.781	-0.03
762.958	-0
763.134	-0.02
763.31	-0.09
763.486	0.06
763.663	-0.21
763.839	-0.02
764.015	-0.24
764.191	-0.16
764.368	0.04
764.544	-0.1
764.72	-0.04
764.896	0.06
765.072	-0.08
765.248	-0.11
765.425	0.08
765.601	0.03
765.777	0.03
765.953	-0.24
766.129	-0.13
766.305	-0.04
766.481	0.01
766.657	-0.05
766.833	0.23
767.009	-0.14
767.185	-0.11
767.361	-0.12
767.537	-0.07
767.713	0.11
767.889	-0.12
768.065	0.02
768.24	0.04
768.416	0.08
768.592	-0.12
768.768	-0.16
768.944	0.11
769.12	-0.07
769.295	-0.07
769.471	0.04
769.647	0.05
769.823	0.01
769.998	-0.19
770.174	-0.19
770.35	0.35
770.525	0.42
770.701	-0.11
770.877	-0.03
771.052	-0.12
771.228	0.1
771.403	-0.03
771.579	0.01
771.755	0.25
771.93	-0.14
772.106	-0.15
772.281	-0.24
772.457	-0.06
772.632	0.12
772.808	-0.3
772.983	-0.06
773.159	-0.14
773.334	0.11
773.509	0.02
773.685	-0.21
773.86	0.34
774.036	0.16
774.211	0.08
774.386	-0.1
774.562	0.03
774.737	-0.07
774.912	-0.14
775.087	-0.01
775.263	0.11
775.438	-0.01
775.613	-0.09
775.788	-0.06
775.964	0.12
776.139	0.26
776.314	-0.35
776.489	-0.19
776.664	0.14
776.839	-0.17
777.014	0.1
777.19	0.05
777.365	0.18
777.54	0.24
777.715	-0.12
777.89	-0.13
778.065	-0.19
778.24	-0.17
778.415	0.2
778.59	-0.25
778.765	-0.11
778.94	0.03
779.115	-0.07
779.289	-0.12
779.464	-0.03
779.639	-0.06
779.814	-0.32
779.989	-0.1
780.164	0.15
780.339	0.04
780.513	-0.21
780.688	-0.13
780.863	0.02
781.038	0.11
781.212	-0.2
781.387	-0.09
781.562	0.27
781.737	-0.17
781.911	0.1
782.086	-0.06
782.261	-0.09
782.435	0.2
782.61	-0.15
782.784	0.03
782.959	0.2
783.134	-0.1
783.308	-0.38
783.483	-0.16
783.657	0.26
783.832	0.03
784.006	-0.38
784.181	-0.22
784.355	0.2
784.53	-0.3
784.704	-0.33
784.878	0.25
785.053	0.04
785.227	0.11
785.402	0.34
785.576	-0.18
785.75	-0.12
785.925	-0.2
786.099	-0.11
786.273	0.02
786.448	0.05
786.622	0.28
786.796	-0.08
786.97	-0.16
787.145	0.4
787.319	-0.22
787.493	-0.24
787.667	-0.51
787.841	-0.11
788.015	0
788.19	-0.13
788.364	-0.06
788.538	0.07
788.712	0.16
788.886	-0.27
789.06	-0.15
789.234	-0.03
789.408	-0.25
789.582	-0.18
789.756	-0.04
789.93	-0.17
790.104	-0.35
790.278	-0.22
790.452	-0.28
790.626	0.04
790.8	-0.24
790.973	0.23
791.147	0.18
791.321	0.09
791.495	0.31
791.669	-0.05
791.843	0.14
792.016	-0.02
792.19	0.21
792.364	-0.21
792.538	0.41
792.711	0.34
792.885	-0.25
793.059	-0.09
793.233	-0.39
793.406	0.24
793.58	-0.09
793.754	-0.08
793.927	-0.13
794.101	0.06
794.274	0.16
794.448	0.11
794.622	-0.36
794.795	0.34
794.969	-0.31
795.142	0.11
795.316	-0.26
795.489	-0.4
795.663	0.12
795.836	-0.12
796.009	-0.48
796.183	0.36
796.356	0.34
796.53	-0.05
796.703	-0.1
796.876	0.49
797.05	-0.1
797.223	-0.04
797.396	-0.08
797.57	0.21
797.743	0.35
797.916	0.14
798.09	-0.05
798.263	0.1
798.436	0.04
798.609	-0.28
798.782	-0.03
798.956	-0.08
799.129	-0.14
799.302	-0.11
799.475	-0.34
799.648	-0.31
799.821	-0.32
799.994	0.09
800.167	-0.27
800.34	-0.02
800.514	0.05
800.687	-0.07
800.86	-0.24
801.033	-0.02
801.206	-0
801.379	-0.67
801.551	0.05
801.724	0.22
801.897	0.56
802.07	-0.27
802.243	-0.39
802.416	-0.1
802.589	-0.37
802.762	0.04
802.935	-0.06
803.107	-0.04
803.28	0.37
803.453	0.07
803.626	-0.51
803.798	0.13
803.971	-0.08
804.144	0.1
804.317	0.07
804.489	0.32
804.662	-0.07
804.835	0.03
805.007	-0.31
805.18	0.5
805.353	0.21
805.525	-0.35
805.698	-0.24
805.87	0.14
806.043	0.34
806.215	-0.25
806.388	-0.43
806.56	0.08
806.733	0.26
806.905	-0.1
807.078	-0.22
807.25	-0.19
807.423	0.05
807.595	0
807.768	-0.05
807.94	0.26
808.112	0.08
808.285	-0.13
808.457	-0.13
808.629	-0.16
808.802	0.19
808.974	0.23
809.146	-0.51
809.318	-0.47
809.491	-0.26
809.663	0.12
809.835	-0.24
810.007	0.14
810.18	-0.22
810.352	-0.54
810.524	0.15
810.696	0.4
810.868	0.58
811.04	-0.32
811.212	0.13
811.384	0.31
811.556	0.02
811.728	-0.28
811.901	0.86
812.073	-0.34
812.245	0.55
812.417	-0.2
812.589	-0.98
812.76	0.15
812.932	0.36
813.104	0.2
813.276	-0.2
813.448	-0.06
813.62	-0.01
813.792	0.05
813.964	-0.49
814.136	-0.11
814.307	-0.03
814.479	-0.14
814.651	-0.41
814.823	0.97
814.995	-0.31
815.166	0.19
815.338	-0.63
815.51	-0.39
815.681	0.68
815.853	0.04
816.025	-0.38
816.196	0.46
816.368	0.43
816.54	-0.56
816.711	-0.45
816.883	0.17
817.054	1.09
817.226	-0.67
817.398	0.14
817.569	-0.59
817.741	0.26
817.912	-0.6
818.084	-0.1
818.255	0.51
818.426	-0.51
818.598	-0.27
818.769	-0.7
818.941	0.15
819.112	0.82
819.283	0.52
819.455	-0.46
819.626	0.15
819.798	-0.04
819.969	0.28
820.14	-0.09
820.311	-0.38
820.483	0.13
820.654	0.21
820.825	-0.16
820.996	-0.52
821.168	-0.31
821.339	-0.27
821.51	-0.37
821.681	0.14
821.852	0.2
822.023	-0.82
822.195	-0.48
822.366	0.4
822.537	-0.25
822.708	-0.09
822.879	-0.26
823.05	0.61
823.221	-0.43
823.392	0.18
823.563	-0.36
823.734	-0.08
823.905	-0.57
824.076	-0.47
824.247	-0.43
824.418	-0.44
824.589	0.78
824.759	-0.26
824.93	-0.26
825.101	-0.88
825.272	0.47
825.443	0.45
825.614	0.04
825.784	-0.79
825.955	0.16
826.126	0.53
826.297	-0.45
826.467	0.45
826.638	0.46
826.809	-1.01
826.98	-0.38
827.15	0.1
827.321	-0.07
827.492	0.41
827.662	0.29
827.833	0.65
828.003	0.47
828.174	-0.4
828.345	-0.69
828.515	0.55
828.686	-0.29
828.856	-0.08
829.027	-0.01
829.197	-0.1
829.368	-0.26
829.538	-0.2
829.709	-0.28
829.879	-0.02
830.049	-0.23
830.22	-0.38
830.39	-0.03
830.56	0.55
830.731	-0.44
830.901	-0.61
831.072	-0
831.242	0.47
831.412	-0.33
831.582	-0.07
831.753	-0.76
831.923	0.15
832.093	-0.12
832.263	-0.26
832.434	-0.54
832.604	-0.27
832.774	0.24
832.944	-0.67
833.114	-0.5
833.284	0.45
833.454	-0.27
833.624	-0.79
833.795	0.04
833.965	0.62
834.135	0.27
834.305	-1.12
834.475	-1.25
834.645	-0.38
834.815	-0.27
834.985	-0.74
835.155	-0.87
835.325	0.26
835.494	-0.11
835.664	-0.12
835.834	-1.13
836.004	-0.1
836.174	-0.76
836.344	-0.56
836.514	-1.08
836.684	-0.76
836.853	0.23
837.023	0.28
837.193	-0.79
837.363	0.57
837.532	0.37
837.702	-0.47
837.872	-0.93
838.041	0.13
838.211	1.45
838.381	-0.89
838.55	-0.1
838.72	1.94
838.89	0.91
839.059	-0.68
839.229	-0.44
839.398	1.6
839.568	0.21
839.738	0.04
839.907	0.78
840.077	0.02
840.246	0
840.416	-1.21
840.585	-1.02
840.755	1.18
840.924	0.59
841.093	-0.24
841.263	-0.05
841.432	-0.34
841.602	-0.92
841.771	-0.69
841.94	-0.48
842.11	1.8
842.279	1.08
842.448	-0.59
842.617	-0.53
842.787	1.34
842.956	-0.79
843.125	-0.61
843.294	0.19
843.464	0.88
843.633	-0.05
843.802	-0.85
843.971	-0.83
844.14	-0.14
844.309	0.02
844.479	-0.82
844.648	-0.9
844.817	-0.81
844.986	0.17
845.155	-0.48
845.324	-0.7
845.493	0.02
845.662	-1.26
845.831	0.97
846	-0.43
846.169	0.13
846.338	0.78
846.507	0.01
846.676	-0.41
846.844	-1.05
847.013	0.87
847.182	-0.06
847.351	-1.23
847.52	-0.67
847.689	0.37
847.858	-0.47
848.026	-0.7
848.195	-0.24
848.364	-0.55
848.533	-1.03
848.701	-0.49
848.87	-0.18
849.039	0.24
849.207	0.42
849.376	1.12
849.545	1.78
849.713	-0.17
849.882	-1.5
850.051	-0.05
850.219	0.15
850.388	0.62
850.556	-1.37
850.725	-1.58
850.893	0.26
851.062	-0.79
851.23	-0.15
851.399	-1.14
851.567	-1.4
851.736	-1.44
851.904	-0.68
852.073	-0.31
852.241	0.51
852.41	-0.98
852.578	0.8
852.746	-1.69
852.915	0.01
853.083	0.54
853.251	-0.72
853.42	-0.11
853.588	-0.81
853.756	1.29
853.924	0.03
854.093	-0.94
854.261	-0.4
854.429	-1.29
854.597	1.13
854.765	-1.66
854.934	0.07
855.102	1.1
855.27	-0.78
855.438	0.34
855.606	0.51
855.774	0.62
855.942	-1.86
856.11	-1.77
856.278	-0.09
856.446	0.74
856.614	-0.81
856.782	-0.61
856.95	1.06
857.118	0.47
857.286	-0.47
857.454	-1.06
857.622	0.66
857.79	0.53
857.958	-0.62
858.126	-0.17
858.294	-2.36
858.462	-0.65
858.629	-1.64
858.797	-1.76
858.965	-0.48
859.133	0.12
859.301	-0.78
859.468	0.31
859.636	-1.51
859.804	0.62
859.971	-0.02
860.139	-0.89
860.307	0.61
860.474	0.25
860.642	-0.13
860.81	-1.48
860.977	0.37
861.145	0.35
861.313	0.23
861.48	-0.33
861.648	-0.21
861.815	-0.16
861.983	-2.43
862.15	0.05
862.318	0.3
862.485	1.29
862.653	-2.43
862.82	-0.71
862.988	1.6
863.155	0.74
863.322	-0.91
863.49	-1.53
863.657	-0.27
863.824	1.28
863.992	0.18
864.159	-0.36
864.326	1.52
864.494	-0.63
864.661	1.08
864.828	-2.18
864.996	0.65
865.163	0.81
865.33	-0.81
865.497	-1.73
865.664	-1.36
865.832	-1.83
865.999	-0.79
866.166	-0.75
866.333	0
866.5	-1.3
866.667	-0.64
866.834	-1.72
867.001	0.42
867.168	-2.12
867.335	-0.63
867.502	-2.29
867.669	-0.41
867.836	2.49
868.003	-0.6
868.17	1.71
868.337	-1.67
868.504	2.03
868.671	-2.87
868.838	-1.14
869.005	0.07
869.172	1.27
869.339	-0.18
869.505	-0.82
869.672	-1.06
869.839	1.45
870.006	1.09
870.173	-1.08
870.339	-1.26
870.506	2.51
870.673	-1.84
870.84	0.35
871.006	0.51
871.173	-1.03
871.34	-0.55
871.506	-3.38
871.673	0.3
871.839	-2.27
872.006	0.99
872.173	0.07
872.339	-0.61
872.506	0.95
872.672	0.59
872.839	-1.24
873.005	-0.11
873.172	4.21
873.338	0.9
873.505	0.41
873.671	1.37
873.838	0.11
874.004	-1.25
874.171	-2.63
874.337	0.76
874.503	1.41
874.67	-2.15
874.836	-0.82
875.002	0.06
875.169	0.68
875.335	-0.71
875.501	0.43
875.668	-0.26
875.834	-0.88
876	-1.24
876.166	0.45
876.332	0.38
876.499	3.4
876.665	-1.85
876.831	-0.42
876.997	3.46
877.163	-0.53
877.329	-1.81
877.495	0.37
877.662	1.29
877.828	-0.34
877.994	-1.84
878.16	-5.21
878.326	-1.27
878.492	-0.48
878.658	-0.53
878.824	1.19
878.99	1.92
879.156	-2.21
879.322	1.01
879.487	-1.25
879.653	-0.82
879.819	-1.78
879.985	-1.5
880.151	0.71
880.317	-0.65
880.483	0
880.648	1.37
880.814	-3.63
880.98	-1.12
881.146	-1.89
881.312	-0.46
881.477	-0.86
881.643	-0.86
881.809	1.7
881.974	0.04
882.14	-2.1
882.306	-0.09
882.471	3.26
882.637	0.74
882.803	-0.48
882.968	2.44
883.134	2.7
883.299	-1.29
883.465	-1.45
883.63	0.3
883.796	1.5
883.961	0.7
884.127	0.43
884.292	-5.36
884.458	-3.28
884.623	-3.28
