Data from Apollo_Calib_20240827__AbsoluteIrradiance__508__07-37-02-804.txt Node

Date: Wed Aug 28 07:37:02 BST 2024
User: biology
Spectrometer: FLMT08252
Trigger mode: 0
Integration Time (sec): 5.000000E-1
Scans to average: 5
Electric dark correction enabled: true
Nonlinearity correction enabled: false
Boxcar width: 0
XAxis mode: Wavelengths
Number of Pixels in Spectrum: 3648
>>>>>Begin Spectral Data<<<<<
179.588	-0
179.809	-0
180.03	-0
180.251	-0
180.473	-0
180.694	0
180.915	0
181.136	-0
181.357	-0
181.578	-0
181.799	-0
182.02	-0
182.241	0
182.462	-0
182.683	0
182.904	-0
183.125	0
183.346	0
183.567	0
183.788	-0
184.009	-0
184.23	-0
184.451	0
184.672	-0
184.892	-0
185.113	-0
185.334	0
185.555	-0
185.776	-0
185.996	0
186.217	0
186.438	0
186.659	-0
186.879	0
187.1	-0
187.321	-0
187.541	-0
187.762	0
187.983	0
188.203	-0
188.424	-0
188.644	0
188.865	0
189.086	0
189.306	-0
189.527	0
189.747	0
189.968	-0
190.188	0
190.409	0
190.629	0
190.849	-0
191.07	0
191.29	0
191.511	0
191.731	-0
191.951	0
192.172	0
192.392	-0
192.612	-0
192.833	0
193.053	0
193.273	0
193.493	0
193.714	-0
193.934	0
194.154	0
194.374	0
194.594	0
194.815	-0
195.035	0
195.255	0
195.475	-0
195.695	0
195.915	0
196.135	-0
196.355	0
196.575	0
196.795	0
197.015	-0
197.235	0
197.455	-0
197.675	0
197.895	-0
198.115	-0
198.335	0
198.555	-0
198.775	0
198.995	-0
199.214	0
199.434	-0
199.654	-0
199.874	-0
200.094	0.68
200.313	-0.29
200.533	0.16
200.753	-0.83
200.973	0.91
201.192	0.94
201.412	-0.23
201.632	-0.04
201.851	0.79
202.071	-0.4
202.291	-0.15
202.51	-0.32
202.73	0.46
202.95	0.02
203.169	-0.7
203.389	-0.2
203.608	0.26
203.828	-0.37
204.047	-0.22
204.267	0.36
204.486	0.06
204.706	-0.08
204.925	-0.32
205.145	-0.39
205.364	0.63
205.583	0.71
205.803	-0.19
206.022	-0.48
206.242	-0.13
206.461	-0.15
206.68	-0.37
206.9	0.23
207.119	0.71
207.338	0.54
207.557	-0.31
207.777	0.02
207.996	-0.29
208.215	0.36
208.434	-0.27
208.654	-0.66
208.873	0.33
209.092	0.63
209.311	-0.24
209.53	0.01
209.749	-0.28
209.968	0.12
210.187	-0.02
210.407	-0.32
210.626	-0.15
210.845	0.05
211.064	0.03
211.283	-0.22
211.502	0.27
211.721	-0.3
211.94	0.07
212.159	0.39
212.377	0.09
212.596	0.5
212.815	0.14
213.034	0.25
213.253	0.36
213.472	0.2
213.691	-0.14
213.91	-0.22
214.128	-0.17
214.347	0.43
214.566	-0.57
214.785	-0.15
215.003	0.19
215.222	0.02
215.441	0.06
215.66	-0.35
215.878	0.15
216.097	0.26
216.316	-0.24
216.534	-0.08
216.753	0.12
216.972	-0.12
217.19	0.09
217.409	-0.32
217.627	-0.3
217.846	-0.13
218.064	-0.11
218.283	-0.18
218.501	0.29
218.72	0.09
218.938	-0.29
219.157	-0.1
219.375	0.21
219.594	0.23
219.812	-0.24
220.031	-0.12
220.249	0.31
220.467	0.28
220.686	-0.18
220.904	-0.17
221.122	-0.17
221.341	0.27
221.559	-0.04
221.777	-0.13
221.995	0
222.214	0.11
222.432	0.02
222.65	0.09
222.868	0.08
223.086	0.07
223.305	0.13
223.523	0.08
223.741	0.18
223.959	-0.05
224.177	-0.23
224.395	-0.25
224.613	0.05
224.831	0.22
225.049	-0.02
225.267	-0.08
225.485	0.1
225.703	-0.07
225.921	0.1
226.139	0.01
226.357	0.03
226.575	0.07
226.793	-0.11
227.011	0.48
227.229	0.01
227.447	0.22
227.665	-0.23
227.883	-0.19
228.1	0.16
228.318	0.05
228.536	-0.24
228.754	0.01
228.972	0.04
229.189	0.11
229.407	-0.06
229.625	0.08
229.843	0.3
230.06	0.13
230.278	-0.07
230.496	-0.07
230.713	-0.01
230.931	0.16
231.149	-0.02
231.366	-0.16
231.584	-0.02
231.801	0.34
232.019	0.01
232.236	-0.16
232.454	-0.12
232.671	-0
232.889	-0.05
233.106	-0.06
233.324	-0.01
233.541	-0.08
233.759	0.03
233.976	-0.07
234.194	-0.01
234.411	0.07
234.628	-0.01
234.846	-0.02
235.063	0.01
235.28	0.03
235.498	0.06
235.715	-0.12
235.932	0.1
236.149	-0.1
236.367	-0.04
236.584	0.03
236.801	-0.01
237.018	0.19
237.236	0.05
237.453	-0.18
237.67	0.08
237.887	0.08
238.104	0.01
238.321	-0.17
238.538	-0.04
238.755	0.13
238.973	-0.1
239.19	0.03
239.407	0.03
239.624	0.11
239.841	-0.03
240.058	-0.1
240.275	0.07
240.492	0.08
240.709	-0.02
240.925	-0.01
241.142	-0.08
241.359	-0.14
241.576	-0.07
241.793	0.05
242.01	-0.14
242.227	0.13
242.444	0.05
242.66	0.1
242.877	-0.06
243.094	-0.11
243.311	0.07
243.527	-0.02
243.744	0.01
243.961	0.12
244.178	-0.08
244.394	0.11
244.611	0.1
244.828	0.12
245.044	-0.16
245.261	0.01
245.477	-0.04
245.694	0.06
245.911	-0.03
246.127	0
246.344	0.07
246.56	0.07
246.777	-0.08
246.993	0.02
247.21	0.08
247.426	0.11
247.643	0.01
247.859	-0.08
248.076	-0.02
248.292	0.13
248.508	-0.03
248.725	-0.02
248.941	0.12
249.157	0.06
249.374	-0.02
249.59	-0.06
249.806	-0.01
250.023	-0.01
250.239	-0.05
250.455	-0.06
250.671	0.04
250.888	0.06
251.104	0.1
251.32	-0.05
251.536	0.04
251.752	-0.04
251.969	0.07
252.185	-0.01
252.401	0.11
252.617	0.05
252.833	-0.03
253.049	0.06
253.265	-0.01
253.481	0.04
253.697	0.01
253.913	-0.09
254.129	0.02
254.345	0.05
254.561	-0.01
254.777	-0.01
254.993	0.01
255.209	0.07
255.425	0.01
255.641	-0.04
255.857	0.08
256.073	-0.03
256.288	-0.04
256.504	-0.01
256.72	-0.02
256.936	0.11
257.152	0.03
257.367	-0.02
257.583	0.04
257.799	0.09
258.015	-0.01
258.23	0.02
258.446	0.13
258.662	0.06
258.877	0.01
259.093	-0.03
259.309	0.04
259.524	0.04
259.74	-0.05
259.955	-0.1
260.171	0.01
260.387	0.01
260.602	0.04
260.818	0.03
261.033	-0.11
261.249	-0.06
261.464	-0.04
261.68	-0.09
261.895	0.02
262.11	0.03
262.326	-0
262.541	-0.07
262.757	0.07
262.972	0.04
263.187	0.08
263.403	0.03
263.618	-0.04
263.833	0.03
264.049	-0.05
264.264	-0
264.479	0.01
264.694	0.12
264.91	-0.07
265.125	0.01
265.34	0.09
265.555	0.12
265.77	0.05
265.986	-0.04
266.201	0.04
266.416	0.12
266.631	-0.02
266.846	0.04
267.061	0.06
267.276	0.04
267.491	-0.1
267.706	0.06
267.921	0.04
268.136	0.07
268.351	0.02
268.566	-0.07
268.781	0.07
268.996	0.07
269.211	-0.02
269.426	-0.03
269.641	0
269.856	0.09
270.071	-0.08
270.285	-0.05
270.5	0.03
270.715	0.08
270.93	0.03
271.145	-0.03
271.359	0.02
271.574	-0.04
271.789	0.02
272.004	-0.05
272.218	-0.04
272.433	0.07
272.648	-0.04
272.862	0.09
273.077	0.03
273.292	0.03
273.506	-0.02
273.721	-0.01
273.936	0.04
274.15	0.05
274.365	-0.01
274.579	0.08
274.794	0.07
275.008	0.06
275.223	-0.08
275.437	0.01
275.652	0.02
275.866	-0.02
276.081	-0
276.295	0.07
276.509	0.04
276.724	0.09
276.938	-0.04
277.153	0.03
277.367	0.06
277.581	-0.07
277.796	-0.03
278.01	-0.04
278.224	0.07
278.438	0.14
278.653	-0.08
278.867	-0.01
279.081	0.01
279.295	-0.06
279.51	0.05
279.724	-0.03
279.938	0.04
280.152	0.02
280.366	-0.02
280.58	0.02
280.794	0.04
281.008	0.02
281.222	0.08
281.437	0.09
281.651	0.03
281.865	0.11
282.079	-0.03
282.293	-0.04
282.507	-0.04
282.721	-0
282.935	0.05
283.148	-0.08
283.362	-0.01
283.576	-0.08
283.79	0.01
284.004	-0.05
284.218	0.05
284.432	-0
284.646	0.04
284.859	-0.04
285.073	-0.01
285.287	0.06
285.501	-0.01
285.714	0.02
285.928	0.03
286.142	0.08
286.356	0.02
286.569	-0.05
286.783	0.09
286.997	-0.01
287.21	0.04
287.424	0.01
287.637	-0.04
287.851	-0.04
288.065	0.02
288.278	-0.02
288.492	0.02
288.705	0
288.919	0.01
289.132	-0.01
289.346	0.06
289.559	-0.07
289.773	-0.04
289.986	0.04
290.2	0.05
290.413	0.05
290.626	-0.05
290.84	0.04
291.053	0
291.267	0.08
291.48	0.01
291.693	0.02
291.906	-0.04
292.12	-0.04
292.333	-0.04
292.546	0.02
292.76	0.07
292.973	0.09
293.186	0.04
293.399	-0.01
293.612	0.07
293.826	0.07
294.039	-0.04
294.252	0.01
294.465	-0.02
294.678	0.02
294.891	0.07
295.104	-0.09
295.317	0.04
295.53	0.01
295.743	-0.02
295.956	0.02
296.169	0.06
296.382	0.04
296.595	0.01
296.808	-0.03
297.021	0.02
297.234	0.05
297.447	0
297.66	0.06
297.873	0.09
298.086	0.06
298.299	-0.02
298.511	-0.04
298.724	-0.03
298.937	-0.03
299.15	0.02
299.363	0.01
299.575	0
299.788	0.03
300.001	-0.02
300.213	-0.05
300.426	-0.01
300.639	-0
300.852	-0.02
301.064	0.05
301.277	0.05
301.489	0.08
301.702	0.05
301.915	0.08
302.127	-0.02
302.34	0.01
302.552	0.03
302.765	-0.01
302.977	0.06
303.19	-0.02
303.402	-0.03
303.615	-0.02
303.827	0.02
304.04	-0.01
304.252	0.03
304.464	0.01
304.677	0.08
304.889	0.07
305.102	-0.05
305.314	-0.01
305.526	0.03
305.739	0.04
305.951	-0.01
306.163	-0.01
306.375	0.07
306.588	0
306.8	-0.01
307.012	-0.05
307.224	0
307.436	0.08
307.649	-0.08
307.861	-0
308.073	0.07
308.285	-0.02
308.497	-0.01
308.709	-0.03
308.921	-0
309.133	0.03
309.346	-0
309.558	0.01
309.77	0.05
309.982	0.05
310.194	0.03
310.406	-0.02
310.617	0.06
310.829	0.03
311.041	0.03
311.253	-0.02
311.465	0.01
311.677	0.03
311.889	0.03
312.101	0.01
312.313	0.07
312.524	-0.01
312.736	-0.04
312.948	-0.01
313.16	0.07
313.372	0.03
313.583	0.04
313.795	0.06
314.007	-0.02
314.218	0.06
314.43	0
314.642	-0.03
314.853	-0.05
315.065	0.07
315.277	-0.01
315.488	0.02
315.7	0.06
315.912	0.04
316.123	-0.01
316.335	0.02
316.546	0.1
316.758	-0.03
316.969	0.01
317.181	0.03
317.392	-0.01
317.604	0.05
317.815	-0.05
318.026	-0.02
318.238	0
318.449	0
318.661	-0.06
318.872	-0.02
319.083	-0.08
319.295	0.02
319.506	0.01
319.717	0.06
319.929	0.04
320.14	0.06
320.351	-0.01
320.562	-0
320.774	-0.02
320.985	0.02
321.196	-0.05
321.407	-0.07
321.618	0.05
321.829	-0.02
322.041	0.04
322.252	-0.01
322.463	0.06
322.674	0.01
322.885	0
323.096	0.01
323.307	-0.01
323.518	0.03
323.729	0
323.94	0.01
324.151	-0.02
324.362	0.02
324.573	0.05
324.784	-0
324.995	0.07
325.206	0.08
325.417	-0.04
325.628	0
325.838	-0
326.049	-0
326.26	0.07
326.471	-0.01
326.682	-0.01
326.892	0.05
327.103	-0.03
327.314	-0.03
327.525	0.06
327.735	0.02
327.946	-0.02
328.157	-0.02
328.368	0.02
328.578	-0.03
328.789	0.01
328.999	0.02
329.21	0.05
329.421	0.03
329.631	-0.03
329.842	-0.06
330.052	0.04
330.263	0.01
330.473	0.04
330.684	0.02
330.894	0.01
331.105	0.02
331.315	-0.01
331.526	-0.06
331.736	0.04
331.947	0.06
332.157	0.03
332.367	-0.02
332.578	0.04
332.788	0.06
332.999	0.04
333.209	0.05
333.419	-0.03
333.629	0.03
333.84	0.02
334.05	0.03
334.26	0.05
334.47	0.11
334.681	0.08
334.891	0.01
335.101	0.04
335.311	0.09
335.521	-0.01
335.732	-0.04
335.942	0.06
336.152	0.06
336.362	0.04
336.572	0.01
336.782	0.03
336.992	-0
337.202	0
337.412	-0.03
337.622	0
337.832	0.02
338.042	0.03
338.252	0
338.462	0.03
338.672	0
338.882	-0.04
339.092	0.02
339.302	0.08
339.511	0.01
339.721	-0.01
339.931	-0.02
340.141	0.04
340.351	0.09
340.561	0.05
340.77	0.01
340.98	0
341.19	0.02
341.4	-0.02
341.609	-0.01
341.819	-0.03
342.029	-0.07
342.238	0.01
342.448	0.01
342.658	0.01
342.867	0.01
343.077	0.02
343.286	0
343.496	0.04
343.706	0.04
343.915	-0.03
344.125	0
344.334	0.02
344.544	-0.05
344.753	-0.02
344.963	0.01
345.172	0.01
345.381	0.01
345.591	-0.02
345.8	-0
346.01	0.04
346.219	0.04
346.428	-0.1
346.638	-0.03
346.847	-0.06
347.056	0.09
347.266	-0
347.475	0.04
347.684	0.03
347.893	0.03
348.103	-0
348.312	0
348.521	-0.03
348.73	0.03
348.94	0.02
349.149	0.02
349.358	-0
349.567	-0.03
349.776	-0.02
349.985	0.01
350.194	0.03
350.403	0.05
350.612	-0
350.821	0.02
351.03	0
351.239	-0.05
351.448	0.01
351.657	-0.01
351.866	0.07
352.075	-0.02
352.284	0.03
352.493	-0.03
352.702	0.06
352.911	0.04
353.12	0.01
353.329	0.01
353.538	-0
353.746	0.04
353.955	-0.02
354.164	0.03
354.373	0.01
354.582	0.04
354.79	-0
354.999	0.06
355.208	0.02
355.416	0.05
355.625	-0.02
355.834	-0.01
356.042	0.02
356.251	-0.01
356.46	-0.03
356.668	0.04
356.877	0.1
357.085	0.06
357.294	-0.1
357.503	0.03
357.711	0.02
357.92	0.09
358.128	0.03
358.337	-0.02
358.545	0.05
358.754	-0.04
358.962	0.05
359.17	0.02
359.379	0.01
359.587	0.08
359.796	0.01
360.004	0.07
360.212	0.04
360.421	0.07
360.629	-0
360.837	0.04
361.046	0.05
361.254	0.06
361.462	0.02
361.67	-0.01
361.879	-0
362.087	0.08
362.295	-0
362.503	0.01
362.711	-0.03
362.92	-0.04
363.128	-0.04
363.336	-0.02
363.544	-0.06
363.752	-0
363.96	-0.01
364.168	0
364.376	-0.01
364.584	0.02
364.792	0.05
365	0.04
365.208	-0
365.416	0
365.624	0.04
365.832	-0.01
366.04	0.06
366.248	0.02
366.456	0.04
366.664	0.01
366.872	0.04
367.079	0.04
367.287	0.01
367.495	0.05
367.703	-0.02
367.911	-0
368.118	-0.04
368.326	0.02
368.534	-0.02
368.742	0.08
368.949	-0.04
369.157	0.02
369.365	0.05
369.572	0.01
369.78	-0.04
369.988	0.03
370.195	0.04
370.403	0
370.61	-0.03
370.818	0.05
371.026	0.06
371.233	0
371.441	0.01
371.648	-0.02
371.856	0.04
372.063	-0.01
372.271	0.04
372.478	0.01
372.685	0
372.893	0.06
373.1	-0.01
373.308	-0
373.515	0.03
373.722	0.05
373.93	0.01
374.137	-0.02
374.344	0.09
374.552	0.02
374.759	0.05
374.966	0.07
375.173	0
375.381	0.06
375.588	0.01
375.795	-0.07
376.002	-0.01
376.209	-0.03
376.417	-0.03
376.624	-0
376.831	0.04
377.038	-0
377.245	-0.08
377.452	-0.04
377.659	0.01
377.866	0.02
378.073	-0.01
378.28	-0.05
378.487	0.03
378.694	0.02
378.901	-0.01
379.108	0.01
379.315	0.01
379.522	0.08
379.729	0.02
379.936	-0.02
380.143	-0.01
380.35	-0.01
380.557	-0.01
380.763	0.02
380.97	0.01
381.177	0.06
381.384	0.01
381.591	-0
381.797	0.03
382.004	0.03
382.211	0.07
382.418	0.04
382.624	0.02
382.831	0.02
383.038	-0.04
383.244	0.01
383.451	-0.02
383.658	0.04
383.864	-0
384.071	-0.01
384.277	0.07
384.484	-0.02
384.69	0.05
384.897	-0.04
385.103	0.01
385.31	-0.04
385.516	-0.05
385.723	-0.05
385.929	-0.03
386.136	0
386.342	0.03
386.549	-0.04
386.755	0.04
386.961	0.04
387.168	-0.01
387.374	0.02
387.58	0.01
387.787	-0.04
387.993	0.04
388.199	-0
388.406	0.02
388.612	0.03
388.818	-0.02
389.024	-0.03
389.231	0.04
389.437	0.07
389.643	0.04
389.849	-0.02
390.055	-0.01
390.261	-0
390.467	0.02
390.674	-0.01
390.88	-0.02
391.086	0.04
391.292	-0.07
391.498	0.02
391.704	0.03
391.91	-0.01
392.116	-0.03
392.322	-0.05
392.528	0.04
392.734	0
392.94	-0.01
393.146	-0.02
393.352	0.01
393.557	-0
393.763	0
393.969	0.01
394.175	-0
394.381	0.05
394.587	-0.03
394.792	-0.05
394.998	0.04
395.204	0.04
395.41	-0.01
395.615	0.03
395.821	0.03
396.027	0.03
396.233	-0.03
396.438	0.04
396.644	0.05
396.85	0
397.055	0.01
397.261	0.03
397.466	0.03
397.672	0.02
397.878	0.05
398.083	0.01
398.289	-0.03
398.494	0.04
398.7	0
398.905	-0.09
399.111	0.05
399.316	-0.02
399.522	0.03
399.727	0.02
399.932	-0
400.138	-0.01
400.343	0.05
400.549	0.02
400.754	0.03
400.959	0.03
401.165	0.01
401.37	0.04
401.575	-0.02
401.78	0.02
401.986	-0.03
402.191	-0.03
402.396	0
402.601	0.01
402.807	0.04
403.012	0.03
403.217	0.06
403.422	0
403.627	0.01
403.832	-0.04
404.037	0.04
404.243	0.02
404.448	-0.07
404.653	-0.05
404.858	0.03
405.063	0.09
405.268	-0.02
405.473	-0.03
405.678	-0.02
405.883	0.14
406.088	0.04
406.293	-0.05
406.498	-0.01
406.703	0.04
406.907	0.02
407.112	-0.02
407.317	0.01
407.522	0.05
407.727	-0.06
407.932	0.02
408.136	0.05
408.341	0
408.546	0.03
408.751	-0.01
408.956	-0
409.16	0.04
409.365	0.03
409.57	-0.01
409.774	0.02
409.979	0.06
410.184	0.02
410.388	-0.01
410.593	0.04
410.798	0.06
411.002	0.02
411.207	0.07
411.411	0.03
411.616	-0.05
411.82	-0.01
412.025	0.05
412.229	-0.01
412.434	0.08
412.638	0.03
412.843	-0.04
413.047	0.01
413.252	-0.02
413.456	-0.05
413.66	0.06
413.865	-0.07
414.069	0.07
414.273	0.01
414.478	-0.02
414.682	-0
414.886	0
415.091	-0.05
415.295	-0.09
415.499	0.03
415.703	0.02
415.908	0.02
416.112	-0.07
416.316	0.03
416.52	0.01
416.724	-0.04
416.929	-0.04
417.133	0.07
417.337	-0.01
417.541	-0.03
417.745	-0.04
417.949	0.04
418.153	0.02
418.357	-0.07
418.561	0.1
418.765	0.02
418.969	0.1
419.173	0.03
419.377	-0.04
419.581	0.06
419.785	-0
419.989	-0.03
420.193	-0.02
420.397	-0
420.601	0.02
420.804	0.02
421.008	0.07
421.212	0.02
421.416	0.12
421.62	-0.04
421.823	0.01
422.027	0.09
422.231	0.07
422.435	-0.01
422.638	-0
422.842	-0.02
423.046	-0.03
423.249	0.09
423.453	0.01
423.657	0.05
423.86	0.01
424.064	-0.01
424.268	0.04
424.471	0.01
424.675	0.05
424.878	0.11
425.082	-0.03
425.285	0.04
425.489	0.01
425.692	0.02
425.896	-0.01
426.099	0.04
426.303	-0.04
426.506	-0.08
426.71	-0
426.913	0.06
427.116	0.04
427.32	-0
427.523	-0.01
427.726	0.11
427.93	-0.04
428.133	-0.01
428.336	-0.03
428.54	-0.01
428.743	-0.01
428.946	0.05
429.149	-0.05
429.353	-0.03
429.556	-0
429.759	0.05
429.962	-0.01
430.165	0.01
430.368	0.05
430.571	-0
430.775	0.02
430.978	-0.01
431.181	0.08
431.384	0.06
431.587	-0
431.79	-0.06
431.993	-0.04
432.196	0.02
432.399	-0.01
432.602	0.09
432.805	0.01
433.008	-0
433.211	-0.02
433.414	0.03
433.616	-0.03
433.819	0.01
434.022	-0.06
434.225	0.07
434.428	0.03
434.631	0.05
434.833	-0.01
435.036	-0.03
435.239	0.04
435.442	0.04
435.645	0
435.847	0.01
436.05	0.03
436.253	0.02
436.455	-0.06
436.658	-0.07
436.861	0.06
437.063	-0.03
437.266	-0.04
437.468	0.06
437.671	0.13
437.874	0
438.076	-0.05
438.279	-0.1
438.481	-0.05
438.684	0.02
438.886	0.01
439.089	-0.1
439.291	-0
439.494	0.03
439.696	-0.05
439.899	0.01
440.101	-0
440.303	-0.08
440.506	0.03
440.708	0.03
440.91	0.04
441.113	-0.05
441.315	0.01
441.517	-0.04
441.72	0.03
441.922	-0
442.124	-0.03
442.326	0.03
442.529	0.09
442.731	-0.02
442.933	0.1
443.135	-0.04
443.337	-0.02
443.539	0.01
443.742	0
443.944	-0.02
444.146	-0
444.348	-0
444.55	0
444.752	-0.01
444.954	-0.05
445.156	-0.02
445.358	-0.05
445.56	0.01
445.762	0.03
445.964	0.02
446.166	-0.05
446.368	-0.02
446.57	0.01
446.772	0.01
446.974	-0.01
447.175	0.01
447.377	-0.02
447.579	0.01
447.781	-0.09
447.983	0.03
448.184	-0.01
448.386	0
448.588	-0.05
448.79	-0.02
448.991	-0.03
449.193	-0.02
449.395	0.05
449.597	0.01
449.798	-0.03
450	0.01
450.202	0.01
450.403	-0.01
450.605	0.01
450.806	0.02
451.008	-0.07
451.21	0.01
451.411	0.02
451.613	-0.04
451.814	0.01
452.016	0.03
452.217	0.01
452.419	0.02
452.62	0.03
452.821	0.05
453.023	0.05
453.224	0.05
453.426	0.04
453.627	0.06
453.828	-0.01
454.03	-0
454.231	0.02
454.432	-0.03
454.634	0.12
454.835	-0.02
455.036	-0.07
455.238	0.07
455.439	0.05
455.64	-0.04
455.841	0.01
456.042	0.09
456.244	0.01
456.445	-0.01
456.646	-0.04
456.847	0.02
457.048	0.07
457.249	0.04
457.45	0.14
457.651	-0
457.852	0.02
458.054	0.07
458.255	-0.03
458.456	0.05
458.657	-0.02
458.858	0.02
459.058	0.05
459.259	0.02
459.46	-0.06
459.661	-0
459.862	0.1
460.063	-0.02
460.264	0.04
460.465	-0.05
460.666	0.12
460.866	-0.03
461.067	0.01
461.268	-0.02
461.469	-0.01
461.67	-0.02
461.87	0.01
462.071	-0.03
462.272	-0.02
462.473	0.02
462.673	0.05
462.874	-0.07
463.075	0.04
463.275	-0.03
463.476	0.01
463.676	0.02
463.877	0.02
464.078	0.03
464.278	0
464.479	0.03
464.679	-0.01
464.88	0.01
465.08	0.09
465.281	-0.05
465.481	-0.05
465.682	-0.02
465.882	0.01
466.083	-0.01
466.283	0
466.483	0.03
466.684	-0.01
466.884	-0.03
467.085	-0.01
467.285	0.08
467.485	-0.04
467.686	-0.03
467.886	-0.04
468.086	-0.01
468.286	-0.01
468.487	-0.01
468.687	0.01
468.887	0.01
469.087	0.01
469.287	0
469.488	-0.04
469.688	0.04
469.888	0.05
470.088	0.03
470.288	0.05
470.488	0.04
470.688	-0.05
470.888	0.01
471.088	-0.02
471.288	0.05
471.488	0.03
471.688	0.02
471.888	-0.05
472.088	0.05
472.288	0.05
472.488	-0.05
472.688	0
472.888	-0
473.088	-0.01
473.288	0.02
473.488	0.01
473.688	0.05
473.887	-0.02
474.087	-0.02
474.287	0.02
474.487	-0.01
474.687	0.07
474.886	-0.03
475.086	-0.01
475.286	0.01
475.486	0.06
475.685	-0.01
475.885	-0.01
476.085	-0.05
476.284	0.03
476.484	-0.01
476.684	0.03
476.883	0.09
477.083	0.03
477.282	-0.02
477.482	0.04
477.681	0.04
477.881	0.01
478.08	-0.03
478.28	-0.01
478.479	0.04
478.679	0.06
478.878	-0.01
479.078	-0.04
479.277	0
479.477	-0.01
479.676	0.05
479.875	-0.01
480.075	-0.06
480.274	0.03
480.473	0.04
480.673	-0.01
480.872	0.04
481.071	0.01
481.271	0.01
481.47	0.04
481.669	-0.01
481.868	-0.02
482.067	-0.02
482.267	-0.06
482.466	-0.01
482.665	-0.03
482.864	-0.04
483.063	-0.02
483.262	0.01
483.461	0.03
483.661	0.04
483.86	0.01
484.059	0.02
484.258	-0.02
484.457	0.02
484.656	0.01
484.855	0.02
485.054	-0.05
485.253	-0.01
485.452	-0.03
485.651	0.01
485.849	-0.01
486.048	-0.01
486.247	-0.04
486.446	0.02
486.645	-0.02
486.844	-0.02
487.043	-0.02
487.241	0.01
487.44	-0
487.639	-0.02
487.838	0.02
488.037	0
488.235	0.04
488.434	0.01
488.633	0.01
488.831	0.01
489.03	0.02
489.229	0.03
489.427	-0.01
489.626	0.06
489.825	0.03
490.023	-0.01
490.222	-0.02
490.42	0
490.619	0.05
490.817	0.03
491.016	0.02
491.214	0.05
491.413	-0.01
491.611	-0
491.81	0.01
492.008	0.02
492.207	-0
492.405	0
492.604	-0.05
492.802	0.02
493	0.01
493.199	-0.02
493.397	0.01
493.595	-0.01
493.794	-0.02
493.992	0.06
494.19	-0.01
494.388	0.01
494.587	-0.01
494.785	0
494.983	-0.04
495.181	0.01
495.379	-0.01
495.578	0.01
495.776	0.02
495.974	0.01
496.172	-0.01
496.37	0
496.568	-0.01
496.766	-0.01
496.964	0.01
497.162	0.01
497.36	-0.03
497.558	0
497.756	0.01
497.954	-0
498.152	-0.02
498.35	0.02
498.548	0
498.746	-0.01
498.944	-0.02
499.142	0.01
499.34	-0.02
499.538	-0
499.736	-0.01
499.933	0.03
500.131	0.02
500.329	0
500.527	0.02
500.725	0.03
500.922	0.03
501.12	0.02
501.318	0.03
501.516	0
501.713	0.02
501.911	0.01
502.109	-0.01
502.306	0.03
502.504	-0.01
502.701	-0.01
502.899	0
503.097	0.03
503.294	-0
503.492	-0.02
503.689	0.03
503.887	0
504.084	0.03
504.282	-0.02
504.479	-0.04
504.677	0
504.874	-0.02
505.072	0
505.269	-0.02
505.466	0.04
505.664	0.01
505.861	-0.02
506.059	-0.04
506.256	0.02
506.453	-0.01
506.651	0.05
506.848	0.03
507.045	0.02
507.242	-0.02
507.44	0
507.637	-0.01
507.834	-0.02
508.031	0.02
508.229	-0
508.426	0
508.623	-0.01
508.82	-0.01
509.017	-0
509.214	-0.01
509.411	0.01
509.608	-0.02
509.805	-0.01
510.003	-0.02
510.2	0
510.397	0.03
510.594	-0
510.791	-0.01
510.988	-0.01
511.184	0
511.381	0.01
511.578	-0.02
511.775	0.03
511.972	-0.01
512.169	-0.01
512.366	0.01
512.563	0.01
512.76	-0.01
512.956	0.02
513.153	0.02
513.35	0.01
513.547	0.01
513.744	-0.01
513.94	-0.03
514.137	0
514.334	0.01
514.53	0.03
514.727	-0
514.924	0.04
515.12	-0.01
515.317	-0.02
515.514	-0.01
515.71	-0.03
515.907	-0.01
516.103	-0
516.3	0.03
516.497	0.03
516.693	0.01
516.89	-0.01
517.086	-0.01
517.283	0.02
517.479	-0.01
517.676	0
517.872	-0.01
518.068	-0.01
518.265	-0.01
518.461	0.01
518.658	-0.02
518.854	0.01
519.05	-0
519.247	-0.02
519.443	0.02
519.639	0.01
519.836	0.01
520.032	-0
520.228	0
520.424	0.04
520.621	0.01
520.817	-0
521.013	0.03
521.209	0
521.405	0.05
521.601	0.01
521.798	0.01
521.994	0.02
522.19	-0.01
522.386	-0.02
522.582	-0
522.778	-0.01
522.974	0.02
523.17	0.01
523.366	0.01
523.562	0.04
523.758	-0.01
523.954	-0
524.15	-0.02
524.346	0.02
524.542	0
524.738	-0
524.934	-0.01
525.129	-0.02
525.325	0.01
525.521	0
525.717	0.02
525.913	0.01
526.109	0.01
526.304	-0.01
526.5	0.02
526.696	0.04
526.892	-0.01
527.087	0.03
527.283	-0.02
527.479	0
527.674	-0.01
527.87	0.01
528.066	0
528.261	0.02
528.457	0.03
528.653	-0.01
528.848	0
529.044	0.01
529.239	-0.02
529.435	0
529.63	0.03
529.826	0.04
530.021	0.01
530.217	0.04
530.412	0.02
530.608	-0.01
530.803	0.01
530.999	-0.01
531.194	-0.04
531.389	-0.01
531.585	-0.04
531.78	0
531.975	0
532.171	0.01
532.366	-0.02
532.561	0
532.757	-0.01
532.952	-0.01
533.147	0.03
533.342	0.02
533.538	-0.01
533.733	0.03
533.928	0.01
534.123	0.03
534.318	-0.03
534.513	0.01
534.709	0
534.904	-0
535.099	-0.02
535.294	0
535.489	0
535.684	-0.01
535.879	-0.01
536.074	0.02
536.269	-0.03
536.464	0.01
536.659	-0.01
536.854	0
537.049	0.02
537.244	0.01
537.439	0
537.634	0.01
537.828	-0.01
538.023	-0.01
538.218	-0.03
538.413	-0
538.608	-0.03
538.803	0.03
538.997	-0.03
539.192	0.02
539.387	0.01
539.582	0.02
539.776	0.01
539.971	0.01
540.166	0.01
540.36	-0.01
540.555	0.03
540.75	-0
540.944	0
541.139	-0.04
541.334	0
541.528	0.02
541.723	0.03
541.917	0.02
542.112	-0.03
542.306	-0
542.501	-0.01
542.695	0.02
542.89	0
543.084	0.01
543.279	-0.01
543.473	0
543.668	0.01
543.862	0
544.056	0.02
544.251	-0
544.445	0.02
544.64	-0.01
544.834	-0.03
545.028	0
545.222	0.02
545.417	0.01
545.611	0.02
545.805	-0.01
546	-0
546.194	0
546.388	0.01
546.582	0.03
546.776	0.01
546.97	-0.01
547.165	0.04
547.359	0.04
547.553	-0.02
547.747	0.02
547.941	0.02
548.135	-0
548.329	0.02
548.523	0.04
548.717	-0
548.911	-0.02
549.105	0.02
549.299	0.02
549.493	0.03
549.687	0.01
549.881	0.01
550.075	-0.01
550.269	-0.01
550.463	0.02
550.657	-0.01
550.85	0.01
551.044	-0.01
551.238	0.01
551.432	-0
551.626	-0.02
551.82	0.01
552.013	-0.02
552.207	0.01
552.401	0
552.594	0.01
552.788	0
552.982	0
553.176	-0.02
553.369	0.02
553.563	0.02
553.756	-0.01
553.95	-0.02
554.144	0
554.337	0.02
554.531	-0
554.724	0.01
554.918	-0.01
555.111	0.03
555.305	0.01
555.498	0.04
555.692	0.03
555.885	-0
556.079	0.02
556.272	-0.01
556.466	0.02
556.659	0.02
556.852	-0
557.046	-0.01
557.239	0.02
557.432	-0.01
557.626	-0.01
557.819	0.02
558.012	0.03
558.206	0.01
558.399	-0
558.592	0.01
558.785	0.01
558.979	0.03
559.172	0.02
559.365	0.04
559.558	0.01
559.751	0.02
559.944	0
560.138	0
560.331	0.02
560.524	0.01
560.717	0.02
560.91	0.02
561.103	0.03
561.296	0.01
561.489	0.01
561.682	0.01
561.875	0.04
562.068	0.02
562.261	-0
562.454	0.05
562.647	-0
562.84	0.02
563.032	0.03
563.225	0.01
563.418	-0.01
563.611	0.01
563.804	0.01
563.997	-0.01
564.19	-0.03
564.382	-0.05
564.575	0.01
564.768	0.01
564.961	0
565.153	-0.02
565.346	0.03
565.539	0.06
565.731	0.01
565.924	0.05
566.117	0.05
566.309	0.04
566.502	0.01
566.695	0.03
566.887	0.03
567.08	-0.02
567.272	-0
567.465	0
567.657	0.04
567.85	0.02
568.042	0.03
568.235	0.04
568.427	0.03
568.62	0.01
568.812	0.04
569.005	0
569.197	-0
569.389	0.03
569.582	0.04
569.774	0.01
569.966	-0
570.159	-0
570.351	0.04
570.543	0.01
570.736	0.02
570.928	0.01
571.12	0.04
571.312	0.02
571.505	-0.01
571.697	0.05
571.889	0
572.081	0.03
572.273	0
572.465	0.08
572.658	0.01
572.85	0.06
573.042	0.03
573.234	0.02
573.426	0.05
573.618	-0
573.81	0.05
574.002	0.06
574.194	0.06
574.386	-0.01
574.578	-0.03
574.77	-0
574.962	0.05
575.154	0
575.346	0.01
575.538	0.05
575.729	0.04
575.921	0.03
576.113	0.04
576.305	0.05
576.497	0.04
576.689	0.05
576.88	0.03
577.072	0.08
577.264	0.04
577.456	0.03
577.647	-0.01
577.839	0.05
578.031	0.04
578.223	0
578.414	0.03
578.606	0.07
578.798	0.06
578.989	0.04
579.181	0.04
579.372	0.07
579.564	0.05
579.755	0.08
579.947	0.07
580.139	0.1
580.33	0.03
580.522	0.05
580.713	0.02
580.905	0.06
581.096	0.08
581.287	0.06
581.479	0.09
581.67	0.1
581.862	0.08
582.053	0.08
582.244	0.03
582.436	0.06
582.627	0.11
582.818	0.08
583.01	0.04
583.201	0.1
583.392	0.13
583.583	0.1
583.775	0.09
583.966	0.08
584.157	0.09
584.348	0.1
584.54	0.07
584.731	0.12
584.922	0.09
585.113	0.09
585.304	0.15
585.495	0.17
585.686	0.15
585.877	0.16
586.068	0.13
586.259	0.17
586.45	0.12
586.641	0.13
586.832	0.09
587.023	0.15
587.214	0.14
587.405	0.14
587.596	0.12
587.787	0.19
587.978	0.18
588.169	0.14
588.36	0.13
588.551	0.18
588.742	0.17
588.932	0.22
589.123	0.18
589.314	0.22
589.505	0.2
589.696	0.19
589.886	0.21
590.077	0.17
590.268	0.22
590.458	0.19
590.649	0.15
590.84	0.25
591.03	0.22
591.221	0.19
591.412	0.2
591.602	0.27
591.793	0.26
591.984	0.23
592.174	0.24
592.365	0.33
592.555	0.23
592.746	0.31
592.936	0.29
593.127	0.29
593.317	0.32
593.508	0.29
593.698	0.31
593.889	0.32
594.079	0.3
594.269	0.32
594.46	0.33
594.65	0.37
594.84	0.33
595.031	0.33
595.221	0.35
595.411	0.32
595.602	0.4
595.792	0.38
595.982	0.36
596.172	0.44
596.363	0.39
596.553	0.42
596.743	0.42
596.933	0.44
597.123	0.46
597.314	0.42
597.504	0.43
597.694	0.49
597.884	0.51
598.074	0.47
598.264	0.49
598.454	0.52
598.644	0.49
598.834	0.5
599.024	0.47
599.214	0.53
599.404	0.56
599.594	0.54
599.784	0.54
599.974	0.64
600.164	0.61
600.354	0.59
600.544	0.56
600.734	0.64
600.924	0.68
601.114	0.64
601.303	0.65
601.493	0.73
601.683	0.67
601.873	0.71
602.063	0.67
602.252	0.78
602.442	0.68
602.632	0.75
602.821	0.71
603.011	0.84
603.201	0.78
603.39	0.8
603.58	0.77
603.77	0.84
603.959	0.9
604.149	0.85
604.339	0.87
604.528	0.94
604.718	0.96
604.907	0.92
605.097	0.93
605.286	0.92
605.476	0.99
605.665	1.04
605.855	0.99
606.044	1.1
606.234	1.06
606.423	1.03
606.612	1.06
606.802	1.1
606.991	1.12
607.181	1.19
607.37	1.12
607.559	1.15
607.749	1.17
607.938	1.19
608.127	1.2
608.316	1.27
608.506	1.28
608.695	1.33
608.884	1.32
609.073	1.36
609.263	1.4
609.452	1.39
609.641	1.39
609.83	1.43
610.019	1.48
610.208	1.45
610.397	1.49
610.586	1.57
610.775	1.56
610.965	1.59
611.154	1.59
611.343	1.69
611.532	1.65
611.721	1.75
611.91	1.79
612.099	1.8
612.287	1.79
612.476	1.77
612.665	1.89
612.854	1.89
613.043	1.92
613.232	1.98
613.421	1.95
613.61	2.02
613.798	2.06
613.987	2.13
614.176	2.15
614.365	2.23
614.554	2.24
614.742	2.33
614.931	2.27
615.12	2.41
615.309	2.43
615.497	2.4
615.686	2.44
615.875	2.54
616.063	2.56
616.252	2.6
616.44	2.71
616.629	2.7
616.818	2.76
617.006	2.81
617.195	2.82
617.383	2.94
617.572	2.92
617.76	3.05
617.949	3.09
618.137	3.2
618.326	3.19
618.514	3.2
618.703	3.24
618.891	3.41
619.079	3.35
619.268	3.5
619.456	3.46
619.644	3.6
619.833	3.59
620.021	3.67
620.209	3.7
620.398	3.78
620.586	3.77
620.774	3.92
620.962	3.96
621.151	4.11
621.339	4.04
621.527	4.05
621.715	4.14
621.903	4.29
622.092	4.18
622.28	4.41
622.468	4.24
622.656	4.45
622.844	4.45
623.032	4.56
623.22	4.46
623.408	4.66
623.596	4.74
623.784	4.74
623.972	4.68
624.16	4.74
624.348	4.84
624.536	4.87
624.724	4.79
624.912	4.87
625.1	5
625.288	5.07
625.476	4.98
625.664	5.09
625.851	5.01
626.039	5.07
626.227	5.01
626.415	5.06
626.603	5.06
626.79	5.08
626.978	5.12
627.166	5.12
627.354	5.07
627.541	5.03
627.729	4.95
627.917	5.15
628.104	5.07
628.292	4.9
628.48	4.97
628.667	4.85
628.855	4.95
629.042	4.91
629.23	4.75
629.418	4.71
629.605	4.67
629.793	4.54
629.98	4.57
630.168	4.47
630.355	4.36
630.543	4.35
630.73	4.18
630.917	4.1
631.105	4.18
631.292	4.01
631.48	3.92
631.667	3.91
631.854	3.74
632.042	3.66
632.229	3.56
632.416	3.54
632.604	3.44
632.791	3.21
632.978	3.19
633.165	3.13
633.353	3.02
633.54	3.01
633.727	2.82
633.914	2.78
634.101	2.6
634.289	2.65
634.476	2.54
634.663	2.41
634.85	2.36
635.037	2.27
635.224	2.13
635.411	2.15
635.598	2.03
635.785	1.96
635.972	1.91
636.159	1.88
636.346	1.72
636.533	1.69
636.72	1.62
636.907	1.61
637.094	1.54
637.281	1.44
637.468	1.46
637.655	1.4
637.842	1.29
638.029	1.28
638.215	1.26
638.402	1.21
638.589	1.15
638.776	1.12
638.963	1.07
639.149	1.07
639.336	1.06
639.523	0.97
639.709	0.96
639.896	0.93
640.083	0.91
640.27	0.86
640.456	0.78
640.643	0.79
640.829	0.72
641.016	0.74
641.203	0.68
641.389	0.72
641.576	0.67
641.762	0.67
641.949	0.63
642.135	0.65
642.322	0.6
642.508	0.53
642.695	0.56
642.881	0.49
643.068	0.51
643.254	0.51
643.441	0.51
643.627	0.49
643.813	0.42
644	0.48
644.186	0.39
644.372	0.43
644.559	0.44
644.745	0.38
644.931	0.39
645.118	0.37
645.304	0.36
645.49	0.29
645.676	0.3
645.862	0.31
646.049	0.36
646.235	0.32
646.421	0.37
646.607	0.34
646.793	0.27
646.979	0.25
647.165	0.28
647.352	0.25
647.538	0.25
647.724	0.22
647.91	0.21
648.096	0.27
648.282	0.23
648.468	0.21
648.654	0.23
648.84	0.21
649.026	0.19
649.212	0.2
649.397	0.16
649.583	0.12
649.769	0.14
649.955	0.17
650.141	0.21
650.327	0.17
650.513	0.11
650.698	0.19
650.884	0.09
651.07	0.15
651.256	0.14
651.442	0.16
651.627	0.13
651.813	0.14
651.999	0.13
652.184	0.13
652.37	0.09
652.556	0.08
652.741	0.14
652.927	0.04
653.113	0.11
653.298	0.08
653.484	0.08
653.669	0.04
653.855	0.08
654.04	0.1
654.226	0.12
654.412	0.08
654.597	0.05
654.782	0.1
654.968	0.13
655.153	0.08
655.339	0.05
655.524	0.03
655.71	0.09
655.895	0.06
656.08	0.06
656.266	0.11
656.451	0.09
656.636	0.04
656.822	0.08
657.007	0.04
657.192	0.01
657.378	0.04
657.563	0.04
657.748	0.08
657.933	0.03
658.118	0.01
658.304	0.03
658.489	0.1
658.674	0.06
658.859	0.03
659.044	0.07
659.229	0.06
659.414	0
659.599	0.05
659.785	0.02
659.97	0.02
660.155	0.08
660.34	0.06
660.525	0.06
660.71	0.01
660.895	0.08
661.08	0.06
661.264	0.03
661.449	0.09
661.634	0.08
661.819	0.05
662.004	0.05
662.189	-0.05
662.374	-0
662.559	-0.02
662.743	-0.04
662.928	0.01
663.113	0
663.298	-0.04
663.483	0.01
663.667	0.05
663.852	-0.01
664.037	0.08
664.221	0
664.406	0.05
664.591	0.03
664.775	0.04
664.96	-0.03
665.145	0.02
665.329	0.01
665.514	-0.01
665.698	0.04
665.883	-0.04
666.068	0.09
666.252	0.01
666.437	-0.02
666.621	0.01
666.806	0.03
666.99	0.08
667.174	-0.04
667.359	0.07
667.543	-0.01
667.728	0.01
667.912	-0
668.096	0.07
668.281	-0.02
668.465	-0
668.649	0
668.834	0.03
669.018	0
669.202	0.04
669.387	-0.02
669.571	0.04
669.755	-0.04
669.939	0.02
670.124	-0.02
670.308	0.07
670.492	0.06
670.676	0.01
670.86	0.02
671.044	-0.04
671.228	0.03
671.413	-0.01
671.597	-0.01
671.781	-0.02
671.965	0.02
672.149	-0.01
672.333	0.02
672.517	-0.03
672.701	0.04
672.885	-0
673.069	-0.05
673.253	0.08
673.437	0.02
673.621	-0
673.804	0.02
673.988	-0.01
674.172	0.03
674.356	-0.03
674.54	0
674.724	0.08
674.908	0.02
675.091	0.05
675.275	0.02
675.459	0.04
675.643	-0.03
675.826	0.01
676.01	-0.02
676.194	-0.02
676.377	0.05
676.561	0.04
676.745	0.02
676.928	0.01
677.112	0.05
677.296	-0.02
677.479	0
677.663	-0.02
677.846	0.04
678.03	-0.05
678.213	0.03
678.397	0.02
678.58	0.01
678.764	0.02
678.947	-0.07
679.131	0.01
679.314	0.04
679.498	-0.03
679.681	0.04
679.865	0.07
680.048	0.03
680.231	0.02
680.415	0.03
680.598	0.03
680.781	-0.01
680.965	-0.01
681.148	0.03
681.331	0.01
681.514	0.06
681.698	-0.02
681.881	0.03
682.064	-0.02
682.247	-0
682.43	-0.06
682.614	0.02
682.797	0.05
682.98	0.05
683.163	-0
683.346	0.03
683.529	-0.04
683.712	0.02
683.895	0.08
684.078	-0.02
684.261	-0.01
684.444	0.05
684.627	0.04
684.81	0.01
684.993	0
685.176	0.03
685.359	-0.07
685.542	-0.03
685.725	0.04
685.908	0.02
686.091	0.02
686.274	0.05
686.457	0.05
686.639	-0.02
686.822	0.04
687.005	0.01
687.188	0
687.371	0.08
687.553	0.02
687.736	0.08
687.919	0.05
688.102	0.08
688.284	-0.04
688.467	0
688.65	0.01
688.832	-0.03
689.015	0.03
689.197	-0.1
689.38	0.04
689.563	0.1
689.745	-0.04
689.928	-0.05
690.11	0.01
690.293	0.03
690.475	-0.05
690.658	0.03
690.84	0.01
691.023	-0.02
691.205	-0.01
691.388	-0.01
691.57	0.05
691.752	0.02
691.935	-0.07
692.117	-0
692.3	0.04
692.482	0.03
692.664	0.04
692.847	0.05
693.029	0.06
693.211	0.07
693.393	0.01
693.576	-0.04
693.758	-0.02
693.94	-0
694.122	0.04
694.304	-0
694.487	-0.03
694.669	0.02
694.851	-0.03
695.033	0.08
695.215	-0.06
695.397	-0.05
695.579	-0.02
695.761	-0.03
695.943	-0.09
696.125	0.11
696.308	0.01
696.49	-0.11
696.671	0.09
696.853	0
697.035	0.1
697.217	0.01
697.399	0.01
697.581	-0.05
697.763	-0.02
697.945	-0
698.127	0.02
698.309	0.04
698.491	0.04
698.672	0.05
698.854	0.08
699.036	0.04
699.218	-0.02
699.399	0.05
699.581	0.1
699.763	-0.01
699.945	-0.05
700.126	-0.03
700.308	0.01
700.49	-0.01
700.671	-0.05
700.853	0
701.035	0.01
701.216	0.05
701.398	-0.01
701.579	-0.02
701.761	0.06
701.943	-0.03
702.124	-0.05
702.306	-0.01
702.487	0.15
702.669	0.01
702.85	-0.02
703.031	-0.11
703.213	0.14
703.394	0.01
703.576	-0.01
703.757	0.04
703.938	0.03
704.12	0.15
704.301	0.02
704.483	-0.02
704.664	0.02
704.845	0.13
705.026	-0.01
705.208	0.01
705.389	0.04
705.57	0
705.751	-0.03
705.933	0.03
706.114	0.04
706.295	-0
706.476	-0.04
706.657	0.15
706.838	0.03
707.02	0.12
707.201	-0.05
707.382	0.02
707.563	0.03
707.744	-0.05
707.925	-0.07
708.106	-0.04
708.287	0.05
708.468	0.07
708.649	0.02
708.83	0.11
709.011	-0.06
709.192	0.02
709.373	-0.06
709.554	0
709.734	0.08
709.915	0.06
710.096	-0.02
710.277	-0.05
710.458	0
710.639	0.03
710.819	-0.05
711	-0.04
711.181	0.05
711.362	0.02
711.542	0.03
711.723	-0.06
711.904	0
712.085	0.05
712.265	0.05
712.446	-0.1
712.627	-0.02
712.807	0.04
712.988	0.04
713.168	-0.13
713.349	0.03
713.53	-0.14
713.71	-0.1
713.891	0.01
714.071	0.02
714.252	-0.03
714.432	-0.03
714.613	-0.1
714.793	-0.03
714.974	0.14
715.154	0.16
715.334	0.04
715.515	0.07
715.695	-0.07
715.876	0.02
716.056	-0.05
716.236	-0.07
716.417	0
716.597	-0.02
716.777	0.1
716.957	-0.06
717.138	0
717.318	0.05
717.498	-0.08
717.678	0.06
717.859	0.02
718.039	-0.11
718.219	0.04
718.399	0.09
718.579	-0.03
718.759	-0.02
718.939	0.04
719.12	-0
719.3	0.07
719.48	-0.13
719.66	-0.07
719.84	0.07
720.02	0
720.2	-0.01
720.38	0.06
720.56	0.1
720.74	-0.03
720.92	0.07
721.1	0.09
721.279	0.11
721.459	0.02
721.639	-0.07
721.819	0.03
721.999	0.03
722.179	0.06
722.359	-0.08
722.538	-0.03
722.718	0.06
722.898	-0.07
723.078	-0.12
723.257	0.01
723.437	0.01
723.617	0.03
723.797	-0.05
723.976	0.04
724.156	0.03
724.336	0.09
724.515	0.08
724.695	-0.1
724.874	-0.04
725.054	-0.04
725.234	-0.07
725.413	0.02
725.593	-0.02
725.772	-0.04
725.952	-0.02
726.131	0.09
726.311	0.01
726.49	0.02
726.67	-0.09
726.849	-0.07
727.028	0.07
727.208	-0.08
727.387	0.03
727.567	-0.06
727.746	0.03
727.925	-0.04
728.105	-0.1
728.284	-0.03
728.463	-0.07
728.643	-0.01
728.822	-0.07
729.001	-0.06
729.18	0.01
729.359	0.03
729.539	-0.01
729.718	-0.03
729.897	0.07
730.076	-0.06
730.255	-0.04
730.434	0.03
730.614	0.04
730.793	0.05
730.972	-0.03
731.151	0.04
731.33	0.08
731.509	0
731.688	0.04
731.867	0.08
732.046	-0.07
732.225	0.29
732.404	-0.05
732.583	-0.09
732.762	0.01
732.941	0.03
733.12	0.04
733.298	-0.03
733.477	0.06
733.656	0.01
733.835	-0.08
734.014	0.02
734.193	-0.05
734.371	0.04
734.55	0.01
734.729	-0.1
734.908	0.01
735.086	0.11
735.265	0.14
735.444	-0.16
735.623	-0.08
735.801	-0.12
735.98	0.14
736.159	0.06
736.337	0.09
736.516	0.02
736.694	-0
736.873	-0
737.052	0.11
737.23	0.12
737.409	-0.05
737.587	0.14
737.766	-0.13
737.944	-0.04
738.123	0.02
738.301	0.04
738.479	0.03
738.658	0.1
738.836	-0.17
739.015	0.19
739.193	0.04
739.371	-0.16
739.55	-0.09
739.728	-0.19
739.906	0.08
740.085	0.19
740.263	0.04
740.441	-0.16
740.62	0.11
740.798	-0.01
740.976	-0.02
741.154	-0.09
741.332	0.12
741.511	-0.08
741.689	0.05
741.867	0.13
742.045	-0.03
742.223	-0.03
742.401	-0.08
742.579	-0.18
742.757	-0.06
742.935	-0.19
743.114	-0.05
743.292	-0.01
743.47	-0.05
743.648	0.01
743.826	0.09
744.004	0.1
744.181	-0.07
744.359	-0.07
744.537	0.06
744.715	0.05
744.893	-0.01
745.071	-0.05
745.249	-0.15
745.427	-0.04
745.605	0.05
745.782	0.09
745.96	0.06
746.138	0.16
746.316	0.09
746.493	-0.06
746.671	-0.02
746.849	-0.01
747.027	0.09
747.204	-0.08
747.382	0.09
747.56	-0.14
747.737	0.04
747.915	-0.11
748.093	0.05
748.27	-0
748.448	-0.02
748.625	-0.2
748.803	-0.01
748.98	-0.06
749.158	-0.03
749.335	0.04
749.513	-0.01
749.69	-0.01
749.868	-0.01
750.045	0.07
750.223	-0.07
750.4	-0.15
750.578	0.17
750.755	-0.04
750.932	-0.16
751.11	0.24
751.287	-0.14
751.464	-0
751.642	-0.03
751.819	0.01
751.996	0.03
752.173	0.04
752.351	-0.16
752.528	0.08
752.705	-0.04
752.882	-0.09
753.06	0.11
753.237	0.12
753.414	0.22
753.591	0.17
753.768	0.01
753.945	-0.04
754.122	-0.13
754.299	0.11
754.476	-0.05
754.654	0.05
754.831	-0.08
755.008	-0.01
755.185	0.02
755.362	-0.14
755.539	0.1
755.716	-0.04
755.892	-0.06
756.069	-0
756.246	0.04
756.423	-0.01
756.6	0.25
756.777	-0.01
756.954	0.01
757.131	-0.02
757.307	-0.09
757.484	-0.11
757.661	-0.12
757.838	-0
758.015	-0.12
758.191	0.14
758.368	0.05
758.545	0.2
758.721	0.01
758.898	0.02
759.075	0.06
759.251	0.02
759.428	0.07
759.605	-0.11
759.781	0.1
759.958	0.05
760.134	0.06
760.311	0.03
760.488	0.09
760.664	0.09
760.841	-0.05
761.017	-0.17
761.194	0.07
761.37	-0.02
761.547	-0.13
761.723	-0.04
761.899	0.13
762.076	-0.09
762.252	-0.02
762.429	-0.07
762.605	0.09
762.781	-0.04
762.958	0.14
763.134	-0.01
763.31	-0.07
763.486	0.14
763.663	-0.13
763.839	-0.03
764.015	-0.18
764.191	-0.09
764.368	0.11
764.544	-0.1
764.72	0.08
764.896	0.19
765.072	0.06
765.248	0.01
765.425	-0.11
765.601	-0.01
765.777	0.11
765.953	-0.16
766.129	0.01
766.305	-0.06
766.481	0.08
766.657	-0.02
766.833	0.26
767.009	-0.07
767.185	-0.07
767.361	0.01
767.537	-0.11
767.713	0.15
767.889	0.03
768.065	-0.02
768.24	-0.18
768.416	0.17
768.592	-0.2
768.768	-0.1
768.944	0.13
769.12	-0.16
769.295	-0.13
769.471	-0.04
769.647	-0.1
769.823	0.06
769.998	0.09
770.174	-0.1
770.35	0.23
770.525	0.35
770.701	0.17
770.877	0.06
771.052	-0.04
771.228	0.04
771.403	0.03
771.579	0.08
771.755	0.38
771.93	-0.12
772.106	-0.12
772.281	-0.16
772.457	0.03
772.632	0.11
772.808	-0.13
772.983	-0.08
773.159	-0.23
773.334	0.12
773.509	-0.06
773.685	-0.1
773.86	0.32
774.036	0.26
774.211	0.05
774.386	-0.18
774.562	-0.06
774.737	0.02
774.912	-0.22
775.087	0.19
775.263	0.02
775.438	-0.03
775.613	-0.11
775.788	-0.11
775.964	0.05
776.139	0.37
776.314	-0.14
776.489	-0.11
776.664	0.13
776.839	-0.02
777.014	0.08
777.19	0.28
777.365	0.23
777.54	0.35
777.715	0.08
777.89	-0.08
778.065	-0.16
778.24	0.06
778.415	0.3
778.59	-0.21
778.765	-0.05
778.94	0.02
779.115	-0.1
779.289	-0.18
779.464	-0
779.639	-0.06
779.814	-0.17
779.989	-0.21
780.164	0.18
780.339	-0.03
780.513	-0.05
780.688	-0.16
780.863	0.09
781.038	0.18
781.212	-0.13
781.387	0.04
781.562	0.31
781.737	-0.08
781.911	0.27
782.086	-0.15
782.261	0.15
782.435	0.22
782.61	-0.21
782.784	-0.1
782.959	0.16
783.134	0.01
783.308	-0.16
783.483	-0.04
783.657	0.21
783.832	0.31
784.006	-0.19
784.181	-0.01
784.355	0.16
784.53	-0.33
784.704	-0.15
784.878	0.26
785.053	0.07
785.227	0.28
785.402	0.37
785.576	-0.19
785.75	0.1
785.925	-0.18
786.099	0.04
786.273	0.17
786.448	0.1
786.622	-0.01
786.796	-0.06
786.97	-0.08
787.145	0.26
787.319	-0.38
787.493	-0.13
787.667	-0.42
787.841	-0.17
788.015	-0.03
788.19	-0.16
788.364	0.15
788.538	0.05
788.712	0.28
788.886	0.14
789.06	0.23
789.234	0.05
789.408	-0.18
789.582	-0.09
789.756	-0.01
789.93	-0
790.104	-0.1
790.278	-0.1
790.452	-0.06
790.626	-0.06
790.8	-0.17
790.973	0.16
791.147	0.12
791.321	0.25
791.495	0.17
791.669	0.19
791.843	0.11
792.016	0.2
792.19	0.47
792.364	-0.28
792.538	0.4
792.711	0.16
792.885	-0.08
793.059	-0.24
793.233	-0.33
793.406	0.09
793.58	0.05
793.754	0.18
793.927	0.06
794.101	0.18
794.274	-0.07
794.448	0.29
794.622	-0.1
794.795	0.32
794.969	-0.19
795.142	0.29
795.316	-0.23
795.489	-0.05
795.663	0.36
795.836	0.1
796.009	-0.14
796.183	0.22
796.356	0.02
796.53	0.02
796.703	-0.02
796.876	0.67
797.05	-0.12
797.223	0.02
797.396	0.3
797.57	0.12
797.743	0.34
797.916	0.06
798.09	0.09
798.263	0.23
798.436	0.05
798.609	-0
798.782	-0.17
798.956	0.16
799.129	0.18
799.302	0
799.475	-0.22
799.648	-0.33
799.821	-0.06
799.994	-0.05
800.167	-0.52
800.34	-0.18
800.514	0.04
800.687	0.04
800.86	-0.28
801.033	-0.01
801.206	0.05
801.379	-0.21
801.551	0.09
801.724	-0.1
801.897	0.27
802.07	0.01
802.243	-0.31
802.416	-0.03
802.589	-0.07
802.762	0.5
802.935	0.08
803.107	0.67
803.28	0.21
803.453	0.18
803.626	0.13
803.798	0.02
803.971	-0.31
804.144	0.19
804.317	-0.03
804.489	0.3
804.662	-0.01
804.835	-0.34
805.007	-0.25
805.18	0.54
805.353	0.3
805.525	-0.36
805.698	0.08
805.87	0.14
806.043	0.48
806.215	-0.35
806.388	-0.13
806.56	-0.09
806.733	0.37
806.905	0.2
807.078	-0.08
807.25	-0.36
807.423	-0.21
807.595	-0.1
807.768	-0.02
807.94	0.09
808.112	0.5
808.285	-0.04
808.457	-0.5
808.629	0.03
808.802	0.37
808.974	0.03
809.146	-0.09
809.318	-0.34
809.491	0.13
809.663	0.06
809.835	0.26
810.007	0.45
810.18	0.27
810.352	-0.17
810.524	0.08
810.696	0.24
810.868	0.04
811.04	-0.04
811.212	-0.32
811.384	0.18
811.556	0.31
811.728	-0.07
811.901	0.67
812.073	-0.08
812.245	0.35
812.417	-0.08
812.589	-0.53
812.76	0.17
812.932	0.38
813.104	0.39
813.276	-0.11
813.448	0.2
813.62	-0.06
813.792	-0.13
813.964	0
814.136	0.3
814.307	-0.27
814.479	-0.18
814.651	0.26
814.823	0.55
814.995	0.09
815.166	0.12
815.338	-0.23
815.51	-0.79
815.681	0.86
815.853	0.14
816.025	0.06
816.196	0.16
816.368	0.18
816.54	-0.15
816.711	-0.18
816.883	0.07
817.054	0.46
817.226	-0.64
817.398	0.54
817.569	-0.56
817.741	0.3
817.912	-0.08
818.084	0.22
818.255	0.23
818.426	-0.06
818.598	-0.08
818.769	-0.53
818.941	0.33
819.112	0.62
819.283	0.14
819.455	-0.33
819.626	-0.02
819.798	-0.03
819.969	-0.07
820.14	0.18
820.311	0.12
820.483	-0.17
820.654	0
820.825	-0.12
820.996	-0.06
821.168	-0.47
821.339	-0.22
821.51	-0.33
821.681	0.02
821.852	-0.17
822.023	-0.44
822.195	-0.36
822.366	0.16
822.537	-0.39
822.708	0
822.879	-0.23
823.05	0.34
823.221	-0.22
823.392	0.15
823.563	-0.22
823.734	0.27
823.905	0.11
824.076	-0.26
824.247	-0.72
824.418	-0.22
824.589	0.67
824.759	0.02
824.93	-0.39
825.101	-0.32
825.272	0.48
825.443	0.45
825.614	0.82
825.784	-0.94
825.955	0.85
826.126	0.49
826.297	-0.36
826.467	0.34
826.638	0.7
826.809	-0.76
826.98	-0.31
827.15	-0.02
827.321	-0.15
827.492	0.41
827.662	-0.11
827.833	0.72
828.003	0.25
828.174	-0.25
828.345	-0.78
828.515	0.36
828.686	0.16
828.856	-0.33
829.027	0.3
829.197	-0.11
829.368	0.28
829.538	0.03
829.709	-0.33
829.879	-0.16
830.049	-0.38
830.22	0.25
830.39	0.21
830.56	1.02
830.731	-0.06
830.901	0.2
831.072	-0.1
831.242	-0.15
831.412	0.31
831.582	-0.08
831.753	-0.86
831.923	0.29
832.093	-0.18
832.263	0.2
832.434	-0.39
832.604	-0.14
832.774	0.43
832.944	-0.01
833.114	-0.01
833.284	0.84
833.454	-0.54
833.624	-0.11
833.795	-0.5
833.965	0.69
834.135	0.68
834.305	-0.34
834.475	-0.62
834.645	0.58
834.815	-0.65
834.985	-0.78
835.155	-0.6
835.325	0.78
835.494	0.96
835.664	0.06
835.834	-0.98
836.004	-0.24
836.174	0.16
836.344	-0
836.514	-0.81
836.684	-0.08
836.853	0.62
837.023	0.4
837.193	-0.74
837.363	0.41
837.532	0.32
837.702	0.45
837.872	-0.63
838.041	-0.11
838.211	1.01
838.381	-0.53
838.55	0.03
838.72	1.18
838.89	1.19
839.059	-0.03
839.229	-0.81
839.398	1.21
839.568	0.38
839.738	0.1
839.907	1.35
840.077	0.43
840.246	-0.4
840.416	-0.47
840.585	-0.68
840.755	0.64
840.924	0.47
841.093	-0.82
841.263	0.68
841.432	0.23
841.602	-0.58
841.771	0.04
841.94	0.01
842.11	1.48
842.279	1.23
842.448	-1.12
842.617	-0.66
842.787	1.49
842.956	-0.31
843.125	-0.23
843.294	0.02
843.464	0.67
843.633	-0.56
843.802	-0.87
843.971	0.49
844.14	0.38
844.309	0.28
844.479	-0.48
844.648	-0.69
844.817	0.36
844.986	-0.02
845.155	-0.19
845.324	-0.11
845.493	0.26
845.662	-0.78
845.831	0.3
846	0.5
846.169	-0.22
846.338	1.28
846.507	0.11
846.676	-0.04
846.844	-0.6
847.013	0.22
847.182	0.08
847.351	-0.99
847.52	0.19
847.689	0.71
847.858	0.56
848.026	-0.49
848.195	-0.77
848.364	-1.01
848.533	-0.22
848.701	-0.03
848.87	0.09
849.039	0.78
849.207	0.85
849.376	0.51
849.545	1.47
849.713	0.01
849.882	-0.02
850.051	-0.18
850.219	0.22
850.388	1.14
850.556	-0.55
850.725	-0.44
850.893	0.08
851.062	-0.58
851.23	0.75
851.399	-1.57
851.567	-0.59
851.736	-0.3
851.904	-1.09
852.073	0.72
852.241	0.71
852.41	0.88
852.578	-0.29
852.746	-0.69
852.915	-0.26
853.083	0.57
853.251	-0.29
853.42	-0.79
853.588	-0.91
853.756	0.78
853.924	-0.8
854.093	-0.21
854.261	-0.27
854.429	-1.52
854.597	0.35
854.765	-1.35
854.934	0.3
855.102	1.15
855.27	-0.59
855.438	1.1
855.606	0.38
855.774	1.11
855.942	-1.56
856.11	-1.16
856.278	0.49
856.446	1.05
856.614	1.26
856.782	-0.6
856.95	0.78
857.118	0.81
857.286	0.31
857.454	0.2
857.622	0.99
857.79	0.2
857.958	-0.97
858.126	0.09
858.294	-1.88
858.462	-0.23
858.629	-0.49
858.797	-0.31
858.965	-0.27
859.133	-0.06
859.301	0.19
859.468	1.11
859.636	-0.56
859.804	1.18
859.971	1.25
860.139	-0.07
860.307	1.25
860.474	-0.42
860.642	-1.61
860.81	-0.1
860.977	0.48
861.145	0.05
861.313	0.4
861.48	0.15
861.648	0.6
861.815	-0.05
861.983	-1.59
862.15	-0.36
862.318	2.05
862.485	1.35
862.653	-0.88
862.82	-0.94
862.988	1.63
863.155	0.88
863.322	-0.08
863.49	-0.73
863.657	-0.33
863.824	1.69
863.992	0.85
864.159	1.59
864.326	1.31
864.494	0.14
864.661	3.3
864.828	-0.46
864.996	2.07
865.163	2.13
865.33	-0.82
865.497	-0.94
865.664	-1.39
865.832	-1.36
865.999	-0.5
866.166	-0.1
866.333	-0.28
866.5	-0.71
866.667	0.61
866.834	-1.12
867.001	1.36
867.168	-2.13
867.335	-0.15
867.502	-1.56
867.669	-0.71
867.836	1.64
868.003	-1.75
868.17	1.61
868.337	-0.66
868.504	1.56
868.671	-1.27
868.838	-0.52
869.005	0.57
869.172	0.72
869.339	-0.13
869.505	-0.25
869.672	-0.19
869.839	1.1
870.006	1.49
870.173	-0.77
870.339	0.98
870.506	0.85
870.673	-0.7
870.84	1.73
871.006	-1.79
871.173	0.25
871.34	-0.43
871.506	-0.21
871.673	0.89
871.839	-1.37
872.006	1.1
872.173	0.62
872.339	-0.46
872.506	1.22
872.672	-0.32
872.839	-1.2
873.005	0.1
873.172	1.58
873.338	0.63
873.505	1.64
873.671	0.32
873.838	1
874.004	-2.18
874.171	-1.45
874.337	0.32
874.503	1.2
874.67	0.02
874.836	-1.11
875.002	2.33
875.169	1.32
875.335	0.64
875.501	-0.12
875.668	1.41
875.834	-0.69
876	-0.29
876.166	0.77
876.332	0.16
876.499	1.51
876.665	-0.04
876.831	1.5
876.997	1.61
877.163	1.65
877.329	-2.01
877.495	0.6
877.662	1.61
877.828	1.61
877.994	-1.36
878.16	-2.59
878.326	-0.85
878.492	1.31
878.658	-0.72
878.824	-0.65
878.99	1.73
879.156	-0.86
879.322	3.21
879.487	1.01
879.653	0.39
879.819	1.32
879.985	-0.93
880.151	-0.64
880.317	0.32
880.483	-0.17
880.648	1.04
880.814	-1.12
880.98	1.16
881.146	-2.2
881.312	-0.56
881.477	-0.45
881.643	0.02
881.809	3.09
881.974	2.44
882.14	-3.7
882.306	-0.92
882.471	2.32
882.637	-0.45
882.803	1.7
882.968	3.38
883.134	3.12
883.299	0.62
883.465	1.55
883.63	2.46
883.796	1.81
883.961	1.32
884.127	2.73
884.292	-2.9
884.458	-3.01
884.623	-3.01
