Data from Apollo_Calib_20240827__AbsoluteIrradiance__537__08-06-00-336.txt Node

Date: Wed Aug 28 08:06:00 BST 2024
User: biology
Spectrometer: FLMT08252
Trigger mode: 0
Integration Time (sec): 5.000000E-1
Scans to average: 5
Electric dark correction enabled: true
Nonlinearity correction enabled: false
Boxcar width: 0
XAxis mode: Wavelengths
Number of Pixels in Spectrum: 3648
>>>>>Begin Spectral Data<<<<<
179.588	-0
179.809	-0
180.03	-0
180.251	-0
180.473	-0
180.694	0
180.915	0
181.136	-0
181.357	-0
181.578	0
181.799	-0
182.02	-0
182.241	-0
182.462	-0
182.683	0
182.904	-0
183.125	-0
183.346	0
183.567	0
183.788	-0
184.009	-0
184.23	-0
184.451	0
184.672	-0
184.892	-0
185.113	-0
185.334	-0
185.555	-0
185.776	-0
185.996	0
186.217	0
186.438	-0
186.659	-0
186.879	-0
187.1	-0
187.321	-0
187.541	-0
187.762	-0
187.983	-0
188.203	-0
188.424	-0
188.644	-0
188.865	-0
189.086	-0
189.306	-0
189.527	-0
189.747	0
189.968	-0
190.188	0
190.409	-0
190.629	0
190.849	-0
191.07	-0
191.29	0
191.511	0
191.731	-0
191.951	-0
192.172	-0
192.392	-0
192.612	-0
192.833	0
193.053	-0
193.273	0
193.493	-0
193.714	-0
193.934	0
194.154	0
194.374	0
194.594	0
194.815	-0
195.035	-0
195.255	-0
195.475	-0
195.695	0
195.915	0
196.135	-0
196.355	0
196.575	0
196.795	-0
197.015	-0
197.235	-0
197.455	-0
197.675	0
197.895	-0
198.115	-0
198.335	0
198.555	-0
198.775	-0
198.995	0
199.214	0
199.434	-0
199.654	-0
199.874	-0
200.094	0.37
200.313	-0.62
200.533	-0.44
200.753	-1.13
200.973	0.2
201.192	0.45
201.412	-1.37
201.632	-0.18
201.851	0.74
202.071	-0.7
202.291	-0.31
202.51	-0.71
202.73	-0.03
202.95	-0.38
203.169	-0.68
203.389	-0.8
203.608	-0.12
203.828	-0.69
204.047	-0.36
204.267	-0.05
204.486	-0.19
204.706	0.09
204.925	-0.26
205.145	-0.43
205.364	0.06
205.583	0.4
205.803	-0.19
206.022	-0.39
206.242	-0.3
206.461	-0.01
206.68	-0.27
206.9	-0.12
207.119	0.41
207.338	0.12
207.557	-0.26
207.777	-0.16
207.996	-0.28
208.215	0.06
208.434	-0.61
208.654	-0.5
208.873	-0.36
209.092	0.24
209.311	-0.29
209.53	-0.32
209.749	-0.16
209.968	-0.27
210.187	-0.24
210.407	-0.68
210.626	-0.4
210.845	-0.06
211.064	-0.19
211.283	-0.48
211.502	0.36
211.721	0.02
211.94	-0.51
212.159	-0.14
212.377	0.16
212.596	0.27
212.815	0
213.034	0.22
213.253	0.11
213.472	0.17
213.691	-0.19
213.91	-0.56
214.128	-0.17
214.347	0.22
214.566	-0.49
214.785	-0.38
215.003	0.14
215.222	-0.01
215.441	-0.07
215.66	-0.35
215.878	-0.07
216.097	0.11
216.316	-0.33
216.534	-0.18
216.753	0.07
216.972	-0.03
217.19	-0.18
217.409	-0.25
217.627	-0.28
217.846	-0.09
218.064	-0.24
218.283	-0.3
218.501	0.3
218.72	0.07
218.938	-0.32
219.157	-0.21
219.375	-0.03
219.594	0.02
219.812	-0.39
220.031	-0.41
220.249	0.25
220.467	0.24
220.686	-0.32
220.904	-0.28
221.122	-0.21
221.341	0.13
221.559	-0.04
221.777	-0.37
221.995	-0.14
222.214	-0.05
222.432	-0.21
222.65	0.06
222.868	-0.12
223.086	0.03
223.305	-0.11
223.523	-0.23
223.741	0.07
223.959	-0.26
224.177	-0.41
224.395	-0.09
224.613	-0.07
224.831	0.12
225.049	-0.17
225.267	-0.08
225.485	-0.1
225.703	0.06
225.921	-0.11
226.139	-0.25
226.357	-0.06
226.575	-0.01
226.793	-0.21
227.011	0.3
227.229	0.02
227.447	0.14
227.665	-0.15
227.883	-0.31
228.1	-0.01
228.318	-0.09
228.536	-0.31
228.754	-0.22
228.972	-0.01
229.189	-0.07
229.407	-0.17
229.625	-0.09
229.843	0.1
230.06	-0.04
230.278	-0.17
230.496	-0.03
230.713	-0.03
230.931	0.08
231.149	-0.14
231.366	-0.23
231.584	-0.06
231.801	0.3
232.019	-0.2
232.236	-0.25
232.454	-0.18
232.671	-0.05
232.889	-0.09
233.106	-0.08
233.324	-0.12
233.541	-0.14
233.759	-0.03
233.976	-0.07
234.194	-0.03
234.411	-0.08
234.628	-0.19
234.846	-0.24
235.063	-0.05
235.28	-0.13
235.498	-0.12
235.715	-0.16
235.932	0.07
236.149	-0.05
236.367	-0.17
236.584	0.01
236.801	-0.08
237.018	-0.05
237.236	-0.11
237.453	-0.15
237.67	0.08
237.887	-0.09
238.104	-0.03
238.321	-0.2
238.538	-0.06
238.755	-0
238.973	-0.26
239.19	-0
239.407	0.01
239.624	0
239.841	-0.21
240.058	-0.08
240.275	-0.11
240.492	-0.1
240.709	0
240.925	-0.08
241.142	-0.06
241.359	-0.16
241.576	-0.14
241.793	-0.09
242.01	-0.07
242.227	0.06
242.444	0.09
242.66	0.04
242.877	-0.06
243.094	-0.08
243.311	-0.06
243.527	-0.1
243.744	-0.03
243.961	0.06
244.178	-0.18
244.394	-0.05
244.611	0.1
244.828	0.07
245.044	-0.15
245.261	-0.11
245.477	0.02
245.694	-0.03
245.911	-0.11
246.127	-0.07
246.344	0.03
246.56	0
246.777	-0.04
246.993	-0.09
247.21	-0.06
247.426	-0.02
247.643	-0.1
247.859	-0.15
248.076	-0.16
248.292	0.11
248.508	-0.12
248.725	0.02
248.941	0.03
249.157	0.04
249.374	-0.05
249.59	-0.05
249.806	0.01
250.023	0.05
250.239	-0.08
250.455	-0.09
250.671	-0.03
250.888	-0.05
251.104	0.03
251.32	-0.11
251.536	-0.06
251.752	-0.04
251.969	-0.03
252.185	-0.05
252.401	0.09
252.617	-0
252.833	-0.01
253.049	-0.02
253.265	-0.05
253.481	0.01
253.697	-0.1
253.913	-0.07
254.129	-0.03
254.345	0
254.561	-0.13
254.777	-0.02
254.993	0.04
255.209	-0.03
255.425	-0.03
255.641	-0.03
255.857	0.02
256.073	-0.05
256.288	-0.19
256.504	-0.04
256.72	-0.05
256.936	0.06
257.152	0
257.367	-0.09
257.583	-0.06
257.799	0.01
258.015	-0.11
258.23	-0
258.446	0.07
258.662	-0.01
258.877	-0.06
259.093	-0.12
259.309	-0.05
259.524	-0.04
259.74	-0.09
259.955	-0.11
260.171	0.02
260.387	-0.04
260.602	-0.02
260.818	0.01
261.033	-0.15
261.249	-0.08
261.464	-0.05
261.68	-0.08
261.895	-0.02
262.11	0.02
262.326	-0.06
262.541	-0.09
262.757	0.02
262.972	-0.01
263.187	0.08
263.403	-0.04
263.618	-0.02
263.833	0.02
264.049	-0.01
264.264	-0.07
264.479	0.01
264.694	0.05
264.91	-0.09
265.125	-0.12
265.34	-0.02
265.555	0.08
265.77	0.01
265.986	-0.1
266.201	0.03
266.416	0.01
266.631	0
266.846	-0.1
267.061	0.05
267.276	0.01
267.491	-0.16
267.706	0.01
267.921	0.01
268.136	-0.02
268.351	-0.02
268.566	-0.1
268.781	0.05
268.996	-0.01
269.211	-0.03
269.426	-0.05
269.641	-0.06
269.856	0.03
270.071	-0.08
270.285	-0.16
270.5	0.01
270.715	-0.01
270.93	0.02
271.145	-0.03
271.359	0.02
271.574	-0.05
271.789	0.02
272.004	-0.09
272.218	-0.06
272.433	-0.01
272.648	-0.11
272.862	0.04
273.077	-0.06
273.292	-0.01
273.506	-0.06
273.721	-0.05
273.936	0.03
274.15	0.03
274.365	0
274.579	-0.02
274.794	0.04
275.008	0.06
275.223	-0.11
275.437	-0.04
275.652	-0.03
275.866	-0.04
276.081	-0.04
276.295	0.06
276.509	-0.03
276.724	-0.05
276.938	-0.02
277.153	-0.02
277.367	-0.01
277.581	-0.14
277.796	-0.07
278.01	-0.04
278.224	0
278.438	0.08
278.653	-0.14
278.867	-0.02
279.081	-0.19
279.295	-0
279.51	-0.01
279.724	-0.07
279.938	0.06
280.152	-0.01
280.366	-0.05
280.58	-0.03
280.794	0.09
281.008	-0.01
281.222	0.02
281.437	0.16
281.651	-0.05
281.865	0.04
282.079	-0.06
282.293	-0.06
282.507	-0.06
282.721	-0.06
282.935	-0.02
283.148	-0.08
283.362	-0.06
283.576	-0.04
283.79	-0.03
284.004	-0.04
284.218	0.02
284.432	-0.05
284.646	-0.04
284.859	-0.02
285.073	-0.05
285.287	0.01
285.501	-0.05
285.714	-0.04
285.928	-0.01
286.142	-0.07
286.356	-0.04
286.569	-0.01
286.783	0.09
286.997	0.03
287.21	0
287.424	0
287.637	-0.09
287.851	-0.04
288.065	-0.01
288.278	0
288.492	-0.02
288.705	-0.03
288.919	0
289.132	-0.05
289.346	0.02
289.559	-0.12
289.773	-0.13
289.986	0.02
290.2	-0.03
290.413	-0
290.626	-0.06
290.84	-0.02
291.053	-0.02
291.267	0.05
291.48	-0.03
291.693	-0.06
291.906	-0.02
292.12	-0.03
292.333	-0.05
292.546	0
292.76	0.06
292.973	-0.02
293.186	0
293.399	-0.03
293.612	-0.01
293.826	0
294.039	0.03
294.252	0.04
294.465	-0.04
294.678	-0.04
294.891	-0.03
295.104	-0.06
295.317	-0.02
295.53	-0.03
295.743	-0.02
295.956	0
296.169	0.07
296.382	0.01
296.595	-0.03
296.808	-0.03
297.021	0.03
297.234	0.01
297.447	-0.02
297.66	0.01
297.873	0.05
298.086	0.02
298.299	-0.03
298.511	-0.09
298.724	0.01
298.937	-0.05
299.15	-0.04
299.363	-0.02
299.575	-0.01
299.788	-0.01
300.001	-0.02
300.213	-0.06
300.426	0
300.639	-0.03
300.852	-0.05
301.064	0.06
301.277	-0.01
301.489	0.01
301.702	-0.01
301.915	-0
302.127	-0.02
302.34	-0.01
302.552	-0.01
302.765	-0.05
302.977	0.03
303.19	-0.07
303.402	-0.04
303.615	-0.01
303.827	-0.06
304.04	-0.01
304.252	-0.02
304.464	-0.06
304.677	0.12
304.889	0.02
305.102	-0.06
305.314	-0.09
305.526	0.03
305.739	0.02
305.951	-0.05
306.163	-0.04
306.375	0.02
306.588	-0.06
306.8	-0.01
307.012	-0.06
307.224	-0.04
307.436	0.01
307.649	-0.07
307.861	-0
308.073	0.03
308.285	-0.03
308.497	-0.04
308.709	-0.05
308.921	0.02
309.133	0.02
309.346	-0.02
309.558	-0
309.77	-0.01
309.982	0.04
310.194	0.05
310.406	-0.04
310.617	0.08
310.829	0.01
311.041	0
311.253	-0.03
311.465	0
311.677	0.01
311.889	-0.02
312.101	-0.08
312.313	0.02
312.524	0.03
312.736	-0.06
312.948	-0.02
313.16	0.03
313.372	0.02
313.583	-0.02
313.795	-0.05
314.007	-0.04
314.218	0.04
314.43	-0.04
314.642	-0.07
314.853	-0.02
315.065	-0.02
315.277	-0.03
315.488	-0.03
315.7	0.01
315.912	0.03
316.123	0
316.335	-0.01
316.546	0.08
316.758	-0.02
316.969	-0.06
317.181	-0.01
317.392	-0.05
317.604	0.08
317.815	-0.06
318.026	-0.06
318.238	-0.07
318.449	-0.01
318.661	-0.07
318.872	-0.1
319.083	-0.05
319.295	0.05
319.506	-0.1
319.717	0.02
319.929	0.04
320.14	-0.03
320.351	0.05
320.562	-0.07
320.774	-0.01
320.985	-0.01
321.196	-0.03
321.407	-0.04
321.618	0.01
321.829	-0
322.041	0.03
322.252	-0.01
322.463	-0.01
322.674	-0.02
322.885	-0.11
323.096	-0
323.307	-0.03
323.518	0.05
323.729	-0.04
323.94	-0.07
324.151	-0
324.362	-0.04
324.573	-0.01
324.784	-0.04
324.995	0.01
325.206	-0.01
325.417	-0.04
325.628	-0.02
325.838	-0.04
326.049	-0.01
326.26	0.01
326.471	-0.04
326.682	0.01
326.892	-0.03
327.103	-0.08
327.314	-0.09
327.525	0.03
327.735	0.03
327.946	-0.06
328.157	-0.08
328.368	0
328.578	0
328.789	-0.02
328.999	-0.03
329.21	-0.01
329.421	-0.03
329.631	-0.06
329.842	-0.03
330.052	0.02
330.263	0.06
330.473	0.02
330.684	-0.02
330.894	-0.02
331.105	-0
331.315	-0.03
331.526	-0.07
331.736	0.05
331.947	-0.01
332.157	-0.01
332.367	-0.07
332.578	0
332.788	0.04
332.999	0
333.209	0.03
333.419	-0.06
333.629	-0.01
333.84	-0.04
334.05	0.02
334.26	0.07
334.47	-0.02
334.681	0.04
334.891	-0.05
335.101	-0.01
335.311	0.06
335.521	-0.01
335.732	-0.02
335.942	0.04
336.152	-0.03
336.362	-0
336.572	0
336.782	0.01
336.992	-0.05
337.202	-0.03
337.412	-0.07
337.622	-0
337.832	0.02
338.042	-0.02
338.252	-0.06
338.462	-0.02
338.672	0.02
338.882	-0
339.092	-0
339.302	0.03
339.511	-0.02
339.721	-0.07
339.931	-0.09
340.141	0.03
340.351	0.02
340.561	-0
340.77	0.02
340.98	-0.03
341.19	0.03
341.4	-0.05
341.609	-0.06
341.819	-0.02
342.029	-0.11
342.238	-0.05
342.448	-0.04
342.658	0.03
342.867	0.01
343.077	-0
343.286	-0.02
343.496	-0.02
343.706	0.02
343.915	-0.05
344.125	0.01
344.334	0.01
344.544	-0.07
344.753	-0.05
344.963	-0.02
345.172	-0.03
345.381	-0.04
345.591	-0.04
345.8	-0.02
346.01	-0.01
346.219	0.02
346.428	-0.17
346.638	-0.02
346.847	0.01
347.056	0.02
347.266	-0.03
347.475	-0.06
347.684	0.01
347.893	0.04
348.103	0.02
348.312	-0.01
348.521	-0.02
348.73	-0.01
348.94	0.01
349.149	-0.03
349.358	-0.04
349.567	-0.04
349.776	-0.07
349.985	-0.05
350.194	0.03
350.403	0
350.612	-0.09
350.821	0.03
351.03	-0.03
351.239	-0.09
351.448	-0.03
351.657	-0.03
351.866	0.01
352.075	-0.03
352.284	0.01
352.493	-0.09
352.702	0.03
352.911	-0.01
353.12	-0.01
353.329	-0.01
353.538	-0.01
353.746	-0.03
353.955	-0.05
354.164	0.01
354.373	-0.04
354.582	0.02
354.79	0.02
354.999	0.03
355.208	-0.03
355.416	0.02
355.625	-0.07
355.834	-0.03
356.042	0.02
356.251	-0.04
356.46	-0.01
356.668	-0.02
356.877	0.08
357.085	0
357.294	-0.11
357.503	0.05
357.711	-0.03
357.92	0.07
358.128	-0
358.337	-0.04
358.545	0.01
358.754	-0.04
358.962	-0.03
359.17	-0.03
359.379	-0.02
359.587	0.01
359.796	-0.02
360.004	0.03
360.212	0
360.421	0.02
360.629	-0.02
360.837	-0.05
361.046	-0.03
361.254	0.09
361.462	-0.01
361.67	-0.02
361.879	-0.01
362.087	0.03
362.295	0.03
362.503	-0.04
362.711	-0.04
362.92	-0.05
363.128	-0.04
363.336	-0.02
363.544	-0.08
363.752	-0.04
363.96	-0.04
364.168	-0.04
364.376	-0.02
364.584	-0.01
364.792	0.03
365	0.01
365.208	-0.02
365.416	-0.02
365.624	-0.02
365.832	-0.04
366.04	0.01
366.248	0.01
366.456	0
366.664	-0.01
366.872	-0.02
367.079	-0.01
367.287	-0.01
367.495	-0.02
367.703	-0.02
367.911	-0
368.118	-0.02
368.326	-0.08
368.534	-0.04
368.742	0.05
368.949	-0.04
369.157	-0.02
369.365	0.02
369.572	-0.04
369.78	-0.03
369.988	0.05
370.195	0.03
370.403	-0.02
370.61	-0.04
370.818	0.01
371.026	0.01
371.233	-0.03
371.441	0.05
371.648	-0.04
371.856	-0.02
372.063	0.04
372.271	-0.06
372.478	-0.04
372.685	-0.04
372.893	0.03
373.1	-0.04
373.308	-0.02
373.515	0.03
373.722	-0.02
373.93	-0.01
374.137	0.01
374.344	0.03
374.552	0.05
374.759	0.02
374.966	0.01
375.173	-0.01
375.381	0.05
375.588	-0.04
375.795	-0.09
376.002	-0.03
376.209	-0.05
376.417	-0.03
376.624	-0.02
376.831	-0.04
377.038	-0.03
377.245	-0.08
377.452	-0.07
377.659	0
377.866	-0.02
378.073	0.01
378.28	-0.02
378.487	0.02
378.694	-0.01
378.901	-0.03
379.108	-0.01
379.315	0.01
379.522	0.03
379.729	0.01
379.936	-0.04
380.143	-0.04
380.35	-0.01
380.557	-0.02
380.763	-0
380.97	0.01
381.177	0.01
381.384	0.01
381.591	-0.06
381.797	-0.01
382.004	0
382.211	0.04
382.418	-0.02
382.624	0.05
382.831	0.03
383.038	-0.01
383.244	-0.02
383.451	-0.02
383.658	-0.01
383.864	0.02
384.071	-0.01
384.277	0.08
384.484	-0.06
384.69	0.01
384.897	-0
385.103	-0.04
385.31	-0.07
385.516	-0.06
385.723	-0.06
385.929	-0.03
386.136	-0.04
386.342	-0.01
386.549	0.01
386.755	0.08
386.961	-0.04
387.168	-0.05
387.374	0
387.58	0
387.787	0
387.993	0.01
388.199	-0.04
388.406	-0.03
388.612	-0.01
388.818	-0.04
389.024	-0.03
389.231	-0.05
389.437	0.04
389.643	0.03
389.849	-0.03
390.055	0.02
390.261	-0.03
390.467	-0
390.674	-0.05
390.88	-0.06
391.086	-0.02
391.292	-0.05
391.498	0.02
391.704	-0.01
391.91	-0.04
392.116	-0.06
392.322	-0.1
392.528	-0.02
392.734	-0.04
392.94	-0.02
393.146	-0.02
393.352	-0.02
393.557	-0.02
393.763	-0.02
393.969	-0.03
394.175	-0.02
394.381	-0.01
394.587	-0.07
394.792	-0.06
394.998	-0.01
395.204	0.06
395.41	-0
395.615	0.02
395.821	-0.02
396.027	-0.01
396.233	-0.04
396.438	-0.03
396.644	0.08
396.85	-0.02
397.055	-0.05
397.261	-0.02
397.466	0.05
397.672	-0.04
397.878	0.05
398.083	0
398.289	-0.05
398.494	0.04
398.7	0.02
398.905	-0.05
399.111	0.03
399.316	-0.08
399.522	-0.03
399.727	-0.01
399.932	0.01
400.138	-0.03
400.343	0.02
400.549	-0.02
400.754	-0.03
400.959	0.02
401.165	-0.04
401.37	-0.01
401.575	0.06
401.78	-0.06
401.986	-0.05
402.191	-0.05
402.396	-0.04
402.601	-0.01
402.807	0
403.012	0.03
403.217	0
403.422	0.02
403.627	-0.02
403.832	-0.06
404.037	0.01
404.243	0.01
404.448	-0.07
404.653	-0.02
404.858	-0.03
405.063	0.03
405.268	-0.03
405.473	-0.07
405.678	-0.03
405.883	0.07
406.088	-0.01
406.293	-0.06
406.498	-0.09
406.703	0
406.907	-0.07
407.112	-0.06
407.317	0.02
407.522	-0
407.727	-0.07
407.932	-0.02
408.136	0.07
408.341	-0.02
408.546	-0.01
408.751	-0.02
408.956	-0.03
409.16	0.01
409.365	-0
409.57	-0.05
409.774	-0.04
409.979	0.02
410.184	-0.03
410.388	-0.08
410.593	0.03
410.798	-0.01
411.002	-0.06
411.207	-0.01
411.411	-0.01
411.616	-0.07
411.82	-0.03
412.025	0
412.229	-0.08
412.434	0.02
412.638	0.03
412.843	-0.05
413.047	-0.01
413.252	-0.07
413.456	-0.02
413.66	0.04
413.865	-0.03
414.069	0.06
414.273	-0.05
414.478	-0.04
414.682	-0.07
414.886	-0.06
415.091	-0.08
415.295	-0.08
415.499	-0.02
415.703	-0.02
415.908	-0.01
416.112	-0.1
416.316	0.03
416.52	-0.08
416.724	-0.09
416.929	-0.04
417.133	0.08
417.337	-0.02
417.541	-0.07
417.745	-0.05
417.949	-0.03
418.153	-0.02
418.357	-0.05
418.561	0.06
418.765	-0.04
418.969	0.07
419.173	0.01
419.377	-0.06
419.581	0.04
419.785	0
419.989	-0.03
420.193	-0.05
420.397	-0.03
420.601	-0
420.804	0.06
421.008	-0.02
421.212	0
421.416	0.04
421.62	-0.03
421.823	-0.04
422.027	0.07
422.231	0.01
422.435	0.01
422.638	-0.01
422.842	0.02
423.046	-0.09
423.249	0.02
423.453	0.01
423.657	-0.03
423.86	-0.02
424.064	-0.02
424.268	0.04
424.471	-0.02
424.675	0.02
424.878	0.05
425.082	-0.01
425.285	0.02
425.489	-0.03
425.692	-0.01
425.896	-0.06
426.099	-0.01
426.303	-0.08
426.506	-0.09
426.71	-0.02
426.913	0.01
427.116	0.05
427.32	-0.06
427.523	0.01
427.726	0.04
427.93	-0.07
428.133	0.01
428.336	-0.05
428.54	-0.05
428.743	-0.01
428.946	0.01
429.149	-0.03
429.353	0.01
429.556	-0.09
429.759	-0.03
429.962	-0.08
430.165	-0.05
430.368	-0.03
430.571	-0.07
430.775	-0.01
430.978	0.01
431.181	-0.02
431.384	0.01
431.587	-0.07
431.79	-0.06
431.993	-0.07
432.196	-0.03
432.399	-0.02
432.602	0.02
432.805	-0.04
433.008	-0.06
433.211	-0.14
433.414	-0.02
433.616	-0.05
433.819	-0.04
434.022	-0.08
434.225	0.06
434.428	-0.04
434.631	0.09
434.833	-0.02
435.036	-0.05
435.239	0.03
435.442	-0.03
435.645	-0.04
435.847	-0.02
436.05	0.04
436.253	0.01
436.455	-0.05
436.658	-0.05
436.861	-0.01
437.063	-0.05
437.266	-0.03
437.468	-0.04
437.671	0.1
437.874	0
438.076	0.01
438.279	-0.11
438.481	-0.02
438.684	-0.06
438.886	-0.01
439.089	-0.09
439.291	-0.05
439.494	0.02
439.696	-0.07
439.899	-0.02
440.101	0
440.303	-0.11
440.506	-0.02
440.708	-0.05
440.91	0
441.113	-0.04
441.315	-0
441.517	-0.13
441.72	-0.01
441.922	-0.06
442.124	-0.04
442.326	-0.04
442.529	0.06
442.731	-0.05
442.933	0.06
443.135	-0.01
443.337	-0.05
443.539	-0.07
443.742	-0.05
443.944	-0.04
444.146	-0.04
444.348	-0.07
444.55	-0.06
444.752	-0.03
444.954	-0.07
445.156	0
445.358	-0.06
445.56	0.05
445.762	-0.06
445.964	-0.05
446.166	-0.07
446.368	-0.04
446.57	0.02
446.772	-0.04
446.974	-0.06
447.175	-0.01
447.377	-0.04
447.579	-0.06
447.781	-0.12
447.983	0.01
448.184	-0.06
448.386	-0.01
448.588	-0.09
448.79	-0.04
448.991	-0.07
449.193	-0.03
449.395	-0.05
449.597	-0.03
449.798	0.01
450	-0.04
450.202	0
450.403	-0.01
450.605	-0.03
450.806	0.01
451.008	-0.09
451.21	-0.04
451.411	-0.01
451.613	-0.04
451.814	-0.02
452.016	-0.02
452.217	-0.02
452.419	0.02
452.62	-0.03
452.821	0.02
453.023	0.02
453.224	0.01
453.426	-0.03
453.627	0.02
453.828	0.02
454.03	-0.01
454.231	0.01
454.432	-0.01
454.634	0.05
454.835	-0.07
455.036	-0.07
455.238	0.02
455.439	0.01
455.64	-0.07
455.841	-0.08
456.042	0.09
456.244	-0.05
456.445	-0.09
456.646	-0.13
456.847	-0.02
457.048	-0
457.249	-0.01
457.45	0.17
457.651	-0.08
457.852	0.05
458.054	0.01
458.255	-0.05
458.456	0.03
458.657	-0.04
458.858	-0.05
459.058	0.04
459.259	0.01
459.46	-0.05
459.661	-0.04
459.862	0.02
460.063	-0.03
460.264	0.06
460.465	-0.09
460.666	0.07
460.866	-0.02
461.067	-0.04
461.268	-0.03
461.469	-0.08
461.67	-0
461.87	-0.03
462.071	-0.01
462.272	-0.04
462.473	-0.03
462.673	-0.01
462.874	-0.07
463.075	-0.04
463.275	-0.03
463.476	-0.04
463.676	-0.03
463.877	-0.02
464.078	-0.07
464.278	-0.02
464.479	-0.05
464.679	-0.03
464.88	-0.07
465.08	0.04
465.281	-0.05
465.481	-0.06
465.682	-0.06
465.882	-0.02
466.083	-0.01
466.283	0.02
466.483	-0.01
466.684	-0.08
466.884	-0.11
467.085	-0.01
467.285	0
467.485	-0.07
467.686	-0.05
467.886	-0.09
468.086	-0.03
468.286	-0.03
468.487	0
468.687	-0.06
468.887	-0.05
469.087	0.02
469.287	-0.02
469.488	-0.06
469.688	0.01
469.888	0.01
470.088	0.03
470.288	0.03
470.488	0
470.688	-0.03
470.888	-0.07
471.088	-0.05
471.288	-0
471.488	-0
471.688	-0.01
471.888	-0.05
472.088	0.01
472.288	0.03
472.488	-0.05
472.688	-0.04
472.888	-0.02
473.088	-0.01
473.288	-0.02
473.488	-0.04
473.688	0.08
473.887	-0.01
474.087	-0.06
474.287	0.03
474.487	-0.08
474.687	0.02
474.886	-0
475.086	-0.04
475.286	-0.02
475.486	-0
475.685	-0.02
475.885	-0.04
476.085	-0.03
476.284	-0.04
476.484	-0.03
476.684	0
476.883	0.02
477.083	-0
477.282	-0
477.482	0.01
477.681	0.06
477.881	-0.01
478.08	-0.05
478.28	-0.04
478.479	0.03
478.679	0.04
478.878	-0.04
479.078	-0.05
479.277	-0.02
479.477	-0.03
479.676	0.03
479.875	-0.01
480.075	-0.07
480.274	-0.01
480.473	0.04
480.673	-0.02
480.872	0.01
481.071	-0.02
481.271	0.01
481.47	-0.03
481.669	-0.05
481.868	-0.02
482.067	-0.06
482.267	-0.04
482.466	-0.05
482.665	-0.03
482.864	-0.05
483.063	-0.05
483.262	0
483.461	0.01
483.661	0.02
483.86	-0.01
484.059	-0.01
484.258	-0.01
484.457	-0.02
484.656	0
484.855	0.02
485.054	-0.05
485.253	-0.05
485.452	-0.07
485.651	0.02
485.849	-0.02
486.048	-0.02
486.247	-0.08
486.446	-0.02
486.645	-0.04
486.844	-0.03
487.043	-0.03
487.241	0.01
487.44	-0.04
487.639	-0.03
487.838	0.01
488.037	-0
488.235	0.02
488.434	-0.03
488.633	-0.04
488.831	-0.01
489.03	0.01
489.229	0.01
489.427	0.02
489.626	0.01
489.825	0.04
490.023	-0
490.222	-0.02
490.42	0.01
490.619	0.01
490.817	-0
491.016	-0.04
491.214	0.03
491.413	-0.02
491.611	-0.03
491.81	-0.04
492.008	-0
492.207	0.02
492.405	0
492.604	-0.07
492.802	0
493	-0.02
493.199	-0.03
493.397	0.01
493.595	-0.01
493.794	-0.02
493.992	0.03
494.19	-0.01
494.388	0.01
494.587	-0.04
494.785	-0
494.983	-0.05
495.181	-0.02
495.379	-0.01
495.578	-0.03
495.776	0.01
495.974	-0.01
496.172	-0.02
496.37	-0.03
496.568	-0.03
496.766	-0.03
496.964	0.04
497.162	-0
497.36	-0.04
497.558	-0
497.756	0.01
497.954	-0
498.152	-0.04
498.35	0
498.548	-0.03
498.746	0
498.944	-0.03
499.142	-0.03
499.34	-0.03
499.538	0.01
499.736	-0.03
499.933	0
500.131	0
500.329	-0.02
500.527	0
500.725	0.02
500.922	0
501.12	-0.01
501.318	0
501.516	-0.04
501.713	-0.01
501.911	-0.02
502.109	-0.03
502.306	-0.01
502.504	-0.01
502.701	-0.02
502.899	-0.03
503.097	0.01
503.294	0
503.492	-0.01
503.689	0
503.887	0.01
504.084	0.03
504.282	-0.01
504.479	-0.04
504.677	-0.02
504.874	-0.04
505.072	-0
505.269	-0.01
505.466	0.03
505.664	0
505.861	-0.05
506.059	-0.03
506.256	0.01
506.453	-0.01
506.651	0.02
506.848	0.01
507.045	0.01
507.242	-0.02
507.44	-0.02
507.637	0
507.834	-0.01
508.031	0.01
508.229	-0.04
508.426	-0.02
508.623	0.01
508.82	-0.02
509.017	-0.03
509.214	-0.01
509.411	-0.01
509.608	-0.05
509.805	-0.02
510.003	-0.03
510.2	-0.02
510.397	0
510.594	-0.03
510.791	-0.05
510.988	0.01
511.184	0.01
511.381	-0.01
511.578	-0.02
511.775	0.01
511.972	-0.02
512.169	-0.02
512.366	-0.02
512.563	0.01
512.76	-0.02
512.956	0
513.153	-0.03
513.35	0
513.547	-0.03
513.744	-0.04
513.94	-0.03
514.137	0
514.334	-0.01
514.53	0.01
514.727	-0
514.924	0.03
515.12	-0.03
515.317	-0.05
515.514	-0.03
515.71	-0.02
515.907	-0.04
516.103	-0.01
516.3	0.01
516.497	0
516.693	0.03
516.89	-0.01
517.086	-0.04
517.283	0.01
517.479	0.02
517.676	0.01
517.872	-0.03
518.068	-0.02
518.265	-0.02
518.461	-0.03
518.658	-0.03
518.854	-0.01
519.05	-0.03
519.247	-0.02
519.443	0.01
519.639	-0
519.836	0.01
520.032	-0.01
520.228	-0.01
520.424	0.02
520.621	0.01
520.817	-0.02
521.013	0
521.209	-0.01
521.405	0.01
521.601	-0.02
521.798	-0.01
521.994	0.05
522.19	-0.01
522.386	-0.05
522.582	-0.01
522.778	0.01
522.974	-0.03
523.17	-0.02
523.366	0
523.562	-0
523.758	-0.02
523.954	-0.01
524.15	-0.02
524.346	0
524.542	-0.02
524.738	-0.02
524.934	-0.02
525.129	-0.09
525.325	0
525.521	-0.01
525.717	0.02
525.913	-0.02
526.109	0.01
526.304	-0.01
526.5	-0
526.696	0.02
526.892	0
527.087	0.01
527.283	-0.02
527.479	0.01
527.674	-0.04
527.87	-0.01
528.066	-0.03
528.261	0.01
528.457	-0.01
528.653	-0.03
528.848	-0.03
529.044	0.02
529.239	-0.01
529.435	0.02
529.63	0.02
529.826	0.04
530.021	0
530.217	0
530.412	-0.01
530.608	-0.02
530.803	-0.02
530.999	-0.02
531.194	-0.04
531.389	-0.02
531.585	-0.04
531.78	-0.02
531.975	-0.02
532.171	0.03
532.366	-0.01
532.561	-0.02
532.757	-0.04
532.952	-0.03
533.147	-0.01
533.342	0
533.538	-0.04
533.733	0.04
533.928	-0.02
534.123	-0.01
534.318	-0.04
534.513	-0.01
534.709	-0.01
534.904	-0.02
535.099	-0.03
535.294	-0
535.489	-0.01
535.684	-0.03
535.879	-0.04
536.074	-0.01
536.269	-0.02
536.464	-0.01
536.659	-0.02
536.854	-0.01
537.049	-0
537.244	-0
537.439	-0.02
537.634	0.03
537.828	-0
538.023	-0.02
538.218	-0.04
538.413	-0.01
538.608	-0.05
538.803	0.02
538.997	-0.05
539.192	-0.01
539.387	-0
539.582	-0.01
539.776	0
539.971	0
540.166	-0.02
540.36	-0.03
540.555	-0.02
540.75	-0.01
540.944	-0
541.139	-0.06
541.334	-0.02
541.528	0
541.723	-0
541.917	-0.03
542.112	-0.03
542.306	-0.01
542.501	-0.01
542.695	0.01
542.89	-0.02
543.084	0.01
543.279	-0.02
543.473	0
543.668	-0.02
543.862	-0
544.056	0.02
544.251	-0.02
544.445	-0.02
544.64	-0.03
544.834	-0.03
545.028	-0.01
545.222	-0.01
545.417	-0
545.611	-0
545.805	-0
546	-0.05
546.194	0
546.388	-0.04
546.582	0.01
546.776	0.01
546.97	-0.01
547.165	0.02
547.359	0.01
547.553	-0.02
547.747	0
547.941	-0.01
548.135	-0.04
548.329	0
548.523	-0.01
548.717	-0.02
548.911	-0.01
549.105	-0.02
549.299	-0.04
549.493	0.02
549.687	-0
549.881	-0.02
550.075	-0.04
550.269	-0.02
550.463	0
550.657	-0.03
550.85	-0
551.044	-0.04
551.238	-0.01
551.432	-0
551.626	-0.04
551.82	0
552.013	-0.02
552.207	0.01
552.401	0
552.594	-0.02
552.788	-0.02
552.982	-0.02
553.176	-0.02
553.369	0.01
553.563	-0
553.756	-0.04
553.95	-0.02
554.144	-0.02
554.337	0.01
554.531	-0.03
554.724	0.01
554.918	-0.02
555.111	-0
555.305	-0.02
555.498	0.02
555.692	-0
555.885	-0.03
556.079	-0.01
556.272	-0.02
556.466	-0.02
556.659	-0.02
556.852	-0.03
557.046	-0.03
557.239	0.02
557.432	-0.03
557.626	-0.03
557.819	-0.02
558.012	0
558.206	0
558.399	-0.01
558.592	-0.02
558.785	-0.03
558.979	0
559.172	-0
559.365	0.01
559.558	-0.02
559.751	-0.01
559.944	0.01
560.138	-0.02
560.331	-0.02
560.524	-0.04
560.717	-0
560.91	-0.02
561.103	0.01
561.296	-0.01
561.489	-0
561.682	-0.01
561.875	0.02
562.068	-0.01
562.261	-0.01
562.454	0.03
562.647	-0.02
562.84	0
563.032	-0.02
563.225	0.01
563.418	-0.03
563.611	-0.03
563.804	-0.03
563.997	-0.02
564.19	-0.03
564.382	-0.06
564.575	0
564.768	-0.02
564.961	-0.02
565.153	-0.03
565.346	0.01
565.539	0.01
565.731	0.02
565.924	0.03
566.117	-0.01
566.309	0.01
566.502	-0.03
566.695	-0.04
566.887	-0.02
567.08	-0.03
567.272	-0.02
567.465	-0.03
567.657	-0
567.85	0
568.042	0
568.235	0.03
568.427	-0.01
568.62	-0.01
568.812	0.01
569.005	-0.01
569.197	-0.02
569.389	-0.01
569.582	-0.03
569.774	0.01
569.966	-0.03
570.159	-0.04
570.351	-0.01
570.543	-0.04
570.736	-0
570.928	-0.03
571.12	-0.02
571.312	-0.05
571.505	-0.02
571.697	0.02
571.889	-0.04
572.081	0
572.273	-0.03
572.465	0.02
572.658	-0.01
572.85	0
573.042	-0.03
573.234	-0.01
573.426	0.02
573.618	-0.04
573.81	-0.01
574.002	0.01
574.194	0.02
574.386	-0.06
574.578	-0.06
574.77	-0.04
574.962	-0.01
575.154	-0.03
575.346	-0.01
575.538	-0
575.729	-0.05
575.921	-0.03
576.113	-0.03
576.305	0.03
576.497	-0.01
576.689	-0.02
576.88	-0.02
577.072	0.04
577.264	-0.04
577.456	-0.02
577.647	-0.1
577.839	-0.03
578.031	0.01
578.223	-0.05
578.414	-0.05
578.606	0.01
578.798	-0.02
578.989	-0.02
579.181	-0.03
579.372	-0.01
579.564	-0.02
579.755	-0.02
579.947	0.03
580.139	0.03
580.33	-0.05
580.522	-0.03
580.713	-0.09
580.905	-0.02
581.096	0.01
581.287	0.02
581.479	-0.02
581.67	0.02
581.862	-0.02
582.053	-0.02
582.244	-0.05
582.436	-0.02
582.627	-0
582.818	-0.04
583.01	-0.04
583.201	0.01
583.392	0.03
583.583	0
583.775	-0.01
583.966	-0.03
584.157	-0.05
584.348	-0.02
584.54	-0.04
584.731	0
584.922	-0.03
585.113	-0.06
585.304	-0.01
585.495	0.02
585.686	0.01
585.877	0
586.068	-0.01
586.259	-0.02
586.45	-0.03
586.641	-0.04
586.832	-0.07
587.023	-0.01
587.214	0.01
587.405	-0.02
587.596	-0.04
587.787	0.04
587.978	-0.02
588.169	-0.03
588.36	-0.02
588.551	0
588.742	-0.02
588.932	-0.01
589.123	-0.03
589.314	0.01
589.505	0
589.696	-0.01
589.886	-0.03
590.077	-0.06
590.268	0
590.458	-0.04
590.649	-0.06
590.84	0.01
591.03	-0.03
591.221	-0.06
591.412	-0.06
591.602	0
591.793	0.02
591.984	-0.05
592.174	-0.05
592.365	0.05
592.555	-0.04
592.746	-0.01
592.936	-0.03
593.127	-0
593.317	0.01
593.508	-0.03
593.698	-0.03
593.889	-0.02
594.079	-0.03
594.269	-0.01
594.46	0
594.65	-0.01
594.84	-0.01
595.031	-0.06
595.221	-0.04
595.411	-0.08
595.602	0.01
595.792	-0.04
595.982	-0.04
596.172	0.02
596.363	-0.01
596.553	0.01
596.743	-0.01
596.933	-0.04
597.123	-0
597.314	-0.05
597.504	-0.01
597.694	0.01
597.884	-0.01
598.074	-0.02
598.264	-0.02
598.454	0
598.644	-0.03
598.834	-0.02
599.024	-0.08
599.214	-0.03
599.404	0.03
599.594	-0.01
599.784	-0.05
599.974	0.03
600.164	0.01
600.354	-0.03
600.544	-0.04
600.734	-0.03
600.924	0.01
601.114	-0.03
601.303	-0.02
601.493	-0.01
601.683	-0.03
601.873	0.01
602.063	-0.07
602.252	0.02
602.442	-0.06
602.632	-0.04
602.821	-0.07
603.011	-0.01
603.201	-0.02
603.39	-0.04
603.58	-0.07
603.77	0.01
603.959	0.05
604.149	0
604.339	-0.04
604.528	0.01
604.718	0.01
604.907	-0.01
605.097	-0.03
605.286	-0.04
605.476	-0.01
605.665	0
605.855	-0.04
606.044	0.01
606.234	0
606.423	-0.02
606.612	-0.03
606.802	-0
606.991	-0
607.181	-0
607.37	-0.07
607.559	-0.02
607.749	-0.05
607.938	-0.02
608.127	-0.03
608.316	-0.03
608.506	-0.03
608.695	-0.03
608.884	-0.04
609.073	-0
609.263	-0.01
609.452	-0.01
609.641	-0.01
609.83	-0.03
610.019	-0.01
610.208	-0.02
610.397	-0.02
610.586	-0
610.775	-0.04
610.965	-0.04
611.154	-0.02
611.343	-0.02
611.532	-0.04
611.721	-0.05
611.91	-0.04
612.099	-0.01
612.287	-0.05
612.476	-0.07
612.665	-0
612.854	-0.03
613.043	0.01
613.232	-0.04
613.421	-0.05
613.61	0.01
613.798	-0.03
613.987	0
614.176	-0.01
614.365	0.03
614.554	-0.02
614.742	0
614.931	-0.05
615.12	0.04
615.309	-0.02
615.497	-0
615.686	-0.02
615.875	-0.01
616.063	-0.01
616.252	-0.04
616.44	-0.02
616.629	-0.03
616.818	-0.02
617.006	-0.04
617.195	-0.03
617.383	-0.02
617.572	0.01
617.76	-0.02
617.949	-0.01
618.137	-0.03
618.326	0.03
618.514	-0.07
618.703	-0.03
618.891	0.03
619.079	-0.06
619.268	-0.03
619.456	-0.04
619.644	0.01
619.833	-0.04
620.021	-0.03
620.209	-0.05
620.398	-0.02
620.586	-0.03
620.774	-0.01
620.962	-0.02
621.151	0.05
621.339	-0.03
621.527	-0.06
621.715	-0.06
621.903	-0.06
622.092	-0.05
622.28	0.02
622.468	-0.01
622.656	-0.01
622.844	-0.01
623.032	-0.02
623.22	-0.05
623.408	-0
623.596	0.01
623.784	-0.01
623.972	-0.06
624.16	-0.04
624.348	0.02
624.536	-0.02
624.724	-0.04
624.912	0.01
625.1	0.02
625.288	-0.03
625.476	-0.05
625.664	0.02
625.851	-0.03
626.039	-0.05
626.227	-0.01
626.415	-0.05
626.603	-0.07
626.79	-0.03
626.978	-0.01
627.166	-0.02
627.354	-0.01
627.541	-0.06
627.729	-0.06
627.917	-0.01
628.104	0
628.292	0
628.48	-0.03
628.667	-0.01
628.855	-0.01
629.042	0
629.23	-0.02
629.418	-0.01
629.605	-0.05
629.793	-0.04
629.98	-0.04
630.168	-0.04
630.355	0.02
630.543	-0
630.73	-0.01
630.917	0.02
631.105	0.03
631.292	-0.03
631.48	0
631.667	0.02
631.854	-0.02
632.042	-0.02
632.229	-0.05
632.416	-0.03
632.604	-0.03
632.791	-0.04
632.978	0.01
633.165	0
633.353	0.05
633.54	-0
633.727	-0.09
633.914	-0.07
634.101	-0.1
634.289	-0.01
634.476	-0.02
634.663	-0.04
634.85	-0.01
635.037	-0.04
635.224	-0.08
635.411	-0.01
635.598	0.04
635.785	0.01
635.972	-0.06
636.159	0.01
636.346	-0.06
636.533	-0.03
636.72	-0.04
636.907	-0.02
637.094	0.02
637.281	-0.02
637.468	0
637.655	-0.01
637.842	-0.02
638.029	-0.03
638.215	-0
638.402	-0.02
638.589	-0
638.776	-0.03
638.963	-0.01
639.149	0.02
639.336	0.03
639.523	-0.03
639.709	-0.01
639.896	-0.01
640.083	0.06
640.27	0.01
640.456	-0.03
640.643	0
640.829	-0.07
641.016	-0.04
641.203	-0.04
641.389	-0.01
641.576	0.01
641.762	-0.02
641.949	-0.05
642.135	0.01
642.322	-0
642.508	-0.05
642.695	-0.01
642.881	-0.04
643.068	0.02
643.254	-0.01
643.441	0
643.627	-0.03
643.813	-0.06
644	-0
644.186	-0.04
644.372	-0.07
644.559	0.02
644.745	-0.02
644.931	-0.02
645.118	-0.01
645.304	-0.02
645.49	-0.03
645.676	-0.02
645.862	0
646.049	0.04
646.235	0
646.421	0.06
646.607	0.03
646.793	-0.06
646.979	-0.08
647.165	0.01
647.352	-0
647.538	0.04
647.724	0.01
647.91	0
648.096	0.01
648.282	0.01
648.468	-0.02
648.654	-0.03
648.84	-0
649.026	0.01
649.212	-0.01
649.397	-0.02
649.583	-0.06
649.769	0.02
649.955	-0.02
650.141	0.02
650.327	0.04
650.513	-0
650.698	0.02
650.884	-0.08
651.07	0.02
651.256	-0
651.442	-0.01
651.627	0.01
651.813	0.03
651.999	0.02
652.184	0.02
652.37	-0
652.556	-0.02
652.741	0.04
652.927	-0.07
653.113	0.01
653.298	0.02
653.484	-0.02
653.669	-0.04
653.855	0
654.04	0
654.226	0.01
654.412	-0.01
654.597	-0.04
654.782	-0
654.968	0.06
655.153	0.02
655.339	-0.04
655.524	-0.04
655.71	0.04
655.895	-0.01
656.08	0
656.266	0.06
656.451	0.03
656.636	-0.03
656.822	-0
657.007	-0.02
657.192	0.01
657.378	-0.04
657.563	0.01
657.748	0.05
657.933	0.03
658.118	-0
658.304	-0.01
658.489	0.02
658.674	0.02
658.859	-0.04
659.044	0.02
659.229	0.04
659.414	0
659.599	0.02
659.785	-0.06
659.97	0
660.155	0.05
660.34	0.01
660.525	0.01
660.71	-0
660.895	0.05
661.08	-0.02
661.264	-0.01
661.449	0.05
661.634	0.04
661.819	-0.02
662.004	0.04
662.189	-0.04
662.374	-0.02
662.559	-0.06
662.743	-0.06
662.928	-0.01
663.113	-0.05
663.298	-0.07
663.483	-0.01
663.667	-0.01
663.852	-0.05
664.037	0.03
664.221	-0
664.406	0
664.591	0.01
664.775	-0.05
664.96	-0.06
665.145	0.01
665.329	0.01
665.514	-0.01
665.698	-0.02
665.883	-0.06
666.068	0.05
666.252	0.01
666.437	-0.04
666.621	-0.04
666.806	-0
666.99	-0.03
667.174	-0.02
667.359	0.04
667.543	-0.01
667.728	-0.06
667.912	-0.11
668.096	-0.01
668.281	-0.06
668.465	-0.05
668.649	-0
668.834	-0.05
669.018	-0.03
669.202	-0.06
669.387	-0.06
669.571	0.04
669.755	-0.06
669.939	-0.04
670.124	-0.03
670.308	0.04
670.492	0.04
670.676	-0.01
670.86	0.01
671.044	-0.08
671.228	0.01
671.413	-0.07
671.597	-0.06
671.781	-0.06
671.965	0.01
672.149	-0.01
672.333	-0.04
672.517	-0.04
672.701	0.01
672.885	-0.07
673.069	-0.04
673.253	0.01
673.437	-0.03
673.621	-0.04
673.804	-0.03
673.988	0
674.172	-0.03
674.356	-0.07
674.54	-0.05
674.724	0.07
674.908	-0.05
675.091	-0.02
675.275	-0.05
675.459	0.03
675.643	-0.01
675.826	-0.03
676.01	0.01
676.194	-0.03
676.377	0.05
676.561	-0.01
676.745	-0.01
676.928	-0.02
677.112	0.01
677.296	-0.07
677.479	-0.02
677.663	-0.06
677.846	-0.01
678.03	-0.04
678.213	-0.07
678.397	-0.02
678.58	-0.02
678.764	-0.05
678.947	-0.06
679.131	-0.05
679.314	0.02
679.498	-0.04
679.681	0.02
679.865	0.06
680.048	-0
680.231	-0.04
680.415	-0.03
680.598	-0.02
680.781	-0.04
680.965	-0.11
681.148	-0.02
681.331	-0.1
681.514	-0.01
681.698	-0.09
681.881	0.01
682.064	-0.06
682.247	-0.02
682.43	-0.08
682.614	0.02
682.797	-0.01
682.98	0.02
683.163	-0.07
683.346	0
683.529	-0.05
683.712	-0.07
683.895	-0.04
684.078	-0.04
684.261	-0.01
684.444	-0.04
684.627	-0.02
684.81	-0.11
684.993	-0.08
685.176	-0
685.359	-0.1
685.542	-0.03
685.725	0.01
685.908	0.01
686.091	-0.06
686.274	0.05
686.457	0.01
686.639	-0.04
686.822	0.01
687.005	-0
687.188	0.02
687.371	0.04
687.553	0.01
687.736	-0.04
687.919	0.04
688.102	0.03
688.284	-0.02
688.467	-0.03
688.65	-0.01
688.832	-0.01
689.015	-0.08
689.197	-0.1
689.38	0.08
689.563	0.07
689.745	-0.12
689.928	-0.05
690.11	-0.07
690.293	0.01
690.475	-0.09
690.658	0.02
690.84	-0.07
691.023	-0.05
691.205	-0.03
691.388	-0.01
691.57	0.03
691.752	-0.01
691.935	-0.1
692.117	-0.07
692.3	-0.03
692.482	-0.06
692.664	-0.05
692.847	0.01
693.029	0.01
693.211	0.02
693.393	-0.06
693.576	-0.07
693.758	-0.04
693.94	-0.03
694.122	-0.08
694.304	-0.04
694.487	-0.04
694.669	0.03
694.851	-0.08
695.033	-0
695.215	-0.07
695.397	-0.1
695.579	-0.03
695.761	-0.1
695.943	-0.09
696.125	0.04
696.308	-0.01
696.49	-0.1
696.671	0.03
696.853	-0.01
697.035	0.13
697.217	-0.04
697.399	-0.03
697.581	-0.07
697.763	-0.06
697.945	-0.08
698.127	-0.02
698.309	0.03
698.491	-0.08
698.672	0.01
698.854	0.06
699.036	0.04
699.218	-0.07
699.399	0.04
699.581	0.02
699.763	-0.03
699.945	-0.1
700.126	-0.05
700.308	-0.02
700.49	-0.04
700.671	-0.08
700.853	-0.07
701.035	-0.07
701.216	-0.02
701.398	-0.08
701.579	-0.03
701.761	0.01
701.943	-0.08
702.124	-0.04
702.306	-0.07
702.487	0.09
702.669	-0.03
702.85	-0.04
703.031	-0.06
703.213	0.09
703.394	-0.01
703.576	-0.12
703.757	-0.03
703.938	0.06
704.12	0.07
704.301	-0.02
704.483	-0.06
704.664	0
704.845	0.04
705.026	-0.03
705.208	0.02
705.389	-0.05
705.57	0.02
705.751	-0.05
705.933	0
706.114	0.03
706.295	-0.03
706.476	-0.05
706.657	0.07
706.838	-0.02
707.02	0.06
707.201	-0.06
707.382	-0.11
707.563	0.01
707.744	-0.1
707.925	-0.05
708.106	-0.04
708.287	-0.03
708.468	0.04
708.649	-0.06
708.83	0.02
709.011	-0.04
709.192	0
709.373	-0.06
709.554	-0
709.734	0.02
709.915	-0
710.096	0.01
710.277	-0.14
710.458	-0.04
710.639	0.1
710.819	-0.12
711	-0.02
711.181	-0
711.362	0.04
711.542	-0.02
711.723	-0.1
711.904	0.06
712.085	-0.01
712.265	0.01
712.446	-0.09
712.627	0.01
712.807	-0.04
712.988	-0.05
713.168	-0.15
713.349	0.01
713.53	-0.16
713.71	-0.09
713.891	-0.09
714.071	-0.04
714.252	-0.06
714.432	-0.02
714.613	-0.14
714.793	0.08
714.974	0.12
715.154	0.06
715.334	0.02
715.515	0.01
715.695	-0.04
715.876	-0
716.056	-0.07
716.236	-0.1
716.417	-0.01
716.597	-0.05
716.777	0.04
716.957	-0.05
717.138	-0.05
717.318	0.03
717.498	-0.18
717.678	-0.02
717.859	-0.1
718.039	-0.12
718.219	-0.04
718.399	0.04
718.579	-0.08
718.759	-0.11
718.939	-0.05
719.12	-0.05
719.3	-0.04
719.48	-0.14
719.66	-0.2
719.84	0.01
720.02	-0.02
720.2	-0.02
720.38	-0.09
720.56	0.01
720.74	-0.07
720.92	-0.02
721.1	0.01
721.279	-0.06
721.459	0
721.639	-0.16
721.819	-0.06
721.999	0.01
722.179	0.02
722.359	-0.14
722.538	-0.05
722.718	-0.08
722.898	-0.03
723.078	-0.06
723.257	-0.07
723.437	-0.01
723.617	-0.01
723.797	-0.07
723.976	-0.05
724.156	0.03
724.336	0.06
724.515	0.1
724.695	-0.19
724.874	-0.06
725.054	-0.03
725.234	-0.03
725.413	-0.06
725.593	-0.04
725.772	-0.1
725.952	-0.03
726.131	-0.03
726.311	0.01
726.49	-0.04
726.67	-0.13
726.849	-0.09
727.028	0.04
727.208	-0.08
727.387	-0.09
727.567	-0.09
727.746	-0.04
727.925	-0.12
728.105	-0.1
728.284	-0.04
728.463	-0.12
728.643	0
728.822	-0.16
729.001	-0.05
729.18	-0.06
729.359	-0.07
729.539	0.03
729.718	-0.05
729.897	-0.02
730.076	-0.1
730.255	-0.11
730.434	-0.05
730.614	-0.05
730.793	0.01
730.972	-0.05
731.151	-0.1
731.33	0
731.509	-0.02
731.688	-0.06
731.867	-0.11
732.046	-0.26
732.225	0.2
732.404	-0.06
732.583	-0.09
732.762	-0.01
732.941	0.07
733.12	-0.1
733.298	-0.06
733.477	0.04
733.656	-0.13
733.835	-0.15
734.014	0.01
734.193	0.03
734.371	0.04
734.55	-0.07
734.729	-0.22
734.908	0.04
735.086	-0.04
735.265	0.02
735.444	-0.21
735.623	-0.13
735.801	-0.05
735.98	-0.02
736.159	-0.07
736.337	0.06
736.516	-0
736.694	-0
736.873	-0.13
737.052	0.05
737.23	0.11
737.409	-0.07
737.587	0.11
737.766	-0.23
737.944	-0.07
738.123	0.01
738.301	0.06
738.479	-0.08
738.658	-0.02
738.836	-0.29
739.015	0.03
739.193	0.05
739.371	-0.06
739.55	-0.08
739.728	-0.14
739.906	0.12
740.085	0.12
740.263	-0.15
740.441	-0.19
740.62	0.1
740.798	0.07
740.976	-0.12
741.154	-0.08
741.332	0.04
741.511	-0.03
741.689	-0.02
741.867	0
742.045	-0.02
742.223	-0.09
742.401	-0.11
742.579	-0.07
742.757	0.06
742.935	-0.13
743.114	-0.03
743.292	-0.06
743.47	-0.11
743.648	0.01
743.826	-0.16
744.004	0
744.181	-0.03
744.359	-0.05
744.537	0.07
744.715	-0.02
744.893	-0.04
745.071	-0.04
745.249	-0.09
745.427	-0.11
745.605	-0
745.782	-0.05
745.96	-0.03
746.138	-0.04
746.316	0.03
746.493	-0.11
746.671	-0.07
746.849	-0.07
747.027	0.14
747.204	-0.17
747.382	-0.03
747.56	-0.16
747.737	-0.14
747.915	-0.21
748.093	0.04
748.27	-0.03
748.448	-0.01
748.625	-0.21
748.803	-0.2
748.98	-0.09
749.158	-0.01
749.335	0.01
749.513	-0.03
749.69	-0.02
749.868	-0.04
750.045	0.01
750.223	-0.15
750.4	-0.19
750.578	0.2
750.755	-0.07
750.932	-0.15
751.11	0.14
751.287	-0.15
751.464	0.04
751.642	-0.11
751.819	0.09
751.996	0.01
752.173	-0.05
752.351	-0.19
752.528	0.02
752.705	-0.04
752.882	-0.12
753.06	0.04
753.237	-0.06
753.414	0.12
753.591	0.03
753.768	-0.09
753.945	0
754.122	-0.05
754.299	-0.02
754.476	-0.08
754.654	-0.02
754.831	-0.05
755.008	-0.07
755.185	-0.11
755.362	-0.15
755.539	0.02
755.716	-0.15
755.892	-0.07
756.069	-0.04
756.246	-0.07
756.423	-0.03
756.6	0.02
756.777	-0.03
756.954	0.06
757.131	-0.06
757.307	-0.08
757.484	-0.19
757.661	0.03
757.838	-0.01
758.015	-0.2
758.191	0.06
758.368	0.01
758.545	0.12
758.721	0.1
758.898	-0.13
759.075	0.01
759.251	0.04
759.428	0.13
759.605	-0.18
759.781	-0.01
759.958	-0
760.134	-0.06
760.311	-0.09
760.488	0.03
760.664	0.03
760.841	-0.05
761.017	-0.08
761.194	-0.06
761.37	-0.04
761.547	0.02
761.723	-0.04
761.899	0.04
762.076	-0.12
762.252	-0.13
762.429	0.05
762.605	0.01
762.781	-0.09
762.958	0.07
763.134	-0.05
763.31	-0.06
763.486	0.08
763.663	-0.28
763.839	-0.01
764.015	-0.25
764.191	-0.21
764.368	-0.01
764.544	-0.09
764.72	-0.05
764.896	0.06
765.072	-0.04
765.248	-0.02
765.425	-0.13
765.601	-0.08
765.777	0.03
765.953	-0.24
766.129	-0.1
766.305	-0.34
766.481	0.18
766.657	0
766.833	0.16
767.009	-0.11
767.185	-0.15
767.361	-0.23
767.537	-0.29
767.713	0.08
767.889	-0.09
768.065	0.04
768.24	-0.21
768.416	0.14
768.592	-0.08
768.768	-0.11
768.944	0.01
769.12	-0.16
769.295	-0.2
769.471	-0.15
769.647	-0.19
769.823	0.06
769.998	-0.13
770.174	-0.09
770.35	0.2
770.525	0.17
770.701	0.01
770.877	0.11
771.052	-0.1
771.228	-0.01
771.403	0.07
771.579	-0.07
771.755	0.35
771.93	-0.19
772.106	-0.3
772.281	-0.23
772.457	-0.13
772.632	0.05
772.808	-0.21
772.983	-0.17
773.159	-0.22
773.334	0.22
773.509	-0.05
773.685	-0.12
773.86	0.22
774.036	0.07
774.211	-0.07
774.386	-0.25
774.562	-0.02
774.737	0.05
774.912	-0.18
775.087	0.11
775.263	-0.07
775.438	-0.14
775.613	-0.17
775.788	-0.11
775.964	0.12
776.139	0.33
776.314	-0.28
776.489	-0.12
776.664	0.06
776.839	-0.21
777.014	0.1
777.19	0.07
777.365	-0
777.54	0.08
777.715	-0.07
777.89	-0.04
778.065	-0.12
778.24	0.1
778.415	0.05
778.59	-0.22
778.765	-0.11
778.94	-0.04
779.115	-0.18
779.289	-0.19
779.464	-0.21
779.639	-0.12
779.814	-0.08
779.989	-0.34
780.164	0.2
780.339	0.06
780.513	-0.1
780.688	-0.02
780.863	-0.29
781.038	-0.01
781.212	-0.2
781.387	-0.01
781.562	0.27
781.737	0
781.911	0.02
782.086	-0.21
782.261	-0.05
782.435	0.23
782.61	-0.18
782.784	-0.24
782.959	-0.03
783.134	-0.24
783.308	-0.2
783.483	-0.23
783.657	0.22
783.832	0.18
784.006	-0.21
784.181	-0.07
784.355	-0.05
784.53	-0.23
784.704	-0.2
784.878	0.25
785.053	-0.21
785.227	0.01
785.402	0.35
785.576	-0.28
785.75	-0.19
785.925	-0.45
786.099	-0.01
786.273	-0.21
786.448	0.18
786.622	-0.11
786.796	0.04
786.97	-0.06
787.145	0.24
787.319	-0.45
787.493	-0.2
787.667	-0.42
787.841	-0.17
788.015	-0.06
788.19	-0.29
788.364	-0
788.538	-0.09
788.712	-0.09
788.886	-0.07
789.06	0.11
789.234	-0.04
789.408	-0.26
789.582	-0.03
789.756	-0.06
789.93	-0.17
790.104	-0.11
790.278	-0.13
790.452	-0.19
790.626	0.08
790.8	-0.29
790.973	0.23
791.147	-0.01
791.321	0.23
791.495	-0.06
791.669	-0.07
791.843	0.24
792.016	0.01
792.19	0.35
792.364	-0.39
792.538	0.45
792.711	0.16
792.885	-0.25
793.059	-0.08
793.233	-0.65
793.406	0.14
793.58	-0.09
793.754	0.05
793.927	-0.15
794.101	0.11
794.274	-0.13
794.448	0.03
794.622	-0.4
794.795	0.25
794.969	-0.18
795.142	0.24
795.316	-0.04
795.489	-0.16
795.663	0.12
795.836	-0.05
796.009	-0.29
796.183	0.34
796.356	-0.16
796.53	-0.05
796.703	0.04
796.876	0.4
797.05	-0.14
797.223	-0.15
797.396	0.22
797.57	-0.02
797.743	0.1
797.916	0.01
798.09	-0.11
798.263	0.12
798.436	-0.03
798.609	-0.19
798.782	-0.09
798.956	-0.1
799.129	-0.04
799.302	-0.24
799.475	-0.45
799.648	-0.04
799.821	-0.21
799.994	0.01
800.167	-0.45
800.34	-0.08
800.514	0.17
800.687	-0.22
800.86	-0.13
801.033	-0.27
801.206	0.12
801.379	-0.29
801.551	0.14
801.724	-0.04
801.897	0.1
802.07	-0.34
802.243	-0.45
802.416	-0.01
802.589	-0.34
802.762	0.13
802.935	-0.1
803.107	0.09
803.28	0.04
803.453	-0.01
803.626	-0.51
803.798	0.13
803.971	-0.16
804.144	0.26
804.317	0.1
804.489	0.08
804.662	-0.09
804.835	-0.17
805.007	-0.41
805.18	0.22
805.353	-0.28
805.525	-0.36
805.698	-0.07
805.87	0.22
806.043	-0.13
806.215	-0.44
806.388	-0.2
806.56	-0.05
806.733	-0.05
806.905	0.14
807.078	-0.12
807.25	-0.39
807.423	0.05
807.595	-0.29
807.768	-0.06
807.94	0.39
808.112	0.15
808.285	-0.05
808.457	-0.38
808.629	-0.17
808.802	-0.19
808.974	-0.09
809.146	-0.27
809.318	-0.75
809.491	-0.22
809.663	0.03
809.835	-0.26
810.007	0.33
810.18	-0.06
810.352	-0.51
810.524	-0.46
810.696	-0.21
810.868	0.23
811.04	-0.13
811.212	-0.02
811.384	0.31
811.556	-0.11
811.728	-0.23
811.901	0.72
812.073	-0.4
812.245	0.32
812.417	-0.21
812.589	-0.4
812.76	-0.41
812.932	0.11
813.104	0.06
813.276	-0.08
813.448	0.11
813.62	-0.28
813.792	-0.27
813.964	-0.24
814.136	-0.42
814.307	-0.4
814.479	-0.57
814.651	-0.07
814.823	0.45
814.995	-0
815.166	-0.1
815.338	-0.39
815.51	-0.78
815.681	0.91
815.853	-0.31
816.025	-0.19
816.196	-0.05
816.368	-0.25
816.54	-0.61
816.711	-0.38
816.883	-0.09
817.054	0.33
817.226	-0.67
817.398	-0
817.569	-0.37
817.741	0.12
817.912	-0.42
818.084	0.01
818.255	0.3
818.426	-0.53
818.598	-0.18
818.769	-0.5
818.941	0.27
819.112	0.09
819.283	0.23
819.455	-0.68
819.626	-0.26
819.798	0.15
819.969	-0.27
820.14	0.34
820.311	-0.7
820.483	0.07
820.654	-0.25
820.825	0.22
820.996	-0.41
821.168	-0.49
821.339	-0.12
821.51	-0.8
821.681	-0.56
821.852	0.22
822.023	-0.29
822.195	-0.78
822.366	-0.02
822.537	-0.25
822.708	0.49
822.879	-0.3
823.05	0.29
823.221	-0.34
823.392	-0.03
823.563	-0.12
823.734	-0.06
823.905	-0.23
824.076	-0.28
824.247	-0.13
824.418	-0.51
824.589	-0.13
824.759	-0.51
824.93	-0.03
825.101	-0.41
825.272	0.32
825.443	0.5
825.614	0.02
825.784	-1.04
825.955	-0.13
826.126	0.82
826.297	-0.05
826.467	0.54
826.638	0.07
826.809	-1.38
826.98	-0.03
827.15	0.3
827.321	0.11
827.492	0.5
827.662	0.03
827.833	0.56
828.003	-0.31
828.174	-0.86
828.345	-0.75
828.515	0.35
828.686	0.39
828.856	-0.19
829.027	-0.49
829.197	-0.38
829.368	-0.01
829.538	-0.82
829.709	-0.54
829.879	-0.29
830.049	-0.8
830.22	-0.48
830.39	-0.33
830.56	-0.19
830.731	-0.56
830.901	-0.57
831.072	-0.49
831.242	0.1
831.412	0.11
831.582	-0.29
831.753	-0.55
831.923	0.13
832.093	0.11
832.263	-0.01
832.434	-0.59
832.604	-0.31
832.774	0.22
832.944	-0.24
833.114	-0.04
833.284	0.11
833.454	-0.37
833.624	-0.62
833.795	-0.07
833.965	0.69
834.135	0.54
834.305	-1.12
834.475	-0.68
834.645	0.01
834.815	-1.14
834.985	-0.47
835.155	0.12
835.325	-0.31
835.494	0.38
835.664	-0.35
835.834	-0.7
836.004	0.07
836.174	0.43
836.344	-0.37
836.514	-1.69
836.684	-0.63
836.853	-0.48
837.023	0.66
837.193	-0.01
837.363	0.23
837.532	0.12
837.702	-0.39
837.872	-0.15
838.041	0.32
838.211	0.78
838.381	-0.6
838.55	0.05
838.72	1.17
838.89	0.1
839.059	-0.05
839.229	-0.83
839.398	-0.14
839.568	-0.38
839.738	-0.14
839.907	0.31
840.077	0.15
840.246	-0.18
840.416	-0.55
840.585	-0.61
840.755	0.67
840.924	0.91
841.093	-0.07
841.263	-0.53
841.432	-0.48
841.602	-0.77
841.771	-0.46
841.94	-0.79
842.11	1.03
842.279	0.71
842.448	-1.54
842.617	-0.55
842.787	1.12
842.956	-0.8
843.125	-0.09
843.294	-0.62
843.464	0.68
843.633	-0.19
843.802	-1.11
843.971	0.18
844.14	0.53
844.309	0.36
844.479	-0.86
844.648	-0.26
844.817	-0.95
844.986	-0.07
845.155	-0.53
845.324	-0.16
845.493	-0.71
845.662	-0.97
845.831	-0.31
846	-0.09
846.169	-0.17
846.338	0.08
846.507	0.3
846.676	0.02
846.844	-0.35
847.013	-0.27
847.182	-0.08
847.351	-1.1
847.52	-0.42
847.689	0.44
847.858	0.22
848.026	-0.03
848.195	-0.75
848.364	-0.43
848.533	-0.97
848.701	-0.21
848.87	-0.98
849.039	0.38
849.207	0.45
849.376	0.98
849.545	0.91
849.713	-0.26
849.882	-0.53
850.051	-0.16
850.219	-0.11
850.388	-0.17
850.556	-0.78
850.725	-0.61
850.893	-0.02
851.062	0.36
851.23	0.5
851.399	-1.37
851.567	-0.68
851.736	-1.13
851.904	-0.56
852.073	0.37
852.241	-0.59
852.41	-0.37
852.578	-0.49
852.746	-0.6
852.915	0.09
853.083	-0.75
853.251	-1.5
853.42	-0.11
853.588	0.67
853.756	0.52
853.924	-0.51
854.093	0.62
854.261	-1.08
854.429	-1.77
854.597	-0.48
854.765	-2.06
854.934	0.44
855.102	0.82
855.27	0.04
855.438	0.15
855.606	0.68
855.774	0.87
855.942	-1.27
856.11	-2.48
856.278	-0.54
856.446	0.01
856.614	-0.21
856.782	-0.45
856.95	1.47
857.118	-1.04
857.286	-0.6
857.454	-1.1
857.622	1.18
857.79	0.71
857.958	-1.09
858.126	-0.73
858.294	-3.96
858.462	-0.14
858.629	-1.19
858.797	-1.93
858.965	0.13
859.133	-1.86
859.301	-0.51
859.468	0.24
859.636	-1.53
859.804	-0.71
859.971	1.45
860.139	-0.88
860.307	0.27
860.474	0.13
860.642	-1.04
860.81	-1.07
860.977	-1.09
861.145	0.92
861.313	-1.53
861.48	0.56
861.648	1.01
861.815	-0.63
861.983	-1.61
862.15	0.7
862.318	-0.1
862.485	0.99
862.653	-1.36
862.82	-0.63
862.988	1.38
863.155	-0.51
863.322	-0.52
863.49	-1.8
863.657	-0.78
863.824	0.92
863.992	-0.11
864.159	0.08
864.326	1.63
864.494	-1.6
864.661	2.13
864.828	-0.67
864.996	0.83
865.163	1.64
865.33	-1.67
865.497	-3.17
865.664	-1.02
865.832	-2.65
865.999	0.6
866.166	-1.33
866.333	-1.01
866.5	-1.27
866.667	-0.41
866.834	0.25
867.001	0.3
867.168	-2.17
867.335	-0.68
867.502	-2.15
867.669	-0.65
867.836	0.24
868.003	-0.68
868.17	0.25
868.337	2.35
868.504	1.22
868.671	-1.76
868.838	-1.42
869.005	-1.07
869.172	-0.5
869.339	0.22
869.505	-0.5
869.672	-2.81
869.839	1.32
870.006	-1.2
870.173	-3.39
870.339	0.22
870.506	1.99
870.673	-0.35
870.84	0.98
871.006	0.51
871.173	-1.5
871.34	-1.42
871.506	-2.36
871.673	0.03
871.839	-1.6
872.006	-1.08
872.173	-1.64
872.339	-0.76
872.506	0.38
872.672	-0.71
872.839	-0.18
873.005	0.33
873.172	1.73
873.338	0.88
873.505	-0.59
873.671	-1.77
873.838	0.24
874.004	-3.45
874.171	-1.66
874.337	-0.38
874.503	1.05
874.67	-0.88
874.836	-1.36
875.002	0.38
875.169	0.21
875.335	-1.8
875.501	-2.21
875.668	0.6
875.834	0.23
876	-0.48
876.166	-2.29
876.332	0.47
876.499	2.63
876.665	-2.14
876.831	1.5
876.997	0.75
877.163	-1.07
877.329	-2.75
877.495	-1.46
877.662	0.9
877.828	-0.02
877.994	1.9
878.16	-5.04
878.326	-2.79
878.492	1.48
878.658	-1.11
878.824	-1.19
878.99	1.21
879.156	-1.62
879.322	3.83
879.487	-0.95
879.653	-1.08
879.819	-0.13
879.985	0.67
880.151	-0.22
880.317	-0.36
880.483	-2.26
880.648	-0.93
880.814	-3.38
880.98	0.02
881.146	-1.88
881.312	-1.16
881.477	-1.16
881.643	-1.2
881.809	0.47
881.974	1.41
882.14	-1.16
882.306	0.83
882.471	2.26
882.637	-0.83
882.803	0.86
882.968	1.57
883.134	2.71
883.299	-1.57
883.465	-1.03
883.63	1.64
883.796	-0.24
883.961	1.22
884.127	-0.67
884.292	-2.43
884.458	-1.86
884.623	-1.86
