Data from Apollo_Calib_20240827__AbsoluteIrradiance__306__04-15-01-667.txt Node

Date: Wed Aug 28 04:15:01 BST 2024
User: biology
Spectrometer: FLMT08252
Trigger mode: 0
Integration Time (sec): 5.000000E-1
Scans to average: 5
Electric dark correction enabled: true
Nonlinearity correction enabled: false
Boxcar width: 0
XAxis mode: Wavelengths
Number of Pixels in Spectrum: 3648
>>>>>Begin Spectral Data<<<<<
179.588	-0
179.809	-0
180.03	-0
180.251	-0
180.473	-0
180.694	0
180.915	0
181.136	-0
181.357	0
181.578	0
181.799	0
182.02	-0
182.241	-0
182.462	-0
182.683	0
182.904	-0
183.125	-0
183.346	0
183.567	0
183.788	-0
184.009	-0
184.23	0
184.451	0
184.672	-0
184.892	-0
185.113	-0
185.334	0
185.555	-0
185.776	-0
185.996	-0
186.217	-0
186.438	-0
186.659	-0
186.879	0
187.1	-0
187.321	-0
187.541	-0
187.762	0
187.983	0
188.203	-0
188.424	0
188.644	-0
188.865	-0
189.086	-0
189.306	-0
189.527	-0
189.747	-0
189.968	-0
190.188	-0
190.409	0
190.629	0
190.849	-0
191.07	-0
191.29	0
191.511	0
191.731	-0
191.951	-0
192.172	-0
192.392	-0
192.612	-0
192.833	-0
193.053	0
193.273	0
193.493	-0
193.714	-0
193.934	0
194.154	0
194.374	-0
194.594	0
194.815	-0
195.035	0
195.255	0
195.475	-0
195.695	0
195.915	0
196.135	-0
196.355	0
196.575	0
196.795	0
197.015	-0
197.235	-0
197.455	-0
197.675	0
197.895	-0
198.115	-0
198.335	0
198.555	-0
198.775	-0
198.995	0
199.214	0
199.434	0
199.654	-0
199.874	-0
200.094	0.55
200.313	-0.04
200.533	-0.59
200.753	-1
200.973	0.82
201.192	0.32
201.412	-1.26
201.632	-0.67
201.851	0.88
202.071	-0.24
202.291	-0.56
202.51	-0.1
202.73	0.78
202.95	-0.48
203.169	-0.75
203.389	-0.14
203.608	0.04
203.828	-0.55
204.047	-0.11
204.267	0.07
204.486	0.14
204.706	0.02
204.925	-0.14
205.145	-0.5
205.364	0.42
205.583	0.59
205.803	-0.14
206.022	-0.38
206.242	0.18
206.461	0.03
206.68	-0.47
206.9	0.46
207.119	0.51
207.338	0.36
207.557	-0.2
207.777	-0.44
207.996	-0.02
208.215	0.43
208.434	-0.16
208.654	-0.58
208.873	-0.18
209.092	0.58
209.311	-0.13
209.53	-0.1
209.749	-0.28
209.968	-0.19
210.187	-0.4
210.407	-0.31
210.626	-0.37
210.845	-0.08
211.064	-0.13
211.283	-0.32
211.502	0.13
211.721	-0.19
211.94	-0.26
212.159	0.11
212.377	0.38
212.596	0.24
212.815	0.1
213.034	0.08
213.253	0.08
213.472	0.22
213.691	-0.31
213.91	-0.45
214.128	-0.29
214.347	0.31
214.566	-0.52
214.785	-0.39
215.003	0.12
215.222	0.02
215.441	-0.21
215.66	-0.35
215.878	-0.03
216.097	0.26
216.316	-0.08
216.534	-0.18
216.753	-0.11
216.972	-0.15
217.19	0.03
217.409	-0.3
217.627	-0.28
217.846	-0.12
218.064	-0.09
218.283	-0.27
218.501	0.36
218.72	0.23
218.938	-0.27
219.157	-0.18
219.375	0.13
219.594	0.06
219.812	-0.34
220.031	-0.18
220.249	0.24
220.467	0.18
220.686	-0.12
220.904	-0.34
221.122	-0.16
221.341	0.35
221.559	0.02
221.777	-0.33
221.995	-0.03
222.214	0.1
222.432	-0.24
222.65	0.17
222.868	0.01
223.086	0.16
223.305	0.23
223.523	-0.06
223.741	0.32
223.959	0.05
224.177	-0.3
224.395	-0.15
224.613	0.1
224.831	0.15
225.049	-0.25
225.267	-0.12
225.485	0.06
225.703	-0.16
225.921	0.01
226.139	-0.08
226.357	0.11
226.575	-0
226.793	-0.16
227.011	0.37
227.229	0.02
227.447	0.2
227.665	-0.21
227.883	-0.4
228.1	-0.04
228.318	-0.01
228.536	-0.34
228.754	-0.25
228.972	0.02
229.189	0.09
229.407	-0.04
229.625	-0.09
229.843	0.21
230.06	0.05
230.278	-0.03
230.496	0.04
230.713	0.16
230.931	0.25
231.149	-0.11
231.366	-0.25
231.584	0.02
231.801	0.44
232.019	-0.05
232.236	-0.23
232.454	-0.18
232.671	0.04
232.889	-0.1
233.106	-0.14
233.324	0.12
233.541	-0.03
233.759	-0.02
233.976	-0.2
234.194	0.02
234.411	0.01
234.628	-0.25
234.846	0.02
235.063	0.01
235.28	-0.03
235.498	-0.12
235.715	-0.17
235.932	0.15
236.149	-0.01
236.367	-0.12
236.584	0.06
236.801	-0.15
237.018	0.07
237.236	0.01
237.453	-0.16
237.67	0.09
237.887	0
238.104	-0.13
238.321	-0.19
238.538	-0.14
238.755	0.12
238.973	-0.2
239.19	-0.03
239.407	0.05
239.624	-0.08
239.841	-0.18
240.058	-0.15
240.275	0.1
240.492	0.03
240.709	-0.07
240.925	-0.07
241.142	-0.07
241.359	-0.15
241.576	-0.1
241.793	-0.04
242.01	0.02
242.227	0.14
242.444	0.04
242.66	0.1
242.877	0.08
243.094	-0.07
243.311	0.02
243.527	-0.05
243.744	-0.02
243.961	-0.02
244.178	-0.12
244.394	-0.01
244.611	0.06
244.828	0.14
245.044	-0.17
245.261	-0.09
245.477	0.05
245.694	0.03
245.911	-0.09
246.127	-0.04
246.344	0.17
246.56	0.09
246.777	-0.07
246.993	-0.02
247.21	0.03
247.426	0.04
247.643	-0.07
247.859	-0.15
248.076	-0.09
248.292	0.17
248.508	-0.07
248.725	0.06
248.941	0.04
249.157	0.15
249.374	-0.1
249.59	-0.11
249.806	0.02
250.023	0.03
250.239	-0.14
250.455	-0.16
250.671	-0.07
250.888	0.07
251.104	0.02
251.32	-0.01
251.536	-0.08
251.752	-0.07
251.969	-0.06
252.185	-0.05
252.401	0.22
252.617	-0.06
252.833	-0.04
253.049	-0.01
253.265	0
253.481	0.03
253.697	-0.05
253.913	-0.13
254.129	0.02
254.345	0.01
254.561	-0.06
254.777	-0.01
254.993	0.05
255.209	0.04
255.425	-0.04
255.641	-0.05
255.857	0.06
256.073	-0.02
256.288	-0.1
256.504	-0.04
256.72	0.05
256.936	0.1
257.152	-0.06
257.367	-0.05
257.583	0
257.799	0.07
258.015	0.01
258.23	-0.07
258.446	0.1
258.662	-0
258.877	-0.1
259.093	-0.09
259.309	0.08
259.524	0.04
259.74	-0.07
259.955	-0.09
260.171	-0.01
260.387	-0.05
260.602	0.03
260.818	0
261.033	-0.09
261.249	0.01
261.464	-0.07
261.68	-0.1
261.895	0.02
262.11	0.01
262.326	-0.05
262.541	-0.13
262.757	0.07
262.972	0.07
263.187	-0.01
263.403	-0.01
263.618	0.11
263.833	0.01
264.049	-0.14
264.264	-0.04
264.479	0.11
264.694	0.08
264.91	-0.08
265.125	-0.01
265.34	0.05
265.555	0.18
265.77	-0.02
265.986	-0.11
266.201	0.03
266.416	0.15
266.631	-0.02
266.846	0.01
267.061	-0.01
267.276	0.02
267.491	-0.12
267.706	0.06
267.921	0.04
268.136	0.02
268.351	0
268.566	-0.14
268.781	0.08
268.996	0.09
269.211	-0.05
269.426	-0.08
269.641	-0.02
269.856	0.03
270.071	-0.08
270.285	-0.05
270.5	0.05
270.715	0.07
270.93	-0.01
271.145	0.01
271.359	0.05
271.574	-0.05
271.789	-0.02
272.004	-0.05
272.218	-0.01
272.433	0.05
272.648	-0.05
272.862	0.02
273.077	-0.04
273.292	0.03
273.506	-0.07
273.721	-0.01
273.936	0.07
274.15	0.08
274.365	-0.03
274.579	0.08
274.794	-0.04
275.008	0.11
275.223	-0.11
275.437	-0.03
275.652	0.06
275.866	0.04
276.081	-0
276.295	0.03
276.509	0.03
276.724	0.01
276.938	0.02
277.153	-0.01
277.367	0.07
277.581	-0.06
277.796	-0.03
278.01	-0.08
278.224	0.05
278.438	0.16
278.653	-0.06
278.867	-0.06
279.081	0.07
279.295	0
279.51	0.04
279.724	-0.15
279.938	0.06
280.152	0.05
280.366	-0.13
280.58	0.02
280.794	0.13
281.008	0.04
281.222	0.06
281.437	0.06
281.651	0.02
281.865	0.07
282.079	-0.01
282.293	-0.12
282.507	-0.06
282.721	-0.01
282.935	-0
283.148	-0.12
283.362	-0.06
283.576	-0.08
283.79	0
284.004	-0.1
284.218	0.06
284.432	-0.06
284.646	-0.06
284.859	-0.08
285.073	-0.04
285.287	0
285.501	0.03
285.714	0.01
285.928	-0.01
286.142	0.05
286.356	-0.03
286.569	0
286.783	0.1
286.997	0.05
287.21	0.03
287.424	0.01
287.637	0
287.851	-0.07
288.065	0
288.278	-0.07
288.492	-0.04
288.705	-0.04
288.919	0
289.132	-0.09
289.346	0.05
289.559	-0.07
289.773	-0.04
289.986	-0.03
290.2	0
290.413	0.05
290.626	-0.02
290.84	0
291.053	0.01
291.267	0.13
291.48	-0.01
291.693	-0
291.906	-0.01
292.12	-0.02
292.333	-0.07
292.546	-0.09
292.76	0.12
292.973	0.02
293.186	0.02
293.399	-0.03
293.612	0.05
293.826	-0
294.039	-0.03
294.252	-0.02
294.465	0
294.678	0.02
294.891	0.01
295.104	-0.05
295.317	-0.05
295.53	0.03
295.743	-0.02
295.956	-0.01
296.169	0.04
296.382	0.06
296.595	-0.03
296.808	-0.05
297.021	0.07
297.234	0.06
297.447	-0.04
297.66	0.03
297.873	0.07
298.086	0.05
298.299	-0.05
298.511	-0.07
298.724	-0.01
298.937	-0.05
299.15	-0.04
299.363	-0.05
299.575	-0.05
299.788	0.02
300.001	-0.03
300.213	-0.07
300.426	-0
300.639	-0.04
300.852	-0.03
301.064	0.01
301.277	0.1
301.489	0.07
301.702	0.03
301.915	0
302.127	0.01
302.34	0.01
302.552	0.01
302.765	0.01
302.977	0.01
303.19	0
303.402	-0.03
303.615	-0.03
303.827	-0.05
304.04	-0.02
304.252	0.01
304.464	-0.04
304.677	0.1
304.889	0.08
305.102	-0.04
305.314	-0.08
305.526	0.05
305.739	0.02
305.951	-0.05
306.163	-0.01
306.375	0.09
306.588	-0.04
306.8	-0.04
307.012	-0.05
307.224	0.01
307.436	0.05
307.649	-0.12
307.861	0
308.073	0.05
308.285	-0.07
308.497	-0.06
308.709	-0.04
308.921	-0
309.133	0.06
309.346	-0.03
309.558	-0.02
309.77	0.03
309.982	0.07
310.194	0.03
310.406	-0.04
310.617	0.08
310.829	0.01
311.041	0.04
311.253	-0.04
311.465	0.03
311.677	0
311.889	-0.01
312.101	-0.03
312.313	0.02
312.524	-0.02
312.736	-0.05
312.948	-0.02
313.16	0.1
313.372	0.03
313.583	-0.02
313.795	-0
314.007	-0.03
314.218	0.04
314.43	-0.02
314.642	-0.05
314.853	-0.06
315.065	-0
315.277	-0.05
315.488	0.02
315.7	0.03
315.912	0.04
316.123	0.01
316.335	0.01
316.546	0.1
316.758	0.01
316.969	-0.05
317.181	-0.03
317.392	-0.03
317.604	0.06
317.815	-0.03
318.026	-0.03
318.238	-0.03
318.449	0.07
318.661	-0.07
318.872	-0.04
319.083	-0.04
319.295	0.04
319.506	-0.05
319.717	0.01
319.929	0.03
320.14	0
320.351	0.01
320.562	-0.06
320.774	0.07
320.985	-0
321.196	-0.06
321.407	-0.06
321.618	0.05
321.829	0.01
322.041	0.02
322.252	-0.01
322.463	0.02
322.674	0.02
322.885	-0.07
323.096	-0.07
323.307	-0
323.518	-0
323.729	-0.06
323.94	-0.01
324.151	-0.04
324.362	0.02
324.573	0
324.784	-0.03
324.995	0.09
325.206	-0.02
325.417	-0.01
325.628	-0.01
325.838	0
326.049	0.02
326.26	0.01
326.471	-0.02
326.682	0.03
326.892	0.02
327.103	-0.07
327.314	-0.03
327.525	0.08
327.735	0.05
327.946	-0.05
328.157	-0.03
328.368	0.05
328.578	-0.02
328.789	-0.02
328.999	-0.02
329.21	0.02
329.421	0.01
329.631	-0.05
329.842	-0.01
330.052	0.03
330.263	0.06
330.473	0.02
330.684	-0
330.894	-0.04
331.105	-0.02
331.315	0.01
331.526	-0.03
331.736	0.07
331.947	0.02
332.157	0.04
332.367	-0.04
332.578	0.02
332.788	0.07
332.999	0.02
333.209	0
333.419	-0.04
333.629	0.03
333.84	-0.01
334.05	-0
334.26	0.05
334.47	0.06
334.681	0.04
334.891	-0.03
335.101	0.05
335.311	0.1
335.521	-0.01
335.732	-0.03
335.942	0.01
336.152	0
336.362	0.04
336.572	-0
336.782	0.04
336.992	-0
337.202	-0.05
337.412	-0.03
337.622	0.02
337.832	0
338.042	-0.01
338.252	-0.04
338.462	0.01
338.672	-0.02
338.882	-0.03
339.092	-0
339.302	0.08
339.511	0.03
339.721	0.02
339.931	-0.07
340.141	0.03
340.351	0.06
340.561	0.02
340.77	0.01
340.98	0.03
341.19	-0.01
341.4	-0.04
341.609	-0.05
341.819	-0.01
342.029	-0.06
342.238	0.04
342.448	-0.02
342.658	0.05
342.867	-0.01
343.077	0.05
343.286	0.02
343.496	-0
343.706	0.11
343.915	-0.06
344.125	-0.02
344.334	0.02
344.544	-0.06
344.753	-0.03
344.963	-0.01
345.172	-0.03
345.381	-0.01
345.591	-0.08
345.8	0
346.01	0.05
346.219	0.04
346.428	-0.11
346.638	0.02
346.847	0.02
347.056	0.07
347.266	-0.06
347.475	-0.01
347.684	-0.01
347.893	0.02
348.103	-0.01
348.312	-0
348.521	0
348.73	0.05
348.94	-0.04
349.149	-0.03
349.358	-0.02
349.567	-0.01
349.776	-0.06
349.985	-0.03
350.194	0.02
350.403	0.04
350.612	-0.1
350.821	-0.01
351.03	-0.01
351.239	-0.03
351.448	-0.02
351.657	-0.01
351.866	0.05
352.075	0.04
352.284	0.07
352.493	-0.05
352.702	0.07
352.911	0
353.12	-0.02
353.329	-0.03
353.538	0.04
353.746	-0.01
353.955	-0.02
354.164	0.03
354.373	0.01
354.582	0.04
354.79	0.01
354.999	0.06
355.208	-0.01
355.416	0.11
355.625	-0.04
355.834	-0.05
356.042	0.01
356.251	-0.01
356.46	-0.02
356.668	0.02
356.877	0.07
357.085	0.03
357.294	-0.09
357.503	-0.01
357.711	-0.03
357.92	0.11
358.128	0.01
358.337	-0.02
358.545	-0
358.754	0.03
358.962	0.01
359.17	-0.02
359.379	0
359.587	0.03
359.796	-0.01
360.004	0.05
360.212	0.03
360.421	0.03
360.629	-0.02
360.837	-0.02
361.046	0
361.254	0.09
361.462	-0.01
361.67	-0.03
361.879	0.05
362.087	0.08
362.295	-0
362.503	-0.02
362.711	-0.06
362.92	-0.02
363.128	-0.02
363.336	-0.04
363.544	-0.06
363.752	0.01
363.96	-0.06
364.168	-0.01
364.376	0
364.584	0.03
364.792	0.02
365	0.02
365.208	-0
365.416	0.03
365.624	0.07
365.832	-0.03
366.04	0.06
366.248	0
366.456	0.02
366.664	0.02
366.872	-0.03
367.079	0.03
367.287	-0.02
367.495	-0
367.703	-0.02
367.911	-0
368.118	0.02
368.326	0
368.534	-0.05
368.742	0.04
368.949	-0.05
369.157	-0.05
369.365	0.02
369.572	-0.01
369.78	-0.04
369.988	0.02
370.195	0.01
370.403	0.03
370.61	-0.01
370.818	0
371.026	0.05
371.233	-0.03
371.441	-0.03
371.648	-0.06
371.856	0.03
372.063	0.02
372.271	-0.02
372.478	-0.05
372.685	-0.08
372.893	0.07
373.1	-0.01
373.308	-0.05
373.515	0.07
373.722	0.01
373.93	-0
374.137	0.02
374.344	0.07
374.552	0.07
374.759	0.02
374.966	-0.02
375.173	0.02
375.381	0.05
375.588	0
375.795	-0.1
376.002	0
376.209	-0.03
376.417	-0.01
376.624	-0.01
376.831	0.02
377.038	0.02
377.245	-0.04
377.452	-0.03
377.659	-0.01
377.866	-0.05
378.073	-0.01
378.28	-0.02
378.487	0.05
378.694	0.04
378.901	-0.02
379.108	-0.04
379.315	0.05
379.522	0.06
379.729	0.04
379.936	0.01
380.143	0.01
380.35	0.03
380.557	-0.02
380.763	-0.01
380.97	-0.01
381.177	0
381.384	-0.01
381.591	-0.06
381.797	0.04
382.004	0.07
382.211	0.02
382.418	0.03
382.624	0.06
382.831	0.08
383.038	-0.05
383.244	0.03
383.451	-0.04
383.658	0.03
383.864	-0.04
384.071	-0.04
384.277	0.04
384.484	-0.02
384.69	0.04
384.897	-0.04
385.103	-0.01
385.31	-0.03
385.516	-0.02
385.723	-0.06
385.929	-0.01
386.136	-0.08
386.342	-0.01
386.549	-0.02
386.755	0.04
386.961	-0.01
387.168	-0.03
387.374	-0.01
387.58	0.03
387.787	0
387.993	0.03
388.199	0.03
388.406	-0.03
388.612	-0.02
388.818	-0.02
389.024	-0.03
389.231	-0
389.437	0.07
389.643	-0
389.849	-0.02
390.055	-0.03
390.261	0.02
390.467	-0.02
390.674	-0.04
390.88	0.04
391.086	0.01
391.292	-0.02
391.498	0
391.704	-0.01
391.91	-0.01
392.116	-0.01
392.322	-0.09
392.528	0.04
392.734	-0.03
392.94	-0.01
393.146	-0.05
393.352	-0.01
393.557	-0.04
393.763	-0.03
393.969	-0.02
394.175	-0.01
394.381	-0.01
394.587	-0.07
394.792	-0
394.998	0.04
395.204	0.03
395.41	-0.07
395.615	0.01
395.821	0.04
396.027	-0.01
396.233	-0.03
396.438	0
396.644	0.11
396.85	0
397.055	-0.01
397.261	-0.03
397.466	0.06
397.672	0.01
397.878	-0
398.083	0.05
398.289	-0.09
398.494	0.06
398.7	0.02
398.905	-0.06
399.111	0.02
399.316	-0.05
399.522	0
399.727	-0.02
399.932	-0.02
400.138	-0.03
400.343	0.03
400.549	0
400.754	-0.01
400.959	0.04
401.165	-0.01
401.37	0.03
401.575	0.11
401.78	-0.03
401.986	-0.05
402.191	-0.02
402.396	0.01
402.601	0.05
402.807	0.06
403.012	0
403.217	0.06
403.422	-0.03
403.627	-0.03
403.832	-0.07
404.037	0.04
404.243	0.02
404.448	-0.06
404.653	0.02
404.858	0.01
405.063	0.07
405.268	-0.03
405.473	-0.05
405.678	-0.06
405.883	0.14
406.088	0.02
406.293	-0.04
406.498	-0.08
406.703	-0
406.907	-0.02
407.112	-0.05
407.317	0.04
407.522	-0.03
407.727	0.01
407.932	-0.01
408.136	0.07
408.341	0.01
408.546	-0.03
408.751	0.03
408.956	0.01
409.16	0.06
409.365	-0.01
409.57	-0.02
409.774	-0.02
409.979	0.05
410.184	0.02
410.388	-0.03
410.593	0.1
410.798	0.02
411.002	-0.02
411.207	0.01
411.411	-0.01
411.616	-0.08
411.82	-0.02
412.025	0.03
412.229	-0.03
412.434	0.06
412.638	0
412.843	-0.04
413.047	-0.01
413.252	-0.03
413.456	0
413.66	0.08
413.865	-0.04
414.069	0.06
414.273	-0.02
414.478	-0.03
414.682	-0.02
414.886	-0.05
415.091	-0.04
415.295	-0.13
415.499	-0
415.703	-0
415.908	0.06
416.112	-0.07
416.316	0.08
416.52	0.01
416.724	-0.1
416.929	-0.05
417.133	0.11
417.337	-0.04
417.541	-0.01
417.745	-0.04
417.949	0.01
418.153	0.01
418.357	-0.07
418.561	0.04
418.765	0.04
418.969	0.1
419.173	0.04
419.377	-0.04
419.581	0.16
419.785	-0.01
419.989	-0.06
420.193	0.04
420.397	0.02
420.601	0.11
420.804	0.06
421.008	0.01
421.212	0.03
421.416	0.11
421.62	-0.02
421.823	-0.02
422.027	0.12
422.231	0.05
422.435	-0.01
422.638	0.04
422.842	-0.02
423.046	-0.06
423.249	0.03
423.453	0.04
423.657	0.03
423.86	0.04
424.064	0
424.268	0.13
424.471	0.01
424.675	0.08
424.878	0.1
425.082	0.03
425.285	0.1
425.489	0.06
425.692	0.07
425.896	0.02
426.099	0.04
426.303	-0.04
426.506	-0.01
426.71	0.05
426.913	0.09
427.116	0.12
427.32	0.07
427.523	0.06
427.726	0.1
427.93	0.02
428.133	0.07
428.336	-0.02
428.54	-0.01
428.743	0.02
428.946	0.07
429.149	0.06
429.353	0.08
429.556	0.01
429.759	0.09
429.962	0.06
430.165	0.09
430.368	0.05
430.571	0.01
430.775	0.07
430.978	0.05
431.181	0.08
431.384	0.1
431.587	0.06
431.79	0.12
431.993	0.03
432.196	0.06
432.399	0.09
432.602	0.17
432.805	0.07
433.008	0.1
433.211	0.05
433.414	0.13
433.616	0.16
433.819	0.13
434.022	0.03
434.225	0.2
434.428	0.15
434.631	0.21
434.833	0.12
435.036	0.15
435.239	0.17
435.442	0.13
435.645	0.1
435.847	0.09
436.05	0.2
436.253	0.12
436.455	0.07
436.658	0.18
436.861	0.27
437.063	0.09
437.266	0.1
437.468	0.16
437.671	0.28
437.874	0.15
438.076	0.07
438.279	0.1
438.481	0.18
438.684	0.14
438.886	0.21
439.089	0.08
439.291	0.24
439.494	0.24
439.696	0.15
439.899	0.21
440.101	0.19
440.303	0.14
440.506	0.27
440.708	0.24
440.91	0.31
441.113	0.22
441.315	0.28
441.517	0.25
441.72	0.29
441.922	0.26
442.124	0.31
442.326	0.33
442.529	0.45
442.731	0.28
442.933	0.41
443.135	0.32
443.337	0.31
443.539	0.31
443.742	0.27
443.944	0.4
444.146	0.31
444.348	0.32
444.55	0.34
444.752	0.36
444.954	0.28
445.156	0.41
445.358	0.39
445.56	0.49
445.762	0.38
445.964	0.46
446.166	0.38
446.368	0.46
446.57	0.48
446.772	0.48
446.974	0.39
447.175	0.42
447.377	0.43
447.579	0.39
447.781	0.37
447.983	0.49
448.184	0.49
448.386	0.48
448.588	0.36
448.79	0.45
448.991	0.42
449.193	0.43
449.395	0.48
449.597	0.5
449.798	0.47
450	0.47
450.202	0.4
450.403	0.45
450.605	0.46
450.806	0.45
451.008	0.37
451.21	0.36
451.411	0.42
451.613	0.38
451.814	0.36
452.016	0.41
452.217	0.39
452.419	0.42
452.62	0.29
452.821	0.39
453.023	0.44
453.224	0.37
453.426	0.25
453.627	0.26
453.828	0.3
454.03	0.26
454.231	0.35
454.432	0.22
454.634	0.38
454.835	0.23
455.036	0.2
455.238	0.32
455.439	0.32
455.64	0.15
455.841	0.16
456.042	0.26
456.244	0.25
456.445	0.17
456.646	0.14
456.847	0.18
457.048	0.25
457.249	0.23
457.45	0.44
457.651	0.1
457.852	0.19
458.054	0.16
458.255	0.14
458.456	0.17
458.657	0.18
458.858	0.12
459.058	0.16
459.259	0.19
459.46	0.13
459.661	0.08
459.862	0.25
460.063	0.14
460.264	0.24
460.465	0.08
460.666	0.24
460.866	0.13
461.067	0.15
461.268	0.13
461.469	0.14
461.67	0.15
461.87	0.07
462.071	0.07
462.272	0.07
462.473	0.12
462.673	0.16
462.874	0.05
463.075	0.1
463.275	0.13
463.476	0.16
463.676	0.11
463.877	0.08
464.078	0.06
464.278	0.17
464.479	0.06
464.679	0.06
464.88	0.13
465.08	0.17
465.281	0.07
465.481	0.05
465.682	0.11
465.882	0.08
466.083	0.1
466.283	0.08
466.483	0.03
466.684	0.05
466.884	0.05
467.085	0.04
467.285	0.13
467.485	0.01
467.686	0
467.886	0.02
468.086	0.09
468.286	0.07
468.487	0.06
468.687	0.03
468.887	0.06
469.087	0.1
469.287	0.02
469.488	0.03
469.688	0.08
469.888	0.1
470.088	0.08
470.288	0.12
470.488	0.09
470.688	0
470.888	0.01
471.088	-0
471.288	0.1
471.488	0.1
471.688	0.1
471.888	0.02
472.088	0.11
472.288	0.06
472.488	0.02
472.688	0.02
472.888	0.04
473.088	0.05
473.288	0.04
473.488	0
473.688	0.1
473.887	0.07
474.087	-0
474.287	0.03
474.487	-0.01
474.687	0.07
474.886	0.02
475.086	-0.01
475.286	0.07
475.486	0.05
475.685	0
475.885	-0.01
476.085	0.04
476.284	0.05
476.484	-0.02
476.684	0.04
476.883	0.07
477.083	0.06
477.282	0.01
477.482	0.07
477.681	0.02
477.881	0.04
478.08	-0.01
478.28	0.01
478.479	0.04
478.679	0.1
478.878	-0.02
479.078	-0.01
479.277	0.03
479.477	0.02
479.676	0.05
479.875	0.02
480.075	-0.06
480.274	0.05
480.473	0.03
480.673	-0.03
480.872	0.06
481.071	0.04
481.271	0.03
481.47	0.01
481.669	-0.02
481.868	-0.02
482.067	-0.01
482.267	-0.01
482.466	-0.02
482.665	-0.04
482.864	-0.01
483.063	-0.01
483.262	0.02
483.461	0.06
483.661	0.03
483.86	-0.01
484.059	0.02
484.258	0.01
484.457	0.01
484.656	-0
484.855	0.04
485.054	-0.04
485.253	-0.04
485.452	-0.03
485.651	0.02
485.849	-0.01
486.048	-0.02
486.247	-0.03
486.446	0.01
486.645	-0.03
486.844	-0.02
487.043	0.02
487.241	0.01
487.44	-0.02
487.639	0.01
487.838	-0
488.037	0.01
488.235	0.05
488.434	0.01
488.633	-0.01
488.831	0.02
489.03	0.02
489.229	0.03
489.427	-0.01
489.626	0.06
489.825	0.05
490.023	0
490.222	0.01
490.42	-0.01
490.619	0.04
490.817	0.02
491.016	-0.02
491.214	0.01
491.413	-0.02
491.611	-0.01
491.81	-0
492.008	0.05
492.207	0.04
492.405	-0
492.604	-0.03
492.802	-0
493	-0
493.199	-0.02
493.397	0.01
493.595	-0
493.794	-0.03
493.992	0.03
494.19	-0.01
494.388	0.02
494.587	-0.03
494.785	0.02
494.983	-0.03
495.181	0.01
495.379	0.01
495.578	-0.01
495.776	0.01
495.974	0.02
496.172	-0.01
496.37	-0.02
496.568	-0.03
496.766	-0.02
496.964	0.02
497.162	-0.01
497.36	-0.04
497.558	0.01
497.756	0.02
497.954	-0
498.152	-0.03
498.35	0
498.548	-0.02
498.746	0.01
498.944	-0.04
499.142	-0
499.34	-0.03
499.538	0
499.736	-0.03
499.933	0.04
500.131	0.05
500.329	-0
500.527	0.01
500.725	0.04
500.922	0
501.12	0.03
501.318	-0.01
501.516	-0.03
501.713	0.03
501.911	-0.02
502.109	-0.04
502.306	0.03
502.504	0.01
502.701	-0.03
502.899	-0.01
503.097	0.06
503.294	0.01
503.492	-0.02
503.689	0.01
503.887	0.02
504.084	0.03
504.282	0.02
504.479	-0.02
504.677	0.01
504.874	-0.03
505.072	0
505.269	-0.01
505.466	0.02
505.664	0.02
505.861	-0.02
506.059	-0.02
506.256	-0.01
506.453	-0.01
506.651	0.03
506.848	0.02
507.045	0
507.242	0.02
507.44	-0.02
507.637	-0
507.834	0
508.031	0.01
508.229	-0.04
508.426	-0.01
508.623	0.02
508.82	-0.02
509.017	-0.07
509.214	-0
509.411	0.01
509.608	-0.04
509.805	-0
510.003	-0.02
510.2	-0
510.397	0.02
510.594	-0.03
510.791	-0.03
510.988	0.01
511.184	0.03
511.381	0.01
511.578	-0.02
511.775	0.02
511.972	-0.02
512.169	-0
512.366	0.01
512.563	0.02
512.76	-0.03
512.956	-0.01
513.153	-0
513.35	0.01
513.547	-0.03
513.744	-0.02
513.94	-0.04
514.137	0.04
514.334	0
514.53	-0.01
514.727	0.01
514.924	0.05
515.12	-0.03
515.317	-0.04
515.514	-0.04
515.71	-0.04
515.907	-0.03
516.103	0.01
516.3	0.01
516.497	0.02
516.693	0.03
516.89	-0.01
517.086	-0.02
517.283	0.03
517.479	0.01
517.676	0.01
517.872	-0.02
518.068	-0.02
518.265	-0
518.461	-0.01
518.658	-0.03
518.854	0.01
519.05	-0.02
519.247	-0.01
519.443	0.01
519.639	0
519.836	0.01
520.032	-0.03
520.228	0.01
520.424	0.03
520.621	0.02
520.817	0
521.013	-0
521.209	0.02
521.405	0.03
521.601	-0.01
521.798	-0
521.994	0.02
522.19	-0.02
522.386	-0.03
522.582	-0.01
522.778	0
522.974	-0.03
523.17	0.01
523.366	0.03
523.562	0.01
523.758	-0.01
523.954	-0.03
524.15	-0.02
524.346	0.01
524.542	-0
524.738	-0.03
524.934	-0.02
525.129	-0.08
525.325	-0.01
525.521	-0
525.717	0.02
525.913	-0.02
526.109	0.01
526.304	-0.01
526.5	0
526.696	0.02
526.892	0.01
527.087	0.02
527.283	-0.02
527.479	0.02
527.674	-0.01
527.87	-0.01
528.066	-0.03
528.261	0.01
528.457	-0.01
528.653	-0.02
528.848	-0.01
529.044	-0.01
529.239	0.01
529.435	0.03
529.63	-0.01
529.826	0.06
530.021	-0
530.217	0.01
530.412	-0.02
530.608	-0.02
530.803	-0
530.999	-0.01
531.194	-0.06
531.389	-0
531.585	-0.05
531.78	0.01
531.975	0
532.171	0.04
532.366	0.01
532.561	-0.01
532.757	-0.01
532.952	-0.01
533.147	0.02
533.342	-0.01
533.538	-0.02
533.733	0.02
533.928	0.01
534.123	-0.01
534.318	-0.02
534.513	0.01
534.709	0
534.904	-0.02
535.099	-0.01
535.294	0.01
535.489	0.01
535.684	0.01
535.879	-0.04
536.074	-0.01
536.269	-0.03
536.464	-0.02
536.659	-0.01
536.854	-0.01
537.049	0.01
537.244	0.01
537.439	0
537.634	0.04
537.828	-0
538.023	-0.01
538.218	-0.04
538.413	0
538.608	-0.04
538.803	0.03
538.997	-0.03
539.192	0.03
539.387	0.01
539.582	0
539.776	-0.01
539.971	-0.01
540.166	-0
540.36	-0.02
540.555	-0.01
540.75	-0.03
540.944	-0.01
541.139	-0.03
541.334	-0
541.528	0.02
541.723	0.02
541.917	-0.01
542.112	-0.05
542.306	-0.02
542.501	-0.01
542.695	-0
542.89	-0.02
543.084	-0.01
543.279	-0
543.473	-0.03
543.668	0.02
543.862	-0.01
544.056	-0.01
544.251	-0.01
544.445	0
544.64	0
544.834	-0.02
545.028	-0.01
545.222	0.03
545.417	0
545.611	0.02
545.805	0
546	-0.02
546.194	-0
546.388	-0.01
546.582	0.01
546.776	0.01
546.97	0
547.165	0.04
547.359	0.02
547.553	-0.01
547.747	-0.01
547.941	0.02
548.135	-0.01
548.329	0.03
548.523	0.02
548.717	-0.01
548.911	-0
549.105	0.01
549.299	-0.01
549.493	0.02
549.687	-0
549.881	-0
550.075	0.01
550.269	-0.04
550.463	0.02
550.657	-0.02
550.85	-0.01
551.044	-0.02
551.238	-0.01
551.432	-0.04
551.626	-0.02
551.82	0.02
552.013	-0.02
552.207	0.01
552.401	0.03
552.594	-0
552.788	0.01
552.982	-0
553.176	-0.01
553.369	0.02
553.563	0
553.756	-0.06
553.95	-0.04
554.144	-0.02
554.337	0.02
554.531	-0
554.724	0.01
554.918	-0.01
555.111	-0
555.305	-0.03
555.498	0.04
555.692	0.01
555.885	-0.02
556.079	0.01
556.272	-0.01
556.466	0.04
556.659	0.02
556.852	-0.01
557.046	-0.01
557.239	0.03
557.432	-0.04
557.626	-0.02
557.819	-0
558.012	0.01
558.206	0.01
558.399	-0
558.592	0.01
558.785	-0.01
558.979	0
559.172	0.01
559.365	0.01
559.558	0.01
559.751	-0
559.944	-0.02
560.138	-0.02
560.331	-0.02
560.524	-0.03
560.717	-0.01
560.91	0
561.103	0.02
561.296	0.01
561.489	-0
561.682	0.02
561.875	0.03
562.068	0.01
562.261	-0.02
562.454	0.03
562.647	0.02
562.84	0.03
563.032	-0.01
563.225	0.01
563.418	-0.03
563.611	-0.02
563.804	-0
563.997	-0.03
564.19	-0.05
564.382	-0.01
564.575	-0.01
564.768	-0.03
564.961	-0
565.153	-0.01
565.346	-0
565.539	0.01
565.731	0.01
565.924	0.02
566.117	0.01
566.309	0
566.502	-0.02
566.695	-0.01
566.887	0.01
567.08	-0.04
567.272	-0.01
567.465	-0.03
567.657	0
567.85	0
568.042	0.02
568.235	0.02
568.427	0.01
568.62	0.02
568.812	0.02
569.005	0.02
569.197	-0.03
569.389	-0
569.582	-0.03
569.774	-0
569.966	-0.03
570.159	-0.02
570.351	0.01
570.543	-0.01
570.736	-0.04
570.928	-0.03
571.12	0.01
571.312	-0.04
571.505	-0.05
571.697	0.05
571.889	-0.05
572.081	-0.01
572.273	-0.02
572.465	0.05
572.658	-0.01
572.85	0.01
573.042	-0.03
573.234	-0
573.426	0.03
573.618	-0.01
573.81	-0.02
574.002	0.04
574.194	0.05
574.386	-0.05
574.578	-0.07
574.77	-0.04
574.962	-0.02
575.154	-0.05
575.346	-0.04
575.538	-0.01
575.729	-0.03
575.921	-0.01
576.113	-0.02
576.305	0.04
576.497	-0.01
576.689	-0.01
576.88	-0.03
577.072	0.02
577.264	-0.01
577.456	-0.02
577.647	-0.07
577.839	0.01
578.031	0.06
578.223	-0.05
578.414	-0.05
578.606	0.02
578.798	-0.02
578.989	-0.02
579.181	-0.03
579.372	-0.03
579.564	-0.02
579.755	0.02
579.947	0
580.139	0.03
580.33	-0.06
580.522	-0.03
580.713	-0.08
580.905	-0.02
581.096	0.01
581.287	0
581.479	0.01
581.67	0.02
581.862	0.02
582.053	-0
582.244	-0.03
582.436	-0.03
582.627	0
582.818	-0.03
583.01	-0.04
583.201	0.02
583.392	0.02
583.583	0.02
583.775	-0.03
583.966	-0.04
584.157	-0.03
584.348	-0.03
584.54	-0.05
584.731	0.02
584.922	-0.02
585.113	-0.02
585.304	0.01
585.495	0.05
585.686	0.01
585.877	-0.02
586.068	0
586.259	0.02
586.45	-0
586.641	-0.04
586.832	-0.07
587.023	0.02
587.214	0
587.405	-0.02
587.596	-0.03
587.787	0.02
587.978	0
588.169	-0.03
588.36	-0.04
588.551	0.02
588.742	-0.04
588.932	0.01
589.123	-0.01
589.314	0.01
589.505	0.02
589.696	0.01
589.886	-0.05
590.077	-0.02
590.268	-0.02
590.458	-0.06
590.649	-0.06
590.84	0.01
591.03	-0.04
591.221	-0.05
591.412	-0.05
591.602	0.03
591.793	0.04
591.984	-0.05
592.174	-0
592.365	0.06
592.555	-0.06
592.746	0.01
592.936	-0.01
593.127	0.02
593.317	0.03
593.508	-0.02
593.698	-0.03
593.889	-0.01
594.079	-0.03
594.269	-0.04
594.46	-0.02
594.65	-0.01
594.84	-0
595.031	-0.07
595.221	-0.03
595.411	-0.04
595.602	0.02
595.792	-0.02
595.982	-0.03
596.172	0.04
596.363	0.01
596.553	0.01
596.743	-0
596.933	-0.01
597.123	0.04
597.314	-0.04
597.504	-0.01
597.694	0.05
597.884	0.01
598.074	-0.01
598.264	-0.03
598.454	-0
598.644	-0.02
598.834	-0.01
599.024	-0.06
599.214	0
599.404	0.01
599.594	-0.02
599.784	-0.04
599.974	0.06
600.164	0
600.354	-0.03
600.544	-0.06
600.734	-0.02
600.924	0.05
601.114	-0.04
601.303	-0.02
601.493	-0.01
601.683	-0.02
601.873	0.02
602.063	-0.04
602.252	0.02
602.442	-0.07
602.632	-0.04
602.821	-0.04
603.011	0.03
603.201	-0.03
603.39	-0.05
603.58	-0.06
603.77	0.04
603.959	0.02
604.149	-0.01
604.339	-0.01
604.528	0.03
604.718	0.01
604.907	-0.02
605.097	-0.01
605.286	-0.06
605.476	-0
605.665	0.01
605.855	-0.01
606.044	0.04
606.234	0.03
606.423	-0.03
606.612	-0.05
606.802	0.02
606.991	0.02
607.181	-0
607.37	-0.04
607.559	0
607.749	-0.05
607.938	-0.01
608.127	-0.03
608.316	-0.03
608.506	0.03
608.695	-0.01
608.884	-0.04
609.073	-0
609.263	0.01
609.452	0.01
609.641	0.01
609.83	-0.02
610.019	-0.03
610.208	-0.05
610.397	-0.01
610.586	0.02
610.775	-0.03
610.965	-0
611.154	-0.03
611.343	-0.03
611.532	0.02
611.721	-0.04
611.91	-0.04
612.099	0.01
612.287	-0.03
612.476	-0.04
612.665	-0
612.854	-0
613.043	0.04
613.232	-0.01
613.421	-0.04
613.61	0.01
613.798	-0.03
613.987	0.03
614.176	-0.02
614.365	0.01
614.554	-0.01
614.742	0.02
614.931	-0.04
615.12	0.04
615.309	-0.03
615.497	-0.01
615.686	-0.07
615.875	-0.04
616.063	-0.03
616.252	-0.03
616.44	-0.04
616.629	-0.01
616.818	0.01
617.006	-0.01
617.195	-0
617.383	0.03
617.572	0
617.76	-0.02
617.949	0.01
618.137	0.01
618.326	0.02
618.514	-0.02
618.703	-0.04
618.891	0.07
619.079	-0.07
619.268	0
619.456	-0.04
619.644	0.06
619.833	-0.05
620.021	-0.03
620.209	-0.05
620.398	0.03
620.586	0.01
620.774	0.01
620.962	-0.03
621.151	0.07
621.339	-0.02
621.527	-0.06
621.715	-0.06
621.903	-0.04
622.092	-0.04
622.28	-0.01
622.468	0.01
622.656	-0.02
622.844	0
623.032	0.01
623.22	-0.07
623.408	0.04
623.596	0.02
623.784	0.02
623.972	-0.04
624.16	-0.03
624.348	0.08
624.536	-0.01
624.724	-0.03
624.912	0.03
625.1	0.04
625.288	-0.05
625.476	-0.01
625.664	0.02
625.851	-0.03
626.039	-0
626.227	0.02
626.415	-0.01
626.603	-0.1
626.79	0.01
626.978	-0.03
627.166	0.01
627.354	0
627.541	-0.02
627.729	-0.08
627.917	0.03
628.104	0.04
628.292	0
628.48	-0.01
628.667	0.01
628.855	-0
629.042	-0.01
629.23	-0.01
629.418	-0
629.605	-0.02
629.793	-0.05
629.98	-0.05
630.168	-0.01
630.355	-0.02
630.543	0.01
630.73	-0.01
630.917	0.03
631.105	0.03
631.292	-0.01
631.48	-0.03
631.667	0.06
631.854	-0.02
632.042	-0.02
632.229	-0.09
632.416	-0.01
632.604	-0.01
632.791	-0.05
632.978	0
633.165	0.02
633.353	0.06
633.54	0.05
633.727	-0.08
633.914	-0.02
634.101	-0.07
634.289	0.02
634.476	-0.07
634.663	-0.05
634.85	0.01
635.037	-0.1
635.224	-0.1
635.411	0.03
635.598	0.03
635.785	-0.01
635.972	-0.03
636.159	0.01
636.346	-0.05
636.533	-0.02
636.72	-0.04
636.907	-0
637.094	0.01
637.281	0.03
637.468	0.02
637.655	-0.02
637.842	-0.02
638.029	-0.05
638.215	-0.02
638.402	-0.01
638.589	-0.01
638.776	-0.01
638.963	-0.04
639.149	0.02
639.336	0.04
639.523	-0.01
639.709	-0
639.896	-0.04
640.083	0.05
640.27	-0.01
640.456	-0.06
640.643	0
640.829	-0.04
641.016	-0.02
641.203	-0.04
641.389	0.02
641.576	0.02
641.762	0.02
641.949	-0.04
642.135	0.02
642.322	0.01
642.508	-0.06
642.695	-0.02
642.881	-0.03
643.068	-0
643.254	-0.04
643.441	-0
643.627	-0
643.813	-0.04
644	0.04
644.186	-0.04
644.372	0.01
644.559	0.04
644.745	-0.05
644.931	-0.04
645.118	-0.03
645.304	0.02
645.49	-0.05
645.676	-0.01
645.862	-0
646.049	0.05
646.235	-0.03
646.421	0.02
646.607	0.05
646.793	-0.06
646.979	-0.07
647.165	-0.01
647.352	-0
647.538	0.04
647.724	0.01
647.91	-0.02
648.096	0.01
648.282	0.03
648.468	-0.03
648.654	-0.03
648.84	0.01
649.026	-0.01
649.212	-0.01
649.397	-0.03
649.583	-0.04
649.769	-0
649.955	-0.05
650.141	0.01
650.327	0.03
650.513	-0.05
650.698	0.02
650.884	-0.1
651.07	-0
651.256	0.04
651.442	-0.02
651.627	-0.01
651.813	0.03
651.999	0
652.184	0
652.37	-0.03
652.556	-0.04
652.741	0.06
652.927	-0.1
653.113	-0
653.298	-0.02
653.484	-0
653.669	-0.06
653.855	0
654.04	0.03
654.226	0.02
654.412	-0.03
654.597	-0.05
654.782	-0.01
654.968	0.03
655.153	-0.01
655.339	-0.04
655.524	-0.07
655.71	0.04
655.895	-0.07
656.08	-0.03
656.266	0.02
656.451	0.03
656.636	-0.07
656.822	0.02
657.007	-0.03
657.192	-0.01
657.378	-0.03
657.563	-0.01
657.748	-0.01
657.933	0
658.118	-0.04
658.304	-0.02
658.489	0.04
658.674	-0.01
658.859	-0.06
659.044	0.02
659.229	0.02
659.414	-0.03
659.599	-0
659.785	-0.05
659.97	-0.06
660.155	0.01
660.34	-0.02
660.525	-0.02
660.71	-0.05
660.895	0.04
661.08	-0.03
661.264	-0.05
661.449	0.03
661.634	0.05
661.819	0.02
662.004	0.02
662.189	-0.06
662.374	-0.04
662.559	-0.03
662.743	-0.08
662.928	-0.02
663.113	-0.03
663.298	-0.06
663.483	-0.03
663.667	-0
663.852	-0.08
664.037	0.03
664.221	-0.05
664.406	0.01
664.591	0.02
664.775	0
664.96	-0.05
665.145	-0.02
665.329	0.04
665.514	-0.03
665.698	-0.04
665.883	-0.1
666.068	0.06
666.252	0
666.437	-0.04
666.621	-0.01
666.806	0.02
666.99	-0.03
667.174	-0.03
667.359	0.08
667.543	-0.01
667.728	-0.04
667.912	-0.09
668.096	0.02
668.281	-0.05
668.465	0.01
668.649	-0.02
668.834	-0.06
669.018	-0.02
669.202	-0.04
669.387	-0.04
669.571	0.04
669.755	-0.03
669.939	-0.02
670.124	-0.03
670.308	0.03
670.492	0.01
670.676	-0.01
670.86	-0.01
671.044	-0.03
671.228	-0
671.413	-0.06
671.597	-0.03
671.781	-0.06
671.965	-0.02
672.149	-0.01
672.333	-0.02
672.517	-0.04
672.701	0.04
672.885	-0.01
673.069	-0.1
673.253	0.05
673.437	-0.03
673.621	-0.05
673.804	-0.02
673.988	-0
674.172	0
674.356	-0.05
674.54	-0.06
674.724	0.08
674.908	-0.05
675.091	0
675.275	-0.01
675.459	0.04
675.643	-0
675.826	0.01
676.01	0.01
676.194	-0.02
676.377	0.03
676.561	0.01
676.745	-0.01
676.928	-0.01
677.112	0.04
677.296	-0.08
677.479	-0.03
677.663	-0.02
677.846	0.02
678.03	-0.02
678.213	-0.05
678.397	0.01
678.58	-0.05
678.764	-0
678.947	-0.07
679.131	-0.06
679.314	-0.03
679.498	-0.05
679.681	-0.03
679.865	0.04
680.048	-0.01
680.231	-0.03
680.415	0
680.598	-0.02
680.781	-0.04
680.965	-0.03
681.148	0.01
681.331	-0.02
681.514	0.04
681.698	-0.02
681.881	0.02
682.064	0.03
682.247	0.02
682.43	-0.08
682.614	-0.01
682.797	0.07
682.98	0.05
683.163	-0.08
683.346	0.01
683.529	0.04
683.712	-0.07
683.895	0.01
684.078	-0.06
684.261	-0.04
684.444	0.02
684.627	-0
684.81	-0.04
684.993	-0.01
685.176	0.06
685.359	-0.06
685.542	-0.03
685.725	0.05
685.908	0.01
686.091	-0.02
686.274	0.01
686.457	-0.01
686.639	-0.02
686.822	0.01
687.005	-0.01
687.188	0.02
687.371	0.08
687.553	0.01
687.736	0.02
687.919	0.06
688.102	0.06
688.284	-0.07
688.467	0.01
688.65	-0.01
688.832	-0.02
689.015	-0.01
689.197	-0.06
689.38	0.11
689.563	0.08
689.745	-0.05
689.928	-0.03
690.11	0
690.293	-0.04
690.475	-0.06
690.658	-0.06
690.84	-0.01
691.023	0.01
691.205	-0.05
691.388	-0.02
691.57	0.05
691.752	0.08
691.935	-0.09
692.117	-0.07
692.3	0
692.482	-0.02
692.664	-0.01
692.847	-0
693.029	0.06
693.211	0.03
693.393	-0.05
693.576	-0.01
693.758	-0
693.94	-0.01
694.122	-0.01
694.304	-0.05
694.487	-0.01
694.669	0.1
694.851	-0.09
695.033	0.01
695.215	-0.04
695.397	-0.04
695.579	0.05
695.761	-0.02
695.943	-0.1
696.125	0.1
696.308	0.02
696.49	-0.15
696.671	0.14
696.853	0.02
697.035	0.19
697.217	0.04
697.399	0.05
697.581	-0.02
697.763	0.01
697.945	0.01
698.127	-0
698.309	0.08
698.491	-0.03
698.672	0.04
698.854	-0
699.036	0.07
699.218	-0.04
699.399	0.03
699.581	0.1
699.763	-0.02
699.945	-0.03
700.126	-0.06
700.308	-0.02
700.49	-0.04
700.671	-0.12
700.853	-0.08
701.035	-0.05
701.216	-0.02
701.398	-0.08
701.579	-0.06
701.761	0.03
701.943	-0.03
702.124	-0.06
702.306	-0.01
702.487	0.13
702.669	-0.02
702.85	-0.04
703.031	-0.1
703.213	0.14
703.394	0.04
703.576	-0.01
703.757	0.06
703.938	0.05
704.12	0.15
704.301	0
704.483	-0.05
704.664	-0.02
704.845	0.11
705.026	0.06
705.208	-0.01
705.389	0
705.57	-0.01
705.751	-0.03
705.933	0.02
706.114	0.12
706.295	-0.02
706.476	-0.1
706.657	0.03
706.838	0.01
707.02	0.03
707.201	-0.07
707.382	-0.07
707.563	0.03
707.744	0
707.925	-0.04
708.106	-0.08
708.287	0.01
708.468	0.15
708.649	0.01
708.83	0.06
709.011	-0.09
709.192	0.06
709.373	-0.08
709.554	-0.04
709.734	0.09
709.915	0.1
710.096	-0.02
710.277	-0.11
710.458	-0.03
710.639	-0.02
710.819	-0.12
711	-0.04
711.181	0.09
711.362	0.04
711.542	0.04
711.723	-0.01
711.904	0.06
712.085	0.05
712.265	-0.09
712.446	-0.02
712.627	-0.05
712.807	-0.05
712.988	-0.06
713.168	-0.08
713.349	0.08
713.53	-0.1
713.71	-0.09
713.891	-0.14
714.071	0.02
714.252	-0.1
714.432	-0.09
714.613	-0.14
714.793	-0.09
714.974	0.09
715.154	0.06
715.334	0.06
715.515	0.08
715.695	-0.11
715.876	0.06
716.056	-0.03
716.236	-0.07
716.417	-0.06
716.597	-0.04
716.777	0.12
716.957	-0.02
717.138	0.03
717.318	-0.07
717.498	-0.16
717.678	-0.07
717.859	-0.03
718.039	-0.11
718.219	0
718.399	0.1
718.579	-0.03
718.759	-0.07
718.939	-0.03
719.12	0.01
719.3	0.03
719.48	-0.14
719.66	-0.17
719.84	0.09
720.02	-0
720.2	-0.06
720.38	0.02
720.56	0.09
720.74	-0.06
720.92	0.01
721.1	0.08
721.279	-0.01
721.459	-0
721.639	-0.06
721.819	-0.01
721.999	-0.07
722.179	-0.02
722.359	-0.1
722.538	-0.04
722.718	-0.03
722.898	-0.03
723.078	0.03
723.257	-0.11
723.437	0.05
723.617	-0.02
723.797	-0.02
723.976	-0.04
724.156	0.04
724.336	0.1
724.515	0.14
724.695	-0.13
724.874	-0.05
725.054	0.09
725.234	-0.03
725.413	0.03
725.593	0.02
725.772	0
725.952	-0.01
726.131	-0.03
726.311	-0.03
726.49	0.02
726.67	-0.13
726.849	-0.08
727.028	0.05
727.208	-0
727.387	0.03
727.567	-0.06
727.746	0.01
727.925	-0.13
728.105	-0.07
728.284	0.03
728.463	-0.1
728.643	0.08
728.822	-0.06
729.001	-0.06
729.18	0.03
729.359	0.05
729.539	-0.03
729.718	-0.01
729.897	0.06
730.076	-0.1
730.255	-0.09
730.434	-0.03
730.614	0.03
730.793	0.13
730.972	-0.1
731.151	0.01
731.33	0.1
731.509	0.06
731.688	-0.04
731.867	-0.07
732.046	-0.2
732.225	0.12
732.404	-0.09
732.583	-0.16
732.762	-0.07
732.941	0.06
733.12	-0
733.298	-0.07
733.477	-0.04
733.656	-0.05
733.835	-0.13
734.014	0.1
734.193	0.05
734.371	0.09
734.55	0.02
734.729	-0.12
734.908	0.06
735.086	0
735.265	0.11
735.444	-0.09
735.623	-0.02
735.801	-0.04
735.98	0.01
736.159	-0.06
736.337	-0
736.516	0.04
736.694	0
736.873	-0.06
737.052	0.13
737.23	0.06
737.409	-0.03
737.587	0.22
737.766	-0.02
737.944	-0.09
738.123	-0.03
738.301	0.1
738.479	-0.05
738.658	0.03
738.836	-0.26
739.015	0.07
739.193	-0.03
739.371	-0.16
739.55	-0.05
739.728	-0.14
739.906	0.14
740.085	0.07
740.263	-0.03
740.441	-0.18
740.62	0.14
740.798	0.07
740.976	-0.16
741.154	-0.11
741.332	0.3
741.511	-0.02
741.689	0.11
741.867	-0.04
742.045	0.04
742.223	0.06
742.401	-0.04
742.579	-0.12
742.757	0.02
742.935	-0.18
743.114	-0.1
743.292	-0.06
743.47	-0.02
743.648	-0.04
743.826	0.04
744.004	-0.02
744.181	0.06
744.359	-0.08
744.537	0.01
744.715	-0.03
744.893	-0.07
745.071	-0.06
745.249	-0.07
745.427	-0.1
745.605	0.12
745.782	0.03
745.96	0.01
746.138	0.04
746.316	0.08
746.493	-0.04
746.671	-0.04
746.849	-0.06
747.027	0.23
747.204	-0.1
747.382	0.01
747.56	-0.04
747.737	-0.04
747.915	-0.09
748.093	-0.09
748.27	-0.08
748.448	-0.07
748.625	-0.14
748.803	-0.1
748.98	-0.05
749.158	-0.01
749.335	0.13
749.513	-0.09
749.69	0.01
749.868	-0.1
750.045	0.13
750.223	-0.07
750.4	-0.24
750.578	0.2
750.755	-0.03
750.932	-0.11
751.11	0.13
751.287	-0.23
751.464	0.17
751.642	-0.04
751.819	0.07
751.996	0.11
752.173	-0.15
752.351	-0.12
752.528	-0.09
752.705	-0.13
752.882	-0.04
753.06	0.01
753.237	0.12
753.414	0.22
753.591	0.14
753.768	0
753.945	-0.04
754.122	0.04
754.299	0.12
754.476	-0.17
754.654	0.07
754.831	0.09
755.008	0.06
755.185	-0.07
755.362	-0.13
755.539	0.01
755.716	-0.17
755.892	-0.11
756.069	-0.02
756.246	0
756.423	-0.01
756.6	0.07
756.777	-0.1
756.954	0.19
757.131	-0.04
757.307	-0.18
757.484	-0.17
757.661	0.05
757.838	-0.04
758.015	-0.01
758.191	0.01
758.368	0.04
758.545	0.15
758.721	0.04
758.898	0.02
759.075	0.12
759.251	0.15
759.428	0.04
759.605	-0.11
759.781	0
759.958	-0.04
760.134	0.1
760.311	-0.12
760.488	0.11
760.664	0.15
760.841	-0.07
761.017	-0.12
761.194	0.1
761.37	0.19
761.547	-0.01
761.723	0.07
761.899	0.14
762.076	-0.03
762.252	-0.04
762.429	-0.01
762.605	0.07
762.781	-0.05
762.958	0.09
763.134	-0.07
763.31	-0.06
763.486	0.13
763.663	-0.13
763.839	0.09
764.015	-0.22
764.191	-0.15
764.368	-0.09
764.544	0.03
764.72	-0.05
764.896	0.03
765.072	0.03
765.248	-0.09
765.425	-0.08
765.601	0.07
765.777	0.03
765.953	-0.28
766.129	-0.04
766.305	-0.1
766.481	0.02
766.657	0.11
766.833	0.16
767.009	-0
767.185	-0.12
767.361	-0.01
767.537	0.01
767.713	0.12
767.889	-0.05
768.065	-0.09
768.24	-0.19
768.416	0.07
768.592	-0.13
768.768	-0.04
768.944	0.08
769.12	-0.13
769.295	-0.12
769.471	-0.11
769.647	0.03
769.823	0.18
769.998	-0.12
770.174	-0.05
770.35	0.36
770.525	0.32
770.701	0.03
770.877	-0.02
771.052	-0.1
771.228	0.1
771.403	0
771.579	0.14
771.755	0.3
771.93	-0
772.106	-0.23
772.281	-0.2
772.457	0.09
772.632	0.08
772.808	-0.16
772.983	-0.14
773.159	-0.04
773.334	0.17
773.509	0.04
773.685	-0.07
773.86	0.52
774.036	0.17
774.211	0.01
774.386	-0.02
774.562	0.05
774.737	0.1
774.912	-0.01
775.087	0.01
775.263	0.11
775.438	0.02
775.613	-0.26
775.788	0.05
775.964	0.09
776.139	0.47
776.314	-0.26
776.489	0.1
776.664	0.05
776.839	-0.17
777.014	0.17
777.19	0.04
777.365	0.33
777.54	0.33
777.715	-0.07
777.89	0.02
778.065	0.04
778.24	-0.04
778.415	0.23
778.59	-0.13
778.765	-0.26
778.94	0.05
779.115	-0.06
779.289	-0.06
779.464	-0.04
779.639	-0.03
779.814	-0.21
779.989	-0.22
780.164	0.16
780.339	0.1
780.513	-0.2
780.688	-0.13
780.863	0.04
781.038	0.05
781.212	-0.15
781.387	-0.11
781.562	0.43
781.737	-0.03
781.911	0.31
782.086	-0.14
782.261	0.1
782.435	0.27
782.61	-0.12
782.784	-0.13
782.959	0.12
783.134	-0.06
783.308	-0.26
783.483	0.01
783.657	0.16
783.832	0.17
784.006	-0.42
784.181	-0.08
784.355	0.27
784.53	-0.36
784.704	-0.24
784.878	0.23
785.053	-0.05
785.227	0.3
785.402	0.24
785.576	-0.33
785.75	-0.02
785.925	-0.09
786.099	-0.03
786.273	0.01
786.448	0.23
786.622	0.13
786.796	0.13
786.97	-0.11
787.145	0.4
787.319	-0.22
787.493	-0.26
787.667	-0.53
787.841	-0.04
788.015	0.3
788.19	-0.24
788.364	0.01
788.538	0.09
788.712	0.26
788.886	-0.1
789.06	0.2
789.234	0.26
789.408	-0.22
789.582	0.01
789.756	-0.01
789.93	-0.15
790.104	0.01
790.278	-0.14
790.452	-0.21
790.626	-0.1
790.8	-0.1
790.973	0.09
791.147	0.13
791.321	0.35
791.495	0.11
791.669	0.03
791.843	0.14
792.016	0.11
792.19	0.49
792.364	-0.29
792.538	0.56
792.711	0.21
792.885	-0.1
793.059	-0.12
793.233	-0.65
793.406	0.13
793.58	0.03
793.754	0.18
793.927	0.02
794.101	0.28
794.274	0.01
794.448	0.17
794.622	-0.26
794.795	0.33
794.969	-0.32
795.142	0.2
795.316	-0.29
795.489	-0.18
795.663	0.4
795.836	-0.04
796.009	-0.31
796.183	0.19
796.356	0.06
796.53	0.06
796.703	0
796.876	0.45
797.05	-0.15
797.223	-0.14
797.396	0.15
797.57	-0.1
797.743	0.46
797.916	-0.1
798.09	0.08
798.263	0.13
798.436	0.12
798.609	-0.11
798.782	-0.14
798.956	0.1
799.129	0.17
799.302	-0.07
799.475	-0.27
799.648	-0.15
799.821	-0.14
799.994	-0.03
800.167	-0.43
800.34	-0.2
800.514	0.02
800.687	-0.06
800.86	0
801.033	0.29
801.206	0.02
801.379	-0.16
801.551	0.27
801.724	-0.13
801.897	0.33
802.07	-0.25
802.243	-0.48
802.416	-0.04
802.589	-0.12
802.762	-0.07
802.935	-0.08
803.107	0.39
803.28	0.38
803.453	0.42
803.626	-0.21
803.798	-0.06
803.971	-0.19
804.144	0.2
804.317	0.11
804.489	0.2
804.662	-0.06
804.835	0.21
805.007	-0.2
805.18	0.46
805.353	-0.09
805.525	-0.36
805.698	-0.22
805.87	0.82
806.043	0.15
806.215	-0.33
806.388	-0.36
806.56	0.02
806.733	0.47
806.905	0.08
807.078	-0.15
807.25	-0.02
807.423	0.41
807.595	-0.3
807.768	-0.18
807.94	0.8
808.112	-0.23
808.285	0.02
808.457	-0.45
808.629	0.2
808.802	0.4
808.974	0.31
809.146	-0.08
809.318	-0.19
809.491	0.12
809.663	0.45
809.835	-0.18
810.007	0.5
810.18	0.24
810.352	-0.69
810.524	-0.05
810.696	0.45
810.868	0.13
811.04	-0.12
811.212	-0.15
811.384	0.15
811.556	0.06
811.728	0.09
811.901	0.62
812.073	-0.03
812.245	-0.25
812.417	0.09
812.589	-0.77
812.76	0.3
812.932	0.07
813.104	0.44
813.276	0.02
813.448	0.44
813.62	0.15
813.792	0.28
813.964	-0.04
814.136	0.14
814.307	0.02
814.479	-0.71
814.651	-0.14
814.823	0.55
814.995	-0.4
815.166	0.26
815.338	-0.41
815.51	-0.1
815.681	0.79
815.853	0.23
816.025	-0.78
816.196	0.32
816.368	0.59
816.54	-0.43
816.711	-0.09
816.883	0.12
817.054	0.84
817.226	-0.96
817.398	0
817.569	-0
817.741	-0.06
817.912	-0.06
818.084	-0.34
818.255	0.7
818.426	-0.42
818.598	-0.54
818.769	-0.41
818.941	0.02
819.112	0.51
819.283	0.23
819.455	-0.69
819.626	0.14
819.798	0.01
819.969	0.23
820.14	0.24
820.311	-0.12
820.483	0.27
820.654	0.13
820.825	-0.11
820.996	-0.28
821.168	-0.39
821.339	-0.25
821.51	-0.31
821.681	-0.23
821.852	-0.07
822.023	-0.51
822.195	-0.39
822.366	0.45
822.537	-0.28
822.708	-0.05
822.879	-0.86
823.05	0.57
823.221	0.48
823.392	0.69
823.563	-0.12
823.734	-0.14
823.905	0.02
824.076	-0.27
824.247	-0.62
824.418	0.17
824.589	-0.07
824.759	0.09
824.93	-0.07
825.101	-0.45
825.272	0.59
825.443	0.56
825.614	0.38
825.784	-0.68
825.955	0.76
826.126	0.54
826.297	0.26
826.467	0.54
826.638	0.55
826.809	-0.68
826.98	-0.35
827.15	0.05
827.321	0.2
827.492	0.19
827.662	0.13
827.833	1.51
828.003	0.87
828.174	-0.68
828.345	-0.99
828.515	0.6
828.686	0.25
828.856	-0.09
829.027	-0.25
829.197	0.64
829.368	0.04
829.538	-0.15
829.709	-0.12
829.879	0.06
830.049	0.72
830.22	-0.43
830.39	-0.44
830.56	0.35
830.731	-0.1
830.901	-0.48
831.072	-0.33
831.242	0.1
831.412	-0.28
831.582	-0.13
831.753	-0.69
831.923	0.29
832.093	0.07
832.263	0.41
832.434	-0.58
832.604	-0.24
832.774	0.46
832.944	0.01
833.114	-0.19
833.284	0.26
833.454	-0.52
833.624	0.09
833.795	-0.65
833.965	0.31
834.135	0.88
834.305	-0.76
834.475	-1.09
834.645	-0.01
834.815	0.23
834.985	-0.77
835.155	-0.67
835.325	0.45
835.494	0.22
835.664	-0.39
835.834	-0.36
836.004	-0.21
836.174	0.43
836.344	0.19
836.514	-1.04
836.684	-0.25
836.853	-0.16
837.023	-0.25
837.193	0.06
837.363	1.14
837.532	0.63
837.702	-0.44
837.872	-0.58
838.041	0.79
838.211	1.25
838.381	-0.11
838.55	-0.11
838.72	1.5
838.89	1.01
839.059	0.49
839.229	-0.45
839.398	0.89
839.568	-0.33
839.738	0.36
839.907	0.96
840.077	0.61
840.246	-0.17
840.416	0.42
840.585	-0.87
840.755	1.35
840.924	1.65
841.093	-1.18
841.263	-0.21
841.432	0.01
841.602	-0.86
841.771	-0.86
841.94	0.18
842.11	2.5
842.279	1.31
842.448	-0.62
842.617	-1.28
842.787	0.8
842.956	-0.79
843.125	-0.62
843.294	-0.36
843.464	1.16
843.633	-0.14
843.802	-0.59
843.971	-0.69
844.14	0.88
844.309	0.78
844.479	-1.37
844.648	-0.62
844.817	-0.3
844.986	-0.58
845.155	-0.63
845.324	-0.71
845.493	0.56
845.662	-1.27
845.831	0.04
846	0.16
846.169	-0.76
846.338	1.23
846.507	0.34
846.676	0.33
846.844	-0.59
847.013	0.5
847.182	-0.57
847.351	-0.31
847.52	0.48
847.689	0.21
847.858	-0.33
848.026	-1.37
848.195	-0.11
848.364	-0.88
848.533	-0.71
848.701	-0.92
848.87	0.72
849.039	1.38
849.207	-0.04
849.376	1.49
849.545	1.33
849.713	-0.76
849.882	-0.3
850.051	0.16
850.219	-0.06
850.388	0.94
850.556	-0.72
850.725	-0.56
850.893	0.65
851.062	0.03
851.23	0.5
851.399	-1.48
851.567	-0.04
851.736	-0.57
851.904	-1.45
852.073	-0.59
852.241	0.75
852.41	0.13
852.578	-0.54
852.746	-0.97
852.915	1.61
853.083	-0.64
853.251	-1.56
853.42	-0.97
853.588	-0.19
853.756	0.62
853.924	-0.48
854.093	0.28
854.261	-0.62
854.429	-1.17
854.597	0.15
854.765	-1.1
854.934	1.21
855.102	1.78
855.27	-0.09
855.438	0.55
855.606	1.12
855.774	1.32
855.942	-2.24
856.11	-1.86
856.278	0.01
856.446	0.89
856.614	0.41
856.782	0.1
856.95	1.47
857.118	0.93
857.286	0.56
857.454	-0.35
857.622	1.25
857.79	1.13
857.958	-0.79
858.126	0.13
858.294	-2.56
858.462	-0.52
858.629	-0.77
858.797	-0.28
858.965	0.68
859.133	-1.53
859.301	0.11
859.468	0.32
859.636	-0.95
859.804	2.9
859.971	0.27
860.139	-0.94
860.307	1.65
860.474	0.87
860.642	-0.55
860.81	-0.89
860.977	0
861.145	0.04
861.313	-0.41
861.48	-0.46
861.648	1.88
861.815	-0.64
861.983	-0.75
862.15	-1.15
862.318	0.78
862.485	0.79
862.653	-0.58
862.82	-1.56
862.988	2.44
863.155	0.35
863.322	-0.38
863.49	-1.16
863.657	-1.5
863.824	2.63
863.992	0.77
864.159	0.14
864.326	1.95
864.494	-1.19
864.661	1.38
864.828	-1.04
864.996	2.21
865.163	2.79
865.33	-0.57
865.497	-1.96
865.664	-0.62
865.832	-1.64
865.999	-0.75
866.166	-1.11
866.333	0.52
866.5	0.18
866.667	-0.51
866.834	-0.88
867.001	1.69
867.168	-2.34
867.335	-0.28
867.502	-1.93
867.669	0.85
867.836	2.68
868.003	-1.08
868.17	-0.04
868.337	-1.6
868.504	3.87
868.671	-1.32
868.838	-0.93
869.005	-0.83
869.172	2.31
869.339	0.22
869.505	-2.02
869.672	0.59
869.839	0.8
870.006	0.14
870.173	-2.18
870.339	2.55
870.506	3.43
870.673	0.38
870.84	0.76
871.006	1.09
871.173	-1.85
871.34	0.18
871.506	-2.78
871.673	1.4
871.839	-1.39
872.006	0.47
872.173	-0.28
872.339	-0.94
872.506	2.34
872.672	-0.63
872.839	-1.86
873.005	1.13
873.172	2.72
873.338	1.67
873.505	1.14
873.671	-0.77
873.838	0.95
874.004	-2.28
874.171	-2.85
874.337	0.98
874.503	1.12
874.67	-0.4
874.836	-0.33
875.002	2.42
875.169	2.38
875.335	-0.72
875.501	-1.56
875.668	0.41
875.834	0.82
876	0.05
876.166	1.95
876.332	-0.54
876.499	4.15
876.665	-0.87
876.831	1.9
876.997	3.17
877.163	1.16
877.329	-1.79
877.495	-0.05
877.662	1.74
877.828	0.62
877.994	1.03
878.16	-2.44
878.326	-1.79
878.492	-0.02
878.658	0.56
878.824	0.13
878.99	1.58
879.156	-1.15
879.322	2.63
879.487	-0.37
879.653	0.8
879.819	-1.73
879.985	-1.02
880.151	1.75
880.317	-0.04
880.483	0.32
880.648	0.19
880.814	-1.08
880.98	-0.58
881.146	-3.73
881.312	-1.18
881.477	-1.22
881.643	1.39
881.809	1.81
881.974	2.29
882.14	-2.4
882.306	-1.34
882.471	2.92
882.637	-0.17
882.803	0.84
882.968	2.71
883.134	3.7
883.299	0.26
883.465	-1.36
883.63	0.67
883.796	1.01
883.961	2.48
884.127	0.76
884.292	-4.51
884.458	-2.27
884.623	-2.27
