Data from Apollo_Calib_20240827__AbsoluteIrradiance__110__00-59-01-617.txt Node

Date: Wed Aug 28 00:59:01 BST 2024
User: biology
Spectrometer: FLMT08252
Trigger mode: 0
Integration Time (sec): 5.000000E-1
Scans to average: 5
Electric dark correction enabled: true
Nonlinearity correction enabled: false
Boxcar width: 0
XAxis mode: Wavelengths
Number of Pixels in Spectrum: 3648
>>>>>Begin Spectral Data<<<<<
179.588	-0
179.809	-0
180.03	-0
180.251	-0
180.473	-0
180.694	0
180.915	0
181.136	-0
181.357	0
181.578	-0
181.799	-0
182.02	0
182.241	0
182.462	-0
182.683	0
182.904	-0
183.125	-0
183.346	0
183.567	-0
183.788	-0
184.009	-0
184.23	0
184.451	0
184.672	-0
184.892	-0
185.113	-0
185.334	0
185.555	-0
185.776	-0
185.996	0
186.217	-0
186.438	-0
186.659	-0
186.879	0
187.1	-0
187.321	-0
187.541	0
187.762	0
187.983	-0
188.203	0
188.424	-0
188.644	-0
188.865	-0
189.086	0
189.306	-0
189.527	0
189.747	0
189.968	-0
190.188	0
190.409	-0
190.629	0
190.849	-0
191.07	-0
191.29	-0
191.511	-0
191.731	-0
191.951	-0
192.172	0
192.392	-0
192.612	-0
192.833	0
193.053	0
193.273	0
193.493	-0
193.714	-0
193.934	0
194.154	0
194.374	-0
194.594	0
194.815	0
195.035	0
195.255	-0
195.475	0
195.695	0
195.915	0
196.135	-0
196.355	0
196.575	0
196.795	-0
197.015	-0
197.235	-0
197.455	-0
197.675	0
197.895	-0
198.115	-0
198.335	-0
198.555	-0
198.775	0
198.995	-0
199.214	0
199.434	-0
199.654	-0
199.874	-0
200.094	0.58
200.313	-0.16
200.533	-0.36
200.753	-1.43
200.973	0.04
201.192	0.12
201.412	-0.79
201.632	-0.14
201.851	0.5
202.071	-0.9
202.291	-0.24
202.51	-0.67
202.73	-0.04
202.95	-0.44
203.169	-0.5
203.389	0.15
203.608	0.29
203.828	-0.29
204.047	-0.23
204.267	0.46
204.486	-0.14
204.706	0.26
204.925	-0.25
205.145	-0.35
205.364	0.28
205.583	0.31
205.803	-0.5
206.022	-0.38
206.242	-0.34
206.461	0.04
206.68	-0.26
206.9	0.03
207.119	0.04
207.338	0.21
207.557	-0.28
207.777	-0.26
207.996	-0.37
208.215	0.45
208.434	-0.36
208.654	-0.57
208.873	-0.13
209.092	0.37
209.311	-0.3
209.53	-0.21
209.749	-0.12
209.968	-0.13
210.187	-0.01
210.407	-0.52
210.626	-0.53
210.845	-0.01
211.064	0.08
211.283	-0.18
211.502	0.16
211.721	-0.24
211.94	-0.25
212.159	0.22
212.377	0.1
212.596	0.2
212.815	-0.06
213.034	-0.01
213.253	-0
213.472	0.18
213.691	-0.12
213.91	-0.21
214.128	-0.17
214.347	0.42
214.566	-0.49
214.785	-0.41
215.003	0.04
215.222	-0.05
215.441	0.07
215.66	-0.03
215.878	-0.12
216.097	0.21
216.316	-0.32
216.534	-0.06
216.753	-0.08
216.972	-0.14
217.19	-0.08
217.409	-0.23
217.627	-0.14
217.846	-0.09
218.064	0.1
218.283	-0.18
218.501	0.4
218.72	0.22
218.938	0.06
219.157	-0.16
219.375	0.2
219.594	0.26
219.812	-0.19
220.031	-0.27
220.249	0.13
220.467	0.29
220.686	-0.08
220.904	-0.18
221.122	-0.24
221.341	0.17
221.559	0
221.777	-0.19
221.995	-0.02
222.214	0.08
222.432	-0.08
222.65	0.06
222.868	0.13
223.086	-0.08
223.305	0.07
223.523	0.03
223.741	0.13
223.959	-0.17
224.177	-0.18
224.395	-0.04
224.613	0.05
224.831	0.1
225.049	-0.12
225.267	0.07
225.485	-0.07
225.703	-0.1
225.921	0.03
226.139	-0.12
226.357	0.11
226.575	0.04
226.793	-0.12
227.011	0.34
227.229	0.01
227.447	-0.04
227.665	-0.11
227.883	-0.33
228.1	-0.08
228.318	-0.05
228.536	-0.24
228.754	-0.19
228.972	0.12
229.189	0.05
229.407	-0.04
229.625	-0.07
229.843	0.15
230.06	0.01
230.278	-0.05
230.496	-0.05
230.713	-0.03
230.931	0.19
231.149	-0.06
231.366	-0.22
231.584	-0.04
231.801	0.26
232.019	-0.11
232.236	-0.19
232.454	-0.13
232.671	0.06
232.889	-0.04
233.106	-0.12
233.324	0.05
233.541	-0.05
233.759	0.04
233.976	-0.05
234.194	-0.14
234.411	-0.07
234.628	-0.02
234.846	-0.05
235.063	0.02
235.28	-0.03
235.498	-0.05
235.715	-0.05
235.932	0.12
236.149	0.06
236.367	-0.09
236.584	0.01
236.801	-0.11
237.018	0.16
237.236	-0.01
237.453	-0.12
237.67	0.02
237.887	0
238.104	-0.02
238.321	-0.07
238.538	-0.17
238.755	0.04
238.973	-0.2
239.19	-0.05
239.407	0
239.624	0.08
239.841	-0.16
240.058	-0.12
240.275	0.05
240.492	-0.07
240.709	-0.02
240.925	-0
241.142	0.05
241.359	-0.15
241.576	-0.1
241.793	-0.04
242.01	-0.07
242.227	0.02
242.444	0.02
242.66	0.06
242.877	-0.04
243.094	-0.11
243.311	0.09
243.527	0.02
243.744	-0.04
243.961	0.06
244.178	-0.08
244.394	-0.05
244.611	0.09
244.828	0.18
245.044	-0.13
245.261	0
245.477	0.01
245.694	-0.07
245.911	-0.13
246.127	-0.05
246.344	0.11
246.56	0
246.777	-0.1
246.993	-0.03
247.21	0.04
247.426	0.14
247.643	-0.09
247.859	-0.11
248.076	-0.07
248.292	0.15
248.508	-0.11
248.725	0.02
248.941	-0.06
249.157	0.13
249.374	-0.01
249.59	0.02
249.806	-0.01
250.023	0.07
250.239	-0.05
250.455	-0.05
250.671	0.01
250.888	0.03
251.104	0.03
251.32	-0.06
251.536	-0.04
251.752	-0.01
251.969	0.01
252.185	0.05
252.401	0.11
252.617	0.01
252.833	-0.02
253.049	0.02
253.265	0.01
253.481	0.07
253.697	-0.08
253.913	-0.09
254.129	0.03
254.345	-0.06
254.561	-0.1
254.777	-0.02
254.993	0.09
255.209	-0.04
255.425	-0.02
255.641	-0.02
255.857	0.05
256.073	-0.03
256.288	-0.08
256.504	-0.11
256.72	-0
256.936	0.11
257.152	-0.01
257.367	-0.13
257.583	0.04
257.799	0.12
258.015	-0.11
258.23	-0.02
258.446	0.1
258.662	0.03
258.877	-0.05
259.093	-0.12
259.309	-0.05
259.524	0.09
259.74	-0.05
259.955	-0.08
260.171	-0.04
260.387	-0.03
260.602	0.11
260.818	-0.02
261.033	-0.1
261.249	-0.07
261.464	-0.02
261.68	-0.08
261.895	-0.01
262.11	0.1
262.326	-0
262.541	-0.13
262.757	0.01
262.972	0.06
263.187	0.04
263.403	-0.05
263.618	0.03
263.833	-0.04
264.049	-0.07
264.264	0.02
264.479	0.05
264.694	0.15
264.91	-0.08
265.125	-0.03
265.34	0.03
265.555	0.12
265.77	0.07
265.986	-0.07
266.201	0.01
266.416	0.07
266.631	-0.01
266.846	-0.04
267.061	0.01
267.276	-0.01
267.491	-0.13
267.706	0.02
267.921	0.04
268.136	0.01
268.351	-0.01
268.566	-0.06
268.781	0.14
268.996	0.01
269.211	0.01
269.426	-0.11
269.641	-0.02
269.856	0.05
270.071	-0.09
270.285	-0.1
270.5	0.07
270.715	0.08
270.93	-0.01
271.145	0.03
271.359	0.01
271.574	-0.04
271.789	0
272.004	-0.12
272.218	-0.05
272.433	0
272.648	-0.01
272.862	0.08
273.077	-0.03
273.292	0.03
273.506	-0.06
273.721	-0.06
273.936	-0.01
274.15	0.03
274.365	-0.06
274.579	0.05
274.794	0.04
275.008	0.09
275.223	-0.08
275.437	0.01
275.652	-0.02
275.866	0.03
276.081	0.01
276.295	0.05
276.509	0.02
276.724	0.03
276.938	-0.05
277.153	0.04
277.367	0.03
277.581	-0.04
277.796	-0.05
278.01	-0.06
278.224	-0.01
278.438	0.1
278.653	-0.09
278.867	-0.04
279.081	0.02
279.295	-0.09
279.51	0.03
279.724	-0.1
279.938	0.07
280.152	0.05
280.366	-0.06
280.58	0.04
280.794	0.05
281.008	-0.01
281.222	0.01
281.437	0.05
281.651	0.08
281.865	0.07
282.079	-0
282.293	-0.07
282.507	-0.05
282.721	0.01
282.935	-0.05
283.148	-0.09
283.362	-0.06
283.576	-0.05
283.79	0.01
284.004	-0.04
284.218	0.04
284.432	-0.04
284.646	0.01
284.859	-0.07
285.073	0.01
285.287	-0.02
285.501	0.02
285.714	0
285.928	0.04
286.142	-0.01
286.356	-0.04
286.569	0.01
286.783	0.07
286.997	0.02
287.21	-0
287.424	0.01
287.637	-0.04
287.851	-0.02
288.065	0.04
288.278	-0
288.492	0.02
288.705	-0.01
288.919	0
289.132	-0.07
289.346	0.01
289.559	-0.05
289.773	-0.03
289.986	-0.01
290.2	-0.02
290.413	0.04
290.626	-0.06
290.84	-0.03
291.053	-0.02
291.267	0.02
291.48	0.03
291.693	-0
291.906	-0.03
292.12	-0.02
292.333	-0.07
292.546	-0
292.76	0.08
292.973	0.01
293.186	0.03
293.399	-0.03
293.612	0.08
293.826	0.02
294.039	-0.01
294.252	0.06
294.465	0.02
294.678	-0.01
294.891	0.07
295.104	-0.03
295.317	0.02
295.53	0
295.743	0.02
295.956	0.02
296.169	0.08
296.382	0.05
296.595	-0.01
296.808	0
297.021	0.04
297.234	0.03
297.447	0.04
297.66	-0.02
297.873	0.06
298.086	-0.01
298.299	-0.03
298.511	-0.04
298.724	-0.03
298.937	-0.02
299.15	0.04
299.363	0.02
299.575	0
299.788	0.03
300.001	0
300.213	-0.01
300.426	-0.01
300.639	-0.02
300.852	-0.03
301.064	0.05
301.277	0.04
301.489	0.05
301.702	0.01
301.915	0.02
302.127	-0.03
302.34	0.02
302.552	0.05
302.765	-0.02
302.977	0.02
303.19	-0.01
303.402	-0.05
303.615	-0
303.827	-0.03
304.04	-0
304.252	0.01
304.464	-0.03
304.677	0.09
304.889	-0
305.102	-0.04
305.314	-0.04
305.526	0.07
305.739	-0.01
305.951	-0.02
306.163	-0.02
306.375	0.09
306.588	-0.04
306.8	-0.03
307.012	-0.05
307.224	0
307.436	0.04
307.649	-0.09
307.861	0.03
308.073	0.03
308.285	0.01
308.497	-0.03
308.709	-0.02
308.921	-0.01
309.133	0.05
309.346	-0
309.558	0.02
309.77	0.04
309.982	0.02
310.194	0.06
310.406	-0
310.617	0.05
310.829	-0.02
311.041	-0.03
311.253	-0
311.465	0
311.677	-0
311.889	0.03
312.101	-0.04
312.313	0.04
312.524	0.01
312.736	-0.04
312.948	-0.05
313.16	0.07
313.372	0.01
313.583	0.04
313.795	0.01
314.007	-0
314.218	0.05
314.43	0.01
314.642	-0.03
314.853	-0.1
315.065	0.01
315.277	-0.01
315.488	-0.01
315.7	0.05
315.912	0.01
316.123	-0.02
316.335	0.01
316.546	0.11
316.758	-0.01
316.969	-0.03
317.181	-0.01
317.392	0.03
317.604	0.03
317.815	0
318.026	-0.02
318.238	-0.01
318.449	0.04
318.661	-0.05
318.872	-0.03
319.083	-0.09
319.295	0.03
319.506	-0.08
319.717	0.03
319.929	-0
320.14	0.02
320.351	0.02
320.562	0.01
320.774	0.01
320.985	0.01
321.196	-0.09
321.407	-0.06
321.618	0.05
321.829	0.03
322.041	-0.02
322.252	-0.03
322.463	-0.03
322.674	0.06
322.885	-0.05
323.096	0.01
323.307	-0.02
323.518	0.01
323.729	-0.01
323.94	0.04
324.151	0
324.362	-0.03
324.573	0.03
324.784	-0.03
324.995	0.06
325.206	0.01
325.417	0
325.628	0
325.838	0
326.049	0.03
326.26	0.02
326.471	-0.02
326.682	0.01
326.892	0
327.103	-0.09
327.314	-0.02
327.525	0.02
327.735	-0.01
327.946	-0.06
328.157	-0.03
328.368	0.06
328.578	0.01
328.789	0.01
328.999	0.02
329.21	-0.03
329.421	0.07
329.631	-0.08
329.842	-0.06
330.052	-0
330.263	0.01
330.473	0.07
330.684	0.01
330.894	-0.02
331.105	0.01
331.315	-0.04
331.526	-0.05
331.736	0.09
331.947	0.05
332.157	0.03
332.367	-0.02
332.578	0.06
332.788	0.03
332.999	0.05
333.209	0.01
333.419	-0.03
333.629	0.08
333.84	0.02
334.05	0.02
334.26	0.07
334.47	-0.03
334.681	0.02
334.891	-0
335.101	0.04
335.311	0.1
335.521	0.01
335.732	0.01
335.942	0.03
336.152	0.05
336.362	0.06
336.572	0.01
336.782	0.04
336.992	-0.03
337.202	-0.02
337.412	-0.01
337.622	0.03
337.832	-0.02
338.042	0.01
338.252	0.01
338.462	0
338.672	0.01
338.882	-0.09
339.092	-0.03
339.302	0.08
339.511	0.03
339.721	-0.05
339.931	-0.05
340.141	0.04
340.351	0.06
340.561	0.01
340.77	0.01
340.98	0.01
341.19	0.04
341.4	-0.04
341.609	-0.06
341.819	0.02
342.029	-0.05
342.238	0.03
342.448	-0.01
342.658	0.02
342.867	0.03
343.077	0.04
343.286	0.01
343.496	0.01
343.706	0.03
343.915	-0.03
344.125	0.02
344.334	0.01
344.544	-0.03
344.753	-0.07
344.963	0
345.172	-0
345.381	-0.06
345.591	-0.02
345.8	0.02
346.01	0.03
346.219	0.01
346.428	-0.16
346.638	-0.01
346.847	-0.03
347.056	0.05
347.266	-0.01
347.475	0.03
347.684	0.02
347.893	0.07
348.103	0.01
348.312	0.01
348.521	0.04
348.73	0.02
348.94	0.02
349.149	-0.02
349.358	-0.02
349.567	0.01
349.776	-0
349.985	0
350.194	0.07
350.403	0.06
350.612	-0.02
350.821	-0.01
351.03	0
351.239	-0.02
351.448	0.01
351.657	-0
351.866	0.06
352.075	-0.01
352.284	0.05
352.493	-0.02
352.702	0.05
352.911	0.01
353.12	0.03
353.329	-0.04
353.538	0.02
353.746	0.03
353.955	-0.03
354.164	0.04
354.373	-0.01
354.582	0.06
354.79	0.01
354.999	0.05
355.208	0.01
355.416	0.06
355.625	-0.05
355.834	0.01
356.042	0.04
356.251	0
356.46	-0.02
356.668	0.03
356.877	0.08
357.085	0.07
357.294	-0.06
357.503	0.04
357.711	0.02
357.92	0.15
358.128	0.04
358.337	-0.01
358.545	0.04
358.754	0.01
358.962	0.08
359.17	0.01
359.379	0
359.587	0.06
359.796	-0.03
360.004	0.02
360.212	0
360.421	0.07
360.629	0.03
360.837	0.02
361.046	0.01
361.254	0.07
361.462	0.05
361.67	-0
361.879	-0
362.087	0.06
362.295	0.04
362.503	-0.03
362.711	-0.02
362.92	0.02
363.128	0.02
363.336	0.01
363.544	-0.03
363.752	-0
363.96	0
364.168	0.02
364.376	-0.01
364.584	0.02
364.792	0.03
365	0.06
365.208	0.04
365.416	0.03
365.624	0.08
365.832	-0.02
366.04	0.04
366.248	0.02
366.456	0.06
366.664	0.04
366.872	0.03
367.079	0.03
367.287	0.02
367.495	0.06
367.703	0.06
367.911	0.04
368.118	0.04
368.326	0.05
368.534	0.05
368.742	0.15
368.949	0.04
369.157	0.06
369.365	0.12
369.572	0.09
369.78	0.1
369.988	0.17
370.195	0.16
370.403	0.16
370.61	0.16
370.818	0.17
371.026	0.27
371.233	0.19
371.441	0.27
371.648	0.27
371.856	0.32
372.063	0.35
372.271	0.35
372.478	0.35
372.685	0.36
372.893	0.44
373.1	0.43
373.308	0.46
373.515	0.57
373.722	0.54
373.93	0.6
374.137	0.65
374.344	0.72
374.552	0.74
374.759	0.78
374.966	0.76
375.173	0.84
375.381	0.91
375.588	0.83
375.795	0.87
376.002	0.92
376.209	0.95
376.417	1.07
376.624	1.14
376.831	1.24
377.038	1.21
377.245	1.24
377.452	1.38
377.659	1.49
377.866	1.46
378.073	1.58
378.28	1.64
378.487	1.68
378.694	1.85
378.901	1.86
379.108	1.96
379.315	2.15
379.522	2.24
379.729	2.2
379.936	2.32
380.143	2.42
380.35	2.5
380.557	2.65
380.763	2.66
380.97	2.81
381.177	2.89
381.384	3.04
381.591	3.13
381.797	3.17
382.004	3.29
382.211	3.42
382.418	3.44
382.624	3.5
382.831	3.58
383.038	3.55
383.244	3.64
383.451	3.53
383.658	3.51
383.864	3.57
384.071	3.47
384.277	3.53
384.484	3.48
384.69	3.43
384.897	3.29
385.103	3.3
385.31	3.22
385.516	3.11
385.723	3.02
385.929	2.94
386.136	2.78
386.342	2.71
386.549	2.66
386.755	2.63
386.961	2.47
387.168	2.37
387.374	2.23
387.58	2.23
387.787	2.08
387.993	2.03
388.199	1.86
388.406	1.81
388.612	1.69
388.818	1.66
389.024	1.56
389.231	1.54
389.437	1.57
389.643	1.49
389.849	1.37
390.055	1.33
390.261	1.28
390.467	1.28
390.674	1.15
390.88	1.17
391.086	1.15
391.292	1.06
391.498	1.17
391.704	1.03
391.91	1.05
392.116	0.96
392.322	0.83
392.528	0.98
392.734	0.84
392.94	0.86
393.146	0.85
393.352	0.85
393.557	0.79
393.763	0.76
393.969	0.77
394.175	0.73
394.381	0.72
394.587	0.65
394.792	0.6
394.998	0.69
395.204	0.7
395.41	0.56
395.615	0.61
395.821	0.59
396.027	0.56
396.233	0.5
396.438	0.54
396.644	0.48
396.85	0.47
397.055	0.49
397.261	0.44
397.466	0.41
397.672	0.37
397.878	0.43
398.083	0.37
398.289	0.34
398.494	0.38
398.7	0.35
398.905	0.3
399.111	0.41
399.316	0.26
399.522	0.26
399.727	0.25
399.932	0.24
400.138	0.21
400.343	0.34
400.549	0.24
400.754	0.21
400.959	0.27
401.165	0.22
401.37	0.24
401.575	0.31
401.78	0.2
401.986	0.19
402.191	0.16
402.396	0.23
402.601	0.23
402.807	0.2
403.012	0.19
403.217	0.23
403.422	0.2
403.627	0.19
403.832	0.15
404.037	0.16
404.243	0.19
404.448	0.18
404.653	0.16
404.858	0.15
405.063	0.2
405.268	0.16
405.473	0.08
405.678	0.14
405.883	0.27
406.088	0.2
406.293	0.05
406.498	0.1
406.703	0.19
406.907	0.11
407.112	0.1
407.317	0.16
407.522	0.15
407.727	0.08
407.932	0.1
408.136	0.22
408.341	0.11
408.546	0.09
408.751	0.11
408.956	0.11
409.16	0.1
409.365	0.08
409.57	0.1
409.774	0.09
409.979	0.11
410.184	0.09
410.388	0.02
410.593	0.14
410.798	0.11
411.002	0.07
411.207	0.13
411.411	0.14
411.616	0.01
411.82	0.07
412.025	0.06
412.229	0.04
412.434	0.15
412.638	0.08
412.843	0.08
413.047	0.08
413.252	0.04
413.456	0.08
413.66	0.05
413.865	0.02
414.069	0.11
414.273	0.08
414.478	0.03
414.682	0.04
414.886	0.01
415.091	-0.01
415.295	0.01
415.499	0.06
415.703	0.06
415.908	0.09
416.112	-0.02
416.316	0.07
416.52	0.06
416.724	-0.01
416.929	0.03
417.133	0.19
417.337	0.02
417.541	0.04
417.745	0.03
417.949	0.05
418.153	0.06
418.357	-0.05
418.561	0.13
418.765	0.05
418.969	0.16
419.173	0.04
419.377	0.04
419.581	0.13
419.785	0.01
419.989	-0.01
420.193	0.02
420.397	0.04
420.601	0.12
420.804	0.08
421.008	0.04
421.212	0.02
421.416	0.03
421.62	0.03
421.823	0.03
422.027	0.12
422.231	0.08
422.435	-0.01
422.638	0.08
422.842	0.02
423.046	0.01
423.249	0.07
423.453	0.1
423.657	0.02
423.86	-0
424.064	0.01
424.268	0.09
424.471	0.04
424.675	0.13
424.878	0.14
425.082	0.05
425.285	0.1
425.489	0.04
425.692	0.04
425.896	0.02
426.099	0.05
426.303	-0.02
426.506	-0.04
426.71	0.09
426.913	0.08
427.116	0.11
427.32	0.06
427.523	0.02
427.726	0.1
427.93	0
428.133	0.03
428.336	-0.03
428.54	0.04
428.743	0.11
428.946	0.03
429.149	0.03
429.353	0.08
429.556	0.01
429.759	0
429.962	0.02
430.165	0
430.368	0.06
430.571	0
430.775	0.06
430.978	0.03
431.181	0.04
431.384	0.04
431.587	0.01
431.79	0.02
431.993	-0.03
432.196	0.05
432.399	0.05
432.602	0.1
432.805	0.05
433.008	0.04
433.211	-0.04
433.414	0.09
433.616	0.09
433.819	0.05
434.022	-0.01
434.225	0.14
434.428	0.02
434.631	0.11
434.833	0.07
435.036	0.05
435.239	0.11
435.442	0.06
435.645	0.06
435.847	0.09
436.05	0.11
436.253	0.12
436.455	0.02
436.658	0.05
436.861	0.14
437.063	0.03
437.266	-0.02
437.468	0.1
437.671	0.17
437.874	0.05
438.076	-0.02
438.279	-0.03
438.481	0.05
438.684	0.01
438.886	0.1
439.089	-0.06
439.291	0.01
439.494	0.08
439.696	0.04
439.899	0.04
440.101	0.12
440.303	0.03
440.506	0.09
440.708	0.07
440.91	0.14
441.113	0
441.315	0.07
441.517	-0.01
441.72	0.09
441.922	0.03
442.124	0.05
442.326	0.08
442.529	0.18
442.731	0.03
442.933	0.17
443.135	0.07
443.337	0.07
443.539	0.03
443.742	0.02
443.944	0.05
444.146	0.02
444.348	0.08
444.55	0.04
444.752	0.09
444.954	0.02
445.156	0.06
445.358	0.03
445.56	0.07
445.762	0.05
445.964	0.07
446.166	0.03
446.368	0.01
446.57	0.11
446.772	0.07
446.974	0.08
447.175	0.05
447.377	0.07
447.579	0.08
447.781	-0.02
447.983	0.18
448.184	0.07
448.386	0.1
448.588	0
448.79	0.12
448.991	0.06
449.193	0.15
449.395	0.14
449.597	0.11
449.798	0.11
450	0.11
450.202	0.09
450.403	0.08
450.605	0.15
450.806	0.1
451.008	0.02
451.21	0.07
451.411	0.13
451.613	0.04
451.814	0.06
452.016	0.13
452.217	0.06
452.419	0.13
452.62	0.08
452.821	0.11
453.023	0.19
453.224	0.11
453.426	0.06
453.627	0.1
453.828	0.07
454.03	0.09
454.231	0.13
454.432	0.03
454.634	0.15
454.835	0.06
455.036	-0.01
455.238	0.09
455.439	0.12
455.64	0
455.841	0.01
456.042	0.15
456.244	0.09
456.445	0.06
456.646	0.02
456.847	0.04
457.048	0.12
457.249	0.09
457.45	0.22
457.651	-0.02
457.852	0.11
458.054	0.06
458.255	0.03
458.456	0.09
458.657	0.06
458.858	-0.02
459.058	0.07
459.259	0.08
459.46	0.04
459.661	0.03
459.862	0.15
460.063	0.02
460.264	0.11
460.465	-0.02
460.666	0.15
460.866	0.04
461.067	0.02
461.268	0.02
461.469	0.02
461.67	0.04
461.87	0.02
462.071	-0.04
462.272	-0.01
462.473	0.02
462.673	0.06
462.874	-0.02
463.075	0.04
463.275	-0.02
463.476	0.03
463.676	0.06
463.877	0.08
464.078	0.01
464.278	0.05
464.479	0.03
464.679	0.01
464.88	0.07
465.08	0.08
465.281	-0.01
465.481	-0.01
465.682	0.01
465.882	0.12
466.083	0.01
466.283	0.02
466.483	-0
466.684	0.01
466.884	0.01
467.085	-0.01
467.285	0.08
467.485	-0.02
467.686	-0.01
467.886	0
468.086	0.01
468.286	0
468.487	0.05
468.687	-0.02
468.887	0.03
469.087	0.05
469.287	0.02
469.488	-0.01
469.688	0.03
469.888	0.05
470.088	0.08
470.288	0.07
470.488	0.06
470.688	-0.04
470.888	0.02
471.088	0.02
471.288	0.04
471.488	0
471.688	0.01
471.888	-0.01
472.088	0.03
472.288	0.03
472.488	-0.01
472.688	-0.01
472.888	-0
473.088	0.03
473.288	0.02
473.488	0.01
473.688	0.1
473.887	0.03
474.087	0
474.287	0.01
474.487	-0.02
474.687	0.01
474.886	-0.04
475.086	0.03
475.286	0.05
475.486	0.07
475.685	0
475.885	0
476.085	0.02
476.284	0.01
476.484	-0.02
476.684	0.04
476.883	0.06
477.083	-0.01
477.282	-0.01
477.482	0.08
477.681	0.06
477.881	0.02
478.08	-0.04
478.28	0.01
478.479	0.02
478.679	0.1
478.878	0
479.078	0
479.277	-0.01
479.477	0.01
479.676	0.04
479.875	-0.01
480.075	-0.03
480.274	0.05
480.473	0.03
480.673	0
480.872	0.02
481.071	0
481.271	0.03
481.47	-0.02
481.669	0.02
481.868	0.01
482.067	0
482.267	0.01
482.466	-0.01
482.665	-0
482.864	-0.01
483.063	-0.04
483.262	0.03
483.461	0.06
483.661	0.02
483.86	0
484.059	0.02
484.258	-0.01
484.457	0.01
484.656	-0.01
484.855	0.04
485.054	-0.02
485.253	-0
485.452	-0.07
485.651	0
485.849	0.01
486.048	-0
486.247	-0.04
486.446	0.02
486.645	-0.03
486.844	-0.02
487.043	-0
487.241	0.03
487.44	-0
487.639	-0.02
487.838	0.05
488.037	-0.01
488.235	0.06
488.434	0
488.633	-0.01
488.831	0.01
489.03	0.04
489.229	0.01
489.427	0.01
489.626	0.06
489.825	0.05
490.023	-0.01
490.222	-0
490.42	0.05
490.619	0.03
490.817	0.02
491.016	-0.01
491.214	0.03
491.413	0
491.611	-0.01
491.81	0.03
492.008	0.02
492.207	0.02
492.405	0
492.604	-0.04
492.802	-0.01
493	-0.01
493.199	-0
493.397	0.01
493.595	0
493.794	-0.03
493.992	0.07
494.19	-0
494.388	0.01
494.587	-0
494.785	0
494.983	-0.02
495.181	0.03
495.379	-0.01
495.578	0
495.776	0.04
495.974	0.02
496.172	-0.02
496.37	-0.02
496.568	-0.02
496.766	-0.05
496.964	0.03
497.162	-0.01
497.36	-0.02
497.558	0.02
497.756	0.02
497.954	0
498.152	-0.03
498.35	-0
498.548	-0
498.746	-0
498.944	-0.02
499.142	-0
499.34	-0.03
499.538	-0.01
499.736	-0.02
499.933	0.03
500.131	0.02
500.329	-0.01
500.527	0.01
500.725	0.03
500.922	0.01
501.12	0.01
501.318	0.01
501.516	-0.02
501.713	0
501.911	0
502.109	-0.03
502.306	0
502.504	-0
502.701	-0.01
502.899	0.01
503.097	0.04
503.294	-0.02
503.492	-0.02
503.689	0.03
503.887	0.01
504.084	0.04
504.282	0.02
504.479	-0.03
504.677	-0
504.874	-0.03
505.072	-0
505.269	-0.03
505.466	0
505.664	0.02
505.861	-0.03
506.059	0
506.256	0.04
506.453	-0
506.651	0.04
506.848	0.03
507.045	0.01
507.242	0
507.44	-0.03
507.637	0
507.834	-0.01
508.031	0.02
508.229	0
508.426	0.01
508.623	-0.01
508.82	-0.02
509.017	-0.03
509.214	-0.01
509.411	0.01
509.608	-0.02
509.805	-0
510.003	-0.01
510.2	-0.01
510.397	0.02
510.594	-0.02
510.791	-0.01
510.988	0.02
511.184	0.03
511.381	0.02
511.578	-0.03
511.775	0.03
511.972	-0.01
512.169	0.02
512.366	0
512.563	0.01
512.76	-0.02
512.956	0.02
513.153	-0.01
513.35	0.01
513.547	-0.01
513.744	0
513.94	-0.02
514.137	-0
514.334	0.01
514.53	0
514.727	0.02
514.924	0.04
515.12	0
515.317	-0.03
515.514	-0
515.71	-0.02
515.907	0.01
516.103	-0.01
516.3	0.03
516.497	0.02
516.693	0.03
516.89	-0.01
517.086	-0.02
517.283	0.01
517.479	0.01
517.676	-0
517.872	0
518.068	-0.02
518.265	-0
518.461	-0.02
518.658	-0.03
518.854	0.02
519.05	0.01
519.247	-0.01
519.443	0
519.639	-0.01
519.836	0.01
520.032	-0.01
520.228	0.02
520.424	0.06
520.621	0.01
520.817	0.01
521.013	0.01
521.209	0.02
521.405	0.03
521.601	0
521.798	0.01
521.994	0.04
522.19	-0.02
522.386	-0.03
522.582	-0.01
522.778	-0.01
522.974	-0
523.17	0.01
523.366	0.01
523.562	0.02
523.758	-0.02
523.954	-0.01
524.15	-0.02
524.346	0.03
524.542	0.01
524.738	-0.01
524.934	0.01
525.129	-0.01
525.325	0
525.521	-0
525.717	0.03
525.913	-0.01
526.109	-0
526.304	-0.02
526.5	0.02
526.696	0.01
526.892	0.01
527.087	-0
527.283	-0.02
527.479	0.02
527.674	-0.01
527.87	-0.01
528.066	-0.03
528.261	0.03
528.457	0.02
528.653	-0.01
528.848	-0.02
529.044	0.02
529.239	0.01
529.435	0.04
529.63	-0.01
529.826	0.03
530.021	0.01
530.217	-0
530.412	-0
530.608	-0.02
530.803	-0.01
530.999	0.01
531.194	-0.05
531.389	0.02
531.585	-0.03
531.78	-0
531.975	-0.02
532.171	0.03
532.366	0.01
532.561	0.01
532.757	-0
532.952	-0
533.147	0.02
533.342	0.01
533.538	0
533.733	0.02
533.928	-0.01
534.123	-0
534.318	-0.01
534.513	-0.02
534.709	-0.01
534.904	-0.03
535.099	-0.03
535.294	0.01
535.489	-0.01
535.684	0
535.879	-0.02
536.074	0.01
536.269	-0.01
536.464	0
536.659	0
536.854	-0
537.049	0.01
537.244	-0
537.439	-0.02
537.634	0.02
537.828	-0
538.023	-0.01
538.218	-0.03
538.413	0
538.608	-0.03
538.803	0.03
538.997	-0.01
539.192	0.02
539.387	0
539.582	-0
539.776	0
539.971	-0.01
540.166	-0.01
540.36	-0.03
540.555	0.01
540.75	-0.03
540.944	0
541.139	-0.02
541.334	-0.01
541.528	0.02
541.723	0.02
541.917	-0.01
542.112	-0.03
542.306	-0.01
542.501	-0.01
542.695	-0.01
542.89	-0.01
543.084	0.01
543.279	-0.03
543.473	-0.01
543.668	-0
543.862	-0.01
544.056	0.02
544.251	0.01
544.445	0.01
544.64	-0
544.834	-0.01
545.028	0.01
545.222	0.01
545.417	0.01
545.611	0
545.805	0.01
546	0
546.194	0.01
546.388	-0
546.582	0.03
546.776	0
546.97	-0.01
547.165	0.02
547.359	0.03
547.553	-0.02
547.747	-0
547.941	-0
548.135	-0.01
548.329	0.01
548.523	0.02
548.717	-0.02
548.911	-0.03
549.105	0.01
549.299	0.02
549.493	0.03
549.687	0.01
549.881	0
550.075	-0.02
550.269	-0.03
550.463	0.03
550.657	-0.01
550.85	-0
551.044	-0.01
551.238	0
551.432	-0.01
551.626	-0.02
551.82	0.01
552.013	-0.01
552.207	0.01
552.401	0.04
552.594	0.01
552.788	-0
552.982	0
553.176	-0.01
553.369	0
553.563	0.01
553.756	-0.04
553.95	-0.02
554.144	0
554.337	0.02
554.531	0.01
554.724	-0.01
554.918	0
555.111	0.02
555.305	-0
555.498	0.06
555.692	0.02
555.885	-0.02
556.079	0
556.272	-0
556.466	0.03
556.659	0.01
556.852	-0.01
557.046	-0.02
557.239	0.03
557.432	-0.02
557.626	-0.02
557.819	-0
558.012	0.01
558.206	0.03
558.399	-0.03
558.592	0
558.785	-0
558.979	0.01
559.172	-0
559.365	0.01
559.558	-0.01
559.751	-0.01
559.944	-0.01
560.138	0
560.331	0
560.524	0.01
560.717	-0.02
560.91	0.01
561.103	-0
561.296	-0.01
561.489	0.03
561.682	0.02
561.875	0.04
562.068	-0.01
562.261	0.01
562.454	0.04
562.647	0.02
562.84	0.03
563.032	-0.01
563.225	0.01
563.418	-0.01
563.611	-0
563.804	0.01
563.997	-0.02
564.19	-0.04
564.382	-0
564.575	-0.01
564.768	0.01
564.961	-0.01
565.153	-0.01
565.346	0.01
565.539	0.01
565.731	0.01
565.924	0.02
566.117	0.03
566.309	-0
566.502	-0.02
566.695	0.01
566.887	-0.01
567.08	-0.02
567.272	-0.01
567.465	-0
567.657	-0.01
567.85	0.01
568.042	0.02
568.235	0.04
568.427	0
568.62	-0.02
568.812	0.02
569.005	0.01
569.197	-0.03
569.389	0.01
569.582	-0
569.774	0
569.966	-0
570.159	-0.03
570.351	0
570.543	-0.02
570.736	0.02
570.928	-0.02
571.12	-0.02
571.312	-0.04
571.505	-0.03
571.697	0.04
571.889	-0.01
572.081	-0
572.273	-0.01
572.465	0.04
572.658	-0.01
572.85	0.02
573.042	-0.02
573.234	-0.01
573.426	0.04
573.618	-0.04
573.81	0
574.002	0.03
574.194	0.02
574.386	-0.04
574.578	-0.06
574.77	-0.03
574.962	0.02
575.154	-0.02
575.346	-0.01
575.538	0.01
575.729	-0.04
575.921	-0.01
576.113	-0.03
576.305	0.03
576.497	-0.01
576.689	-0.02
576.88	-0.02
577.072	0.01
577.264	-0.01
577.456	-0.02
577.647	-0.08
577.839	-0.01
578.031	0.02
578.223	0.01
578.414	-0.03
578.606	0.02
578.798	-0.02
578.989	-0.01
579.181	-0.01
579.372	-0
579.564	0.02
579.755	-0.01
579.947	0.02
580.139	0.01
580.33	-0.05
580.522	-0.03
580.713	-0.06
580.905	0
581.096	0.01
581.287	-0.02
581.479	0.01
581.67	0.02
581.862	0.01
582.053	-0.04
582.244	-0.04
582.436	-0.02
582.627	-0.03
582.818	-0.03
583.01	-0.05
583.201	0.03
583.392	0.01
583.583	0
583.775	-0
583.966	-0.05
584.157	0
584.348	-0.05
584.54	-0.04
584.731	0
584.922	0.01
585.113	-0.01
585.304	0.02
585.495	0.01
585.686	0
585.877	0.03
586.068	0
586.259	0.03
586.45	-0.01
586.641	-0.03
586.832	-0.05
587.023	0
587.214	-0.01
587.405	-0
587.596	-0.02
587.787	0.04
587.978	-0.01
588.169	-0.02
588.36	-0.03
588.551	0.02
588.742	-0
588.932	0.01
589.123	-0.01
589.314	0.02
589.505	0.01
589.696	0.02
589.886	-0.01
590.077	-0.04
590.268	-0.01
590.458	-0.05
590.649	-0.04
590.84	0.03
591.03	-0.03
591.221	-0.03
591.412	-0.06
591.602	0.01
591.793	0.03
591.984	-0.03
592.174	-0.01
592.365	0.05
592.555	-0.02
592.746	0.03
592.936	0.01
593.127	0.02
593.317	0.02
593.508	-0.06
593.698	0
593.889	0.01
594.079	-0.01
594.269	-0
594.46	-0.01
594.65	-0.01
594.84	0
595.031	-0.02
595.221	-0.01
595.411	-0.06
595.602	0.02
595.792	-0
595.982	-0.01
596.172	0.03
596.363	0.01
596.553	0.01
596.743	-0.01
596.933	-0.01
597.123	0.02
597.314	-0.01
597.504	-0.05
597.694	0
597.884	-0
598.074	-0
598.264	-0
598.454	0
598.644	0.01
598.834	0.01
599.024	-0.07
599.214	-0.01
599.404	0.03
599.594	-0.01
599.784	-0.04
599.974	0.03
600.164	-0
600.354	-0.03
600.544	-0.05
600.734	-0
600.924	0.01
601.114	-0.02
601.303	0.01
601.493	0.01
601.683	-0.01
601.873	0.02
602.063	-0.05
602.252	0.03
602.442	-0.07
602.632	-0.04
602.821	-0.05
603.011	0
603.201	-0.01
603.39	-0.01
603.58	-0.05
603.77	0.01
603.959	0.02
604.149	0.01
604.339	-0.01
604.528	0.02
604.718	0.05
604.907	-0.01
605.097	-0.01
605.286	-0.04
605.476	0.02
605.665	0.02
605.855	0
606.044	0.02
606.234	0.02
606.423	-0
606.612	-0.05
606.802	-0.01
606.991	0.01
607.181	0.02
607.37	-0.03
607.559	-0.02
607.749	-0.03
607.938	-0.03
608.127	0.01
608.316	-0.03
608.506	0.01
608.695	0.01
608.884	-0.01
609.073	-0.03
609.263	0
609.452	0.02
609.641	-0.02
609.83	-0.04
610.019	-0.01
610.208	-0.02
610.397	-0
610.586	0
610.775	-0.02
610.965	-0.02
611.154	-0.02
611.343	0.01
611.532	-0.02
611.721	-0.04
611.91	-0.02
612.099	0.03
612.287	-0.02
612.476	-0.04
612.665	0.03
612.854	-0
613.043	0.03
613.232	-0.04
613.421	-0.06
613.61	0.03
613.798	-0.03
613.987	0.01
614.176	-0.01
614.365	-0
614.554	0.01
614.742	0.02
614.931	-0.01
615.12	0.02
615.309	0.01
615.497	0.02
615.686	-0.03
615.875	-0
616.063	-0.02
616.252	-0
616.44	-0.01
616.629	0
616.818	-0.03
617.006	-0.03
617.195	-0.01
617.383	-0.01
617.572	-0.01
617.76	-0.02
617.949	-0.03
618.137	0.04
618.326	-0.01
618.514	-0.01
618.703	-0.01
618.891	0.03
619.079	-0.04
619.268	0.02
619.456	-0.04
619.644	0.04
619.833	0.02
620.021	0.01
620.209	-0.05
620.398	0.01
620.586	0.02
620.774	0.02
620.962	0.02
621.151	0.07
621.339	-0
621.527	-0.03
621.715	-0.06
621.903	-0.04
622.092	-0.07
622.28	0.03
622.468	-0.02
622.656	0
622.844	0.01
623.032	-0.01
623.22	-0.03
623.408	0.03
623.596	-0
623.784	0.01
623.972	-0.01
624.16	0.01
624.348	-0.02
624.536	0.02
624.724	-0.02
624.912	0.04
625.1	0.03
625.288	-0.04
625.476	-0.01
625.664	0.01
625.851	-0.05
626.039	-0.02
626.227	0.01
626.415	0
626.603	-0.04
626.79	-0.01
626.978	-0
627.166	0
627.354	-0.01
627.541	-0.02
627.729	-0.05
627.917	0.03
628.104	0.02
628.292	0.02
628.48	0.02
628.667	0.02
628.855	0.02
629.042	0.02
629.23	0
629.418	0.02
629.605	-0.03
629.793	-0.01
629.98	-0.04
630.168	-0.01
630.355	-0
630.543	0.02
630.73	-0.03
630.917	0.01
631.105	0.03
631.292	0.02
631.48	0
631.667	0.04
631.854	0.01
632.042	-0
632.229	-0.05
632.416	0.01
632.604	-0.02
632.791	-0.04
632.978	0.01
633.165	-0.01
633.353	0.04
633.54	0.02
633.727	-0.06
633.914	-0.03
634.101	-0.07
634.289	0.02
634.476	-0.02
634.663	-0.03
634.85	0.03
635.037	-0.07
635.224	-0.06
635.411	0.02
635.598	0.04
635.785	0.02
635.972	0.01
636.159	0.07
636.346	-0.01
636.533	0.01
636.72	-0.01
636.907	0.04
637.094	0.06
637.281	0
637.468	0.04
637.655	0.03
637.842	0.01
638.029	-0.02
638.215	0.07
638.402	0.03
638.589	-0.02
638.776	-0
638.963	-0.01
639.149	0.04
639.336	0.05
639.523	-0
639.709	0.02
639.896	0.02
640.083	0.05
640.27	0.03
640.456	-0.02
640.643	0.04
640.829	-0.03
641.016	0.01
641.203	-0.01
641.389	0.02
641.576	0.05
641.762	0.01
641.949	-0.03
642.135	0.03
642.322	0.04
642.508	-0.02
642.695	0.02
642.881	-0
643.068	0.01
643.254	0.02
643.441	0.04
643.627	0.01
643.813	-0.02
644	0.05
644.186	0.02
644.372	0.06
644.559	0.06
644.745	-0.01
644.931	0.01
645.118	0.02
645.304	0.01
645.49	0.02
645.676	0
645.862	0.03
646.049	0.07
646.235	0.03
646.421	0.11
646.607	0.08
646.793	0.01
646.979	0.02
647.165	0.03
647.352	0.05
647.538	0.09
647.724	0.06
647.91	0.05
648.096	0.06
648.282	0.09
648.468	0.04
648.654	0.06
648.84	0.05
649.026	-0
649.212	0.05
649.397	0.04
649.583	0.01
649.769	0.05
649.955	0.03
650.141	0.08
650.327	0.08
650.513	0.01
650.698	0.04
650.884	-0.02
651.07	0.05
651.256	0.06
651.442	0.07
651.627	0.08
651.813	0.03
651.999	0.07
652.184	0.07
652.37	0.05
652.556	0.03
652.741	0.11
652.927	0.01
653.113	0.1
653.298	0.08
653.484	0.07
653.669	0.04
653.855	0.03
654.04	0.09
654.226	0.04
654.412	0.06
654.597	0.04
654.782	0.07
654.968	0.11
655.153	0.1
655.339	0.04
655.524	0.03
655.71	0.11
655.895	0.1
656.08	0.06
656.266	0.12
656.451	0.11
656.636	0.05
656.822	0.13
657.007	0.07
657.192	0.08
657.378	0.05
657.563	0.1
657.748	0.11
657.933	0.07
658.118	0.09
658.304	0.09
658.489	0.14
658.674	0.09
658.859	0.07
659.044	0.12
659.229	0.11
659.414	0.1
659.599	0.08
659.785	0.06
659.97	0.13
660.155	0.13
660.34	0.11
660.525	0.09
660.71	0.1
660.895	0.08
661.08	0.08
661.264	0.07
661.449	0.14
661.634	0.14
661.819	0.09
662.004	0.12
662.189	0.05
662.374	0.07
662.559	0.05
662.743	0.03
662.928	0.08
663.113	0.06
663.298	0.03
663.483	0.05
663.667	0.08
663.852	0.02
664.037	0.1
664.221	0.02
664.406	0.08
664.591	0.08
664.775	0.06
664.96	0.06
665.145	0.04
665.329	0.1
665.514	-0.02
665.698	0.06
665.883	-0.03
666.068	0.11
666.252	0.03
666.437	-0.01
666.621	0.04
666.806	0.03
666.99	0.03
667.174	-0.03
667.359	0.09
667.543	0
667.728	0.01
667.912	-0.03
668.096	0.02
668.281	0.01
668.465	-0
668.649	0.01
668.834	-0.04
669.018	-0.01
669.202	-0.01
669.387	0.02
669.571	0.01
669.755	-0.02
669.939	0.01
670.124	0.02
670.308	0.07
670.492	0.04
670.676	0.02
670.86	-0
671.044	-0.05
671.228	0.02
671.413	-0.02
671.597	-0.04
671.781	0
671.965	0.01
672.149	-0
672.333	0.03
672.517	-0
672.701	0.04
672.885	-0.01
673.069	-0.09
673.253	0.03
673.437	-0.04
673.621	-0.05
673.804	0
673.988	0.01
674.172	0.02
674.356	-0.04
674.54	-0.01
674.724	0.11
674.908	0
675.091	0
675.275	-0.02
675.459	-0
675.643	-0.02
675.826	0.02
676.01	0.03
676.194	-0.01
676.377	0.05
676.561	0
676.745	-0.03
676.928	0
677.112	0.07
677.296	-0.04
677.479	-0.03
677.663	-0.05
677.846	0.05
678.03	-0
678.213	-0.05
678.397	-0
678.58	-0.05
678.764	-0.02
678.947	0.01
679.131	-0.07
679.314	-0
679.498	0.01
679.681	0.04
679.865	0.05
680.048	-0.02
680.231	-0.01
680.415	-0.02
680.598	-0
680.781	-0.03
680.965	-0.02
681.148	-0.02
681.331	-0.06
681.514	0.03
681.698	-0.04
681.881	0.01
682.064	-0.02
682.247	0.01
682.43	-0.06
682.614	0.04
682.797	0.02
682.98	0.02
683.163	-0.07
683.346	0.04
683.529	-0.02
683.712	-0.05
683.895	-0.01
684.078	-0.09
684.261	-0.02
684.444	0.02
684.627	0
684.81	-0.02
684.993	-0.02
685.176	0.03
685.359	-0.04
685.542	-0.06
685.725	0.01
685.908	-0.03
686.091	-0.04
686.274	0.07
686.457	0.01
686.639	-0.02
686.822	0
687.005	0.02
687.188	-0.01
687.371	0.06
687.553	-0.01
687.736	-0
687.919	0.03
688.102	0.03
688.284	-0.01
688.467	-0.03
688.65	-0.08
688.832	-0.05
689.015	-0.01
689.197	-0.02
689.38	0.07
689.563	0.06
689.745	-0.03
689.928	-0.02
690.11	-0
690.293	0.01
690.475	-0.05
690.658	-0.03
690.84	-0.02
691.023	-0.03
691.205	-0.01
691.388	0.02
691.57	0.04
691.752	0
691.935	-0.06
692.117	0
692.3	0.02
692.482	0.01
692.664	-0.01
692.847	0.02
693.029	0.06
693.211	0.02
693.393	-0.05
693.576	-0.06
693.758	0
693.94	-0.06
694.122	-0.05
694.304	0.01
694.487	-0.02
694.669	0.05
694.851	-0.06
695.033	0
695.215	-0.01
695.397	-0.07
695.579	0.03
695.761	-0.04
695.943	-0.09
696.125	0.04
696.308	0.03
696.49	-0.06
696.671	0.06
696.853	-0.03
697.035	0.09
697.217	-0.01
697.399	0.08
697.581	-0.09
697.763	-0
697.945	-0.05
698.127	-0.03
698.309	0.06
698.491	-0.02
698.672	0.05
698.854	0.02
699.036	0.03
699.218	0
699.399	0.01
699.581	0.04
699.763	0.03
699.945	-0.05
700.126	-0.05
700.308	0.01
700.49	0
700.671	-0.12
700.853	-0.03
701.035	-0.04
701.216	-0.04
701.398	-0.03
701.579	0.01
701.761	0.03
701.943	-0.09
702.124	0.02
702.306	-0.04
702.487	0.14
702.669	0
702.85	-0.06
703.031	-0.05
703.213	0.03
703.394	0.05
703.576	-0.02
703.757	0.08
703.938	0.05
704.12	0.09
704.301	-0.03
704.483	-0.01
704.664	0.01
704.845	0.08
705.026	0.04
705.208	-0.07
705.389	0.01
705.57	0.04
705.751	-0.01
705.933	-0.01
706.114	0.06
706.295	-0.01
706.476	-0.11
706.657	0.03
706.838	0.01
707.02	-0.03
707.201	-0.06
707.382	0
707.563	0.02
707.744	-0.02
707.925	-0.02
708.106	-0.05
708.287	0.05
708.468	0.05
708.649	-0.01
708.83	0.05
709.011	0.03
709.192	-0.01
709.373	-0.03
709.554	-0.01
709.734	0.02
709.915	0.05
710.096	-0.02
710.277	-0.07
710.458	0.01
710.639	0.04
710.819	-0.11
711	-0.02
711.181	0.03
711.362	0.02
711.542	0.02
711.723	-0.02
711.904	0.03
712.085	0.03
712.265	0.06
712.446	0
712.627	-0.02
712.807	-0.02
712.988	-0.01
713.168	-0.06
713.349	0.03
713.53	-0.11
713.71	-0.05
713.891	-0.1
714.071	0.05
714.252	0.03
714.432	-0.02
714.613	-0.12
714.793	0.01
714.974	0.08
715.154	0.07
715.334	0.08
715.515	0.05
715.695	-0.07
715.876	0.05
716.056	-0.06
716.236	-0.02
716.417	-0.06
716.597	-0.06
716.777	0.09
716.957	-0.01
717.138	0.03
717.318	0.06
717.498	-0.04
717.678	0.01
717.859	0.09
718.039	-0.09
718.219	0.04
718.399	0.07
718.579	-0.05
718.759	-0.04
718.939	0.08
719.12	0.04
719.3	0.06
719.48	-0.18
719.66	-0.15
719.84	0.07
720.02	0.01
720.2	-0.03
720.38	0.03
720.56	0.14
720.74	0.04
720.92	-0.08
721.1	0.14
721.279	0.1
721.459	0.07
721.639	-0.04
721.819	0.1
721.999	0.03
722.179	0.06
722.359	-0.01
722.538	0.04
722.718	0.06
722.898	0.01
723.078	0.03
723.257	0.01
723.437	-0
723.617	0.03
723.797	-0.02
723.976	-0
724.156	0.05
724.336	0.13
724.515	0.23
724.695	-0.07
724.874	0.03
725.054	0.06
725.234	0.01
725.413	0.01
725.593	0.02
725.772	-0.01
725.952	-0.01
726.131	-0.04
726.311	-0
726.49	0.05
726.67	0.04
726.849	-0.01
727.028	0.04
727.208	0.06
727.387	0.02
727.567	-0.06
727.746	0.1
727.925	-0.03
728.105	-0.05
728.284	0.07
728.463	-0.01
728.643	0.05
728.822	-0.03
729.001	0.09
729.18	0.02
729.359	0.1
729.539	0.05
729.718	0.05
729.897	0.04
730.076	0.03
730.255	-0.08
730.434	0.07
730.614	0.06
730.793	0.09
730.972	0.05
731.151	0.05
731.33	0.19
731.509	0.11
731.688	-0.03
731.867	0.14
732.046	0.01
732.225	0.24
732.404	-0
732.583	-0.03
732.762	0.11
732.941	0.1
733.12	0.06
733.298	0.03
733.477	0.13
733.656	0.06
733.835	0.01
734.014	0.17
734.193	0.03
734.371	0.2
734.55	0.16
734.729	-0.02
734.908	0.07
735.086	0.18
735.265	0.12
735.444	-0.06
735.623	0.04
735.801	0.07
735.98	0.09
736.159	0
736.337	0.05
736.516	0.09
736.694	0.1
736.873	0.08
737.052	0.18
737.23	0.12
737.409	-0.01
737.587	0.18
737.766	-0.14
737.944	0.01
738.123	0.16
738.301	0.07
738.479	0.09
738.658	0.16
738.836	-0.02
739.015	0.19
739.193	0.18
739.371	-0.08
739.55	0.07
739.728	-0.02
739.906	0.2
740.085	0.2
740.263	0.07
740.441	-0.03
740.62	0.15
740.798	0.13
740.976	0.02
741.154	-0.04
741.332	0.19
741.511	-0.01
741.689	0.09
741.867	0.15
742.045	0.04
742.223	0.13
742.401	-0.09
742.579	-0.06
742.757	0.02
742.935	-0.05
743.114	-0.1
743.292	0.1
743.47	0.12
743.648	-0.02
743.826	0.09
744.004	0.09
744.181	-0.04
744.359	0.02
744.537	0.04
744.715	0.03
744.893	0.01
745.071	0.04
745.249	-0
745.427	0.05
745.605	0.08
745.782	-0.02
745.96	0.1
746.138	-0.01
746.316	0.07
746.493	-0.01
746.671	0.07
746.849	0.05
747.027	0.18
747.204	0
747.382	0.08
747.56	-0.08
747.737	-0
747.915	-0.04
748.093	0.17
748.27	-0.09
748.448	0.05
748.625	0.04
748.803	-0.04
748.98	0.02
749.158	0.01
749.335	0.07
749.513	-0.06
749.69	-0.04
749.868	-0.04
750.045	-0.07
750.223	-0.09
750.4	-0.2
750.578	0.18
750.755	0.03
750.932	-0.13
751.11	0.13
751.287	-0.23
751.464	0.13
751.642	-0.06
751.819	0.08
751.996	0.09
752.173	-0.03
752.351	-0.09
752.528	-0.04
752.705	-0.09
752.882	-0.05
753.06	0.03
753.237	-0.03
753.414	0.16
753.591	0.06
753.768	-0.05
753.945	-0.06
754.122	-0.16
754.299	0.02
754.476	-0.04
754.654	-0.04
754.831	0.04
755.008	0.04
755.185	0.02
755.362	-0.14
755.539	0.13
755.716	-0.18
755.892	-0.05
756.069	-0.07
756.246	-0.06
756.423	-0.02
756.6	0.11
756.777	-0.07
756.954	0.16
757.131	-0.04
757.307	-0.2
757.484	-0.17
757.661	-0.04
757.838	0.02
758.015	-0.22
758.191	0.09
758.368	0.02
758.545	0.07
758.721	-0.02
758.898	-0.06
759.075	0.12
759.251	-0.03
759.428	0.11
759.605	-0.03
759.781	-0.04
759.958	-0
760.134	-0.08
760.311	0.05
760.488	0.05
760.664	0.24
760.841	-0.06
761.017	-0.06
761.194	0.08
761.37	0.05
761.547	0.13
761.723	0.08
761.899	0.07
762.076	-0.01
762.252	-0.05
762.429	-0.02
762.605	0.04
762.781	-0.1
762.958	0.13
763.134	-0.05
763.31	-0.02
763.486	0.04
763.663	-0.22
763.839	0.07
764.015	-0.25
764.191	-0.08
764.368	0.01
764.544	-0.11
764.72	0.01
764.896	0.06
765.072	-0.08
765.248	-0.01
765.425	0.02
765.601	-0.06
765.777	0.02
765.953	-0.25
766.129	0.01
766.305	-0.07
766.481	-0.04
766.657	0.08
766.833	0.05
767.009	-0.11
767.185	-0.1
767.361	-0.09
767.537	-0.24
767.713	-0.02
767.889	-0.02
768.065	0.01
768.24	-0.09
768.416	0.02
768.592	-0.11
768.768	-0.07
768.944	-0.02
769.12	-0.13
769.295	-0.22
769.471	-0.07
769.647	0.03
769.823	0.04
769.998	-0.11
770.174	-0.15
770.35	0.29
770.525	0.2
770.701	-0.03
770.877	-0.09
771.052	-0.06
771.228	0.06
771.403	0.11
771.579	0
771.755	0.15
771.93	-0.07
772.106	-0.12
772.281	-0.01
772.457	-0.07
772.632	0.09
772.808	-0.11
772.983	-0.04
773.159	-0.12
773.334	0.06
773.509	-0.05
773.685	-0.03
773.86	0.33
774.036	0.19
774.211	0
774.386	-0.02
774.562	0
774.737	-0.01
774.912	-0.18
775.087	0.02
775.263	0.01
775.438	-0.02
775.613	-0.18
775.788	-0.06
775.964	0.03
776.139	0.3
776.314	-0.19
776.489	-0.02
776.664	-0.08
776.839	0
777.014	0.12
777.19	-0.07
777.365	-0.07
777.54	0.17
777.715	-0.09
777.89	0.04
778.065	-0.15
778.24	-0.04
778.415	0.14
778.59	-0.17
778.765	-0.15
778.94	0.03
779.115	-0.05
779.289	-0.05
779.464	0.03
779.639	0.04
779.814	-0.19
779.989	-0.13
780.164	0.09
780.339	-0.07
780.513	-0.11
780.688	-0.11
780.863	-0.22
781.038	0.04
781.212	-0.26
781.387	-0.1
781.562	0.29
781.737	0.09
781.911	0.05
782.086	-0.26
782.261	0.03
782.435	0.2
782.61	-0.08
782.784	-0.12
782.959	0.11
783.134	-0.11
783.308	-0.46
783.483	-0.15
783.657	0.21
783.832	-0.06
784.006	-0.19
784.181	-0.02
784.355	0.05
784.53	-0.02
784.704	-0.22
784.878	0.27
785.053	0.07
785.227	0.04
785.402	0.34
785.576	-0.2
785.75	-0.17
785.925	-0.06
786.099	-0.13
786.273	-0.06
786.448	0.04
786.622	-0.16
786.796	-0.02
786.97	0.03
787.145	0.37
787.319	-0.17
787.493	-0.04
787.667	-0.21
787.841	-0.24
788.015	0.16
788.19	-0.16
788.364	-0.04
788.538	0.15
788.712	0.02
788.886	-0.2
789.06	0.16
789.234	-0.07
789.408	-0.17
789.582	-0.04
789.756	-0.09
789.93	-0.33
790.104	0.11
790.278	-0.08
790.452	-0.22
790.626	0
790.8	-0.12
790.973	0.05
791.147	0.32
791.321	0.11
791.495	0.16
791.669	-0
791.843	0.04
792.016	0.13
792.19	0.22
792.364	-0.26
792.538	0.33
792.711	0.09
792.885	-0.1
793.059	0.08
793.233	-0.42
793.406	0.03
793.58	0.04
793.754	-0.04
793.927	0.13
794.101	0.05
794.274	0.27
794.448	0.16
794.622	-0.1
794.795	0.17
794.969	-0.3
795.142	0.33
795.316	0.09
795.489	-0.2
795.663	0.29
795.836	-0.06
796.009	-0.3
796.183	-0.1
796.356	0.17
796.53	-0.01
796.703	-0.42
796.876	0.54
797.05	-0.2
797.223	-0.02
797.396	-0.08
797.57	0.23
797.743	0.37
797.916	-0.11
798.09	-0.11
798.263	0.05
798.436	0.2
798.609	-0.16
798.782	-0.08
798.956	-0.02
799.129	0.05
799.302	-0.04
799.475	-0.27
799.648	-0.16
799.821	-0.05
799.994	0.2
800.167	-0.27
800.34	0.04
800.514	0.13
800.687	-0.02
800.86	-0.06
801.033	-0.23
801.206	-0.08
801.379	-0.1
801.551	0.02
801.724	0.05
801.897	0.56
802.07	0.1
802.243	-0.55
802.416	-0.06
802.589	-0.19
802.762	-0.01
802.935	-0.01
803.107	0.08
803.28	0.17
803.453	0.23
803.626	-0.2
803.798	-0.07
803.971	-0.23
804.144	-0.11
804.317	0.09
804.489	0.17
804.662	-0.1
804.835	-0.05
805.007	-0.23
805.18	0.48
805.353	0.03
805.525	-0.33
805.698	-0.03
805.87	0.39
806.043	-0.04
806.215	-0.25
806.388	-0.29
806.56	0.31
806.733	0.45
806.905	-0.17
807.078	-0.07
807.25	-0.43
807.423	0.12
807.595	0.06
807.768	-0.02
807.94	0.18
808.112	-0.17
808.285	-0.05
808.457	-0.21
808.629	-0.27
808.802	0.28
808.974	-0.21
809.146	-0.35
809.318	-0.24
809.491	-0.02
809.663	0.02
809.835	-0.37
810.007	0.02
810.18	-0.05
810.352	-0.35
810.524	-0.3
810.696	-0.02
810.868	0.17
811.04	0.04
811.212	-0.36
811.384	-0.12
811.556	-0.12
811.728	0.27
811.901	0.38
812.073	-0.08
812.245	-0.03
812.417	-0.16
812.589	-0.42
812.76	-0.16
812.932	0.06
813.104	0.26
813.276	0.18
813.448	0.47
813.62	-0.29
813.792	0.06
813.964	-0.08
814.136	0.2
814.307	-0.31
814.479	-0.03
814.651	-0.33
814.823	0.82
814.995	-0.1
815.166	0.24
815.338	-0.01
815.51	-0.13
815.681	1.07
815.853	-0.18
816.025	-0.33
816.196	0.2
816.368	0.28
816.54	-0
816.711	-0.42
816.883	-0.28
817.054	0.74
817.226	-0.64
817.398	0.03
817.569	-0.5
817.741	-0.27
817.912	-0.15
818.084	-0.13
818.255	-0.12
818.426	-0.48
818.598	-0.07
818.769	-0.21
818.941	0.2
819.112	0.63
819.283	-0.15
819.455	-0.09
819.626	-0.14
819.798	0.18
819.969	-0.03
820.14	-0.29
820.311	-0.45
820.483	0.53
820.654	0.27
820.825	0.08
820.996	-0.16
821.168	-0.64
821.339	-0.45
821.51	-0.54
821.681	-0.44
821.852	-0.05
822.023	0.03
822.195	-0.57
822.366	0.33
822.537	-0.21
822.708	0.21
822.879	-0.11
823.05	0.24
823.221	0.12
823.392	0.35
823.563	-0.31
823.734	-0.07
823.905	0.13
824.076	0.03
824.247	-0.48
824.418	-0.39
824.589	0.24
824.759	0.43
824.93	0.11
825.101	-0.78
825.272	0.56
825.443	0.57
825.614	1.01
825.784	-0.52
825.955	0.63
826.126	0.27
826.297	0.11
826.467	0.59
826.638	0.95
826.809	-0.59
826.98	-0.21
827.15	0.26
827.321	-0.16
827.492	0.29
827.662	0.02
827.833	0.79
828.003	-0.33
828.174	-1.12
828.345	-0.61
828.515	0.34
828.686	0.38
828.856	-0.41
829.027	0.03
829.197	-0.71
829.368	0.9
829.538	-0.11
829.709	-0.02
829.879	0.43
830.049	-0.28
830.22	0.31
830.39	-0.06
830.56	-0.15
830.731	-0.61
830.901	-0.43
831.072	0.05
831.242	0.04
831.412	-0.22
831.582	-0.41
831.753	-0.93
831.923	0.64
832.093	0.03
832.263	-0.4
832.434	-1.03
832.604	-0.32
832.774	0.66
832.944	-0.1
833.114	-0.1
833.284	-0.31
833.454	-1.02
833.624	-0.29
833.795	-0.08
833.965	0.61
834.135	0.43
834.305	-0.48
834.475	-0.55
834.645	-0.2
834.815	0.65
834.985	-0.94
835.155	-0.66
835.325	-0.3
835.494	-0.12
835.664	0.38
835.834	-1
836.004	0.25
836.174	0.17
836.344	-0.26
836.514	-0.79
836.684	-0.42
836.853	-0.19
837.023	-0.07
837.193	-0.64
837.363	0.21
837.532	0.06
837.702	-0.56
837.872	-0.16
838.041	-0
838.211	0.63
838.381	-0.64
838.55	-0.34
838.72	1.57
838.89	1.05
839.059	-0.03
839.229	-0.63
839.398	0.82
839.568	0.27
839.738	0.11
839.907	0.89
840.077	-0.14
840.246	-0.64
840.416	-0.87
840.585	-0.63
840.755	0.71
840.924	0.62
841.093	-0.71
841.263	-0.33
841.432	0.5
841.602	-0.79
841.771	-0.77
841.94	-0.19
842.11	1.68
842.279	1.16
842.448	-0.37
842.617	0.03
842.787	1.1
842.956	-0.62
843.125	0.24
843.294	0.73
843.464	0.31
843.633	-0.6
843.802	-0.98
843.971	0.48
844.14	-0.01
844.309	0.35
844.479	-0.97
844.648	-0.7
844.817	0.21
844.986	0.02
845.155	-0.72
845.324	0.01
845.493	-0.35
845.662	-0.87
845.831	-0.29
846	0.33
846.169	0.1
846.338	1.02
846.507	0.11
846.676	0.38
846.844	-0.11
847.013	-0.26
847.182	0.81
847.351	-0.18
847.52	0.05
847.689	-0.94
847.858	-0.14
848.026	-1.01
848.195	-0.13
848.364	-0.43
848.533	-0.64
848.701	-0.56
848.87	-0.7
849.039	0.28
849.207	0.91
849.376	0.78
849.545	0.93
849.713	-0.18
849.882	-0.94
850.051	-0.18
850.219	-0.39
850.388	0.66
850.556	-1.62
850.725	-0.42
850.893	0.52
851.062	0.14
851.23	0.22
851.399	-1.44
851.567	-0.78
851.736	0.88
851.904	-0.75
852.073	-0.87
852.241	0.47
852.41	-0.51
852.578	0.07
852.746	-0.01
852.915	0.66
853.083	-0.35
853.251	-0.43
853.42	-0.27
853.588	-0.38
853.756	1.58
853.924	-0.11
854.093	0.05
854.261	0.42
854.429	-0.83
854.597	0.7
854.765	-0.63
854.934	-0.24
855.102	1.31
855.27	-0.57
855.438	-0.49
855.606	0.71
855.774	0.37
855.942	-1.22
856.11	-1.5
856.278	-0.05
856.446	0.41
856.614	-0.09
856.782	-1.22
856.95	0.54
857.118	0.12
857.286	0.1
857.454	-0.22
857.622	1.14
857.79	1.47
857.958	-0.52
858.126	-0.06
858.294	-3.17
858.462	-0.47
858.629	-0.56
858.797	-0.46
858.965	-0.56
859.133	-0.31
859.301	-0.46
859.468	-0.78
859.636	-1.49
859.804	1.3
859.971	0.97
860.139	-0.42
860.307	1.63
860.474	-0.4
860.642	-0.38
860.81	-0.7
860.977	-1.37
861.145	1.51
861.313	0.55
861.48	0.63
861.648	0.47
861.815	-0.27
861.983	-1.73
862.15	0.16
862.318	1.7
862.485	2.04
862.653	-0.39
862.82	-1.01
862.988	1.04
863.155	1.14
863.322	-0.49
863.49	-1.04
863.657	-0.83
863.824	1.67
863.992	0.65
864.159	0.03
864.326	1.9
864.494	-1.31
864.661	1.7
864.828	-2.43
864.996	0.2
865.163	0.46
865.33	-2
865.497	-2.07
865.664	-0.37
865.832	-1.65
865.999	-1.03
866.166	-2.23
866.333	-0.99
866.5	-0.32
866.667	-2.04
866.834	-0.11
867.001	1.69
867.168	-1.57
867.335	0.38
867.502	-2.23
867.669	0.11
867.836	2.47
868.003	-0.63
868.17	0.38
868.337	-2.06
868.504	1.98
868.671	-1.66
868.838	0.04
869.005	0.08
869.172	0.72
869.339	-1.04
869.505	0.29
869.672	-1.94
869.839	2.21
870.006	-0.15
870.173	-1.95
870.339	1.39
870.506	2.63
870.673	-2.59
870.84	0.49
871.006	0.51
871.173	-0.27
871.34	-1.78
871.506	-1.82
871.673	0.67
871.839	-1.58
872.006	0.94
872.173	-0.73
872.339	-0.23
872.506	1.12
872.672	-0.61
872.839	-2.67
873.005	-0.13
873.172	3.07
873.338	0.04
873.505	-0.83
873.671	0.12
873.838	0.41
874.004	-1.98
874.171	-0.05
874.337	-0.22
874.503	1.38
874.67	-0.05
874.836	-0.3
875.002	2.91
875.169	1.66
875.335	-0.5
875.501	-0.13
875.668	0.64
875.834	-0.01
876	-1.24
876.166	0.17
876.332	-0.59
876.499	2.82
876.665	-1.37
876.831	1.83
876.997	1.87
877.163	0.8
877.329	-1.93
877.495	0.35
877.662	0.74
877.828	0.68
877.994	-0.14
878.16	-1.66
878.326	-0.12
878.492	-1.59
878.658	-0.57
878.824	1.47
878.99	1.12
879.156	-0.16
879.322	2.13
879.487	1.56
879.653	-0.2
879.819	-0.55
879.985	-1.8
880.151	1.11
880.317	0.08
880.483	1.43
880.648	1.78
880.814	-1.45
880.98	2.2
881.146	-1.8
881.312	-0.29
881.477	-0.18
881.643	-1.12
881.809	1.61
881.974	1.75
882.14	-1.18
882.306	-1.46
882.471	1.53
882.637	-0.99
882.803	0.25
882.968	2.25
883.134	3.26
883.299	-0.54
883.465	1.07
883.63	1.07
883.796	0.81
883.961	0.59
884.127	0.38
884.292	-2.17
884.458	-3.08
884.623	-3.07
