Data from Apollo_Calib_20240827__AbsoluteIrradiance__379__05-28-02-301.txt Node

Date: Wed Aug 28 05:28:02 BST 2024
User: biology
Spectrometer: FLMT08252
Trigger mode: 0
Integration Time (sec): 5.000000E-1
Scans to average: 5
Electric dark correction enabled: true
Nonlinearity correction enabled: false
Boxcar width: 0
XAxis mode: Wavelengths
Number of Pixels in Spectrum: 3648
>>>>>Begin Spectral Data<<<<<
179.588	-0
179.809	-0
180.03	-0
180.251	-0
180.473	-0
180.694	0
180.915	0
181.136	-0
181.357	0
181.578	-0
181.799	0
182.02	-0
182.241	-0
182.462	-0
182.683	0
182.904	-0
183.125	0
183.346	0
183.567	0
183.788	0
184.009	-0
184.23	0
184.451	0
184.672	-0
184.892	-0
185.113	-0
185.334	0
185.555	-0
185.776	-0
185.996	-0
186.217	0
186.438	-0
186.659	-0
186.879	0
187.1	-0
187.321	-0
187.541	-0
187.762	-0
187.983	-0
188.203	-0
188.424	-0
188.644	-0
188.865	-0
189.086	-0
189.306	-0
189.527	0
189.747	0
189.968	-0
190.188	0
190.409	0
190.629	-0
190.849	-0
191.07	-0
191.29	0
191.511	-0
191.731	-0
191.951	-0
192.172	-0
192.392	-0
192.612	-0
192.833	-0
193.053	0
193.273	0
193.493	-0
193.714	-0
193.934	0
194.154	0
194.374	-0
194.594	-0
194.815	-0
195.035	-0
195.255	0
195.475	-0
195.695	0
195.915	0
196.135	-0
196.355	0
196.575	0
196.795	-0
197.015	-0
197.235	-0
197.455	-0
197.675	0
197.895	-0
198.115	-0
198.335	-0
198.555	-0
198.775	-0
198.995	-0
199.214	0
199.434	-0
199.654	-0
199.874	-0
200.094	-0.02
200.313	-0.51
200.533	-0.53
200.753	-1.1
200.973	0.32
201.192	0.21
201.412	-1.05
201.632	-0.42
201.851	0.94
202.071	-0.5
202.291	-0.53
202.51	-0.88
202.73	0.49
202.95	-0.29
203.169	-1.16
203.389	-0.51
203.608	0.24
203.828	-0.57
204.047	-0.68
204.267	0.03
204.486	-0.05
204.706	-0.07
204.925	-0.33
205.145	-0.39
205.364	0.09
205.583	0.51
205.803	-0.59
206.022	-0.68
206.242	0.3
206.461	-0.2
206.68	-0.72
206.9	-0.05
207.119	0.39
207.338	0.47
207.557	-0.3
207.777	-0.51
207.996	0.04
208.215	0.06
208.434	-0.43
208.654	-0.55
208.873	0.01
209.092	0.33
209.311	-0.23
209.53	-0.12
209.749	-0.28
209.968	-0.43
210.187	-0.23
210.407	-0.59
210.626	-0.04
210.845	0.14
211.064	0.04
211.283	-0.59
211.502	-0.01
211.721	0
211.94	-0.04
212.159	0.02
212.377	0.06
212.596	0.23
212.815	-0.1
213.034	0.04
213.253	0.14
213.472	0.04
213.691	-0.4
213.91	-0.29
214.128	-0.28
214.347	0.46
214.566	-0.6
214.785	-0.42
215.003	-0.03
215.222	-0.07
215.441	-0.08
215.66	-0.31
215.878	-0.12
216.097	0
216.316	-0.37
216.534	-0.25
216.753	0.16
216.972	-0.34
217.19	-0.22
217.409	-0.24
217.627	-0.46
217.846	-0.1
218.064	-0.08
218.283	-0.33
218.501	0.35
218.72	0.23
218.938	-0.35
219.157	-0.06
219.375	0.06
219.594	0.17
219.812	-0.38
220.031	-0.22
220.249	0.33
220.467	0.31
220.686	-0.23
220.904	-0.37
221.122	-0.15
221.341	0.32
221.559	-0.09
221.777	-0.28
221.995	-0.25
222.214	0.05
222.432	-0.13
222.65	0.07
222.868	0.01
223.086	-0.03
223.305	0.03
223.523	-0.08
223.741	0.28
223.959	-0.2
224.177	-0.42
224.395	-0.17
224.613	-0
224.831	0.03
225.049	-0.27
225.267	-0.13
225.485	0.02
225.703	-0.22
225.921	-0.18
226.139	-0.13
226.357	0.16
226.575	0.01
226.793	-0.03
227.011	0.57
227.229	-0.02
227.447	0.08
227.665	-0.24
227.883	-0.27
228.1	-0.1
228.318	-0.13
228.536	-0.33
228.754	-0.22
228.972	0.08
229.189	0.09
229.407	-0.09
229.625	-0.21
229.843	0.08
230.06	0.1
230.278	-0.17
230.496	-0.07
230.713	-0
230.931	0.1
231.149	-0.19
231.366	-0.24
231.584	-0.13
231.801	0.33
232.019	-0.05
232.236	-0.21
232.454	-0.15
232.671	-0.02
232.889	-0.07
233.106	-0.09
233.324	-0.07
233.541	-0.08
233.759	-0.08
233.976	-0.19
234.194	0.01
234.411	-0.07
234.628	-0.05
234.846	-0.16
235.063	-0.1
235.28	-0.04
235.498	0.07
235.715	-0.13
235.932	0.06
236.149	-0.06
236.367	-0.15
236.584	-0.07
236.801	-0.11
237.018	0.09
237.236	-0.07
237.453	-0.23
237.67	-0
237.887	-0.09
238.104	-0
238.321	-0.25
238.538	-0.16
238.755	0.1
238.973	-0.17
239.19	-0.04
239.407	-0.05
239.624	-0.02
239.841	-0.11
240.058	-0.07
240.275	-0.02
240.492	-0.04
240.709	-0.08
240.925	-0.12
241.142	-0.11
241.359	-0.11
241.576	-0.15
241.793	-0.12
242.01	-0.06
242.227	0.11
242.444	-0.05
242.66	0.04
242.877	-0.09
243.094	-0.13
243.311	-0.02
243.527	-0.08
243.744	0.04
243.961	0.1
244.178	-0.11
244.394	-0.09
244.611	0.11
244.828	0.03
245.044	-0.12
245.261	-0.03
245.477	-0
245.694	-0.04
245.911	-0.03
246.127	-0.1
246.344	0.17
246.56	0.06
246.777	-0.14
246.993	-0.12
247.21	-0.05
247.426	-0.06
247.643	-0.11
247.859	-0.13
248.076	-0.14
248.292	0.16
248.508	-0.1
248.725	0.03
248.941	-0.03
249.157	0.05
249.374	-0.1
249.59	-0
249.806	-0.04
250.023	-0.02
250.239	-0.2
250.455	-0.12
250.671	-0.06
250.888	0.01
251.104	-0.06
251.32	-0.05
251.536	-0.08
251.752	-0.01
251.969	-0.04
252.185	-0.06
252.401	0.15
252.617	-0.05
252.833	-0.09
253.049	-0.1
253.265	0.04
253.481	-0.02
253.697	-0.15
253.913	-0.1
254.129	-0
254.345	0.02
254.561	-0.06
254.777	-0.03
254.993	0.05
255.209	-0.07
255.425	-0.08
255.641	-0.15
255.857	0.08
256.073	-0.08
256.288	-0.19
256.504	-0.06
256.72	-0.03
256.936	0.07
257.152	-0.04
257.367	-0.07
257.583	-0.05
257.799	0.08
258.015	-0.17
258.23	-0.12
258.446	0.09
258.662	-0.01
258.877	-0.06
259.093	-0.12
259.309	-0.04
259.524	0.02
259.74	-0.06
259.955	-0.02
260.171	-0
260.387	-0.03
260.602	0.08
260.818	-0.02
261.033	-0.06
261.249	-0.04
261.464	-0.09
261.68	-0.16
261.895	-0.02
262.11	0.05
262.326	-0.09
262.541	-0.12
262.757	0.02
262.972	-0.01
263.187	-0.01
263.403	-0.03
263.618	0.04
263.833	-0.04
264.049	-0.17
264.264	-0.12
264.479	0.03
264.694	0.1
264.91	-0.13
265.125	-0.04
265.34	0.02
265.555	0.14
265.77	0.03
265.986	-0.12
266.201	0.04
266.416	0.11
266.631	-0.12
266.846	-0.04
267.061	0.04
267.276	0.04
267.491	-0.13
267.706	0
267.921	-0.05
268.136	-0.01
268.351	-0.04
268.566	-0.12
268.781	0.07
268.996	0.05
269.211	-0.01
269.426	-0.07
269.641	-0.01
269.856	0.04
270.071	-0.11
270.285	-0.11
270.5	0.02
270.715	0.07
270.93	-0.01
271.145	0.01
271.359	0
271.574	-0.01
271.789	-0.03
272.004	0
272.218	-0.05
272.433	0.06
272.648	-0.07
272.862	0.04
273.077	-0.01
273.292	0.03
273.506	-0.05
273.721	-0.07
273.936	0
274.15	0.02
274.365	-0.07
274.579	-0
274.794	0.1
275.008	0.04
275.223	-0.09
275.437	-0.04
275.652	-0.03
275.866	0.02
276.081	-0
276.295	0.01
276.509	0.04
276.724	-0.02
276.938	-0
277.153	0.04
277.367	-0.01
277.581	-0.08
277.796	-0.05
278.01	-0.07
278.224	0.01
278.438	0.07
278.653	-0.11
278.867	-0.05
279.081	-0.18
279.295	-0.03
279.51	0.01
279.724	-0.1
279.938	0.04
280.152	0.03
280.366	-0.05
280.58	-0.03
280.794	0.13
281.008	0.03
281.222	0.08
281.437	0.03
281.651	-0.07
281.865	0.07
282.079	-0.06
282.293	-0.12
282.507	-0.06
282.721	-0.09
282.935	-0.07
283.148	-0.12
283.362	-0.06
283.576	-0.11
283.79	-0.04
284.004	-0.07
284.218	0.03
284.432	-0.04
284.646	-0.04
284.859	-0.05
285.073	-0.05
285.287	-0.03
285.501	-0.02
285.714	-0.05
285.928	-0.02
286.142	0.02
286.356	-0.09
286.569	-0.01
286.783	0.13
286.997	0.02
287.21	-0.04
287.424	0.02
287.637	-0.02
287.851	-0.02
288.065	0.05
288.278	-0.05
288.492	-0.01
288.705	-0.04
288.919	-0.02
289.132	-0.05
289.346	0.03
289.559	-0.09
289.773	-0.04
289.986	-0
290.2	-0.05
290.413	0.01
290.626	-0.09
290.84	-0.04
291.053	-0.01
291.267	0.04
291.48	-0.01
291.693	0.02
291.906	-0.06
292.12	-0.04
292.333	-0.03
292.546	-0.01
292.76	0.07
292.973	0.02
293.186	0.02
293.399	-0.04
293.612	0.04
293.826	-0.01
294.039	-0.05
294.252	-0.03
294.465	-0.02
294.678	0.02
294.891	-0
295.104	-0.05
295.317	-0.03
295.53	-0.03
295.743	-0
295.956	-0
296.169	0.08
296.382	0.05
296.595	0.01
296.808	-0.12
297.021	0.05
297.234	0.03
297.447	0
297.66	-0.03
297.873	0.04
298.086	0.01
298.299	-0.09
298.511	-0.08
298.724	-0.03
298.937	-0.1
299.15	-0.04
299.363	-0
299.575	0.01
299.788	0.06
300.001	-0.03
300.213	-0.02
300.426	-0.05
300.639	-0.04
300.852	-0.04
301.064	0.07
301.277	0.06
301.489	0.03
301.702	0.01
301.915	-0.03
302.127	-0.01
302.34	-0.03
302.552	0.04
302.765	-0.05
302.977	0.02
303.19	-0.01
303.402	-0.03
303.615	-0.01
303.827	-0.01
304.04	-0.01
304.252	0.02
304.464	-0.01
304.677	0.13
304.889	0.01
305.102	-0.06
305.314	-0.07
305.526	0.06
305.739	0.01
305.951	-0.06
306.163	-0.04
306.375	0.1
306.588	-0.04
306.8	-0.01
307.012	-0.05
307.224	0
307.436	0.07
307.649	-0.1
307.861	0.03
308.073	0.04
308.285	-0.02
308.497	-0.07
308.709	-0.03
308.921	0.01
309.133	0.05
309.346	0
309.558	-0
309.77	0.01
309.982	0.05
310.194	0.06
310.406	-0.07
310.617	0.1
310.829	0
311.041	0.05
311.253	-0.07
311.465	-0
311.677	-0
311.889	-0.03
312.101	-0.02
312.313	0.04
312.524	0.02
312.736	-0.05
312.948	-0.04
313.16	0.05
313.372	-0.04
313.583	-0.02
313.795	-0.01
314.007	-0.11
314.218	0.07
314.43	0.02
314.642	-0.04
314.853	-0.07
315.065	-0.01
315.277	0.01
315.488	0.01
315.7	0.02
315.912	0.01
316.123	-0
316.335	-0.01
316.546	0.1
316.758	-0.02
316.969	-0
317.181	-0
317.392	0.01
317.604	0.01
317.815	-0.07
318.026	-0.01
318.238	-0.01
318.449	0.01
318.661	-0.09
318.872	-0.08
319.083	-0.02
319.295	0
319.506	-0.05
319.717	0
319.929	0.01
320.14	0.01
320.351	0.01
320.562	-0.05
320.774	-0.03
320.985	-0.01
321.196	-0.05
321.407	-0.07
321.618	0.05
321.829	0
322.041	-0.01
322.252	-0.03
322.463	-0.01
322.674	0.06
322.885	-0.05
323.096	-0.06
323.307	-0.03
323.518	0.03
323.729	-0.06
323.94	-0.05
324.151	0.01
324.362	0.01
324.573	0.03
324.784	-0.08
324.995	0.02
325.206	0.01
325.417	-0.05
325.628	-0.02
325.838	-0.02
326.049	0
326.26	0.02
326.471	-0.04
326.682	0.04
326.892	-0.03
327.103	-0.09
327.314	-0.02
327.525	0.04
327.735	-0.02
327.946	-0.05
328.157	-0.05
328.368	0
328.578	-0.01
328.789	-0.02
328.999	0
329.21	-0.04
329.421	0.01
329.631	-0.05
329.842	-0.05
330.052	0.02
330.263	0.03
330.473	-0
330.684	-0.03
330.894	-0
331.105	-0.01
331.315	0.03
331.526	-0.1
331.736	0.07
331.947	0.03
332.157	0.03
332.367	-0.1
332.578	0.07
332.788	0.03
332.999	0
333.209	-0.01
333.419	-0.06
333.629	0.03
333.84	0.02
334.05	-0.01
334.26	0.03
334.47	-0.02
334.681	-0
334.891	-0.05
335.101	-0.01
335.311	0.05
335.521	0.03
335.732	-0.08
335.942	0.02
336.152	0.05
336.362	-0.01
336.572	-0.02
336.782	0.03
336.992	-0.02
337.202	-0.03
337.412	-0.06
337.622	0
337.832	0
338.042	-0.03
338.252	-0.02
338.462	-0.04
338.672	0
338.882	-0
339.092	-0.05
339.302	0.08
339.511	0.04
339.721	-0.06
339.931	-0.05
340.141	0.04
340.351	0.07
340.561	-0
340.77	-0.02
340.98	-0.02
341.19	0.03
341.4	0
341.609	-0.06
341.819	-0.04
342.029	-0.08
342.238	-0.01
342.448	-0.08
342.658	0.01
342.867	-0.01
343.077	0.01
343.286	0.02
343.496	-0.04
343.706	0.05
343.915	-0.03
344.125	-0.02
344.334	-0.02
344.544	-0.06
344.753	0
344.963	-0.03
345.172	-0.04
345.381	-0.08
345.591	-0.06
345.8	0
346.01	0.02
346.219	0.02
346.428	-0.18
346.638	-0.02
346.847	-0.06
347.056	0.06
347.266	-0.05
347.475	-0.04
347.684	0.01
347.893	0.02
348.103	-0.03
348.312	-0.04
348.521	-0.02
348.73	-0
348.94	-0
349.149	-0.04
349.358	0.03
349.567	-0.05
349.776	-0.07
349.985	-0.04
350.194	0
350.403	0.03
350.612	-0.06
350.821	-0.01
351.03	-0
351.239	-0.05
351.448	-0.01
351.657	-0.06
351.866	0.08
352.075	-0.02
352.284	-0.02
352.493	-0.02
352.702	0.07
352.911	0.04
353.12	0.04
353.329	-0.02
353.538	0.02
353.746	-0.01
353.955	-0.05
354.164	0.03
354.373	-0.03
354.582	0.05
354.79	-0.01
354.999	-0.02
355.208	-0.01
355.416	0.06
355.625	-0.05
355.834	-0.01
356.042	-0.04
356.251	-0.03
356.46	-0.03
356.668	0.02
356.877	0.05
357.085	0.03
357.294	-0.1
357.503	0.02
357.711	-0.01
357.92	0.1
358.128	0.02
358.337	-0.02
358.545	0
358.754	-0.02
358.962	-0
359.17	-0.04
359.379	-0.02
359.587	-0.01
359.796	-0.02
360.004	0.03
360.212	0.01
360.421	0
360.629	-0.02
360.837	-0.03
361.046	-0.01
361.254	0.12
361.462	0.02
361.67	-0.01
361.879	-0
362.087	0.07
362.295	-0
362.503	-0.01
362.711	-0.04
362.92	-0.04
363.128	-0.02
363.336	-0.04
363.544	-0.07
363.752	-0.02
363.96	-0.07
364.168	-0.03
364.376	-0.03
364.584	0
364.792	0.01
365	-0
365.208	-0.02
365.416	0.02
365.624	0.04
365.832	-0.04
366.04	0.06
366.248	0.02
366.456	-0.01
366.664	0.02
366.872	-0.02
367.079	-0.04
367.287	-0
367.495	0.02
367.703	-0.05
367.911	-0.02
368.118	-0.01
368.326	0
368.534	-0.07
368.742	0.01
368.949	-0.07
369.157	-0.01
369.365	0.05
369.572	-0.01
369.78	-0.04
369.988	0.05
370.195	-0.01
370.403	0.03
370.61	-0.07
370.818	-0.01
371.026	0.02
371.233	-0.05
371.441	-0.04
371.648	-0.02
371.856	-0.01
372.063	-0.01
372.271	-0.03
372.478	-0.05
372.685	-0.06
372.893	0.02
373.1	-0.03
373.308	-0.06
373.515	0.08
373.722	0.03
373.93	-0.02
374.137	0.02
374.344	0.01
374.552	0.03
374.759	0.01
374.966	-0.02
375.173	-0.04
375.381	0.01
375.588	-0.03
375.795	-0.08
376.002	-0.01
376.209	-0.04
376.417	-0.04
376.624	-0.01
376.831	0.02
377.038	-0
377.245	-0.08
377.452	-0.01
377.659	-0
377.866	-0.03
378.073	-0.05
378.28	-0.04
378.487	0.01
378.694	0
378.901	-0.04
379.108	-0
379.315	0.04
379.522	0.05
379.729	-0.01
379.936	-0.03
380.143	-0.02
380.35	-0.02
380.557	-0.04
380.763	-0.02
380.97	-0.04
381.177	0.05
381.384	-0.01
381.591	-0.02
381.797	-0
382.004	0.01
382.211	-0.02
382.418	0
382.624	0.01
382.831	0.02
383.038	0.01
383.244	0.04
383.451	-0
383.658	0.01
383.864	-0.01
384.071	-0.07
384.277	0.06
384.484	-0.03
384.69	0.01
384.897	-0.08
385.103	0.01
385.31	-0.08
385.516	-0.03
385.723	-0.05
385.929	-0.03
386.136	-0.04
386.342	-0.04
386.549	-0.03
386.755	0.05
386.961	0
387.168	-0.04
387.374	-0.03
387.58	0
387.787	0.01
387.993	0.01
388.199	-0
388.406	-0.03
388.612	-0.03
388.818	-0.06
389.024	-0.08
389.231	0.02
389.437	0.07
389.643	0.02
389.849	-0.03
390.055	-0.03
390.261	0
390.467	-0
390.674	-0.04
390.88	-0.04
391.086	0.03
391.292	-0.04
391.498	-0.01
391.704	0.04
391.91	0
392.116	-0.05
392.322	-0.11
392.528	0
392.734	-0.04
392.94	-0.03
393.146	-0.07
393.352	0.01
393.557	-0.03
393.763	-0.02
393.969	0.01
394.175	-0.03
394.381	-0
394.587	-0.09
394.792	-0.04
394.998	0
395.204	0.05
395.41	-0.06
395.615	-0
395.821	0.01
396.027	0.01
396.233	-0.03
396.438	0
396.644	0.06
396.85	-0.04
397.055	-0.04
397.261	-0.03
397.466	-0.04
397.672	-0.01
397.878	0.02
398.083	-0.03
398.289	-0.03
398.494	0.01
398.7	-0.01
398.905	-0.09
399.111	0.09
399.316	-0.09
399.522	-0
399.727	0.01
399.932	-0.03
400.138	-0.02
400.343	0.04
400.549	0.04
400.754	0
400.959	-0.02
401.165	0.01
401.37	-0.03
401.575	0.02
401.78	-0.03
401.986	-0.03
402.191	-0.05
402.396	-0.02
402.601	0.03
402.807	-0.02
403.012	-0.01
403.217	0
403.422	-0.01
403.627	-0.02
403.832	-0.06
404.037	0.01
404.243	0.04
404.448	-0.08
404.653	-0.02
404.858	0.04
405.063	0.01
405.268	-0.05
405.473	-0.07
405.678	-0.05
405.883	0.09
406.088	-0
406.293	-0.05
406.498	-0.07
406.703	-0.03
406.907	-0.03
407.112	-0.07
407.317	-0.01
407.522	0.05
407.727	-0.04
407.932	-0.02
408.136	0.11
408.341	-0.04
408.546	-0.04
408.751	-0.03
408.956	-0.07
409.16	0.05
409.365	-0.02
409.57	-0
409.774	0.01
409.979	0.04
410.184	-0.02
410.388	-0.06
410.593	0
410.798	0.04
411.002	-0.03
411.207	-0.01
411.411	-0.01
411.616	-0.05
411.82	-0.01
412.025	-0.03
412.229	-0.07
412.434	0.09
412.638	0.02
412.843	-0.05
413.047	0.01
413.252	-0.04
413.456	-0.05
413.66	0.03
413.865	-0.03
414.069	0.02
414.273	-0.04
414.478	-0.04
414.682	-0.01
414.886	-0.05
415.091	-0.1
415.295	-0.06
415.499	-0.01
415.703	-0.06
415.908	-0.03
416.112	-0.12
416.316	0.04
416.52	0.03
416.724	-0.1
416.929	-0.05
417.133	0.08
417.337	-0.03
417.541	-0.06
417.745	0.01
417.949	0.01
418.153	-0
418.357	-0.06
418.561	0.01
418.765	0.02
418.969	0.1
419.173	0.01
419.377	-0.09
419.581	0.05
419.785	-0.07
419.989	-0.09
420.193	-0.05
420.397	-0.06
420.601	0.05
420.804	0.02
421.008	-0.01
421.212	0.04
421.416	0.04
421.62	-0.06
421.823	-0.02
422.027	0.07
422.231	-0.01
422.435	-0.03
422.638	-0
422.842	-0.01
423.046	-0.1
423.249	0.01
423.453	0.01
423.657	-0.01
423.86	-0.05
424.064	0.01
424.268	0.06
424.471	-0.01
424.675	0.07
424.878	0.09
425.082	-0.02
425.285	0.03
425.489	0.01
425.692	-0.03
425.896	-0.04
426.099	0.05
426.303	-0.05
426.506	-0.1
426.71	-0.04
426.913	0
427.116	0.03
427.32	0.01
427.523	-0.04
427.726	0.11
427.93	-0.09
428.133	-0.04
428.336	-0.05
428.54	-0.08
428.743	0.03
428.946	-0.02
429.149	-0.06
429.353	-0.03
429.556	-0.03
429.759	-0.02
429.962	-0.09
430.165	-0.02
430.368	0
430.571	-0.06
430.775	-0.03
430.978	-0.04
431.181	-0.03
431.384	0.03
431.587	-0.03
431.79	-0.05
431.993	0.04
432.196	0.02
432.399	-0.06
432.602	0.06
432.805	-0.13
433.008	-0.05
433.211	-0.12
433.414	-0.02
433.616	0.04
433.819	-0.06
434.022	-0.07
434.225	0.05
434.428	0
434.631	0.07
434.833	-0.04
435.036	-0.05
435.239	0.03
435.442	-0.02
435.645	-0.04
435.847	0
436.05	0.03
436.253	-0.01
436.455	-0.08
436.658	-0.02
436.861	0.05
437.063	-0.08
437.266	-0.04
437.468	0.03
437.671	0.14
437.874	-0.02
438.076	-0.06
438.279	-0.1
438.481	-0.04
438.684	-0.12
438.886	0.02
439.089	-0.1
439.291	0.06
439.494	0.01
439.696	-0.06
439.899	-0.06
440.101	-0.03
440.303	-0.14
440.506	0.02
440.708	-0.04
440.91	0.02
441.113	-0.06
441.315	-0.01
441.517	-0.11
441.72	0.02
441.922	-0.06
442.124	-0.09
442.326	0
442.529	0.08
442.731	-0.06
442.933	0.11
443.135	-0
443.337	-0.09
443.539	-0.07
443.742	-0.05
443.944	-0.01
444.146	-0.06
444.348	-0.06
444.55	-0.04
444.752	-0.04
444.954	-0.05
445.156	-0.07
445.358	-0.05
445.56	0.04
445.762	-0.05
445.964	-0.02
446.166	-0.05
446.368	0
446.57	0.01
446.772	-0.03
446.974	-0.06
447.175	0
447.377	-0.01
447.579	-0.02
447.781	-0.1
447.983	0.1
448.184	-0.02
448.386	0.04
448.588	-0.08
448.79	-0.01
448.991	-0.04
449.193	-0.06
449.395	-0.01
449.597	0.02
449.798	0.03
450	-0.03
450.202	-0.01
450.403	-0.02
450.605	0.03
450.806	-0.05
451.008	-0.09
451.21	-0.06
451.411	-0.02
451.613	-0.05
451.814	0.01
452.016	0.09
452.217	-0.03
452.419	0.01
452.62	-0.05
452.821	0.02
453.023	0.06
453.224	0.05
453.426	-0.01
453.627	0.01
453.828	0.04
454.03	-0.03
454.231	-0.02
454.432	-0.08
454.634	0.13
454.835	-0.07
455.036	-0.07
455.238	-0
455.439	0.04
455.64	-0.08
455.841	-0.05
456.042	0.11
456.244	-0.01
456.445	-0.08
456.646	-0.07
456.847	-0.04
457.048	0.09
457.249	0.05
457.45	0.16
457.651	-0.03
457.852	0.07
458.054	-0
458.255	-0
458.456	0.01
458.657	-0.03
458.858	-0.06
459.058	-0.02
459.259	0.04
459.46	-0.04
459.661	-0.08
459.862	0.07
460.063	-0.04
460.264	0.06
460.465	-0.06
460.666	0.06
460.866	-0.03
461.067	-0.01
461.268	-0.04
461.469	-0.02
461.67	-0.05
461.87	-0.03
462.071	-0.06
462.272	-0.08
462.473	-0.03
462.673	0.04
462.874	-0.06
463.075	-0.01
463.275	-0.04
463.476	-0.03
463.676	0.03
463.877	0.03
464.078	0.01
464.278	0.01
464.479	-0.04
464.679	-0.03
464.88	-0.05
465.08	0.09
465.281	-0.06
465.481	-0.05
465.682	-0.02
465.882	0
466.083	-0.03
466.283	-0.04
466.483	0.01
466.684	-0.04
466.884	-0.01
467.085	-0.04
467.285	0
467.485	-0.07
467.686	-0.02
467.886	-0.08
468.086	-0.05
468.286	0.02
468.487	-0.03
468.687	-0.06
468.887	-0.04
469.087	-0.02
469.287	-0
469.488	-0.09
469.688	0.02
469.888	0.02
470.088	0.01
470.288	0.04
470.488	0.02
470.688	-0.05
470.888	-0.06
471.088	-0.11
471.288	0.01
471.488	-0
471.688	-0
471.888	-0.05
472.088	0.06
472.288	0.06
472.488	-0.06
472.688	-0.02
472.888	-0
473.088	-0.01
473.288	0.01
473.488	-0.03
473.688	0.07
473.887	-0.03
474.087	-0.04
474.287	0.02
474.487	-0.03
474.687	0.01
474.886	-0.03
475.086	0.01
475.286	-0.01
475.486	-0.01
475.685	-0.04
475.885	-0.04
476.085	-0.03
476.284	0.01
476.484	-0.04
476.684	-0
476.883	0.04
477.083	-0.01
477.282	-0.05
477.482	0.01
477.681	0.07
477.881	-0
478.08	-0.04
478.28	-0.04
478.479	0.04
478.679	0.06
478.878	-0.03
479.078	-0.02
479.277	-0.03
479.477	-0.03
479.676	0.03
479.875	-0.02
480.075	-0.09
480.274	-0
480.473	0.04
480.673	-0.05
480.872	0.02
481.071	-0
481.271	-0.01
481.47	-0.01
481.669	-0.01
481.868	-0.03
482.067	-0.07
482.267	-0.05
482.466	-0.05
482.665	-0.05
482.864	-0.07
483.063	-0.02
483.262	0.01
483.461	0.01
483.661	0.02
483.86	-0.01
484.059	-0
484.258	-0
484.457	-0.01
484.656	-0.02
484.855	0.05
485.054	-0.04
485.253	-0.03
485.452	-0.05
485.651	-0.02
485.849	0
486.048	-0.02
486.247	-0.05
486.446	0
486.645	-0.02
486.844	-0.04
487.043	-0.02
487.241	0.01
487.44	-0.06
487.639	-0.02
487.838	0.01
488.037	-0.01
488.235	0.04
488.434	-0.01
488.633	-0.04
488.831	0.01
489.03	0.01
489.229	-0
489.427	0.01
489.626	0.04
489.825	0.03
490.023	0
490.222	-0
490.42	0
490.619	0.02
490.817	0.01
491.016	-0.03
491.214	0
491.413	-0
491.611	-0
491.81	-0.03
492.008	0
492.207	0
492.405	-0.01
492.604	-0.09
492.802	-0.01
493	-0.01
493.199	-0.04
493.397	-0.01
493.595	-0.04
493.794	-0.03
493.992	0.05
494.19	-0.03
494.388	0.01
494.587	-0.03
494.785	0
494.983	-0.02
495.181	-0.02
495.379	-0
495.578	-0.02
495.776	0
495.974	0.02
496.172	-0.01
496.37	-0.03
496.568	-0.02
496.766	-0.02
496.964	0.05
497.162	-0.02
497.36	-0.04
497.558	0
497.756	0.02
497.954	-0.01
498.152	-0.05
498.35	-0.01
498.548	-0
498.746	0.01
498.944	-0.03
499.142	-0.03
499.34	-0.01
499.538	-0.01
499.736	-0.04
499.933	0.02
500.131	0.02
500.329	-0
500.527	0.02
500.725	0.03
500.922	0.01
501.12	-0.01
501.318	0.02
501.516	-0.03
501.713	-0.01
501.911	-0.01
502.109	-0.03
502.306	-0.01
502.504	-0.01
502.701	-0.03
502.899	-0.01
503.097	0.02
503.294	-0.01
503.492	-0.04
503.689	-0.01
503.887	0.01
504.084	0.05
504.282	0.02
504.479	-0.02
504.677	-0.01
504.874	-0.02
505.072	-0
505.269	-0.02
505.466	0.03
505.664	0.02
505.861	-0.04
506.059	-0.01
506.256	0.02
506.453	-0
506.651	0.02
506.848	0.01
507.045	0.01
507.242	-0
507.44	-0.04
507.637	0.01
507.834	-0.02
508.031	0.01
508.229	-0.01
508.426	-0
508.623	0.02
508.82	-0.02
509.017	-0.01
509.214	-0.02
509.411	-0.01
509.608	-0.02
509.805	-0.01
510.003	-0.02
510.2	-0.03
510.397	0.01
510.594	-0
510.791	-0.02
510.988	-0.02
511.184	0.02
511.381	-0.01
511.578	-0.02
511.775	0.04
511.972	-0
512.169	0.01
512.366	-0
512.563	0.01
512.76	-0.02
512.956	0.02
513.153	-0.03
513.35	0.01
513.547	-0.04
513.744	-0.02
513.94	-0.01
514.137	0.01
514.334	0
514.53	0
514.727	-0.01
514.924	0.08
515.12	-0.03
515.317	-0.02
515.514	-0.02
515.71	-0.01
515.907	-0.01
516.103	-0.01
516.3	0.01
516.497	0.03
516.693	0.04
516.89	-0
517.086	-0.02
517.283	0.02
517.479	-0
517.676	-0
517.872	0.02
518.068	0
518.265	0.01
518.461	-0
518.658	-0.03
518.854	0.03
519.05	-0.01
519.247	-0
519.443	0.02
519.639	0.02
519.836	-0.01
520.032	-0.01
520.228	-0.01
520.424	0.05
520.621	0.03
520.817	-0
521.013	0.02
521.209	0
521.405	0.05
521.601	0.03
521.798	0.02
521.994	0.04
522.19	-0
522.386	-0.02
522.582	0.01
522.778	0
522.974	-0.01
523.17	0.03
523.366	0.02
523.562	0.03
523.758	0
523.954	-0.02
524.15	-0.01
524.346	0.02
524.542	0
524.738	-0.01
524.934	-0
525.129	0.03
525.325	0.01
525.521	0.01
525.717	-0
525.913	0.01
526.109	0.03
526.304	0.01
526.5	0.01
526.696	0.02
526.892	-0.03
527.087	-0
527.283	-0.02
527.479	0.03
527.674	-0.01
527.87	0
528.066	-0.01
528.261	0.05
528.457	0.01
528.653	0.01
528.848	0.02
529.044	0.01
529.239	-0
529.435	0.04
529.63	0.02
529.826	0.05
530.021	0.02
530.217	0.02
530.412	0.01
530.608	-0.01
530.803	-0
530.999	-0.01
531.194	-0.04
531.389	0.02
531.585	-0.05
531.78	-0.01
531.975	0.01
532.171	0.04
532.366	0.01
532.561	-0.01
532.757	-0
532.952	0.02
533.147	0.01
533.342	-0.01
533.538	-0.01
533.733	0.02
533.928	0.01
534.123	-0
534.318	-0.02
534.513	-0.02
534.709	-0
534.904	-0.01
535.099	0.01
535.294	0.01
535.489	-0
535.684	0.01
535.879	-0.03
536.074	0.02
536.269	-0
536.464	0.01
536.659	-0.01
536.854	-0.01
537.049	0.02
537.244	0.01
537.439	0
537.634	0.01
537.828	0.02
538.023	0
538.218	-0.03
538.413	0.01
538.608	-0.02
538.803	0.04
538.997	-0.05
539.192	0.03
539.387	0
539.582	-0.01
539.776	0.01
539.971	-0.03
540.166	-0.01
540.36	-0.04
540.555	-0
540.75	-0.02
540.944	0.01
541.139	-0.03
541.334	-0.01
541.528	0.02
541.723	0.04
541.917	-0.02
542.112	-0.03
542.306	0.01
542.501	-0.01
542.695	0
542.89	-0.01
543.084	0.01
543.279	-0.01
543.473	0
543.668	-0.03
543.862	-0
544.056	0.02
544.251	-0
544.445	-0
544.64	-0.02
544.834	-0.03
545.028	0
545.222	0.02
545.417	0.02
545.611	-0.01
545.805	0
546	-0.01
546.194	0.01
546.388	0
546.582	0.02
546.776	-0
546.97	-0.02
547.165	0.04
547.359	0.01
547.553	-0.02
547.747	-0
547.941	0
548.135	0.01
548.329	0.01
548.523	0.01
548.717	0.01
548.911	-0.02
549.105	-0.02
549.299	0.02
549.493	0.02
549.687	0
549.881	-0
550.075	-0.01
550.269	-0.03
550.463	-0
550.657	-0.03
550.85	0
551.044	-0.03
551.238	0.01
551.432	-0.01
551.626	-0.01
551.82	0.01
552.013	-0.01
552.207	-0
552.401	0.01
552.594	0
552.788	-0.01
552.982	-0.02
553.176	-0.02
553.369	0.03
553.563	-0
553.756	-0.05
553.95	-0.04
554.144	-0.01
554.337	0.02
554.531	-0.01
554.724	-0.02
554.918	-0
555.111	0.02
555.305	0
555.498	0.03
555.692	0.01
555.885	-0.03
556.079	0.02
556.272	-0.02
556.466	0.01
556.659	-0
556.852	-0.02
557.046	-0.03
557.239	0.03
557.432	-0.03
557.626	-0.04
557.819	0
558.012	0.02
558.206	0.01
558.399	0
558.592	0.02
558.785	-0.02
558.979	0.02
559.172	0
559.365	-0.01
559.558	0
559.751	-0.01
559.944	0.02
560.138	-0.01
560.331	0.01
560.524	-0.01
560.717	-0
560.91	0.01
561.103	0
561.296	-0
561.489	-0.01
561.682	-0.01
561.875	0.03
562.068	0.02
562.261	-0.01
562.454	0.03
562.647	0
562.84	0.01
563.032	-0.01
563.225	0.01
563.418	-0
563.611	-0.03
563.804	-0
563.997	-0.05
564.19	-0.04
564.382	0
564.575	-0.03
564.768	-0.01
564.961	-0.03
565.153	-0.02
565.346	0.02
565.539	-0.01
565.731	0.01
565.924	0.01
566.117	0
566.309	-0.03
566.502	-0.02
566.695	0
566.887	-0.01
567.08	-0.03
567.272	-0.02
567.465	-0.03
567.657	-0
567.85	-0
568.042	-0.02
568.235	0.03
568.427	0
568.62	-0.02
568.812	0
569.005	-0.02
569.197	-0.03
569.389	0.01
569.582	-0.01
569.774	-0.01
569.966	-0.03
570.159	-0.03
570.351	-0.01
570.543	-0.03
570.736	-0.01
570.928	-0.04
571.12	-0.02
571.312	-0.05
571.505	-0.04
571.697	0.03
571.889	-0.03
572.081	-0.01
572.273	-0.04
572.465	0.03
572.658	-0.02
572.85	0.01
573.042	-0.01
573.234	-0.02
573.426	0.01
573.618	-0.04
573.81	-0.02
574.002	0.04
574.194	0.02
574.386	-0.05
574.578	-0.1
574.77	-0.04
574.962	-0
575.154	-0
575.346	-0.02
575.538	0.01
575.729	-0.03
575.921	-0.02
576.113	-0.03
576.305	0
576.497	-0.01
576.689	-0
576.88	-0.04
577.072	0.02
577.264	-0
577.456	-0.02
577.647	-0.08
577.839	-0.02
578.031	0.03
578.223	-0.04
578.414	-0.03
578.606	-0.02
578.798	-0.02
578.989	-0.01
579.181	-0.01
579.372	-0.01
579.564	-0.01
579.755	0.01
579.947	0
580.139	0.01
580.33	-0.04
580.522	-0.04
580.713	-0.07
580.905	-0.03
581.096	0.04
581.287	-0.03
581.479	-0.02
581.67	0
581.862	-0
582.053	-0.02
582.244	-0.06
582.436	-0
582.627	-0
582.818	-0.04
583.01	-0.05
583.201	0.02
583.392	0.04
583.583	0
583.775	-0.03
583.966	-0.03
584.157	-0
584.348	-0.04
584.54	-0.06
584.731	0
584.922	-0.01
585.113	-0.03
585.304	-0.02
585.495	0.02
585.686	-0.02
585.877	-0.02
586.068	0.01
586.259	-0
586.45	-0.02
586.641	-0.05
586.832	-0.06
587.023	0.01
587.214	-0.02
587.405	-0.01
587.596	-0.04
587.787	0.02
587.978	0
588.169	-0.04
588.36	-0.04
588.551	0
588.742	-0.04
588.932	-0.01
589.123	0
589.314	0.02
589.505	0
589.696	0.02
589.886	-0.03
590.077	-0.05
590.268	-0.01
590.458	-0.06
590.649	-0.06
590.84	0.02
591.03	-0.05
591.221	-0.05
591.412	-0.05
591.602	0.01
591.793	0.02
591.984	-0.05
592.174	-0.04
592.365	0.07
592.555	-0.04
592.746	0.02
592.936	0.02
593.127	0.01
593.317	0.02
593.508	-0.02
593.698	-0.04
593.889	-0.01
594.079	-0
594.269	-0.04
594.46	0
594.65	-0.01
594.84	-0.03
595.031	-0.05
595.221	-0.05
595.411	-0.06
595.602	-0
595.792	-0.01
595.982	-0.04
596.172	0.04
596.363	-0
596.553	-0.02
596.743	-0
596.933	-0.01
597.123	0.03
597.314	-0.03
597.504	-0.04
597.694	0.02
597.884	0.01
598.074	-0.01
598.264	-0.04
598.454	0
598.644	-0.02
598.834	-0.01
599.024	-0.05
599.214	-0.02
599.404	0.04
599.594	-0.05
599.784	-0.02
599.974	0.04
600.164	0.01
600.354	-0.04
600.544	-0.06
600.734	0.01
600.924	0
601.114	-0.05
601.303	0.02
601.493	-0.01
601.683	-0.01
601.873	0
602.063	-0.07
602.252	0.04
602.442	-0.09
602.632	-0.04
602.821	-0.04
603.011	-0.01
603.201	-0.02
603.39	-0.01
603.58	-0.03
603.77	0.02
603.959	0.02
604.149	-0.02
604.339	-0.02
604.528	0.01
604.718	0.01
604.907	-0.02
605.097	-0.02
605.286	-0.05
605.476	0
605.665	0.01
605.855	-0.02
606.044	0.04
606.234	-0
606.423	-0.01
606.612	-0.08
606.802	-0
606.991	0.01
607.181	0
607.37	-0.06
607.559	-0.02
607.749	-0.05
607.938	-0.01
608.127	-0.04
608.316	-0.03
608.506	0.03
608.695	-0.04
608.884	-0.03
609.073	0.02
609.263	0.04
609.452	-0
609.641	-0.03
609.83	-0.06
610.019	-0.01
610.208	-0.03
610.397	-0.04
610.586	0.01
610.775	-0.03
610.965	-0.03
611.154	-0.04
611.343	-0.01
611.532	0
611.721	-0.06
611.91	-0.01
612.099	-0.01
612.287	-0.03
612.476	-0.04
612.665	-0
612.854	-0.03
613.043	0.02
613.232	-0.02
613.421	-0.06
613.61	-0.01
613.798	-0
613.987	0
614.176	-0.01
614.365	0.01
614.554	-0.02
614.742	-0.01
614.931	-0.04
615.12	0.01
615.309	-0
615.497	-0.02
615.686	-0.01
615.875	-0
616.063	-0.01
616.252	-0.04
616.44	-0.03
616.629	0.02
616.818	0
617.006	-0.01
617.195	-0.03
617.383	0.02
617.572	-0.02
617.76	-0.03
617.949	-0.04
618.137	0
618.326	0.01
618.514	-0.04
618.703	-0.03
618.891	0.03
619.079	-0.1
619.268	-0.01
619.456	-0.04
619.644	0.01
619.833	-0.03
620.021	-0.03
620.209	-0.08
620.398	-0.02
620.586	0.01
620.774	0.01
620.962	-0.02
621.151	0.04
621.339	-0.01
621.527	-0.05
621.715	-0.06
621.903	-0.04
622.092	-0.03
622.28	-0.02
622.468	-0.01
622.656	-0.01
622.844	0
623.032	-0.03
623.22	-0.07
623.408	0.02
623.596	0.01
623.784	0.01
623.972	-0.03
624.16	-0.06
624.348	0.06
624.536	-0.01
624.724	-0.06
624.912	0.04
625.1	0.03
625.288	-0.04
625.476	-0.04
625.664	0
625.851	-0.02
626.039	-0.02
626.227	-0.03
626.415	-0.01
626.603	-0.06
626.79	-0.01
626.978	-0.05
627.166	-0.01
627.354	-0.03
627.541	-0.04
627.729	-0.07
627.917	-0
628.104	0.05
628.292	-0.02
628.48	-0.03
628.667	-0.01
628.855	0.01
629.042	-0.03
629.23	0
629.418	-0
629.605	-0.03
629.793	-0.03
629.98	-0.03
630.168	-0.02
630.355	0.01
630.543	-0.02
630.73	-0.04
630.917	0.01
631.105	0.04
631.292	-0.04
631.48	-0
631.667	0.06
631.854	-0.02
632.042	-0.03
632.229	-0.04
632.416	-0.01
632.604	-0.02
632.791	-0.02
632.978	-0.02
633.165	0
633.353	0.04
633.54	0.02
633.727	-0.09
633.914	-0.05
634.101	-0.11
634.289	0.02
634.476	-0.04
634.663	-0.08
634.85	-0.03
635.037	-0.09
635.224	-0.07
635.411	-0
635.598	0.01
635.785	-0.02
635.972	-0.03
636.159	0.03
636.346	-0.06
636.533	-0.02
636.72	-0.04
636.907	-0.04
637.094	0.03
637.281	-0.03
637.468	0.01
637.655	-0.03
637.842	-0.02
638.029	-0.06
638.215	-0
638.402	-0.01
638.589	-0.04
638.776	-0.04
638.963	-0.03
639.149	0.02
639.336	0.06
639.523	-0.02
639.709	-0.02
639.896	-0.01
640.083	0.06
640.27	-0.02
640.456	-0.03
640.643	-0
640.829	-0.07
641.016	-0.03
641.203	-0.06
641.389	0.01
641.576	0.02
641.762	-0
641.949	-0.07
642.135	0.01
642.322	-0.03
642.508	-0.08
642.695	-0
642.881	-0.03
643.068	0.01
643.254	-0.02
643.441	0
643.627	-0.01
643.813	-0.02
644	0.01
644.186	-0.04
644.372	0
644.559	0.03
644.745	-0.03
644.931	-0.08
645.118	-0.02
645.304	-0.04
645.49	-0.04
645.676	-0.04
645.862	0.04
646.049	0.02
646.235	-0.03
646.421	0.06
646.607	0.07
646.793	-0.04
646.979	-0.04
647.165	-0.02
647.352	-0.02
647.538	0.02
647.724	-0.03
647.91	-0.02
648.096	0.05
648.282	0.01
648.468	-0.03
648.654	-0.01
648.84	-0.04
649.026	-0.01
649.212	-0.02
649.397	-0.02
649.583	-0.02
649.769	0.01
649.955	-0.02
650.141	0.02
650.327	0.04
650.513	-0.01
650.698	0.01
650.884	-0.09
651.07	-0.02
651.256	-0.01
651.442	-0.04
651.627	0
651.813	-0
651.999	-0.03
652.184	0
652.37	-0.03
652.556	-0.03
652.741	0.04
652.927	-0.09
653.113	-0.02
653.298	-0.01
653.484	-0.03
653.669	-0.09
653.855	-0.01
654.04	0.01
654.226	-0.01
654.412	-0.04
654.597	-0.08
654.782	-0.04
654.968	0.02
655.153	-0.02
655.339	-0.02
655.524	-0.06
655.71	0.03
655.895	-0.02
656.08	-0
656.266	0.04
656.451	0.02
656.636	-0.05
656.822	-0.03
657.007	-0.05
657.192	-0.01
657.378	-0.08
657.563	-0.01
657.748	0.01
657.933	-0.03
658.118	-0.02
658.304	-0.02
658.489	0.01
658.674	0.01
658.859	-0.05
659.044	-0.01
659.229	-0
659.414	-0.04
659.599	-0.03
659.785	-0.08
659.97	-0.03
660.155	0.02
660.34	-0.01
660.525	-0.03
660.71	-0.05
660.895	-0
661.08	-0.01
661.264	-0.01
661.449	0.03
661.634	0.03
661.819	-0.01
662.004	0.01
662.189	-0.1
662.374	-0.04
662.559	-0.06
662.743	-0.08
662.928	-0.04
663.113	-0.04
663.298	-0.09
663.483	-0.08
663.667	-0.01
663.852	-0.07
664.037	0.02
664.221	-0.03
664.406	-0.01
664.591	0.03
664.775	-0.02
664.96	-0.03
665.145	-0.04
665.329	-0.01
665.514	-0.05
665.698	-0.03
665.883	-0.11
666.068	0.07
666.252	-0.03
666.437	-0.09
666.621	-0
666.806	0
666.99	-0.01
667.174	-0.05
667.359	0.02
667.543	-0.02
667.728	-0.07
667.912	-0.07
668.096	-0.02
668.281	-0.02
668.465	-0.01
668.649	-0.02
668.834	-0.03
669.018	-0.05
669.202	-0.03
669.387	-0.09
669.571	0.03
669.755	-0.06
669.939	0.01
670.124	-0.03
670.308	0.05
670.492	0.03
670.676	-0.02
670.86	-0.03
671.044	-0.06
671.228	0.01
671.413	-0.09
671.597	-0.02
671.781	-0.07
671.965	-0.01
672.149	-0.04
672.333	-0.04
672.517	-0.08
672.701	0.01
672.885	-0.01
673.069	-0.12
673.253	0.01
673.437	-0.05
673.621	-0.03
673.804	-0.05
673.988	0.02
674.172	-0.01
674.356	-0.09
674.54	-0.04
674.724	0.07
674.908	-0.07
675.091	-0.03
675.275	-0.05
675.459	0.01
675.643	0.02
675.826	-0
676.01	0.03
676.194	0
676.377	0.05
676.561	0.02
676.745	-0.01
676.928	-0.01
677.112	0.01
677.296	-0.02
677.479	-0.06
677.663	-0.05
677.846	0.03
678.03	-0.02
678.213	-0.09
678.397	-0.01
678.58	-0.01
678.764	-0.03
678.947	-0.04
679.131	-0.05
679.314	0.01
679.498	-0.06
679.681	-0.01
679.865	0.03
680.048	-0.04
680.231	-0
680.415	-0.03
680.598	-0.03
680.781	0.06
680.965	0
681.148	0.01
681.331	-0.04
681.514	0.03
681.698	-0.05
681.881	0
682.064	-0.03
682.247	-0.03
682.43	-0.08
682.614	-0.02
682.797	-0
682.98	0.02
683.163	-0.12
683.346	0.01
683.529	-0.04
683.712	0
683.895	0.03
684.078	-0.07
684.261	-0.05
684.444	0.01
684.627	-0.02
684.81	-0.08
684.993	-0.03
685.176	0.03
685.359	-0.04
685.542	-0.04
685.725	0.02
685.908	-0.04
686.091	-0.02
686.274	0.03
686.457	0.03
686.639	-0.05
686.822	0.04
687.005	-0.03
687.188	-0.01
687.371	0.01
687.553	0.02
687.736	0.03
687.919	0.06
688.102	0.06
688.284	-0.03
688.467	0
688.65	-0.05
688.832	-0.03
689.015	-0.02
689.197	-0.14
689.38	0.05
689.563	0.08
689.745	-0.05
689.928	-0.07
690.11	-0.02
690.293	0.03
690.475	-0.11
690.658	0.04
690.84	0.01
691.023	-0.08
691.205	-0.04
691.388	-0.04
691.57	0.05
691.752	-0.01
691.935	-0.11
692.117	-0.06
692.3	0.01
692.482	-0.01
692.664	-0.02
692.847	0
693.029	0.03
693.211	0.02
693.393	-0.07
693.576	-0.03
693.758	-0.02
693.94	-0.02
694.122	-0.06
694.304	-0.05
694.487	-0.06
694.669	0.05
694.851	-0.07
695.033	-0.01
695.215	-0.04
695.397	-0.09
695.579	-0.02
695.761	-0.05
695.943	-0.12
696.125	0.05
696.308	0.01
696.49	-0.12
696.671	0.06
696.853	-0.06
697.035	0.12
697.217	0
697.399	-0.04
697.581	-0.02
697.763	-0.03
697.945	-0.09
698.127	-0.05
698.309	-0.18
698.491	-0.01
698.672	0
698.854	0.01
699.036	0.04
699.218	-0.05
699.399	0.03
699.581	-0.02
699.763	0.03
699.945	-0.1
700.126	-0.11
700.308	-0.02
700.49	-0
700.671	-0.16
700.853	-0.06
701.035	-0.06
701.216	-0.02
701.398	-0.06
701.579	-0.07
701.761	0.01
701.943	-0.06
702.124	-0.05
702.306	-0.08
702.487	0.08
702.669	-0.01
702.85	-0.08
703.031	-0.09
703.213	0.12
703.394	0.03
703.576	-0.05
703.757	0.13
703.938	0.06
704.12	0.1
704.301	-0.03
704.483	-0.06
704.664	-0.07
704.845	0.07
705.026	0.04
705.208	-0.02
705.389	-0
705.57	-0.06
705.751	-0.08
705.933	-0.02
706.114	-0.01
706.295	-0
706.476	-0.05
706.657	0.02
706.838	-0.01
707.02	0.02
707.201	-0.06
707.382	-0.09
707.563	-0.02
707.744	-0.1
707.925	-0.06
708.106	-0.1
708.287	0.04
708.468	0.13
708.649	-0.1
708.83	0.05
709.011	-0.12
709.192	0.01
709.373	-0.12
709.554	-0.04
709.734	-0.01
709.915	0.01
710.096	-0.01
710.277	-0.14
710.458	-0.02
710.639	0.09
710.819	-0.1
711	-0.03
711.181	0.09
711.362	0.03
711.542	-0.06
711.723	-0.06
711.904	0.06
712.085	0.01
712.265	-0.06
712.446	-0.13
712.627	-0.09
712.807	-0.05
712.988	-0.06
713.168	-0.11
713.349	0.03
713.53	-0.16
713.71	-0.09
713.891	-0.08
714.071	-0.03
714.252	0.01
714.432	-0.09
714.613	-0.08
714.793	-0.06
714.974	0.06
715.154	0.05
715.334	-0
715.515	0.05
715.695	-0.08
715.876	-0.06
716.056	-0.03
716.236	-0.04
716.417	-0.07
716.597	-0.09
716.777	0.07
716.957	-0
717.138	-0
717.318	-0.01
717.498	-0.12
717.678	-0
717.859	-0.03
718.039	-0.13
718.219	-0.08
718.399	0.01
718.579	-0.1
718.759	-0.13
718.939	-0.05
719.12	-0.02
719.3	0.01
719.48	-0.14
719.66	-0.12
719.84	0.08
720.02	0.01
720.2	-0.08
720.38	0.02
720.56	0.06
720.74	-0
720.92	-0.02
721.1	0.1
721.279	0.07
721.459	-0.03
721.639	-0.08
721.819	-0.01
721.999	-0.04
722.179	0
722.359	-0.08
722.538	-0.03
722.718	-0.01
722.898	-0.05
723.078	-0.08
723.257	-0.04
723.437	0.02
723.617	-0.01
723.797	-0
723.976	-0.03
724.156	0.01
724.336	0.08
724.515	0.02
724.695	-0.13
724.874	-0.03
725.054	0.06
725.234	-0.07
725.413	-0
725.593	0.03
725.772	-0
725.952	0
726.131	-0.05
726.311	-0
726.49	0.02
726.67	-0.13
726.849	-0.06
727.028	0.08
727.208	-0.03
727.387	0.01
727.567	-0.13
727.746	-0.08
727.925	-0.11
728.105	-0.15
728.284	-0.09
728.463	-0.05
728.643	-0.05
728.822	-0.15
729.001	-0.04
729.18	-0.04
729.359	0.02
729.539	0.01
729.718	-0.02
729.897	-0.04
730.076	-0.08
730.255	-0.14
730.434	-0.05
730.614	-0.02
730.793	0.05
730.972	-0.09
731.151	-0.01
731.33	0.01
731.509	0.07
731.688	0
731.867	-0.04
732.046	-0.11
732.225	0.12
732.404	-0.12
732.583	-0.14
732.762	0.02
732.941	0.06
733.12	-0.03
733.298	-0.08
733.477	0.14
733.656	-0.01
733.835	-0.12
734.014	0.05
734.193	0.01
734.371	0.02
734.55	-0.02
734.729	-0.1
734.908	0
735.086	-0
735.265	0.03
735.444	-0.18
735.623	-0.14
735.801	-0.07
735.98	-0.11
736.159	-0.03
736.337	-0.01
736.516	0.03
736.694	-0.07
736.873	-0.16
737.052	0.02
737.23	0.1
737.409	-0.07
737.587	0.14
737.766	-0.24
737.944	-0.13
738.123	0.03
738.301	-0.01
738.479	-0.13
738.658	0.08
738.836	-0.2
739.015	0.03
739.193	0.09
739.371	-0.2
739.55	-0.06
739.728	-0.11
739.906	-0.03
740.085	0.09
740.263	-0.03
740.441	-0.19
740.62	0.13
740.798	0.04
740.976	-0.11
741.154	-0.13
741.332	0.18
741.511	-0.14
741.689	0.02
741.867	0.02
742.045	-0.03
742.223	-0.09
742.401	-0.09
742.579	-0.08
742.757	0.07
742.935	-0.12
743.114	-0.08
743.292	-0.01
743.47	-0.07
743.648	0.02
743.826	-0.07
744.004	0.05
744.181	-0.02
744.359	-0.07
744.537	0
744.715	-0.05
744.893	-0.02
745.071	0.04
745.249	-0.06
745.427	-0.04
745.605	-0.04
745.782	0.02
745.96	-0.02
746.138	0.05
746.316	0.09
746.493	-0.07
746.671	0.02
746.849	-0.05
747.027	0.07
747.204	-0.04
747.382	0.04
747.56	-0.22
747.737	-0.03
747.915	-0.08
748.093	-0.05
748.27	-0.07
748.448	0.03
748.625	-0.16
748.803	-0.12
748.98	-0.13
749.158	-0.04
749.335	0.02
749.513	-0.11
749.69	-0.04
749.868	-0.03
750.045	-0.04
750.223	-0.1
750.4	-0.18
750.578	0.17
750.755	-0.09
750.932	-0.18
751.11	0.08
751.287	-0.24
751.464	0.19
751.642	-0.18
751.819	0.02
751.996	-0.03
752.173	-0.02
752.351	-0.12
752.528	-0.06
752.705	-0.06
752.882	-0.12
753.06	-0.05
753.237	0.01
753.414	0.11
753.591	0.16
753.768	-0
753.945	-0.1
754.122	-0.06
754.299	-0
754.476	-0.16
754.654	-0.06
754.831	0.03
755.008	-0.02
755.185	-0.09
755.362	-0.1
755.539	-0.02
755.716	-0.13
755.892	-0.1
756.069	-0
756.246	-0.1
756.423	-0.11
756.6	0.07
756.777	-0.09
756.954	0.06
757.131	-0.06
757.307	-0.12
757.484	-0.15
757.661	0.03
757.838	-0.01
758.015	-0.17
758.191	0.08
758.368	0.02
758.545	0.1
758.721	0.03
758.898	-0.2
759.075	0.05
759.251	0.07
759.428	0
759.605	-0.11
759.781	-0.02
759.958	0.05
760.134	0.07
760.311	-0.11
760.488	0.12
760.664	0.02
760.841	-0.07
761.017	-0.15
761.194	-0.04
761.37	0.01
761.547	-0.09
761.723	-0.04
761.899	0.17
762.076	-0.14
762.252	-0.18
762.429	-0.04
762.605	0.05
762.781	-0.03
762.958	-0.04
763.134	-0.12
763.31	-0.13
763.486	0.07
763.663	-0.14
763.839	0.07
764.015	-0.27
764.191	-0.16
764.368	-0.01
764.544	-0.17
764.72	-0.12
764.896	0.06
765.072	0.03
765.248	-0.08
765.425	-0.01
765.601	0
765.777	-0.09
765.953	-0.2
766.129	-0.09
766.305	-0.14
766.481	-0.01
766.657	0.14
766.833	0.19
767.009	-0.09
767.185	-0.14
767.361	0.1
767.537	-0.27
767.713	-0.03
767.889	-0.06
768.065	-0.04
768.24	0.01
768.416	0.01
768.592	-0.23
768.768	0.02
768.944	0.07
769.12	-0.21
769.295	-0.08
769.471	-0.07
769.647	-0.11
769.823	0.11
769.998	-0.17
770.174	-0.09
770.35	0.31
770.525	0.23
770.701	0.06
770.877	0.02
771.052	-0.12
771.228	0.14
771.403	-0.01
771.579	-0.02
771.755	0.32
771.93	-0.1
772.106	-0.12
772.281	-0.53
772.457	-0.07
772.632	-0.04
772.808	-0.26
772.983	-0.02
773.159	-0.17
773.334	0.17
773.509	0.02
773.685	-0.22
773.86	0.26
774.036	0.04
774.211	-0.11
774.386	-0.04
774.562	0.06
774.737	0.17
774.912	-0.2
775.087	0.05
775.263	-0.16
775.438	-0.01
775.613	-0.19
775.788	-0.16
775.964	-0.01
776.139	0.23
776.314	-0.29
776.489	0.02
776.664	0.06
776.839	-0.2
777.014	0.01
777.19	0.07
777.365	0.28
777.54	0.2
777.715	-0.14
777.89	-0.12
778.065	-0.21
778.24	-0.02
778.415	0.06
778.59	-0.2
778.765	-0.15
778.94	-0.08
779.115	0.02
779.289	0.02
779.464	-0.07
779.639	-0.05
779.814	-0.16
779.989	-0.22
780.164	0.16
780.339	0.03
780.513	-0.05
780.688	-0.23
780.863	-0.01
781.038	0.08
781.212	-0.12
781.387	0.05
781.562	0.27
781.737	-0.01
781.911	-0.01
782.086	-0.11
782.261	-0.17
782.435	0.26
782.61	-0.08
782.784	0.13
782.959	0.12
783.134	-0.26
783.308	-0.26
783.483	-0.08
783.657	0.27
783.832	-0.05
784.006	-0.31
784.181	0.02
784.355	0.28
784.53	-0.21
784.704	-0.22
784.878	0.11
785.053	0.08
785.227	0.16
785.402	0.15
785.576	-0.08
785.75	-0.16
785.925	-0.16
786.099	0.01
786.273	-0.1
786.448	0.15
786.622	0.17
786.796	0.06
786.97	-0.19
787.145	0.36
787.319	-0.36
787.493	-0.14
787.667	-0.48
787.841	0.02
788.015	0.02
788.19	-0.22
788.364	0.03
788.538	0.19
788.712	0.17
788.886	-0.11
789.06	-0.03
789.234	-0.12
789.408	-0.25
789.582	-0.14
789.756	-0.09
789.93	-0.19
790.104	-0.21
790.278	-0.1
790.452	-0.19
790.626	0.05
790.8	-0.22
790.973	-0.01
791.147	0.13
791.321	0.62
791.495	0
791.669	0
791.843	0.01
792.016	-0.19
792.19	0.44
792.364	-0.41
792.538	0.42
792.711	0.32
792.885	-0.15
793.059	-0.12
793.233	-0.72
793.406	-0.01
793.58	0.01
793.754	-0.09
793.927	-0.11
794.101	0.17
794.274	-0.12
794.448	0.18
794.622	-0.39
794.795	0.13
794.969	-0.24
795.142	0.26
795.316	-0.03
795.489	-0.19
795.663	0.28
795.836	-0.16
796.009	-0.29
796.183	0.35
796.356	0.02
796.53	-0.3
796.703	-0.04
796.876	0.62
797.05	-0.31
797.223	-0.22
797.396	0.02
797.57	0.1
797.743	0.41
797.916	-0.01
798.09	-0.2
798.263	0.16
798.436	0.13
798.609	-0.24
798.782	-0.26
798.956	0.02
799.129	-0.04
799.302	-0.13
799.475	-0.32
799.648	-0.31
799.821	0
799.994	-0.23
800.167	-0.65
800.34	-0.23
800.514	-0.12
800.687	-0.32
800.86	-0.35
801.033	-0.06
801.206	0.29
801.379	-0.32
801.551	0.18
801.724	0.1
801.897	0.3
802.07	-0.16
802.243	-0.41
802.416	-0.38
802.589	-0.26
802.762	-0.16
802.935	-0.08
803.107	0.02
803.28	0.35
803.453	0.22
803.626	-0.3
803.798	0.35
803.971	-0.12
804.144	0.26
804.317	0.13
804.489	0.31
804.662	0.02
804.835	0
805.007	-0.23
805.18	0.35
805.353	0.05
805.525	-0.33
805.698	-0.31
805.87	0.22
806.043	0
806.215	-0.43
806.388	-0.21
806.56	-0.17
806.733	0.16
806.905	-0.05
807.078	-0.21
807.25	-0.58
807.423	0.05
807.595	-0.04
807.768	-0.22
807.94	0.39
808.112	0.31
808.285	-0.14
808.457	-0.3
808.629	-0.1
808.802	0.2
808.974	-0.2
809.146	-0.44
809.318	-0.51
809.491	-0.12
809.663	0.2
809.835	-0.01
810.007	0
810.18	-0.11
810.352	-0.58
810.524	-0.32
810.696	0.11
810.868	0.44
811.04	-0
811.212	-0.09
811.384	0.16
811.556	0.06
811.728	-0.03
811.901	0.84
812.073	-0.4
812.245	-0.14
812.417	-0.05
812.589	-1.05
812.76	-0.05
812.932	0.19
813.104	0.1
813.276	-0.05
813.448	0.37
813.62	0.06
813.792	0.03
813.964	-0.22
814.136	-0.22
814.307	0.13
814.479	-0.33
814.651	-0.34
814.823	0.8
814.995	-0.2
815.166	0.15
815.338	-0.55
815.51	-0.58
815.681	0.25
815.853	-0.22
816.025	-0.29
816.196	0.36
816.368	0.33
816.54	-0.57
816.711	-0.14
816.883	0.07
817.054	0.7
817.226	-0.54
817.398	-0.21
817.569	-0.06
817.741	-0.08
817.912	-0.3
818.084	-0.28
818.255	0.13
818.426	-0.5
818.598	-0.58
818.769	-0.58
818.941	0.23
819.112	0.6
819.283	0.19
819.455	-0.57
819.626	-0.21
819.798	0.2
819.969	-0.04
820.14	-0.24
820.311	-0.21
820.483	-0.06
820.654	0.07
820.825	-0.14
820.996	0.17
821.168	-0.71
821.339	-0.16
821.51	-0.71
821.681	0.68
821.852	0.05
822.023	-0.41
822.195	-0.65
822.366	0.23
822.537	-0.39
822.708	-0.1
822.879	-0.34
823.05	0.18
823.221	-0.53
823.392	0.1
823.563	-0.48
823.734	-0.14
823.905	-0.39
824.076	0
824.247	-0.21
824.418	-0.33
824.589	0.47
824.759	-0.3
824.93	-0.49
825.101	-1.08
825.272	0.18
825.443	0.33
825.614	0.38
825.784	-0.83
825.955	1.15
826.126	0.67
826.297	-0.29
826.467	0.42
826.638	0.69
826.809	-1.05
826.98	-0.65
827.15	0.25
827.321	0.12
827.492	0.48
827.662	0.04
827.833	0.86
828.003	0.5
828.174	-0.43
828.345	-0.53
828.515	0.57
828.686	-0.14
828.856	-0.56
829.027	0.03
829.197	0.26
829.368	0.11
829.538	-0.29
829.709	-0.56
829.879	-0.25
830.049	0.13
830.22	-0.26
830.39	-0.52
830.56	0.19
830.731	-0.12
830.901	-0.65
831.072	0.16
831.242	0.42
831.412	0.3
831.582	0.18
831.753	-1.2
831.923	1.17
832.093	0.14
832.263	-0.34
832.434	-0.59
832.604	-1.14
832.774	0.24
832.944	-0.25
833.114	0.17
833.284	0.54
833.454	-0.46
833.624	-0.49
833.795	0.58
833.965	0.9
834.135	1.29
834.305	-1.13
834.475	-0.63
834.645	-0.5
834.815	0.17
834.985	-0.3
835.155	-0.1
835.325	0.2
835.494	0.23
835.664	0.25
835.834	-0.76
836.004	-0.38
836.174	-0.09
836.344	-0.11
836.514	-0.93
836.684	-0.53
836.853	0.13
837.023	-0.31
837.193	-0.3
837.363	-0
837.532	-0.28
837.702	-0.47
837.872	-0.52
838.041	-0.07
838.211	1.23
838.381	-0.79
838.55	-0.09
838.72	1.44
838.89	0.98
839.059	-0.17
839.229	-0.44
839.398	1.1
839.568	0.02
839.738	-0.11
839.907	0.69
840.077	0
840.246	-0.71
840.416	-1.27
840.585	-0.53
840.755	1.87
840.924	1.27
841.093	-0.24
841.263	0.15
841.432	0.03
841.602	-0.59
841.771	-0.81
841.94	-0.28
842.11	1.34
842.279	1.58
842.448	-0.58
842.617	-0.2
842.787	0.5
842.956	-0.48
843.125	0.57
843.294	0.13
843.464	0.14
843.633	-0.15
843.802	-0.52
843.971	-0.73
844.14	0.48
844.309	0.52
844.479	-0.51
844.648	-1.7
844.817	-1.05
844.986	-0.11
845.155	-0.48
845.324	-0.8
845.493	-0.69
845.662	-0.67
845.831	0.09
846	0.05
846.169	-0.58
846.338	1.31
846.507	-0.08
846.676	-0.36
846.844	-0.69
847.013	1.19
847.182	-0.33
847.351	-0.08
847.52	-0.57
847.689	-0.57
847.858	-0.54
848.026	-1.06
848.195	-0.22
848.364	-0.3
848.533	-0.4
848.701	-1.18
848.87	-0.24
849.039	0.51
849.207	0.29
849.376	1.01
849.545	0.82
849.713	-0.77
849.882	-0.69
850.051	-0.07
850.219	-0.24
850.388	0.03
850.556	-1.07
850.725	-0.45
850.893	0.29
851.062	-0.66
851.23	0.51
851.399	-1.22
851.567	-0.67
851.736	-0.5
851.904	-1.12
852.073	0.41
852.241	0.08
852.41	-0.52
852.578	-1
852.746	-1.15
852.915	0.24
853.083	0
853.251	-0.6
853.42	-0.33
853.588	-0.2
853.756	0.72
853.924	0.21
854.093	-0.79
854.261	-0.86
854.429	-1.17
854.597	0.06
854.765	-0.16
854.934	1.16
855.102	0.42
855.27	-0.69
855.438	0.48
855.606	1.87
855.774	1.32
855.942	-1.21
856.11	-1.64
856.278	-0.54
856.446	1.25
856.614	0.33
856.782	-1.7
856.95	1.12
857.118	1.21
857.286	-0.22
857.454	-1.93
857.622	1.56
857.79	1.56
857.958	-1.05
858.126	-0.84
858.294	-2.08
858.462	-0.65
858.629	-0.82
858.797	-1.36
858.965	-0.5
859.133	1.29
859.301	-0.6
859.468	-0.42
859.636	-0.58
859.804	1.02
859.971	0.63
860.139	-0.88
860.307	0.66
860.474	0.46
860.642	-0.33
860.81	-1.35
860.977	-0.63
861.145	0.64
861.313	-0.38
861.48	-1.44
861.648	0.97
861.815	-1
861.983	-1.45
862.15	-0.43
862.318	0.33
862.485	1.33
862.653	-1.49
862.82	-0.5
862.988	1.15
863.155	0.23
863.322	-0.35
863.49	-0.66
863.657	-1.47
863.824	1.43
863.992	-0.05
864.159	-0.51
864.326	1.22
864.494	-1.84
864.661	1.86
864.828	-2.02
864.996	2.62
865.163	1.46
865.33	-1.87
865.497	-2.84
865.664	-0.47
865.832	-1.54
865.999	-1.62
866.166	-1.61
866.333	-0.29
866.5	-0.49
866.667	0.43
866.834	-0.34
867.001	1.41
867.168	-3.49
867.335	-0.75
867.502	-2.51
867.669	-0.78
867.836	1.24
868.003	-0.05
868.17	0.69
868.337	0.2
868.504	2.77
868.671	-0.89
868.838	-0.29
869.005	1.36
869.172	-0.46
869.339	-0.75
869.505	-1.43
869.672	-0.75
869.839	3.4
870.006	0.27
870.173	-2.39
870.339	-0.58
870.506	2.26
870.673	-1.21
870.84	0.18
871.006	-0.28
871.173	0.23
871.34	-0.41
871.506	-1.92
871.673	-0.64
871.839	-2.2
872.006	-0.16
872.173	0.5
872.339	-0.7
872.506	1.03
872.672	-1.36
872.839	-1.08
873.005	-0.04
873.172	2.56
873.338	0.57
873.505	0.17
873.671	0.07
873.838	1.36
874.004	-2.12
874.171	-0.71
874.337	0.09
874.503	1.07
874.67	-1.08
874.836	-2.29
875.002	1.41
875.169	0.46
875.335	0.7
875.501	-0.85
875.668	1.73
875.834	0.08
876	-1.49
876.166	1.11
876.332	-0.21
876.499	3.69
876.665	-1.1
876.831	-1.55
876.997	2.84
877.163	-0.93
877.329	-2.98
877.495	0.26
877.662	1.27
877.828	0.34
877.994	0.58
878.16	-2.71
878.326	-1.97
878.492	-0.99
878.658	-1.49
878.824	0.54
878.99	1.92
879.156	-2.38
879.322	1.28
879.487	-0.4
879.653	0.44
879.819	-0.89
879.985	-1.07
880.151	0.9
880.317	1
880.483	0.73
880.648	0.96
880.814	-2.87
880.98	0.79
881.146	-4.7
881.312	-2.36
881.477	1.08
881.643	-0.84
881.809	2.72
881.974	1.91
882.14	-2.83
882.306	1.14
882.471	2.98
882.637	-1.89
882.803	-0.2
882.968	1.82
883.134	3.32
883.299	-0.35
883.465	-1.67
883.63	1.2
883.796	1.85
883.961	1.15
884.127	1.48
884.292	-5.54
884.458	-2.15
884.623	-2.15
