Data from Apollo_Calib_20240827__AbsoluteIrradiance__77__00-26-00-896.txt Node

Date: Wed Aug 28 00:26:00 BST 2024
User: biology
Spectrometer: FLMT08252
Trigger mode: 0
Integration Time (sec): 5.000000E-1
Scans to average: 5
Electric dark correction enabled: true
Nonlinearity correction enabled: false
Boxcar width: 0
XAxis mode: Wavelengths
Number of Pixels in Spectrum: 3648
>>>>>Begin Spectral Data<<<<<
179.588	-0
179.809	-0
180.03	-0
180.251	-0
180.473	-0
180.694	0
180.915	0
181.136	-0
181.357	0
181.578	-0
181.799	-0
182.02	-0
182.241	-0
182.462	-0
182.683	0
182.904	-0
183.125	-0
183.346	-0
183.567	0
183.788	-0
184.009	-0
184.23	-0
184.451	0
184.672	-0
184.892	-0
185.113	0
185.334	0
185.555	-0
185.776	-0
185.996	-0
186.217	-0
186.438	-0
186.659	-0
186.879	0
187.1	-0
187.321	-0
187.541	-0
187.762	0
187.983	-0
188.203	0
188.424	-0
188.644	-0
188.865	0
189.086	-0
189.306	-0
189.527	-0
189.747	0
189.968	-0
190.188	0
190.409	0
190.629	0
190.849	-0
191.07	-0
191.29	0
191.511	0
191.731	-0
191.951	-0
192.172	0
192.392	-0
192.612	-0
192.833	-0
193.053	-0
193.273	0
193.493	-0
193.714	-0
193.934	0
194.154	0
194.374	0
194.594	0
194.815	-0
195.035	0
195.255	-0
195.475	-0
195.695	0
195.915	-0
196.135	-0
196.355	0
196.575	0
196.795	0
197.015	-0
197.235	-0
197.455	-0
197.675	-0
197.895	-0
198.115	-0
198.335	-0
198.555	-0
198.775	0
198.995	0
199.214	0
199.434	-0
199.654	-0
199.874	-0
200.094	0.74
200.313	-0.74
200.533	-0.35
200.753	-0.95
200.973	0.83
201.192	-0.05
201.412	-1.06
201.632	-0.37
201.851	1.3
202.071	-1.3
202.291	-0.73
202.51	-0.82
202.73	0.06
202.95	-0.52
203.169	-0.66
203.389	0.16
203.608	0.02
203.828	-0.64
204.047	-0.22
204.267	0.15
204.486	-0.55
204.706	0.04
204.925	-0.11
205.145	-0.33
205.364	0.5
205.583	0.1
205.803	-0.84
206.022	-0.56
206.242	-0.04
206.461	-0.05
206.68	-0.29
206.9	-0.14
207.119	0.28
207.338	0.11
207.557	-0.4
207.777	-0.27
207.996	-0.38
208.215	0.46
208.434	-0.51
208.654	-0.65
208.873	-0.26
209.092	0.34
209.311	-0.11
209.53	-0.13
209.749	-0.25
209.968	-0.47
210.187	-0.29
210.407	-0.47
210.626	-0.27
210.845	0.2
211.064	-0.12
211.283	-0.37
211.502	0.07
211.721	-0.25
211.94	-0.27
212.159	-0.04
212.377	0.24
212.596	0
212.815	-0.04
213.034	-0.06
213.253	0.26
213.472	0.13
213.691	-0.19
213.91	-0.37
214.128	-0.1
214.347	0.25
214.566	-0.49
214.785	-0.57
215.003	-0.05
215.222	0.07
215.441	-0.15
215.66	-0.32
215.878	0.03
216.097	0.1
216.316	-0.32
216.534	-0.07
216.753	-0.02
216.972	-0.1
217.19	-0.23
217.409	-0.28
217.627	-0.26
217.846	-0.32
218.064	-0.07
218.283	-0.17
218.501	0.26
218.72	0.14
218.938	-0.22
219.157	-0.15
219.375	0.13
219.594	0
219.812	-0.36
220.031	-0.2
220.249	0.23
220.467	0.36
220.686	-0.22
220.904	-0.24
221.122	-0.25
221.341	0.21
221.559	0.1
221.777	-0.29
221.995	-0.07
222.214	0.1
222.432	-0.09
222.65	0.08
222.868	0.06
223.086	-0.05
223.305	0.07
223.523	-0.1
223.741	0.27
223.959	-0.13
224.177	-0.24
224.395	-0.05
224.613	-0.14
224.831	0.22
225.049	-0.28
225.267	-0.18
225.485	0.05
225.703	0.03
225.921	0.13
226.139	-0.29
226.357	0.08
226.575	0.01
226.793	-0.06
227.011	0.31
227.229	0.09
227.447	0.09
227.665	-0.12
227.883	-0.26
228.1	0.02
228.318	-0.12
228.536	-0.27
228.754	-0.1
228.972	0.07
229.189	0.06
229.407	-0.13
229.625	-0.14
229.843	0.07
230.06	0.14
230.278	-0.24
230.496	-0.08
230.713	0.05
230.931	0.12
231.149	-0.09
231.366	-0.34
231.584	0.03
231.801	0.23
232.019	-0.05
232.236	-0.15
232.454	-0.14
232.671	0.02
232.889	0.11
233.106	-0.05
233.324	-0.1
233.541	-0.08
233.759	-0.14
233.976	-0.21
234.194	-0.06
234.411	-0.04
234.628	-0.09
234.846	-0.1
235.063	-0.06
235.28	-0.1
235.498	-0.08
235.715	-0.13
235.932	0.04
236.149	-0.05
236.367	-0.22
236.584	0.03
236.801	-0.09
237.018	-0.02
237.236	0.06
237.453	-0.18
237.67	0.05
237.887	-0.01
238.104	-0.07
238.321	-0.21
238.538	-0.11
238.755	0.09
238.973	-0.22
239.19	-0.01
239.407	0
239.624	0.08
239.841	-0.08
240.058	-0.1
240.275	0.06
240.492	-0.07
240.709	-0.06
240.925	-0.12
241.142	0.06
241.359	-0.16
241.576	-0.1
241.793	-0.1
242.01	-0.01
242.227	-0.06
242.444	0.02
242.66	0.05
242.877	0.04
243.094	-0.13
243.311	-0.03
243.527	-0.12
243.744	-0.06
243.961	-0.05
244.178	-0.07
244.394	-0.09
244.611	0.07
244.828	0.15
245.044	-0.09
245.261	-0.06
245.477	-0.1
245.694	-0.07
245.911	-0.15
246.127	-0.04
246.344	0.1
246.56	0.04
246.777	-0.13
246.993	0.01
247.21	0.02
247.426	0.04
247.643	0.02
247.859	-0.1
248.076	-0.09
248.292	0.16
248.508	-0.08
248.725	0.07
248.941	0.04
249.157	0.11
249.374	-0.09
249.59	0.02
249.806	-0.03
250.023	-0.03
250.239	-0.12
250.455	-0.09
250.671	-0.09
250.888	-0
251.104	0.04
251.32	-0.13
251.536	-0.04
251.752	-0.06
251.969	-0.08
252.185	-0.02
252.401	0.14
252.617	0.01
252.833	0
253.049	-0.02
253.265	0.01
253.481	-0
253.697	-0.1
253.913	-0.08
254.129	-0.04
254.345	-0.08
254.561	-0.11
254.777	-0
254.993	-0.03
255.209	-0.02
255.425	-0.04
255.641	-0.06
255.857	0.07
256.073	-0.02
256.288	-0.14
256.504	-0.04
256.72	0.05
256.936	0.11
257.152	-0.04
257.367	-0.12
257.583	-0.02
257.799	0.08
258.015	-0.09
258.23	0
258.446	0.07
258.662	-0.07
258.877	-0.08
259.093	-0.1
259.309	0.02
259.524	-0.01
259.74	-0.06
259.955	-0.09
260.171	-0
260.387	-0.01
260.602	0.02
260.818	-0.03
261.033	-0.08
261.249	-0.09
261.464	-0.02
261.68	-0.16
261.895	-0.02
262.11	-0.01
262.326	-0
262.541	-0.17
262.757	0.05
262.972	0.06
263.187	0.02
263.403	-0.07
263.618	0
263.833	0
264.049	-0.12
264.264	0.02
264.479	0.03
264.694	0.09
264.91	-0.07
265.125	-0.08
265.34	0.07
265.555	0.1
265.77	0.03
265.986	-0.07
266.201	0.02
266.416	0.03
266.631	-0.07
266.846	-0.05
267.061	-0.01
267.276	0.07
267.491	-0.16
267.706	0.03
267.921	0
268.136	-0.04
268.351	-0.02
268.566	-0.11
268.781	0.07
268.996	0.08
269.211	-0.02
269.426	-0.01
269.641	-0.04
269.856	0
270.071	-0.07
270.285	-0.08
270.5	0.04
270.715	0
270.93	-0.02
271.145	-0.02
271.359	0.06
271.574	-0.05
271.789	-0.04
272.004	0.02
272.218	-0.09
272.433	0.05
272.648	-0.07
272.862	0.04
273.077	0.01
273.292	-0.01
273.506	-0.1
273.721	-0.09
273.936	-0.01
274.15	0.11
274.365	-0.01
274.579	0.03
274.794	0.01
275.008	0.05
275.223	-0.13
275.437	-0.02
275.652	-0.01
275.866	-0.01
276.081	-0.06
276.295	0.08
276.509	-0.05
276.724	0.04
276.938	0.01
277.153	0.01
277.367	-0.01
277.581	-0.05
277.796	-0.02
278.01	-0.06
278.224	0.01
278.438	0.13
278.653	-0.05
278.867	-0.02
279.081	-0.14
279.295	-0.07
279.51	0.04
279.724	-0.14
279.938	0.02
280.152	0.02
280.366	-0.06
280.58	0.01
280.794	0.04
281.008	-0.02
281.222	0
281.437	0.13
281.651	-0
281.865	0.05
282.079	0
282.293	-0.12
282.507	-0.04
282.721	-0.02
282.935	0.02
283.148	-0.06
283.362	-0.04
283.576	-0.09
283.79	-0.01
284.004	-0.09
284.218	0.03
284.432	-0.03
284.646	-0
284.859	-0.07
285.073	-0.01
285.287	-0.03
285.501	-0.01
285.714	-0.02
285.928	-0.01
286.142	-0.04
286.356	-0.06
286.569	-0.05
286.783	0.11
286.997	0.03
287.21	-0.01
287.424	0.04
287.637	-0.02
287.851	-0.04
288.065	0.04
288.278	-0.05
288.492	0.01
288.705	-0.06
288.919	0.02
289.132	-0.1
289.346	0.02
289.559	-0.11
289.773	-0.07
289.986	-0.01
290.2	-0.01
290.413	0.07
290.626	-0.04
290.84	0.03
291.053	-0.04
291.267	0.03
291.48	-0.02
291.693	0.01
291.906	-0.02
292.12	-0.05
292.333	-0.02
292.546	-0.04
292.76	0.06
292.973	0.03
293.186	0.03
293.399	-0.03
293.612	0.05
293.826	-0.02
294.039	-0.01
294.252	-0
294.465	0.04
294.678	0.01
294.891	0
295.104	-0.04
295.317	-0.03
295.53	-0
295.743	0.01
295.956	-0.03
296.169	0.06
296.382	0.05
296.595	0.01
296.808	-0.05
297.021	0.04
297.234	0.01
297.447	-0.03
297.66	-0.02
297.873	0.07
298.086	0.01
298.299	-0.02
298.511	-0.04
298.724	-0.01
298.937	-0.09
299.15	-0.03
299.363	0.05
299.575	-0.01
299.788	0.04
300.001	-0.01
300.213	0
300.426	-0.03
300.639	-0.06
300.852	-0.03
301.064	0.03
301.277	0.02
301.489	0.1
301.702	0.06
301.915	0.02
302.127	-0.03
302.34	0.02
302.552	-0.01
302.765	-0.01
302.977	0.01
303.19	-0.05
303.402	-0.01
303.615	-0.03
303.827	-0.01
304.04	-0.01
304.252	0.03
304.464	-0
304.677	0.04
304.889	0.05
305.102	-0.05
305.314	-0.02
305.526	0.03
305.739	0.03
305.951	-0.01
306.163	-0
306.375	0.06
306.588	-0.01
306.8	-0.04
307.012	-0.01
307.224	0.03
307.436	0.04
307.649	-0.08
307.861	-0.03
308.073	0.04
308.285	-0.03
308.497	-0.07
308.709	-0.01
308.921	0.03
309.133	-0
309.346	0.01
309.558	0.02
309.77	0.05
309.982	-0.12
310.194	0.03
310.406	-0.05
310.617	0.05
310.829	0
311.041	-0.01
311.253	-0.05
311.465	-0.04
311.677	-0.02
311.889	-0.08
312.101	-0.01
312.313	0.05
312.524	0.02
312.736	-0.08
312.948	-0.03
313.16	0.05
313.372	0.06
313.583	0.03
313.795	-0.01
314.007	-0.04
314.218	0.02
314.43	-0.01
314.642	-0.03
314.853	-0.05
315.065	-0
315.277	-0.02
315.488	0.01
315.7	-0.01
315.912	0.03
316.123	0.01
316.335	-0.04
316.546	0.09
316.758	-0
316.969	-0
317.181	0.02
317.392	-0.02
317.604	0.09
317.815	-0.09
318.026	-0.09
318.238	-0.02
318.449	0.04
318.661	-0.07
318.872	-0.03
319.083	-0.04
319.295	0.05
319.506	-0.05
319.717	-0.03
319.929	-0.02
320.14	0.01
320.351	-0.01
320.562	-0.01
320.774	-0.03
320.985	-0.01
321.196	-0.03
321.407	-0.08
321.618	-0.01
321.829	0.02
322.041	0
322.252	0.01
322.463	-0.04
322.674	0.02
322.885	-0.04
323.096	-0.01
323.307	-0.03
323.518	0.01
323.729	-0.06
323.94	0.01
324.151	-0.02
324.362	0
324.573	-0.02
324.784	-0.03
324.995	0.04
325.206	-0.01
325.417	-0.08
325.628	-0.01
325.838	0.04
326.049	-0
326.26	0.03
326.471	-0.01
326.682	-0
326.892	-0.01
327.103	-0.07
327.314	-0.1
327.525	0.01
327.735	0.01
327.946	0
328.157	-0.02
328.368	-0
328.578	-0.02
328.789	0.04
328.999	-0.02
329.21	-0.04
329.421	-0.02
329.631	-0.04
329.842	-0.01
330.052	0
330.263	0.03
330.473	0.02
330.684	-0
330.894	-0.04
331.105	0
331.315	-0.01
331.526	-0.04
331.736	0.05
331.947	-0.01
332.157	-0.01
332.367	-0.06
332.578	0.05
332.788	0.03
332.999	-0.02
333.209	-0.02
333.419	-0.04
333.629	0.02
333.84	0.02
334.05	-0.02
334.26	0.04
334.47	-0.02
334.681	0.04
334.891	-0.01
335.101	0
335.311	0.08
335.521	-0.03
335.732	-0.05
335.942	0.06
336.152	0.02
336.362	-0
336.572	0.01
336.782	0.08
336.992	-0.03
337.202	-0.05
337.412	-0.04
337.622	0.02
337.832	-0.03
338.042	-0
338.252	-0.06
338.462	-0.05
338.672	-0.03
338.882	0.01
339.092	-0.05
339.302	0.08
339.511	0.01
339.721	-0.02
339.931	-0.04
340.141	-0.01
340.351	0.03
340.561	-0.03
340.77	0
340.98	0
341.19	0.03
341.4	-0.06
341.609	-0.05
341.819	-0.03
342.029	-0.06
342.238	0.03
342.448	-0.04
342.658	0.02
342.867	0.05
343.077	0.03
343.286	0
343.496	0.01
343.706	0.06
343.915	-0.04
344.125	-0.02
344.334	0.03
344.544	-0.1
344.753	-0.02
344.963	-0.05
345.172	-0.04
345.381	-0.03
345.591	-0.04
345.8	0.03
346.01	0.08
346.219	0.02
346.428	-0.11
346.638	-0.01
346.847	0.01
347.056	0.02
347.266	-0.05
347.475	-0.03
347.684	0.04
347.893	0.02
348.103	0.03
348.312	-0
348.521	-0.01
348.73	-0.01
348.94	0
349.149	-0.03
349.358	-0.01
349.567	-0.05
349.776	-0.06
349.985	-0.02
350.194	0.01
350.403	0.01
350.612	-0.06
350.821	0.01
351.03	-0.01
351.239	-0.07
351.448	0.01
351.657	-0.02
351.866	0.09
352.075	-0.03
352.284	0.02
352.493	-0.06
352.702	0.05
352.911	0.03
353.12	-0.01
353.329	-0.04
353.538	0.04
353.746	-0.02
353.955	-0.07
354.164	0.02
354.373	-0.02
354.582	0.03
354.79	-0.01
354.999	0.01
355.208	-0.02
355.416	0.06
355.625	-0.02
355.834	-0.01
356.042	-0.03
356.251	-0.03
356.46	-0.03
356.668	0.02
356.877	0.08
357.085	0.05
357.294	-0.07
357.503	0.04
357.711	0
357.92	0.11
358.128	-0
358.337	-0.02
358.545	0.01
358.754	-0.05
358.962	0.03
359.17	-0.07
359.379	-0
359.587	0.02
359.796	-0.03
360.004	0.03
360.212	-0.02
360.421	0.05
360.629	0.01
360.837	-0.01
361.046	0.01
361.254	0.08
361.462	-0
361.67	-0.06
361.879	0.02
362.087	0.02
362.295	0.04
362.503	-0.03
362.711	-0.04
362.92	-0.05
363.128	-0.01
363.336	-0.05
363.544	-0.04
363.752	-0
363.96	-0.05
364.168	-0.03
364.376	-0
364.584	0
364.792	0.01
365	0
365.208	0.03
365.416	0.03
365.624	0.05
365.832	-0.03
366.04	0.04
366.248	-0
366.456	0.01
366.664	0
366.872	-0
367.079	0.02
367.287	0.02
367.495	0.04
367.703	0.02
367.911	-0.01
368.118	-0.01
368.326	0.02
368.534	-0.02
368.742	0.04
368.949	-0.03
369.157	-0.01
369.365	0.04
369.572	-0.02
369.78	0.01
369.988	0.08
370.195	0.02
370.403	0.05
370.61	0.03
370.818	0.04
371.026	0.13
371.233	0.05
371.441	0.05
371.648	0.02
371.856	0.08
372.063	0.04
372.271	0.05
372.478	0.05
372.685	0.07
372.893	0.15
373.1	0.11
373.308	0.07
373.515	0.17
373.722	0.13
373.93	0.09
374.137	0.14
374.344	0.17
374.552	0.18
374.759	0.17
374.966	0.11
375.173	0.14
375.381	0.22
375.588	0.13
375.795	0.08
376.002	0.15
376.209	0.16
376.417	0.23
376.624	0.27
376.831	0.22
377.038	0.22
377.245	0.18
377.452	0.28
377.659	0.3
377.866	0.26
378.073	0.33
378.28	0.34
378.487	0.36
378.694	0.41
378.901	0.35
379.108	0.37
379.315	0.49
379.522	0.51
379.729	0.45
379.936	0.44
380.143	0.54
380.35	0.53
380.557	0.55
380.763	0.56
380.97	0.54
381.177	0.61
381.384	0.63
381.591	0.66
381.797	0.65
382.004	0.65
382.211	0.69
382.418	0.68
382.624	0.68
382.831	0.71
383.038	0.63
383.244	0.63
383.451	0.54
383.658	0.59
383.864	0.57
384.071	0.56
384.277	0.59
384.484	0.49
384.69	0.54
384.897	0.45
385.103	0.49
385.31	0.47
385.516	0.41
385.723	0.38
385.929	0.39
386.136	0.36
386.342	0.43
386.549	0.35
386.755	0.4
386.961	0.34
387.168	0.3
387.374	0.26
387.58	0.33
387.787	0.2
387.993	0.27
388.199	0.25
388.406	0.21
388.612	0.22
388.818	0.19
389.024	0.2
389.231	0.2
389.437	0.26
389.643	0.21
389.849	0.21
390.055	0.21
390.261	0.19
390.467	0.22
390.674	0.13
390.88	0.15
391.086	0.18
391.292	0.08
391.498	0.17
391.704	0.16
391.91	0.17
392.116	0.16
392.322	0.06
392.528	0.16
392.734	0.11
392.94	0.11
393.146	0.07
393.352	0.11
393.557	0.11
393.763	0.13
393.969	0.1
394.175	0.09
394.381	0.09
394.587	0.05
394.792	0.07
394.998	0.09
395.204	0.11
395.41	0.01
395.615	0.1
395.821	0.08
396.027	0.1
396.233	0.04
396.438	0.09
396.644	0.15
396.85	0.08
397.055	0.02
397.261	0.09
397.466	0.09
397.672	0.06
397.878	0.1
398.083	0.02
398.289	-0.02
398.494	0.05
398.7	0.09
398.905	-0.04
399.111	0.11
399.316	-0.01
399.522	0.07
399.727	-0
399.932	0.01
400.138	0.05
400.343	0.09
400.549	0.03
400.754	0.01
400.959	0.05
401.165	0.02
401.37	0.01
401.575	0.01
401.78	0.02
401.986	-0.04
402.191	0.02
402.396	0.06
402.601	0.07
402.807	0.06
403.012	0.03
403.217	0.03
403.422	0.02
403.627	-0
403.832	0.01
404.037	0.04
404.243	0.03
404.448	0
404.653	0
404.858	0.02
405.063	0.11
405.268	-0.03
405.473	-0.03
405.678	-0
405.883	0.16
406.088	0.05
406.293	-0.05
406.498	-0.04
406.703	0.07
406.907	0.02
407.112	-0.01
407.317	0.05
407.522	0.02
407.727	-0.05
407.932	0.02
408.136	0.1
408.341	-0.01
408.546	-0.01
408.751	0.02
408.956	0.01
409.16	0
409.365	-0.02
409.57	-0.01
409.774	0
409.979	0.05
410.184	0.02
410.388	-0.01
410.593	0.06
410.798	0.05
411.002	-0.04
411.207	-0.03
411.411	0.05
411.616	-0.12
411.82	-0.03
412.025	0.05
412.229	-0.02
412.434	0.09
412.638	0.04
412.843	-0.01
413.047	0.06
413.252	-0.04
413.456	-0.04
413.66	0.05
413.865	-0.09
414.069	0.08
414.273	-0.01
414.478	-0.01
414.682	-0.03
414.886	-0.06
415.091	-0.08
415.295	-0.09
415.499	0.01
415.703	-0.04
415.908	0.05
416.112	-0.07
416.316	-0.01
416.52	-0.02
416.724	-0.06
416.929	-0.03
417.133	0.07
417.337	0.01
417.541	-0.01
417.745	-0.02
417.949	0.05
418.153	0.04
418.357	-0.09
418.561	0.04
418.765	-0.02
418.969	0.07
419.173	0.03
419.377	-0.08
419.581	0.06
419.785	0.02
419.989	-0.03
420.193	-0.03
420.397	-0.03
420.601	0.04
420.804	0.04
421.008	-0.03
421.212	0.03
421.416	0.02
421.62	-0.04
421.823	-0.03
422.027	0.03
422.231	0.02
422.435	-0.02
422.638	0.04
422.842	-0.01
423.046	-0.04
423.249	0.02
423.453	0.02
423.657	0.02
423.86	0
424.064	0.01
424.268	0.08
424.471	-0.04
424.675	0.07
424.878	0.04
425.082	-0.02
425.285	0.04
425.489	0.02
425.692	-0
425.896	-0.04
426.099	-0.01
426.303	-0.05
426.506	-0.03
426.71	0
426.913	0.01
427.116	0.05
427.32	0
427.523	-0
427.726	0.09
427.93	-0.07
428.133	-0
428.336	-0.06
428.54	-0.08
428.743	0.03
428.946	0.06
429.149	-0.05
429.353	-0.01
429.556	-0.02
429.759	-0.01
429.962	-0.07
430.165	-0.02
430.368	-0.01
430.571	-0.02
430.775	0.08
430.978	-0.01
431.181	-0.01
431.384	0.04
431.587	-0.02
431.79	-0
431.993	-0.05
432.196	-0.01
432.399	-0.04
432.602	0.03
432.805	0
433.008	-0.04
433.211	-0.03
433.414	0.02
433.616	0.06
433.819	-0.02
434.022	-0.06
434.225	0.07
434.428	0.04
434.631	0.09
434.833	0.03
435.036	-0.03
435.239	0.08
435.442	0.03
435.645	-0.04
435.847	0.03
436.05	0.01
436.253	0.01
436.455	0.02
436.658	-0.02
436.861	0.1
437.063	0.02
437.266	-0.03
437.468	0.03
437.671	0.11
437.874	0
438.076	-0.02
438.279	-0.05
438.481	0.01
438.684	-0
438.886	0.07
439.089	-0.06
439.291	0.03
439.494	0
439.696	-0.02
439.899	0.03
440.101	0.04
440.303	-0.02
440.506	0
440.708	0.03
440.91	0.06
441.113	-0.02
441.315	0.1
441.517	-0.02
441.72	0.07
441.922	-0
442.124	-0.02
442.326	0.06
442.529	0.1
442.731	-0.02
442.933	0.13
443.135	0.02
443.337	-0.02
443.539	0
443.742	0.05
443.944	0.06
444.146	-0.01
444.348	0
444.55	-0.02
444.752	0.06
444.954	-0.01
445.156	0.03
445.358	0.02
445.56	0.11
445.762	0.02
445.964	0.06
446.166	0.03
446.368	0
446.57	0.1
446.772	0.05
446.974	0.02
447.175	0.07
447.377	0
447.579	0.01
447.781	-0.05
447.983	0.07
448.184	0.07
448.386	0.07
448.588	-0
448.79	0.05
448.991	0.03
449.193	0.03
449.395	0.02
449.597	0.1
449.798	0.07
450	0.11
450.202	0.1
450.403	0.05
450.605	0.08
450.806	0.03
451.008	-0.03
451.21	0.03
451.411	0.07
451.613	0.01
451.814	0.05
452.016	0.11
452.217	0.05
452.419	0.06
452.62	-0
452.821	0.04
453.023	0.1
453.224	0.06
453.426	0.05
453.627	0.07
453.828	0.11
454.03	0.02
454.231	0.06
454.432	0.03
454.634	0.12
454.835	-0.03
455.036	-0.05
455.238	0.1
455.439	0.11
455.64	-0.01
455.841	-0.03
456.042	0.16
456.244	0.04
456.445	0.01
456.646	-0.02
456.847	0.06
457.048	0.04
457.249	0.07
457.45	0.2
457.651	-0.02
457.852	0.06
458.054	-0.03
458.255	0.02
458.456	0.04
458.657	0.04
458.858	0
459.058	0.03
459.259	0.05
459.46	0.01
459.661	-0.01
459.862	0.12
460.063	-0.04
460.264	0.07
460.465	-0.01
460.666	0.1
460.866	-0.02
461.067	0.01
461.268	0.01
461.469	0.01
461.67	-0.03
461.87	0.02
462.071	-0
462.272	-0
462.473	0.02
462.673	0.08
462.874	-0.01
463.075	0.02
463.275	-0.01
463.476	0.07
463.676	0.01
463.877	0.01
464.078	-0.02
464.278	0.08
464.479	-0.03
464.679	0.01
464.88	0.02
465.08	0.07
465.281	0.01
465.481	-0.02
465.682	0.03
465.882	0.01
466.083	0.03
466.283	-0.01
466.483	-0
466.684	-0.02
466.884	-0.02
467.085	-0.04
467.285	0.04
467.485	-0.05
467.686	0.03
467.886	0
468.086	-0.01
468.286	0.03
468.487	0.02
468.687	-0.05
468.887	-0.04
469.087	0.05
469.287	0.02
469.488	-0.05
469.688	0.01
469.888	-0.01
470.088	0.03
470.288	0.06
470.488	0.03
470.688	-0.03
470.888	-0.05
471.088	-0.03
471.288	0.03
471.488	0.05
471.688	0.01
471.888	-0.01
472.088	0.1
472.288	0.05
472.488	-0.05
472.688	-0.04
472.888	0.02
473.088	0.01
473.288	-0.04
473.488	0.01
473.688	0.09
473.887	0.04
474.087	-0.04
474.287	0
474.487	0
474.687	0.05
474.886	-0.02
475.086	0.01
475.286	-0.05
475.486	0.01
475.685	-0.01
475.885	-0.03
476.085	0.01
476.284	0.02
476.484	-0.02
476.684	0.05
476.883	0.03
477.083	0.03
477.282	-0.05
477.482	0.09
477.681	0.05
477.881	0.02
478.08	-0.06
478.28	-0.05
478.479	0.03
478.679	0.06
478.878	-0.03
479.078	-0.03
479.277	-0.02
479.477	0.01
479.676	0.04
479.875	0.02
480.075	-0.04
480.274	-0.01
480.473	0.01
480.673	-0.04
480.872	0.03
481.071	0.03
481.271	-0
481.47	-0.04
481.669	-0.01
481.868	-0.04
482.067	-0.02
482.267	-0.02
482.466	-0.02
482.665	-0.04
482.864	-0.03
483.063	-0.04
483.262	0.04
483.461	0.06
483.661	0.03
483.86	0
484.059	-0.02
484.258	-0.01
484.457	-0.03
484.656	-0.02
484.855	0.02
485.054	-0.03
485.253	-0.03
485.452	-0.07
485.651	-0
485.849	-0.01
486.048	-0.04
486.247	-0.02
486.446	-0.02
486.645	-0.06
486.844	-0.04
487.043	-0.01
487.241	0.03
487.44	-0.04
487.639	-0
487.838	0.03
488.037	-0.02
488.235	0.05
488.434	0
488.633	-0
488.831	-0.01
489.03	0
489.229	0.01
489.427	-0.01
489.626	0.02
489.825	0.04
490.023	0
490.222	-0.02
490.42	0.01
490.619	0.03
490.817	0.01
491.016	-0.03
491.214	0.02
491.413	-0.01
491.611	-0.01
491.81	-0.01
492.008	0.02
492.207	0.03
492.405	0.01
492.604	-0.05
492.802	-0
493	0
493.199	-0.01
493.397	-0.01
493.595	-0.02
493.794	-0.02
493.992	0.03
494.19	-0.01
494.388	0
494.587	-0.04
494.785	-0.02
494.983	-0.04
495.181	0
495.379	-0
495.578	-0.01
495.776	0.02
495.974	-0.01
496.172	0.01
496.37	-0.01
496.568	-0
496.766	-0.02
496.964	0.03
497.162	0.01
497.36	-0.04
497.558	0
497.756	0.02
497.954	-0
498.152	-0.03
498.35	-0.01
498.548	-0.02
498.746	0.01
498.944	-0.03
499.142	-0.02
499.34	-0.03
499.538	0
499.736	-0.01
499.933	0.01
500.131	0.04
500.329	-0.02
500.527	0.04
500.725	0.01
500.922	-0
501.12	0.02
501.318	0.01
501.516	-0.02
501.713	0
501.911	-0.01
502.109	-0.03
502.306	0.01
502.504	-0.03
502.701	-0.02
502.899	-0.01
503.097	0.03
503.294	0
503.492	0.01
503.689	-0
503.887	0.01
504.084	0.05
504.282	0.01
504.479	-0.04
504.677	0
504.874	-0.04
505.072	-0.01
505.269	-0.01
505.466	0
505.664	0.01
505.861	-0.05
506.059	-0.02
506.256	0.02
506.453	-0.03
506.651	0.02
506.848	0.03
507.045	-0.02
507.242	0.01
507.44	-0.01
507.637	-0.01
507.834	-0.02
508.031	0.02
508.229	-0.02
508.426	0
508.623	0.03
508.82	-0.01
509.017	-0.01
509.214	-0.01
509.411	-0.02
509.608	-0.02
509.805	-0.01
510.003	-0.02
510.2	-0.03
510.397	0.03
510.594	-0.03
510.791	-0.02
510.988	-0.01
511.184	-0
511.381	0.02
511.578	-0.04
511.775	0.03
511.972	-0.03
512.169	-0.01
512.366	-0.02
512.563	-0.01
512.76	-0.01
512.956	0.01
513.153	-0
513.35	-0
513.547	-0
513.744	-0
513.94	-0.03
514.137	-0.01
514.334	-0.02
514.53	-0
514.727	-0
514.924	0.03
515.12	-0.01
515.317	-0.04
515.514	-0.02
515.71	-0.03
515.907	-0.01
516.103	-0.01
516.3	0.03
516.497	0.02
516.693	0.01
516.89	-0.01
517.086	-0.03
517.283	0.01
517.479	-0.01
517.676	-0.01
517.872	-0.02
518.068	-0.01
518.265	-0.01
518.461	-0.02
518.658	-0.04
518.854	0.02
519.05	-0.01
519.247	-0.03
519.443	0
519.639	-0.01
519.836	0
520.032	-0
520.228	0.01
520.424	0.03
520.621	0.02
520.817	-0.01
521.013	0.01
521.209	0.02
521.405	0.03
521.601	0
521.798	0
521.994	0.03
522.19	-0.03
522.386	-0.04
522.582	-0.01
522.778	0
522.974	-0.01
523.17	-0
523.366	0.04
523.562	0.04
523.758	-0.01
523.954	-0.01
524.15	-0.02
524.346	0.02
524.542	0.01
524.738	-0.02
524.934	-0.01
525.129	-0.07
525.325	0.01
525.521	-0.01
525.717	0
525.913	-0.01
526.109	0.01
526.304	-0
526.5	0.01
526.696	0.02
526.892	0.01
527.087	-0
527.283	-0.03
527.479	-0.01
527.674	-0.01
527.87	-0.01
528.066	-0.02
528.261	0
528.457	0.01
528.653	-0.02
528.848	-0
529.044	-0
529.239	-0.01
529.435	0.03
529.63	-0.01
529.826	0.04
530.021	-0.01
530.217	0.02
530.412	-0.04
530.608	-0.02
530.803	-0.01
530.999	-0.01
531.194	-0.04
531.389	-0
531.585	-0.04
531.78	0
531.975	0.01
532.171	0.01
532.366	-0.01
532.561	-0.02
532.757	-0.03
532.952	0
533.147	0.02
533.342	0.02
533.538	-0.02
533.733	0.01
533.928	-0.01
534.123	-0.02
534.318	-0.03
534.513	-0.01
534.709	0.02
534.904	-0.02
535.099	0
535.294	-0
535.489	0
535.684	-0.02
535.879	-0.03
536.074	-0.01
536.269	-0.05
536.464	0.01
536.659	0.01
536.854	-0.01
537.049	-0.02
537.244	-0.02
537.439	-0.02
537.634	0.03
537.828	0
538.023	-0
538.218	-0.03
538.413	-0.02
538.608	-0.04
538.803	0.02
538.997	-0.03
539.192	-0
539.387	0.02
539.582	0.01
539.776	0.01
539.971	-0.03
540.166	-0
540.36	-0.03
540.555	0.01
540.75	-0.04
540.944	-0
541.139	-0.03
541.334	-0.02
541.528	0.01
541.723	-0.01
541.917	-0.02
542.112	-0.04
542.306	-0.01
542.501	-0.03
542.695	0
542.89	-0.03
543.084	-0.02
543.279	-0.01
543.473	-0.03
543.668	-0.02
543.862	-0.02
544.056	0.02
544.251	-0.01
544.445	0
544.64	-0.02
544.834	-0.04
545.028	0.01
545.222	-0.02
545.417	0
545.611	0.01
545.805	-0.01
546	-0.03
546.194	-0.01
546.388	-0.03
546.582	0.01
546.776	-0.01
546.97	-0
547.165	0.01
547.359	0.01
547.553	-0.02
547.747	-0
547.941	0.01
548.135	-0.01
548.329	0
548.523	0.01
548.717	-0.01
548.911	-0.02
549.105	-0.01
549.299	-0.01
549.493	0.02
549.687	0.01
549.881	0.01
550.075	-0
550.269	-0.03
550.463	-0
550.657	-0.02
550.85	-0.01
551.044	-0.02
551.238	-0.01
551.432	-0
551.626	-0.01
551.82	-0
552.013	-0.03
552.207	0
552.401	0.03
552.594	-0.01
552.788	-0
552.982	-0
553.176	-0.02
553.369	-0.01
553.563	0.02
553.756	-0.03
553.95	-0.03
554.144	-0.01
554.337	0.02
554.531	-0.02
554.724	0
554.918	-0.01
555.111	0.01
555.305	-0.01
555.498	0.02
555.692	-0
555.885	-0.03
556.079	0
556.272	-0.02
556.466	0
556.659	-0
556.852	0
557.046	-0.04
557.239	-0.01
557.432	-0.03
557.626	-0.02
557.819	0
558.012	0.02
558.206	0.01
558.399	-0
558.592	0.01
558.785	-0.01
558.979	-0
559.172	-0.01
559.365	0.01
559.558	0.01
559.751	-0.01
559.944	-0.02
560.138	-0.03
560.331	-0.02
560.524	-0.01
560.717	-0.02
560.91	0.02
561.103	0.01
561.296	-0.02
561.489	0.02
561.682	-0.01
561.875	0.03
562.068	0
562.261	0
562.454	0.01
562.647	0.02
562.84	0
563.032	-0.03
563.225	-0.01
563.418	0.02
563.611	-0.03
563.804	-0.01
563.997	-0.04
564.19	-0.04
564.382	0
564.575	-0
564.768	-0
564.961	-0.03
565.153	-0.01
565.346	0.03
565.539	0.03
565.731	0.01
565.924	0.02
566.117	0.02
566.309	-0.01
566.502	-0.03
566.695	-0.02
566.887	0.01
567.08	-0.02
567.272	-0.03
567.465	-0.02
567.657	-0.01
567.85	0
568.042	-0.01
568.235	0.03
568.427	-0.01
568.62	-0
568.812	-0
569.005	-0.01
569.197	-0.04
569.389	-0
569.582	-0.01
569.774	0.01
569.966	-0.04
570.159	-0.01
570.351	-0.02
570.543	-0.02
570.736	0.01
570.928	-0.02
571.12	-0
571.312	-0.02
571.505	-0.04
571.697	0.02
571.889	-0.02
572.081	-0.03
572.273	-0.04
572.465	0.03
572.658	-0.02
572.85	0.01
573.042	-0.01
573.234	-0.01
573.426	0.01
573.618	-0.02
573.81	-0.01
574.002	0.01
574.194	0.03
574.386	-0.02
574.578	-0.08
574.77	-0.03
574.962	-0.03
575.154	-0.04
575.346	-0.03
575.538	-0.02
575.729	-0.03
575.921	-0.01
576.113	-0.02
576.305	-0
576.497	-0.01
576.689	-0.01
576.88	-0.02
577.072	0.03
577.264	-0.02
577.456	0
577.647	-0.07
577.839	0.01
578.031	0.03
578.223	-0.02
578.414	-0.03
578.606	-0
578.798	-0.01
578.989	-0.04
579.181	-0.02
579.372	-0.02
579.564	-0
579.755	0
579.947	0
580.139	0.01
580.33	-0.06
580.522	-0.03
580.713	-0.08
580.905	-0
581.096	0.01
581.287	-0.01
581.479	-0.03
581.67	-0.01
581.862	-0.03
582.053	-0.04
582.244	-0.06
582.436	-0.01
582.627	-0.02
582.818	-0.01
583.01	-0.04
583.201	0.01
583.392	-0
583.583	-0.01
583.775	-0.04
583.966	-0.03
584.157	-0
584.348	-0.05
584.54	-0.05
584.731	0.02
584.922	-0
585.113	-0.02
585.304	0.03
585.495	0.01
585.686	0.03
585.877	0.01
586.068	0.03
586.259	0.02
586.45	0.01
586.641	-0.03
586.832	-0.07
587.023	0
587.214	-0.01
587.405	-0.02
587.596	-0.03
587.787	0.02
587.978	0.01
588.169	-0.03
588.36	-0.01
588.551	-0.01
588.742	-0.03
588.932	0.01
589.123	-0.01
589.314	-0.02
589.505	0.02
589.696	0.02
589.886	-0.02
590.077	-0.04
590.268	0
590.458	-0.01
590.649	-0.06
590.84	0.01
591.03	-0.02
591.221	-0.02
591.412	-0.05
591.602	0.01
591.793	0.05
591.984	-0.04
592.174	-0.02
592.365	0.04
592.555	-0.04
592.746	-0.02
592.936	0
593.127	-0
593.317	0
593.508	-0.04
593.698	-0.01
593.889	-0.01
594.079	-0.01
594.269	-0.03
594.46	0.01
594.65	-0.03
594.84	-0.01
595.031	-0.02
595.221	-0.02
595.411	-0.05
595.602	-0.02
595.792	0
595.982	-0.02
596.172	0.04
596.363	0
596.553	-0.01
596.743	-0.02
596.933	-0.01
597.123	0.02
597.314	-0.04
597.504	-0.04
597.694	0.01
597.884	-0.01
598.074	-0.03
598.264	-0.01
598.454	-0
598.644	0.01
598.834	-0.04
599.024	-0.07
599.214	-0.04
599.404	0.03
599.594	-0.02
599.784	-0.05
599.974	0.01
600.164	-0
600.354	-0.05
600.544	-0.04
600.734	-0.02
600.924	0.04
601.114	-0.05
601.303	-0.02
601.493	-0.02
601.683	-0.03
601.873	0.03
602.063	-0.07
602.252	0
602.442	-0.08
602.632	-0.02
602.821	-0.03
603.011	0
603.201	-0.02
603.39	-0.03
603.58	-0.03
603.77	-0
603.959	0.03
604.149	-0.03
604.339	-0.02
604.528	0.01
604.718	0.02
604.907	-0.03
605.097	-0.04
605.286	0.02
605.476	0.03
605.665	0.02
605.855	0.01
606.044	0.02
606.234	-0.01
606.423	-0.03
606.612	-0.01
606.802	-0
606.991	0.01
607.181	0.02
607.37	-0.03
607.559	-0.02
607.749	-0.07
607.938	-0.01
608.127	-0
608.316	-0.02
608.506	-0
608.695	-0.02
608.884	-0.02
609.073	0.01
609.263	0
609.452	0.03
609.641	-0.01
609.83	-0.08
610.019	-0.02
610.208	-0.02
610.397	-0.03
610.586	-0
610.775	-0.03
610.965	-0.03
611.154	-0.05
611.343	0
611.532	-0
611.721	-0.02
611.91	-0.05
612.099	0.01
612.287	-0.01
612.476	-0.04
612.665	-0
612.854	-0.04
613.043	0.04
613.232	-0.01
613.421	-0.04
613.61	0.01
613.798	-0.05
613.987	0.05
614.176	-0
614.365	0.03
614.554	-0
614.742	0.03
614.931	-0.03
615.12	0.06
615.309	-0
615.497	-0.03
615.686	-0.02
615.875	-0.02
616.063	-0.02
616.252	0
616.44	-0.03
616.629	-0
616.818	0.01
617.006	-0.03
617.195	-0.01
617.383	-0
617.572	-0.01
617.76	-0.01
617.949	0.01
618.137	-0
618.326	-0
618.514	-0.01
618.703	-0.04
618.891	0.01
619.079	-0.06
619.268	-0
619.456	-0.03
619.644	0.03
619.833	0.01
620.021	-0.05
620.209	-0.04
620.398	0.02
620.586	-0.01
620.774	0.02
620.962	-0.04
621.151	0.06
621.339	-0
621.527	-0.06
621.715	-0.07
621.903	-0.03
622.092	-0.03
622.28	0.02
622.468	-0.01
622.656	-0.02
622.844	0.01
623.032	-0.04
623.22	-0.05
623.408	0.01
623.596	-0
623.784	0.02
623.972	-0.03
624.16	-0.03
624.348	0.03
624.536	-0.05
624.724	-0.04
624.912	0.05
625.1	0.02
625.288	-0.04
625.476	-0.05
625.664	0.03
625.851	-0.04
626.039	-0.01
626.227	0
626.415	-0.02
626.603	-0.06
626.79	0.01
626.978	-0.02
627.166	0.01
627.354	-0.01
627.541	-0.02
627.729	-0.07
627.917	0.01
628.104	0.06
628.292	-0.01
628.48	-0.01
628.667	0.01
628.855	0.03
629.042	-0.01
629.23	-0.03
629.418	0.01
629.605	0.01
629.793	-0.04
629.98	-0.03
630.168	-0
630.355	-0.03
630.543	0.01
630.73	-0.02
630.917	0.02
631.105	0.03
631.292	-0.01
631.48	0.01
631.667	0.05
631.854	0.02
632.042	-0.01
632.229	-0.04
632.416	0.01
632.604	0.01
632.791	-0.08
632.978	0.04
633.165	0.01
633.353	0.03
633.54	0.03
633.727	-0.04
633.914	-0.03
634.101	-0.06
634.289	0.06
634.476	-0
634.663	-0.02
634.85	0
635.037	-0.03
635.224	-0.06
635.411	0.02
635.598	0.05
635.785	-0.01
635.972	0.02
636.159	0.06
636.346	-0.04
636.533	-0
636.72	-0.04
636.907	-0
637.094	0.04
637.281	0.01
637.468	0.03
637.655	0.02
637.842	0.01
638.029	-0
638.215	0.06
638.402	0.03
638.589	0.02
638.776	0
638.963	-0.01
639.149	0.05
639.336	0.06
639.523	0.01
639.709	0.01
639.896	-0.02
640.083	0.06
640.27	0.02
640.456	-0.02
640.643	0.03
640.829	-0.07
641.016	0.01
641.203	-0.03
641.389	0.06
641.576	0.04
641.762	0.01
641.949	-0.01
642.135	0.03
642.322	0.05
642.508	-0.04
642.695	0.03
642.881	-0
643.068	0.01
643.254	0.02
643.441	0.05
643.627	-0.02
643.813	0
644	0.07
644.186	0.01
644.372	-0.02
644.559	0.09
644.745	0.02
644.931	0.01
645.118	0.02
645.304	0.01
645.49	0.03
645.676	0.01
645.862	0.04
646.049	0.07
646.235	0.03
646.421	0.1
646.607	0.07
646.793	0.01
646.979	0.03
647.165	0.05
647.352	0.04
647.538	0.1
647.724	0.02
647.91	0.04
648.096	0.05
648.282	0.07
648.468	0.03
648.654	0.05
648.84	0.01
649.026	0.06
649.212	0.06
649.397	0.03
649.583	0.02
649.769	0.05
649.955	0.05
650.141	0.06
650.327	0.12
650.513	0.03
650.698	0.07
650.884	-0.02
651.07	0.04
651.256	0.08
651.442	0.07
651.627	0.06
651.813	0.06
651.999	0.05
652.184	0.08
652.37	0.05
652.556	0.02
652.741	0.09
652.927	-0.01
653.113	0.05
653.298	0.08
653.484	0.02
653.669	0.02
653.855	0.09
654.04	0.07
654.226	0.1
654.412	0.02
654.597	0.07
654.782	0.09
654.968	0.09
655.153	0.11
655.339	0.03
655.524	0.03
655.71	0.1
655.895	0.04
656.08	0.06
656.266	0.13
656.451	0.09
656.636	0.05
656.822	0.11
657.007	0.03
657.192	0.08
657.378	0.06
657.563	0.1
657.748	0.11
657.933	0.1
658.118	0.09
658.304	0.08
658.489	0.11
658.674	0.12
658.859	0.06
659.044	0.12
659.229	0.1
659.414	0.08
659.599	0.07
659.785	0.05
659.97	0.1
660.155	0.12
660.34	0.1
660.525	0.07
660.71	0.06
660.895	0.13
661.08	0.06
661.264	0.09
661.449	0.12
661.634	0.11
661.819	0.1
662.004	0.1
662.189	0.02
662.374	0.05
662.559	0.02
662.743	0.03
662.928	0.05
663.113	0.04
663.298	-0.01
663.483	0.05
663.667	0.07
663.852	0.03
664.037	0.07
664.221	0.02
664.406	0.08
664.591	0.09
664.775	0.05
664.96	0
665.145	0.02
665.329	0.08
665.514	0.02
665.698	0.04
665.883	0.02
666.068	0.12
666.252	0.07
666.437	-0
666.621	0.05
666.806	0.06
666.99	0.04
667.174	-0.02
667.359	0.09
667.543	-0
667.728	-0.02
667.912	-0.01
668.096	0.05
668.281	-0.01
668.465	-0
668.649	0.03
668.834	-0.04
669.018	-0
669.202	0.02
669.387	-0.03
669.571	0.08
669.755	-0.03
669.939	0.01
670.124	-0.01
670.308	0.11
670.492	0.04
670.676	0.04
670.86	-0.04
671.044	-0.05
671.228	0.03
671.413	-0.04
671.597	-0.04
671.781	-0.03
671.965	0.01
672.149	-0.04
672.333	0.01
672.517	-0.02
672.701	0
672.885	-0.04
673.069	-0.04
673.253	0.04
673.437	-0.05
673.621	-0.06
673.804	-0.03
673.988	0.01
674.172	-0.02
674.356	-0.09
674.54	-0.05
674.724	0.07
674.908	0
675.091	0.01
675.275	-0.02
675.459	0.01
675.643	0.12
675.826	-0.01
676.01	0.01
676.194	-0
676.377	-0.02
676.561	0.01
676.745	0.03
676.928	0.02
677.112	0.04
677.296	-0.05
677.479	-0.04
677.663	-0.02
677.846	0.01
678.03	-0.05
678.213	0
678.397	0.05
678.58	-0.05
678.764	-0.04
678.947	-0.06
679.131	-0.05
679.314	0.03
679.498	0
679.681	-0.06
679.865	0.06
680.048	0
680.231	0.02
680.415	-0.01
680.598	-0.01
680.781	-0.06
680.965	-0.02
681.148	0.01
681.331	0.02
681.514	-0.02
681.698	-0.05
681.881	0.01
682.064	-0.01
682.247	0.01
682.43	-0.08
682.614	0.01
682.797	0.04
682.98	0.01
683.163	-0.05
683.346	-0.01
683.529	-0.03
683.712	-0.04
683.895	-0.02
684.078	-0.08
684.261	-0.05
684.444	0.04
684.627	-0.01
684.81	-0.02
684.993	-0.04
685.176	0.01
685.359	-0.04
685.542	-0.02
685.725	0.02
685.908	-0.04
686.091	-0.07
686.274	0
686.457	0.03
686.639	-0.06
686.822	0.03
687.005	-0.02
687.188	0.03
687.371	0.05
687.553	-0.03
687.736	0.01
687.919	0.1
688.102	0.07
688.284	-0.06
688.467	-0.05
688.65	0.01
688.832	-0.06
689.015	-0
689.197	-0.06
689.38	0.08
689.563	0.03
689.745	-0.05
689.928	-0.04
690.11	-0.03
690.293	-0
690.475	-0.01
690.658	-0.01
690.84	0
691.023	-0.02
691.205	-0.04
691.388	0.04
691.57	-0.01
691.752	0.01
691.935	-0.13
692.117	-0.07
692.3	-0.03
692.482	-0.01
692.664	0.01
692.847	-0.04
693.029	0.01
693.211	0.04
693.393	-0.08
693.576	-0.05
693.758	-0.04
693.94	-0.03
694.122	-0.04
694.304	-0.02
694.487	0.04
694.669	0.04
694.851	-0.06
695.033	0.01
695.215	-0.07
695.397	-0.04
695.579	0.02
695.761	-0.03
695.943	-0.1
696.125	0.06
696.308	-0.04
696.49	-0.13
696.671	0.1
696.853	0.01
697.035	0.08
697.217	-0.01
697.399	0.01
697.581	-0.08
697.763	-0
697.945	-0.06
698.127	-0.02
698.309	0.02
698.491	-0.02
698.672	-0.01
698.854	0.03
699.036	0.07
699.218	-0.06
699.399	0.04
699.581	0
699.763	-0.03
699.945	-0.05
700.126	-0.07
700.308	0.01
700.49	0.02
700.671	-0.11
700.853	-0.03
701.035	-0.02
701.216	0.01
701.398	-0.05
701.579	-0.02
701.761	-0.02
701.943	-0.08
702.124	-0.05
702.306	-0.05
702.487	0.09
702.669	-0.03
702.85	-0.06
703.031	-0.03
703.213	0.09
703.394	0.06
703.576	-0.02
703.757	0.08
703.938	0.07
704.12	0.1
704.301	0.01
704.483	-0.02
704.664	-0.07
704.845	0.11
705.026	0
705.208	-0.03
705.389	-0.04
705.57	-0.03
705.751	-0.03
705.933	-0.03
706.114	0.08
706.295	-0.07
706.476	-0.02
706.657	0.12
706.838	-0.02
707.02	0.07
707.201	0.01
707.382	-0.05
707.563	0.01
707.744	-0.1
707.925	-0.05
708.106	-0.08
708.287	-0.02
708.468	0.03
708.649	0.04
708.83	0.01
709.011	0.01
709.192	0.03
709.373	-0.04
709.554	-0.01
709.734	0.06
709.915	0.04
710.096	0.01
710.277	-0.11
710.458	0.03
710.639	0.05
710.819	-0.06
711	-0.04
711.181	0.08
711.362	0.04
711.542	0.06
711.723	0.03
711.904	0.04
712.085	0.02
712.265	0.06
712.446	-0.04
712.627	-0.01
712.807	-0.03
712.988	0.03
713.168	-0.07
713.349	0.04
713.53	-0.09
713.71	-0.05
713.891	-0.1
714.071	0.05
714.252	0
714.432	-0.03
714.613	-0.07
714.793	0
714.974	0.03
715.154	0.11
715.334	0.06
715.515	0.04
715.695	-0.12
715.876	0.01
716.056	-0.05
716.236	-0.05
716.417	-0.06
716.597	-0.02
716.777	0.1
716.957	0
717.138	0.07
717.318	0.04
717.498	-0.04
717.678	0.03
717.859	0.06
718.039	-0.05
718.219	-0.04
718.399	0.03
718.579	-0.11
718.759	-0.09
718.939	0.11
719.12	0.05
719.3	0.04
719.48	-0.12
719.66	-0.1
719.84	0.06
720.02	0
720.2	-0.06
720.38	0.09
720.56	0
720.74	0.04
720.92	-0.01
721.1	0.07
721.279	0.09
721.459	-0
721.639	-0.06
721.819	0.08
721.999	-0.04
722.179	0.08
722.359	-0.1
722.538	0.05
722.718	0.08
722.898	0.01
723.078	-0.02
723.257	-0.08
723.437	0.06
723.617	0.01
723.797	-0.01
723.976	0.07
724.156	0.04
724.336	0.07
724.515	0.13
724.695	-0.05
724.874	0.04
725.054	0.1
725.234	0
725.413	0.11
725.593	0.06
725.772	0.01
725.952	0
726.131	0.02
726.311	-0.01
726.49	0.02
726.67	-0.05
726.849	-0.05
727.028	0.08
727.208	-0.02
727.387	0.17
727.567	-0.01
727.746	0.02
727.925	0.02
728.105	-0.02
728.284	0.02
728.463	-0.01
728.643	-0.02
728.822	-0.03
729.001	-0.02
729.18	0.02
729.359	0.12
729.539	0.08
729.718	0.04
729.897	0.09
730.076	-0.06
730.255	-0.06
730.434	0.13
730.614	0.05
730.793	0.14
730.972	0.02
731.151	0.06
731.33	0.13
731.509	0.08
731.688	0.02
731.867	0.07
732.046	-0.01
732.225	0.15
732.404	0.02
732.583	0.02
732.762	-0.02
732.941	0.18
733.12	0.11
733.298	0.02
733.477	0.14
733.656	0.01
733.835	0.02
734.014	0.15
734.193	0.09
734.371	0.15
734.55	0.13
734.729	0.04
734.908	0.14
735.086	0.05
735.265	0.03
735.444	-0.12
735.623	-0.04
735.801	-0.01
735.98	0.16
736.159	0.07
736.337	0.16
736.516	0.08
736.694	0.04
736.873	0.12
737.052	0.17
737.23	0.24
737.409	-0.05
737.587	0.2
737.766	-0.08
737.944	0.08
738.123	0.03
738.301	0.15
738.479	-0.01
738.658	0.18
738.836	-0.16
739.015	0.09
739.193	0.23
739.371	-0.09
739.55	0.02
739.728	-0.05
739.906	0.21
740.085	0.22
740.263	0.09
740.441	-0.1
740.62	0.21
740.798	0.18
740.976	-0.06
741.154	-0.02
741.332	0.2
741.511	0.15
741.689	0.15
741.867	0.15
742.045	0.06
742.223	0.04
742.401	-0.15
742.579	-0.07
742.757	0.1
742.935	-0.12
743.114	-0.02
743.292	-0.04
743.47	0.02
743.648	0.09
743.826	-0.06
744.004	0.13
744.181	0.13
744.359	0.05
744.537	0.1
744.715	0.07
744.893	-0.01
745.071	-0.03
745.249	-0
745.427	0.04
745.605	0.18
745.782	0.05
745.96	0.12
746.138	0.11
746.316	0.02
746.493	-0.06
746.671	0.07
746.849	-0.04
747.027	0.15
747.204	-0.03
747.382	0.05
747.56	-0.15
747.737	-0.03
747.915	-0.08
748.093	-0.03
748.27	-0.01
748.448	-0.09
748.625	-0.07
748.803	-0.07
748.98	-0.08
749.158	0.03
749.335	0.15
749.513	-0.02
749.69	-0.05
749.868	0.01
750.045	0.1
750.223	-0.16
750.4	-0.27
750.578	0.12
750.755	-0.01
750.932	-0.13
751.11	0.13
751.287	-0.17
751.464	0.17
751.642	-0.15
751.819	-0.04
751.996	-0.04
752.173	-0.08
752.351	-0.19
752.528	-0.01
752.705	0.05
752.882	-0.03
753.06	-0.16
753.237	0.03
753.414	0.14
753.591	0.19
753.768	0.11
753.945	-0.02
754.122	-0.01
754.299	0.05
754.476	-0.14
754.654	-0.09
754.831	-0.04
755.008	-0.13
755.185	-0.01
755.362	-0.09
755.539	0
755.716	-0.11
755.892	0.03
756.069	-0.03
756.246	0.04
756.423	-0.14
756.6	0.14
756.777	-0.1
756.954	0.11
757.131	-0.02
757.307	-0.15
757.484	-0.07
757.661	-0.02
757.838	-0.01
758.015	-0.17
758.191	0
758.368	-0.02
758.545	0.07
758.721	0.07
758.898	-0.18
759.075	-0.03
759.251	0.04
759.428	0.07
759.605	-0.1
759.781	-0.07
759.958	0.04
760.134	-0.06
760.311	-0.09
760.488	0.03
760.664	0.04
760.841	-0.13
761.017	-0.07
761.194	0.03
761.37	-0.08
761.547	0.03
761.723	-0.09
761.899	0.01
762.076	-0.16
762.252	-0.16
762.429	-0.05
762.605	0.03
762.781	-0.11
762.958	-0.02
763.134	-0.14
763.31	-0.1
763.486	0.12
763.663	-0.14
763.839	0.03
764.015	-0.2
764.191	-0.19
764.368	-0.02
764.544	-0.02
764.72	-0.09
764.896	0.11
765.072	0.04
765.248	0.01
765.425	-0.14
765.601	-0.12
765.777	-0.05
765.953	-0.24
766.129	-0.14
766.305	-0.01
766.481	-0.02
766.657	-0.01
766.833	0.02
767.009	-0.25
767.185	-0.06
767.361	-0.1
767.537	-0.31
767.713	0.03
767.889	-0.05
768.065	-0.05
768.24	-0.3
768.416	-0.04
768.592	-0.07
768.768	-0.1
768.944	0.02
769.12	-0.05
769.295	-0.09
769.471	-0.1
769.647	0.02
769.823	0.12
769.998	-0.24
770.174	-0.26
770.35	0.3
770.525	0.18
770.701	-0.07
770.877	0.03
771.052	-0.01
771.228	-0.03
771.403	0.01
771.579	0.1
771.755	0.17
771.93	-0.11
772.106	-0.22
772.281	-0.28
772.457	-0.05
772.632	0.11
772.808	-0.11
772.983	0.02
773.159	-0.23
773.334	0.05
773.509	-0.12
773.685	-0.11
773.86	0.21
774.036	0.03
774.211	0.06
774.386	-0.09
774.562	-0.01
774.737	-0.14
774.912	-0.06
775.087	-0.08
775.263	-0.01
775.438	-0.02
775.613	-0.14
775.788	-0.14
775.964	0.1
776.139	0.34
776.314	-0.16
776.489	-0.18
776.664	-0
776.839	-0.21
777.014	0.05
777.19	0.12
777.365	0.19
777.54	0.09
777.715	-0.06
777.89	-0.03
778.065	-0.26
778.24	-0.06
778.415	0.09
778.59	-0.27
778.765	-0.12
778.94	0.1
779.115	-0.09
779.289	-0.15
779.464	-0.08
779.639	-0.16
779.814	-0.29
779.989	-0.22
780.164	0.14
780.339	0.05
780.513	-0.24
780.688	-0.26
780.863	0.05
781.038	-0.05
781.212	-0.24
781.387	0.1
781.562	0.1
781.737	0.01
781.911	0.2
782.086	-0.11
782.261	-0.11
782.435	0.24
782.61	-0.02
782.784	-0.13
782.959	0.28
783.134	0.1
783.308	-0.24
783.483	-0.08
783.657	0.33
783.832	0.15
784.006	-0.34
784.181	-0.04
784.355	0.17
784.53	-0.02
784.704	-0.39
784.878	0.21
785.053	0.07
785.227	0.41
785.402	0.22
785.576	-0.04
785.75	0.1
785.925	-0
786.099	-0.01
786.273	-0.14
786.448	0.11
786.622	-0.04
786.796	0.07
786.97	-0.15
787.145	0.35
787.319	-0.29
787.493	-0.2
787.667	-0.36
787.841	0.1
788.015	0.36
788.19	0.01
788.364	-0.12
788.538	0.25
788.712	0.17
788.886	-0.03
789.06	-0.03
789.234	0.35
789.408	-0.36
789.582	-0.18
789.756	0.04
789.93	-0.08
790.104	-0
790.278	-0.07
790.452	-0.13
790.626	0.06
790.8	-0.24
790.973	0.14
791.147	0.11
791.321	0.24
791.495	0.14
791.669	0.14
791.843	0.15
792.016	-0.1
792.19	0.45
792.364	-0.35
792.538	0.52
792.711	0.3
792.885	0
793.059	-0.35
793.233	-0.39
793.406	0.16
793.58	-0.06
793.754	0.08
793.927	0.02
794.101	0.17
794.274	0.09
794.448	0.27
794.622	-0.24
794.795	-0.01
794.969	-0.2
795.142	0.15
795.316	-0.14
795.489	-0.08
795.663	0.41
795.836	-0.19
796.009	-0.34
796.183	0.1
796.356	-0.05
796.53	0.01
796.703	-0.19
796.876	0.34
797.05	-0.04
797.223	-0.06
797.396	0.13
797.57	0.01
797.743	0.22
797.916	0.04
798.09	-0.07
798.263	0.18
798.436	0.05
798.609	-0.29
798.782	-0.16
798.956	0.06
799.129	-0.24
799.302	-0.24
799.475	-0.29
799.648	-0.41
799.821	-0.33
799.994	0.26
800.167	-0.47
800.34	0.06
800.514	-0.16
800.687	0.04
800.86	-0
801.033	0.08
801.206	0.06
801.379	-0.4
801.551	0.09
801.724	0.37
801.897	0.4
802.07	0.03
802.243	-0.49
802.416	-0.17
802.589	-0.26
802.762	-0.1
802.935	-0.23
803.107	0.2
803.28	0.28
803.453	0.04
803.626	0.06
803.798	-0.07
803.971	0.09
804.144	-0.11
804.317	0.3
804.489	0.14
804.662	0.04
804.835	0.09
805.007	-0.17
805.18	0.28
805.353	-0
805.525	-0.32
805.698	-0.05
805.87	0.03
806.043	0.11
806.215	-0.26
806.388	-0.27
806.56	-0.07
806.733	0.35
806.905	0.2
807.078	-0.21
807.25	-0.19
807.423	0.28
807.595	0.1
807.768	-0.08
807.94	0.21
808.112	0.38
808.285	0.06
808.457	0.16
808.629	-0.4
808.802	0.01
808.974	-0.15
809.146	-0.18
809.318	-0.66
809.491	-0.12
809.663	0.14
809.835	-0.24
810.007	0.17
810.18	-0.09
810.352	-0.34
810.524	-0.25
810.696	0.28
810.868	0.53
811.04	-0.06
811.212	-0.25
811.384	-0.08
811.556	-0.05
811.728	0
811.901	0.42
812.073	-0.31
812.245	0.45
812.417	-0.34
812.589	-0.77
812.76	0.11
812.932	-0.04
813.104	0.24
813.276	-0.06
813.448	0.52
813.62	0.18
813.792	0.27
813.964	-0.2
814.136	0.09
814.307	-0.43
814.479	-0.44
814.651	-0.1
814.823	0.77
814.995	-0.09
815.166	0.27
815.338	-0.11
815.51	-0.63
815.681	0.74
815.853	0.26
816.025	-0.29
816.196	0.3
816.368	-0.31
816.54	-0.51
816.711	-0.17
816.883	0.17
817.054	0.54
817.226	-0.67
817.398	-0.14
817.569	-0.47
817.741	-0.4
817.912	-0.1
818.084	-0.21
818.255	0.02
818.426	-0.34
818.598	-0.32
818.769	-0.08
818.941	0.59
819.112	0.8
819.283	-0.31
819.455	-0.05
819.626	0.07
819.798	0.21
819.969	-0.12
820.14	-0.32
820.311	-0.38
820.483	0.07
820.654	0.11
820.825	-0.32
820.996	-0.18
821.168	-0.71
821.339	0.14
821.51	-0.41
821.681	-0.1
821.852	-0.01
822.023	-0.79
822.195	-0.52
822.366	0.32
822.537	0.06
822.708	0.19
822.879	-0.04
823.05	0.36
823.221	-0.28
823.392	-0.33
823.563	-0.14
823.734	-0.27
823.905	-0.25
824.076	-0.21
824.247	-0.64
824.418	-0.44
824.589	1.01
824.759	-0.48
824.93	-0.35
825.101	-0.32
825.272	0.55
825.443	0.52
825.614	-0.26
825.784	-0.96
825.955	0.5
826.126	0.88
826.297	-0.01
826.467	0.46
826.638	0.53
826.809	-0.73
826.98	-0.31
827.15	-0.05
827.321	0.08
827.492	0.8
827.662	0.33
827.833	1.41
828.003	0.16
828.174	-0.39
828.345	-0.38
828.515	0.63
828.686	0.08
828.856	-0.37
829.027	-0.22
829.197	-0.23
829.368	-0.18
829.538	-0.31
829.709	-0.16
829.879	-0.03
830.049	-0.41
830.22	-0.63
830.39	-0.07
830.56	0.07
830.731	0
830.901	-0.49
831.072	-0.16
831.242	0.63
831.412	0.12
831.582	-0.24
831.753	-0.19
831.923	-0.02
832.093	-0.16
832.263	0.17
832.434	-0.72
832.604	-0.4
832.774	-0.07
832.944	-0.23
833.114	-0.54
833.284	0.18
833.454	-0.45
833.624	-0.82
833.795	-0.22
833.965	0.63
834.135	0.7
834.305	-0.93
834.475	-0.68
834.645	-0.4
834.815	0.15
834.985	-0.51
835.155	-0.19
835.325	0.5
835.494	-0
835.664	-0.14
835.834	-0.7
836.004	-0.27
836.174	0.3
836.344	-0.18
836.514	-0.58
836.684	0.1
836.853	-0.37
837.023	0.1
837.193	-0.38
837.363	0.16
837.532	0.31
837.702	-0.35
837.872	-0.68
838.041	0.61
838.211	1.16
838.381	-0.58
838.55	-0.19
838.72	0.89
838.89	0.73
839.059	-0.74
839.229	-0.52
839.398	1.31
839.568	-0.17
839.738	0.25
839.907	0.65
840.077	0.15
840.246	-0.9
840.416	-0.84
840.585	-0.92
840.755	1.52
840.924	1.15
841.093	-1.06
841.263	0.01
841.432	0.18
841.602	-0.35
841.771	-0.96
841.94	0.2
842.11	2.02
842.279	0.41
842.448	-1.08
842.617	-0.3
842.787	0.48
842.956	-0.93
843.125	-0
843.294	-0.55
843.464	0.7
843.633	-0.28
843.802	-0.73
843.971	-0.78
844.14	-0.05
844.309	0.27
844.479	-0.51
844.648	-0.96
844.817	-0.14
844.986	0.66
845.155	-0.63
845.324	-0.1
845.493	-0.65
845.662	-0.54
845.831	-0.49
846	0.29
846.169	-0.3
846.338	1.11
846.507	-0.03
846.676	0.26
846.844	-0.86
847.013	0.29
847.182	-0.37
847.351	-0.72
847.52	-0.68
847.689	0.82
847.858	-0.23
848.026	-0.82
848.195	-0.76
848.364	-0.31
848.533	-0.42
848.701	-0.53
848.87	0.71
849.039	0.85
849.207	0.72
849.376	1.04
849.545	0.47
849.713	-0.75
849.882	0.6
850.051	-0.29
850.219	-0.82
850.388	0.43
850.556	-0.38
850.725	-0.87
850.893	0.49
851.062	0.24
851.23	0.63
851.399	-0.45
851.567	-0.61
851.736	-1.06
851.904	-1.35
852.073	-0.15
852.241	0.94
852.41	-0.42
852.578	-1.01
852.746	-0.39
852.915	-0.08
853.083	-0.09
853.251	-0.61
853.42	-0.82
853.588	-0
853.756	1.31
853.924	-0.06
854.093	-0.15
854.261	-0.29
854.429	-0.04
854.597	0.04
854.765	-2.01
854.934	-0.68
855.102	1.06
855.27	-0.75
855.438	1
855.606	1.07
855.774	1.19
855.942	-2.28
856.11	-1.73
856.278	-0.49
856.446	0.37
856.614	-0.1
856.782	-1.16
856.95	1.47
857.118	0.22
857.286	0.8
857.454	-0.88
857.622	1.26
857.79	-0.14
857.958	-0.3
858.126	-0.66
858.294	-2.44
858.462	-0.6
858.629	-0.39
858.797	-0.14
858.965	1.05
859.133	-0.98
859.301	-1.03
859.468	-0.5
859.636	-1.48
859.804	1.73
859.971	0.43
860.139	-0.87
860.307	1.04
860.474	-0.08
860.642	-1.28
860.81	-1.47
860.977	0.15
861.145	0.95
861.313	-0.57
861.48	-2.49
861.648	1.53
861.815	0.07
861.983	-0.43
862.15	-0.61
862.318	1.87
862.485	0.67
862.653	-1.65
862.82	-1.57
862.988	1.21
863.155	-1.69
863.322	-0.73
863.49	-0.73
863.657	-1.39
863.824	1.67
863.992	1.21
864.159	-0.36
864.326	2.28
864.494	-1
864.661	2.4
864.828	-0.43
864.996	0.82
865.163	1.62
865.33	-1.18
865.497	-2.95
865.664	-1.54
865.832	-1.57
865.999	-0.27
866.166	-1.18
866.333	-0.36
866.5	-0.56
866.667	-0.23
866.834	-0.42
867.001	1.24
867.168	-1.36
867.335	-0
867.502	-2.67
867.669	0.23
867.836	1.78
868.003	-0.73
868.17	0.3
868.337	-1.68
868.504	1.77
868.671	-1.2
868.838	0.35
869.005	-0.03
869.172	-1.05
869.339	-0.66
869.505	-2.19
869.672	-0.38
869.839	1.81
870.006	-0.29
870.173	-2.92
870.339	-0.43
870.506	3.06
870.673	-1.61
870.84	0.94
871.006	0.66
871.173	-0.72
871.34	0.97
871.506	-2.7
871.673	1.28
871.839	-1.02
872.006	0.19
872.173	-0.45
872.339	-0.02
872.506	1.31
872.672	-0.4
872.839	-2.43
873.005	1.31
873.172	2.85
873.338	-0.19
873.505	1.86
873.671	1.87
873.838	0.45
874.004	-0.79
874.171	-0.58
874.337	1.01
874.503	0.01
874.67	-0.76
874.836	-0.92
875.002	2.88
875.169	-0.45
875.335	0.28
875.501	-2.05
875.668	0.98
875.834	0.25
876	-1.37
876.166	0.44
876.332	0.41
876.499	3.15
876.665	-1.64
876.831	-0.13
876.997	4.12
877.163	0.07
877.329	0.07
877.495	0.33
877.662	0.16
877.828	-0.39
877.994	-2.91
878.16	-2.2
878.326	-1.63
878.492	0.89
878.658	-2.19
878.824	-0.15
878.99	-0.65
879.156	-0.9
879.322	3.21
879.487	-0.86
879.653	0.86
879.819	0.13
879.985	-1.03
880.151	0.93
880.317	-0.73
880.483	-0.6
880.648	1.83
880.814	-1.87
880.98	0.09
881.146	-1.97
881.312	-0.32
881.477	-0.06
881.643	-0.6
881.809	2.18
881.974	1.78
882.14	-2.56
882.306	-0.13
882.471	1.62
882.637	-1.41
882.803	1.08
882.968	2.09
883.134	3.27
883.299	-0.64
883.465	0.65
883.63	0.28
883.796	0.56
883.961	0.52
884.127	0.35
884.292	-4.38
884.458	-3.12
884.623	-3.12
