Data from Apollo_Calib_20240827__AbsoluteIrradiance__648__09-57-02-484.txt Node

Date: Wed Aug 28 09:57:02 BST 2024
User: biology
Spectrometer: FLMT08252
Trigger mode: 0
Integration Time (sec): 5.000000E-1
Scans to average: 5
Electric dark correction enabled: true
Nonlinearity correction enabled: false
Boxcar width: 0
XAxis mode: Wavelengths
Number of Pixels in Spectrum: 3648
>>>>>Begin Spectral Data<<<<<
179.588	-0
179.809	-0
180.03	-0
180.251	-0
180.473	-0
180.694	0
180.915	0
181.136	-0
181.357	0
181.578	-0
181.799	-0
182.02	-0
182.241	0
182.462	-0
182.683	0
182.904	-0
183.125	0
183.346	-0
183.567	0
183.788	-0
184.009	-0
184.23	-0
184.451	0
184.672	-0
184.892	-0
185.113	0
185.334	0
185.555	-0
185.776	-0
185.996	0
186.217	0
186.438	-0
186.659	-0
186.879	0
187.1	-0
187.321	-0
187.541	-0
187.762	-0
187.983	-0
188.203	0
188.424	0
188.644	-0
188.865	-0
189.086	-0
189.306	-0
189.527	-0
189.747	0
189.968	-0
190.188	0
190.409	0
190.629	0
190.849	-0
191.07	-0
191.29	0
191.511	0
191.731	-0
191.951	-0
192.172	0
192.392	-0
192.612	0
192.833	0
193.053	-0
193.273	0
193.493	0
193.714	-0
193.934	0
194.154	0
194.374	0
194.594	0
194.815	0
195.035	-0
195.255	0
195.475	-0
195.695	0
195.915	0
196.135	-0
196.355	0
196.575	0
196.795	0
197.015	-0
197.235	-0
197.455	-0
197.675	0
197.895	-0
198.115	-0
198.335	0
198.555	-0
198.775	0
198.995	0
199.214	0
199.434	-0
199.654	-0
199.874	-0
200.094	1.05
200.313	-0.31
200.533	-0.18
200.753	-0.83
200.973	0.9
201.192	0.85
201.412	-0.8
201.632	-0.43
201.851	0.55
202.071	-0.59
202.291	-0.48
202.51	-0.64
202.73	0.65
202.95	0.07
203.169	0.05
203.389	0.21
203.608	-0.04
203.828	-0.52
204.047	-0.43
204.267	0.49
204.486	0.11
204.706	-0.02
204.925	-0.12
205.145	-0.34
205.364	0.55
205.583	0.67
205.803	-0.32
206.022	-0.25
206.242	-0.34
206.461	-0.1
206.68	-0.32
206.9	0.05
207.119	0.65
207.338	0.39
207.557	-0.18
207.777	0.03
207.996	0.05
208.215	0.61
208.434	-0.14
208.654	-0.3
208.873	0.07
209.092	0.58
209.311	-0.26
209.53	0.06
209.749	-0.09
209.968	-0.38
210.187	0.13
210.407	-0.32
210.626	0.1
210.845	0.11
211.064	0.18
211.283	-0.24
211.502	0.26
211.721	0.12
211.94	0.01
212.159	0.06
212.377	0.22
212.596	0.22
212.815	0.17
213.034	0.29
213.253	0.22
213.472	0.39
213.691	-0.03
213.91	-0.14
214.128	-0.05
214.347	0.19
214.566	-0.27
214.785	-0.23
215.003	0.1
215.222	0.05
215.441	-0.17
215.66	-0.26
215.878	-0.03
216.097	0.11
216.316	-0.25
216.534	-0.03
216.753	-0.01
216.972	-0.01
217.19	-0.01
217.409	-0.12
217.627	-0.16
217.846	-0.12
218.064	-0.03
218.283	-0.17
218.501	0.35
218.72	0.25
218.938	-0.27
219.157	-0.15
219.375	0.23
219.594	0.12
219.812	-0.27
220.031	-0.09
220.249	0.17
220.467	0.14
220.686	-0.01
220.904	-0.17
221.122	-0.1
221.341	0.44
221.559	0.07
221.777	-0.08
221.995	-0.09
222.214	0.07
222.432	-0.1
222.65	0.15
222.868	0.12
223.086	0.07
223.305	0.16
223.523	0.04
223.741	0.17
223.959	-0.03
224.177	-0.15
224.395	-0.02
224.613	0.11
224.831	0.18
225.049	-0.11
225.267	-0.19
225.485	0.16
225.703	0.04
225.921	-0.03
226.139	-0.1
226.357	0.21
226.575	-0.04
226.793	-0.1
227.011	0.57
227.229	0.09
227.447	0.24
227.665	-0.05
227.883	-0.07
228.1	-0.01
228.318	0.06
228.536	-0.18
228.754	-0.03
228.972	0.06
229.189	0.04
229.407	-0.04
229.625	0.01
229.843	0.23
230.06	0.12
230.278	-0.01
230.496	0.06
230.713	0.09
230.931	0.28
231.149	-0.22
231.366	-0.18
231.584	0.01
231.801	0.28
232.019	-0.05
232.236	-0.26
232.454	-0.16
232.671	0.09
232.889	0.05
233.106	-0.16
233.324	0.07
233.541	0.04
233.759	0.01
233.976	-0.09
234.194	-0.03
234.411	0.02
234.628	-0
234.846	-0.01
235.063	0.01
235.28	-0.02
235.498	-0.01
235.715	-0.01
235.932	0.15
236.149	-0.07
236.367	-0.15
236.584	0.09
236.801	0.03
237.018	0.18
237.236	-0.02
237.453	-0.18
237.67	0.21
237.887	-0.03
238.104	-0.05
238.321	-0.17
238.538	-0.14
238.755	0.08
238.973	-0.17
239.19	-0.01
239.407	0.13
239.624	0.06
239.841	-0.1
240.058	-0.04
240.275	0
240.492	-0.09
240.709	-0.04
240.925	-0.04
241.142	0.01
241.359	-0.09
241.576	-0.19
241.793	-0.01
242.01	-0.02
242.227	0.15
242.444	0.08
242.66	0.1
242.877	-0.01
243.094	-0.02
243.311	0.01
243.527	0.03
243.744	0.08
243.961	0.03
244.178	-0.05
244.394	-0.01
244.611	0.08
244.828	0.12
245.044	-0.14
245.261	-0.06
245.477	0.05
245.694	0.07
245.911	-0.05
246.127	0.02
246.344	0.13
246.56	0.15
246.777	0
246.993	-0.01
247.21	-0
247.426	0.03
247.643	0.1
247.859	-0.07
248.076	-0.04
248.292	0.12
248.508	-0.03
248.725	0.07
248.941	0.01
249.157	0.18
249.374	-0.08
249.59	-0.01
249.806	0.04
250.023	0.07
250.239	-0.09
250.455	-0.04
250.671	0
250.888	0.03
251.104	0.06
251.32	-0.03
251.536	0.01
251.752	0.03
251.969	0.06
252.185	0.02
252.401	0.09
252.617	0.03
252.833	-0
253.049	-0.03
253.265	0.02
253.481	0.02
253.697	-0.06
253.913	-0.04
254.129	0.05
254.345	0.03
254.561	-0.07
254.777	0.02
254.993	0.1
255.209	0.06
255.425	-0.03
255.641	-0.06
255.857	0.15
256.073	0.08
256.288	-0.05
256.504	-0.11
256.72	0.02
256.936	0.09
257.152	-0.01
257.367	-0.02
257.583	-0
257.799	0.06
258.015	-0.09
258.23	0.02
258.446	0.15
258.662	0.04
258.877	-0.05
259.093	-0.02
259.309	0.02
259.524	0.02
259.74	-0.03
259.955	-0.11
260.171	0.01
260.387	-0.07
260.602	0.05
260.818	0.06
261.033	-0.05
261.249	0.02
261.464	-0.06
261.68	-0.12
261.895	0.02
262.11	0.07
262.326	-0.03
262.541	-0.02
262.757	0.08
262.972	0.1
263.187	0.03
263.403	-0.06
263.618	0.16
263.833	0.04
264.049	-0.01
264.264	0.05
264.479	0.09
264.694	0.02
264.91	-0.11
265.125	-0.06
265.34	0.04
265.555	0.19
265.77	0.06
265.986	0
266.201	0.07
266.416	0.14
266.631	0.01
266.846	-0
267.061	0.03
267.276	0.04
267.491	-0.13
267.706	0.02
267.921	-0.02
268.136	0.01
268.351	0.01
268.566	-0.08
268.781	0.1
268.996	0.04
269.211	0.07
269.426	-0.05
269.641	-0.02
269.856	0.02
270.071	-0.05
270.285	-0.07
270.5	0.02
270.715	0.05
270.93	-0.01
271.145	0.08
271.359	-0.01
271.574	-0.04
271.789	-0.04
272.004	0.01
272.218	0
272.433	0.07
272.648	-0.05
272.862	0.1
273.077	-0
273.292	-0.04
273.506	-0.03
273.721	-0.01
273.936	0.07
274.15	0.02
274.365	-0.03
274.579	0.08
274.794	0.01
275.008	0.11
275.223	-0.1
275.437	0.02
275.652	0.04
275.866	0.03
276.081	0.04
276.295	0.03
276.509	-0
276.724	-0
276.938	0
277.153	0
277.367	0.11
277.581	-0.04
277.796	-0.02
278.01	-0.05
278.224	0.07
278.438	0.15
278.653	-0.09
278.867	-0.03
279.081	-0.19
279.295	-0.03
279.51	0.01
279.724	-0.05
279.938	0.05
280.152	0.02
280.366	-0.07
280.58	-0.02
280.794	0.08
281.008	0.06
281.222	0.05
281.437	0.12
281.651	0
281.865	0.03
282.079	-0.03
282.293	-0.1
282.507	-0.01
282.721	-0
282.935	0.01
283.148	-0.04
283.362	-0.01
283.576	-0.04
283.79	0.02
284.004	-0.03
284.218	0.04
284.432	-0.04
284.646	0.01
284.859	-0.06
285.073	-0.03
285.287	0.03
285.501	-0.03
285.714	0.03
285.928	0.07
286.142	-0.01
286.356	0.02
286.569	0
286.783	0.08
286.997	0.04
287.21	0.05
287.424	0.02
287.637	-0
287.851	-0.02
288.065	0.06
288.278	0.03
288.492	0
288.705	0.03
288.919	0.01
289.132	-0.08
289.346	0.08
289.559	-0.07
289.773	-0.05
289.986	-0.02
290.2	0.03
290.413	0.06
290.626	-0.01
290.84	-0.03
291.053	0.03
291.267	0.04
291.48	-0.01
291.693	0.02
291.906	-0.02
292.12	0
292.333	0.01
292.546	-0
292.76	0.06
292.973	0.04
293.186	0
293.399	-0.02
293.612	0.06
293.826	0.03
294.039	0.04
294.252	0.02
294.465	0.03
294.678	0.01
294.891	0.02
295.104	-0.03
295.317	-0
295.53	0.03
295.743	-0.01
295.956	0.01
296.169	0.09
296.382	0.05
296.595	0.01
296.808	-0.01
297.021	0.08
297.234	0.05
297.447	0.01
297.66	0.04
297.873	0.06
298.086	0.02
298.299	-0.03
298.511	-0.04
298.724	-0.01
298.937	-0.05
299.15	-0.03
299.363	0.01
299.575	0.05
299.788	0.02
300.001	-0.04
300.213	-0.03
300.426	-0.01
300.639	-0.06
300.852	-0.03
301.064	0.07
301.277	0.05
301.489	0.06
301.702	0.03
301.915	0.05
302.127	-0.01
302.34	0.06
302.552	0.01
302.765	-0.03
302.977	0
303.19	-0.02
303.402	-0
303.615	-0.02
303.827	-0
304.04	0
304.252	-0.03
304.464	-0.01
304.677	0.14
304.889	0.09
305.102	-0.02
305.314	-0.02
305.526	0.06
305.739	0.02
305.951	-0
306.163	-0.01
306.375	0.08
306.588	-0.07
306.8	-0.03
307.012	-0.06
307.224	0.04
307.436	0.04
307.649	-0.04
307.861	0.05
308.073	0.04
308.285	-0.03
308.497	-0.03
308.709	-0.05
308.921	0.02
309.133	0.05
309.346	0.01
309.558	-0.02
309.77	0.05
309.982	0.05
310.194	0.06
310.406	-0.03
310.617	0.09
310.829	0.04
311.041	0.04
311.253	-0.01
311.465	0.01
311.677	0.06
311.889	0
312.101	-0.03
312.313	0.04
312.524	0.04
312.736	-0.04
312.948	-0.01
313.16	0.09
313.372	-0
313.583	0.01
313.795	-0.04
314.007	0.03
314.218	0.02
314.43	-0.02
314.642	-0.04
314.853	-0.02
315.065	0.04
315.277	-0.01
315.488	0.05
315.7	0.05
315.912	0.02
316.123	-0.02
316.335	-0.01
316.546	0.09
316.758	0.04
316.969	-0.02
317.181	0.02
317.392	0.01
317.604	0.03
317.815	-0.01
318.026	-0
318.238	0
318.449	0.04
318.661	-0.04
318.872	-0.06
319.083	-0.04
319.295	0.03
319.506	-0.02
319.717	0.03
319.929	0.04
320.14	-0
320.351	-0.03
320.562	-0.04
320.774	-0
320.985	0.02
321.196	-0.01
321.407	-0.05
321.618	0.04
321.829	0.05
322.041	0.03
322.252	0.01
322.463	0
322.674	0.03
322.885	-0.03
323.096	-0.02
323.307	0.05
323.518	0.01
323.729	0.01
323.94	0.02
324.151	-0.05
324.362	0.04
324.573	0.03
324.784	0
324.995	0.03
325.206	-0.01
325.417	-0.02
325.628	0.01
325.838	0.01
326.049	-0.01
326.26	0.02
326.471	-0.01
326.682	0.02
326.892	0.01
327.103	-0.04
327.314	-0.04
327.525	0.05
327.735	0.03
327.946	0.01
328.157	-0.05
328.368	0.03
328.578	-0.01
328.789	0.02
328.999	0.03
329.21	0
329.421	0.03
329.631	-0.02
329.842	-0.05
330.052	0.01
330.263	0.03
330.473	0.02
330.684	0.02
330.894	-0.04
331.105	0.02
331.315	0.01
331.526	-0.01
331.736	0.06
331.947	0.03
332.157	-0.01
332.367	-0.01
332.578	0.03
332.788	0.07
332.999	0.02
333.209	0.02
333.419	-0.02
333.629	-0.01
333.84	0.04
334.05	0.01
334.26	0.06
334.47	-0.01
334.681	0.05
334.891	-0.04
335.101	0.04
335.311	0.08
335.521	0.01
335.732	-0.06
335.942	0.04
336.152	0.05
336.362	0.03
336.572	-0.01
336.782	0.07
336.992	0.01
337.202	-0.01
337.412	0.01
337.622	0.05
337.832	-0.03
338.042	0.03
338.252	-0.02
338.462	0.01
338.672	0.01
338.882	0
339.092	-0.02
339.302	0.08
339.511	0.01
339.721	-0.05
339.931	-0.07
340.141	0.01
340.351	0.07
340.561	0.04
340.77	0.02
340.98	0.01
341.19	0
341.4	-0.02
341.609	-0.05
341.819	-0
342.029	-0.08
342.238	-0
342.448	-0.01
342.658	0.04
342.867	0.04
343.077	-0
343.286	0.02
343.496	-0.02
343.706	0.07
343.915	-0.05
344.125	0.01
344.334	0.03
344.544	-0.09
344.753	-0.02
344.963	-0.03
345.172	-0.01
345.381	-0
345.591	-0.02
345.8	-0.01
346.01	0.04
346.219	0.08
346.428	-0.13
346.638	0.02
346.847	0.02
347.056	0.08
347.266	0.02
347.475	-0.02
347.684	0
347.893	0.02
348.103	0.03
348.312	-0
348.521	-0
348.73	0.03
348.94	0.03
349.149	-0.02
349.358	-0.03
349.567	-0.01
349.776	0
349.985	-0.03
350.194	0.03
350.403	0.04
350.612	-0.07
350.821	-0.01
351.03	0.01
351.239	-0.06
351.448	0.02
351.657	-0.03
351.866	0.08
352.075	0
352.284	0.04
352.493	-0.05
352.702	0.07
352.911	0.04
353.12	0.01
353.329	-0.01
353.538	0.03
353.746	0.02
353.955	-0.04
354.164	0.04
354.373	0.01
354.582	0.04
354.79	0.01
354.999	0.05
355.208	0.01
355.416	0.07
355.625	-0.05
355.834	-0.02
356.042	0.03
356.251	0.02
356.46	-0.01
356.668	0.04
356.877	0.06
357.085	0.02
357.294	-0.07
357.503	0.02
357.711	0.01
357.92	0.11
358.128	0.06
358.337	0.01
358.545	0.07
358.754	-0.01
358.962	0.06
359.17	0.01
359.379	0.05
359.587	0.01
359.796	0.02
360.004	0.03
360.212	0.03
360.421	0.05
360.629	-0.03
360.837	-0.01
361.046	-0.01
361.254	0.08
361.462	0.02
361.67	-0.02
361.879	0
362.087	0.07
362.295	-0.02
362.503	0.01
362.711	-0.01
362.92	-0.02
363.128	-0.02
363.336	-0.05
363.544	-0.07
363.752	-0.05
363.96	-0.03
364.168	-0.02
364.376	-0
364.584	0
364.792	0.03
365	0.02
365.208	0.04
365.416	-0.01
365.624	0.05
365.832	-0.01
366.04	0.05
366.248	0.02
366.456	0.02
366.664	0.01
366.872	0.01
367.079	0.03
367.287	0.02
367.495	-0
367.703	0.02
367.911	-0.02
368.118	0.02
368.326	0
368.534	-0.03
368.742	0.05
368.949	-0.02
369.157	-0.02
369.365	0.04
369.572	0.04
369.78	-0.06
369.988	0
370.195	0.04
370.403	-0
370.61	0.02
370.818	0.01
371.026	0.06
371.233	-0.03
371.441	0.04
371.648	-0.01
371.856	-0.02
372.063	0.02
372.271	0.01
372.478	-0
372.685	-0.04
372.893	0.04
373.1	-0.02
373.308	0.01
373.515	0.1
373.722	0.04
373.93	-0.01
374.137	0.02
374.344	0.08
374.552	0.05
374.759	0.03
374.966	0.01
375.173	0.02
375.381	0.04
375.588	-0.06
375.795	-0.06
376.002	-0.04
376.209	-0.01
376.417	-0.02
376.624	0.04
376.831	0.05
377.038	-0.05
377.245	-0.06
377.452	-0.04
377.659	0.01
377.866	-0.02
378.073	-0.03
378.28	-0
378.487	0.01
378.694	0.06
378.901	0
379.108	0.02
379.315	0.03
379.522	0.08
379.729	-0
379.936	0
380.143	-0.03
380.35	0
380.557	-0.03
380.763	-0
380.97	0.04
381.177	0.02
381.384	0.06
381.591	-0.01
381.797	-0.01
382.004	-0
382.211	0.04
382.418	-0.05
382.624	0.03
382.831	0.06
383.038	-0.02
383.244	0.02
383.451	-0.01
383.658	-0.01
383.864	-0.01
384.071	-0.03
384.277	0.06
384.484	-0.01
384.69	-0
384.897	-0.02
385.103	0.05
385.31	-0.04
385.516	-0.02
385.723	-0.01
385.929	-0.02
386.136	-0.02
386.342	0.01
386.549	-0.03
386.755	0.09
386.961	0.03
387.168	-0.02
387.374	0.02
387.58	0.02
387.787	-0.03
387.993	0.04
388.199	-0.01
388.406	0.03
388.612	0.02
388.818	0.02
389.024	-0.01
389.231	0.01
389.437	0.08
389.643	0.02
389.849	-0.02
390.055	-0.02
390.261	-0.02
390.467	-0.02
390.674	-0.03
390.88	0.01
391.086	0.01
391.292	-0.05
391.498	0.02
391.704	0.01
391.91	0
392.116	-0.03
392.322	-0.09
392.528	-0.02
392.734	-0.03
392.94	0.02
393.146	-0.03
393.352	0.03
393.557	0.01
393.763	-0.01
393.969	0.06
394.175	-0.03
394.381	0.02
394.587	0
394.792	0
394.998	0.06
395.204	0.04
395.41	0
395.615	0.03
395.821	0.03
396.027	-0.01
396.233	-0.04
396.438	0.03
396.644	0.08
396.85	0.01
397.055	0.02
397.261	-0.02
397.466	-0.01
397.672	-0.05
397.878	0.03
398.083	0.01
398.289	-0.04
398.494	0.05
398.7	0.04
398.905	-0.11
399.111	0.08
399.316	-0.02
399.522	0.02
399.727	0.03
399.932	0
400.138	-0.02
400.343	0.04
400.549	0.03
400.754	0.01
400.959	0.01
401.165	-0.01
401.37	-0.03
401.575	-0.01
401.78	0.02
401.986	-0.02
402.191	-0.01
402.396	-0.03
402.601	0.04
402.807	-0.02
403.012	0.03
403.217	0.02
403.422	0.02
403.627	-0.03
403.832	-0.05
404.037	-0.01
404.243	0.08
404.448	-0
404.653	-0.01
404.858	0.03
405.063	0.05
405.268	-0.01
405.473	-0.01
405.678	-0.05
405.883	0.1
406.088	0.03
406.293	-0.03
406.498	0.03
406.703	0.02
406.907	-0.01
407.112	-0.02
407.317	0.04
407.522	0.04
407.727	-0.06
407.932	0.01
408.136	0.07
408.341	-0
408.546	0.05
408.751	0.06
408.956	-0
409.16	0.05
409.365	-0.04
409.57	-0.01
409.774	0.03
409.979	0.01
410.184	0
410.388	-0.05
410.593	0.04
410.798	0.02
411.002	-0.04
411.207	0.02
411.411	-0
411.616	-0.01
411.82	0
412.025	0.03
412.229	-0.06
412.434	0.07
412.638	-0.01
412.843	-0.03
413.047	0.04
413.252	-0.04
413.456	-0.02
413.66	0.01
413.865	0
414.069	0.05
414.273	-0.01
414.478	-0.07
414.682	-0
414.886	-0.02
415.091	-0.1
415.295	-0.08
415.499	0.06
415.703	-0.03
415.908	0.05
416.112	-0.07
416.316	0.04
416.52	-0.05
416.724	-0.11
416.929	-0.02
417.133	0.09
417.337	0
417.541	-0.04
417.745	0.01
417.949	0.01
418.153	0.02
418.357	-0.04
418.561	0.07
418.765	-0.05
418.969	0.1
419.173	0.03
419.377	0
419.581	0.1
419.785	-0.03
419.989	-0.05
420.193	-0.01
420.397	-0.07
420.601	0.04
420.804	0.04
421.008	-0.03
421.212	0
421.416	0.05
421.62	-0.05
421.823	-0.02
422.027	0.09
422.231	0.01
422.435	-0.02
422.638	-0.02
422.842	0.01
423.046	-0.03
423.249	0
423.453	-0.01
423.657	0.02
423.86	-0.02
424.064	-0.02
424.268	0.07
424.471	-0.02
424.675	0.1
424.878	0.06
425.082	0.01
425.285	0.07
425.489	-0.04
425.692	0.02
425.896	-0.04
426.099	0.01
426.303	-0.05
426.506	-0.07
426.71	-0.01
426.913	0.02
427.116	0.04
427.32	-0
427.523	-0.02
427.726	0.11
427.93	-0.06
428.133	0
428.336	-0.06
428.54	-0.03
428.743	0.01
428.946	0.04
429.149	0.01
429.353	0.03
429.556	-0.03
429.759	-0.01
429.962	-0.05
430.165	-0
430.368	-0.01
430.571	-0.06
430.775	0.04
430.978	-0.02
431.181	0.02
431.384	-0.02
431.587	-0.01
431.79	0
431.993	-0.05
432.196	0.01
432.399	-0.02
432.602	0.03
432.805	-0.04
433.008	-0.02
433.211	-0.04
433.414	0.07
433.616	0
433.819	-0.01
434.022	-0.08
434.225	0.07
434.428	0
434.631	0.07
434.833	0.01
435.036	-0.01
435.239	0.07
435.442	-0
435.645	-0.04
435.847	-0.01
436.05	0.03
436.253	0.01
436.455	-0.09
436.658	0.02
436.861	0.06
437.063	-0.01
437.266	-0.05
437.468	0.01
437.671	0.11
437.874	-0.03
438.076	-0.06
438.279	-0.09
438.481	-0.03
438.684	-0.07
438.886	0.01
439.089	-0.1
439.291	-0
439.494	0
439.696	-0.04
439.899	-0.01
440.101	0.03
440.303	-0.08
440.506	0.01
440.708	-0.02
440.91	0
441.113	-0.05
441.315	0.01
441.517	-0.08
441.72	0.05
441.922	-0.03
442.124	-0.02
442.326	0.03
442.529	0.06
442.731	-0.05
442.933	0.09
443.135	0.01
443.337	0.02
443.539	-0
443.742	-0.03
443.944	0.01
444.146	-0.05
444.348	-0.03
444.55	-0.04
444.752	0
444.954	-0.08
445.156	0.01
445.358	-0.03
445.56	0.06
445.762	-0.06
445.964	-0.04
446.166	-0.06
446.368	-0.05
446.57	0.05
446.772	-0.01
446.974	-0.03
447.175	-0.01
447.377	-0
447.579	-0.05
447.781	-0.08
447.983	0.06
448.184	0.03
448.386	0.04
448.588	-0.07
448.79	-0.03
448.991	-0.03
449.193	0
449.395	-0.01
449.597	0.03
449.798	-0.02
450	0.04
450.202	0.02
450.403	-0.05
450.605	0.02
450.806	-0.01
451.008	-0.06
451.21	0.01
451.411	-0.01
451.613	-0.01
451.814	0.03
452.016	-0
452.217	-0.03
452.419	0.08
452.62	0.01
452.821	-0.01
453.023	0.1
453.224	0.04
453.426	-0.04
453.627	-0.02
453.828	-0.01
454.03	-0.03
454.231	-0.02
454.432	-0.04
454.634	0.05
454.835	-0.02
455.036	-0.01
455.238	0.04
455.439	0.07
455.64	-0.05
455.841	-0.05
456.042	0.1
456.244	0.02
456.445	-0.02
456.646	-0.07
456.847	-0.06
457.048	0.07
457.249	0.07
457.45	0.2
457.651	-0.04
457.852	0.05
458.054	0.04
458.255	-0
458.456	0.05
458.657	-0.03
458.858	-0.06
459.058	-0.04
459.259	0.04
459.46	-0.03
459.661	-0.04
459.862	0.07
460.063	-0.02
460.264	0.05
460.465	-0.08
460.666	0.07
460.866	-0.02
461.067	0.02
461.268	0.01
461.469	-0.01
461.67	-0.01
461.87	-0.06
462.071	-0.07
462.272	-0.02
462.473	0.03
462.673	0
462.874	0.01
463.075	-0.01
463.275	-0.04
463.476	0.03
463.676	-0.02
463.877	0.05
464.078	-0.03
464.278	0.04
464.479	-0.04
464.679	0.02
464.88	0.02
465.08	0.07
465.281	-0.02
465.481	-0.02
465.682	-0.01
465.882	0.01
466.083	-0.01
466.283	-0.03
466.483	0.06
466.684	-0.04
466.884	-0.06
467.085	0.02
467.285	0.03
467.485	-0.03
467.686	0.01
467.886	-0.04
468.086	-0
468.286	0.04
468.487	0
468.687	-0.02
468.887	0.01
469.087	0.01
469.287	-0.02
469.488	-0.04
469.688	-0.03
469.888	0.02
470.088	0.04
470.288	0.07
470.488	0.05
470.688	-0.03
470.888	-0.02
471.088	-0.05
471.288	0.03
471.488	-0.01
471.688	0.05
471.888	0.01
472.088	0.05
472.288	0.03
472.488	-0.03
472.688	-0.06
472.888	0.01
473.088	0.03
473.288	0.02
473.488	0.03
473.688	0.08
473.887	-0
474.087	-0.02
474.287	0.03
474.487	-0.02
474.687	0.01
474.886	-0.01
475.086	-0.02
475.286	0.03
475.486	-0.01
475.685	0.02
475.885	-0.03
476.085	0.02
476.284	0.01
476.484	-0.01
476.684	0.04
476.883	0.03
477.083	0.03
477.282	-0
477.482	0.06
477.681	0.06
477.881	0
478.08	-0.02
478.28	-0.05
478.479	0.03
478.679	0.06
478.878	-0.01
479.078	-0.01
479.277	0.01
479.477	-0
479.676	0
479.875	0.03
480.075	-0.08
480.274	0.03
480.473	0.02
480.673	-0.03
480.872	0.06
481.071	0
481.271	-0.02
481.47	0
481.669	-0
481.868	-0.03
482.067	-0.02
482.267	-0
482.466	-0.03
482.665	-0.04
482.864	-0.03
483.063	-0.04
483.262	0.02
483.461	0.03
483.661	0.04
483.86	0
484.059	0.01
484.258	0.01
484.457	0.02
484.656	-0
484.855	0.05
485.054	-0.03
485.253	-0.03
485.452	-0.03
485.651	-0
485.849	0
486.048	-0.04
486.247	-0.02
486.446	0.01
486.645	-0.04
486.844	-0.01
487.043	-0.01
487.241	0
487.44	-0.02
487.639	0
487.838	0.02
488.037	-0.01
488.235	0.04
488.434	-0.02
488.633	-0.03
488.831	0.01
489.03	0.04
489.229	-0
489.427	0
489.626	0.02
489.825	0.04
490.023	-0.01
490.222	-0.02
490.42	0.02
490.619	0.04
490.817	0.02
491.016	-0.02
491.214	0.03
491.413	-0.03
491.611	-0.01
491.81	0.02
492.008	0.02
492.207	0.01
492.405	-0
492.604	-0.01
492.802	0.01
493	-0
493.199	-0.02
493.397	-0.02
493.595	-0.01
493.794	-0.02
493.992	0.05
494.19	0.01
494.388	-0.01
494.587	-0.04
494.785	-0
494.983	-0.02
495.181	-0.02
495.379	-0.02
495.578	-0.02
495.776	0.01
495.974	0.02
496.172	-0.02
496.37	-0.03
496.568	-0.02
496.766	-0.03
496.964	0.02
497.162	0.01
497.36	-0.01
497.558	0.03
497.756	-0
497.954	-0
498.152	-0.03
498.35	-0.01
498.548	0.01
498.746	0
498.944	-0.03
499.142	-0.03
499.34	-0.03
499.538	0.02
499.736	-0.02
499.933	0.02
500.131	0.04
500.329	-0
500.527	0.01
500.725	0.02
500.922	0.02
501.12	-0
501.318	-0.01
501.516	-0.01
501.713	0
501.911	0
502.109	-0.03
502.306	0
502.504	-0.02
502.701	-0.02
502.899	-0.02
503.097	0.04
503.294	0.01
503.492	-0
503.689	0.02
503.887	-0.01
504.084	0.06
504.282	-0.02
504.479	-0.01
504.677	0.01
504.874	-0.03
505.072	-0.01
505.269	-0.02
505.466	0.01
505.664	0.01
505.861	-0.03
506.059	-0.05
506.256	0.02
506.453	-0.02
506.651	0.06
506.848	0.03
507.045	-0
507.242	0.01
507.44	-0.01
507.637	-0.01
507.834	-0.01
508.031	0.01
508.229	-0.04
508.426	-0.01
508.623	0.02
508.82	-0.01
509.017	-0.01
509.214	-0.01
509.411	0.03
509.608	-0.02
509.805	-0.01
510.003	-0.02
510.2	-0.02
510.397	0.02
510.594	-0.02
510.791	-0.02
510.988	-0.01
511.184	0.03
511.381	-0
511.578	-0.02
511.775	0.04
511.972	-0.02
512.169	-0.01
512.366	0.01
512.563	0.01
512.76	-0.01
512.956	0.02
513.153	0
513.35	0.02
513.547	-0.02
513.744	-0.01
513.94	-0.02
514.137	0.01
514.334	0
514.53	0.01
514.727	-0.01
514.924	0.03
515.12	-0.01
515.317	-0.04
515.514	0
515.71	-0.04
515.907	0.01
516.103	0.01
516.3	0.02
516.497	0.03
516.693	0.05
516.89	-0.01
517.086	-0.02
517.283	0.04
517.479	-0.01
517.676	0
517.872	-0.01
518.068	0
518.265	-0.01
518.461	-0.02
518.658	-0.03
518.854	-0.01
519.05	-0.02
519.247	-0.03
519.443	0.03
519.639	0.01
519.836	0.01
520.032	-0.01
520.228	-0.02
520.424	0.04
520.621	0.02
520.817	-0.01
521.013	0.02
521.209	0
521.405	0.04
521.601	0.02
521.798	0.01
521.994	0.04
522.19	-0.02
522.386	-0.02
522.582	-0.01
522.778	0.01
522.974	-0.01
523.17	0
523.366	-0.02
523.562	0.01
523.758	-0.01
523.954	-0.03
524.15	-0.02
524.346	0
524.542	-0.01
524.738	-0.03
524.934	-0.01
525.129	-0.07
525.325	0.01
525.521	0
525.717	0.01
525.913	0.01
526.109	0.01
526.304	0.01
526.5	0.01
526.696	0.04
526.892	-0
527.087	0.01
527.283	-0.02
527.479	-0.02
527.674	-0.02
527.87	-0
528.066	-0
528.261	0.01
528.457	0.01
528.653	-0.01
528.848	-0.02
529.044	-0
529.239	0
529.435	0.01
529.63	0.01
529.826	0.04
530.021	-0.01
530.217	0
530.412	-0.03
530.608	-0.02
530.803	0.01
530.999	-0.01
531.194	-0.02
531.389	0
531.585	-0.06
531.78	0.01
531.975	-0.01
532.171	0.01
532.366	-0.01
532.561	0.01
532.757	-0.02
532.952	-0.01
533.147	0
533.342	0.01
533.538	-0.02
533.733	0.02
533.928	-0.01
534.123	-0.02
534.318	-0.03
534.513	-0.01
534.709	0
534.904	-0.01
535.099	-0.01
535.294	0.01
535.489	0
535.684	-0.02
535.879	-0.02
536.074	0.01
536.269	-0.03
536.464	0.01
536.659	-0
536.854	0.01
537.049	0.02
537.244	0.01
537.439	0.01
537.634	0.03
537.828	-0.01
538.023	0
538.218	-0.03
538.413	-0.01
538.608	-0.04
538.803	-0.01
538.997	-0.03
539.192	0.03
539.387	0.01
539.582	0
539.776	-0.01
539.971	-0.03
540.166	-0.01
540.36	-0.02
540.555	-0.02
540.75	-0.01
540.944	0
541.139	-0.03
541.334	-0.04
541.528	0
541.723	0.03
541.917	0.01
542.112	-0.04
542.306	0.01
542.501	-0.01
542.695	0.01
542.89	-0.01
543.084	-0.01
543.279	-0
543.473	0.01
543.668	-0.01
543.862	-0
544.056	0.02
544.251	-0.01
544.445	-0.01
544.64	0.01
544.834	-0.03
545.028	0.01
545.222	-0
545.417	0.02
545.611	0
545.805	-0.02
546	-0.02
546.194	0.01
546.388	-0.01
546.582	0.02
546.776	0.01
546.97	0
547.165	0.01
547.359	0.02
547.553	-0.01
547.747	-0.01
547.941	-0.01
548.135	0.01
548.329	0.02
548.523	-0.01
548.717	0.01
548.911	-0
549.105	-0.02
549.299	0
549.493	-0
549.687	0.01
549.881	-0.01
550.075	0
550.269	-0.02
550.463	0.03
550.657	-0
550.85	0.02
551.044	-0.02
551.238	0.02
551.432	-0.03
551.626	-0.02
551.82	0.01
552.013	-0.03
552.207	-0
552.401	0
552.594	-0.01
552.788	-0
552.982	0.02
553.176	-0.03
553.369	0.01
553.563	0
553.756	-0.04
553.95	-0.04
554.144	-0.03
554.337	0.03
554.531	-0
554.724	-0.01
554.918	-0
555.111	0.01
555.305	-0
555.498	0.03
555.692	0.03
555.885	-0.01
556.079	0.01
556.272	-0.02
556.466	0.01
556.659	-0
556.852	-0.01
557.046	0.02
557.239	0.01
557.432	-0.03
557.626	-0.01
557.819	-0
558.012	-0.01
558.206	0.02
558.399	-0.02
558.592	0
558.785	-0.01
558.979	0
559.172	-0.01
559.365	0.02
559.558	-0
559.751	-0.01
559.944	-0
560.138	-0.02
560.331	-0.01
560.524	-0
560.717	-0.01
560.91	0.01
561.103	0
561.296	-0
561.489	0.01
561.682	0
561.875	0.03
562.068	0.01
562.261	-0.01
562.454	0.04
562.647	-0.01
562.84	0
563.032	-0.03
563.225	0.02
563.418	-0.01
563.611	-0.03
563.804	0.01
563.997	-0.03
564.19	-0.02
564.382	-0.05
564.575	-0.02
564.768	0.01
564.961	-0.03
565.153	-0.02
565.346	0.02
565.539	0.03
565.731	0.01
565.924	-0.01
566.117	0.05
566.309	0.01
566.502	-0.01
566.695	-0.01
566.887	-0.02
567.08	-0.03
567.272	-0
567.465	-0.03
567.657	-0.01
567.85	0.01
568.042	0.01
568.235	0.05
568.427	-0.02
568.62	0.01
568.812	-0
569.005	0.01
569.197	-0.04
569.389	0
569.582	0.01
569.774	0.02
569.966	-0.04
570.159	-0.04
570.351	0.01
570.543	-0.02
570.736	-0
570.928	-0.04
571.12	-0
571.312	-0.02
571.505	-0.03
571.697	0.04
571.889	-0.01
572.081	-0.01
572.273	-0.03
572.465	0.01
572.658	-0.01
572.85	-0.01
573.042	-0
573.234	-0.01
573.426	0.03
573.618	-0.03
573.81	-0
574.002	0.02
574.194	0.03
574.386	-0.02
574.578	-0.04
574.77	-0.02
574.962	-0.01
575.154	-0.02
575.346	-0.02
575.538	0.02
575.729	-0.03
575.921	-0.02
576.113	-0
576.305	0.02
576.497	-0
576.689	-0.01
576.88	-0.03
577.072	0.03
577.264	-0.01
577.456	-0
577.647	-0.08
577.839	0.01
578.031	0.02
578.223	-0.01
578.414	-0.04
578.606	-0.01
578.798	-0
578.989	-0.02
579.181	-0.03
579.372	-0.01
579.564	-0.01
579.755	0.01
579.947	-0.01
580.139	0.02
580.33	-0.06
580.522	-0.03
580.713	-0.06
580.905	0
581.096	-0
581.287	-0.01
581.479	0
581.67	0.03
581.862	0.02
582.053	-0.01
582.244	-0.03
582.436	-0.02
582.627	0.01
582.818	-0.03
583.01	-0.04
583.201	0.02
583.392	0.03
583.583	-0.02
583.775	-0.01
583.966	-0.02
584.157	-0.03
584.348	-0
584.54	-0.05
584.731	0.01
584.922	-0.01
585.113	-0.03
585.304	0.01
585.495	0.02
585.686	0
585.877	0
586.068	-0
586.259	0.04
586.45	-0.01
586.641	-0.01
586.832	-0.06
587.023	0.01
587.214	-0.02
587.405	-0.01
587.596	-0.03
587.787	0.01
587.978	0.01
588.169	-0.03
588.36	-0.01
588.551	0.01
588.742	-0.02
588.932	-0
589.123	-0
589.314	0
589.505	0.03
589.696	-0
589.886	-0
590.077	-0.06
590.268	-0
590.458	-0.07
590.649	-0.03
590.84	0.02
591.03	-0.03
591.221	-0.04
591.412	-0.04
591.602	0.01
591.793	0.02
591.984	-0.02
592.174	-0.03
592.365	0.06
592.555	-0.04
592.746	0
592.936	0.02
593.127	-0.04
593.317	-0
593.508	-0.05
593.698	-0.03
593.889	0
594.079	-0.02
594.269	-0.03
594.46	0.01
594.65	-0.02
594.84	-0
595.031	-0.02
595.221	-0
595.411	-0.04
595.602	0.03
595.792	0.02
595.982	-0.03
596.172	0.02
596.363	0
596.553	0.01
596.743	-0.01
596.933	-0.02
597.123	0.02
597.314	-0.04
597.504	-0.03
597.694	0.04
597.884	0.01
598.074	-0.01
598.264	-0.04
598.454	0.01
598.644	-0.01
598.834	-0.01
599.024	-0.05
599.214	0
599.404	0.03
599.594	-0.05
599.784	-0.04
599.974	0.01
600.164	0.04
600.354	-0.03
600.544	-0.04
600.734	0.01
600.924	0.03
601.114	-0.01
601.303	-0.03
601.493	-0.02
601.683	-0
601.873	-0.01
602.063	-0.07
602.252	0
602.442	-0.06
602.632	-0.03
602.821	-0.04
603.011	0
603.201	-0.03
603.39	-0.02
603.58	-0.02
603.77	0.01
603.959	0.03
604.149	0.02
604.339	0.01
604.528	0.03
604.718	0.02
604.907	-0.02
605.097	-0.02
605.286	-0.03
605.476	-0.02
605.665	0.01
605.855	-0
606.044	0.03
606.234	0.02
606.423	-0.03
606.612	-0.02
606.802	-0
606.991	-0
607.181	0.01
607.37	-0.04
607.559	-0.03
607.749	-0.05
607.938	-0.02
608.127	-0.02
608.316	-0.02
608.506	0
608.695	-0.03
608.884	-0.07
609.073	0.02
609.263	-0
609.452	0.02
609.641	0.02
609.83	-0.05
610.019	-0.03
610.208	-0.02
610.397	-0.01
610.586	0
610.775	-0.02
610.965	-0.02
611.154	-0.01
611.343	-0
611.532	0.01
611.721	-0.03
611.91	-0.01
612.099	0.02
612.287	-0.04
612.476	-0.03
612.665	-0.01
612.854	-0.02
613.043	0.06
613.232	-0.02
613.421	-0.06
613.61	0.01
613.798	-0.03
613.987	0.02
614.176	-0
614.365	0.02
614.554	-0.01
614.742	-0.01
614.931	-0.04
615.12	0.04
615.309	-0.01
615.497	0.02
615.686	-0.02
615.875	0.01
616.063	0.01
616.252	-0.05
616.44	-0.03
616.629	-0.01
616.818	0.02
617.006	0.02
617.195	-0.04
617.383	0.03
617.572	-0
617.76	-0.04
617.949	-0.03
618.137	-0
618.326	-0.03
618.514	-0.06
618.703	-0
618.891	0.05
619.079	-0.05
619.268	0.01
619.456	-0.02
619.644	0.03
619.833	-0.01
620.021	-0.04
620.209	-0.05
620.398	0
620.586	-0
620.774	0.04
620.962	-0.01
621.151	0.04
621.339	-0.01
621.527	-0.03
621.715	-0.04
621.903	-0.01
622.092	-0.05
622.28	-0.01
622.468	0.02
622.656	0
622.844	0.03
623.032	-0.01
623.22	-0.03
623.408	0.02
623.596	0.02
623.784	0.03
623.972	-0.03
624.16	-0.01
624.348	0.02
624.536	-0.01
624.724	-0.01
624.912	0.04
625.1	0.01
625.288	-0.04
625.476	-0.02
625.664	0.05
625.851	-0.04
626.039	-0
626.227	-0.01
626.415	0.01
626.603	-0.07
626.79	0.01
626.978	-0.02
627.166	-0
627.354	-0.01
627.541	-0.02
627.729	-0.07
627.917	0.01
628.104	0.06
628.292	0.01
628.48	0
628.667	0.01
628.855	0.01
629.042	0.01
629.23	-0.05
629.418	-0.01
629.605	-0.04
629.793	-0.04
629.98	-0.05
630.168	-0.02
630.355	0.02
630.543	0.02
630.73	-0.02
630.917	0.02
631.105	0.04
631.292	-0.02
631.48	0.01
631.667	0.08
631.854	-0
632.042	-0.04
632.229	-0.07
632.416	-0.02
632.604	-0
632.791	-0.02
632.978	0.01
633.165	0.01
633.353	0.06
633.54	0.03
633.727	-0.04
633.914	-0.01
634.101	0.01
634.289	0.04
634.476	-0.01
634.663	-0.04
634.85	0.02
635.037	-0.04
635.224	-0.06
635.411	0.03
635.598	0.03
635.785	-0.01
635.972	-0.01
636.159	0.03
636.346	-0.05
636.533	-0
636.72	-0.02
636.907	-0.03
637.094	0.02
637.281	-0.04
637.468	0
637.655	-0.02
637.842	0
638.029	-0.03
638.215	0.02
638.402	0.01
638.589	-0.02
638.776	-0.02
638.963	-0.03
639.149	0.02
639.336	0.07
639.523	-0.04
639.709	0.01
639.896	-0.02
640.083	0.06
640.27	-0
640.456	-0.03
640.643	0.02
640.829	-0.06
641.016	-0.02
641.203	-0.01
641.389	0.03
641.576	-0
641.762	-0.02
641.949	-0.08
642.135	0.01
642.322	0.01
642.508	-0.03
642.695	-0
642.881	-0.01
643.068	-0.02
643.254	-0.02
643.441	0.04
643.627	-0.01
643.813	-0.03
644	-0.01
644.186	-0.03
644.372	-0.06
644.559	0
644.745	-0.02
644.931	-0.02
645.118	-0
645.304	-0.03
645.49	0
645.676	0
645.862	-0.01
646.049	0.06
646.235	0.01
646.421	0.06
646.607	0.02
646.793	-0.03
646.979	-0.04
647.165	0.01
647.352	-0.01
647.538	0.02
647.724	-0.01
647.91	0.03
648.096	-0.02
648.282	0.04
648.468	0.01
648.654	0.02
648.84	0.02
649.026	-0
649.212	-0.02
649.397	-0.02
649.583	-0.05
649.769	0.02
649.955	0
650.141	0
650.327	0.06
650.513	-0.04
650.698	-0.01
650.884	-0.05
651.07	-0
651.256	0.02
651.442	0
651.627	-0.02
651.813	-0.01
651.999	-0.01
652.184	0.01
652.37	-0
652.556	-0.02
652.741	0.04
652.927	-0.06
653.113	-0.01
653.298	-0.01
653.484	-0.01
653.669	-0.08
653.855	-0.02
654.04	0.02
654.226	0.02
654.412	-0.01
654.597	-0.03
654.782	0
654.968	0.03
655.153	0.03
655.339	-0.03
655.524	-0.06
655.71	0.04
655.895	0
656.08	-0.01
656.266	0.02
656.451	0.01
656.636	-0.01
656.822	-0.01
657.007	-0.04
657.192	-0.02
657.378	-0.02
657.563	0
657.748	0.04
657.933	-0.02
658.118	0.03
658.304	-0.03
658.489	0.03
658.674	0.04
658.859	-0.04
659.044	0.03
659.229	0.03
659.414	-0.01
659.599	-0.01
659.785	-0.07
659.97	-0.02
660.155	0.01
660.34	0.01
660.525	0.02
660.71	-0
660.895	0.06
661.08	-0.01
661.264	-0.01
661.449	0.02
661.634	0.04
661.819	0
662.004	0.03
662.189	-0.07
662.374	-0.01
662.559	-0
662.743	-0.02
662.928	-0.01
663.113	-0.03
663.298	-0.03
663.483	-0.03
663.667	0.04
663.852	-0.03
664.037	0.04
664.221	-0.03
664.406	0.05
664.591	0.02
664.775	0.04
664.96	-0.02
665.145	0.03
665.329	0.02
665.514	-0.01
665.698	0.01
665.883	-0.04
666.068	0.09
666.252	0.02
666.437	-0.03
666.621	-0.01
666.806	0.01
666.99	0.01
667.174	-0.06
667.359	0.07
667.543	0.04
667.728	0.01
667.912	-0.05
668.096	0.04
668.281	0.01
668.465	0.03
668.649	0.01
668.834	-0.04
669.018	0.03
669.202	0.01
669.387	0
669.571	0.05
669.755	0.01
669.939	0.02
670.124	0.01
670.308	0.07
670.492	0.03
670.676	0.05
670.86	0.04
671.044	-0
671.228	0.05
671.413	-0.01
671.597	0.02
671.781	-0.02
671.965	0.03
672.149	0.03
672.333	0.02
672.517	0
672.701	-0.01
672.885	0.02
673.069	-0.04
673.253	0.09
673.437	-0
673.621	0.01
673.804	0.02
673.988	0.03
674.172	0.03
674.356	-0.03
674.54	0.01
674.724	0.16
674.908	0.04
675.091	0.09
675.275	-0.01
675.459	0.08
675.643	0.01
675.826	0.08
676.01	0.03
676.194	0.04
676.377	0.05
676.561	0.05
676.745	0.05
676.928	0.04
677.112	0.09
677.296	0.01
677.479	0.04
677.663	0.02
677.846	0.1
678.03	0.05
678.213	0.08
678.397	0.03
678.58	0.06
678.764	0.03
678.947	0.02
679.131	0.06
679.314	0.06
679.498	-0.01
679.681	0.05
679.865	0.1
680.048	0.06
680.231	0.04
680.415	0.07
680.598	0.07
680.781	0.04
680.965	0.06
681.148	0.06
681.331	0.09
681.514	0.06
681.698	0.05
681.881	0.1
682.064	0.06
682.247	0.09
682.43	0.01
682.614	0.07
682.797	0.17
682.98	0.13
683.163	0.08
683.346	0.11
683.529	0.07
683.712	0.05
683.895	0.11
684.078	0.07
684.261	0.09
684.444	0.09
684.627	0.12
684.81	0.08
684.993	0.08
685.176	0.15
685.359	0.06
685.542	0.07
685.725	0.19
685.908	0.11
686.091	0.09
686.274	0.16
686.457	0.14
686.639	0.09
686.822	0.16
687.005	0.12
687.188	0.16
687.371	0.16
687.553	0.12
687.736	0.17
687.919	0.22
688.102	0.16
688.284	0.12
688.467	0.14
688.65	0.12
688.832	0.1
689.015	0.14
689.197	0.07
689.38	0.23
689.563	0.21
689.745	0.12
689.928	0.13
690.11	0.17
690.293	0.17
690.475	0.1
690.658	0.16
690.84	0.17
691.023	0.13
691.205	0.17
691.388	0.16
691.57	0.2
691.752	0.19
691.935	0.1
692.117	0.16
692.3	0.21
692.482	0.21
692.664	0.16
692.847	0.25
693.029	0.24
693.211	0.26
693.393	0.26
693.576	0.18
693.758	0.19
693.94	0.18
694.122	0.22
694.304	0.2
694.487	0.17
694.669	0.33
694.851	0.15
695.033	0.25
695.215	0.22
695.397	0.21
695.579	0.24
695.761	0.23
695.943	0.19
696.125	0.33
696.308	0.3
696.49	0.19
696.671	0.39
696.853	0.27
697.035	0.46
697.217	0.31
697.399	0.36
697.581	0.29
697.763	0.3
697.945	0.28
698.127	0.28
698.309	0.39
698.491	0.33
698.672	0.37
698.854	0.39
699.036	0.44
699.218	0.34
699.399	0.33
699.581	0.41
699.763	0.35
699.945	0.33
700.126	0.29
700.308	0.41
700.49	0.42
700.671	0.33
700.853	0.37
701.035	0.4
701.216	0.45
701.398	0.33
701.579	0.44
701.761	0.5
701.943	0.4
702.124	0.36
702.306	0.43
702.487	0.58
702.669	0.44
702.85	0.45
703.031	0.46
703.213	0.57
703.394	0.48
703.576	0.49
703.757	0.65
703.938	0.56
704.12	0.63
704.301	0.54
704.483	0.53
704.664	0.61
704.845	0.67
705.026	0.62
705.208	0.59
705.389	0.63
705.57	0.64
705.751	0.65
705.933	0.64
706.114	0.67
706.295	0.65
706.476	0.64
706.657	0.78
706.838	0.68
707.02	0.79
707.201	0.77
707.382	0.75
707.563	0.78
707.744	0.74
707.925	0.75
708.106	0.72
708.287	0.76
708.468	0.85
708.649	0.87
708.83	0.87
709.011	0.83
709.192	0.96
709.373	0.84
709.554	0.91
709.734	0.95
709.915	0.98
710.096	0.92
710.277	0.84
710.458	0.98
710.639	1.04
710.819	0.91
711	0.99
711.181	1.1
711.362	1.16
711.542	1.13
711.723	1.07
711.904	1.19
712.085	1.13
712.265	1.15
712.446	1.14
712.627	1.21
712.807	1.17
712.988	1.21
713.168	1.13
713.349	1.22
713.53	1.16
713.71	1.23
713.891	1.21
714.071	1.28
714.252	1.41
714.432	1.39
714.613	1.31
714.793	1.43
714.974	1.58
715.154	1.55
715.334	1.57
715.515	1.63
715.695	1.49
715.876	1.64
716.056	1.63
716.236	1.55
716.417	1.68
716.597	1.71
716.777	1.87
716.957	1.73
717.138	1.81
717.318	1.8
717.498	1.78
717.678	1.88
717.859	1.93
718.039	1.87
718.219	1.94
718.399	2.09
718.579	2.06
718.759	2.06
718.939	2.17
719.12	2.18
719.3	2.15
719.48	2.16
719.66	2.02
719.84	2.31
720.02	2.25
720.2	2.31
720.38	2.41
720.56	2.63
720.74	2.39
720.92	2.51
721.1	2.74
721.279	2.67
721.459	2.68
721.639	2.61
721.819	2.78
721.999	2.64
722.179	2.82
722.359	2.83
722.538	2.84
722.718	2.92
722.898	2.91
723.078	3.07
723.257	3.03
723.437	3.15
723.617	3.11
723.797	3.2
723.976	3.23
724.156	3.43
724.336	3.46
724.515	3.51
724.695	3.32
724.874	3.48
725.054	3.58
725.234	3.53
725.413	3.68
725.593	3.65
725.772	3.69
725.952	3.92
726.131	3.83
726.311	3.96
726.49	3.83
726.67	3.95
726.849	3.91
727.028	3.95
727.208	3.97
727.387	4.17
727.567	4.06
727.746	4.2
727.925	4.25
728.105	4.21
728.284	4.32
728.463	4.33
728.643	4.46
728.822	4.52
729.001	4.59
729.18	4.72
729.359	4.73
729.539	4.83
729.718	4.88
729.897	4.82
730.076	4.98
730.255	4.9
730.434	5.14
730.614	5.23
730.793	5.16
730.972	5.36
731.151	5.34
731.33	5.47
731.509	5.53
731.688	5.37
731.867	5.59
732.046	5.46
732.225	5.89
732.404	5.69
732.583	5.78
732.762	6.05
732.941	6.09
733.12	6.12
733.298	5.95
733.477	6.23
733.656	6.17
733.835	6.15
734.014	6.39
734.193	6.26
734.371	6.31
734.55	6.44
734.729	6.33
734.908	6.6
735.086	6.55
735.265	6.56
735.444	6.37
735.623	6.56
735.801	6.63
735.98	6.48
736.159	6.59
736.337	6.69
736.516	6.61
736.694	6.62
736.873	6.46
737.052	6.82
737.23	6.49
737.409	6.35
737.587	6.72
737.766	6.16
737.944	6.28
738.123	6.53
738.301	6.35
738.479	6.24
738.658	6.16
738.836	5.8
739.015	5.95
739.193	5.85
739.371	5.46
739.55	5.48
739.728	5.28
739.906	5.52
740.085	5.49
740.263	5.13
740.441	4.67
740.62	5.11
740.798	4.91
740.976	4.57
741.154	4.52
741.332	4.54
741.511	4.34
741.689	4.06
741.867	4.18
742.045	3.86
742.223	3.74
742.401	3.6
742.579	3.55
742.757	3.54
742.935	3.2
743.114	3.18
743.292	3.09
743.47	3.21
743.648	2.76
743.826	2.85
744.004	2.86
744.181	2.68
744.359	2.44
744.537	2.46
744.715	2.35
744.893	2.41
745.071	2.28
745.249	2.16
745.427	2.07
745.605	1.94
745.782	1.91
745.96	1.96
746.138	1.81
746.316	1.89
746.493	1.61
746.671	1.72
746.849	1.55
747.027	1.71
747.204	1.3
747.382	1.46
747.56	1.31
747.737	1.21
747.915	1.25
748.093	1.34
748.27	1.1
748.448	1.12
748.625	0.99
748.803	1.06
748.98	0.92
749.158	1.08
749.335	1.03
749.513	0.97
749.69	0.9
749.868	0.85
750.045	0.89
750.223	0.82
750.4	0.69
750.578	1.05
750.755	0.81
750.932	0.68
751.11	0.86
751.287	0.46
751.464	0.86
751.642	0.56
751.819	0.72
751.996	0.56
752.173	0.54
752.351	0.46
752.528	0.58
752.705	0.52
752.882	0.55
753.06	0.5
753.237	0.63
753.414	0.67
753.591	0.69
753.768	0.43
753.945	0.36
754.122	0.38
754.299	0.4
754.476	0.26
754.654	0.37
754.831	0.44
755.008	0.52
755.185	0.35
755.362	0.26
755.539	0.43
755.716	0.27
755.892	0.26
756.069	0.3
756.246	0.27
756.423	0.35
756.6	0.4
756.777	0.22
756.954	0.35
757.131	0.21
757.307	0.22
757.484	0.18
757.661	0.25
757.838	0.17
758.015	0.02
758.191	0.28
758.368	0.24
758.545	0.4
758.721	0.3
758.898	0.09
759.075	0.3
759.251	0.32
759.428	0.33
759.605	0.1
759.781	0.2
759.958	0.3
760.134	0.18
760.311	0.19
760.488	0.19
760.664	0.28
760.841	0.17
761.017	0.05
761.194	0.2
761.37	0.13
761.547	0.01
761.723	0.12
761.899	0.23
762.076	-0.01
762.252	-0.02
762.429	-0.02
762.605	0.25
762.781	0.04
762.958	0.16
763.134	0.13
763.31	0.07
763.486	0.25
763.663	-0.08
763.839	0.09
764.015	-0.1
764.191	-0.17
764.368	0.1
764.544	-0.03
764.72	0.11
764.896	0.22
765.072	0.17
765.248	0.09
765.425	0.1
765.601	0.04
765.777	0.2
765.953	-0.15
766.129	0.02
766.305	0.02
766.481	0.14
766.657	0.11
766.833	0.26
767.009	-0.12
767.185	0.07
767.361	0.01
767.537	0.01
767.713	0.12
767.889	0.03
768.065	0.09
768.24	0.1
768.416	0.07
768.592	-0.03
768.768	0.05
768.944	0.13
769.12	-0.15
769.295	-0.21
769.471	0.01
769.647	0.04
769.823	0.21
769.998	0.03
770.174	0.03
770.35	0.42
770.525	0.31
770.701	0.23
770.877	0.11
771.052	-0.14
771.228	0.16
771.403	0.08
771.579	0.08
771.755	0.19
771.93	-0.11
772.106	-0.13
772.281	-0.2
772.457	-0.01
772.632	0.15
772.808	-0.06
772.983	-0.1
773.159	-0.02
773.334	0.27
773.509	-0.02
773.685	0.04
773.86	0.34
774.036	0.24
774.211	-0.05
774.386	-0
774.562	0.13
774.737	0.03
774.912	0.01
775.087	0.16
775.263	-0.02
775.438	0.04
775.613	-0.11
775.788	0.1
775.964	0.17
776.139	0.23
776.314	-0.18
776.489	0.07
776.664	0.05
776.839	0.09
777.014	0.15
777.19	0.11
777.365	0.26
777.54	0.12
777.715	-0.04
777.89	-0.16
778.065	-0.02
778.24	0.07
778.415	0.06
778.59	-0.08
778.765	-0.16
778.94	0.16
779.115	-0.05
779.289	0.09
779.464	0.07
779.639	0.02
779.814	-0.09
779.989	-0.1
780.164	0.21
780.339	0.11
780.513	-0.24
780.688	-0.07
780.863	0.15
781.038	0.03
781.212	-0.08
781.387	0.1
781.562	0.22
781.737	-0.12
781.911	0.09
782.086	-0.06
782.261	-0.08
782.435	0.25
782.61	-0.25
782.784	0
782.959	0.13
783.134	0.05
783.308	-0.2
783.483	-0.08
783.657	0.38
783.832	0.12
784.006	-0.23
784.181	0.05
784.355	0.17
784.53	-0.3
784.704	-0.36
784.878	0.17
785.053	0.1
785.227	0.06
785.402	0.27
785.576	-0.18
785.75	-0.09
785.925	-0.03
786.099	0.07
786.273	0.17
786.448	0.1
786.622	0.24
786.796	0.24
786.97	-0.14
787.145	0.52
787.319	-0.23
787.493	0.11
787.667	-0.49
787.841	-0.01
788.015	0.15
788.19	-0.11
788.364	0.04
788.538	0.17
788.712	0
788.886	-0.21
789.06	0.24
789.234	0.33
789.408	-0.24
789.582	0.08
789.756	-0.07
789.93	-0.11
790.104	-0.08
790.278	-0.19
790.452	-0.34
790.626	0.21
790.8	-0.15
790.973	0.29
791.147	0.32
791.321	0.18
791.495	0.34
791.669	0.02
791.843	0.15
792.016	0.26
792.19	0.41
792.364	-0.1
792.538	0.45
792.711	0.29
792.885	0.02
793.059	-0.21
793.233	-0.42
793.406	0.32
793.58	0.06
793.754	-0.2
793.927	-0.01
794.101	0.48
794.274	-0.08
794.448	0.02
794.622	-0.24
794.795	0.01
794.969	-0
795.142	0.48
795.316	-0.03
795.489	-0.11
795.663	0.68
795.836	-0.09
796.009	0.05
796.183	0.39
796.356	-0.2
796.53	0.09
796.703	0.08
796.876	0.72
797.05	0.01
797.223	-0.11
797.396	0.05
797.57	0.05
797.743	0.16
797.916	0.18
798.09	0.1
798.263	0.12
798.436	0.18
798.609	-0.06
798.782	-0.01
798.956	0.1
799.129	0.02
799.302	-0.07
799.475	0.05
799.648	-0.31
799.821	0.02
799.994	-0
800.167	-0.4
800.34	-0.11
800.514	0.09
800.687	0.02
800.86	-0.29
801.033	-0.04
801.206	-0.25
801.379	0
801.551	0.09
801.724	0.23
801.897	0.51
802.07	-0.03
802.243	-0.26
802.416	-0.15
802.589	-0.14
802.762	0.08
802.935	0.05
803.107	0.07
803.28	0.42
803.453	0.08
803.626	-0.13
803.798	0.12
803.971	-0.45
804.144	0.04
804.317	0.14
804.489	0.32
804.662	-0.15
804.835	0.38
805.007	-0.06
805.18	0.45
805.353	0.12
805.525	-0.22
805.698	-0.17
805.87	0.27
806.043	-0.01
806.215	-0.19
806.388	0.04
806.56	0.23
806.733	0.37
806.905	-0
807.078	-0.17
807.25	-0.05
807.423	0.01
807.595	0.08
807.768	-0.1
807.94	0.54
808.112	0.38
808.285	0.1
808.457	0.01
808.629	-0.05
808.802	0.24
808.974	-0.02
809.146	-0.09
809.318	-0.26
809.491	0.13
809.663	0.11
809.835	0.01
810.007	0.17
810.18	0.13
810.352	-0.2
810.524	0.01
810.696	0.01
810.868	0.29
811.04	-0.15
811.212	-0.18
811.384	0.16
811.556	-0.03
811.728	-0
811.901	0.83
812.073	0.01
812.245	0.5
812.417	0.12
812.589	-0.7
812.76	0.09
812.932	-0.01
813.104	0.36
813.276	-0.14
813.448	0.61
813.62	0.24
813.792	0.02
813.964	0.04
814.136	0.14
814.307	-0.02
814.479	-0.27
814.651	-0.23
814.823	1.16
814.995	0.05
815.166	0.04
815.338	-0.05
815.51	-0.46
815.681	1
815.853	-0.22
816.025	-0.15
816.196	0.75
816.368	0.46
816.54	-0.67
816.711	-0.35
816.883	-0.03
817.054	0.96
817.226	-0.57
817.398	-0.24
817.569	-0.53
817.741	0.22
817.912	0.05
818.084	0.11
818.255	0.01
818.426	-0.34
818.598	0.03
818.769	-0.18
818.941	0.17
819.112	0.09
819.283	0.06
819.455	-0.11
819.626	-0.15
819.798	-0.18
819.969	-0.01
820.14	-0.13
820.311	-0.23
820.483	-0.06
820.654	0.12
820.825	-0.08
820.996	0.07
821.168	-0.22
821.339	-0.19
821.51	-0.43
821.681	-0.01
821.852	0.61
822.023	-0.56
822.195	-0.47
822.366	0.19
822.537	-0.11
822.708	0.04
822.879	-0.39
823.05	0.72
823.221	0.04
823.392	-0.13
823.563	0.07
823.734	-0.04
823.905	0.07
824.076	-0.1
824.247	-0.63
824.418	-0.27
824.589	0.74
824.759	-0.28
824.93	-0.05
825.101	-0.05
825.272	0.68
825.443	0.07
825.614	0.42
825.784	-1
825.955	0.46
826.126	0.47
826.297	-0.18
826.467	0.49
826.638	0.58
826.809	-0.76
826.98	0.49
827.15	0.2
827.321	-0.12
827.492	0.84
827.662	0.23
827.833	1.15
828.003	0.48
828.174	-0.52
828.345	-0.31
828.515	0.77
828.686	0.21
828.856	-0.47
829.027	0.11
829.197	0.09
829.368	0.3
829.538	-0.1
829.709	-0.21
829.879	0.28
830.049	0.29
830.22	-0.18
830.39	0.42
830.56	0.41
830.731	-0.25
830.901	-1
831.072	-0.49
831.242	-0.05
831.412	-0.03
831.582	0.23
831.753	-0.55
831.923	0.84
832.093	-0.49
832.263	-0.37
832.434	-0.98
832.604	0.31
832.774	0.53
832.944	-0.02
833.114	0.17
833.284	0.05
833.454	-0.26
833.624	-0.63
833.795	-0.21
833.965	0.62
834.135	0.12
834.305	-0.38
834.475	-0.16
834.645	0.24
834.815	-0.24
834.985	-0.04
835.155	-0.15
835.325	0.11
835.494	0.4
835.664	-0.46
835.834	-0.7
836.004	-0.16
836.174	0.03
836.344	-0.28
836.514	-0.9
836.684	0.3
836.853	-0.46
837.023	0.4
837.193	-0.05
837.363	0.38
837.532	0.7
837.702	-0.31
837.872	-0.32
838.041	-0.05
838.211	1.25
838.381	-0.99
838.55	0.15
838.72	2.06
838.89	1.67
839.059	0.01
839.229	-0.49
839.398	0.93
839.568	-0.01
839.738	-0.39
839.907	1.07
840.077	0.39
840.246	0.52
840.416	-0.9
840.585	-0.63
840.755	1.16
840.924	1.43
841.093	-0.27
841.263	-0.03
841.432	0.1
841.602	-0.49
841.771	-0.65
841.94	0.28
842.11	1.37
842.279	1.59
842.448	-0.77
842.617	-0.72
842.787	1.53
842.956	-0.86
843.125	-0.34
843.294	0.3
843.464	0.43
843.633	-0.05
843.802	-0.59
843.971	-0.61
844.14	0.93
844.309	1.29
844.479	-0.6
844.648	-0.68
844.817	-0.28
844.986	0.43
845.155	0.36
845.324	-0.16
845.493	-0.23
845.662	-0.27
845.831	0.1
846	0.6
846.169	-0.33
846.338	2.04
846.507	0.17
846.676	0.28
846.844	-0.79
847.013	0.4
847.182	0.38
847.351	0.57
847.52	-0.36
847.689	0.34
847.858	-0.46
848.026	-0.52
848.195	0.22
848.364	-0.41
848.533	-0.05
848.701	-1.09
848.87	-0.52
849.039	0.47
849.207	0.96
849.376	1.98
849.545	0.62
849.713	0.16
849.882	-0.17
850.051	0.24
850.219	0.09
850.388	0.85
850.556	-1.05
850.725	-0.73
850.893	0.44
851.062	-0.08
851.23	0.2
851.399	-1.28
851.567	-0.36
851.736	-0.66
851.904	0.26
852.073	0.28
852.241	0.45
852.41	-0.36
852.578	0.03
852.746	-0.52
852.915	1.05
853.083	0.05
853.251	-0.26
853.42	-0.55
853.588	-0.09
853.756	1.15
853.924	0.7
854.093	0.56
854.261	0.07
854.429	-1.23
854.597	-0
854.765	-0.99
854.934	0.62
855.102	0.59
855.27	-0.63
855.438	0.35
855.606	1.46
855.774	0.14
855.942	-0.15
856.11	-2.15
856.278	-0.34
856.446	1.57
856.614	0.09
856.782	-0.3
856.95	0.46
857.118	-0.21
857.286	0.5
857.454	-0.15
857.622	1.54
857.79	0.81
857.958	-0.35
858.126	-0.89
858.294	-2.91
858.462	0.56
858.629	-1.02
858.797	-0.49
858.965	0.96
859.133	-0.04
859.301	-0.32
859.468	0.75
859.636	0.13
859.804	0.76
859.971	0.37
860.139	-0.31
860.307	2.08
860.474	1
860.642	-0.7
860.81	-0.22
860.977	0.04
861.145	1.35
861.313	0.11
861.48	0.42
861.648	0.16
861.815	0.1
861.983	-0.28
862.15	-1.47
862.318	1.01
862.485	1.35
862.653	-0.21
862.82	-0.92
862.988	2.02
863.155	0.45
863.322	-1.68
863.49	-0.88
863.657	-1.35
863.824	2.46
863.992	0.22
864.159	0.97
864.326	2.56
864.494	-1.17
864.661	1.38
864.828	-0.9
864.996	0.95
865.163	2.17
865.33	-0.44
865.497	-0.06
865.664	-1.22
865.832	-1.61
865.999	-0.38
866.166	-2.23
866.333	-0.75
866.5	-0.3
866.667	0.46
866.834	-1.07
867.001	1.58
867.168	-3.1
867.335	1.36
867.502	-1.29
867.669	1.39
867.836	2.25
868.003	-0.22
868.17	0.5
868.337	-1.15
868.504	2.27
868.671	-0.85
868.838	-0.99
869.005	1.31
869.172	0.23
869.339	-0.88
869.505	-0.02
869.672	-1.72
869.839	1.34
870.006	0.22
870.173	-1.78
870.339	0.68
870.506	3.54
870.673	-0.05
870.84	1.86
871.006	-0.79
871.173	-0.22
871.34	-1.33
871.506	-0.79
871.673	0.96
871.839	-2.37
872.006	1.64
872.173	-0.22
872.339	0.71
872.506	3.23
872.672	1.31
872.839	-1.1
873.005	0.13
873.172	3.82
873.338	0.28
873.505	-1.24
873.671	-1.45
873.838	0.42
874.004	-0.36
874.171	-1.25
874.337	0.97
874.503	-0.35
874.67	-0.78
874.836	-0.48
875.002	0.83
875.169	2.92
875.335	-0.84
875.501	1.42
875.668	1.72
875.834	0.23
876	-0.73
876.166	1.21
876.332	0.88
876.499	2.06
876.665	-1.02
876.831	-1.12
876.997	3.33
877.163	1.89
877.329	0.84
877.495	0.68
877.662	1.79
877.828	-0.04
877.994	0.9
878.16	-3.07
878.326	-0.32
878.492	-0.19
878.658	0.24
878.824	0.93
878.99	2.29
879.156	-0.56
879.322	3.64
879.487	-0.11
879.653	1.44
879.819	0.73
879.985	-0.73
880.151	0.6
880.317	-0.13
880.483	1.25
880.648	0.88
880.814	-3.17
880.98	1.16
881.146	-0.98
881.312	-1.43
881.477	-1.52
881.643	-0.36
881.809	0.88
881.974	1.58
882.14	-1.95
882.306	2.18
882.471	2.15
882.637	0.41
882.803	1.91
882.968	2.99
883.134	2.92
883.299	-0.45
883.465	0.2
883.63	2.98
883.796	1.34
883.961	-0.1
884.127	2.7
884.292	-2.82
884.458	-0.85
884.623	-0.85
