Data from Apollo_Calib_20240827__AbsoluteIrradiance__94__00-43-01-655.txt Node

Date: Wed Aug 28 00:43:01 BST 2024
User: biology
Spectrometer: FLMT08252
Trigger mode: 0
Integration Time (sec): 5.000000E-1
Scans to average: 5
Electric dark correction enabled: true
Nonlinearity correction enabled: false
Boxcar width: 0
XAxis mode: Wavelengths
Number of Pixels in Spectrum: 3648
>>>>>Begin Spectral Data<<<<<
179.588	-0
179.809	-0
180.03	-0
180.251	-0
180.473	-0
180.694	0
180.915	0
181.136	-0
181.357	0
181.578	0
181.799	0
182.02	-0
182.241	-0
182.462	-0
182.683	0
182.904	-0
183.125	-0
183.346	0
183.567	0
183.788	-0
184.009	-0
184.23	-0
184.451	0
184.672	-0
184.892	-0
185.113	0
185.334	0
185.555	-0
185.776	-0
185.996	-0
186.217	0
186.438	-0
186.659	-0
186.879	0
187.1	-0
187.321	-0
187.541	-0
187.762	0
187.983	-0
188.203	-0
188.424	-0
188.644	0
188.865	-0
189.086	0
189.306	0
189.527	0
189.747	0
189.968	-0
190.188	0
190.409	0
190.629	-0
190.849	-0
191.07	-0
191.29	0
191.511	-0
191.731	-0
191.951	-0
192.172	0
192.392	-0
192.612	0
192.833	-0
193.053	0
193.273	0
193.493	0
193.714	-0
193.934	0
194.154	0
194.374	0
194.594	-0
194.815	0
195.035	0
195.255	0
195.475	-0
195.695	0
195.915	-0
196.135	0
196.355	0
196.575	0
196.795	0
197.015	-0
197.235	-0
197.455	-0
197.675	0
197.895	-0
198.115	-0
198.335	0
198.555	-0
198.775	0
198.995	0
199.214	0
199.434	0
199.654	-0
199.874	-0
200.094	0.87
200.313	-0.47
200.533	-0.03
200.753	-0.85
200.973	0.5
201.192	0.09
201.412	-0.51
201.632	-0.06
201.851	0.3
202.071	-0.23
202.291	-0.29
202.51	-0.78
202.73	0.66
202.95	-0.48
203.169	-0.43
203.389	0.25
203.608	0.01
203.828	-0.37
204.047	0.01
204.267	0.29
204.486	0.05
204.706	0.07
204.925	-0.17
205.145	-0.39
205.364	0.39
205.583	0.31
205.803	-0.08
206.022	-0.49
206.242	0.02
206.461	-0.07
206.68	-0.14
206.9	-0.05
207.119	0.43
207.338	0.7
207.557	-0.45
207.777	-0.23
207.996	0.13
208.215	0.25
208.434	-0.35
208.654	-0.53
208.873	0.07
209.092	0.76
209.311	-0.21
209.53	-0.23
209.749	-0.18
209.968	-0.38
210.187	-0.12
210.407	-0.55
210.626	-0.12
210.845	-0.03
211.064	0
211.283	-0.23
211.502	0.22
211.721	-0.02
211.94	-0.14
212.159	0
212.377	0.16
212.596	0.26
212.815	0.11
213.034	0.08
213.253	0.46
213.472	0.08
213.691	-0.01
213.91	-0.29
214.128	-0.17
214.347	0.29
214.566	-0.53
214.785	-0.34
215.003	0.11
215.222	0.19
215.441	0.01
215.66	-0.37
215.878	0.04
216.097	0.19
216.316	-0.28
216.534	-0.05
216.753	-0.03
216.972	-0
217.19	-0.04
217.409	-0.12
217.627	0.02
217.846	0.11
218.064	-0.1
218.283	-0.25
218.501	0.41
218.72	0.23
218.938	-0.22
219.157	-0.27
219.375	0.06
219.594	0.19
219.812	-0.18
220.031	-0.07
220.249	0.24
220.467	0.19
220.686	-0.06
220.904	-0.2
221.122	-0.14
221.341	0.27
221.559	0
221.777	-0.09
221.995	-0.13
222.214	-0.02
222.432	-0
222.65	0.05
222.868	-0.04
223.086	0.09
223.305	0.17
223.523	-0.01
223.741	0.17
223.959	-0.28
224.177	-0.22
224.395	-0.12
224.613	-0.01
224.831	0.07
225.049	-0.31
225.267	-0.02
225.485	0.03
225.703	-0.05
225.921	0.09
226.139	-0.08
226.357	0.12
226.575	0.27
226.793	-0.09
227.011	0.49
227.229	0.01
227.447	0.11
227.665	-0.08
227.883	-0.24
228.1	0.06
228.318	-0
228.536	-0.25
228.754	-0.12
228.972	0.12
229.189	-0.01
229.407	-0.06
229.625	0
229.843	0.05
230.06	0.21
230.278	-0.22
230.496	-0.02
230.713	-0.13
230.931	0.22
231.149	-0.03
231.366	-0.27
231.584	0.02
231.801	0.23
232.019	-0.01
232.236	-0.05
232.454	-0.12
232.671	0.04
232.889	-0.02
233.106	-0.02
233.324	-0.05
233.541	-0.06
233.759	-0.09
233.976	-0.12
234.194	-0.07
234.411	-0.06
234.628	-0.05
234.846	0.04
235.063	0.07
235.28	-0.07
235.498	-0.05
235.715	-0.07
235.932	0.12
236.149	0.01
236.367	-0.17
236.584	-0.03
236.801	-0.02
237.018	0.05
237.236	0.03
237.453	-0.14
237.67	0.08
237.887	-0.06
238.104	-0.08
238.321	-0.1
238.538	-0.12
238.755	0.09
238.973	-0.2
239.19	-0.01
239.407	0
239.624	-0.03
239.841	-0.13
240.058	-0.02
240.275	0.08
240.492	-0.11
240.709	0.05
240.925	-0.03
241.142	0.07
241.359	-0.11
241.576	-0.05
241.793	-0.1
242.01	-0.06
242.227	0.02
242.444	-0.02
242.66	0.1
242.877	-0.02
243.094	-0.08
243.311	0.06
243.527	-0.05
243.744	0.04
243.961	0.11
244.178	-0.13
244.394	0.05
244.611	0.09
244.828	0.13
245.044	-0.03
245.261	-0.02
245.477	0.03
245.694	-0.08
245.911	-0.08
246.127	-0.03
246.344	0.11
246.56	-0.03
246.777	-0.02
246.993	0.05
247.21	0.03
247.426	-0.03
247.643	-0.03
247.859	-0.13
248.076	-0.02
248.292	0.16
248.508	-0.06
248.725	0.06
248.941	0.05
249.157	0.14
249.374	-0.03
249.59	0.01
249.806	0.03
250.023	0.13
250.239	-0.04
250.455	0.01
250.671	-0
250.888	0.03
251.104	0.07
251.32	-0.15
251.536	-0.02
251.752	-0.07
251.969	0.02
252.185	-0.01
252.401	0.18
252.617	0.06
252.833	-0.1
253.049	-0
253.265	0.02
253.481	-0.02
253.697	-0.01
253.913	-0.1
254.129	0.08
254.345	0.01
254.561	0
254.777	-0.01
254.993	0.04
255.209	0.03
255.425	-0.05
255.641	-0.11
255.857	0.03
256.073	0.1
256.288	-0.1
256.504	-0.01
256.72	0.01
256.936	0.06
257.152	0.03
257.367	-0.05
257.583	0.04
257.799	0.05
258.015	-0.12
258.23	0.02
258.446	0.13
258.662	0.01
258.877	-0.07
259.093	-0.06
259.309	-0.01
259.524	0.03
259.74	-0.09
259.955	-0.05
260.171	-0.02
260.387	0.03
260.602	0.07
260.818	0.04
261.033	-0.09
261.249	-0.08
261.464	0.02
261.68	-0.17
261.895	-0.02
262.11	0.03
262.326	-0.08
262.541	-0.12
262.757	0.05
262.972	-0
263.187	0.04
263.403	-0.05
263.618	0.05
263.833	0.04
264.049	-0.04
264.264	-0
264.479	0.04
264.694	0.08
264.91	-0.09
265.125	0
265.34	-0.03
265.555	0.12
265.77	0.04
265.986	-0.04
266.201	0.04
266.416	0.12
266.631	-0.03
266.846	-0.02
267.061	0.06
267.276	0.08
267.491	-0.13
267.706	0.03
267.921	0.09
268.136	-0.06
268.351	0.1
268.566	-0.1
268.781	0.05
268.996	0.02
269.211	0.05
269.426	-0.11
269.641	-0.02
269.856	0.05
270.071	-0.09
270.285	-0.05
270.5	0.06
270.715	0.05
270.93	-0.05
271.145	0.07
271.359	0.07
271.574	-0.08
271.789	0
272.004	-0.07
272.218	0
272.433	0.02
272.648	-0.02
272.862	0
273.077	0.02
273.292	0.05
273.506	-0.06
273.721	-0.02
273.936	0.03
274.15	0.05
274.365	-0.04
274.579	0.02
274.794	0.1
275.008	0.09
275.223	-0.07
275.437	0.03
275.652	0.02
275.866	0.02
276.081	0.02
276.295	0.06
276.509	-0.01
276.724	-0.02
276.938	0.01
277.153	0.01
277.367	0.05
277.581	-0.04
277.796	-0.01
278.01	-0.07
278.224	0.11
278.438	0.16
278.653	-0.07
278.867	-0.05
279.081	-0.22
279.295	0.01
279.51	-0.02
279.724	-0.09
279.938	0.07
280.152	0.03
280.366	-0.02
280.58	0.01
280.794	0.07
281.008	0.01
281.222	0.08
281.437	0.1
281.651	0.02
281.865	0.04
282.079	-0.01
282.293	-0.07
282.507	-0.03
282.721	-0.01
282.935	0.01
283.148	-0.12
283.362	-0.03
283.576	-0.07
283.79	0.02
284.004	-0.01
284.218	0
284.432	-0.03
284.646	-0.04
284.859	-0.06
285.073	0.02
285.287	0.04
285.501	-0.02
285.714	0.01
285.928	0.04
286.142	0.01
286.356	-0.01
286.569	-0.03
286.783	0.12
286.997	-0.04
287.21	0.04
287.424	0.02
287.637	-0.05
287.851	-0.02
288.065	0.02
288.278	0.01
288.492	-0.02
288.705	-0.02
288.919	0.01
289.132	-0.03
289.346	0.03
289.559	-0.06
289.773	-0.08
289.986	-0.01
290.2	0.03
290.413	0.04
290.626	-0.05
290.84	0.01
291.053	-0.02
291.267	0.05
291.48	-0.02
291.693	0.05
291.906	-0.04
292.12	-0.04
292.333	-0.02
292.546	0.01
292.76	0.08
292.973	0.03
293.186	-0.03
293.399	-0.04
293.612	0.03
293.826	-0.03
294.039	0
294.252	0.02
294.465	0.03
294.678	-0.01
294.891	-0.01
295.104	-0.07
295.317	0.02
295.53	0.02
295.743	-0
295.956	0.01
296.169	0.04
296.382	0.05
296.595	-0.01
296.808	-0.02
297.021	0.06
297.234	0.05
297.447	0.03
297.66	-0
297.873	0.03
298.086	0.08
298.299	-0.02
298.511	-0.02
298.724	0.01
298.937	-0.01
299.15	0.02
299.363	0.02
299.575	0.01
299.788	0.03
300.001	-0.02
300.213	0.01
300.426	-0.04
300.639	-0.03
300.852	0.01
301.064	0.06
301.277	0.08
301.489	0.06
301.702	0.04
301.915	0.02
302.127	0.05
302.34	0.01
302.552	0.05
302.765	-0.04
302.977	0.04
303.19	-0
303.402	-0.01
303.615	-0
303.827	0.01
304.04	-0
304.252	0.01
304.464	-0
304.677	0.1
304.889	0.01
305.102	-0.02
305.314	-0.03
305.526	0.05
305.739	0
305.951	-0.01
306.163	-0.01
306.375	0.05
306.588	-0.02
306.8	-0.02
307.012	-0.06
307.224	-0.02
307.436	0.1
307.649	-0.08
307.861	0.03
308.073	0.03
308.285	0.02
308.497	-0.04
308.709	-0
308.921	0.01
309.133	0.1
309.346	0.02
309.558	0.02
309.77	0.05
309.982	0.01
310.194	0.07
310.406	-0.03
310.617	0.1
310.829	-0
311.041	0.01
311.253	-0.02
311.465	-0
311.677	0.02
311.889	0.02
312.101	0.01
312.313	0.02
312.524	0.05
312.736	-0.04
312.948	-0.03
313.16	0.08
313.372	0.02
313.583	0.03
313.795	0.03
314.007	-0.02
314.218	0.01
314.43	-0.03
314.642	-0.02
314.853	-0.01
315.065	0.02
315.277	0.01
315.488	-0.01
315.7	0.03
315.912	-0.01
316.123	-0.02
316.335	-0.02
316.546	0.11
316.758	-0.05
316.969	-0.06
317.181	0.03
317.392	0.02
317.604	0.03
317.815	-0.01
318.026	0
318.238	-0.02
318.449	0.04
318.661	-0.08
318.872	-0.01
319.083	-0.05
319.295	0.02
319.506	-0.04
319.717	0.04
319.929	0.04
320.14	0
320.351	0.02
320.562	-0.02
320.774	0
320.985	-0
321.196	-0.06
321.407	-0.04
321.618	0.05
321.829	0.02
322.041	0.05
322.252	0.03
322.463	0
322.674	0.05
322.885	-0.03
323.096	-0.01
323.307	-0
323.518	0.01
323.729	-0.01
323.94	-0.02
324.151	0.02
324.362	0.03
324.573	0.04
324.784	-0.02
324.995	0.07
325.206	-0.01
325.417	-0.02
325.628	-0.02
325.838	0.03
326.049	-0
326.26	0.04
326.471	0.01
326.682	0.03
326.892	0.01
327.103	-0.08
327.314	-0.04
327.525	0.02
327.735	0.06
327.946	-0.01
328.157	-0.02
328.368	0.02
328.578	-0.02
328.789	0.01
328.999	-0
329.21	0.01
329.421	0.01
329.631	-0.05
329.842	0.01
330.052	0.05
330.263	0.04
330.473	0.06
330.684	-0
330.894	-0
331.105	0.03
331.315	0.02
331.526	-0.05
331.736	0.05
331.947	0
332.157	0.01
332.367	0.01
332.578	0.06
332.788	0.06
332.999	0.04
333.209	-0.04
333.419	-0.03
333.629	-0.02
333.84	0
334.05	-0.02
334.26	0.05
334.47	-0
334.681	0.06
334.891	-0.02
335.101	0.05
335.311	0.08
335.521	0.01
335.732	-0.06
335.942	0.07
336.152	0.04
336.362	0.02
336.572	0.05
336.782	0.08
336.992	-0.02
337.202	0
337.412	-0.06
337.622	0
337.832	0.01
338.042	0.02
338.252	-0.04
338.462	0.02
338.672	-0.01
338.882	0
339.092	-0.04
339.302	0.09
339.511	0.05
339.721	-0.03
339.931	-0.09
340.141	0.06
340.351	0.04
340.561	0
340.77	0.04
340.98	-0.01
341.19	-0.01
341.4	-0.01
341.609	-0.02
341.819	0.03
342.029	-0.05
342.238	0.01
342.448	-0.05
342.658	0.03
342.867	0
343.077	0.03
343.286	0.03
343.496	0.03
343.706	0.09
343.915	-0.05
344.125	0.01
344.334	0
344.544	-0.05
344.753	-0.01
344.963	-0.01
345.172	-0.04
345.381	0.02
345.591	-0.01
345.8	-0.03
346.01	0.03
346.219	-0
346.428	-0.09
346.638	0.04
346.847	-0.02
347.056	0.08
347.266	-0.02
347.475	-0.01
347.684	0.05
347.893	0.03
348.103	0.04
348.312	-0.02
348.521	-0.01
348.73	0
348.94	0.04
349.149	0.02
349.358	-0
349.567	0.01
349.776	-0.03
349.985	0.01
350.194	0.04
350.403	0.05
350.612	-0.05
350.821	-0.02
351.03	-0
351.239	-0.06
351.448	0.03
351.657	-0
351.866	0.06
352.075	0.03
352.284	0.05
352.493	-0.02
352.702	0.08
352.911	0.03
353.12	0
353.329	0.02
353.538	0.02
353.746	0.02
353.955	-0.02
354.164	0.04
354.373	0.04
354.582	0.07
354.79	0.04
354.999	0.06
355.208	0.01
355.416	0.09
355.625	-0.02
355.834	0.02
356.042	0
356.251	-0.03
356.46	-0.02
356.668	0.03
356.877	0.1
357.085	0.02
357.294	-0.05
357.503	0.04
357.711	-0.02
357.92	0.11
358.128	0.01
358.337	-0.01
358.545	0.04
358.754	0.01
358.962	0.02
359.17	0.02
359.379	0.04
359.587	0.03
359.796	-0.03
360.004	0.07
360.212	0.07
360.421	0.09
360.629	-0
360.837	-0.03
361.046	0.09
361.254	0.09
361.462	0.02
361.67	-0.03
361.879	0.05
362.087	0.07
362.295	0.04
362.503	-0.01
362.711	-0.01
362.92	-0.04
363.128	0
363.336	-0.02
363.544	-0.01
363.752	0
363.96	-0.04
364.168	-0.02
364.376	0.01
364.584	0.02
364.792	0.05
365	0.04
365.208	0.06
365.416	0.02
365.624	0.02
365.832	0.02
366.04	0.09
366.248	0.01
366.456	0.06
366.664	0.05
366.872	0.05
367.079	0.02
367.287	0.02
367.495	0.05
367.703	0.02
367.911	0.03
368.118	0.04
368.326	0.05
368.534	0.05
368.742	0.15
368.949	0.02
369.157	0.05
369.365	0.13
369.572	0.09
369.78	0.1
369.988	0.16
370.195	0.12
370.403	0.11
370.61	0.09
370.818	0.16
371.026	0.22
371.233	0.13
371.441	0.19
371.648	0.17
371.856	0.24
372.063	0.24
372.271	0.28
372.478	0.24
372.685	0.26
372.893	0.34
373.1	0.29
373.308	0.34
373.515	0.43
373.722	0.41
373.93	0.38
374.137	0.49
374.344	0.51
374.552	0.51
374.759	0.57
374.966	0.56
375.173	0.55
375.381	0.7
375.588	0.62
375.795	0.6
376.002	0.66
376.209	0.68
376.417	0.76
376.624	0.82
376.831	0.88
377.038	0.92
377.245	0.87
377.452	0.92
377.659	1.01
377.866	1.05
378.073	1.15
378.28	1.17
378.487	1.32
378.694	1.34
378.901	1.38
379.108	1.4
379.315	1.53
379.522	1.66
379.729	1.66
379.936	1.7
380.143	1.79
380.35	1.85
380.557	1.91
380.763	1.97
380.97	1.99
381.177	2.09
381.384	2.2
381.591	2.29
381.797	2.27
382.004	2.35
382.211	2.42
382.418	2.34
382.624	2.42
382.831	2.38
383.038	2.44
383.244	2.38
383.451	2.38
383.658	2.36
383.864	2.36
384.071	2.22
384.277	2.27
384.484	2.26
384.69	2.17
384.897	2.07
385.103	2.03
385.31	1.93
385.516	1.93
385.723	1.8
385.929	1.81
386.136	1.66
386.342	1.64
386.549	1.55
386.755	1.5
386.961	1.47
387.168	1.38
387.374	1.26
387.58	1.27
387.787	1.17
387.993	1.21
388.199	1.07
388.406	1.04
388.612	0.96
388.818	0.96
389.024	0.86
389.231	0.91
389.437	0.94
389.643	0.85
389.849	0.83
390.055	0.83
390.261	0.78
390.467	0.77
390.674	0.73
390.88	0.7
391.086	0.73
391.292	0.65
391.498	0.69
391.704	0.65
391.91	0.59
392.116	0.6
392.322	0.51
392.528	0.58
392.734	0.53
392.94	0.52
393.146	0.49
393.352	0.5
393.557	0.48
393.763	0.43
393.969	0.45
394.175	0.41
394.381	0.4
394.587	0.35
394.792	0.4
394.998	0.46
395.204	0.41
395.41	0.31
395.615	0.38
395.821	0.33
396.027	0.36
396.233	0.3
396.438	0.34
396.644	0.37
396.85	0.3
397.055	0.24
397.261	0.26
397.466	0.31
397.672	0.21
397.878	0.28
398.083	0.21
398.289	0.17
398.494	0.22
398.7	0.26
398.905	0.12
399.111	0.25
399.316	0.15
399.522	0.15
399.727	0.13
399.932	0.15
400.138	0.15
400.343	0.15
400.549	0.12
400.754	0.12
400.959	0.15
401.165	0.15
401.37	0.16
401.575	0.19
401.78	0.12
401.986	0.14
402.191	0.1
402.396	0.15
402.601	0.12
402.807	0.15
403.012	0.11
403.217	0.2
403.422	0.09
403.627	0.09
403.832	0.08
404.037	0.12
404.243	0.17
404.448	0.07
404.653	0.12
404.858	0.14
405.063	0.12
405.268	0.08
405.473	0.07
405.678	0.08
405.883	0.16
406.088	0.19
406.293	0.02
406.498	0.02
406.703	0.13
406.907	0.1
407.112	0.05
407.317	0.1
407.522	0.11
407.727	0.05
407.932	0.06
408.136	0.14
408.341	0.07
408.546	0.06
408.751	0.03
408.956	0.05
409.16	0.12
409.365	0.09
409.57	0.05
409.774	0.07
409.979	0.08
410.184	0.06
410.388	0.07
410.593	0.11
410.798	0.12
411.002	0.07
411.207	0.07
411.411	0.05
411.616	0.03
411.82	0.08
412.025	0.06
412.229	0.01
412.434	0.13
412.638	0.09
412.843	0.02
413.047	0.06
413.252	-0
413.456	0.04
413.66	0.05
413.865	0.03
414.069	0.12
414.273	0.01
414.478	0.03
414.682	0.03
414.886	0.03
415.091	-0.03
415.295	-0.05
415.499	0.05
415.703	-0.02
415.908	0.04
416.112	-0.03
416.316	0.08
416.52	-0.01
416.724	-0.01
416.929	0.05
417.133	0.12
417.337	-0
417.541	-0.01
417.745	0.03
417.949	0.06
418.153	0.03
418.357	-0.06
418.561	0.08
418.765	0.01
418.969	0.09
419.173	0.05
419.377	-0.01
419.581	0.13
419.785	0.02
419.989	-0.03
420.193	0.03
420.397	-0.02
420.601	0.06
420.804	0.06
421.008	0.01
421.212	0.07
421.416	0.08
421.62	0.01
421.823	0.03
422.027	0.1
422.231	0.03
422.435	0.01
422.638	0.06
422.842	0.02
423.046	-0.03
423.249	0.05
423.453	0.07
423.657	0.05
423.86	0.01
424.064	0.01
424.268	0.09
424.471	0.04
424.675	0.1
424.878	0.12
425.082	0.07
425.285	0.1
425.489	0.06
425.692	0.07
425.896	-0
426.099	0.07
426.303	-0.02
426.506	0.01
426.71	0.02
426.913	0.05
427.116	0.09
427.32	0.08
427.523	0.12
427.726	0.1
427.93	-0.02
428.133	0.05
428.336	-0.02
428.54	0.05
428.743	0.04
428.946	0.07
429.149	0.05
429.353	0.03
429.556	0.02
429.759	0.03
429.962	-0.04
430.165	0.05
430.368	0.06
430.571	0.04
430.775	0.06
430.978	0.01
431.181	0.07
431.384	0.03
431.587	0.01
431.79	0.03
431.993	0.06
432.196	0.02
432.399	0.05
432.602	0.07
432.805	-0.01
433.008	-0.01
433.211	-0.05
433.414	0.07
433.616	0.04
433.819	0.06
434.022	-0.07
434.225	0.1
434.428	0.1
434.631	0.12
434.833	0.08
435.036	0.02
435.239	0.12
435.442	0.07
435.645	-0
435.847	0.04
436.05	0.13
436.253	0.07
436.455	-0.02
436.658	0.05
436.861	0.1
437.063	0.01
437.266	0.05
437.468	0.07
437.671	0.19
437.874	0.06
438.076	0.02
438.279	0.03
438.481	0.04
438.684	-0.01
438.886	0.07
439.089	-0.02
439.291	-0.03
439.494	0.07
439.696	-0.02
439.899	0.04
440.101	0.07
440.303	0.03
440.506	0.08
440.708	0.07
440.91	0.1
441.113	0
441.315	0.09
441.517	0.01
441.72	0.11
441.922	0.05
442.124	0.02
442.326	0.06
442.529	0.11
442.731	0
442.933	0.16
443.135	0.04
443.337	0.02
443.539	0.03
443.742	0.05
443.944	0.13
444.146	0
444.348	0.08
444.55	0.04
444.752	0.07
444.954	-0.01
445.156	0.07
445.358	0.09
445.56	0.13
445.762	0.04
445.964	0.02
446.166	0.06
446.368	0.02
446.57	0.09
446.772	0.09
446.974	0.08
447.175	0.1
447.377	0.05
447.579	0.06
447.781	0.02
447.983	0.14
448.184	0.05
448.386	0.12
448.588	0.02
448.79	0.09
448.991	0.06
449.193	0.11
449.395	0.06
449.597	0.09
449.798	0.1
450	0.06
450.202	0.1
450.403	0.08
450.605	0.1
450.806	0.04
451.008	0.01
451.21	0.08
451.411	0.08
451.613	0.03
451.814	0.05
452.016	0.1
452.217	0.06
452.419	0.12
452.62	0.07
452.821	0.07
453.023	0.15
453.224	0.08
453.426	0.07
453.627	0.11
453.828	0.09
454.03	0.07
454.231	0.12
454.432	0.03
454.634	0.13
454.835	0.03
455.036	0.03
455.238	0.08
455.439	0.13
455.64	-0.01
455.841	-0.02
456.042	0.14
456.244	0.09
456.445	0.02
456.646	-0.04
456.847	0.05
457.048	0.1
457.249	0.12
457.45	0.22
457.651	-0.01
457.852	0.1
458.054	0.07
458.255	0.04
458.456	0.07
458.657	0.07
458.858	0.02
459.058	0.07
459.259	0.05
459.46	0.06
459.661	0.03
459.862	0.14
460.063	-0.04
460.264	0.08
460.465	0
460.666	0.12
460.866	0.04
461.067	0.05
461.268	0.03
461.469	0
461.67	0.01
461.87	0.06
462.071	0
462.272	-0.01
462.473	0.01
462.673	0.07
462.874	-0
463.075	0.03
463.275	0.01
463.476	0.03
463.676	0.03
463.877	0.02
464.078	0.04
464.278	0.1
464.479	-0.02
464.679	0.06
464.88	0.03
465.08	0.1
465.281	-0
465.481	0.04
465.682	0
465.882	0
466.083	0.01
466.283	0.03
466.483	0.05
466.684	0.03
466.884	0.02
467.085	0.05
467.285	0.03
467.485	-0.02
467.686	0.04
467.886	-0.03
468.086	0.03
468.286	0.04
468.487	0.04
468.687	-0.02
468.887	-0
469.087	0.06
469.287	0.04
469.488	-0.04
469.688	0.05
469.888	0.03
470.088	0.09
470.288	0.04
470.488	0.05
470.688	0
470.888	-0.01
471.088	-0.01
471.288	0.07
471.488	0.04
471.688	0.02
471.888	0.05
472.088	0.07
472.288	0.06
472.488	-0.03
472.688	0.02
472.888	0.03
473.088	0
473.288	0.05
473.488	0.01
473.688	0.08
473.887	0.03
474.087	0.01
474.287	0.03
474.487	-0.02
474.687	0.05
474.886	-0.02
475.086	-0.02
475.286	0.04
475.486	0.01
475.685	-0.02
475.885	0
476.085	0.03
476.284	0.03
476.484	0.01
476.684	0.04
476.883	0.09
477.083	0.01
477.282	0
477.482	0.08
477.681	0.1
477.881	0.03
478.08	-0.01
478.28	0.01
478.479	0.01
478.679	0.09
478.878	-0
479.078	0
479.277	0.02
479.477	0.04
479.676	0.03
479.875	-0.01
480.075	-0.01
480.274	0.05
480.473	0.05
480.673	-0.02
480.872	0.08
481.071	0.01
481.271	0.02
481.47	-0.01
481.669	0.01
481.868	0.01
482.067	-0.03
482.267	-0.03
482.466	-0.01
482.665	-0
482.864	-0.03
483.063	-0.05
483.262	0
483.461	0.05
483.661	0.03
483.86	0
484.059	0.02
484.258	0.02
484.457	0.02
484.656	0
484.855	0.04
485.054	-0.03
485.253	-0.03
485.452	-0.04
485.651	0.01
485.849	0.05
486.048	-0.01
486.247	-0.02
486.446	0.02
486.645	-0.03
486.844	-0
487.043	-0.01
487.241	0.05
487.44	-0.02
487.639	0
487.838	0.02
488.037	0.02
488.235	0.07
488.434	0.01
488.633	-0.02
488.831	-0
489.03	0.03
489.229	0.02
489.427	-0
489.626	0.06
489.825	0.05
490.023	-0.01
490.222	0
490.42	0.03
490.619	0
490.817	-0
491.016	-0.03
491.214	0.03
491.413	-0
491.611	0.01
491.81	0.02
492.008	0.03
492.207	0.03
492.405	0.01
492.604	-0.03
492.802	0.01
493	0.01
493.199	-0.02
493.397	0.01
493.595	-0.02
493.794	-0.02
493.992	0.07
494.19	0
494.388	0.02
494.587	-0.01
494.785	0.01
494.983	-0.03
495.181	0.02
495.379	0
495.578	-0.02
495.776	0.02
495.974	-0.02
496.172	-0.01
496.37	-0
496.568	-0.03
496.766	-0.01
496.964	0.03
497.162	0.01
497.36	-0.01
497.558	0.03
497.756	0.04
497.954	0.01
498.152	-0.01
498.35	0.01
498.548	-0.01
498.746	-0
498.944	-0.01
499.142	0.01
499.34	-0.02
499.538	-0.01
499.736	-0
499.933	0.04
500.131	0.01
500.329	-0.01
500.527	0.03
500.725	0.03
500.922	0.02
501.12	0.02
501.318	0.02
501.516	-0.02
501.713	-0
501.911	-0.01
502.109	-0.02
502.306	0.02
502.504	-0.01
502.701	-0.01
502.899	0
503.097	0.05
503.294	0.01
503.492	0
503.689	0
503.887	0.02
504.084	0.05
504.282	-0.01
504.479	-0.01
504.677	0.02
504.874	-0.02
505.072	-0
505.269	-0.01
505.466	0.02
505.664	0.01
505.861	-0.02
506.059	0
506.256	0
506.453	-0.01
506.651	0.05
506.848	0.03
507.045	0.01
507.242	0.02
507.44	-0
507.637	0.01
507.834	0
508.031	0.03
508.229	-0.01
508.426	0.01
508.623	0.02
508.82	-0.02
509.017	-0.01
509.214	-0.02
509.411	0
509.608	-0.03
509.805	0
510.003	-0.01
510.2	0.01
510.397	0.02
510.594	-0
510.791	-0.02
510.988	-0.01
511.184	0.03
511.381	0
511.578	-0.01
511.775	0.03
511.972	-0.01
512.169	0.01
512.366	-0.01
512.563	0.04
512.76	-0.02
512.956	0.03
513.153	-0.01
513.35	-0.01
513.547	-0.01
513.744	-0.01
513.94	-0.02
514.137	0
514.334	-0.01
514.53	0
514.727	0.01
514.924	0.04
515.12	-0.04
515.317	-0.04
515.514	-0.01
515.71	-0.02
515.907	-0.02
516.103	-0.01
516.3	0
516.497	0.04
516.693	0.02
516.89	-0.02
517.086	-0.02
517.283	0.04
517.479	0.02
517.676	0
517.872	-0.01
518.068	-0.02
518.265	-0.01
518.461	0.01
518.658	0.01
518.854	-0
519.05	-0
519.247	0.01
519.443	0.02
519.639	-0
519.836	0.02
520.032	-0.02
520.228	0
520.424	0.02
520.621	0.03
520.817	0
521.013	0.03
521.209	0.02
521.405	0.03
521.601	0
521.798	0.01
521.994	0.04
522.19	-0.01
522.386	-0.03
522.582	-0
522.778	0.01
522.974	-0.01
523.17	0.02
523.366	0.02
523.562	0.03
523.758	-0.02
523.954	-0
524.15	-0.01
524.346	0.01
524.542	-0.01
524.738	-0.02
524.934	-0.01
525.129	-0
525.325	0.01
525.521	-0
525.717	0.03
525.913	0.01
526.109	0
526.304	0.02
526.5	0.01
526.696	0.01
526.892	-0.01
527.087	0
527.283	-0.03
527.479	0.02
527.674	-0.02
527.87	0.01
528.066	-0.01
528.261	0.03
528.457	0.03
528.653	-0
528.848	-0.02
529.044	0.02
529.239	-0
529.435	0.04
529.63	0.01
529.826	0.07
530.021	0
530.217	-0.01
530.412	0
530.608	-0.02
530.803	-0.01
530.999	-0.03
531.194	-0.03
531.389	-0
531.585	-0.04
531.78	-0.02
531.975	0
532.171	0.03
532.366	0.01
532.561	0
532.757	-0.01
532.952	-0.01
533.147	0.04
533.342	0.01
533.538	-0.03
533.733	0.01
533.928	-0.01
534.123	-0.02
534.318	-0.01
534.513	0.01
534.709	0
534.904	-0.03
535.099	-0.01
535.294	-0.01
535.489	-0
535.684	-0.01
535.879	-0.03
536.074	-0
536.269	-0.01
536.464	0.02
536.659	0.01
536.854	0
537.049	0.01
537.244	0.01
537.439	0.01
537.634	0.01
537.828	0
538.023	-0.01
538.218	-0.03
538.413	0.02
538.608	-0.02
538.803	0.02
538.997	-0.01
539.192	0.04
539.387	-0
539.582	0.01
539.776	0.01
539.971	-0
540.166	0.02
540.36	-0.02
540.555	0.02
540.75	0.01
540.944	0
541.139	-0.04
541.334	0.01
541.528	0.02
541.723	0.03
541.917	-0.02
542.112	-0.02
542.306	-0.01
542.501	-0.03
542.695	0.01
542.89	-0.01
543.084	0.02
543.279	-0
543.473	0.01
543.668	0
543.862	0.01
544.056	-0
544.251	-0.01
544.445	0
544.64	-0.02
544.834	-0.02
545.028	0.03
545.222	0.01
545.417	0.02
545.611	0.01
545.805	-0
546	-0
546.194	0
546.388	-0.02
546.582	0.03
546.776	0.01
546.97	-0
547.165	0.01
547.359	0.02
547.553	-0.02
547.747	0
547.941	0
548.135	0.02
548.329	0.02
548.523	0.04
548.717	-0.02
548.911	-0
549.105	0.01
549.299	-0
549.493	0.02
549.687	0.01
549.881	0.02
550.075	-0
550.269	-0.02
550.463	0.02
550.657	-0.01
550.85	-0
551.044	-0.02
551.238	0.01
551.432	-0.01
551.626	-0.02
551.82	0.03
552.013	-0.01
552.207	0.01
552.401	0.01
552.594	0.02
552.788	-0
552.982	0
553.176	-0.01
553.369	0.02
553.563	0.01
553.756	-0.03
553.95	-0.01
554.144	-0.01
554.337	0.02
554.531	0
554.724	-0
554.918	-0
555.111	0.01
555.305	0.01
555.498	0.05
555.692	0.02
555.885	0.01
556.079	0.02
556.272	-0.03
556.466	0.01
556.659	0.01
556.852	-0
557.046	-0.03
557.239	0.02
557.432	-0
557.626	-0.01
557.819	0
558.012	0.01
558.206	0
558.399	0.02
558.592	0.02
558.785	-0
558.979	0.02
559.172	0.01
559.365	0.03
559.558	0.02
559.751	-0.01
559.944	0.03
560.138	-0.01
560.331	0.02
560.524	-0
560.717	0
560.91	0.02
561.103	-0
561.296	-0
561.489	0.01
561.682	0.02
561.875	0.03
562.068	0.01
562.261	0.01
562.454	0.02
562.647	0.01
562.84	0.01
563.032	0
563.225	0.03
563.418	-0.01
563.611	-0.01
563.804	-0.01
563.997	-0.02
564.19	-0.02
564.382	0
564.575	-0.01
564.768	-0
564.961	-0
565.153	-0.01
565.346	0.02
565.539	0.03
565.731	0.03
565.924	0.03
566.117	0.02
566.309	-0
566.502	-0.02
566.695	0.02
566.887	0
567.08	0
567.272	-0.02
567.465	-0.02
567.657	-0
567.85	0.02
568.042	0.01
568.235	0.04
568.427	-0
568.62	0.01
568.812	0
569.005	-0.01
569.197	-0.03
569.389	0.01
569.582	-0
569.774	0
569.966	-0.02
570.159	-0.04
570.351	0.01
570.543	-0.02
570.736	-0.01
570.928	-0.03
571.12	0
571.312	-0.01
571.505	-0.01
571.697	0.04
571.889	-0.02
572.081	0.01
572.273	-0.01
572.465	0.02
572.658	0.01
572.85	0.02
573.042	-0.02
573.234	-0.02
573.426	0.03
573.618	-0.03
573.81	0.01
574.002	0.03
574.194	0.05
574.386	-0.04
574.578	-0.04
574.77	-0.01
574.962	-0
575.154	-0.03
575.346	-0.02
575.538	0.01
575.729	-0.02
575.921	-0.03
576.113	-0.02
576.305	0.04
576.497	-0.01
576.689	0
576.88	-0.02
577.072	0.01
577.264	-0
577.456	0.02
577.647	-0.06
577.839	-0
578.031	0.04
578.223	-0.03
578.414	-0.03
578.606	0.03
578.798	0
578.989	-0.01
579.181	0.03
579.372	0
579.564	-0
579.755	0.01
579.947	0.03
580.139	0.02
580.33	-0.05
580.522	-0.02
580.713	-0.09
580.905	-0.01
581.096	0.02
581.287	0.02
581.479	-0.02
581.67	0.04
581.862	-0.01
582.053	0.01
582.244	-0.04
582.436	0.01
582.627	0.01
582.818	-0.01
583.01	-0.03
583.201	0.03
583.392	0.01
583.583	-0.02
583.775	-0.02
583.966	-0.01
584.157	-0.01
584.348	-0.02
584.54	-0.03
584.731	0.01
584.922	0.01
585.113	-0.02
585.304	0.02
585.495	0.02
585.686	-0.01
585.877	0.05
586.068	0.03
586.259	0.01
586.45	-0
586.641	-0.02
586.832	-0.05
587.023	0.02
587.214	-0.02
587.405	-0
587.596	-0.02
587.787	0.05
587.978	0.01
588.169	-0.02
588.36	-0.03
588.551	0.02
588.742	-0.03
588.932	0.01
589.123	0.01
589.314	-0.01
589.505	0.02
589.696	0
589.886	-0.02
590.077	-0.02
590.268	-0
590.458	-0.03
590.649	-0.04
590.84	0.02
591.03	-0.03
591.221	-0.02
591.412	-0.03
591.602	0.04
591.793	0.04
591.984	-0.05
592.174	-0.03
592.365	0.06
592.555	-0.02
592.746	0.01
592.936	0.01
593.127	0.03
593.317	0.01
593.508	-0.02
593.698	-0.04
593.889	-0
594.079	0.01
594.269	-0.02
594.46	-0
594.65	0.01
594.84	0.02
595.031	-0.02
595.221	-0.02
595.411	-0.02
595.602	0.01
595.792	0.04
595.982	0.01
596.172	0.05
596.363	-0
596.553	0.01
596.743	0
596.933	0.01
597.123	0.03
597.314	-0.01
597.504	-0.03
597.694	0.04
597.884	-0.01
598.074	0.01
598.264	-0.02
598.454	0.01
598.644	0.02
598.834	0
599.024	-0.05
599.214	-0.01
599.404	0.02
599.594	-0.02
599.784	-0.03
599.974	0.03
600.164	0.01
600.354	-0.02
600.544	-0.04
600.734	0.03
600.924	0.03
601.114	-0.01
601.303	-0
601.493	0.01
601.683	-0.01
601.873	0.01
602.063	-0.04
602.252	0.01
602.442	-0.05
602.632	-0.01
602.821	-0.03
603.011	0
603.201	-0.01
603.39	-0.01
603.58	-0.02
603.77	0.01
603.959	0.03
604.149	-0.01
604.339	-0.02
604.528	0.01
604.718	0.03
604.907	-0
605.097	-0.01
605.286	0.03
605.476	0.03
605.665	-0
605.855	-0.01
606.044	0.04
606.234	0.01
606.423	-0
606.612	-0.04
606.802	0
606.991	-0.02
607.181	-0.01
607.37	-0.05
607.559	0.02
607.749	-0.05
607.938	0.01
608.127	-0.02
608.316	-0.02
608.506	0.03
608.695	-0.01
608.884	-0.03
609.073	-0.02
609.263	0.03
609.452	0.02
609.641	0.03
609.83	-0.03
610.019	-0.01
610.208	-0.03
610.397	0.02
610.586	0
610.775	-0.03
610.965	0.01
611.154	-0.03
611.343	0
611.532	0.01
611.721	-0.01
611.91	-0.03
612.099	0.01
612.287	-0
612.476	-0.02
612.665	0.01
612.854	-0.03
613.043	0.04
613.232	-0.01
613.421	-0.03
613.61	0.01
613.798	-0.04
613.987	0.03
614.176	-0.01
614.365	0.01
614.554	0.01
614.742	0.01
614.931	-0.04
615.12	0.02
615.309	-0.03
615.497	0
615.686	-0.01
615.875	-0.01
616.063	0.01
616.252	-0
616.44	-0
616.629	0.01
616.818	-0
617.006	0
617.195	0.01
617.383	0.05
617.572	-0.01
617.76	-0.01
617.949	-0.01
618.137	0.04
618.326	0.06
618.514	-0.01
618.703	-0.02
618.891	0.04
619.079	-0.03
619.268	0.02
619.456	-0.01
619.644	0.04
619.833	-0.01
620.021	-0.03
620.209	-0.07
620.398	0.03
620.586	0.01
620.774	0.02
620.962	0.01
621.151	0.07
621.339	-0.04
621.527	-0.04
621.715	-0.02
621.903	-0.01
622.092	-0.01
622.28	-0
622.468	-0.02
622.656	-0.02
622.844	0.01
623.032	-0.02
623.22	-0.05
623.408	-0
623.596	0.01
623.784	0.01
623.972	-0.04
624.16	-0.03
624.348	0.05
624.536	0
624.724	0.01
624.912	0.04
625.1	0.02
625.288	-0.03
625.476	-0.02
625.664	0.05
625.851	-0.04
626.039	-0.02
626.227	0.01
626.415	0
626.603	-0.05
626.79	0.01
626.978	-0.02
627.166	0.02
627.354	-0
627.541	-0
627.729	-0.03
627.917	0.01
628.104	0.06
628.292	0.03
628.48	0.01
628.667	0
628.855	-0.02
629.042	-0.01
629.23	-0.01
629.418	0
629.605	0.01
629.793	-0.03
629.98	0.01
630.168	0.01
630.355	-0.01
630.543	-0
630.73	-0.03
630.917	0.04
631.105	0.05
631.292	0.02
631.48	-0.02
631.667	0.07
631.854	0.01
632.042	-0.02
632.229	-0.08
632.416	0.03
632.604	0.03
632.791	-0.03
632.978	0.06
633.165	0.06
633.353	0.05
633.54	0.01
633.727	-0.04
633.914	-0.02
634.101	-0.04
634.289	0.03
634.476	-0.03
634.663	-0.01
634.85	0.06
635.037	-0.04
635.224	-0.06
635.411	0.06
635.598	0.05
635.785	0.02
635.972	0.01
636.159	0.07
636.346	0
636.533	0.01
636.72	-0.01
636.907	-0
637.094	0.07
637.281	-0
637.468	0.06
637.655	0.03
637.842	-0
638.029	0.01
638.215	0.03
638.402	0.02
638.589	0
638.776	0.01
638.963	0.01
639.149	0.05
639.336	0.07
639.523	0.01
639.709	0.01
639.896	0.01
640.083	0.06
640.27	0.03
640.456	0.02
640.643	0.03
640.829	-0.03
641.016	0.01
641.203	-0.01
641.389	0.06
641.576	0.03
641.762	0.01
641.949	-0.03
642.135	0.04
642.322	0.04
642.508	-0.03
642.695	0.03
642.881	0.02
643.068	0.02
643.254	0.03
643.441	0.06
643.627	0.01
643.813	0.01
644	0.07
644.186	0.01
644.372	0.03
644.559	0.07
644.745	0.04
644.931	0.01
645.118	0
645.304	0.03
645.49	0.05
645.676	0.05
645.862	0.06
646.049	0.11
646.235	0.05
646.421	0.11
646.607	0.11
646.793	0.02
646.979	0.02
647.165	0.07
647.352	0.06
647.538	0.08
647.724	0.06
647.91	0.06
648.096	0.08
648.282	0.09
648.468	0.09
648.654	0.09
648.84	0.09
649.026	0.05
649.212	0.04
649.397	0.06
649.583	0.05
649.769	0.07
649.955	0.08
650.141	0.08
650.327	0.12
650.513	0.06
650.698	0.11
650.884	-0.02
651.07	0.08
651.256	0.05
651.442	0.05
651.627	0.08
651.813	0.06
651.999	0.06
652.184	0.06
652.37	0.05
652.556	0.06
652.741	0.11
652.927	0
653.113	0.1
653.298	0.11
653.484	0.04
653.669	0.04
653.855	0.09
654.04	0.11
654.226	0.11
654.412	0.1
654.597	0.06
654.782	0.09
654.968	0.17
655.153	0.12
655.339	0.08
655.524	0.04
655.71	0.11
655.895	0.07
656.08	0.1
656.266	0.17
656.451	0.1
656.636	0.09
656.822	0.1
657.007	0.09
657.192	0.09
657.378	0.07
657.563	0.12
657.748	0.13
657.933	0.13
658.118	0.11
658.304	0.06
658.489	0.15
658.674	0.08
658.859	0.07
659.044	0.16
659.229	0.11
659.414	0.13
659.599	0.13
659.785	0.12
659.97	0.09
660.155	0.11
660.34	0.13
660.525	0.09
660.71	0.09
660.895	0.14
661.08	0.08
661.264	0.09
661.449	0.15
661.634	0.12
661.819	0.1
662.004	0.13
662.189	0.03
662.374	0.06
662.559	0.04
662.743	-0.01
662.928	0.08
663.113	0.09
663.298	0
663.483	0.07
663.667	0.1
663.852	0.04
664.037	0.12
664.221	0.02
664.406	0.1
664.591	0.07
664.775	0.03
664.96	0
665.145	0.01
665.329	0.09
665.514	-0
665.698	0.05
665.883	0.01
666.068	0.11
666.252	0.02
666.437	-0.02
666.621	-0
666.806	0.04
666.99	0.03
667.174	-0.02
667.359	0.06
667.543	-0.01
667.728	0
667.912	-0.04
668.096	0.06
668.281	-0
668.465	0.02
668.649	0.02
668.834	-0
669.018	0.04
669.202	0
669.387	-0.02
669.571	0.02
669.755	-0.01
669.939	0.02
670.124	0.02
670.308	0.1
670.492	0.01
670.676	-0
670.86	0.01
671.044	-0.02
671.228	0.02
671.413	-0.03
671.597	-0.05
671.781	-0
671.965	0.02
672.149	0.03
672.333	-0.01
672.517	-0.02
672.701	0.03
672.885	-0.01
673.069	-0.01
673.253	0.02
673.437	0
673.621	-0.03
673.804	0.01
673.988	-0.01
674.172	0.03
674.356	-0.06
674.54	-0.01
674.724	0.09
674.908	-0.02
675.091	0.02
675.275	0.01
675.459	0.02
675.643	0.08
675.826	-0.01
676.01	0.04
676.194	0.02
676.377	0.03
676.561	0.02
676.745	0.05
676.928	0.03
677.112	0.05
677.296	-0.01
677.479	-0.04
677.663	-0.01
677.846	0.01
678.03	-0.01
678.213	-0.03
678.397	0.06
678.58	-0
678.764	-0.02
678.947	-0
679.131	-0.06
679.314	0.02
679.498	-0.02
679.681	0.01
679.865	0.06
680.048	-0.04
680.231	-0
680.415	0.03
680.598	-0.01
680.781	-0.01
680.965	-0.02
681.148	0.04
681.331	-0.07
681.514	-0
681.698	-0.01
681.881	0.05
682.064	0
682.247	-0.04
682.43	-0.05
682.614	0.02
682.797	0
682.98	0.03
683.163	-0.04
683.346	0.06
683.529	-0.04
683.712	-0.02
683.895	0.05
684.078	-0.06
684.261	-0.02
684.444	-0
684.627	0.01
684.81	-0.02
684.993	-0.02
685.176	0.03
685.359	-0.02
685.542	-0.03
685.725	-0.02
685.908	-0.03
686.091	-0
686.274	0.02
686.457	0.04
686.639	-0.03
686.822	0.05
687.005	0.01
687.188	-0
687.371	0.1
687.553	0.01
687.736	0.03
687.919	0.05
688.102	0.07
688.284	-0.03
688.467	0.01
688.65	-0.02
688.832	-0.02
689.015	-0.02
689.197	-0.07
689.38	0.06
689.563	0.05
689.745	-0.07
689.928	-0
690.11	0.02
690.293	0.02
690.475	-0.05
690.658	0
690.84	-0.01
691.023	-0.03
691.205	-0.03
691.388	-0.03
691.57	0.01
691.752	-0
691.935	-0.09
692.117	-0.04
692.3	-0.02
692.482	-0.04
692.664	-0.01
692.847	0.03
693.029	0.03
693.211	0.03
693.393	-0.01
693.576	-0.05
693.758	-0.01
693.94	-0.03
694.122	-0.05
694.304	0.02
694.487	-0.01
694.669	0.05
694.851	0
695.033	-0.04
695.215	-0.02
695.397	-0.06
695.579	-0
695.761	-0.06
695.943	-0.1
696.125	0.07
696.308	0.03
696.49	-0.1
696.671	0.14
696.853	-0.01
697.035	0.08
697.217	-0.02
697.399	-0.02
697.581	-0.02
697.763	-0.02
697.945	-0.03
698.127	-0
698.309	0.05
698.491	-0.04
698.672	0.04
698.854	0.06
699.036	0.02
699.218	-0.01
699.399	0.05
699.581	0
699.763	0.01
699.945	-0.07
700.126	-0.01
700.308	-0.01
700.49	0.02
700.671	-0.07
700.853	-0.03
701.035	-0.04
701.216	-0.01
701.398	0.01
701.579	-0.03
701.761	0.03
701.943	-0.07
702.124	-0.06
702.306	-0.03
702.487	0.09
702.669	0.03
702.85	-0.04
703.031	-0.06
703.213	0.13
703.394	0.03
703.576	-0.05
703.757	0.02
703.938	0.04
704.12	0.15
704.301	-0.04
704.483	-0.06
704.664	-0.02
704.845	0.09
705.026	0.06
705.208	-0.02
705.389	0.03
705.57	0.01
705.751	0.02
705.933	0.01
706.114	0.04
706.295	-0
706.476	-0.06
706.657	0.07
706.838	0.06
707.02	0.05
707.201	-0.02
707.382	-0.01
707.563	0.02
707.744	0.01
707.925	-0.02
708.106	-0.06
708.287	0.01
708.468	0.04
708.649	0.03
708.83	0.02
709.011	-0.05
709.192	0.04
709.373	-0.08
709.554	0.01
709.734	0.08
709.915	0.01
710.096	0.01
710.277	-0.08
710.458	-0.04
710.639	0.07
710.819	-0.11
711	-0.01
711.181	0.03
711.362	0.09
711.542	0.01
711.723	-0.02
711.904	0.05
712.085	-0.01
712.265	0.01
712.446	-0.01
712.627	-0.04
712.807	0.06
712.988	0.06
713.168	-0.04
713.349	0.03
713.53	-0.1
713.71	-0.04
713.891	-0.07
714.071	0.04
714.252	-0.01
714.432	-0.02
714.613	-0.05
714.793	0.03
714.974	0.07
715.154	0.03
715.334	0.04
715.515	0.02
715.695	-0
715.876	0
716.056	0.03
716.236	0.02
716.417	-0.05
716.597	-0.05
716.777	0.17
716.957	0.02
717.138	0.05
717.318	-0.02
717.498	-0.07
717.678	-0.02
717.859	0.09
718.039	-0.03
718.219	0.05
718.399	0.09
718.579	-0.01
718.759	-0.04
718.939	0.09
719.12	0.01
719.3	0.02
719.48	-0.15
719.66	-0.1
719.84	0.11
720.02	-0.02
720.2	-0.09
720.38	0.02
720.56	0.15
720.74	0.03
720.92	0.03
721.1	0.11
721.279	0.07
721.459	0.03
721.639	-0.14
721.819	0.07
721.999	-0.03
722.179	0.06
722.359	-0.09
722.538	0.03
722.718	0.06
722.898	0.02
723.078	0.03
723.257	-0.01
723.437	0.04
723.617	0.03
723.797	0.08
723.976	0.03
724.156	0.04
724.336	0.15
724.515	0.18
724.695	-0.04
724.874	-0.03
725.054	0.13
725.234	-0.03
725.413	0.09
725.593	-0.02
725.772	0.04
725.952	0.13
726.131	0.09
726.311	0.06
726.49	0.05
726.67	-0.09
726.849	0.04
727.028	0.2
727.208	0.04
727.387	0.11
727.567	-0.03
727.746	0.1
727.925	0.09
728.105	-0.03
728.284	0.06
728.463	0.06
728.643	0.16
728.822	0.01
729.001	0.08
729.18	0
729.359	0.16
729.539	0.06
729.718	0.02
729.897	0.03
730.076	0.05
730.255	0.01
730.434	0.05
730.614	0.05
730.793	0.22
730.972	0.04
731.151	0.07
731.33	0.19
731.509	0.11
731.688	0.11
731.867	0.09
732.046	0
732.225	0.27
732.404	0.04
732.583	0.05
732.762	0.12
732.941	0.15
733.12	0.14
733.298	0.06
733.477	0.19
733.656	0.13
733.835	0.02
734.014	0.13
734.193	0.16
734.371	0.2
734.55	0.14
734.729	0.06
734.908	0.1
735.086	0.13
735.265	0.17
735.444	0
735.623	-0.01
735.801	-0.04
735.98	0.15
736.159	0.14
736.337	0.18
736.516	0.15
736.694	0.04
736.873	0.17
737.052	0.27
737.23	0.13
737.409	0.02
737.587	0.2
737.766	-0.08
737.944	0.07
738.123	0.09
738.301	0.11
738.479	0.03
738.658	0.14
738.836	-0.12
739.015	0.14
739.193	0.24
739.371	-0.04
739.55	0.06
739.728	0
739.906	0.28
740.085	0.17
740.263	0.11
740.441	-0.12
740.62	0.24
740.798	0.12
740.976	-0.08
741.154	-0.05
741.332	0.19
741.511	0.04
741.689	0.09
741.867	0.09
742.045	0.04
742.223	0.13
742.401	0.04
742.579	-0.04
742.757	0.06
742.935	-0.02
743.114	0.02
743.292	0.04
743.47	0.08
743.648	-0.02
743.826	0.08
744.004	0.06
744.181	0.08
744.359	-0.03
744.537	0.11
744.715	0.04
744.893	0.04
745.071	0.03
745.249	0.05
745.427	0.05
745.605	0.11
745.782	0.12
745.96	0.04
746.138	0.09
746.316	0.05
746.493	-0.1
746.671	0.01
746.849	-0.05
747.027	0.19
747.204	-0.03
747.382	0.03
747.56	0
747.737	0.11
747.915	-0.04
748.093	0.06
748.27	0.01
748.448	-0.08
748.625	0.03
748.803	-0.02
748.98	-0.06
749.158	0.09
749.335	0.02
749.513	-0.02
749.69	0.01
749.868	-0.05
750.045	0.1
750.223	-0.01
750.4	-0.2
750.578	0.19
750.755	-0.06
750.932	-0.12
751.11	0.14
751.287	-0.12
751.464	0.04
751.642	-0.11
751.819	0.11
751.996	0.1
752.173	0.03
752.351	-0.1
752.528	0.11
752.705	-0.03
752.882	-0.02
753.06	0.03
753.237	0.12
753.414	0.09
753.591	0.17
753.768	0.07
753.945	-0
754.122	-0.06
754.299	0.05
754.476	-0.01
754.654	0.01
754.831	0.11
755.008	0.05
755.185	0.01
755.362	-0.17
755.539	-0.02
755.716	0.05
755.892	-0.02
756.069	-0.02
756.246	-0.02
756.423	0.02
756.6	0.09
756.777	-0.01
756.954	0.05
757.131	0.08
757.307	-0.1
757.484	-0.1
757.661	0.03
757.838	0.07
758.015	-0.14
758.191	0.16
758.368	0.05
758.545	0.1
758.721	0.06
758.898	-0.09
759.075	0.18
759.251	0.08
759.428	0.09
759.605	-0.12
759.781	-0.01
759.958	0.11
760.134	-0
760.311	-0.04
760.488	0.04
760.664	0.12
760.841	-0.13
761.017	-0.12
761.194	0.13
761.37	0.01
761.547	0.08
761.723	-0.05
761.899	0.09
762.076	-0.06
762.252	-0.2
762.429	0.04
762.605	0.09
762.781	-0.04
762.958	0.07
763.134	-0.03
763.31	-0.03
763.486	0.1
763.663	-0.24
763.839	0.02
764.015	-0.16
764.191	-0.19
764.368	-0.07
764.544	-0.07
764.72	0.04
764.896	-0.05
765.072	0
765.248	0.01
765.425	-0.02
765.601	0.05
765.777	0.05
765.953	-0.27
766.129	-0.04
766.305	-0.05
766.481	0.06
766.657	0.05
766.833	0.1
767.009	-0.1
767.185	-0.07
767.361	-0.06
767.537	-0.11
767.713	0.12
767.889	-0.04
768.065	-0.09
768.24	0.1
768.416	0.02
768.592	0
768.768	-0.15
768.944	0.04
769.12	-0.11
769.295	-0.08
769.471	-0.1
769.647	0.05
769.823	0.13
769.998	-0.08
770.174	-0.12
770.35	0.34
770.525	0.12
770.701	0.09
770.877	-0.07
771.052	-0.06
771.228	0.15
771.403	-0.07
771.579	0.11
771.755	0.22
771.93	-0.21
772.106	-0.15
772.281	-0.14
772.457	0.05
772.632	0.13
772.808	-0.21
772.983	0.12
773.159	-0.24
773.334	0.22
773.509	-0.08
773.685	-0.13
773.86	0.4
774.036	0.19
774.211	0.03
774.386	-0.02
774.562	-0.02
774.737	0.1
774.912	-0.09
775.087	0.11
775.263	-0.11
775.438	0.05
775.613	-0.21
775.788	-0.13
775.964	-0.04
776.139	0.28
776.314	-0.13
776.489	0.01
776.664	-0.08
776.839	-0.04
777.014	0.06
777.19	0.16
777.365	0.08
777.54	0.04
777.715	-0.09
777.89	0.03
778.065	-0.15
778.24	0.05
778.415	0.13
778.59	-0.14
778.765	-0.14
778.94	0.08
779.115	-0.06
779.289	-0.06
779.464	0.02
779.639	-0.06
779.814	-0.11
779.989	-0.18
780.164	0.07
780.339	0
780.513	-0.15
780.688	-0.18
780.863	0.05
781.038	0.12
781.212	0.04
781.387	0
781.562	0.07
781.737	0.05
781.911	0.2
782.086	-0.07
782.261	-0.09
782.435	0.06
782.61	-0.09
782.784	0.03
782.959	0.23
783.134	-0.14
783.308	-0.32
783.483	-0.04
783.657	0.29
783.832	0.11
784.006	-0.17
784.181	0.02
784.355	0.03
784.53	0.16
784.704	-0.12
784.878	0.22
785.053	0.16
785.227	0.2
785.402	0.46
785.576	-0.18
785.75	0
785.925	-0.03
786.099	-0.04
786.273	0.04
786.448	0.04
786.622	0.11
786.796	0.09
786.97	-0.12
787.145	0.19
787.319	-0.17
787.493	-0.09
787.667	-0.33
787.841	-0.17
788.015	0.16
788.19	-0.01
788.364	0.23
788.538	0.02
788.712	0.06
788.886	-0.02
789.06	0.24
789.234	0.12
789.408	-0.18
789.582	0.06
789.756	0.01
789.93	-0.04
790.104	-0.13
790.278	0.08
790.452	-0.14
790.626	0.17
790.8	0.11
790.973	0.17
791.147	0.11
791.321	0.13
791.495	0.17
791.669	0.09
791.843	0.15
792.016	-0.02
792.19	0.27
792.364	0.11
792.538	0.46
792.711	0.28
792.885	-0.08
793.059	-0.05
793.233	-0.56
793.406	0.18
793.58	-0.02
793.754	-0.05
793.927	-0.16
794.101	0.21
794.274	0.19
794.448	0.26
794.622	-0.11
794.795	0.25
794.969	-0.16
795.142	0.23
795.316	0.01
795.489	-0.15
795.663	0.45
795.836	-0.02
796.009	-0.16
796.183	0.22
796.356	0.2
796.53	-0.07
796.703	0.2
796.876	0.35
797.05	-0.12
797.223	0.04
797.396	0.23
797.57	0.13
797.743	0.46
797.916	-0.19
798.09	-0.08
798.263	0.22
798.436	0.16
798.609	0.01
798.782	-0.05
798.956	0.18
799.129	0.01
799.302	-0.07
799.475	-0.07
799.648	-0.17
799.821	-0.15
799.994	0.15
800.167	-0.33
800.34	0.22
800.514	0.34
800.687	-0.04
800.86	-0.26
801.033	0.21
801.206	0.05
801.379	-0.09
801.551	0.25
801.724	0.14
801.897	0.31
802.07	-0.2
802.243	-0.47
802.416	-0.13
802.589	-0.38
802.762	0.29
802.935	0.08
803.107	0.01
803.28	0.09
803.453	0.19
803.626	-0.34
803.798	0.24
803.971	-0.29
804.144	0.01
804.317	0.47
804.489	0.05
804.662	0.07
804.835	0.03
805.007	-0.16
805.18	0.39
805.353	0.11
805.525	-0.16
805.698	0.04
805.87	-0.06
806.043	0.33
806.215	-0.44
806.388	-0.26
806.56	0
806.733	0.37
806.905	0.36
807.078	0.08
807.25	-0.13
807.423	0.05
807.595	0.16
807.768	-0.15
807.94	0.31
808.112	0.12
808.285	0.19
808.457	-0.08
808.629	-0.08
808.802	-0.06
808.974	0.07
809.146	-0.06
809.318	-0.31
809.491	-0.1
809.663	0.09
809.835	-0.11
810.007	0.26
810.18	0.1
810.352	-0.39
810.524	-0.27
810.696	0.03
810.868	0.26
811.04	-0.24
811.212	-0.12
811.384	0.22
811.556	-0.13
811.728	0.02
811.901	0.59
812.073	-0.32
812.245	0.22
812.417	0.18
812.589	-0.44
812.76	-0.06
812.932	-0.08
813.104	0.45
813.276	-0.37
813.448	0.49
813.62	-0.04
813.792	-0.09
813.964	0.08
814.136	0.4
814.307	-0.3
814.479	-0.15
814.651	-0.37
814.823	0.94
814.995	0.21
815.166	0.22
815.338	-0.4
815.51	-0.28
815.681	1.13
815.853	0.27
816.025	0.22
816.196	0.52
816.368	-0.09
816.54	-0.28
816.711	0.1
816.883	-0.02
817.054	0.72
817.226	-0.94
817.398	0.13
817.569	-0.19
817.741	0.02
817.912	-0.09
818.084	-0.01
818.255	0.19
818.426	-0.55
818.598	-0.02
818.769	0.15
818.941	0.35
819.112	0.63
819.283	0.56
819.455	-0.19
819.626	0.11
819.798	0.51
819.969	0.46
820.14	-0
820.311	-0.1
820.483	0.51
820.654	0.26
820.825	-0.41
820.996	-0.45
821.168	-0.41
821.339	0.18
821.51	-0.68
821.681	-0.17
821.852	-0.14
822.023	-0.7
822.195	-0.38
822.366	0.33
822.537	-0.24
822.708	0.1
822.879	-0.32
823.05	0.47
823.221	-0.5
823.392	0.48
823.563	0.31
823.734	-0.27
823.905	-0.51
824.076	-0.62
824.247	-0.41
824.418	-0.42
824.589	0.55
824.759	-0.1
824.93	-0.18
825.101	-0.42
825.272	0.46
825.443	0.44
825.614	0.72
825.784	-0.74
825.955	1.42
826.126	0.63
826.297	-0.2
826.467	1.03
826.638	0.76
826.809	-0.94
826.98	-0
827.15	0.03
827.321	-0.37
827.492	0.95
827.662	0.33
827.833	0.83
828.003	0.82
828.174	-0.45
828.345	-1.01
828.515	0.88
828.686	0.88
828.856	-0.08
829.027	-0.38
829.197	0.35
829.368	0.47
829.538	-0.01
829.709	-0.31
829.879	0.22
830.049	0.23
830.22	-0.02
830.39	0.32
830.56	0.45
830.731	-0.32
830.901	-0.43
831.072	-0.27
831.242	0.12
831.412	0.01
831.582	-0.12
831.753	-0.81
831.923	0.75
832.093	-0.25
832.263	-0.39
832.434	-0.05
832.604	-0.1
832.774	0.39
832.944	-0.04
833.114	0.23
833.284	0.15
833.454	-0.34
833.624	-0.1
833.795	-0.06
833.965	0.65
834.135	0.44
834.305	-0.61
834.475	-0.34
834.645	0.4
834.815	-0.15
834.985	0.09
835.155	-0.12
835.325	0.51
835.494	0.71
835.664	0.11
835.834	-1.2
836.004	0.33
836.174	0.8
836.344	0.14
836.514	-1.05
836.684	-0.81
836.853	0.11
837.023	-0.28
837.193	-0.44
837.363	0.6
837.532	0.62
837.702	0.42
837.872	-0.48
838.041	0.53
838.211	1.84
838.381	-0.7
838.55	-0.02
838.72	1.33
838.89	1.42
839.059	-0.33
839.229	-0.01
839.398	0.68
839.568	0.57
839.738	-0.36
839.907	0.54
840.077	0.42
840.246	0.06
840.416	-0.61
840.585	-0.47
840.755	0.77
840.924	1.13
841.093	-0.88
841.263	0.03
841.432	0.17
841.602	-0.29
841.771	-0.45
841.94	0.17
842.11	1.61
842.279	1.24
842.448	-0.59
842.617	-0.7
842.787	1.22
842.956	-1.43
843.125	0.63
843.294	0.11
843.464	1.29
843.633	-0.26
843.802	-0.17
843.971	0.23
844.14	0.4
844.309	-0.19
844.479	-0.58
844.648	-0.12
844.817	-0.09
844.986	0.83
845.155	-0.89
845.324	-0.55
845.493	0.07
845.662	-0.93
845.831	0.51
846	0.83
846.169	-0.54
846.338	1.71
846.507	0.17
846.676	0.21
846.844	-0.13
847.013	1.2
847.182	0.58
847.351	-0.75
847.52	-0.18
847.689	1.03
847.858	-0.14
848.026	-0.04
848.195	-0.08
848.364	-0.1
848.533	-0.39
848.701	-1.26
848.87	-0.51
849.039	0.04
849.207	0.91
849.376	0.5
849.545	0.75
849.713	0.14
849.882	-0.31
850.051	0.13
850.219	1.29
850.388	0.62
850.556	-0.37
850.725	-0.85
850.893	0.61
851.062	-0.32
851.23	-0.2
851.399	-0.64
851.567	0.22
851.736	-0.16
851.904	-0.58
852.073	0.15
852.241	0.96
852.41	0.65
852.578	-0.42
852.746	-0.1
852.915	0.69
853.083	-0.15
853.251	-0.33
853.42	0.31
853.588	0.23
853.756	0.51
853.924	0.04
854.093	0.14
854.261	-0.34
854.429	-1.23
854.597	0.19
854.765	-1.31
854.934	0.09
855.102	0.86
855.27	0.4
855.438	0.35
855.606	0.34
855.774	1.8
855.942	-1.37
856.11	-1.25
856.278	0.07
856.446	0.12
856.614	0.32
856.782	0.05
856.95	0.75
857.118	0.75
857.286	0.41
857.454	-0.7
857.622	0.95
857.79	0.52
857.958	-1.61
858.126	-0.61
858.294	-2.33
858.462	-0.42
858.629	-0.42
858.797	-0.19
858.965	-0.08
859.133	0.78
859.301	0.12
859.468	0.46
859.636	-0.7
859.804	0.77
859.971	0.67
860.139	-0.7
860.307	0.75
860.474	0.02
860.642	-0.11
860.81	0.24
860.977	-0.75
861.145	1.89
861.313	-1.18
861.48	0.72
861.648	0.89
861.815	-0.23
861.983	-0.53
862.15	0.38
862.318	-0.25
862.485	0.88
862.653	-0.03
862.82	-0.71
862.988	2.18
863.155	1.91
863.322	-0.08
863.49	0.6
863.657	-1.41
863.824	1.63
863.992	0.76
864.159	0.85
864.326	0.56
864.494	-0.64
864.661	2.15
864.828	-1.66
864.996	0.94
865.163	1.12
865.33	0.43
865.497	-2.21
865.664	0.55
865.832	-1.08
865.999	-0.64
866.166	0.07
866.333	-0.46
866.5	-1.09
866.667	-0.11
866.834	-0.95
867.001	1.72
867.168	-1.97
867.335	0.29
867.502	-0.22
867.669	1.01
867.836	3.24
868.003	0.44
868.17	1.39
868.337	2.47
868.504	2.04
868.671	-2.98
868.838	-1.81
869.005	-0.19
869.172	1.8
869.339	-0.97
869.505	0.16
869.672	-0.31
869.839	1.09
870.006	-0.64
870.173	-2.93
870.339	0.87
870.506	1.49
870.673	-0.89
870.84	1.4
871.006	0.8
871.173	-1.7
871.34	1.16
871.506	0.74
871.673	1.29
871.839	-2.31
872.006	0.73
872.173	0.25
872.339	-0.14
872.506	2.61
872.672	-1.21
872.839	-1.71
873.005	0.17
873.172	3.31
873.338	2.11
873.505	-1.07
873.671	-0.16
873.838	1.38
874.004	-2.15
874.171	-1.67
874.337	1.41
874.503	1.07
874.67	-0.49
874.836	0.68
875.002	2.2
875.169	0.93
875.335	1.35
875.501	0.13
875.668	1.75
875.834	-0.79
876	0.15
876.166	2.8
876.332	0.85
876.499	3.09
876.665	-0.97
876.831	0.12
876.997	2.83
877.163	1.16
877.329	-2.17
877.495	2.2
877.662	1.66
877.828	-0.12
877.994	0.3
878.16	-1.73
878.326	0.45
878.492	-0.25
878.658	-1.21
878.824	1.29
878.99	1.4
879.156	-1.65
879.322	2.79
879.487	0.29
879.653	1.32
879.819	0.12
879.985	0.92
880.151	0.53
880.317	0.89
880.483	2.21
880.648	1.76
880.814	-3.31
880.98	0.01
881.146	-2.08
881.312	0.57
881.477	-1.7
881.643	-0.54
881.809	4.06
881.974	1.29
882.14	-2.57
882.306	0.63
882.471	4.75
882.637	-1.04
882.803	1.96
882.968	1.49
883.134	3.13
883.299	1.62
883.465	-0.37
883.63	1.29
883.796	1.93
883.961	0.99
884.127	1.12
884.292	-2.91
884.458	-0.84
884.623	-0.84
