Data from Apollo_Calib_20240827__AbsoluteIrradiance__405__05-54-00-639.txt Node

Date: Wed Aug 28 05:54:00 BST 2024
User: biology
Spectrometer: FLMT08252
Trigger mode: 0
Integration Time (sec): 5.000000E-1
Scans to average: 5
Electric dark correction enabled: true
Nonlinearity correction enabled: false
Boxcar width: 0
XAxis mode: Wavelengths
Number of Pixels in Spectrum: 3648
>>>>>Begin Spectral Data<<<<<
179.588	-0
179.809	-0
180.03	-0
180.251	-0
180.473	-0
180.694	0
180.915	0
181.136	-0
181.357	0
181.578	-0
181.799	-0
182.02	-0
182.241	0
182.462	-0
182.683	0
182.904	-0
183.125	-0
183.346	0
183.567	-0
183.788	-0
184.009	-0
184.23	0
184.451	0
184.672	-0
184.892	-0
185.113	0
185.334	0
185.555	-0
185.776	-0
185.996	0
186.217	0
186.438	0
186.659	0
186.879	0
187.1	-0
187.321	-0
187.541	-0
187.762	0
187.983	0
188.203	0
188.424	0
188.644	0
188.865	0
189.086	-0
189.306	-0
189.527	0
189.747	0
189.968	-0
190.188	0
190.409	0
190.629	0
190.849	-0
191.07	-0
191.29	0
191.511	0
191.731	-0
191.951	-0
192.172	-0
192.392	0
192.612	0
192.833	0
193.053	0
193.273	0
193.493	0
193.714	0
193.934	0
194.154	0
194.374	0
194.594	0
194.815	0
195.035	0
195.255	0
195.475	0
195.695	0
195.915	0
196.135	-0
196.355	0
196.575	0
196.795	0
197.015	-0
197.235	-0
197.455	-0
197.675	0
197.895	-0
198.115	-0
198.335	0
198.555	0
198.775	0
198.995	0
199.214	0
199.434	0
199.654	-0
199.874	0
200.094	1.07
200.313	0.19
200.533	-0.11
200.753	-0.5
200.973	0.81
201.192	1.05
201.412	-1.02
201.632	-0.18
201.851	0.89
202.071	-0.2
202.291	-0.06
202.51	-0.14
202.73	0.51
202.95	-0.01
203.169	-0.63
203.389	0.51
203.608	0.11
203.828	-0.63
204.047	0.2
204.267	0.6
204.486	0.27
204.706	0.25
204.925	0.29
205.145	0.08
205.364	0.51
205.583	0.85
205.803	-0.15
206.022	-0.34
206.242	0.33
206.461	0.26
206.68	-0.03
206.9	0.41
207.119	0.84
207.338	0.67
207.557	-0.14
207.777	-0.11
207.996	-0.14
208.215	0.71
208.434	-0.09
208.654	-0.54
208.873	0.21
209.092	0.73
209.311	0.05
209.53	0.11
209.749	0.01
209.968	-0.14
210.187	0.04
210.407	-0.14
210.626	0.05
210.845	0.36
211.064	0.08
211.283	-0.16
211.502	0.15
211.721	0.4
211.94	0.06
212.159	0.42
212.377	0.43
212.596	0.43
212.815	-0.12
213.034	0.08
213.253	0.41
213.472	0.26
213.691	0.04
213.91	-0.15
214.128	-0.03
214.347	0.39
214.566	-0.23
214.785	-0.29
215.003	0.19
215.222	0.16
215.441	0.01
215.66	-0.34
215.878	0.26
216.097	0.28
216.316	-0.09
216.534	-0.16
216.753	0.2
216.972	0.18
217.19	0.11
217.409	-0.28
217.627	0.05
217.846	-0.09
218.064	-0.12
218.283	-0.05
218.501	0.28
218.72	0.19
218.938	-0.04
219.157	0.07
219.375	0.15
219.594	0.26
219.812	-0.02
220.031	-0.17
220.249	0.47
220.467	0.26
220.686	0.03
220.904	-0.16
221.122	-0.02
221.341	0.24
221.559	0.17
221.777	-0.1
221.995	0.04
222.214	0.16
222.432	-0.13
222.65	0.22
222.868	0.08
223.086	0.1
223.305	0.1
223.523	0.09
223.741	0.21
223.959	-0.09
224.177	-0.24
224.395	-0.05
224.613	0.13
224.831	0.22
225.049	-0.11
225.267	0.02
225.485	0.17
225.703	-0.03
225.921	0.21
226.139	0
226.357	0.25
226.575	0.09
226.793	-0.14
227.011	0.7
227.229	-0.03
227.447	0.25
227.665	0.13
227.883	-0.12
228.1	0.03
228.318	0.07
228.536	-0.17
228.754	-0.11
228.972	0.11
229.189	0.08
229.407	0.05
229.625	0.05
229.843	0.38
230.06	-0.01
230.278	-0.02
230.496	0.02
230.713	0.06
230.931	0.21
231.149	-0.03
231.366	-0.12
231.584	-0.07
231.801	0.32
232.019	0
232.236	-0.13
232.454	-0.03
232.671	0.11
232.889	0.06
233.106	0
233.324	0.15
233.541	-0.08
233.759	0.09
233.976	0.02
234.194	0.1
234.411	-0.05
234.628	-0.05
234.846	0.04
235.063	0.08
235.28	-0
235.498	0.06
235.715	-0.09
235.932	0.09
236.149	0.08
236.367	-0.01
236.584	0.02
236.801	0.06
237.018	0.1
237.236	0.08
237.453	-0.04
237.67	0.12
237.887	0.06
238.104	-0.01
238.321	-0.07
238.538	-0.08
238.755	0.2
238.973	-0.13
239.19	0.1
239.407	0.03
239.624	0.1
239.841	-0.1
240.058	-0.1
240.275	0.06
240.492	-0.01
240.709	0.04
240.925	-0.01
241.142	0.05
241.359	-0.07
241.576	-0.1
241.793	0.01
242.01	0.01
242.227	0.08
242.444	0.07
242.66	0.19
242.877	0.06
243.094	-0.11
243.311	0.1
243.527	0
243.744	0.13
243.961	0.04
244.178	-0.03
244.394	0.05
244.611	0.08
244.828	0.09
245.044	-0.07
245.261	-0.01
245.477	0.11
245.694	0.1
245.911	-0.07
246.127	0.01
246.344	0.13
246.56	0.15
246.777	0.06
246.993	0.07
247.21	0
247.426	0.1
247.643	-0.03
247.859	-0.1
248.076	-0.02
248.292	0.27
248.508	-0
248.725	-0.03
248.941	0.07
249.157	0.19
249.374	-0.02
249.59	0.03
249.806	0.02
250.023	0.08
250.239	-0.09
250.455	-0.1
250.671	0.03
250.888	0.1
251.104	0.01
251.32	0.1
251.536	0.09
251.752	0.03
251.969	-0.03
252.185	0.03
252.401	0.21
252.617	0.09
252.833	-0.04
253.049	0.03
253.265	0.08
253.481	-0
253.697	0.06
253.913	-0.02
254.129	0.03
254.345	0.04
254.561	0.04
254.777	0.03
254.993	0.1
255.209	0.09
255.425	0.05
255.641	0
255.857	0.1
256.073	0.1
256.288	-0.07
256.504	-0.07
256.72	0
256.936	0.18
257.152	0.04
257.367	-0.08
257.583	0
257.799	0.13
258.015	0.01
258.23	-0.05
258.446	0.2
258.662	-0.03
258.877	-0.04
259.093	-0.06
259.309	0.07
259.524	0.05
259.74	-0.04
259.955	-0.08
260.171	0.06
260.387	0.02
260.602	0.13
260.818	0.05
261.033	0.02
261.249	0.12
261.464	-0.03
261.68	-0.08
261.895	0.05
262.11	0.1
262.326	0.04
262.541	-0.07
262.757	0.19
262.972	0.05
263.187	0.07
263.403	0.02
263.618	0.04
263.833	0.04
264.049	-0.08
264.264	0
264.479	0.11
264.694	0.17
264.91	-0.09
265.125	-0.01
265.34	0.09
265.555	0.23
265.77	0.06
265.986	0.02
266.201	0.01
266.416	0.11
266.631	0.02
266.846	0.04
267.061	0.08
267.276	0.01
267.491	-0.09
267.706	0.08
267.921	0.1
268.136	0.06
268.351	-0.02
268.566	-0.05
268.781	0.11
268.996	0.09
269.211	0.03
269.426	-0.07
269.641	-0.03
269.856	0.05
270.071	0.01
270.285	-0.08
270.5	0.15
270.715	0.1
270.93	0.04
271.145	0.01
271.359	0.1
271.574	-0.01
271.789	0.07
272.004	-0
272.218	0.06
272.433	0.12
272.648	-0.01
272.862	0.1
273.077	0.01
273.292	0.06
273.506	-0.08
273.721	-0.02
273.936	0.07
274.15	0.1
274.365	0.02
274.579	0.11
274.794	0.02
275.008	0.08
275.223	-0.03
275.437	0
275.652	0.09
275.866	0.02
276.081	0.03
276.295	0.14
276.509	0.13
276.724	0.04
276.938	0.03
277.153	0.06
277.367	0.1
277.581	0.03
277.796	-0.05
278.01	-0.09
278.224	0.11
278.438	0.16
278.653	-0.07
278.867	-0.02
279.081	-0.15
279.295	0.02
279.51	0.04
279.724	-0.03
279.938	0.08
280.152	0.05
280.366	-0.01
280.58	0.06
280.794	0.13
281.008	0.09
281.222	0.09
281.437	0.16
281.651	0.03
281.865	0.17
282.079	0.05
282.293	-0.05
282.507	0.01
282.721	0.06
282.935	0.05
283.148	-0.07
283.362	0.02
283.576	-0.06
283.79	0
284.004	-0.02
284.218	0.09
284.432	-0.01
284.646	0.08
284.859	-0.02
285.073	0.04
285.287	0.05
285.501	0.01
285.714	-0.01
285.928	0.04
286.142	0.04
286.356	0
286.569	0.01
286.783	0.1
286.997	0.09
287.21	0.04
287.424	0.06
287.637	-0.02
287.851	0.05
288.065	0
288.278	-0.01
288.492	0.01
288.705	0.06
288.919	0.04
289.132	-0.06
289.346	0.11
289.559	-0.02
289.773	-0.03
289.986	-0.01
290.2	0.02
290.413	0.08
290.626	-0.04
290.84	-0.04
291.053	0.04
291.267	0.08
291.48	0.03
291.693	0.01
291.906	-0.05
292.12	0.02
292.333	-0.02
292.546	-0.01
292.76	0.13
292.973	0.05
293.186	0.13
293.399	-0.03
293.612	0.11
293.826	-0
294.039	0.02
294.252	-0.03
294.465	0.05
294.678	0.04
294.891	0.02
295.104	0.01
295.317	-0
295.53	0.01
295.743	0.02
295.956	-0.01
296.169	0.13
296.382	0.08
296.595	0.03
296.808	-0.03
297.021	0.04
297.234	0.07
297.447	0.01
297.66	0.05
297.873	0.07
298.086	0.11
298.299	-0.02
298.511	-0.02
298.724	0.02
298.937	0
299.15	0.01
299.363	0.03
299.575	0.05
299.788	0.08
300.001	0
300.213	-0.05
300.426	-0.01
300.639	0
300.852	-0.01
301.064	0.08
301.277	0.12
301.489	0.04
301.702	0.05
301.915	-0
302.127	0.04
302.34	0.05
302.552	0.09
302.765	0.04
302.977	0.11
303.19	0.04
303.402	0.02
303.615	-0.03
303.827	0.03
304.04	0.02
304.252	0.06
304.464	0.03
304.677	0.12
304.889	0.08
305.102	0.01
305.314	0.01
305.526	0.04
305.739	0.05
305.951	-0.01
306.163	0.02
306.375	0.09
306.588	-0.02
306.8	-0
307.012	-0.01
307.224	0.05
307.436	0.09
307.649	-0.01
307.861	0.02
308.073	0.08
308.285	0.06
308.497	-0.01
308.709	0.01
308.921	0.05
309.133	0.1
309.346	0.02
309.558	0.02
309.77	0.02
309.982	0.06
310.194	0.04
310.406	-0.04
310.617	0.09
310.829	0.04
311.041	0.02
311.253	-0
311.465	0.02
311.677	0.06
311.889	0.02
312.101	-0.01
312.313	0.05
312.524	0.07
312.736	-0.04
312.948	0.01
313.16	0.08
313.372	0.08
313.583	0.08
313.795	0
314.007	-0.04
314.218	0.05
314.43	0.01
314.642	0.01
314.853	-0.06
315.065	0.07
315.277	0
315.488	0.01
315.7	0.08
315.912	0.01
316.123	0.03
316.335	0.03
316.546	0.13
316.758	0.03
316.969	-0.04
317.181	0.02
317.392	0.02
317.604	0.08
317.815	-0.03
318.026	0.01
318.238	0.01
318.449	0.03
318.661	-0.04
318.872	-0.05
319.083	-0.03
319.295	0.06
319.506	-0.01
319.717	0.03
319.929	0.06
320.14	0.03
320.351	0.02
320.562	0.01
320.774	0.02
320.985	0.03
321.196	-0.02
321.407	-0.04
321.618	0.04
321.829	0.03
322.041	0.07
322.252	0.02
322.463	0.05
322.674	0.04
322.885	-0.05
323.096	0.02
323.307	0.01
323.518	0.03
323.729	-0.01
323.94	-0.01
324.151	0.01
324.362	0.02
324.573	0.04
324.784	-0.02
324.995	0.07
325.206	0.03
325.417	0.05
325.628	0.01
325.838	0.04
326.049	0.04
326.26	0.08
326.471	0.01
326.682	0.04
326.892	-0.01
327.103	-0.07
327.314	-0.04
327.525	0.08
327.735	0.02
327.946	0.02
328.157	-0.06
328.368	0.04
328.578	-0
328.789	0.08
328.999	-0
329.21	-0.03
329.421	0.05
329.631	0.01
329.842	-0.02
330.052	0.04
330.263	0.02
330.473	0.04
330.684	0.01
330.894	0.01
331.105	0.02
331.315	-0.01
331.526	-0.04
331.736	0.14
331.947	0.08
332.157	0.08
332.367	-0.02
332.578	0.07
332.788	0.08
332.999	0.05
333.209	0.04
333.419	-0.03
333.629	0.01
333.84	0.07
334.05	-0.01
334.26	0.08
334.47	0.01
334.681	0.06
334.891	0.04
335.101	0.1
335.311	0.12
335.521	0.03
335.732	-0.02
335.942	0.07
336.152	0.08
336.362	0.03
336.572	0.02
336.782	0.08
336.992	0.01
337.202	0.01
337.412	-0.01
337.622	0.06
337.832	0
338.042	-0.01
338.252	0.01
338.462	-0.02
338.672	0.08
338.882	0.02
339.092	0.02
339.302	0.09
339.511	0.06
339.721	0.03
339.931	-0.02
340.141	0.1
340.351	0.04
340.561	0.04
340.77	0.03
340.98	0.04
341.19	0.03
341.4	-0.03
341.609	-0.03
341.819	0.01
342.029	0
342.238	-0.03
342.448	-0
342.658	0.04
342.867	0.02
343.077	0.01
343.286	0.02
343.496	0.05
343.706	0.1
343.915	-0.01
344.125	-0.02
344.334	0.03
344.544	-0.03
344.753	-0
344.963	-0.03
345.172	-0.01
345.381	-0.04
345.591	-0.01
345.8	0
346.01	0.04
346.219	0.07
346.428	-0.12
346.638	-0.01
346.847	0.05
347.056	0.1
347.266	-0.01
347.475	0.01
347.684	0.1
347.893	0.05
348.103	0.01
348.312	0.01
348.521	0.03
348.73	0.04
348.94	0.04
349.149	-0.03
349.358	0.01
349.567	0
349.776	-0.03
349.985	-0.01
350.194	0.09
350.403	0.07
350.612	-0.02
350.821	0
351.03	0.03
351.239	-0.02
351.448	0
351.657	-0.04
351.866	0.09
352.075	0.03
352.284	0.03
352.493	-0.05
352.702	0.07
352.911	0.06
353.12	0.02
353.329	-0.01
353.538	0.02
353.746	0.02
353.955	-0.04
354.164	0.03
354.373	0.02
354.582	0.1
354.79	0.03
354.999	0.04
355.208	0.03
355.416	0.08
355.625	-0.06
355.834	-0.01
356.042	0.04
356.251	0.02
356.46	-0
356.668	0.02
356.877	0.09
357.085	0.05
357.294	-0.05
357.503	0.05
357.711	0.01
357.92	0.14
358.128	0.01
358.337	0.04
358.545	0.04
358.754	0.02
358.962	0.06
359.17	0.02
359.379	0.02
359.587	0.05
359.796	0.02
360.004	0.07
360.212	0.06
360.421	0.06
360.629	0.03
360.837	0.03
361.046	0.04
361.254	0.13
361.462	0.05
361.67	-0
361.879	0.02
362.087	0.09
362.295	0.05
362.503	0.01
362.711	-0.01
362.92	0.03
363.128	0.02
363.336	0.02
363.544	-0.02
363.752	-0.03
363.96	0.02
364.168	0.01
364.376	0.07
364.584	0.04
364.792	0.02
365	0.06
365.208	0.05
365.416	0.06
365.624	0.05
365.832	-0
366.04	0.1
366.248	0.03
366.456	0.05
366.664	0.05
366.872	0.03
367.079	0.01
367.287	0.01
367.495	0.08
367.703	0.06
367.911	0.02
368.118	0
368.326	0.02
368.534	-0.01
368.742	0.08
368.949	-0.06
369.157	0.01
369.365	0.06
369.572	0.01
369.78	-0.01
369.988	0.07
370.195	0.04
370.403	0.04
370.61	-0
370.818	0.02
371.026	0.1
371.233	-0.01
371.441	0.09
371.648	-0.04
371.856	0.03
372.063	0.03
372.271	0.02
372.478	0.03
372.685	0.01
372.893	0.04
373.1	-0.02
373.308	0.01
373.515	0.13
373.722	0.07
373.93	0.05
374.137	0.04
374.344	0.09
374.552	0.08
374.759	0.06
374.966	0.02
375.173	0.03
375.381	0.1
375.588	0.05
375.795	-0.02
376.002	0.04
376.209	0
376.417	0.02
376.624	0.02
376.831	0.06
377.038	0.01
377.245	-0.06
377.452	0.01
377.659	0.02
377.866	-0.02
378.073	0.03
378.28	0.09
378.487	0.07
378.694	0.07
378.901	-0.03
379.108	0.02
379.315	0.09
379.522	0.1
379.729	0
379.936	0.04
380.143	-0.03
380.35	0.03
380.557	0.01
380.763	0.06
380.97	0.02
381.177	0.1
381.384	0.03
381.591	0
381.797	0.02
382.004	0.05
382.211	0.03
382.418	0.05
382.624	0.04
382.831	0.07
383.038	0.02
383.244	0.06
383.451	-0.01
383.658	0.04
383.864	0.01
384.071	0.03
384.277	0.08
384.484	-0.02
384.69	0.06
384.897	0.01
385.103	0
385.31	-0.02
385.516	-0.02
385.723	-0.01
385.929	0
386.136	-0.02
386.342	0.02
386.549	0.01
386.755	0.06
386.961	0.08
387.168	-0
387.374	0.07
387.58	0.09
387.787	0.03
387.993	0.05
388.199	0
388.406	0.02
388.612	-0.01
388.818	0.02
389.024	0.01
389.231	0.07
389.437	0.1
389.643	0.05
389.849	0.01
390.055	0.06
390.261	0.05
390.467	0.02
390.674	0.01
390.88	0.02
391.086	0.03
391.292	-0.01
391.498	0.06
391.704	0.03
391.91	0.02
392.116	0.03
392.322	-0.07
392.528	0.06
392.734	0.02
392.94	0.02
393.146	0.02
393.352	0.06
393.557	0.05
393.763	0.04
393.969	0.06
394.175	0.04
394.381	0.08
394.587	-0.01
394.792	0.01
394.998	0.05
395.204	0.09
395.41	-0.02
395.615	0.06
395.821	0.02
396.027	0.04
396.233	-0.02
396.438	0.06
396.644	0.09
396.85	0.03
397.055	0.03
397.261	0.04
397.466	0.05
397.672	0.03
397.878	0.09
398.083	0.05
398.289	-0.05
398.494	0.11
398.7	0.04
398.905	-0.04
399.111	0.1
399.316	0.01
399.522	0.02
399.727	0.04
399.932	0.04
400.138	0.03
400.343	0.08
400.549	0.02
400.754	0.05
400.959	0.08
401.165	0.02
401.37	0.03
401.575	0.1
401.78	0.03
401.986	0.04
402.191	0.02
402.396	0.06
402.601	0.06
402.807	0.03
403.012	0.02
403.217	0.09
403.422	0.03
403.627	0.01
403.832	0
404.037	0.06
404.243	0.07
404.448	0.01
404.653	-0.01
404.858	0.01
405.063	0.08
405.268	0.03
405.473	-0.05
405.678	0.02
405.883	0.19
406.088	0.06
406.293	0.02
406.498	-0.01
406.703	0.08
406.907	0
407.112	-0.04
407.317	0.03
407.522	0.11
407.727	-0.01
407.932	0.02
408.136	0.14
408.341	0.04
408.546	0.03
408.751	0.05
408.956	0.03
409.16	0.06
409.365	0.02
409.57	0.06
409.774	0.07
409.979	0.07
410.184	0.06
410.388	0.01
410.593	0.1
410.798	0.04
411.002	0.03
411.207	0.04
411.411	0.02
411.616	-0
411.82	0.04
412.025	0.08
412.229	0.05
412.434	0.12
412.638	0.05
412.843	0.05
413.047	0.05
413.252	0.02
413.456	0.03
413.66	0.08
413.865	-0.01
414.069	0.14
414.273	-0.03
414.478	-0
414.682	0.01
414.886	0.03
415.091	-0
415.295	-0.02
415.499	0.03
415.703	0.04
415.908	0.07
416.112	-0.06
416.316	0.09
416.52	0.06
416.724	-0.01
416.929	0.01
417.133	0.14
417.337	0.06
417.541	0
417.745	0.01
417.949	0.05
418.153	0.07
418.357	-0.03
418.561	0.11
418.765	0.03
418.969	0.11
419.173	0.1
419.377	0.03
419.581	0.09
419.785	0.05
419.989	-0.02
420.193	0.05
420.397	0.02
420.601	0.11
420.804	0.1
421.008	0.04
421.212	0.07
421.416	0.08
421.62	0.04
421.823	0.04
422.027	0.13
422.231	0.07
422.435	0.02
422.638	0.06
422.842	0.05
423.046	0.03
423.249	0.11
423.453	0.05
423.657	0.08
423.86	0.01
424.064	0.02
424.268	0.08
424.471	0.06
424.675	0.15
424.878	0.11
425.082	0.08
425.285	0.12
425.489	0.09
425.692	0.06
425.896	0.01
426.099	0.05
426.303	0.01
426.506	-0.03
426.71	0.08
426.913	0.09
427.116	0.07
427.32	0.04
427.523	0.07
427.726	0.13
427.93	0.06
428.133	0.05
428.336	0.01
428.54	0.03
428.743	0.07
428.946	0.09
429.149	0.02
429.353	0.07
429.556	0.07
429.759	0.05
429.962	0.03
430.165	0.08
430.368	0.06
430.571	0.04
430.775	0.06
430.978	0.04
431.181	0.09
431.384	0.09
431.587	0.06
431.79	0.03
431.993	-0.05
432.196	0.02
432.399	0.04
432.602	0.14
432.805	0
433.008	-0.01
433.211	-0.01
433.414	0.1
433.616	0.07
433.819	0.04
434.022	-0.03
434.225	0.14
434.428	0.08
434.631	0.13
434.833	0.02
435.036	0.03
435.239	0.14
435.442	0.06
435.645	0.04
435.847	0.07
436.05	0.07
436.253	0.04
436.455	0.03
436.658	0.05
436.861	0.17
437.063	0.09
437.266	0.05
437.468	0.07
437.671	0.19
437.874	0.05
438.076	0.01
438.279	-0.01
438.481	0.06
438.684	-0.04
438.886	0.07
439.089	-0.05
439.291	0.1
439.494	0.09
439.696	0.03
439.899	0.05
440.101	0.09
440.303	-0.02
440.506	0.05
440.708	0.05
440.91	0.09
441.113	0.01
441.315	0.09
441.517	-0.03
441.72	0.07
441.922	-0.02
442.124	0.01
442.326	0.06
442.529	0.11
442.731	0.05
442.933	0.1
443.135	0.02
443.337	0.01
443.539	0.02
443.742	-0.01
443.944	0.07
444.146	0.03
444.348	0.01
444.55	0.04
444.752	0.01
444.954	0.03
445.156	0.01
445.358	0.03
445.56	0.15
445.762	0.04
445.964	0.07
446.166	0.02
446.368	-0.01
446.57	0.07
446.772	0.05
446.974	0.03
447.175	0.06
447.377	0.01
447.579	0.07
447.781	-0.03
447.983	0.14
448.184	0.06
448.386	0.1
448.588	-0.05
448.79	0.08
448.991	0
449.193	0.07
449.395	0.05
449.597	0.12
449.798	0.04
450	0.07
450.202	0.05
450.403	0.02
450.605	0.11
450.806	0.09
451.008	-0.03
451.21	0.04
451.411	0.06
451.613	0.05
451.814	0.06
452.016	0.09
452.217	0.07
452.419	0.11
452.62	0.08
452.821	0.12
453.023	0.13
453.224	0.07
453.426	0.06
453.627	0.1
453.828	0.11
454.03	0.07
454.231	0.06
454.432	0
454.634	0.19
454.835	0.04
455.036	0.01
455.238	0.11
455.439	0.13
455.64	0.02
455.841	0.03
456.042	0.15
456.244	0.09
456.445	-0.01
456.646	-0.02
456.847	0.04
457.048	0.1
457.249	0.14
457.45	0.26
457.651	0.02
457.852	0.12
458.054	0.13
458.255	0.04
458.456	0.12
458.657	0.08
458.858	0.04
459.058	0.08
459.259	0.13
459.46	0.07
459.661	0.02
459.862	0.18
460.063	0.05
460.264	0.17
460.465	0.06
460.666	0.18
460.866	0.1
461.067	0.08
461.268	0.05
461.469	0.07
461.67	0.11
461.87	0.03
462.071	0.09
462.272	0.08
462.473	0.08
462.673	0.12
462.874	-0.01
463.075	0.07
463.275	0.03
463.476	0.1
463.676	0.11
463.877	0.06
464.078	0.07
464.278	0.16
464.479	0.07
464.679	0.11
464.88	0.07
465.08	0.18
465.281	0.07
465.481	0.05
465.682	0.08
465.882	0.12
466.083	0.08
466.283	0.12
466.483	0.07
466.684	0.01
466.884	0.07
467.085	0.08
467.285	0.14
467.485	0.04
467.686	0.06
467.886	0.06
468.086	0.1
468.286	0.07
468.487	0.1
468.687	0.03
468.887	0.08
469.087	0.11
469.287	0.08
469.488	0.04
469.688	0.06
469.888	0.11
470.088	0.13
470.288	0.14
470.488	0.11
470.688	0.06
470.888	0.09
471.088	0.06
471.288	0.15
471.488	0.16
471.688	0.1
471.888	0.06
472.088	0.15
472.288	0.17
472.488	0.07
472.688	0.09
472.888	0.11
473.088	0.09
473.288	0.17
473.488	0.11
473.688	0.2
473.887	0.13
474.087	0.08
474.287	0.12
474.487	0.07
474.687	0.13
474.886	0.1
475.086	0.1
475.286	0.11
475.486	0.13
475.685	0.12
475.885	0.1
476.085	0.11
476.284	0.19
476.484	0.14
476.684	0.13
476.883	0.24
477.083	0.13
477.282	0.11
477.482	0.19
477.681	0.17
477.881	0.15
478.08	0.09
478.28	0.11
478.479	0.16
478.679	0.22
478.878	0.12
479.078	0.14
479.277	0.16
479.477	0.17
479.676	0.2
479.875	0.15
480.075	0.1
480.274	0.17
480.473	0.19
480.673	0.14
480.872	0.22
481.071	0.18
481.271	0.19
481.47	0.17
481.669	0.18
481.868	0.15
482.067	0.19
482.267	0.16
482.466	0.14
482.665	0.17
482.864	0.16
483.063	0.16
483.262	0.24
483.461	0.27
483.661	0.25
483.86	0.22
484.059	0.26
484.258	0.22
484.457	0.2
484.656	0.25
484.855	0.3
485.054	0.18
485.253	0.23
485.452	0.21
485.651	0.27
485.849	0.27
486.048	0.23
486.247	0.24
486.446	0.32
486.645	0.26
486.844	0.29
487.043	0.27
487.241	0.34
487.44	0.29
487.639	0.33
487.838	0.35
488.037	0.35
488.235	0.41
488.434	0.34
488.633	0.32
488.831	0.39
489.03	0.4
489.229	0.35
489.427	0.4
489.626	0.42
489.825	0.49
490.023	0.43
490.222	0.42
490.42	0.49
490.619	0.48
490.817	0.47
491.016	0.42
491.214	0.54
491.413	0.5
491.611	0.49
491.81	0.51
492.008	0.53
492.207	0.54
492.405	0.53
492.604	0.52
492.802	0.58
493	0.56
493.199	0.55
493.397	0.59
493.595	0.64
493.794	0.59
493.992	0.7
494.19	0.64
494.388	0.74
494.587	0.64
494.785	0.72
494.983	0.7
495.181	0.76
495.379	0.79
495.578	0.79
495.776	0.81
495.974	0.82
496.172	0.8
496.37	0.86
496.568	0.84
496.766	0.84
496.964	0.95
497.162	0.92
497.36	0.93
497.558	0.97
497.756	1.02
497.954	1.01
498.152	1
498.35	1.09
498.548	1.05
498.746	1.09
498.944	1.07
499.142	1.12
499.34	1.16
499.538	1.25
499.736	1.16
499.933	1.26
500.131	1.27
500.329	1.35
500.527	1.34
500.725	1.43
500.922	1.43
501.12	1.43
501.318	1.5
501.516	1.49
501.713	1.59
501.911	1.57
502.109	1.55
502.306	1.68
502.504	1.63
502.701	1.72
502.899	1.73
503.097	1.84
503.294	1.79
503.492	1.92
503.689	1.93
503.887	1.96
504.084	2.05
504.282	2.05
504.479	2.01
504.677	2.17
504.874	2.13
505.072	2.19
505.269	2.29
505.466	2.31
505.664	2.39
505.861	2.32
506.059	2.44
506.256	2.51
506.453	2.53
506.651	2.65
506.848	2.78
507.045	2.72
507.242	2.77
507.44	2.83
507.637	2.91
507.834	2.92
508.031	3.03
508.229	2.99
508.426	3.05
508.623	3.17
508.82	3.27
509.017	3.25
509.214	3.3
509.411	3.45
509.608	3.44
509.805	3.57
510.003	3.57
510.2	3.65
510.397	3.77
510.594	3.75
510.791	3.85
510.988	3.89
511.184	3.94
511.381	3.93
511.578	4.11
511.775	4.26
511.972	4.16
512.169	4.27
512.366	4.37
512.563	4.45
512.76	4.55
512.956	4.66
513.153	4.65
513.35	4.64
513.547	4.71
513.744	4.83
513.94	4.87
514.137	5.03
514.334	5.08
514.53	5.11
514.727	5.38
514.924	5.27
515.12	5.31
515.317	5.33
515.514	5.39
515.71	5.4
515.907	5.59
516.103	5.64
516.3	5.63
516.497	5.74
516.693	5.77
516.89	5.83
517.086	5.92
517.283	6.02
517.479	5.87
517.676	6.14
517.872	6.16
518.068	6.21
518.265	6.17
518.461	6.15
518.658	6.28
518.854	6.35
519.05	6.44
519.247	6.49
519.443	6.51
519.639	6.57
519.836	6.51
520.032	6.55
520.228	6.68
520.424	6.63
520.621	6.7
520.817	6.77
521.013	6.7
521.209	6.88
521.405	6.9
521.601	6.82
521.798	6.8
521.994	6.79
522.19	6.81
522.386	6.79
522.582	6.89
522.778	7.02
522.974	6.85
523.17	6.86
523.366	6.8
523.562	6.87
523.758	6.89
523.954	6.71
524.15	6.88
524.346	6.91
524.542	6.87
524.738	6.81
524.934	6.88
525.129	6.84
525.325	6.7
525.521	6.73
525.717	6.91
525.913	6.73
526.109	6.7
526.304	6.78
526.5	6.71
526.696	6.67
526.892	6.53
527.087	6.71
527.283	6.6
527.479	6.51
527.674	6.35
527.87	6.44
528.066	6.45
528.261	6.35
528.457	6.19
528.653	6.34
528.848	6.33
529.044	6.32
529.239	6.07
529.435	6.16
529.63	6
529.826	5.95
530.021	5.95
530.217	5.92
530.412	5.87
530.608	5.78
530.803	5.76
530.999	5.64
531.194	5.62
531.389	5.64
531.585	5.56
531.78	5.58
531.975	5.5
532.171	5.42
532.366	5.38
532.561	5.34
532.757	5.23
532.952	5.32
533.147	5.11
533.342	5.13
533.538	4.97
533.733	5.07
533.928	4.79
534.123	4.85
534.318	4.86
534.513	4.74
534.709	4.81
534.904	4.72
535.099	4.65
535.294	4.62
535.489	4.57
535.684	4.46
535.879	4.42
536.074	4.46
536.269	4.38
536.464	4.37
536.659	4.26
536.854	4.18
537.049	4.14
537.244	4.13
537.439	4.09
537.634	3.98
537.828	4.02
538.023	3.93
538.218	3.85
538.413	3.81
538.608	3.8
538.803	3.78
538.997	3.7
539.192	3.67
539.387	3.63
539.582	3.61
539.776	3.52
539.971	3.53
540.166	3.51
540.36	3.43
540.555	3.44
540.75	3.33
540.944	3.36
541.139	3.29
541.334	3.26
541.528	3.24
541.723	3.24
541.917	3.16
542.112	3.08
542.306	3.06
542.501	3.02
542.695	3.03
542.89	2.96
543.084	2.96
543.279	2.9
543.473	2.89
543.668	2.9
543.862	2.82
544.056	2.76
544.251	2.76
544.445	2.81
544.64	2.77
544.834	2.61
545.028	2.57
545.222	2.61
545.417	2.62
545.611	2.59
545.805	2.54
546	2.4
546.194	2.5
546.388	2.43
546.582	2.4
546.776	2.37
546.97	2.39
547.165	2.34
547.359	2.32
547.553	2.26
547.747	2.24
547.941	2.29
548.135	2.18
548.329	2.22
548.523	2.13
548.717	2.09
548.911	2.08
549.105	2.09
549.299	2.08
549.493	2.05
549.687	2
549.881	1.98
550.075	1.96
550.269	1.87
550.463	1.95
550.657	1.9
550.85	1.86
551.044	1.76
551.238	1.81
551.432	1.74
551.626	1.76
551.82	1.78
552.013	1.69
552.207	1.71
552.401	1.7
552.594	1.64
552.788	1.62
552.982	1.59
553.176	1.57
553.369	1.61
553.563	1.59
553.756	1.49
553.95	1.47
554.144	1.48
554.337	1.52
554.531	1.43
554.724	1.41
554.918	1.38
555.111	1.4
555.305	1.35
555.498	1.39
555.692	1.34
555.885	1.27
556.079	1.31
556.272	1.24
556.466	1.28
556.659	1.23
556.852	1.23
557.046	1.18
557.239	1.22
557.432	1.14
557.626	1.15
557.819	1.12
558.012	1.16
558.206	1.15
558.399	1.09
558.592	1.08
558.785	1.03
558.979	1.05
559.172	1.02
559.365	1.04
559.558	0.98
559.751	0.93
559.944	1.01
560.138	0.96
560.331	0.92
560.524	0.94
560.717	0.92
560.91	0.88
561.103	0.92
561.296	0.86
561.489	0.87
561.682	0.87
561.875	0.86
562.068	0.86
562.261	0.83
562.454	0.87
562.647	0.81
562.84	0.84
563.032	0.78
563.225	0.77
563.418	0.75
563.611	0.75
563.804	0.76
563.997	0.71
564.19	0.67
564.382	0.72
564.575	0.7
564.768	0.66
564.961	0.7
565.153	0.68
565.346	0.68
565.539	0.71
565.731	0.64
565.924	0.69
566.117	0.7
566.309	0.67
566.502	0.61
566.695	0.64
566.887	0.63
567.08	0.58
567.272	0.57
567.465	0.55
567.657	0.56
567.85	0.57
568.042	0.55
568.235	0.59
568.427	0.54
568.62	0.55
568.812	0.53
569.005	0.52
569.197	0.48
569.389	0.53
569.582	0.51
569.774	0.5
569.966	0.45
570.159	0.47
570.351	0.47
570.543	0.45
570.736	0.46
570.928	0.42
571.12	0.46
571.312	0.42
571.505	0.4
571.697	0.46
571.889	0.38
572.081	0.41
572.273	0.41
572.465	0.46
572.658	0.4
572.85	0.42
573.042	0.41
573.234	0.4
573.426	0.4
573.618	0.33
573.81	0.38
574.002	0.42
574.194	0.41
574.386	0.32
574.578	0.27
574.77	0.33
574.962	0.35
575.154	0.31
575.346	0.35
575.538	0.34
575.729	0.32
575.921	0.32
576.113	0.31
576.305	0.33
576.497	0.3
576.689	0.29
576.88	0.29
577.072	0.31
577.264	0.27
577.456	0.29
577.647	0.21
577.839	0.29
578.031	0.32
578.223	0.25
578.414	0.25
578.606	0.29
578.798	0.28
578.989	0.26
579.181	0.24
579.372	0.26
579.564	0.24
579.755	0.25
579.947	0.24
580.139	0.27
580.33	0.2
580.522	0.21
580.713	0.16
580.905	0.21
581.096	0.23
581.287	0.22
581.479	0.2
581.67	0.24
581.862	0.21
582.053	0.2
582.244	0.15
582.436	0.19
582.627	0.2
582.818	0.17
583.01	0.16
583.201	0.21
583.392	0.2
583.583	0.19
583.775	0.18
583.966	0.18
584.157	0.17
584.348	0.16
584.54	0.15
584.731	0.2
584.922	0.15
585.113	0.16
585.304	0.19
585.495	0.21
585.686	0.17
585.877	0.19
586.068	0.16
586.259	0.17
586.45	0.17
586.641	0.14
586.832	0.11
587.023	0.15
587.214	0.15
587.405	0.18
587.596	0.12
587.787	0.18
587.978	0.15
588.169	0.14
588.36	0.13
588.551	0.12
588.742	0.12
588.932	0.16
589.123	0.11
589.314	0.17
589.505	0.14
589.696	0.15
589.886	0.1
590.077	0.08
590.268	0.13
590.458	0.09
590.649	0.08
590.84	0.13
591.03	0.11
591.221	0.09
591.412	0.08
591.602	0.14
591.793	0.14
591.984	0.11
592.174	0.09
592.365	0.19
592.555	0.07
592.746	0.11
592.936	0.12
593.127	0.14
593.317	0.14
593.508	0.1
593.698	0.1
593.889	0.14
594.079	0.09
594.269	0.07
594.46	0.12
594.65	0.09
594.84	0.07
595.031	0.07
595.221	0.09
595.411	0.07
595.602	0.11
595.792	0.1
595.982	0.09
596.172	0.12
596.363	0.08
596.553	0.12
596.743	0.09
596.933	0.08
597.123	0.14
597.314	0.06
597.504	0.06
597.694	0.11
597.884	0.12
598.074	0.08
598.264	0.07
598.454	0.08
598.644	0.06
598.834	0.09
599.024	0
599.214	0.07
599.404	0.09
599.594	0.05
599.784	0.05
599.974	0.12
600.164	0.13
600.354	0.03
600.544	0.05
600.734	0.09
600.924	0.13
601.114	0.02
601.303	0.09
601.493	0.08
601.683	0.05
601.873	0.1
602.063	0.01
602.252	0.1
602.442	0.02
602.632	0.04
602.821	0.03
603.011	0.09
603.201	0.08
603.39	0.01
603.58	0.05
603.77	0.08
603.959	0.09
604.149	0.04
604.339	0.04
604.528	0.06
604.718	0.08
604.907	0.07
605.097	0.04
605.286	-0
605.476	0.07
605.665	0.06
605.855	0.06
606.044	0.07
606.234	0.06
606.423	0.04
606.612	0.02
606.802	0.06
606.991	0.07
607.181	0.07
607.37	-0
607.559	0.04
607.749	0.03
607.938	0.08
608.127	0.02
608.316	0.03
608.506	0.06
608.695	0.07
608.884	0.03
609.073	0.05
609.263	0.09
609.452	0.07
609.641	0.06
609.83	0.04
610.019	0.06
610.208	0.02
610.397	0.04
610.586	0.06
610.775	0.03
610.965	0.04
611.154	0.03
611.343	0.03
611.532	0.1
611.721	-0
611.91	0.02
612.099	0.08
612.287	0.05
612.476	0.01
612.665	0.03
612.854	0.02
613.043	0.08
613.232	0.02
613.421	-0.01
613.61	0.06
613.798	0.02
613.987	0.07
614.176	0.01
614.365	0.04
614.554	0.04
614.742	0.07
614.931	0
615.12	0.09
615.309	0.03
615.497	0.06
615.686	0.03
615.875	0.01
616.063	0.04
616.252	0.02
616.44	0.03
616.629	0.04
616.818	0.05
617.006	0.02
617.195	0.01
617.383	0.07
617.572	0.05
617.76	0.03
617.949	0.03
618.137	0.09
618.326	0.03
618.514	0.04
618.703	0.02
618.891	0.07
619.079	-0
619.268	0.07
619.456	0.03
619.644	0.08
619.833	0.06
620.021	0.04
620.209	-0.05
620.398	0.05
620.586	0.01
620.774	0.09
620.962	0.02
621.151	0.1
621.339	0.06
621.527	-0.02
621.715	0
621.903	0.02
622.092	0.03
622.28	0.02
622.468	0.02
622.656	0.01
622.844	0.05
623.032	0.02
623.22	-0.01
623.408	0.07
623.596	0.05
623.784	0.07
623.972	-0.01
624.16	0.01
624.348	0.12
624.536	0.04
624.724	0
624.912	0.08
625.1	0.07
625.288	0.01
625.476	0
625.664	0.07
625.851	0.01
626.039	0.02
626.227	0.03
626.415	0.01
626.603	-0.03
626.79	0.05
626.978	0.02
627.166	0.08
627.354	0.01
627.541	-0.01
627.729	-0.04
627.917	0.08
628.104	0.05
628.292	0.06
628.48	0.04
628.667	0.06
628.855	0.02
629.042	0.06
629.23	-0.01
629.418	0.01
629.605	0.03
629.793	-0
629.98	0.04
630.168	0.01
630.355	0.02
630.543	0.07
630.73	-0
630.917	0.05
631.105	0.08
631.292	-0.01
631.48	0.02
631.667	0.08
631.854	0.01
632.042	0.01
632.229	-0.03
632.416	0.05
632.604	0.03
632.791	-0.01
632.978	0.06
633.165	0.03
633.353	0.11
633.54	0.05
633.727	-0.04
633.914	0.02
634.101	-0.08
634.289	0.05
634.476	0.03
634.663	0
634.85	0.05
635.037	-0.03
635.224	-0.03
635.411	0.07
635.598	0.05
635.785	-0
635.972	0.05
636.159	0.06
636.346	0.01
636.533	0.02
636.72	0.04
636.907	0.03
637.094	0.05
637.281	0.02
637.468	0.03
637.655	-0
637.842	0.04
638.029	-0.02
638.215	0.04
638.402	0
638.589	0
638.776	0.02
638.963	-0.01
639.149	0.05
639.336	0.07
639.523	-0.02
639.709	0.02
639.896	0.02
640.083	0.1
640.27	0.04
640.456	0.01
640.643	0.02
640.829	-0.03
641.016	0.03
641.203	0
641.389	0.07
641.576	0.03
641.762	0.01
641.949	-0.03
642.135	0.05
642.322	0.06
642.508	-0.03
642.695	0.04
642.881	0.02
643.068	0.04
643.254	0
643.441	0.07
643.627	0.02
643.813	0.01
644	0.03
644.186	-0.01
644.372	-0.04
644.559	0.04
644.745	0.01
644.931	-0.02
645.118	-0.01
645.304	0.04
645.49	-0.01
645.676	0.03
645.862	0.04
646.049	0.09
646.235	0.02
646.421	0.07
646.607	0.11
646.793	0.01
646.979	-0.02
647.165	0.05
647.352	0.02
647.538	0.07
647.724	0.01
647.91	0.04
648.096	0.08
648.282	0.07
648.468	0.03
648.654	0.02
648.84	0.01
649.026	0.02
649.212	0.02
649.397	0.01
649.583	-0.02
649.769	0.02
649.955	0.03
650.141	0.06
650.327	0.1
650.513	-0.01
650.698	0.07
650.884	-0.05
651.07	0.03
651.256	0.04
651.442	0.01
651.627	0.01
651.813	0.03
651.999	0.03
652.184	0.06
652.37	-0.01
652.556	-0.02
652.741	0.09
652.927	-0.06
653.113	0.04
653.298	-0
653.484	0.01
653.669	-0.01
653.855	0.01
654.04	0.03
654.226	0.03
654.412	-0.01
654.597	-0.06
654.782	0.05
654.968	0.05
655.153	0.06
655.339	0.01
655.524	-0.02
655.71	0.05
655.895	-0
656.08	0.02
656.266	0.05
656.451	0.01
656.636	-0.03
656.822	0.02
657.007	-0.03
657.192	0.01
657.378	-0.05
657.563	0.01
657.748	0.04
657.933	0.05
658.118	0
658.304	0
658.489	0.04
658.674	0.04
658.859	0
659.044	0.03
659.229	0.02
659.414	0.01
659.599	-0
659.785	-0.03
659.97	0.01
660.155	0.02
660.34	0.02
660.525	0
660.71	0.03
660.895	0.04
661.08	-0
661.264	-0.01
661.449	0.06
661.634	0.06
661.819	0.01
662.004	0.06
662.189	-0.04
662.374	-0.01
662.559	0.01
662.743	-0.03
662.928	0.01
663.113	0.01
663.298	-0.07
663.483	0.03
663.667	0.06
663.852	-0.03
664.037	0.08
664.221	-0
664.406	0.03
664.591	0.06
664.775	0.01
664.96	-0
665.145	0.03
665.329	0.05
665.514	0.02
665.698	-0
665.883	-0.04
666.068	0.07
666.252	0.05
666.437	-0.01
666.621	0.03
666.806	0.04
666.99	0.03
667.174	0.01
667.359	0.09
667.543	0.02
667.728	0.01
667.912	-0.02
668.096	0.07
668.281	-0
668.465	0.02
668.649	0.02
668.834	0.01
669.018	0
669.202	0.04
669.387	-0.03
669.571	0.09
669.755	-0.03
669.939	0.02
670.124	0.03
670.308	0.07
670.492	0.06
670.676	0.04
670.86	0.04
671.044	-0.01
671.228	0.08
671.413	-0.02
671.597	-0.03
671.781	-0.03
671.965	0.04
672.149	0.05
672.333	0.05
672.517	0.01
672.701	0.06
672.885	0.02
673.069	-0.03
673.253	0.05
673.437	0.03
673.621	-0.01
673.804	0.02
673.988	0.01
674.172	0.04
674.356	-0.02
674.54	0.03
674.724	0.07
674.908	0.03
675.091	0.04
675.275	0.03
675.459	0.08
675.643	0.09
675.826	0.07
676.01	0.05
676.194	0.03
676.377	0.1
676.561	0.03
676.745	0.03
676.928	0.04
677.112	0.05
677.296	0.03
677.479	0
677.663	0.01
677.846	0.06
678.03	-0.02
678.213	0.01
678.397	0.07
678.58	0.05
678.764	0.02
678.947	0.01
679.131	-0
679.314	0.07
679.498	0.01
679.681	0.05
679.865	0.06
680.048	0.01
680.231	0.01
680.415	0.04
680.598	0.06
680.781	0.07
680.965	0.01
681.148	0.02
681.331	0.02
681.514	0.03
681.698	-0.01
681.881	0.05
682.064	0.04
682.247	0.03
682.43	-0.01
682.614	0.04
682.797	0.05
682.98	0.05
683.163	0.02
683.346	0.08
683.529	0.03
683.712	-0.01
683.895	0.07
684.078	-0.01
684.261	0.04
684.444	0.03
684.627	0.04
684.81	0.01
684.993	0.01
685.176	0.09
685.359	0.01
685.542	0.02
685.725	0.09
685.908	-0
686.091	-0.01
686.274	0.07
686.457	0.06
686.639	0.01
686.822	0.05
687.005	0.04
687.188	0.07
687.371	0.11
687.553	0.03
687.736	0.03
687.919	0.04
688.102	0.1
688.284	0
688.467	0.05
688.65	0.02
688.832	0.02
689.015	0.02
689.197	-0.05
689.38	0.12
689.563	0.12
689.745	-0.04
689.928	-0.03
690.11	0.03
690.293	0.02
690.475	-0.05
690.658	0.06
690.84	-0
691.023	0.01
691.205	-0.02
691.388	0.06
691.57	0.08
691.752	0.08
691.935	-0.08
692.117	0.02
692.3	-0
692.482	0.06
692.664	-0
692.847	0.03
693.029	0.05
693.211	0.01
693.393	-0.02
693.576	-0.01
693.758	0.03
693.94	-0.01
694.122	-0
694.304	0.01
694.487	0.05
694.669	0.08
694.851	-0.03
695.033	0.03
695.215	0.06
695.397	-0.01
695.579	0.01
695.761	-0.01
695.943	-0.02
696.125	0.1
696.308	0.02
696.49	-0.01
696.671	0.12
696.853	0.02
697.035	0.16
697.217	0.02
697.399	0.05
697.581	-0.02
697.763	0.03
697.945	-0.06
698.127	0.04
698.309	0.11
698.491	-0.01
698.672	0.06
698.854	0.1
699.036	0.08
699.218	-0.03
699.399	0.11
699.581	0.07
699.763	-0
699.945	-0.03
700.126	-0.02
700.308	0.07
700.49	0
700.671	-0.1
700.853	-0.05
701.035	-0.03
701.216	0.03
701.398	-0.02
701.579	-0.03
701.761	0.16
701.943	0.01
702.124	0.02
702.306	0.01
702.487	0.14
702.669	0.03
702.85	0.01
703.031	0.01
703.213	0.1
703.394	0.07
703.576	0.02
703.757	0.08
703.938	0.12
704.12	0.17
704.301	0.03
704.483	-0
704.664	0.08
704.845	0.11
705.026	0.05
705.208	0.02
705.389	0.05
705.57	0.06
705.751	0.02
705.933	0.03
706.114	0.13
706.295	-0.01
706.476	-0.08
706.657	0.09
706.838	0.06
707.02	0.05
707.201	-0.06
707.382	-0.07
707.563	0.06
707.744	0.02
707.925	-0.02
708.106	-0.01
708.287	0.03
708.468	0.06
708.649	0.02
708.83	0.03
709.011	-0.02
709.192	0.07
709.373	-0.07
709.554	0.04
709.734	0.14
709.915	0.07
710.096	0.01
710.277	-0.02
710.458	0.05
710.639	0.07
710.819	-0.12
711	0.07
711.181	0.01
711.362	0.12
711.542	0.03
711.723	-0
711.904	0.08
712.085	0.08
712.265	-0
712.446	-0.1
712.627	-0
712.807	0.01
712.988	0.03
713.168	-0.07
713.349	0.1
713.53	-0.06
713.71	-0.06
713.891	-0.04
714.071	0.02
714.252	-0.01
714.432	-0.01
714.613	-0.04
714.793	0.07
714.974	0.05
715.154	0.06
715.334	0.06
715.515	0.14
715.695	-0.01
715.876	0.01
716.056	0.05
716.236	0.02
716.417	0.05
716.597	-0.05
716.777	0.14
716.957	0.01
717.138	0.03
717.318	0.01
717.498	0.01
717.678	0.07
717.859	0.03
718.039	-0.18
718.219	0.05
718.399	0.09
718.579	-0.03
718.759	-0.02
718.939	0.11
719.12	0.07
719.3	0.09
719.48	-0.09
719.66	-0.08
719.84	0.05
720.02	-0.01
720.2	0.04
720.38	0.1
720.56	0.14
720.74	-0.06
720.92	0.01
721.1	0.03
721.279	0.06
721.459	0.07
721.639	-0.06
721.819	0
721.999	0.06
722.179	0.07
722.359	-0.09
722.538	0.01
722.718	-0.05
722.898	0.02
723.078	-0.08
723.257	0.01
723.437	0.01
723.617	0.06
723.797	-0.06
723.976	0.03
724.156	0.08
724.336	0.09
724.515	0.1
724.695	-0.07
724.874	0.05
725.054	0.06
725.234	-0.07
725.413	0.04
725.593	0.02
725.772	-0.05
725.952	-0.07
726.131	0.03
726.311	0.07
726.49	0.07
726.67	-0.02
726.849	-0.03
727.028	0.1
727.208	-0.03
727.387	0.11
727.567	-0.1
727.746	0.01
727.925	-0.04
728.105	-0.15
728.284	-0.05
728.463	-0.02
728.643	-0
728.822	-0.1
729.001	-0.04
729.18	0.04
729.359	0.16
729.539	0.02
729.718	0
729.897	0.11
730.076	-0.03
730.255	-0.01
730.434	0.04
730.614	0.02
730.793	0.07
730.972	-0.04
731.151	0.04
731.33	0.11
731.509	0.17
731.688	0
731.867	-0.1
732.046	-0.1
732.225	0.2
732.404	-0.08
732.583	-0.07
732.762	0.06
732.941	0.04
733.12	0.04
733.298	-0.09
733.477	0.1
733.656	0.08
733.835	-0.11
734.014	0.07
734.193	-0.01
734.371	0.06
734.55	0.06
734.729	-0.09
734.908	-0.01
735.086	0.08
735.265	0.14
735.444	-0.13
735.623	-0.04
735.801	-0.13
735.98	0.04
736.159	-0
736.337	0.09
736.516	0.04
736.694	0.08
736.873	-0.04
737.052	0.12
737.23	0.05
737.409	-0.04
737.587	0.24
737.766	-0.09
737.944	-0.03
738.123	0.16
738.301	0.06
738.479	-0.04
738.658	0.08
738.836	-0.12
739.015	0.04
739.193	0.09
739.371	-0.18
739.55	0.06
739.728	-0.05
739.906	0.15
740.085	0.17
740.263	-0.07
740.441	-0.2
740.62	0.15
740.798	0.09
740.976	-0.17
741.154	-0.1
741.332	0.2
741.511	-0.08
741.689	-0.06
741.867	0.15
742.045	0.05
742.223	0.15
742.401	-0
742.579	0.02
742.757	0.16
742.935	-0.12
743.114	-0.02
743.292	-0.11
743.47	0.11
743.648	0.07
743.826	-0.21
744.004	0.08
744.181	0.02
744.359	0.02
744.537	0.05
744.715	-0.01
744.893	0.02
745.071	0.06
745.249	-0.01
745.427	-0.11
745.605	0.02
745.782	0.04
745.96	0.11
746.138	0.1
746.316	0.1
746.493	-0.02
746.671	-0.06
746.849	0.01
747.027	0.18
747.204	-0.13
747.382	0.12
747.56	-0.06
747.737	0.12
747.915	-0.06
748.093	0.03
748.27	0.01
748.448	-0.03
748.625	-0.08
748.803	-0
748.98	-0.04
749.158	0.09
749.335	0.13
749.513	-0.04
749.69	-0
749.868	-0.04
750.045	0.05
750.223	0.03
750.4	-0.25
750.578	0.24
750.755	-0.02
750.932	-0.1
751.11	0.15
751.287	-0.17
751.464	0.17
751.642	-0.12
751.819	0.04
751.996	-0.02
752.173	-0.08
752.351	-0.08
752.528	0.11
752.705	-0.01
752.882	-0.09
753.06	-0.05
753.237	0.19
753.414	0.22
753.591	0.27
753.768	0.01
753.945	0.03
754.122	0.04
754.299	0.06
754.476	-0.04
754.654	0.17
754.831	0.15
755.008	0.03
755.185	-0.07
755.362	-0.13
755.539	-0.02
755.716	-0.06
755.892	0.08
756.069	-0.01
756.246	0.03
756.423	-0.06
756.6	0.21
756.777	-0
756.954	0.14
757.131	-0.07
757.307	-0.15
757.484	-0.12
757.661	0.07
757.838	0.08
758.015	-0
758.191	0.07
758.368	-0.04
758.545	0.12
758.721	-0
758.898	-0.06
759.075	0.02
759.251	0.09
759.428	0.02
759.605	-0.12
759.781	-0.08
759.958	0.06
760.134	0.03
760.311	-0.05
760.488	0.14
760.664	0.03
760.841	-0.03
761.017	-0.08
761.194	-0.08
761.37	0.19
761.547	0.02
761.723	0.02
761.899	0.16
762.076	-0.09
762.252	-0.14
762.429	0.01
762.605	-0.03
762.781	0.07
762.958	0.09
763.134	0.05
763.31	-0.06
763.486	0.17
763.663	-0.16
763.839	0.03
764.015	-0.12
764.191	-0.01
764.368	-0
764.544	-0.05
764.72	0.03
764.896	0.13
765.072	0.02
765.248	0.06
765.425	0.02
765.601	0.03
765.777	0.04
765.953	-0.29
766.129	0.01
766.305	-0.02
766.481	-0.01
766.657	0.04
766.833	0.2
767.009	-0.12
767.185	0.03
767.361	-0.03
767.537	-0.18
767.713	0.1
767.889	0.05
768.065	0.03
768.24	-0.08
768.416	0.06
768.592	-0.09
768.768	-0.06
768.944	0.14
769.12	-0.05
769.295	0.01
769.471	-0
769.647	0.03
769.823	0.12
769.998	0.03
770.174	-0.14
770.35	0.28
770.525	0.27
770.701	0.1
770.877	-0.07
771.052	-0.04
771.228	0.04
771.403	0.07
771.579	0.03
771.755	0.21
771.93	0.14
772.106	-0.08
772.281	-0.22
772.457	0.01
772.632	-0.03
772.808	-0.19
772.983	0.01
773.159	-0.08
773.334	0.17
773.509	-0.11
773.685	-0.06
773.86	0.41
774.036	0.17
774.211	0.04
774.386	-0.04
774.562	-0.01
774.737	-0.01
774.912	-0.08
775.087	-0.03
775.263	-0.15
775.438	0.06
775.613	-0.03
775.788	-0.03
775.964	0.2
776.139	0.36
776.314	-0.15
776.489	0.02
776.664	-0.04
776.839	-0.17
777.014	0.1
777.19	0.12
777.365	0.18
777.54	0.29
777.715	-0.1
777.89	0.14
778.065	-0.13
778.24	0.02
778.415	0.13
778.59	-0.15
778.765	-0.08
778.94	-0.13
779.115	-0.01
779.289	-0.02
779.464	-0.08
779.639	-0.05
779.814	-0.22
779.989	-0.2
780.164	0.2
780.339	0.05
780.513	-0.31
780.688	-0.16
780.863	0.16
781.038	0.14
781.212	-0.09
781.387	0.05
781.562	0.25
781.737	0.14
781.911	0.17
782.086	-0.12
782.261	0.04
782.435	0.1
782.61	-0
782.784	0.13
782.959	0.19
783.134	-0.08
783.308	-0.17
783.483	0.04
783.657	0.32
783.832	0.08
784.006	-0.34
784.181	0.12
784.355	0.07
784.53	-0.25
784.704	-0.29
784.878	0.31
785.053	0.23
785.227	-0.04
785.402	0.33
785.576	-0.14
785.75	-0.07
785.925	-0.23
786.099	0.16
786.273	0.07
786.448	0.09
786.622	0.35
786.796	0.13
786.97	-0.26
787.145	0.62
787.319	-0.27
787.493	0.04
787.667	-0.24
787.841	0.13
788.015	0.08
788.19	-0.03
788.364	0.03
788.538	0.16
788.712	0.17
788.886	-0.07
789.06	0.27
789.234	0.29
789.408	-0.25
789.582	-0.02
789.756	-0.14
789.93	-0.21
790.104	0.18
790.278	-0.07
790.452	-0.16
790.626	0.03
790.8	-0.31
790.973	-0.06
791.147	0.2
791.321	0.31
791.495	0.34
791.669	0.18
791.843	-0.04
792.016	0.24
792.19	0.52
792.364	-0.29
792.538	0.38
792.711	0.37
792.885	-0.06
793.059	0.01
793.233	-0.36
793.406	0.18
793.58	-0.03
793.754	0.08
793.927	-0.17
794.101	0.4
794.274	-0.21
794.448	0.28
794.622	0.04
794.795	0.15
794.969	-0.16
795.142	0.35
795.316	0.04
795.489	-0.36
795.663	0.51
795.836	-0.13
796.009	-0.28
796.183	0.38
796.356	0.2
796.53	0.03
796.703	0.02
796.876	0.64
797.05	-0.11
797.223	0.27
797.396	0.02
797.57	0.04
797.743	0.22
797.916	0
798.09	-0.12
798.263	0.28
798.436	0.29
798.609	-0
798.782	0.11
798.956	0.13
799.129	-0.06
799.302	-0.21
799.475	-0.08
799.648	-0.12
799.821	-0.15
799.994	0.12
800.167	-0.4
800.34	-0.1
800.514	0.06
800.687	-0.09
800.86	-0.03
801.033	-0.12
801.206	0.02
801.379	-0.43
801.551	0.18
801.724	0.34
801.897	0.41
802.07	-0.15
802.243	-0.25
802.416	-0.23
802.589	-0.05
802.762	0.06
802.935	-0.28
803.107	0.06
803.28	0.29
803.453	0.02
803.626	-0.29
803.798	0.27
803.971	-0.41
804.144	0.49
804.317	0.34
804.489	0.24
804.662	0.04
804.835	-0.03
805.007	-0.28
805.18	0.42
805.353	0.14
805.525	-0.2
805.698	-0.16
805.87	0.35
806.043	0.04
806.215	-0.11
806.388	-0.23
806.56	0.1
806.733	0.3
806.905	0.28
807.078	-0.12
807.25	-0.19
807.423	0.34
807.595	-0.15
807.768	0.31
807.94	0.15
808.112	0.16
808.285	0.08
808.457	-0.01
808.629	-0.16
808.802	0.12
808.974	-0.02
809.146	-0.15
809.318	-0.22
809.491	-0.13
809.663	0.16
809.835	0.05
810.007	0.24
810.18	-0.28
810.352	-0.55
810.524	-0.39
810.696	0.07
810.868	0.09
811.04	-0.19
811.212	-0.21
811.384	0.33
811.556	-0.08
811.728	-0
811.901	0.51
812.073	-0
812.245	0.47
812.417	0.05
812.589	-0.46
812.76	0.06
812.932	0.26
813.104	0.46
813.276	-0.2
813.448	0.36
813.62	-0.02
813.792	0.18
813.964	-0.03
814.136	-0.06
814.307	-0.59
814.479	-0.1
814.651	-0.35
814.823	0.75
814.995	-0.04
815.166	0.51
815.338	-0.69
815.51	-0.5
815.681	0.74
815.853	-0
816.025	0.12
816.196	0.21
816.368	0.23
816.54	-0.3
816.711	-0.12
816.883	0.16
817.054	0.45
817.226	-0.91
817.398	0.59
817.569	-0.01
817.741	0.26
817.912	-0.08
818.084	-0.25
818.255	0.01
818.426	-0.56
818.598	-0.19
818.769	0.01
818.941	-0.15
819.112	0.45
819.283	0.31
819.455	-0.21
819.626	-0.26
819.798	-0.07
819.969	0.33
820.14	-0.02
820.311	-0.08
820.483	0.16
820.654	0.41
820.825	0.15
820.996	0.17
821.168	-0.26
821.339	0.34
821.51	-0.26
821.681	0.1
821.852	0
822.023	-0.51
822.195	-1.16
822.366	0.44
822.537	-0.24
822.708	-0.5
822.879	-0.25
823.05	0.58
823.221	0.31
823.392	0.24
823.563	-0.04
823.734	0.04
823.905	0.23
824.076	-0.47
824.247	-0.48
824.418	-0.19
824.589	0.42
824.759	0.14
824.93	0.37
825.101	-0.78
825.272	0.51
825.443	0.86
825.614	-0.18
825.784	-0.88
825.955	0.75
826.126	0.3
826.297	-0.18
826.467	0.71
826.638	0.98
826.809	-0.98
826.98	0.26
827.15	-0.14
827.321	0.41
827.492	0.41
827.662	-0.21
827.833	0.59
828.003	0.05
828.174	-0.55
828.345	-0.61
828.515	0.49
828.686	0.03
828.856	-0.46
829.027	-0.28
829.197	0.19
829.368	0.49
829.538	-0.45
829.709	-0.28
829.879	-0.03
830.049	0.2
830.22	-0.2
830.39	-0.14
830.56	0.55
830.731	-0.07
830.901	-0.57
831.072	-0.21
831.242	0.27
831.412	0.17
831.582	-0.12
831.753	-0.36
831.923	0.22
832.093	0.45
832.263	-0.4
832.434	-0.53
832.604	-0.1
832.774	-0.26
832.944	-0.57
833.114	-0.42
833.284	0.26
833.454	-0.09
833.624	0.05
833.795	-0.34
833.965	1.21
834.135	0.42
834.305	-1.05
834.475	-0.65
834.645	-0.29
834.815	-0.8
834.985	-0.81
835.155	-0.27
835.325	0.19
835.494	0.16
835.664	-0.81
835.834	-0.83
836.004	-0.35
836.174	0.65
836.344	-0.49
836.514	-0.91
836.684	0.05
836.853	-0.03
837.023	-0.16
837.193	-0.45
837.363	0.22
837.532	0.64
837.702	0.46
837.872	-1.03
838.041	0.43
838.211	1.63
838.381	-0.89
838.55	-0.32
838.72	2.33
838.89	0.54
839.059	-0.49
839.229	-0.27
839.398	0.8
839.568	0.03
839.738	-0.06
839.907	0.98
840.077	0.53
840.246	-0.13
840.416	-0.93
840.585	-0.84
840.755	1.4
840.924	0.75
841.093	-0.79
841.263	-0.38
841.432	0.18
841.602	-0.93
841.771	-0.3
841.94	0.42
842.11	2.47
842.279	1.2
842.448	-0.61
842.617	-0.43
842.787	1.03
842.956	-0.3
843.125	0.46
843.294	0.41
843.464	0.41
843.633	0.27
843.802	-0.56
843.971	-0.38
844.14	0.62
844.309	0.63
844.479	0.12
844.648	-0.15
844.817	-0.04
844.986	0.5
845.155	-0.49
845.324	0.29
845.493	-0.46
845.662	-1.12
845.831	0.28
846	0.06
846.169	0.29
846.338	0.48
846.507	-0.1
846.676	0.44
846.844	0.07
847.013	1.73
847.182	0.18
847.351	0.04
847.52	0.38
847.689	-0.51
847.858	-0.44
848.026	-1.22
848.195	-0.4
848.364	0.02
848.533	-0.83
848.701	-0.88
848.87	0.03
849.039	1.7
849.207	0.45
849.376	0.13
849.545	1.33
849.713	-0.57
849.882	0.15
850.051	-0.19
850.219	0.15
850.388	0.46
850.556	-0.33
850.725	-0.54
850.893	-0.12
851.062	-0.84
851.23	0.36
851.399	-0.88
851.567	-1.44
851.736	-0.56
851.904	-1.04
852.073	-0.72
852.241	1.3
852.41	-0.26
852.578	0.68
852.746	-0.43
852.915	0.16
853.083	-0.44
853.251	-1.11
853.42	-0.88
853.588	0.24
853.756	0.82
853.924	0.47
854.093	-0.57
854.261	-0.69
854.429	-1.79
854.597	0.43
854.765	-1.06
854.934	1.03
855.102	0.7
855.27	0.13
855.438	0.66
855.606	0.62
855.774	0.72
855.942	-1.12
856.11	-0.72
856.278	-0.07
856.446	0.04
856.614	-0.33
856.782	-0.53
856.95	0.32
857.118	0.63
857.286	-0.46
857.454	-2.31
857.622	0.8
857.79	1.02
857.958	-1.97
858.126	-0.25
858.294	-2.48
858.462	-0.53
858.629	-0.87
858.797	-1.16
858.965	0.5
859.133	-0.28
859.301	0.01
859.468	-0.25
859.636	0.43
859.804	1.44
859.971	0.74
860.139	-1.23
860.307	1.4
860.474	-0.84
860.642	-1.6
860.81	-0.32
860.977	-0.96
861.145	0.04
861.313	-1.1
861.48	-0.25
861.648	-0.35
861.815	-0.13
861.983	-1.27
862.15	-1.7
862.318	0.9
862.485	-0.31
862.653	-1.36
862.82	-0.37
862.988	0.66
863.155	-0.23
863.322	-1.01
863.49	-1.64
863.657	-0.51
863.824	1.92
863.992	1.45
864.159	-0.31
864.326	1.88
864.494	-1.52
864.661	2.43
864.828	-2.17
864.996	1.61
865.163	2.71
865.33	-0.63
865.497	-3.16
865.664	-1.48
865.832	-1.68
865.999	-1.54
866.166	-0.67
866.333	-0.21
866.5	-0.29
866.667	0.91
866.834	-0.84
867.001	1.16
867.168	-1.97
867.335	0.49
867.502	-1.81
867.669	0.93
867.836	2.19
868.003	0.19
868.17	1.54
868.337	2.17
868.504	3.29
868.671	-0.28
868.838	-1.27
869.005	0.63
869.172	2.72
869.339	-0.1
869.505	-0.43
869.672	-0.65
869.839	2.09
870.006	-0.08
870.173	-1.72
870.339	0.68
870.506	4.91
870.673	-1.01
870.84	0.06
871.006	0.76
871.173	-1.48
871.34	-0.93
871.506	-2.06
871.673	-0.39
871.839	-2.13
872.006	0.23
872.173	0.38
872.339	0.54
872.506	2.83
872.672	-0.42
872.839	-1.07
873.005	0.23
873.172	2.31
873.338	2.22
873.505	1.1
873.671	0.79
873.838	1.95
874.004	-1.45
874.171	-2.55
874.337	-0.65
874.503	1.92
874.67	-0.24
874.836	0.58
875.002	1.09
875.169	1.27
875.335	0.14
875.501	-1.67
875.668	1.39
875.834	0.39
876	-0.54
876.166	0.43
876.332	-0.09
876.499	3.35
876.665	-1.13
876.831	0.67
876.997	3.33
877.163	0.02
877.329	-1.52
877.495	-0.13
877.662	0.66
877.828	1.04
877.994	-0.45
878.16	-2.85
878.326	-2.48
878.492	0.83
878.658	-0.3
878.824	-1.97
878.99	1.8
879.156	-2.41
879.322	3.3
879.487	-0.99
879.653	-1.01
879.819	0.03
879.985	-1.53
880.151	1.17
880.317	0.17
880.483	-0.21
880.648	1.21
880.814	-3.51
880.98	-0.96
881.146	-1.65
881.312	-1.8
881.477	-1.26
881.643	1.12
881.809	2.5
881.974	2.14
882.14	-1.77
882.306	-1.49
882.471	3.82
882.637	-1
882.803	0.71
882.968	1.64
883.134	2.97
883.299	-0.12
883.465	-0.41
883.63	0.59
883.796	1.71
883.961	0.94
884.127	-0.23
884.292	-3.7
884.458	-2.44
884.623	-2.44
