Data from Apollo_Calib_20240827__AbsoluteIrradiance__674__10-23-00-825.txt Node

Date: Wed Aug 28 10:23:00 BST 2024
User: biology
Spectrometer: FLMT08252
Trigger mode: 0
Integration Time (sec): 5.000000E-1
Scans to average: 5
Electric dark correction enabled: true
Nonlinearity correction enabled: false
Boxcar width: 0
XAxis mode: Wavelengths
Number of Pixels in Spectrum: 3648
>>>>>Begin Spectral Data<<<<<
179.588	-0
179.809	-0
180.03	-0
180.251	-0
180.473	-0
180.694	0
180.915	0
181.136	-0
181.357	0
181.578	-0
181.799	-0
182.02	-0
182.241	0
182.462	-0
182.683	0
182.904	-0
183.125	-0
183.346	0
183.567	0
183.788	-0
184.009	-0
184.23	0
184.451	0
184.672	-0
184.892	-0
185.113	0
185.334	0
185.555	-0
185.776	-0
185.996	0
186.217	0
186.438	-0
186.659	-0
186.879	0
187.1	0
187.321	-0
187.541	-0
187.762	-0
187.983	0
188.203	0
188.424	0
188.644	0
188.865	0
189.086	0
189.306	0
189.527	0
189.747	0
189.968	-0
190.188	0
190.409	0
190.629	0
190.849	-0
191.07	0
191.29	0
191.511	0
191.731	-0
191.951	-0
192.172	0
192.392	0
192.612	0
192.833	0
193.053	0
193.273	0
193.493	0
193.714	0
193.934	0
194.154	0
194.374	0
194.594	0
194.815	0
195.035	0
195.255	0
195.475	0
195.695	0
195.915	0
196.135	0
196.355	0
196.575	0
196.795	0
197.015	-0
197.235	-0
197.455	0
197.675	0
197.895	-0
198.115	0
198.335	0
198.555	0
198.775	0
198.995	0
199.214	0
199.434	0
199.654	-0
199.874	0
200.094	1.14
200.313	0.09
200.533	0.27
200.753	-0.22
200.973	0.97
201.192	0.75
201.412	-0.68
201.632	0.4
201.851	1.24
202.071	-0.5
202.291	-0.11
202.51	-0.31
202.73	0.39
202.95	0.16
203.169	-0.5
203.389	-0.03
203.608	0.57
203.828	-0.02
204.047	0.22
204.267	0.71
204.486	0.46
204.706	0.86
204.925	0.35
205.145	0.06
205.364	0.56
205.583	0.67
205.803	0.33
206.022	0.08
206.242	0.33
206.461	0.1
206.68	-0.09
206.9	0.21
207.119	0.95
207.338	0.84
207.557	-0.19
207.777	0.05
207.996	0.18
208.215	0.74
208.434	-0.15
208.654	0.08
208.873	0.17
209.092	0.53
209.311	0.16
209.53	0.05
209.749	0.07
209.968	-0.06
210.187	0.04
210.407	-0.36
210.626	0.18
210.845	0.26
211.064	0.02
211.283	-0.05
211.502	0.38
211.721	0.22
211.94	-0.18
212.159	0.2
212.377	0.36
212.596	0.31
212.815	0
213.034	0.25
213.253	0.52
213.472	0.51
213.691	-0.07
213.91	-0.27
214.128	0.03
214.347	0.51
214.566	-0.18
214.785	-0.27
215.003	0.21
215.222	0.16
215.441	0.09
215.66	-0.1
215.878	0.18
216.097	0.29
216.316	-0.08
216.534	0.1
216.753	-0.01
216.972	0.1
217.19	0.08
217.409	-0.16
217.627	-0.05
217.846	0.11
218.064	0.03
218.283	-0.1
218.501	0.53
218.72	0.28
218.938	-0.12
219.157	-0.17
219.375	0.32
219.594	0.37
219.812	-0.13
220.031	0.14
220.249	0.24
220.467	0.41
220.686	0.02
220.904	-0.19
221.122	-0.09
221.341	0.45
221.559	0.1
221.777	-0.12
221.995	0.14
222.214	0.21
222.432	-0
222.65	0.28
222.868	0.19
223.086	0.19
223.305	0.21
223.523	0.05
223.741	0.37
223.959	-0.1
224.177	-0.15
224.395	-0.01
224.613	0.2
224.831	0.26
225.049	-0.15
225.267	0.02
225.485	0.16
225.703	0.08
225.921	0.11
226.139	0.01
226.357	0.18
226.575	0.11
226.793	-0.06
227.011	0.67
227.229	0.04
227.447	0.3
227.665	0.02
227.883	-0
228.1	0.06
228.318	0.04
228.536	-0.07
228.754	0.01
228.972	0.07
229.189	0.18
229.407	0.13
229.625	-0.07
229.843	0.21
230.06	0.2
230.278	0.03
230.496	0.07
230.713	0.13
230.931	0.17
231.149	0.09
231.366	-0.12
231.584	0.1
231.801	0.43
232.019	0.03
232.236	-0.09
232.454	-0.07
232.671	0.14
232.889	0.05
233.106	-0
233.324	-0.03
233.541	0.02
233.759	0.07
233.976	-0.06
234.194	0.08
234.411	-0.02
234.628	-0.02
234.846	0.06
235.063	0.17
235.28	0.12
235.498	0.1
235.715	-0.01
235.932	0.15
236.149	0.04
236.367	-0.03
236.584	0.04
236.801	-0.01
237.018	0.11
237.236	0.11
237.453	-0.17
237.67	0.21
237.887	0.01
238.104	0.08
238.321	0.04
238.538	0.01
238.755	0.16
238.973	-0.05
239.19	0.14
239.407	0.2
239.624	0.13
239.841	-0.05
240.058	0.01
240.275	0.01
240.492	0.04
240.709	0.09
240.925	0.03
241.142	0.07
241.359	0.02
241.576	0.01
241.793	0.06
242.01	0.09
242.227	0.15
242.444	0.18
242.66	0.14
242.877	0.04
243.094	0.04
243.311	0.11
243.527	0.02
243.744	0.08
243.961	0.18
244.178	-0.12
244.394	0.06
244.611	0.13
244.828	0.18
245.044	-0.07
245.261	0.04
245.477	0.05
245.694	0.11
245.911	0.05
246.127	0.05
246.344	0.15
246.56	0.08
246.777	0.04
246.993	0.07
247.21	-0.01
247.426	0.07
247.643	0.03
247.859	-0.04
248.076	0.12
248.292	0.21
248.508	0.05
248.725	0.15
248.941	0.04
249.157	0.18
249.374	0
249.59	-0
249.806	0.04
250.023	0.11
250.239	-0.03
250.455	-0.03
250.671	0.06
250.888	0.01
251.104	0.1
251.32	0.01
251.536	0.06
251.752	0.09
251.969	0.04
252.185	0.1
252.401	0.24
252.617	0.14
252.833	0
253.049	0.13
253.265	0.06
253.481	0.15
253.697	0.05
253.913	-0.06
254.129	0.09
254.345	0.07
254.561	0.04
254.777	0.03
254.993	0.16
255.209	0.06
255.425	-0.04
255.641	0.02
255.857	0.19
256.073	0.04
256.288	-0.05
256.504	0.02
256.72	0.1
256.936	0.2
257.152	0.07
257.367	-0.01
257.583	0.05
257.799	0.19
258.015	0.05
258.23	-0.06
258.446	0.14
258.662	0.05
258.877	0.05
259.093	-0.03
259.309	0.06
259.524	0.07
259.74	0.02
259.955	-0.09
260.171	0.09
260.387	0.05
260.602	0.13
260.818	0.17
261.033	-0.01
261.249	-0.01
261.464	0.01
261.68	-0.01
261.895	0.14
262.11	0.15
262.326	-0.02
262.541	-0.03
262.757	0.09
262.972	0.09
263.187	0.11
263.403	0.01
263.618	0.08
263.833	0.02
264.049	0.04
264.264	0.06
264.479	0.14
264.694	0.18
264.91	-0.09
265.125	0.05
265.34	0.09
265.555	0.15
265.77	0.04
265.986	0.09
266.201	0.17
266.416	0.13
266.631	0.02
266.846	0.01
267.061	0.07
267.276	0.07
267.491	-0.04
267.706	0.09
267.921	0.12
268.136	0.08
268.351	0.05
268.566	-0.01
268.781	0.12
268.996	0.09
269.211	0.04
269.426	-0.03
269.641	0.04
269.856	0.08
270.071	0.04
270.285	-0.01
270.5	0.11
270.715	0.14
270.93	0.05
271.145	0.06
271.359	0.12
271.574	-0.05
271.789	0.05
272.004	-0.01
272.218	0.04
272.433	0.13
272.648	-0.02
272.862	0.11
273.077	0.05
273.292	0.05
273.506	-0
273.721	0.04
273.936	0.07
274.15	0.03
274.365	-0.03
274.579	0.11
274.794	0.07
275.008	0.05
275.223	-0.07
275.437	0.04
275.652	0.09
275.866	0.06
276.081	0.05
276.295	0.09
276.509	-0
276.724	0.04
276.938	-0.01
277.153	0.12
277.367	0.09
277.581	-0
277.796	0.02
278.01	0.03
278.224	0.14
278.438	0.14
278.653	-0.03
278.867	-0.01
279.081	-0.14
279.295	0.03
279.51	0.04
279.724	-0.07
279.938	0.08
280.152	0.08
280.366	-0.03
280.58	0.06
280.794	0.1
281.008	0.08
281.222	0.06
281.437	0.16
281.651	0.05
281.865	0.12
282.079	0.01
282.293	-0.05
282.507	0.01
282.721	0.05
282.935	0.05
283.148	-0.03
283.362	0.06
283.576	0.01
283.79	-0.01
284.004	-0.01
284.218	0.11
284.432	0.02
284.646	0.06
284.859	0.04
285.073	-0.02
285.287	0.01
285.501	0.03
285.714	0.05
285.928	0.07
286.142	0.03
286.356	0.02
286.569	-0
286.783	0.09
286.997	0.08
287.21	0.09
287.424	0.04
287.637	0.03
287.851	-0
288.065	0.08
288.278	0.03
288.492	0.09
288.705	0.02
288.919	0.11
289.132	0.01
289.346	0.11
289.559	0.01
289.773	-0.06
289.986	0.06
290.2	0.03
290.413	0.09
290.626	0.02
290.84	0
291.053	0.03
291.267	0.07
291.48	-0.01
291.693	0.04
291.906	-0.03
292.12	0.05
292.333	-0.03
292.546	0.03
292.76	0.12
292.973	0.02
293.186	0.11
293.399	0.05
293.612	0.05
293.826	0.07
294.039	0.03
294.252	0.03
294.465	0.07
294.678	0.05
294.891	0.05
295.104	-0
295.317	0.06
295.53	0.04
295.743	0.05
295.956	0.05
296.169	0.06
296.382	0.07
296.595	0.03
296.808	-0.01
297.021	0.08
297.234	0.09
297.447	0.06
297.66	0.07
297.873	0.09
298.086	0.07
298.299	0.01
298.511	-0.02
298.724	0.03
298.937	-0.03
299.15	-0.01
299.363	0.03
299.575	0.08
299.788	0.05
300.001	0
300.213	-0.02
300.426	-0
300.639	0
300.852	0.03
301.064	0.08
301.277	0.09
301.489	0.07
301.702	0.05
301.915	0.05
302.127	0.04
302.34	0.06
302.552	0.06
302.765	0.02
302.977	0.04
303.19	-0.03
303.402	0.03
303.615	0.01
303.827	0.04
304.04	0.02
304.252	0.07
304.464	-0.02
304.677	0.15
304.889	0.08
305.102	0.02
305.314	0.02
305.526	0.05
305.739	0.05
305.951	-0.01
306.163	0.01
306.375	0.13
306.588	0.04
306.8	0.02
307.012	0.02
307.224	0.03
307.436	0.11
307.649	-0.06
307.861	0.06
308.073	0.06
308.285	0.01
308.497	0.02
308.709	0.04
308.921	0.08
309.133	0.04
309.346	0
309.558	0.04
309.77	0.05
309.982	0.09
310.194	0.06
310.406	-0
310.617	0.1
310.829	0.05
311.041	0.1
311.253	-0.01
311.465	0.02
311.677	-0.03
311.889	-0.01
312.101	0.01
312.313	0.1
312.524	0.05
312.736	0.01
312.948	0.01
313.16	0.08
313.372	0.05
313.583	0.06
313.795	0.03
314.007	-0.02
314.218	0.07
314.43	0.06
314.642	-0.01
314.853	0.03
315.065	0.07
315.277	0.01
315.488	0.02
315.7	0.07
315.912	0.04
316.123	0.02
316.335	0
316.546	0.14
316.758	0.05
316.969	-0.01
317.181	0.04
317.392	0.01
317.604	0.09
317.815	-0.02
318.026	0.01
318.238	-0
318.449	0.08
318.661	-0.03
318.872	-0
319.083	-0
319.295	0.04
319.506	0.01
319.717	0.05
319.929	0
320.14	-0
320.351	0.03
320.562	0.05
320.774	0.04
320.985	0.07
321.196	-0.04
321.407	-0.02
321.618	0.03
321.829	0.02
322.041	0.05
322.252	0.06
322.463	0.06
322.674	0
322.885	0.01
323.096	0.04
323.307	0
323.518	0.02
323.729	-0.01
323.94	0.01
324.151	0.03
324.362	0.03
324.573	0.07
324.784	-0
324.995	0.12
325.206	0.04
325.417	0.01
325.628	0.03
325.838	0.02
326.049	0.03
326.26	0.06
326.471	0.03
326.682	0.09
326.892	0.01
327.103	-0.02
327.314	-0.06
327.525	0.07
327.735	0.02
327.946	-0
328.157	0
328.368	0.03
328.578	0.01
328.789	0.07
328.999	0.06
329.21	0.03
329.421	0.05
329.631	-0.01
329.842	-0.02
330.052	0.03
330.263	0.09
330.473	0.04
330.684	0.02
330.894	0.01
331.105	0.03
331.315	0.02
331.526	-0.02
331.736	0.08
331.947	0.03
332.157	0.05
332.367	-0.02
332.578	0.03
332.788	0.02
332.999	0.06
333.209	0.01
333.419	-0.03
333.629	0.03
333.84	0.05
334.05	0.04
334.26	0.11
334.47	0.03
334.681	0.08
334.891	0.03
335.101	0.06
335.311	0.11
335.521	0.02
335.732	-0.01
335.942	0.08
336.152	0.06
336.362	0.03
336.572	0.04
336.782	0.04
336.992	0.03
337.202	0.01
337.412	0.03
337.622	0.08
337.832	0.01
338.042	0.04
338.252	-0
338.462	0.01
338.672	0.02
338.882	-0
339.092	-0.01
339.302	0.09
339.511	0.05
339.721	-0.01
339.931	-0
340.141	0.03
340.351	0.07
340.561	0.06
340.77	0.05
340.98	0.03
341.19	0.05
341.4	0.01
341.609	-0.01
341.819	-0.03
342.029	-0.03
342.238	0.03
342.448	-0.03
342.658	0.09
342.867	-0.01
343.077	0.03
343.286	0.01
343.496	0.02
343.706	0.07
343.915	-0
344.125	0.05
344.334	0.09
344.544	-0.03
344.753	-0.01
344.963	-0
345.172	-0.01
345.381	0.01
345.591	0.01
345.8	0.05
346.01	0.07
346.219	0.06
346.428	-0.12
346.638	0.02
346.847	0.04
347.056	0.07
347.266	0.01
347.475	-0.02
347.684	0.03
347.893	0.04
348.103	0.04
348.312	0
348.521	0
348.73	0.03
348.94	0.03
349.149	0
349.358	0.05
349.567	0.04
349.776	-0.03
349.985	0.04
350.194	0.03
350.403	0.05
350.612	-0.03
350.821	0.02
351.03	-0
351.239	-0.04
351.448	0
351.657	-0.02
351.866	0.11
352.075	0.01
352.284	0.04
352.493	0
352.702	0.07
352.911	0.04
353.12	0.02
353.329	0.02
353.538	0.05
353.746	0.03
353.955	-0.03
354.164	0.02
354.373	-0.01
354.582	0.03
354.79	0
354.999	0.08
355.208	0
355.416	0.08
355.625	0
355.834	-0
356.042	0.05
356.251	-0
356.46	-0.01
356.668	0.05
356.877	0.08
357.085	0.06
357.294	-0.06
357.503	0.04
357.711	-0.01
357.92	0.14
358.128	0.04
358.337	0.01
358.545	0.02
358.754	-0.01
358.962	0.06
359.17	0.02
359.379	0.04
359.587	0.07
359.796	-0.02
360.004	0.08
360.212	0.04
360.421	0.05
360.629	0.01
360.837	0.03
361.046	0.06
361.254	0.09
361.462	0.04
361.67	-0.01
361.879	0.01
362.087	0.05
362.295	0.03
362.503	0.02
362.711	-0.03
362.92	0.02
363.128	-0.02
363.336	0.01
363.544	-0.02
363.752	0
363.96	0
364.168	-0.01
364.376	0.01
364.584	0.05
364.792	0.04
365	0.02
365.208	0.01
365.416	0.02
365.624	0.07
365.832	-0.01
366.04	0.06
366.248	0.02
366.456	0.03
366.664	0.04
366.872	0.02
367.079	0.01
367.287	0.02
367.495	0.03
367.703	0.03
367.911	-0
368.118	0.02
368.326	0.05
368.534	-0.01
368.742	0.07
368.949	-0.01
369.157	-0.02
369.365	0.05
369.572	-0.01
369.78	0
369.988	0.08
370.195	0.03
370.403	0.04
370.61	-0.02
370.818	0.05
371.026	0.08
371.233	-0
371.441	0.01
371.648	0.01
371.856	0.03
372.063	0.06
372.271	0.02
372.478	-0.01
372.685	-0.04
372.893	0.1
373.1	-0.02
373.308	-0.01
373.515	0.08
373.722	0.05
373.93	0.03
374.137	0.04
374.344	0.12
374.552	0.06
374.759	0
374.966	0.03
375.173	0.03
375.381	0.05
375.588	-0.02
375.795	-0.01
376.002	-0.01
376.209	-0
376.417	0.01
376.624	0.01
376.831	0.05
377.038	0.03
377.245	-0
377.452	0.04
377.659	0.02
377.866	0.01
378.073	0
378.28	-0.02
378.487	0.04
378.694	0.05
378.901	-0.03
379.108	0.01
379.315	0.08
379.522	0.13
379.729	0.04
379.936	0.06
380.143	-0
380.35	-0
380.557	0
380.763	0.05
380.97	0.02
381.177	0.03
381.384	0.06
381.591	0.05
381.797	0.01
382.004	0.07
382.211	0.04
382.418	-0.01
382.624	0.02
382.831	0.04
383.038	0.02
383.244	0.02
383.451	0.02
383.658	0.01
383.864	0.01
384.071	-0.01
384.277	0.06
384.484	-0.05
384.69	0.05
384.897	0.01
385.103	0.02
385.31	-0.02
385.516	-0.03
385.723	-0.01
385.929	0.03
386.136	-0.03
386.342	0.05
386.549	-0.01
386.755	0.07
386.961	0.09
387.168	-0.02
387.374	0.03
387.58	0.02
387.787	0.06
387.993	0.06
388.199	-0.01
388.406	-0.02
388.612	0.01
388.818	0.02
389.024	0.01
389.231	0.03
389.437	0.04
389.643	0.06
389.849	0.02
390.055	0.06
390.261	0.01
390.467	0.03
390.674	-0.03
390.88	0.05
391.086	0.03
391.292	-0.05
391.498	0.05
391.704	0.02
391.91	0.04
392.116	-0.04
392.322	-0.11
392.528	0.02
392.734	0.02
392.94	0.01
393.146	0.01
393.352	0.05
393.557	0.02
393.763	0.01
393.969	0.06
394.175	0.04
394.381	0.05
394.587	-0.01
394.792	0.02
394.998	0.08
395.204	0.03
395.41	-0.01
395.615	0.06
395.821	0.06
396.027	0.07
396.233	-0.02
396.438	0.04
396.644	0.01
396.85	0
397.055	-0.01
397.261	-0.01
397.466	0.11
397.672	0.03
397.878	0.09
398.083	0.03
398.289	0.02
398.494	0.04
398.7	0.01
398.905	-0.06
399.111	0.07
399.316	-0.02
399.522	0.02
399.727	0
399.932	0.01
400.138	0.04
400.343	0.12
400.549	0.04
400.754	0.05
400.959	0.05
401.165	0.03
401.37	0
401.575	0.13
401.78	0.04
401.986	-0.04
402.191	0.02
402.396	-0.02
402.601	0.03
402.807	0.01
403.012	0.05
403.217	0.06
403.422	0.03
403.627	-0
403.832	0
404.037	0.03
404.243	0.04
404.448	-0.03
404.653	0.03
404.858	0.05
405.063	0.04
405.268	-0
405.473	-0
405.678	-0.02
405.883	0.13
406.088	0.04
406.293	-0.04
406.498	-0
406.703	0.05
406.907	0.01
407.112	-0.02
407.317	0.03
407.522	0.08
407.727	-0.04
407.932	0.04
408.136	0.08
408.341	0.1
408.546	0.09
408.751	0.02
408.956	-0.01
409.16	0.06
409.365	0.05
409.57	-0.03
409.774	0.02
409.979	0.05
410.184	-0
410.388	-0.02
410.593	0.07
410.798	0.04
411.002	-0.03
411.207	0.07
411.411	0.02
411.616	-0.02
411.82	0.03
412.025	0.05
412.229	0.04
412.434	0.07
412.638	0.06
412.843	-0.04
413.047	0.04
413.252	-0.02
413.456	0.05
413.66	0.04
413.865	-0.01
414.069	0.07
414.273	0.01
414.478	-0.01
414.682	-0.02
414.886	0.01
415.091	-0.06
415.295	-0.08
415.499	0.04
415.703	0.01
415.908	0.06
416.112	-0.03
416.316	0.04
416.52	0
416.724	-0.01
416.929	-0.01
417.133	0.1
417.337	0
417.541	-0.01
417.745	0.04
417.949	0.01
418.153	0.02
418.357	-0.05
418.561	0.08
418.765	-0.02
418.969	0.12
419.173	0.03
419.377	-0.04
419.581	0.06
419.785	-0
419.989	-0.05
420.193	-0.02
420.397	-0.01
420.601	0.1
420.804	0.1
421.008	0.06
421.212	0.04
421.416	0.09
421.62	0.02
421.823	0.07
422.027	0.12
422.231	0.03
422.435	0.02
422.638	0.04
422.842	0.04
423.046	0
423.249	0.05
423.453	0.07
423.657	0.05
423.86	0.01
424.064	0.03
424.268	0.07
424.471	0.02
424.675	0.07
424.878	0.07
425.082	0.03
425.285	0.06
425.489	0.03
425.692	0.05
425.896	-0
426.099	0.05
426.303	0.01
426.506	-0.01
426.71	-0.01
426.913	0.04
427.116	0.03
427.32	0.04
427.523	0.04
427.726	0.09
427.93	-0.03
428.133	0.01
428.336	-0.05
428.54	-0.02
428.743	0.08
428.946	0.08
429.149	-0.02
429.353	0.06
429.556	-0.02
429.759	0.02
429.962	-0.01
430.165	0.01
430.368	0.01
430.571	0.02
430.775	0.01
430.978	0
431.181	0.05
431.384	0.04
431.587	0.02
431.79	-0.01
431.993	0.02
432.196	-0.01
432.399	-0
432.602	0.1
432.805	0.03
433.008	-0.01
433.211	-0.06
433.414	0.04
433.616	0.07
433.819	0.07
434.022	-0.09
434.225	0.08
434.428	0.07
434.631	0.11
434.833	0.02
435.036	0
435.239	0.06
435.442	0.02
435.645	-0
435.847	0.06
436.05	0.07
436.253	0.01
436.455	0
436.658	0.01
436.861	0.14
437.063	0
437.266	0.04
437.468	0.04
437.671	0.17
437.874	0.06
438.076	-0.07
438.279	-0.04
438.481	0.04
438.684	-0.01
438.886	0.08
439.089	-0.07
439.291	0.01
439.494	0.05
439.696	-0.02
439.899	-0.03
440.101	0.02
440.303	-0.07
440.506	0.05
440.708	0.03
440.91	-0
441.113	-0.06
441.315	0.07
441.517	-0.02
441.72	0.06
441.922	-0.03
442.124	-0.01
442.326	0.02
442.529	0.08
442.731	-0.04
442.933	0.09
443.135	-0.02
443.337	0.02
443.539	0.01
443.742	-0.01
443.944	0.07
444.146	0.03
444.348	-0.02
444.55	-0
444.752	0.04
444.954	-0.05
445.156	0.02
445.358	0.04
445.56	0.1
445.762	0
445.964	-0.02
446.166	-0.02
446.368	-0.01
446.57	0.06
446.772	0.02
446.974	-0.01
447.175	0.05
447.377	-0.01
447.579	-0
447.781	-0.05
447.983	0.09
448.184	-0.02
448.386	0.04
448.588	-0.05
448.79	0.02
448.991	-0.03
449.193	-0.01
449.395	0.03
449.597	0.08
449.798	-0
450	0.01
450.202	0
450.403	0.04
450.605	0.04
450.806	0.06
451.008	-0.07
451.21	0.01
451.411	0.04
451.613	0.04
451.814	0.02
452.016	0.07
452.217	0.02
452.419	0.05
452.62	0.03
452.821	0.09
453.023	0.07
453.224	0.08
453.426	0.01
453.627	0.03
453.828	0.04
454.03	0
454.231	0.04
454.432	-0.02
454.634	0.08
454.835	-0.03
455.036	-0.05
455.238	0.03
455.439	0.07
455.64	-0
455.841	-0.07
456.042	0.07
456.244	0.08
456.445	-0.02
456.646	-0.04
456.847	-0.02
457.048	0.1
457.249	0.08
457.45	0.16
457.651	-0.04
457.852	0.07
458.054	0.02
458.255	0.01
458.456	0.04
458.657	0.04
458.858	-0.05
459.058	0.04
459.259	0.06
459.46	-0.04
459.661	-0
459.862	0.1
460.063	0.01
460.264	0.04
460.465	-0.06
460.666	0.14
460.866	0.02
461.067	0.02
461.268	-0.02
461.469	-0.05
461.67	0.05
461.87	0.02
462.071	-0.01
462.272	0.01
462.473	0.01
462.673	0.06
462.874	-0
463.075	0.02
463.275	-0.03
463.476	0.07
463.676	0.05
463.877	0.07
464.078	-0
464.278	0.06
464.479	0.06
464.679	0.01
464.88	0.05
465.08	0.09
465.281	-0.02
465.481	-0.01
465.682	0.01
465.882	0.03
466.083	0.01
466.283	0
466.483	-0
466.684	-0.07
466.884	-0
467.085	0.02
467.285	-0
467.485	-0.03
467.686	-0.01
467.886	-0
468.086	0.05
468.286	0.04
468.487	0.05
468.687	-0.04
468.887	-0.01
469.087	0.04
469.287	-0.01
469.488	-0.01
469.688	-0.01
469.888	0.04
470.088	0.06
470.288	0.07
470.488	0.07
470.688	-0.03
470.888	-0.01
471.088	-0.02
471.288	0.09
471.488	0.02
471.688	0.04
471.888	-0
472.088	0.07
472.288	0.05
472.488	-0.01
472.688	0
472.888	0.02
473.088	0.04
473.288	0.03
473.488	0.03
473.688	0.08
473.887	-0.02
474.087	0
474.287	0.03
474.487	0
474.687	0.02
474.886	0
475.086	0.01
475.286	0
475.486	0.01
475.685	0.01
475.885	0
476.085	-0.02
476.284	0.05
476.484	-0.02
476.684	0.05
476.883	0.07
477.083	0.02
477.282	-0.01
477.482	0.08
477.681	0.08
477.881	0.03
478.08	-0.04
478.28	-0.05
478.479	0.03
478.679	0.09
478.878	-0.01
479.078	-0.01
479.277	0.01
479.477	0.02
479.676	0.02
479.875	0.03
480.075	-0.05
480.274	0.02
480.473	0.05
480.673	-0.02
480.872	0.04
481.071	0
481.271	0.01
481.47	-0.01
481.669	0.02
481.868	-0.01
482.067	-0.02
482.267	-0.01
482.466	0.02
482.665	-0.02
482.864	-0.04
483.063	-0.02
483.262	0.02
483.461	0.06
483.661	0.03
483.86	0
484.059	0.04
484.258	0.01
484.457	-0.01
484.656	-0
484.855	0.04
485.054	-0.02
485.253	-0.04
485.452	-0.01
485.651	0.01
485.849	0.02
486.048	-0.01
486.247	-0
486.446	-0.01
486.645	-0.02
486.844	0.02
487.043	-0
487.241	0.03
487.44	-0.03
487.639	-0.01
487.838	0.02
488.037	0.01
488.235	0.06
488.434	0.01
488.633	-0.02
488.831	0.02
489.03	0.06
489.229	0.02
489.427	0
489.626	0.05
489.825	0.07
490.023	0.02
490.222	-0.03
490.42	-0
490.619	0.04
490.817	0.03
491.016	0.01
491.214	0.02
491.413	-0.04
491.611	-0
491.81	0.01
492.008	0.03
492.207	0.04
492.405	-0
492.604	-0.01
492.802	0
493	0.02
493.199	-0.01
493.397	0.02
493.595	0.01
493.794	0.01
493.992	0.06
494.19	0.01
494.388	0.03
494.587	-0.02
494.785	0.01
494.983	-0.01
495.181	0
495.379	0.01
495.578	-0
495.776	0.01
495.974	0.03
496.172	-0
496.37	0.01
496.568	-0.02
496.766	-0.02
496.964	0.03
497.162	-0
497.36	-0.01
497.558	0.01
497.756	0
497.954	0.02
498.152	-0.02
498.35	0.01
498.548	-0
498.746	0.01
498.944	-0.03
499.142	-0.01
499.34	-0.02
499.538	0.01
499.736	-0.01
499.933	0.04
500.131	0.03
500.329	0.03
500.527	0.04
500.725	0
500.922	0.01
501.12	0.02
501.318	0.02
501.516	-0.01
501.713	0.03
501.911	-0
502.109	-0.04
502.306	0.03
502.504	0.02
502.701	-0.01
502.899	0.02
503.097	0.03
503.294	-0
503.492	0
503.689	0.02
503.887	0.03
504.084	0.05
504.282	0.02
504.479	-0.03
504.677	0
504.874	-0.03
505.072	0.02
505.269	-0.01
505.466	0.03
505.664	0.01
505.861	-0.03
506.059	-0.03
506.256	0.02
506.453	-0
506.651	0.05
506.848	0.03
507.045	0.03
507.242	0.02
507.44	-0.02
507.637	-0.01
507.834	-0.01
508.031	0.04
508.229	-0.01
508.426	0.01
508.623	0.02
508.82	-0.01
509.017	0
509.214	-0.01
509.411	0.03
509.608	0
509.805	-0.01
510.003	-0.01
510.2	-0.01
510.397	0.05
510.594	-0.02
510.791	-0.01
510.988	-0.01
511.184	0.04
511.381	0.01
511.578	0
511.775	0.02
511.972	-0.01
512.169	-0
512.366	0
512.563	0.01
512.76	-0
512.956	0.06
513.153	0
513.35	-0.01
513.547	0
513.744	-0.02
513.94	-0.03
514.137	0.02
514.334	-0.01
514.53	0.01
514.727	0.03
514.924	0.03
515.12	-0.01
515.317	-0.02
515.514	-0
515.71	-0.03
515.907	-0.02
516.103	0.01
516.3	0.02
516.497	0.02
516.693	0.04
516.89	0.01
517.086	-0.01
517.283	0.06
517.479	-0.01
517.676	-0
517.872	-0
518.068	0
518.265	-0.02
518.461	0.02
518.658	-0.02
518.854	0.01
519.05	0
519.247	-0.02
519.443	0.03
519.639	0.03
519.836	-0.01
520.032	0
520.228	0.01
520.424	0.05
520.621	0.01
520.817	0.01
521.013	0.02
521.209	0
521.405	0.04
521.601	0.01
521.798	0.01
521.994	0.05
522.19	-0
522.386	-0.02
522.582	0
522.778	-0.01
522.974	0.01
523.17	-0.01
523.366	0
523.562	0.04
523.758	0.01
523.954	-0.02
524.15	-0.03
524.346	0.04
524.542	0
524.738	-0
524.934	0.01
525.129	0.02
525.325	0.01
525.521	-0
525.717	0.02
525.913	0
526.109	0.01
526.304	-0
526.5	0.03
526.696	0.02
526.892	-0.01
527.087	0.01
527.283	-0.01
527.479	0.03
527.674	-0.01
527.87	0.02
528.066	0.01
528.261	0.04
528.457	0
528.653	0
528.848	-0
529.044	0.03
529.239	0.02
529.435	0.03
529.63	0.02
529.826	0.05
530.021	0.01
530.217	0.02
530.412	-0
530.608	-0
530.803	0.02
530.999	0.01
531.194	-0.04
531.389	0
531.585	-0.04
531.78	-0
531.975	0
532.171	0.04
532.366	0.01
532.561	0.02
532.757	-0.02
532.952	0
533.147	0.03
533.342	0.01
533.538	-0
533.733	0.02
533.928	0.01
534.123	-0.02
534.318	-0.01
534.513	-0.01
534.709	-0.01
534.904	-0.01
535.099	0.01
535.294	0.01
535.489	0.02
535.684	0.01
535.879	-0.01
536.074	0.01
536.269	-0.04
536.464	0.02
536.659	0.01
536.854	0.01
537.049	0.01
537.244	0.01
537.439	-0.01
537.634	0.02
537.828	0
538.023	0
538.218	-0.03
538.413	0.02
538.608	-0.03
538.803	0.02
538.997	-0.02
539.192	0.01
539.387	0.03
539.582	0.02
539.776	0.02
539.971	-0.01
540.166	-0
540.36	-0.01
540.555	0.01
540.75	-0.01
540.944	0.02
541.139	-0.04
541.334	-0
541.528	0.03
541.723	0.02
541.917	-0
542.112	-0.04
542.306	0
542.501	-0
542.695	0.01
542.89	-0.01
543.084	0.02
543.279	0.02
543.473	-0.02
543.668	0
543.862	-0
544.056	0.02
544.251	-0
544.445	0.02
544.64	0
544.834	-0.03
545.028	0
545.222	0.02
545.417	0.04
545.611	0.01
545.805	0.02
546	-0.02
546.194	-0.01
546.388	-0.02
546.582	0.02
546.776	-0
546.97	0
547.165	0.01
547.359	0.03
547.553	0
547.747	0.01
547.941	0.02
548.135	-0.02
548.329	0.02
548.523	0.01
548.717	-0
548.911	-0
549.105	0.01
549.299	-0.02
549.493	0.02
549.687	0.01
549.881	0.03
550.075	0
550.269	-0.04
550.463	0.02
550.657	0
550.85	-0
551.044	-0.02
551.238	0.01
551.432	0.01
551.626	-0.02
551.82	-0.01
552.013	-0.02
552.207	-0
552.401	0.02
552.594	0
552.788	0.01
552.982	0.02
553.176	-0.01
553.369	-0
553.563	0.03
553.756	-0.02
553.95	-0.02
554.144	-0.01
554.337	0.04
554.531	-0
554.724	0.01
554.918	-0
555.111	0.02
555.305	0
555.498	0.05
555.692	0.04
555.885	-0.01
556.079	0.02
556.272	-0.01
556.466	0.02
556.659	0.01
556.852	-0
557.046	-0.01
557.239	0.04
557.432	-0.01
557.626	-0.01
557.819	0.01
558.012	0.01
558.206	0.02
558.399	0.03
558.592	0.01
558.785	-0
558.979	0.04
559.172	-0.01
559.365	0.02
559.558	0
559.751	-0.02
559.944	0.02
560.138	0.02
560.331	0.01
560.524	-0.02
560.717	-0.01
560.91	0
561.103	0.02
561.296	-0
561.489	0.04
561.682	0.01
561.875	0.02
562.068	0
562.261	0.02
562.454	0.03
562.647	0.02
562.84	0.04
563.032	0
563.225	0.03
563.418	0.01
563.611	-0.02
563.804	0.02
563.997	-0.03
564.19	-0.03
564.382	-0.06
564.575	0
564.768	0.01
564.961	0
565.153	-0.01
565.346	0.04
565.539	0.03
565.731	0.02
565.924	0.03
566.117	0.03
566.309	0
566.502	0
566.695	0.02
566.887	0
567.08	-0.02
567.272	-0.01
567.465	-0.02
567.657	0.02
567.85	0.02
568.042	0.03
568.235	0.02
568.427	0.01
568.62	-0.01
568.812	0.02
569.005	0
569.197	-0.05
569.389	0.02
569.582	0.04
569.774	0.04
569.966	-0.03
570.159	-0.03
570.351	0.03
570.543	-0.02
570.736	0.01
570.928	-0.01
571.12	0.01
571.312	-0.01
571.505	-0.04
571.697	0.02
571.889	-0.02
572.081	0
572.273	-0.03
572.465	0.04
572.658	0.01
572.85	0.01
573.042	0
573.234	0.01
573.426	0.02
573.618	-0.02
573.81	0.02
574.002	0.02
574.194	0.02
574.386	-0.02
574.578	-0.05
574.77	-0.01
574.962	-0.02
575.154	-0.02
575.346	-0.02
575.538	-0.01
575.729	0.01
575.921	0
576.113	-0.01
576.305	0.01
576.497	-0.01
576.689	-0.01
576.88	-0.02
577.072	0.03
577.264	0.02
577.456	0.02
577.647	-0.05
577.839	0.02
578.031	0.03
578.223	-0.03
578.414	-0.01
578.606	0.01
578.798	0.01
578.989	-0.03
579.181	0.02
579.372	0.01
579.564	-0
579.755	0.03
579.947	0.01
580.139	0.03
580.33	-0.05
580.522	-0.02
580.713	-0.06
580.905	-0
581.096	0
581.287	-0.01
581.479	-0
581.67	0.03
581.862	-0
582.053	-0.02
582.244	-0.03
582.436	-0.01
582.627	0.01
582.818	-0.02
583.01	-0.02
583.201	0.03
583.392	0.02
583.583	0.01
583.775	-0.01
583.966	-0.03
584.157	-0.03
584.348	-0.02
584.54	-0.03
584.731	0.02
584.922	-0
585.113	-0.03
585.304	0.03
585.495	0.03
585.686	-0
585.877	0.01
586.068	0.02
586.259	0.02
586.45	-0
586.641	-0.02
586.832	-0.03
587.023	-0
587.214	-0.01
587.405	0.01
587.596	-0.01
587.787	0.06
587.978	0.03
588.169	-0.01
588.36	-0.02
588.551	0.01
588.742	-0
588.932	0
589.123	-0.02
589.314	0.01
589.505	0.02
589.696	0.01
589.886	-0.02
590.077	-0.03
590.268	0.02
590.458	-0.01
590.649	-0.05
590.84	0.02
591.03	-0.01
591.221	-0.01
591.412	-0.04
591.602	0.05
591.793	0.03
591.984	-0.01
592.174	-0.02
592.365	0.06
592.555	-0.01
592.746	0.03
592.936	0.01
593.127	0.02
593.317	0.06
593.508	-0.01
593.698	-0.02
593.889	0.03
594.079	0.01
594.269	-0.02
594.46	0.01
594.65	0.01
594.84	0.03
595.031	-0
595.221	-0
595.411	-0.04
595.602	0.04
595.792	0
595.982	-0.01
596.172	0.05
596.363	0.02
596.553	0.02
596.743	0
596.933	0
597.123	0.04
597.314	-0.02
597.504	-0.02
597.694	0.04
597.884	0.03
598.074	0.01
598.264	-0.01
598.454	0.04
598.644	-0.01
598.834	-0
599.024	-0.06
599.214	-0
599.404	0.03
599.594	-0
599.784	-0.02
599.974	0.03
600.164	0.01
600.354	-0.04
600.544	-0.04
600.734	-0.01
600.924	0.05
601.114	-0.01
601.303	0.01
601.493	0.01
601.683	-0
601.873	0.01
602.063	-0.04
602.252	0.02
602.442	-0.06
602.632	-0.01
602.821	-0.03
603.011	0.02
603.201	-0.01
603.39	-0
603.58	-0.01
603.77	0.02
603.959	0.03
604.149	0.02
604.339	0.01
604.528	0.02
604.718	0.04
604.907	-0.03
605.097	-0.01
605.286	-0.02
605.476	0.03
605.665	0.05
605.855	-0
606.044	0.05
606.234	0.01
606.423	0
606.612	-0.04
606.802	0.01
606.991	0.02
607.181	0.02
607.37	-0.02
607.559	-0.02
607.749	-0.05
607.938	-0.02
608.127	-0
608.316	-0.01
608.506	0
608.695	-0
608.884	-0.01
609.073	0.01
609.263	0.02
609.452	0.03
609.641	0.02
609.83	-0.02
610.019	0
610.208	-0.03
610.397	0.01
610.586	0.05
610.775	-0.04
610.965	-0.03
611.154	-0.01
611.343	0.02
611.532	0.01
611.721	-0.01
611.91	-0.02
612.099	0.03
612.287	0.02
612.476	-0.02
612.665	0.02
612.854	0.01
613.043	0.03
613.232	0.01
613.421	-0.04
613.61	0.01
613.798	-0.03
613.987	0.04
614.176	0.03
614.365	0.02
614.554	0.03
614.742	0.04
614.931	-0.01
615.12	0.03
615.309	0.01
615.497	-0
615.686	-0.02
615.875	-0.02
616.063	0.01
616.252	-0.03
616.44	-0.01
616.629	-0.01
616.818	0.06
617.006	0.02
617.195	0.01
617.383	0.03
617.572	0.01
617.76	-0.02
617.949	-0.01
618.137	0.03
618.326	0.03
618.514	0.03
618.703	0.01
618.891	0.08
619.079	-0.04
619.268	0.01
619.456	-0.01
619.644	0.05
619.833	-0.01
620.021	-0.01
620.209	-0.03
620.398	0.02
620.586	0
620.774	0.03
620.962	-0.01
621.151	0.03
621.339	-0.01
621.527	-0.03
621.715	-0.01
621.903	-0.03
622.092	-0.05
622.28	0.04
622.468	0.01
622.656	-0.02
622.844	0.04
623.032	-0.03
623.22	-0.03
623.408	0.02
623.596	0.04
623.784	0.04
623.972	-0
624.16	0.01
624.348	0.08
624.536	-0.02
624.724	-0.04
624.912	0.04
625.1	0.07
625.288	-0.03
625.476	-0.05
625.664	0.06
625.851	0.01
626.039	0.01
626.227	0.02
626.415	0.02
626.603	-0.06
626.79	0.03
626.978	0.01
627.166	0.01
627.354	0.01
627.541	-0.02
627.729	-0.07
627.917	0.04
628.104	0.06
628.292	0.01
628.48	-0
628.667	0.06
628.855	0
629.042	0.02
629.23	0.01
629.418	-0
629.605	-0.02
629.793	0
629.98	-0.01
630.168	0.02
630.355	0.03
630.543	0.02
630.73	-0.02
630.917	0.02
631.105	0.09
631.292	-0.01
631.48	-0.02
631.667	0.06
631.854	0.02
632.042	0.01
632.229	-0.02
632.416	-0.01
632.604	-0.01
632.791	-0.02
632.978	0.02
633.165	0.01
633.353	0.06
633.54	0.07
633.727	-0.04
633.914	0.01
634.101	-0.07
634.289	0.05
634.476	-0.02
634.663	-0.02
634.85	0.01
635.037	-0.04
635.224	-0.05
635.411	-0.01
635.598	0.06
635.785	0.03
635.972	0.01
636.159	0.02
636.346	-0.02
636.533	0.01
636.72	0.01
636.907	-0.01
637.094	0.01
637.281	-0.02
637.468	-0.01
637.655	-0.01
637.842	0.01
638.029	0.02
638.215	0.03
638.402	0.02
638.589	-0.01
638.776	-0.02
638.963	-0.02
639.149	0.08
639.336	0.04
639.523	0.01
639.709	-0.02
639.896	-0
640.083	0.04
640.27	0.02
640.456	-0.01
640.643	0.01
640.829	-0.05
641.016	0.03
641.203	-0.04
641.389	0.04
641.576	0.01
641.762	0.03
641.949	-0.03
642.135	0.02
642.322	0.06
642.508	-0.03
642.695	0.01
642.881	-0
643.068	-0.04
643.254	0.02
643.441	0.06
643.627	-0.01
643.813	-0
644	0.05
644.186	0.01
644.372	-0.04
644.559	0.04
644.745	-0.01
644.931	-0.03
645.118	0.02
645.304	0.02
645.49	-0.01
645.676	0.02
645.862	0.02
646.049	0.08
646.235	0.04
646.421	0.07
646.607	0.09
646.793	0
646.979	-0.01
647.165	0.06
647.352	0.02
647.538	0.03
647.724	0.02
647.91	0.04
648.096	0.04
648.282	0.06
648.468	0.02
648.654	-0.01
648.84	0.03
649.026	0.02
649.212	0.04
649.397	-0.01
649.583	-0.02
649.769	0.05
649.955	-0.01
650.141	0.05
650.327	0.07
650.513	-0.04
650.698	0.02
650.884	-0.05
651.07	0.01
651.256	0.06
651.442	0.02
651.627	0.03
651.813	0.03
651.999	-0.01
652.184	0.02
652.37	0.01
652.556	-0.02
652.741	0.07
652.927	-0.08
653.113	0.05
653.298	0.02
653.484	0.01
653.669	-0.01
653.855	0.01
654.04	0.04
654.226	0.02
654.412	-0.02
654.597	-0.03
654.782	0.04
654.968	0.06
655.153	0.03
655.339	-0
655.524	0.01
655.71	0.05
655.895	0.02
656.08	0.03
656.266	0.05
656.451	0.03
656.636	-0.02
656.822	0.02
657.007	0
657.192	-0.01
657.378	-0.01
657.563	0.01
657.748	0.05
657.933	0.03
658.118	0
658.304	0.02
658.489	0.09
658.674	0.03
658.859	0.02
659.044	0.04
659.229	0.03
659.414	0.02
659.599	0.04
659.785	0.02
659.97	-0.02
660.155	0.09
660.34	0.04
660.525	0.02
660.71	-0.02
660.895	0.09
661.08	0.01
661.264	0.02
661.449	0.11
661.634	0.09
661.819	0.01
662.004	0.07
662.189	-0.05
662.374	0.03
662.559	0.04
662.743	-0.02
662.928	0.06
663.113	0.03
663.298	-0.01
663.483	0
663.667	0.07
663.852	-0.01
664.037	0.08
664.221	-0.01
664.406	0.07
664.591	0.06
664.775	0.07
664.96	0.08
665.145	0.07
665.329	0.08
665.514	0.01
665.698	0.05
665.883	-0
666.068	0.11
666.252	0.03
666.437	0.03
666.621	0.03
666.806	0.07
666.99	0.05
667.174	0.02
667.359	0.11
667.543	0.01
667.728	0.05
667.912	0
668.096	0.08
668.281	0.03
668.465	0.04
668.649	0.09
668.834	0.02
669.018	0.05
669.202	0.07
669.387	0.05
669.571	0.09
669.755	0.04
669.939	0.08
670.124	0.07
670.308	0.13
670.492	0.12
670.676	0.09
670.86	0.08
671.044	0.04
671.228	0.09
671.413	0.02
671.597	0.08
671.781	0.06
671.965	0.1
672.149	0.1
672.333	0.07
672.517	0.07
672.701	0.1
672.885	0.08
673.069	0.02
673.253	0.13
673.437	0.09
673.621	0.05
673.804	0.11
673.988	0.09
674.172	0.06
674.356	0.04
674.54	0.12
674.724	0.16
674.908	0.11
675.091	0.11
675.275	0.11
675.459	0.16
675.643	0.17
675.826	0.13
676.01	0.09
676.194	0.12
676.377	0.15
676.561	0.1
676.745	0.11
676.928	0.12
677.112	0.17
677.296	0.11
677.479	0.12
677.663	0.12
677.846	0.12
678.03	0.12
678.213	0.13
678.397	0.16
678.58	0.11
678.764	0.11
678.947	0.13
679.131	0.11
679.314	0.17
679.498	0.12
679.681	0.18
679.865	0.19
680.048	0.16
680.231	0.17
680.415	0.16
680.598	0.14
680.781	0.15
680.965	0.17
681.148	0.18
681.331	0.17
681.514	0.23
681.698	0.13
681.881	0.17
682.064	0.22
682.247	0.2
682.43	0.13
682.614	0.23
682.797	0.24
682.98	0.24
683.163	0.15
683.346	0.25
683.529	0.17
683.712	0.18
683.895	0.2
684.078	0.14
684.261	0.17
684.444	0.25
684.627	0.22
684.81	0.17
684.993	0.21
685.176	0.24
685.359	0.21
685.542	0.24
685.725	0.28
685.908	0.3
686.091	0.22
686.274	0.31
686.457	0.27
686.639	0.27
686.822	0.28
687.005	0.26
687.188	0.29
687.371	0.34
687.553	0.31
687.736	0.27
687.919	0.34
688.102	0.32
688.284	0.3
688.467	0.27
688.65	0.33
688.832	0.29
689.015	0.34
689.197	0.27
689.38	0.4
689.563	0.41
689.745	0.28
689.928	0.29
690.11	0.35
690.293	0.43
690.475	0.35
690.658	0.32
690.84	0.38
691.023	0.37
691.205	0.32
691.388	0.41
691.57	0.38
691.752	0.38
691.935	0.31
692.117	0.4
692.3	0.43
692.482	0.38
692.664	0.4
692.847	0.47
693.029	0.46
693.211	0.49
693.393	0.45
693.576	0.43
693.758	0.49
693.94	0.45
694.122	0.47
694.304	0.52
694.487	0.53
694.669	0.59
694.851	0.47
695.033	0.52
695.215	0.52
695.397	0.48
695.579	0.57
695.761	0.49
695.943	0.48
696.125	0.63
696.308	0.63
696.49	0.51
696.671	0.72
696.853	0.59
697.035	0.82
697.217	0.67
697.399	0.68
697.581	0.65
697.763	0.7
697.945	0.6
698.127	0.73
698.309	0.79
698.491	0.76
698.672	0.78
698.854	0.8
699.036	0.84
699.218	0.7
699.399	0.86
699.581	0.85
699.763	0.74
699.945	0.75
700.126	0.77
700.308	0.88
700.49	0.75
700.671	0.81
700.853	0.91
701.035	0.85
701.216	0.88
701.398	0.86
701.579	0.93
701.761	1.02
701.943	0.96
702.124	0.98
702.306	1.03
702.487	1.2
702.669	1.01
702.85	1.06
703.031	1
703.213	1.18
703.394	1.16
703.576	1.07
703.757	1.29
703.938	1.24
704.12	1.33
704.301	1.21
704.483	1.19
704.664	1.29
704.845	1.36
705.026	1.44
705.208	1.3
705.389	1.29
705.57	1.37
705.751	1.39
705.933	1.42
706.114	1.46
706.295	1.47
706.476	1.44
706.657	1.53
706.838	1.49
707.02	1.59
707.201	1.53
707.382	1.62
707.563	1.6
707.744	1.67
707.925	1.57
708.106	1.66
708.287	1.69
708.468	1.87
708.649	1.79
708.83	1.85
709.011	1.85
709.192	2
709.373	1.87
709.554	1.92
709.734	2.02
709.915	2.02
710.096	2
710.277	1.91
710.458	2.12
710.639	2.01
710.819	2
711	2.12
711.181	2.32
711.362	2.33
711.542	2.29
711.723	2.27
711.904	2.39
712.085	2.41
712.265	2.38
712.446	2.36
712.627	2.57
712.807	2.48
712.988	2.7
713.168	2.59
713.349	2.7
713.53	2.59
713.71	2.69
713.891	2.7
714.071	2.8
714.252	2.86
714.432	2.91
714.613	2.83
714.793	3.03
714.974	3.22
715.154	3.21
715.334	3.29
715.515	3.27
715.695	3.12
715.876	3.28
716.056	3.31
716.236	3.34
716.417	3.43
716.597	3.46
716.777	3.69
716.957	3.54
717.138	3.73
717.318	3.77
717.498	3.73
717.678	3.93
717.859	3.91
718.039	3.88
718.219	4.01
718.399	4.1
718.579	4.15
718.759	4.22
718.939	4.33
719.12	4.33
719.3	4.4
719.48	4.31
719.66	4.43
719.84	4.77
720.02	4.74
720.2	4.64
720.38	4.86
720.56	5.03
720.74	4.9
720.92	5.04
721.1	5.29
721.279	5.35
721.459	5.32
721.639	5.31
721.819	5.46
721.999	5.56
722.179	5.62
722.359	5.47
722.538	5.82
722.718	5.78
722.898	5.97
723.078	5.94
723.257	6.08
723.437	6.16
723.617	6.27
723.797	6.33
723.976	6.48
724.156	6.69
724.336	6.74
724.515	6.93
724.695	6.85
724.874	6.99
725.054	7.06
725.234	7.07
725.413	7.27
725.593	7.19
725.772	7.38
725.952	7.51
726.131	7.56
726.311	7.64
726.49	7.8
726.67	7.83
726.849	7.84
727.028	8.11
727.208	8.03
727.387	8.37
727.567	8.18
727.746	8.27
727.925	8.6
728.105	8.54
728.284	8.71
728.463	8.59
728.643	9.01
728.822	8.98
729.001	9.02
729.18	9.18
729.359	9.41
729.539	9.54
729.718	9.32
729.897	9.68
730.076	9.67
730.255	9.76
730.434	9.99
730.614	10.15
730.793	10.3
730.972	10.36
731.151	10.39
731.33	10.6
731.509	10.66
731.688	10.5
731.867	11
732.046	10.72
732.225	11.24
732.404	10.84
732.583	11.25
732.762	11.42
732.941	11.52
733.12	11.8
733.298	11.8
733.477	12
733.656	11.8
733.835	12.08
734.014	12.24
734.193	12.32
734.371	12.4
734.55	12.51
734.729	12.43
734.908	12.58
735.086	12.63
735.265	12.7
735.444	12.62
735.623	12.97
735.801	13.21
735.98	13.05
736.159	13.13
736.337	13.1
736.516	13.25
736.694	13.08
736.873	13.17
737.052	13.79
737.23	13.43
737.409	13.1
737.587	13.53
737.766	13.26
737.944	13.22
738.123	13.43
738.301	13.37
738.479	13.47
738.658	13.36
738.836	13.01
739.015	13.16
739.193	13.3
739.371	12.6
739.55	12.68
739.728	12.39
739.906	12.84
740.085	12.61
740.263	12.37
740.441	12.04
740.62	12.27
740.798	11.85
740.976	11.46
741.154	11.37
741.332	11.5
741.511	11.08
741.689	10.81
741.867	10.85
742.045	10.42
742.223	10
742.401	9.91
742.579	9.51
742.757	9.48
742.935	9.19
743.114	8.95
743.292	8.89
743.47	8.65
743.648	8.43
743.826	8.26
744.004	8.08
744.181	7.79
744.359	7.51
744.537	7.4
744.715	6.93
744.893	7.06
745.071	6.74
745.249	6.49
745.427	6.39
745.605	6.31
745.782	5.92
745.96	5.96
746.138	5.76
746.316	5.47
746.493	5.16
746.671	5.08
746.849	5.03
747.027	4.92
747.204	4.67
747.382	4.61
747.56	4.26
747.737	4.13
747.915	4.03
748.093	4.15
748.27	3.72
748.448	3.65
748.625	3.43
748.803	3.42
748.98	3.3
749.158	3.3
749.335	3.36
749.513	3.1
749.69	2.92
749.868	2.88
750.045	2.83
750.223	2.7
750.4	2.5
750.578	2.7
750.755	2.55
750.932	2.38
751.11	2.36
751.287	2.23
751.464	2.42
751.642	2.06
751.819	2.15
751.996	2.01
752.173	1.95
752.351	1.77
752.528	1.79
752.705	1.77
752.882	1.65
753.06	1.7
753.237	1.79
753.414	1.79
753.591	1.78
753.768	1.49
753.945	1.52
754.122	1.36
754.299	1.4
754.476	1.19
754.654	1.31
754.831	1.26
755.008	1.22
755.185	1.18
755.362	1.17
755.539	1.22
755.716	0.98
755.892	1.21
756.069	1.04
756.246	1.01
756.423	0.98
756.6	1.11
756.777	0.88
756.954	1.01
757.131	0.87
757.307	0.74
757.484	0.76
757.661	0.77
757.838	0.81
758.015	0.68
758.191	0.76
758.368	0.81
758.545	0.79
758.721	0.76
758.898	0.61
759.075	0.75
759.251	0.69
759.428	0.54
759.605	0.45
759.781	0.52
759.958	0.62
760.134	0.66
760.311	0.54
760.488	0.66
760.664	0.71
760.841	0.64
761.017	0.42
761.194	0.52
761.37	0.62
761.547	0.48
761.723	0.36
761.899	0.59
762.076	0.33
762.252	0.21
762.429	0.35
762.605	0.5
762.781	0.39
762.958	0.41
763.134	0.42
763.31	0.35
763.486	0.45
763.663	0.21
763.839	0.42
764.015	0.16
764.191	0.11
764.368	0.43
764.544	0.19
764.72	0.27
764.896	0.39
765.072	0.41
765.248	0.3
765.425	0.24
765.601	0.3
765.777	0.24
765.953	0.11
766.129	0.14
766.305	0.22
766.481	0.35
766.657	0.24
766.833	0.61
767.009	0.18
767.185	0.17
767.361	0.2
767.537	0.11
767.713	0.35
767.889	0.17
768.065	0.28
768.24	0.09
768.416	0.37
768.592	0.04
768.768	0.28
768.944	0.22
769.12	0.11
769.295	0.02
769.471	0.32
769.647	0.21
769.823	0.36
769.998	0.07
770.174	0.05
770.35	0.62
770.525	0.42
770.701	0.25
770.877	0.09
771.052	0.06
771.228	0.25
771.403	0.18
771.579	0.3
771.755	0.47
771.93	0.09
772.106	-0.04
772.281	-0.1
772.457	0.12
772.632	0.17
772.808	-0.07
772.983	0.06
773.159	-0.04
773.334	0.34
773.509	0.12
773.685	-0.01
773.86	0.52
774.036	0.29
774.211	0.14
774.386	0.03
774.562	0.11
774.737	0.33
774.912	0.03
775.087	0.21
775.263	0.22
775.438	0.22
775.613	0.1
775.788	0.03
775.964	0.17
776.139	0.47
776.314	-0.04
776.489	0.12
776.664	0.08
776.839	-0
777.014	0.22
777.19	0.17
777.365	0.14
777.54	0.24
777.715	0.03
777.89	0.14
778.065	0.02
778.24	0.17
778.415	0.38
778.59	-0.07
778.765	0.03
778.94	0.26
779.115	0.09
779.289	0.12
779.464	0.14
779.639	-0.05
779.814	-0.15
779.989	-0.16
780.164	0.3
780.339	0.12
780.513	-0.09
780.688	-0.1
780.863	0.09
781.038	0.35
781.212	0.03
781.387	0.18
781.562	0.32
781.737	-0.01
781.911	0.26
782.086	0.05
782.261	-0.05
782.435	0.3
782.61	0.01
782.784	0.13
782.959	0.36
783.134	-0.17
783.308	0.02
783.483	0.11
783.657	0.51
783.832	0.28
784.006	-0.24
784.181	0.05
784.355	0.24
784.53	-0.12
784.704	0
784.878	0.27
785.053	0.12
785.227	0.36
785.402	0.45
785.576	-0.04
785.75	0.06
785.925	0.08
786.099	0.18
786.273	0.16
786.448	0.37
786.622	0.35
786.796	0.19
786.97	-0.09
787.145	0.49
787.319	-0.3
787.493	-0.05
787.667	-0.14
787.841	0.28
788.015	0.05
788.19	0.02
788.364	0.16
788.538	0.32
788.712	0.28
788.886	0.04
789.06	0.3
789.234	0.14
789.408	-0.09
789.582	0.13
789.756	0
789.93	-0.12
790.104	0.04
790.278	0.03
790.452	-0.2
790.626	0.22
790.8	-0.11
790.973	0.24
791.147	0.42
791.321	0.08
791.495	0.14
791.669	0.22
791.843	0.03
792.016	0.13
792.19	0.26
792.364	0.09
792.538	0.76
792.711	0.34
792.885	0.04
793.059	-0.14
793.233	-0.33
793.406	0.47
793.58	0.22
793.754	0.22
793.927	0.02
794.101	0.32
794.274	-0.03
794.448	0.2
794.622	-0.1
794.795	0.19
794.969	-0.15
795.142	0.47
795.316	0.01
795.489	-0.1
795.663	0.18
795.836	0.08
796.009	-0.27
796.183	0.45
796.356	0.57
796.53	0.02
796.703	-0.1
796.876	0.77
797.05	-0
797.223	0.12
797.396	0.08
797.57	0.23
797.743	0.32
797.916	0.2
798.09	0.11
798.263	0.52
798.436	0.41
798.609	0.26
798.782	-0.11
798.956	0.02
799.129	0.1
799.302	0.08
799.475	0.2
799.648	-0.03
799.821	-0.26
799.994	0.21
800.167	-0.02
800.34	0.17
800.514	0.15
800.687	-0.11
800.86	0.28
801.033	0.12
801.206	0
801.379	-0.02
801.551	0.67
801.724	0.28
801.897	0.53
802.07	0.07
802.243	-0.34
802.416	-0.18
802.589	0.22
802.762	0.08
802.935	0.14
803.107	0.06
803.28	0.28
803.453	0.34
803.626	-0.02
803.798	0.08
803.971	-0.14
804.144	0.24
804.317	0.09
804.489	0.37
804.662	0.05
804.835	0.15
805.007	-0.26
805.18	0.29
805.353	0.45
805.525	-0.05
805.698	0.01
805.87	0.54
806.043	0.4
806.215	-0.16
806.388	-0.05
806.56	0.13
806.733	0.55
806.905	0.16
807.078	-0.12
807.25	-0.13
807.423	0.12
807.595	0.38
807.768	-0.04
807.94	0.19
808.112	0.37
808.285	0.03
808.457	-0.01
808.629	-0.08
808.802	0.31
808.974	0.01
809.146	-0.06
809.318	-0.37
809.491	-0.15
809.663	0.34
809.835	-0.01
810.007	-0.23
810.18	0.42
810.352	-0.2
810.524	0.16
810.696	-0.14
810.868	0.41
811.04	0.42
811.212	-0.09
811.384	0.5
811.556	-0.13
811.728	-0.07
811.901	0.49
812.073	-0.09
812.245	0.27
812.417	0.04
812.589	-0.53
812.76	0.33
812.932	0.25
813.104	0.55
813.276	-0.01
813.448	0.36
813.62	0.15
813.792	0.23
813.964	-0.02
814.136	0.43
814.307	-0.44
814.479	-0.39
814.651	0.04
814.823	0.94
814.995	0.17
815.166	0.25
815.338	-0.04
815.51	-0.38
815.681	0.74
815.853	0.07
816.025	-0.01
816.196	0.5
816.368	0.56
816.54	-0.19
816.711	-0.07
816.883	0.42
817.054	0.91
817.226	-0.52
817.398	-0.01
817.569	-0.26
817.741	-0.02
817.912	0.42
818.084	0.43
818.255	0.09
818.426	0.02
818.598	0.38
818.769	-0.32
818.941	0.31
819.112	0.74
819.283	0.4
819.455	-0.33
819.626	0.44
819.798	0.2
819.969	0.29
820.14	-0.21
820.311	-0.15
820.483	0.02
820.654	0.07
820.825	0.31
820.996	-0.09
821.168	-0.19
821.339	0.23
821.51	-0.02
821.681	1.16
821.852	0.18
822.023	-0.23
822.195	-0.14
822.366	0.7
822.537	0.42
822.708	0.41
822.879	-0.43
823.05	0.9
823.221	0.2
823.392	0.46
823.563	-0.04
823.734	0.22
823.905	-0.44
824.076	-0.24
824.247	0.08
824.418	-0.18
824.589	0.79
824.759	-0.02
824.93	0.02
825.101	-0.44
825.272	0.43
825.443	0.63
825.614	0.51
825.784	-0.48
825.955	1.21
826.126	0.61
826.297	0.03
826.467	0.82
826.638	1.09
826.809	-0.71
826.98	-0.04
827.15	-0.18
827.321	-0.09
827.492	0.91
827.662	0.48
827.833	0.92
828.003	0.13
828.174	-0.05
828.345	-0.64
828.515	1.08
828.686	0.58
828.856	0.24
829.027	0.16
829.197	0.49
829.368	0.71
829.538	-0.35
829.709	-0.08
829.879	0.79
830.049	-0.07
830.22	0.13
830.39	0.19
830.56	0.48
830.731	0.11
830.901	-0.02
831.072	0.35
831.242	-0.52
831.412	-0.11
831.582	0.55
831.753	-0.13
831.923	1.03
832.093	0.43
832.263	-0.28
832.434	-0.61
832.604	-0.11
832.774	0.37
832.944	0.2
833.114	0.01
833.284	0.6
833.454	-0.67
833.624	-0.06
833.795	0.34
833.965	0.55
834.135	0.81
834.305	-0.97
834.475	-0.06
834.645	0.5
834.815	-0.3
834.985	-0.84
835.155	-0.6
835.325	0.26
835.494	0.75
835.664	-0.78
835.834	0.18
836.004	-0.06
836.174	0.59
836.344	0.1
836.514	-0.77
836.684	-0.17
836.853	0.25
837.023	0.61
837.193	0.33
837.363	0.85
837.532	0.65
837.702	-0.31
837.872	-0.35
838.041	0.69
838.211	1.29
838.381	-0.4
838.55	-0.61
838.72	2.01
838.89	1.01
839.059	0.32
839.229	-0.38
839.398	1.15
839.568	0.77
839.738	0.05
839.907	0.43
840.077	0.46
840.246	0.42
840.416	-0.69
840.585	-0.66
840.755	0.89
840.924	0.83
841.093	-0.32
841.263	-0.69
841.432	0.24
841.602	-0.49
841.771	-0.03
841.94	0.78
842.11	1.76
842.279	1.57
842.448	-1.37
842.617	-0.07
842.787	1.35
842.956	-0.28
843.125	-0.13
843.294	0.75
843.464	1.42
843.633	0.25
843.802	-0.98
843.971	0.36
844.14	1.21
844.309	0.87
844.479	0.33
844.648	-0.18
844.817	-0.31
844.986	0.25
845.155	0
845.324	-0.09
845.493	0.55
845.662	-0.08
845.831	1.16
846	1.18
846.169	-0.14
846.338	1.89
846.507	0.73
846.676	0.39
846.844	-0.26
847.013	1.55
847.182	0.49
847.351	-0.35
847.52	-0.37
847.689	0.73
847.858	-0.55
848.026	-0.41
848.195	0.76
848.364	0.1
848.533	-0.63
848.701	0.02
848.87	-0.15
849.039	1.03
849.207	1.58
849.376	1.27
849.545	1.58
849.713	-0.48
849.882	-0.15
850.051	0.64
850.219	0
850.388	0.91
850.556	-0.36
850.725	-0.52
850.893	0.8
851.062	-0.18
851.23	1.24
851.399	-1.83
851.567	0.24
851.736	0.05
851.904	-0.13
852.073	0.38
852.241	1.24
852.41	0.49
852.578	-1.26
852.746	-0.14
852.915	1.09
853.083	0.26
853.251	-0.69
853.42	-0.45
853.588	1.07
853.756	1.73
853.924	0.25
854.093	-0.33
854.261	-0.11
854.429	0.17
854.597	0.77
854.765	-0.88
854.934	0.51
855.102	2.3
855.27	0.31
855.438	1.58
855.606	0.88
855.774	1.67
855.942	-1.62
856.11	-1.59
856.278	0.34
856.446	1.2
856.614	-0.72
856.782	0.42
856.95	0.89
857.118	1.82
857.286	1.1
857.454	-0.83
857.622	1.46
857.79	1.28
857.958	-0.19
858.126	-1.1
858.294	-1.17
858.462	0.2
858.629	1.33
858.797	-0.09
858.965	0.59
859.133	0.04
859.301	1.28
859.468	1.19
859.636	-0.5
859.804	2.17
859.971	1.29
860.139	-0.78
860.307	0.63
860.474	-0.12
860.642	0.84
860.81	-0.18
860.977	-0.05
861.145	1.2
861.313	1.05
861.48	1.2
861.648	2.31
861.815	0.19
861.983	-0.97
862.15	0.04
862.318	0.63
862.485	2.34
862.653	-0.65
862.82	0.17
862.988	2.33
863.155	1.11
863.322	0.08
863.49	-0.67
863.657	-0.12
863.824	2.44
863.992	1.75
864.159	0.9
864.326	2.95
864.494	-0.54
864.661	4.05
864.828	-0.01
864.996	2.89
865.163	1.51
865.33	-0.35
865.497	-1.83
865.664	0.38
865.832	-1.16
865.999	-0.1
866.166	-0.06
866.333	0.18
866.5	-0.73
866.667	1.47
866.834	1.56
867.001	2.51
867.168	-1.28
867.335	1.86
867.502	-0.38
867.669	0.54
867.836	2.77
868.003	0.31
868.17	1.8
868.337	-1.18
868.504	2.15
868.671	0.03
868.838	1.24
869.005	0.76
869.172	1.83
869.339	0.32
869.505	0.92
869.672	1.96
869.839	3.86
870.006	1.47
870.173	-0.96
870.339	2.35
870.506	3.3
870.673	-1.13
870.84	1.63
871.006	0.99
871.173	0.94
871.34	2.35
871.506	-0.49
871.673	1.76
871.839	-1.43
872.006	0.28
872.173	0.28
872.339	1.39
872.506	0.75
872.672	1.68
872.839	-0.66
873.005	1.3
873.172	2.94
873.338	3.17
873.505	1.71
873.671	3.94
873.838	-0.03
874.004	-0.76
874.171	-0.08
874.337	1.92
874.503	-0.63
874.67	1.55
874.836	1.31
875.002	3.34
875.169	3.03
875.335	1.08
875.501	1.72
875.668	-1.35
875.834	2.27
876	1.12
876.166	2.13
876.332	1.28
876.499	3.12
876.665	1.74
876.831	1.72
876.997	2.77
877.163	0.65
877.329	1.41
877.495	1.52
877.662	1.65
877.828	2.16
877.994	0.28
878.16	-1.16
878.326	-0.26
878.492	1.65
878.658	-1.42
878.824	1.92
878.99	3.52
879.156	3.21
879.322	4.56
879.487	-0.2
879.653	1.46
879.819	1.51
879.985	0.26
880.151	3.04
880.317	1.87
880.483	0.71
880.648	1.7
880.814	-2.24
880.98	2.59
881.146	-0.84
881.312	0.6
881.477	-0.64
881.643	2.01
881.809	2.56
881.974	3.78
882.14	-0.73
882.306	1.38
882.471	4.83
882.637	0.81
882.803	1.91
882.968	3.56
883.134	5.37
883.299	1.7
883.465	0.56
883.63	1.76
883.796	3.51
883.961	2.41
884.127	2.77
884.292	-3.06
884.458	-0.27
884.623	-0.27
