Data from Apollo_Calib_20240827__AbsoluteIrradiance__181__02-10-00-652.txt Node

Date: Wed Aug 28 02:10:00 BST 2024
User: biology
Spectrometer: FLMT08252
Trigger mode: 0
Integration Time (sec): 5.000000E-1
Scans to average: 5
Electric dark correction enabled: true
Nonlinearity correction enabled: false
Boxcar width: 0
XAxis mode: Wavelengths
Number of Pixels in Spectrum: 3648
>>>>>Begin Spectral Data<<<<<
179.588	-0
179.809	-0
180.03	-0
180.251	-0
180.473	-0
180.694	0
180.915	0
181.136	-0
181.357	0
181.578	-0
181.799	0
182.02	-0
182.241	0
182.462	-0
182.683	0
182.904	-0
183.125	-0
183.346	0
183.567	0
183.788	-0
184.009	-0
184.23	0
184.451	0
184.672	-0
184.892	-0
185.113	0
185.334	0
185.555	-0
185.776	-0
185.996	0
186.217	0
186.438	0
186.659	-0
186.879	0
187.1	-0
187.321	-0
187.541	-0
187.762	0
187.983	0
188.203	0
188.424	-0
188.644	-0
188.865	-0
189.086	0
189.306	0
189.527	0
189.747	0
189.968	-0
190.188	0
190.409	-0
190.629	0
190.849	-0
191.07	-0
191.29	0
191.511	0
191.731	-0
191.951	-0
192.172	0
192.392	-0
192.612	-0
192.833	-0
193.053	-0
193.273	0
193.493	-0
193.714	0
193.934	0
194.154	0
194.374	0
194.594	0
194.815	-0
195.035	0
195.255	0
195.475	-0
195.695	0
195.915	0
196.135	-0
196.355	0
196.575	0
196.795	0
197.015	-0
197.235	-0
197.455	-0
197.675	0
197.895	-0
198.115	-0
198.335	0
198.555	-0
198.775	-0
198.995	-0
199.214	0
199.434	0
199.654	-0
199.874	-0
200.094	1.07
200.313	-0.25
200.533	-0.7
200.753	-0.36
200.973	1.09
201.192	0.85
201.412	-0.81
201.632	0.02
201.851	0.87
202.071	-0.31
202.291	-0.7
202.51	-0.72
202.73	-0.05
202.95	-0.22
203.169	-0.75
203.389	0.11
203.608	-0.43
203.828	-0.31
204.047	-0.26
204.267	0.19
204.486	0.18
204.706	0.27
204.925	0.06
205.145	-0.39
205.364	0.53
205.583	0.75
205.803	-0.53
206.022	-0.39
206.242	0.1
206.461	0.02
206.68	0.14
206.9	0.04
207.119	0.7
207.338	0.6
207.557	-0.24
207.777	-0.17
207.996	-0.03
208.215	0.59
208.434	-0.37
208.654	-0.36
208.873	0.09
209.092	0.49
209.311	-0.06
209.53	-0.07
209.749	-0.3
209.968	-0.09
210.187	-0.02
210.407	-0.4
210.626	-0.35
210.845	0.19
211.064	-0.07
211.283	-0.18
211.502	0.2
211.721	-0.07
211.94	-0.07
212.159	0.45
212.377	0.14
212.596	0.42
212.815	0.07
213.034	0.19
213.253	0.19
213.472	0.23
213.691	-0.12
213.91	-0.14
214.128	-0.02
214.347	0.3
214.566	-0.37
214.785	-0.28
215.003	0.06
215.222	0.25
215.441	-0.15
215.66	-0.4
215.878	0
216.097	0.19
216.316	-0.06
216.534	-0.04
216.753	0.03
216.972	-0.19
217.19	0.14
217.409	-0.1
217.627	-0.07
217.846	0.01
218.064	-0.04
218.283	-0.29
218.501	0.51
218.72	0.32
218.938	-0.31
219.157	-0.2
219.375	0.15
219.594	0.22
219.812	-0.06
220.031	-0.35
220.249	0.27
220.467	0.26
220.686	-0.03
220.904	-0.33
221.122	-0.13
221.341	0.14
221.559	0.02
221.777	-0.18
221.995	0.04
222.214	-0.02
222.432	-0.24
222.65	0.15
222.868	-0.03
223.086	0.06
223.305	0.1
223.523	-0.07
223.741	0.34
223.959	-0.16
224.177	-0.25
224.395	-0
224.613	-0.02
224.831	0.09
225.049	-0.18
225.267	-0.08
225.485	-0.08
225.703	0.03
225.921	-0.04
226.139	-0.1
226.357	0.22
226.575	0.06
226.793	-0.12
227.011	0.62
227.229	0.06
227.447	0.14
227.665	-0.14
227.883	-0.3
228.1	0.05
228.318	0.18
228.536	-0.34
228.754	-0.12
228.972	0.06
229.189	0.1
229.407	-0.15
229.625	-0.08
229.843	0.33
230.06	0.18
230.278	-0.15
230.496	-0.01
230.713	0.04
230.931	0.28
231.149	-0.01
231.366	-0.07
231.584	-0.09
231.801	0.35
232.019	0.01
232.236	-0.21
232.454	-0.15
232.671	0.07
232.889	-0.06
233.106	-0.08
233.324	-0.04
233.541	-0.07
233.759	-0.02
233.976	-0.13
234.194	-0.07
234.411	-0.02
234.628	-0.12
234.846	-0.11
235.063	-0.01
235.28	-0.06
235.498	-0.04
235.715	-0.2
235.932	0.13
236.149	0.03
236.367	-0.08
236.584	-0
236.801	-0.06
237.018	0.1
237.236	0.07
237.453	-0.1
237.67	0.14
237.887	-0
238.104	-0.15
238.321	-0.1
238.538	-0.07
238.755	0.13
238.973	-0.05
239.19	0.06
239.407	0.07
239.624	0
239.841	-0.14
240.058	-0.14
240.275	-0
240.492	-0.04
240.709	-0.05
240.925	-0.13
241.142	-0.03
241.359	-0.07
241.576	-0.17
241.793	-0.04
242.01	0.08
242.227	0.12
242.444	0.04
242.66	0.07
242.877	0.05
243.094	-0.08
243.311	0.05
243.527	0.06
243.744	-0.04
243.961	0.06
244.178	-0.07
244.394	0.02
244.611	0.13
244.828	0.12
245.044	-0.12
245.261	0.01
245.477	0.04
245.694	0.03
245.911	-0.08
246.127	0.03
246.344	0.1
246.56	0.11
246.777	-0.03
246.993	0.06
247.21	0.13
247.426	0.14
247.643	-0.09
247.859	0.02
248.076	-0.05
248.292	0.19
248.508	-0.01
248.725	0.02
248.941	0.04
249.157	0.08
249.374	-0.01
249.59	-0.04
249.806	-0.07
250.023	0.11
250.239	-0.03
250.455	-0.06
250.671	-0.01
250.888	0.14
251.104	0
251.32	-0
251.536	0.08
251.752	-0.06
251.969	0
252.185	0.04
252.401	0.15
252.617	0.08
252.833	-0
253.049	-0.06
253.265	0.03
253.481	-0
253.697	-0.01
253.913	-0.08
254.129	0.05
254.345	0.02
254.561	-0
254.777	-0.01
254.993	0.01
255.209	-0.07
255.425	-0.06
255.641	-0.02
255.857	0.1
256.073	0.05
256.288	-0.12
256.504	-0.01
256.72	0.02
256.936	0.17
257.152	-0.06
257.367	-0.03
257.583	0.06
257.799	0.05
258.015	-0.07
258.23	-0.03
258.446	0.14
258.662	-0.03
258.877	-0.08
259.093	0.02
259.309	-0.04
259.524	0.06
259.74	-0.09
259.955	-0.12
260.171	0.06
260.387	-0.05
260.602	0.06
260.818	-0.02
261.033	0.01
261.249	-0.03
261.464	0.03
261.68	-0.07
261.895	0.02
262.11	0.07
262.326	-0.01
262.541	-0.05
262.757	0.05
262.972	0.05
263.187	-0.02
263.403	-0
263.618	0.11
263.833	-0.01
264.049	-0.04
264.264	-0.02
264.479	0.07
264.694	0.15
264.91	-0.08
265.125	0.03
265.34	0.02
265.555	0.19
265.77	0.05
265.986	0.02
266.201	0.05
266.416	0.08
266.631	-0.06
266.846	0.01
267.061	0.06
267.276	0.1
267.491	-0.06
267.706	0.03
267.921	0.07
268.136	-0
268.351	0.01
268.566	-0.1
268.781	0.03
268.996	0.02
269.211	0.01
269.426	-0.08
269.641	-0
269.856	0.13
270.071	0.01
270.285	-0.1
270.5	0.06
270.715	0.03
270.93	-0.02
271.145	-0.02
271.359	0.08
271.574	-0
271.789	-0
272.004	-0.05
272.218	-0.04
272.433	0.02
272.648	-0.1
272.862	0.08
273.077	-0.02
273.292	0.01
273.506	-0.04
273.721	0.01
273.936	0.09
274.15	0.1
274.365	-0.07
274.579	0.05
274.794	0.05
275.008	0.09
275.223	-0.07
275.437	-0.02
275.652	0.04
275.866	0.07
276.081	0.03
276.295	0.11
276.509	-0.02
276.724	0.01
276.938	0.07
277.153	0
277.367	0.09
277.581	-0.01
277.796	0.01
278.01	-0.07
278.224	0.12
278.438	0.13
278.653	-0.02
278.867	-0.06
279.081	0.05
279.295	-0.01
279.51	0.01
279.724	-0.08
279.938	0.03
280.152	0.07
280.366	-0.03
280.58	0.04
280.794	0.08
281.008	0.05
281.222	0.06
281.437	0.13
281.651	0.04
281.865	0.08
282.079	0.05
282.293	-0.09
282.507	-0.13
282.721	0.02
282.935	-0.02
283.148	-0.06
283.362	0.01
283.576	-0.06
283.79	0.02
284.004	-0.01
284.218	0.06
284.432	-0.03
284.646	-0.02
284.859	-0.02
285.073	-0.02
285.287	-0.02
285.501	0.02
285.714	-0.03
285.928	-0.01
286.142	0.05
286.356	-0.01
286.569	-0.02
286.783	0.11
286.997	0.09
287.21	0.08
287.424	0.01
287.637	-0.05
287.851	-0.01
288.065	0.04
288.278	0.02
288.492	0.03
288.705	-0.03
288.919	0.08
289.132	0
289.346	0.08
289.559	-0.03
289.773	-0.04
289.986	-0.01
290.2	0.02
290.413	0.09
290.626	-0.04
290.84	0.01
291.053	-0.01
291.267	0.12
291.48	0.02
291.693	0.01
291.906	-0.02
292.12	-0.02
292.333	-0.01
292.546	-0.03
292.76	0.13
292.973	0.04
293.186	0.05
293.399	-0.02
293.612	0.08
293.826	0.06
294.039	0.02
294.252	0.05
294.465	0.06
294.678	0.08
294.891	0.08
295.104	-0.02
295.317	-0.03
295.53	0
295.743	0
295.956	0
296.169	0.08
296.382	0.06
296.595	0.01
296.808	-0.01
297.021	0.07
297.234	0.07
297.447	0.02
297.66	0.07
297.873	0.04
298.086	0.06
298.299	0.01
298.511	-0.06
298.724	0.04
298.937	-0.04
299.15	-0.02
299.363	0.04
299.575	0.05
299.788	0.05
300.001	0.01
300.213	-0.05
300.426	0.03
300.639	-0.01
300.852	-0.01
301.064	0.05
301.277	0.07
301.489	0.07
301.702	0.07
301.915	0.03
302.127	0.06
302.34	0.04
302.552	0.05
302.765	-0
302.977	0.02
303.19	0.01
303.402	0.03
303.615	0.03
303.827	0
304.04	-0.01
304.252	0.01
304.464	-0.01
304.677	0.12
304.889	0.05
305.102	0
305.314	-0.04
305.526	0.07
305.739	0.05
305.951	0.01
306.163	-0.01
306.375	0.11
306.588	0.02
306.8	-0.04
307.012	-0.02
307.224	0.01
307.436	0.1
307.649	-0.07
307.861	0.03
308.073	0.03
308.285	-0.03
308.497	-0.06
308.709	-0.05
308.921	0.01
309.133	0.07
309.346	0.01
309.558	0.02
309.77	0.01
309.982	0.11
310.194	0.06
310.406	-0.05
310.617	0.09
310.829	0
311.041	0.07
311.253	-0.01
311.465	-0.03
311.677	0.01
311.889	0.01
312.101	-0.02
312.313	0.06
312.524	0.09
312.736	-0.04
312.948	0
313.16	0.11
313.372	0.07
313.583	0.03
313.795	-0
314.007	-0.02
314.218	0.07
314.43	0.04
314.642	-0.02
314.853	-0.04
315.065	0.08
315.277	-0.01
315.488	0.04
315.7	0.08
315.912	0.04
316.123	0.01
316.335	0.01
316.546	0.15
316.758	0.02
316.969	0.03
317.181	0.04
317.392	0
317.604	0.07
317.815	-0.06
318.026	-0.06
318.238	-0.02
318.449	0.08
318.661	-0.02
318.872	-0.01
319.083	-0.02
319.295	0.07
319.506	0.02
319.717	0.02
319.929	0.09
320.14	0.01
320.351	0.04
320.562	-0.04
320.774	-0.01
320.985	0.01
321.196	-0.07
321.407	-0.08
321.618	0.08
321.829	0.1
322.041	0.04
322.252	-0
322.463	0.06
322.674	0.01
322.885	-0.03
323.096	-0
323.307	-0.01
323.518	0.03
323.729	0.01
323.94	0.05
324.151	-0.04
324.362	0.05
324.573	0.02
324.784	0
324.995	0.05
325.206	0.05
325.417	-0.02
325.628	-0.02
325.838	0.02
326.049	0.04
326.26	0.06
326.471	0.01
326.682	0.04
326.892	-0.02
327.103	-0.04
327.314	-0.02
327.525	0.04
327.735	0.01
327.946	-0.01
328.157	-0.01
328.368	0.04
328.578	-0.01
328.789	0.07
328.999	0.03
329.21	-0.04
329.421	0.08
329.631	-0.04
329.842	-0.01
330.052	0.01
330.263	0.06
330.473	0.05
330.684	0
330.894	0.01
331.105	-0
331.315	0.04
331.526	-0.03
331.736	0.09
331.947	0.03
332.157	0.04
332.367	-0.03
332.578	0.06
332.788	0.09
332.999	0.03
333.209	0.05
333.419	-0
333.629	0.03
333.84	0.09
334.05	0.04
334.26	0.11
334.47	0.04
334.681	0.06
334.891	0.02
335.101	0.07
335.311	0.07
335.521	0.02
335.732	-0.03
335.942	0.09
336.152	0.03
336.362	0.04
336.572	0.01
336.782	0.01
336.992	0.02
337.202	-0.02
337.412	-0.03
337.622	0.05
337.832	-0.01
338.042	-0.01
338.252	0.06
338.462	-0
338.672	0.04
338.882	0.05
339.092	-0.01
339.302	0.07
339.511	0.03
339.721	-0.03
339.931	-0
340.141	0.06
340.351	0.06
340.561	0
340.77	0.03
340.98	0.05
341.19	0.08
341.4	0.03
341.609	0.01
341.819	-0.04
342.029	-0.05
342.238	0.08
342.448	-0.04
342.658	0.06
342.867	0.02
343.077	0.03
343.286	0.01
343.496	0.03
343.706	0.1
343.915	-0.03
344.125	0.04
344.334	0.03
344.544	-0.01
344.753	-0.01
344.963	0.01
345.172	0.02
345.381	-0.06
345.591	-0.03
345.8	0.02
346.01	0.04
346.219	0.05
346.428	-0.11
346.638	0.03
346.847	-0
347.056	0.1
347.266	-0.01
347.475	0.04
347.684	0.03
347.893	0.06
348.103	0.03
348.312	-0.02
348.521	0.01
348.73	0.04
348.94	0.02
349.149	0.01
349.358	-0.01
349.567	-0.03
349.776	-0.04
349.985	-0.02
350.194	0.1
350.403	0.06
350.612	-0.02
350.821	0.01
351.03	0.06
351.239	-0.03
351.448	0
351.657	0.04
351.866	0.07
352.075	0.08
352.284	0.07
352.493	-0.03
352.702	0.09
352.911	0.02
353.12	0.02
353.329	-0.03
353.538	0.04
353.746	0.01
353.955	-0.02
354.164	0.01
354.373	0.04
354.582	0.06
354.79	0.04
354.999	0.04
355.208	0.01
355.416	0.06
355.625	-0.01
355.834	-0.02
356.042	0.05
356.251	-0.01
356.46	-0.01
356.668	0.04
356.877	0.11
357.085	0.06
357.294	-0.08
357.503	0.07
357.711	0.03
357.92	0.12
358.128	0.05
358.337	0.01
358.545	-0.01
358.754	0.03
358.962	0.05
359.17	0.01
359.379	0.07
359.587	0.06
359.796	0.01
360.004	0.04
360.212	0.08
360.421	0.11
360.629	0.07
360.837	0.01
361.046	0.07
361.254	0.12
361.462	0.05
361.67	0.01
361.879	0.04
362.087	0.14
362.295	0.04
362.503	0.02
362.711	-0.01
362.92	0.02
363.128	0
363.336	0.01
363.544	0.03
363.752	0.01
363.96	-0.02
364.168	-0.03
364.376	0.03
364.584	0.03
364.792	0.07
365	0.08
365.208	0.06
365.416	0.06
365.624	0.08
365.832	-0
366.04	0.08
366.248	0.05
366.456	0.06
366.664	0.05
366.872	0.08
367.079	0.03
367.287	-0.02
367.495	0.03
367.703	0.01
367.911	0.05
368.118	0.01
368.326	0.02
368.534	0.01
368.742	0.14
368.949	-0.02
369.157	-0.02
369.365	0.05
369.572	-0.01
369.78	0.01
369.988	0.07
370.195	0.06
370.403	0.09
370.61	0.02
370.818	0.05
371.026	0.09
371.233	0.04
371.441	0.05
371.648	0.01
371.856	0.05
372.063	0.03
372.271	-0
372.478	0.04
372.685	0.03
372.893	0.06
373.1	0.03
373.308	0.05
373.515	0.13
373.722	0.08
373.93	0.04
374.137	0.07
374.344	0.07
374.552	0.06
374.759	0.06
374.966	0.05
375.173	0.01
375.381	0.07
375.588	0.02
375.795	-0.04
376.002	0.04
376.209	0.02
376.417	0.02
376.624	0.04
376.831	0.08
377.038	0.06
377.245	-0.01
377.452	0.02
377.659	0.04
377.866	0.08
378.073	0
378.28	0.06
378.487	0.1
378.694	0.07
378.901	0.04
379.108	0.06
379.315	0.11
379.522	0.14
379.729	0.05
379.936	0.06
380.143	0.11
380.35	0.06
380.557	0.09
380.763	0.1
380.97	0.08
381.177	0.07
381.384	0.11
381.591	0.06
381.797	0.13
382.004	0.11
382.211	0.12
382.418	0.11
382.624	0.12
382.831	0.1
383.038	0.07
383.244	0.12
383.451	0.13
383.658	0.11
383.864	0.06
384.071	0.05
384.277	0.2
384.484	0.09
384.69	0.18
384.897	0.13
385.103	0.11
385.31	0.11
385.516	0.15
385.723	0.13
385.929	0.14
386.136	0.11
386.342	0.2
386.549	0.17
386.755	0.2
386.961	0.2
387.168	0.19
387.374	0.21
387.58	0.19
387.787	0.21
387.993	0.29
388.199	0.2
388.406	0.23
388.612	0.25
388.818	0.24
389.024	0.23
389.231	0.31
389.437	0.41
389.643	0.38
389.849	0.32
390.055	0.4
390.261	0.39
390.467	0.44
390.674	0.41
390.88	0.38
391.086	0.5
391.292	0.45
391.498	0.48
391.704	0.54
391.91	0.55
392.116	0.58
392.322	0.51
392.528	0.66
392.734	0.63
392.94	0.74
393.146	0.83
393.352	0.79
393.557	0.8
393.763	0.89
393.969	0.98
394.175	0.96
394.381	1.08
394.587	1.02
394.792	1.12
394.998	1.2
395.204	1.31
395.41	1.29
395.615	1.4
395.821	1.46
396.027	1.59
396.233	1.61
396.438	1.75
396.644	1.89
396.85	1.96
397.055	2.07
397.261	2.15
397.466	2.36
397.672	2.37
397.878	2.51
398.083	2.55
398.289	2.59
398.494	2.75
398.7	2.88
398.905	2.83
399.111	3.19
399.316	3.19
399.522	3.36
399.727	3.49
399.932	3.6
400.138	3.72
400.343	3.97
400.549	4.01
400.754	4.29
400.959	4.49
401.165	4.75
401.37	4.83
401.575	5.35
401.78	5.34
401.986	5.51
402.191	5.73
402.396	6.1
402.601	6.23
402.807	6.53
403.012	6.71
403.217	7.22
403.422	7.23
403.627	7.56
403.832	7.81
404.037	8.09
404.243	8.13
404.448	8.34
404.653	8.68
404.858	8.85
405.063	8.69
405.268	9.19
405.473	9.2
405.678	9.41
405.883	9.89
406.088	9.98
406.293	9.85
406.498	10.07
406.703	10.11
406.907	10.38
407.112	10.67
407.317	10.95
407.522	11.04
407.727	11.04
407.932	11.08
408.136	11.47
408.341	11.19
408.546	11.12
408.751	11.15
408.956	11.01
409.16	11.32
409.365	11.07
409.57	10.79
409.774	10.62
409.979	10.67
410.184	10.48
410.388	10.28
410.593	10.25
410.798	10.18
411.002	10.15
411.207	9.86
411.411	9.69
411.616	9.33
411.82	9.35
412.025	9.07
412.229	8.87
412.434	8.62
412.638	8.39
412.843	8.2
413.047	7.94
413.252	7.71
413.456	7.66
413.66	7.37
413.865	7.11
414.069	6.89
414.273	6.75
414.478	6.46
414.682	6.28
414.886	6.18
415.091	5.91
415.295	5.65
415.499	5.7
415.703	5.48
415.908	5.39
416.112	5.1
416.316	5.13
416.52	4.94
416.724	4.84
416.929	4.69
417.133	4.8
417.337	4.38
417.541	4.42
417.745	4.31
417.949	4.24
418.153	4.21
418.357	4.05
418.561	4.11
418.765	3.87
418.969	3.86
419.173	3.87
419.377	3.65
419.581	3.76
419.785	3.55
419.989	3.45
420.193	3.49
420.397	3.39
420.601	3.35
420.804	3.27
421.008	3.07
421.212	3.05
421.416	2.97
421.62	2.83
421.823	2.71
422.027	2.75
422.231	2.6
422.435	2.43
422.638	2.25
422.842	2.3
423.046	2.16
423.249	2.3
423.453	2.11
423.657	2.11
423.86	1.95
424.064	2.04
424.268	2.02
424.471	1.81
424.675	1.89
424.878	1.82
425.082	1.74
425.285	1.82
425.489	1.6
425.692	1.63
425.896	1.45
426.099	1.52
426.303	1.38
426.506	1.39
426.71	1.44
426.913	1.4
427.116	1.4
427.32	1.31
427.523	1.25
427.726	1.35
427.93	1.16
428.133	1.19
428.336	1.18
428.54	1.08
428.743	1.17
428.946	1.18
429.149	1.08
429.353	1.09
429.556	1.04
429.759	1.01
429.962	0.95
430.165	0.95
430.368	0.86
430.571	0.85
430.775	0.87
430.978	0.82
431.181	0.83
431.384	0.84
431.587	0.72
431.79	0.78
431.993	0.75
432.196	0.75
432.399	0.74
432.602	0.84
432.805	0.68
433.008	0.79
433.211	0.64
433.414	0.8
433.616	0.81
433.819	0.67
434.022	0.6
434.225	0.76
434.428	0.68
434.631	0.83
434.833	0.6
435.036	0.58
435.239	0.72
435.442	0.61
435.645	0.56
435.847	0.63
436.05	0.61
436.253	0.6
436.455	0.52
436.658	0.57
436.861	0.64
437.063	0.5
437.266	0.45
437.468	0.54
437.671	0.69
437.874	0.49
438.076	0.46
438.279	0.37
438.481	0.5
438.684	0.43
438.886	0.48
439.089	0.36
439.291	0.47
439.494	0.49
439.696	0.38
439.899	0.42
440.101	0.46
440.303	0.35
440.506	0.47
440.708	0.4
440.91	0.39
441.113	0.4
441.315	0.42
441.517	0.29
441.72	0.41
441.922	0.38
442.124	0.32
442.326	0.36
442.529	0.4
442.731	0.26
442.933	0.4
443.135	0.31
443.337	0.29
443.539	0.27
443.742	0.29
443.944	0.31
444.146	0.28
444.348	0.31
444.55	0.21
444.752	0.26
444.954	0.21
445.156	0.25
445.358	0.23
445.56	0.33
445.762	0.28
445.964	0.27
446.166	0.21
446.368	0.21
446.57	0.28
446.772	0.24
446.974	0.24
447.175	0.27
447.377	0.16
447.579	0.22
447.781	0.12
447.983	0.27
448.184	0.21
448.386	0.23
448.588	0.13
448.79	0.23
448.991	0.19
449.193	0.16
449.395	0.18
449.597	0.17
449.798	0.21
450	0.2
450.202	0.17
450.403	0.21
450.605	0.22
450.806	0.19
451.008	0.09
451.21	0.18
451.411	0.21
451.613	0.16
451.814	0.19
452.016	0.25
452.217	0.17
452.419	0.16
452.62	0.18
452.821	0.18
453.023	0.24
453.224	0.18
453.426	0.19
453.627	0.16
453.828	0.19
454.03	0.16
454.231	0.18
454.432	0.08
454.634	0.26
454.835	0.09
455.036	0.07
455.238	0.2
455.439	0.27
455.64	0.09
455.841	0.18
456.042	0.23
456.244	0.16
456.445	0.13
456.646	0.05
456.847	0.13
457.048	0.18
457.249	0.22
457.45	0.36
457.651	0.11
457.852	0.2
458.054	0.17
458.255	0.12
458.456	0.18
458.657	0.18
458.858	0.06
459.058	0.16
459.259	0.2
459.46	0.15
459.661	0.14
459.862	0.28
460.063	0.12
460.264	0.2
460.465	0.1
460.666	0.27
460.866	0.08
461.067	0.1
461.268	0.13
461.469	0.14
461.67	0.13
461.87	0.11
462.071	0.09
462.272	0.09
462.473	0.1
462.673	0.13
462.874	0.09
463.075	0.15
463.275	0.08
463.476	0.15
463.676	0.16
463.877	0.15
464.078	0.12
464.278	0.19
464.479	0.14
464.679	0.15
464.88	0.1
465.08	0.19
465.281	0.11
465.481	0.07
465.682	0.13
465.882	0.13
466.083	0.17
466.283	0.13
466.483	0.11
466.684	0.09
466.884	0.15
467.085	0.09
467.285	0.16
467.485	0.06
467.686	0.14
467.886	0.1
468.086	0.11
468.286	0.13
468.487	0.16
468.687	0.1
468.887	0.12
469.087	0.16
469.287	0.08
469.488	0.14
469.688	0.12
469.888	0.2
470.088	0.18
470.288	0.17
470.488	0.14
470.688	0.06
470.888	0.12
471.088	0.08
471.288	0.18
471.488	0.13
471.688	0.15
471.888	0.06
472.088	0.16
472.288	0.14
472.488	0.08
472.688	0.11
472.888	0.1
473.088	0.1
473.288	0.13
473.488	0.11
473.688	0.2
473.887	0.14
474.087	0.08
474.287	0.11
474.487	0.07
474.687	0.14
474.886	0.08
475.086	0.04
475.286	0.07
475.486	0.09
475.685	0.09
475.885	0.07
476.085	0.09
476.284	0.12
476.484	0.08
476.684	0.09
476.883	0.13
477.083	0.11
477.282	0.05
477.482	0.13
477.681	0.15
477.881	0.1
478.08	0.05
478.28	0.04
478.479	0.09
478.679	0.17
478.878	0.05
479.078	0.06
479.277	0.05
479.477	0.08
479.676	0.09
479.875	0.07
480.075	0.01
480.274	0.08
480.473	0.11
480.673	0.04
480.872	0.1
481.071	0.08
481.271	0.1
481.47	0.05
481.669	0.03
481.868	0.05
482.067	0.02
482.267	0.04
482.466	0.05
482.665	0.02
482.864	0.04
483.063	0.02
483.262	0.07
483.461	0.11
483.661	0.08
483.86	0.06
484.059	0.06
484.258	0.05
484.457	0.06
484.656	0.06
484.855	0.07
485.054	0.01
485.253	0.03
485.452	-0
485.651	0.08
485.849	0.06
486.048	0.02
486.247	0.03
486.446	0.07
486.645	0.03
486.844	0.02
487.043	0.03
487.241	0.07
487.44	0.04
487.639	0.04
487.838	0.08
488.037	0.06
488.235	0.11
488.434	0.07
488.633	0.01
488.831	0.09
489.03	0.07
489.229	0.05
489.427	0.03
489.626	0.08
489.825	0.1
490.023	0.06
490.222	0.02
490.42	0.05
490.619	0.09
490.817	0.05
491.016	0.01
491.214	0.1
491.413	0.03
491.611	0.04
491.81	0.06
492.008	0.07
492.207	0.07
492.405	0.07
492.604	-0.02
492.802	0.03
493	0.05
493.199	0.04
493.397	0.05
493.595	0.05
493.794	0.02
493.992	0.09
494.19	0.03
494.388	0.07
494.587	0.03
494.785	0.05
494.983	0.03
495.181	0.05
495.379	0.04
495.578	0.04
495.776	0.03
495.974	0.05
496.172	0.05
496.37	0.04
496.568	0.02
496.766	0.05
496.964	0.05
497.162	0.04
497.36	0.03
497.558	0.08
497.756	0.05
497.954	0.03
498.152	0.03
498.35	0.04
498.548	0.03
498.746	0.06
498.944	0.03
499.142	0.02
499.34	0.02
499.538	0.03
499.736	0.02
499.933	0.07
500.131	0.07
500.329	0.04
500.527	0.07
500.725	0.08
500.922	0.05
501.12	0.04
501.318	0.04
501.516	0.01
501.713	0.04
501.911	0.04
502.109	0.01
502.306	0.04
502.504	0.03
502.701	0.01
502.899	0.04
503.097	0.07
503.294	0.04
503.492	0.03
503.689	0.04
503.887	0.06
504.084	0.1
504.282	0.05
504.479	-0
504.677	0.05
504.874	0.01
505.072	0.03
505.269	0.02
505.466	0.06
505.664	0.06
505.861	-0.02
506.059	0.02
506.256	0.06
506.453	0.01
506.651	0.05
506.848	0.04
507.045	0.05
507.242	0.02
507.44	0.02
507.637	0.03
507.834	0.03
508.031	0.06
508.229	0.02
508.426	0.02
508.623	0.05
508.82	0.02
509.017	0.01
509.214	0.02
509.411	0.05
509.608	-0.01
509.805	0.01
510.003	0.02
510.2	0.03
510.397	0.06
510.594	0.03
510.791	0.02
510.988	0.04
511.184	0.05
511.381	0.02
511.578	0.01
511.775	0.05
511.972	0.02
512.169	0.01
512.366	0.03
512.563	0.04
512.76	0.03
512.956	0.03
513.153	0.02
513.35	0.01
513.547	0.01
513.744	0.01
513.94	-0.01
514.137	0.04
514.334	0.03
514.53	0.02
514.727	0.02
514.924	0.05
515.12	0.02
515.317	-0.02
515.514	0.01
515.71	-0.02
515.907	0.04
516.103	0.04
516.3	0.04
516.497	0.04
516.693	0.06
516.89	0.03
517.086	-0.01
517.283	0.07
517.479	0.04
517.676	0.03
517.872	0.03
518.068	0.01
518.265	0.02
518.461	0.03
518.658	-0
518.854	0.03
519.05	0.02
519.247	0.01
519.443	0.04
519.639	0.03
519.836	0.02
520.032	0.02
520.228	0.03
520.424	0.07
520.621	0.03
520.817	0.01
521.013	0.06
521.209	0.03
521.405	0.07
521.601	0.02
521.798	0.03
521.994	0.05
522.19	0
522.386	-0.03
522.582	0.02
522.778	0
522.974	-0.01
523.17	0.02
523.366	0.04
523.562	0.05
523.758	0.02
523.954	0.02
524.15	0
524.346	0.02
524.542	0.01
524.738	-0.01
524.934	0.02
525.129	0.01
525.325	0.03
525.521	0.03
525.717	0.05
525.913	0.03
526.109	0.03
526.304	0
526.5	0.03
526.696	0.04
526.892	0.02
527.087	0.05
527.283	0.01
527.479	0.02
527.674	0.01
527.87	0
528.066	0
528.261	0.04
528.457	0.03
528.653	0.02
528.848	0
529.044	0.01
529.239	0.01
529.435	0.03
529.63	0.02
529.826	0.05
530.021	0.05
530.217	0.02
530.412	0
530.608	0.02
530.803	0
530.999	0.01
531.194	-0.03
531.389	0.02
531.585	-0.03
531.78	0
531.975	0.01
532.171	0.04
532.366	0.02
532.561	-0
532.757	0.01
532.952	0.01
533.147	0.03
533.342	0.02
533.538	-0
533.733	0.06
533.928	0.01
534.123	-0
534.318	-0.02
534.513	0.01
534.709	0
534.904	-0
535.099	0.01
535.294	0.02
535.489	0
535.684	0.01
535.879	-0.01
536.074	0.02
536.269	0.01
536.464	0.02
536.659	0.02
536.854	-0
537.049	0.04
537.244	0.01
537.439	0.01
537.634	0.05
537.828	0.01
538.023	0
538.218	-0.02
538.413	0.02
538.608	-0.01
538.803	0.02
538.997	-0.01
539.192	0.04
539.387	0.02
539.582	0.01
539.776	0.04
539.971	0.02
540.166	0.02
540.36	-0.01
540.555	0.01
540.75	0
540.944	0
541.139	-0.01
541.334	0.01
541.528	0.03
541.723	0.03
541.917	-0.01
542.112	-0.02
542.306	0
542.501	-0
542.695	0.01
542.89	-0.01
543.084	0.01
543.279	-0.01
543.473	0
543.668	0.01
543.862	0.01
544.056	0.05
544.251	0
544.445	0.03
544.64	0.01
544.834	0
545.028	0.01
545.222	0.03
545.417	0.04
545.611	0.03
545.805	-0.01
546	-0.01
546.194	0.01
546.388	0.01
546.582	0.02
546.776	0
546.97	0
547.165	0.02
547.359	0.03
547.553	-0.03
547.747	0.02
547.941	0.03
548.135	0.01
548.329	0.04
548.523	0.01
548.717	0
548.911	-0.03
549.105	0.01
549.299	0
549.493	0.02
549.687	0
549.881	0.02
550.075	-0.01
550.269	-0.01
550.463	0.01
550.657	-0.03
550.85	0.02
551.044	-0.03
551.238	-0.02
551.432	-0.01
551.626	-0.02
551.82	0.02
552.013	-0.01
552.207	0.01
552.401	0.04
552.594	0.02
552.788	0.02
552.982	0.02
553.176	0.01
553.369	0.03
553.563	0.01
553.756	-0.02
553.95	-0
554.144	0.01
554.337	0.04
554.531	0.01
554.724	0
554.918	-0
555.111	-0
555.305	0.02
555.498	0.06
555.692	-0
555.885	0.01
556.079	0.04
556.272	-0.01
556.466	0.03
556.659	0.01
556.852	0.01
557.046	0
557.239	0.04
557.432	-0.02
557.626	-0.02
557.819	0.02
558.012	0.02
558.206	0.01
558.399	0.02
558.592	0
558.785	-0
558.979	0.03
559.172	0.01
559.365	0.03
559.558	0.01
559.751	0.02
559.944	0.01
560.138	0.01
560.331	0
560.524	-0.01
560.717	0.02
560.91	0
561.103	0.02
561.296	0
561.489	0.01
561.682	0.02
561.875	0.04
562.068	0.02
562.261	0.02
562.454	0.04
562.647	0.01
562.84	0.02
563.032	0.01
563.225	-0.02
563.418	0.01
563.611	0
563.804	-0.01
563.997	-0.03
564.19	-0.02
564.382	0.01
564.575	-0
564.768	0
564.961	-0.01
565.153	-0.03
565.346	0.04
565.539	0.02
565.731	0.03
565.924	0.04
566.117	0.03
566.309	0
566.502	-0.02
566.695	0.01
566.887	0.01
567.08	-0.01
567.272	-0.01
567.465	0.01
567.657	0
567.85	0.01
568.042	0.02
568.235	0.04
568.427	0.02
568.62	-0.02
568.812	0.05
569.005	-0
569.197	-0
569.389	0.01
569.582	0.03
569.774	0.01
569.966	-0.04
570.159	-0.02
570.351	0.02
570.543	-0.01
570.736	-0
570.928	-0
571.12	0
571.312	-0
571.505	-0.01
571.697	0.03
571.889	-0.02
572.081	0.01
572.273	-0.02
572.465	0.05
572.658	-0.01
572.85	0.02
573.042	-0.01
573.234	-0.02
573.426	0.05
573.618	-0.03
573.81	0
574.002	0.03
574.194	0.05
574.386	-0.03
574.578	-0.06
574.77	-0.02
574.962	-0
575.154	-0.03
575.346	0.01
575.538	0.03
575.729	-0.01
575.921	0.01
576.113	-0.01
576.305	0.02
576.497	0
576.689	-0.01
576.88	-0.03
577.072	0.01
577.264	-0.01
577.456	-0.01
577.647	-0.04
577.839	-0.02
578.031	0.04
578.223	-0.03
578.414	-0.03
578.606	0.01
578.798	0.01
578.989	0.01
579.181	-0
579.372	-0.01
579.564	-0.01
579.755	0.01
579.947	0.02
580.139	0.02
580.33	-0.07
580.522	-0.02
580.713	-0.07
580.905	0
581.096	0.03
581.287	0.01
581.479	-0.02
581.67	0.02
581.862	-0.01
582.053	-0.02
582.244	-0.04
582.436	0.03
582.627	0.01
582.818	-0.04
583.01	-0.02
583.201	0.05
583.392	0.01
583.583	0.01
583.775	-0.02
583.966	-0.01
584.157	-0.02
584.348	-0
584.54	-0.02
584.731	0.01
584.922	0.02
585.113	-0.03
585.304	0.02
585.495	0.03
585.686	-0.01
585.877	0.05
586.068	-0
586.259	0.01
586.45	-0
586.641	-0.02
586.832	-0.03
587.023	0
587.214	-0.01
587.405	0.01
587.596	-0.02
587.787	0.05
587.978	-0
588.169	-0
588.36	-0.01
588.551	0.01
588.742	-0.03
588.932	0.01
589.123	-0.02
589.314	0.04
589.505	0.03
589.696	-0.01
589.886	-0.01
590.077	-0.04
590.268	0.03
590.458	-0.03
590.649	-0.04
590.84	0.02
591.03	-0.02
591.221	-0.05
591.412	-0.05
591.602	0.03
591.793	0.03
591.984	-0.03
592.174	-0.01
592.365	0.07
592.555	-0.04
592.746	0.01
592.936	0.02
593.127	0.01
593.317	0.02
593.508	-0.02
593.698	0.01
593.889	0
594.079	0.02
594.269	-0.02
594.46	-0.02
594.65	-0
594.84	-0
595.031	-0.03
595.221	-0.02
595.411	-0.04
595.602	0.05
595.792	-0
595.982	-0
596.172	0.05
596.363	-0.02
596.553	-0
596.743	-0.01
596.933	0.02
597.123	0.04
597.314	-0.03
597.504	-0.02
597.694	0.03
597.884	0.02
598.074	-0
598.264	-0.05
598.454	0
598.644	-0
598.834	-0.01
599.024	-0.06
599.214	-0.02
599.404	0.02
599.594	-0.02
599.784	-0.05
599.974	0.04
600.164	0.04
600.354	-0.03
600.544	-0.03
600.734	0.01
600.924	0.04
601.114	-0.04
601.303	-0.02
601.493	-0.01
601.683	0.02
601.873	0.01
602.063	-0.03
602.252	0.06
602.442	-0.08
602.632	-0.05
602.821	-0.03
603.011	0.01
603.201	-0.01
603.39	-0.01
603.58	-0.03
603.77	-0
603.959	0.02
604.149	-0.01
604.339	0.01
604.528	0.02
604.718	0.03
604.907	0
605.097	-0.03
605.286	-0.03
605.476	0.01
605.665	0.01
605.855	-0.03
606.044	0.04
606.234	0.04
606.423	0.01
606.612	-0.04
606.802	0
606.991	0.02
607.181	0.01
607.37	-0.03
607.559	-0.02
607.749	-0.07
607.938	-0.03
608.127	-0.01
608.316	-0.03
608.506	-0.01
608.695	-0
608.884	-0.04
609.073	0
609.263	0.01
609.452	0.01
609.641	-0.01
609.83	-0.01
610.019	-0
610.208	-0.03
610.397	-0.02
610.586	0.03
610.775	-0.03
610.965	-0.04
611.154	-0.05
611.343	-0.01
611.532	0
611.721	-0.02
611.91	-0
612.099	0.01
612.287	-0.01
612.476	-0.02
612.665	0.01
612.854	-0.04
613.043	0.04
613.232	-0.02
613.421	-0.07
613.61	0
613.798	-0.04
613.987	0.02
614.176	-0
614.365	0.02
614.554	-0
614.742	0.03
614.931	-0
615.12	0.01
615.309	-0.03
615.497	0.01
615.686	-0.06
615.875	-0.01
616.063	0.03
616.252	-0.01
616.44	-0.02
616.629	-0.02
616.818	0.05
617.006	-0
617.195	-0.01
617.383	0.03
617.572	0
617.76	-0.03
617.949	-0.01
618.137	-0.01
618.326	0.02
618.514	-0.03
618.703	-0.03
618.891	0.04
619.079	-0.07
619.268	0.04
619.456	-0.04
619.644	0.03
619.833	-0.02
620.021	-0.03
620.209	-0.08
620.398	0.01
620.586	-0.02
620.774	0.02
620.962	-0
621.151	0.06
621.339	-0.01
621.527	-0.05
621.715	-0.05
621.903	-0.02
622.092	-0.05
622.28	-0.03
622.468	-0.02
622.656	0.03
622.844	0.02
623.032	-0.04
623.22	-0.05
623.408	0.01
623.596	0
623.784	0.04
623.972	-0.02
624.16	-0.01
624.348	0.05
624.536	-0.03
624.724	-0.02
624.912	0.03
625.1	0.02
625.288	-0.02
625.476	-0.01
625.664	0.05
625.851	-0.03
626.039	-0.01
626.227	0.01
626.415	-0.01
626.603	-0.06
626.79	0.01
626.978	0.01
627.166	0.01
627.354	-0.01
627.541	-0.04
627.729	-0.04
627.917	0.02
628.104	0.03
628.292	-0.01
628.48	-0.01
628.667	-0.02
628.855	-0
629.042	0.05
629.23	-0.02
629.418	-0.01
629.605	-0.03
629.793	-0.01
629.98	-0.03
630.168	-0.04
630.355	-0.01
630.543	0.03
630.73	-0.03
630.917	0.02
631.105	0.05
631.292	0.01
631.48	-0.05
631.667	0.07
631.854	0.02
632.042	0.01
632.229	-0.05
632.416	-0.01
632.604	-0.01
632.791	-0.04
632.978	-0.01
633.165	0.01
633.353	0.05
633.54	0.01
633.727	-0.05
633.914	-0.01
634.101	-0.11
634.289	0.04
634.476	-0.06
634.663	-0.03
634.85	0.04
635.037	-0.08
635.224	-0.08
635.411	0.03
635.598	0.04
635.785	0.04
635.972	-0.02
636.159	0.04
636.346	-0.04
636.533	-0.02
636.72	-0.01
636.907	-0.01
637.094	-0.01
637.281	-0
637.468	-0.02
637.655	-0.03
637.842	-0.01
638.029	-0.02
638.215	0.02
638.402	0.03
638.589	-0.03
638.776	-0.03
638.963	0.01
639.149	0.02
639.336	0.08
639.523	0
639.709	-0.01
639.896	-0
640.083	0.06
640.27	0
640.456	-0.02
640.643	0.02
640.829	-0.08
641.016	-0.01
641.203	-0.05
641.389	0.01
641.576	0.03
641.762	-0.02
641.949	-0.06
642.135	0.01
642.322	0.03
642.508	-0.06
642.695	-0
642.881	-0.03
643.068	-0.01
643.254	-0.02
643.441	0.01
643.627	-0.03
643.813	-0.01
644	0.01
644.186	-0.02
644.372	0.03
644.559	0.03
644.745	-0.01
644.931	-0.04
645.118	-0.02
645.304	-0.01
645.49	-0.01
645.676	-0.04
645.862	0.02
646.049	0.02
646.235	-0.01
646.421	0.05
646.607	0.06
646.793	-0.04
646.979	-0.04
647.165	0.01
647.352	0
647.538	0.05
647.724	0.01
647.91	-0.02
648.096	0.04
648.282	0.02
648.468	-0.03
648.654	-0.02
648.84	-0.01
649.026	-0
649.212	-0.02
649.397	-0.04
649.583	-0.04
649.769	0.02
649.955	-0.01
650.141	0.02
650.327	0.04
650.513	-0.02
650.698	0.01
650.884	-0.08
651.07	-0.03
651.256	-0.04
651.442	-0.02
651.627	-0.01
651.813	-0.01
651.999	0
652.184	-0.01
652.37	-0.02
652.556	-0.06
652.741	0.07
652.927	-0.09
653.113	-0.01
653.298	-0.01
653.484	-0.05
653.669	-0.05
653.855	-0.05
654.04	0.02
654.226	-0
654.412	-0.02
654.597	-0.04
654.782	0.01
654.968	0.05
655.153	0
655.339	-0.05
655.524	-0.08
655.71	0.01
655.895	-0.04
656.08	-0.02
656.266	0.04
656.451	0.01
656.636	-0.04
656.822	-0.03
657.007	-0.02
657.192	-0.02
657.378	-0.08
657.563	-0.03
657.748	0.01
657.933	0.05
658.118	-0.04
658.304	-0.01
658.489	0.01
658.674	-0.01
658.859	-0.05
659.044	0.01
659.229	-0.01
659.414	-0.04
659.599	-0.03
659.785	-0.04
659.97	-0.04
660.155	0.01
660.34	-0.02
660.525	-0.01
660.71	-0.03
660.895	0.01
661.08	-0.05
661.264	-0.01
661.449	0.02
661.634	0.01
661.819	-0
662.004	0.01
662.189	-0.09
662.374	-0.03
662.559	-0.05
662.743	-0.07
662.928	-0.03
663.113	-0.02
663.298	-0.09
663.483	-0.05
663.667	-0.03
663.852	-0.05
664.037	-0.01
664.221	-0.05
664.406	0.02
664.591	0.02
664.775	0.02
664.96	0.02
665.145	-0.01
665.329	0.02
665.514	-0.04
665.698	-0.02
665.883	-0.06
666.068	0.05
666.252	-0.02
666.437	-0.04
666.621	-0.03
666.806	0.03
666.99	-0.03
667.174	-0.09
667.359	0.06
667.543	-0.04
667.728	-0.05
667.912	-0.08
668.096	-0.01
668.281	-0.04
668.465	-0.03
668.649	0
668.834	0
669.018	-0.06
669.202	-0.03
669.387	-0.02
669.571	0.06
669.755	-0.05
669.939	-0.02
670.124	-0.02
670.308	0.01
670.492	0.03
670.676	-0.04
670.86	-0.05
671.044	-0.08
671.228	0.02
671.413	-0.05
671.597	-0.01
671.781	-0.04
671.965	0.02
672.149	-0.04
672.333	-0.01
672.517	-0.04
672.701	0.02
672.885	-0.02
673.069	-0.06
673.253	0.03
673.437	-0.03
673.621	-0.06
673.804	-0.02
673.988	-0.04
674.172	-0.01
674.356	-0.04
674.54	-0.02
674.724	0.07
674.908	-0.02
675.091	-0.03
675.275	-0.03
675.459	0.02
675.643	-0
675.826	0.02
676.01	0.02
676.194	-0.04
676.377	0.03
676.561	0
676.745	-0
676.928	0.03
677.112	0.05
677.296	-0.02
677.479	-0.02
677.663	-0.04
677.846	0.01
678.03	-0.01
678.213	-0.02
678.397	0.04
678.58	-0
678.764	-0.03
678.947	-0.07
679.131	-0.07
679.314	0.02
679.498	0.02
679.681	-0.01
679.865	0.03
680.048	-0.01
680.231	-0.05
680.415	-0.06
680.598	-0.04
680.781	-0.02
680.965	-0.05
681.148	0.03
681.331	-0.03
681.514	-0.02
681.698	-0.04
681.881	-0
682.064	-0.01
682.247	0.03
682.43	-0.06
682.614	-0
682.797	0.02
682.98	0.01
683.163	-0.06
683.346	0.03
683.529	-0.03
683.712	-0.05
683.895	-0.01
684.078	-0.07
684.261	-0.05
684.444	0.03
684.627	0.04
684.81	-0.04
684.993	0
685.176	0.01
685.359	-0.06
685.542	-0.05
685.725	0.05
685.908	-0.02
686.091	-0.03
686.274	0
686.457	0.03
686.639	-0.02
686.822	-0.02
687.005	-0.01
687.188	0.05
687.371	0.05
687.553	-0.01
687.736	0.02
687.919	0.06
688.102	0.04
688.284	-0.04
688.467	-0.02
688.65	-0
688.832	0.01
689.015	-0.03
689.197	-0.08
689.38	0.06
689.563	0.1
689.745	-0.09
689.928	-0.02
690.11	-0.03
690.293	0.05
690.475	-0.06
690.658	0
690.84	-0.04
691.023	0.03
691.205	-0.01
691.388	-0.02
691.57	0.06
691.752	0.01
691.935	-0.1
692.117	-0.02
692.3	0.02
692.482	-0.08
692.664	-0.04
692.847	0.02
693.029	0.09
693.211	0.02
693.393	-0.05
693.576	-0.01
693.758	0.03
693.94	-0.03
694.122	-0.04
694.304	-0.06
694.487	-0.05
694.669	0.04
694.851	-0.04
695.033	-0.01
695.215	-0.06
695.397	-0.06
695.579	0.05
695.761	-0.03
695.943	-0.1
696.125	0.06
696.308	0.04
696.49	-0.15
696.671	0.06
696.853	0.05
697.035	0.12
697.217	-0.02
697.399	-0.02
697.581	-0.04
697.763	-0.02
697.945	-0.04
698.127	0.06
698.309	0.07
698.491	-0.02
698.672	0.04
698.854	0.02
699.036	0.05
699.218	0
699.399	0.02
699.581	0.04
699.763	0
699.945	-0.05
700.126	-0.05
700.308	0.03
700.49	-0.07
700.671	-0.11
700.853	-0.03
701.035	-0.06
701.216	-0.05
701.398	-0.07
701.579	-0.06
701.761	0.03
701.943	-0.09
702.124	-0.05
702.306	-0.06
702.487	0.1
702.669	0.01
702.85	-0.1
703.031	-0.11
703.213	0.09
703.394	0.07
703.576	-0.06
703.757	0.02
703.938	0.09
704.12	0.1
704.301	-0.04
704.483	-0.03
704.664	-0.01
704.845	0.1
705.026	0.01
705.208	-0.03
705.389	-0.02
705.57	0.01
705.751	-0.03
705.933	-0.02
706.114	0.05
706.295	-0.04
706.476	-0.13
706.657	0.07
706.838	0.04
707.02	0.04
707.201	-0.05
707.382	-0.09
707.563	0.04
707.744	-0.05
707.925	-0.08
708.106	-0.11
708.287	0.02
708.468	0.06
708.649	-0
708.83	-0.01
709.011	-0.06
709.192	0.03
709.373	-0.08
709.554	-0.04
709.734	0
709.915	0.02
710.096	-0.02
710.277	-0.15
710.458	-0.04
710.639	0.03
710.819	-0.12
711	-0.02
711.181	0.08
711.362	0.05
711.542	-0.05
711.723	-0.01
711.904	0.09
712.085	-0.02
712.265	-0
712.446	-0.08
712.627	0.03
712.807	-0.08
712.988	-0.03
713.168	-0.1
713.349	-0.04
713.53	-0.11
713.71	-0.12
713.891	-0.08
714.071	-0.06
714.252	-0.03
714.432	-0.07
714.613	-0.12
714.793	0
714.974	0.02
715.154	0.04
715.334	0.01
715.515	0.07
715.695	-0.06
715.876	0.05
716.056	-0.02
716.236	0.01
716.417	-0.06
716.597	-0.07
716.777	0.15
716.957	-0.06
717.138	0.01
717.318	0.03
717.498	-0.13
717.678	0.01
717.859	0.06
718.039	-0.09
718.219	-0.06
718.399	0.04
718.579	-0.12
718.759	-0.11
718.939	-0.05
719.12	0
719.3	-0.02
719.48	-0.15
719.66	-0.17
719.84	0.04
720.02	-0.01
720.2	-0.04
720.38	-0.01
720.56	0.06
720.74	-0.06
720.92	0.02
721.1	0.04
721.279	0.03
721.459	0.02
721.639	-0.16
721.819	0.05
721.999	0.01
722.179	0.02
722.359	-0.17
722.538	0.02
722.718	0.04
722.898	-0.11
723.078	-0.01
723.257	-0.08
723.437	0.01
723.617	0.01
723.797	0
723.976	0.01
724.156	0
724.336	0.08
724.515	0.13
724.695	-0.14
724.874	-0.02
725.054	0.01
725.234	-0.12
725.413	0.02
725.593	-0.08
725.772	-0.05
725.952	-0.06
726.131	0.01
726.311	-0.02
726.49	-0.03
726.67	-0.12
726.849	-0.1
727.028	-0.09
727.208	-0.11
727.387	0.03
727.567	-0.1
727.746	0.01
727.925	-0.09
728.105	-0.1
728.284	-0.04
728.463	-0.11
728.643	0.04
728.822	-0.15
729.001	-0.14
729.18	-0.06
729.359	-0.09
729.539	-0.06
729.718	-0.03
729.897	0.03
730.076	-0.13
730.255	-0.1
730.434	-0.02
730.614	0.03
730.793	0.08
730.972	-0.04
731.151	-0.02
731.33	0.16
731.509	0.1
731.688	0.03
731.867	-0.08
732.046	-0.12
732.225	0.12
732.404	-0.07
732.583	-0.18
732.762	-0.02
732.941	0.04
733.12	0.13
733.298	-0.01
733.477	0.03
733.656	0.02
733.835	-0.13
734.014	0.01
734.193	-0.02
734.371	0
734.55	0.03
734.729	-0.12
734.908	-0.04
735.086	0.09
735.265	0.06
735.444	-0.18
735.623	-0.19
735.801	-0.15
735.98	-0.02
736.159	-0.03
736.337	0.03
736.516	-0.01
736.694	0.01
736.873	-0.05
737.052	0.13
737.23	0.1
737.409	-0.07
737.587	0.13
737.766	-0.22
737.944	-0.03
738.123	-0.01
738.301	-0.05
738.479	-0.04
738.658	-0.03
738.836	-0.26
739.015	0.01
739.193	0.05
739.371	-0.13
739.55	-0.05
739.728	-0.07
739.906	0.09
740.085	0.11
740.263	-0.03
740.441	-0.2
740.62	0.11
740.798	0.02
740.976	-0.06
741.154	-0.12
741.332	0.1
741.511	-0.07
741.689	0.02
741.867	0.1
742.045	0.01
742.223	-0.08
742.401	-0.24
742.579	-0.1
742.757	-0.02
742.935	-0.12
743.114	-0.04
743.292	-0.06
743.47	0.01
743.648	-0.05
743.826	0.04
744.004	-0.02
744.181	0.06
744.359	-0.01
744.537	0.01
744.715	-0.07
744.893	-0.03
745.071	0.01
745.249	-0.11
745.427	-0.06
745.605	-0.03
745.782	0.06
745.96	0.01
746.138	0.03
746.316	0.09
746.493	-0.04
746.671	0.06
746.849	-0.11
747.027	0.12
747.204	-0.09
747.382	0.05
747.56	-0.1
747.737	-0.01
747.915	-0.05
748.093	0.04
748.27	-0.11
748.448	-0.07
748.625	-0.06
748.803	-0.08
748.98	-0.01
749.158	0.03
749.335	0.09
749.513	-0.09
749.69	0
749.868	-0.06
750.045	-0.06
750.223	-0.02
750.4	-0.28
750.578	0.17
750.755	-0.03
750.932	-0.23
751.11	0.08
751.287	-0.19
751.464	0.07
751.642	-0.14
751.819	0.06
751.996	-0.01
752.173	-0.05
752.351	-0.18
752.528	-0.08
752.705	-0.02
752.882	-0.13
753.06	-0.01
753.237	-0.01
753.414	0.25
753.591	0.11
753.768	-0.01
753.945	-0.07
754.122	-0.1
754.299	0.01
754.476	-0.19
754.654	-0.08
754.831	-0.02
755.008	-0.1
755.185	-0.07
755.362	-0.11
755.539	-0.04
755.716	-0.14
755.892	-0.09
756.069	-0.03
756.246	-0.16
756.423	-0.11
756.6	0.03
756.777	-0.04
756.954	0.05
757.131	-0.03
757.307	-0.09
757.484	-0.19
757.661	0.04
757.838	0.01
758.015	-0.09
758.191	0.03
758.368	-0.03
758.545	0.08
758.721	-0.01
758.898	-0.15
759.075	0.04
759.251	0.09
759.428	0.13
759.605	-0.1
759.781	-0.02
759.958	0.02
760.134	0.04
760.311	-0.1
760.488	0.1
760.664	0.05
760.841	0.01
761.017	-0.16
761.194	-0
761.37	0.13
761.547	0.03
761.723	0.04
761.899	0.08
762.076	-0.08
762.252	-0.08
762.429	-0.13
762.605	-0.03
762.781	-0.08
762.958	-0.01
763.134	-0.08
763.31	-0.11
763.486	0.06
763.663	-0.2
763.839	-0.02
764.015	-0.21
764.191	-0.06
764.368	-0.08
764.544	-0.06
764.72	0.03
764.896	0.05
765.072	-0.03
765.248	-0.06
765.425	-0.08
765.601	-0.04
765.777	-0.01
765.953	-0.17
766.129	-0.12
766.305	-0.05
766.481	0.03
766.657	-0.05
766.833	0.22
767.009	-0.14
767.185	-0.03
767.361	0.07
767.537	-0.09
767.713	0.09
767.889	-0.16
768.065	-0.1
768.24	-0.01
768.416	0.06
768.592	-0.03
768.768	-0.09
768.944	-0.04
769.12	-0.03
769.295	-0.02
769.471	-0.02
769.647	0.1
769.823	0.19
769.998	-0.11
770.174	-0.07
770.35	0.3
770.525	0.29
770.701	-0.07
770.877	-0.1
771.052	-0.21
771.228	0.1
771.403	-0.02
771.579	0.06
771.755	0.21
771.93	-0.04
772.106	-0.15
772.281	-0.21
772.457	-0.04
772.632	0.08
772.808	-0.18
772.983	-0.15
773.159	-0.27
773.334	0.02
773.509	0.04
773.685	-0.22
773.86	0.34
774.036	0.14
774.211	-0.16
774.386	-0.11
774.562	-0.07
774.737	-0.06
774.912	-0.28
775.087	0.04
775.263	-0.11
775.438	-0.09
775.613	0.02
775.788	-0.12
775.964	0.17
776.139	0.25
776.314	-0.13
776.489	-0.12
776.664	0.07
776.839	-0.24
777.014	0.1
777.19	0.13
777.365	0.31
777.54	0.13
777.715	-0.12
777.89	-0.02
778.065	-0.25
778.24	-0
778.415	0.04
778.59	-0.23
778.765	-0.13
778.94	-0.01
779.115	-0.07
779.289	-0.01
779.464	-0.11
779.639	0.01
779.814	-0.24
779.989	-0.22
780.164	0.2
780.339	-0.02
780.513	-0.22
780.688	-0.11
780.863	-0.11
781.038	0.19
781.212	-0.3
781.387	-0.07
781.562	0.27
781.737	-0.03
781.911	0.28
782.086	-0.06
782.261	0.07
782.435	0.21
782.61	-0.14
782.784	-0.14
782.959	0.19
783.134	-0.02
783.308	-0.32
783.483	-0.11
783.657	0.36
783.832	0.17
784.006	-0.27
784.181	-0.05
784.355	0.04
784.53	0.15
784.704	-0.05
784.878	0.01
785.053	-0.03
785.227	0.33
785.402	0.29
785.576	-0.23
785.75	-0.08
785.925	-0.22
786.099	0.03
786.273	0.07
786.448	-0.03
786.622	-0.1
786.796	0.14
786.97	-0.22
787.145	0.4
787.319	-0.34
787.493	-0.39
787.667	-0.4
787.841	-0.02
788.015	0.33
788.19	-0.14
788.364	0.06
788.538	0.14
788.712	0.16
788.886	-0.15
789.06	0.19
789.234	0.15
789.408	-0.13
789.582	-0.02
789.756	-0.18
789.93	-0.37
790.104	-0.19
790.278	0.11
790.452	-0.17
790.626	0.16
790.8	-0.15
790.973	0.22
791.147	0.26
791.321	0.39
791.495	0.29
791.669	0.05
791.843	-0.05
792.016	0.13
792.19	0.29
792.364	-0.08
792.538	0.52
792.711	0.12
792.885	-0.09
793.059	-0.26
793.233	-0.52
793.406	0.12
793.58	0.04
793.754	-0.13
793.927	-0.01
794.101	0.21
794.274	0.08
794.448	0.23
794.622	-0.36
794.795	0.31
794.969	-0.13
795.142	0.07
795.316	-0.05
795.489	-0.19
795.663	0.22
795.836	-0.15
796.009	-0.2
796.183	0.26
796.356	0.02
796.53	-0.17
796.703	-0.2
796.876	0.47
797.05	-0.21
797.223	-0.18
797.396	-0.03
797.57	-0.08
797.743	0.55
797.916	0.17
798.09	0.1
798.263	0.04
798.436	0.09
798.609	-0.18
798.782	-0.13
798.956	0.05
799.129	-0.32
799.302	-0.12
799.475	-0.21
799.648	-0.16
799.821	-0.11
799.994	-0.07
800.167	-0.39
800.34	-0.02
800.514	0.02
800.687	-0.3
800.86	-0.13
801.033	-0.16
801.206	0.09
801.379	-0.24
801.551	0.07
801.724	-0.02
801.897	0.07
802.07	-0.5
802.243	-0.55
802.416	-0.24
802.589	-0.02
802.762	0
802.935	-0.13
803.107	0.07
803.28	0.11
803.453	0.18
803.626	-0.31
803.798	-0.01
803.971	-0.41
804.144	0.16
804.317	0.25
804.489	-0.02
804.662	0.11
804.835	-0.24
805.007	-0.17
805.18	0.64
805.353	0.15
805.525	-0.43
805.698	-0.47
805.87	0.28
806.043	0.31
806.215	-0.34
806.388	-0.36
806.56	0.07
806.733	0.4
806.905	0.32
807.078	-0.55
807.25	-0.25
807.423	-0
807.595	-0.16
807.768	-0.07
807.94	0.39
808.112	0.24
808.285	0.1
808.457	-0.57
808.629	-0.27
808.802	0.25
808.974	-0.09
809.146	-0.24
809.318	-0.12
809.491	0.1
809.663	0.21
809.835	-0.43
810.007	0.42
810.18	0.01
810.352	-0.26
810.524	-0.13
810.696	0.15
810.868	0.19
811.04	-0.2
811.212	-0.52
811.384	0.23
811.556	-0.2
811.728	-0.09
811.901	0.83
812.073	-0.03
812.245	0.23
812.417	-0.22
812.589	-0.38
812.76	-0.09
812.932	0.15
813.104	0.26
813.276	-0.13
813.448	0.31
813.62	0.1
813.792	-0.01
813.964	-0.1
814.136	-0.16
814.307	-0.61
814.479	-0.21
814.651	-0.08
814.823	0.75
814.995	-0.53
815.166	0.16
815.338	-0.71
815.51	-0.66
815.681	0.37
815.853	0.14
816.025	-0.5
816.196	0.39
816.368	-0.05
816.54	-0.47
816.711	-0.35
816.883	-0.05
817.054	0.78
817.226	-0.33
817.398	0.03
817.569	-0.5
817.741	0.4
817.912	-0.4
818.084	-0.53
818.255	0.26
818.426	-0.34
818.598	-0.34
818.769	-0.49
818.941	0.35
819.112	0.49
819.283	0.1
819.455	-0.81
819.626	-0.07
819.798	-0.11
819.969	-0.01
820.14	-0.32
820.311	-0.08
820.483	0.34
820.654	0.03
820.825	-0.35
820.996	0.22
821.168	-0.6
821.339	-0.27
821.51	-0.48
821.681	-0.49
821.852	0.4
822.023	-0.42
822.195	-1.19
822.366	0.39
822.537	0.12
822.708	0.02
822.879	-0.73
823.05	0.36
823.221	-0.23
823.392	0.44
823.563	0.05
823.734	-0.06
823.905	0.16
824.076	-0.91
824.247	-0.31
824.418	-0.33
824.589	0.64
824.759	-0.66
824.93	0.05
825.101	-0.74
825.272	0.54
825.443	0.46
825.614	0.62
825.784	-1
825.955	0.78
826.126	0.64
826.297	-0.47
826.467	0.54
826.638	0.24
826.809	-1.22
826.98	-0.47
827.15	0.29
827.321	0.18
827.492	0.34
827.662	-0.38
827.833	0.61
828.003	0.03
828.174	-0.68
828.345	-1.28
828.515	0.38
828.686	0.19
828.856	-0.55
829.027	-0.21
829.197	0.15
829.368	-0.27
829.538	-0.35
829.709	0.02
829.879	-0.29
830.049	-0.27
830.22	-0.29
830.39	-0.29
830.56	0.42
830.731	-0.24
830.901	-1.23
831.072	-0.42
831.242	-0.44
831.412	0.13
831.582	0.1
831.753	-0.92
831.923	0.26
832.093	-0.11
832.263	-0.18
832.434	-0.73
832.604	-0.22
832.774	0.27
832.944	-0.01
833.114	-0.69
833.284	0.18
833.454	-0.57
833.624	-0.88
833.795	-0.57
833.965	0.84
834.135	-0.08
834.305	-0.99
834.475	-0.96
834.645	-0.31
834.815	0.12
834.985	-0.67
835.155	0.19
835.325	-0.28
835.494	0.13
835.664	-0.4
835.834	-0.95
836.004	-0.31
836.174	0.44
836.344	0.1
836.514	-0.6
836.684	-0.61
836.853	-0.25
837.023	0.16
837.193	-0.98
837.363	0.75
837.532	0.75
837.702	-0.35
837.872	0.36
838.041	0.23
838.211	0.83
838.381	-0.81
838.55	-0.19
838.72	1.8
838.89	1.37
839.059	-0.5
839.229	-0.85
839.398	0.93
839.568	0.21
839.738	-0.03
839.907	0.73
840.077	-0.51
840.246	-0.49
840.416	-1.23
840.585	-0.98
840.755	0.69
840.924	0.47
841.093	-0.69
841.263	-0.5
841.432	0.27
841.602	-0.59
841.771	-0.85
841.94	-0.63
842.11	1.59
842.279	0.95
842.448	-0.59
842.617	-0.38
842.787	0.85
842.956	-0.91
843.125	-0.5
843.294	-0.78
843.464	0.33
843.633	0.11
843.802	-1.4
843.971	-0.29
844.14	0.68
844.309	-0.18
844.479	-0.92
844.648	-1.13
844.817	-0.51
844.986	-0.6
845.155	-0.02
845.324	0.03
845.493	0.6
845.662	-0.76
845.831	0.49
846	0.5
846.169	-0.82
846.338	1.15
846.507	-0.12
846.676	-0.04
846.844	-1.14
847.013	0.24
847.182	-0.96
847.351	-0.75
847.52	0.09
847.689	-0.15
847.858	-0.72
848.026	-0.92
848.195	-0.16
848.364	-0.76
848.533	-1.01
848.701	-0.76
848.87	-0.19
849.039	0.33
849.207	0.38
849.376	0.56
849.545	1.2
849.713	-1.11
849.882	-0.16
850.051	-0.78
850.219	-0.67
850.388	0.18
850.556	-1.18
850.725	-0.39
850.893	0.24
851.062	0.34
851.23	0.31
851.399	-1.06
851.567	-0.52
851.736	0.36
851.904	-1.24
852.073	0.32
852.241	0.38
852.41	-0.63
852.578	0.08
852.746	-0.48
852.915	0.35
853.083	0.89
853.251	-1.04
853.42	-0.68
853.588	0.42
853.756	1.69
853.924	-0.1
854.093	-0.63
854.261	-0.24
854.429	-1.95
854.597	-0.58
854.765	-1.98
854.934	1.77
855.102	0.75
855.27	-1.07
855.438	0.68
855.606	0.59
855.774	1.42
855.942	-2.16
856.11	-1.42
856.278	0.07
856.446	1.26
856.614	-0.47
856.782	-0.71
856.95	1.4
857.118	0.74
857.286	0.11
857.454	-1.55
857.622	0.88
857.79	1.71
857.958	-0.98
858.126	-1.6
858.294	-2.05
858.462	-0.3
858.629	-0.46
858.797	-1.86
858.965	0.34
859.133	1.14
859.301	-0.4
859.468	0.37
859.636	-0.31
859.804	1
859.971	0.67
860.139	-2.23
860.307	0.14
860.474	-1.19
860.642	-1.47
860.81	-1.43
860.977	-1
861.145	1.88
861.313	-0.67
861.48	-0.24
861.648	1.09
861.815	-0.74
861.983	-1.33
862.15	-1.39
862.318	1.35
862.485	1.77
862.653	-1.95
862.82	-2.04
862.988	0.88
863.155	0.22
863.322	-2.08
863.49	-2.1
863.657	-1.23
863.824	2.21
863.992	0.58
864.159	0
864.326	0.35
864.494	-0.56
864.661	2.54
864.828	-1.87
864.996	1.65
865.163	2.29
865.33	-0.65
865.497	-3.1
865.664	0.43
865.832	-0.84
865.999	-0.64
866.166	-2.05
866.333	-1.04
866.5	-2.01
866.667	-0.18
866.834	-0.64
867.001	0.78
867.168	-2.42
867.335	-1.78
867.502	0.53
867.669	0.55
867.836	1.81
868.003	-0.41
868.17	2.6
868.337	2.69
868.504	2.35
868.671	-3.38
868.838	-1.86
869.005	0.88
869.172	1.29
869.339	-0.88
869.505	0.82
869.672	-1.06
869.839	2.16
870.006	0.47
870.173	-2.08
870.339	1.53
870.506	2.35
870.673	-2.46
870.84	1.15
871.006	-0.27
871.173	-0.29
871.34	-0.13
871.506	-1.47
871.673	0.13
871.839	-2.19
872.006	-0.46
872.173	-1.02
872.339	-0.66
872.506	2.25
872.672	-1.94
872.839	-1
873.005	0.87
873.172	2.92
873.338	1.2
873.505	0.05
873.671	-0.87
873.838	-0.29
874.004	-1.43
874.171	-2.1
874.337	0.21
874.503	-0.24
874.67	-2.2
874.836	-1.34
875.002	2.33
875.169	0.4
875.335	-0.56
875.501	0.28
875.668	0.88
875.834	-0.81
876	-1.28
876.166	1.04
876.332	-1.13
876.499	1.59
876.665	-1.81
876.831	-0.51
876.997	2.6
877.163	0.02
877.329	-0.42
877.495	1.7
877.662	1.56
877.828	-0.57
877.994	-0.5
878.16	-4.32
878.326	-1.72
878.492	-1.07
878.658	-1.87
878.824	1.25
878.99	0
879.156	-2.96
879.322	2.26
879.487	-0.52
879.653	-0.63
879.819	0.64
879.985	-2.69
880.151	0.49
880.317	-1.08
880.483	0.73
880.648	1.12
880.814	-2.89
880.98	0.1
881.146	-4.18
881.312	-0.6
881.477	-0.94
881.643	1.47
881.809	1.19
881.974	1.43
882.14	-0.96
882.306	2.02
882.471	3.54
882.637	-2.55
882.803	2.44
882.968	2.62
883.134	4.12
883.299	1.22
883.465	-0.39
883.63	1.4
883.796	-0.52
883.961	-0.56
884.127	-0.59
884.292	-5.23
884.458	-1.9
884.623	-1.9
