Data from Apollo_Calib_20240827__AbsoluteIrradiance__472__07-01-02-886.txt Node

Date: Wed Aug 28 07:01:02 BST 2024
User: biology
Spectrometer: FLMT08252
Trigger mode: 0
Integration Time (sec): 5.000000E-1
Scans to average: 5
Electric dark correction enabled: true
Nonlinearity correction enabled: false
Boxcar width: 0
XAxis mode: Wavelengths
Number of Pixels in Spectrum: 3648
>>>>>Begin Spectral Data<<<<<
179.588	-0
179.809	-0
180.03	-0
180.251	-0
180.473	-0
180.694	0
180.915	0
181.136	-0
181.357	0
181.578	-0
181.799	-0
182.02	-0
182.241	0
182.462	-0
182.683	0
182.904	-0
183.125	-0
183.346	0
183.567	0
183.788	-0
184.009	-0
184.23	0
184.451	0
184.672	-0
184.892	-0
185.113	0
185.334	0
185.555	-0
185.776	-0
185.996	0
186.217	-0
186.438	-0
186.659	-0
186.879	0
187.1	-0
187.321	-0
187.541	-0
187.762	-0
187.983	-0
188.203	-0
188.424	-0
188.644	-0
188.865	0
189.086	-0
189.306	-0
189.527	-0
189.747	-0
189.968	-0
190.188	0
190.409	-0
190.629	0
190.849	-0
191.07	-0
191.29	0
191.511	0
191.731	-0
191.951	-0
192.172	-0
192.392	-0
192.612	-0
192.833	-0
193.053	0
193.273	0
193.493	-0
193.714	-0
193.934	0
194.154	0
194.374	0
194.594	-0
194.815	-0
195.035	0
195.255	-0
195.475	-0
195.695	0
195.915	0
196.135	-0
196.355	0
196.575	0
196.795	0
197.015	-0
197.235	-0
197.455	-0
197.675	0
197.895	-0
198.115	-0
198.335	0
198.555	-0
198.775	-0
198.995	0
199.214	0
199.434	-0
199.654	-0
199.874	-0
200.094	-2.09
200.313	-0.65
200.533	-0.53
200.753	-1.12
200.973	0.62
201.192	0.45
201.412	-1.43
201.632	-0.47
201.851	0.5
202.071	-0.5
202.291	-0.01
202.51	-0.54
202.73	0.26
202.95	-0.48
203.169	-0.51
203.389	0.03
203.608	0.09
203.828	-0.63
204.047	-0.29
204.267	0.41
204.486	-0.3
204.706	0.21
204.925	-0.25
205.145	-0.45
205.364	0.26
205.583	0.57
205.803	-0.56
206.022	-0.43
206.242	-0.36
206.461	0.06
206.68	-0.25
206.9	-0.1
207.119	0.19
207.338	0.07
207.557	-0.06
207.777	-0.18
207.996	0.04
208.215	0.29
208.434	-0.28
208.654	-0.43
208.873	-0.02
209.092	0.11
209.311	-0.25
209.53	-0
209.749	-0.28
209.968	-0.17
210.187	-0.39
210.407	-0.49
210.626	-0.27
210.845	0.18
211.064	0.01
211.283	-0.32
211.502	0.18
211.721	-0.18
211.94	-0.19
212.159	-0.17
212.377	0.03
212.596	0.31
212.815	-0.16
213.034	-0.09
213.253	0.17
213.472	0.06
213.691	-0.33
213.91	-0.31
214.128	-0.29
214.347	0.14
214.566	-0.29
214.785	-0.43
215.003	0.08
215.222	-0.05
215.441	-0.09
215.66	-0.48
215.878	0.03
216.097	0.37
216.316	-0.3
216.534	-0.26
216.753	-0.05
216.972	-0.13
217.19	-0.03
217.409	-0.14
217.627	-0.15
217.846	-0
218.064	-0.11
218.283	-0.05
218.501	0.29
218.72	0.11
218.938	-0.24
219.157	-0.27
219.375	-0.02
219.594	0.1
219.812	-0.22
220.031	-0.26
220.249	0.18
220.467	0.08
220.686	-0.09
220.904	-0.33
221.122	-0.29
221.341	0.23
221.559	-0.07
221.777	-0.33
221.995	-0.04
222.214	0.05
222.432	-0.19
222.65	0.06
222.868	-0.11
223.086	-0
223.305	-0.05
223.523	-0.06
223.741	0.19
223.959	-0.22
224.177	-0.48
224.395	-0.04
224.613	0.05
224.831	-0.09
225.049	-0.23
225.267	-0.13
225.485	-0.02
225.703	-0.09
225.921	-0.19
226.139	-0.23
226.357	0.06
226.575	-0.08
226.793	-0.2
227.011	0.39
227.229	0.07
227.447	-0
227.665	-0.06
227.883	-0.29
228.1	-0.01
228.318	0.07
228.536	-0.26
228.754	-0.19
228.972	0
229.189	0.15
229.407	-0.06
229.625	-0.09
229.843	0.04
230.06	0.04
230.278	-0.06
230.496	-0.08
230.713	-0.05
230.931	0.14
231.149	-0.19
231.366	-0.17
231.584	-0.12
231.801	0.17
232.019	-0.07
232.236	-0.21
232.454	-0.13
232.671	-0.03
232.889	-0.12
233.106	-0.26
233.324	-0.02
233.541	-0.14
233.759	-0.17
233.976	-0.08
234.194	0.03
234.411	-0.12
234.628	-0.09
234.846	-0.05
235.063	-0.09
235.28	-0.1
235.498	0.07
235.715	-0.12
235.932	0.05
236.149	-0.06
236.367	-0.22
236.584	-0.07
236.801	-0.14
237.018	-0.06
237.236	0.03
237.453	-0.15
237.67	0.1
237.887	-0.1
238.104	-0
238.321	-0.17
238.538	-0.16
238.755	0.17
238.973	-0.13
239.19	-0.02
239.407	-0
239.624	-0.03
239.841	-0.16
240.058	-0.15
240.275	0.1
240.492	-0.06
240.709	-0.05
240.925	-0.12
241.142	-0
241.359	-0.12
241.576	-0.17
241.793	-0.11
242.01	-0.16
242.227	0.04
242.444	0.01
242.66	0.07
242.877	0.01
243.094	-0.08
243.311	-0.13
243.527	-0.13
243.744	0.04
243.961	-0.04
244.178	-0.09
244.394	-0.12
244.611	0.03
244.828	0.11
245.044	-0.15
245.261	-0.07
245.477	-0.05
245.694	0.06
245.911	-0.06
246.127	-0.06
246.344	0.09
246.56	0.09
246.777	-0.04
246.993	-0.06
247.21	0.01
247.426	-0.02
247.643	-0.07
247.859	-0.12
248.076	-0.07
248.292	0.18
248.508	-0.04
248.725	0
248.941	0.02
249.157	0.09
249.374	-0.09
249.59	-0.03
249.806	-0.01
250.023	0.04
250.239	-0.15
250.455	-0.06
250.671	0.05
250.888	0.01
251.104	0.01
251.32	-0.16
251.536	-0.03
251.752	-0.06
251.969	0.03
252.185	0
252.401	0.1
252.617	0.03
252.833	-0.06
253.049	0.01
253.265	-0.01
253.481	-0
253.697	-0.1
253.913	-0.11
254.129	-0.01
254.345	0.01
254.561	-0.03
254.777	-0.02
254.993	0.05
255.209	-0.08
255.425	-0.02
255.641	-0.11
255.857	0.07
256.073	0.01
256.288	-0.08
256.504	-0.09
256.72	-0.05
256.936	0.1
257.152	-0.01
257.367	-0.08
257.583	0
257.799	0.02
258.015	-0.07
258.23	-0.1
258.446	0.1
258.662	-0.01
258.877	-0.05
259.093	-0.11
259.309	0
259.524	-0.08
259.74	-0.08
259.955	-0.12
260.171	-0.08
260.387	-0.04
260.602	0.04
260.818	0.04
261.033	-0.11
261.249	-0.04
261.464	-0.09
261.68	-0.09
261.895	-0.04
262.11	0.06
262.326	-0.06
262.541	-0.11
262.757	0.09
262.972	-0.03
263.187	0.01
263.403	-0.05
263.618	0.04
263.833	0.02
264.049	-0.05
264.264	-0.02
264.479	-0
264.694	0.06
264.91	-0.09
265.125	-0.07
265.34	0.09
265.555	0.13
265.77	-0.02
265.986	-0.04
266.201	0.04
266.416	0.08
266.631	-0.04
266.846	0.02
267.061	-0.02
267.276	-0.01
267.491	-0.22
267.706	-0
267.921	-0.02
268.136	0
268.351	-0.05
268.566	-0.08
268.781	0.08
268.996	-0.02
269.211	-0.03
269.426	-0.09
269.641	-0.11
269.856	0.02
270.071	-0.08
270.285	-0.12
270.5	0.09
270.715	0.01
270.93	0.02
271.145	-0.02
271.359	-0.01
271.574	-0.03
271.789	-0.08
272.004	-0
272.218	-0.04
272.433	0.11
272.648	-0.05
272.862	0.06
273.077	-0.02
273.292	-0.02
273.506	-0.07
273.721	-0.05
273.936	-0.01
274.15	-0.01
274.365	-0.06
274.579	0
274.794	0.03
275.008	0.05
275.223	-0.1
275.437	0.04
275.652	0
275.866	0
276.081	-0.03
276.295	-0.02
276.509	-0.04
276.724	-0.02
276.938	0.01
277.153	0.06
277.367	0.02
277.581	-0.05
277.796	-0.04
278.01	-0.1
278.224	0.05
278.438	0.06
278.653	-0.09
278.867	-0.02
279.081	-0.14
279.295	-0.04
279.51	0.04
279.724	-0.11
279.938	0
280.152	-0
280.366	-0.04
280.58	0.03
280.794	0.04
281.008	0.05
281.222	0.01
281.437	0.08
281.651	-0.01
281.865	0.05
282.079	-0.04
282.293	-0.15
282.507	-0.05
282.721	-0.05
282.935	0.04
283.148	-0.13
283.362	-0.07
283.576	-0.07
283.79	0.03
284.004	-0.1
284.218	0.03
284.432	-0.06
284.646	0.01
284.859	-0.05
285.073	-0.03
285.287	-0.03
285.501	-0.03
285.714	-0.06
285.928	-0
286.142	-0.02
286.356	-0.07
286.569	-0.06
286.783	0.08
286.997	0.02
287.21	-0.04
287.424	-0
287.637	-0.04
287.851	0.01
288.065	-0.02
288.278	-0.03
288.492	-0
288.705	-0.02
288.919	0.05
289.132	-0.09
289.346	0.06
289.559	-0.04
289.773	-0.1
289.986	0.01
290.2	0.01
290.413	0.1
290.626	-0.06
290.84	-0.07
291.053	-0.04
291.267	0.03
291.48	0.02
291.693	-0.06
291.906	-0.08
292.12	-0.03
292.333	-0.06
292.546	-0.02
292.76	0.04
292.973	-0.01
293.186	0.02
293.399	-0.03
293.612	0.04
293.826	-0.02
294.039	-0.02
294.252	-0.05
294.465	0.02
294.678	0.02
294.891	0.01
295.104	-0.02
295.317	0.01
295.53	0.01
295.743	0.02
295.956	-0.04
296.169	0.07
296.382	0.02
296.595	0
296.808	-0.04
297.021	0.04
297.234	0.07
297.447	0.02
297.66	0.02
297.873	0.04
298.086	0.06
298.299	-0.06
298.511	-0.06
298.724	-0.05
298.937	-0.1
299.15	-0.01
299.363	0.02
299.575	0.03
299.788	0.04
300.001	-0.02
300.213	-0.06
300.426	-0.08
300.639	-0.05
300.852	-0.05
301.064	0.01
301.277	0.03
301.489	0.04
301.702	-0.01
301.915	0
302.127	0
302.34	-0.01
302.552	0.02
302.765	-0.04
302.977	0.05
303.19	-0.03
303.402	0.01
303.615	0.01
303.827	0.01
304.04	-0.04
304.252	0.03
304.464	-0.06
304.677	0.07
304.889	0.05
305.102	-0.01
305.314	-0.05
305.526	0.03
305.739	0.02
305.951	-0.04
306.163	-0.06
306.375	0.04
306.588	-0.05
306.8	-0.05
307.012	-0.02
307.224	0
307.436	0.05
307.649	-0.07
307.861	-0.01
308.073	-0.02
308.285	-0.01
308.497	-0.04
308.709	-0.06
308.921	-0
309.133	0.02
309.346	-0.03
309.558	0.01
309.77	0.02
309.982	0.04
310.194	0.02
310.406	0.01
310.617	0.08
310.829	-0.02
311.041	0.01
311.253	-0.06
311.465	-0.01
311.677	-0.02
311.889	-0.03
312.101	-0.04
312.313	0.04
312.524	0.01
312.736	-0.1
312.948	-0.03
313.16	0.07
313.372	0.02
313.583	0.02
313.795	-0.04
314.007	-0
314.218	0.03
314.43	0.01
314.642	-0.05
314.853	-0.07
315.065	0.06
315.277	-0.03
315.488	-0
315.7	0.04
315.912	-0.02
316.123	-0.09
316.335	-0.03
316.546	0.08
316.758	-0.05
316.969	-0.03
317.181	-0.01
317.392	-0
317.604	0.05
317.815	-0.07
318.026	-0.02
318.238	-0.02
318.449	0.04
318.661	-0.06
318.872	-0.05
319.083	-0.08
319.295	-0.02
319.506	-0.02
319.717	-0
319.929	-0.01
320.14	0.03
320.351	-0.01
320.562	-0.04
320.774	-0.01
320.985	0
321.196	-0
321.407	-0.07
321.618	0.04
321.829	-0.01
322.041	0.03
322.252	-0.05
322.463	-0.01
322.674	0.03
322.885	-0.05
323.096	-0.04
323.307	-0.04
323.518	-0.02
323.729	-0.05
323.94	-0.04
324.151	-0.03
324.362	0.02
324.573	0.01
324.784	-0.1
324.995	0.02
325.206	0.01
325.417	-0.03
325.628	-0.01
325.838	-0.02
326.049	-0
326.26	0.02
326.471	-0.02
326.682	-0.02
326.892	0.01
327.103	-0.1
327.314	-0.06
327.525	0.06
327.735	0.01
327.946	-0.05
328.157	-0.01
328.368	0.01
328.578	-0.04
328.789	0.04
328.999	0.03
329.21	-0
329.421	0
329.631	-0.06
329.842	-0.05
330.052	-0.01
330.263	-0.03
330.473	-0.02
330.684	-0.05
330.894	-0.06
331.105	-0.01
331.315	-0.03
331.526	-0.06
331.736	0.05
331.947	0
332.157	0.01
332.367	-0.05
332.578	0.03
332.788	0.03
332.999	0.02
333.209	0.01
333.419	-0.06
333.629	0
333.84	0.02
334.05	-0.01
334.26	0.04
334.47	-0.01
334.681	0.04
334.891	-0.04
335.101	0.01
335.311	0.07
335.521	0
335.732	-0.05
335.942	0.03
336.152	0.03
336.362	-0
336.572	-0.01
336.782	-0.02
336.992	0.01
337.202	-0.01
337.412	-0.06
337.622	0.02
337.832	-0
338.042	-0.01
338.252	-0.04
338.462	0.01
338.672	0.01
338.882	-0.02
339.092	-0.02
339.302	0.04
339.511	0
339.721	-0.02
339.931	-0.01
340.141	-0.02
340.351	0.06
340.561	-0.01
340.77	-0
340.98	-0.01
341.19	0.05
341.4	-0.05
341.609	-0.03
341.819	-0.02
342.029	-0.07
342.238	-0.04
342.448	-0.02
342.658	0.01
342.867	-0.01
343.077	0.02
343.286	0.01
343.496	-0.01
343.706	0.04
343.915	-0.05
344.125	0
344.334	0.04
344.544	-0.03
344.753	-0.02
344.963	-0.05
345.172	-0.07
345.381	-0.01
345.591	-0.03
345.8	-0
346.01	0.05
346.219	0.03
346.428	-0.18
346.638	0.02
346.847	-0.04
347.056	0.04
347.266	-0.07
347.475	-0.06
347.684	0.01
347.893	0.01
348.103	0.03
348.312	-0.04
348.521	-0.01
348.73	-0.04
348.94	0.01
349.149	-0.01
349.358	-0.03
349.567	-0.04
349.776	-0.06
349.985	-0.05
350.194	-0.01
350.403	0.04
350.612	-0.05
350.821	-0.05
351.03	-0.01
351.239	-0.04
351.448	-0.04
351.657	-0.02
351.866	0.01
352.075	-0.03
352.284	0.02
352.493	-0.03
352.702	0.07
352.911	-0
353.12	-0.05
353.329	-0.05
353.538	-0.03
353.746	0.01
353.955	-0.01
354.164	-0.01
354.373	-0.03
354.582	0.01
354.79	-0
354.999	0.04
355.208	-0.02
355.416	0.08
355.625	-0.08
355.834	-0.06
356.042	-0.02
356.251	-0.02
356.46	-0.07
356.668	0.03
356.877	0.07
357.085	0.04
357.294	-0.1
357.503	0.01
357.711	-0.01
357.92	0.12
358.128	-0.02
358.337	-0
358.545	0.01
358.754	-0.02
358.962	-0
359.17	-0.03
359.379	0.02
359.587	0
359.796	0
360.004	0.02
360.212	-0
360.421	0.03
360.629	-0.01
360.837	-0.01
361.046	0.02
361.254	0.07
361.462	-0.01
361.67	-0.04
361.879	0.01
362.087	0.02
362.295	-0.01
362.503	-0.02
362.711	-0.02
362.92	-0.01
363.128	-0.04
363.336	-0.1
363.544	-0.08
363.752	-0.05
363.96	-0.07
364.168	-0.04
364.376	-0
364.584	0.01
364.792	0.01
365	0
365.208	-0.02
365.416	-0.03
365.624	0.02
365.832	-0.06
366.04	0.03
366.248	-0.05
366.456	-0.02
366.664	0
366.872	-0.02
367.079	-0.04
367.287	-0.03
367.495	0.01
367.703	0.02
367.911	-0.02
368.118	0.03
368.326	-0.02
368.534	-0.03
368.742	0.07
368.949	-0.01
369.157	-0.04
369.365	0.06
369.572	-0.02
369.78	-0.06
369.988	0.03
370.195	-0.02
370.403	0.01
370.61	-0.04
370.818	0.05
371.026	0.04
371.233	-0.04
371.441	-0.02
371.648	-0.03
371.856	0.02
372.063	-0.01
372.271	-0.03
372.478	-0.04
372.685	-0.06
372.893	0.04
373.1	-0
373.308	-0.01
373.515	0.05
373.722	0.03
373.93	-0.02
374.137	0.01
374.344	0.03
374.552	0
374.759	0.01
374.966	0.03
375.173	-0.01
375.381	0.08
375.588	-0.02
375.795	-0.11
376.002	-0.03
376.209	-0.05
376.417	-0.01
376.624	-0.04
376.831	0.04
377.038	-0.04
377.245	-0.06
377.452	-0.03
377.659	-0
377.866	-0.04
378.073	-0.03
378.28	-0
378.487	-0
378.694	-0.02
378.901	-0.05
379.108	-0.02
379.315	0.03
379.522	0.05
379.729	0
379.936	-0.02
380.143	0
380.35	0.01
380.557	0
380.763	-0.01
380.97	-0.03
381.177	-0.01
381.384	0.04
381.591	-0.03
381.797	-0.03
382.004	0
382.211	0
382.418	-0.05
382.624	0.04
382.831	0.01
383.038	-0.05
383.244	-0
383.451	-0.04
383.658	-0.02
383.864	-0.02
384.071	-0.07
384.277	0.06
384.484	0
384.69	0.03
384.897	-0.05
385.103	-0.03
385.31	-0.07
385.516	-0.03
385.723	0.02
385.929	-0.02
386.136	-0.01
386.342	0.01
386.549	-0.02
386.755	0.01
386.961	-0.02
387.168	-0.03
387.374	0.06
387.58	0.03
387.787	-0.03
387.993	-0.01
388.199	-0.02
388.406	-0.04
388.612	0
388.818	-0.02
389.024	-0.03
389.231	-0
389.437	0.05
389.643	0.02
389.849	0.02
390.055	0.02
390.261	-0.03
390.467	-0.03
390.674	-0.03
390.88	-0.04
391.086	0.02
391.292	-0.07
391.498	0.01
391.704	-0.01
391.91	-0.03
392.116	-0.03
392.322	-0.07
392.528	-0
392.734	-0.03
392.94	-0.02
393.146	-0.02
393.352	-0.01
393.557	-0.01
393.763	-0.03
393.969	0.01
394.175	-0.02
394.381	-0.06
394.587	-0.04
394.792	-0.02
394.998	0.02
395.204	0.03
395.41	-0.03
395.615	0.03
395.821	0.01
396.027	-0.03
396.233	-0.06
396.438	-0.01
396.644	0.01
396.85	-0.01
397.055	-0.03
397.261	-0.01
397.466	0.08
397.672	-0.02
397.878	0.02
398.083	-0.01
398.289	-0.07
398.494	0.04
398.7	-0
398.905	-0.08
399.111	0.06
399.316	-0.03
399.522	-0.04
399.727	-0.02
399.932	-0.03
400.138	0.04
400.343	0.03
400.549	0.01
400.754	-0.01
400.959	-0.01
401.165	-0.04
401.37	-0.02
401.575	0.05
401.78	-0.04
401.986	-0.08
402.191	-0.02
402.396	0
402.601	-0
402.807	0.01
403.012	0.01
403.217	0.05
403.422	0.02
403.627	-0.03
403.832	-0.03
404.037	0.02
404.243	-0.02
404.448	-0.06
404.653	-0.08
404.858	-0.03
405.063	0.05
405.268	-0.06
405.473	-0.09
405.678	-0.08
405.883	0.06
406.088	-0.01
406.293	-0.06
406.498	-0.03
406.703	-0.02
406.907	-0.01
407.112	-0.03
407.317	-0.01
407.522	0.02
407.727	-0.08
407.932	-0.01
408.136	0.08
408.341	-0.01
408.546	-0.01
408.751	-0.02
408.956	-0.02
409.16	0.05
409.365	-0
409.57	-0.03
409.774	-0.04
409.979	0.02
410.184	-0.02
410.388	-0.07
410.593	0.02
410.798	-0.01
411.002	-0.08
411.207	0.06
411.411	-0
411.616	-0.05
411.82	-0.04
412.025	0
412.229	0
412.434	0.03
412.638	-0.01
412.843	-0.03
413.047	-0.02
413.252	-0.07
413.456	-0.03
413.66	0.02
413.865	-0.05
414.069	0.05
414.273	-0.05
414.478	-0.05
414.682	-0.03
414.886	-0.03
415.091	-0.08
415.295	-0.09
415.499	-0.03
415.703	-0.05
415.908	0
416.112	-0.09
416.316	0.03
416.52	-0.02
416.724	-0.05
416.929	-0.07
417.133	0.06
417.337	-0.04
417.541	-0.04
417.745	-0.03
417.949	-0.04
418.153	0.01
418.357	-0.08
418.561	0.02
418.765	0
418.969	0.09
419.173	-0
419.377	-0.03
419.581	0.03
419.785	-0.05
419.989	-0.08
420.193	-0.07
420.397	-0.03
420.601	0.02
420.804	-0.01
421.008	-0.02
421.212	-0.01
421.416	0.02
421.62	-0.05
421.823	0.03
422.027	0.01
422.231	0.03
422.435	-0.03
422.638	0.01
422.842	-0.02
423.046	-0.03
423.249	0.04
423.453	-0.01
423.657	-0.02
423.86	-0.02
424.064	-0.02
424.268	0.01
424.471	-0.02
424.675	0.08
424.878	0.08
425.082	-0.02
425.285	0.01
425.489	0
425.692	0.02
425.896	-0.07
426.099	0.02
426.303	-0.06
426.506	-0.07
426.71	0.05
426.913	0.01
427.116	0
427.32	0.01
427.523	-0.03
427.726	0.07
427.93	-0.09
428.133	-0.05
428.336	-0.06
428.54	-0.07
428.743	0
428.946	0.01
429.149	-0.04
429.353	0
429.556	0.01
429.759	-0.02
429.962	-0.01
430.165	-0.04
430.368	-0.01
430.571	-0.07
430.775	-0.02
430.978	0.01
431.181	-0.01
431.384	-0.06
431.587	-0.04
431.79	-0.01
431.993	-0
432.196	-0.03
432.399	-0.07
432.602	0.07
432.805	-0.05
433.008	-0.07
433.211	-0.07
433.414	0.02
433.616	-0.05
433.819	0.01
434.022	-0.06
434.225	0.04
434.428	-0.02
434.631	0.07
434.833	0.01
435.036	-0.05
435.239	0.06
435.442	0.03
435.645	-0.03
435.847	-0.03
436.05	-0.01
436.253	0
436.455	-0.03
436.658	0.02
436.861	0.04
437.063	-0.02
437.266	-0
437.468	-0.03
437.671	0.09
437.874	-0.05
438.076	-0.06
438.279	-0.08
438.481	0.01
438.684	-0.05
438.886	-0.02
439.089	-0.11
439.291	-0.05
439.494	0
439.696	-0.09
439.899	-0.03
440.101	-0.01
440.303	-0.08
440.506	-0.01
440.708	-0.03
440.91	0.04
441.113	-0.03
441.315	0.05
441.517	-0.12
441.72	0.04
441.922	-0.04
442.124	-0.05
442.326	0
442.529	0.05
442.731	-0.03
442.933	0.01
443.135	-0.04
443.337	-0.04
443.539	-0.09
443.742	-0.01
443.944	-0.01
444.146	-0.05
444.348	-0.06
444.55	-0.02
444.752	-0.07
444.954	-0.08
445.156	0.02
445.358	-0.04
445.56	0.03
445.762	-0.06
445.964	-0.04
446.166	-0
446.368	-0.07
446.57	0.05
446.772	-0.04
446.974	-0.02
447.175	-0.02
447.377	-0.06
447.579	-0.03
447.781	-0.07
447.983	0.06
448.184	-0.02
448.386	0.02
448.588	-0.1
448.79	-0.01
448.991	-0.06
449.193	-0.03
449.395	-0.03
449.597	0.01
449.798	-0.03
450	-0.04
450.202	-0.02
450.403	-0.03
450.605	0.03
450.806	-0
451.008	-0.09
451.21	-0.01
451.411	-0.02
451.613	-0.02
451.814	-0.04
452.016	0.01
452.217	-0.01
452.419	0.03
452.62	-0.02
452.821	0.03
453.023	-0.02
453.224	0.01
453.426	-0.02
453.627	0.02
453.828	0.04
454.03	-0.02
454.231	-0
454.432	-0.05
454.634	0.07
454.835	-0.02
455.036	-0.08
455.238	0.06
455.439	0.07
455.64	-0.05
455.841	-0
456.042	0.08
456.244	0.03
456.445	-0.07
456.646	-0.07
456.847	0.01
457.048	0.04
457.249	0.04
457.45	0.17
457.651	-0.05
457.852	0.06
458.054	-0.01
458.255	-0.03
458.456	0.01
458.657	-0.01
458.858	-0.03
459.058	-0.02
459.259	0.02
459.46	0
459.661	-0.07
459.862	0.07
460.063	-0.04
460.264	0.04
460.465	-0.1
460.666	0.07
460.866	-0.05
461.067	-0
461.268	-0.04
461.469	-0.03
461.67	-0.01
461.87	-0
462.071	-0.05
462.272	-0.05
462.473	-0.02
462.673	-0.03
462.874	-0.07
463.075	-0.01
463.275	-0.01
463.476	-0.01
463.676	-0.01
463.877	-0.02
464.078	-0.04
464.278	0.02
464.479	-0.02
464.679	-0
464.88	-0.05
465.08	0.02
465.281	-0.06
465.481	-0.07
465.682	-0.03
465.882	0.02
466.083	-0.03
466.283	-0.02
466.483	-0.01
466.684	-0.06
466.884	-0.03
467.085	-0.05
467.285	0.01
467.485	-0.02
467.686	-0.04
467.886	-0.02
468.086	-0.03
468.286	-0.01
468.487	-0
468.687	-0.04
468.887	-0.04
469.087	0.07
469.287	-0.03
469.488	-0.06
469.688	0.01
469.888	0.04
470.088	0.01
470.288	0.04
470.488	0.04
470.688	-0.03
470.888	-0.06
471.088	-0.02
471.288	0.03
471.488	-0.01
471.688	0.03
471.888	-0
472.088	0
472.288	0.01
472.488	-0.04
472.688	-0.05
472.888	-0.03
473.088	-0
473.288	-0
473.488	-0.01
473.688	0.06
473.887	0.04
474.087	-0.01
474.287	0.02
474.487	-0.01
474.687	-0.01
474.886	-0.03
475.086	-0
475.286	0.02
475.486	-0.01
475.685	-0.01
475.885	-0.02
476.085	0.01
476.284	0.02
476.484	-0.03
476.684	-0.02
476.883	0.02
477.083	-0
477.282	-0.02
477.482	0.04
477.681	0.05
477.881	0.01
478.08	-0.04
478.28	-0.04
478.479	0
478.679	0.06
478.878	-0.05
479.078	-0.02
479.277	-0.04
479.477	-0.03
479.676	0.02
479.875	-0.02
480.075	-0.03
480.274	-0.03
480.473	0.01
480.673	-0.03
480.872	0.03
481.071	0.01
481.271	0
481.47	-0.02
481.669	-0.01
481.868	-0.02
482.067	-0.03
482.267	-0.02
482.466	-0.04
482.665	-0.02
482.864	-0.02
483.063	-0.05
483.262	0.01
483.461	0.05
483.661	0.03
483.86	-0.02
484.059	-0.02
484.258	-0.01
484.457	0.01
484.656	-0
484.855	0.02
485.054	-0.06
485.253	-0.04
485.452	-0.06
485.651	-0.02
485.849	-0.03
486.048	-0.04
486.247	-0.02
486.446	-0
486.645	-0.03
486.844	-0.03
487.043	-0.02
487.241	0
487.44	-0.02
487.639	-0.02
487.838	0.02
488.037	-0.01
488.235	0.02
488.434	-0.02
488.633	-0.01
488.831	0.01
489.03	0.02
489.229	-0
489.427	-0.03
489.626	0.03
489.825	0.04
490.023	0
490.222	-0.02
490.42	0.01
490.619	0.03
490.817	-0.01
491.016	-0.02
491.214	0.03
491.413	-0
491.611	-0.03
491.81	0.02
492.008	0.04
492.207	-0.01
492.405	0.01
492.604	-0.05
492.802	-0.02
493	-0.01
493.199	-0.01
493.397	0.01
493.595	0
493.794	-0.01
493.992	0.03
494.19	-0.01
494.388	0.02
494.587	-0.02
494.785	-0.01
494.983	-0.04
495.181	-0.01
495.379	-0
495.578	-0.02
495.776	0
495.974	-0
496.172	-0
496.37	-0.04
496.568	-0.05
496.766	-0.03
496.964	0.01
497.162	0
497.36	-0.03
497.558	-0.01
497.756	0.01
497.954	-0.02
498.152	-0.05
498.35	-0.01
498.548	-0.02
498.746	-0
498.944	-0.05
499.142	-0.02
499.34	-0.06
499.538	-0.03
499.736	-0.02
499.933	0.05
500.131	0.02
500.329	0
500.527	0.04
500.725	-0.01
500.922	-0
501.12	-0
501.318	-0.02
501.516	-0.02
501.713	0.02
501.911	-0.01
502.109	-0.03
502.306	0
502.504	-0.01
502.701	-0.04
502.899	-0.01
503.097	0.03
503.294	-0
503.492	-0.01
503.689	0.01
503.887	0.01
504.084	0.05
504.282	0.02
504.479	-0.03
504.677	0
504.874	-0.03
505.072	-0.02
505.269	-0.01
505.466	0.01
505.664	0
505.861	-0.05
506.059	-0.04
506.256	0.01
506.453	-0.02
506.651	0.01
506.848	0.03
507.045	0.01
507.242	0.02
507.44	-0.02
507.637	-0
507.834	-0
508.031	0.01
508.229	-0.02
508.426	-0.02
508.623	0
508.82	-0.01
509.017	-0.04
509.214	-0.01
509.411	-0.01
509.608	-0.03
509.805	-0.03
510.003	-0.02
510.2	-0.02
510.397	0.02
510.594	-0.04
510.791	-0.02
510.988	-0.03
511.184	0.04
511.381	0
511.578	-0.04
511.775	0.01
511.972	-0.02
512.169	-0.01
512.366	-0.02
512.563	0.02
512.76	-0.03
512.956	0.02
513.153	-0.03
513.35	0.02
513.547	-0.01
513.744	-0.02
513.94	-0.04
514.137	0.01
514.334	-0.02
514.53	-0.01
514.727	0
514.924	0.05
515.12	-0.01
515.317	-0.06
515.514	-0.02
515.71	-0.03
515.907	-0.03
516.103	-0.01
516.3	-0.01
516.497	0.01
516.693	0.01
516.89	-0.01
517.086	-0.05
517.283	0.02
517.479	-0
517.676	-0.04
517.872	-0
518.068	-0.03
518.265	-0.01
518.461	-0.03
518.658	-0.01
518.854	0.01
519.05	-0.01
519.247	-0.02
519.443	-0
519.639	0.02
519.836	-0.01
520.032	0
520.228	-0
520.424	0.02
520.621	-0
520.817	0.01
521.013	0.02
521.209	0.02
521.405	0.03
521.601	-0
521.798	0.03
521.994	0.03
522.19	-0.04
522.386	-0.04
522.582	-0.02
522.778	-0.01
522.974	-0
523.17	-0.02
523.366	-0.02
523.562	0.02
523.758	-0.02
523.954	-0.03
524.15	-0.02
524.346	0.01
524.542	0.01
524.738	-0.04
524.934	-0.01
525.129	-0.01
525.325	-0.01
525.521	-0.02
525.717	-0
525.913	-0.02
526.109	-0
526.304	-0.01
526.5	-0
526.696	0.01
526.892	-0.01
527.087	0
527.283	-0.04
527.479	0
527.674	-0.02
527.87	-0.01
528.066	-0.03
528.261	0.02
528.457	-0.03
528.653	-0.02
528.848	-0.03
529.044	0.01
529.239	-0.02
529.435	0.03
529.63	0.01
529.826	0.03
530.021	0.01
530.217	0
530.412	-0.03
530.608	-0.01
530.803	-0.01
530.999	-0
531.194	-0.05
531.389	-0.01
531.585	-0.05
531.78	-0.02
531.975	-0
532.171	0.02
532.366	-0.02
532.561	-0.02
532.757	-0.03
532.952	-0.03
533.147	0.01
533.342	-0.02
533.538	-0.03
533.733	0.02
533.928	-0.01
534.123	-0.03
534.318	-0.03
534.513	-0
534.709	-0.02
534.904	-0.02
535.099	-0.03
535.294	-0
535.489	-0.01
535.684	-0.01
535.879	-0.04
536.074	-0.02
536.269	-0.02
536.464	0.03
536.659	-0.01
536.854	-0.03
537.049	-0.02
537.244	0.01
537.439	-0.01
537.634	0.01
537.828	-0
538.023	-0.02
538.218	-0.04
538.413	-0.01
538.608	-0.03
538.803	0.01
538.997	-0.04
539.192	0.02
539.387	-0
539.582	-0
539.776	0.01
539.971	-0.01
540.166	-0.02
540.36	-0.05
540.555	0.01
540.75	-0.01
540.944	-0.02
541.139	-0.05
541.334	-0.01
541.528	0.01
541.723	0.02
541.917	-0.01
542.112	-0.04
542.306	-0.02
542.501	-0.01
542.695	-0
542.89	-0.02
543.084	-0.02
543.279	-0.02
543.473	-0.02
543.668	-0
543.862	-0
544.056	-0.01
544.251	-0.04
544.445	0.02
544.64	-0.02
544.834	-0.02
545.028	0.01
545.222	0
545.417	0.01
545.611	0.01
545.805	-0.01
546	-0.02
546.194	-0.03
546.388	-0.02
546.582	0.01
546.776	-0
546.97	0.01
547.165	-0.03
547.359	-0
547.553	-0.01
547.747	0.01
547.941	-0.01
548.135	-0.01
548.329	0.02
548.523	0.01
548.717	-0.02
548.911	-0.02
549.105	-0.02
549.299	-0
549.493	0.01
549.687	-0
549.881	-0.01
550.075	-0.02
550.269	-0.04
550.463	-0.02
550.657	-0.03
550.85	-0.02
551.044	-0.02
551.238	0.01
551.432	-0.02
551.626	-0.03
551.82	-0.01
552.013	-0.03
552.207	0
552.401	-0.01
552.594	-0.01
552.788	0.01
552.982	-0.01
553.176	-0.03
553.369	0.02
553.563	0.02
553.756	-0.06
553.95	-0.03
554.144	-0.01
554.337	0.02
554.531	-0
554.724	-0.03
554.918	-0.02
555.111	0.02
555.305	0
555.498	0.05
555.692	0
555.885	-0.01
556.079	0
556.272	-0
556.466	0.02
556.659	0
556.852	-0.01
557.046	-0.01
557.239	0.02
557.432	-0.04
557.626	-0.03
557.819	0.02
558.012	0.01
558.206	-0
558.399	-0.01
558.592	-0
558.785	0.01
558.979	0.02
559.172	-0.02
559.365	0
559.558	0.01
559.751	-0.01
559.944	-0.01
560.138	-0.04
560.331	-0.02
560.524	-0.02
560.717	-0.01
560.91	-0.02
561.103	0.02
561.296	0.01
561.489	0.01
561.682	0.02
561.875	0.03
562.068	0
562.261	-0.02
562.454	0.05
562.647	0.02
562.84	0.02
563.032	-0.01
563.225	-0.01
563.418	-0.03
563.611	-0.02
563.804	-0.03
563.997	-0.03
564.19	-0.03
564.382	-0
564.575	-0.01
564.768	0.01
564.961	-0.01
565.153	-0.02
565.346	0
565.539	0.01
565.731	0
565.924	-0
566.117	0.02
566.309	0.02
566.502	-0.02
566.695	-0.01
566.887	0.01
567.08	-0.01
567.272	-0.02
567.465	-0.01
567.657	-0
567.85	-0
568.042	0.01
568.235	0.02
568.427	-0
568.62	0
568.812	-0
569.005	0
569.197	-0.05
569.389	-0
569.582	-0
569.774	0.01
569.966	-0.02
570.159	-0.03
570.351	-0
570.543	-0.01
570.736	-0.03
570.928	-0.02
571.12	0.01
571.312	-0.02
571.505	-0.04
571.697	0.03
571.889	-0.02
572.081	0
572.273	-0.02
572.465	0.03
572.658	-0.03
572.85	-0.01
573.042	-0.02
573.234	-0.01
573.426	0.03
573.618	-0.03
573.81	0.01
574.002	0.03
574.194	0.06
574.386	-0.02
574.578	-0.09
574.77	-0.03
574.962	0.01
575.154	-0.04
575.346	-0.01
575.538	0.01
575.729	-0.01
575.921	-0.01
576.113	-0.01
576.305	0.04
576.497	-0.03
576.689	-0.03
576.88	-0.03
577.072	0.03
577.264	0.01
577.456	0
577.647	-0.07
577.839	-0
578.031	0.03
578.223	-0.03
578.414	-0.06
578.606	-0.01
578.798	0.01
578.989	-0.01
579.181	-0.01
579.372	-0
579.564	-0.01
579.755	-0
579.947	0.01
580.139	0.02
580.33	-0.06
580.522	-0.01
580.713	-0.08
580.905	-0
581.096	0
581.287	0.01
581.479	-0.03
581.67	-0.01
581.862	-0
582.053	-0.02
582.244	-0.05
582.436	-0
582.627	0.01
582.818	-0.02
583.01	-0.04
583.201	0.03
583.392	0.04
583.583	0
583.775	-0.01
583.966	0.01
584.157	-0.02
584.348	-0
584.54	-0.01
584.731	0
584.922	0.03
585.113	-0.02
585.304	0.02
585.495	0.02
585.686	-0
585.877	0.03
586.068	0.01
586.259	0
586.45	0.03
586.641	-0.02
586.832	-0.04
587.023	0.01
587.214	-0
587.405	0.01
587.596	-0.03
587.787	0.05
587.978	0.01
588.169	0
588.36	0
588.551	0.04
588.742	-0.03
588.932	0.03
589.123	0
589.314	0.02
589.505	0.03
589.696	0.01
589.886	-0
590.077	-0.03
590.268	0.02
590.458	-0.03
590.649	-0.02
590.84	0.06
591.03	-0.02
591.221	-0.01
591.412	-0.02
591.602	0.06
591.793	0.03
591.984	-0
592.174	0.01
592.365	0.06
592.555	-0.01
592.746	0.05
592.936	0.03
593.127	0.04
593.317	0.05
593.508	0.02
593.698	0.03
593.889	0.01
594.079	0.04
594.269	-0.02
594.46	0.03
594.65	0.04
594.84	0.01
595.031	0.02
595.221	0.01
595.411	0
595.602	0.04
595.792	0.01
595.982	0.01
596.172	0.07
596.363	0.03
596.553	0.04
596.743	0
596.933	0.05
597.123	0.07
597.314	0.06
597.504	0.02
597.694	0.1
597.884	0.05
598.074	0.06
598.264	0.04
598.454	0.05
598.644	0.05
598.834	0.05
599.024	-0
599.214	0.03
599.404	0.08
599.594	0.04
599.784	0.03
599.974	0.1
600.164	0.08
600.354	0.04
600.544	0.01
600.734	0.06
600.924	0.07
601.114	0.06
601.303	0.07
601.493	0.08
601.683	0.06
601.873	0.07
602.063	0
602.252	0.1
602.442	0.02
602.632	0.07
602.821	0.03
603.011	0.12
603.201	0.1
603.39	0.05
603.58	0.06
603.77	0.09
603.959	0.14
604.149	0.09
604.339	0.08
604.528	0.14
604.718	0.12
604.907	0.07
605.097	0.08
605.286	0.07
605.476	0.14
605.665	0.11
605.855	0.1
606.044	0.13
606.234	0.1
606.423	0.1
606.612	0.09
606.802	0.12
606.991	0.14
607.181	0.13
607.37	0.09
607.559	0.15
607.749	0.08
607.938	0.13
608.127	0.12
608.316	0.15
608.506	0.15
608.695	0.14
608.884	0.13
609.073	0.16
609.263	0.18
609.452	0.2
609.641	0.19
609.83	0.14
610.019	0.13
610.208	0.13
610.397	0.17
610.586	0.21
610.775	0.18
610.965	0.14
611.154	0.19
611.343	0.19
611.532	0.23
611.721	0.2
611.91	0.18
612.099	0.29
612.287	0.23
612.476	0.21
612.665	0.25
612.854	0.24
613.043	0.31
613.232	0.24
613.421	0.22
613.61	0.27
613.798	0.25
613.987	0.33
614.176	0.31
614.365	0.29
614.554	0.32
614.742	0.34
614.931	0.31
615.12	0.35
615.309	0.32
615.497	0.34
615.686	0.32
615.875	0.36
616.063	0.35
616.252	0.36
616.44	0.37
616.629	0.39
616.818	0.43
617.006	0.37
617.195	0.38
617.383	0.42
617.572	0.43
617.76	0.42
617.949	0.44
618.137	0.47
618.326	0.44
618.514	0.42
618.703	0.41
618.891	0.52
619.079	0.42
619.268	0.49
619.456	0.45
619.644	0.52
619.833	0.49
620.021	0.48
620.209	0.43
620.398	0.51
620.586	0.48
620.774	0.54
620.962	0.53
621.151	0.62
621.339	0.51
621.527	0.51
621.715	0.51
621.903	0.52
622.092	0.53
622.28	0.56
622.468	0.56
622.656	0.52
622.844	0.55
623.032	0.53
623.22	0.5
623.408	0.6
623.596	0.56
623.784	0.61
623.972	0.5
624.16	0.52
624.348	0.58
624.536	0.52
624.724	0.48
624.912	0.54
625.1	0.58
625.288	0.51
625.476	0.46
625.664	0.49
625.851	0.46
626.039	0.47
626.227	0.48
626.415	0.45
626.603	0.37
626.79	0.41
626.978	0.42
627.166	0.39
627.354	0.35
627.541	0.35
627.729	0.29
627.917	0.37
628.104	0.37
628.292	0.31
628.48	0.32
628.667	0.31
628.855	0.29
629.042	0.32
629.23	0.25
629.418	0.29
629.605	0.25
629.793	0.22
629.98	0.2
630.168	0.2
630.355	0.19
630.543	0.23
630.73	0.14
630.917	0.23
631.105	0.22
631.292	0.14
631.48	0.15
631.667	0.21
631.854	0.18
632.042	0.12
632.229	0.1
632.416	0.16
632.604	0.12
632.791	0.06
632.978	0.16
633.165	0.11
633.353	0.13
633.54	0.15
633.727	0.07
633.914	0.06
634.101	0.03
634.289	0.12
634.476	0.06
634.663	0.06
634.85	0.1
635.037	0.08
635.224	0
635.411	0.08
635.598	0.11
635.785	0.05
635.972	0.06
636.159	0.08
636.346	0.03
636.533	0.06
636.72	0.05
636.907	0.06
637.094	0.06
637.281	0.03
637.468	0.09
637.655	0.05
637.842	0.03
638.029	0.02
638.215	0.04
638.402	0.04
638.589	0.02
638.776	0.02
638.963	0.02
639.149	0.05
639.336	0.11
639.523	0.01
639.709	0.03
639.896	0.03
640.083	0.08
640.27	0.02
640.456	0.02
640.643	0.02
640.829	-0.01
641.016	0.01
641.203	-0.06
641.389	0.04
641.576	0.03
641.762	0.03
641.949	-0.05
642.135	0
642.322	0.01
642.508	-0.04
642.695	0.03
642.881	-0.01
643.068	-0.01
643.254	0.03
643.441	0.04
643.627	0.02
643.813	-0.02
644	0.04
644.186	-0.03
644.372	-0
644.559	0.03
644.745	0
644.931	0.01
645.118	-0
645.304	-0.03
645.49	-0.03
645.676	-0.01
645.862	0.01
646.049	0.02
646.235	0.01
646.421	0.04
646.607	0.07
646.793	-0.04
646.979	-0.01
647.165	0.03
647.352	0.01
647.538	0.05
647.724	-0.03
647.91	0.03
648.096	0.03
648.282	0.02
648.468	-0
648.654	0.02
648.84	-0.01
649.026	0.01
649.212	-0.02
649.397	-0.03
649.583	-0.03
649.769	0.03
649.955	-0.01
650.141	0.04
650.327	0.05
650.513	-0.04
650.698	0.02
650.884	-0.04
651.07	-0.02
651.256	-0.01
651.442	-0.01
651.627	-0.04
651.813	0.01
651.999	-0.01
652.184	0.02
652.37	-0.01
652.556	-0.06
652.741	0.03
652.927	-0.05
653.113	-0.01
653.298	-0.02
653.484	-0.04
653.669	-0.05
653.855	-0.01
654.04	0
654.226	0.01
654.412	-0.05
654.597	-0.06
654.782	-0.02
654.968	0.03
655.153	0.01
655.339	-0.04
655.524	-0.06
655.71	0
655.895	-0
656.08	-0.03
656.266	0.03
656.451	0.03
656.636	-0.04
656.822	-0.02
657.007	-0.01
657.192	-0.02
657.378	-0.07
657.563	0.02
657.748	0
657.933	-0
658.118	-0
658.304	-0.02
658.489	-0
658.674	-0.02
658.859	-0.05
659.044	-0.01
659.229	0.02
659.414	-0.04
659.599	-0.05
659.785	-0.06
659.97	-0.04
660.155	-0.01
660.34	-0.01
660.525	-0.03
660.71	-0.04
660.895	0.01
661.08	-0.03
661.264	-0.03
661.449	0.02
661.634	0.04
661.819	-0
662.004	0.01
662.189	-0.09
662.374	-0
662.559	-0.06
662.743	-0.04
662.928	-0.02
663.113	-0.04
663.298	-0.07
663.483	0.01
663.667	0.02
663.852	-0.05
664.037	0.04
664.221	-0.06
664.406	0.03
664.591	0.01
664.775	-0.03
664.96	-0.07
665.145	0
665.329	-0.02
665.514	-0.01
665.698	-0.02
665.883	-0.09
666.068	0.04
666.252	-0.03
666.437	-0.07
666.621	-0
666.806	0.04
666.99	-0.05
667.174	-0.04
667.359	0.06
667.543	-0.05
667.728	-0.03
667.912	-0.12
668.096	-0
668.281	-0.02
668.465	-0.02
668.649	-0
668.834	-0.06
669.018	-0.03
669.202	-0.01
669.387	-0.04
669.571	0.04
669.755	-0.05
669.939	-0.03
670.124	-0.03
670.308	0.05
670.492	0.03
670.676	-0.02
670.86	-0.04
671.044	-0.05
671.228	0.01
671.413	-0.05
671.597	-0.07
671.781	-0.05
671.965	0.03
672.149	-0.01
672.333	-0.01
672.517	-0.05
672.701	-0.02
672.885	-0.05
673.069	-0.07
673.253	0.06
673.437	-0.04
673.621	-0.05
673.804	-0.01
673.988	0
674.172	-0.01
674.356	-0.07
674.54	-0.02
674.724	0.08
674.908	-0.03
675.091	-0.01
675.275	-0.03
675.459	0.03
675.643	-0.04
675.826	0.04
676.01	-0.01
676.194	-0.05
676.377	0.01
676.561	0
676.745	-0.03
676.928	0.01
677.112	0.02
677.296	-0.03
677.479	-0.02
677.663	-0.05
677.846	0.04
678.03	-0.01
678.213	-0.05
678.397	-0.02
678.58	0
678.764	-0.06
678.947	-0.05
679.131	-0.05
679.314	0.03
679.498	-0.04
679.681	-0.01
679.865	0.03
680.048	-0.03
680.231	-0.02
680.415	-0.03
680.598	-0.01
680.781	-0
680.965	-0.04
681.148	-0.05
681.331	-0.02
681.514	0.01
681.698	-0.07
681.881	-0.03
682.064	-0.03
682.247	-0.04
682.43	-0.06
682.614	0.03
682.797	0.01
682.98	0.03
683.163	-0.04
683.346	-0
683.529	-0.03
683.712	-0.05
683.895	0.02
684.078	-0.06
684.261	-0.02
684.444	-0.01
684.627	-0
684.81	-0.01
684.993	-0
685.176	0
685.359	-0.1
685.542	-0.05
685.725	0.02
685.908	0.01
686.091	0.03
686.274	0.02
686.457	0.02
686.639	-0.04
686.822	0.01
687.005	0
687.188	0.01
687.371	0.03
687.553	-0.02
687.736	0
687.919	0.05
688.102	0.07
688.284	-0.03
688.467	0.03
688.65	-0.08
688.832	-0.04
689.015	-0.01
689.197	-0.05
689.38	0.06
689.563	0.06
689.745	-0.07
689.928	-0.06
690.11	-0.08
690.293	-0.05
690.475	-0.11
690.658	-0.02
690.84	-0.01
691.023	-0.03
691.205	-0.03
691.388	-0.04
691.57	0.01
691.752	-0.02
691.935	-0.05
692.117	-0.04
692.3	-0
692.482	-0.06
692.664	-0.02
692.847	0.04
693.029	0.04
693.211	0.01
693.393	-0.03
693.576	-0.03
693.758	0.01
693.94	-0
694.122	-0.05
694.304	0.01
694.487	-0.04
694.669	0.03
694.851	-0.08
695.033	0.04
695.215	-0.05
695.397	-0.12
695.579	0.02
695.761	-0.03
695.943	-0.09
696.125	0.02
696.308	0.03
696.49	-0.14
696.671	0.05
696.853	-0.03
697.035	0.12
697.217	-0.04
697.399	-0.01
697.581	-0.04
697.763	-0.01
697.945	-0.05
698.127	-0.03
698.309	0.07
698.491	-0
698.672	-0.01
698.854	-0.05
699.036	0.05
699.218	0
699.399	0.03
699.581	0.04
699.763	-0.06
699.945	-0.02
700.126	-0.05
700.308	-0.01
700.49	0
700.671	-0.09
700.853	-0.06
701.035	-0.03
701.216	-0.01
701.398	-0.05
701.579	-0.03
701.761	0.09
701.943	-0.05
702.124	-0.06
702.306	-0.05
702.487	0.1
702.669	0
702.85	-0.04
703.031	-0.05
703.213	0.09
703.394	0.02
703.576	-0.05
703.757	0.09
703.938	0.04
704.12	0.06
704.301	0.01
704.483	-0.08
704.664	-0.02
704.845	0.06
705.026	-0.02
705.208	-0.01
705.389	-0.02
705.57	0.05
705.751	-0.06
705.933	-0.07
706.114	0.04
706.295	-0.03
706.476	-0.09
706.657	0.05
706.838	-0.03
707.02	0.09
707.201	-0.05
707.382	-0.04
707.563	0.01
707.744	-0.02
707.925	-0.06
708.106	-0.04
708.287	-0.06
708.468	0.03
708.649	0
708.83	0.04
709.011	-0.03
709.192	0.02
709.373	-0.14
709.554	-0.01
709.734	0.06
709.915	0
710.096	-0.01
710.277	-0.15
710.458	-0.02
710.639	-0.04
710.819	-0.16
711	-0.01
711.181	0.07
711.362	0.09
711.542	-0.01
711.723	-0.04
711.904	0.05
712.085	-0.04
712.265	-0.02
712.446	-0.12
712.627	0
712.807	-0.03
712.988	-0.02
713.168	-0.11
713.349	-0.04
713.53	-0.1
713.71	-0.07
713.891	-0.03
714.071	-0.05
714.252	-0.09
714.432	-0.1
714.613	-0.12
714.793	-0.04
714.974	0.09
715.154	0.01
715.334	-0.01
715.515	0.1
715.695	-0.06
715.876	-0.05
716.056	-0.04
716.236	-0.04
716.417	-0.05
716.597	-0.07
716.777	0.02
716.957	-0.08
717.138	-0.02
717.318	-0.03
717.498	-0.07
717.678	0.01
717.859	0
718.039	-0.09
718.219	-0.06
718.399	0.02
718.579	-0.1
718.759	-0.07
718.939	0.01
719.12	-0.03
719.3	0.04
719.48	-0.16
719.66	-0.15
719.84	0.04
720.02	0.07
720.2	-0.11
720.38	-0.02
720.56	0.06
720.74	-0.01
720.92	-0.01
721.1	-0.01
721.279	0.08
721.459	-0.01
721.639	-0.11
721.819	-0.01
721.999	-0.02
722.179	0.05
722.359	-0.13
722.538	-0.01
722.718	0.03
722.898	-0.02
723.078	-0.04
723.257	-0.09
723.437	0.05
723.617	0.02
723.797	-0.1
723.976	0.01
724.156	0.05
724.336	0.08
724.515	0.11
724.695	-0.19
724.874	0
725.054	0.01
725.234	-0.09
725.413	0.02
725.593	0.01
725.772	-0.05
725.952	-0.06
726.131	-0.03
726.311	-0.08
726.49	0.01
726.67	-0.09
726.849	-0.03
727.028	-0.04
727.208	-0.01
727.387	0.05
727.567	-0.13
727.746	0.05
727.925	0
728.105	-0.06
728.284	-0.04
728.463	-0.07
728.643	0.12
728.822	-0.08
729.001	-0.07
729.18	0.01
729.359	-0.03
729.539	-0.02
729.718	-0
729.897	0.07
730.076	-0.11
730.255	-0.15
730.434	-0.07
730.614	-0.04
730.793	-0.04
730.972	-0.07
731.151	-0.04
731.33	0.03
731.509	0.01
731.688	0.01
731.867	-0.09
732.046	-0.11
732.225	0.15
732.404	-0.17
732.583	-0.07
732.762	-0.05
732.941	0.1
733.12	-0.01
733.298	0.02
733.477	0
733.656	-0.09
733.835	-0.09
734.014	-0.02
734.193	0.02
734.371	0.02
734.55	-0.03
734.729	-0.11
734.908	0
735.086	-0
735.265	0.06
735.444	-0.14
735.623	-0.08
735.801	-0.16
735.98	0.03
736.159	0.03
736.337	0.04
736.516	-0.05
736.694	-0
736.873	-0.09
737.052	0.15
737.23	0
737.409	-0.18
737.587	0.2
737.766	-0.25
737.944	-0.14
738.123	-0.01
738.301	0.05
738.479	-0.12
738.658	0.05
738.836	-0.25
739.015	0.06
739.193	0.17
739.371	-0.15
739.55	-0.06
739.728	-0.13
739.906	0.09
740.085	-0.01
740.263	0.05
740.441	-0.17
740.62	0.13
740.798	0.03
740.976	-0.05
741.154	-0.11
741.332	0.07
741.511	-0.03
741.689	0.08
741.867	0.04
742.045	0.01
742.223	-0.01
742.401	-0.08
742.579	-0.08
742.757	0.06
742.935	-0.14
743.114	-0.06
743.292	-0.04
743.47	-0.11
743.648	0.01
743.826	-0.3
744.004	0.01
744.181	0.08
744.359	-0.09
744.537	0.03
744.715	-0.12
744.893	-0.01
745.071	-0
745.249	-0.12
745.427	-0.13
745.605	0.05
745.782	-0
745.96	-0.03
746.138	0.02
746.316	0.07
746.493	-0.09
746.671	0.06
746.849	-0.12
747.027	0.05
747.204	-0.07
747.382	-0.02
747.56	-0.15
747.737	-0.01
747.915	-0.12
748.093	0.02
748.27	-0.12
748.448	-0.07
748.625	-0.16
748.803	-0.03
748.98	-0.01
749.158	-0.02
749.335	0.06
749.513	-0.01
749.69	0
749.868	-0.11
750.045	-0.01
750.223	-0.13
750.4	-0.19
750.578	0.18
750.755	-0.02
750.932	-0.14
751.11	0.06
751.287	-0.17
751.464	0.07
751.642	-0.09
751.819	0.09
751.996	-0.04
752.173	-0.1
752.351	-0.04
752.528	-0.03
752.705	-0.15
752.882	-0.09
753.06	-0.08
753.237	0.08
753.414	0.32
753.591	0.05
753.768	0.08
753.945	-0.02
754.122	-0.09
754.299	0.05
754.476	-0.05
754.654	-0
754.831	0.02
755.008	-0.11
755.185	-0.12
755.362	-0.12
755.539	-0.08
755.716	-0.11
755.892	-0.06
756.069	-0.04
756.246	-0.11
756.423	-0.05
756.6	0.1
756.777	-0.08
756.954	0.02
757.131	-0.08
757.307	-0.16
757.484	-0.09
757.661	-0.02
757.838	0.09
758.015	-0.1
758.191	0.03
758.368	0.02
758.545	0.09
758.721	-0.04
758.898	-0.05
759.075	0.07
759.251	0.03
759.428	0.03
759.605	-0.21
759.781	-0
759.958	-0.01
760.134	0.02
760.311	-0.15
760.488	0.05
760.664	0.16
760.841	-0.05
761.017	-0.15
761.194	-0.03
761.37	-0.01
761.547	-0.07
761.723	0.04
761.899	0
762.076	-0.16
762.252	-0.19
762.429	-0.1
762.605	0.01
762.781	-0.15
762.958	0.15
763.134	0.01
763.31	-0.1
763.486	0.12
763.663	-0.15
763.839	-0.03
764.015	-0.28
764.191	-0.21
764.368	-0.1
764.544	-0.14
764.72	0.04
764.896	0.04
765.072	-0.05
765.248	-0.06
765.425	-0.02
765.601	0.04
765.777	0.05
765.953	-0.28
766.129	-0.01
766.305	-0.11
766.481	-0.03
766.657	0.02
766.833	0.13
767.009	-0.24
767.185	0.07
767.361	-0.05
767.537	-0.24
767.713	-0
767.889	-0.14
768.065	0.02
768.24	-0.16
768.416	0.11
768.592	-0.19
768.768	-0.04
768.944	0.03
769.12	-0.03
769.295	-0.08
769.471	-0.12
769.647	-0.01
769.823	0.09
769.998	-0.07
770.174	-0.14
770.35	0.22
770.525	0.2
770.701	0.05
770.877	-0.06
771.052	0.01
771.228	0.07
771.403	-0.04
771.579	0.01
771.755	0.33
771.93	-0.17
772.106	-0.2
772.281	-0.14
772.457	-0.05
772.632	-0.07
772.808	-0.22
772.983	-0.04
773.159	-0.09
773.334	0.05
773.509	-0.15
773.685	-0.09
773.86	0.32
774.036	0.13
774.211	0.01
774.386	-0
774.562	0.04
774.737	0.09
774.912	-0.11
775.087	0.12
775.263	-0.15
775.438	-0.03
775.613	-0.2
775.788	-0.11
775.964	0.14
776.139	0.2
776.314	-0.26
776.489	-0.04
776.664	-0.01
776.839	-0.06
777.014	0.23
777.19	0.19
777.365	0.18
777.54	0.19
777.715	-0.03
777.89	0.01
778.065	-0.2
778.24	-0.03
778.415	0.22
778.59	-0.19
778.765	-0.18
778.94	0.07
779.115	-0.01
779.289	0
779.464	-0.1
779.639	-0.19
779.814	-0.29
779.989	-0.19
780.164	0.01
780.339	0.07
780.513	-0.14
780.688	-0.06
780.863	0.02
781.038	0.11
781.212	-0.18
781.387	-0.03
781.562	0.25
781.737	0.01
781.911	0.15
782.086	-0.19
782.261	-0.01
782.435	0.18
782.61	-0.06
782.784	-0.08
782.959	0.16
783.134	-0.15
783.308	-0.15
783.483	-0.01
783.657	0.34
783.832	0.13
784.006	-0.25
784.181	-0.16
784.355	0.07
784.53	-0.26
784.704	-0.24
784.878	0.14
785.053	-0.06
785.227	0.01
785.402	0.36
785.576	-0.5
785.75	-0.03
785.925	-0.1
786.099	-0.23
786.273	0.01
786.448	0.17
786.622	0.19
786.796	-0.11
786.97	-0.2
787.145	0.39
787.319	-0.53
787.493	-0.12
787.667	-0.39
787.841	0.04
788.015	0
788.19	-0.13
788.364	0.02
788.538	0.06
788.712	0.24
788.886	-0.3
789.06	0.01
789.234	0.06
789.408	-0.19
789.582	-0.15
789.756	0
789.93	-0.37
790.104	-0.08
790.278	-0.12
790.452	-0.16
790.626	-0.02
790.8	-0.06
790.973	0.21
791.147	0.27
791.321	0.24
791.495	0.11
791.669	-0.05
791.843	-0.09
792.016	0.05
792.19	0.35
792.364	-0.13
792.538	0.27
792.711	0.25
792.885	-0.11
793.059	-0.37
793.233	-0.49
793.406	0.07
793.58	-0.07
793.754	-0.05
793.927	-0.05
794.101	-0.01
794.274	-0.08
794.448	0.21
794.622	-0.27
794.795	0.26
794.969	-0.32
795.142	0.32
795.316	-0.16
795.489	-0.28
795.663	0.28
795.836	-0.04
796.009	-0.12
796.183	0.17
796.356	-0.18
796.53	0.06
796.703	-0.12
796.876	0.44
797.05	-0.15
797.223	0.03
797.396	0.02
797.57	0.14
797.743	0.5
797.916	-0.03
798.09	-0.08
798.263	-0.05
798.436	-0.09
798.609	-0.25
798.782	-0.38
798.956	-0.06
799.129	0.03
799.302	-0.22
799.475	-0.06
799.648	-0.22
799.821	-0.1
799.994	-0.13
800.167	-0.19
800.34	-0.09
800.514	-0.08
800.687	-0.22
800.86	-0.02
801.033	0.09
801.206	-0.15
801.379	-0.14
801.551	0.35
801.724	0.1
801.897	0.16
802.07	-0.14
802.243	-0.62
802.416	-0.17
802.589	-0.1
802.762	0.04
802.935	0.14
803.107	0.21
803.28	0.62
803.453	-0.02
803.626	-0.33
803.798	-0.16
803.971	-0.29
804.144	-0.11
804.317	0.23
804.489	0.21
804.662	-0.24
804.835	0.03
805.007	-0.34
805.18	0.55
805.353	-0.15
805.525	-0.22
805.698	-0.15
805.87	-0.15
806.043	-0.13
806.215	-0.37
806.388	-0.17
806.56	-0.07
806.733	0.1
806.905	0.01
807.078	-0.39
807.25	-0.17
807.423	0.1
807.595	-0.04
807.768	-0.19
807.94	0.06
808.112	0.1
808.285	0.18
808.457	-0.25
808.629	0.1
808.802	0.24
808.974	-0.08
809.146	-0.25
809.318	-0.39
809.491	0.09
809.663	-0.08
809.835	-0.15
810.007	-0
810.18	0.03
810.352	-0.11
810.524	-0.36
810.696	0.33
810.868	0.33
811.04	-0.24
811.212	-0.25
811.384	0.09
811.556	0.42
811.728	0.21
811.901	0.64
812.073	-0.39
812.245	0.46
812.417	-0.26
812.589	-0.61
812.76	-0.02
812.932	0.08
813.104	0.38
813.276	-0.45
813.448	0.15
813.62	-0.16
813.792	-0.03
813.964	-0.16
814.136	0.28
814.307	-0.46
814.479	-0.16
814.651	-0.25
814.823	0.59
814.995	0.13
815.166	-0.09
815.338	-0.28
815.51	-0.27
815.681	0.22
815.853	0.08
816.025	-0.47
816.196	0.67
816.368	0.08
816.54	-0.03
816.711	-0.25
816.883	-0.27
817.054	0.64
817.226	-0.49
817.398	0.17
817.569	-0.18
817.741	-0.31
817.912	0.12
818.084	-0.11
818.255	-0.13
818.426	-0.22
818.598	0.27
818.769	-0.31
818.941	0.17
819.112	0.22
819.283	0.06
819.455	-0.2
819.626	0.15
819.798	-0.31
819.969	-0.23
820.14	-0.21
820.311	-0.14
820.483	0.27
820.654	0.33
820.825	-0.06
820.996	-0.21
821.168	-0.74
821.339	-0.07
821.51	-0.64
821.681	-0.32
821.852	-0.09
822.023	-0.41
822.195	-0.69
822.366	0.18
822.537	-0.23
822.708	0.2
822.879	-0.33
823.05	0.57
823.221	-0.45
823.392	-0.05
823.563	0.01
823.734	-0.19
823.905	-0.4
824.076	-0.49
824.247	-0.73
824.418	-0.28
824.589	0.22
824.759	0.02
824.93	0.33
825.101	-0.79
825.272	0.49
825.443	0.01
825.614	0.47
825.784	-0.95
825.955	0.05
826.126	0.17
826.297	-0.27
826.467	0.29
826.638	1.28
826.809	-1.11
826.98	-0.35
827.15	0.41
827.321	-0.34
827.492	1.19
827.662	-0.43
827.833	0.79
828.003	-0.28
828.174	-0.39
828.345	-0.11
828.515	0.77
828.686	0.13
828.856	-0.14
829.027	-0.14
829.197	-0.4
829.368	-0.62
829.538	-0.5
829.709	-0.74
829.879	-0.27
830.049	-0.48
830.22	-0.2
830.39	-0.23
830.56	0.31
830.731	-0.59
830.901	-0.62
831.072	-0.21
831.242	-0.2
831.412	0.44
831.582	-0.48
831.753	-0.31
831.923	0.19
832.093	-0.67
832.263	-0.01
832.434	-0.84
832.604	-0.67
832.774	0.14
832.944	-0.06
833.114	-0.42
833.284	0.52
833.454	-0.94
833.624	-0.6
833.795	-0.68
833.965	0.17
834.135	0.4
834.305	-1.13
834.475	-0.83
834.645	-0.42
834.815	-0.37
834.985	-0.77
835.155	-0.7
835.325	0.73
835.494	0.54
835.664	-0.59
835.834	-0.81
836.004	0.56
836.174	-0.37
836.344	0.1
836.514	-1.18
836.684	-0.36
836.853	0.02
837.023	-0.56
837.193	-0.33
837.363	0.54
837.532	0.51
837.702	-0.57
837.872	-0.72
838.041	0.08
838.211	1.3
838.381	-0.13
838.55	0.82
838.72	1.17
838.89	0.91
839.059	-0.15
839.229	-0.88
839.398	1.02
839.568	-0.08
839.738	0.36
839.907	0.98
840.077	0.02
840.246	-1.08
840.416	-0.97
840.585	-0.57
840.755	0.87
840.924	0.46
841.093	-0.93
841.263	-0.31
841.432	-0.28
841.602	-0.95
841.771	-0.77
841.94	-0.47
842.11	1.47
842.279	1.22
842.448	-1.04
842.617	-0.37
842.787	0.18
842.956	-0.74
843.125	-0.44
843.294	-0.19
843.464	0.77
843.633	0.01
843.802	-0.97
843.971	-0.52
844.14	0.77
844.309	0.67
844.479	-0.84
844.648	-0.63
844.817	-0.5
844.986	-0.75
845.155	-1.53
845.324	-0.5
845.493	0.51
845.662	-1.74
845.831	-0.24
846	0.73
846.169	0.27
846.338	1.17
846.507	0.7
846.676	-0.03
846.844	0.35
847.013	-0.02
847.182	0.2
847.351	-1.08
847.52	0.03
847.689	0.71
847.858	-0.51
848.026	-0.03
848.195	0.3
848.364	-1.27
848.533	-0.35
848.701	-0.5
848.87	0.33
849.039	-0.04
849.207	0.28
849.376	0.78
849.545	1.42
849.713	-0.89
849.882	-0.96
850.051	-0.61
850.219	0.47
850.388	-0.25
850.556	-1.13
850.725	-0.11
850.893	0.48
851.062	-0.26
851.23	-0.08
851.399	-0.95
851.567	-1.3
851.736	-0.16
851.904	-1.38
852.073	0.37
852.241	0.8
852.41	-0.14
852.578	-0.04
852.746	-0.2
852.915	1.58
853.083	0.09
853.251	-0.76
853.42	0.27
853.588	0.01
853.756	1.19
853.924	-0.4
854.093	0.26
854.261	-0.26
854.429	-1.37
854.597	0.13
854.765	-1.42
854.934	-0.61
855.102	0.92
855.27	0.04
855.438	1.2
855.606	0.48
855.774	-0.73
855.942	0.03
856.11	-1.36
856.278	-0.11
856.446	0.39
856.614	-0.47
856.782	-0.3
856.95	1.35
857.118	-0.6
857.286	0.32
857.454	-1
857.622	0.41
857.79	0.74
857.958	-1.43
858.126	0.13
858.294	-2.85
858.462	0.06
858.629	-0.02
858.797	-1.65
858.965	1.35
859.133	-1.44
859.301	-0.82
859.468	0.83
859.636	-1.06
859.804	0.67
859.971	-0.14
860.139	-0.69
860.307	1.24
860.474	0.1
860.642	-0.5
860.81	-1.59
860.977	-0.96
861.145	0.15
861.313	-0.93
861.48	0.3
861.648	0.12
861.815	-0.7
861.983	-1.92
862.15	-1.82
862.318	0.7
862.485	0.93
862.653	-0.69
862.82	-0.31
862.988	1.03
863.155	0.79
863.322	-1.87
863.49	-2.03
863.657	-1.44
863.824	2.19
863.992	0.13
864.159	0.24
864.326	0.24
864.494	-1
864.661	2.01
864.828	-1
864.996	-0.23
865.163	0.58
865.33	-1.39
865.497	-2.05
865.664	-1.68
865.832	-2.09
865.999	-1.21
866.166	-2.66
866.333	-0.64
866.5	-0.07
866.667	1.4
866.834	-1.9
867.001	0.36
867.168	-1.51
867.335	0.3
867.502	-1.82
867.669	-0.56
867.836	1.69
868.003	-0.72
868.17	1.12
868.337	-1.06
868.504	0.16
868.671	-1.31
868.838	-0.59
869.005	-0.47
869.172	0.07
869.339	0.46
869.505	-1.48
869.672	0.01
869.839	0.35
870.006	-0.61
870.173	-1.62
870.339	0.64
870.506	1.38
870.673	-1.99
870.84	1.11
871.006	-1.07
871.173	-0.25
871.34	-0.11
871.506	-0.33
871.673	-0.3
871.839	-2.28
872.006	-0.29
872.173	-1.28
872.339	-0.37
872.506	1.71
872.672	-0.63
872.839	-2.16
873.005	0.12
873.172	3.67
873.338	0.52
873.505	-1.94
873.671	-1
873.838	1.6
874.004	-1.37
874.171	-0.97
874.337	1.07
874.503	1.12
874.67	-0.48
874.836	-1.63
875.002	1.67
875.169	-0.03
875.335	-0.59
875.501	-0.66
875.668	0.68
875.834	-0.45
876	0.4
876.166	1.51
876.332	0.85
876.499	2.89
876.665	-2.33
876.831	0.06
876.997	2.42
877.163	1.59
877.329	-0.63
877.495	0.74
877.662	0.74
877.828	1.29
877.994	0.58
878.16	-3.23
878.326	-1.66
878.492	-0.1
878.658	1.01
878.824	-0.31
878.99	-0.33
879.156	-0.76
879.322	3.8
879.487	-1.13
879.653	0.02
879.819	-0.94
879.985	0.53
880.151	0.55
880.317	0.72
880.483	-0.54
880.648	0.85
880.814	-2.57
880.98	0.06
881.146	-1.59
881.312	-1.74
881.477	-1.12
881.643	0.16
881.809	1.02
881.974	2.88
882.14	-1.95
882.306	0.76
882.471	1.51
882.637	-1.44
882.803	-1.04
882.968	2.57
883.134	1.5
883.299	-1.21
883.465	-0.76
883.63	-0.14
883.796	0.32
883.961	0.46
884.127	0.9
884.292	-3.24
884.458	-3.74
884.623	-3.74
