Data from Apollo_Calib_20240827__AbsoluteIrradiance__261__03-30-00-469.txt Node

Date: Wed Aug 28 03:30:00 BST 2024
User: biology
Spectrometer: FLMT08252
Trigger mode: 0
Integration Time (sec): 5.000000E-1
Scans to average: 5
Electric dark correction enabled: true
Nonlinearity correction enabled: false
Boxcar width: 0
XAxis mode: Wavelengths
Number of Pixels in Spectrum: 3648
>>>>>Begin Spectral Data<<<<<
179.588	-0
179.809	-0
180.03	-0
180.251	-0
180.473	-0
180.694	0
180.915	0
181.136	-0
181.357	0
181.578	-0
181.799	-0
182.02	-0
182.241	0
182.462	-0
182.683	0
182.904	0
183.125	-0
183.346	0
183.567	0
183.788	-0
184.009	-0
184.23	0
184.451	0
184.672	-0
184.892	-0
185.113	0
185.334	0
185.555	-0
185.776	-0
185.996	0
186.217	0
186.438	0
186.659	-0
186.879	0
187.1	-0
187.321	-0
187.541	-0
187.762	0
187.983	0
188.203	-0
188.424	0
188.644	-0
188.865	-0
189.086	0
189.306	-0
189.527	-0
189.747	-0
189.968	-0
190.188	0
190.409	-0
190.629	0
190.849	-0
191.07	-0
191.29	0
191.511	0
191.731	-0
191.951	-0
192.172	0
192.392	0
192.612	0
192.833	0
193.053	0
193.273	0
193.493	-0
193.714	-0
193.934	0
194.154	0
194.374	-0
194.594	0
194.815	0
195.035	-0
195.255	0
195.475	-0
195.695	0
195.915	0
196.135	-0
196.355	0
196.575	0
196.795	0
197.015	-0
197.235	0
197.455	0
197.675	-0
197.895	-0
198.115	0
198.335	0
198.555	-0
198.775	0
198.995	-0
199.214	0
199.434	0
199.654	-0
199.874	0
200.094	1
200.313	-0.68
200.533	-0.36
200.753	-0.76
200.973	0.72
201.192	0.74
201.412	-0.51
201.632	-0.03
201.851	0.94
202.071	-0.03
202.291	-0.14
202.51	-0.15
202.73	0.49
202.95	-0.1
203.169	-0.3
203.389	-0.05
203.608	0.32
203.828	-0.34
204.047	-0.15
204.267	0.74
204.486	-0.03
204.706	0.42
204.925	0.17
205.145	-0.12
205.364	0.71
205.583	0.76
205.803	-0.25
206.022	-0.32
206.242	0.26
206.461	-0.36
206.68	-0.31
206.9	0.05
207.119	0.84
207.338	0.72
207.557	0.05
207.777	-0.02
207.996	-0.12
208.215	0.3
208.434	-0.24
208.654	-0.73
208.873	0.03
209.092	0.51
209.311	0.07
209.53	0.07
209.749	0.23
209.968	-0.54
210.187	0.14
210.407	-0.59
210.626	-0.1
210.845	0.3
211.064	0.18
211.283	-0.13
211.502	0.55
211.721	0.11
211.94	-0.16
212.159	0.11
212.377	0.32
212.596	0.32
212.815	0.11
213.034	0.3
213.253	0.31
213.472	0.13
213.691	-0.13
213.91	0.02
214.128	-0.13
214.347	0.38
214.566	-0.65
214.785	-0.19
215.003	0.19
215.222	0.23
215.441	0.09
215.66	-0.16
215.878	0.33
216.097	0.29
216.316	-0.08
216.534	-0.09
216.753	0.01
216.972	-0.05
217.19	0.08
217.409	-0.13
217.627	-0.1
217.846	-0.1
218.064	0.16
218.283	-0.13
218.501	0.62
218.72	0.34
218.938	-0.12
219.157	-0.15
219.375	0.33
219.594	-0.26
219.812	-0.17
220.031	-0.14
220.249	0.35
220.467	0.4
220.686	0.04
220.904	-0.23
221.122	-0.19
221.341	0.33
221.559	-0.03
221.777	-0.18
221.995	-0.05
222.214	0.11
222.432	-0.06
222.65	0.15
222.868	0.08
223.086	0.19
223.305	0.15
223.523	0
223.741	0.36
223.959	0.16
224.177	-0.17
224.395	-0.03
224.613	0.15
224.831	0.33
225.049	-0.18
225.267	-0.04
225.485	0.04
225.703	-0.08
225.921	-0.06
226.139	-0.11
226.357	0.13
226.575	0.15
226.793	0
227.011	0.62
227.229	0.09
227.447	0.18
227.665	-0.01
227.883	-0.19
228.1	0.06
228.318	-0.01
228.536	-0.16
228.754	-0.17
228.972	0.1
229.189	0.17
229.407	-0.02
229.625	-0.01
229.843	0.24
230.06	0.03
230.278	0.01
230.496	0.06
230.713	0.11
230.931	0.11
231.149	0.07
231.366	-0.16
231.584	0.07
231.801	0.36
232.019	0.07
232.236	-0.09
232.454	-0.08
232.671	0.11
232.889	-0.07
233.106	-0.14
233.324	0.01
233.541	0.03
233.759	0.01
233.976	-0.03
234.194	0.1
234.411	0.07
234.628	-0.09
234.846	0.01
235.063	-0.01
235.28	0.07
235.498	-0.05
235.715	-0.05
235.932	0.18
236.149	0.05
236.367	-0.11
236.584	0.03
236.801	-0.03
237.018	0.14
237.236	0.03
237.453	-0.13
237.67	0.17
237.887	0.11
238.104	0.07
238.321	-0.11
238.538	0.04
238.755	0.25
238.973	-0.08
239.19	0.02
239.407	0.08
239.624	0.13
239.841	-0.08
240.058	-0.12
240.275	0.08
240.492	0.08
240.709	-0.03
240.925	-0.02
241.142	0
241.359	-0.11
241.576	-0.03
241.793	-0.06
242.01	0.02
242.227	0.17
242.444	0
242.66	0.1
242.877	-0.04
243.094	-0.01
243.311	-0.02
243.527	-0
243.744	0.07
243.961	0.08
244.178	0.01
244.394	0.06
244.611	0.22
244.828	0.23
245.044	-0.03
245.261	0.03
245.477	0.05
245.694	0.15
245.911	-0.02
246.127	0.08
246.344	0.22
246.56	0.13
246.777	-0.04
246.993	-0.01
247.21	0.01
247.426	0.12
247.643	-0.04
247.859	-0.05
248.076	0.02
248.292	0.24
248.508	-0.03
248.725	0.05
248.941	0.13
249.157	0.15
249.374	-0.03
249.59	0.13
249.806	0.02
250.023	0.05
250.239	-0.08
250.455	-0.01
250.671	-0.01
250.888	0.08
251.104	0.09
251.32	0.02
251.536	-0.01
251.752	0
251.969	0.09
252.185	0.07
252.401	0.2
252.617	0.09
252.833	-0.07
253.049	-0.03
253.265	0.07
253.481	0.05
253.697	0
253.913	-0.01
254.129	0.08
254.345	0.04
254.561	-0
254.777	-0.01
254.993	0.12
255.209	0.05
255.425	-0.03
255.641	-0.06
255.857	0.05
256.073	0.05
256.288	-0.01
256.504	0.03
256.72	0.04
256.936	0.13
257.152	0.02
257.367	-0.02
257.583	0.11
257.799	0.1
258.015	-0
258.23	-0.05
258.446	0.1
258.662	0.02
258.877	0.06
259.093	0.03
259.309	0.08
259.524	0.03
259.74	-0.02
259.955	-0.06
260.171	0.08
260.387	-0
260.602	0.06
260.818	0.09
261.033	-0.08
261.249	0.01
261.464	-0.02
261.68	-0.05
261.895	0.03
262.11	0.12
262.326	0.04
262.541	-0.1
262.757	0.18
262.972	0.08
263.187	0.07
263.403	0.05
263.618	0.09
263.833	0.1
264.049	-0.07
264.264	0.02
264.479	0.05
264.694	0.13
264.91	-0.1
265.125	0.02
265.34	0.04
265.555	0.21
265.77	0.01
265.986	0.03
266.201	0.08
266.416	0.11
266.631	0.01
266.846	0
267.061	0.07
267.276	0.07
267.491	-0.09
267.706	0.09
267.921	0.06
268.136	0.02
268.351	0.04
268.566	-0.05
268.781	0.06
268.996	0.1
269.211	0.02
269.426	-0.03
269.641	-0.03
269.856	0.05
270.071	-0.01
270.285	-0.03
270.5	0.11
270.715	0.04
270.93	0.05
271.145	0.04
271.359	0.19
271.574	-0.04
271.789	-0
272.004	0.01
272.218	0.03
272.433	0.05
272.648	0
272.862	0.11
273.077	0.03
273.292	0.08
273.506	-0.03
273.721	0.02
273.936	0.03
274.15	0.12
274.365	-0.03
274.579	0.07
274.794	0.13
275.008	0.04
275.223	-0.08
275.437	0.02
275.652	0.06
275.866	0.09
276.081	0.02
276.295	0.13
276.509	0.09
276.724	0.05
276.938	0.04
277.153	0.01
277.367	0.08
277.581	0
277.796	0.04
278.01	-0.03
278.224	0.08
278.438	0.17
278.653	-0.08
278.867	-0.01
279.081	-0.1
279.295	0.04
279.51	0.03
279.724	-0.07
279.938	0.01
280.152	0.03
280.366	0.01
280.58	0.01
280.794	0.06
281.008	0.06
281.222	0.05
281.437	0.16
281.651	0.04
281.865	0.13
282.079	-0
282.293	-0.08
282.507	-0.04
282.721	0.01
282.935	0.04
283.148	-0.05
283.362	-0.01
283.576	-0.04
283.79	0.01
284.004	0.04
284.218	0.09
284.432	-0.01
284.646	0.01
284.859	-0.04
285.073	0.02
285.287	0.06
285.501	-0
285.714	0.01
285.928	0.01
286.142	0.07
286.356	-0.05
286.569	0.01
286.783	0.1
286.997	0.09
287.21	0.01
287.424	0.03
287.637	0.01
287.851	0.07
288.065	0.08
288.278	0.01
288.492	0.04
288.705	0.01
288.919	0.1
289.132	-0.05
289.346	0.04
289.559	-0.02
289.773	-0.07
289.986	0.05
290.2	0.03
290.413	0.05
290.626	-0.04
290.84	0.02
291.053	0.04
291.267	0.08
291.48	-0.02
291.693	0.02
291.906	-0
292.12	0.01
292.333	-0.03
292.546	0
292.76	0.09
292.973	0.02
293.186	0.07
293.399	-0.04
293.612	0.08
293.826	0.02
294.039	0.05
294.252	-0.02
294.465	0.04
294.678	0.04
294.891	0.07
295.104	-0.02
295.317	0.01
295.53	0.02
295.743	0.02
295.956	-0.01
296.169	0.07
296.382	0.1
296.595	0.02
296.808	-0.04
297.021	0.05
297.234	0.07
297.447	-0.01
297.66	-0
297.873	0.15
298.086	0.08
298.299	-0.02
298.511	-0.04
298.724	0.02
298.937	-0.02
299.15	-0.02
299.363	0.01
299.575	0.06
299.788	0.05
300.001	0.04
300.213	-0.06
300.426	0
300.639	-0
300.852	-0.03
301.064	0.07
301.277	0.11
301.489	0.09
301.702	0.05
301.915	-0.02
302.127	-0
302.34	0.05
302.552	0.05
302.765	-0.01
302.977	0.06
303.19	-0.01
303.402	-0
303.615	0.01
303.827	-0.01
304.04	0.02
304.252	0.02
304.464	0
304.677	0.11
304.889	0.08
305.102	-0
305.314	-0.02
305.526	0.07
305.739	0.04
305.951	-0.02
306.163	0.01
306.375	0.11
306.588	-0.03
306.8	0.04
307.012	-0.04
307.224	0.03
307.436	0.09
307.649	-0.05
307.861	0.05
308.073	0.06
308.285	0.04
308.497	0
308.709	0.02
308.921	0.07
309.133	0.06
309.346	0
309.558	0.04
309.77	0.09
309.982	0.08
310.194	0.1
310.406	0.01
310.617	0.11
310.829	0.02
311.041	0.05
311.253	0.01
311.465	-0.04
311.677	0.02
311.889	-0
312.101	0.03
312.313	0.04
312.524	0.09
312.736	-0.02
312.948	-0.01
313.16	0.09
313.372	0.09
313.583	0.05
313.795	-0.04
314.007	-0.02
314.218	0.01
314.43	0.04
314.642	0.04
314.853	-0.01
315.065	0.07
315.277	0.02
315.488	0.05
315.7	0.09
315.912	0.05
316.123	0.05
316.335	0.02
316.546	0.14
316.758	0.04
316.969	-0.01
317.181	0.08
317.392	0.05
317.604	0.07
317.815	-0.02
318.026	-0.03
318.238	-0.03
318.449	0.03
318.661	-0.02
318.872	-0.02
319.083	0.01
319.295	0.06
319.506	0.02
319.717	0.06
319.929	0.05
320.14	0.04
320.351	0
320.562	-0
320.774	0.04
320.985	0.02
321.196	-0
321.407	-0.06
321.618	0.06
321.829	0.05
322.041	0.04
322.252	-0
322.463	0.04
322.674	0.04
322.885	-0.03
323.096	0.02
323.307	0.02
323.518	0.02
323.729	-0.01
323.94	0.03
324.151	0.02
324.362	0.07
324.573	0.04
324.784	0.01
324.995	0.04
325.206	0.03
325.417	0
325.628	0.01
325.838	0.03
326.049	0.03
326.26	0.03
326.471	0.04
326.682	0.06
326.892	0.04
327.103	-0.05
327.314	0.01
327.525	0.04
327.735	0
327.946	-0.05
328.157	0.01
328.368	0.04
328.578	0.03
328.789	0.03
328.999	0.02
329.21	0.04
329.421	0.04
329.631	-0.01
329.842	0.01
330.052	0.03
330.263	0.05
330.473	0.08
330.684	0.03
330.894	0.04
331.105	0.07
331.315	0.04
331.526	-0.02
331.736	0.08
331.947	0.07
332.157	0.04
332.367	-0.03
332.578	0.05
332.788	0.08
332.999	0.07
333.209	-0.01
333.419	-0.02
333.629	0.07
333.84	0.06
334.05	0.02
334.26	0.1
334.47	0.01
334.681	0.05
334.891	0.01
335.101	0.07
335.311	0.12
335.521	0.05
335.732	-0.01
335.942	0.07
336.152	0.06
336.362	0.08
336.572	0.04
336.782	0.04
336.992	0.08
337.202	-0
337.412	-0.03
337.622	0.1
337.832	0.05
338.042	0.07
338.252	-0.02
338.462	0.02
338.672	0.04
338.882	0.07
339.092	0.01
339.302	0.09
339.511	0.14
339.721	0.03
339.931	0.03
340.141	0.08
340.351	0.1
340.561	0.05
340.77	0.05
340.98	0.1
341.19	0.05
341.4	0.01
341.609	0.01
341.819	-0.01
342.029	-0.04
342.238	0.05
342.448	-0.01
342.658	0.05
342.867	0.05
343.077	0.03
343.286	0.05
343.496	0.07
343.706	0.09
343.915	-0.03
344.125	0.04
344.334	0.07
344.544	-0.03
344.753	-0
344.963	0
345.172	0
345.381	0.05
345.591	-0
345.8	0
346.01	0.09
346.219	0.07
346.428	-0.09
346.638	0.06
346.847	0.03
347.056	0.08
347.266	0.02
347.475	0.04
347.684	0.08
347.893	0.05
348.103	0.02
348.312	0.02
348.521	0.01
348.73	0.03
348.94	0.03
349.149	0.04
349.358	0.02
349.567	0.01
349.776	-0.03
349.985	0.04
350.194	0.08
350.403	0.1
350.612	-0.02
350.821	0.05
351.03	0.05
351.239	-0.03
351.448	0.05
351.657	-0.02
351.866	0.11
352.075	0.03
352.284	-0
352.493	0
352.702	0.05
352.911	0.04
353.12	0.06
353.329	-0
353.538	0.08
353.746	0.07
353.955	0.03
354.164	0.08
354.373	-0
354.582	0.07
354.79	0.02
354.999	0.07
355.208	0.03
355.416	0.09
355.625	-0.01
355.834	-0.01
356.042	0.06
356.251	-0.01
356.46	0.03
356.668	0.07
356.877	0.14
357.085	0.05
357.294	-0.05
357.503	0.03
357.711	0
357.92	0.17
358.128	0.05
358.337	0.02
358.545	0.07
358.754	0.01
358.962	0.06
359.17	0.07
359.379	0.07
359.587	0.05
359.796	0.02
360.004	0.04
360.212	0.08
360.421	0.08
360.629	0.04
360.837	0.05
361.046	0.05
361.254	0.12
361.462	0.05
361.67	0.02
361.879	0.05
362.087	0.07
362.295	0.04
362.503	0.03
362.711	-0.02
362.92	-0.01
363.128	0.01
363.336	0.01
363.544	0
363.752	0.03
363.96	0.01
364.168	0.04
364.376	0.03
364.584	0.02
364.792	0.05
365	0.03
365.208	0.05
365.416	0.09
365.624	0.07
365.832	0.01
366.04	0.09
366.248	0.04
366.456	0.08
366.664	0.04
366.872	0.05
367.079	0.04
367.287	0.02
367.495	0.04
367.703	0.05
367.911	0.01
368.118	0.01
368.326	0.02
368.534	0.01
368.742	0.06
368.949	-0.02
369.157	-0.02
369.365	0.07
369.572	0.02
369.78	-0.01
369.988	0.06
370.195	0.06
370.403	0.09
370.61	0.06
370.818	0.01
371.026	0.13
371.233	0.01
371.441	0.03
371.648	-0
371.856	0.06
372.063	0.06
372.271	0.04
372.478	0.03
372.685	0.04
372.893	0.11
373.1	0.06
373.308	0.02
373.515	0.08
373.722	0.08
373.93	0.02
374.137	0.04
374.344	0.15
374.552	0.1
374.759	0.08
374.966	0.04
375.173	0.02
375.381	0.09
375.588	0.04
375.795	-0.05
376.002	0.04
376.209	0.04
376.417	0.04
376.624	0.04
376.831	0.01
377.038	0.04
377.245	-0.03
377.452	0.03
377.659	0.04
377.866	0.01
378.073	0.06
378.28	0.06
378.487	0.1
378.694	0.09
378.901	0.02
379.108	0.07
379.315	0.05
379.522	0.15
379.729	0.08
379.936	0.03
380.143	0.06
380.35	0.05
380.557	0.03
380.763	0.01
380.97	0.01
381.177	0.07
381.384	0.03
381.591	0
381.797	0.02
382.004	0.07
382.211	0.08
382.418	0.06
382.624	0.07
382.831	0.09
383.038	0.06
383.244	0.03
383.451	0.03
383.658	0.07
383.864	0.03
384.071	0.03
384.277	0.13
384.484	0
384.69	0.04
384.897	0.03
385.103	0.02
385.31	-0.01
385.516	0.04
385.723	0.05
385.929	0.04
386.136	0.03
386.342	0.06
386.549	0.04
386.755	0.13
386.961	0.09
387.168	0.06
387.374	0.04
387.58	0.09
387.787	0.05
387.993	0.09
388.199	0.03
388.406	0.04
388.612	0.04
388.818	0.06
389.024	0.01
389.231	0.07
389.437	0.15
389.643	0.11
389.849	0.06
390.055	0.07
390.261	0.06
390.467	0.08
390.674	0.02
390.88	0.03
391.086	0.12
391.292	0.05
391.498	0.13
391.704	0.1
391.91	0.09
392.116	0.07
392.322	-0
392.528	0.09
392.734	0.06
392.94	0.12
393.146	0.07
393.352	0.1
393.557	0.05
393.763	0.09
393.969	0.15
394.175	0.1
394.381	0.1
394.587	0.08
394.792	0.14
394.998	0.2
395.204	0.15
395.41	0.08
395.615	0.12
395.821	0.17
396.027	0.19
396.233	0.13
396.438	0.13
396.644	0.23
396.85	0.18
397.055	0.12
397.261	0.16
397.466	0.29
397.672	0.19
397.878	0.25
398.083	0.21
398.289	0.19
398.494	0.29
398.7	0.27
398.905	0.15
399.111	0.31
399.316	0.15
399.522	0.25
399.727	0.27
399.932	0.22
400.138	0.32
400.343	0.35
400.549	0.34
400.754	0.32
400.959	0.34
401.165	0.37
401.37	0.33
401.575	0.52
401.78	0.41
401.986	0.38
402.191	0.42
402.396	0.46
402.601	0.46
402.807	0.54
403.012	0.51
403.217	0.65
403.422	0.56
403.627	0.64
403.832	0.61
404.037	0.67
404.243	0.65
404.448	0.73
404.653	0.74
404.858	0.81
405.063	0.8
405.268	0.79
405.473	0.87
405.678	0.91
405.883	1.16
406.088	1.05
406.293	0.97
406.498	1.04
406.703	1.13
406.907	1.2
407.112	1.23
407.317	1.38
407.522	1.47
407.727	1.41
407.932	1.52
408.136	1.74
408.341	1.62
408.546	1.74
408.751	1.83
408.956	1.88
409.16	2.06
409.365	2.07
409.57	2.13
409.774	2.16
409.979	2.34
410.184	2.37
410.388	2.45
410.593	2.74
410.798	2.72
411.002	2.92
411.207	3.02
411.411	3.12
411.616	3.16
411.82	3.38
412.025	3.46
412.229	3.59
412.434	3.83
412.638	3.87
412.843	4.04
413.047	4.22
413.252	4.18
413.456	4.53
413.66	4.58
413.865	4.72
414.069	4.84
414.273	5.05
414.478	5.2
414.682	5.38
414.886	5.61
415.091	5.7
415.295	5.87
415.499	6.24
415.703	6.2
415.908	6.61
416.112	6.57
416.316	7.1
416.52	7.3
416.724	7.33
416.929	7.52
417.133	8.1
417.337	7.91
417.541	8.28
417.745	8.49
417.949	8.72
418.153	8.97
418.357	9.23
418.561	9.62
418.765	9.69
418.969	9.93
419.173	10.46
419.377	10.42
419.581	10.99
419.785	11.2
419.989	11.29
420.193	11.74
420.397	11.91
420.601	12.08
420.804	12.44
421.008	12.26
421.212	12.61
421.416	12.37
421.62	12.54
421.823	12.52
422.027	12.61
422.231	12.4
422.435	12.33
422.638	12.32
422.842	12.45
423.046	12.6
423.249	12.82
423.453	12.56
423.657	12.58
423.86	12.75
424.064	12.84
424.268	12.67
424.471	12.57
424.675	12.65
424.878	12.46
425.082	12.6
425.285	12.85
425.489	12.18
425.692	12.2
425.896	11.88
426.099	11.92
426.303	11.83
426.506	11.67
426.71	11.69
426.913	11.58
427.116	11.49
427.32	11.15
427.523	10.87
427.726	10.92
427.93	10.65
428.133	10.75
428.336	10.54
428.54	10.3
428.743	10.1
428.946	10.11
429.149	9.7
429.353	9.29
429.556	9.05
429.759	8.58
429.962	8.49
430.165	8.28
430.368	7.64
430.571	7.45
430.775	7.12
430.978	6.82
431.181	6.69
431.384	6.48
431.587	6.29
431.79	6.35
431.993	5.92
432.196	5.95
432.399	5.93
432.602	5.87
432.805	5.65
433.008	5.79
433.211	5.47
433.414	5.53
433.616	5.34
433.819	5.14
434.022	5.03
434.225	5.01
434.428	4.71
434.631	4.83
434.833	4.6
435.036	4.46
435.239	4.38
435.442	4.27
435.645	4.19
435.847	4.08
436.05	4.04
436.253	4.01
436.455	3.82
436.658	3.72
436.861	3.69
437.063	3.61
437.266	3.45
437.468	3.44
437.671	3.53
437.874	3.31
438.076	3.12
438.279	3.14
438.481	3.09
438.684	3.15
438.886	2.93
439.089	2.78
439.291	2.81
439.494	2.82
439.696	2.67
439.899	2.7
440.101	2.69
440.303	2.53
440.506	2.66
440.708	2.5
440.91	2.45
441.113	2.29
441.315	2.31
441.517	2.15
441.72	2.25
441.922	2.02
442.124	2.03
442.326	1.98
442.529	1.92
442.731	1.82
442.933	1.96
443.135	1.72
443.337	1.67
443.539	1.71
443.742	1.56
443.944	1.63
444.146	1.45
444.348	1.43
444.55	1.35
444.752	1.37
444.954	1.29
445.156	1.28
445.358	1.28
445.56	1.32
445.762	1.17
445.964	1.23
446.166	1.15
446.368	1.06
446.57	1.18
446.772	1.03
446.974	0.99
447.175	1.05
447.377	0.91
447.579	1
447.781	0.85
447.983	0.99
448.184	0.84
448.386	0.9
448.588	0.78
448.79	0.78
448.991	0.77
449.193	0.74
449.395	0.76
449.597	0.82
449.798	0.75
450	0.69
450.202	0.73
450.403	0.66
450.605	0.72
450.806	0.64
451.008	0.57
451.21	0.65
451.411	0.66
451.613	0.61
451.814	0.58
452.016	0.64
452.217	0.58
452.419	0.56
452.62	0.58
452.821	0.54
453.023	0.6
453.224	0.54
453.426	0.5
453.627	0.49
453.828	0.5
454.03	0.46
454.231	0.53
454.432	0.44
454.634	0.51
454.835	0.41
455.036	0.37
455.238	0.45
455.439	0.47
455.64	0.33
455.841	0.31
456.042	0.55
456.244	0.4
456.445	0.34
456.646	0.32
456.847	0.35
457.048	0.41
457.249	0.41
457.45	0.64
457.651	0.28
457.852	0.37
458.054	0.31
458.255	0.32
458.456	0.32
458.657	0.33
458.858	0.28
459.058	0.3
459.259	0.31
459.46	0.3
459.661	0.26
459.862	0.42
460.063	0.23
460.264	0.32
460.465	0.16
460.666	0.36
460.866	0.27
461.067	0.24
461.268	0.21
461.469	0.17
461.67	0.2
461.87	0.19
462.071	0.17
462.272	0.14
462.473	0.17
462.673	0.19
462.874	0.16
463.075	0.25
463.275	0.17
463.476	0.25
463.676	0.13
463.877	0.2
464.078	0.2
464.278	0.26
464.479	0.17
464.679	0.18
464.88	0.16
465.08	0.25
465.281	0.16
465.481	0.15
465.682	0.17
465.882	0.23
466.083	0.2
466.283	0.15
466.483	0.16
466.684	0.13
466.884	0.16
467.085	0.16
467.285	0.22
467.485	0.12
467.686	0.18
467.886	0.13
468.086	0.1
468.286	0.13
468.487	0.16
468.687	0.06
468.887	0.08
469.087	0.15
469.287	0.13
469.488	0.05
469.688	0.13
469.888	0.18
470.088	0.17
470.288	0.16
470.488	0.11
470.688	0.1
470.888	0.08
471.088	0.05
471.288	0.17
471.488	0.12
471.688	0.14
471.888	0.12
472.088	0.15
472.288	0.14
472.488	0.06
472.688	0.06
472.888	0.11
473.088	0.08
473.288	0.09
473.488	0.09
473.688	0.16
473.887	0.13
474.087	0.08
474.287	0.13
474.487	0.07
474.687	0.13
474.886	0.09
475.086	0.08
475.286	0.12
475.486	0.11
475.685	0.06
475.885	0.07
476.085	0.09
476.284	0.12
476.484	0.08
476.684	0.12
476.883	0.14
477.083	0.11
477.282	0.05
477.482	0.13
477.681	0.12
477.881	0.09
478.08	0.05
478.28	0.02
478.479	0.07
478.679	0.14
478.878	0.07
479.078	0.07
479.277	0.07
479.477	0.06
479.676	0.11
479.875	0.05
480.075	0
480.274	0.1
480.473	0.08
480.673	0.04
480.872	0.1
481.071	0.05
481.271	0.07
481.47	0.01
481.669	0.04
481.868	0.03
482.067	0.02
482.267	0.04
482.466	0.02
482.665	0.04
482.864	0
483.063	0.01
483.262	0.1
483.461	0.09
483.661	0.08
483.86	0.06
484.059	0.06
484.258	0.03
484.457	0.06
484.656	0.04
484.855	0.08
485.054	0.05
485.253	0.03
485.452	0.01
485.651	0.04
485.849	0.05
486.048	0.02
486.247	0.02
486.446	0.06
486.645	-0.01
486.844	0.02
487.043	0.05
487.241	0.05
487.44	0.03
487.639	0.04
487.838	0.04
488.037	0.05
488.235	0.07
488.434	0.05
488.633	0.02
488.831	0.05
489.03	0.05
489.229	0.06
489.427	0.03
489.626	0.08
489.825	0.12
490.023	0.03
490.222	0.01
490.42	0.06
490.619	0.07
490.817	0.03
491.016	0.04
491.214	0.06
491.413	0.03
491.611	0.04
491.81	0.03
492.008	0.04
492.207	0.06
492.405	0.04
492.604	0.02
492.802	0.02
493	0.05
493.199	0.01
493.397	0.05
493.595	0.02
493.794	0.03
493.992	0.1
494.19	0.02
494.388	0.06
494.587	0.05
494.785	0.04
494.983	0
495.181	0.02
495.379	0.04
495.578	0.03
495.776	0.03
495.974	0.03
496.172	0.04
496.37	0.04
496.568	0.01
496.766	0.01
496.964	0.06
497.162	0.04
497.36	-0.01
497.558	0.03
497.756	0.03
497.954	0.05
498.152	-0
498.35	0.02
498.548	0.01
498.746	0.02
498.944	0
499.142	0.02
499.34	0
499.538	0.03
499.736	0.02
499.933	0.07
500.131	0.05
500.329	0.03
500.527	0.06
500.725	0.05
500.922	0.06
501.12	0.04
501.318	0.04
501.516	0.01
501.713	0.04
501.911	0.02
502.109	-0.02
502.306	0.04
502.504	0.01
502.701	0.01
502.899	0.03
503.097	0.05
503.294	0.03
503.492	0.01
503.689	0.03
503.887	0.05
504.084	0.07
504.282	0.02
504.479	0.01
504.677	0.04
504.874	0.01
505.072	0.02
505.269	0.01
505.466	0.03
505.664	0.05
505.861	-0
506.059	0
506.256	0.05
506.453	0.02
506.651	0.04
506.848	0.05
507.045	0.04
507.242	0.01
507.44	0.01
507.637	0.03
507.834	0.03
508.031	0.04
508.229	0.01
508.426	0.03
508.623	0.03
508.82	0.02
509.017	0.01
509.214	0.02
509.411	0.04
509.608	0
509.805	0.02
510.003	0
510.2	-0.01
510.397	0.06
510.594	-0.01
510.791	0.01
510.988	0.03
511.184	0.05
511.381	0.03
511.578	-0
511.775	0.04
511.972	0.02
512.169	0.01
512.366	0
512.563	0.04
512.76	0.01
512.956	0.03
513.153	0
513.35	0.04
513.547	-0
513.744	0
513.94	0
514.137	0.03
514.334	0.02
514.53	0.01
514.727	0.04
514.924	0.07
515.12	0.01
515.317	-0.02
515.514	-0.01
515.71	0.01
515.907	0.03
516.103	0.03
516.3	0.02
516.497	0.03
516.693	0.04
516.89	0.02
517.086	0
517.283	0.02
517.479	0.06
517.676	0.03
517.872	0.01
518.068	0.02
518.265	0.02
518.461	0.01
518.658	0.01
518.854	0.02
519.05	-0
519.247	-0.01
519.443	0.02
519.639	0.01
519.836	0.04
520.032	0.03
520.228	0.01
520.424	0.06
520.621	0.05
520.817	0.01
521.013	0.02
521.209	0.02
521.405	0.05
521.601	0.02
521.798	0.02
521.994	0.04
522.19	-0.02
522.386	-0
522.582	0.02
522.778	0.03
522.974	-0.01
523.17	0.01
523.366	0.02
523.562	0.06
523.758	0.02
523.954	-0.01
524.15	0.01
524.346	0.04
524.542	0
524.738	0
524.934	0
525.129	0.01
525.325	0.03
525.521	0.02
525.717	0.03
525.913	0.03
526.109	0.03
526.304	0.03
526.5	0.02
526.696	0.05
526.892	0.02
527.087	0.03
527.283	0
527.479	0.06
527.674	0
527.87	0.01
528.066	0
528.261	0.03
528.457	0.03
528.653	0.01
528.848	-0
529.044	0.02
529.239	0.01
529.435	0.03
529.63	0.02
529.826	0.07
530.021	0.01
530.217	0.04
530.412	-0
530.608	0
530.803	0.04
530.999	0.02
531.194	-0.03
531.389	0.03
531.585	-0.03
531.78	0
531.975	0.01
532.171	0.03
532.366	0.03
532.561	0.01
532.757	-0.02
532.952	0
533.147	0.03
533.342	0.02
533.538	-0.02
533.733	0.03
533.928	0.01
534.123	-0.01
534.318	-0.03
534.513	0.01
534.709	-0
534.904	-0.02
535.099	-0
535.294	0
535.489	0.02
535.684	0
535.879	-0
536.074	0.02
536.269	-0.02
536.464	0.03
536.659	-0
536.854	0.03
537.049	0.04
537.244	0.02
537.439	-0
537.634	0.04
537.828	0
538.023	0.01
538.218	-0.03
538.413	0.03
538.608	-0.02
538.803	0.02
538.997	-0
539.192	0.04
539.387	0.01
539.582	0.01
539.776	0
539.971	-0
540.166	0.01
540.36	-0.02
540.555	-0
540.75	0.01
540.944	0.03
541.139	-0.01
541.334	0
541.528	0.03
541.723	0.05
541.917	-0.01
542.112	-0.03
542.306	0
542.501	-0.01
542.695	0.03
542.89	-0.02
543.084	-0
543.279	0
543.473	0.03
543.668	0
543.862	0.02
544.056	0.04
544.251	-0.01
544.445	0.02
544.64	0
544.834	0
545.028	0.02
545.222	0.03
545.417	0.02
545.611	0.03
545.805	-0
546	-0.02
546.194	0.02
546.388	0
546.582	0.05
546.776	0.01
546.97	0.03
547.165	0.01
547.359	0.05
547.553	-0
547.747	0.02
547.941	0.03
548.135	0.01
548.329	0.02
548.523	0.01
548.717	-0.02
548.911	-0.01
549.105	0.02
549.299	0.03
549.493	0.03
549.687	0.04
549.881	0.01
550.075	0.01
550.269	-0.01
550.463	0.02
550.657	0.02
550.85	0
551.044	0.01
551.238	0.01
551.432	-0
551.626	-0.02
551.82	0.01
552.013	-0
552.207	0.02
552.401	0.03
552.594	0.03
552.788	0.02
552.982	-0.01
553.176	-0
553.369	0.05
553.563	0.01
553.756	-0.02
553.95	-0.01
554.144	0.03
554.337	0.03
554.531	0.01
554.724	0.02
554.918	0
555.111	0.02
555.305	0.01
555.498	0.04
555.692	0.02
555.885	-0.01
556.079	0.04
556.272	0.01
556.466	0.02
556.659	0.01
556.852	0.01
557.046	0
557.239	0.04
557.432	-0.02
557.626	-0.02
557.819	0.01
558.012	0.03
558.206	0.03
558.399	0.01
558.592	0.02
558.785	-0.01
558.979	0.03
559.172	0
559.365	0.02
559.558	0.05
559.751	-0
559.944	0.03
560.138	0.01
560.331	0
560.524	0.01
560.717	0.02
560.91	0.01
561.103	0.03
561.296	0.03
561.489	0.03
561.682	0
561.875	0.03
562.068	0.03
562.261	-0
562.454	0.04
562.647	0.01
562.84	0.03
563.032	0.01
563.225	0.02
563.418	-0
563.611	0
563.804	0.02
563.997	-0.03
564.19	-0.03
564.382	0.04
564.575	0.03
564.768	-0
564.961	0
565.153	0
565.346	0.01
565.539	0.05
565.731	0.03
565.924	0.05
566.117	0.02
566.309	0.02
566.502	-0.01
566.695	0
566.887	0
567.08	-0
567.272	-0.01
567.465	-0
567.657	0
567.85	0.04
568.042	0.02
568.235	0.07
568.427	0.02
568.62	0.02
568.812	0.03
569.005	0.02
569.197	-0.02
569.389	0
569.582	0.02
569.774	0.03
569.966	-0.04
570.159	0
570.351	0.02
570.543	-0.01
570.736	-0.01
570.928	-0.01
571.12	0.02
571.312	0
571.505	-0.04
571.697	0.02
571.889	-0.03
572.081	-0.02
572.273	-0.02
572.465	0.05
572.658	-0.02
572.85	0.01
573.042	0
573.234	0.01
573.426	0.05
573.618	-0.02
573.81	0.03
574.002	0.05
574.194	0.04
574.386	-0.02
574.578	-0.04
574.77	-0
574.962	0
575.154	-0.02
575.346	-0.01
575.538	0.01
575.729	-0.04
575.921	-0
576.113	0.01
576.305	0.03
576.497	-0.01
576.689	-0
576.88	-0.02
577.072	0.01
577.264	0.02
577.456	-0
577.647	-0.08
577.839	0.02
578.031	0.06
578.223	-0.04
578.414	-0.02
578.606	0.02
578.798	0.01
578.989	-0.01
579.181	0.01
579.372	0
579.564	-0.01
579.755	0.02
579.947	0.01
580.139	-0.01
580.33	-0.05
580.522	-0
580.713	-0.06
580.905	0
581.096	0.02
581.287	0
581.479	-0.01
581.67	0.01
581.862	0.02
582.053	-0.04
582.244	-0.04
582.436	0.01
582.627	0.01
582.818	-0.03
583.01	-0.04
583.201	-0
583.392	0.04
583.583	0.03
583.775	-0.01
583.966	-0.02
584.157	-0
584.348	-0.02
584.54	-0.03
584.731	0.01
584.922	-0.01
585.113	-0.05
585.304	0.02
585.495	0.03
585.686	0.02
585.877	0.02
586.068	0.01
586.259	0.03
586.45	0.02
586.641	-0
586.832	-0.05
587.023	0.02
587.214	0
587.405	-0.02
587.596	-0.03
587.787	0.06
587.978	0.03
588.169	-0.02
588.36	-0.01
588.551	0.02
588.742	-0
588.932	0.01
589.123	-0.01
589.314	0.02
589.505	0.02
589.696	0.03
589.886	0.01
590.077	-0.03
590.268	0.03
590.458	-0.07
590.649	-0.05
590.84	0.05
591.03	-0
591.221	-0.04
591.412	-0.05
591.602	0
591.793	0.01
591.984	-0.03
592.174	-0
592.365	0.06
592.555	-0.02
592.746	0.01
592.936	-0.01
593.127	0.03
593.317	0.04
593.508	-0.03
593.698	-0.02
593.889	-0.01
594.079	0.02
594.269	-0.04
594.46	0.01
594.65	0
594.84	0.01
595.031	-0.01
595.221	0.01
595.411	-0.04
595.602	0.03
595.792	0
595.982	-0.02
596.172	0.04
596.363	0.01
596.553	-0
596.743	-0.01
596.933	0.02
597.123	0.03
597.314	-0.03
597.504	-0.02
597.694	0.06
597.884	0.04
598.074	0.01
598.264	-0.03
598.454	0.02
598.644	0
598.834	-0.02
599.024	-0.06
599.214	-0.02
599.404	0
599.594	-0.03
599.784	-0.05
599.974	0.03
600.164	0.06
600.354	-0.03
600.544	-0.03
600.734	0.02
600.924	0.05
601.114	-0.01
601.303	0.01
601.493	-0
601.683	-0.04
601.873	-0.01
602.063	-0.05
602.252	0.03
602.442	-0.05
602.632	-0.02
602.821	-0.05
603.011	0.02
603.201	0.01
603.39	-0.03
603.58	-0.02
603.77	0.01
603.959	0.03
604.149	-0.01
604.339	-0.03
604.528	0.03
604.718	0.04
604.907	-0.01
605.097	-0.03
605.286	-0.04
605.476	0.02
605.665	-0
605.855	-0.01
606.044	0.04
606.234	0.02
606.423	-0.01
606.612	-0.02
606.802	0
606.991	0.04
607.181	-0.01
607.37	-0.04
607.559	0
607.749	-0.06
607.938	-0.01
608.127	0
608.316	0
608.506	0.03
608.695	0.02
608.884	-0.01
609.073	-0
609.263	0.04
609.452	0.02
609.641	-0
609.83	-0.02
610.019	-0.02
610.208	-0.02
610.397	-0.03
610.586	0.02
610.775	-0
610.965	-0.02
611.154	-0.02
611.343	-0.01
611.532	-0.01
611.721	-0.04
611.91	-0.04
612.099	0.01
612.287	0.01
612.476	-0.02
612.665	0.02
612.854	-0.02
613.043	0.06
613.232	-0.01
613.421	-0.03
613.61	0.04
613.798	-0.01
613.987	0.02
614.176	0
614.365	0.03
614.554	0.01
614.742	0.01
614.931	-0.03
615.12	0.03
615.309	-0.03
615.497	0
615.686	-0.06
615.875	-0.04
616.063	-0.01
616.252	-0.04
616.44	-0.03
616.629	-0.02
616.818	0.02
617.006	0.03
617.195	0
617.383	0.04
617.572	0.01
617.76	-0.01
617.949	-0.02
618.137	0.02
618.326	0.08
618.514	-0
618.703	-0.03
618.891	0.06
619.079	-0.05
619.268	0.03
619.456	-0.03
619.644	0.02
619.833	-0.01
620.021	-0
620.209	-0.05
620.398	0.01
620.586	0.02
620.774	0
620.962	-0.02
621.151	0.06
621.339	0.02
621.527	-0.04
621.715	-0.03
621.903	-0.03
622.092	-0.03
622.28	0.01
622.468	-0.01
622.656	-0.03
622.844	0.01
623.032	-0.01
623.22	-0.05
623.408	-0.01
623.596	-0
623.784	-0.01
623.972	-0.04
624.16	-0.01
624.348	0.05
624.536	-0.02
624.724	-0.03
624.912	0.04
625.1	0.07
625.288	-0.04
625.476	-0.01
625.664	0.03
625.851	-0.02
626.039	0
626.227	0
626.415	-0.02
626.603	-0.05
626.79	0
626.978	-0.03
627.166	0.04
627.354	0
627.541	-0.04
627.729	-0.08
627.917	0.02
628.104	0.05
628.292	-0
628.48	0
628.667	0.02
628.855	0.01
629.042	0.02
629.23	-0.05
629.418	0.02
629.605	-0.05
629.793	-0.03
629.98	-0.03
630.168	-0.02
630.355	-0.01
630.543	0.01
630.73	-0.03
630.917	0.06
631.105	0.04
631.292	0.01
631.48	-0.04
631.667	0.06
631.854	-0.01
632.042	-0.03
632.229	-0.08
632.416	0
632.604	0.02
632.791	-0.01
632.978	0.02
633.165	0.03
633.353	0.08
633.54	0.03
633.727	-0.09
633.914	-0.01
634.101	-0.1
634.289	0.07
634.476	-0.02
634.663	-0.07
634.85	0.02
635.037	-0.04
635.224	-0.06
635.411	0.02
635.598	0.03
635.785	0.01
635.972	-0.01
636.159	0.03
636.346	-0.04
636.533	0.01
636.72	-0.03
636.907	-0.02
637.094	0.02
637.281	-0.02
637.468	-0.01
637.655	-0.01
637.842	0
638.029	-0.05
638.215	0.05
638.402	0
638.589	-0.04
638.776	-0.02
638.963	-0.02
639.149	0.04
639.336	0.03
639.523	-0.01
639.709	0.01
639.896	0.02
640.083	0.06
640.27	0.01
640.456	-0.03
640.643	0.02
640.829	-0.03
641.016	-0.02
641.203	-0.04
641.389	0.05
641.576	0.02
641.762	-0.01
641.949	-0.05
642.135	0.02
642.322	-0.01
642.508	-0.04
642.695	0.01
642.881	0.02
643.068	-0.02
643.254	-0.01
643.441	0.03
643.627	0.02
643.813	-0.03
644	0.04
644.186	-0.03
644.372	0.03
644.559	0.02
644.745	-0.02
644.931	-0.03
645.118	-0.03
645.304	0.01
645.49	-0.01
645.676	-0.05
645.862	0.01
646.049	0.05
646.235	0.01
646.421	0.05
646.607	0.05
646.793	-0.03
646.979	-0.04
647.165	0.01
647.352	0.02
647.538	-0.02
647.724	0
647.91	-0
648.096	0.02
648.282	0.04
648.468	-0.03
648.654	0.03
648.84	-0.01
649.026	0
649.212	-0.02
649.397	-0.05
649.583	-0.08
649.769	0.02
649.955	0.01
650.141	0.03
650.327	0.06
650.513	-0.02
650.698	0
650.884	-0.07
651.07	-0.01
651.256	0.01
651.442	0.01
651.627	-0
651.813	0
651.999	0.01
652.184	0.03
652.37	-0.02
652.556	-0.02
652.741	0.04
652.927	-0.06
653.113	-0.02
653.298	-0.04
653.484	-0.02
653.669	-0.08
653.855	0
654.04	-0.01
654.226	0
654.412	-0.01
654.597	-0.02
654.782	0.02
654.968	-0.02
655.153	0.03
655.339	-0
655.524	-0.04
655.71	0.03
655.895	-0.03
656.08	-0.05
656.266	0.03
656.451	0.02
656.636	-0.04
656.822	0
657.007	-0.04
657.192	-0.02
657.378	-0.04
657.563	-0
657.748	0.01
657.933	0.03
658.118	-0.04
658.304	0.01
658.489	0.02
658.674	-0.01
658.859	-0.04
659.044	0
659.229	-0.01
659.414	-0.02
659.599	-0
659.785	-0.05
659.97	-0.03
660.155	0.04
660.34	0.02
660.525	-0.01
660.71	-0
660.895	0.02
661.08	-0.03
661.264	0
661.449	0.08
661.634	0.07
661.819	0.02
662.004	0.03
662.189	-0.08
662.374	-0.04
662.559	-0.06
662.743	-0.04
662.928	-0.02
663.113	-0.01
663.298	-0.05
663.483	-0.02
663.667	0
663.852	-0.05
664.037	0.03
664.221	-0.04
664.406	0.02
664.591	0.02
664.775	0.01
664.96	-0.03
665.145	0.03
665.329	0.03
665.514	-0.02
665.698	-0.01
665.883	-0.07
666.068	0.11
666.252	-0.06
666.437	-0.03
666.621	-0.01
666.806	-0
666.99	-0.04
667.174	-0.03
667.359	0.03
667.543	-0.03
667.728	-0.03
667.912	-0.06
668.096	0.01
668.281	0
668.465	-0.02
668.649	-0.01
668.834	-0.06
669.018	-0.03
669.202	-0.03
669.387	-0.03
669.571	0.02
669.755	-0.04
669.939	-0.03
670.124	0.02
670.308	0.04
670.492	0.04
670.676	0.03
670.86	-0.01
671.044	-0.04
671.228	0.02
671.413	-0.07
671.597	-0.03
671.781	-0.05
671.965	-0.01
672.149	-0.02
672.333	-0.02
672.517	-0.04
672.701	0.02
672.885	-0.02
673.069	-0.06
673.253	0.02
673.437	-0.02
673.621	-0.04
673.804	-0.05
673.988	-0.03
674.172	0.01
674.356	-0.08
674.54	0.01
674.724	0.06
674.908	-0.01
675.091	0.04
675.275	-0.05
675.459	0.03
675.643	0.06
675.826	-0.04
676.01	-0.02
676.194	0.01
676.377	0.03
676.561	0.04
676.745	-0.06
676.928	0.03
677.112	0.01
677.296	-0.05
677.479	-0.01
677.663	-0.03
677.846	0.05
678.03	-0.02
678.213	0.02
678.397	-0.01
678.58	-0.04
678.764	-0.02
678.947	-0.09
679.131	-0.02
679.314	0
679.498	-0.01
679.681	-0.02
679.865	0.03
680.048	-0.02
680.231	-0.03
680.415	0.01
680.598	-0.05
680.781	-0.03
680.965	-0
681.148	0.02
681.331	-0.04
681.514	-0
681.698	-0.04
681.881	-0.02
682.064	0.02
682.247	0.02
682.43	-0.06
682.614	0.01
682.797	0.05
682.98	0.02
683.163	-0.07
683.346	-0.01
683.529	-0.04
683.712	-0.06
683.895	0.03
684.078	-0.08
684.261	0.02
684.444	0.01
684.627	0.02
684.81	-0.02
684.993	-0.06
685.176	0.01
685.359	-0.05
685.542	-0.02
685.725	0.01
685.908	0.03
686.091	-0.02
686.274	0.02
686.457	-0
686.639	-0.05
686.822	0.02
687.005	0.02
687.188	0.04
687.371	0.05
687.553	0.03
687.736	0.05
687.919	0.07
688.102	0.08
688.284	0
688.467	-0.03
688.65	-0.04
688.832	-0.06
689.015	0
689.197	-0.03
689.38	0.12
689.563	0.03
689.745	-0.05
689.928	-0.05
690.11	0.03
690.293	0.04
690.475	-0.04
690.658	0.06
690.84	-0.06
691.023	-0
691.205	-0.02
691.388	-0
691.57	0.01
691.752	0.01
691.935	-0.07
692.117	-0.04
692.3	-0.02
692.482	-0.04
692.664	-0
692.847	0.02
693.029	0.07
693.211	0.03
693.393	-0.01
693.576	0.01
693.758	0.02
693.94	-0.06
694.122	-0.05
694.304	-0.04
694.487	-0.01
694.669	0.11
694.851	-0.02
695.033	-0
695.215	-0.03
695.397	-0.09
695.579	-0.01
695.761	-0.07
695.943	-0.07
696.125	0.1
696.308	0.04
696.49	-0.13
696.671	0.11
696.853	-0.01
697.035	0.08
697.217	-0.01
697.399	0.02
697.581	-0.05
697.763	-0.05
697.945	-0.08
698.127	0
698.309	0.06
698.491	-0.02
698.672	0.04
698.854	0.04
699.036	0.04
699.218	0.01
699.399	0.01
699.581	0.04
699.763	0.01
699.945	-0.03
700.126	-0.04
700.308	-0
700.49	-0
700.671	-0.1
700.853	-0.05
701.035	-0.06
701.216	-0.06
701.398	-0.07
701.579	-0
701.761	0.04
701.943	-0.02
702.124	0
702.306	-0.01
702.487	0.06
702.669	-0.01
702.85	-0.03
703.031	-0.03
703.213	0.1
703.394	0.02
703.576	-0.05
703.757	0.08
703.938	0.03
704.12	0.17
704.301	-0
704.483	-0.09
704.664	0.03
704.845	0.14
705.026	0.02
705.208	-0.04
705.389	0.04
705.57	0.08
705.751	0
705.933	-0.03
706.114	0.04
706.295	-0.01
706.476	-0.06
706.657	0.07
706.838	0.08
707.02	0.13
707.201	-0.08
707.382	-0.04
707.563	0.06
707.744	-0.04
707.925	-0.09
708.106	-0.05
708.287	-0.02
708.468	0.09
708.649	-0.05
708.83	0.05
709.011	0.01
709.192	0.01
709.373	-0.05
709.554	-0.03
709.734	0.03
709.915	0.06
710.096	-0.03
710.277	-0.19
710.458	0.01
710.639	0.02
710.819	-0.06
711	-0.03
711.181	0
711.362	0.03
711.542	-0.03
711.723	-0.04
711.904	0.09
712.085	-0.01
712.265	0.1
712.446	-0.08
712.627	-0.02
712.807	0.03
712.988	-0.06
713.168	-0.07
713.349	0.01
713.53	-0.13
713.71	-0.17
713.891	-0.02
714.071	-0.04
714.252	-0.05
714.432	-0
714.613	-0.09
714.793	-0.03
714.974	0.02
715.154	0.03
715.334	-0.02
715.515	0.03
715.695	-0.09
715.876	-0.08
716.056	-0.01
716.236	-0.09
716.417	-0.06
716.597	-0.07
716.777	0.06
716.957	-0.05
717.138	0.04
717.318	-0.01
717.498	-0.13
717.678	0.01
717.859	0
718.039	-0.13
718.219	0.01
718.399	0.07
718.579	-0.09
718.759	-0.13
718.939	-0.02
719.12	-0.05
719.3	0.01
719.48	-0.15
719.66	-0.17
719.84	0.08
720.02	-0.01
720.2	-0.06
720.38	0.01
720.56	0.11
720.74	-0.02
720.92	0.03
721.1	0.09
721.279	0.11
721.459	-0.01
721.639	-0.11
721.819	0.02
721.999	-0
722.179	0.07
722.359	-0.07
722.538	0.03
722.718	-0.03
722.898	-0.02
723.078	-0.11
723.257	-0.12
723.437	0.03
723.617	-0.02
723.797	-0.06
723.976	0.05
724.156	0.02
724.336	0.09
724.515	0.16
724.695	-0.17
724.874	-0.03
725.054	0.09
725.234	0.01
725.413	0.04
725.593	-0.01
725.772	0.03
725.952	0.02
726.131	-0.05
726.311	-0.07
726.49	-0.01
726.67	-0.08
726.849	-0.07
727.028	0.02
727.208	-0.04
727.387	-0.03
727.567	-0.18
727.746	-0.05
727.925	0.01
728.105	-0.07
728.284	-0.03
728.463	-0.13
728.643	0.05
728.822	-0.13
729.001	-0.07
729.18	0.03
729.359	-0.01
729.539	0.02
729.718	-0.1
729.897	-0.01
730.076	-0.03
730.255	-0.07
730.434	-0.06
730.614	0.04
730.793	0.08
730.972	0.03
731.151	-0.09
731.33	0.09
731.509	0.09
731.688	-0.05
731.867	0.13
732.046	-0.15
732.225	0.16
732.404	-0.14
732.583	-0.05
732.762	-0.08
732.941	0.11
733.12	-0.05
733.298	-0.06
733.477	0.08
733.656	-0.06
733.835	-0.03
734.014	0.07
734.193	0
734.371	0.1
734.55	-0.01
734.729	-0.11
734.908	-0.02
735.086	0.07
735.265	0.15
735.444	-0.2
735.623	-0.19
735.801	-0.1
735.98	0
736.159	-0.02
736.337	-0.08
736.516	0.07
736.694	0.02
736.873	-0.01
737.052	0.17
737.23	0.17
737.409	0.03
737.587	0.22
737.766	-0.18
737.944	-0.09
738.123	0.05
738.301	0.01
738.479	-0.04
738.658	0.03
738.836	-0.22
739.015	-0.07
739.193	0.1
739.371	-0.11
739.55	-0.01
739.728	-0.07
739.906	0.09
740.085	0.22
740.263	0.13
740.441	-0.17
740.62	0.24
740.798	0.17
740.976	-0.1
741.154	-0.16
741.332	0.04
741.511	-0.08
741.689	0.08
741.867	0.11
742.045	0.06
742.223	-0.04
742.401	-0.08
742.579	-0.05
742.757	0.09
742.935	-0.18
743.114	-0.02
743.292	-0.09
743.47	-0.06
743.648	-0.02
743.826	0.02
744.004	0.06
744.181	0.05
744.359	0.01
744.537	-0.12
744.715	-0.08
744.893	-0.11
745.071	0.02
745.249	-0.03
745.427	0.03
745.605	0.07
745.782	0.01
745.96	0.06
746.138	0.02
746.316	0.04
746.493	0.03
746.671	-0
746.849	-0.05
747.027	0.12
747.204	-0.13
747.382	0.05
747.56	-0.08
747.737	-0.01
747.915	0.02
748.093	-0.06
748.27	-0.19
748.448	0.03
748.625	-0.16
748.803	-0.11
748.98	-0.05
749.158	-0.01
749.335	0.07
749.513	-0.06
749.69	-0.06
749.868	-0.05
750.045	0.04
750.223	-0.02
750.4	-0.26
750.578	0.24
750.755	-0.01
750.932	-0.08
751.11	0.14
751.287	-0.21
751.464	0.11
751.642	-0.06
751.819	0.04
751.996	-0.01
752.173	-0.12
752.351	-0.05
752.528	-0.01
752.705	-0.08
752.882	-0.09
753.06	-0.02
753.237	0.05
753.414	0.21
753.591	0.24
753.768	0.03
753.945	-0.09
754.122	-0.09
754.299	-0.03
754.476	-0.09
754.654	-0.04
754.831	-0
755.008	0.06
755.185	-0.01
755.362	-0.12
755.539	0.03
755.716	-0.02
755.892	-0.02
756.069	0.03
756.246	-0
756.423	0.02
756.6	0.06
756.777	-0.07
756.954	0.17
757.131	-0.02
757.307	-0.16
757.484	-0.14
757.661	0.02
757.838	-0.01
758.015	-0.04
758.191	0.02
758.368	0.12
758.545	0.14
758.721	0.09
758.898	-0.21
759.075	-0.09
759.251	0.06
759.428	0.02
759.605	-0.1
759.781	0.01
759.958	-0
760.134	0.06
760.311	-0.08
760.488	0.16
760.664	-0
760.841	-0.01
761.017	-0.2
761.194	0.06
761.37	0.04
761.547	-0.1
761.723	-0.16
761.899	0.14
762.076	-0.03
762.252	-0.15
762.429	-0.09
762.605	0.04
762.781	-0.03
762.958	0.04
763.134	0.07
763.31	-0.06
763.486	0.23
763.663	-0.2
763.839	0.02
764.015	-0.17
764.191	-0.07
764.368	-0.07
764.544	-0.06
764.72	0.01
764.896	0.09
765.072	-0.05
765.248	-0.14
765.425	-0.03
765.601	0.07
765.777	0.01
765.953	-0.27
766.129	-0.17
766.305	-0.04
766.481	0.01
766.657	0.04
766.833	0.14
767.009	-0.05
767.185	-0.01
767.361	0.04
767.537	-0.21
767.713	0.11
767.889	-0.08
768.065	-0.03
768.24	0.05
768.416	0.04
768.592	-0.08
768.768	-0.01
768.944	0.02
769.12	-0.19
769.295	-0.14
769.471	-0.03
769.647	-0.04
769.823	0.22
769.998	-0.16
770.174	-0.14
770.35	0.36
770.525	0.26
770.701	0.05
770.877	0.01
771.052	-0.18
771.228	0.21
771.403	0.11
771.579	-0.04
771.755	0.29
771.93	-0.12
772.106	-0.22
772.281	-0.26
772.457	-0.01
772.632	0.06
772.808	-0.16
772.983	-0.05
773.159	-0.17
773.334	0.14
773.509	-0.12
773.685	-0.11
773.86	0.26
774.036	0.18
774.211	0.04
774.386	-0.09
774.562	-0.02
774.737	-0.05
774.912	-0.15
775.087	0.18
775.263	-0.06
775.438	0.01
775.613	-0.06
775.788	-0.11
775.964	0.09
776.139	0.46
776.314	-0.17
776.489	-0.07
776.664	0.09
776.839	-0.05
777.014	0.26
777.19	0.15
777.365	0.31
777.54	0.48
777.715	-0.12
777.89	0.04
778.065	-0.17
778.24	-0.05
778.415	0.1
778.59	-0.13
778.765	-0.21
778.94	0.05
779.115	-0.04
779.289	-0.13
779.464	-0.16
779.639	-0.07
779.814	-0.26
779.989	-0.13
780.164	0.23
780.339	0.03
780.513	-0.08
780.688	-0.14
780.863	-0.16
781.038	0.23
781.212	-0.17
781.387	-0.03
781.562	0.3
781.737	0.1
781.911	0.2
782.086	-0.16
782.261	-0.19
782.435	0.16
782.61	-0.04
782.784	0.09
782.959	0.13
783.134	-0.19
783.308	-0.22
783.483	0.02
783.657	0.62
783.832	0.11
784.006	-0.18
784.181	0.01
784.355	-0.09
784.53	-0.21
784.704	-0.18
784.878	0.29
785.053	-0.01
785.227	0.34
785.402	0.33
785.576	-0.19
785.75	-0.36
785.925	-0.05
786.099	-0
786.273	-0.01
786.448	0.07
786.622	0.16
786.796	0.03
786.97	-0.01
787.145	0.65
787.319	-0.25
787.493	-0.1
787.667	-0.41
787.841	-0
788.015	0.32
788.19	-0.15
788.364	-0
788.538	0.14
788.712	0.28
788.886	-0.21
789.06	0.19
789.234	0.2
789.408	-0.33
789.582	-0.08
789.756	0.02
789.93	-0.27
790.104	-0.01
790.278	-0.11
790.452	-0.19
790.626	-0.09
790.8	-0.1
790.973	0.07
791.147	0.24
791.321	0.2
791.495	0.03
791.669	-0.11
791.843	0.1
792.016	0.04
792.19	0.28
792.364	-0.17
792.538	0.47
792.711	0.39
792.885	0
793.059	-0.05
793.233	-0.58
793.406	0.25
793.58	0.14
793.754	0.07
793.927	0.01
794.101	0.04
794.274	0.08
794.448	0.09
794.622	-0.22
794.795	0.56
794.969	-0.24
795.142	0.3
795.316	-0.16
795.489	-0.05
795.663	0.47
795.836	-0
796.009	-0.3
796.183	0.05
796.356	0.08
796.53	-0.07
796.703	-0
796.876	0.61
797.05	-0.12
797.223	0.04
797.396	0.19
797.57	0.04
797.743	0.27
797.916	0.03
798.09	-0.2
798.263	0.54
798.436	0.12
798.609	0.02
798.782	0.04
798.956	0.05
799.129	0.02
799.302	-0.22
799.475	-0.27
799.648	-0.21
799.821	-0.38
799.994	-0.03
800.167	-0.49
800.34	0.1
800.514	0.22
800.687	0.06
800.86	-0.33
801.033	-0.08
801.206	0.43
801.379	-0.33
801.551	0.11
801.724	0.18
801.897	0.37
802.07	-0.15
802.243	-0.44
802.416	-0
802.589	-0.3
802.762	-0.05
802.935	-0.23
803.107	0.4
803.28	0.25
803.453	-0.02
803.626	-0.04
803.798	-0.18
803.971	-0.08
804.144	-0.13
804.317	0.04
804.489	0.46
804.662	-0.12
804.835	0.01
805.007	-0.44
805.18	0.62
805.353	0.07
805.525	-0.53
805.698	0
805.87	0.27
806.043	0.33
806.215	-0.32
806.388	-0.44
806.56	-0.01
806.733	0.31
806.905	0.15
807.078	-0.49
807.25	0.18
807.423	0.09
807.595	-0.13
807.768	0.07
807.94	0.26
808.112	-0.05
808.285	-0.23
808.457	-0.12
808.629	-0.18
808.802	-0.06
808.974	0.04
809.146	-0.25
809.318	-0.33
809.491	-0.03
809.663	0.31
809.835	-0.31
810.007	0.06
810.18	0.03
810.352	-0.2
810.524	0.02
810.696	0.2
810.868	0.43
811.04	-0.15
811.212	-0.03
811.384	0.43
811.556	0.01
811.728	0.15
811.901	0.87
812.073	-0.26
812.245	-0.05
812.417	-0.02
812.589	-0.64
812.76	-0.02
812.932	0.06
813.104	0.22
813.276	0.09
813.448	0.38
813.62	0.15
813.792	-0
813.964	-0.15
814.136	-0
814.307	-0.04
814.479	-0.5
814.651	0.09
814.823	0.87
814.995	0.11
815.166	0.15
815.338	-0.48
815.51	-0.4
815.681	1.22
815.853	0.05
816.025	-0.28
816.196	0.7
816.368	0.25
816.54	-0.83
816.711	-0.38
816.883	0.45
817.054	0.7
817.226	-0.49
817.398	-0.1
817.569	-0.04
817.741	0.24
817.912	-0.09
818.084	-0.01
818.255	-0.08
818.426	-0.61
818.598	-0.13
818.769	-0.54
818.941	0.43
819.112	0.82
819.283	0.25
819.455	-0.24
819.626	-0.39
819.798	-0.07
819.969	-0.05
820.14	0.17
820.311	-0.5
820.483	-0.01
820.654	-0.07
820.825	-0.03
820.996	0.16
821.168	-0.41
821.339	0.24
821.51	-0.73
821.681	-0.49
821.852	-0.06
822.023	-0.67
822.195	-0.61
822.366	0.48
822.537	0.19
822.708	0.24
822.879	-0.61
823.05	0.25
823.221	-0.48
823.392	0.23
823.563	0.11
823.734	0.12
823.905	-0.24
824.076	0.13
824.247	-0.41
824.418	-0.21
824.589	0.58
824.759	-0.52
824.93	0.22
825.101	-0.83
825.272	-0.01
825.443	0.27
825.614	0.04
825.784	-1.18
825.955	1.18
826.126	0.69
826.297	0.31
826.467	1.15
826.638	1.63
826.809	-0.53
826.98	-0.39
827.15	0.09
827.321	-0.19
827.492	0.31
827.662	-0.07
827.833	1.21
828.003	0.19
828.174	-0.39
828.345	-0.19
828.515	0.84
828.686	0.44
828.856	-0.57
829.027	-0.23
829.197	0.22
829.368	0.43
829.538	0.41
829.709	-0.59
829.879	-0.12
830.049	-0.6
830.22	-0.22
830.39	-0.06
830.56	0.58
830.731	-0.55
830.901	-0.43
831.072	0.35
831.242	-0.07
831.412	0.33
831.582	-0.23
831.753	-0.82
831.923	0.31
832.093	0.22
832.263	-0.32
832.434	0.14
832.604	-0.2
832.774	0.03
832.944	0.01
833.114	-0.63
833.284	0.19
833.454	-0.38
833.624	-0.16
833.795	-0.48
833.965	0.75
834.135	0.49
834.305	-1.24
834.475	-0.43
834.645	-0.58
834.815	0.08
834.985	-0.36
835.155	-0.5
835.325	0
835.494	0.02
835.664	-0.18
835.834	-1.12
836.004	0.06
836.174	0.28
836.344	-0.39
836.514	-0.86
836.684	0.17
836.853	-0.05
837.023	0.17
837.193	-0.86
837.363	0.25
837.532	0.09
837.702	0.19
837.872	-1.03
838.041	0.73
838.211	1.92
838.381	-0.52
838.55	-0.21
838.72	1.11
838.89	1.11
839.059	0.17
839.229	-0.17
839.398	1.75
839.568	0.25
839.738	0.11
839.907	0.67
840.077	0.17
840.246	-0.66
840.416	-0.58
840.585	-0.91
840.755	1.02
840.924	0.65
841.093	-0.99
841.263	-0.19
841.432	-0.21
841.602	-0.77
841.771	-0.73
841.94	-0.32
842.11	1.97
842.279	1.38
842.448	-0.87
842.617	-0.84
842.787	1.27
842.956	-1.27
843.125	-0.86
843.294	0.38
843.464	0.83
843.633	0.45
843.802	-1.04
843.971	-0.8
844.14	0.58
844.309	1.09
844.479	-1.42
844.648	-0.59
844.817	-0.19
844.986	0.53
845.155	-0.92
845.324	-1.03
845.493	-0.05
845.662	-0.67
845.831	-0.05
846	0.17
846.169	-0.33
846.338	0.74
846.507	0.7
846.676	0.17
846.844	-0.5
847.013	0.7
847.182	-0.07
847.351	-0.6
847.52	-0.04
847.689	0.03
847.858	-0.36
848.026	-0.02
848.195	-0.23
848.364	-0.68
848.533	-0.32
848.701	-1.22
848.87	-0.31
849.039	1.31
849.207	0.86
849.376	0.95
849.545	1.74
849.713	-0.76
849.882	-0.52
850.051	-0.35
850.219	0.66
850.388	0.48
850.556	-0.92
850.725	-0.69
850.893	-0.38
851.062	-0.89
851.23	0.5
851.399	-1.13
851.567	-0.58
851.736	-1.47
851.904	-1.12
852.073	-0.5
852.241	0.62
852.41	-0.36
852.578	-0.6
852.746	-1.04
852.915	0.55
853.083	-0.51
853.251	-0.85
853.42	-0.09
853.588	-0.16
853.756	1.06
853.924	-0.7
854.093	-0.09
854.261	-1.05
854.429	-1.7
854.597	0.24
854.765	-0.94
854.934	1.21
855.102	-0.28
855.27	-0.79
855.438	1.07
855.606	1.9
855.774	1.07
855.942	-2.46
856.11	-1.47
856.278	-0.2
856.446	0.58
856.614	-0.51
856.782	-1.04
856.95	0.52
857.118	0.08
857.286	-0.45
857.454	-1.38
857.622	1.38
857.79	0.03
857.958	-1.41
858.126	-1.05
858.294	-2.19
858.462	0.19
858.629	-0.07
858.797	-1.1
858.965	0.18
859.133	-0.3
859.301	-0.16
859.468	0.03
859.636	-1.42
859.804	1.96
859.971	0.24
860.139	-0.74
860.307	1.29
860.474	-0.04
860.642	-0.88
860.81	-1.18
860.977	0.22
861.145	0.55
861.313	-0.07
861.48	-0.67
861.648	0.85
861.815	-0.04
861.983	-1.6
862.15	-0.81
862.318	1.33
862.485	1.46
862.653	0.06
862.82	-1.39
862.988	1.07
863.155	1.83
863.322	-1.55
863.49	-0.66
863.657	-2.15
863.824	1.26
863.992	1.41
864.159	-0.3
864.326	0.67
864.494	-0.32
864.661	2.47
864.828	-1.45
864.996	1.56
865.163	1.22
865.33	-0.33
865.497	-2.38
865.664	-1.14
865.832	-2.51
865.999	-0.26
866.166	-1.94
866.333	-0.07
866.5	0.58
866.667	-0.85
866.834	-0.91
867.001	2.71
867.168	-2.55
867.335	-0.16
867.502	-2.98
867.669	-0.38
867.836	1.27
868.003	0.24
868.17	0.02
868.337	1.73
868.504	4.22
868.671	-0.96
868.838	-2.27
869.005	0.53
869.172	-0.51
869.339	-0.51
869.505	0.18
869.672	1.18
869.839	1.66
870.006	1.49
870.173	-2.28
870.339	-0.72
870.506	1.92
870.673	-0.94
870.84	1.49
871.006	0.02
871.173	-0.41
871.34	0.92
871.506	-1.26
871.673	-0.33
871.839	-2.08
872.006	-1.71
872.173	-1.06
872.339	-0.78
872.506	2.11
872.672	-0.41
872.839	-2.72
873.005	-0.64
873.172	2.21
873.338	1.54
873.505	1.67
873.671	-0.77
873.838	0.82
874.004	-1.69
874.171	-1.36
874.337	0.04
874.503	1.37
874.67	0.99
874.836	-0.11
875.002	2.39
875.169	0.13
875.335	1.06
875.501	0.22
875.668	1.44
875.834	0.74
876	0.7
876.166	1.1
876.332	1.14
876.499	2.7
876.665	-0.77
876.831	0.34
876.997	1.2
877.163	0.76
877.329	-1.18
877.495	-0.63
877.662	1.07
877.828	1.31
877.994	1.17
878.16	-2.58
878.326	-1.14
878.492	0.34
878.658	-1.51
878.824	3
878.99	0.68
879.156	-1.16
879.322	0.18
879.487	-0.18
879.653	-0.4
879.819	-0.79
879.985	-0.83
880.151	1.45
880.317	-0.76
880.483	-0.18
880.648	0.66
880.814	-1.5
880.98	-0.44
881.146	-1.85
881.312	-0.07
881.477	-0.61
881.643	0.93
881.809	2.14
881.974	1.4
882.14	-1.38
882.306	-0.5
882.471	1.97
882.637	-2.26
882.803	1.1
882.968	2.01
883.134	3.66
883.299	0.12
883.465	-0.94
883.63	0.79
883.796	3.07
883.961	0.74
884.127	-0.81
884.292	-4.02
884.458	-2.82
884.623	-2.81
