Data from Apollo_Calib_20240827__AbsoluteIrradiance__381__05-30-00-696.txt Node

Date: Wed Aug 28 05:30:00 BST 2024
User: biology
Spectrometer: FLMT08252
Trigger mode: 0
Integration Time (sec): 5.000000E-1
Scans to average: 5
Electric dark correction enabled: true
Nonlinearity correction enabled: false
Boxcar width: 0
XAxis mode: Wavelengths
Number of Pixels in Spectrum: 3648
>>>>>Begin Spectral Data<<<<<
179.588	-0
179.809	-0
180.03	-0
180.251	-0
180.473	-0
180.694	0
180.915	0
181.136	-0
181.357	0
181.578	-0
181.799	0
182.02	0
182.241	-0
182.462	-0
182.683	0
182.904	-0
183.125	-0
183.346	0
183.567	0
183.788	-0
184.009	-0
184.23	0
184.451	0
184.672	-0
184.892	-0
185.113	0
185.334	0
185.555	-0
185.776	-0
185.996	0
186.217	-0
186.438	0
186.659	-0
186.879	0
187.1	-0
187.321	-0
187.541	-0
187.762	-0
187.983	-0
188.203	-0
188.424	0
188.644	-0
188.865	-0
189.086	-0
189.306	-0
189.527	-0
189.747	-0
189.968	-0
190.188	0
190.409	-0
190.629	0
190.849	-0
191.07	-0
191.29	0
191.511	-0
191.731	-0
191.951	-0
192.172	-0
192.392	-0
192.612	-0
192.833	-0
193.053	0
193.273	0
193.493	-0
193.714	-0
193.934	0
194.154	0
194.374	-0
194.594	-0
194.815	0
195.035	0
195.255	-0
195.475	-0
195.695	0
195.915	0
196.135	-0
196.355	0
196.575	0
196.795	0
197.015	-0
197.235	-0
197.455	-0
197.675	0
197.895	-0
198.115	-0
198.335	0
198.555	-0
198.775	-0
198.995	-0
199.214	0
199.434	-0
199.654	-0
199.874	-0
200.094	0.79
200.313	-0.33
200.533	-0.82
200.753	-1.29
200.973	0.39
201.192	0.53
201.412	-1.33
201.632	-0.71
201.851	0.63
202.071	-0.75
202.291	-0.4
202.51	-0.92
202.73	0.17
202.95	-0.45
203.169	-1.13
203.389	-0.13
203.608	0.04
203.828	-0.71
204.047	-0.51
204.267	0.07
204.486	0.24
204.706	-0.08
204.925	-0.4
205.145	-0.12
205.364	0.07
205.583	0.42
205.803	-0.31
206.022	-0.59
206.242	-0.63
206.461	-0.52
206.68	-0.81
206.9	-0.14
207.119	0.6
207.338	0.19
207.557	-0.52
207.777	-0.53
207.996	-0.18
208.215	0.51
208.434	-0.49
208.654	-0.74
208.873	0.02
209.092	0.62
209.311	-0.41
209.53	-0.27
209.749	-0.09
209.968	-0.27
210.187	-0.2
210.407	-0.61
210.626	-0.52
210.845	0.18
211.064	-0.1
211.283	-0.47
211.502	0.22
211.721	-0.09
211.94	-0.31
212.159	0.2
212.377	0.34
212.596	0.15
212.815	-0.1
213.034	0.06
213.253	0.13
213.472	0.37
213.691	-0.22
213.91	-0.32
214.128	-0.1
214.347	0.35
214.566	-0.57
214.785	-0.59
215.003	0.09
215.222	-0.1
215.441	0.08
215.66	-0.3
215.878	-0.1
216.097	0.05
216.316	-0.43
216.534	-0.14
216.753	-0.04
216.972	-0.22
217.19	-0.18
217.409	-0.43
217.627	-0.16
217.846	-0.3
218.064	-0.02
218.283	-0.38
218.501	0.39
218.72	0.07
218.938	-0.15
219.157	-0.25
219.375	0.11
219.594	0.13
219.812	-0.36
220.031	-0.06
220.249	0.23
220.467	0.07
220.686	-0.1
220.904	-0.26
221.122	-0.16
221.341	0.28
221.559	0.04
221.777	-0.27
221.995	-0.27
222.214	0.13
222.432	-0.13
222.65	0.11
222.868	-0.06
223.086	-0.11
223.305	0.05
223.523	-0.16
223.741	0.2
223.959	-0.11
224.177	-0.33
224.395	-0.18
224.613	-0.09
224.831	0.06
225.049	-0.23
225.267	-0.28
225.485	-0.04
225.703	-0.14
225.921	-0.09
226.139	-0.18
226.357	0.23
226.575	-0.04
226.793	-0.21
227.011	0.39
227.229	-0.02
227.447	0.03
227.665	-0.23
227.883	-0.28
228.1	-0.02
228.318	-0.1
228.536	-0.29
228.754	-0.12
228.972	-0.05
229.189	0.16
229.407	-0.04
229.625	-0
229.843	0.08
230.06	0.07
230.278	-0.15
230.496	-0.16
230.713	-0.06
230.931	0.17
231.149	-0.09
231.366	-0.22
231.584	-0.14
231.801	0.25
232.019	-0.07
232.236	-0.11
232.454	-0.26
232.671	-0.02
232.889	-0.13
233.106	-0.28
233.324	-0.11
233.541	-0.01
233.759	-0.17
233.976	-0.12
234.194	-0.04
234.411	-0.03
234.628	-0.24
234.846	-0.14
235.063	-0.05
235.28	-0.06
235.498	-0.09
235.715	-0.2
235.932	-0.01
236.149	-0.08
236.367	-0.12
236.584	-0.02
236.801	-0.07
237.018	-0.01
237.236	-0.08
237.453	-0.18
237.67	0.08
237.887	-0.11
238.104	-0.09
238.321	-0.18
238.538	-0.06
238.755	0.02
238.973	-0.24
239.19	-0.15
239.407	-0.04
239.624	0.05
239.841	-0.15
240.058	-0.09
240.275	-0.06
240.492	-0.06
240.709	-0.04
240.925	-0.1
241.142	-0.07
241.359	-0.07
241.576	-0.2
241.793	-0.11
242.01	-0.03
242.227	0.07
242.444	-0.04
242.66	0.06
242.877	-0.07
243.094	-0.13
243.311	-0.1
243.527	-0.12
243.744	0.02
243.961	-0.02
244.178	-0.08
244.394	-0.11
244.611	0.07
244.828	0.19
245.044	-0.19
245.261	-0.16
245.477	-0.05
245.694	-0.02
245.911	-0.18
246.127	-0.05
246.344	0.04
246.56	0.03
246.777	-0.09
246.993	-0.05
247.21	-0.02
247.426	-0.01
247.643	-0.12
247.859	-0.09
248.076	-0.05
248.292	0.09
248.508	-0.1
248.725	-0.04
248.941	-0.01
249.157	0.16
249.374	-0.2
249.59	-0.1
249.806	-0
250.023	0.05
250.239	-0.12
250.455	-0.17
250.671	-0
250.888	0.04
251.104	0.01
251.32	-0.1
251.536	-0.07
251.752	-0.09
251.969	-0.06
252.185	-0.09
252.401	0.17
252.617	-0.05
252.833	-0.15
253.049	-0.03
253.265	-0.07
253.481	0.04
253.697	-0.05
253.913	-0.18
254.129	-0.07
254.345	-0.01
254.561	-0.04
254.777	-0.07
254.993	-0.04
255.209	-0.03
255.425	-0.03
255.641	-0.03
255.857	0.05
256.073	0.01
256.288	-0.16
256.504	-0.16
256.72	-0.08
256.936	0.09
257.152	-0.14
257.367	-0.1
257.583	-0.03
257.799	0.08
258.015	-0.1
258.23	-0.08
258.446	0.06
258.662	-0.02
258.877	-0.1
259.093	-0.11
259.309	0.02
259.524	0.02
259.74	-0.06
259.955	-0.1
260.171	-0.11
260.387	-0.06
260.602	-0.04
260.818	0.01
261.033	-0.01
261.249	-0.04
261.464	-0.09
261.68	-0.14
261.895	-0
262.11	-0.01
262.326	-0.09
262.541	-0.21
262.757	0.02
262.972	0.02
263.187	-0.04
263.403	-0.05
263.618	-0
263.833	0.01
264.049	-0.07
264.264	-0.02
264.479	-0
264.694	0.06
264.91	-0.11
265.125	-0.02
265.34	0.02
265.555	0.1
265.77	0
265.986	-0.06
266.201	0.03
266.416	0.04
266.631	-0.07
266.846	-0.08
267.061	-0
267.276	0.07
267.491	-0.18
267.706	0.01
267.921	0.03
268.136	-0.04
268.351	-0.03
268.566	-0.1
268.781	0.08
268.996	0.02
269.211	-0.1
269.426	-0.06
269.641	-0.1
269.856	0.01
270.071	-0.12
270.285	-0.1
270.5	0.1
270.715	0.08
270.93	-0.03
271.145	0
271.359	0.03
271.574	-0.05
271.789	-0.05
272.004	-0.12
272.218	-0.07
272.433	0.05
272.648	-0.09
272.862	0.06
273.077	0.07
273.292	-0.04
273.506	-0.1
273.721	-0.07
273.936	-0.01
274.15	0.02
274.365	-0.1
274.579	-0.02
274.794	0.02
275.008	0.06
275.223	-0.12
275.437	-0.04
275.652	0.01
275.866	-0.03
276.081	-0.02
276.295	0.02
276.509	0.01
276.724	-0.01
276.938	-0.02
277.153	-0.02
277.367	0.03
277.581	-0.01
277.796	-0.05
278.01	-0.12
278.224	0.03
278.438	0.11
278.653	-0.12
278.867	-0.03
279.081	-0.19
279.295	-0.05
279.51	0.02
279.724	-0.11
279.938	0.02
280.152	-0.01
280.366	-0.08
280.58	-0
280.794	0.07
281.008	0
281.222	0.04
281.437	0.08
281.651	0.02
281.865	0.03
282.079	-0.05
282.293	-0.11
282.507	-0.12
282.721	-0.08
282.935	0.01
283.148	-0.11
283.362	-0.06
283.576	-0.07
283.79	-0.04
284.004	-0.11
284.218	0.05
284.432	-0.02
284.646	-0.06
284.859	-0.07
285.073	-0.05
285.287	-0.01
285.501	-0.05
285.714	-0.07
285.928	0.04
286.142	-0.06
286.356	-0.04
286.569	-0.03
286.783	0.07
286.997	0.04
287.21	-0.03
287.424	-0.03
287.637	-0.02
287.851	-0.03
288.065	0
288.278	-0.06
288.492	-0.04
288.705	-0.06
288.919	-0.03
289.132	-0.13
289.346	0.06
289.559	-0.08
289.773	-0.06
289.986	-0.05
290.2	-0.02
290.413	0.07
290.626	-0.08
290.84	-0.02
291.053	-0
291.267	0.07
291.48	-0.04
291.693	0.01
291.906	-0.06
292.12	-0.07
292.333	-0.05
292.546	-0.07
292.76	0.07
292.973	0
293.186	-0.02
293.399	-0.08
293.612	0.04
293.826	-0.07
294.039	-0.03
294.252	-0.07
294.465	-0.03
294.678	0.06
294.891	-0.03
295.104	-0.07
295.317	0
295.53	-0
295.743	-0.03
295.956	-0.03
296.169	0.04
296.382	0.06
296.595	-0.05
296.808	-0.05
297.021	0.09
297.234	0.06
297.447	-0.01
297.66	-0.01
297.873	0.04
298.086	0.01
298.299	-0.05
298.511	-0.05
298.724	-0.04
298.937	-0.05
299.15	-0.03
299.363	-0
299.575	0.05
299.788	-0
300.001	-0.07
300.213	-0.04
300.426	-0.07
300.639	-0.02
300.852	-0.03
301.064	0.01
301.277	0.05
301.489	0.07
301.702	0.04
301.915	-0.06
302.127	-0.01
302.34	-0.05
302.552	0.01
302.765	-0.04
302.977	0.04
303.19	-0.07
303.402	-0.04
303.615	-0.02
303.827	-0.02
304.04	-0.05
304.252	0.03
304.464	-0.03
304.677	0.07
304.889	0.01
305.102	-0.06
305.314	-0.06
305.526	-0.01
305.739	0.02
305.951	-0.05
306.163	-0.04
306.375	0.02
306.588	-0.03
306.8	-0.07
307.012	-0.12
307.224	-0.01
307.436	0.02
307.649	-0.1
307.861	-0.05
308.073	0.03
308.285	-0.06
308.497	-0.04
308.709	-0.06
308.921	0.03
309.133	0.01
309.346	-0.03
309.558	-0.05
309.77	0.05
309.982	0.04
310.194	0.02
310.406	-0.06
310.617	0.1
310.829	0.01
311.041	0.02
311.253	-0.1
311.465	-0.01
311.677	-0.04
311.889	-0
312.101	-0.04
312.313	0.03
312.524	0.04
312.736	-0.05
312.948	-0.04
313.16	0.05
313.372	0.02
313.583	0.03
313.795	-0.02
314.007	-0.05
314.218	0.02
314.43	0
314.642	-0.08
314.853	-0.05
315.065	0.01
315.277	-0.06
315.488	0.02
315.7	0.03
315.912	-0.02
316.123	-0
316.335	-0.01
316.546	0.08
316.758	-0.02
316.969	-0.04
317.181	-0.04
317.392	-0.01
317.604	0.09
317.815	-0.07
318.026	-0.01
318.238	-0.04
318.449	-0.01
318.661	-0.08
318.872	-0.07
319.083	-0.07
319.295	0.03
319.506	-0.04
319.717	0.04
319.929	0.02
320.14	0
320.351	-0
320.562	-0.03
320.774	0.01
320.985	-0.04
321.196	-0.1
321.407	-0.1
321.618	0.02
321.829	-0.02
322.041	0
322.252	-0.03
322.463	0.01
322.674	0.01
322.885	-0.09
323.096	-0.05
323.307	-0.01
323.518	0.02
323.729	-0.06
323.94	-0.04
324.151	-0.01
324.362	0.02
324.573	0.02
324.784	-0.06
324.995	0.02
325.206	-0.01
325.417	-0.04
325.628	-0.04
325.838	-0.02
326.049	-0.01
326.26	0.01
326.471	-0.03
326.682	0.02
326.892	-0.01
327.103	-0.06
327.314	-0.07
327.525	0.03
327.735	-0.02
327.946	-0.03
328.157	-0.03
328.368	0.02
328.578	0
328.789	0.03
328.999	-0.05
329.21	-0.04
329.421	0.01
329.631	-0.06
329.842	-0.05
330.052	-0
330.263	-0.01
330.473	0.03
330.684	-0.01
330.894	-0.01
331.105	-0.03
331.315	-0.01
331.526	-0.07
331.736	0.06
331.947	-0.01
332.157	-0.02
332.367	-0.08
332.578	0.01
332.788	0.02
332.999	0.02
333.209	-0
333.419	-0.1
333.629	0.01
333.84	-0.02
334.05	-0.01
334.26	0.03
334.47	-0.02
334.681	0.07
334.891	-0.05
335.101	0.04
335.311	0.1
335.521	-0
335.732	-0.08
335.942	0.06
336.152	0.03
336.362	0.02
336.572	-0.01
336.782	0.01
336.992	-0.03
337.202	-0.03
337.412	-0.06
337.622	0.02
337.832	-0.02
338.042	-0.03
338.252	-0.03
338.462	-0.03
338.672	-0.01
338.882	0
339.092	0.01
339.302	0.06
339.511	-0.01
339.721	-0.04
339.931	-0.07
340.141	0.02
340.351	0.07
340.561	0
340.77	0.01
340.98	-0.02
341.19	0.01
341.4	-0.07
341.609	-0.07
341.819	-0.04
342.029	-0.05
342.238	-0.02
342.448	-0.04
342.658	-0.01
342.867	0.01
343.077	0.01
343.286	0.01
343.496	0.02
343.706	0.05
343.915	-0.06
344.125	-0.04
344.334	0.02
344.544	-0.05
344.753	-0.02
344.963	-0.03
345.172	-0.04
345.381	-0.04
345.591	-0.04
345.8	0.01
346.01	0.06
346.219	0
346.428	-0.15
346.638	-0.05
346.847	0.01
347.056	0.05
347.266	-0.04
347.475	-0.05
347.684	0.06
347.893	-0
348.103	-0
348.312	-0.04
348.521	-0.02
348.73	-0
348.94	-0.02
349.149	0.01
349.358	-0.04
349.567	-0.06
349.776	-0.06
349.985	-0.07
350.194	0.02
350.403	0.05
350.612	-0.06
350.821	-0.05
351.03	-0.01
351.239	-0.06
351.448	-0.04
351.657	-0.05
351.866	0.06
352.075	-0.04
352.284	-0.03
352.493	-0.07
352.702	0.07
352.911	0
353.12	0.02
353.329	-0.01
353.538	0
353.746	-0.07
353.955	-0.04
354.164	0.06
354.373	-0
354.582	0.04
354.79	0
354.999	0
355.208	-0.01
355.416	0.07
355.625	-0.08
355.834	-0.06
356.042	-0.02
356.251	-0.02
356.46	-0.06
356.668	0
356.877	0.03
357.085	0.04
357.294	-0.08
357.503	0.04
357.711	-0.01
357.92	0.12
358.128	-0.03
358.337	-0.06
358.545	0.01
358.754	-0.05
358.962	0
359.17	-0.03
359.379	0.04
359.587	0.03
359.796	-0.02
360.004	0.03
360.212	-0.02
360.421	0.04
360.629	-0.05
360.837	-0.01
361.046	0.01
361.254	0.07
361.462	0.01
361.67	-0.05
361.879	-0.01
362.087	0.06
362.295	0.02
362.503	-0.05
362.711	-0.03
362.92	-0.08
363.128	-0.02
363.336	-0.06
363.544	-0.09
363.752	-0.04
363.96	-0.02
364.168	-0.06
364.376	-0.03
364.584	-0.01
364.792	0.03
365	0
365.208	-0.01
365.416	0.02
365.624	0.02
365.832	-0.04
366.04	0.09
366.248	0
366.456	-0.01
366.664	0.01
366.872	-0.02
367.079	-0.02
367.287	0.02
367.495	0.01
367.703	-0.01
367.911	-0.01
368.118	-0.05
368.326	-0.03
368.534	-0.03
368.742	0.06
368.949	-0.04
369.157	-0.02
369.365	0.01
369.572	0
369.78	-0.05
369.988	0.02
370.195	-0
370.403	-0
370.61	-0.04
370.818	0.01
371.026	0.08
371.233	-0.03
371.441	-0.05
371.648	-0.06
371.856	0.02
372.063	0.02
372.271	-0.04
372.478	-0.03
372.685	-0.04
372.893	0.02
373.1	-0.03
373.308	-0.02
373.515	0.01
373.722	0.02
373.93	-0.01
374.137	0.02
374.344	0.08
374.552	-0
374.759	-0.01
374.966	-0.07
375.173	-0.02
375.381	0
375.588	-0.04
375.795	-0.09
376.002	-0.06
376.209	-0.05
376.417	-0.04
376.624	-0.02
376.831	0.03
377.038	-0.03
377.245	-0.12
377.452	-0.06
377.659	-0.02
377.866	-0.06
378.073	-0.04
378.28	-0.01
378.487	0
378.694	-0.02
378.901	-0.02
379.108	-0
379.315	0.03
379.522	0.05
379.729	-0.02
379.936	-0.02
380.143	-0
380.35	-0.02
380.557	-0.04
380.763	-0.01
380.97	-0.02
381.177	-0.03
381.384	0.02
381.591	-0.06
381.797	-0.01
382.004	-0.01
382.211	0.03
382.418	-0.02
382.624	-0.01
382.831	-0
383.038	-0.02
383.244	-0.02
383.451	-0.04
383.658	0.02
383.864	-0.05
384.071	-0.04
384.277	0.04
384.484	-0.05
384.69	0.02
384.897	-0.03
385.103	-0.03
385.31	-0.07
385.516	-0
385.723	-0.08
385.929	0
386.136	-0.01
386.342	0.02
386.549	-0.02
386.755	0.06
386.961	0.04
387.168	-0.03
387.374	-0.04
387.58	-0
387.787	-0.01
387.993	0.02
388.199	-0.05
388.406	-0.04
388.612	-0
388.818	-0.09
389.024	-0.05
389.231	-0.03
389.437	0.06
389.643	0.03
389.849	-0.01
390.055	-0.01
390.261	-0.01
390.467	-0.03
390.674	-0.04
390.88	-0.03
391.086	0.01
391.292	-0.06
391.498	0.02
391.704	0.02
391.91	-0.01
392.116	0
392.322	-0.09
392.528	-0.04
392.734	-0.04
392.94	-0.02
393.146	-0.02
393.352	-0.02
393.557	-0.04
393.763	-0.03
393.969	0
394.175	0
394.381	-0.03
394.587	-0.04
394.792	-0.04
394.998	0.05
395.204	0.03
395.41	-0.05
395.615	-0.03
395.821	0.04
396.027	0.01
396.233	-0.07
396.438	-0.03
396.644	0.02
396.85	0.07
397.055	-0.06
397.261	-0.02
397.466	-0.07
397.672	0
397.878	-0.01
398.083	0.03
398.289	-0.01
398.494	0.03
398.7	-0.01
398.905	-0.11
399.111	0.01
399.316	-0.09
399.522	-0.01
399.727	-0.03
399.932	-0
400.138	-0.03
400.343	0.01
400.549	-0.02
400.754	0.01
400.959	-0.01
401.165	-0.05
401.37	-0.01
401.575	0.06
401.78	-0.05
401.986	-0.02
402.191	-0.03
402.396	-0.04
402.601	0.02
402.807	-0.03
403.012	-0.03
403.217	0
403.422	-0.03
403.627	0.01
403.832	-0.09
404.037	-0.03
404.243	-0.03
404.448	-0.03
404.653	-0.07
404.858	-0.04
405.063	-0.03
405.268	-0.03
405.473	-0.05
405.678	-0.08
405.883	0.13
406.088	0
406.293	-0.06
406.498	-0.04
406.703	-0.02
406.907	-0.02
407.112	-0.1
407.317	0
407.522	0.01
407.727	-0.09
407.932	-0.01
408.136	0.07
408.341	-0.03
408.546	-0.03
408.751	0.01
408.956	-0.03
409.16	-0
409.365	-0.04
409.57	-0.03
409.774	-0.05
409.979	0.03
410.184	0.02
410.388	-0.07
410.593	-0.03
410.798	0.03
411.002	-0.03
411.207	0.02
411.411	0.01
411.616	-0.05
411.82	-0.07
412.025	0.01
412.229	-0.02
412.434	0.06
412.638	0.03
412.843	-0.06
413.047	0.01
413.252	-0.07
413.456	-0.05
413.66	-0.01
413.865	-0.02
414.069	0.02
414.273	-0.06
414.478	-0.05
414.682	-0.06
414.886	-0.04
415.091	-0.08
415.295	-0.1
415.499	-0.02
415.703	-0.02
415.908	-0.01
416.112	-0.15
416.316	0.04
416.52	-0.05
416.724	-0.09
416.929	-0.07
417.133	0.07
417.337	-0.03
417.541	-0.05
417.745	-0.01
417.949	-0.03
418.153	0.01
418.357	-0.1
418.561	0.05
418.765	-0.02
418.969	0.1
419.173	0.01
419.377	-0.02
419.581	0.04
419.785	-0.06
419.989	-0.1
420.193	-0.05
420.397	-0.07
420.601	0.03
420.804	0.01
421.008	-0.01
421.212	-0.05
421.416	0.02
421.62	-0.05
421.823	-0.07
422.027	0.09
422.231	-0.01
422.435	-0.06
422.638	-0.01
422.842	-0.01
423.046	-0.03
423.249	0.03
423.453	-0.02
423.657	0.01
423.86	-0
424.064	-0.04
424.268	0.01
424.471	-0.02
424.675	0.01
424.878	0.01
425.082	-0.03
425.285	0.03
425.489	-0.06
425.692	-0.06
425.896	-0.08
426.099	-0.01
426.303	-0.04
426.506	-0.08
426.71	0.01
426.913	0.01
427.116	0.03
427.32	0.03
427.523	-0.04
427.726	0.07
427.93	-0.07
428.133	0.02
428.336	-0.11
428.54	-0.06
428.743	-0.02
428.946	0.03
429.149	-0.04
429.353	-0.01
429.556	-0.05
429.759	-0.03
429.962	-0.1
430.165	-0.02
430.368	0.02
430.571	-0.07
430.775	-0.03
430.978	-0.05
431.181	0.02
431.384	-0.02
431.587	-0.05
431.79	-0.04
431.993	-0.12
432.196	-0.06
432.399	-0.05
432.602	0.02
432.805	-0.06
433.008	-0.04
433.211	-0.05
433.414	0.04
433.616	0.02
433.819	-0.08
434.022	-0.09
434.225	0.07
434.428	0
434.631	0.06
434.833	-0.03
435.036	-0.02
435.239	0.03
435.442	0.01
435.645	-0.01
435.847	-0.04
436.05	0.06
436.253	0
436.455	-0.06
436.658	0.02
436.861	0.09
437.063	-0.05
437.266	-0.04
437.468	-0.02
437.671	0.07
437.874	0.01
438.076	-0.1
438.279	-0.07
438.481	-0.02
438.684	-0.09
438.886	-0.03
439.089	-0.1
439.291	-0.01
439.494	0.03
439.696	-0.02
439.899	-0.04
440.101	-0.08
440.303	-0.11
440.506	0.02
440.708	-0.05
440.91	0.01
441.113	-0.06
441.315	-0.01
441.517	-0.07
441.72	0.03
441.922	-0.09
442.124	-0.03
442.326	-0
442.529	0.07
442.731	-0.06
442.933	0.07
443.135	-0.07
443.337	-0.08
443.539	-0.07
443.742	-0.04
443.944	-0.01
444.146	-0.06
444.348	-0.08
444.55	-0.04
444.752	-0.01
444.954	-0.07
445.156	-0.02
445.358	-0.08
445.56	0.03
445.762	-0.06
445.964	-0.04
446.166	-0.09
446.368	-0.06
446.57	0.03
446.772	-0
446.974	-0.05
447.175	-0
447.377	-0.09
447.579	-0.03
447.781	-0.13
447.983	0.08
448.184	-0.02
448.386	0.01
448.588	-0.1
448.79	-0.03
448.991	-0.03
449.193	-0.01
449.395	-0.04
449.597	0
449.798	0
450	-0.03
450.202	-0.04
450.403	-0.02
450.605	-0.02
450.806	-0.05
451.008	-0.11
451.21	0.01
451.411	0.02
451.613	-0.03
451.814	0.02
452.016	-0.03
452.217	0
452.419	0.01
452.62	-0.01
452.821	0.03
453.023	0.04
453.224	0.02
453.426	-0.03
453.627	-0.01
453.828	0.06
454.03	-0.06
454.231	-0.01
454.432	-0.03
454.634	0.1
454.835	-0.08
455.036	-0.06
455.238	0.02
455.439	0.04
455.64	-0.06
455.841	-0.04
456.042	0.07
456.244	0.01
456.445	-0.02
456.646	-0.11
456.847	-0.06
457.048	0
457.249	0.02
457.45	0.21
457.651	-0.08
457.852	0
458.054	0
458.255	-0.01
458.456	0.03
458.657	0.02
458.858	-0.08
459.058	-0.03
459.259	0.08
459.46	-0.05
459.661	-0.11
459.862	0.07
460.063	-0.01
460.264	-0
460.465	-0.1
460.666	0.08
460.866	-0.09
461.067	-0.03
461.268	-0.02
461.469	-0.05
461.67	0.01
461.87	-0.07
462.071	-0.03
462.272	-0.11
462.473	0
462.673	0.01
462.874	-0.07
463.075	-0.01
463.275	-0.06
463.476	-0.01
463.676	0.02
463.877	-0.01
464.078	-0.07
464.278	0.01
464.479	-0.03
464.679	-0.04
464.88	-0.07
465.08	0.07
465.281	-0.08
465.481	0
465.682	-0.03
465.882	-0
466.083	-0
466.283	-0.03
466.483	-0
466.684	-0.07
466.884	-0.07
467.085	-0.04
467.285	0.04
467.485	-0.07
467.686	-0.04
467.886	-0.06
468.086	-0
468.286	-0.02
468.487	0.03
468.687	-0.08
468.887	-0.03
469.087	0
469.287	-0.03
469.488	-0.05
469.688	0.02
469.888	-0.01
470.088	0
470.288	0.01
470.488	0.05
470.688	-0.06
470.888	-0.05
471.088	-0.05
471.288	0
471.488	0.06
471.688	-0.01
471.888	-0.07
472.088	0.04
472.288	0.01
472.488	-0.04
472.688	-0.07
472.888	0.01
473.088	0.01
473.288	-0.02
473.488	-0.02
473.688	0.05
473.887	-0.02
474.087	-0.07
474.287	-0
474.487	-0.06
474.687	0.02
474.886	-0.07
475.086	-0.03
475.286	-0
475.486	-0.04
475.685	0
475.885	-0.05
476.085	-0.03
476.284	-0
476.484	-0.01
476.684	0
476.883	0.05
477.083	0.01
477.282	-0.03
477.482	0.03
477.681	0.03
477.881	-0.02
478.08	-0.05
478.28	-0.04
478.479	-0
478.679	0.05
478.878	-0.03
479.078	-0.06
479.277	-0.01
479.477	-0
479.676	0.03
479.875	-0.05
480.075	-0.11
480.274	-0
480.473	0.01
480.673	-0.02
480.872	0.04
481.071	0.03
481.271	0.02
481.47	-0.05
481.669	0
481.868	-0.02
482.067	-0.05
482.267	-0.04
482.466	-0.04
482.665	0.01
482.864	-0.05
483.063	-0.05
483.262	-0
483.461	0.02
483.661	0.03
483.86	0
484.059	-0
484.258	-0
484.457	-0.03
484.656	-0.02
484.855	0.03
485.054	-0.04
485.253	-0.04
485.452	-0.06
485.651	-0.05
485.849	-0.01
486.048	-0.03
486.247	-0.03
486.446	-0.03
486.645	-0.05
486.844	-0.05
487.043	-0.04
487.241	0.02
487.44	-0.04
487.639	-0
487.838	0
488.037	-0
488.235	0.02
488.434	0.01
488.633	-0.04
488.831	0
489.03	0.01
489.229	-0
489.427	-0.04
489.626	0.02
489.825	0.02
490.023	-0.02
490.222	-0.03
490.42	-0
490.619	0.02
490.817	0.01
491.016	-0.02
491.214	0.01
491.413	-0
491.611	0.01
491.81	-0.01
492.008	0.01
492.207	-0.01
492.405	-0.02
492.604	-0.04
492.802	-0.02
493	0.01
493.199	-0.04
493.397	-0.03
493.595	-0
493.794	-0.01
493.992	0.03
494.19	-0
494.388	0.01
494.587	-0.03
494.785	0.01
494.983	-0.05
495.181	-0.01
495.379	0
495.578	-0.03
495.776	-0.02
495.974	-0.01
496.172	-0
496.37	-0
496.568	-0.03
496.766	-0.04
496.964	0.01
497.162	0.02
497.36	-0.01
497.558	-0
497.756	0.01
497.954	-0.01
498.152	-0.05
498.35	-0.02
498.548	-0.02
498.746	-0.02
498.944	-0.03
499.142	-0.03
499.34	-0.02
499.538	-0.01
499.736	-0.03
499.933	0.03
500.131	0.02
500.329	-0.01
500.527	0.01
500.725	0.04
500.922	0.01
501.12	0
501.318	-0
501.516	-0.05
501.713	-0.01
501.911	-0
502.109	-0.05
502.306	0.01
502.504	-0.01
502.701	-0.04
502.899	-0
503.097	0.03
503.294	-0.01
503.492	-0.03
503.689	-0.01
503.887	0
504.084	0.05
504.282	-0.01
504.479	-0.03
504.677	0.01
504.874	-0.05
505.072	-0.02
505.269	-0
505.466	-0
505.664	0.01
505.861	-0.03
506.059	-0.03
506.256	0
506.453	-0.02
506.651	0.03
506.848	0.02
507.045	0.01
507.242	0
507.44	-0.02
507.637	-0.02
507.834	0.02
508.031	0.02
508.229	-0.03
508.426	-0.01
508.623	0.01
508.82	-0.03
509.017	-0.03
509.214	-0.03
509.411	-0
509.608	-0.03
509.805	0.01
510.003	-0.01
510.2	-0.03
510.397	0.02
510.594	-0.03
510.791	-0.04
510.988	-0.01
511.184	0.03
511.381	-0
511.578	-0.03
511.775	0.01
511.972	-0.02
512.169	-0.01
512.366	0.01
512.563	0.01
512.76	-0.03
512.956	-0.01
513.153	-0.01
513.35	0.02
513.547	-0.03
513.744	-0.01
513.94	-0.03
514.137	0.02
514.334	0.01
514.53	0.01
514.727	0.01
514.924	0.06
515.12	-0.02
515.317	-0.02
515.514	-0.02
515.71	-0.02
515.907	-0.02
516.103	0.01
516.3	0.01
516.497	0.03
516.693	0.03
516.89	0.01
517.086	-0.04
517.283	0.04
517.479	0.02
517.676	0.01
517.872	0
518.068	-0.02
518.265	-0
518.461	-0.01
518.658	-0.02
518.854	0.02
519.05	0.01
519.247	-0
519.443	0.01
519.639	0.02
519.836	0
520.032	-0
520.228	0.03
520.424	0.05
520.621	0
520.817	0.02
521.013	0.03
521.209	0.02
521.405	0.05
521.601	0.01
521.798	0
521.994	0.04
522.19	-0.02
522.386	-0.03
522.582	-0.01
522.778	0.01
522.974	-0.01
523.17	0
523.366	0.02
523.562	0.04
523.758	0.01
523.954	-0.02
524.15	-0.01
524.346	0.03
524.542	-0.02
524.738	-0.02
524.934	-0.01
525.129	0.01
525.325	0.01
525.521	0.01
525.717	0.01
525.913	-0
526.109	-0
526.304	0.01
526.5	0.01
526.696	0.03
526.892	0
527.087	0
527.283	-0.02
527.479	0.01
527.674	-0
527.87	0.01
528.066	-0.01
528.261	0.02
528.457	0.03
528.653	-0.01
528.848	-0
529.044	0.01
529.239	-0
529.435	0.03
529.63	0.04
529.826	0.06
530.021	0.02
530.217	0.02
530.412	-0.01
530.608	-0.01
530.803	0.01
530.999	-0.02
531.194	-0.03
531.389	0
531.585	-0.04
531.78	0
531.975	-0.02
532.171	0.02
532.366	0.01
532.561	0
532.757	-0.03
532.952	-0.01
533.147	0.02
533.342	0.02
533.538	-0.01
533.733	0.05
533.928	-0
534.123	0.01
534.318	0
534.513	-0
534.709	0.01
534.904	-0.02
535.099	0
535.294	-0.01
535.489	0
535.684	-0
535.879	-0.03
536.074	0.01
536.269	-0.01
536.464	0.01
536.659	-0
536.854	-0.01
537.049	0.03
537.244	0.01
537.439	-0
537.634	0.04
537.828	0.03
538.023	-0.02
538.218	-0.03
538.413	-0
538.608	-0.04
538.803	0.02
538.997	-0.04
539.192	0
539.387	0.01
539.582	-0
539.776	0
539.971	-0.01
540.166	-0.01
540.36	-0.03
540.555	-0.01
540.75	-0.01
540.944	0.02
541.139	-0.02
541.334	-0.01
541.528	0.01
541.723	0.01
541.917	-0.02
542.112	-0.03
542.306	-0.01
542.501	-0.01
542.695	0
542.89	-0.02
543.084	0.01
543.279	-0.02
543.473	-0.01
543.668	-0.02
543.862	-0.01
544.056	0.01
544.251	-0
544.445	0
544.64	0
544.834	-0.01
545.028	-0.01
545.222	0.01
545.417	0.02
545.611	-0.01
545.805	0.01
546	-0
546.194	-0.01
546.388	-0.03
546.582	0.01
546.776	-0.02
546.97	-0.01
547.165	0.02
547.359	0.02
547.553	-0.02
547.747	-0
547.941	0.01
548.135	-0
548.329	0.01
548.523	0.01
548.717	-0.02
548.911	-0.02
549.105	-0.02
549.299	-0.01
549.493	0.02
549.687	-0
549.881	-0.02
550.075	0.01
550.269	-0.04
550.463	-0
550.657	-0.03
550.85	-0.01
551.044	-0.02
551.238	0
551.432	-0.03
551.626	-0.02
551.82	0.01
552.013	-0.03
552.207	-0
552.401	-0.01
552.594	0
552.788	-0.01
552.982	-0.02
553.176	-0.01
553.369	0
553.563	0.01
553.756	-0.06
553.95	-0.03
554.144	-0.03
554.337	-0
554.531	-0.01
554.724	0.01
554.918	-0.01
555.111	0.01
555.305	0
555.498	0.04
555.692	0.01
555.885	-0.03
556.079	0.01
556.272	-0.02
556.466	0.04
556.659	-0.01
556.852	-0.01
557.046	-0.03
557.239	0.04
557.432	-0.03
557.626	-0.04
557.819	-0.01
558.012	0.01
558.206	-0.01
558.399	-0
558.592	0.01
558.785	-0.02
558.979	0
559.172	-0.02
559.365	0.01
559.558	0.03
559.751	-0.01
559.944	0
560.138	-0.05
560.331	-0.01
560.524	-0.03
560.717	-0
560.91	-0
561.103	0.02
561.296	-0
561.489	0.01
561.682	-0.01
561.875	0.04
562.068	0.03
562.261	0
562.454	0.03
562.647	0
562.84	-0
563.032	-0.02
563.225	-0
563.418	-0.03
563.611	-0
563.804	-0.03
563.997	-0.05
564.19	-0.03
564.382	0.01
564.575	-0.02
564.768	-0.01
564.961	-0.01
565.153	-0.02
565.346	0.02
565.539	0.04
565.731	0
565.924	0.02
566.117	0.01
566.309	0.01
566.502	-0.04
566.695	-0.03
566.887	-0.02
567.08	-0.01
567.272	-0.02
567.465	-0.02
567.657	0
567.85	0.01
568.042	0.01
568.235	0.02
568.427	-0.02
568.62	0.01
568.812	0
569.005	-0.02
569.197	-0.05
569.389	-0.03
569.582	0.01
569.774	-0.03
569.966	-0.05
570.159	-0.05
570.351	0.01
570.543	-0.03
570.736	-0
570.928	-0.04
571.12	-0.01
571.312	-0.01
571.505	-0.04
571.697	0.04
571.889	-0.05
572.081	-0.02
572.273	-0.04
572.465	-0
572.658	-0
572.85	0.02
573.042	-0.03
573.234	-0.02
573.426	0.03
573.618	-0.03
573.81	0
574.002	0.03
574.194	-0.01
574.386	-0.05
574.578	-0.11
574.77	-0.04
574.962	-0
575.154	-0.01
575.346	-0.03
575.538	-0
575.729	-0.02
575.921	-0.01
576.113	-0.02
576.305	0.01
576.497	-0.01
576.689	-0.02
576.88	-0.04
577.072	0.02
577.264	-0.02
577.456	-0.02
577.647	-0.09
577.839	0
578.031	0.03
578.223	-0.05
578.414	-0.05
578.606	0.01
578.798	-0.01
578.989	-0.03
579.181	-0.03
579.372	-0.02
579.564	-0.01
579.755	-0.02
579.947	0.01
580.139	0.02
580.33	-0.05
580.522	-0.06
580.713	-0.09
580.905	-0.01
581.096	-0.02
581.287	0
581.479	-0
581.67	-0
581.862	-0
582.053	-0.03
582.244	-0.06
582.436	-0.02
582.627	-0
582.818	-0.03
583.01	-0.05
583.201	0.01
583.392	0.03
583.583	0.01
583.775	-0.03
583.966	-0.04
584.157	-0.04
584.348	-0.03
584.54	-0.06
584.731	0.04
584.922	-0.02
585.113	-0.05
585.304	-0
585.495	0.01
585.686	-0.01
585.877	-0.02
586.068	-0.01
586.259	-0.02
586.45	-0
586.641	-0.05
586.832	-0.06
587.023	0.01
587.214	-0.02
587.405	-0.01
587.596	-0.05
587.787	0.01
587.978	-0.02
588.169	-0.04
588.36	-0.04
588.551	0.01
588.742	-0.04
588.932	0
589.123	-0.03
589.314	0.01
589.505	0
589.696	-0.02
589.886	-0.03
590.077	-0.06
590.268	0
590.458	-0.05
590.649	-0.05
590.84	0.04
591.03	-0.03
591.221	-0.06
591.412	-0.05
591.602	0.01
591.793	0.02
591.984	-0.05
592.174	-0.04
592.365	0.04
592.555	-0.02
592.746	-0.01
592.936	-0
593.127	-0
593.317	0.02
593.508	-0.02
593.698	-0.05
593.889	0.01
594.079	0
594.269	-0.01
594.46	-0.02
594.65	0
594.84	-0.02
595.031	-0.05
595.221	-0
595.411	-0.06
595.602	0.01
595.792	-0.02
595.982	-0.02
596.172	0.03
596.363	-0.01
596.553	-0.01
596.743	-0.04
596.933	-0.02
597.123	0.02
597.314	-0.05
597.504	-0.03
597.694	0.03
597.884	-0
598.074	-0.03
598.264	-0.03
598.454	0
598.644	-0.01
598.834	-0.04
599.024	-0.08
599.214	-0.03
599.404	0
599.594	-0.04
599.784	-0.04
599.974	0
600.164	0.01
600.354	-0.04
600.544	-0.05
600.734	0.02
600.924	0
601.114	-0.04
601.303	-0
601.493	-0.03
601.683	-0.04
601.873	-0.02
602.063	-0.06
602.252	0.02
602.442	-0.09
602.632	-0.03
602.821	-0.07
603.011	0.03
603.201	-0.02
603.39	-0.05
603.58	-0.06
603.77	-0.02
603.959	0.02
604.149	-0.02
604.339	-0.03
604.528	0.04
604.718	0.01
604.907	-0.03
605.097	-0.02
605.286	-0.05
605.476	0
605.665	0
605.855	-0.01
606.044	0.01
606.234	-0.01
606.423	-0.02
606.612	-0.03
606.802	-0.01
606.991	-0
607.181	-0.03
607.37	-0.08
607.559	-0.04
607.749	-0.05
607.938	-0.02
608.127	-0.02
608.316	-0.04
608.506	0.01
608.695	-0.03
608.884	-0.05
609.073	-0.01
609.263	0.01
609.452	0.02
609.641	0
609.83	-0.04
610.019	-0.01
610.208	-0.05
610.397	-0.02
610.586	0.02
610.775	-0.02
610.965	-0.04
611.154	-0.04
611.343	-0
611.532	-0.03
611.721	-0.06
611.91	-0.04
612.099	0.02
612.287	-0.01
612.476	-0.08
612.665	-0.02
612.854	-0.02
613.043	0
613.232	0.01
613.421	-0.06
613.61	-0.04
613.798	-0.07
613.987	-0.01
614.176	-0.03
614.365	0
614.554	0.01
614.742	0
614.931	-0.05
615.12	-0.01
615.309	-0.05
615.497	0.01
615.686	-0.04
615.875	-0.03
616.063	0.01
616.252	-0.01
616.44	-0.05
616.629	-0.04
616.818	0.02
617.006	-0.03
617.195	-0.03
617.383	0.01
617.572	-0.04
617.76	-0.04
617.949	-0.05
618.137	-0
618.326	0.02
618.514	-0.04
618.703	-0.04
618.891	0.03
619.079	-0.08
619.268	0
619.456	-0.05
619.644	0.06
619.833	-0
620.021	-0.04
620.209	-0.06
620.398	-0.01
620.586	-0.01
620.774	-0
620.962	-0.03
621.151	0.01
621.339	-0.01
621.527	-0.07
621.715	-0.05
621.903	-0.06
622.092	-0.07
622.28	-0.01
622.468	-0.02
622.656	-0.01
622.844	0.02
623.032	-0.06
623.22	-0.07
623.408	0.01
623.596	0.01
623.784	0.01
623.972	-0.04
624.16	-0.03
624.348	0.04
624.536	-0.03
624.724	-0.04
624.912	0.05
625.1	0.02
625.288	-0.03
625.476	-0.03
625.664	0.01
625.851	-0.06
626.039	-0.03
626.227	-0
626.415	-0.03
626.603	-0.09
626.79	-0.02
626.978	-0.04
627.166	-0.01
627.354	-0.03
627.541	-0.05
627.729	-0.1
627.917	-0.02
628.104	0.02
628.292	-0
628.48	-0.05
628.667	-0.03
628.855	0.01
629.042	-0.02
629.23	-0.01
629.418	-0.04
629.605	-0.04
629.793	-0.04
629.98	-0.07
630.168	-0.04
630.355	-0.02
630.543	-0.02
630.73	-0.03
630.917	-0.01
631.105	0.05
631.292	-0.05
631.48	-0.03
631.667	0.07
631.854	-0.01
632.042	-0.03
632.229	-0.06
632.416	-0.02
632.604	-0.02
632.791	-0.06
632.978	-0
633.165	-0.02
633.353	0.06
633.54	0.01
633.727	-0.07
633.914	-0.03
634.101	-0.08
634.289	-0.01
634.476	-0.08
634.663	-0.06
634.85	0
635.037	-0.06
635.224	-0.09
635.411	0.02
635.598	-0
635.785	-0.02
635.972	-0.04
636.159	0.01
636.346	-0.04
636.533	-0
636.72	-0.04
636.907	-0.06
637.094	0.02
637.281	-0.06
637.468	0.01
637.655	-0
637.842	-0.01
638.029	-0.03
638.215	-0
638.402	0
638.589	-0.04
638.776	-0.05
638.963	-0.04
639.149	0.01
639.336	0.04
639.523	0.01
639.709	-0.03
639.896	-0.02
640.083	0.04
640.27	-0.01
640.456	-0.01
640.643	0.01
640.829	-0.06
641.016	-0.05
641.203	-0.03
641.389	-0.01
641.576	-0.01
641.762	-0.03
641.949	-0.05
642.135	0.01
642.322	-0.01
642.508	-0.11
642.695	-0.01
642.881	-0.02
643.068	-0.06
643.254	-0.02
643.441	-0.02
643.627	-0.02
643.813	-0.04
644	0.02
644.186	-0.07
644.372	-0.01
644.559	-0
644.745	-0.02
644.931	-0.05
645.118	-0.01
645.304	-0.03
645.49	-0.02
645.676	-0.03
645.862	-0.02
646.049	0.05
646.235	-0.04
646.421	0.01
646.607	0.08
646.793	-0.01
646.979	-0.08
647.165	0
647.352	-0.03
647.538	0.03
647.724	-0.05
647.91	-0.03
648.096	0.01
648.282	0.01
648.468	-0.04
648.654	-0.01
648.84	-0
649.026	0
649.212	-0.01
649.397	-0.08
649.583	-0.06
649.769	0.04
649.955	-0.03
650.141	-0.02
650.327	0.05
650.513	-0.03
650.698	-0.01
650.884	-0.09
651.07	-0
651.256	-0.03
651.442	-0.03
651.627	-0.03
651.813	-0.03
651.999	0.01
652.184	-0.02
652.37	-0.03
652.556	-0.06
652.741	0.03
652.927	-0.11
653.113	-0.05
653.298	-0
653.484	-0
653.669	-0.07
653.855	-0.02
654.04	-0
654.226	-0.01
654.412	-0.05
654.597	-0.04
654.782	0.01
654.968	0.01
655.153	-0
655.339	-0.04
655.524	-0.08
655.71	0.03
655.895	-0.02
656.08	-0.04
656.266	0
656.451	-0.01
656.636	-0.06
656.822	-0.01
657.007	-0.06
657.192	-0.02
657.378	-0.06
657.563	-0.04
657.748	0.03
657.933	0.01
658.118	-0.03
658.304	0.02
658.489	-0.01
658.674	0.02
658.859	-0.07
659.044	-0.02
659.229	0.01
659.414	-0.04
659.599	-0.03
659.785	-0.06
659.97	-0.06
660.155	0
660.34	-0
660.525	-0.02
660.71	-0.03
660.895	0.03
661.08	-0.03
661.264	-0.06
661.449	0.01
661.634	0.04
661.819	0.02
662.004	-0
662.189	-0.13
662.374	-0.03
662.559	-0.08
662.743	-0.08
662.928	-0.03
663.113	-0.02
663.298	-0.12
663.483	-0.03
663.667	0
663.852	-0.07
664.037	0.03
664.221	-0.04
664.406	0.03
664.591	0.02
664.775	-0.05
664.96	-0.02
665.145	-0.03
665.329	0.01
665.514	-0.04
665.698	-0.02
665.883	-0.07
666.068	0.01
666.252	-0.01
666.437	-0.04
666.621	-0.04
666.806	-0.04
666.99	-0.04
667.174	-0.1
667.359	0.03
667.543	0
667.728	-0.05
667.912	-0.09
668.096	-0
668.281	-0.04
668.465	-0.03
668.649	-0.02
668.834	-0.06
669.018	-0.05
669.202	-0.07
669.387	-0.05
669.571	0.02
669.755	-0.06
669.939	-0.05
670.124	-0.02
670.308	0.05
670.492	0.04
670.676	-0.02
670.86	-0.06
671.044	-0.03
671.228	0.01
671.413	-0.09
671.597	-0.04
671.781	-0.04
671.965	0.03
672.149	-0.04
672.333	-0.06
672.517	-0.04
672.701	0.05
672.885	-0.05
673.069	-0.1
673.253	0.02
673.437	-0.01
673.621	-0.05
673.804	-0.02
673.988	-0.04
674.172	-0.01
674.356	-0.07
674.54	-0.03
674.724	0.03
674.908	-0.05
675.091	-0
675.275	-0.04
675.459	0
675.643	0.05
675.826	-0.01
676.01	-0.01
676.194	-0.04
676.377	0.04
676.561	-0.02
676.745	-0.02
676.928	-0.01
677.112	0.03
677.296	-0.09
677.479	-0.03
677.663	-0.07
677.846	0.01
678.03	-0.05
678.213	-0.03
678.397	0.02
678.58	-0.03
678.764	-0.04
678.947	-0.05
679.131	-0.07
679.314	0.01
679.498	-0.03
679.681	-0.05
679.865	0.02
680.048	-0.04
680.231	-0.05
680.415	-0.06
680.598	0
680.781	0.01
680.965	-0.06
681.148	-0.01
681.331	-0.02
681.514	-0.03
681.698	-0.07
681.881	-0.03
682.064	-0.03
682.247	0
682.43	-0.08
682.614	0.01
682.797	0.07
682.98	0.01
683.163	-0.08
683.346	-0.01
683.529	-0.06
683.712	-0.06
683.895	-0.02
684.078	-0.04
684.261	-0.05
684.444	-0.01
684.627	0.03
684.81	-0.06
684.993	-0.05
685.176	0.02
685.359	-0.06
685.542	-0.05
685.725	-0.01
685.908	-0.03
686.091	-0.06
686.274	0.01
686.457	-0.01
686.639	-0.03
686.822	0.01
687.005	-0.06
687.188	0.02
687.371	0.05
687.553	-0
687.736	-0.03
687.919	0.06
688.102	0.05
688.284	-0.07
688.467	-0.03
688.65	-0.03
688.832	-0.06
689.015	-0.05
689.197	-0.07
689.38	0.06
689.563	0.1
689.745	-0.04
689.928	-0.03
690.11	-0.08
690.293	0
690.475	-0.1
690.658	0.01
690.84	-0.01
691.023	-0.05
691.205	-0.07
691.388	0.02
691.57	0.04
691.752	-0.01
691.935	-0.11
692.117	-0.05
692.3	-0.01
692.482	-0.06
692.664	-0
692.847	-0.02
693.029	0.07
693.211	-0.01
693.393	-0.05
693.576	-0.04
693.758	-0.03
693.94	-0.02
694.122	-0.04
694.304	-0.04
694.487	-0.06
694.669	0.05
694.851	-0.07
695.033	-0.03
695.215	-0.11
695.397	-0.1
695.579	-0.04
695.761	-0.08
695.943	-0.06
696.125	0.01
696.308	-0.04
696.49	-0.12
696.671	0.13
696.853	-0.01
697.035	0.08
697.217	-0.06
697.399	0.03
697.581	-0.09
697.763	-0.01
697.945	-0.11
698.127	-0.01
698.309	0.01
698.491	0.01
698.672	0.02
698.854	-0.02
699.036	0.05
699.218	-0.05
699.399	0.01
699.581	0.08
699.763	-0
699.945	-0.07
700.126	-0.09
700.308	-0.01
700.49	-0.08
700.671	-0.1
700.853	-0.07
701.035	-0.03
701.216	0.02
701.398	-0.09
701.579	-0.06
701.761	0.02
701.943	-0.07
702.124	-0.03
702.306	-0.01
702.487	0.1
702.669	-0.04
702.85	-0.02
703.031	-0.11
703.213	0.05
703.394	0.05
703.576	-0.04
703.757	0.06
703.938	0.03
704.12	0.1
704.301	-0.02
704.483	-0.05
704.664	-0
704.845	0.07
705.026	0.02
705.208	-0.05
705.389	-0.02
705.57	0.01
705.751	-0.06
705.933	-0.03
706.114	0.02
706.295	0.02
706.476	-0.09
706.657	0.1
706.838	0.02
707.02	0.05
707.201	-0.1
707.382	-0.04
707.563	-0.02
707.744	-0.05
707.925	-0.08
708.106	-0.04
708.287	-0.02
708.468	0.02
708.649	-0.01
708.83	0.04
709.011	-0.07
709.192	0.02
709.373	-0.05
709.554	-0.06
709.734	0.05
709.915	0.02
710.096	-0.03
710.277	-0.14
710.458	-0.02
710.639	-0.01
710.819	-0.12
711	-0.06
711.181	0.08
711.362	-0.02
711.542	-0.07
711.723	0
711.904	0.01
712.085	-0
712.265	-0.01
712.446	-0.08
712.627	-0.05
712.807	-0.02
712.988	-0.06
713.168	-0.13
713.349	0.04
713.53	-0.19
713.71	-0.15
713.891	-0.08
714.071	0.03
714.252	-0.08
714.432	-0.08
714.613	-0.08
714.793	-0.04
714.974	0.08
715.154	0.01
715.334	0.02
715.515	0.07
715.695	-0.09
715.876	-0
716.056	0
716.236	-0.1
716.417	-0.06
716.597	-0.13
716.777	0.12
716.957	-0.02
717.138	-0.09
717.318	-0.06
717.498	-0.07
717.678	-0.04
717.859	-0.07
718.039	-0.13
718.219	0.03
718.399	-0.01
718.579	-0.09
718.759	-0.12
718.939	-0
719.12	-0.01
719.3	-0.01
719.48	-0.22
719.66	-0.18
719.84	0.06
720.02	-0.04
720.2	-0.04
720.38	-0.04
720.56	0.01
720.74	-0.09
720.92	0.01
721.1	-0.01
721.279	0
721.459	0.03
721.639	-0.17
721.819	0.02
721.999	-0.08
722.179	0.03
722.359	-0.13
722.538	-0.04
722.718	-0.01
722.898	-0.08
723.078	-0.08
723.257	-0.1
723.437	-0.04
723.617	0
723.797	-0.09
723.976	-0.02
724.156	-0.01
724.336	0.14
724.515	0.07
724.695	-0.14
724.874	-0.01
725.054	0.03
725.234	-0.06
725.413	-0.02
725.593	-0.04
725.772	-0.02
725.952	-0.07
726.131	-0.04
726.311	-0.04
726.49	-0.06
726.67	-0.14
726.849	-0.06
727.028	-0.03
727.208	-0.02
727.387	-0.07
727.567	-0.14
727.746	-0.04
727.925	-0.11
728.105	-0.15
728.284	-0.11
728.463	-0.06
728.643	0.03
728.822	-0.1
729.001	-0.09
729.18	-0.01
729.359	0.05
729.539	-0.03
729.718	-0.02
729.897	0.07
730.076	-0.06
730.255	-0.07
730.434	0.02
730.614	-0.01
730.793	0.03
730.972	-0.06
731.151	0.07
731.33	0.07
731.509	0.09
731.688	-0.1
731.867	-0.05
732.046	-0.14
732.225	0.14
732.404	-0.05
732.583	-0.14
732.762	0.09
732.941	-0
733.12	0.02
733.298	-0.12
733.477	0.04
733.656	-0.1
733.835	-0.12
734.014	0.05
734.193	-0.03
734.371	0.02
734.55	-0.09
734.729	-0.15
734.908	0.01
735.086	-0
735.265	-0.03
735.444	-0.22
735.623	-0.11
735.801	-0.13
735.98	-0.03
736.159	-0.07
736.337	0.03
736.516	-0.05
736.694	-0.07
736.873	-0.19
737.052	0.07
737.23	0.15
737.409	-0.12
737.587	0.16
737.766	-0.28
737.944	-0.12
738.123	0.05
738.301	-0.12
738.479	-0.21
738.658	-0.01
738.836	-0.14
739.015	-0.06
739.193	0.08
739.371	-0.16
739.55	-0.15
739.728	-0.12
739.906	0.02
740.085	0.03
740.263	0.05
740.441	-0.17
740.62	0.17
740.798	0
740.976	-0.13
741.154	-0.12
741.332	0.09
741.511	-0.1
741.689	0
741.867	-0.02
742.045	-0.03
742.223	-0.1
742.401	-0.15
742.579	-0.06
742.757	-0.05
742.935	-0.17
743.114	-0.13
743.292	-0.05
743.47	0.02
743.648	-0.02
743.826	-0.14
744.004	0.04
744.181	-0.1
744.359	-0.03
744.537	-0.02
744.715	-0.01
744.893	-0.07
745.071	-0.01
745.249	-0.06
745.427	-0.02
745.605	0.1
745.782	-0.08
745.96	-0.07
746.138	-0.02
746.316	0.01
746.493	-0.12
746.671	-0.03
746.849	-0.03
747.027	0.13
747.204	-0.11
747.382	0.05
747.56	-0.12
747.737	-0.19
747.915	-0.01
748.093	0.05
748.27	-0.11
748.448	-0.09
748.625	-0.17
748.803	-0.16
748.98	-0.05
749.158	-0.01
749.335	-0.05
749.513	0.02
749.69	-0.03
749.868	-0.09
750.045	0.04
750.223	-0.1
750.4	-0.28
750.578	0.08
750.755	-0.12
750.932	-0.2
751.11	0.06
751.287	-0.23
751.464	0.13
751.642	-0.1
751.819	-0.03
751.996	-0.06
752.173	0
752.351	-0.15
752.528	-0.14
752.705	-0.01
752.882	-0.15
753.06	-0.1
753.237	-0.03
753.414	0.11
753.591	0.08
753.768	-0.03
753.945	-0.1
754.122	-0.06
754.299	0.01
754.476	-0.12
754.654	-0.04
754.831	0.05
755.008	-0.05
755.185	-0.05
755.362	-0.07
755.539	-0.01
755.716	-0.23
755.892	0.04
756.069	-0.06
756.246	-0.13
756.423	-0.12
756.6	0.09
756.777	-0
756.954	0.14
757.131	-0.1
757.307	-0.2
757.484	-0.21
757.661	-0.03
757.838	-0.12
758.015	-0.17
758.191	0.03
758.368	-0.12
758.545	0.06
758.721	-0.07
758.898	-0.19
759.075	-0.02
759.251	-0.05
759.428	-0.03
759.605	-0.16
759.781	-0.04
759.958	-0.04
760.134	-0
760.311	-0.12
760.488	0.06
760.664	0.11
760.841	-0.03
761.017	-0.1
761.194	-0
761.37	0.01
761.547	-0.06
761.723	-0.04
761.899	0.14
762.076	0.04
762.252	-0.12
762.429	-0.07
762.605	0.05
762.781	-0.11
762.958	0.14
763.134	-0.05
763.31	-0.07
763.486	0.09
763.663	-0.24
763.839	0.07
764.015	-0.2
764.191	-0.04
764.368	-0
764.544	-0.05
764.72	0.03
764.896	0.17
765.072	0
765.248	-0.07
765.425	-0.01
765.601	-0.02
765.777	-0.1
765.953	-0.19
766.129	0.08
766.305	-0.07
766.481	0
766.657	-0.08
766.833	0.01
767.009	-0.12
767.185	-0.12
767.361	-0.03
767.537	-0.23
767.713	0.08
767.889	-0.08
768.065	-0.03
768.24	-0.03
768.416	0.17
768.592	-0.1
768.768	-0.15
768.944	0
769.12	-0.18
769.295	-0.17
769.471	0.05
769.647	-0.15
769.823	0.13
769.998	-0.08
770.174	-0.16
770.35	0.35
770.525	0.24
770.701	-0.16
770.877	-0.09
771.052	-0.14
771.228	0.04
771.403	-0.09
771.579	-0
771.755	0.36
771.93	-0.23
772.106	-0.2
772.281	-0.12
772.457	-0.04
772.632	0.04
772.808	-0.25
772.983	-0.07
773.159	-0.37
773.334	0.09
773.509	-0.03
773.685	-0.25
773.86	0.3
774.036	0.15
774.211	-0.1
774.386	-0.1
774.562	-0.01
774.737	-0.03
774.912	-0.16
775.087	0.02
775.263	0.12
775.438	-0.08
775.613	-0.03
775.788	-0.22
775.964	0.15
776.139	0.28
776.314	-0.35
776.489	-0.13
776.664	-0.04
776.839	-0.27
777.014	0.19
777.19	0.06
777.365	0.06
777.54	0.2
777.715	-0.16
777.89	-0.06
778.065	-0.14
778.24	-0.15
778.415	0.15
778.59	-0.28
778.765	-0.13
778.94	0.04
779.115	-0.11
779.289	-0.18
779.464	-0.09
779.639	-0.13
779.814	-0.19
779.989	-0.22
780.164	0.17
780.339	-0.04
780.513	-0.07
780.688	-0.21
780.863	-0.02
781.038	0.14
781.212	-0.18
781.387	-0.03
781.562	0.25
781.737	-0.06
781.911	0.12
782.086	-0.27
782.261	-0.11
782.435	0.23
782.61	-0.06
782.784	-0.09
782.959	0.33
783.134	-0.18
783.308	-0.32
783.483	-0.03
783.657	0.37
783.832	-0.02
784.006	-0.52
784.181	-0.19
784.355	0.05
784.53	-0.27
784.704	-0.37
784.878	0.16
785.053	0.23
785.227	0.11
785.402	0.26
785.576	-0.36
785.75	-0.04
785.925	-0.28
786.099	0.07
786.273	-0.25
786.448	0.08
786.622	0.07
786.796	-0.23
786.97	-0.15
787.145	0.51
787.319	-0.42
787.493	-0.21
787.667	-0.24
787.841	-0.28
788.015	0.17
788.19	-0.2
788.364	0.02
788.538	0.13
788.712	0.23
788.886	-0.27
789.06	0.05
789.234	0.2
789.408	-0.37
789.582	-0.12
789.756	-0.06
789.93	-0.12
790.104	-0.09
790.278	-0.09
790.452	-0.36
790.626	0.01
790.8	-0.17
790.973	0.31
791.147	0.15
791.321	-0.04
791.495	0.14
791.669	0.19
791.843	0.14
792.016	-0.18
792.19	0.23
792.364	-0.29
792.538	0.42
792.711	0.29
792.885	-0.12
793.059	-0.17
793.233	-0.42
793.406	0.19
793.58	-0.08
793.754	0.05
793.927	0.04
794.101	-0
794.274	-0.26
794.448	0.31
794.622	-0.33
794.795	0.13
794.969	-0.17
795.142	0.13
795.316	-0.19
795.489	-0.37
795.663	0.32
795.836	-0.28
796.009	-0.28
796.183	0.21
796.356	-0.04
796.53	-0.14
796.703	-0.16
796.876	0.4
797.05	-0.18
797.223	-0.3
797.396	-0.03
797.57	-0.08
797.743	0.53
797.916	-0.06
798.09	-0.21
798.263	0.04
798.436	-0.05
798.609	-0.02
798.782	-0.11
798.956	0.03
799.129	0.03
799.302	-0.27
799.475	-0.17
799.648	0.03
799.821	-0.05
799.994	-0.02
800.167	-0.43
800.34	-0.23
800.514	-0
800.687	-0.23
800.86	-0.41
801.033	-0.1
801.206	-0.05
801.379	-0.44
801.551	0.11
801.724	0.08
801.897	0.42
802.07	-0.34
802.243	-0.7
802.416	-0.16
802.589	-0.13
802.762	0.1
802.935	-0.59
803.107	-0.14
803.28	0.17
803.453	0.05
803.626	0.01
803.798	-0.12
803.971	-0.29
804.144	0.14
804.317	0.04
804.489	0.45
804.662	-0.28
804.835	0.12
805.007	-0.47
805.18	0.4
805.353	-0.1
805.525	-0.44
805.698	-0.34
805.87	0.34
806.043	0.38
806.215	-0.54
806.388	-0.24
806.56	-0.15
806.733	0.12
806.905	-0.11
807.078	-0.25
807.25	-0.15
807.423	0.24
807.595	0.25
807.768	-0.14
807.94	0.27
808.112	0.14
808.285	0.21
808.457	-0.34
808.629	-0.1
808.802	0.16
808.974	-0.07
809.146	-0.29
809.318	-0.33
809.491	-0.21
809.663	0.01
809.835	-0.6
810.007	0.54
810.18	-0.17
810.352	-0.53
810.524	-0.08
810.696	0.28
810.868	0.27
811.04	-0.27
811.212	-0.03
811.384	0.2
811.556	-0.39
811.728	-0.07
811.901	0.57
812.073	0.08
812.245	0.16
812.417	-0.04
812.589	-0.51
812.76	-0.18
812.932	0.13
813.104	0.21
813.276	-0.41
813.448	0.34
813.62	0.07
813.792	0.25
813.964	-0.05
814.136	0.19
814.307	-0.11
814.479	-0.21
814.651	-0.36
814.823	0.59
814.995	-0.26
815.166	0.14
815.338	-0.36
815.51	-1.03
815.681	0.99
815.853	0.15
816.025	-0.31
816.196	0.61
816.368	0.22
816.54	-0.41
816.711	-0.66
816.883	0.24
817.054	0.73
817.226	-1.17
817.398	-0.05
817.569	-0.32
817.741	-0.01
817.912	-0.18
818.084	-0.02
818.255	0.16
818.426	-0.31
818.598	-0.17
818.769	-0.45
818.941	0.04
819.112	0.5
819.283	0.03
819.455	-0.62
819.626	-0.06
819.798	0.05
819.969	-0.72
820.14	-0.58
820.311	-0.37
820.483	0.3
820.654	0.04
820.825	-0.23
820.996	-0.27
821.168	-0.59
821.339	-0.47
821.51	-0.45
821.681	0.5
821.852	0.29
822.023	-0.46
822.195	-0.66
822.366	0.61
822.537	-0.17
822.708	0.25
822.879	-0.31
823.05	0.71
823.221	0.08
823.392	0.12
823.563	-0.51
823.734	0.13
823.905	-0.02
824.076	-0.33
824.247	-0.33
824.418	-0.55
824.589	0.38
824.759	0.09
824.93	0.22
825.101	-0.65
825.272	0.56
825.443	-0.08
825.614	0.61
825.784	-1.32
825.955	0.72
826.126	0.67
826.297	0.22
826.467	0.64
826.638	0.22
826.809	-1.49
826.98	0.08
827.15	-0.18
827.321	0.23
827.492	0.43
827.662	0.12
827.833	1.1
828.003	-0.2
828.174	-0.73
828.345	-1.11
828.515	0.74
828.686	0.25
828.856	-0.2
829.027	-0.44
829.197	0.02
829.368	0.08
829.538	-0.06
829.709	-0.41
829.879	-0.05
830.049	-0.11
830.22	-0.5
830.39	-0.43
830.56	0.27
830.731	-0.3
830.901	-0.51
831.072	0.18
831.242	-0.01
831.412	0.23
831.582	-0.03
831.753	-1.01
831.923	0.64
832.093	0.05
832.263	-0.21
832.434	-0.53
832.604	-0.97
832.774	0.31
832.944	-0.27
833.114	-0.62
833.284	0.06
833.454	-0.31
833.624	-0.78
833.795	-0.11
833.965	0.88
834.135	0.48
834.305	-1.2
834.475	-0.3
834.645	-0.66
834.815	-0.11
834.985	-0.86
835.155	-0.37
835.325	-0.18
835.494	0.32
835.664	0.04
835.834	-0.54
836.004	0.2
836.174	0.05
836.344	-0.36
836.514	-0.99
836.684	-0.36
836.853	0.2
837.023	0.25
837.193	-0.39
837.363	0.45
837.532	0.56
837.702	0.1
837.872	-0.46
838.041	0.87
838.211	1.48
838.381	-0.49
838.55	-0.67
838.72	1.49
838.89	0.55
839.059	-0.6
839.229	-0.42
839.398	1.08
839.568	-0.02
839.738	-0.47
839.907	0.16
840.077	0.2
840.246	-0.1
840.416	-0.11
840.585	-1.2
840.755	0.8
840.924	1.23
841.093	-0.94
841.263	0.32
841.432	-0.2
841.602	-1.35
841.771	-0.63
841.94	-0.22
842.11	0.63
842.279	1.15
842.448	-1.48
842.617	-0.9
842.787	1.19
842.956	-1.01
843.125	-0.52
843.294	0.03
843.464	1.03
843.633	-0.66
843.802	-1.43
843.971	-0.16
844.14	-0.09
844.309	0.72
844.479	-0.42
844.648	-0.42
844.817	-0.05
844.986	-0
845.155	-1.09
845.324	-0.57
845.493	0.51
845.662	-0.54
845.831	0.23
846	0.32
846.169	0
846.338	0.68
846.507	0.03
846.676	-0.01
846.844	-0.53
847.013	1.35
847.182	-0.27
847.351	-0.34
847.52	-0.58
847.689	0.92
847.858	-0.12
848.026	-1.48
848.195	0.87
848.364	-0.08
848.533	-1.05
848.701	-1.02
848.87	0.14
849.039	0.68
849.207	0.46
849.376	0.2
849.545	0.29
849.713	-0.21
849.882	-0.11
850.051	-0.74
850.219	0.5
850.388	0.17
850.556	-1.03
850.725	-1.09
850.893	0.58
851.062	-0.68
851.23	-0.31
851.399	-1.04
851.567	-0.23
851.736	-0.95
851.904	-0.82
852.073	0.64
852.241	0.51
852.41	-0.68
852.578	-0.29
852.746	-0.14
852.915	-0.37
853.083	-0.34
853.251	-1.76
853.42	-0.75
853.588	0.47
853.756	0.85
853.924	-0.22
854.093	-1.37
854.261	-1.6
854.429	-2.13
854.597	-0.62
854.765	-0.49
854.934	0.89
855.102	0.91
855.27	0.03
855.438	0.19
855.606	1.15
855.774	1.14
855.942	-2.51
856.11	-2.35
856.278	-0.55
856.446	1.91
856.614	0.67
856.782	-0.95
856.95	0.75
857.118	0.1
857.286	-0.01
857.454	-1.14
857.622	0.74
857.79	1.13
857.958	-1.82
858.126	-1.46
858.294	-2.55
858.462	0.22
858.629	-0.55
858.797	-1.2
858.965	0.75
859.133	-0.31
859.301	-0.71
859.468	0.32
859.636	-0.37
859.804	1.6
859.971	0.79
860.139	-1.17
860.307	-0.04
860.474	0.84
860.642	-1.02
860.81	-1.76
860.977	-1.03
861.145	0.13
861.313	-0.43
861.48	-0.22
861.648	1.32
861.815	-0.83
861.983	-0.84
862.15	-1.52
862.318	1.12
862.485	-0.2
862.653	-1.58
862.82	-1.19
862.988	1.96
863.155	0.19
863.322	-0.59
863.49	-2.06
863.657	-0.66
863.824	1.13
863.992	0.2
864.159	0.1
864.326	1.13
864.494	-0.48
864.661	2.27
864.828	-1.38
864.996	2.22
865.163	2.18
865.33	-1.11
865.497	-2.7
865.664	-1.16
865.832	-3.51
865.999	-2.08
866.166	-2.46
866.333	-1.65
866.5	-1.64
866.667	0.17
866.834	-0.97
867.001	1.72
867.168	-2.94
867.335	-0.9
867.502	-2.39
867.669	-0.75
867.836	1.82
868.003	-0.42
868.17	0.41
868.337	-1.5
868.504	2.07
868.671	-2.7
868.838	-1.92
869.005	0.89
869.172	1.71
869.339	-0.1
869.505	-0.94
869.672	0.55
869.839	1.2
870.006	0.07
870.173	-2.62
870.339	-0.34
870.506	2.6
870.673	-1.94
870.84	0.94
871.006	-1.51
871.173	0.09
871.34	-0.87
871.506	-0.55
871.673	-0.37
871.839	-1.49
872.006	0.81
872.173	-1.08
872.339	-0.82
872.506	0.19
872.672	-1.62
872.839	-0.96
873.005	0.19
873.172	3.29
873.338	0.49
873.505	0.33
873.671	-0.43
873.838	1.08
874.004	-2.68
874.171	-1.5
874.337	1.34
874.503	0.95
874.67	-0.44
874.836	-0.72
875.002	1.32
875.169	1.24
875.335	-1.84
875.501	-1.03
875.668	1.7
875.834	-2.17
876	-0.03
876.166	-0.46
876.332	1.77
876.499	3.73
876.665	-3.65
876.831	-1
876.997	2.15
877.163	0.16
877.329	-0.7
877.495	-0.36
877.662	-0.92
877.828	0.41
877.994	-0.64
878.16	-3.11
878.326	-0.95
878.492	1.34
878.658	0.36
878.824	-0.68
878.99	1.83
879.156	-1.76
879.322	1.97
879.487	-0.64
879.653	-1.02
879.819	0.61
879.985	-0.9
880.151	0.42
880.317	0.38
880.483	-1.17
880.648	1
880.814	-2.27
880.98	-0.48
881.146	-2.82
881.312	-2.9
881.477	-0.65
881.643	-0.12
881.809	2.72
881.974	1.7
882.14	-2.38
882.306	-1.2
882.471	1.01
882.637	-0.14
882.803	0.61
882.968	3.15
883.134	2.87
883.299	-1.86
883.465	-2.4
883.63	1.69
883.796	0.59
883.961	1.48
884.127	-0.1
884.292	-3.02
884.458	-3.28
884.623	-3.27
