Data from Apollo_Calib_20240827__AbsoluteIrradiance__102__00-51-01-636.txt Node

Date: Wed Aug 28 00:51:01 BST 2024
User: biology
Spectrometer: FLMT08252
Trigger mode: 0
Integration Time (sec): 5.000000E-1
Scans to average: 5
Electric dark correction enabled: true
Nonlinearity correction enabled: false
Boxcar width: 0
XAxis mode: Wavelengths
Number of Pixels in Spectrum: 3648
>>>>>Begin Spectral Data<<<<<
179.588	-0
179.809	-0
180.03	-0
180.251	-0
180.473	-0
180.694	0
180.915	0
181.136	-0
181.357	0
181.578	0
181.799	-0
182.02	-0
182.241	0
182.462	-0
182.683	0
182.904	-0
183.125	-0
183.346	0
183.567	0
183.788	-0
184.009	-0
184.23	0
184.451	-0
184.672	-0
184.892	-0
185.113	0
185.334	-0
185.555	-0
185.776	-0
185.996	0
186.217	0
186.438	0
186.659	-0
186.879	-0
187.1	-0
187.321	-0
187.541	-0
187.762	-0
187.983	0
188.203	0
188.424	0
188.644	-0
188.865	-0
189.086	-0
189.306	0
189.527	-0
189.747	0
189.968	-0
190.188	0
190.409	-0
190.629	0
190.849	-0
191.07	-0
191.29	0
191.511	0
191.731	-0
191.951	-0
192.172	-0
192.392	-0
192.612	0
192.833	0
193.053	0
193.273	0
193.493	-0
193.714	-0
193.934	0
194.154	0
194.374	0
194.594	-0
194.815	0
195.035	-0
195.255	0
195.475	-0
195.695	0
195.915	-0
196.135	-0
196.355	0
196.575	0
196.795	-0
197.015	-0
197.235	-0
197.455	0
197.675	0
197.895	-0
198.115	-0
198.335	0
198.555	-0
198.775	0
198.995	0
199.214	0
199.434	-0
199.654	-0
199.874	-0
200.094	0.97
200.313	-0.73
200.533	0.02
200.753	-0.71
200.973	0.71
201.192	0.09
201.412	-0.39
201.632	-0.22
201.851	0.62
202.071	-0.27
202.291	-0.53
202.51	-0.45
202.73	0.33
202.95	-0.63
203.169	-0.16
203.389	-0.11
203.608	-0.04
203.828	-0.7
204.047	-0.29
204.267	0.01
204.486	0.31
204.706	-0
204.925	-0.44
205.145	-0.35
205.364	0.26
205.583	0.65
205.803	-0.21
206.022	-0.24
206.242	0.11
206.461	-0.03
206.68	-0.58
206.9	0.21
207.119	0.55
207.338	0.34
207.557	-0.21
207.777	0.13
207.996	0.06
208.215	0.42
208.434	-0.15
208.654	-0.42
208.873	0.08
209.092	0.47
209.311	0.09
209.53	0.17
209.749	-0.04
209.968	-0.14
210.187	0.12
210.407	-0.39
210.626	-0.22
210.845	0.17
211.064	-0.09
211.283	-0.29
211.502	0.51
211.721	-0.08
211.94	-0.13
212.159	0.1
212.377	0.26
212.596	0.59
212.815	0.14
213.034	0.16
213.253	0.21
213.472	0.33
213.691	-0.09
213.91	-0.22
214.128	-0.12
214.347	0.23
214.566	-0.29
214.785	-0.52
215.003	0.02
215.222	0.16
215.441	-0.14
215.66	-0.16
215.878	-0.03
216.097	0.22
216.316	-0.24
216.534	-0.25
216.753	0.08
216.972	-0.06
217.19	-0.08
217.409	-0.29
217.627	-0.11
217.846	0.03
218.064	-0.07
218.283	-0.2
218.501	0.44
218.72	0.18
218.938	-0.19
219.157	-0.21
219.375	0.29
219.594	0.06
219.812	-0.16
220.031	0.04
220.249	0.28
220.467	0.18
220.686	-0.01
220.904	-0.21
221.122	-0.17
221.341	0.22
221.559	0.13
221.777	-0.22
221.995	0.11
222.214	-0
222.432	0.02
222.65	0.09
222.868	-0.04
223.086	0.14
223.305	0.04
223.523	0.02
223.741	0.21
223.959	-0.2
224.177	-0.24
224.395	-0.05
224.613	0.03
224.831	0.07
225.049	-0.13
225.267	-0.01
225.485	-0.1
225.703	0.03
225.921	-0.04
226.139	-0.12
226.357	0.13
226.575	0.1
226.793	-0.08
227.011	0.44
227.229	-0.08
227.447	0.02
227.665	-0.02
227.883	-0.17
228.1	0.07
228.318	0.07
228.536	-0.26
228.754	-0.23
228.972	0.06
229.189	0.03
229.407	-0.05
229.625	0
229.843	0.13
230.06	0.12
230.278	-0.2
230.496	0.05
230.713	0.03
230.931	0.11
231.149	0.03
231.366	-0.2
231.584	-0.09
231.801	0.32
232.019	0.04
232.236	-0.08
232.454	-0.08
232.671	0.06
232.889	-0.1
233.106	-0.25
233.324	-0.01
233.541	0.03
233.759	-0
233.976	-0.08
234.194	-0.02
234.411	-0.01
234.628	-0.08
234.846	-0.02
235.063	-0.01
235.28	-0.08
235.498	-0.04
235.715	-0.16
235.932	0.2
236.149	-0.09
236.367	-0.12
236.584	-0.04
236.801	-0.1
237.018	0.04
237.236	-0.03
237.453	-0.14
237.67	0.09
237.887	0.05
238.104	-0.04
238.321	-0.05
238.538	-0.11
238.755	0.09
238.973	-0.16
239.19	-0.01
239.407	0.04
239.624	0.09
239.841	-0.19
240.058	-0.09
240.275	0
240.492	-0.05
240.709	-0.03
240.925	-0.02
241.142	0.07
241.359	-0.05
241.576	-0.12
241.793	-0.07
242.01	0.02
242.227	0.06
242.444	0.02
242.66	-0
242.877	0
243.094	0.02
243.311	0.07
243.527	0.03
243.744	0.04
243.961	0.1
244.178	-0.13
244.394	0.02
244.611	0.07
244.828	0.14
245.044	-0.01
245.261	0.01
245.477	0.07
245.694	0
245.911	-0
246.127	0.03
246.344	0.15
246.56	0.07
246.777	-0.01
246.993	-0.04
247.21	-0.06
247.426	0.04
247.643	-0.1
247.859	-0.1
248.076	-0.07
248.292	0.15
248.508	-0.05
248.725	0.07
248.941	0.01
249.157	0.16
249.374	-0.07
249.59	-0.03
249.806	0.06
250.023	-0.01
250.239	-0.02
250.455	-0.03
250.671	-0.05
250.888	0.03
251.104	0.12
251.32	0
251.536	0.07
251.752	-0.02
251.969	0.08
252.185	0.03
252.401	0.1
252.617	0.01
252.833	-0.03
253.049	0.05
253.265	-0.08
253.481	0.02
253.697	-0.06
253.913	-0.04
254.129	0.07
254.345	-0
254.561	-0.07
254.777	-0
254.993	0.06
255.209	0.03
255.425	-0.06
255.641	-0.04
255.857	0.08
256.073	-0.04
256.288	-0.09
256.504	-0.06
256.72	0.01
256.936	0.13
257.152	-0.04
257.367	-0.09
257.583	-0.01
257.799	0.05
258.015	-0.08
258.23	-0.01
258.446	0.12
258.662	0.05
258.877	-0.04
259.093	-0.04
259.309	-0.02
259.524	0.03
259.74	-0.09
259.955	-0.09
260.171	0.04
260.387	-0.03
260.602	0.09
260.818	0.06
261.033	-0.1
261.249	-0.03
261.464	-0.09
261.68	-0.09
261.895	-0.01
262.11	0.03
262.326	-0.1
262.541	-0.1
262.757	0
262.972	-0
263.187	-0.01
263.403	-0.04
263.618	0.03
263.833	-0.07
264.049	-0.03
264.264	0.03
264.479	0.02
264.694	0.07
264.91	-0.05
265.125	0.01
265.34	0.04
265.555	0.07
265.77	0.01
265.986	-0.01
266.201	-0
266.416	0.1
266.631	-0.04
266.846	0.02
267.061	0.07
267.276	0.11
267.491	-0.12
267.706	0.04
267.921	0.01
268.136	0.05
268.351	-0.01
268.566	-0.02
268.781	0.13
268.996	0.05
269.211	0.02
269.426	-0.07
269.641	0.02
269.856	0.05
270.071	-0.1
270.285	-0.08
270.5	0.06
270.715	0.09
270.93	0
271.145	0.03
271.359	0.04
271.574	-0.03
271.789	-0.01
272.004	-0.02
272.218	0.01
272.433	0.06
272.648	-0.02
272.862	0.07
273.077	-0.03
273.292	0.01
273.506	-0.05
273.721	-0.01
273.936	0.04
274.15	0.05
274.365	0.01
274.579	0.01
274.794	0.06
275.008	0.06
275.223	-0.07
275.437	-0
275.652	0.06
275.866	0.04
276.081	-0
276.295	0.09
276.509	-0.05
276.724	-0
276.938	0.03
277.153	0.02
277.367	0.04
277.581	-0.02
277.796	-0.03
278.01	-0.03
278.224	0.11
278.438	0.12
278.653	-0.02
278.867	-0.08
279.081	0.01
279.295	0.03
279.51	0.04
279.724	-0.06
279.938	0.06
280.152	0.02
280.366	-0.06
280.58	-0
280.794	0.04
281.008	0.02
281.222	0.04
281.437	0.16
281.651	0.01
281.865	0.07
282.079	0
282.293	-0.11
282.507	-0.06
282.721	-0.05
282.935	-0.02
283.148	-0.11
283.362	-0.05
283.576	-0.05
283.79	-0.02
284.004	-0.09
284.218	0.07
284.432	-0.04
284.646	-0.03
284.859	-0.05
285.073	0.03
285.287	0.06
285.501	-0.01
285.714	-0.01
285.928	-0.03
286.142	0.01
286.356	-0.05
286.569	-0.02
286.783	0.05
286.997	0.05
287.21	-0
287.424	-0.01
287.637	-0.04
287.851	-0
288.065	0.08
288.278	0
288.492	0.01
288.705	0
288.919	0.03
289.132	-0.06
289.346	0.05
289.559	-0.04
289.773	-0.07
289.986	-0
290.2	-0.02
290.413	0.04
290.626	-0.02
290.84	-0.04
291.053	0.01
291.267	0.04
291.48	0.04
291.693	0.03
291.906	-0.02
292.12	-0.04
292.333	-0.07
292.546	0.01
292.76	0.09
292.973	0.04
293.186	0.04
293.399	-0.02
293.612	0.08
293.826	-0.02
294.039	-0.01
294.252	-0.01
294.465	0.02
294.678	0.02
294.891	0.02
295.104	-0.03
295.317	0.01
295.53	0.01
295.743	-0.01
295.956	0
296.169	0.04
296.382	0.03
296.595	0
296.808	-0.05
297.021	0.06
297.234	0.04
297.447	0.04
297.66	0.03
297.873	0.05
298.086	0.01
298.299	0.02
298.511	-0.02
298.724	0.01
298.937	-0.02
299.15	-0
299.363	-0.01
299.575	0.05
299.788	0.03
300.001	0.02
300.213	0.04
300.426	-0.01
300.639	-0.05
300.852	-0.05
301.064	0.01
301.277	0.04
301.489	0.07
301.702	0.02
301.915	-0.02
302.127	0
302.34	-0.01
302.552	0.01
302.765	-0.01
302.977	0.02
303.19	-0.01
303.402	-0
303.615	0.01
303.827	-0
304.04	-0
304.252	-0.01
304.464	0.01
304.677	0.08
304.889	0.03
305.102	-0
305.314	-0.02
305.526	0.03
305.739	0.04
305.951	0.01
306.163	0.01
306.375	0.08
306.588	-0.02
306.8	0
307.012	-0.06
307.224	-0.02
307.436	0.1
307.649	-0.06
307.861	0.04
308.073	0.01
308.285	0.02
308.497	-0.03
308.709	0.01
308.921	0.01
309.133	0.05
309.346	0.02
309.558	-0.02
309.77	0.03
309.982	0.05
310.194	0.06
310.406	-0.02
310.617	0.07
310.829	0.04
311.041	0.06
311.253	-0.03
311.465	-0.01
311.677	0.01
311.889	0
312.101	-0.01
312.313	0.06
312.524	0.05
312.736	-0.02
312.948	-0
313.16	0.06
313.372	0.02
313.583	0.04
313.795	-0.01
314.007	-0.01
314.218	0.07
314.43	-0.01
314.642	0.01
314.853	0.03
315.065	0.06
315.277	0.01
315.488	0.02
315.7	0.05
315.912	0.03
316.123	-0.06
316.335	-0.02
316.546	0.1
316.758	0.01
316.969	-0
317.181	0.03
317.392	0.03
317.604	0.02
317.815	0
318.026	-0.03
318.238	-0.05
318.449	-0.01
318.661	-0.06
318.872	-0.04
319.083	-0.04
319.295	0.02
319.506	0.01
319.717	0
319.929	0.07
320.14	0.02
320.351	0.02
320.562	0.02
320.774	0.02
320.985	0.04
321.196	-0.02
321.407	-0.03
321.618	-0
321.829	0.02
322.041	0.05
322.252	0.05
322.463	0.01
322.674	0.04
322.885	-0.04
323.096	0.01
323.307	-0
323.518	0.04
323.729	-0.02
323.94	-0.02
324.151	-0.05
324.362	0.01
324.573	0.02
324.784	-0.02
324.995	0.05
325.206	0
325.417	-0.06
325.628	0.02
325.838	0.03
326.049	0
326.26	0.03
326.471	-0
326.682	0.05
326.892	-0.01
327.103	-0.07
327.314	-0.02
327.525	0.06
327.735	0.03
327.946	-0.04
328.157	-0.04
328.368	0.06
328.578	-0.02
328.789	0.02
328.999	0.01
329.21	-0.01
329.421	0.02
329.631	-0.02
329.842	-0.03
330.052	0.04
330.263	0.08
330.473	0.06
330.684	0.01
330.894	0.01
331.105	0.01
331.315	0.05
331.526	-0.04
331.736	0.09
331.947	0.02
332.157	-0.01
332.367	-0.03
332.578	0
332.788	0.11
332.999	0.05
333.209	0.02
333.419	0
333.629	0.03
333.84	0.07
334.05	-0.01
334.26	0.07
334.47	0.02
334.681	0.05
334.891	-0.02
335.101	0.03
335.311	0.07
335.521	0.04
335.732	-0.06
335.942	0.08
336.152	0.03
336.362	0.02
336.572	0.02
336.782	0.05
336.992	0.01
337.202	-0.01
337.412	-0.03
337.622	0.01
337.832	0.01
338.042	0.02
338.252	-0.06
338.462	-0.03
338.672	0.04
338.882	-0.03
339.092	-0.02
339.302	0.02
339.511	-0.01
339.721	-0.05
339.931	-0.04
340.141	0.03
340.351	0.08
340.561	0.04
340.77	0.01
340.98	0.01
341.19	0.01
341.4	-0.04
341.609	-0.04
341.819	0.01
342.029	-0.01
342.238	0.01
342.448	0.01
342.658	0.08
342.867	0.02
343.077	0.05
343.286	0.05
343.496	0.03
343.706	0.02
343.915	-0.01
344.125	-0.02
344.334	0.04
344.544	-0.05
344.753	0.02
344.963	0.01
345.172	-0.01
345.381	-0
345.591	-0.05
345.8	0.03
346.01	0.02
346.219	0.09
346.428	-0.13
346.638	0.02
346.847	0.02
347.056	0.07
347.266	-0.01
347.475	0.06
347.684	0.03
347.893	0
348.103	-0.01
348.312	-0.01
348.521	-0
348.73	-0.01
348.94	0.04
349.149	-0.01
349.358	0.02
349.567	-0.03
349.776	-0.02
349.985	-0.01
350.194	0.05
350.403	0.06
350.612	-0.02
350.821	-0.02
351.03	0.02
351.239	-0.04
351.448	0.04
351.657	-0.01
351.866	0.07
352.075	-0
352.284	0.04
352.493	-0.02
352.702	0.08
352.911	0.01
353.12	0.02
353.329	-0.02
353.538	0.03
353.746	0.02
353.955	-0.02
354.164	0.07
354.373	0
354.582	0.03
354.79	0.05
354.999	0.03
355.208	0.02
355.416	0.07
355.625	-0.01
355.834	-0.01
356.042	0.04
356.251	-0.05
356.46	-0.05
356.668	0.06
356.877	0.09
357.085	0.08
357.294	-0.07
357.503	0.03
357.711	-0.03
357.92	0.13
358.128	0.01
358.337	-0.01
358.545	0.05
358.754	0.01
358.962	0.01
359.17	0.02
359.379	0.01
359.587	0.04
359.796	0.03
360.004	0.05
360.212	0.02
360.421	0.04
360.629	0.03
360.837	-0.02
361.046	0.05
361.254	0.08
361.462	0.03
361.67	0.01
361.879	0.05
362.087	0.05
362.295	-0
362.503	0.01
362.711	-0
362.92	-0.03
363.128	0.01
363.336	-0.04
363.544	-0.07
363.752	-0.02
363.96	0.01
364.168	-0.03
364.376	0.02
364.584	0
364.792	0.02
365	0.06
365.208	0.04
365.416	0.05
365.624	0.06
365.832	-0.01
366.04	0.1
366.248	0.04
366.456	0.04
366.664	0.09
366.872	0.05
367.079	0.02
367.287	0.09
367.495	0.07
367.703	0.04
367.911	0.05
368.118	0.06
368.326	0.08
368.534	0.01
368.742	0.1
368.949	0.04
369.157	0.05
369.365	0.1
369.572	0.11
369.78	0.1
369.988	0.17
370.195	0.17
370.403	0.2
370.61	0.14
370.818	0.2
371.026	0.28
371.233	0.21
371.441	0.22
371.648	0.21
371.856	0.3
372.063	0.32
372.271	0.28
372.478	0.32
372.685	0.33
372.893	0.43
373.1	0.39
373.308	0.44
373.515	0.56
373.722	0.52
373.93	0.48
374.137	0.59
374.344	0.7
374.552	0.63
374.759	0.69
374.966	0.72
375.173	0.72
375.381	0.8
375.588	0.85
375.795	0.79
376.002	0.89
376.209	0.9
376.417	1
376.624	1.06
376.831	1.1
377.038	1.13
377.245	1.15
377.452	1.26
377.659	1.38
377.866	1.36
378.073	1.51
378.28	1.54
378.487	1.66
378.694	1.72
378.901	1.77
379.108	1.84
379.315	1.94
379.522	2.06
379.729	2.08
379.936	2.2
380.143	2.27
380.35	2.32
380.557	2.47
380.763	2.53
380.97	2.62
381.177	2.71
381.384	2.84
381.591	2.93
381.797	2.91
382.004	3.01
382.211	3.14
382.418	3.22
382.624	3.23
382.831	3.2
383.038	3.27
383.244	3.25
383.451	3.23
383.658	3.18
383.864	3.29
384.071	3.15
384.277	3.18
384.484	3.1
384.69	3.07
384.897	2.95
385.103	2.91
385.31	2.81
385.516	2.68
385.723	2.55
385.929	2.6
386.136	2.34
386.342	2.38
386.549	2.25
386.755	2.15
386.961	2.11
387.168	2.01
387.374	1.91
387.58	1.85
387.787	1.79
387.993	1.74
388.199	1.59
388.406	1.51
388.612	1.45
388.818	1.35
389.024	1.29
389.231	1.33
389.437	1.37
389.643	1.33
389.849	1.18
390.055	1.23
390.261	1.07
390.467	1.14
390.674	1.08
390.88	1.03
391.086	0.97
391.292	0.92
391.498	0.99
391.704	0.91
391.91	0.94
392.116	0.86
392.322	0.74
392.528	0.83
392.734	0.75
392.94	0.75
393.146	0.68
393.352	0.73
393.557	0.67
393.763	0.63
393.969	0.67
394.175	0.64
394.381	0.63
394.587	0.5
394.792	0.55
394.998	0.61
395.204	0.59
395.41	0.49
395.615	0.5
395.821	0.52
396.027	0.48
396.233	0.43
396.438	0.45
396.644	0.49
396.85	0.46
397.055	0.34
397.261	0.38
397.466	0.31
397.672	0.34
397.878	0.34
398.083	0.33
398.289	0.29
398.494	0.33
398.7	0.3
398.905	0.2
399.111	0.29
399.316	0.25
399.522	0.22
399.727	0.22
399.932	0.24
400.138	0.21
400.343	0.27
400.549	0.23
400.754	0.22
400.959	0.23
401.165	0.24
401.37	0.21
401.575	0.12
401.78	0.2
401.986	0.19
402.191	0.17
402.396	0.16
402.601	0.23
402.807	0.21
403.012	0.18
403.217	0.22
403.422	0.18
403.627	0.23
403.832	0.15
404.037	0.18
404.243	0.2
404.448	0.12
404.653	0.16
404.858	0.23
405.063	0.18
405.268	0.1
405.473	0.08
405.678	0.12
405.883	0.26
406.088	0.16
406.293	0.05
406.498	0.1
406.703	0.13
406.907	0.11
407.112	0.1
407.317	0.14
407.522	0.11
407.727	0.08
407.932	0.12
408.136	0.23
408.341	0.08
408.546	0.05
408.751	0.11
408.956	0.1
409.16	0.15
409.365	0.14
409.57	0.08
409.774	0.08
409.979	0.12
410.184	0.1
410.388	0.09
410.593	0.13
410.798	0.05
411.002	0.07
411.207	0.12
411.411	0.05
411.616	0.07
411.82	0.02
412.025	0.12
412.229	0.04
412.434	0.13
412.638	0.07
412.843	0.05
413.047	0.07
413.252	0.06
413.456	0.08
413.66	0.09
413.865	0.04
414.069	0.09
414.273	0.04
414.478	0.06
414.682	0.01
414.886	0
415.091	0
415.295	-0.01
415.499	0.11
415.703	0.07
415.908	0.09
416.112	0.04
416.316	0.07
416.52	0.02
416.724	0.02
416.929	-0.01
417.133	0.13
417.337	0.03
417.541	0.05
417.745	0.07
417.949	0.04
418.153	0.03
418.357	-0.01
418.561	0.15
418.765	0.02
418.969	0.11
419.173	0.08
419.377	0.02
419.581	0.1
419.785	0.06
419.989	0.01
420.193	-0.02
420.397	0.02
420.601	0.13
420.804	0.1
421.008	0.06
421.212	0.05
421.416	0.08
421.62	0.02
421.823	0.03
422.027	0.12
422.231	0.08
422.435	0.04
422.638	0.04
422.842	0.07
423.046	-0.02
423.249	0.08
423.453	0.06
423.657	0.05
423.86	0.02
424.064	0.04
424.268	0.08
424.471	0.07
424.675	0.12
424.878	0.08
425.082	0.08
425.285	0.06
425.489	0.03
425.692	0.06
425.896	0.02
426.099	0.09
426.303	-0.03
426.506	0.01
426.71	0.09
426.913	0.12
427.116	0.09
427.32	0.05
427.523	0.04
427.726	0.1
427.93	0.04
428.133	0.02
428.336	0
428.54	-0.01
428.743	0.04
428.946	0.09
429.149	-0
429.353	0.09
429.556	0.02
429.759	0.02
429.962	-0.01
430.165	0.07
430.368	0.07
430.571	0.02
430.775	0.04
430.978	0.03
431.181	0.11
431.384	0.05
431.587	0.01
431.79	0.05
431.993	0.09
432.196	0.02
432.399	-0.01
432.602	0.08
432.805	0.05
433.008	0.04
433.211	-0.01
433.414	0.05
433.616	0.04
433.819	0.02
434.022	-0.05
434.225	0.1
434.428	0.14
434.631	0.13
434.833	0.04
435.036	0.08
435.239	0.13
435.442	0.06
435.645	0.06
435.847	0.06
436.05	0.1
436.253	0.08
436.455	0.04
436.658	0.06
436.861	0.15
437.063	0.05
437.266	0.06
437.468	0.08
437.671	0.14
437.874	0.06
438.076	-0.01
438.279	-0.02
438.481	0.09
438.684	0.01
438.886	0.07
439.089	0
439.291	0.1
439.494	0.06
439.696	0.03
439.899	0.08
440.101	0.05
440.303	-0.02
440.506	0.13
440.708	0.07
440.91	0.09
441.113	0
441.315	0.08
441.517	0.05
441.72	0.14
441.922	0.06
442.124	-0
442.326	0.06
442.529	0.08
442.731	0.07
442.933	0.13
443.135	0.07
443.337	0.03
443.539	0.05
443.742	0.05
443.944	0.11
444.146	0.07
444.348	0.06
444.55	0.03
444.752	0.06
444.954	0.02
445.156	0.09
445.358	0.07
445.56	0.13
445.762	0.04
445.964	0.13
446.166	0.08
446.368	0.03
446.57	0.12
446.772	0.08
446.974	0.07
447.175	0.07
447.377	0.09
447.579	0.1
447.781	0.02
447.983	0.16
448.184	0.08
448.386	0.09
448.588	0.03
448.79	0.12
448.991	0.11
449.193	0.11
449.395	0.08
449.597	0.11
449.798	0.07
450	0.09
450.202	0.1
450.403	0.12
450.605	0.15
450.806	0.07
451.008	-0
451.21	0.11
451.411	0.1
451.613	0.06
451.814	0.1
452.016	0.13
452.217	0.08
452.419	0.08
452.62	0.09
452.821	0.12
453.023	0.16
453.224	0.13
453.426	0.07
453.627	0.05
453.828	0.1
454.03	0.05
454.231	0.12
454.432	0.01
454.634	0.17
454.835	0.08
455.036	0.03
455.238	0.11
455.439	0.19
455.64	0
455.841	0.08
456.042	0.11
456.244	0.1
456.445	0.09
456.646	-0.03
456.847	0.04
457.048	0.1
457.249	0.12
457.45	0.23
457.651	-0.03
457.852	0.08
458.054	0.06
458.255	0.06
458.456	0.05
458.657	0.04
458.858	-0
459.058	0.08
459.259	0.09
459.46	0.03
459.661	-0
459.862	0.16
460.063	0.06
460.264	0.1
460.465	-0.02
460.666	0.14
460.866	0.02
461.067	0.03
461.268	-0.01
461.469	0.05
461.67	0.01
461.87	0.04
462.071	-0.01
462.272	0
462.473	0.05
462.673	0.06
462.874	0.01
463.075	0.04
463.275	-0.01
463.476	0.05
463.676	0.05
463.877	0.04
464.078	0.01
464.278	0.05
464.479	0.03
464.679	0.04
464.88	0.08
465.08	0.06
465.281	-0
465.481	0.02
465.682	0.01
465.882	0.08
466.083	0.02
466.283	0.07
466.483	0.03
466.684	-0.06
466.884	0.01
467.085	-0
467.285	0.07
467.485	-0.01
467.686	0
467.886	-0.03
468.086	0.03
468.286	-0
468.487	0.06
468.687	-0.04
468.887	0.01
469.087	0.07
469.287	0.04
469.488	-0.03
469.688	0.06
469.888	0.07
470.088	0.08
470.288	0.08
470.488	0.05
470.688	-0.04
470.888	0.02
471.088	-0.02
471.288	0.07
471.488	-0
471.688	0.06
471.888	0.01
472.088	0.07
472.288	0.07
472.488	-0.07
472.688	0.03
472.888	0.02
473.088	0.01
473.288	0.02
473.488	0.03
473.688	0.07
473.887	-0
474.087	0.03
474.287	0.01
474.487	0
474.687	0.02
474.886	0.01
475.086	-0.01
475.286	0
475.486	0.02
475.685	0.02
475.885	0.02
476.085	0.02
476.284	0.06
476.484	0.04
476.684	0.04
476.883	0.07
477.083	0.03
477.282	-0.01
477.482	0.07
477.681	0.07
477.881	0.04
478.08	-0
478.28	0
478.479	0.02
478.679	0.07
478.878	-0.01
479.078	0.01
479.277	0.02
479.477	-0
479.676	0.03
479.875	-0.02
480.075	-0.05
480.274	0.04
480.473	0.05
480.673	0.01
480.872	0.04
481.071	0.01
481.271	0.04
481.47	0.01
481.669	-0.02
481.868	-0.04
482.067	-0.03
482.267	-0.01
482.466	-0.01
482.665	-0
482.864	-0.03
483.063	-0.03
483.262	0.02
483.461	0.07
483.661	0.04
483.86	-0.01
484.059	0.02
484.258	0.03
484.457	0.01
484.656	-0.01
484.855	0.04
485.054	-0.04
485.253	-0.02
485.452	-0.01
485.651	0.01
485.849	0
486.048	-0.01
486.247	-0
486.446	0.02
486.645	-0.01
486.844	-0.01
487.043	-0
487.241	0.04
487.44	-0
487.639	0.01
487.838	0.02
488.037	0.03
488.235	0.05
488.434	0
488.633	0
488.831	0.02
489.03	0.05
489.229	0.03
489.427	0.01
489.626	0.03
489.825	0.06
490.023	0
490.222	0.01
490.42	0.02
490.619	0.04
490.817	0.02
491.016	-0
491.214	0.05
491.413	-0.02
491.611	0.01
491.81	-0
492.008	0.02
492.207	0.05
492.405	0.02
492.604	-0.01
492.802	-0.01
493	-0
493.199	-0.02
493.397	0.03
493.595	0.02
493.794	-0.02
493.992	0.04
494.19	0.01
494.388	0.04
494.587	-0.02
494.785	0.01
494.983	-0.02
495.181	0.01
495.379	-0
495.578	0
495.776	0.03
495.974	0.01
496.172	0.01
496.37	0
496.568	-0.03
496.766	-0.02
496.964	0.06
497.162	0.02
497.36	-0.01
497.558	0.03
497.756	0.02
497.954	0
498.152	-0.01
498.35	0
498.548	0.01
498.746	0.02
498.944	-0.01
499.142	-0
499.34	-0.03
499.538	0.02
499.736	-0.02
499.933	0.04
500.131	0.05
500.329	-0.01
500.527	0.03
500.725	0.06
500.922	0.03
501.12	0.02
501.318	0
501.516	-0.02
501.713	0.01
501.911	-0
502.109	-0.02
502.306	0.02
502.504	-0.02
502.701	-0.03
502.899	0.01
503.097	0.04
503.294	0.04
503.492	-0.01
503.689	0
503.887	0.02
504.084	0.05
504.282	0.01
504.479	-0.02
504.677	-0.01
504.874	-0.02
505.072	0.03
505.269	0
505.466	0.01
505.664	0.01
505.861	-0.04
506.059	-0.02
506.256	0.01
506.453	-0
506.651	0.06
506.848	0.03
507.045	0.02
507.242	0.03
507.44	-0.02
507.637	0
507.834	-0.01
508.031	0.04
508.229	-0.02
508.426	0.01
508.623	0.02
508.82	0.01
509.017	-0.02
509.214	0
509.411	0.02
509.608	-0.03
509.805	-0.02
510.003	-0.01
510.2	-0.01
510.397	0.04
510.594	-0.01
510.791	-0.02
510.988	0.01
511.184	0.02
511.381	-0.01
511.578	-0.01
511.775	0.05
511.972	-0.02
512.169	-0
512.366	-0.01
512.563	0.03
512.76	-0
512.956	0.02
513.153	-0
513.35	0.02
513.547	-0
513.744	-0.02
513.94	-0.01
514.137	0.03
514.334	0.02
514.53	-0.01
514.727	-0.01
514.924	0.03
515.12	-0.01
515.317	-0.02
515.514	-0.01
515.71	-0.02
515.907	0.01
516.103	0.01
516.3	0.03
516.497	0.03
516.693	0.01
516.89	-0
517.086	-0.04
517.283	0.03
517.479	0.01
517.676	-0
517.872	-0.02
518.068	-0.02
518.265	0.02
518.461	-0
518.658	0
518.854	0.02
519.05	-0.02
519.247	-0.02
519.443	0.04
519.639	0.01
519.836	-0.01
520.032	0.01
520.228	0.01
520.424	0.05
520.621	0.02
520.817	-0.01
521.013	0.02
521.209	0.03
521.405	0.04
521.601	0.01
521.798	0
521.994	0.05
522.19	-0.01
522.386	-0.05
522.582	-0.01
522.778	0.01
522.974	-0.01
523.17	0.02
523.366	0
523.562	0.01
523.758	0
523.954	0.01
524.15	-0.01
524.346	0.03
524.542	-0
524.738	-0.02
524.934	0.01
525.129	-0
525.325	0.03
525.521	-0.01
525.717	0.02
525.913	0.01
526.109	-0
526.304	-0.01
526.5	0.01
526.696	0.02
526.892	0.01
527.087	0.03
527.283	-0.01
527.479	0.02
527.674	-0.02
527.87	0
528.066	-0.01
528.261	0.02
528.457	-0
528.653	0
528.848	-0.01
529.044	0.02
529.239	-0
529.435	0.02
529.63	0.01
529.826	0.03
530.021	0.02
530.217	0.02
530.412	0
530.608	0.01
530.803	0.03
530.999	0.01
531.194	-0.04
531.389	-0.01
531.585	-0.03
531.78	0
531.975	0.01
532.171	0
532.366	0
532.561	-0
532.757	-0.01
532.952	0.01
533.147	0.03
533.342	0.01
533.538	-0
533.733	0.01
533.928	0.01
534.123	0
534.318	-0.04
534.513	-0.01
534.709	0.01
534.904	0
535.099	0.01
535.294	-0.01
535.489	0
535.684	0.01
535.879	-0.01
536.074	0
536.269	-0.01
536.464	0
536.659	0.03
536.854	0
537.049	0.01
537.244	0.01
537.439	-0.03
537.634	0.03
537.828	-0
538.023	-0
538.218	-0
538.413	0.01
538.608	-0.02
538.803	0.03
538.997	-0.03
539.192	0.02
539.387	0
539.582	0.02
539.776	0
539.971	-0.03
540.166	0
540.36	-0.02
540.555	0.01
540.75	-0.01
540.944	0.01
541.139	-0.03
541.334	-0
541.528	0.02
541.723	0.02
541.917	-0
542.112	-0.02
542.306	-0.01
542.501	-0
542.695	0.03
542.89	-0.01
543.084	0.03
543.279	-0.01
543.473	-0
543.668	-0.01
543.862	0
544.056	0.01
544.251	0.01
544.445	0.01
544.64	0.01
544.834	-0.01
545.028	0.02
545.222	0
545.417	0.01
545.611	-0.01
545.805	0
546	0.01
546.194	-0
546.388	-0.01
546.582	0.02
546.776	0.01
546.97	-0.01
547.165	0.03
547.359	0.02
547.553	-0.03
547.747	-0.01
547.941	-0
548.135	0.02
548.329	0.04
548.523	0.01
548.717	-0.01
548.911	-0.02
549.105	0.02
549.299	-0.02
549.493	0.05
549.687	0.02
549.881	0.02
550.075	-0.01
550.269	-0.03
550.463	0.03
550.657	-0.01
550.85	-0.01
551.044	-0.01
551.238	0.02
551.432	-0.02
551.626	-0.02
551.82	0.02
552.013	-0.02
552.207	-0
552.401	0.04
552.594	0.01
552.788	-0.01
552.982	0.01
553.176	0
553.369	0.01
553.563	-0.03
553.756	-0.03
553.95	-0
554.144	-0
554.337	0.01
554.531	0.01
554.724	0.01
554.918	-0
555.111	0.04
555.305	0.01
555.498	0.04
555.692	0.02
555.885	0.01
556.079	0.03
556.272	-0.01
556.466	0.04
556.659	0
556.852	0.01
557.046	-0.01
557.239	0.04
557.432	-0.03
557.626	-0.01
557.819	0.02
558.012	0.03
558.206	0.02
558.399	-0
558.592	0.02
558.785	-0.01
558.979	0.02
559.172	0.02
559.365	0.03
559.558	-0.01
559.751	0
559.944	0.02
560.138	0.01
560.331	-0.02
560.524	0
560.717	-0.01
560.91	-0.01
561.103	0.03
561.296	-0
561.489	0.02
561.682	0.02
561.875	0.04
562.068	0.03
562.261	0.02
562.454	0.02
562.647	0.01
562.84	0.03
563.032	-0.01
563.225	0.01
563.418	-0
563.611	0
563.804	-0
563.997	-0.02
564.19	-0.04
564.382	-0.02
564.575	-0
564.768	0.02
564.961	0.01
565.153	-0
565.346	0.02
565.539	0.03
565.731	0.03
565.924	0.03
566.117	0.02
566.309	0.01
566.502	0.01
566.695	-0
566.887	0.03
567.08	-0.01
567.272	0.01
567.465	0.03
567.657	0
567.85	0.01
568.042	0.02
568.235	0.02
568.427	0.01
568.62	0.02
568.812	0.02
569.005	-0
569.197	-0.02
569.389	-0.01
569.582	0.02
569.774	0.01
569.966	-0.02
570.159	-0.04
570.351	-0.01
570.543	-0.02
570.736	0.02
570.928	-0.01
571.12	0
571.312	-0.02
571.505	-0.03
571.697	0.02
571.889	-0.02
572.081	-0.03
572.273	-0.01
572.465	0.04
572.658	0
572.85	0.02
573.042	0.02
573.234	0.01
573.426	0.05
573.618	-0.01
573.81	0.01
574.002	0.03
574.194	0.03
574.386	-0.02
574.578	-0.07
574.77	-0.01
574.962	0
575.154	-0.04
575.346	-0.01
575.538	0.01
575.729	-0.02
575.921	-0.01
576.113	0
576.305	0.02
576.497	-0.02
576.689	-0.01
576.88	-0
577.072	0
577.264	0.02
577.456	0
577.647	-0.05
577.839	-0.03
578.031	0.02
578.223	-0.02
578.414	-0.04
578.606	-0
578.798	-0
578.989	-0
579.181	0.04
579.372	-0.01
579.564	-0.01
579.755	0.03
579.947	-0.01
580.139	0
580.33	-0.04
580.522	-0.03
580.713	-0.06
580.905	0.01
581.096	0.01
581.287	0.03
581.479	-0.02
581.67	0.02
581.862	0
582.053	-0
582.244	-0.03
582.436	-0.02
582.627	0.03
582.818	-0.02
583.01	-0.03
583.201	0.03
583.392	0.02
583.583	0.02
583.775	-0.01
583.966	-0.02
584.157	-0.02
584.348	-0.01
584.54	-0.03
584.731	0.02
584.922	-0
585.113	0
585.304	0.02
585.495	0.01
585.686	0.02
585.877	-0
586.068	0.02
586.259	0.04
586.45	0.01
586.641	0.01
586.832	-0.04
587.023	0.02
587.214	0.01
587.405	0.02
587.596	-0
587.787	0.02
587.978	0.01
588.169	-0.01
588.36	-0.03
588.551	0
588.742	-0.01
588.932	0.01
589.123	0.02
589.314	0.03
589.505	0
589.696	0.01
589.886	-0.01
590.077	-0.03
590.268	0.02
590.458	-0.03
590.649	-0.04
590.84	0.04
591.03	-0.03
591.221	-0.04
591.412	-0.02
591.602	0.02
591.793	0.01
591.984	-0.03
592.174	-0.01
592.365	0.06
592.555	-0.02
592.746	0.02
592.936	0.01
593.127	0.02
593.317	0.03
593.508	-0.02
593.698	-0.02
593.889	0.01
594.079	0
594.269	0
594.46	-0.02
594.65	-0.01
594.84	-0.02
595.031	-0.02
595.221	-0.01
595.411	-0.03
595.602	0.01
595.792	-0.03
595.982	-0.02
596.172	0.01
596.363	0
596.553	-0.02
596.743	-0.01
596.933	0
597.123	0.03
597.314	-0.03
597.504	-0.01
597.694	0.05
597.884	0.02
598.074	0
598.264	-0.02
598.454	0.02
598.644	0
598.834	-0
599.024	-0.04
599.214	0.01
599.404	0.03
599.594	-0
599.784	-0.04
599.974	0.04
600.164	-0.01
600.354	-0.05
600.544	-0.04
600.734	-0.02
600.924	0.03
601.114	-0.03
601.303	0
601.493	0.01
601.683	-0.02
601.873	0.01
602.063	-0.05
602.252	0.04
602.442	-0.03
602.632	-0.01
602.821	-0.03
603.011	0.02
603.201	-0
603.39	-0.05
603.58	-0.01
603.77	0
603.959	0.01
604.149	-0
604.339	-0
604.528	0.01
604.718	0.01
604.907	-0.03
605.097	-0
605.286	0
605.476	0.05
605.665	0.03
605.855	-0.01
606.044	0.03
606.234	0.02
606.423	-0.02
606.612	-0.03
606.802	0.03
606.991	0.03
607.181	-0
607.37	-0.05
607.559	-0.03
607.749	-0.06
607.938	0.01
608.127	-0
608.316	-0.02
608.506	0.03
608.695	-0.03
608.884	-0.01
609.073	0.03
609.263	0.01
609.452	-0
609.641	0.02
609.83	-0.02
610.019	0
610.208	-0.01
610.397	-0.01
610.586	-0.01
610.775	-0.02
610.965	-0
611.154	-0.01
611.343	-0.01
611.532	-0.04
611.721	-0.03
611.91	-0.04
612.099	0.01
612.287	-0.01
612.476	-0.02
612.665	0.02
612.854	-0.03
613.043	0.02
613.232	-0.03
613.421	-0.03
613.61	0.03
613.798	-0.01
613.987	0.01
614.176	-0.02
614.365	0.01
614.554	0.02
614.742	0.03
614.931	-0.06
615.12	0.04
615.309	0.01
615.497	0.01
615.686	-0.01
615.875	-0.02
616.063	-0.02
616.252	-0.02
616.44	-0.02
616.629	0
616.818	0.03
617.006	-0.01
617.195	-0.02
617.383	0.02
617.572	-0.02
617.76	-0.04
617.949	-0
618.137	-0.02
618.326	0.02
618.514	-0.01
618.703	-0.03
618.891	0.06
619.079	-0.04
619.268	0.02
619.456	-0.02
619.644	0.04
619.833	-0.01
620.021	-0.02
620.209	-0.06
620.398	0.02
620.586	0.02
620.774	0.02
620.962	0.02
621.151	0.03
621.339	0
621.527	-0.04
621.715	-0.04
621.903	-0.06
622.092	-0.06
622.28	0.03
622.468	-0.01
622.656	0
622.844	0.04
623.032	-0.03
623.22	-0.05
623.408	0.02
623.596	0.02
623.784	0.05
623.972	0
624.16	-0.06
624.348	0.06
624.536	-0.01
624.724	0.01
624.912	0.05
625.1	0
625.288	-0.01
625.476	0.01
625.664	0.04
625.851	-0.02
626.039	0
626.227	0.02
626.415	0
626.603	-0.05
626.79	0.02
626.978	-0.03
627.166	0.03
627.354	0
627.541	-0.02
627.729	-0.06
627.917	0.04
628.104	0.03
628.292	0.01
628.48	0.03
628.667	-0.01
628.855	0.02
629.042	0.02
629.23	0.01
629.418	0.02
629.605	-0.01
629.793	0.01
629.98	-0.04
630.168	-0.01
630.355	-0
630.543	0
630.73	-0.03
630.917	0.03
631.105	0.05
631.292	-0.03
631.48	-0
631.667	0.06
631.854	0.02
632.042	0.01
632.229	-0.02
632.416	-0.01
632.604	-0.01
632.791	-0.04
632.978	0.05
633.165	-0
633.353	0.06
633.54	0.01
633.727	-0.03
633.914	0
634.101	-0.08
634.289	0.08
634.476	-0.02
634.663	0
634.85	0.02
635.037	-0.03
635.224	-0.02
635.411	0.06
635.598	0.04
635.785	-0.01
635.972	0.01
636.159	0.04
636.346	0.01
636.533	0.03
636.72	0.01
636.907	0.01
637.094	0.03
637.281	0
637.468	0
637.655	0.05
637.842	0.01
638.029	-0.03
638.215	0.05
638.402	-0
638.589	0.01
638.776	0.02
638.963	0
639.149	0.05
639.336	0.06
639.523	0.03
639.709	0.03
639.896	0.02
640.083	0.07
640.27	0.03
640.456	0.01
640.643	0.03
640.829	-0.02
641.016	0.03
641.203	-0.02
641.389	0.03
641.576	0.07
641.762	0.02
641.949	0.01
642.135	0.04
642.322	0.06
642.508	-0.02
642.695	0.04
642.881	0.02
643.068	0.01
643.254	0.05
643.441	0.04
643.627	0.01
643.813	-0.01
644	0.07
644.186	-0.01
644.372	0.04
644.559	0.04
644.745	0.03
644.931	0.03
645.118	0.01
645.304	0.03
645.49	0.01
645.676	-0.01
645.862	0.03
646.049	0.07
646.235	0.06
646.421	0.11
646.607	0.08
646.793	0.02
646.979	0.03
647.165	0.06
647.352	0.04
647.538	0.1
647.724	0.03
647.91	0.06
648.096	0.06
648.282	0.03
648.468	0.05
648.654	0.04
648.84	0.07
649.026	0.04
649.212	0.07
649.397	0.04
649.583	0.01
649.769	0.08
649.955	0.06
650.141	0.08
650.327	0.12
650.513	-0.01
650.698	0.06
650.884	0.01
651.07	0.07
651.256	0.08
651.442	0.09
651.627	0.08
651.813	0.09
651.999	0.07
652.184	0.11
652.37	0.06
652.556	0.03
652.741	0.12
652.927	0.02
653.113	0.09
653.298	0.03
653.484	0.06
653.669	0.05
653.855	0.08
654.04	0.11
654.226	0.08
654.412	0.05
654.597	0.05
654.782	0.12
654.968	0.11
655.153	0.12
655.339	0.05
655.524	0.04
655.71	0.08
655.895	0.07
656.08	0.07
656.266	0.11
656.451	0.1
656.636	0.08
656.822	0.09
657.007	0.11
657.192	0.09
657.378	0.07
657.563	0.08
657.748	0.12
657.933	0.12
658.118	0.08
658.304	0.1
658.489	0.13
658.674	0.13
658.859	0.08
659.044	0.14
659.229	0.14
659.414	0.11
659.599	0.11
659.785	0.05
659.97	0.08
660.155	0.16
660.34	0.09
660.525	0.11
660.71	0.1
660.895	0.14
661.08	0.07
661.264	0.08
661.449	0.14
661.634	0.17
661.819	0.11
662.004	0.1
662.189	0.02
662.374	0.12
662.559	0.03
662.743	0.04
662.928	0.1
663.113	0.07
663.298	0.02
663.483	0.01
663.667	0.1
663.852	0.03
664.037	0.15
664.221	0.05
664.406	0.08
664.591	0.06
664.775	0.07
664.96	0.05
665.145	0.04
665.329	0.08
665.514	0.02
665.698	0.06
665.883	0.01
666.068	0.1
666.252	0.03
666.437	0.02
666.621	0.03
666.806	0.06
666.99	0.05
667.174	0.03
667.359	0.04
667.543	-0
667.728	0.01
667.912	-0.03
668.096	0.06
668.281	0
668.465	-0
668.649	-0.02
668.834	0.04
669.018	0.02
669.202	0.01
669.387	0.02
669.571	0.02
669.755	-0.03
669.939	0
670.124	0.03
670.308	0.05
670.492	0.04
670.676	-0.01
670.86	0.04
671.044	-0.03
671.228	0.06
671.413	-0.05
671.597	0.02
671.781	-0.03
671.965	0.02
672.149	0
672.333	-0.01
672.517	-0.02
672.701	0.03
672.885	-0
673.069	-0.02
673.253	0.03
673.437	-0.01
673.621	-0.03
673.804	-0.02
673.988	-0.01
674.172	0.03
674.356	-0.02
674.54	-0
674.724	0.11
674.908	-0.01
675.091	0.04
675.275	-0.01
675.459	0.05
675.643	0.08
675.826	0.03
676.01	-0.03
676.194	-0.03
676.377	0.03
676.561	0.04
676.745	0.04
676.928	0.05
677.112	0.06
677.296	-0.08
677.479	-0.02
677.663	-0.03
677.846	0.01
678.03	0.02
678.213	-0.01
678.397	0.04
678.58	-0.02
678.764	-0.02
678.947	-0.05
679.131	-0.05
679.314	0.02
679.498	0.03
679.681	0.05
679.865	0.05
680.048	0.01
680.231	0.05
680.415	0.04
680.598	0.01
680.781	-0.02
680.965	-0.02
681.148	0.04
681.331	-0.03
681.514	0.05
681.698	-0.01
681.881	-0
682.064	-0.03
682.247	0
682.43	-0.08
682.614	-0
682.797	0.03
682.98	0.04
683.163	-0.02
683.346	0.01
683.529	-0.04
683.712	-0.04
683.895	0.06
684.078	-0.03
684.261	-0.03
684.444	0.06
684.627	-0
684.81	-0.02
684.993	-0.03
685.176	0.03
685.359	-0.01
685.542	-0.03
685.725	0.12
685.908	-0.01
686.091	-0.03
686.274	0.03
686.457	0.01
686.639	-0.05
686.822	0.02
687.005	0
687.188	0.04
687.371	0.1
687.553	0.03
687.736	0.02
687.919	0.07
688.102	0.04
688.284	-0.04
688.467	-0.02
688.65	-0
688.832	-0.01
689.015	-0.03
689.197	-0.04
689.38	0.04
689.563	0.03
689.745	-0.07
689.928	-0.03
690.11	0.04
690.293	0.01
690.475	-0.08
690.658	0.04
690.84	-0.01
691.023	-0
691.205	-0.08
691.388	0.04
691.57	0.01
691.752	0.04
691.935	-0.07
692.117	0
692.3	0.01
692.482	-0.01
692.664	0.02
692.847	0.04
693.029	-0.02
693.211	0.03
693.393	0.02
693.576	-0.04
693.758	-0.04
693.94	-0.05
694.122	-0.04
694.304	-0.02
694.487	-0.03
694.669	0.06
694.851	-0.04
695.033	-0
695.215	-0.02
695.397	-0.06
695.579	-0
695.761	-0.01
695.943	-0.09
696.125	0.09
696.308	0.03
696.49	-0.1
696.671	0.11
696.853	-0
697.035	0.09
697.217	-0.02
697.399	-0.03
697.581	-0.02
697.763	0.03
697.945	-0.01
698.127	0.02
698.309	0.01
698.491	0.01
698.672	0.06
698.854	0
699.036	0.08
699.218	-0.03
699.399	0.01
699.581	0
699.763	-0.02
699.945	0.01
700.126	-0.02
700.308	-0.01
700.49	0.03
700.671	-0.05
700.853	-0.06
701.035	-0.05
701.216	0.05
701.398	-0.04
701.579	0.01
701.761	0.09
701.943	0.03
702.124	-0.05
702.306	0.03
702.487	0.16
702.669	0
702.85	-0.01
703.031	-0.07
703.213	0.08
703.394	0.09
703.576	-0.04
703.757	0.01
703.938	0.06
704.12	0.17
704.301	0.03
704.483	0.04
704.664	0.03
704.845	0.08
705.026	0.02
705.208	0.01
705.389	0.04
705.57	-0
705.751	-0.04
705.933	0.02
706.114	0.08
706.295	-0.03
706.476	-0.04
706.657	0.06
706.838	0.06
707.02	0.1
707.201	-0.01
707.382	0.03
707.563	0.03
707.744	-0.03
707.925	-0.02
708.106	0.01
708.287	0.04
708.468	0.06
708.649	0.05
708.83	0.09
709.011	0.01
709.192	0.1
709.373	-0.02
709.554	-0
709.734	0.03
709.915	0.09
710.096	0.05
710.277	-0.07
710.458	0.03
710.639	0.04
710.819	-0.11
711	-0.03
711.181	0.07
711.362	0.09
711.542	0
711.723	0.07
711.904	0.04
712.085	0.03
712.265	0.04
712.446	-0.03
712.627	0.02
712.807	-0.01
712.988	0.02
713.168	-0.08
713.349	0.02
713.53	-0.1
713.71	-0.09
713.891	-0
714.071	0.02
714.252	0
714.432	-0.05
714.613	-0.16
714.793	-0.02
714.974	0.03
715.154	0.05
715.334	0.05
715.515	0.12
715.695	-0.06
715.876	-0
716.056	-0.01
716.236	-0.05
716.417	0.01
716.597	-0.04
716.777	0.13
716.957	0.02
717.138	0.03
717.318	0.03
717.498	-0.01
717.678	0
717.859	-0
718.039	-0.04
718.219	0.12
718.399	0.11
718.579	-0.05
718.759	0.01
718.939	0.05
719.12	0.05
719.3	0.06
719.48	-0.04
719.66	-0.11
719.84	0.1
720.02	-0
720.2	-0.06
720.38	0.02
720.56	0.11
720.74	0
720.92	0.05
721.1	0.05
721.279	0.12
721.459	0.05
721.639	0.01
721.819	0.01
721.999	0.05
722.179	0.08
722.359	-0.02
722.538	0.04
722.718	0.04
722.898	0.04
723.078	0.07
723.257	0.04
723.437	0.03
723.617	0.04
723.797	-0.06
723.976	0.04
724.156	-0.03
724.336	0.11
724.515	0.12
724.695	-0.05
724.874	0.08
725.054	0.07
725.234	-0.06
725.413	0.1
725.593	0.02
725.772	0
725.952	0.03
726.131	0.03
726.311	0.04
726.49	0.06
726.67	0.02
726.849	0.02
727.028	0.15
727.208	-0.01
727.387	0.09
727.567	-0.03
727.746	0.07
727.925	0.04
728.105	-0.01
728.284	0
728.463	-0.04
728.643	0.14
728.822	0.07
729.001	0.12
729.18	0.05
729.359	0.09
729.539	0.07
729.718	0.12
729.897	0.11
730.076	0.08
730.255	-0.02
730.434	0.08
730.614	0.15
730.793	0.12
730.972	0.02
731.151	0.06
731.33	0.15
731.509	0.25
731.688	0.04
731.867	0.08
732.046	-0.07
732.225	0.24
732.404	0.05
732.583	0.03
732.762	0.18
732.941	0.17
733.12	0.11
733.298	0.04
733.477	0.16
733.656	0.13
733.835	0.02
734.014	0.2
734.193	0.05
734.371	0.21
734.55	0.08
734.729	0
734.908	0.14
735.086	0.06
735.265	0.12
735.444	-0
735.623	0.05
735.801	0.09
735.98	0.11
736.159	0.08
736.337	0.17
736.516	-0.03
736.694	0.06
736.873	0.05
737.052	0.13
737.23	0.2
737.409	0.04
737.587	0.22
737.766	-0.01
737.944	0.04
738.123	0.17
738.301	0.06
738.479	0.17
738.658	0.2
738.836	-0.1
739.015	0.1
739.193	0.3
739.371	0.04
739.55	0.12
739.728	0.01
739.906	0.17
740.085	0.03
740.263	0.09
740.441	-0.05
740.62	0.2
740.798	0.13
740.976	-0.08
741.154	0.04
741.332	0.24
741.511	0.08
741.689	0.13
741.867	0.2
742.045	0.11
742.223	0.05
742.401	0.01
742.579	0.01
742.757	0.01
742.935	-0.06
743.114	-0
743.292	0.06
743.47	0.04
743.648	0.1
743.826	-0.14
744.004	0.1
744.181	0.04
744.359	0.03
744.537	-0.01
744.715	0.02
744.893	0.04
745.071	-0
745.249	-0
745.427	0
745.605	0.11
745.782	0.05
745.96	0.18
746.138	0.09
746.316	0.12
746.493	0.07
746.671	0.06
746.849	-0
747.027	0.08
747.204	-0.03
747.382	0.09
747.56	-0.11
747.737	0.09
747.915	-0.09
748.093	0.04
748.27	0.03
748.448	0.03
748.625	-0.05
748.803	-0.06
748.98	-0.02
749.158	0.03
749.335	0.07
749.513	-0.04
749.69	-0.05
749.868	0.08
750.045	0.11
750.223	-0.08
750.4	-0.24
750.578	0.24
750.755	-0.06
750.932	-0.2
751.11	0.12
751.287	0
751.464	0.11
751.642	-0.05
751.819	0.01
751.996	0.01
752.173	-0.04
752.351	-0.15
752.528	0.1
752.705	-0.01
752.882	0.01
753.06	0.02
753.237	0.11
753.414	0.17
753.591	0.11
753.768	-0.02
753.945	-0.08
754.122	-0.04
754.299	-0.03
754.476	-0.03
754.654	0.12
754.831	-0.02
755.008	0.1
755.185	-0.02
755.362	-0.09
755.539	0.04
755.716	-0.15
755.892	-0.05
756.069	-0.01
756.246	-0.08
756.423	-0.07
756.6	0.11
756.777	-0.07
756.954	0.17
757.131	0.03
757.307	-0.13
757.484	-0.01
757.661	-0
757.838	0.09
758.015	-0.15
758.191	0.01
758.368	0.01
758.545	0.09
758.721	0.06
758.898	-0.11
759.075	0.03
759.251	0.18
759.428	0.13
759.605	-0.08
759.781	0.05
759.958	0.15
760.134	0.04
760.311	0.01
760.488	0.05
760.664	0.04
760.841	-0
761.017	-0.1
761.194	0.04
761.37	0.11
761.547	0
761.723	0.06
761.899	0.07
762.076	-0.07
762.252	-0.09
762.429	-0.05
762.605	0.06
762.781	-0.04
762.958	0.06
763.134	0
763.31	-0.01
763.486	0.14
763.663	-0.13
763.839	0.02
764.015	-0.19
764.191	-0.1
764.368	0.02
764.544	-0
764.72	-0
764.896	0.11
765.072	0.06
765.248	-0.07
765.425	-0.02
765.601	0.03
765.777	0.04
765.953	-0.15
766.129	-0.14
766.305	-0.01
766.481	0.08
766.657	0.11
766.833	0.13
767.009	-0
767.185	-0.01
767.361	-0.01
767.537	-0.01
767.713	0.04
767.889	-0.12
768.065	-0.01
768.24	-0.25
768.416	-0.03
768.592	-0.03
768.768	-0.02
768.944	0.15
769.12	-0.19
769.295	-0.01
769.471	0.09
769.647	-0.06
769.823	0.15
769.998	-0.12
770.174	-0.04
770.35	0.35
770.525	0.21
770.701	0.16
770.877	-0.08
771.052	-0.09
771.228	0.01
771.403	0.06
771.579	0.02
771.755	0.18
771.93	0.04
772.106	-0.22
772.281	-0.16
772.457	-0.01
772.632	0.04
772.808	-0.11
772.983	0.05
773.159	-0.13
773.334	0.11
773.509	-0.01
773.685	-0.12
773.86	0.07
774.036	0.23
774.211	0.03
774.386	0.1
774.562	-0.1
774.737	-0.13
774.912	-0.11
775.087	0.08
775.263	-0.13
775.438	0.06
775.613	-0.04
775.788	-0.09
775.964	0.17
776.139	0.32
776.314	-0.16
776.489	0.1
776.664	0.11
776.839	-0.13
777.014	0.05
777.19	0.15
777.365	0.1
777.54	0.14
777.715	-0.06
777.89	-0.02
778.065	-0.14
778.24	0.04
778.415	0.15
778.59	-0.23
778.765	-0.14
778.94	0.12
779.115	-0.03
779.289	-0.14
779.464	0.12
779.639	-0.06
779.814	-0.14
779.989	-0.08
780.164	0.17
780.339	-0.03
780.513	-0.01
780.688	-0.09
780.863	0.02
781.038	0.01
781.212	-0.26
781.387	0.03
781.562	0.14
781.737	0.09
781.911	0.16
782.086	0.02
782.261	0.15
782.435	0.19
782.61	-0.07
782.784	0.1
782.959	0.21
783.134	0.02
783.308	-0.25
783.483	-0.07
783.657	0.39
783.832	0.17
784.006	-0.32
784.181	0.05
784.355	0.21
784.53	0.2
784.704	0.09
784.878	0.39
785.053	0.2
785.227	0.17
785.402	0.35
785.576	-0.22
785.75	0.22
785.925	-0.21
786.099	-0.04
786.273	-0.27
786.448	0.33
786.622	0.02
786.796	-0.16
786.97	-0.05
787.145	0.23
787.319	0
787.493	0.02
787.667	-0.16
787.841	0.06
788.015	0.2
788.19	-0.11
788.364	0.27
788.538	-0.03
788.712	0.14
788.886	-0.08
789.06	0.35
789.234	0.23
789.408	-0.41
789.582	0.15
789.756	-0.13
789.93	-0.13
790.104	0.01
790.278	-0.13
790.452	-0.26
790.626	-0.01
790.8	-0.11
790.973	0.2
791.147	0.36
791.321	0.09
791.495	0.18
791.669	-0.02
791.843	-0.07
792.016	0.1
792.19	0.45
792.364	-0.14
792.538	0.38
792.711	0.29
792.885	-0.1
793.059	-0.22
793.233	-0.57
793.406	0.13
793.58	0.05
793.754	0.01
793.927	-0.12
794.101	0.14
794.274	-0.06
794.448	0.02
794.622	-0.2
794.795	0.2
794.969	-0.12
795.142	0.32
795.316	0.08
795.489	-0.09
795.663	0.4
795.836	-0.19
796.009	-0.32
796.183	0.19
796.356	0.14
796.53	0.14
796.703	-0.07
796.876	0.51
797.05	-0.08
797.223	0.02
797.396	0.26
797.57	0.08
797.743	0.19
797.916	0.06
798.09	-0
798.263	0.06
798.436	0.21
798.609	-0.04
798.782	-0.11
798.956	0.1
799.129	0.05
799.302	0.17
799.475	-0.15
799.648	-0.17
799.821	0.01
799.994	0.14
800.167	-0.18
800.34	0.16
800.514	-0.02
800.687	-0.08
800.86	-0.11
801.033	0.02
801.206	-0.13
801.379	-0.17
801.551	0.05
801.724	0.14
801.897	0.06
802.07	0.16
802.243	-0.46
802.416	-0.14
802.589	-0.07
802.762	0.04
802.935	0.01
803.107	0.03
803.28	0.1
803.453	0.36
803.626	0.08
803.798	0.01
803.971	-0.47
804.144	0.23
804.317	-0.09
804.489	0.2
804.662	0.07
804.835	-0
805.007	-0.38
805.18	0.11
805.353	0.28
805.525	-0.26
805.698	-0.04
805.87	0.14
806.043	0.24
806.215	-0.45
806.388	-0.3
806.56	0.24
806.733	0.19
806.905	-0.14
807.078	-0.01
807.25	-0.39
807.423	0.07
807.595	0.12
807.768	-0.09
807.94	0.39
808.112	-0.31
808.285	-0.1
808.457	-0.07
808.629	0.02
808.802	0.02
808.974	-0.06
809.146	0.1
809.318	-0.25
809.491	-0.13
809.663	0.14
809.835	-0.18
810.007	0.18
810.18	0.31
810.352	-0.39
810.524	-0.13
810.696	0.39
810.868	0.47
811.04	0.07
811.212	-0.06
811.384	0.11
811.556	0.05
811.728	-0.07
811.901	0.73
812.073	0.13
812.245	0.43
812.417	-0.06
812.589	-0.49
812.76	0.19
812.932	0.22
813.104	0.26
813.276	-0.06
813.448	0.4
813.62	-0.31
813.792	0.12
813.964	0.13
814.136	-0.11
814.307	0.03
814.479	-0.06
814.651	-0.32
814.823	0.69
814.995	0.16
815.166	-0.08
815.338	-0.13
815.51	-0.25
815.681	1.26
815.853	-0.08
816.025	-0.18
816.196	0.47
816.368	-0.05
816.54	-0.41
816.711	-0.37
816.883	0.42
817.054	0.93
817.226	-0.32
817.398	0.21
817.569	-0.06
817.741	-0.09
817.912	-0.37
818.084	-0.18
818.255	0.19
818.426	0.11
818.598	-0.22
818.769	-0.09
818.941	0.47
819.112	-0
819.283	0.21
819.455	-0.37
819.626	-0.15
819.798	0.35
819.969	0.06
820.14	0.12
820.311	-0.66
820.483	-0.07
820.654	0.32
820.825	-0.04
820.996	0.03
821.168	-0.04
821.339	-0.37
821.51	-0.59
821.681	-0.42
821.852	-0.36
822.023	-0.08
822.195	-0.37
822.366	0.47
822.537	-0.05
822.708	0.33
822.879	-0.62
823.05	0.54
823.221	-0.13
823.392	0.37
823.563	0.04
823.734	0.18
823.905	-0.21
824.076	-0.51
824.247	-0.4
824.418	-0.29
824.589	0.14
824.759	-0.18
824.93	0.29
825.101	-0.45
825.272	0.14
825.443	0.54
825.614	0.66
825.784	-0.7
825.955	0.75
826.126	0.35
826.297	0.23
826.467	0.26
826.638	0.45
826.809	-0.51
826.98	0.04
827.15	-0.28
827.321	0.35
827.492	1.07
827.662	0.31
827.833	1.36
828.003	0.01
828.174	-0.32
828.345	-0.21
828.515	0.78
828.686	-0.34
828.856	-0.07
829.027	-0.34
829.197	-0.09
829.368	0.54
829.538	-0.09
829.709	0.16
829.879	0.16
830.049	0.32
830.22	-0.13
830.39	0.16
830.56	0.46
830.731	-0.35
830.901	-0.3
831.072	0.82
831.242	-0.04
831.412	-0.07
831.582	-0.04
831.753	-0.51
831.923	0.08
832.093	-0.52
832.263	0.02
832.434	-0.4
832.604	-0.27
832.774	0.72
832.944	-0.2
833.114	0.2
833.284	0.1
833.454	-0.67
833.624	-0.33
833.795	0.17
833.965	0.81
834.135	0.32
834.305	-0.37
834.475	0.01
834.645	-0.13
834.815	0.12
834.985	0.12
835.155	-0.22
835.325	0.7
835.494	0.45
835.664	-0.05
835.834	-0.65
836.004	0.52
836.174	0.04
836.344	-0.14
836.514	-0.28
836.684	-0.21
836.853	-0.29
837.023	0.73
837.193	-0.16
837.363	-0.18
837.532	0.71
837.702	-0.57
837.872	-0.59
838.041	0.79
838.211	0.83
838.381	-0.54
838.55	0.06
838.72	1.28
838.89	1.08
839.059	-0.44
839.229	-0.31
839.398	0.6
839.568	-0.37
839.738	-0.2
839.907	1.18
840.077	0.5
840.246	-0.41
840.416	-0.75
840.585	-1.01
840.755	1.31
840.924	0.71
841.093	-0.19
841.263	-0.09
841.432	0.32
841.602	-0.22
841.771	-0.09
841.94	0.4
842.11	1.28
842.279	1.1
842.448	-0.96
842.617	-0.61
842.787	0.89
842.956	-0.4
843.125	-0.05
843.294	0.38
843.464	1.19
843.633	-0.32
843.802	-0.58
843.971	0.23
844.14	0.86
844.309	0.58
844.479	-0.84
844.648	-0
844.817	0.02
844.986	-0.24
845.155	-0.03
845.324	-0.79
845.493	0.28
845.662	-0.8
845.831	-0.08
846	-0.33
846.169	-0.7
846.338	1.08
846.507	0.22
846.676	0.51
846.844	-1.09
847.013	0.62
847.182	-0.21
847.351	-0.85
847.52	-0.53
847.689	0.25
847.858	-0.14
848.026	-0.45
848.195	0.09
848.364	-0.44
848.533	-0.92
848.701	-0.26
848.87	0.35
849.039	0.99
849.207	1.29
849.376	1.81
849.545	0.71
849.713	-0.55
849.882	0.2
850.051	0.05
850.219	0.65
850.388	0.17
850.556	-0.3
850.725	0.01
850.893	0.5
851.062	0.01
851.23	0.85
851.399	-1.28
851.567	0.17
851.736	-0.68
851.904	-0.26
852.073	-0.17
852.241	0.68
852.41	0.69
852.578	-0.36
852.746	-1.01
852.915	1.07
853.083	0.34
853.251	-1.53
853.42	-0.23
853.588	0.34
853.756	0.48
853.924	0.21
854.093	0.39
854.261	-0.3
854.429	-1.02
854.597	1.04
854.765	-0.92
854.934	1.05
855.102	1.53
855.27	-0.31
855.438	0.26
855.606	0.9
855.774	0.65
855.942	-1.68
856.11	-0.98
856.278	-0.61
856.446	1.2
856.614	0.28
856.782	-0.48
856.95	1.58
857.118	-0.07
857.286	0.86
857.454	-0.42
857.622	1.1
857.79	-0.13
857.958	-0.8
858.126	-0.63
858.294	-2.49
858.462	-0.34
858.629	-0.14
858.797	-0.48
858.965	-0.08
859.133	0.12
859.301	-0.27
859.468	0.78
859.636	-0.94
859.804	1.94
859.971	1.25
860.139	-0.86
860.307	1.04
860.474	-0.18
860.642	-0.23
860.81	0.46
860.977	0.56
861.145	0.6
861.313	-0.64
861.48	-0.99
861.648	1.4
861.815	0.35
861.983	-0.64
862.15	0.1
862.318	0.4
862.485	1.08
862.653	-0.27
862.82	-1.35
862.988	1.67
863.155	-0.37
863.322	0.02
863.49	-0.55
863.657	-1.63
863.824	0.78
863.992	-0.53
864.159	0.01
864.326	0.7
864.494	-0.24
864.661	2.47
864.828	-1.26
864.996	1.45
865.163	2.62
865.33	-0.26
865.497	-1.21
865.664	-0.52
865.832	-1.93
865.999	-1.34
866.166	-0.32
866.333	-1.01
866.5	-0.08
866.667	-0.08
866.834	-1.33
867.001	-0.05
867.168	-1.75
867.335	-0.32
867.502	-0.19
867.669	0.3
867.836	2.17
868.003	0.51
868.17	1.09
868.337	2.58
868.504	1.68
868.671	-1.86
868.838	-0.07
869.005	-0.33
869.172	1.19
869.339	1.01
869.505	0.24
869.672	0.5
869.839	3.08
870.006	-0.15
870.173	-2.45
870.339	-0.09
870.506	0.47
870.673	-1.26
870.84	1.33
871.006	1.64
871.173	-0.14
871.34	-0.66
871.506	-0.09
871.673	1.13
871.839	-1.67
872.006	0.4
872.173	-0.7
872.339	0.31
872.506	2.01
872.672	-0.01
872.839	-1.37
873.005	-0.51
873.172	3.36
873.338	1.89
873.505	-0.11
873.671	-1.39
873.838	0.7
874.004	-0.48
874.171	-0.01
874.337	1.04
874.503	1.66
874.67	-0.58
874.836	-0.18
875.002	2.29
875.169	1.55
875.335	0.92
875.501	-1.17
875.668	1.1
875.834	-0.91
876	-0.33
876.166	0.03
876.332	-0.03
876.499	3.71
876.665	-0.5
876.831	0.52
876.997	2.1
877.163	1.18
877.329	-1.71
877.495	-0.72
877.662	0.34
877.828	1.14
877.994	0.14
878.16	-3.11
878.326	-1.08
878.492	1.14
878.658	0.01
878.824	0.81
878.99	1.59
879.156	-0.38
879.322	1.75
879.487	0.91
879.653	-1.6
879.819	0.33
879.985	-1.96
880.151	-1.22
880.317	0.21
880.483	1.28
880.648	1.82
880.814	-2.79
880.98	0.16
881.146	-0.82
881.312	-0.44
881.477	0.16
881.643	-1.14
881.809	1.5
881.974	2.28
882.14	-2.73
882.306	-0.69
882.471	2.35
882.637	0.05
882.803	1.41
882.968	1.58
883.134	3.62
883.299	0.22
883.465	0.49
883.63	1.35
883.796	1.91
883.961	0.69
884.127	-0.21
884.292	-2.87
884.458	-0.75
884.623	-0.75
