Data from Apollo_Calib_20240827__AbsoluteIrradiance__616__09-25-02-559.txt Node

Date: Wed Aug 28 09:25:02 BST 2024
User: biology
Spectrometer: FLMT08252
Trigger mode: 0
Integration Time (sec): 5.000000E-1
Scans to average: 5
Electric dark correction enabled: true
Nonlinearity correction enabled: false
Boxcar width: 0
XAxis mode: Wavelengths
Number of Pixels in Spectrum: 3648
>>>>>Begin Spectral Data<<<<<
179.588	-0
179.809	-0
180.03	-0
180.251	-0
180.473	-0
180.694	0
180.915	0
181.136	-0
181.357	0
181.578	-0
181.799	0
182.02	-0
182.241	0
182.462	-0
182.683	0
182.904	-0
183.125	-0
183.346	0
183.567	0
183.788	-0
184.009	-0
184.23	0
184.451	0
184.672	-0
184.892	-0
185.113	0
185.334	0
185.555	-0
185.776	-0
185.996	0
186.217	0
186.438	-0
186.659	-0
186.879	-0
187.1	0
187.321	-0
187.541	-0
187.762	0
187.983	0
188.203	-0
188.424	0
188.644	0
188.865	-0
189.086	-0
189.306	-0
189.527	-0
189.747	-0
189.968	-0
190.188	-0
190.409	0
190.629	0
190.849	-0
191.07	-0
191.29	0
191.511	0
191.731	-0
191.951	-0
192.172	-0
192.392	-0
192.612	0
192.833	-0
193.053	0
193.273	0
193.493	-0
193.714	-0
193.934	0
194.154	0
194.374	0
194.594	0
194.815	0
195.035	-0
195.255	-0
195.475	-0
195.695	0
195.915	0
196.135	0
196.355	0
196.575	0
196.795	0
197.015	-0
197.235	-0
197.455	-0
197.675	0
197.895	-0
198.115	-0
198.335	0
198.555	-0
198.775	0
198.995	0
199.214	0
199.434	-0
199.654	-0
199.874	-0
200.094	0.42
200.313	-0.46
200.533	-0.62
200.753	-0.44
200.973	0.55
201.192	0.54
201.412	-0.71
201.632	-0.68
201.851	0.82
202.071	-0.82
202.291	-0.59
202.51	-0.93
202.73	0.11
202.95	-0.38
203.169	-0.41
203.389	-0.07
203.608	0.04
203.828	-0.66
204.047	-0.22
204.267	0.07
204.486	-0.11
204.706	0.02
204.925	-0.21
205.145	-0.38
205.364	0.39
205.583	0.55
205.803	-0.14
206.022	-0.32
206.242	0.07
206.461	0.27
206.68	-0.54
206.9	0.17
207.119	0.31
207.338	0.47
207.557	-0.39
207.777	-0.37
207.996	-0.41
208.215	0.22
208.434	-0.4
208.654	-0.52
208.873	-0.15
209.092	0.37
209.311	-0.21
209.53	-0.11
209.749	-0.11
209.968	-0.26
210.187	-0.15
210.407	-0.61
210.626	-0.07
210.845	0.13
211.064	0.08
211.283	-0.36
211.502	0.29
211.721	-0.07
211.94	-0.16
212.159	0.22
212.377	0.26
212.596	0.13
212.815	0.14
213.034	-0.05
213.253	0.13
213.472	0.21
213.691	-0.24
213.91	-0.36
214.128	-0.18
214.347	0.08
214.566	-0.41
214.785	-0.49
215.003	-0.02
215.222	0.06
215.441	-0.16
215.66	-0.41
215.878	-0.11
216.097	0.17
216.316	-0.36
216.534	-0.06
216.753	0.09
216.972	-0.14
217.19	-0.27
217.409	-0.22
217.627	-0.07
217.846	-0.03
218.064	-0.08
218.283	-0.26
218.501	0.2
218.72	0.13
218.938	-0.02
219.157	-0.26
219.375	0.06
219.594	0.12
219.812	-0.28
220.031	-0.18
220.249	0.31
220.467	0.34
220.686	-0.02
220.904	-0.26
221.122	-0.29
221.341	0.14
221.559	0.03
221.777	-0.2
221.995	-0.09
222.214	0.03
222.432	-0.06
222.65	0.18
222.868	-0.03
223.086	0.08
223.305	0.13
223.523	-0.09
223.741	0.12
223.959	-0.03
224.177	-0.28
224.395	-0.05
224.613	0.06
224.831	0.11
225.049	-0.26
225.267	-0.17
225.485	-0.04
225.703	-0.15
225.921	-0.07
226.139	-0.23
226.357	-0.03
226.575	0.11
226.793	-0.06
227.011	0.33
227.229	0.06
227.447	0.23
227.665	-0.2
227.883	-0.28
228.1	-0.05
228.318	-0.05
228.536	-0.3
228.754	-0.18
228.972	0.16
229.189	0.02
229.407	-0.15
229.625	-0.08
229.843	0.13
230.06	-0.08
230.278	-0.08
230.496	-0.01
230.713	-0.1
230.931	0.1
231.149	-0.14
231.366	-0.29
231.584	0.02
231.801	0.28
232.019	-0.01
232.236	-0.3
232.454	-0.08
232.671	0.04
232.889	-0.05
233.106	-0.25
233.324	-0.02
233.541	-0.03
233.759	-0.05
233.976	-0.03
234.194	-0.04
234.411	-0.03
234.628	-0.06
234.846	-0.04
235.063	-0.07
235.28	-0.1
235.498	-0.01
235.715	-0.2
235.932	0.1
236.149	0.01
236.367	-0.15
236.584	-0.07
236.801	0.06
237.018	0.1
237.236	0.05
237.453	-0.12
237.67	0.15
237.887	-0.09
238.104	-0.1
238.321	-0.2
238.538	-0.15
238.755	0.08
238.973	-0.14
239.19	-0.1
239.407	-0
239.624	0.02
239.841	-0.28
240.058	-0.06
240.275	0.04
240.492	0.01
240.709	-0.01
240.925	-0.14
241.142	-0.02
241.359	-0.17
241.576	-0.15
241.793	-0.02
242.01	-0.04
242.227	0.07
242.444	0.03
242.66	0.04
242.877	0.09
243.094	-0.11
243.311	-0.01
243.527	-0.12
243.744	0.07
243.961	0.05
244.178	-0.09
244.394	-0.06
244.611	0.07
244.828	0.07
245.044	-0.08
245.261	-0.04
245.477	0.04
245.694	-0.04
245.911	-0.08
246.127	0.08
246.344	0.02
246.56	0.03
246.777	0.03
246.993	0.04
247.21	-0.02
247.426	0.06
247.643	-0.12
247.859	-0.23
248.076	-0.09
248.292	0.16
248.508	-0.05
248.725	0.03
248.941	0.06
249.157	0.04
249.374	-0.02
249.59	-0.05
249.806	0.04
250.023	0.04
250.239	-0.1
250.455	-0.13
250.671	-0.08
250.888	0.07
251.104	-0.01
251.32	-0.03
251.536	-0.09
251.752	-0.1
251.969	-0.01
252.185	-0.02
252.401	0.1
252.617	-0.12
252.833	0.01
253.049	0
253.265	-0.01
253.481	0.02
253.697	-0.02
253.913	-0.06
254.129	-0.04
254.345	0
254.561	0.04
254.777	-0.05
254.993	0.03
255.209	-0.02
255.425	-0.08
255.641	-0.04
255.857	0.06
256.073	-0.04
256.288	-0.1
256.504	-0.08
256.72	-0.04
256.936	0.09
257.152	-0.04
257.367	-0.1
257.583	0
257.799	-0.03
258.015	-0.11
258.23	-0.09
258.446	0.11
258.662	-0.05
258.877	-0.04
259.093	-0.12
259.309	-0.02
259.524	-0.07
259.74	-0.06
259.955	-0.18
260.171	0.04
260.387	-0.03
260.602	0.06
260.818	-0.01
261.033	-0.05
261.249	-0.05
261.464	-0.09
261.68	-0.09
261.895	0.04
262.11	0.08
262.326	-0.04
262.541	-0.11
262.757	0.07
262.972	0.03
263.187	0.01
263.403	-0.03
263.618	0.01
263.833	-0.03
264.049	-0.07
264.264	-0.03
264.479	0.03
264.694	0.07
264.91	-0.09
265.125	-0.04
265.34	-0
265.555	0.13
265.77	0.05
265.986	-0.01
266.201	-0.02
266.416	0.08
266.631	-0.06
266.846	-0.02
267.061	-0.01
267.276	0.03
267.491	-0.1
267.706	0.01
267.921	-0.02
268.136	-0.01
268.351	-0.03
268.566	-0.04
268.781	0.1
268.996	0.05
269.211	-0.03
269.426	-0.16
269.641	-0.03
269.856	0.07
270.071	-0.06
270.285	-0.09
270.5	0.08
270.715	0.01
270.93	0.01
271.145	0.07
271.359	0.09
271.574	-0.1
271.789	-0.09
272.004	-0.09
272.218	-0.03
272.433	-0.01
272.648	-0.03
272.862	0.08
273.077	-0.04
273.292	0.03
273.506	-0.05
273.721	-0.09
273.936	-0.01
274.15	0.05
274.365	-0.03
274.579	0.04
274.794	0.09
275.008	0.02
275.223	-0.09
275.437	0
275.652	0.04
275.866	-0.06
276.081	-0.06
276.295	0.03
276.509	-0.02
276.724	-0.01
276.938	0.01
277.153	-0.03
277.367	0.06
277.581	-0.05
277.796	-0.01
278.01	-0.07
278.224	0.04
278.438	0.06
278.653	-0.11
278.867	-0.07
279.081	-0.16
279.295	-0.09
279.51	0.01
279.724	-0.02
279.938	0.02
280.152	0.06
280.366	-0.03
280.58	-0.02
280.794	0.07
281.008	-0.04
281.222	0.01
281.437	0.09
281.651	-0.04
281.865	0.03
282.079	0
282.293	-0.1
282.507	-0.1
282.721	0.04
282.935	0.01
283.148	-0.09
283.362	-0.01
283.576	-0.04
283.79	-0.01
284.004	-0.05
284.218	0.06
284.432	-0.09
284.646	-0.02
284.859	-0.03
285.073	-0.05
285.287	0.01
285.501	-0.03
285.714	-0.02
285.928	0.04
286.142	-0.02
286.356	-0.05
286.569	-0.06
286.783	0.05
286.997	0.02
287.21	-0.04
287.424	-0.02
287.637	-0.05
287.851	-0.04
288.065	0.02
288.278	0.04
288.492	0.02
288.705	0.02
288.919	-0.02
289.132	-0.06
289.346	0.02
289.559	-0.1
289.773	-0.09
289.986	-0.04
290.2	0.04
290.413	0.05
290.626	-0.07
290.84	-0.03
291.053	-0.01
291.267	0.1
291.48	-0
291.693	-0.02
291.906	0.02
292.12	-0.02
292.333	-0.04
292.546	-0.06
292.76	0.07
292.973	0
293.186	0.03
293.399	-0.03
293.612	0.08
293.826	-0.03
294.039	0.01
294.252	-0.01
294.465	0.05
294.678	0.03
294.891	0.01
295.104	-0.06
295.317	0.01
295.53	-0.05
295.743	0.02
295.956	-0.03
296.169	0.05
296.382	0.03
296.595	0.01
296.808	-0.02
297.021	0.03
297.234	-0
297.447	0.01
297.66	0.01
297.873	0.04
298.086	0.02
298.299	-0.02
298.511	-0.04
298.724	-0.06
298.937	-0.08
299.15	-0.04
299.363	-0
299.575	0.03
299.788	0.03
300.001	-0.06
300.213	-0.01
300.426	-0.01
300.639	-0.07
300.852	-0.07
301.064	0.01
301.277	0.04
301.489	0.05
301.702	0.06
301.915	-0.02
302.127	-0.02
302.34	-0
302.552	0.02
302.765	-0.02
302.977	0.03
303.19	-0.02
303.402	-0.02
303.615	-0.01
303.827	-0.05
304.04	-0
304.252	0.03
304.464	-0.04
304.677	0.13
304.889	0.06
305.102	-0.03
305.314	-0
305.526	0.04
305.739	-0.01
305.951	-0.04
306.163	-0.05
306.375	0.1
306.588	-0.04
306.8	-0.02
307.012	-0.06
307.224	0.01
307.436	0.05
307.649	-0.11
307.861	0.01
308.073	0.04
308.285	-0
308.497	-0.02
308.709	-0.02
308.921	0.03
309.133	0.04
309.346	-0.02
309.558	0.02
309.77	0.03
309.982	0.06
310.194	0.02
310.406	-0.04
310.617	0.06
310.829	-0
311.041	0.03
311.253	-0.02
311.465	-0.02
311.677	-0.02
311.889	-0.02
312.101	-0.03
312.313	0.07
312.524	0.04
312.736	-0.06
312.948	-0.02
313.16	0.07
313.372	0.01
313.583	0.05
313.795	-0.04
314.007	-0.03
314.218	0.01
314.43	-0.03
314.642	-0.06
314.853	-0.04
315.065	0.02
315.277	0.01
315.488	0.01
315.7	-0.01
315.912	0.02
316.123	0.04
316.335	-0.04
316.546	0.14
316.758	-0.04
316.969	-0.02
317.181	-0
317.392	0.01
317.604	0.07
317.815	-0.04
318.026	-0.03
318.238	0.02
318.449	0.05
318.661	-0.04
318.872	-0.06
319.083	-0.05
319.295	-0
319.506	-0.07
319.717	-0
319.929	0.05
320.14	-0
320.351	-0.01
320.562	-0.01
320.774	-0
320.985	-0.03
321.196	-0.05
321.407	-0.07
321.618	0.02
321.829	0.01
322.041	0.04
322.252	-0.06
322.463	-0
322.674	-0.01
322.885	-0.05
323.096	-0.03
323.307	-0.04
323.518	-0.01
323.729	-0.05
323.94	-0.01
324.151	0.01
324.362	0
324.573	0.03
324.784	-0.03
324.995	0.07
325.206	0.03
325.417	-0.01
325.628	-0
325.838	0.02
326.049	-0.01
326.26	0.06
326.471	-0.02
326.682	0.01
326.892	-0.07
327.103	-0.07
327.314	-0.04
327.525	0.05
327.735	0.01
327.946	-0.01
328.157	-0.07
328.368	0.01
328.578	-0.02
328.789	0.03
328.999	0.01
329.21	-0.02
329.421	-0.02
329.631	-0.07
329.842	-0.08
330.052	-0.04
330.263	0.03
330.473	0.01
330.684	-0.02
330.894	-0.06
331.105	-0.02
331.315	-0.01
331.526	-0.05
331.736	0.04
331.947	-0
332.157	0.03
332.367	-0.04
332.578	0.03
332.788	0.03
332.999	0.04
333.209	-0.02
333.419	-0.08
333.629	0
333.84	0.07
334.05	-0.03
334.26	0.03
334.47	0.02
334.681	0.04
334.891	-0.04
335.101	0.01
335.311	0.06
335.521	-0
335.732	-0.05
335.942	0.02
336.152	0.03
336.362	-0.01
336.572	-0.01
336.782	0.01
336.992	-0.08
337.202	-0.02
337.412	-0.03
337.622	0.01
337.832	0.04
338.042	-0.04
338.252	-0.05
338.462	-0.04
338.672	0.03
338.882	-0.01
339.092	-0.02
339.302	0.04
339.511	0.01
339.721	-0.01
339.931	-0.05
340.141	0.03
340.351	0
340.561	0.02
340.77	0.02
340.98	-0.03
341.19	0.04
341.4	-0.03
341.609	-0.03
341.819	-0.02
342.029	-0.05
342.238	0.01
342.448	0
342.658	0.01
342.867	0.02
343.077	-0.03
343.286	0
343.496	0.06
343.706	0.06
343.915	-0.07
344.125	0.01
344.334	0.03
344.544	-0.11
344.753	-0.01
344.963	-0.01
345.172	-0.06
345.381	-0.04
345.591	0
345.8	0
346.01	0.05
346.219	0.03
346.428	-0.12
346.638	-0.03
346.847	-0.03
347.056	0.05
347.266	-0.03
347.475	0
347.684	0.04
347.893	-0.05
348.103	0.01
348.312	-0
348.521	-0
348.73	0.02
348.94	0.01
349.149	-0.02
349.358	-0.03
349.567	-0.03
349.776	-0.05
349.985	-0.01
350.194	0.03
350.403	0.06
350.612	-0.05
350.821	-0
351.03	-0.01
351.239	-0.05
351.448	0
351.657	-0.08
351.866	0.04
352.075	-0.01
352.284	0.04
352.493	-0.05
352.702	0.02
352.911	0.04
353.12	-0.01
353.329	-0.04
353.538	0.01
353.746	-0.01
353.955	-0.04
354.164	0.03
354.373	-0.03
354.582	0.05
354.79	-0.01
354.999	0.04
355.208	-0.02
355.416	0.09
355.625	-0.03
355.834	-0.01
356.042	-0.02
356.251	-0.02
356.46	-0.05
356.668	0.06
356.877	0.07
357.085	0.03
357.294	-0.07
357.503	0.02
357.711	0.03
357.92	0.11
358.128	0
358.337	-0.06
358.545	0.01
358.754	0
358.962	0.02
359.17	0.01
359.379	0.01
359.587	0.06
359.796	-0
360.004	0.08
360.212	0.03
360.421	0.01
360.629	-0.02
360.837	-0.01
361.046	-0.05
361.254	0.1
361.462	0.01
361.67	-0.03
361.879	0.01
362.087	0.06
362.295	0.01
362.503	-0.01
362.711	-0.06
362.92	-0.03
363.128	-0.04
363.336	-0.05
363.544	-0.05
363.752	-0.01
363.96	-0.02
364.168	-0.04
364.376	0.01
364.584	0.02
364.792	0.01
365	-0.01
365.208	0
365.416	-0.02
365.624	0.01
365.832	-0.03
366.04	0.02
366.248	0.04
366.456	0.02
366.664	0.01
366.872	-0
367.079	0
367.287	-0.03
367.495	0.02
367.703	-0.05
367.911	-0.03
368.118	-0.02
368.326	-0.02
368.534	-0.06
368.742	0.01
368.949	-0.07
369.157	-0.04
369.365	0.02
369.572	-0.04
369.78	-0.06
369.988	-0.03
370.195	0
370.403	0.03
370.61	-0.05
370.818	-0.01
371.026	0.04
371.233	-0.03
371.441	-0.01
371.648	-0.05
371.856	-0.01
372.063	0.01
372.271	-0.02
372.478	0.01
372.685	-0.02
372.893	0.03
373.1	0
373.308	-0.04
373.515	0.09
373.722	0.02
373.93	-0.01
374.137	0.02
374.344	0.07
374.552	0.01
374.759	-0
374.966	0.04
375.173	-0.04
375.381	0.02
375.588	-0
375.795	-0.05
376.002	-0.01
376.209	-0.05
376.417	-0.02
376.624	-0.01
376.831	0.06
377.038	0.01
377.245	-0.06
377.452	-0.01
377.659	-0.02
377.866	-0.03
378.073	-0.01
378.28	0.02
378.487	0.03
378.694	-0
378.901	0.03
379.108	-0
379.315	0.06
379.522	0.08
379.729	-0.02
379.936	-0.01
380.143	-0.01
380.35	0
380.557	-0.02
380.763	-0.01
380.97	0.01
381.177	0.01
381.384	0.02
381.591	-0.02
381.797	-0.02
382.004	0
382.211	0
382.418	-0.06
382.624	0
382.831	0.05
383.038	-0.02
383.244	-0.01
383.451	-0.03
383.658	-0.01
383.864	-0.06
384.071	-0.03
384.277	0.08
384.484	-0.01
384.69	0.04
384.897	-0.07
385.103	-0.02
385.31	-0.05
385.516	-0
385.723	-0.03
385.929	0
386.136	-0
386.342	0.01
386.549	-0.06
386.755	0.03
386.961	0.05
387.168	-0.05
387.374	-0.03
387.58	0.02
387.787	-0.03
387.993	-0.01
388.199	0.01
388.406	-0.03
388.612	0.02
388.818	-0.05
389.024	0
389.231	0.01
389.437	0.1
389.643	0.01
389.849	-0.02
390.055	-0.01
390.261	-0
390.467	-0.01
390.674	-0.06
390.88	-0.01
391.086	0.01
391.292	-0.02
391.498	0.01
391.704	-0.02
391.91	-0.03
392.116	-0.06
392.322	-0.05
392.528	-0
392.734	-0.02
392.94	-0
393.146	-0.01
393.352	0.01
393.557	0
393.763	0.01
393.969	0.03
394.175	0.02
394.381	0.01
394.587	-0.02
394.792	-0.02
394.998	0.02
395.204	0.05
395.41	-0.01
395.615	0.03
395.821	0.01
396.027	0.04
396.233	-0.02
396.438	0.01
396.644	0.02
396.85	0
397.055	-0.04
397.261	-0
397.466	0.03
397.672	-0.03
397.878	0.01
398.083	-0.01
398.289	-0.05
398.494	0.07
398.7	0.04
398.905	-0.1
399.111	0.05
399.316	-0.05
399.522	0
399.727	-0.03
399.932	-0.02
400.138	-0
400.343	0.01
400.549	-0.02
400.754	-0.01
400.959	0.02
401.165	-0.03
401.37	0.05
401.575	0
401.78	-0.03
401.986	-0.01
402.191	-0.01
402.396	-0.01
402.601	0.03
402.807	0.05
403.012	-0.07
403.217	0.04
403.422	-0.02
403.627	0.02
403.832	-0.05
404.037	-0
404.243	0
404.448	-0.02
404.653	-0.05
404.858	0.04
405.063	0.02
405.268	-0.06
405.473	-0.06
405.678	0.01
405.883	0.17
406.088	0.02
406.293	-0.04
406.498	-0.05
406.703	0.02
406.907	-0.02
407.112	-0.07
407.317	-0.01
407.522	-0.01
407.727	-0.06
407.932	0.01
408.136	0.05
408.341	-0.02
408.546	-0.04
408.751	0.03
408.956	0
409.16	-0
409.365	0.01
409.57	-0.01
409.774	-0.01
409.979	0
410.184	-0.01
410.388	-0.03
410.593	0
410.798	-0
411.002	-0.06
411.207	0.03
411.411	-0.01
411.616	-0.06
411.82	-0.01
412.025	0.03
412.229	-0.08
412.434	0.05
412.638	0.01
412.843	-0.07
413.047	-0.03
413.252	-0.08
413.456	-0.07
413.66	0.04
413.865	-0.04
414.069	0.06
414.273	-0.02
414.478	-0.05
414.682	-0.05
414.886	0
415.091	-0.06
415.295	-0.06
415.499	-0.01
415.703	-0.03
415.908	0.04
416.112	-0.08
416.316	0.01
416.52	-0.02
416.724	-0.07
416.929	-0.05
417.133	0.04
417.337	-0.04
417.541	-0.03
417.745	-0.02
417.949	0.01
418.153	0.02
418.357	-0.08
418.561	0.1
418.765	-0.03
418.969	0.15
419.173	0.01
419.377	-0.01
419.581	0.05
419.785	-0.06
419.989	-0.08
420.193	-0.07
420.397	0
420.601	-0.01
420.804	-0
421.008	-0
421.212	-0.03
421.416	0.02
421.62	-0.06
421.823	-0.04
422.027	0.08
422.231	-0.03
422.435	-0.06
422.638	0.02
422.842	0
423.046	-0.07
423.249	0.03
423.453	0.03
423.657	0.05
423.86	-0
424.064	-0.01
424.268	0.03
424.471	-0.03
424.675	0.04
424.878	0.07
425.082	-0.03
425.285	0.01
425.489	-0.01
425.692	-0.02
425.896	-0.08
426.099	-0
426.303	-0.02
426.506	-0.06
426.71	0.03
426.913	0.09
427.116	0.02
427.32	-0.04
427.523	-0.03
427.726	0.09
427.93	-0.07
428.133	-0.03
428.336	-0.04
428.54	-0.05
428.743	0.02
428.946	-0.02
429.149	-0.08
429.353	-0.05
429.556	-0.03
429.759	-0
429.962	-0.01
430.165	-0.06
430.368	-0.02
430.571	-0.03
430.775	0
430.978	-0.03
431.181	0.03
431.384	0.02
431.587	-0.05
431.79	-0.02
431.993	-0.08
432.196	-0.06
432.399	-0.02
432.602	0.06
432.805	-0.02
433.008	-0.06
433.211	-0.09
433.414	0.03
433.616	0.02
433.819	-0.01
434.022	-0.13
434.225	0.03
434.428	0
434.631	0.04
434.833	-0.01
435.036	-0.04
435.239	0.06
435.442	-0.04
435.645	-0.03
435.847	-0.01
436.05	0.04
436.253	-0.04
436.455	-0.08
436.658	-0.04
436.861	0.02
437.063	-0.02
437.266	-0.04
437.468	-0.01
437.671	0.07
437.874	-0.04
438.076	-0.06
438.279	-0.07
438.481	-0
438.684	-0.04
438.886	0.01
439.089	-0.08
439.291	-0
439.494	0.04
439.696	-0.03
439.899	-0.02
440.101	0
440.303	-0.12
440.506	0.01
440.708	-0.07
440.91	0.07
441.113	-0.06
441.315	0.01
441.517	-0.09
441.72	0.03
441.922	-0.04
442.124	-0.03
442.326	-0.01
442.529	0.07
442.731	-0.03
442.933	0.05
443.135	0.01
443.337	-0.04
443.539	-0.03
443.742	-0.02
443.944	-0.02
444.146	-0.02
444.348	-0.04
444.55	-0.01
444.752	-0.02
444.954	-0.03
445.156	-0.01
445.358	-0.05
445.56	0.05
445.762	-0.01
445.964	-0.05
446.166	-0.03
446.368	-0.05
446.57	0.02
446.772	-0.05
446.974	-0.02
447.175	-0.01
447.377	-0.04
447.579	-0.02
447.781	-0.1
447.983	0.05
448.184	-0.01
448.386	-0.01
448.588	-0.11
448.79	0.01
448.991	-0.04
449.193	-0.04
449.395	-0
449.597	0.03
449.798	0.02
450	-0.02
450.202	-0.03
450.403	0
450.605	-0.02
450.806	-0.05
451.008	-0.06
451.21	-0.01
451.411	-0.02
451.613	-0.07
451.814	0.02
452.016	0.01
452.217	0.02
452.419	0.08
452.62	-0.02
452.821	0.03
453.023	0.03
453.224	0.02
453.426	-0.04
453.627	-0.01
453.828	0
454.03	-0.02
454.231	0.06
454.432	-0.05
454.634	0.09
454.835	-0.07
455.036	-0.03
455.238	0.01
455.439	0.02
455.64	-0.03
455.841	-0.03
456.042	0.08
456.244	0.03
456.445	-0.03
456.646	-0.03
456.847	-0.03
457.048	0.05
457.249	0.02
457.45	0.15
457.651	-0.1
457.852	0.03
458.054	-0.01
458.255	0.01
458.456	0.02
458.657	-0.01
458.858	-0.07
459.058	-0.03
459.259	-0.01
459.46	-0.02
459.661	-0.01
459.862	0.1
460.063	-0.05
460.264	0.1
460.465	-0.05
460.666	0.08
460.866	-0.01
461.067	-0.02
461.268	0.01
461.469	-0.02
461.67	-0.01
461.87	-0.03
462.071	-0.02
462.272	0.01
462.473	0
462.673	0.02
462.874	-0.03
463.075	-0.01
463.275	-0.07
463.476	-0.03
463.676	-0.03
463.877	-0.04
464.078	0.02
464.278	0.06
464.479	-0.03
464.679	0.02
464.88	0.01
465.08	0.05
465.281	-0.03
465.481	-0.05
465.682	-0
465.882	-0.06
466.083	-0.01
466.283	-0.01
466.483	-0.01
466.684	-0.07
466.884	-0.03
467.085	0
467.285	0.05
467.485	-0.01
467.686	-0.02
467.886	-0.05
468.086	0
468.286	-0.02
468.487	0
468.687	-0.01
468.887	0.02
469.087	0.03
469.287	-0.01
469.488	-0.07
469.688	0.01
469.888	0.03
470.088	0.05
470.288	0.03
470.488	0.04
470.688	-0.08
470.888	-0.01
471.088	-0.05
471.288	0.08
471.488	-0.01
471.688	0.01
471.888	-0.02
472.088	0.03
472.288	0.05
472.488	-0.04
472.688	-0.04
472.888	-0.02
473.088	-0.02
473.288	0.01
473.488	-0.02
473.688	0.06
473.887	-0.02
474.087	-0.06
474.287	0.03
474.487	-0.03
474.687	0.01
474.886	-0.04
475.086	-0.01
475.286	0.02
475.486	0.01
475.685	0.01
475.885	-0.01
476.085	-0.06
476.284	-0
476.484	-0.01
476.684	0.01
476.883	0.03
477.083	0.03
477.282	-0.02
477.482	0.04
477.681	0.06
477.881	-0
478.08	-0.03
478.28	-0.03
478.479	0.02
478.679	0.04
478.878	-0.02
479.078	-0.03
479.277	-0.05
479.477	0
479.676	0.04
479.875	-0.01
480.075	-0.06
480.274	0.02
480.473	0.01
480.673	-0.03
480.872	0.03
481.071	0.02
481.271	0.01
481.47	-0.04
481.669	0
481.868	-0.02
482.067	-0.03
482.267	-0.04
482.466	-0.01
482.665	-0.04
482.864	-0.03
483.063	-0.04
483.262	-0.01
483.461	0.02
483.661	0.01
483.86	-0.02
484.059	-0
484.258	-0.01
484.457	-0.03
484.656	-0.03
484.855	0.03
485.054	-0.06
485.253	-0.04
485.452	-0.02
485.651	-0
485.849	-0
486.048	-0.04
486.247	-0.03
486.446	-0
486.645	-0.03
486.844	-0.03
487.043	-0.02
487.241	0.01
487.44	-0.02
487.639	-0.03
487.838	0
488.037	-0.01
488.235	0.02
488.434	0.01
488.633	-0.03
488.831	-0.01
489.03	0.02
489.229	0.01
489.427	-0.01
489.626	0.05
489.825	0.04
490.023	0
490.222	-0
490.42	0.01
490.619	0.04
490.817	0.01
491.016	-0.01
491.214	0.04
491.413	-0.02
491.611	0.01
491.81	0.01
492.008	0.01
492.207	0.02
492.405	-0.02
492.604	-0.06
492.802	-0.02
493	0.01
493.199	-0.01
493.397	-0.01
493.595	-0.03
493.794	-0.01
493.992	0.05
494.19	-0.03
494.388	0.02
494.587	-0.02
494.785	0.01
494.983	-0.02
495.181	-0
495.379	0
495.578	-0.01
495.776	0.01
495.974	0.01
496.172	-0.03
496.37	-0.02
496.568	-0.03
496.766	-0.02
496.964	0.01
497.162	-0
497.36	-0.01
497.558	-0.01
497.756	0.01
497.954	-0
498.152	-0.03
498.35	0
498.548	-0.01
498.746	-0.01
498.944	-0.03
499.142	0
499.34	-0.04
499.538	-0.01
499.736	-0.05
499.933	0.03
500.131	0.03
500.329	-0
500.527	0.01
500.725	0.02
500.922	0.01
501.12	-0
501.318	-0
501.516	-0.03
501.713	0.02
501.911	-0.01
502.109	-0.04
502.306	0.02
502.504	-0.02
502.701	-0.02
502.899	-0.04
503.097	0.03
503.294	-0.02
503.492	-0.03
503.689	0
503.887	-0
504.084	0.03
504.282	0.02
504.479	-0.04
504.677	-0
504.874	-0.03
505.072	0.02
505.269	-0.02
505.466	0.03
505.664	-0
505.861	-0.03
506.059	-0.05
506.256	0.01
506.453	-0.03
506.651	0.03
506.848	0
507.045	-0
507.242	-0.02
507.44	-0.02
507.637	-0.01
507.834	-0.02
508.031	0
508.229	-0.04
508.426	0.01
508.623	0.01
508.82	-0.04
509.017	-0.05
509.214	-0.01
509.411	-0.02
509.608	-0.03
509.805	-0.01
510.003	-0.02
510.2	-0.02
510.397	0.01
510.594	-0.03
510.791	-0.01
510.988	-0.02
511.184	0.01
511.381	-0
511.578	-0.02
511.775	0.02
511.972	-0.02
512.169	-0.02
512.366	0
512.563	0.03
512.76	-0.04
512.956	0.04
513.153	-0.02
513.35	0.02
513.547	-0.03
513.744	-0.02
513.94	-0.04
514.137	0.01
514.334	-0
514.53	-0.02
514.727	-0
514.924	0.04
515.12	-0.03
515.317	-0.03
515.514	-0
515.71	-0
515.907	-0.01
516.103	-0.03
516.3	0.02
516.497	0.01
516.693	0.03
516.89	0.01
517.086	-0.01
517.283	0
517.479	0
517.676	-0.03
517.872	-0.01
518.068	-0.01
518.265	-0.02
518.461	-0.04
518.658	-0.04
518.854	0.01
519.05	-0.03
519.247	-0.02
519.443	0.01
519.639	-0
519.836	-0
520.032	0.01
520.228	-0
520.424	0.04
520.621	0.01
520.817	-0.01
521.013	0.03
521.209	0.01
521.405	0.04
521.601	0.01
521.798	-0.01
521.994	0.05
522.19	-0.04
522.386	-0.05
522.582	0.01
522.778	-0.01
522.974	-0.03
523.17	-0
523.366	-0.02
523.562	0.01
523.758	-0.03
523.954	-0.01
524.15	-0.02
524.346	0.01
524.542	-0.01
524.738	-0.03
524.934	0.01
525.129	-0.01
525.325	-0.01
525.521	-0
525.717	0.02
525.913	-0
526.109	-0.02
526.304	0
526.5	0.01
526.696	0.02
526.892	-0.02
527.087	0.01
527.283	-0.03
527.479	0.01
527.674	-0.04
527.87	-0.02
528.066	-0.01
528.261	0
528.457	-0
528.653	-0.02
528.848	-0.01
529.044	-0.01
529.239	-0.02
529.435	0.02
529.63	0.01
529.826	0.05
530.021	-0.01
530.217	0.01
530.412	-0
530.608	-0.03
530.803	-0
530.999	-0.01
531.194	-0.05
531.389	-0.03
531.585	-0.05
531.78	-0
531.975	-0.01
532.171	0.02
532.366	-0.02
532.561	0.01
532.757	-0.04
532.952	-0.03
533.147	0.01
533.342	0
533.538	-0
533.733	0.02
533.928	-0.01
534.123	-0.02
534.318	-0.04
534.513	-0.01
534.709	-0.02
534.904	-0.01
535.099	-0.01
535.294	0.01
535.489	-0.01
535.684	-0.01
535.879	-0.03
536.074	0.02
536.269	-0.01
536.464	0.01
536.659	-0.01
536.854	-0.02
537.049	-0.02
537.244	-0
537.439	-0.03
537.634	0.03
537.828	0.02
538.023	-0.02
538.218	-0.03
538.413	-0.02
538.608	-0.05
538.803	0
538.997	-0.02
539.192	0.04
539.387	0
539.582	0.01
539.776	-0.01
539.971	-0.03
540.166	-0.01
540.36	-0.03
540.555	-0.01
540.75	-0.02
540.944	0.01
541.139	-0.02
541.334	-0.02
541.528	0.01
541.723	0.03
541.917	-0.01
542.112	-0.05
542.306	-0.04
542.501	-0.03
542.695	0.02
542.89	-0.04
543.084	-0.01
543.279	-0.01
543.473	-0
543.668	-0.01
543.862	-0.01
544.056	0.03
544.251	-0.03
544.445	0.02
544.64	-0.01
544.834	-0.02
545.028	-0
545.222	0
545.417	0.02
545.611	0
545.805	-0.02
546	0.01
546.194	-0.02
546.388	-0.05
546.582	0.01
546.776	-0.01
546.97	0.01
547.165	0.01
547.359	0
547.553	-0.02
547.747	0.01
547.941	-0.03
548.135	-0.01
548.329	0.02
548.523	0.02
548.717	-0.01
548.911	-0.03
549.105	-0.03
549.299	-0
549.493	0.02
549.687	0.02
549.881	0.01
550.075	-0.02
550.269	-0.01
550.463	0.02
550.657	-0.01
550.85	-0.02
551.044	-0.01
551.238	0.01
551.432	-0.02
551.626	-0.03
551.82	-0
552.013	-0.02
552.207	-0.02
552.401	-0.01
552.594	0
552.788	-0.02
552.982	0.01
553.176	-0.03
553.369	0.02
553.563	-0
553.756	-0.04
553.95	-0.02
554.144	-0.02
554.337	0.03
554.531	-0
554.724	-0.01
554.918	-0.02
555.111	0.02
555.305	0.01
555.498	0.03
555.692	0
555.885	-0.01
556.079	0.01
556.272	-0.04
556.466	0.03
556.659	-0.01
556.852	-0.01
557.046	-0.01
557.239	0.02
557.432	-0.02
557.626	-0.02
557.819	0
558.012	-0
558.206	0.01
558.399	-0.02
558.592	0
558.785	-0
558.979	0
559.172	-0.02
559.365	0.01
559.558	0.02
559.751	-0
559.944	0.01
560.138	-0.02
560.331	-0
560.524	-0.01
560.717	0.01
560.91	-0.01
561.103	0.03
561.296	0.01
561.489	0.02
561.682	0.01
561.875	0.02
562.068	0
562.261	-0.01
562.454	0.02
562.647	0
562.84	0.01
563.032	-0.03
563.225	0
563.418	-0.02
563.611	-0.01
563.804	-0.02
563.997	-0.01
564.19	-0.05
564.382	-0.05
564.575	-0.02
564.768	-0.01
564.961	-0.03
565.153	-0.02
565.346	0.04
565.539	0.01
565.731	-0
565.924	-0
566.117	0
566.309	0.01
566.502	-0.03
566.695	-0.02
566.887	0.01
567.08	-0.03
567.272	-0
567.465	-0.02
567.657	-0.03
567.85	-0.02
568.042	-0
568.235	0.06
568.427	-0.01
568.62	-0
568.812	0.01
569.005	-0.02
569.197	-0.04
569.389	-0.01
569.582	-0
569.774	0
569.966	-0.04
570.159	-0.04
570.351	0.01
570.543	-0.01
570.736	-0.01
570.928	-0.01
571.12	-0.01
571.312	-0.01
571.505	-0.04
571.697	0.02
571.889	-0.03
572.081	-0.02
572.273	-0.03
572.465	0.02
572.658	0.01
572.85	-0
573.042	0
573.234	-0.01
573.426	0.02
573.618	-0.02
573.81	0
574.002	0.01
574.194	0.02
574.386	-0.06
574.578	-0.07
574.77	-0.03
574.962	-0
575.154	-0.05
575.346	-0.02
575.538	0
575.729	-0.03
575.921	-0.01
576.113	-0.01
576.305	0.04
576.497	-0.01
576.689	-0.01
576.88	-0.04
577.072	0.02
577.264	0
577.456	-0.01
577.647	-0.07
577.839	-0.01
578.031	0.02
578.223	-0.04
578.414	-0.04
578.606	0.01
578.798	0
578.989	-0.02
579.181	-0.01
579.372	-0.01
579.564	-0.02
579.755	-0
579.947	0
580.139	0.01
580.33	-0.03
580.522	-0.03
580.713	-0.06
580.905	-0.02
581.096	-0.01
581.287	0
581.479	-0.01
581.67	0.02
581.862	0
582.053	-0.01
582.244	-0.08
582.436	-0.02
582.627	0
582.818	-0.04
583.01	-0.04
583.201	0
583.392	0.01
583.583	-0.02
583.775	-0.02
583.966	-0.01
584.157	-0.02
584.348	-0.03
584.54	-0.04
584.731	-0.03
584.922	0
585.113	-0.04
585.304	0.02
585.495	0
585.686	0.01
585.877	-0
586.068	0.01
586.259	-0.01
586.45	0.01
586.641	-0.01
586.832	-0.07
587.023	0.01
587.214	-0.03
587.405	-0
587.596	-0.03
587.787	0.04
587.978	0.01
588.169	-0.03
588.36	-0.03
588.551	0
588.742	-0.02
588.932	0.01
589.123	-0
589.314	0.02
589.505	0.02
589.696	0.03
589.886	-0.02
590.077	-0.07
590.268	0.01
590.458	-0.04
590.649	-0.04
590.84	0.02
591.03	-0.03
591.221	-0.04
591.412	-0.06
591.602	0.01
591.793	0.04
591.984	-0.05
592.174	-0.03
592.365	0.05
592.555	-0.02
592.746	-0
592.936	0.04
593.127	0.02
593.317	0.03
593.508	-0.04
593.698	-0.02
593.889	0.01
594.079	0.01
594.269	-0.02
594.46	0
594.65	0.01
594.84	-0.03
595.031	-0.05
595.221	-0.03
595.411	-0.05
595.602	-0
595.792	-0.01
595.982	-0.02
596.172	0.04
596.363	-0.01
596.553	-0.01
596.743	-0.03
596.933	0
597.123	0.04
597.314	-0.03
597.504	-0.02
597.694	0.02
597.884	0.01
598.074	-0.04
598.264	-0.03
598.454	-0.02
598.644	-0.02
598.834	-0.02
599.024	-0.04
599.214	-0.02
599.404	0.03
599.594	-0.03
599.784	-0.03
599.974	0.03
600.164	0.04
600.354	-0.06
600.544	-0.06
600.734	-0.04
600.924	-0.02
601.114	-0.02
601.303	0.01
601.493	0.01
601.683	-0.03
601.873	-0.02
602.063	-0.06
602.252	0.03
602.442	-0.07
602.632	-0.04
602.821	-0.04
603.011	0.01
603.201	-0.01
603.39	-0.03
603.58	-0.03
603.77	-0.01
603.959	0.03
604.149	-0.01
604.339	-0.01
604.528	0.03
604.718	0.02
604.907	-0.02
605.097	-0.02
605.286	-0.04
605.476	0.03
605.665	0
605.855	-0.02
606.044	0.03
606.234	0
606.423	-0.02
606.612	-0.04
606.802	0
606.991	0.02
607.181	-0.02
607.37	-0.06
607.559	-0.01
607.749	-0.04
607.938	-0.02
608.127	-0.01
608.316	-0.03
608.506	-0.01
608.695	-0.02
608.884	-0.03
609.073	-0.02
609.263	0.02
609.452	0.01
609.641	-0
609.83	-0.04
610.019	-0.02
610.208	-0.04
610.397	-0.02
610.586	-0
610.775	-0.03
610.965	-0.02
611.154	-0.04
611.343	-0.01
611.532	-0.02
611.721	-0.05
611.91	-0.04
612.099	0.02
612.287	-0.01
612.476	-0.03
612.665	0
612.854	-0.04
613.043	0.05
613.232	-0.03
613.421	-0.07
613.61	0.02
613.798	-0.05
613.987	0.03
614.176	-0.01
614.365	0.01
614.554	0.01
614.742	0.01
614.931	-0.01
615.12	0.03
615.309	-0.03
615.497	-0.01
615.686	-0.03
615.875	-0.01
616.063	0.02
616.252	-0.02
616.44	-0.04
616.629	0.01
616.818	0.02
617.006	0.01
617.195	-0
617.383	-0.02
617.572	0
617.76	-0.01
617.949	-0.06
618.137	-0
618.326	0.02
618.514	-0.04
618.703	-0.04
618.891	0.03
619.079	-0.08
619.268	-0.01
619.456	-0.04
619.644	0.03
619.833	-0.03
620.021	-0.04
620.209	-0.05
620.398	0
620.586	-0
620.774	0.02
620.962	-0.01
621.151	0.05
621.339	-0.01
621.527	-0.04
621.715	-0.06
621.903	-0.02
622.092	-0.02
622.28	0.01
622.468	0.01
622.656	-0.02
622.844	0.04
623.032	-0.04
623.22	-0.09
623.408	-0
623.596	-0
623.784	0
623.972	-0.06
624.16	-0.06
624.348	0.04
624.536	-0.04
624.724	-0.03
624.912	0.05
625.1	0
625.288	-0.07
625.476	-0.06
625.664	0.03
625.851	-0.05
626.039	-0.02
626.227	-0.01
626.415	-0.03
626.603	-0.08
626.79	-0.04
626.978	-0
627.166	0.01
627.354	-0.01
627.541	-0.01
627.729	-0.07
627.917	0.01
628.104	0.04
628.292	-0
628.48	0.01
628.667	0.02
628.855	-0
629.042	0.02
629.23	-0.02
629.418	-0.02
629.605	-0.02
629.793	-0.04
629.98	-0
630.168	-0.02
630.355	-0.03
630.543	0.02
630.73	-0.05
630.917	0.02
631.105	0.05
631.292	-0.02
631.48	-0.02
631.667	0.07
631.854	-0.02
632.042	-0.03
632.229	-0.06
632.416	0
632.604	-0.04
632.791	-0.05
632.978	-0
633.165	0.01
633.353	0.03
633.54	0.05
633.727	-0.07
633.914	-0.03
634.101	-0.08
634.289	0.06
634.476	-0.01
634.663	-0.06
634.85	-0.03
635.037	-0.03
635.224	-0.1
635.411	0.01
635.598	0.03
635.785	-0.03
635.972	-0
636.159	0.01
636.346	-0.03
636.533	-0.03
636.72	-0.02
636.907	-0.02
637.094	-0.02
637.281	-0
637.468	0.02
637.655	-0.01
637.842	-0.01
638.029	-0.05
638.215	0.04
638.402	-0.02
638.589	-0.02
638.776	-0.02
638.963	-0.03
639.149	0.03
639.336	0
639.523	-0.01
639.709	-0
639.896	-0.03
640.083	0.05
640.27	-0.02
640.456	-0.01
640.643	0.01
640.829	-0.05
641.016	-0.01
641.203	-0.03
641.389	0.03
641.576	0.03
641.762	-0.01
641.949	0.01
642.135	-0.01
642.322	0.01
642.508	-0.03
642.695	-0.03
642.881	-0.03
643.068	-0.03
643.254	-0
643.441	0.03
643.627	-0.02
643.813	-0.02
644	0.03
644.186	-0.04
644.372	0.01
644.559	0.03
644.745	-0.02
644.931	-0.03
645.118	-0.04
645.304	-0
645.49	-0.03
645.676	-0.02
645.862	-0.03
646.049	0.03
646.235	0
646.421	0.02
646.607	0.07
646.793	-0.04
646.979	-0.06
647.165	0.01
647.352	0
647.538	0.03
647.724	-0.03
647.91	-0.01
648.096	0.01
648.282	0.01
648.468	-0.02
648.654	0.01
648.84	0.01
649.026	-0.01
649.212	-0.04
649.397	-0.04
649.583	-0.06
649.769	-0.02
649.955	-0.01
650.141	0.01
650.327	0.03
650.513	-0.05
650.698	-0
650.884	-0.09
651.07	-0.01
651.256	0
651.442	-0
651.627	-0.04
651.813	0.01
651.999	0
652.184	0.01
652.37	-0.01
652.556	-0.05
652.741	0.04
652.927	-0.08
653.113	-0.02
653.298	0.02
653.484	-0.03
653.669	-0.08
653.855	-0.01
654.04	0.01
654.226	-0
654.412	-0.04
654.597	-0.04
654.782	0.01
654.968	0
655.153	0.01
655.339	-0.05
655.524	-0.04
655.71	0.02
655.895	-0.01
656.08	-0.05
656.266	0.04
656.451	0
656.636	-0.06
656.822	-0.01
657.007	-0.04
657.192	0
657.378	-0.07
657.563	-0.01
657.748	0
657.933	0.02
658.118	0.02
658.304	-0.01
658.489	-0
658.674	0.03
658.859	-0.04
659.044	0
659.229	-0.02
659.414	-0.06
659.599	-0.05
659.785	-0.07
659.97	-0.02
660.155	-0
660.34	-0.02
660.525	-0.01
660.71	-0.01
660.895	0.06
661.08	-0.03
661.264	-0.02
661.449	0.02
661.634	0.02
661.819	0.01
662.004	0
662.189	-0.05
662.374	-0.03
662.559	-0.05
662.743	-0.06
662.928	0.01
663.113	-0.03
663.298	-0.07
663.483	-0.05
663.667	-0.01
663.852	-0.06
664.037	0.04
664.221	-0.03
664.406	0.04
664.591	0.01
664.775	-0.04
664.96	-0.07
665.145	0.03
665.329	0.03
665.514	-0.03
665.698	-0.02
665.883	-0.06
666.068	0.04
666.252	-0.02
666.437	-0.05
666.621	-0.03
666.806	-0.01
666.99	-0.05
667.174	-0.09
667.359	0.05
667.543	-0.05
667.728	-0.04
667.912	-0.1
668.096	0.01
668.281	-0
668.465	0.01
668.649	-0.04
668.834	-0.05
669.018	0.02
669.202	-0.03
669.387	-0.08
669.571	0.03
669.755	-0.07
669.939	-0.02
670.124	-0.01
670.308	0.03
670.492	0.01
670.676	0.01
670.86	-0.05
671.044	-0.07
671.228	0.01
671.413	-0.04
671.597	-0.02
671.781	-0.08
671.965	0.04
672.149	-0.03
672.333	-0.02
672.517	-0.04
672.701	0.01
672.885	-0.04
673.069	-0.08
673.253	0.03
673.437	-0.02
673.621	-0.07
673.804	-0.02
673.988	-0.07
674.172	-0.01
674.356	-0.1
674.54	-0.01
674.724	0.07
674.908	0.01
675.091	-0.02
675.275	-0.02
675.459	0.05
675.643	-0.02
675.826	-0
676.01	0.01
676.194	-0.04
676.377	0.02
676.561	0
676.745	-0.03
676.928	0.03
677.112	0.05
677.296	-0.07
677.479	-0.05
677.663	-0.03
677.846	0.02
678.03	-0.01
678.213	-0.01
678.397	0.01
678.58	-0.05
678.764	-0.09
678.947	-0.09
679.131	-0.02
679.314	0.02
679.498	0
679.681	-0.01
679.865	0.02
680.048	0.01
680.231	-0.01
680.415	-0.01
680.598	-0.05
680.781	-0.02
680.965	-0.02
681.148	-0.01
681.331	-0.03
681.514	0.01
681.698	-0.04
681.881	0.03
682.064	0.03
682.247	-0.01
682.43	-0.03
682.614	-0.01
682.797	0.02
682.98	0.06
683.163	-0.09
683.346	-0.01
683.529	-0.06
683.712	-0.08
683.895	-0.01
684.078	-0.06
684.261	0
684.444	-0.01
684.627	-0.01
684.81	-0.04
684.993	-0.02
685.176	-0.02
685.359	-0.06
685.542	-0.03
685.725	0.03
685.908	-0.01
686.091	-0.02
686.274	0.03
686.457	0.01
686.639	-0.02
686.822	-0
687.005	0.03
687.188	0.02
687.371	0.04
687.553	0.05
687.736	0.01
687.919	0.05
688.102	0.07
688.284	-0.03
688.467	0.02
688.65	-0.03
688.832	-0.02
689.015	0.01
689.197	-0.04
689.38	0.1
689.563	0.06
689.745	-0.07
689.928	-0.05
690.11	0
690.293	-0.02
690.475	-0.09
690.658	-0
690.84	-0.09
691.023	-0
691.205	-0.02
691.388	-0.01
691.57	0
691.752	0.07
691.935	-0.09
692.117	-0.05
692.3	0.01
692.482	-0.03
692.664	0
692.847	0.04
693.029	0.05
693.211	0.02
693.393	-0.05
693.576	-0.05
693.758	-0.02
693.94	-0.02
694.122	-0.01
694.304	-0.03
694.487	-0.03
694.669	0.07
694.851	-0.01
695.033	-0.01
695.215	-0.04
695.397	-0.1
695.579	0
695.761	-0.05
695.943	-0.07
696.125	0
696.308	-0.01
696.49	-0.13
696.671	0.1
696.853	0
697.035	0.11
697.217	-0.05
697.399	0.03
697.581	-0.07
697.763	-0.05
697.945	-0.07
698.127	-0.06
698.309	0.04
698.491	-0.01
698.672	-0
698.854	0.05
699.036	0.08
699.218	-0.07
699.399	0.04
699.581	0.05
699.763	0.03
699.945	-0.02
700.126	-0.06
700.308	0
700.49	-0.01
700.671	-0.06
700.853	-0.01
701.035	-0.02
701.216	0.01
701.398	-0.08
701.579	-0.05
701.761	0.1
701.943	-0.07
702.124	-0.03
702.306	-0.04
702.487	0.11
702.669	0.04
702.85	-0.11
703.031	-0.07
703.213	0.1
703.394	0.07
703.576	-0.04
703.757	0.05
703.938	-0.03
704.12	0.1
704.301	-0.03
704.483	0
704.664	-0.01
704.845	0.04
705.026	0.04
705.208	-0.01
705.389	-0.03
705.57	0.04
705.751	-0.08
705.933	0
706.114	0.07
706.295	-0.02
706.476	-0.1
706.657	0.05
706.838	0.02
707.02	0.05
707.201	-0.07
707.382	-0.12
707.563	-0.01
707.744	-0.05
707.925	-0.07
708.106	-0.1
708.287	-0.04
708.468	0.06
708.649	-0.01
708.83	0.06
709.011	-0.01
709.192	0
709.373	-0.1
709.554	0
709.734	0.03
709.915	0.02
710.096	0
710.277	-0.08
710.458	0.01
710.639	-0.01
710.819	-0.09
711	-0.08
711.181	0.03
711.362	0.05
711.542	-0.02
711.723	-0.04
711.904	0.06
712.085	-0.04
712.265	0.03
712.446	-0.02
712.627	-0.04
712.807	-0.01
712.988	-0.04
713.168	-0.11
713.349	0.09
713.53	-0.11
713.71	-0.09
713.891	-0.11
714.071	0.01
714.252	-0.02
714.432	-0.04
714.613	-0.15
714.793	0.04
714.974	0.1
715.154	0.03
715.334	-0.01
715.515	0.06
715.695	-0.08
715.876	-0.01
716.056	0.01
716.236	0.01
716.417	-0.02
716.597	-0.09
716.777	0.08
716.957	-0.01
717.138	-0.05
717.318	-0.02
717.498	-0.11
717.678	-0.04
717.859	-0.04
718.039	-0.11
718.219	-0.04
718.399	-0.01
718.579	-0.09
718.759	-0.05
718.939	0.04
719.12	-0.01
719.3	-0.01
719.48	-0.11
719.66	-0.16
719.84	0.11
720.02	-0
720.2	-0.09
720.38	-0.01
720.56	0.11
720.74	-0.06
720.92	0.01
721.1	0.08
721.279	0.1
721.459	-0
721.639	-0.11
721.819	-0.03
721.999	-0.05
722.179	-0.02
722.359	-0.03
722.538	-0.1
722.718	0.01
722.898	-0.05
723.078	-0.03
723.257	0.02
723.437	-0.02
723.617	-0.03
723.797	-0.05
723.976	-0.07
724.156	-0.01
724.336	-0.02
724.515	0.13
724.695	-0.17
724.874	-0.04
725.054	-0.04
725.234	-0.08
725.413	0.03
725.593	0.03
725.772	0.02
725.952	-0.08
726.131	-0.06
726.311	-0.02
726.49	0.01
726.67	-0.17
726.849	-0.13
727.028	0.03
727.208	-0.1
727.387	-0
727.567	-0.08
727.746	0.01
727.925	-0.02
728.105	-0.09
728.284	-0.07
728.463	-0.04
728.643	0.01
728.822	-0.1
729.001	-0.07
729.18	-0.01
729.359	0.01
729.539	-0.01
729.718	0.01
729.897	-0.04
730.076	-0.06
730.255	-0.1
730.434	-0
730.614	-0.03
730.793	0.08
730.972	0
731.151	0
731.33	0.06
731.509	-0.01
731.688	-0.04
731.867	-0
732.046	-0.17
732.225	0.18
732.404	-0.1
732.583	-0.15
732.762	0.02
732.941	0.05
733.12	0.05
733.298	0
733.477	0.15
733.656	-0.1
733.835	-0.02
734.014	0.13
734.193	-0.05
734.371	0.02
734.55	-0.03
734.729	-0.18
734.908	0.01
735.086	0.15
735.265	0.07
735.444	-0.05
735.623	-0.12
735.801	-0.17
735.98	-0.05
736.159	-0.05
736.337	0.06
736.516	-0.09
736.694	0.01
736.873	-0.12
737.052	0.04
737.23	0.08
737.409	-0.04
737.587	0.09
737.766	-0.12
737.944	-0.14
738.123	-0
738.301	0.02
738.479	-0.02
738.658	-0.05
738.836	-0.15
739.015	-0.07
739.193	0.04
739.371	-0.11
739.55	-0.09
739.728	-0.06
739.906	0.15
740.085	0.12
740.263	0.02
740.441	-0.16
740.62	0.21
740.798	-0.07
740.976	-0.09
741.154	-0.05
741.332	0.06
741.511	-0.05
741.689	-0.03
741.867	0.04
742.045	0.02
742.223	-0.08
742.401	-0.14
742.579	0
742.757	-0.03
742.935	-0.23
743.114	-0.07
743.292	-0.04
743.47	0.01
743.648	-0.08
743.826	0.04
744.004	0.03
744.181	0.11
744.359	-0.04
744.537	-0.07
744.715	-0.08
744.893	0.01
745.071	0.03
745.249	-0.13
745.427	-0.04
745.605	0
745.782	-0
745.96	0.08
746.138	0.01
746.316	0.06
746.493	-0.05
746.671	0.02
746.849	-0
747.027	0.14
747.204	-0.08
747.382	0.04
747.56	-0.15
747.737	-0.16
747.915	-0.06
748.093	0.07
748.27	-0.1
748.448	-0.02
748.625	-0.12
748.803	-0.04
748.98	-0.07
749.158	-0.1
749.335	0.13
749.513	-0.05
749.69	-0.04
749.868	-0.02
750.045	-0.02
750.223	-0.07
750.4	-0.22
750.578	0.22
750.755	-0.05
750.932	-0.07
751.11	0.15
751.287	-0.12
751.464	0.04
751.642	-0.09
751.819	0.02
751.996	0.07
752.173	0.05
752.351	-0.17
752.528	-0.02
752.705	-0.04
752.882	0.03
753.06	-0.05
753.237	0.14
753.414	0.2
753.591	0.09
753.768	-0.02
753.945	-0.11
754.122	-0.14
754.299	0
754.476	-0.06
754.654	-0.03
754.831	0.04
755.008	-0.02
755.185	-0.06
755.362	-0.1
755.539	0.05
755.716	-0.13
755.892	-0.06
756.069	0.02
756.246	-0.01
756.423	-0.02
756.6	0.14
756.777	-0.06
756.954	0.12
757.131	-0.06
757.307	-0.17
757.484	-0.12
757.661	-0.04
757.838	0
758.015	-0.15
758.191	0.13
758.368	0.06
758.545	0.1
758.721	0.01
758.898	-0.04
759.075	0.01
759.251	-0.03
759.428	0.11
759.605	-0.17
759.781	-0.01
759.958	-0
760.134	-0
760.311	-0.18
760.488	0.09
760.664	0.19
760.841	-0.02
761.017	-0.1
761.194	0.05
761.37	0.13
761.547	0.04
761.723	-0.12
761.899	0.07
762.076	0.02
762.252	-0.01
762.429	-0.08
762.605	0.07
762.781	-0.06
762.958	0.13
763.134	-0.07
763.31	-0.11
763.486	0.11
763.663	-0.14
763.839	0.02
764.015	-0.2
764.191	-0.01
764.368	-0.17
764.544	-0.18
764.72	-0.04
764.896	0.08
765.072	0.01
765.248	0.03
765.425	0.04
765.601	-0.13
765.777	-0.1
765.953	-0.28
766.129	-0.04
766.305	-0.13
766.481	0.02
766.657	-0.05
766.833	0.03
767.009	-0.06
767.185	-0.08
767.361	-0.1
767.537	-0.13
767.713	0.12
767.889	-0.17
768.065	-0.1
768.24	-0.33
768.416	0.04
768.592	-0.11
768.768	-0.01
768.944	0.02
769.12	-0.01
769.295	-0.05
769.471	-0.03
769.647	-0.08
769.823	0.12
769.998	-0.04
770.174	-0.11
770.35	0.17
770.525	0.24
770.701	0.03
770.877	-0.06
771.052	-0.1
771.228	0.16
771.403	0.07
771.579	-0.01
771.755	0.35
771.93	-0.1
772.106	-0.05
772.281	-0.25
772.457	-0.06
772.632	0.01
772.808	-0.19
772.983	-0.03
773.159	-0.19
773.334	0.18
773.509	-0.02
773.685	-0.07
773.86	0.38
774.036	0.32
774.211	-0.04
774.386	-0.04
774.562	0.01
774.737	0.06
774.912	-0.09
775.087	-0.1
775.263	-0.05
775.438	0.02
775.613	-0.09
775.788	-0.14
775.964	-0.1
776.139	0.33
776.314	-0.07
776.489	0.11
776.664	-0.06
776.839	-0.15
777.014	0.19
777.19	0.11
777.365	0.26
777.54	0.24
777.715	-0.07
777.89	0.03
778.065	-0.14
778.24	-0.04
778.415	0.14
778.59	-0.19
778.765	-0.03
778.94	-0.08
779.115	-0.03
779.289	0.05
779.464	-0.08
779.639	-0.06
779.814	-0.29
779.989	-0.13
780.164	0.19
780.339	0.14
780.513	0.07
780.688	-0.18
780.863	-0.02
781.038	0.14
781.212	-0.17
781.387	-0.19
781.562	0.18
781.737	-0.02
781.911	0.01
782.086	-0.14
782.261	-0.06
782.435	0.14
782.61	-0.15
782.784	-0.09
782.959	0.21
783.134	-0.12
783.308	-0.17
783.483	-0.03
783.657	0.21
783.832	0.19
784.006	-0.28
784.181	-0.02
784.355	0.01
784.53	-0.22
784.704	-0.2
784.878	0.21
785.053	0.08
785.227	0.05
785.402	0.27
785.576	-0.21
785.75	-0.03
785.925	-0.03
786.099	-0.14
786.273	0.02
786.448	0.06
786.622	-0.04
786.796	0.13
786.97	0.02
787.145	0.41
787.319	-0.49
787.493	-0.18
787.667	-0.48
787.841	0.02
788.015	0.2
788.19	-0.14
788.364	0.02
788.538	0.16
788.712	-0.02
788.886	0.01
789.06	0.16
789.234	0.26
789.408	-0.17
789.582	-0.1
789.756	-0.06
789.93	-0.15
790.104	-0.21
790.278	0.12
790.452	-0.12
790.626	0.02
790.8	-0.14
790.973	0.19
791.147	0.26
791.321	0.21
791.495	0.13
791.669	0.09
791.843	0.08
792.016	0.13
792.19	0.33
792.364	-0.29
792.538	0.31
792.711	0.23
792.885	0.07
793.059	-0.1
793.233	-0.68
793.406	0.18
793.58	0.07
793.754	-0.17
793.927	-0
794.101	0.4
794.274	-0.1
794.448	-0.06
794.622	-0.18
794.795	0.25
794.969	-0.21
795.142	0.37
795.316	0.19
795.489	-0.14
795.663	0.28
795.836	-0.3
796.009	-0.21
796.183	0.23
796.356	0.13
796.53	0.3
796.703	-0.02
796.876	0.46
797.05	-0.11
797.223	-0.1
797.396	0.04
797.57	0.07
797.743	0.31
797.916	0.14
798.09	-0.05
798.263	0.09
798.436	0.15
798.609	0.04
798.782	-0.4
798.956	-0
799.129	0.07
799.302	-0.08
799.475	0.05
799.648	-0.45
799.821	-0.24
799.994	-0.04
800.167	-0.45
800.34	-0.08
800.514	0.4
800.687	-0.24
800.86	0.35
801.033	0.02
801.206	0.16
801.379	-0.21
801.551	0.11
801.724	0.36
801.897	0.22
802.07	-0.37
802.243	-0.34
802.416	-0.22
802.589	-0.02
802.762	0.09
802.935	0.12
803.107	-0
803.28	0.37
803.453	-0
803.626	-0.33
803.798	0.1
803.971	-0.26
804.144	0.42
804.317	0.38
804.489	0.05
804.662	-0.03
804.835	0.18
805.007	-0.32
805.18	0.54
805.353	0.04
805.525	-0.04
805.698	-0.35
805.87	0.46
806.043	0.28
806.215	-0.27
806.388	-0.31
806.56	-0.14
806.733	0.25
806.905	0.11
807.078	-0.2
807.25	-0.14
807.423	0.27
807.595	0.06
807.768	0.07
807.94	0.07
808.112	0.13
808.285	0.04
808.457	-0.16
808.629	0.09
808.802	0.42
808.974	-0.16
809.146	-0.38
809.318	-0.31
809.491	0.08
809.663	0.09
809.835	-0.34
810.007	0.31
810.18	-0.35
810.352	-0.22
810.524	-0.03
810.696	-0.04
810.868	0.45
811.04	-0.34
811.212	-0.1
811.384	0.12
811.556	-0.01
811.728	0.22
811.901	0.72
812.073	0.1
812.245	-0.21
812.417	-0.09
812.589	-0.47
812.76	0.32
812.932	-0.11
813.104	0.49
813.276	-0.25
813.448	0.18
813.62	-0.28
813.792	-0
813.964	-0.1
814.136	0.3
814.307	-0.52
814.479	-0.16
814.651	0.02
814.823	1.06
814.995	-0.16
815.166	0.17
815.338	-0.45
815.51	-0.61
815.681	1.01
815.853	0.21
816.025	-0.13
816.196	0.29
816.368	0.29
816.54	-0.44
816.711	-0.19
816.883	0.2
817.054	0.89
817.226	-0.64
817.398	-0.16
817.569	-0.15
817.741	0.39
817.912	-0.31
818.084	-0.21
818.255	0.23
818.426	-0.31
818.598	-0.2
818.769	-0.48
818.941	0.08
819.112	0.49
819.283	0.27
819.455	-0.53
819.626	0.04
819.798	0.45
819.969	-0.22
820.14	0.16
820.311	-0.55
820.483	0.24
820.654	-0.26
820.825	0.17
820.996	0.01
821.168	-0.51
821.339	-0.07
821.51	-0.29
821.681	-0.12
821.852	-0.21
822.023	-0.19
822.195	-1.04
822.366	0.58
822.537	-0.12
822.708	0.17
822.879	-0.13
823.05	0.39
823.221	0.08
823.392	0.24
823.563	0.04
823.734	0.1
823.905	0.17
824.076	-0.03
824.247	-0.1
824.418	-0.08
824.589	0.33
824.759	-0.01
824.93	-0.04
825.101	-0.89
825.272	-0.03
825.443	0.12
825.614	0.13
825.784	-1.16
825.955	1.31
826.126	0.15
826.297	-0.06
826.467	0.33
826.638	0.4
826.809	-1.04
826.98	0.13
827.15	-0.02
827.321	-0.64
827.492	-0.17
827.662	0.02
827.833	1.12
828.003	0.09
828.174	0.03
828.345	-0.82
828.515	0.5
828.686	0.13
828.856	-0.35
829.027	0.21
829.197	0.41
829.368	0.09
829.538	-0.19
829.709	-0.51
829.879	0.02
830.049	-0.08
830.22	-0.21
830.39	-0.01
830.56	0.18
830.731	-0.14
830.901	-0.26
831.072	-0.02
831.242	-0.17
831.412	0.07
831.582	-0.26
831.753	-0.43
831.923	0.22
832.093	-0.19
832.263	-0.34
832.434	-0.37
832.604	-0.22
832.774	0.22
832.944	-0.28
833.114	-0.02
833.284	-0.54
833.454	-0.63
833.624	-0.21
833.795	-0.64
833.965	0.17
834.135	0.78
834.305	-0.71
834.475	-0.34
834.645	-0.43
834.815	-0.23
834.985	-0.72
835.155	0.42
835.325	0.3
835.494	-0.23
835.664	-0.09
835.834	-0.33
836.004	0.11
836.174	0.25
836.344	-0.42
836.514	-1.3
836.684	-0.17
836.853	-0.15
837.023	-0.09
837.193	-0.75
837.363	0.24
837.532	0.41
837.702	-0.55
837.872	-0.38
838.041	0.7
838.211	1.18
838.381	-1.04
838.55	-0.26
838.72	1.5
838.89	0.97
839.059	0
839.229	-0.51
839.398	1.46
839.568	0.6
839.738	0.04
839.907	0.96
840.077	-0
840.246	-0.35
840.416	-0.34
840.585	-0.54
840.755	0.46
840.924	0.96
841.093	-1.11
841.263	-0.06
841.432	0.46
841.602	-0.57
841.771	-0.39
841.94	0.16
842.11	1.27
842.279	1.28
842.448	-0.99
842.617	-0.47
842.787	1.09
842.956	-0.41
843.125	0.6
843.294	0.45
843.464	0.39
843.633	-0.23
843.802	-0.89
843.971	0.69
844.14	0.43
844.309	1.28
844.479	-0.92
844.648	-0.87
844.817	-0.26
844.986	-0.23
845.155	-0.67
845.324	-0.67
845.493	-0.35
845.662	-0.54
845.831	-0.08
846	0.37
846.169	-0.01
846.338	0.9
846.507	0.71
846.676	0.17
846.844	-0.62
847.013	1.41
847.182	-0.23
847.351	-0.18
847.52	0.66
847.689	0.84
847.858	-0.45
848.026	-1.39
848.195	-0.08
848.364	-0.07
848.533	-0.54
848.701	-0.73
848.87	-0.38
849.039	1.17
849.207	0.37
849.376	0.37
849.545	1.35
849.713	-1
849.882	-0.16
850.051	0.38
850.219	0.26
850.388	0.51
850.556	-0.62
850.725	-1.21
850.893	-0.15
851.062	0.09
851.23	0.19
851.399	-1.15
851.567	-1.01
851.736	0.01
851.904	-0.18
852.073	0.26
852.241	-0.1
852.41	0.13
852.578	0.42
852.746	-0.26
852.915	0.66
853.083	0.36
853.251	-1.49
853.42	-0.13
853.588	0.07
853.756	1.5
853.924	0.59
854.093	-0.1
854.261	-0.39
854.429	-1.75
854.597	0.31
854.765	-0.96
854.934	0.27
855.102	-0.14
855.27	0.44
855.438	1.11
855.606	0.81
855.774	2.89
855.942	-1.33
856.11	-1.38
856.278	-0.32
856.446	0.78
856.614	0.05
856.782	-0.49
856.95	1.24
857.118	0.94
857.286	0.26
857.454	-0.86
857.622	0.47
857.79	0.39
857.958	-0.61
858.126	0.06
858.294	-2.73
858.462	-0.62
858.629	-0.35
858.797	-0.98
858.965	0.22
859.133	-0.25
859.301	-0.92
859.468	0.06
859.636	-0.56
859.804	1.64
859.971	0.09
860.139	-0.52
860.307	0.49
860.474	-0.35
860.642	-0.26
860.81	-0.77
860.977	-0.13
861.145	0.34
861.313	-1.09
861.48	-0.48
861.648	-0.18
861.815	-1.08
861.983	-1.75
862.15	0.08
862.318	0.08
862.485	0.2
862.653	-1.41
862.82	-0.8
862.988	0.26
863.155	2.21
863.322	-0.79
863.49	-1.66
863.657	-0.89
863.824	1.38
863.992	0.1
864.159	1.14
864.326	2.2
864.494	-1
864.661	3.52
864.828	-0.7
864.996	2.06
865.163	1.36
865.33	-0.59
865.497	-2.6
865.664	0.85
865.832	-2.18
865.999	-0.14
866.166	-0.57
866.333	-1.45
866.5	0.41
866.667	-1.4
866.834	-0.64
867.001	2.21
867.168	-1.48
867.335	0.29
867.502	-2.56
867.669	0.48
867.836	2.29
868.003	-1.16
868.17	0.9
868.337	-0.86
868.504	2.68
868.671	-1.24
868.838	-0.24
869.005	0.27
869.172	1.46
869.339	0.9
869.505	0.02
869.672	1.18
869.839	1.71
870.006	1.25
870.173	-2.5
870.339	-0.23
870.506	2.39
870.673	-1.87
870.84	1.93
871.006	0.74
871.173	0.09
871.34	0.52
871.506	-1.2
871.673	-0.09
871.839	-0.03
872.006	-0.26
872.173	-0.44
872.339	0.8
872.506	1.93
872.672	0.32
872.839	0.06
873.005	-0.08
873.172	1.91
873.338	1.49
873.505	-0.21
873.671	0.78
873.838	1.65
874.004	-0.79
874.171	-1.5
874.337	0.42
874.503	-1.08
874.67	-0.04
874.836	-0.65
875.002	1.77
875.169	2.11
875.335	1.32
875.501	-1.33
875.668	2.17
875.834	-1.07
876	-0.88
876.166	1.22
876.332	2.2
876.499	2.01
876.665	-1.1
876.831	0.14
876.997	1.4
877.163	1.48
877.329	0.59
877.495	1.22
877.662	1.03
877.828	-0.03
877.994	0.32
878.16	-3.65
878.326	-1.19
878.492	0.6
878.658	-0.71
878.824	1.05
878.99	1.81
879.156	-0.7
879.322	0.94
879.487	-1.64
879.653	0.49
879.819	0.29
879.985	-1.05
880.151	0.29
880.317	0.29
880.483	0.89
880.648	1.52
880.814	-1.21
880.98	0.18
881.146	-1.64
881.312	-1.49
881.477	-1.61
881.643	-0.05
881.809	-0.41
881.974	-0.58
882.14	-1.4
882.306	-1.37
882.471	3.19
882.637	-0.8
882.803	-0.01
882.968	3.56
883.134	2.01
883.299	-0.52
883.465	-0.2
883.63	4.02
883.796	0.77
883.961	0.84
884.127	-0.1
884.292	-3.33
884.458	0.01
884.623	0.01
