Data from Apollo_Calib_20240827__AbsoluteIrradiance__144__01-33-03-138.txt Node

Date: Wed Aug 28 01:33:03 BST 2024
User: biology
Spectrometer: FLMT08252
Trigger mode: 0
Integration Time (sec): 5.000000E-1
Scans to average: 5
Electric dark correction enabled: true
Nonlinearity correction enabled: false
Boxcar width: 0
XAxis mode: Wavelengths
Number of Pixels in Spectrum: 3648
>>>>>Begin Spectral Data<<<<<
179.588	-0
179.809	-0
180.03	-0
180.251	-0
180.473	-0
180.694	0
180.915	0
181.136	-0
181.357	0
181.578	-0
181.799	-0
182.02	-0
182.241	-0
182.462	-0
182.683	0
182.904	-0
183.125	0
183.346	0
183.567	0
183.788	-0
184.009	-0
184.23	-0
184.451	0
184.672	-0
184.892	-0
185.113	0
185.334	0
185.555	-0
185.776	-0
185.996	0
186.217	0
186.438	0
186.659	-0
186.879	-0
187.1	-0
187.321	-0
187.541	-0
187.762	-0
187.983	-0
188.203	-0
188.424	-0
188.644	-0
188.865	0
189.086	-0
189.306	0
189.527	-0
189.747	0
189.968	-0
190.188	0
190.409	-0
190.629	0
190.849	-0
191.07	-0
191.29	0
191.511	-0
191.731	-0
191.951	-0
192.172	0
192.392	0
192.612	-0
192.833	0
193.053	0
193.273	0
193.493	0
193.714	-0
193.934	0
194.154	0
194.374	0
194.594	0
194.815	-0
195.035	0
195.255	-0
195.475	-0
195.695	0
195.915	0
196.135	-0
196.355	0
196.575	0
196.795	-0
197.015	-0
197.235	-0
197.455	-0
197.675	0
197.895	-0
198.115	-0
198.335	0
198.555	-0
198.775	-0
198.995	0
199.214	0
199.434	-0
199.654	-0
199.874	-0
200.094	0.68
200.313	0.08
200.533	-0.44
200.753	-1.08
200.973	0.36
201.192	0.69
201.412	-1.28
201.632	0.01
201.851	0.49
202.071	-0.68
202.291	-0.71
202.51	-0.61
202.73	0.7
202.95	0.06
203.169	-0.58
203.389	0.03
203.608	0.04
203.828	-0.49
204.047	-0.38
204.267	0.1
204.486	-0.1
204.706	0.23
204.925	-0.47
205.145	-0.4
205.364	0.25
205.583	0.26
205.803	-0.54
206.022	-0.59
206.242	-0.26
206.461	-0.06
206.68	-0.48
206.9	-0.15
207.119	0.34
207.338	0.23
207.557	-0.27
207.777	-0.23
207.996	-0.08
208.215	0.39
208.434	-0.13
208.654	-0.59
208.873	0.01
209.092	0.34
209.311	-0.35
209.53	-0.21
209.749	-0.08
209.968	-0.28
210.187	-0.07
210.407	-0.48
210.626	-0.25
210.845	0.07
211.064	0.14
211.283	-0.2
211.502	0.22
211.721	0.07
211.94	-0.13
212.159	0.11
212.377	0.06
212.596	0.16
212.815	-0.04
213.034	-0.05
213.253	0.47
213.472	0.19
213.691	-0.16
213.91	-0.21
214.128	-0.28
214.347	0.18
214.566	-0.28
214.785	-0.33
215.003	0.21
215.222	0.28
215.441	-0.05
215.66	-0.42
215.878	-0.04
216.097	0.27
216.316	-0.38
216.534	-0.12
216.753	-0.06
216.972	0
217.19	-0.28
217.409	-0.3
217.627	-0.3
217.846	-0.06
218.064	-0.17
218.283	-0.16
218.501	0.4
218.72	0.05
218.938	-0.35
219.157	-0.19
219.375	0.09
219.594	0.02
219.812	-0.36
220.031	-0.23
220.249	0.26
220.467	0.18
220.686	-0.16
220.904	-0.23
221.122	-0.22
221.341	0.31
221.559	-0.02
221.777	-0.11
221.995	-0.02
222.214	0.11
222.432	-0.03
222.65	0.1
222.868	0.05
223.086	0.09
223.305	0.07
223.523	-0
223.741	0.23
223.959	-0.08
224.177	-0.3
224.395	-0.12
224.613	-0.12
224.831	0.05
225.049	-0.16
225.267	-0.1
225.485	0.01
225.703	-0.07
225.921	0.04
226.139	-0.1
226.357	0.15
226.575	0.04
226.793	-0.04
227.011	0.33
227.229	0.05
227.447	0.11
227.665	-0.16
227.883	-0.24
228.1	-0
228.318	-0.08
228.536	-0.33
228.754	-0.14
228.972	0.01
229.189	0.07
229.407	-0.07
229.625	-0.27
229.843	0.17
230.06	0.1
230.278	-0.16
230.496	-0.02
230.713	-0.06
230.931	0.1
231.149	-0.08
231.366	-0.08
231.584	-0.02
231.801	0.21
232.019	-0.08
232.236	-0.08
232.454	-0.17
232.671	0.07
232.889	-0.08
233.106	-0.22
233.324	-0.09
233.541	-0.04
233.759	-0.1
233.976	-0.18
234.194	-0.16
234.411	-0.11
234.628	-0.12
234.846	-0.07
235.063	-0
235.28	-0.04
235.498	-0.06
235.715	-0.23
235.932	0.14
236.149	0.02
236.367	-0.03
236.584	0.02
236.801	-0.16
237.018	0.06
237.236	0.01
237.453	-0.21
237.67	0.06
237.887	-0.02
238.104	-0.06
238.321	-0.17
238.538	-0.15
238.755	0.05
238.973	-0.18
239.19	-0.03
239.407	0.04
239.624	-0.03
239.841	-0.16
240.058	-0.05
240.275	-0
240.492	-0.17
240.709	-0.07
240.925	-0.14
241.142	-0.03
241.359	-0.07
241.576	-0.12
241.793	-0.1
242.01	0.08
242.227	0.01
242.444	0.01
242.66	0.11
242.877	0.03
243.094	-0.05
243.311	-0.04
243.527	-0.03
243.744	0
243.961	0.03
244.178	-0.04
244.394	-0.1
244.611	0.2
244.828	0.11
245.044	-0.13
245.261	-0.03
245.477	0.01
245.694	-0.04
245.911	-0.06
246.127	0.07
246.344	0.21
246.56	-0
246.777	-0.1
246.993	0
247.21	-0.01
247.426	0.07
247.643	-0.13
247.859	-0.05
248.076	-0.09
248.292	0.22
248.508	-0.12
248.725	-0.07
248.941	0
249.157	0.06
249.374	-0.11
249.59	-0.11
249.806	0.02
250.023	0.05
250.239	-0.05
250.455	-0.13
250.671	0.01
250.888	-0.02
251.104	0.04
251.32	-0.05
251.536	-0.07
251.752	-0.09
251.969	-0
252.185	0.02
252.401	0.13
252.617	-0.03
252.833	-0.06
253.049	-0.09
253.265	0.05
253.481	0.01
253.697	-0.03
253.913	-0.04
254.129	0.02
254.345	-0.01
254.561	-0.08
254.777	-0.02
254.993	0.04
255.209	0.05
255.425	-0.07
255.641	-0.09
255.857	0.01
256.073	-0.05
256.288	-0.15
256.504	-0.03
256.72	-0.02
256.936	0.06
257.152	0
257.367	-0.04
257.583	-0
257.799	0.04
258.015	-0.06
258.23	-0.04
258.446	0.14
258.662	-0.01
258.877	-0.07
259.093	-0.06
259.309	-0.03
259.524	0.02
259.74	-0.09
259.955	-0.12
260.171	-0.01
260.387	-0.09
260.602	0.02
260.818	-0
261.033	-0.1
261.249	-0.01
261.464	-0.01
261.68	-0.21
261.895	0.02
262.11	0.05
262.326	-0.06
262.541	-0.13
262.757	0.07
262.972	0.02
263.187	0.04
263.403	-0.02
263.618	-0
263.833	-0.02
264.049	-0.09
264.264	-0.03
264.479	0.04
264.694	0.07
264.91	-0.08
265.125	-0.04
265.34	0.02
265.555	0.06
265.77	0.06
265.986	-0.1
266.201	0.04
266.416	0.07
266.631	-0.02
266.846	-0.01
267.061	0.03
267.276	-0.02
267.491	-0.17
267.706	0.02
267.921	0.01
268.136	0.02
268.351	0.01
268.566	-0.08
268.781	0.04
268.996	0.05
269.211	-0.01
269.426	-0.07
269.641	-0.08
269.856	0
270.071	-0.02
270.285	-0.09
270.5	0.08
270.715	0.09
270.93	-0.05
271.145	0.03
271.359	-0
271.574	-0.09
271.789	-0.04
272.004	-0.03
272.218	-0.02
272.433	0.05
272.648	-0.06
272.862	0.11
273.077	0.03
273.292	0
273.506	-0.06
273.721	-0.07
273.936	0.03
274.15	0.01
274.365	-0.01
274.579	-0
274.794	0.02
275.008	0.02
275.223	-0.08
275.437	-0.04
275.652	0.02
275.866	0.05
276.081	-0.01
276.295	0.07
276.509	0.04
276.724	0.01
276.938	0.03
277.153	0
277.367	0.03
277.581	-0.07
277.796	-0.05
278.01	-0.05
278.224	0.03
278.438	0.15
278.653	-0.13
278.867	-0.03
279.081	-0.11
279.295	-0.01
279.51	0.04
279.724	-0.12
279.938	0.05
280.152	0
280.366	-0.06
280.58	0.03
280.794	0.08
281.008	0.04
281.222	0.03
281.437	0.07
281.651	-0.04
281.865	0.09
282.079	-0.09
282.293	-0.07
282.507	-0.04
282.721	0.03
282.935	-0
283.148	-0.1
283.362	-0.02
283.576	-0.08
283.79	0.01
284.004	-0.03
284.218	0.04
284.432	-0.05
284.646	-0.01
284.859	-0.06
285.073	-0.05
285.287	-0.03
285.501	-0.02
285.714	-0.03
285.928	-0.03
286.142	0
286.356	-0.05
286.569	-0.02
286.783	0.05
286.997	0.1
287.21	0.03
287.424	-0.02
287.637	-0.03
287.851	-0.01
288.065	0.06
288.278	-0.04
288.492	-0
288.705	-0.04
288.919	0.07
289.132	-0.04
289.346	0.07
289.559	-0.1
289.773	-0.1
289.986	0.01
290.2	0.02
290.413	0.02
290.626	-0.02
290.84	-0.04
291.053	-0.02
291.267	0.05
291.48	-0.05
291.693	0.02
291.906	-0.01
292.12	-0.03
292.333	-0.06
292.546	-0.05
292.76	0.03
292.973	-0
293.186	-0
293.399	-0.04
293.612	0.02
293.826	-0.06
294.039	-0.03
294.252	-0
294.465	-0.02
294.678	0.05
294.891	0.02
295.104	-0.1
295.317	-0.01
295.53	-0
295.743	-0.03
295.956	-0.03
296.169	0.05
296.382	0.04
296.595	-0.02
296.808	-0.04
297.021	0.02
297.234	-0.01
297.447	0.01
297.66	0.04
297.873	0.02
298.086	-0
298.299	-0.05
298.511	-0.08
298.724	0.01
298.937	-0.06
299.15	-0.04
299.363	0
299.575	0.03
299.788	-0
300.001	-0.03
300.213	-0.04
300.426	-0.03
300.639	-0.05
300.852	-0.02
301.064	0.03
301.277	0.12
301.489	0.02
301.702	0.03
301.915	-0.02
302.127	-0.02
302.34	0
302.552	0.03
302.765	-0.01
302.977	0.05
303.19	-0.06
303.402	-0.02
303.615	0
303.827	-0.04
304.04	-0.04
304.252	0.01
304.464	-0.01
304.677	0.06
304.889	0.05
305.102	-0.02
305.314	-0.04
305.526	0.02
305.739	0.02
305.951	-0.06
306.163	-0.04
306.375	0.08
306.588	-0.01
306.8	0.01
307.012	-0.05
307.224	0.01
307.436	0.08
307.649	-0.08
307.861	0.03
308.073	0.01
308.285	-0.02
308.497	-0.02
308.709	0
308.921	0.04
309.133	0.05
309.346	-0.02
309.558	-0.03
309.77	0.02
309.982	0.04
310.194	0.06
310.406	-0.05
310.617	0.05
310.829	0.02
311.041	0.02
311.253	-0.04
311.465	-0.01
311.677	-0.01
311.889	-0.02
312.101	-0.03
312.313	0.01
312.524	-0
312.736	-0.03
312.948	-0.04
313.16	0.09
313.372	0.01
313.583	0.03
313.795	0.01
314.007	-0.04
314.218	0.05
314.43	-0.02
314.642	-0.06
314.853	-0.07
315.065	0.04
315.277	-0.02
315.488	0.01
315.7	0.03
315.912	0.03
316.123	-0.02
316.335	-0.02
316.546	0.1
316.758	0.01
316.969	-0.03
317.181	-0.03
317.392	-0
317.604	0.06
317.815	-0.05
318.026	-0.05
318.238	-0.03
318.449	0
318.661	-0.08
318.872	-0.08
319.083	-0.03
319.295	-0.03
319.506	-0.07
319.717	0.02
319.929	0.04
320.14	-0.01
320.351	0
320.562	-0.04
320.774	-0.02
320.985	0.01
321.196	-0.1
321.407	-0.05
321.618	0.05
321.829	0.01
322.041	0.01
322.252	-0.03
322.463	0.01
322.674	0.03
322.885	-0.06
323.096	-0.03
323.307	-0.06
323.518	0.04
323.729	-0.02
323.94	-0.02
324.151	-0.06
324.362	0.01
324.573	0.01
324.784	-0.05
324.995	0.03
325.206	0.01
325.417	-0.04
325.628	-0.01
325.838	-0.02
326.049	-0.02
326.26	0.02
326.471	-0.02
326.682	0
326.892	-0
327.103	-0.04
327.314	-0.02
327.525	0.03
327.735	0.02
327.946	-0.04
328.157	-0.01
328.368	0.02
328.578	-0.03
328.789	0.04
328.999	-0.01
329.21	-0.01
329.421	0.04
329.631	-0.04
329.842	-0.03
330.052	-0
330.263	0.03
330.473	0.07
330.684	-0.01
330.894	-0.02
331.105	0.05
331.315	-0.01
331.526	-0.03
331.736	0.05
331.947	-0.02
332.157	0.02
332.367	-0.05
332.578	0.06
332.788	0.04
332.999	-0.02
333.209	0.02
333.419	-0.07
333.629	-0.01
333.84	0.05
334.05	-0.04
334.26	0.09
334.47	-0
334.681	0.02
334.891	-0.01
335.101	0.03
335.311	0.09
335.521	-0.01
335.732	-0.02
335.942	0.06
336.152	0.01
336.362	0
336.572	-0.04
336.782	0.05
336.992	-0.01
337.202	-0.02
337.412	-0.03
337.622	-0.03
337.832	-0.04
338.042	-0.01
338.252	-0.05
338.462	-0.03
338.672	-0.02
338.882	0.01
339.092	-0.04
339.302	0.09
339.511	0.03
339.721	-0.04
339.931	-0.04
340.141	-0
340.351	0.09
340.561	-0.01
340.77	-0
340.98	0.01
341.19	0.03
341.4	-0.02
341.609	-0.04
341.819	-0.04
342.029	-0.06
342.238	-0.03
342.448	-0.05
342.658	0.04
342.867	0
343.077	-0.02
343.286	0.02
343.496	0
343.706	0.04
343.915	-0.05
344.125	-0.04
344.334	-0.01
344.544	-0.05
344.753	-0.03
344.963	-0.02
345.172	-0.06
345.381	-0.01
345.591	-0.03
345.8	0.02
346.01	0.04
346.219	0.04
346.428	-0.17
346.638	-0.01
346.847	-0.04
347.056	0.07
347.266	-0.04
347.475	0.03
347.684	0.07
347.893	-0.02
348.103	0
348.312	-0.02
348.521	-0.04
348.73	0
348.94	0
349.149	-0.03
349.358	-0.02
349.567	-0.05
349.776	-0.02
349.985	-0.03
350.194	0.01
350.403	0.04
350.612	-0.05
350.821	-0.01
351.03	-0.04
351.239	-0.08
351.448	-0.04
351.657	-0.03
351.866	0.08
352.075	0.01
352.284	0.01
352.493	-0.05
352.702	0.03
352.911	0.04
353.12	0.01
353.329	-0.01
353.538	-0
353.746	-0.02
353.955	-0.01
354.164	0.04
354.373	-0.02
354.582	0.03
354.79	-0
354.999	0.04
355.208	-0.03
355.416	0.02
355.625	-0.04
355.834	0.01
356.042	0
356.251	0.03
356.46	-0.02
356.668	-0.02
356.877	0.04
357.085	0.08
357.294	-0.06
357.503	0.02
357.711	-0.01
357.92	0.11
358.128	0.01
358.337	-0.01
358.545	0.01
358.754	0.02
358.962	0.04
359.17	-0.04
359.379	0.01
359.587	0.04
359.796	-0.05
360.004	0.05
360.212	0.03
360.421	0.02
360.629	-0.02
360.837	-0.07
361.046	0.02
361.254	0.08
361.462	0.01
361.67	-0.03
361.879	-0.02
362.087	0.07
362.295	0.05
362.503	0.01
362.711	-0.03
362.92	-0.05
363.128	-0.04
363.336	-0.04
363.544	-0.08
363.752	-0.03
363.96	-0.04
364.168	0.01
364.376	0
364.584	-0.01
364.792	0.05
365	-0
365.208	0.01
365.416	-0.04
365.624	0.04
365.832	-0.04
366.04	0.01
366.248	0.05
366.456	-0.02
366.664	0.01
366.872	-0.04
367.079	0.02
367.287	-0.03
367.495	-0.01
367.703	-0.02
367.911	-0.01
368.118	-0.02
368.326	-0.02
368.534	-0.09
368.742	0.06
368.949	-0.03
369.157	-0.02
369.365	0.04
369.572	-0.04
369.78	-0.05
369.988	0.04
370.195	0.03
370.403	0.06
370.61	-0.02
370.818	0.05
371.026	0.06
371.233	-0.05
371.441	0.03
371.648	-0.03
371.856	0.02
372.063	-0.02
372.271	0.01
372.478	-0.02
372.685	0.01
372.893	0.04
373.1	-0.05
373.308	-0.02
373.515	0.07
373.722	0.01
373.93	-0
374.137	0.01
374.344	0.07
374.552	0.01
374.759	0
374.966	0.03
375.173	-0.02
375.381	0.01
375.588	-0.01
375.795	-0.08
376.002	-0.03
376.209	-0
376.417	0.03
376.624	-0.01
376.831	0
377.038	0.01
377.245	-0.07
377.452	0.01
377.659	0.01
377.866	-0.05
378.073	0.01
378.28	0
378.487	0.01
378.694	0.01
378.901	-0
379.108	-0.03
379.315	0
379.522	0.07
379.729	0.03
379.936	0.01
380.143	0.03
380.35	-0
380.557	-0.04
380.763	-0.02
380.97	0
381.177	0.04
381.384	0.02
381.591	-0.02
381.797	0.01
382.004	0.01
382.211	0.05
382.418	-0.02
382.624	0.03
382.831	0.02
383.038	-0.06
383.244	-0
383.451	-0
383.658	-0.01
383.864	-0.03
384.071	-0.04
384.277	0.07
384.484	-0.04
384.69	0
384.897	-0.03
385.103	-0.01
385.31	-0.04
385.516	0
385.723	-0.02
385.929	0.01
386.136	-0.07
386.342	0.04
386.549	-0.03
386.755	0.07
386.961	-0.01
387.168	-0.03
387.374	0
387.58	0.05
387.787	-0.03
387.993	0.02
388.199	-0.01
388.406	-0
388.612	0.01
388.818	-0.05
389.024	0.01
389.231	0.05
389.437	0.15
389.643	0.01
389.849	-0.02
390.055	-0.02
390.261	-0.01
390.467	0.02
390.674	-0.03
390.88	0.01
391.086	0.1
391.292	-0.03
391.498	0.04
391.704	0.02
391.91	-0.04
392.116	0.01
392.322	-0.05
392.528	-0.01
392.734	-0.02
392.94	0.02
393.146	0.03
393.352	0.03
393.557	0.01
393.763	-0
393.969	0.01
394.175	-0.01
394.381	0.02
394.587	-0.02
394.792	0.02
394.998	0.04
395.204	0.05
395.41	-0.03
395.615	0.06
395.821	0.03
396.027	0.08
396.233	0.03
396.438	0.03
396.644	0.09
396.85	0.04
397.055	-0.01
397.261	0.03
397.466	0.1
397.672	0.05
397.878	0.1
398.083	0.1
398.289	0.04
398.494	0.08
398.7	0.1
398.905	-0.01
399.111	0.15
399.316	0.05
399.522	0.06
399.727	0.05
399.932	0.08
400.138	0.07
400.343	0.13
400.549	0.12
400.754	0.09
400.959	0.16
401.165	0.09
401.37	0.1
401.575	0.08
401.78	0.1
401.986	0.11
402.191	0.13
402.396	0.15
402.601	0.14
402.807	0.13
403.012	0.19
403.217	0.21
403.422	0.15
403.627	0.19
403.832	0.15
404.037	0.21
404.243	0.17
404.448	0.19
404.653	0.19
404.858	0.24
405.063	0.22
405.268	0.18
405.473	0.19
405.678	0.19
405.883	0.37
406.088	0.3
406.293	0.19
406.498	0.19
406.703	0.28
406.907	0.21
407.112	0.23
407.317	0.25
407.522	0.28
407.727	0.19
407.932	0.25
408.136	0.36
408.341	0.24
408.546	0.28
408.751	0.27
408.956	0.24
409.16	0.3
409.365	0.2
409.57	0.24
409.774	0.25
409.979	0.31
410.184	0.23
410.388	0.16
410.593	0.26
410.798	0.22
411.002	0.2
411.207	0.25
411.411	0.22
411.616	0.16
411.82	0.19
412.025	0.17
412.229	0.13
412.434	0.27
412.638	0.21
412.843	0.16
413.047	0.14
413.252	0.11
413.456	0.11
413.66	0.19
413.865	0.11
414.069	0.23
414.273	0.13
414.478	0.1
414.682	0.14
414.886	0.1
415.091	0.06
415.295	0.02
415.499	0.1
415.703	0.12
415.908	0.1
416.112	0.01
416.316	0.11
416.52	0.05
416.724	0.06
416.929	0.05
417.133	0.19
417.337	0.03
417.541	0.04
417.745	0.07
417.949	0.11
418.153	0.08
418.357	0.07
418.561	0.17
418.765	0.05
418.969	0.16
419.173	0.08
419.377	0.04
419.581	0.16
419.785	0.04
419.989	0.03
420.193	0.02
420.397	0.02
420.601	0.12
420.804	0.09
421.008	0.03
421.212	0.1
421.416	0.09
421.62	0.04
421.823	0.08
422.027	0.14
422.231	0.08
422.435	0.04
422.638	0.06
422.842	0.06
423.046	-0.01
423.249	0.06
423.453	0.07
423.657	0.04
423.86	0.02
424.064	0.05
424.268	0.07
424.471	0.02
424.675	0.17
424.878	0.1
425.082	0.04
425.285	0.07
425.489	0.07
425.692	0.04
425.896	0.02
426.099	0.03
426.303	-0.02
426.506	-0.01
426.71	0.04
426.913	0.04
427.116	0.05
427.32	0.01
427.523	0.04
427.726	0.11
427.93	-0.06
428.133	-0
428.336	-0.03
428.54	0.02
428.743	0.01
428.946	0.04
429.149	-0.01
429.353	0.06
429.556	0.01
429.759	0.04
429.962	-0
430.165	0.03
430.368	0.01
430.571	0.03
430.775	0.04
430.978	-0.03
431.181	0.03
431.384	0.02
431.587	-0
431.79	0.02
431.993	0.03
432.196	0
432.399	0.03
432.602	0.09
432.805	-0.02
433.008	-0.01
433.211	-0.02
433.414	0.03
433.616	0.04
433.819	0.04
434.022	-0.06
434.225	0.12
434.428	0.07
434.631	0.12
434.833	0.03
435.036	0.01
435.239	0.09
435.442	0.04
435.645	-0.03
435.847	0.02
436.05	0.07
436.253	0.05
436.455	-0.02
436.658	-0
436.861	0.1
437.063	-0
437.266	-0.02
437.468	0.02
437.671	0.18
437.874	0.08
438.076	-0.01
438.279	-0.04
438.481	0.02
438.684	0.03
438.886	0.04
439.089	-0.07
439.291	0
439.494	0.04
439.696	0.03
439.899	0.03
440.101	0.04
440.303	-0.03
440.506	0.07
440.708	0.02
440.91	0.07
441.113	-0
441.315	0.08
441.517	0.01
441.72	0.06
441.922	0.01
442.124	0.01
442.326	0.08
442.529	0.14
442.731	0.02
442.933	0.13
443.135	0.01
443.337	0.03
443.539	0.01
443.742	-0.01
443.944	0.05
444.146	0.04
444.348	0.06
444.55	0.02
444.752	0.04
444.954	0.04
445.156	0.11
445.358	0.01
445.56	0.13
445.762	0.03
445.964	0.05
446.166	0.06
446.368	0.03
446.57	0.1
446.772	-0.01
446.974	-0.01
447.175	0.12
447.377	0.06
447.579	0.07
447.781	-0.01
447.983	0.14
448.184	0.04
448.386	0.07
448.588	-0
448.79	0.06
448.991	0.05
449.193	0.08
449.395	0.05
449.597	0.11
449.798	0.09
450	0.07
450.202	0.04
450.403	0.03
450.605	0.08
450.806	0.05
451.008	-0.02
451.21	0.07
451.411	0.08
451.613	0.06
451.814	0.08
452.016	0.1
452.217	0.06
452.419	0.09
452.62	0.02
452.821	0.11
453.023	0.11
453.224	0.07
453.426	0.05
453.627	0.09
453.828	0.1
454.03	0.05
454.231	0.1
454.432	0.01
454.634	0.11
454.835	0.01
455.036	-0.02
455.238	0.07
455.439	0.13
455.64	-0.03
455.841	0.03
456.042	0.12
456.244	0.12
456.445	-0.01
456.646	-0.07
456.847	0.03
457.048	0.1
457.249	0.05
457.45	0.19
457.651	-0.06
457.852	0.04
458.054	0.01
458.255	0.02
458.456	0.05
458.657	0.06
458.858	0.04
459.058	0
459.259	0.04
459.46	0.02
459.661	-0
459.862	0.14
460.063	-0.03
460.264	0.08
460.465	-0.05
460.666	0.11
460.866	0.03
461.067	-0.03
461.268	0.02
461.469	0
461.67	0.01
461.87	0.01
462.071	0.01
462.272	0.02
462.473	0.01
462.673	0.1
462.874	-0
463.075	0.02
463.275	-0.02
463.476	0.02
463.676	0.01
463.877	0.04
464.078	0.01
464.278	0.05
464.479	-0.03
464.679	0.03
464.88	0.03
465.08	0.09
465.281	-0.02
465.481	0.02
465.682	-0.01
465.882	0.05
466.083	0.01
466.283	0.02
466.483	0.01
466.684	-0.04
466.884	-0.03
467.085	0.03
467.285	0.08
467.485	-0.02
467.686	0.03
467.886	-0.02
468.086	0.05
468.286	0.02
468.487	0.03
468.687	-0.03
468.887	-0.03
469.087	0.03
469.287	0.05
469.488	-0.06
469.688	0.04
469.888	-0.01
470.088	0.05
470.288	0.09
470.488	0.05
470.688	-0.06
470.888	-0.02
471.088	-0.01
471.288	0.06
471.488	0.03
471.688	-0.01
471.888	-0.04
472.088	0.05
472.288	0.04
472.488	-0.03
472.688	0.04
472.888	-0.01
473.088	-0
473.288	0.03
473.488	-0.03
473.688	0.08
473.887	-0
474.087	-0.02
474.287	0.03
474.487	0.01
474.687	0.06
474.886	-0.02
475.086	0
475.286	-0.01
475.486	0.02
475.685	0.01
475.885	-0.01
476.085	0.01
476.284	0
476.484	0.03
476.684	0.03
476.883	0.04
477.083	-0.01
477.282	-0
477.482	0.05
477.681	0.05
477.881	0.01
478.08	-0.03
478.28	-0.06
478.479	0.03
478.679	0.05
478.878	-0.02
479.078	0
479.277	0.01
479.477	-0.01
479.676	0.04
479.875	0.01
480.075	-0.03
480.274	0
480.473	-0.01
480.673	-0
480.872	-0.01
481.071	0
481.271	0.04
481.47	-0.03
481.669	-0.01
481.868	-0.04
482.067	-0.04
482.267	-0.01
482.466	-0.04
482.665	-0.05
482.864	-0.03
483.063	-0.01
483.262	0.02
483.461	0.03
483.661	0.03
483.86	-0.01
484.059	0.01
484.258	-0.01
484.457	-0.01
484.656	-0.01
484.855	0.02
485.054	-0.05
485.253	-0.04
485.452	-0.02
485.651	-0.01
485.849	0.01
486.048	-0.03
486.247	-0.05
486.446	-0
486.645	-0.03
486.844	-0.01
487.043	-0.03
487.241	0.03
487.44	-0.03
487.639	-0.02
487.838	0.03
488.037	0.01
488.235	0.04
488.434	-0
488.633	-0.03
488.831	0.01
489.03	0.02
489.229	0.01
489.427	0
489.626	0.04
489.825	0.03
490.023	0.02
490.222	-0.01
490.42	0.02
490.619	0.05
490.817	0.02
491.016	-0.01
491.214	0.02
491.413	0
491.611	-0.01
491.81	0.01
492.008	0.03
492.207	0
492.405	0.01
492.604	-0.01
492.802	-0.01
493	0
493.199	-0.03
493.397	0
493.595	-0.02
493.794	-0.03
493.992	0.04
494.19	-0
494.388	-0.01
494.587	-0.03
494.785	-0.01
494.983	-0.04
495.181	-0.01
495.379	-0.02
495.578	-0.01
495.776	0
495.974	0.05
496.172	-0.03
496.37	-0.04
496.568	-0.03
496.766	-0.03
496.964	0.04
497.162	0
497.36	-0.03
497.558	0
497.756	0.03
497.954	0.01
498.152	-0.02
498.35	-0.02
498.548	-0.01
498.746	-0
498.944	-0.01
499.142	-0.03
499.34	-0.03
499.538	0.01
499.736	-0.01
499.933	0.04
500.131	0.04
500.329	-0.01
500.527	0.02
500.725	0.04
500.922	0.04
501.12	0
501.318	-0.01
501.516	-0.01
501.713	-0
501.911	-0.02
502.109	-0.06
502.306	0.01
502.504	-0.02
502.701	-0.02
502.899	-0.02
503.097	0.04
503.294	0
503.492	-0.02
503.689	0
503.887	0.01
504.084	0.04
504.282	0.02
504.479	-0.04
504.677	0.02
504.874	-0.01
505.072	0.01
505.269	-0.01
505.466	-0
505.664	0.01
505.861	-0.06
506.059	-0.01
506.256	0.03
506.453	-0.01
506.651	0.02
506.848	0.04
507.045	0.01
507.242	-0.02
507.44	-0.02
507.637	-0.01
507.834	-0.01
508.031	0.01
508.229	-0.03
508.426	0.03
508.623	0.01
508.82	-0.02
509.017	-0.02
509.214	-0.01
509.411	0.01
509.608	-0.01
509.805	-0
510.003	-0.02
510.2	0
510.397	0.01
510.594	-0.01
510.791	-0.03
510.988	0.01
511.184	0.01
511.381	0.01
511.578	-0.03
511.775	0.01
511.972	-0.03
512.169	-0.03
512.366	0
512.563	-0.01
512.76	-0.01
512.956	0.02
513.153	-0.02
513.35	-0
513.547	-0.01
513.744	-0.03
513.94	-0.04
514.137	0.01
514.334	0
514.53	-0.01
514.727	-0.02
514.924	0.03
515.12	-0.02
515.317	-0.02
515.514	-0.01
515.71	-0.03
515.907	0
516.103	0
516.3	-0.01
516.497	0.02
516.693	0.01
516.89	-0.01
517.086	-0.01
517.283	0.03
517.479	0.01
517.676	-0.01
517.872	-0.01
518.068	-0.02
518.265	-0.01
518.461	-0.03
518.658	-0.05
518.854	0.02
519.05	-0.01
519.247	-0.01
519.443	0.01
519.639	0.01
519.836	-0.02
520.032	0.01
520.228	-0
520.424	0.04
520.621	0.02
520.817	-0
521.013	0.01
521.209	0.01
521.405	0.05
521.601	-0.01
521.798	0.01
521.994	0.05
522.19	-0.02
522.386	-0.03
522.582	-0
522.778	-0.02
522.974	-0.02
523.17	-0.01
523.366	0.02
523.562	0.02
523.758	-0.04
523.954	-0.03
524.15	-0.03
524.346	0
524.542	-0.02
524.738	-0.02
524.934	-0.05
525.129	-0.09
525.325	0.02
525.521	-0.01
525.717	0.04
525.913	0.01
526.109	-0.01
526.304	-0
526.5	0.01
526.696	0.01
526.892	0.01
527.087	-0.01
527.283	-0.02
527.479	0.02
527.674	0
527.87	-0.01
528.066	-0
528.261	0.01
528.457	0
528.653	-0
528.848	-0.01
529.044	-0
529.239	0
529.435	0
529.63	0.01
529.826	0.04
530.021	-0
530.217	0.01
530.412	-0
530.608	-0.03
530.803	0.02
530.999	-0.01
531.194	-0.05
531.389	0
531.585	-0.06
531.78	-0.02
531.975	-0.01
532.171	0.03
532.366	-0.01
532.561	0
532.757	-0.01
532.952	-0.01
533.147	0.02
533.342	-0
533.538	-0
533.733	0.02
533.928	-0.03
534.123	-0.02
534.318	-0.04
534.513	-0.01
534.709	0
534.904	-0.01
535.099	-0.01
535.294	-0.01
535.489	0
535.684	-0.01
535.879	-0.04
536.074	0
536.269	-0.04
536.464	0
536.659	-0
536.854	-0.03
537.049	0.01
537.244	-0
537.439	-0
537.634	0.01
537.828	-0.01
538.023	-0.01
538.218	-0.01
538.413	-0.02
538.608	-0.04
538.803	-0
538.997	-0.04
539.192	0.04
539.387	0.01
539.582	-0
539.776	-0.01
539.971	-0.01
540.166	-0.01
540.36	-0.03
540.555	0.01
540.75	-0.03
540.944	-0.02
541.139	-0.03
541.334	-0.01
541.528	-0
541.723	0.03
541.917	-0.01
542.112	-0.04
542.306	-0.01
542.501	-0.01
542.695	0.01
542.89	-0.02
543.084	0
543.279	-0.02
543.473	-0
543.668	-0.03
543.862	-0.01
544.056	0
544.251	-0.01
544.445	0.01
544.64	-0.02
544.834	-0.03
545.028	-0
545.222	0.02
545.417	0.02
545.611	0
545.805	-0.01
546	-0.02
546.194	-0.01
546.388	-0.02
546.582	0.01
546.776	-0
546.97	-0.02
547.165	-0
547.359	0.03
547.553	-0.01
547.747	0
547.941	-0.02
548.135	-0.02
548.329	0.01
548.523	0.01
548.717	-0.02
548.911	-0.02
549.105	-0.03
549.299	-0.02
549.493	0.01
549.687	-0.01
549.881	0.02
550.075	-0.01
550.269	-0.03
550.463	0.01
550.657	-0.03
550.85	-0.01
551.044	-0.04
551.238	-0.01
551.432	-0
551.626	-0.03
551.82	0.01
552.013	-0.04
552.207	-0.01
552.401	0.01
552.594	-0
552.788	-0.03
552.982	-0
553.176	-0.02
553.369	0
553.563	0.03
553.756	-0.05
553.95	-0.04
554.144	-0.02
554.337	0.03
554.531	0.01
554.724	-0.01
554.918	-0.01
555.111	0.02
555.305	-0
555.498	0.03
555.692	0.02
555.885	-0.02
556.079	0
556.272	-0.04
556.466	0.01
556.659	0
556.852	-0.03
557.046	-0.02
557.239	0.02
557.432	-0.05
557.626	-0.02
557.819	0
558.012	0
558.206	0.01
558.399	0
558.592	-0.01
558.785	-0.03
558.979	0.01
559.172	-0
559.365	0.01
559.558	0.02
559.751	-0.04
559.944	0
560.138	0.01
560.331	0
560.524	-0
560.717	-0.02
560.91	0
561.103	0.02
561.296	0.01
561.489	0.01
561.682	0.01
561.875	0.05
562.068	0
562.261	-0
562.454	0.02
562.647	0.01
562.84	0.03
563.032	-0.01
563.225	-0.01
563.418	-0.01
563.611	-0.03
563.804	0.01
563.997	-0.04
564.19	-0.05
564.382	0.03
564.575	0
564.768	0
564.961	-0
565.153	-0.01
565.346	0.01
565.539	0.02
565.731	0
565.924	0.02
566.117	0.03
566.309	-0.02
566.502	-0.02
566.695	-0.02
566.887	-0
567.08	-0.01
567.272	-0.02
567.465	-0.03
567.657	-0
567.85	-0
568.042	0.01
568.235	0.03
568.427	-0.01
568.62	0
568.812	0
569.005	0.01
569.197	-0.03
569.389	0.02
569.582	-0.01
569.774	0
569.966	-0.03
570.159	-0.04
570.351	0.02
570.543	-0.01
570.736	-0.01
570.928	-0.01
571.12	-0.03
571.312	-0.01
571.505	-0.02
571.697	0.03
571.889	-0.04
572.081	-0.02
572.273	-0.02
572.465	0
572.658	-0.01
572.85	-0
573.042	0
573.234	-0.01
573.426	0.01
573.618	-0.03
573.81	-0.01
574.002	0.01
574.194	0.03
574.386	-0.02
574.578	-0.06
574.77	-0.04
574.962	-0.02
575.154	-0.03
575.346	-0.01
575.538	-0.01
575.729	-0.03
575.921	-0.03
576.113	-0.01
576.305	0
576.497	-0.02
576.689	0
576.88	-0.02
577.072	0.01
577.264	-0.03
577.456	-0.02
577.647	-0.08
577.839	-0.02
578.031	0.04
578.223	-0.03
578.414	-0.05
578.606	0
578.798	-0.01
578.989	-0.03
579.181	-0.01
579.372	0.01
579.564	0
579.755	0.02
579.947	-0
580.139	0.01
580.33	-0.05
580.522	-0.05
580.713	-0.07
580.905	-0.02
581.096	0.03
581.287	-0.01
581.479	-0.01
581.67	0.02
581.862	0.02
582.053	0.01
582.244	-0.05
582.436	-0.01
582.627	-0.01
582.818	-0.03
583.01	-0.06
583.201	0.02
583.392	0.02
583.583	-0.02
583.775	-0.01
583.966	-0.03
584.157	-0.02
584.348	-0.05
584.54	-0.04
584.731	-0.01
584.922	-0.03
585.113	-0.03
585.304	0.03
585.495	0.03
585.686	0
585.877	0.01
586.068	-0.03
586.259	-0
586.45	0.02
586.641	-0.03
586.832	-0.06
587.023	-0
587.214	0.01
587.405	0
587.596	-0.03
587.787	0.02
587.978	-0.03
588.169	-0.03
588.36	-0.03
588.551	0
588.742	-0.03
588.932	-0.01
589.123	0.01
589.314	0
589.505	0.02
589.696	0
589.886	-0.04
590.077	-0.04
590.268	0.01
590.458	-0.04
590.649	-0.03
590.84	0.04
591.03	-0.03
591.221	-0.04
591.412	-0.03
591.602	0.01
591.793	0.02
591.984	-0.04
592.174	-0.01
592.365	0.03
592.555	-0.05
592.746	0
592.936	-0
593.127	-0.01
593.317	0.02
593.508	-0.03
593.698	-0.02
593.889	-0.01
594.079	-0
594.269	-0.01
594.46	-0.02
594.65	0.01
594.84	-0.01
595.031	-0.05
595.221	-0.02
595.411	-0.05
595.602	0.03
595.792	-0.01
595.982	-0.02
596.172	0.05
596.363	-0
596.553	-0.02
596.743	-0.01
596.933	-0.01
597.123	0.03
597.314	-0.02
597.504	-0.02
597.694	0.03
597.884	0.02
598.074	-0.01
598.264	-0.03
598.454	-0.01
598.644	-0
598.834	-0.01
599.024	-0.07
599.214	-0
599.404	0.02
599.594	-0.02
599.784	-0.02
599.974	0.03
600.164	0.03
600.354	-0.03
600.544	-0.03
600.734	-0
600.924	0.02
601.114	-0.03
601.303	0
601.493	0.03
601.683	-0.01
601.873	-0.01
602.063	-0.06
602.252	0.03
602.442	-0.05
602.632	-0.02
602.821	-0.04
603.011	0.02
603.201	0
603.39	-0.04
603.58	-0.04
603.77	0.01
603.959	0.02
604.149	0.01
604.339	-0.01
604.528	-0
604.718	0.02
604.907	-0.02
605.097	-0.02
605.286	-0.05
605.476	-0
605.665	-0
605.855	-0.04
606.044	0.05
606.234	0.01
606.423	-0.02
606.612	-0.04
606.802	-0.01
606.991	0.01
607.181	-0.01
607.37	-0.06
607.559	-0.02
607.749	-0.02
607.938	-0.01
608.127	-0.01
608.316	-0.03
608.506	0
608.695	0.01
608.884	-0.04
609.073	-0.01
609.263	0.01
609.452	0.01
609.641	-0
609.83	-0.03
610.019	-0.03
610.208	-0.06
610.397	-0.01
610.586	-0.01
610.775	-0.03
610.965	-0.02
611.154	-0.04
611.343	-0
611.532	0.01
611.721	-0.04
611.91	-0.01
612.099	-0.01
612.287	-0.01
612.476	-0.06
612.665	-0.04
612.854	-0.03
613.043	0.04
613.232	-0.03
613.421	-0.08
613.61	0.01
613.798	-0.05
613.987	0.03
614.176	-0.02
614.365	0.03
614.554	-0.01
614.742	0.03
614.931	-0
615.12	0.03
615.309	-0.01
615.497	0.03
615.686	-0.03
615.875	-0.01
616.063	-0.01
616.252	-0.03
616.44	-0.03
616.629	0.02
616.818	-0.02
617.006	-0.04
617.195	-0.02
617.383	0.01
617.572	-0.01
617.76	-0.02
617.949	-0.01
618.137	0.01
618.326	0.01
618.514	-0.02
618.703	-0.03
618.891	0.02
619.079	-0.04
619.268	-0.01
619.456	-0.01
619.644	0.04
619.833	-0.02
620.021	-0.02
620.209	-0.04
620.398	0.01
620.586	0.01
620.774	-0.01
620.962	-0.03
621.151	-0
621.339	0.02
621.527	-0.03
621.715	-0.04
621.903	-0.04
622.092	-0.02
622.28	0.02
622.468	-0.02
622.656	-0.01
622.844	0.03
623.032	-0.02
623.22	-0.06
623.408	0.03
623.596	0.02
623.784	0.02
623.972	-0.03
624.16	-0.02
624.348	0.02
624.536	-0
624.724	-0.03
624.912	0.05
625.1	0.04
625.288	-0.01
625.476	-0.04
625.664	0.03
625.851	-0.04
626.039	0.02
626.227	0.01
626.415	-0.01
626.603	-0.07
626.79	0.01
626.978	-0
627.166	0.01
627.354	0
627.541	-0.03
627.729	-0.07
627.917	0.02
628.104	0.02
628.292	0.04
628.48	0.02
628.667	0.03
628.855	0.01
629.042	-0.01
629.23	-0.03
629.418	0.01
629.605	0
629.793	-0.02
629.98	-0.05
630.168	0.01
630.355	-0.04
630.543	0.02
630.73	-0.05
630.917	0
631.105	0.06
631.292	-0.03
631.48	-0.02
631.667	0.07
631.854	-0.02
632.042	-0.01
632.229	-0.01
632.416	0.01
632.604	-0.02
632.791	-0.03
632.978	-0
633.165	0
633.353	0.07
633.54	0.06
633.727	-0.06
633.914	-0.02
634.101	-0.07
634.289	0.04
634.476	-0.03
634.663	-0.02
634.85	0.04
635.037	-0.05
635.224	-0.05
635.411	0.01
635.598	0.05
635.785	-0.01
635.972	0.01
636.159	0.08
636.346	-0.03
636.533	0.02
636.72	0
636.907	-0
637.094	0.02
637.281	-0.01
637.468	0.04
637.655	0.02
637.842	0.03
638.029	0
638.215	0.04
638.402	0.02
638.589	-0.02
638.776	-0.02
638.963	0
639.149	0.06
639.336	0.05
639.523	-0
639.709	0.01
639.896	-0.01
640.083	0.09
640.27	0.03
640.456	-0.01
640.643	0
640.829	-0.02
641.016	0.05
641.203	-0.04
641.389	0.05
641.576	0.01
641.762	0.01
641.949	-0.01
642.135	0.03
642.322	0.02
642.508	-0.03
642.695	0.03
642.881	0.02
643.068	0.02
643.254	0.05
643.441	0.07
643.627	0
643.813	0
644	0.05
644.186	0.01
644.372	-0.06
644.559	0.04
644.745	0.03
644.931	-0.01
645.118	0
645.304	0.04
645.49	0
645.676	0.03
645.862	0.05
646.049	0.1
646.235	0.02
646.421	0.12
646.607	0.08
646.793	0.01
646.979	-0.03
647.165	0.04
647.352	0.07
647.538	0.06
647.724	0.05
647.91	0.03
648.096	0.07
648.282	0.05
648.468	0.06
648.654	0.05
648.84	0.09
649.026	0.06
649.212	0.04
649.397	0.06
649.583	0.02
649.769	0.07
649.955	0.06
650.141	0.08
650.327	0.12
650.513	0.04
650.698	0.1
650.884	-0.02
651.07	0.04
651.256	0.06
651.442	0.03
651.627	0.04
651.813	0.05
651.999	0.08
652.184	0.07
652.37	0.07
652.556	0.03
652.741	0.12
652.927	-0.02
653.113	0.05
653.298	0.09
653.484	0.1
653.669	0.05
653.855	0.07
654.04	0.09
654.226	0.05
654.412	0.07
654.597	0.04
654.782	0.09
654.968	0.12
655.153	0.1
655.339	0.04
655.524	0.06
655.71	0.08
655.895	0.03
656.08	0.06
656.266	0.13
656.451	0.07
656.636	0.05
656.822	0.09
657.007	0.09
657.192	0.05
657.378	0.03
657.563	0.08
657.748	0.09
657.933	0.1
658.118	0.09
658.304	0.08
658.489	0.11
658.674	0.14
658.859	0.04
659.044	0.14
659.229	0.13
659.414	0.07
659.599	0.09
659.785	0.07
659.97	0.07
660.155	0.15
660.34	0.12
660.525	0.09
660.71	0.08
660.895	0.13
661.08	0.09
661.264	0.07
661.449	0.12
661.634	0.09
661.819	0.09
662.004	0.1
662.189	0.01
662.374	0.07
662.559	0.06
662.743	0.03
662.928	0.04
663.113	0.05
663.298	0.02
663.483	0.05
663.667	0.07
663.852	0
664.037	0.13
664.221	0.03
664.406	0.08
664.591	0.09
664.775	0.04
664.96	0.08
665.145	0.05
665.329	0.07
665.514	-0.01
665.698	0.02
665.883	-0.04
666.068	0.1
666.252	0.02
666.437	-0.01
666.621	0.02
666.806	0.05
666.99	0.01
667.174	-0.01
667.359	0.09
667.543	-0.01
667.728	0.01
667.912	-0.06
668.096	0.09
668.281	0.01
668.465	-0.02
668.649	0.02
668.834	-0.04
669.018	0.02
669.202	-0.01
669.387	-0.02
669.571	0.04
669.755	-0.01
669.939	-0.02
670.124	0.01
670.308	0.03
670.492	0.05
670.676	0.03
670.86	-0.03
671.044	-0.04
671.228	0.02
671.413	-0.02
671.597	-0.02
671.781	-0.03
671.965	0.02
672.149	0.02
672.333	0
672.517	-0.03
672.701	0.07
672.885	-0.03
673.069	-0.02
673.253	0.01
673.437	-0.02
673.621	-0.06
673.804	-0.02
673.988	0.01
674.172	0.01
674.356	-0.08
674.54	-0.02
674.724	0.12
674.908	-0.02
675.091	0.06
675.275	-0.03
675.459	0.01
675.643	-0.01
675.826	0.02
676.01	-0.01
676.194	-0.05
676.377	0.02
676.561	-0.01
676.745	0
676.928	0
677.112	0.04
677.296	-0.04
677.479	-0.05
677.663	-0.05
677.846	0.01
678.03	-0.02
678.213	-0.03
678.397	-0.02
678.58	-0.04
678.764	-0
678.947	-0.06
679.131	-0.09
679.314	0.04
679.498	-0.03
679.681	0.02
679.865	0.05
680.048	-0.05
680.231	-0.03
680.415	-0.05
680.598	-0
680.781	-0.03
680.965	-0.01
681.148	0.01
681.331	0.01
681.514	0.02
681.698	-0.02
681.881	0.01
682.064	-0
682.247	0.01
682.43	-0.08
682.614	0.02
682.797	0.05
682.98	-0.02
683.163	-0.05
683.346	0.02
683.529	-0.04
683.712	-0.07
683.895	-0
684.078	-0.06
684.261	-0.02
684.444	-0.01
684.627	-0.01
684.81	-0.06
684.993	0
685.176	0.02
685.359	-0.03
685.542	-0.03
685.725	0.07
685.908	-0.02
686.091	-0.02
686.274	-0.03
686.457	0.03
686.639	-0.02
686.822	0.02
687.005	-0.04
687.188	-0.01
687.371	0.07
687.553	-0.01
687.736	0.01
687.919	0.07
688.102	0.01
688.284	-0.04
688.467	0
688.65	-0.03
688.832	0.01
689.015	-0.05
689.197	-0.01
689.38	0.06
689.563	0.03
689.745	-0.07
689.928	-0.06
690.11	-0
690.293	-0
690.475	-0.05
690.658	0.03
690.84	0
691.023	-0.05
691.205	-0.06
691.388	-0.03
691.57	0.01
691.752	0.03
691.935	-0.12
692.117	-0.07
692.3	0.02
692.482	-0.01
692.664	-0.06
692.847	0.03
693.029	0.09
693.211	0.02
693.393	-0.02
693.576	-0
693.758	0.01
693.94	-0.05
694.122	-0.01
694.304	-0.02
694.487	-0.02
694.669	0.04
694.851	-0.07
695.033	0.01
695.215	0.01
695.397	-0.03
695.579	0.05
695.761	-0.06
695.943	-0.06
696.125	0.06
696.308	-0.01
696.49	-0.09
696.671	0.12
696.853	0.01
697.035	0.05
697.217	0.01
697.399	0.04
697.581	-0.05
697.763	-0.03
697.945	-0.08
698.127	-0.03
698.309	0.01
698.491	-0.02
698.672	0.03
698.854	0.06
699.036	0.09
699.218	-0.01
699.399	-0.01
699.581	0.03
699.763	0.02
699.945	-0.05
700.126	-0.07
700.308	0.01
700.49	0
700.671	-0.08
700.853	-0.04
701.035	-0.02
701.216	0.01
701.398	-0.09
701.579	-0.03
701.761	0.06
701.943	-0.07
702.124	-0.04
702.306	0.01
702.487	0.08
702.669	0.02
702.85	-0.02
703.031	-0.04
703.213	0.11
703.394	0.06
703.576	-0.06
703.757	0.06
703.938	0.05
704.12	0.15
704.301	-0.02
704.483	0.01
704.664	0.02
704.845	0.1
705.026	0.08
705.208	-0.03
705.389	0.04
705.57	0.03
705.751	-0.01
705.933	-0
706.114	0.07
706.295	-0.06
706.476	-0.07
706.657	0.07
706.838	0.05
707.02	0.05
707.201	-0.05
707.382	0
707.563	0.02
707.744	-0.08
707.925	-0.03
708.106	-0.06
708.287	-0.01
708.468	0.08
708.649	-0
708.83	-0
709.011	-0.03
709.192	0.06
709.373	-0.1
709.554	0.03
709.734	0.09
709.915	0.09
710.096	-0.04
710.277	-0.05
710.458	-0.04
710.639	0.01
710.819	-0.1
711	0
711.181	0.06
711.362	0.07
711.542	0.04
711.723	-0.02
711.904	0.07
712.085	0.02
712.265	-0.02
712.446	-0.05
712.627	-0.02
712.807	0.02
712.988	-0.02
713.168	-0.02
713.349	-0
713.53	-0.16
713.71	-0.03
713.891	-0.02
714.071	-0.02
714.252	0
714.432	-0.03
714.613	-0.06
714.793	-0
714.974	0.08
715.154	0.09
715.334	0.04
715.515	0.12
715.695	-0.04
715.876	0
716.056	0.02
716.236	-0.06
716.417	-0
716.597	-0.02
716.777	0.13
716.957	0.01
717.138	0.03
717.318	0
717.498	-0.02
717.678	0.03
717.859	0.02
718.039	-0.04
718.219	0.05
718.399	0.04
718.579	-0.01
718.759	-0.03
718.939	0.09
719.12	-0.05
719.3	0.02
719.48	-0.09
719.66	-0.04
719.84	0.05
720.02	0.03
720.2	-0.03
720.38	0.04
720.56	0.11
720.74	0.04
720.92	0.02
721.1	0.07
721.279	0.1
721.459	0.04
721.639	-0.09
721.819	0.03
721.999	0.01
722.179	0.03
722.359	-0.06
722.538	0.06
722.718	0.05
722.898	-0
723.078	0.08
723.257	0.02
723.437	0.09
723.617	0.07
723.797	0.03
723.976	0.09
724.156	0.03
724.336	0.14
724.515	0.25
724.695	0.01
724.874	-0.02
725.054	0.05
725.234	-0.11
725.413	0.09
725.593	0
725.772	0
725.952	0
726.131	0.02
726.311	0.02
726.49	0.08
726.67	-0.03
726.849	0.05
727.028	0.04
727.208	-0.03
727.387	0.04
727.567	-0.03
727.746	0.1
727.925	0.05
728.105	-0.01
728.284	-0.02
728.463	0.03
728.643	0.08
728.822	-0.04
729.001	0.05
729.18	0.08
729.359	0.09
729.539	0
729.718	0.02
729.897	0.14
730.076	0
730.255	-0.11
730.434	0.05
730.614	0.13
730.793	0.15
730.972	-0.01
731.151	0.07
731.33	0.19
731.509	0.07
731.688	0.08
731.867	0.1
732.046	-0.03
732.225	0.3
732.404	0.03
732.583	-0.04
732.762	0.04
732.941	0.13
733.12	0.19
733.298	-0.01
733.477	0.15
733.656	0.09
733.835	-0.08
734.014	0.1
734.193	0.03
734.371	0.11
734.55	0.11
734.729	-0.01
734.908	0.1
735.086	0.14
735.265	0.11
735.444	-0.1
735.623	-0
735.801	0.01
735.98	0.08
736.159	0.07
736.337	0.16
736.516	0.17
736.694	0.07
736.873	-0.01
737.052	0.23
737.23	0.2
737.409	0.06
737.587	0.27
737.766	-0.1
737.944	0.06
738.123	0.13
738.301	0.19
738.479	0.08
738.658	0.19
738.836	-0.03
739.015	0.01
739.193	0.23
739.371	0.01
739.55	0.08
739.728	0.02
739.906	0.27
740.085	0.31
740.263	0.18
740.441	-0.18
740.62	0.19
740.798	0.16
740.976	0.01
741.154	-0.07
741.332	0.21
741.511	-0.04
741.689	0.03
741.867	0.07
742.045	0
742.223	0.06
742.401	-0.03
742.579	0
742.757	0.08
742.935	-0.04
743.114	-0.02
743.292	0.03
743.47	0.01
743.648	0.02
743.826	0.11
744.004	0.17
744.181	0.03
744.359	0.05
744.537	0.02
744.715	0.02
744.893	0.04
745.071	-0.05
745.249	0.01
745.427	-0.03
745.605	0.08
745.782	0.07
745.96	0.04
746.138	-0.05
746.316	0.07
746.493	-0.05
746.671	-0.04
746.849	0
747.027	0.13
747.204	-0.07
747.382	0.1
747.56	-0.12
747.737	0.1
747.915	-0.08
748.093	0.05
748.27	-0.14
748.448	-0.05
748.625	-0.13
748.803	-0.02
748.98	0.04
749.158	0.01
749.335	0.09
749.513	-0.02
749.69	-0.01
749.868	0.1
750.045	0.11
750.223	0
750.4	-0.22
750.578	0.17
750.755	0.01
750.932	-0.09
751.11	0.04
751.287	-0.24
751.464	0.08
751.642	-0.04
751.819	0.08
751.996	-0.02
752.173	-0.01
752.351	-0.09
752.528	-0
752.705	-0.03
752.882	-0.09
753.06	0.12
753.237	0.04
753.414	0.06
753.591	0.12
753.768	0.06
753.945	0.02
754.122	-0.01
754.299	0.02
754.476	-0.07
754.654	0.01
754.831	0.05
755.008	-0
755.185	-0.05
755.362	0.04
755.539	0.05
755.716	-0.15
755.892	-0.08
756.069	-0.14
756.246	0.03
756.423	0.02
756.6	0.16
756.777	-0.08
756.954	0.09
757.131	-0.02
757.307	-0.16
757.484	-0.12
757.661	0.06
757.838	-0.11
758.015	-0.24
758.191	-0.06
758.368	0.02
758.545	0.12
758.721	0.08
758.898	-0.09
759.075	0.16
759.251	0.02
759.428	0.09
759.605	-0.23
759.781	0.02
759.958	0.01
760.134	0.04
760.311	-0.1
760.488	0.04
760.664	0.09
760.841	-0.03
761.017	-0
761.194	0.06
761.37	0.08
761.547	-0.11
761.723	0.01
761.899	0.12
762.076	-0.07
762.252	-0.04
762.429	-0.11
762.605	0.01
762.781	-0.11
762.958	0.17
763.134	-0.03
763.31	-0.09
763.486	0.13
763.663	-0.18
763.839	-0.02
764.015	-0.2
764.191	-0.09
764.368	-0.1
764.544	-0.07
764.72	0.12
764.896	0.04
765.072	-0.04
765.248	0.1
765.425	-0.04
765.601	-0.04
765.777	-0.01
765.953	-0.15
766.129	-0.12
766.305	-0.16
766.481	-0.01
766.657	0.05
766.833	0.16
767.009	-0.1
767.185	0.02
767.361	0.03
767.537	-0.09
767.713	0
767.889	-0.04
768.065	-0.11
768.24	-0.24
768.416	0.09
768.592	0.03
768.768	0.07
768.944	-0.06
769.12	-0.02
769.295	-0.22
769.471	-0.05
769.647	-0.04
769.823	0.13
769.998	-0.08
770.174	-0.21
770.35	0.32
770.525	0.12
770.701	-0.05
770.877	-0.02
771.052	-0.09
771.228	0.12
771.403	0.01
771.579	0.01
771.755	0.25
771.93	0.02
772.106	-0.16
772.281	-0.21
772.457	-0.04
772.632	-0.02
772.808	-0.07
772.983	-0.08
773.159	-0.17
773.334	0.1
773.509	0.08
773.685	-0.14
773.86	0.33
774.036	0.16
774.211	-0.08
774.386	0
774.562	0.07
774.737	-0.04
774.912	-0.15
775.087	0.12
775.263	0.04
775.438	-0.03
775.613	-0.11
775.788	0.06
775.964	0.07
776.139	0.33
776.314	-0.22
776.489	-0.06
776.664	0.02
776.839	-0.23
777.014	0.11
777.19	0.12
777.365	0.13
777.54	0.18
777.715	-0.2
777.89	-0.12
778.065	-0.06
778.24	-0.12
778.415	0.11
778.59	-0.21
778.765	-0.17
778.94	0.05
779.115	-0.06
779.289	-0.12
779.464	-0.05
779.639	-0.07
779.814	-0.19
779.989	-0.12
780.164	0.19
780.339	0.12
780.513	-0.09
780.688	-0.17
780.863	-0.22
781.038	0.09
781.212	-0.09
781.387	-0.07
781.562	0.23
781.737	0.03
781.911	0.08
782.086	-0.21
782.261	-0.03
782.435	0.24
782.61	-0.01
782.784	-0.12
782.959	0.25
783.134	-0.07
783.308	-0.13
783.483	-0.26
783.657	0.21
783.832	0.21
784.006	-0.36
784.181	0.04
784.355	0.06
784.53	0.1
784.704	-0.21
784.878	0.16
785.053	0.12
785.227	0.02
785.402	0.34
785.576	-0.41
785.75	0.09
785.925	-0.14
786.099	-0.12
786.273	0.27
786.448	0.05
786.622	0.16
786.796	-0.04
786.97	-0.18
787.145	0.37
787.319	-0.13
787.493	-0.04
787.667	-0.35
787.841	-0.05
788.015	0.22
788.19	-0.21
788.364	-0.14
788.538	0.12
788.712	0.17
788.886	-0.23
789.06	0.07
789.234	0
789.408	-0.06
789.582	-0.11
789.756	-0.23
789.93	-0.2
790.104	0.14
790.278	-0.19
790.452	-0.15
790.626	0.13
790.8	-0.19
790.973	0.16
791.147	0.22
791.321	0.28
791.495	0.22
791.669	0
791.843	0.2
792.016	0.09
792.19	0.18
792.364	-0.35
792.538	0.35
792.711	0.24
792.885	0.01
793.059	-0.21
793.233	-0.5
793.406	0.13
793.58	0.04
793.754	0
793.927	-0.15
794.101	0.31
794.274	-0.01
794.448	0.36
794.622	-0.05
794.795	0.16
794.969	-0.39
795.142	0.12
795.316	-0
795.489	-0.16
795.663	0.23
795.836	-0.14
796.009	-0.22
796.183	0.11
796.356	0.03
796.53	0.25
796.703	0.04
796.876	0.21
797.05	-0.24
797.223	-0.11
797.396	0.12
797.57	0.23
797.743	0.28
797.916	-0.15
798.09	-0.07
798.263	0.02
798.436	-0
798.609	0.04
798.782	-0.19
798.956	-0.03
799.129	-0.05
799.302	0.05
799.475	-0.15
799.648	-0.25
799.821	-0.09
799.994	0.11
800.167	-0.42
800.34	0.01
800.514	-0.1
800.687	-0.28
800.86	-0.24
801.033	0.16
801.206	-0.02
801.379	-0.3
801.551	0.12
801.724	0.13
801.897	0.36
802.07	-0.23
802.243	-0.49
802.416	-0.16
802.589	-0.01
802.762	-0.03
802.935	-0.14
803.107	0.09
803.28	0.28
803.453	0.04
803.626	-0.16
803.798	0.14
803.971	-0.33
804.144	0.16
804.317	-0.03
804.489	0.17
804.662	-0.21
804.835	0.1
805.007	-0.14
805.18	0.4
805.353	0.11
805.525	-0.22
805.698	-0.19
805.87	-0.18
806.043	0.2
806.215	-0.36
806.388	-0.54
806.56	0.26
806.733	0.39
806.905	0.08
807.078	-0.23
807.25	-0.28
807.423	-0.05
807.595	0.12
807.768	0.04
807.94	-0.08
808.112	-0.02
808.285	-0
808.457	-0.18
808.629	0.02
808.802	0.58
808.974	-0.09
809.146	-0.41
809.318	-0.54
809.491	-0.16
809.663	0.53
809.835	-0.19
810.007	0.24
810.18	0.18
810.352	-0.3
810.524	-0.6
810.696	0.24
810.868	0.14
811.04	-0.21
811.212	-0.37
811.384	0.13
811.556	-0.01
811.728	-0.06
811.901	0.45
812.073	0.12
812.245	0.32
812.417	0.17
812.589	-0.44
812.76	0.08
812.932	0.12
813.104	0.55
813.276	0.1
813.448	0.11
813.62	0.07
813.792	0.01
813.964	-0.11
814.136	0.43
814.307	-0.19
814.479	-0.43
814.651	-0.1
814.823	0.33
814.995	-0.4
815.166	-0.09
815.338	-0.48
815.51	-0.44
815.681	0.66
815.853	-0.21
816.025	-0.13
816.196	0.53
816.368	-0.4
816.54	-0.87
816.711	-0.06
816.883	0.52
817.054	0.64
817.226	-0.58
817.398	0.18
817.569	-0.03
817.741	-0.07
817.912	-0.24
818.084	-0.34
818.255	0.18
818.426	-0.4
818.598	0.46
818.769	-0.51
818.941	0.21
819.112	0.25
819.283	-0.15
819.455	-0.05
819.626	-0.11
819.798	0.15
819.969	-0.13
820.14	-0.15
820.311	-0.2
820.483	0.25
820.654	-0.01
820.825	-0
820.996	0.13
821.168	-0.25
821.339	-0.23
821.51	-0.65
821.681	-0.09
821.852	-0.05
822.023	-0.71
822.195	-0.99
822.366	0.1
822.537	0.15
822.708	-0.22
822.879	-0.2
823.05	0.32
823.221	-0.13
823.392	0.33
823.563	0.06
823.734	-0.01
823.905	-0.24
824.076	-0.48
824.247	-0.27
824.418	-0.66
824.589	0.4
824.759	0.23
824.93	-0.1
825.101	-0.66
825.272	0.8
825.443	0.7
825.614	-0.1
825.784	-1.05
825.955	1.15
826.126	0.32
826.297	0.12
826.467	0.67
826.638	0.31
826.809	-0.68
826.98	-0.11
827.15	0.25
827.321	0.11
827.492	0.29
827.662	0.46
827.833	1.37
828.003	0.37
828.174	-0.33
828.345	-0.94
828.515	0.48
828.686	-0.13
828.856	-0.08
829.027	0.09
829.197	0.16
829.368	0.09
829.538	-0.87
829.709	-0.63
829.879	0.29
830.049	0.04
830.22	-0.55
830.39	-0
830.56	0.46
830.731	-0.44
830.901	-0.75
831.072	0.13
831.242	0.18
831.412	0.39
831.582	-0.29
831.753	-0.71
831.923	0.49
832.093	0.07
832.263	-0.53
832.434	-0.57
832.604	-0.3
832.774	0.61
832.944	-0.21
833.114	0.21
833.284	0.33
833.454	-0.19
833.624	-0.16
833.795	-0.71
833.965	0.94
834.135	0.23
834.305	-0.81
834.475	-0.52
834.645	-0.25
834.815	-0.29
834.985	-0.64
835.155	-0.44
835.325	0.47
835.494	0.43
835.664	-0.29
835.834	-0.9
836.004	-0.12
836.174	0.61
836.344	0.08
836.514	-0.84
836.684	0.06
836.853	0.09
837.023	0.66
837.193	-0.46
837.363	0.92
837.532	0.92
837.702	-0.37
837.872	-0.93
838.041	1.08
838.211	0.8
838.381	-1.13
838.55	-0.55
838.72	1.69
838.89	1.12
839.059	0.16
839.229	-0.15
839.398	1.14
839.568	-0.05
839.738	-0.17
839.907	0.94
840.077	-0.04
840.246	0.13
840.416	-0.65
840.585	-1.57
840.755	0.98
840.924	0.64
841.093	-0.52
841.263	-0.5
841.432	0.16
841.602	-0.6
841.771	-0.58
841.94	-0.11
842.11	1.65
842.279	0.94
842.448	-0.52
842.617	-0.2
842.787	0.9
842.956	-0.7
843.125	0.06
843.294	0.22
843.464	0.96
843.633	0.86
843.802	-1.8
843.971	-0.21
844.14	0.61
844.309	0.48
844.479	-0.58
844.648	-0.87
844.817	-0.77
844.986	-1.19
845.155	-0.5
845.324	-0.69
845.493	-1.11
845.662	-0.23
845.831	0.51
846	0.93
846.169	-0.63
846.338	1.22
846.507	-0.01
846.676	-0.17
846.844	-0.83
847.013	1.68
847.182	0.42
847.351	-0.62
847.52	-0.34
847.689	-0.26
847.858	-0.74
848.026	-0.89
848.195	0.03
848.364	-0.45
848.533	-0.37
848.701	-0.31
848.87	-0.17
849.039	1.04
849.207	1.35
849.376	1.41
849.545	0.74
849.713	-0.52
849.882	-0.17
850.051	0.09
850.219	0.05
850.388	0
850.556	-1.55
850.725	-0.03
850.893	-0.11
851.062	-0.57
851.23	0.6
851.399	-0.81
851.567	-0.48
851.736	-0.1
851.904	-1.09
852.073	0.52
852.241	0.1
852.41	0.01
852.578	-0.44
852.746	0.26
852.915	0.07
853.083	0.71
853.251	-1.12
853.42	-1.27
853.588	0.62
853.756	1.66
853.924	-0.39
854.093	-0.78
854.261	-1.08
854.429	-0.9
854.597	0.82
854.765	-1.4
854.934	0.31
855.102	0.23
855.27	-0.89
855.438	-0.01
855.606	2.09
855.774	1.5
855.942	-1.61
856.11	-1.52
856.278	-0.86
856.446	0.75
856.614	-0.36
856.782	-0.1
856.95	1.05
857.118	0.72
857.286	0.26
857.454	-1.48
857.622	0.93
857.79	0.67
857.958	-0.28
858.126	-0.73
858.294	-3.16
858.462	-0.92
858.629	0.22
858.797	-1.18
858.965	0.1
859.133	0.79
859.301	-0.25
859.468	1.03
859.636	-0.49
859.804	1.38
859.971	0.76
860.139	0.49
860.307	-0.02
860.474	0.66
860.642	-0.37
860.81	-0.27
860.977	-0.14
861.145	1.31
861.313	-0.19
861.48	1.18
861.648	0.19
861.815	-0.16
861.983	-2.02
862.15	0.9
862.318	1.34
862.485	0.54
862.653	-0.58
862.82	-0.81
862.988	2.08
863.155	0.68
863.322	0.44
863.49	-1.43
863.657	0.25
863.824	2.71
863.992	0.78
864.159	1.21
864.326	2.12
864.494	-1.95
864.661	1.54
864.828	-0.91
864.996	1.97
865.163	1.47
865.33	0.04
865.497	-2.98
865.664	-1.17
865.832	-2.15
865.999	-0.62
866.166	-1.6
866.333	-0.72
866.5	1.45
866.667	0.62
866.834	-0.94
867.001	2.72
867.168	-2.88
867.335	0.75
867.502	-1.01
867.669	1.67
867.836	0.73
868.003	-0.38
868.17	-0.29
868.337	-1.28
868.504	2.43
868.671	-1.42
868.838	0.27
869.005	-1.14
869.172	0.46
869.339	-0.62
869.505	-0.83
869.672	-0.56
869.839	0.37
870.006	-0.31
870.173	-1.4
870.339	0.07
870.506	2.91
870.673	-1.92
870.84	0.91
871.006	0.94
871.173	-0.26
871.34	0.68
871.506	-1.55
871.673	-0.63
871.839	-3.13
872.006	0.42
872.173	0.12
872.339	-1.54
872.506	1.98
872.672	-1.27
872.839	-1.34
873.005	-1.21
873.172	3.06
873.338	0.23
873.505	-2.79
873.671	-0.04
873.838	0.4
874.004	-1.27
874.171	-0.4
874.337	1.26
874.503	-1.28
874.67	-1.39
874.836	-0.39
875.002	0.65
875.169	-0.34
875.335	-0.2
875.501	-0.52
875.668	2.09
875.834	0.12
876	-0.95
876.166	1.3
876.332	-0.42
876.499	2.48
876.665	-0.64
876.831	0.59
876.997	2.94
877.163	1.26
877.329	-0.25
877.495	-0.94
877.662	1.03
877.828	1.64
877.994	0.78
878.16	-2.84
878.326	-0.97
878.492	-1.44
878.658	-0.84
878.824	-0.83
878.99	1.11
879.156	-0.38
879.322	2.29
879.487	0.61
879.653	-0.07
879.819	0.27
879.985	-0.96
880.151	0.4
880.317	2.22
880.483	0.98
880.648	1.52
880.814	-1.6
880.98	1.55
881.146	-1.98
881.312	-2.2
881.477	-0.72
881.643	-0.44
881.809	2.42
881.974	0.76
882.14	-2.32
882.306	-0.22
882.471	0.73
882.637	-1.14
882.803	1.41
882.968	3.06
883.134	2.87
883.299	0.14
883.465	0.49
883.63	2.29
883.796	2.08
883.961	1.59
884.127	0.31
884.292	-3.03
884.458	-2.13
884.623	-2.13
