Data from Apollo_Calib_20240827__AbsoluteIrradiance__536__08-05-02-739.txt Node

Date: Wed Aug 28 08:05:02 BST 2024
User: biology
Spectrometer: FLMT08252
Trigger mode: 0
Integration Time (sec): 5.000000E-1
Scans to average: 5
Electric dark correction enabled: true
Nonlinearity correction enabled: false
Boxcar width: 0
XAxis mode: Wavelengths
Number of Pixels in Spectrum: 3648
>>>>>Begin Spectral Data<<<<<
179.588	-0
179.809	-0
180.03	-0
180.251	-0
180.473	-0
180.694	0
180.915	0
181.136	0
181.357	0
181.578	-0
181.799	-0
182.02	-0
182.241	-0
182.462	-0
182.683	0
182.904	-0
183.125	0
183.346	0
183.567	0
183.788	0
184.009	-0
184.23	-0
184.451	0
184.672	-0
184.892	-0
185.113	0
185.334	0
185.555	-0
185.776	-0
185.996	0
186.217	-0
186.438	-0
186.659	-0
186.879	0
187.1	0
187.321	-0
187.541	-0
187.762	0
187.983	-0
188.203	-0
188.424	0
188.644	-0
188.865	0
189.086	-0
189.306	-0
189.527	0
189.747	0
189.968	-0
190.188	0
190.409	-0
190.629	0
190.849	-0
191.07	-0
191.29	0
191.511	-0
191.731	-0
191.951	-0
192.172	-0
192.392	-0
192.612	0
192.833	-0
193.053	0
193.273	0
193.493	-0
193.714	-0
193.934	0
194.154	0
194.374	-0
194.594	-0
194.815	-0
195.035	0
195.255	-0
195.475	-0
195.695	0
195.915	0
196.135	-0
196.355	0
196.575	0
196.795	0
197.015	-0
197.235	-0
197.455	-0
197.675	0
197.895	-0
198.115	-0
198.335	0
198.555	-0
198.775	0
198.995	-0
199.214	0
199.434	-0
199.654	-0
199.874	-0
200.094	0.18
200.313	-0.33
200.533	-0.64
200.753	-0.96
200.973	0.61
201.192	0.17
201.412	-0.93
201.632	-0.21
201.851	0.43
202.071	-0.41
202.291	-0.45
202.51	-0.94
202.73	-0.16
202.95	-0.45
203.169	-0.58
203.389	-0.04
203.608	-0.46
203.828	-0.3
204.047	-0.54
204.267	-0.16
204.486	-0.01
204.706	-0.28
204.925	0.13
205.145	-0.49
205.364	0.06
205.583	0.34
205.803	-0.18
206.022	-0.73
206.242	-0.22
206.461	-0.01
206.68	-0.48
206.9	-0.08
207.119	0.31
207.338	0.48
207.557	-0.15
207.777	-0.26
207.996	-0.19
208.215	0.31
208.434	-0.3
208.654	-0.55
208.873	-0.25
209.092	0.32
209.311	-0.52
209.53	-0.22
209.749	-0.13
209.968	-0.24
210.187	-0.27
210.407	-0.57
210.626	-0.27
210.845	0.15
211.064	-0.03
211.283	-0.09
211.502	0.03
211.721	-0.13
211.94	-0.03
212.159	-0
212.377	0.09
212.596	0.22
212.815	-0.04
213.034	-0.13
213.253	0.09
213.472	-0.08
213.691	-0.23
213.91	-0.22
214.128	-0.2
214.347	0.25
214.566	-0.38
214.785	-0.43
215.003	0.04
215.222	-0.01
215.441	-0.09
215.66	-0.56
215.878	0.04
216.097	0.15
216.316	-0.16
216.534	0
216.753	-0.06
216.972	-0.08
217.19	-0.11
217.409	-0.22
217.627	-0.1
217.846	-0.17
218.064	0.12
218.283	-0.13
218.501	0.19
218.72	0.22
218.938	-0.42
219.157	-0.15
219.375	0.13
219.594	0.05
219.812	-0.15
220.031	-0.31
220.249	0.23
220.467	0.26
220.686	-0.19
220.904	-0.29
221.122	-0.12
221.341	0.33
221.559	0.11
221.777	-0.22
221.995	-0.04
222.214	0.04
222.432	-0.03
222.65	0.06
222.868	0.03
223.086	0
223.305	-0.06
223.523	0.01
223.741	0.07
223.959	-0.22
224.177	-0.37
224.395	-0.15
224.613	-0.11
224.831	0.21
225.049	-0.24
225.267	-0.23
225.485	-0.08
225.703	-0.05
225.921	-0.13
226.139	-0.03
226.357	0.04
226.575	-0.14
226.793	-0.2
227.011	0.33
227.229	0.09
227.447	0.1
227.665	-0.2
227.883	-0.32
228.1	-0.03
228.318	-0.02
228.536	-0.21
228.754	-0.26
228.972	0.06
229.189	-0.06
229.407	-0.14
229.625	-0.08
229.843	0.06
230.06	0
230.278	-0.12
230.496	-0.07
230.713	0
230.931	0.15
231.149	-0.15
231.366	-0.29
231.584	-0.04
231.801	0.26
232.019	-0.16
232.236	-0.14
232.454	-0.14
232.671	-0.12
232.889	0.01
233.106	-0.16
233.324	-0.08
233.541	-0.08
233.759	-0.08
233.976	-0.11
234.194	-0.05
234.411	-0
234.628	-0.12
234.846	-0.11
235.063	-0.17
235.28	-0.17
235.498	0.02
235.715	-0.18
235.932	0.03
236.149	-0.02
236.367	-0.12
236.584	-0.08
236.801	-0.09
237.018	0.02
237.236	-0.07
237.453	-0.21
237.67	0.03
237.887	-0.06
238.104	-0.02
238.321	-0.14
238.538	-0.04
238.755	0.13
238.973	-0.17
239.19	-0.13
239.407	0.02
239.624	0.06
239.841	-0.1
240.058	-0.13
240.275	-0.07
240.492	0.02
240.709	0.08
240.925	-0.05
241.142	0
241.359	-0.12
241.576	-0.06
241.793	-0.04
242.01	-0.1
242.227	0.11
242.444	0.03
242.66	0.03
242.877	-0.05
243.094	-0.15
243.311	0
243.527	-0.18
243.744	0.02
243.961	-0.02
244.178	-0.11
244.394	-0.16
244.611	0.01
244.828	0.14
245.044	-0.12
245.261	-0
245.477	0.04
245.694	-0.1
245.911	-0.06
246.127	-0.03
246.344	0.08
246.56	0.02
246.777	-0.12
246.993	-0.06
247.21	-0.01
247.426	0.05
247.643	-0.02
247.859	-0.08
248.076	0.04
248.292	0.14
248.508	-0.08
248.725	0.05
248.941	0.07
249.157	0.06
249.374	-0.11
249.59	0.02
249.806	-0.01
250.023	0.15
250.239	-0.13
250.455	-0.1
250.671	0.02
250.888	-0.08
251.104	0.07
251.32	-0.02
251.536	-0.05
251.752	-0.09
251.969	-0.02
252.185	-0
252.401	0.2
252.617	-0
252.833	-0.11
253.049	0.01
253.265	-0
253.481	0.04
253.697	-0.05
253.913	-0.08
254.129	0.01
254.345	-0.09
254.561	-0.06
254.777	-0.08
254.993	0.02
255.209	0.02
255.425	-0.08
255.641	-0.07
255.857	0.05
256.073	-0.03
256.288	-0.07
256.504	-0.11
256.72	-0
256.936	0.08
257.152	-0.04
257.367	-0.12
257.583	0.02
257.799	0.01
258.015	-0.15
258.23	-0.07
258.446	0.13
258.662	0.06
258.877	-0.14
259.093	-0.07
259.309	-0.06
259.524	-0.03
259.74	-0.02
259.955	-0.14
260.171	0.04
260.387	-0.02
260.602	0.04
260.818	0.03
261.033	-0.09
261.249	-0.04
261.464	-0.07
261.68	-0.08
261.895	-0.02
262.11	0.08
262.326	-0.15
262.541	-0.12
262.757	0.03
262.972	-0.01
263.187	0.04
263.403	-0.09
263.618	0.06
263.833	-0
264.049	-0.04
264.264	-0.01
264.479	-0.04
264.694	0.05
264.91	-0.01
265.125	-0.05
265.34	0.08
265.555	0.14
265.77	0.03
265.986	-0.09
266.201	0.01
266.416	0.09
266.631	-0.01
266.846	-0.03
267.061	0.02
267.276	0
267.491	-0.15
267.706	-0.04
267.921	0.01
268.136	-0.03
268.351	-0.06
268.566	-0.1
268.781	0.09
268.996	0.02
269.211	-0.01
269.426	-0.06
269.641	-0.11
269.856	0.03
270.071	-0.07
270.285	-0.15
270.5	0.02
270.715	0.12
270.93	0.04
271.145	-0.01
271.359	0.01
271.574	-0.09
271.789	-0.08
272.004	-0.07
272.218	-0.02
272.433	0.07
272.648	-0.05
272.862	0.06
273.077	-0.12
273.292	-0.01
273.506	-0.09
273.721	-0.03
273.936	-0.02
274.15	0
274.365	-0.01
274.579	0.01
274.794	-0.02
275.008	0.14
275.223	-0.1
275.437	-0.07
275.652	0.05
275.866	0.03
276.081	-0.01
276.295	0.09
276.509	0.02
276.724	-0.05
276.938	0
277.153	-0.02
277.367	0.04
277.581	-0.07
277.796	-0.07
278.01	-0.03
278.224	0.07
278.438	0.06
278.653	-0.04
278.867	-0.03
279.081	-0.03
279.295	-0.04
279.51	-0.01
279.724	-0.13
279.938	0.01
280.152	0.02
280.366	-0.06
280.58	-0
280.794	0.11
281.008	0.02
281.222	0.04
281.437	0.08
281.651	0
281.865	0.05
282.079	-0.05
282.293	-0.11
282.507	-0.07
282.721	-0.02
282.935	0.02
283.148	-0.11
283.362	-0.02
283.576	-0.1
283.79	-0.03
284.004	-0.09
284.218	0.06
284.432	-0.05
284.646	-0.03
284.859	-0.04
285.073	-0.02
285.287	-0.05
285.501	-0.03
285.714	-0.01
285.928	0.03
286.142	-0
286.356	-0.05
286.569	-0.04
286.783	0.07
286.997	0.02
287.21	0.02
287.424	-0.01
287.637	-0.08
287.851	-0.02
288.065	0.03
288.278	0.01
288.492	0.05
288.705	0.01
288.919	0.09
289.132	-0.07
289.346	0.06
289.559	-0.07
289.773	-0.03
289.986	-0.02
290.2	-0.01
290.413	0.04
290.626	-0.05
290.84	0.02
291.053	-0.06
291.267	0.05
291.48	-0.03
291.693	-0.01
291.906	0
292.12	-0.04
292.333	-0.03
292.546	-0.04
292.76	0.07
292.973	0.03
293.186	0.05
293.399	-0.05
293.612	0.02
293.826	0.01
294.039	-0
294.252	0.02
294.465	0.01
294.678	0.02
294.891	-0.01
295.104	-0.06
295.317	-0.01
295.53	0.02
295.743	-0.04
295.956	-0.03
296.169	0.05
296.382	0.02
296.595	-0
296.808	-0.05
297.021	0.03
297.234	0.02
297.447	-0.04
297.66	-0.03
297.873	0.03
298.086	0.03
298.299	-0.04
298.511	-0.06
298.724	-0.04
298.937	-0.06
299.15	-0.01
299.363	0.01
299.575	0.01
299.788	0.01
300.001	-0.03
300.213	-0.1
300.426	-0.04
300.639	-0.04
300.852	-0.05
301.064	0.02
301.277	0.08
301.489	0.07
301.702	-0
301.915	0.01
302.127	-0.01
302.34	0
302.552	-0.02
302.765	-0.02
302.977	0.04
303.19	-0
303.402	-0.03
303.615	-0.04
303.827	-0.05
304.04	-0.01
304.252	-0.01
304.464	-0.03
304.677	0.11
304.889	-0.01
305.102	-0.03
305.314	-0.08
305.526	0.02
305.739	0.01
305.951	-0.01
306.163	-0.02
306.375	0.06
306.588	-0.02
306.8	-0.03
307.012	-0.05
307.224	0.02
307.436	0.05
307.649	-0.1
307.861	-0.01
308.073	0.05
308.285	-0
308.497	-0.04
308.709	-0.01
308.921	-0.02
309.133	0.03
309.346	-0.02
309.558	-0.02
309.77	0.08
309.982	0.03
310.194	0.06
310.406	-0.03
310.617	0.08
310.829	0.02
311.041	-0
311.253	-0.04
311.465	-0.06
311.677	-0.06
311.889	-0
312.101	-0.06
312.313	0.07
312.524	0.02
312.736	-0.07
312.948	-0.03
313.16	0.07
313.372	-0.02
313.583	0.01
313.795	-0.04
314.007	-0.03
314.218	-0
314.43	-0
314.642	-0.08
314.853	-0.03
315.065	0.06
315.277	-0
315.488	0.03
315.7	0.01
315.912	-0.01
316.123	-0.05
316.335	0.01
316.546	0.1
316.758	-0.05
316.969	-0
317.181	0.02
317.392	-0.01
317.604	-0
317.815	-0.05
318.026	-0.04
318.238	-0.04
318.449	-0.01
318.661	-0.06
318.872	-0.04
319.083	-0.05
319.295	-0.01
319.506	-0.1
319.717	-0.02
319.929	0.08
320.14	-0.01
320.351	0.01
320.562	-0.05
320.774	-0.01
320.985	-0.01
321.196	-0.07
321.407	-0.05
321.618	0.01
321.829	-0.02
322.041	0.02
322.252	0.02
322.463	-0.02
322.674	0.01
322.885	-0.07
323.096	-0.03
323.307	0.03
323.518	0.01
323.729	-0.07
323.94	0.01
324.151	-0.05
324.362	0.01
324.573	0.03
324.784	-0.04
324.995	0.05
325.206	-0
325.417	-0.06
325.628	-0.01
325.838	-0.02
326.049	-0.01
326.26	0.02
326.471	-0
326.682	0.03
326.892	-0
327.103	-0.06
327.314	-0.11
327.525	-0.01
327.735	-0.03
327.946	-0.04
328.157	-0.05
328.368	0
328.578	-0.06
328.789	0
328.999	0.03
329.21	-0.03
329.421	0.04
329.631	-0.06
329.842	-0.02
330.052	0
330.263	-0.03
330.473	0.01
330.684	-0.02
330.894	-0.04
331.105	0.02
331.315	0
331.526	-0.07
331.736	0.07
331.947	0.04
332.157	-0.01
332.367	-0.08
332.578	-0.01
332.788	0.06
332.999	-0
333.209	-0.02
333.419	-0.02
333.629	-0.01
333.84	0.03
334.05	-0.01
334.26	0.01
334.47	-0.04
334.681	0.05
334.891	-0
335.101	0.07
335.311	0.05
335.521	-0.02
335.732	-0.06
335.942	0.03
336.152	-0.01
336.362	-0.04
336.572	-0.01
336.782	-0.01
336.992	-0.01
337.202	-0.06
337.412	-0.07
337.622	0.02
337.832	-0.05
338.042	-0.03
338.252	-0.02
338.462	-0.05
338.672	-0.05
338.882	-0.03
339.092	0
339.302	0.04
339.511	0.01
339.721	-0.02
339.931	-0.01
340.141	0.05
340.351	0.1
340.561	0.05
340.77	-0.03
340.98	0.02
341.19	-0
341.4	-0
341.609	-0.05
341.819	-0.05
342.029	-0.07
342.238	-0.02
342.448	-0.04
342.658	-0.01
342.867	-0.01
343.077	-0.02
343.286	0.02
343.496	0.04
343.706	0.02
343.915	-0.07
344.125	-0.03
344.334	-0.01
344.544	-0.05
344.753	-0.01
344.963	-0.06
345.172	-0.05
345.381	0
345.591	-0.07
345.8	0.01
346.01	0.07
346.219	0.03
346.428	-0.16
346.638	-0.05
346.847	-0
347.056	0.04
347.266	-0.08
347.475	-0.01
347.684	-0
347.893	-0.01
348.103	-0.02
348.312	-0.03
348.521	-0.07
348.73	0.02
348.94	-0.01
349.149	-0.03
349.358	-0.03
349.567	-0.03
349.776	-0.06
349.985	-0.04
350.194	0
350.403	0.02
350.612	-0.05
350.821	0.02
351.03	0.01
351.239	-0.06
351.448	-0
351.657	-0.08
351.866	0.03
352.075	0
352.284	0.01
352.493	-0.08
352.702	0.09
352.911	-0.01
353.12	-0.01
353.329	-0.04
353.538	0
353.746	-0.01
353.955	-0.05
354.164	0
354.373	-0.03
354.582	0.03
354.79	0.03
354.999	0.05
355.208	-0.02
355.416	0.06
355.625	-0.09
355.834	-0.01
356.042	0
356.251	-0.01
356.46	-0.02
356.668	0
356.877	0.08
357.085	0.04
357.294	-0.07
357.503	0.01
357.711	-0.02
357.92	0.13
358.128	0.05
358.337	0
358.545	0.02
358.754	-0.05
358.962	0.01
359.17	-0
359.379	0.03
359.587	0.03
359.796	-0.04
360.004	-0
360.212	-0.02
360.421	0.05
360.629	-0.02
360.837	-0.02
361.046	0.04
361.254	0.1
361.462	-0
361.67	-0.02
361.879	-0.04
362.087	0.03
362.295	-0.01
362.503	-0
362.711	-0.05
362.92	-0.02
363.128	-0.01
363.336	-0.03
363.544	-0.09
363.752	0.01
363.96	-0.04
364.168	-0.01
364.376	-0.02
364.584	0.02
364.792	0.05
365	0.03
365.208	-0.02
365.416	0.01
365.624	-0
365.832	-0.06
366.04	0.05
366.248	0.01
366.456	0.01
366.664	-0
366.872	-0.01
367.079	-0.01
367.287	-0.01
367.495	-0.04
367.703	0.01
367.911	-0.01
368.118	-0.01
368.326	-0.01
368.534	-0.03
368.742	0.02
368.949	-0.02
369.157	-0.02
369.365	0.03
369.572	-0.04
369.78	-0.06
369.988	0.04
370.195	0.01
370.403	0
370.61	-0.01
370.818	0.02
371.026	0.03
371.233	-0.05
371.441	0.03
371.648	-0.02
371.856	-0.04
372.063	-0.02
372.271	-0.03
372.478	-0.02
372.685	-0.05
372.893	0.01
373.1	-0.04
373.308	-0.01
373.515	0.06
373.722	-0
373.93	-0.03
374.137	0.01
374.344	0.04
374.552	0.02
374.759	0.03
374.966	-0
375.173	0.01
375.381	0.04
375.588	0.01
375.795	-0.07
376.002	-0.05
376.209	-0.05
376.417	-0.05
376.624	0.01
376.831	0.05
377.038	-0.01
377.245	-0.07
377.452	-0.02
377.659	0.02
377.866	-0.08
378.073	-0.04
378.28	-0
378.487	0.01
378.694	0.03
378.901	-0.06
379.108	-0.01
379.315	0.06
379.522	0.06
379.729	0
379.936	-0.03
380.143	0.01
380.35	0.01
380.557	-0.04
380.763	0.02
380.97	-0.02
381.177	-0
381.384	0.03
381.591	-0.03
381.797	0.01
382.004	-0.01
382.211	0.02
382.418	-0.01
382.624	0.01
382.831	0.03
383.038	-0.03
383.244	0.01
383.451	-0.04
383.658	-0
383.864	-0.05
384.071	-0.03
384.277	0.04
384.484	-0.04
384.69	0.04
384.897	-0.02
385.103	-0.04
385.31	-0.02
385.516	-0.04
385.723	-0.06
385.929	0
386.136	-0.07
386.342	0
386.549	-0.01
386.755	0.05
386.961	0.03
387.168	-0.04
387.374	-0
387.58	-0.01
387.787	-0.05
387.993	-0.04
388.199	-0.03
388.406	-0.02
388.612	-0.02
388.818	-0.03
389.024	-0.03
389.231	-0.04
389.437	0.04
389.643	0.04
389.849	-0.01
390.055	0.04
390.261	-0.04
390.467	0.01
390.674	-0.05
390.88	-0.01
391.086	0.04
391.292	-0.07
391.498	0.01
391.704	0
391.91	-0.03
392.116	-0.02
392.322	-0.12
392.528	-0
392.734	-0.02
392.94	0.02
393.146	-0.07
393.352	-0.03
393.557	0.04
393.763	-0.02
393.969	-0.01
394.175	0.01
394.381	0.02
394.587	-0.03
394.792	-0.03
394.998	0.07
395.204	0.01
395.41	-0.04
395.615	0.01
395.821	-0.02
396.027	0.01
396.233	-0.05
396.438	0.02
396.644	0.04
396.85	0
397.055	-0.02
397.261	-0.03
397.466	-0.04
397.672	-0
397.878	0.02
398.083	-0.03
398.289	-0.01
398.494	0.02
398.7	-0.03
398.905	-0.05
399.111	0.05
399.316	-0.03
399.522	-0.04
399.727	-0.02
399.932	-0.02
400.138	-0.01
400.343	0.02
400.549	0
400.754	-0.04
400.959	-0.01
401.165	0.01
401.37	-0
401.575	0.04
401.78	0.03
401.986	-0
402.191	-0.03
402.396	-0
402.601	0.03
402.807	-0.01
403.012	-0.03
403.217	0.01
403.422	-0
403.627	-0.05
403.832	-0.04
404.037	0.05
404.243	-0
404.448	-0.03
404.653	0.01
404.858	0.02
405.063	0.08
405.268	-0.06
405.473	-0.1
405.678	-0.05
405.883	0.08
406.088	-0.01
406.293	-0.05
406.498	-0.06
406.703	0.06
406.907	-0.01
407.112	-0.05
407.317	0.02
407.522	0.04
407.727	-0.07
407.932	0.02
408.136	0.02
408.341	0.02
408.546	-0
408.751	-0.01
408.956	-0.03
409.16	0.04
409.365	-0.04
409.57	-0.04
409.774	0.02
409.979	0.03
410.184	-0
410.388	-0.03
410.593	0.04
410.798	0.06
411.002	-0.02
411.207	0.02
411.411	0.01
411.616	-0.06
411.82	-0.02
412.025	0.01
412.229	-0.05
412.434	0.07
412.638	-0
412.843	-0.01
413.047	0
413.252	-0.07
413.456	-0.03
413.66	0.01
413.865	-0.08
414.069	0.04
414.273	-0.02
414.478	-0.04
414.682	-0.03
414.886	-0.04
415.091	-0.07
415.295	-0.02
415.499	0.01
415.703	-0.06
415.908	-0.02
416.112	-0.11
416.316	-0.01
416.52	-0.02
416.724	-0.08
416.929	-0.04
417.133	0.11
417.337	-0.04
417.541	-0.03
417.745	-0.01
417.949	-0.02
418.153	-0.02
418.357	-0.08
418.561	0.03
418.765	-0.01
418.969	0.12
419.173	0.02
419.377	-0.05
419.581	0.11
419.785	-0.05
419.989	-0.05
420.193	-0.06
420.397	-0.04
420.601	0.03
420.804	0
421.008	-0.02
421.212	-0
421.416	0.04
421.62	-0.07
421.823	-0.03
422.027	0.06
422.231	0.02
422.435	0.01
422.638	-0.03
422.842	-0.03
423.046	-0.06
423.249	0.01
423.453	0.01
423.657	-0.03
423.86	-0.01
424.064	-0.01
424.268	0.04
424.471	-0.02
424.675	0.06
424.878	0.05
425.082	0
425.285	0.01
425.489	0.05
425.692	-0.02
425.896	-0.11
426.099	0
426.303	-0.05
426.506	-0.08
426.71	-0.02
426.913	0.01
427.116	0.04
427.32	-0.02
427.523	-0.03
427.726	0.1
427.93	-0.07
428.133	-0
428.336	-0.04
428.54	-0.09
428.743	0.02
428.946	-0.03
429.149	-0.06
429.353	0.03
429.556	-0
429.759	-0.02
429.962	-0.03
430.165	-0.04
430.368	-0.01
430.571	-0.04
430.775	-0
430.978	-0.03
431.181	-0.03
431.384	0.01
431.587	-0.06
431.79	-0
431.993	-0.08
432.196	-0.07
432.399	-0.05
432.602	0.03
432.805	-0.08
433.008	-0.04
433.211	-0.07
433.414	-0.01
433.616	-0.02
433.819	-0.08
434.022	-0.08
434.225	0.09
434.428	0.02
434.631	0.08
434.833	-0.01
435.036	-0.05
435.239	0.05
435.442	0.01
435.645	-0.05
435.847	0.05
436.05	-0.03
436.253	-0
436.455	-0.07
436.658	-0.03
436.861	0.05
437.063	-0.06
437.266	-0.02
437.468	0.04
437.671	0.1
437.874	-0.03
438.076	-0.06
438.279	-0.08
438.481	-0.02
438.684	-0.03
438.886	-0.03
439.089	-0.07
439.291	-0.04
439.494	-0
439.696	-0.09
439.899	-0.03
440.101	-0.02
440.303	-0.08
440.506	0.07
440.708	-0
440.91	0.04
441.113	-0.08
441.315	0.06
441.517	-0.09
441.72	0
441.922	-0.05
442.124	-0.03
442.326	-0.01
442.529	0.07
442.731	-0.01
442.933	0.06
443.135	-0.01
443.337	-0.05
443.539	-0.03
443.742	-0.07
443.944	0.01
444.146	-0.05
444.348	-0.06
444.55	-0.05
444.752	-0.01
444.954	-0.09
445.156	-0
445.358	-0.04
445.56	-0.03
445.762	-0.06
445.964	-0.05
446.166	-0.05
446.368	-0.11
446.57	0.02
446.772	0.01
446.974	-0.04
447.175	0.05
447.377	-0.08
447.579	-0.04
447.781	-0.09
447.983	0.08
448.184	-0.03
448.386	-0
448.588	-0.07
448.79	-0.01
448.991	-0.02
449.193	-0.03
449.395	0.04
449.597	0.02
449.798	-0.03
450	0.02
450.202	-0.02
450.403	0
450.605	-0.02
450.806	-0.01
451.008	-0.1
451.21	0
451.411	0.01
451.613	-0.03
451.814	-0.01
452.016	0
452.217	0.02
452.419	0.04
452.62	0
452.821	0.01
453.023	-0.01
453.224	0.01
453.426	-0.01
453.627	-0.02
453.828	0.07
454.03	0.01
454.231	0.02
454.432	-0.08
454.634	0.07
454.835	-0.05
455.036	-0.09
455.238	0.02
455.439	0.07
455.64	-0.04
455.841	-0.08
456.042	0.05
456.244	-0.02
456.445	-0.07
456.646	-0.07
456.847	-0.07
457.048	0.02
457.249	0.01
457.45	0.11
457.651	-0.07
457.852	0.04
458.054	-0.02
458.255	0
458.456	-0.02
458.657	-0.09
458.858	-0.04
459.058	0.01
459.259	0.03
459.46	0
459.661	-0.03
459.862	0.07
460.063	-0.02
460.264	0.01
460.465	-0.05
460.666	0.06
460.866	-0.03
461.067	0.02
461.268	0.02
461.469	0.04
461.67	-0.08
461.87	-0.04
462.071	-0.04
462.272	-0.02
462.473	-0.02
462.673	0.01
462.874	-0.05
463.075	-0.02
463.275	-0.08
463.476	-0.03
463.676	-0.02
463.877	0.03
464.078	-0.04
464.278	0.01
464.479	-0.05
464.679	-0.03
464.88	0.01
465.08	0.04
465.281	-0.03
465.481	-0.01
465.682	-0.01
465.882	0
466.083	-0.02
466.283	-0.03
466.483	-0.01
466.684	-0.06
466.884	-0.02
467.085	0.01
467.285	0.01
467.485	-0.05
467.686	-0
467.886	-0.08
468.086	-0.03
468.286	0.03
468.487	0.01
468.687	-0.07
468.887	-0.05
469.087	0
469.287	-0.01
469.488	-0.08
469.688	0.01
469.888	0.01
470.088	-0.01
470.288	0.03
470.488	0.08
470.688	-0.05
470.888	-0.05
471.088	-0.07
471.288	0.01
471.488	0
471.688	-0
471.888	-0.03
472.088	0.01
472.288	0.03
472.488	-0.07
472.688	-0.03
472.888	-0.03
473.088	-0.03
473.288	0
473.488	-0.05
473.688	0.04
473.887	-0.02
474.087	-0.03
474.287	0.02
474.487	-0.04
474.687	0
474.886	-0.03
475.086	-0.02
475.286	-0.01
475.486	-0
475.685	-0.05
475.885	-0.03
476.085	0
476.284	0.04
476.484	-0.03
476.684	0.01
476.883	0.06
477.083	0.02
477.282	-0.03
477.482	-0
477.681	0.03
477.881	-0.01
478.08	-0.04
478.28	-0.04
478.479	0.04
478.679	0.04
478.878	-0.03
479.078	-0.03
479.277	-0.02
479.477	-0.02
479.676	0.02
479.875	-0.01
480.075	-0.05
480.274	0
480.473	0
480.673	-0.04
480.872	0
481.071	0.02
481.271	0.02
481.47	-0.01
481.669	-0.03
481.868	-0.01
482.067	-0.03
482.267	-0.04
482.466	-0.03
482.665	-0.04
482.864	-0.03
483.063	-0.05
483.262	0.01
483.461	0.06
483.661	0.02
483.86	-0.01
484.059	-0.01
484.258	-0.01
484.457	-0.01
484.656	0
484.855	0.04
485.054	-0.03
485.253	-0.05
485.452	-0.05
485.651	-0.03
485.849	-0.03
486.048	-0.04
486.247	-0.04
486.446	-0
486.645	-0.02
486.844	-0.04
487.043	0
487.241	0.01
487.44	-0.04
487.639	-0.02
487.838	0.01
488.037	-0
488.235	0.03
488.434	-0.02
488.633	-0.02
488.831	0.01
489.03	0.02
489.229	-0
489.427	-0.03
489.626	0.02
489.825	0.05
490.023	0
490.222	-0.02
490.42	0.03
490.619	0.03
490.817	-0.02
491.016	-0
491.214	0.04
491.413	-0.02
491.611	-0.01
491.81	-0.01
492.008	0.01
492.207	0.01
492.405	-0.01
492.604	-0.06
492.802	0.01
493	-0.01
493.199	-0.02
493.397	-0.03
493.595	-0.02
493.794	-0.02
493.992	0.03
494.19	-0.01
494.388	-0
494.587	-0.03
494.785	-0.02
494.983	-0.03
495.181	0
495.379	-0.01
495.578	-0.01
495.776	0
495.974	0.01
496.172	0.01
496.37	-0.01
496.568	-0.05
496.766	-0.02
496.964	0.02
497.162	0
497.36	-0.02
497.558	0.01
497.756	-0.01
497.954	-0
498.152	-0.02
498.35	-0.01
498.548	-0
498.746	-0.02
498.944	-0.05
499.142	-0.02
499.34	-0.03
499.538	-0.01
499.736	-0.03
499.933	0.02
500.131	0.03
500.329	-0.01
500.527	0.03
500.725	0.02
500.922	0.02
501.12	-0.01
501.318	0.01
501.516	-0.06
501.713	0.01
501.911	-0.03
502.109	-0.04
502.306	-0.02
502.504	-0.01
502.701	-0.05
502.899	-0.01
503.097	0.04
503.294	-0
503.492	-0.03
503.689	0.02
503.887	0
504.084	0.04
504.282	0
504.479	-0.04
504.677	0
504.874	-0.03
505.072	0
505.269	-0.01
505.466	0.01
505.664	0.01
505.861	-0.05
506.059	-0.04
506.256	-0.01
506.453	-0.03
506.651	0.03
506.848	0.03
507.045	-0.02
507.242	0
507.44	-0.01
507.637	-0.01
507.834	-0.01
508.031	0.02
508.229	-0.03
508.426	0.02
508.623	0.01
508.82	-0.02
509.017	-0.04
509.214	-0.01
509.411	-0.01
509.608	-0.03
509.805	-0
510.003	-0.03
510.2	-0.03
510.397	0.02
510.594	-0.02
510.791	-0.02
510.988	-0.01
511.184	0
511.381	-0.01
511.578	-0.01
511.775	0.02
511.972	-0.03
512.169	-0.02
512.366	-0.02
512.563	0.01
512.76	-0.04
512.956	0.01
513.153	-0.02
513.35	-0.02
513.547	-0.04
513.744	-0.03
513.94	-0.03
514.137	-0.02
514.334	0
514.53	-0.01
514.727	0.01
514.924	0.05
515.12	-0.01
515.317	-0.03
515.514	-0.02
515.71	-0.04
515.907	-0.02
516.103	0.01
516.3	-0.02
516.497	0
516.693	0.02
516.89	-0.02
517.086	-0.02
517.283	0.05
517.479	0
517.676	-0.01
517.872	-0.02
518.068	-0.02
518.265	-0.03
518.461	-0.02
518.658	-0.03
518.854	0.01
519.05	-0.02
519.247	-0.03
519.443	-0.02
519.639	0.01
519.836	0.02
520.032	0.01
520.228	-0.01
520.424	0.03
520.621	0.01
520.817	-0.02
521.013	0.03
521.209	0.01
521.405	0.04
521.601	-0
521.798	0.01
521.994	0.02
522.19	-0.03
522.386	-0.05
522.582	-0.01
522.778	-0
522.974	-0.02
523.17	-0.01
523.366	-0.02
523.562	0.03
523.758	-0.02
523.954	-0.03
524.15	-0.01
524.346	0.01
524.542	-0.01
524.738	-0.01
524.934	-0.01
525.129	-0.08
525.325	0.02
525.521	-0.02
525.717	0.01
525.913	-0
526.109	-0.02
526.304	-0.01
526.5	-0.01
526.696	0.02
526.892	-0.01
527.087	-0
527.283	-0.02
527.479	0.02
527.674	-0.02
527.87	-0.01
528.066	0.01
528.261	0
528.457	-0
528.653	-0.02
528.848	-0.01
529.044	0.01
529.239	0
529.435	0.01
529.63	0.01
529.826	0.04
530.021	-0.01
530.217	-0.03
530.412	-0
530.608	-0.03
530.803	0
530.999	-0.02
531.194	-0.04
531.389	0.01
531.585	-0.07
531.78	-0
531.975	-0.01
532.171	0.02
532.366	-0.02
532.561	0.02
532.757	-0.05
532.952	-0.03
533.147	0.02
533.342	-0.01
533.538	-0.02
533.733	0.01
533.928	-0.03
534.123	-0.03
534.318	-0.05
534.513	-0
534.709	-0.01
534.904	-0.02
535.099	-0.01
535.294	-0.01
535.489	0.01
535.684	-0.04
535.879	-0.02
536.074	0.01
536.269	-0.04
536.464	0
536.659	-0.01
536.854	0.01
537.049	0.01
537.244	-0.01
537.439	-0.01
537.634	0.02
537.828	-0.01
538.023	-0.01
538.218	-0.03
538.413	-0.02
538.608	-0.03
538.803	0.01
538.997	-0.05
539.192	0.02
539.387	0.01
539.582	-0.01
539.776	-0
539.971	-0.04
540.166	-0.01
540.36	-0.02
540.555	-0.01
540.75	-0.02
540.944	-0.01
541.139	-0.04
541.334	-0.02
541.528	0.01
541.723	-0
541.917	-0.02
542.112	-0.04
542.306	-0
542.501	-0.01
542.695	-0.01
542.89	-0.04
543.084	-0
543.279	-0.03
543.473	-0.01
543.668	-0.01
543.862	-0.03
544.056	0
544.251	-0.02
544.445	0.01
544.64	-0.02
544.834	-0.03
545.028	-0
545.222	0.02
545.417	-0
545.611	-0.01
545.805	-0.03
546	-0.02
546.194	-0.01
546.388	-0.03
546.582	-0.02
546.776	-0.01
546.97	-0.02
547.165	-0.01
547.359	0.01
547.553	-0.03
547.747	-0.01
547.941	-0.02
548.135	-0.01
548.329	0
548.523	0
548.717	-0.01
548.911	-0.02
549.105	-0.02
549.299	-0.02
549.493	0.02
549.687	-0.01
549.881	0.03
550.075	0
550.269	-0.05
550.463	0.02
550.657	-0.04
550.85	-0.01
551.044	-0
551.238	0.01
551.432	-0.01
551.626	-0.03
551.82	-0.02
552.013	-0.02
552.207	0.01
552.401	0.01
552.594	-0.03
552.788	-0.01
552.982	-0.02
553.176	-0.04
553.369	0.01
553.563	0.01
553.756	-0.04
553.95	-0.03
554.144	-0.01
554.337	0.01
554.531	-0.01
554.724	-0
554.918	-0.01
555.111	0
555.305	0
555.498	0.02
555.692	0.01
555.885	-0.01
556.079	-0
556.272	-0.01
556.466	0.02
556.659	-0
556.852	-0.02
557.046	-0.02
557.239	0.04
557.432	-0.04
557.626	-0.02
557.819	-0.01
558.012	0.01
558.206	0.01
558.399	-0
558.592	0.01
558.785	-0.03
558.979	0.01
559.172	0.02
559.365	0.02
559.558	0.01
559.751	-0.01
559.944	-0.01
560.138	-0
560.331	-0
560.524	-0
560.717	-0.02
560.91	0
561.103	-0.01
561.296	0
561.489	-0.01
561.682	-0
561.875	0.03
562.068	-0.01
562.261	-0.01
562.454	0.03
562.647	0
562.84	0.01
563.032	-0
563.225	0.01
563.418	0
563.611	-0.01
563.804	-0
563.997	-0.04
564.19	-0.04
564.382	-0.08
564.575	0
564.768	-0.03
564.961	-0.02
565.153	-0.01
565.346	0.03
565.539	0.01
565.731	0
565.924	0.02
566.117	0.01
566.309	-0.02
566.502	-0.01
566.695	0
566.887	-0.01
567.08	-0.04
567.272	-0.03
567.465	-0.01
567.657	0.01
567.85	0.01
568.042	0.01
568.235	0.01
568.427	-0.02
568.62	-0
568.812	0
569.005	-0.01
569.197	-0.05
569.389	-0.02
569.582	0.03
569.774	0
569.966	-0.04
570.159	-0.04
570.351	0.01
570.543	-0.03
570.736	-0.02
570.928	-0.04
571.12	-0.01
571.312	-0.01
571.505	-0.03
571.697	0.05
571.889	-0.06
572.081	-0.02
572.273	-0.04
572.465	0.04
572.658	-0.04
572.85	-0
573.042	-0.02
573.234	-0.01
573.426	0.01
573.618	-0.02
573.81	0.01
574.002	0.02
574.194	0.01
574.386	-0.05
574.578	-0.05
574.77	-0.02
574.962	-0.03
575.154	-0.02
575.346	-0.02
575.538	-0.02
575.729	-0.02
575.921	-0.01
576.113	-0.02
576.305	0.01
576.497	-0.01
576.689	-0.03
576.88	-0.03
577.072	0.01
577.264	-0.01
577.456	0.01
577.647	-0.08
577.839	0.01
578.031	0.01
578.223	-0.04
578.414	-0.04
578.606	-0.01
578.798	-0.01
578.989	-0.03
579.181	-0.02
579.372	-0.02
579.564	-0.01
579.755	0.01
579.947	-0.03
580.139	0.02
580.33	-0.06
580.522	-0.03
580.713	-0.06
580.905	-0.02
581.096	-0
581.287	-0.03
581.479	-0.03
581.67	0
581.862	-0
582.053	-0.01
582.244	-0.07
582.436	-0.02
582.627	-0.02
582.818	-0.01
583.01	-0.04
583.201	0.02
583.392	0.01
583.583	-0.02
583.775	-0.02
583.966	-0.05
584.157	-0.01
584.348	-0.03
584.54	-0.04
584.731	-0.01
584.922	0.01
585.113	-0.04
585.304	0.02
585.495	0.02
585.686	0
585.877	-0.01
586.068	0
586.259	-0.02
586.45	-0.01
586.641	-0.03
586.832	-0.06
587.023	0
587.214	-0.02
587.405	0.01
587.596	-0.03
587.787	0.01
587.978	0.02
588.169	-0.06
588.36	-0.03
588.551	-0.01
588.742	-0.02
588.932	0.01
589.123	-0.01
589.314	0.01
589.505	0
589.696	-0.02
589.886	-0.04
590.077	-0.06
590.268	0
590.458	-0.05
590.649	-0.04
590.84	0.02
591.03	-0.06
591.221	-0.05
591.412	-0.04
591.602	0.06
591.793	0.02
591.984	-0.05
592.174	-0.04
592.365	0.06
592.555	-0.04
592.746	-0.01
592.936	0.01
593.127	-0.02
593.317	0.01
593.508	-0.03
593.698	-0.02
593.889	0
594.079	0.01
594.269	-0.03
594.46	-0.02
594.65	-0
594.84	-0.01
595.031	-0.02
595.221	-0.05
595.411	-0.04
595.602	0
595.792	-0
595.982	-0.02
596.172	0.06
596.363	-0
596.553	-0.02
596.743	-0.02
596.933	-0.05
597.123	0.02
597.314	-0.03
597.504	-0.02
597.694	0
597.884	0.01
598.074	-0.03
598.264	-0.01
598.454	0.02
598.644	-0.03
598.834	-0.01
599.024	-0.06
599.214	-0.03
599.404	0.03
599.594	-0.05
599.784	-0.03
599.974	0.07
600.164	0.02
600.354	-0.01
600.544	-0.05
600.734	0.01
600.924	0.03
601.114	-0.04
601.303	-0.02
601.493	0
601.683	-0.03
601.873	0.01
602.063	-0.04
602.252	0.04
602.442	-0.06
602.632	-0.04
602.821	-0.04
603.011	-0
603.201	-0.02
603.39	-0.05
603.58	-0.04
603.77	0.01
603.959	0.02
604.149	-0
604.339	-0.04
604.528	0.01
604.718	0.01
604.907	-0.02
605.097	-0.03
605.286	-0.07
605.476	0.02
605.665	-0
605.855	-0.02
606.044	0.03
606.234	0.01
606.423	-0
606.612	-0.03
606.802	0.01
606.991	0.01
607.181	-0.01
607.37	-0.06
607.559	-0.01
607.749	-0.04
607.938	-0.01
608.127	-0.03
608.316	-0.04
608.506	-0
608.695	-0.04
608.884	-0.04
609.073	-0.04
609.263	0.01
609.452	0.03
609.641	0.02
609.83	-0.04
610.019	-0.02
610.208	-0.04
610.397	-0.01
610.586	0.01
610.775	-0.02
610.965	0.01
611.154	-0.06
611.343	0.02
611.532	-0.01
611.721	-0.07
611.91	-0.04
612.099	-0.01
612.287	-0.04
612.476	-0.04
612.665	-0.02
612.854	-0.01
613.043	0.01
613.232	-0.03
613.421	-0.04
613.61	-0.02
613.798	-0.02
613.987	0.02
614.176	-0.02
614.365	0.03
614.554	0.01
614.742	-0.02
614.931	-0.02
615.12	0.01
615.309	-0.04
615.497	-0.02
615.686	-0.02
615.875	-0.04
616.063	0.01
616.252	-0.02
616.44	-0.03
616.629	-0.03
616.818	0.01
617.006	-0.02
617.195	-0.02
617.383	-0.01
617.572	-0
617.76	-0.03
617.949	-0
618.137	0
618.326	0.03
618.514	-0.05
618.703	-0.05
618.891	0.01
619.079	-0.06
619.268	-0
619.456	-0.04
619.644	0.01
619.833	-0.02
620.021	-0.05
620.209	-0.05
620.398	-0
620.586	-0.01
620.774	0.02
620.962	-0.02
621.151	0.03
621.339	-0.03
621.527	-0.04
621.715	-0.06
621.903	-0.02
622.092	-0.07
622.28	0
622.468	0.01
622.656	-0.02
622.844	-0.02
623.032	-0.02
623.22	-0.05
623.408	0
623.596	-0.01
623.784	-0.02
623.972	-0.04
624.16	-0.06
624.348	0.02
624.536	-0.01
624.724	-0.02
624.912	0.04
625.1	0.03
625.288	-0.03
625.476	-0.03
625.664	0.02
625.851	-0.07
626.039	-0.03
626.227	0.02
626.415	-0.02
626.603	-0.07
626.79	-0.03
626.978	-0.03
627.166	-0.01
627.354	-0.02
627.541	-0.04
627.729	-0.11
627.917	0.01
628.104	0.02
628.292	0.03
628.48	-0.01
628.667	-0.01
628.855	0.01
629.042	-0
629.23	-0.02
629.418	-0.03
629.605	-0.04
629.793	-0.02
629.98	-0.04
630.168	-0.01
630.355	0.01
630.543	-0
630.73	-0.04
630.917	0.02
631.105	0.02
631.292	-0.06
631.48	-0
631.667	0.01
631.854	-0
632.042	-0.01
632.229	-0.05
632.416	0.01
632.604	-0.02
632.791	-0.02
632.978	0.01
633.165	-0
633.353	0.05
633.54	0.01
633.727	-0.07
633.914	-0.05
634.101	-0.09
634.289	0.01
634.476	-0.04
634.663	-0.05
634.85	0.01
635.037	-0.05
635.224	-0.05
635.411	0.01
635.598	0.01
635.785	-0.02
635.972	-0.03
636.159	-0.02
636.346	-0.04
636.533	-0.01
636.72	-0.02
636.907	-0.02
637.094	0.01
637.281	-0.02
637.468	-0.01
637.655	-0.02
637.842	-0.03
638.029	-0.04
638.215	-0
638.402	-0.03
638.589	-0.05
638.776	-0.03
638.963	-0.03
639.149	-0.01
639.336	0.04
639.523	-0.01
639.709	-0.01
639.896	-0
640.083	0.03
640.27	-0.02
640.456	-0.05
640.643	-0
640.829	-0.05
641.016	-0.01
641.203	-0.05
641.389	0.02
641.576	0.01
641.762	-0.05
641.949	-0.05
642.135	0.01
642.322	-0.01
642.508	-0.09
642.695	-0.01
642.881	-0.01
643.068	-0.02
643.254	-0.04
643.441	0.01
643.627	-0.02
643.813	-0.05
644	0.01
644.186	-0.04
644.372	-0.05
644.559	0.01
644.745	-0.03
644.931	-0.01
645.118	-0.02
645.304	-0.04
645.49	-0.04
645.676	-0.04
645.862	0
646.049	0.01
646.235	-0.01
646.421	0.03
646.607	0.06
646.793	-0.05
646.979	-0.03
647.165	-0.02
647.352	-0.03
647.538	0.03
647.724	-0.03
647.91	-0.01
648.096	0.04
648.282	0.02
648.468	-0.03
648.654	-0.01
648.84	-0
649.026	-0
649.212	-0.01
649.397	-0.04
649.583	-0.04
649.769	-0
649.955	-0.01
650.141	-0
650.327	-0.01
650.513	-0.04
650.698	-0.01
650.884	-0.08
651.07	-0.02
651.256	-0.03
651.442	-0.03
651.627	-0.02
651.813	-0.02
651.999	-0.03
652.184	0.01
652.37	-0.01
652.556	-0.07
652.741	0.06
652.927	-0.07
653.113	-0.02
653.298	0.03
653.484	-0.03
653.669	-0.06
653.855	-0.04
654.04	-0.01
654.226	-0.02
654.412	-0.05
654.597	-0.07
654.782	-0.01
654.968	0.01
655.153	-0.01
655.339	-0.02
655.524	-0.08
655.71	0.03
655.895	-0.03
656.08	-0.01
656.266	0.03
656.451	-0.01
656.636	-0.02
656.822	-0.03
657.007	-0.05
657.192	-0.02
657.378	-0.07
657.563	-0.01
657.748	0.02
657.933	0.03
658.118	-0.04
658.304	-0.05
658.489	-0.01
658.674	0
658.859	-0.05
659.044	0
659.229	-0.02
659.414	-0.03
659.599	-0.04
659.785	-0.06
659.97	-0.02
660.155	0.01
660.34	-0.03
660.525	-0.04
660.71	-0.01
660.895	0
661.08	0
661.264	-0.04
661.449	-0.01
661.634	0.01
661.819	0.02
662.004	-0.02
662.189	-0.08
662.374	-0.04
662.559	-0.06
662.743	-0.09
662.928	-0.02
663.113	-0.05
663.298	-0.07
663.483	-0.04
663.667	0.02
663.852	-0.04
664.037	0.01
664.221	-0.03
664.406	-0.02
664.591	0.01
664.775	-0.01
664.96	-0
665.145	-0.04
665.329	0.03
665.514	-0.07
665.698	-0.03
665.883	-0.09
666.068	0.05
666.252	-0.04
666.437	-0.05
666.621	-0.04
666.806	0.01
666.99	-0.05
667.174	-0.08
667.359	-0.01
667.543	-0.03
667.728	-0.04
667.912	-0.09
668.096	-0.01
668.281	-0.03
668.465	0
668.649	-0
668.834	-0.06
669.018	-0.02
669.202	-0.03
669.387	-0.06
669.571	0.04
669.755	-0.02
669.939	-0.06
670.124	0.01
670.308	0.06
670.492	0.01
670.676	-0.01
670.86	-0.02
671.044	-0.03
671.228	0.03
671.413	-0.05
671.597	-0.04
671.781	-0.04
671.965	0.01
672.149	-0.02
672.333	-0.05
672.517	-0.05
672.701	-0.03
672.885	-0.05
673.069	-0.09
673.253	0.02
673.437	-0.03
673.621	-0.02
673.804	-0.02
673.988	-0.01
674.172	-0
674.356	-0.09
674.54	-0.03
674.724	0.06
674.908	-0.01
675.091	-0.04
675.275	-0.05
675.459	-0.01
675.643	-0.03
675.826	0.01
676.01	0
676.194	0
676.377	0.01
676.561	0.02
676.745	0.03
676.928	0.03
677.112	-0
677.296	-0.02
677.479	-0.05
677.663	-0.04
677.846	-0
678.03	-0.06
678.213	-0.02
678.397	-0
678.58	-0.03
678.764	-0.06
678.947	-0.08
679.131	-0.05
679.314	0.05
679.498	-0.04
679.681	0.01
679.865	0.06
680.048	-0.01
680.231	0
680.415	0.01
680.598	-0.07
680.781	-0.04
680.965	-0.01
681.148	0.02
681.331	-0.06
681.514	0.02
681.698	-0.05
681.881	-0.02
682.064	-0.01
682.247	-0.03
682.43	-0.06
682.614	-0
682.797	0.01
682.98	-0.02
683.163	-0.05
683.346	0.02
683.529	-0.02
683.712	-0.04
683.895	0.01
684.078	-0.06
684.261	0.01
684.444	0
684.627	-0.01
684.81	-0.01
684.993	-0.01
685.176	0.04
685.359	-0.09
685.542	-0.05
685.725	0.04
685.908	-0.03
686.091	-0.05
686.274	0.04
686.457	0.03
686.639	-0.04
686.822	0.01
687.005	-0.01
687.188	0.03
687.371	0.05
687.553	0
687.736	0.02
687.919	0.02
688.102	0.08
688.284	-0.01
688.467	-0.03
688.65	0.01
688.832	-0.06
689.015	-0.07
689.197	-0.04
689.38	0.06
689.563	0.06
689.745	-0.09
689.928	-0.06
690.11	-0.04
690.293	0
690.475	-0.04
690.658	0.04
690.84	-0.02
691.023	-0.03
691.205	-0.06
691.388	-0.01
691.57	-0.04
691.752	-0.02
691.935	-0.06
692.117	-0.02
692.3	-0.01
692.482	0.02
692.664	-0.03
692.847	-0
693.029	0.02
693.211	0.02
693.393	-0.03
693.576	-0.06
693.758	-0.03
693.94	-0.04
694.122	0.01
694.304	-0.04
694.487	-0.01
694.669	0.07
694.851	-0.06
695.033	-0.02
695.215	-0.08
695.397	-0.05
695.579	-0
695.761	-0.03
695.943	-0.07
696.125	0.01
696.308	-0
696.49	-0.14
696.671	0.09
696.853	-0.02
697.035	0.11
697.217	-0.04
697.399	-0.03
697.581	-0
697.763	-0.03
697.945	-0.07
698.127	-0.03
698.309	0.02
698.491	-0.02
698.672	0.02
698.854	0.01
699.036	0.04
699.218	-0.03
699.399	0.03
699.581	0.03
699.763	-0.02
699.945	-0.03
700.126	-0.02
700.308	0.01
700.49	-0.02
700.671	-0.07
700.853	-0.05
701.035	-0.07
701.216	-0.02
701.398	-0.03
701.579	-0.03
701.761	0.06
701.943	-0.06
702.124	-0.09
702.306	-0.06
702.487	0.12
702.669	0.01
702.85	-0.04
703.031	-0.01
703.213	0.06
703.394	0.05
703.576	-0.06
703.757	0.02
703.938	0.06
704.12	0.1
704.301	-0.03
704.483	-0.08
704.664	-0.01
704.845	0.02
705.026	0.04
705.208	-0.02
705.389	0.05
705.57	0.01
705.751	-0
705.933	-0.04
706.114	0.12
706.295	-0.02
706.476	-0.08
706.657	0.05
706.838	-0.01
707.02	0.05
707.201	-0.08
707.382	-0.06
707.563	-0.03
707.744	-0.04
707.925	-0.09
708.106	-0.04
708.287	0
708.468	0.04
708.649	0.02
708.83	-0.02
709.011	0.03
709.192	0.05
709.373	-0.07
709.554	-0.04
709.734	0.06
709.915	-0.04
710.096	-0.01
710.277	-0.13
710.458	0.03
710.639	-0.01
710.819	-0.07
711	0.01
711.181	0.06
711.362	0.04
711.542	-0
711.723	-0.03
711.904	0.03
712.085	-0.03
712.265	0.03
712.446	-0.06
712.627	-0.04
712.807	0.08
712.988	-0.01
713.168	-0.06
713.349	-0.04
713.53	-0.14
713.71	-0.09
713.891	-0.1
714.071	-0.03
714.252	-0.05
714.432	-0.06
714.613	-0.17
714.793	-0.01
714.974	0.05
715.154	0.05
715.334	0.01
715.515	0.06
715.695	-0.09
715.876	-0.03
716.056	-0.04
716.236	-0.09
716.417	-0.04
716.597	-0.09
716.777	-0.01
716.957	0.03
717.138	0.01
717.318	0
717.498	-0.09
717.678	0.03
717.859	-0.03
718.039	-0.16
718.219	-0.03
718.399	0.04
718.579	-0.1
718.759	-0.08
718.939	0.04
719.12	-0.09
719.3	0.04
719.48	-0.13
719.66	-0.12
719.84	0.03
720.02	0.03
720.2	-0.04
720.38	-0.04
720.56	0.03
720.74	-0.03
720.92	0.01
721.1	0.1
721.279	0.05
721.459	-0.02
721.639	-0.15
721.819	-0.02
721.999	-0.07
722.179	0.06
722.359	-0.08
722.538	-0.03
722.718	-0.1
722.898	-0.04
723.078	-0.02
723.257	-0.07
723.437	-0.02
723.617	-0.01
723.797	-0.04
723.976	-0.05
724.156	0.04
724.336	0.04
724.515	0.08
724.695	-0.07
724.874	-0.09
725.054	0.05
725.234	-0.08
725.413	-0.03
725.593	0.01
725.772	-0.05
725.952	-0
726.131	-0.02
726.311	0.04
726.49	-0.05
726.67	-0.12
726.849	-0.05
727.028	0.02
727.208	-0.03
727.387	0.01
727.567	-0.13
727.746	-0.03
727.925	-0.14
728.105	-0.1
728.284	-0.04
728.463	-0.09
728.643	0.05
728.822	-0.12
729.001	-0.01
729.18	-0.07
729.359	-0.08
729.539	-0.05
729.718	-0.01
729.897	-0
730.076	-0.06
730.255	-0.16
730.434	-0.03
730.614	0.01
730.793	0.08
730.972	-0.09
731.151	-0.05
731.33	0.01
731.509	-0.03
731.688	0.04
731.867	-0.06
732.046	-0.11
732.225	0.16
732.404	-0.08
732.583	-0.06
732.762	0.04
732.941	0.02
733.12	-0.03
733.298	-0.11
733.477	-0.02
733.656	-0.09
733.835	-0.05
734.014	0.07
734.193	-0.08
734.371	0.02
734.55	-0.05
734.729	-0.11
734.908	0.02
735.086	0.03
735.265	0.06
735.444	-0.22
735.623	-0.07
735.801	-0.09
735.98	0.03
736.159	-0.12
736.337	-0.01
736.516	0.04
736.694	-0.04
736.873	-0.01
737.052	0.12
737.23	0.1
737.409	-0.13
737.587	0.02
737.766	-0.15
737.944	-0.08
738.123	-0.04
738.301	0.03
738.479	-0.15
738.658	0.03
738.836	-0.2
739.015	0.07
739.193	0.04
739.371	-0.14
739.55	-0.09
739.728	-0.12
739.906	-0.01
740.085	0.09
740.263	-0.14
740.441	-0.14
740.62	0.16
740.798	0.09
740.976	-0.07
741.154	-0.12
741.332	0.09
741.511	-0.09
741.689	0.03
741.867	0.03
742.045	-0.11
742.223	-0.05
742.401	-0.08
742.579	-0.14
742.757	-0.03
742.935	-0.05
743.114	-0.05
743.292	-0.07
743.47	0
743.648	0.06
743.826	-0
744.004	0.09
744.181	-0.01
744.359	-0.1
744.537	0.04
744.715	-0.02
744.893	-0.05
745.071	0
745.249	-0.1
745.427	-0
745.605	0.09
745.782	0.07
745.96	0.08
746.138	-0.04
746.316	0.1
746.493	-0.11
746.671	0.04
746.849	-0.1
747.027	0.13
747.204	-0.15
747.382	0.09
747.56	-0.16
747.737	0.03
747.915	-0.12
748.093	-0.03
748.27	-0.13
748.448	-0.09
748.625	-0.13
748.803	0.05
748.98	-0.14
749.158	0.04
749.335	0.07
749.513	-0.09
749.69	-0.08
749.868	-0.05
750.045	0
750.223	-0.05
750.4	-0.14
750.578	0.19
750.755	-0.04
750.932	-0.16
751.11	-0.01
751.287	-0.18
751.464	0.06
751.642	-0.16
751.819	-0.03
751.996	0
752.173	-0.06
752.351	-0.11
752.528	-0
752.705	-0.08
752.882	-0.15
753.06	0.04
753.237	-0.02
753.414	0.12
753.591	0.14
753.768	0.02
753.945	-0.1
754.122	-0.08
754.299	0.15
754.476	-0.07
754.654	-0.04
754.831	0.19
755.008	0.07
755.185	-0.12
755.362	-0.08
755.539	-0.02
755.716	-0.07
755.892	-0.1
756.069	-0.03
756.246	-0.04
756.423	-0.08
756.6	0.12
756.777	-0.18
756.954	0.09
757.131	-0.16
757.307	-0.16
757.484	-0.11
757.661	-0.04
757.838	-0.08
758.015	-0.1
758.191	-0.07
758.368	-0.05
758.545	0.1
758.721	-0.02
758.898	-0.07
759.075	0.07
759.251	0.1
759.428	0.17
759.605	-0.01
759.781	-0.1
759.958	0.06
760.134	-0.02
760.311	-0.08
760.488	0.2
760.664	0.09
760.841	-0.08
761.017	-0.07
761.194	0.03
761.37	0.14
761.547	0
761.723	-0.08
761.899	0.17
762.076	-0.1
762.252	-0.08
762.429	-0.05
762.605	0.03
762.781	0.02
762.958	0.02
763.134	-0.08
763.31	-0.1
763.486	0.05
763.663	-0.18
763.839	-0.01
764.015	-0.28
764.191	-0.03
764.368	-0.07
764.544	-0.01
764.72	0.07
764.896	0.04
765.072	0.03
765.248	-0.16
765.425	-0.06
765.601	-0.05
765.777	-0.01
765.953	-0.21
766.129	-0.14
766.305	-0.15
766.481	0.18
766.657	0.05
766.833	0.13
767.009	-0.12
767.185	-0.14
767.361	-0.04
767.537	-0.09
767.713	0.07
767.889	-0.05
768.065	-0.04
768.24	-0.32
768.416	-0.02
768.592	-0.04
768.768	-0.08
768.944	-0.07
769.12	-0.15
769.295	-0.02
769.471	-0.03
769.647	-0.02
769.823	0.15
769.998	-0.03
770.174	-0.17
770.35	0.2
770.525	0.16
770.701	-0.01
770.877	-0.02
771.052	-0.06
771.228	0.18
771.403	-0.12
771.579	0.06
771.755	0.33
771.93	-0.24
772.106	-0.19
772.281	-0.23
772.457	-0.08
772.632	-0.03
772.808	-0.18
772.983	-0.02
773.159	-0.14
773.334	0.08
773.509	0.02
773.685	0.01
773.86	0.19
774.036	0.15
774.211	-0.14
774.386	-0.14
774.562	-0.15
774.737	-0.1
774.912	-0.22
775.087	0.08
775.263	0.03
775.438	0.09
775.613	0.08
775.788	-0.13
775.964	0.14
776.139	0.23
776.314	-0.01
776.489	-0
776.664	-0.02
776.839	-0.31
777.014	0.13
777.19	0.03
777.365	0.03
777.54	0.17
777.715	-0.1
777.89	0.04
778.065	-0.26
778.24	-0.02
778.415	0.1
778.59	-0.24
778.765	0
778.94	-0.1
779.115	-0.15
779.289	0.09
779.464	-0.02
779.639	-0.03
779.814	-0.31
779.989	-0.24
780.164	0.14
780.339	-0.09
780.513	-0.1
780.688	-0.26
780.863	-0.04
781.038	0.04
781.212	-0.18
781.387	0.04
781.562	0.36
781.737	-0.09
781.911	0.07
782.086	-0.05
782.261	-0.1
782.435	0.25
782.61	-0.08
782.784	-0.14
782.959	0.02
783.134	-0.01
783.308	-0.27
783.483	-0.12
783.657	0.33
783.832	0.05
784.006	-0.1
784.181	-0.05
784.355	0.19
784.53	-0.25
784.704	-0.24
784.878	0.32
785.053	0.03
785.227	0.08
785.402	0.38
785.576	-0.24
785.75	-0.28
785.925	-0.07
786.099	0.06
786.273	0.04
786.448	-0.08
786.622	0.23
786.796	-0.04
786.97	-0.21
787.145	0.49
787.319	-0.33
787.493	-0.01
787.667	-0.26
787.841	-0.16
788.015	0.13
788.19	-0.13
788.364	-0.03
788.538	0.06
788.712	0.09
788.886	-0.18
789.06	0.21
789.234	0.15
789.408	-0.05
789.582	-0.03
789.756	-0.04
789.93	-0.26
790.104	-0.12
790.278	-0.13
790.452	-0.06
790.626	0.19
790.8	-0.13
790.973	0.06
791.147	0.14
791.321	0.1
791.495	-0.06
791.669	0.08
791.843	0.05
792.016	-0.23
792.19	0.22
792.364	-0.31
792.538	0.36
792.711	0.21
792.885	0.05
793.059	-0.27
793.233	-0.31
793.406	0.06
793.58	-0.03
793.754	0.01
793.927	-0.26
794.101	0.29
794.274	-0.14
794.448	0.18
794.622	-0.18
794.795	0.21
794.969	-0.14
795.142	0.13
795.316	-0.24
795.489	-0.12
795.663	0.18
795.836	-0.19
796.009	-0.26
796.183	0.44
796.356	0.23
796.53	-0.03
796.703	-0.14
796.876	0.53
797.05	0
797.223	0.08
797.396	0.07
797.57	-0.11
797.743	0.31
797.916	0.07
798.09	-0.23
798.263	0.15
798.436	0.17
798.609	0.13
798.782	-0.22
798.956	0.24
799.129	-0.03
799.302	0.02
799.475	-0.05
799.648	-0.16
799.821	-0.2
799.994	-0.06
800.167	-0.24
800.34	-0.03
800.514	-0.03
800.687	-0.12
800.86	-0.01
801.033	-0.3
801.206	-0.09
801.379	-0.38
801.551	-0.04
801.724	0.32
801.897	0.05
802.07	-0.13
802.243	-0.53
802.416	-0.09
802.589	-0.62
802.762	-0.1
802.935	-0.14
803.107	0.2
803.28	0.23
803.453	0.25
803.626	-0.23
803.798	-0.07
803.971	-0.53
804.144	0.15
804.317	0.1
804.489	0.24
804.662	-0.27
804.835	-0.05
805.007	-0.26
805.18	0.34
805.353	0.06
805.525	-0.17
805.698	0
805.87	0.21
806.043	0.1
806.215	-0.31
806.388	-0.28
806.56	0.14
806.733	-0.08
806.905	0.17
807.078	-0.2
807.25	-0.28
807.423	0.24
807.595	0.44
807.768	-0.08
807.94	0.62
808.112	0.22
808.285	-0.07
808.457	0.03
808.629	-0.32
808.802	0.07
808.974	-0.16
809.146	-0.09
809.318	-0.09
809.491	0.07
809.663	0.27
809.835	0.03
810.007	0.15
810.18	-0.03
810.352	-0.55
810.524	-0.18
810.696	0.54
810.868	0.47
811.04	-0.17
811.212	-0.32
811.384	0.16
811.556	-0.37
811.728	0.11
811.901	0.45
812.073	-0.06
812.245	0.07
812.417	0.24
812.589	-0.51
812.76	0.07
812.932	0.13
813.104	0.29
813.276	-0.24
813.448	0.29
813.62	-0.04
813.792	-0.31
813.964	0.16
814.136	0.01
814.307	-0.31
814.479	-0.31
814.651	0
814.823	0.47
814.995	0.09
815.166	-0.28
815.338	-0.02
815.51	-0.5
815.681	0.58
815.853	-0.13
816.025	0.24
816.196	0.73
816.368	0.13
816.54	-0.29
816.711	-0.46
816.883	0.23
817.054	0.94
817.226	-0.87
817.398	-0.2
817.569	-0.59
817.741	0.06
817.912	-0.29
818.084	-0.25
818.255	0.01
818.426	-0.47
818.598	0.01
818.769	-0.2
818.941	0.2
819.112	0.75
819.283	0.18
819.455	-0.37
819.626	-0.06
819.798	0.35
819.969	-0.19
820.14	-0.33
820.311	-0.51
820.483	0.07
820.654	-0.14
820.825	0
820.996	-0.57
821.168	-0.33
821.339	0.02
821.51	-0.32
821.681	-0.27
821.852	0.2
822.023	-0.29
822.195	-0.5
822.366	0.06
822.537	-0.21
822.708	0
822.879	-0.39
823.05	0.22
823.221	-0.08
823.392	0.02
823.563	-0.11
823.734	-0.2
823.905	0.09
824.076	-0.39
824.247	-0.48
824.418	-0.02
824.589	0.42
824.759	-0.12
824.93	-0.26
825.101	-0.16
825.272	0.36
825.443	0.45
825.614	0.65
825.784	-0.79
825.955	0.51
826.126	0.39
826.297	-0.26
826.467	0.44
826.638	0.36
826.809	-0.91
826.98	-0.32
827.15	-0.17
827.321	-0.04
827.492	0.6
827.662	-0.13
827.833	0.79
828.003	0.45
828.174	-0.46
828.345	-0.91
828.515	0.71
828.686	-0.04
828.856	-0.01
829.027	-0.25
829.197	0.36
829.368	0.11
829.538	-0.18
829.709	-0.61
829.879	0.26
830.049	-0.23
830.22	-0.34
830.39	-0.08
830.56	0.39
830.731	-0.09
830.901	-0.43
831.072	0.35
831.242	-0.4
831.412	-0.04
831.582	0.01
831.753	-0.4
831.923	0.55
832.093	0.17
832.263	0.15
832.434	-0.7
832.604	-0.15
832.774	0.22
832.944	-0.54
833.114	-0.28
833.284	0.37
833.454	-0.3
833.624	-0.2
833.795	-0.27
833.965	0.04
834.135	0.62
834.305	-0.59
834.475	-0.8
834.645	-0.34
834.815	-0.16
834.985	-0.29
835.155	-0.4
835.325	0.33
835.494	0.6
835.664	-0.53
835.834	-1.16
836.004	-0.41
836.174	0.01
836.344	0.21
836.514	-0.64
836.684	-0.48
836.853	-0.58
837.023	0.32
837.193	-0.35
837.363	0.01
837.532	0.06
837.702	0.09
837.872	-0.33
838.041	0.63
838.211	1.13
838.381	-1.1
838.55	-0.18
838.72	1.83
838.89	0.88
839.059	-0.03
839.229	-0.81
839.398	0.79
839.568	-0.26
839.738	0.1
839.907	0.99
840.077	-0.09
840.246	-0.93
840.416	-1.26
840.585	-0.83
840.755	1.24
840.924	-0.07
841.093	-1.07
841.263	-0.63
841.432	0.4
841.602	-0.63
841.771	-0.55
841.94	-0.08
842.11	0.67
842.279	0.62
842.448	-0.75
842.617	-0.57
842.787	1.54
842.956	-1.08
843.125	-0.04
843.294	0.73
843.464	1.03
843.633	-0.22
843.802	-0.92
843.971	-0.49
844.14	0.67
844.309	0.32
844.479	-0.83
844.648	-0.42
844.817	-0.34
844.986	0.57
845.155	-1.29
845.324	-0.8
845.493	-0.1
845.662	-0.26
845.831	0.18
846	0.6
846.169	-0.36
846.338	1.34
846.507	-0.39
846.676	-0.63
846.844	-0.53
847.013	0.33
847.182	0.25
847.351	-0.08
847.52	0.34
847.689	0.44
847.858	0.22
848.026	-1.31
848.195	-0.94
848.364	-0.14
848.533	-0.8
848.701	-0.69
848.87	-0.16
849.039	1.47
849.207	1.29
849.376	0.2
849.545	0.68
849.713	-0.39
849.882	-0.21
850.051	-0.29
850.219	0.05
850.388	0.67
850.556	0.15
850.725	0.01
850.893	0.3
851.062	-0.38
851.23	0.44
851.399	-0.48
851.567	-0.9
851.736	-0.34
851.904	-1.34
852.073	-0.23
852.241	-0.16
852.41	0.52
852.578	-0.63
852.746	-0.11
852.915	0.86
853.083	-0.25
853.251	-1.56
853.42	-0.95
853.588	0.65
853.756	1.16
853.924	-0.24
854.093	-0.57
854.261	-0.45
854.429	-1.05
854.597	0.43
854.765	-0.91
854.934	-0.14
855.102	0.28
855.27	-0.69
855.438	0.99
855.606	0.55
855.774	1.05
855.942	-1.96
856.11	-2.28
856.278	-0.72
856.446	1.28
856.614	-0.38
856.782	-0.54
856.95	0.98
857.118	0.7
857.286	0.21
857.454	-1.22
857.622	-0.01
857.79	-0.2
857.958	-0.9
858.126	-1.21
858.294	-2.36
858.462	-1.46
858.629	0.16
858.797	-1.29
858.965	0.19
859.133	0.22
859.301	-0.8
859.468	0.53
859.636	-1.51
859.804	1.24
859.971	-0.03
860.139	-0.99
860.307	1.17
860.474	-0.38
860.642	0.15
860.81	-0.32
860.977	-1
861.145	0.91
861.313	-0.63
861.48	0.84
861.648	0.61
861.815	-1.22
861.983	-1.16
862.15	-0.61
862.318	0.62
862.485	1.14
862.653	-0.62
862.82	-0.28
862.988	1.02
863.155	0.41
863.322	-0.04
863.49	-0.8
863.657	-1.24
863.824	1.99
863.992	0.45
864.159	-0.6
864.326	0.37
864.494	-0.94
864.661	2.29
864.828	-1.96
864.996	-0.13
865.163	2
865.33	-1.08
865.497	-1.66
865.664	0.23
865.832	-2.13
865.999	-0.48
866.166	-1.64
866.333	-0.28
866.5	0.85
866.667	-0.44
866.834	-1.14
867.001	1.76
867.168	-1.49
867.335	-0.74
867.502	-0.48
867.669	-0.74
867.836	2.37
868.003	-0.95
868.17	0.52
868.337	0.73
868.504	1.5
868.671	-2.23
868.838	-1.59
869.005	-1.22
869.172	1.26
869.339	0.44
869.505	0.99
869.672	-0.87
869.839	1.56
870.006	-0.03
870.173	-1.48
870.339	-1.29
870.506	1.18
870.673	0.33
870.84	-0.96
871.006	0.51
871.173	0.22
871.34	-1.02
871.506	-2.54
871.673	0.97
871.839	-1.78
872.006	1
872.173	-0.46
872.339	-0.17
872.506	2
872.672	-0.62
872.839	-1
873.005	-0.03
873.172	2.4
873.338	1.87
873.505	-1.09
873.671	-0.39
873.838	0.83
874.004	-0.97
874.171	-0.6
874.337	0.02
874.503	1.01
874.67	0.5
874.836	-0.61
875.002	1.78
875.169	-0.77
875.335	-1.15
875.501	-0.72
875.668	0.37
875.834	-0.21
876	-1.09
876.166	0.96
876.332	0.09
876.499	2.24
876.665	-1.29
876.831	-1.22
876.997	2.67
877.163	0.86
877.329	-0.97
877.495	1.19
877.662	-0
877.828	0.62
877.994	0.18
878.16	-3.44
878.326	-0.59
878.492	1.07
878.658	1.11
878.824	2.73
878.99	1.06
879.156	0.26
879.322	2.11
879.487	1.57
879.653	-0.94
879.819	1.1
879.985	-3.18
880.151	-0.17
880.317	0.84
880.483	0.52
880.648	0.75
880.814	-2.58
880.98	0.49
881.146	-2.61
881.312	-0.4
881.477	-0.88
881.643	1.33
881.809	2.22
881.974	0.6
882.14	-3.16
882.306	0.98
882.471	2.32
882.637	-2.43
882.803	0.6
882.968	3.55
883.134	2.86
883.299	0.07
883.465	-0.26
883.63	1.73
883.796	-0.17
883.961	-0.15
884.127	1.24
884.292	-4.66
884.458	-2.27
884.623	-2.27
