Data from Apollo_Calib_20240827__AbsoluteIrradiance__606__09-15-00-979.txt Node

Date: Wed Aug 28 09:15:00 BST 2024
User: biology
Spectrometer: FLMT08252
Trigger mode: 0
Integration Time (sec): 5.000000E-1
Scans to average: 5
Electric dark correction enabled: true
Nonlinearity correction enabled: false
Boxcar width: 0
XAxis mode: Wavelengths
Number of Pixels in Spectrum: 3648
>>>>>Begin Spectral Data<<<<<
179.588	-0
179.809	-0
180.03	-0
180.251	-0
180.473	-0
180.694	0
180.915	0
181.136	-0
181.357	0
181.578	-0
181.799	-0
182.02	-0
182.241	0
182.462	-0
182.683	0
182.904	-0
183.125	-0
183.346	0
183.567	0
183.788	0
184.009	-0
184.23	0
184.451	0
184.672	-0
184.892	0
185.113	0
185.334	0
185.555	0
185.776	0
185.996	0
186.217	0
186.438	0
186.659	0
186.879	0
187.1	0
187.321	0
187.541	0
187.762	0
187.983	0
188.203	0
188.424	0
188.644	0
188.865	0
189.086	0
189.306	0
189.527	0
189.747	0
189.968	0
190.188	0
190.409	0
190.629	0
190.849	0
191.07	0
191.29	0
191.511	0
191.731	0
191.951	0
192.172	0
192.392	-0
192.612	0
192.833	0
193.053	0
193.273	0
193.493	0
193.714	0
193.934	0
194.154	0
194.374	0
194.594	0
194.815	0
195.035	0
195.255	0
195.475	0
195.695	0
195.915	0
196.135	0
196.355	0
196.575	0
196.795	0
197.015	0
197.235	0
197.455	0
197.675	0
197.895	0
198.115	0
198.335	0
198.555	0
198.775	0
198.995	0
199.214	0
199.434	0
199.654	0
199.874	0
200.094	1.41
200.313	-0.03
200.533	0.47
200.753	-0.03
200.973	1.52
201.192	1.3
201.412	0.1
201.632	0.29
201.851	2.14
202.071	0.14
202.291	0.3
202.51	-0.13
202.73	1.19
202.95	0.82
203.169	0.27
203.389	0.47
203.608	0.28
203.828	0.2
204.047	0.43
204.267	0.98
204.486	0.68
204.706	0.94
204.925	0.62
205.145	0.09
205.364	0.56
205.583	0.96
205.803	0.31
206.022	0.11
206.242	0.62
206.461	0.73
206.68	0.17
206.9	0.48
207.119	1.29
207.338	1.04
207.557	0.3
207.777	0.38
207.996	0.24
208.215	0.65
208.434	0.26
208.654	0.2
208.873	0.56
209.092	1.2
209.311	0.43
209.53	0.44
209.749	0.42
209.968	0.11
210.187	0.51
210.407	-0.09
210.626	0.15
210.845	0.78
211.064	0.3
211.283	0.13
211.502	0.47
211.721	0.34
211.94	0.31
212.159	0.5
212.377	0.52
212.596	0.69
212.815	0.33
213.034	0.45
213.253	0.48
213.472	0.65
213.691	0.12
213.91	0.19
214.128	0.36
214.347	0.54
214.566	-0.07
214.785	0.13
215.003	0.38
215.222	0.36
215.441	0.36
215.66	-0.01
215.878	0.13
216.097	0.57
216.316	0.21
216.534	0.2
216.753	0.31
216.972	0.33
217.19	0.2
217.409	0.09
217.627	0.27
217.846	0.15
218.064	0.42
218.283	0.13
218.501	0.73
218.72	0.41
218.938	0.06
219.157	0.2
219.375	0.4
219.594	0.24
219.812	0.03
220.031	0.05
220.249	0.5
220.467	0.56
220.686	0.24
220.904	0.01
221.122	0.01
221.341	0.55
221.559	0.36
221.777	0.03
221.995	0.27
222.214	0.42
222.432	0.18
222.65	0.2
222.868	0.25
223.086	0.34
223.305	0.33
223.523	0.15
223.741	0.47
223.959	-0.04
224.177	-0.11
224.395	0.08
224.613	0.3
224.831	0.2
225.049	0.08
225.267	0.24
225.485	0.13
225.703	0.13
225.921	0.16
226.139	0.07
226.357	0.28
226.575	0.21
226.793	0.11
227.011	0.72
227.229	0.27
227.447	0.33
227.665	0.13
227.883	-0.13
228.1	0.16
228.318	0.22
228.536	0.04
228.754	0.09
228.972	0.32
229.189	0.33
229.407	0.09
229.625	0.1
229.843	0.38
230.06	0.28
230.278	0.02
230.496	0.14
230.713	0.19
230.931	0.41
231.149	0.12
231.366	-0.01
231.584	0.16
231.801	0.51
232.019	0.05
232.236	-0.02
232.454	0.02
232.671	0.26
232.889	0.15
233.106	-0.01
233.324	0.09
233.541	0.13
233.759	0.07
233.976	0.09
234.194	0.2
234.411	0.2
234.628	0.09
234.846	0.08
235.063	0.09
235.28	0.22
235.498	0.15
235.715	0.14
235.932	0.22
236.149	0.16
236.367	0.15
236.584	0.19
236.801	0.14
237.018	0.35
237.236	0.11
237.453	-0.02
237.67	0.21
237.887	0.19
238.104	0.19
238.321	0.07
238.538	0.08
238.755	0.26
238.973	0.1
239.19	0.17
239.407	0.17
239.624	0.19
239.841	-0.03
240.058	0.09
240.275	0.16
240.492	0.11
240.709	0.16
240.925	0.09
241.142	0.11
241.359	-0.05
241.576	0.07
241.793	0.14
242.01	0.2
242.227	0.16
242.444	0.18
242.66	0.18
242.877	0.12
243.094	0.04
243.311	0.21
243.527	0.04
243.744	0.18
243.961	0.12
244.178	0.13
244.394	0.1
244.611	0.25
244.828	0.28
245.044	0.04
245.261	0.07
245.477	0.11
245.694	0.13
245.911	0.09
246.127	0.13
246.344	0.25
246.56	0.22
246.777	0.17
246.993	0.11
247.21	0.23
247.426	0.19
247.643	0.13
247.859	0.07
248.076	0.03
248.292	0.31
248.508	0.03
248.725	0.12
248.941	0.24
249.157	0.16
249.374	0.11
249.59	0.07
249.806	0.1
250.023	0.21
250.239	0.06
250.455	0.15
250.671	0.23
250.888	0.17
251.104	0.19
251.32	0.12
251.536	0.1
251.752	0.13
251.969	0.15
252.185	0.16
252.401	0.37
252.617	0.17
252.833	0.07
253.049	0.12
253.265	0.13
253.481	0.17
253.697	0.06
253.913	0.09
254.129	0.09
254.345	0.13
254.561	0.09
254.777	0.1
254.993	0.24
255.209	0.13
255.425	0.04
255.641	0.04
255.857	0.27
256.073	0.13
256.288	0.02
256.504	0.11
256.72	0.16
256.936	0.26
257.152	0.08
257.367	0.02
257.583	0.17
257.799	0.19
258.015	0.04
258.23	0.03
258.446	0.21
258.662	0.15
258.877	0.01
259.093	0.02
259.309	0.09
259.524	0.13
259.74	0.07
259.955	-0.01
260.171	0.11
260.387	0.12
260.602	0.14
260.818	0.21
261.033	0.04
261.249	0.1
261.464	0.04
261.68	0.01
261.895	0.12
262.11	0.18
262.326	0.09
262.541	-0.02
262.757	0.21
262.972	0.19
263.187	0.15
263.403	0.11
263.618	0.19
263.833	0.1
264.049	0.04
264.264	0.12
264.479	0.08
264.694	0.15
264.91	-0.05
265.125	0.12
265.34	0.14
265.555	0.21
265.77	0.16
265.986	0.08
266.201	0.15
266.416	0.19
266.631	0.04
266.846	0.1
267.061	0.11
267.276	0.14
267.491	-0.02
267.706	0.09
267.921	0.16
268.136	0.12
268.351	0.09
268.566	-0.01
268.781	0.14
268.996	0.17
269.211	0.13
269.426	0.02
269.641	0.05
269.856	0.15
270.071	0.07
270.285	-0
270.5	0.16
270.715	0.13
270.93	0.06
271.145	0.07
271.359	0.12
271.574	0.04
271.789	0.04
272.004	0.07
272.218	0.11
272.433	0.13
272.648	0.01
272.862	0.2
273.077	0.11
273.292	0.1
273.506	0.03
273.721	0.05
273.936	0.08
274.15	0.08
274.365	0.07
274.579	0.07
274.794	0.07
275.008	0.13
275.223	0.05
275.437	0.09
275.652	0.21
275.866	0.12
276.081	0.1
276.295	0.16
276.509	0.06
276.724	0.13
276.938	0.11
277.153	0.1
277.367	0.13
277.581	0.1
277.796	0.09
278.01	0.04
278.224	0.17
278.438	0.22
278.653	0.02
278.867	0.09
279.081	0.08
279.295	0.01
279.51	0.1
279.724	-0.02
279.938	0.13
280.152	0.08
280.366	0.02
280.58	0.1
280.794	0.2
281.008	0.1
281.222	0.12
281.437	0.19
281.651	0.12
281.865	0.18
282.079	0.08
282.293	-0.04
282.507	0.06
282.721	0.11
282.935	0.05
283.148	0
283.362	0.02
283.576	-0.01
283.79	0.07
284.004	-0
284.218	0.17
284.432	0.01
284.646	0.09
284.859	0.03
285.073	0.05
285.287	0.08
285.501	0.07
285.714	0.09
285.928	0.1
286.142	0.08
286.356	0.06
286.569	0.07
286.783	0.16
286.997	0.11
287.21	0.1
287.424	0.1
287.637	-0
287.851	0.09
288.065	0.07
288.278	0.02
288.492	0.1
288.705	0.08
288.919	0.09
289.132	0.01
289.346	0.17
289.559	0.03
289.773	-0.02
289.986	0.04
290.2	0.06
290.413	0.16
290.626	0.02
290.84	0.06
291.053	0.05
291.267	0.15
291.48	0.09
291.693	0.09
291.906	0.06
292.12	0.07
292.333	0.04
292.546	0.06
292.76	0.14
292.973	0.12
293.186	0.09
293.399	0.05
293.612	0.15
293.826	0.09
294.039	0.09
294.252	0.05
294.465	0.1
294.678	0.12
294.891	0.09
295.104	0.06
295.317	0.06
295.53	0.05
295.743	0.02
295.956	0.06
296.169	0.15
296.382	0.1
296.595	0.01
296.808	0.02
297.021	0.11
297.234	0.09
297.447	0.08
297.66	0.04
297.873	0.14
298.086	0.11
298.299	0.04
298.511	-0.01
298.724	0.06
298.937	0.02
299.15	0.05
299.363	0.08
299.575	0.1
299.788	0.05
300.001	0.07
300.213	0.05
300.426	0.03
300.639	0.04
300.852	0.04
301.064	0.1
301.277	0.11
301.489	0.09
301.702	0.11
301.915	0.13
302.127	0.06
302.34	0.08
302.552	0.1
302.765	0.07
302.977	0.1
303.19	0.06
303.402	0.05
303.615	0.04
303.827	0.08
304.04	0.1
304.252	0.1
304.464	0.08
304.677	0.15
304.889	0.05
305.102	0
305.314	0.07
305.526	0.11
305.739	0.16
305.951	-0.01
306.163	0.06
306.375	0.11
306.588	0.07
306.8	0.05
307.012	-0.01
307.224	0.08
307.436	0.1
307.649	-0.01
307.861	0.1
308.073	0.14
308.285	0.07
308.497	0.02
308.709	0.04
308.921	0.11
309.133	0.14
309.346	0.06
309.558	0.06
309.77	0.1
309.982	0.11
310.194	0.1
310.406	0.02
310.617	0.09
310.829	0.1
311.041	0.16
311.253	-0.01
311.465	0.05
311.677	0.06
311.889	0.07
312.101	0.03
312.313	0.11
312.524	0.12
312.736	-0
312.948	0.06
313.16	0.13
313.372	0.06
313.583	0.11
313.795	0.07
314.007	0.02
314.218	0.08
314.43	0.06
314.642	0.08
314.853	0.03
315.065	0.12
315.277	0.04
315.488	0.11
315.7	0.09
315.912	0.04
316.123	0.09
316.335	0.06
316.546	0.18
316.758	0.07
316.969	0.04
317.181	0.03
317.392	0.03
317.604	0.09
317.815	0.04
318.026	0.05
318.238	0.04
318.449	0.07
318.661	0.01
318.872	0.02
319.083	0.05
319.295	0.09
319.506	0.05
319.717	0.09
319.929	0.11
320.14	0.03
320.351	0.06
320.562	-0.02
320.774	0.07
320.985	0.09
321.196	0.01
321.407	-0.03
321.618	0.08
321.829	0.05
322.041	0.1
322.252	0.06
322.463	0.07
322.674	0.1
322.885	0.02
323.096	0.04
323.307	0.05
323.518	0.04
323.729	0.05
323.94	0.05
324.151	0.03
324.362	0.09
324.573	0.06
324.784	-0.01
324.995	0.08
325.206	0.07
325.417	0.03
325.628	0.02
325.838	0.03
326.049	0.07
326.26	0.06
326.471	0.05
326.682	0.11
326.892	0.06
327.103	-0.01
327.314	0.01
327.525	0.13
327.735	0.09
327.946	0.03
328.157	0.06
328.368	0.09
328.578	0.05
328.789	0.11
328.999	0.06
329.21	0.02
329.421	0.14
329.631	0.02
329.842	0.02
330.052	0.05
330.263	0.06
330.473	0.11
330.684	0.02
330.894	0.04
331.105	0.06
331.315	0.05
331.526	-0.01
331.736	0.11
331.947	0.07
332.157	0.06
332.367	0.03
332.578	0.08
332.788	0.04
332.999	0.11
333.209	0.11
333.419	0.01
333.629	0.08
333.84	0.09
334.05	0.03
334.26	0.12
334.47	0.08
334.681	0.12
334.891	0.06
335.101	0.1
335.311	0.17
335.521	0.08
335.732	0.01
335.942	0.14
336.152	0.08
336.362	0.11
336.572	0.06
336.782	0.1
336.992	0.07
337.202	0.03
337.412	0.05
337.622	0.07
337.832	0.05
338.042	0.07
338.252	0.05
338.462	0.05
338.672	0.08
338.882	0.07
339.092	0.08
339.302	0.13
339.511	0.06
339.721	0.04
339.931	0.03
340.141	0.13
340.351	0.11
340.561	0.03
340.77	0.09
340.98	0.07
341.19	0.09
341.4	0.02
341.609	0.06
341.819	0.01
342.029	0.05
342.238	0.04
342.448	0.04
342.658	0.1
342.867	0.08
343.077	0.07
343.286	0.07
343.496	0.04
343.706	0.09
343.915	0.01
344.125	0.08
344.334	0.1
344.544	0.04
344.753	0.04
344.963	0.04
345.172	0.08
345.381	0.04
345.591	0.01
345.8	0.06
346.01	0.09
346.219	0.09
346.428	-0.08
346.638	0.02
346.847	0.06
347.056	0.13
347.266	0.02
347.475	0.05
347.684	0.1
347.893	0.1
348.103	0.06
348.312	0.06
348.521	0.04
348.73	0.07
348.94	0.04
349.149	0.03
349.358	0.04
349.567	0.01
349.776	0.01
349.985	0.02
350.194	0.1
350.403	0.11
350.612	0.01
350.821	0.05
351.03	0.04
351.239	-0
351.448	0.03
351.657	0.04
351.866	0.12
352.075	0.04
352.284	0.07
352.493	0.03
352.702	0.12
352.911	0.07
353.12	0.06
353.329	0.08
353.538	0.13
353.746	0.08
353.955	0.02
354.164	0.07
354.373	0.06
354.582	0.08
354.79	0.05
354.999	0.11
355.208	0.05
355.416	0.11
355.625	0.05
355.834	0.07
356.042	0.1
356.251	0.08
356.46	-0.01
356.668	0.06
356.877	0.13
357.085	0.1
357.294	-0.04
357.503	0.07
357.711	0.06
357.92	0.17
358.128	0.08
358.337	0.06
358.545	0.03
358.754	0.04
358.962	0.06
359.17	0.05
359.379	0.07
359.587	0.1
359.796	0.04
360.004	0.07
360.212	0.07
360.421	0.11
360.629	0.05
360.837	0.03
361.046	0.07
361.254	0.15
361.462	0.04
361.67	0.06
361.879	0.08
362.087	0.13
362.295	0.04
362.503	0.06
362.711	0.04
362.92	0.04
363.128	0.03
363.336	0.05
363.544	-0
363.752	0.03
363.96	0.02
364.168	0.05
364.376	0.08
364.584	0.08
364.792	0.1
365	0.09
365.208	0.05
365.416	0.08
365.624	0.1
365.832	0.05
366.04	0.14
366.248	0.11
366.456	0.06
366.664	0.06
366.872	0.05
367.079	0.1
367.287	0.04
367.495	0.08
367.703	0.06
367.911	0.03
368.118	0.07
368.326	0.04
368.534	0.03
368.742	0.12
368.949	-0.02
369.157	0.03
369.365	0.05
369.572	0.03
369.78	0
369.988	0.09
370.195	0.1
370.403	0.06
370.61	0.06
370.818	0.06
371.026	0.13
371.233	0.05
371.441	0.06
371.648	0.02
371.856	0.03
372.063	0.08
372.271	0.03
372.478	0.01
372.685	0.05
372.893	0.09
373.1	0.03
373.308	0.04
373.515	0.12
373.722	0.07
373.93	0.09
374.137	0.05
374.344	0.12
374.552	0.11
374.759	0.12
374.966	0.05
375.173	0.02
375.381	0.08
375.588	0.03
375.795	-0
376.002	0.02
376.209	-0.01
376.417	0.03
376.624	0.03
376.831	0.08
377.038	0.03
377.245	-0
377.452	0.02
377.659	0.06
377.866	0.02
378.073	0.03
378.28	0.08
378.487	0.12
378.694	0.04
378.901	0.04
379.108	-0
379.315	0.06
379.522	0.11
379.729	0.07
379.936	0.02
380.143	0.08
380.35	0.1
380.557	0.03
380.763	0.08
380.97	0.04
381.177	0.07
381.384	0.09
381.591	0.03
381.797	0.04
382.004	0.08
382.211	0.08
382.418	0.01
382.624	0.11
382.831	0.07
383.038	0.05
383.244	0.05
383.451	0.05
383.658	0.06
383.864	0.09
384.071	0.05
384.277	0.04
384.484	0.04
384.69	0.12
384.897	0.05
385.103	0.02
385.31	0.01
385.516	0.03
385.723	0.05
385.929	0.06
386.136	0.02
386.342	0.07
386.549	0.03
386.755	0.11
386.961	0.06
387.168	0.02
387.374	0.05
387.58	0.06
387.787	0.05
387.993	0.05
388.199	0.03
388.406	0.03
388.612	0.03
388.818	0.08
389.024	0.04
389.231	0.08
389.437	0.1
389.643	0.09
389.849	0.04
390.055	0.07
390.261	0.06
390.467	0.07
390.674	0
390.88	0.04
391.086	0.02
391.292	0.02
391.498	0.07
391.704	0.09
391.91	0.05
392.116	0.03
392.322	-0.05
392.528	0.11
392.734	0.06
392.94	0.06
393.146	0.01
393.352	0.04
393.557	0.05
393.763	0.04
393.969	0.06
394.175	0.05
394.381	0.1
394.587	-0
394.792	0.02
394.998	0.12
395.204	0.12
395.41	0.06
395.615	0.07
395.821	0.07
396.027	0.09
396.233	0.01
396.438	0.03
396.644	0.15
396.85	0.08
397.055	0.03
397.261	0.08
397.466	0.14
397.672	0.04
397.878	0.11
398.083	0.07
398.289	0.06
398.494	0.09
398.7	0.08
398.905	-0.02
399.111	0.09
399.316	-0.01
399.522	0.06
399.727	0.04
399.932	0.03
400.138	0.03
400.343	0.06
400.549	0.05
400.754	0.07
400.959	0.09
401.165	0.06
401.37	0.07
401.575	0.12
401.78	0.06
401.986	0.03
402.191	0.03
402.396	0.04
402.601	0.11
402.807	0.04
403.012	0.02
403.217	0.11
403.422	0.05
403.627	0.03
403.832	0.04
404.037	0.07
404.243	0.06
404.448	0
404.653	0.06
404.858	0.04
405.063	0.07
405.268	0.06
405.473	0.02
405.678	-0
405.883	0.18
406.088	0.08
406.293	-0.01
406.498	-0.01
406.703	0.13
406.907	0.03
407.112	0.03
407.317	0.05
407.522	0.1
407.727	-0.04
407.932	0.07
408.136	0.15
408.341	0.05
408.546	0.02
408.751	0.04
408.956	0.03
409.16	0.1
409.365	0.07
409.57	0.04
409.774	0.06
409.979	0.09
410.184	0.11
410.388	0.01
410.593	0.1
410.798	0.07
411.002	0.05
411.207	0.09
411.411	0.05
411.616	-0.02
411.82	0.04
412.025	0.07
412.229	0.02
412.434	0.08
412.638	0.13
412.843	0.03
413.047	0.08
413.252	0.03
413.456	0.04
413.66	0.1
413.865	0.02
414.069	0.09
414.273	0.05
414.478	0.08
414.682	0.05
414.886	0.02
415.091	-0.01
415.295	-0.01
415.499	0.04
415.703	0.04
415.908	0.07
416.112	-0.06
416.316	0.05
416.52	0.03
416.724	0.01
416.929	0.04
417.133	0.16
417.337	0.04
417.541	-0.02
417.745	0.02
417.949	0.07
418.153	0.09
418.357	-0.01
418.561	0.15
418.765	0.05
418.969	0.15
419.173	0.07
419.377	0.02
419.581	0.11
419.785	0.02
419.989	0.04
420.193	-0
420.397	0.03
420.601	0.15
420.804	0.05
421.008	0.04
421.212	0.06
421.416	0.06
421.62	0.04
421.823	0.01
422.027	0.17
422.231	0.11
422.435	0.03
422.638	0.06
422.842	-0.01
423.046	0.02
423.249	0.05
423.453	0.09
423.657	0.08
423.86	0.04
424.064	0.06
424.268	0.11
424.471	0.1
424.675	0.12
424.878	0.12
425.082	0.07
425.285	0.1
425.489	0
425.692	0.02
425.896	0.05
426.099	0.1
426.303	0.05
426.506	-0.01
426.71	0.12
426.913	0.13
427.116	0.13
427.32	0.04
427.523	0.08
427.726	0.15
427.93	0.07
428.133	0.05
428.336	-0
428.54	0.05
428.743	0.06
428.946	0.05
429.149	0.03
429.353	0.03
429.556	0.1
429.759	0.05
429.962	0.05
430.165	0.05
430.368	0.07
430.571	0
430.775	0.07
430.978	0.03
431.181	0.1
431.384	0.08
431.587	0.08
431.79	0.04
431.993	-0.02
432.196	0.06
432.399	0.08
432.602	0.14
432.805	0.04
433.008	0.03
433.211	-0.02
433.414	0.09
433.616	0.06
433.819	0.05
434.022	-0.05
434.225	0.1
434.428	0.1
434.631	0.2
434.833	0.08
435.036	0.04
435.239	0.07
435.442	0.04
435.645	-0
435.847	0.07
436.05	0.1
436.253	0.1
436.455	0.04
436.658	0.08
436.861	0.11
437.063	0.08
437.266	0.07
437.468	0.07
437.671	0.19
437.874	0.07
438.076	-0
438.279	-0.02
438.481	0.03
438.684	0.06
438.886	0.08
439.089	-0.02
439.291	0.08
439.494	0.08
439.696	0.03
439.899	0.02
440.101	0.11
440.303	0.04
440.506	0.11
440.708	0.06
440.91	0.13
441.113	0.03
441.315	0.09
441.517	0.04
441.72	0.07
441.922	0.05
442.124	0.06
442.326	0.08
442.529	0.11
442.731	0.03
442.933	0.19
443.135	0
443.337	0.05
443.539	0.01
443.742	0.07
443.944	0.09
444.146	0.02
444.348	0.01
444.55	0.02
444.752	0.09
444.954	0.02
445.156	0.05
445.358	0
445.56	0.15
445.762	0.03
445.964	0.05
446.166	0.03
446.368	0.01
446.57	0.14
446.772	0.04
446.974	0.01
447.175	0.11
447.377	0.01
447.579	0.01
447.781	-0.04
447.983	0.1
448.184	0.09
448.386	0.07
448.588	-0.02
448.79	0.08
448.991	0.03
449.193	0.07
449.395	0.04
449.597	0.11
449.798	0.11
450	0.05
450.202	0.05
450.403	0.08
450.605	0.11
450.806	0.03
451.008	-0.02
451.21	0.05
451.411	0.05
451.613	0.03
451.814	0.09
452.016	0.09
452.217	0.07
452.419	0.11
452.62	0.03
452.821	0.06
453.023	0.15
453.224	0.09
453.426	0.03
453.627	0.05
453.828	0.11
454.03	0.06
454.231	0.08
454.432	0.07
454.634	0.11
454.835	-0.01
455.036	-0.04
455.238	0.1
455.439	0.13
455.64	-0.03
455.841	0.01
456.042	0.15
456.244	0.09
456.445	0.02
456.646	-0.02
456.847	0.02
457.048	0.09
457.249	0.11
457.45	0.29
457.651	-0
457.852	0.13
458.054	0.08
458.255	0.05
458.456	0.04
458.657	0.03
458.858	0.05
459.058	0.04
459.259	0.12
459.46	0.07
459.661	0.01
459.862	0.13
460.063	0.06
460.264	0.12
460.465	-0.02
460.666	0.14
460.866	0.07
461.067	0.1
461.268	0.05
461.469	0.03
461.67	0.08
461.87	0.06
462.071	0.03
462.272	0.04
462.473	0.04
462.673	0.1
462.874	-0.01
463.075	0.05
463.275	0.05
463.476	0.08
463.676	0.1
463.877	0.06
464.078	0.01
464.278	0.05
464.479	0.02
464.679	0.05
464.88	0.06
465.08	0.15
465.281	0.05
465.481	0.03
465.682	0.03
465.882	0.08
466.083	0.02
466.283	0.04
466.483	0.06
466.684	0
466.884	0.03
467.085	0.05
467.285	0.12
467.485	-0.01
467.686	0.09
467.886	0.01
468.086	0.03
468.286	0.07
468.487	0.07
468.687	0.03
468.887	0.07
469.087	0.1
469.287	0.05
469.488	-0.03
469.688	0.08
469.888	0.1
470.088	0.06
470.288	0.08
470.488	0.07
470.688	0.01
470.888	0.03
471.088	0.03
471.288	0.14
471.488	0.09
471.688	0.05
471.888	0.03
472.088	0.1
472.288	0.08
472.488	0.04
472.688	0.04
472.888	0.08
473.088	0.05
473.288	0.05
473.488	0.04
473.688	0.14
473.887	0.07
474.087	0.03
474.287	0.06
474.487	0
474.687	0.09
474.886	0.02
475.086	0.07
475.286	0.05
475.486	0.07
475.685	0.07
475.885	0.03
476.085	0.05
476.284	0.05
476.484	0.07
476.684	0.06
476.883	0.12
477.083	0.08
477.282	0.01
477.482	0.1
477.681	0.08
477.881	0.02
478.08	0.02
478.28	0.02
478.479	0.05
478.679	0.13
478.878	0.03
479.078	0
479.277	0.05
479.477	0.04
479.676	0.1
479.875	0.05
480.075	-0.01
480.274	0.06
480.473	0.08
480.673	0.02
480.872	0.06
481.071	0.04
481.271	0.08
481.47	0.05
481.669	0.04
481.868	0.01
482.067	-0
482.267	-0
482.466	0.01
482.665	-0.01
482.864	0.01
483.063	-0.02
483.262	0.05
483.461	0.1
483.661	0.06
483.86	0.02
484.059	0.06
484.258	0.03
484.457	0.03
484.656	0.04
484.855	0.04
485.054	-0.01
485.253	-0
485.452	0.02
485.651	0.04
485.849	0.01
486.048	0.01
486.247	0.02
486.446	0.04
486.645	-0.03
486.844	0
487.043	0.05
487.241	0.06
487.44	0.02
487.639	0.02
487.838	0.04
488.037	0.02
488.235	0.08
488.434	0.04
488.633	0.02
488.831	0.04
489.03	0.06
489.229	0.04
489.427	0.04
489.626	0.06
489.825	0.07
490.023	0.02
490.222	0.02
490.42	0.05
490.619	0.06
490.817	0.04
491.016	0.02
491.214	0.07
491.413	0.02
491.611	0.01
491.81	0.03
492.008	0.05
492.207	0.05
492.405	0.04
492.604	-0.04
492.802	0.03
493	0.01
493.199	0.03
493.397	0.03
493.595	0.02
493.794	0.02
493.992	0.08
494.19	0.04
494.388	0.06
494.587	0
494.785	0.04
494.983	-0
495.181	0.04
495.379	0.04
495.578	0.03
495.776	0.04
495.974	0.02
496.172	0.03
496.37	0.01
496.568	-0.01
496.766	0.01
496.964	0.04
497.162	0.04
497.36	-0
497.558	0.05
497.756	0.05
497.954	0.04
498.152	0.01
498.35	0.02
498.548	0.04
498.746	0.03
498.944	-0
499.142	0.01
499.34	0.01
499.538	0.03
499.736	-0.02
499.933	0.06
500.131	0.05
500.329	0.05
500.527	0.06
500.725	0.05
500.922	0.03
501.12	0.05
501.318	0.04
501.516	-0
501.713	0.03
501.911	0.02
502.109	0.01
502.306	0.05
502.504	0.05
502.701	0.01
502.899	0.01
503.097	0.08
503.294	0.06
503.492	0.04
503.689	0.05
503.887	0.06
504.084	0.07
504.282	0.02
504.479	-0.01
504.677	0.03
504.874	0
505.072	0.03
505.269	0.02
505.466	0.06
505.664	0.04
505.861	0.01
506.059	0.01
506.256	0.05
506.453	0
506.651	0.08
506.848	0.05
507.045	0.06
507.242	0.01
507.44	0.03
507.637	0.03
507.834	0.03
508.031	0.04
508.229	0
508.426	0.03
508.623	0.04
508.82	0.03
509.017	0.01
509.214	0.01
509.411	0.03
509.608	-0
509.805	0.04
510.003	0.01
510.2	0
510.397	0.03
510.594	0.02
510.791	0.01
510.988	-0
511.184	0.07
511.381	0.02
511.578	0.02
511.775	0.06
511.972	-0.01
512.169	0.02
512.366	0.02
512.563	0.03
512.76	0
512.956	0.03
513.153	0.03
513.35	0.03
513.547	0.01
513.744	0.01
513.94	-0
514.137	0.05
514.334	0.04
514.53	0.03
514.727	0.02
514.924	0.07
515.12	0.01
515.317	-0.01
515.514	0.01
515.71	0.01
515.907	0.03
516.103	0.03
516.3	0.04
516.497	0.05
516.693	0.06
516.89	0.03
517.086	0.01
517.283	0.06
517.479	0.03
517.676	0.02
517.872	0.02
518.068	0.02
518.265	0.02
518.461	0.01
518.658	0.01
518.854	0.05
519.05	0.03
519.247	0.01
519.443	0.05
519.639	0.04
519.836	0.02
520.032	0.04
520.228	0.04
520.424	0.06
520.621	0.04
520.817	0.03
521.013	0.02
521.209	0.03
521.405	0.06
521.601	0.04
521.798	0.04
521.994	0.06
522.19	0.03
522.386	-0.01
522.582	0.03
522.778	0.03
522.974	0.02
523.17	0.04
523.366	0.03
523.562	0.06
523.758	0.03
523.954	0.02
524.15	-0
524.346	0.04
524.542	0.03
524.738	0.01
524.934	0.03
525.129	-0.05
525.325	0.04
525.521	0.03
525.717	0.05
525.913	0.03
526.109	0.03
526.304	0.02
526.5	0.04
526.696	0.07
526.892	0.03
527.087	0.05
527.283	0.01
527.479	0.05
527.674	0.01
527.87	0.02
528.066	0.02
528.261	0.04
528.457	0.06
528.653	0.04
528.848	0.03
529.044	0.03
529.239	0.02
529.435	0.03
529.63	0.05
529.826	0.07
530.021	0.04
530.217	0.04
530.412	0.02
530.608	0.01
530.803	0.03
530.999	0.05
531.194	-0.02
531.389	0.03
531.585	-0.01
531.78	0.02
531.975	0.03
532.171	0.05
532.366	0.02
532.561	0.03
532.757	0.01
532.952	0.03
533.147	0.08
533.342	0.03
533.538	0.04
533.733	0.05
533.928	0.03
534.123	0.02
534.318	-0.01
534.513	0.02
534.709	0.04
534.904	0.01
535.099	0.04
535.294	0.04
535.489	0.03
535.684	0
535.879	0.01
536.074	0.02
536.269	0.01
536.464	0.06
536.659	0.02
536.854	0.03
537.049	0.04
537.244	0.03
537.439	0.03
537.634	0.06
537.828	0.02
538.023	0.02
538.218	0
538.413	0.04
538.608	0.01
538.803	0.04
538.997	0.02
539.192	0.05
539.387	0.04
539.582	0.04
539.776	0.04
539.971	0.01
540.166	0.02
540.36	-0.01
540.555	0.04
540.75	0.02
540.944	0.03
541.139	0
541.334	0.02
541.528	0.05
541.723	0.06
541.917	0.04
542.112	0
542.306	0.02
542.501	0.05
542.695	0.05
542.89	0.03
543.084	0.03
543.279	0.03
543.473	0.03
543.668	0.02
543.862	0.01
544.056	0.03
544.251	0.06
544.445	0.04
544.64	0.03
544.834	-0.01
545.028	0.05
545.222	0.04
545.417	0.03
545.611	0.04
545.805	0.03
546	0.02
546.194	0.03
546.388	0.02
546.582	0.05
546.776	0.04
546.97	0.03
547.165	0.03
547.359	0.07
547.553	0.03
547.747	0.04
547.941	0.04
548.135	0.01
548.329	0.07
548.523	0.05
548.717	0.01
548.911	0
549.105	0.04
549.299	0.04
549.493	0.02
549.687	0.07
549.881	0.04
550.075	0.03
550.269	0.01
550.463	0.04
550.657	0.02
550.85	0.02
551.044	0.03
551.238	0.05
551.432	0.01
551.626	0.01
551.82	0.05
552.013	0.02
552.207	0.05
552.401	0.05
552.594	0.03
552.788	0.01
552.982	0.03
553.176	0.01
553.369	0.04
553.563	0.05
553.756	0.01
553.95	0.03
554.144	0.01
554.337	0.07
554.531	0.04
554.724	0.04
554.918	-0
555.111	0.04
555.305	0.04
555.498	0.08
555.692	0.08
555.885	0.02
556.079	0.03
556.272	0.03
556.466	0.05
556.659	0.04
556.852	0.03
557.046	0.05
557.239	0.03
557.432	0.01
557.626	0.01
557.819	0.04
558.012	0.04
558.206	0.05
558.399	0.05
558.592	0.04
558.785	0.01
558.979	0.06
559.172	0.06
559.365	0.09
559.558	0.03
559.751	0.04
559.944	0.03
560.138	0.03
560.331	0.03
560.524	0
560.717	0.04
560.91	0.06
561.103	0.08
561.296	0.04
561.489	0.04
561.682	0.04
561.875	0.07
562.068	0.04
562.261	0.06
562.454	0.06
562.647	0.08
562.84	0.07
563.032	0.03
563.225	0.07
563.418	0.05
563.611	0.01
563.804	0.06
563.997	0.03
564.19	0.01
564.382	0.02
564.575	0.03
564.768	0.04
564.961	0.03
565.153	0.02
565.346	0.07
565.539	0.06
565.731	0.06
565.924	0.08
566.117	0.07
566.309	0.05
566.502	0.03
566.695	0.04
566.887	0.05
567.08	0.03
567.272	0.05
567.465	0.03
567.657	0.07
567.85	0.05
568.042	0.06
568.235	0.08
568.427	0.05
568.62	0.04
568.812	0.06
569.005	0.05
569.197	0.02
569.389	0.06
569.582	0.06
569.774	0.05
569.966	0.04
570.159	0.03
570.351	0.08
570.543	0.04
570.736	0.04
570.928	0
571.12	0.08
571.312	0.03
571.505	0.02
571.697	0.08
571.889	0.02
572.081	0.03
572.273	0.04
572.465	0.08
572.658	0.03
572.85	0.05
573.042	0.03
573.234	0.04
573.426	0.08
573.618	0.02
573.81	0.09
574.002	0.08
574.194	0.07
574.386	0.03
574.578	-0
574.77	0.04
574.962	0.04
575.154	0.01
575.346	0.03
575.538	0.08
575.729	0.04
575.921	0.05
576.113	0.05
576.305	0.05
576.497	0.02
576.689	0.05
576.88	0.03
577.072	0.07
577.264	0.03
577.456	0.06
577.647	0.02
577.839	0.08
578.031	0.09
578.223	0.02
578.414	0.04
578.606	0.07
578.798	0.03
578.989	0.05
579.181	0.09
579.372	0.06
579.564	0.06
579.755	0.06
579.947	0.08
580.139	0.08
580.33	0.01
580.522	0.03
580.713	0
580.905	0.05
581.096	0.07
581.287	0.05
581.479	0.05
581.67	0.07
581.862	0.05
582.053	0.06
582.244	0.01
582.436	0.08
582.627	0.06
582.818	0.05
583.01	0.01
583.201	0.09
583.392	0.09
583.583	0.07
583.775	0.05
583.966	0.04
584.157	0.06
584.348	0.04
584.54	0.01
584.731	0.11
584.922	0.07
585.113	0.01
585.304	0.08
585.495	0.11
585.686	0.08
585.877	0.08
586.068	0.1
586.259	0.08
586.45	0.08
586.641	0.07
586.832	0.04
587.023	0.08
587.214	0.08
587.405	0.08
587.596	0.06
587.787	0.12
587.978	0.1
588.169	0.04
588.36	0.08
588.551	0.1
588.742	0.1
588.932	0.11
589.123	0.08
589.314	0.11
589.505	0.12
589.696	0.08
589.886	0.08
590.077	0.07
590.268	0.11
590.458	0.05
590.649	0.03
590.84	0.09
591.03	0.06
591.221	0.06
591.412	0.06
591.602	0.11
591.793	0.13
591.984	0.06
592.174	0.08
592.365	0.14
592.555	0.06
592.746	0.12
592.936	0.12
593.127	0.1
593.317	0.16
593.508	0.1
593.698	0.08
593.889	0.11
594.079	0.09
594.269	0.08
594.46	0.09
594.65	0.09
594.84	0.11
595.031	0.09
595.221	0.09
595.411	0.08
595.602	0.15
595.792	0.07
595.982	0.1
596.172	0.17
596.363	0.13
596.553	0.12
596.743	0.14
596.933	0.13
597.123	0.16
597.314	0.13
597.504	0.13
597.694	0.16
597.884	0.17
598.074	0.12
598.264	0.13
598.454	0.12
598.644	0.16
598.834	0.13
599.024	0.11
599.214	0.16
599.404	0.18
599.594	0.14
599.784	0.15
599.974	0.18
600.164	0.17
600.354	0.13
600.544	0.13
600.734	0.17
600.924	0.21
601.114	0.14
601.303	0.18
601.493	0.18
601.683	0.16
601.873	0.21
602.063	0.11
602.252	0.19
602.442	0.16
602.632	0.17
602.821	0.15
603.011	0.23
603.201	0.15
603.39	0.18
603.58	0.18
603.77	0.23
603.959	0.23
604.149	0.23
604.339	0.22
604.528	0.24
604.718	0.23
604.907	0.25
605.097	0.23
605.286	0.19
605.476	0.24
605.665	0.29
605.855	0.27
606.044	0.31
606.234	0.28
606.423	0.29
606.612	0.25
606.802	0.26
606.991	0.29
607.181	0.3
607.37	0.25
607.559	0.28
607.749	0.26
607.938	0.3
608.127	0.32
608.316	0.31
608.506	0.34
608.695	0.34
608.884	0.29
609.073	0.31
609.263	0.37
609.452	0.36
609.641	0.37
609.83	0.31
610.019	0.38
610.208	0.36
610.397	0.38
610.586	0.4
610.775	0.41
610.965	0.38
611.154	0.41
611.343	0.41
611.532	0.42
611.721	0.42
611.91	0.41
612.099	0.47
612.287	0.42
612.476	0.45
612.665	0.51
612.854	0.45
613.043	0.53
613.232	0.48
613.421	0.47
613.61	0.54
613.798	0.53
613.987	0.55
614.176	0.54
614.365	0.58
614.554	0.57
614.742	0.6
614.931	0.59
615.12	0.64
615.309	0.61
615.497	0.65
615.686	0.61
615.875	0.64
616.063	0.61
616.252	0.67
616.44	0.68
616.629	0.72
616.818	0.72
617.006	0.7
617.195	0.72
617.383	0.78
617.572	0.74
617.76	0.78
617.949	0.79
618.137	0.83
618.326	0.91
618.514	0.78
618.703	0.83
618.891	0.94
619.079	0.82
619.268	0.95
619.456	0.9
619.644	0.98
619.833	0.93
620.021	0.96
620.209	0.93
620.398	1.03
620.586	1.02
620.774	1.05
620.962	1.07
621.151	1.16
621.339	1.1
621.527	1.07
621.715	1.09
621.903	1.2
622.092	1.14
622.28	1.23
622.468	1.19
622.656	1.24
622.844	1.3
623.032	1.32
623.22	1.28
623.408	1.41
623.596	1.39
623.784	1.47
623.972	1.4
624.16	1.46
624.348	1.51
624.536	1.52
624.724	1.53
624.912	1.63
625.1	1.63
625.288	1.63
625.476	1.63
625.664	1.71
625.851	1.67
626.039	1.77
626.227	1.78
626.415	1.8
626.603	1.79
626.79	1.95
626.978	1.88
627.166	2
627.354	1.99
627.541	1.99
627.729	2
627.917	2.16
628.104	2.21
628.292	2.2
628.48	2.26
628.667	2.23
628.855	2.31
629.042	2.38
629.23	2.37
629.418	2.42
629.605	2.48
629.793	2.45
629.98	2.53
630.168	2.59
630.355	2.7
630.543	2.68
630.73	2.71
630.917	2.75
631.105	2.89
631.292	2.9
631.48	2.89
631.667	3.1
631.854	3.04
632.042	3.09
632.229	3.06
632.416	3.22
632.604	3.26
632.791	3.23
632.978	3.41
633.165	3.42
633.353	3.54
633.54	3.66
633.727	3.57
633.914	3.62
634.101	3.68
634.289	3.84
634.476	3.77
634.663	3.88
634.85	3.92
635.037	4.02
635.224	4
635.411	4.16
635.598	4.16
635.785	4.24
635.972	4.32
636.159	4.46
636.346	4.48
636.533	4.46
636.72	4.59
636.907	4.67
637.094	4.63
637.281	4.62
637.468	4.88
637.655	4.98
637.842	5.03
638.029	5.01
638.215	5.16
638.402	5.16
638.589	5.29
638.776	5.33
638.963	5.4
639.149	5.63
639.336	5.66
639.523	5.69
639.709	5.77
639.896	5.89
640.083	5.92
640.27	6.12
640.456	6.15
640.643	6.16
640.829	6.19
641.016	6.41
641.203	6.38
641.389	6.59
641.576	6.71
641.762	6.73
641.949	6.85
642.135	7.08
642.322	7.12
642.508	7.09
642.695	7.47
642.881	7.33
643.068	7.53
643.254	7.71
643.441	7.78
643.627	7.91
643.813	7.89
644	8.17
644.186	8.21
644.372	8.47
644.559	8.57
644.745	8.61
644.931	8.74
645.118	8.92
645.304	9.14
645.49	9.23
645.676	9.41
645.862	9.52
646.049	9.72
646.235	9.81
646.421	10.19
646.607	10.29
646.793	10.31
646.979	10.24
647.165	10.71
647.352	10.86
647.538	10.82
647.724	11.15
647.91	11.2
648.096	11.57
648.282	11.83
648.468	11.88
648.654	12.19
648.84	12.25
649.026	12.46
649.212	12.49
649.397	12.85
649.583	13.15
649.769	13.23
649.955	13.39
650.141	13.8
650.327	13.82
650.513	14.11
650.698	14.37
650.884	14.32
651.07	14.78
651.256	14.91
651.442	15.19
651.627	14.99
651.813	15.65
651.999	15.68
652.184	15.83
652.37	16.36
652.556	16.55
652.741	16.64
652.927	16.53
653.113	17.04
653.298	17.29
653.484	17.54
653.669	17.7
653.855	17.91
654.04	18.23
654.226	18.48
654.412	18.66
654.597	18.68
654.782	19.09
654.968	19.28
655.153	19.59
655.339	19.74
655.524	19.93
655.71	20.16
655.895	20.48
656.08	20.71
656.266	21.01
656.451	20.79
656.636	21.05
656.822	21.34
657.007	21.52
657.192	21.64
657.378	21.84
657.563	21.82
657.748	22.15
657.933	22.62
658.118	22.03
658.304	22.69
658.489	22.81
658.674	22.86
658.859	22.65
659.044	22.93
659.229	23.21
659.414	23.37
659.599	23.29
659.785	23.23
659.97	23.29
660.155	23.4
660.34	23.43
660.525	23.24
660.71	23.21
660.895	23.22
661.08	23.04
661.264	22.76
661.449	22.77
661.634	22.29
661.819	22.58
662.004	21.95
662.189	21.92
662.374	21.7
662.559	21.11
662.743	20.86
662.928	20.8
663.113	20.18
663.298	20.05
663.483	19.68
663.667	19.11
663.852	18.82
664.037	18.62
664.221	18.18
664.406	17.68
664.591	17.45
664.775	16.86
664.96	16.51
665.145	15.79
665.329	15.56
665.514	14.99
665.698	14.5
665.883	14.12
666.068	13.92
666.252	13.41
666.437	12.9
666.621	12.57
666.806	12.27
666.99	11.72
667.174	11.44
667.359	10.98
667.543	10.65
667.728	10.3
667.912	9.77
668.096	9.59
668.281	9.27
668.465	9.11
668.649	8.81
668.834	8.3
669.018	8.12
669.202	7.94
669.387	7.6
669.571	7.53
669.755	6.98
669.939	6.74
670.124	6.63
670.308	6.37
670.492	6.28
670.676	5.89
670.86	5.74
671.044	5.58
671.228	5.48
671.413	5.17
671.597	4.98
671.781	4.92
671.965	4.77
672.149	4.61
672.333	4.45
672.517	4.35
672.701	4.15
672.885	4.1
673.069	3.88
673.253	3.78
673.437	3.66
673.621	3.5
673.804	3.42
673.988	3.33
674.172	3.18
674.356	3.11
674.54	3.01
674.724	2.93
674.908	2.79
675.091	2.79
675.275	2.69
675.459	2.66
675.643	2.55
675.826	2.46
676.01	2.35
676.194	2.26
676.377	2.2
676.561	2.24
676.745	2.09
676.928	2.06
677.112	1.99
677.296	1.9
677.479	1.8
677.663	1.78
677.846	1.75
678.03	1.65
678.213	1.58
678.397	1.61
678.58	1.48
678.764	1.52
678.947	1.4
679.131	1.4
679.314	1.44
679.498	1.28
679.681	1.32
679.865	1.34
680.048	1.14
680.231	1.17
680.415	1.06
680.598	1.05
680.781	1.08
680.965	1.07
681.148	1.09
681.331	0.97
681.514	1.01
681.698	0.88
681.881	0.93
682.064	0.92
682.247	0.89
682.43	0.78
682.614	0.83
682.797	0.83
682.98	0.78
683.163	0.73
683.346	0.81
683.529	0.69
683.712	0.65
683.895	0.68
684.078	0.59
684.261	0.63
684.444	0.69
684.627	0.67
684.81	0.59
684.993	0.59
685.176	0.6
685.359	0.57
685.542	0.51
685.725	0.64
685.908	0.53
686.091	0.53
686.274	0.56
686.457	0.51
686.639	0.47
686.822	0.51
687.005	0.48
687.188	0.45
687.371	0.53
687.553	0.45
687.736	0.48
687.919	0.51
688.102	0.48
688.284	0.42
688.467	0.46
688.65	0.35
688.832	0.31
689.015	0.36
689.197	0.29
689.38	0.48
689.563	0.46
689.745	0.33
689.928	0.33
690.11	0.35
690.293	0.38
690.475	0.25
690.658	0.36
690.84	0.32
691.023	0.33
691.205	0.3
691.388	0.3
691.57	0.39
691.752	0.33
691.935	0.14
692.117	0.26
692.3	0.27
692.482	0.25
692.664	0.29
692.847	0.29
693.029	0.36
693.211	0.3
693.393	0.25
693.576	0.22
693.758	0.25
693.94	0.2
694.122	0.26
694.304	0.19
694.487	0.21
694.669	0.32
694.851	0.2
695.033	0.19
695.215	0.18
695.397	0.21
695.579	0.22
695.761	0.17
695.943	0.12
696.125	0.27
696.308	0.24
696.49	0.1
696.671	0.32
696.853	0.18
697.035	0.36
697.217	0.21
697.399	0.23
697.581	0.16
697.763	0.23
697.945	0.14
698.127	0.19
698.309	0.17
698.491	0.23
698.672	0.23
698.854	0.25
699.036	0.22
699.218	0.2
699.399	0.28
699.581	0.26
699.763	0.17
699.945	0.08
700.126	0.11
700.308	0.24
700.49	0.15
700.671	0.09
700.853	0.11
701.035	0.18
701.216	0.18
701.398	0.1
701.579	0.15
701.761	0.27
701.943	0.14
702.124	0.14
702.306	0.12
702.487	0.28
702.669	0.18
702.85	0.08
703.031	0.12
703.213	0.24
703.394	0.18
703.576	0.1
703.757	0.26
703.938	0.2
704.12	0.26
704.301	0.17
704.483	0.06
704.664	0.2
704.845	0.22
705.026	0.2
705.208	0.14
705.389	0.12
705.57	0.14
705.751	0.13
705.933	0.19
706.114	0.2
706.295	0.13
706.476	0.14
706.657	0.17
706.838	0.2
707.02	0.18
707.201	0.11
707.382	0.11
707.563	0.13
707.744	0.1
707.925	0.07
708.106	0.12
708.287	0.17
708.468	0.24
708.649	0.18
708.83	0.18
709.011	0.12
709.192	0.14
709.373	0.1
709.554	0.12
709.734	0.17
709.915	0.11
710.096	0.14
710.277	0.05
710.458	0.1
710.639	0.17
710.819	0.01
711	0.12
711.181	0.23
711.362	0.19
711.542	0.15
711.723	0.07
711.904	0.18
712.085	0.12
712.265	0.13
712.446	0.04
712.627	0.12
712.807	0.14
712.988	0.12
713.168	0.12
713.349	0.16
713.53	0.05
713.71	0.02
713.891	0.1
714.071	0.11
714.252	0.12
714.432	0.13
714.613	0.04
714.793	0.13
714.974	0.21
715.154	0.15
715.334	0.13
715.515	0.2
715.695	0
715.876	0.11
716.056	0.1
716.236	0.08
716.417	0.11
716.597	0.11
716.777	0.25
716.957	0.08
717.138	0.09
717.318	0.1
717.498	0.09
717.678	0.1
717.859	0.09
718.039	0.05
718.219	0.09
718.399	0.07
718.579	0.04
718.759	0.1
718.939	0.14
719.12	0.07
719.3	0.15
719.48	-0.06
719.66	0.02
719.84	0.2
720.02	0.13
720.2	0.09
720.38	0.11
720.56	0.2
720.74	0.07
720.92	0.19
721.1	0.22
721.279	0.11
721.459	0.11
721.639	0.08
721.819	0.13
721.999	0.08
722.179	0.18
722.359	0.03
722.538	0.16
722.718	0.12
722.898	0.14
723.078	0.12
723.257	0.06
723.437	0.19
723.617	0.09
723.797	0.06
723.976	0.11
724.156	0.13
724.336	0.13
724.515	0.21
724.695	-0.04
724.874	0.06
725.054	0.2
725.234	0.04
725.413	0.13
725.593	0.06
725.772	0.2
725.952	0.1
726.131	0.03
726.311	0.08
726.49	0.18
726.67	0.04
726.849	0.01
727.028	0.13
727.208	0.09
727.387	0.19
727.567	0.01
727.746	0.11
727.925	0.09
728.105	-0.02
728.284	0.13
728.463	0.02
728.643	0.22
728.822	0.04
729.001	0.05
729.18	0.12
729.359	0.13
729.539	0.03
729.718	0.06
729.897	0.11
730.076	0.03
730.255	0.05
730.434	0.11
730.614	0.12
730.793	0.16
730.972	0.11
731.151	0.03
731.33	0.17
731.509	0.19
731.688	0.13
731.867	0.06
732.046	-0.06
732.225	0.27
732.404	0.02
732.583	0.04
732.762	0.07
732.941	0.15
733.12	0.06
733.298	0.16
733.477	0.04
733.656	0.05
733.835	-0.05
734.014	0.18
734.193	0.19
734.371	0.12
734.55	0.1
734.729	0.01
734.908	0.22
735.086	0.09
735.265	0.16
735.444	-0
735.623	0.01
735.801	0.04
735.98	0.14
736.159	0.05
736.337	0.16
736.516	0.1
736.694	0.15
736.873	0.05
737.052	0.25
737.23	0.17
737.409	-0.01
737.587	0.31
737.766	-0.04
737.944	0.05
738.123	0.21
738.301	0.19
738.479	-0.06
738.658	0.15
738.836	-0.1
739.015	0.17
739.193	0.21
739.371	-0.08
739.55	0.1
739.728	-0.04
739.906	0.23
740.085	0.23
740.263	0.05
740.441	-0.04
740.62	0.26
740.798	0.28
740.976	0.06
741.154	0.02
741.332	0.27
741.511	0.15
741.689	0.2
741.867	0.17
742.045	0.16
742.223	0.05
742.401	-0.03
742.579	0.08
742.757	0.2
742.935	0.01
743.114	0.17
743.292	0.03
743.47	-0.01
743.648	0.07
743.826	0.01
744.004	0.16
744.181	0.17
744.359	0.07
744.537	0.07
744.715	0.03
744.893	0.04
745.071	0.09
745.249	0.09
745.427	0.07
745.605	0.17
745.782	0.09
745.96	0.11
746.138	0.15
746.316	0.16
746.493	0.13
746.671	0.14
746.849	0.18
747.027	0.25
747.204	-0.04
747.382	0.17
747.56	-0.05
747.737	0.17
747.915	0.07
748.093	0.12
748.27	0.12
748.448	0.07
748.625	-0.04
748.803	0.01
748.98	0.14
749.158	0.09
749.335	0.12
749.513	0.14
749.69	0.06
749.868	0.04
750.045	0.13
750.223	0.01
750.4	-0.09
750.578	0.29
750.755	0.13
750.932	0.01
751.11	0.24
751.287	-0.02
751.464	0.31
751.642	-0.06
751.819	0.23
751.996	0.1
752.173	0.09
752.351	-0.11
752.528	0.14
752.705	0
752.882	-0.03
753.06	0.2
753.237	0.11
753.414	0.42
753.591	0.29
753.768	0.14
753.945	0.08
754.122	0.11
754.299	0.22
754.476	0.03
754.654	0.15
754.831	0.18
755.008	0.15
755.185	0.06
755.362	-0.06
755.539	0.13
755.716	0.09
755.892	-0
756.069	-0.05
756.246	0.12
756.423	0.07
756.6	0.24
756.777	0.12
756.954	0.28
757.131	0.05
757.307	0.04
757.484	-0.03
757.661	0.12
757.838	0.08
758.015	0
758.191	0.22
758.368	0.03
758.545	0.23
758.721	0.19
758.898	-0.04
759.075	0.14
759.251	0.12
759.428	0.19
759.605	-0.03
759.781	-0.03
759.958	0.13
760.134	0.19
760.311	0.07
760.488	0.22
760.664	0.28
760.841	0.11
761.017	0.01
761.194	0.16
761.37	0.19
761.547	0.01
761.723	0.14
761.899	0.26
762.076	-0.02
762.252	-0.02
762.429	0
762.605	0.15
762.781	0.07
762.958	0.19
763.134	0.03
763.31	0.02
763.486	0.22
763.663	-0.05
763.839	0.09
764.015	-0.12
764.191	-0.06
764.368	0.17
764.544	0.01
764.72	0.16
764.896	0.14
765.072	0.02
765.248	0.03
765.425	0.14
765.601	-0.03
765.777	0.19
765.953	-0.07
766.129	0.03
766.305	-0.03
766.481	0.11
766.657	0.05
766.833	0.2
767.009	-0.05
767.185	0.09
767.361	0.19
767.537	-0.16
767.713	0.22
767.889	0.01
768.065	0.22
768.24	-0.04
768.416	0.25
768.592	-0.07
768.768	0.08
768.944	0.05
769.12	0.01
769.295	0
769.471	0.07
769.647	0.14
769.823	0.26
769.998	0.06
770.174	0.01
770.35	0.41
770.525	0.3
770.701	0.18
770.877	0.08
771.052	0.09
771.228	0.12
771.403	0.29
771.579	0.21
771.755	0.39
771.93	-0.05
772.106	-0.03
772.281	-0.15
772.457	-0.01
772.632	0.12
772.808	-0.03
772.983	0.08
773.159	-0.17
773.334	0.35
773.509	0.08
773.685	-0.05
773.86	0.43
774.036	0.39
774.211	0.18
774.386	-0.03
774.562	0.1
774.737	0.17
774.912	-0.12
775.087	0.2
775.263	0.23
775.438	0.24
775.613	-0.07
775.788	0.05
775.964	0.38
776.139	0.49
776.314	-0.15
776.489	0.24
776.664	0.01
776.839	-0.17
777.014	0.25
777.19	0.34
777.365	0.4
777.54	0.42
777.715	0.1
777.89	0.2
778.065	-0.06
778.24	0
778.415	0.29
778.59	-0.05
778.765	0.09
778.94	0.08
779.115	0.24
779.289	0.14
779.464	0.12
779.639	-0.02
779.814	-0.2
779.989	-0.1
780.164	0.29
780.339	0.2
780.513	-0.12
780.688	0.01
780.863	-0
781.038	0.24
781.212	-0.08
781.387	0.31
781.562	0.43
781.737	0.03
781.911	0.32
782.086	-0
782.261	0.13
782.435	0.35
782.61	0.13
782.784	0.09
782.959	0.25
783.134	0.12
783.308	-0.1
783.483	0.01
783.657	0.6
783.832	0.31
784.006	-0.18
784.181	0.09
784.355	0.15
784.53	-0.25
784.704	-0.05
784.878	0.14
785.053	0.17
785.227	0.25
785.402	0.51
785.576	0.17
785.75	0.06
785.925	0.03
786.099	0.11
786.273	0.35
786.448	0.31
786.622	0.3
786.796	0.03
786.97	-0.02
787.145	0.59
787.319	-0.25
787.493	0.03
787.667	-0.14
787.841	0.09
788.015	0.37
788.19	-0.04
788.364	0.07
788.538	0.15
788.712	0.14
788.886	0.05
789.06	0.38
789.234	0.43
789.408	-0.25
789.582	0.18
789.756	0.04
789.93	-0.17
790.104	0.06
790.278	-0.01
790.452	-0.09
790.626	0.03
790.8	-0.11
790.973	0.27
791.147	0.3
791.321	0.44
791.495	0.32
791.669	0.16
791.843	0.23
792.016	0.14
792.19	0.68
792.364	-0.21
792.538	0.7
792.711	0.36
792.885	-0.03
793.059	-0.02
793.233	-0.39
793.406	0.48
793.58	0.31
793.754	0.29
793.927	0.16
794.101	0.43
794.274	0.04
794.448	0.49
794.622	-0.19
794.795	0.61
794.969	0.06
795.142	0.37
795.316	-0.07
795.489	0.15
795.663	0.71
795.836	0.26
796.009	0.11
796.183	0.5
796.356	0.35
796.53	0.23
796.703	0.04
796.876	0.55
797.05	0.02
797.223	-0.04
797.396	0.23
797.57	0.21
797.743	0.56
797.916	0.21
798.09	0.1
798.263	0.39
798.436	0.19
798.609	0.08
798.782	0.1
798.956	0.38
799.129	-0
799.302	0.04
799.475	-0.04
799.648	-0.02
799.821	0.22
799.994	0.34
800.167	-0.03
800.34	0.08
800.514	0.32
800.687	-0.07
800.86	0.22
801.033	0.18
801.206	0.17
801.379	0.07
801.551	0.44
801.724	0.1
801.897	0.74
802.07	-0.11
802.243	-0.3
802.416	0.06
802.589	0.09
802.762	0.09
802.935	0.24
803.107	0.35
803.28	0.37
803.453	0.62
803.626	0.17
803.798	0.19
803.971	0.08
804.144	0.33
804.317	0.39
804.489	0.48
804.662	0.27
804.835	0.2
805.007	-0.09
805.18	0.42
805.353	0.22
805.525	-0.04
805.698	0.14
805.87	0.4
806.043	0.65
806.215	0.17
806.388	-0.05
806.56	0.2
806.733	0.54
806.905	-0.12
807.078	0.07
807.25	0.04
807.423	0.45
807.595	0.28
807.768	0.01
807.94	0.55
808.112	0.49
808.285	0
808.457	-0.25
808.629	0.12
808.802	0.39
808.974	0.36
809.146	-0.1
809.318	-0.06
809.491	0.57
809.663	0.28
809.835	0.35
810.007	0.32
810.18	0.26
810.352	-0.44
810.524	0.09
810.696	0.31
810.868	0.74
811.04	0.09
811.212	-0.17
811.384	0.47
811.556	0.71
811.728	0.49
811.901	0.96
812.073	0.08
812.245	0.58
812.417	0.3
812.589	-0.31
812.76	0.29
812.932	0.27
813.104	0.63
813.276	0.29
813.448	0.77
813.62	0.24
813.792	0.48
813.964	0.26
814.136	0.66
814.307	0.1
814.479	-0.16
814.651	0.05
814.823	0.9
814.995	0.08
815.166	0.27
815.338	0.04
815.51	-0.15
815.681	0.94
815.853	0.63
816.025	-0.18
816.196	0.78
816.368	0.58
816.54	-0.4
816.711	0.18
816.883	0.34
817.054	0.72
817.226	-0.38
817.398	0.21
817.569	-0.24
817.741	0.59
817.912	0.37
818.084	0.14
818.255	0.52
818.426	0.19
818.598	0.01
818.769	0.13
818.941	0.51
819.112	1.05
819.283	0.41
819.455	0
819.626	0.22
819.798	0.39
819.969	0.19
820.14	-0
820.311	0.06
820.483	0.07
820.654	0.38
820.825	0.43
820.996	-0.23
821.168	0.04
821.339	0.27
821.51	-0.06
821.681	-0.33
821.852	-0.03
822.023	0.11
822.195	-0.68
822.366	0.84
822.537	0.26
822.708	0.28
822.879	-0.05
823.05	0.55
823.221	0.65
823.392	0.82
823.563	0.3
823.734	0.34
823.905	0.46
824.076	-0.19
824.247	0.24
824.418	0.06
824.589	1
824.759	-0.72
824.93	1.14
825.101	-0.18
825.272	0.79
825.443	0.98
825.614	0.9
825.784	-0.82
825.955	0.99
826.126	1.34
826.297	1.11
826.467	0.81
826.638	0.8
826.809	-0.85
826.98	0.16
827.15	0.59
827.321	0.67
827.492	0.79
827.662	0.56
827.833	0.83
828.003	0.26
828.174	-0.05
828.345	-0.24
828.515	1.17
828.686	0.67
828.856	0.54
829.027	0.31
829.197	0.55
829.368	0.63
829.538	0.15
829.709	-0.29
829.879	0.39
830.049	0.07
830.22	0.2
830.39	0.16
830.56	0.58
830.731	0.38
830.901	-0.35
831.072	0.23
831.242	0.28
831.412	0.52
831.582	0.37
831.753	-0.13
831.923	0.6
832.093	-0.2
832.263	0.84
832.434	0.13
832.604	0.11
832.774	0.24
832.944	0.01
833.114	0.22
833.284	0.19
833.454	-0.4
833.624	0.12
833.795	-0.56
833.965	1.02
834.135	1.04
834.305	-0.7
834.475	-0.52
834.645	0.04
834.815	0.1
834.985	-0.46
835.155	0.32
835.325	0.32
835.494	0.84
835.664	-0.05
835.834	-0.17
836.004	0.68
836.174	1.02
836.344	0.3
836.514	-0.64
836.684	0.36
836.853	0.48
837.023	0.47
837.193	-0.19
837.363	1.25
837.532	0.86
837.702	0.46
837.872	-0.14
838.041	1.03
838.211	1.67
838.381	-0.46
838.55	0.42
838.72	2.1
838.89	1.5
839.059	0.09
839.229	0.29
839.398	1.72
839.568	0.86
839.738	0.4
839.907	1.43
840.077	-0.24
840.246	-0.22
840.416	-0.03
840.585	0.28
840.755	0.97
840.924	1.39
841.093	-0.4
841.263	0.26
841.432	0.54
841.602	0.32
841.771	-0.51
841.94	0.54
842.11	2.58
842.279	1.56
842.448	0.44
842.617	0.01
842.787	1.09
842.956	-0.01
843.125	0.82
843.294	0.8
843.464	1.3
843.633	1.02
843.802	-0.8
843.971	0.53
844.14	1.82
844.309	1.42
844.479	0.16
844.648	0.14
844.817	-0.25
844.986	1.17
845.155	0.67
845.324	-0.05
845.493	1
845.662	-0.05
845.831	1.11
846	0.41
846.169	0.73
846.338	1.35
846.507	0.35
846.676	0.5
846.844	-0.63
847.013	1.07
847.182	0.3
847.351	-0.13
847.52	0.2
847.689	1.25
847.858	0.4
848.026	0.26
848.195	1.61
848.364	0.59
848.533	-0.33
848.701	0.51
848.87	-0.89
849.039	0.53
849.207	1.28
849.376	1.16
849.545	1.87
849.713	-0.14
849.882	-0.24
850.051	-0.06
850.219	0.74
850.388	1.57
850.556	0.33
850.725	-0.59
850.893	0.26
851.062	-0.08
851.23	0.58
851.399	-0.87
851.567	0.63
851.736	-0.17
851.904	0.41
852.073	1.15
852.241	1.65
852.41	1.99
852.578	-0.11
852.746	-1
852.915	1.25
853.083	-0.25
853.251	-0.43
853.42	0.5
853.588	-0.42
853.756	2.27
853.924	0.3
854.093	-0.06
854.261	0.8
854.429	-0.29
854.597	1.15
854.765	0.15
854.934	0.12
855.102	1.76
855.27	0.26
855.438	1.27
855.606	1.53
855.774	1.83
855.942	-0.51
856.11	-1.52
856.278	0.48
856.446	2.55
856.614	0.26
856.782	-0.25
856.95	1.61
857.118	1.37
857.286	0.43
857.454	-0.18
857.622	1.98
857.79	1.1
857.958	-0.59
858.126	0.71
858.294	-1.22
858.462	0.67
858.629	-0.34
858.797	0.61
858.965	-0.36
859.133	1.18
859.301	-0.33
859.468	1.34
859.636	-0.36
859.804	2.65
859.971	2.94
860.139	0.17
860.307	1.36
860.474	1.06
860.642	0.27
860.81	-0.8
860.977	0.4
861.145	2.48
861.313	0.71
861.48	0.71
861.648	0.53
861.815	0.24
861.983	-0.51
862.15	0.51
862.318	1.59
862.485	2.3
862.653	-0.93
862.82	0.35
862.988	0.93
863.155	1.81
863.322	-0.29
863.49	-0.77
863.657	0.12
863.824	2.64
863.992	1.44
864.159	-0.68
864.326	2.35
864.494	-1.02
864.661	2.96
864.828	-0.62
864.996	1.12
865.163	3.29
865.33	-0.49
865.497	-1.86
865.664	-0.62
865.832	-0.55
865.999	0.28
866.166	0.4
866.333	-0.25
866.5	-0.93
866.667	0.11
866.834	0.27
867.001	2.21
867.168	-0.82
867.335	0.63
867.502	-1.27
867.669	0.4
867.836	3.38
868.003	1.13
868.17	1.46
868.337	1.99
868.504	2.94
868.671	-0.42
868.838	-0.29
869.005	0.9
869.172	1.25
869.339	1.57
869.505	1.09
869.672	2.01
869.839	3.21
870.006	1.47
870.173	-0.14
870.339	2.37
870.506	2.51
870.673	0.76
870.84	0.82
871.006	1.46
871.173	0.99
871.34	0.32
871.506	-0.16
871.673	1.76
871.839	-2.23
872.006	1.43
872.173	-0.41
872.339	1.75
872.506	3.25
872.672	0.39
872.839	-0.96
873.005	-0.38
873.172	4.99
873.338	2.62
873.505	0.44
873.671	0.74
873.838	2.71
874.004	-1.02
874.171	-1.64
874.337	2.97
874.503	1.86
874.67	2.57
874.836	1.8
875.002	2.11
875.169	1.71
875.335	0.46
875.501	1.53
875.668	2.87
875.834	2.25
876	1.55
876.166	1.59
876.332	1.3
876.499	4.01
876.665	-0.56
876.831	1.35
876.997	5
877.163	3.4
877.329	0.09
877.495	1.01
877.662	2.16
877.828	2.27
877.994	0.61
878.16	-1.03
878.326	0.83
878.492	1.76
878.658	0.52
878.824	0.47
878.99	2.79
879.156	-0.46
879.322	4.2
879.487	-0.2
879.653	0.68
879.819	3.06
879.985	-1.76
880.151	2.07
880.317	0.6
880.483	1.24
880.648	0.81
880.814	-2.16
880.98	0.06
881.146	-0.3
881.312	0.1
881.477	-0.02
881.643	1.73
881.809	3.05
881.974	3.18
882.14	-1.54
882.306	0.57
882.471	3.66
882.637	2.54
882.803	1.63
882.968	5.2
883.134	3.99
883.299	0.7
883.465	0.47
883.63	2.2
883.796	3.38
883.961	1.81
884.127	1.29
884.292	-3.11
884.458	-2.03
884.623	-2.02
