Data from Apollo_Calib_20240827__AbsoluteIrradiance__391__05-40-02-270.txt Node

Date: Wed Aug 28 05:40:02 BST 2024
User: biology
Spectrometer: FLMT08252
Trigger mode: 0
Integration Time (sec): 5.000000E-1
Scans to average: 5
Electric dark correction enabled: true
Nonlinearity correction enabled: false
Boxcar width: 0
XAxis mode: Wavelengths
Number of Pixels in Spectrum: 3648
>>>>>Begin Spectral Data<<<<<
179.588	-0
179.809	-0
180.03	-0
180.251	-0
180.473	-0
180.694	0
180.915	0
181.136	-0
181.357	0
181.578	-0
181.799	-0
182.02	-0
182.241	-0
182.462	-0
182.683	0
182.904	-0
183.125	-0
183.346	0
183.567	0
183.788	-0
184.009	-0
184.23	0
184.451	0
184.672	-0
184.892	-0
185.113	0
185.334	0
185.555	-0
185.776	-0
185.996	0
186.217	0
186.438	-0
186.659	-0
186.879	0
187.1	-0
187.321	-0
187.541	-0
187.762	-0
187.983	-0
188.203	-0
188.424	-0
188.644	-0
188.865	0
189.086	-0
189.306	-0
189.527	-0
189.747	0
189.968	-0
190.188	0
190.409	0
190.629	0
190.849	-0
191.07	-0
191.29	0
191.511	0
191.731	-0
191.951	-0
192.172	0
192.392	-0
192.612	-0
192.833	-0
193.053	0
193.273	0
193.493	-0
193.714	0
193.934	0
194.154	0
194.374	-0
194.594	0
194.815	0
195.035	0
195.255	0
195.475	-0
195.695	0
195.915	0
196.135	-0
196.355	0
196.575	0
196.795	0
197.015	-0
197.235	-0
197.455	-0
197.675	-0
197.895	-0
198.115	-0
198.335	0
198.555	-0
198.775	-0
198.995	-0
199.214	0
199.434	0
199.654	-0
199.874	-0
200.094	0.52
200.313	-0.35
200.533	-0.24
200.753	-0.66
200.973	0.62
201.192	0.31
201.412	-0.71
201.632	-0.67
201.851	0.89
202.071	-0.41
202.291	-0.61
202.51	-0.25
202.73	0.31
202.95	-0.74
203.169	-0.55
203.389	-0.19
203.608	0.18
203.828	-0.77
204.047	-0.27
204.267	0.26
204.486	0.03
204.706	-0.32
204.925	-0.28
205.145	-0.11
205.364	0.36
205.583	0.87
205.803	-0.1
206.022	-0.29
206.242	0.21
206.461	-0.04
206.68	-0.45
206.9	0.02
207.119	0.45
207.338	0.2
207.557	-0.57
207.777	0.03
207.996	-0.05
208.215	0.3
208.434	-0.32
208.654	-0.56
208.873	-0.01
209.092	0.33
209.311	-0.25
209.53	-0.51
209.749	0.09
209.968	-0.38
210.187	0.01
210.407	-0.45
210.626	-0.12
210.845	0.27
211.064	-0.12
211.283	-0.4
211.502	-0.05
211.721	-0.13
211.94	-0.26
212.159	0.12
212.377	0.21
212.596	0.46
212.815	-0.05
213.034	0.07
213.253	0.29
213.472	0.24
213.691	-0.18
213.91	-0.27
214.128	-0.12
214.347	0.29
214.566	-0.58
214.785	-0.44
215.003	0.14
215.222	-0.04
215.441	-0.29
215.66	-0.46
215.878	-0.14
216.097	0.26
216.316	-0.31
216.534	-0.11
216.753	0.02
216.972	-0.22
217.19	-0.28
217.409	-0.36
217.627	-0.17
217.846	-0.15
218.064	-0.01
218.283	-0.38
218.501	0.29
218.72	0.18
218.938	-0.13
219.157	-0.02
219.375	0.27
219.594	0.16
219.812	-0.33
220.031	-0.25
220.249	0.26
220.467	0.17
220.686	-0.06
220.904	-0.25
221.122	-0.02
221.341	0.37
221.559	-0.13
221.777	-0.29
221.995	-0.09
222.214	0.16
222.432	-0.16
222.65	0.16
222.868	0.06
223.086	-0.02
223.305	0.17
223.523	-0.07
223.741	0.18
223.959	-0.17
224.177	-0.27
224.395	-0.12
224.613	0.01
224.831	0.21
225.049	-0.22
225.267	-0.23
225.485	0.05
225.703	-0.2
225.921	0.03
226.139	-0.17
226.357	0.01
226.575	0.13
226.793	-0.13
227.011	0.5
227.229	0.01
227.447	0.03
227.665	-0.18
227.883	-0.18
228.1	-0.03
228.318	0.05
228.536	-0.39
228.754	0.01
228.972	0.07
229.189	0.16
229.407	-0.16
229.625	-0.18
229.843	-0.02
230.06	0.01
230.278	-0.17
230.496	-0.1
230.713	0.04
230.931	0.28
231.149	-0.16
231.366	-0.23
231.584	0.03
231.801	0.27
232.019	-0.07
232.236	-0.12
232.454	-0.18
232.671	0.05
232.889	-0.11
233.106	-0.2
233.324	-0.02
233.541	-0.01
233.759	0.04
233.976	-0.12
234.194	-0.02
234.411	-0.05
234.628	-0.14
234.846	-0.08
235.063	0.07
235.28	-0.09
235.498	-0.01
235.715	-0.07
235.932	0.17
236.149	-0.05
236.367	-0.14
236.584	-0.06
236.801	-0.04
237.018	0.08
237.236	-0.02
237.453	-0.18
237.67	0.14
237.887	0.05
238.104	-0.04
238.321	-0.13
238.538	-0.13
238.755	0.19
238.973	-0.17
239.19	0.04
239.407	-0.05
239.624	0.01
239.841	-0.17
240.058	-0.16
240.275	0.1
240.492	-0.03
240.709	0.01
240.925	-0.12
241.142	0.02
241.359	-0.18
241.576	-0.1
241.793	-0.06
242.01	-0.01
242.227	0.16
242.444	0.03
242.66	0.06
242.877	0
243.094	-0.15
243.311	-0.05
243.527	0.04
243.744	0.01
243.961	0.13
244.178	-0.03
244.394	-0.05
244.611	0.07
244.828	0.18
245.044	-0.11
245.261	-0.09
245.477	-0
245.694	0.04
245.911	-0.16
246.127	0
246.344	0.15
246.56	0.11
246.777	-0.14
246.993	-0.07
247.21	0.05
247.426	0.06
247.643	-0.03
247.859	-0.08
248.076	-0.06
248.292	0.17
248.508	-0.06
248.725	-0.05
248.941	0.08
249.157	0.1
249.374	-0.11
249.59	-0.04
249.806	0.01
250.023	0.02
250.239	-0.13
250.455	-0.08
250.671	-0.04
250.888	0.06
251.104	0.09
251.32	-0.03
251.536	-0.12
251.752	0.01
251.969	-0.03
252.185	-0.01
252.401	0.2
252.617	0.03
252.833	-0.05
253.049	0.01
253.265	-0.05
253.481	0.03
253.697	0.02
253.913	-0.07
254.129	-0.02
254.345	0.03
254.561	-0.1
254.777	-0.03
254.993	0.07
255.209	-0.04
255.425	0.03
255.641	-0.07
255.857	0.05
256.073	0.05
256.288	-0.02
256.504	-0.12
256.72	-0.06
256.936	0.08
257.152	0
257.367	-0.05
257.583	0.06
257.799	0.03
258.015	-0.08
258.23	-0.08
258.446	0.16
258.662	-0.04
258.877	-0.08
259.093	-0.07
259.309	0.03
259.524	0.03
259.74	-0.02
259.955	-0.12
260.171	0.04
260.387	-0
260.602	0.08
260.818	0.02
261.033	-0.04
261.249	-0.04
261.464	-0.08
261.68	-0.1
261.895	-0.03
262.11	0.04
262.326	-0.04
262.541	-0.13
262.757	0.06
262.972	0.03
263.187	0
263.403	0.06
263.618	0.1
263.833	0.02
264.049	-0.1
264.264	0.01
264.479	0.02
264.694	0.05
264.91	-0.16
265.125	0
265.34	0.01
265.555	0.16
265.77	-0.02
265.986	-0.06
266.201	0.03
266.416	0.1
266.631	-0.03
266.846	-0.05
267.061	0.02
267.276	0.05
267.491	-0.08
267.706	0.01
267.921	0.01
268.136	0.07
268.351	-0.04
268.566	-0.06
268.781	0.08
268.996	0
269.211	0.04
269.426	-0.13
269.641	-0
269.856	-0.03
270.071	-0.14
270.285	-0.14
270.5	0
270.715	0.07
270.93	-0.07
271.145	-0.01
271.359	0.03
271.574	-0.14
271.789	-0.05
272.004	0
272.218	-0.04
272.433	0.05
272.648	-0.11
272.862	0.05
273.077	-0.02
273.292	0.03
273.506	-0.07
273.721	-0.01
273.936	0.05
274.15	0.09
274.365	-0.09
274.579	0.03
274.794	0.07
275.008	0.1
275.223	-0.1
275.437	0.01
275.652	0.09
275.866	0.05
276.081	0.01
276.295	0.04
276.509	0
276.724	0.06
276.938	-0.03
277.153	0.07
277.367	0.03
277.581	-0.02
277.796	-0.03
278.01	-0.08
278.224	0.07
278.438	0.08
278.653	-0.08
278.867	-0.05
279.081	-0.15
279.295	-0.07
279.51	0.02
279.724	-0.11
279.938	0.05
280.152	0
280.366	-0.07
280.58	-0.03
280.794	0.05
281.008	0.03
281.222	0.02
281.437	0.09
281.651	0.06
281.865	0.05
282.079	-0.02
282.293	-0.16
282.507	-0.03
282.721	0.02
282.935	-0.07
283.148	-0.1
283.362	-0.06
283.576	-0.05
283.79	-0.04
284.004	-0.05
284.218	0.07
284.432	-0.01
284.646	-0.02
284.859	-0.01
285.073	-0.05
285.287	-0.01
285.501	-0.03
285.714	0.04
285.928	0.03
286.142	-0.03
286.356	-0.06
286.569	-0.03
286.783	0.1
286.997	0
287.21	-0
287.424	-0.02
287.637	-0.03
287.851	-0.03
288.065	0.05
288.278	-0.03
288.492	-0.02
288.705	-0.06
288.919	0
289.132	-0.05
289.346	0.04
289.559	-0.11
289.773	-0.07
289.986	-0.04
290.2	0.01
290.413	0.04
290.626	-0.04
290.84	-0.03
291.053	-0.02
291.267	0.08
291.48	-0.04
291.693	0
291.906	-0.03
292.12	-0.04
292.333	-0.05
292.546	-0.02
292.76	0.06
292.973	0.02
293.186	-0
293.399	-0.03
293.612	0.05
293.826	0.03
294.039	0
294.252	0.03
294.465	0.02
294.678	0.01
294.891	0.06
295.104	-0.06
295.317	-0.02
295.53	0.04
295.743	0.02
295.956	-0
296.169	0.06
296.382	0.08
296.595	0
296.808	-0.06
297.021	0.05
297.234	0.06
297.447	-0.01
297.66	-0
297.873	0.02
298.086	0
298.299	-0.05
298.511	-0.05
298.724	0.01
298.937	-0.09
299.15	-0.08
299.363	0.01
299.575	0.03
299.788	0
300.001	-0.02
300.213	-0.04
300.426	-0.02
300.639	-0.03
300.852	-0.01
301.064	0.04
301.277	0.12
301.489	-0
301.702	0.07
301.915	0.02
302.127	-0.04
302.34	0.01
302.552	0.02
302.765	-0
302.977	0.06
303.19	0
303.402	-0.05
303.615	0.02
303.827	-0.03
304.04	-0.02
304.252	-0
304.464	-0.03
304.677	0.14
304.889	0.02
305.102	-0.05
305.314	-0
305.526	0.07
305.739	-0.01
305.951	-0.03
306.163	0.01
306.375	0.08
306.588	-0.03
306.8	-0.02
307.012	-0.02
307.224	-0.02
307.436	0.04
307.649	-0.08
307.861	0.02
308.073	0.04
308.285	0.01
308.497	-0.06
308.709	-0.03
308.921	0.01
309.133	0.02
309.346	-0.05
309.558	0.01
309.77	0.06
309.982	0.08
310.194	0.04
310.406	-0.04
310.617	0.03
310.829	0.03
311.041	0.01
311.253	-0.06
311.465	-0.02
311.677	0.02
311.889	0.01
312.101	-0.07
312.313	0.06
312.524	0.09
312.736	-0.06
312.948	-0.03
313.16	0.07
313.372	0.02
313.583	0.01
313.795	-0.02
314.007	-0.05
314.218	0
314.43	-0.03
314.642	-0.07
314.853	-0.1
315.065	0.05
315.277	0.01
315.488	0.01
315.7	0
315.912	0.05
316.123	-0.03
316.335	0.01
316.546	0.09
316.758	0.01
316.969	-0.02
317.181	0.03
317.392	-0.02
317.604	0.06
317.815	-0.02
318.026	-0.01
318.238	0
318.449	0.07
318.661	-0.06
318.872	-0.06
319.083	-0.05
319.295	0.03
319.506	-0.03
319.717	0.01
319.929	0.03
320.14	-0.02
320.351	0.04
320.562	-0.02
320.774	0.04
320.985	-0
321.196	-0.08
321.407	-0.06
321.618	0.01
321.829	0.02
322.041	0.02
322.252	0.02
322.463	0.01
322.674	0.03
322.885	-0.06
323.096	-0.03
323.307	-0.01
323.518	0.01
323.729	-0.03
323.94	-0.01
324.151	-0.05
324.362	0.03
324.573	0.02
324.784	-0.02
324.995	0.05
325.206	0.01
325.417	-0.02
325.628	-0.02
325.838	0.01
326.049	0.01
326.26	0.01
326.471	-0.04
326.682	0.04
326.892	0.01
327.103	-0.04
327.314	-0.05
327.525	0.04
327.735	0.03
327.946	0
328.157	-0.04
328.368	0.03
328.578	-0.06
328.789	0.01
328.999	-0.02
329.21	-0.04
329.421	0.02
329.631	-0.05
329.842	-0.03
330.052	0.02
330.263	0.03
330.473	0.01
330.684	-0.04
330.894	0.03
331.105	0.03
331.315	0.01
331.526	-0.05
331.736	0.08
331.947	0.04
332.157	0.06
332.367	-0.06
332.578	0.07
332.788	0.08
332.999	-0.03
333.209	-0.02
333.419	-0.04
333.629	0.01
333.84	-0
334.05	-0.01
334.26	0.06
334.47	-0
334.681	0.07
334.891	-0.01
335.101	0.02
335.311	0.07
335.521	-0.01
335.732	-0.06
335.942	0.1
336.152	0.04
336.362	0.02
336.572	0.01
336.782	0.03
336.992	-0.04
337.202	-0.01
337.412	-0.07
337.622	0.02
337.832	-0.01
338.042	0.03
338.252	-0
338.462	-0.04
338.672	0.03
338.882	-0.03
339.092	0.01
339.302	0.07
339.511	0.04
339.721	-0.06
339.931	-0.02
340.141	0.03
340.351	0.06
340.561	-0.03
340.77	-0.02
340.98	0.01
341.19	0.04
341.4	0
341.609	-0.07
341.819	0.02
342.029	-0.09
342.238	0.01
342.448	0.03
342.658	0.05
342.867	-0.03
343.077	0.02
343.286	0.04
343.496	0.01
343.706	0.07
343.915	-0.06
344.125	-0.01
344.334	0.04
344.544	-0.05
344.753	-0.04
344.963	-0.04
345.172	-0
345.381	-0.01
345.591	-0.03
345.8	-0.01
346.01	0.04
346.219	0.07
346.428	-0.14
346.638	0.01
346.847	-0.02
347.056	0.06
347.266	-0.07
347.475	0.01
347.684	0.02
347.893	0.02
348.103	0.03
348.312	-0.06
348.521	-0.02
348.73	-0
348.94	-0
349.149	-0.02
349.358	-0.01
349.567	-0.02
349.776	-0.08
349.985	0.01
350.194	0.02
350.403	0.06
350.612	-0.04
350.821	-0.03
351.03	0.04
351.239	-0.05
351.448	-0
351.657	-0.06
351.866	0.06
352.075	-0.01
352.284	0.02
352.493	-0.05
352.702	0.05
352.911	-0
353.12	-0.03
353.329	-0.02
353.538	0.03
353.746	-0.03
353.955	-0.03
354.164	0.03
354.373	0.01
354.582	0.03
354.79	0.04
354.999	0.03
355.208	0.01
355.416	0.06
355.625	-0.06
355.834	-0.05
356.042	0.05
356.251	-0.02
356.46	-0.07
356.668	0.01
356.877	0.11
357.085	0.05
357.294	-0.07
357.503	0.05
357.711	-0.03
357.92	0.09
358.128	0.03
358.337	0.02
358.545	0.03
358.754	-0.02
358.962	0.01
359.17	-0.02
359.379	0.01
359.587	0
359.796	0.01
360.004	0.04
360.212	0
360.421	0.03
360.629	-0.02
360.837	-0.02
361.046	0.02
361.254	0.05
361.462	-0.01
361.67	-0.06
361.879	0
362.087	0.06
362.295	0.03
362.503	0.01
362.711	-0.05
362.92	-0.05
363.128	-0.04
363.336	-0.05
363.544	-0.06
363.752	-0.01
363.96	0
364.168	0.01
364.376	-0.02
364.584	0.01
364.792	-0.01
365	0
365.208	-0.02
365.416	0.04
365.624	0.04
365.832	0.01
366.04	0.07
366.248	0
366.456	0.04
366.664	0.04
366.872	-0.02
367.079	0.01
367.287	0
367.495	0.01
367.703	0.04
367.911	-0.01
368.118	-0
368.326	-0.01
368.534	-0.02
368.742	0.05
368.949	-0.04
369.157	-0.05
369.365	0.05
369.572	-0.01
369.78	-0.04
369.988	0.01
370.195	0.05
370.403	0.06
370.61	-0.02
370.818	-0.02
371.026	0.06
371.233	-0.02
371.441	0
371.648	-0.03
371.856	0.05
372.063	-0
372.271	-0.02
372.478	-0.04
372.685	-0
372.893	0.05
373.1	-0.01
373.308	-0.04
373.515	0.04
373.722	0.03
373.93	-0.01
374.137	0.06
374.344	0.11
374.552	0.05
374.759	0.04
374.966	0.02
375.173	-0.02
375.381	0.05
375.588	-0.02
375.795	-0.07
376.002	-0.04
376.209	-0.02
376.417	-0.01
376.624	-0.01
376.831	0.04
377.038	-0.02
377.245	-0.09
377.452	-0
377.659	0.02
377.866	-0.03
378.073	-0.02
378.28	-0.02
378.487	0.04
378.694	0.02
378.901	-0.01
379.108	-0.02
379.315	0
379.522	0.09
379.729	-0.01
379.936	-0.02
380.143	-0.01
380.35	-0.01
380.557	0
380.763	0.03
380.97	-0.03
381.177	-0.01
381.384	0.03
381.591	-0.04
381.797	0.02
382.004	0.03
382.211	0.01
382.418	-0.01
382.624	0.01
382.831	0.03
383.038	-0.03
383.244	-0
383.451	-0.03
383.658	0.04
383.864	-0.03
384.071	-0.01
384.277	0.06
384.484	-0.04
384.69	0.04
384.897	-0.02
385.103	-0.02
385.31	-0
385.516	-0.03
385.723	-0.04
385.929	-0.01
386.136	-0.01
386.342	0.03
386.549	-0.02
386.755	0.06
386.961	0.02
387.168	-0.04
387.374	0.03
387.58	0.03
387.787	-0.03
387.993	0.01
388.199	-0.02
388.406	-0.06
388.612	0.01
388.818	-0.05
389.024	-0.01
389.231	-0.02
389.437	0.07
389.643	0.07
389.849	-0.02
390.055	-0.01
390.261	0.04
390.467	0.01
390.674	-0.02
390.88	-0
391.086	0.04
391.292	-0.02
391.498	0.04
391.704	-0.01
391.91	-0
392.116	-0.01
392.322	-0.1
392.528	0.04
392.734	-0.01
392.94	-0.04
393.146	-0.01
393.352	-0.01
393.557	-0.02
393.763	-0.04
393.969	0.01
394.175	-0.05
394.381	0.01
394.587	-0.04
394.792	-0.03
394.998	0.06
395.204	0.04
395.41	0
395.615	0.04
395.821	0.01
396.027	0.03
396.233	-0
396.438	0.02
396.644	0.05
396.85	-0
397.055	-0.04
397.261	-0.01
397.466	0.09
397.672	0
397.878	0.01
398.083	0.04
398.289	-0.01
398.494	0.1
398.7	0.03
398.905	-0.07
399.111	0.05
399.316	-0.06
399.522	-0.01
399.727	0
399.932	0
400.138	0.01
400.343	0.02
400.549	-0.03
400.754	0.03
400.959	0.03
401.165	0
401.37	0.01
401.575	0.05
401.78	0
401.986	-0.03
402.191	-0.02
402.396	-0.04
402.601	-0
402.807	0
403.012	0.01
403.217	0.03
403.422	0.03
403.627	-0.02
403.832	-0.03
404.037	0.03
404.243	0
404.448	-0.04
404.653	-0.05
404.858	0.03
405.063	0.01
405.268	-0.01
405.473	-0.06
405.678	0.01
405.883	0.11
406.088	0.06
406.293	-0.04
406.498	-0.02
406.703	-0
406.907	-0.01
407.112	-0.05
407.317	0.03
407.522	0.03
407.727	-0.07
407.932	-0.04
408.136	0.08
408.341	0.02
408.546	0.01
408.751	0.05
408.956	-0.05
409.16	0.04
409.365	0.04
409.57	-0.02
409.774	-0.02
409.979	0.02
410.184	0
410.388	-0.05
410.593	0.05
410.798	0.01
411.002	-0.03
411.207	-0.02
411.411	-0.01
411.616	0
411.82	-0.01
412.025	0.01
412.229	-0.06
412.434	0.06
412.638	-0.02
412.843	-0.03
413.047	0.03
413.252	-0.05
413.456	-0.05
413.66	0.02
413.865	-0.02
414.069	0.06
414.273	-0.03
414.478	-0.04
414.682	-0.02
414.886	-0.03
415.091	-0.06
415.295	-0.09
415.499	-0.05
415.703	-0.05
415.908	-0.01
416.112	-0.13
416.316	0.05
416.52	-0.01
416.724	-0.05
416.929	-0.07
417.133	0.08
417.337	-0.04
417.541	-0.05
417.745	0.01
417.949	0.01
418.153	0.04
418.357	-0.03
418.561	0.07
418.765	-0.03
418.969	0.05
419.173	0.07
419.377	0
419.581	0.08
419.785	-0.03
419.989	-0.03
420.193	-0.04
420.397	0.01
420.601	0.02
420.804	0.04
421.008	-0
421.212	-0.02
421.416	0.06
421.62	-0.05
421.823	0.01
422.027	0.1
422.231	0.03
422.435	0.01
422.638	0.03
422.842	0.03
423.046	-0.05
423.249	0.02
423.453	0.03
423.657	0.04
423.86	0.02
424.064	0.02
424.268	0.07
424.471	0
424.675	0.07
424.878	0.03
425.082	-0
425.285	0.05
425.489	0.02
425.692	0.02
425.896	-0.04
426.099	0.05
426.303	-0.06
426.506	-0.08
426.71	0.03
426.913	0.07
427.116	0.05
427.32	-0.04
427.523	0.02
427.726	0.04
427.93	-0.04
428.133	-0
428.336	-0.07
428.54	-0.05
428.743	-0
428.946	0.01
429.149	-0.01
429.353	-0.02
429.556	-0.01
429.759	-0.02
429.962	-0.05
430.165	-0.01
430.368	-0.04
430.571	-0.03
430.775	0.07
430.978	-0.01
431.181	-0.01
431.384	0.03
431.587	-0.02
431.79	0.02
431.993	0.07
432.196	0.02
432.399	-0
432.602	0.05
432.805	-0.04
433.008	0
433.211	-0.05
433.414	0.05
433.616	0.06
433.819	-0.04
434.022	-0.1
434.225	0.08
434.428	0.01
434.631	0.07
434.833	-0.02
435.036	-0.04
435.239	0.05
435.442	0.01
435.645	-0.05
435.847	-0.01
436.05	0.05
436.253	0.03
436.455	-0.05
436.658	0.02
436.861	0.13
437.063	-0.02
437.266	0
437.468	-0.01
437.671	0.14
437.874	-0.03
438.076	-0.06
438.279	-0.05
438.481	0
438.684	-0.05
438.886	0.03
439.089	-0.12
439.291	0.03
439.494	0.02
439.696	-0.06
439.899	-0.03
440.101	-0.01
440.303	-0.11
440.506	0.01
440.708	0.03
440.91	0.06
441.113	-0.03
441.315	0.04
441.517	-0.09
441.72	0.06
441.922	-0.02
442.124	-0.06
442.326	0.01
442.529	0.09
442.731	0
442.933	0.07
443.135	-0.03
443.337	-0.05
443.539	-0.03
443.742	-0.04
443.944	0.04
444.146	-0.04
444.348	-0.02
444.55	-0.06
444.752	-0.05
444.954	-0.04
445.156	0.02
445.358	-0
445.56	0.04
445.762	-0.02
445.964	-0.04
446.166	-0.04
446.368	-0.08
446.57	0.04
446.772	0.02
446.974	-0.04
447.175	0.04
447.377	-0.03
447.579	0.03
447.781	-0.09
447.983	0.05
448.184	0.01
448.386	0.04
448.588	-0.06
448.79	-0.01
448.991	-0.02
449.193	-0.05
449.395	-0.01
449.597	0
449.798	0.01
450	0.04
450.202	0.01
450.403	0.01
450.605	-0.01
450.806	0.01
451.008	-0.09
451.21	-0
451.411	-0.01
451.613	-0.06
451.814	0.02
452.016	0.05
452.217	0.02
452.419	-0.04
452.62	-0.02
452.821	0.04
453.023	0.04
453.224	0.01
453.426	-0.01
453.627	0.01
453.828	0.05
454.03	0.05
454.231	0.01
454.432	-0.08
454.634	0.17
454.835	-0.06
455.036	-0.07
455.238	0.01
455.439	0.04
455.64	-0.03
455.841	-0.06
456.042	0.16
456.244	0.04
456.445	-0
456.646	-0.05
456.847	-0.06
457.048	0.04
457.249	0.05
457.45	0.23
457.651	-0.06
457.852	0.01
458.054	0.03
458.255	-0.04
458.456	0.02
458.657	-0
458.858	-0.05
459.058	-0.02
459.259	0.06
459.46	-0.04
459.661	-0.05
459.862	0.09
460.063	-0.01
460.264	0.07
460.465	-0.03
460.666	0.11
460.866	-0.03
461.067	-0
461.268	0.01
461.469	-0.04
461.67	0.04
461.87	-0.05
462.071	-0.04
462.272	-0.06
462.473	-0.03
462.673	0.02
462.874	-0.06
463.075	-0.05
463.275	-0.08
463.476	0.01
463.676	0.05
463.877	0.03
464.078	0
464.278	0.02
464.479	-0.03
464.679	0.01
464.88	-0.04
465.08	0.11
465.281	-0.04
465.481	0
465.682	0.02
465.882	0.04
466.083	0.02
466.283	0.04
466.483	0
466.684	-0.03
466.884	-0.03
467.085	-0
467.285	0.07
467.485	-0.01
467.686	-0.03
467.886	-0.02
468.086	0.01
468.286	0.01
468.487	0.02
468.687	-0.06
468.887	-0.04
469.087	0.05
469.287	0.02
469.488	-0.04
469.688	0.04
469.888	0.06
470.088	0.06
470.288	0.04
470.488	0.06
470.688	-0.03
470.888	-0
471.088	-0.08
471.288	0.05
471.488	0.08
471.688	0.02
471.888	-0.02
472.088	0.06
472.288	0.05
472.488	-0.02
472.688	-0.03
472.888	-0.01
473.088	-0.01
473.288	-0.04
473.488	0.01
473.688	0.05
473.887	-0.01
474.087	0
474.287	0.02
474.487	-0
474.687	0.02
474.886	-0.02
475.086	0.03
475.286	0.03
475.486	0.07
475.685	0.01
475.885	-0.03
476.085	-0.02
476.284	0.03
476.484	0.02
476.684	0.01
476.883	0.03
477.083	0.05
477.282	0
477.482	0.06
477.681	0.05
477.881	0.01
478.08	-0.02
478.28	0.01
478.479	0.04
478.679	0.08
478.878	-0
479.078	-0.02
479.277	-0.01
479.477	0.01
479.676	0.07
479.875	-0.01
480.075	-0.03
480.274	0.07
480.473	0.02
480.673	0.01
480.872	0.04
481.071	0.01
481.271	0.04
481.47	-0.02
481.669	0.01
481.868	-0
482.067	0
482.267	-0.03
482.466	-0
482.665	-0.01
482.864	-0.03
483.063	-0.02
483.262	0.03
483.461	0.05
483.661	0.06
483.86	0.02
484.059	0.02
484.258	0.01
484.457	0.04
484.656	0.01
484.855	0.06
485.054	-0.01
485.253	-0
485.452	-0.02
485.651	0.01
485.849	0.04
486.048	-0.01
486.247	-0.03
486.446	0.04
486.645	0.01
486.844	0
487.043	0.04
487.241	0.03
487.44	-0
487.639	0.03
487.838	0.06
488.037	0.05
488.235	0.08
488.434	0.04
488.633	0.01
488.831	0.04
489.03	0.07
489.229	0.05
489.427	0.04
489.626	0.07
489.825	0.09
490.023	0.05
490.222	-0.01
490.42	0.08
490.619	0.07
490.817	0.03
491.016	0.01
491.214	0.06
491.413	0.03
491.611	0.02
491.81	0.03
492.008	0.08
492.207	0.08
492.405	0.06
492.604	-0
492.802	0.02
493	0.07
493.199	0.04
493.397	0.06
493.595	0.03
493.794	0.08
493.992	0.09
494.19	0.06
494.388	0.07
494.587	0.05
494.785	0.05
494.983	0.04
495.181	0.08
495.379	0.08
495.578	0.06
495.776	0.06
495.974	0.08
496.172	0.07
496.37	0.05
496.568	0.04
496.766	0.04
496.964	0.11
497.162	0.07
497.36	0.04
497.558	0.09
497.756	0.11
497.954	0.09
498.152	0.06
498.35	0.08
498.548	0.09
498.746	0.08
498.944	0.07
499.142	0.08
499.34	0.07
499.538	0.09
499.736	0.08
499.933	0.16
500.131	0.13
500.329	0.13
500.527	0.14
500.725	0.14
500.922	0.15
501.12	0.16
501.318	0.14
501.516	0.13
501.713	0.16
501.911	0.14
502.109	0.1
502.306	0.16
502.504	0.13
502.701	0.14
502.899	0.16
503.097	0.18
503.294	0.2
503.492	0.18
503.689	0.18
503.887	0.19
504.084	0.24
504.282	0.17
504.479	0.14
504.677	0.19
504.874	0.19
505.072	0.21
505.269	0.21
505.466	0.23
505.664	0.25
505.861	0.19
506.059	0.17
506.256	0.24
506.453	0.21
506.651	0.28
506.848	0.27
507.045	0.27
507.242	0.24
507.44	0.24
507.637	0.26
507.834	0.3
508.031	0.29
508.229	0.24
508.426	0.31
508.623	0.33
508.82	0.29
509.017	0.27
509.214	0.27
509.411	0.32
509.608	0.3
509.805	0.34
510.003	0.32
510.2	0.33
510.397	0.4
510.594	0.36
510.791	0.35
510.988	0.38
511.184	0.41
511.381	0.38
511.578	0.37
511.775	0.41
511.972	0.42
512.169	0.44
512.366	0.42
512.563	0.45
512.76	0.43
512.956	0.48
513.153	0.46
513.35	0.49
513.547	0.45
513.744	0.47
513.94	0.45
514.137	0.51
514.334	0.49
514.53	0.48
514.727	0.54
514.924	0.59
515.12	0.52
515.317	0.51
515.514	0.5
515.71	0.5
515.907	0.56
516.103	0.59
516.3	0.6
516.497	0.6
516.693	0.62
516.89	0.58
517.086	0.57
517.283	0.67
517.479	0.59
517.676	0.62
517.872	0.61
518.068	0.64
518.265	0.65
518.461	0.63
518.658	0.63
518.854	0.69
519.05	0.65
519.247	0.65
519.443	0.68
519.639	0.66
519.836	0.67
520.032	0.68
520.228	0.69
520.424	0.71
520.621	0.7
520.817	0.68
521.013	0.69
521.209	0.74
521.405	0.76
521.601	0.72
521.798	0.69
521.994	0.75
522.19	0.68
522.386	0.68
522.582	0.72
522.778	0.73
522.974	0.71
523.17	0.71
523.366	0.71
523.562	0.73
523.758	0.7
523.954	0.66
524.15	0.69
524.346	0.72
524.542	0.69
524.738	0.7
524.934	0.7
525.129	0.7
525.325	0.73
525.521	0.7
525.717	0.75
525.913	0.73
526.109	0.69
526.304	0.67
526.5	0.7
526.696	0.72
526.892	0.66
527.087	0.7
527.283	0.66
527.479	0.66
527.674	0.65
527.87	0.62
528.066	0.65
528.261	0.66
528.457	0.68
528.653	0.64
528.848	0.62
529.044	0.66
529.239	0.61
529.435	0.65
529.63	0.61
529.826	0.66
530.021	0.61
530.217	0.61
530.412	0.58
530.608	0.58
530.803	0.57
530.999	0.56
531.194	0.52
531.389	0.57
531.585	0.52
531.78	0.59
531.975	0.57
532.171	0.54
532.366	0.53
532.561	0.54
532.757	0.49
532.952	0.52
533.147	0.51
533.342	0.5
533.538	0.46
533.733	0.52
533.928	0.45
534.123	0.48
534.318	0.43
534.513	0.48
534.709	0.47
534.904	0.47
535.099	0.48
535.294	0.47
535.489	0.44
535.684	0.47
535.879	0.4
536.074	0.46
536.269	0.39
536.464	0.46
536.659	0.42
536.854	0.43
537.049	0.39
537.244	0.41
537.439	0.38
537.634	0.43
537.828	0.41
538.023	0.37
538.218	0.36
538.413	0.36
538.608	0.33
538.803	0.37
538.997	0.32
539.192	0.39
539.387	0.34
539.582	0.36
539.776	0.33
539.971	0.36
540.166	0.32
540.36	0.32
540.555	0.33
540.75	0.32
540.944	0.3
541.139	0.28
541.334	0.31
541.528	0.33
541.723	0.32
541.917	0.28
542.112	0.25
542.306	0.29
542.501	0.3
542.695	0.31
542.89	0.28
543.084	0.29
543.279	0.27
543.473	0.29
543.668	0.27
543.862	0.25
544.056	0.27
544.251	0.27
544.445	0.27
544.64	0.26
544.834	0.22
545.028	0.24
545.222	0.27
545.417	0.28
545.611	0.23
545.805	0.25
546	0.21
546.194	0.21
546.388	0.21
546.582	0.25
546.776	0.24
546.97	0.22
547.165	0.24
547.359	0.26
547.553	0.2
547.747	0.19
547.941	0.21
548.135	0.18
548.329	0.21
548.523	0.22
548.717	0.2
548.911	0.17
549.105	0.19
549.299	0.2
549.493	0.21
549.687	0.19
549.881	0.19
550.075	0.19
550.269	0.16
550.463	0.19
550.657	0.16
550.85	0.17
551.044	0.14
551.238	0.17
551.432	0.14
551.626	0.13
551.82	0.16
552.013	0.13
552.207	0.15
552.401	0.21
552.594	0.15
552.788	0.14
552.982	0.15
553.176	0.13
553.369	0.16
553.563	0.15
553.756	0.11
553.95	0.13
554.144	0.13
554.337	0.18
554.531	0.16
554.724	0.14
554.918	0.14
555.111	0.14
555.305	0.12
555.498	0.16
555.692	0.14
555.885	0.09
556.079	0.13
556.272	0.09
556.466	0.12
556.659	0.11
556.852	0.11
557.046	0.11
557.239	0.14
557.432	0.1
557.626	0.09
557.819	0.11
558.012	0.1
558.206	0.11
558.399	0.1
558.592	0.12
558.785	0.1
558.979	0.1
559.172	0.1
559.365	0.1
559.558	0.1
559.751	0.1
559.944	0.07
560.138	0.09
560.331	0.06
560.524	0.07
560.717	0.09
560.91	0.09
561.103	0.1
561.296	0.09
561.489	0.1
561.682	0.08
561.875	0.11
562.068	0.08
562.261	0.09
562.454	0.12
562.647	0.08
562.84	0.08
563.032	0.07
563.225	0.07
563.418	0.05
563.611	0.06
563.804	0.06
563.997	0.04
564.19	0.02
564.382	0.07
564.575	0.05
564.768	0.04
564.961	0.05
565.153	0.04
565.346	0.08
565.539	0.08
565.731	0.08
565.924	0.07
566.117	0.09
566.309	0.04
566.502	0.03
566.695	0.07
566.887	0.06
567.08	0.03
567.272	0.05
567.465	0.04
567.657	0.06
567.85	0.04
568.042	0.07
568.235	0.07
568.427	0.05
568.62	0.04
568.812	0.06
569.005	0.05
569.197	0.04
569.389	0.05
569.582	0.07
569.774	0.05
569.966	0.03
570.159	0.02
570.351	0.06
570.543	0.05
570.736	0.02
570.928	0.03
571.12	0.04
571.312	0.02
571.505	-0.01
571.697	0.07
571.889	0.01
572.081	0.04
572.273	0.03
572.465	0.09
572.658	0.01
572.85	0.06
573.042	0.01
573.234	0.02
573.426	0.08
573.618	-0
573.81	0.04
574.002	0.06
574.194	0.07
574.386	-0.03
574.578	-0.03
574.77	-0
574.962	0.02
575.154	-0.01
575.346	0.02
575.538	0.03
575.729	0.02
575.921	0.03
576.113	0
576.305	0.04
576.497	0.02
576.689	0.01
576.88	-0
577.072	0.06
577.264	0.01
577.456	0.01
577.647	-0.03
577.839	0.04
578.031	0.06
578.223	-0.02
578.414	0
578.606	0.04
578.798	0.02
578.989	-0
579.181	0.01
579.372	0.02
579.564	0.02
579.755	-0
579.947	0.05
580.139	0.04
580.33	-0.03
580.522	0.01
580.713	-0.06
580.905	0
581.096	0.03
581.287	0.02
581.479	0.01
581.67	0.03
581.862	0.02
582.053	0
582.244	-0.03
582.436	0.01
582.627	0.03
582.818	-0.01
583.01	-0.02
583.201	0.01
583.392	0.03
583.583	0.03
583.775	-0.01
583.966	-0.01
584.157	0
584.348	-0
584.54	-0.02
584.731	0.04
584.922	0.02
585.113	-0.02
585.304	0.03
585.495	0.03
585.686	0.04
585.877	0.02
586.068	0.02
586.259	0.03
586.45	0.01
586.641	-0.01
586.832	-0.03
587.023	0.02
587.214	-0.01
587.405	0.02
587.596	-0.02
587.787	0.05
587.978	0.03
588.169	0.01
588.36	0
588.551	0.04
588.742	-0.01
588.932	0.02
589.123	-0
589.314	0.03
589.505	0.03
589.696	0.02
589.886	-0.02
590.077	-0.01
590.268	0
590.458	-0.03
590.649	-0.05
590.84	0.04
591.03	-0.01
591.221	-0.03
591.412	-0.03
591.602	0.05
591.793	0.03
591.984	-0.04
592.174	-0.03
592.365	0.05
592.555	-0.01
592.746	0.02
592.936	0.02
593.127	0.03
593.317	0.05
593.508	-0.01
593.698	-0.01
593.889	0.02
594.079	0
594.269	-0.03
594.46	0
594.65	-0
594.84	-0.01
595.031	-0
595.221	0
595.411	-0.02
595.602	0.04
595.792	-0.01
595.982	-0
596.172	0.06
596.363	-0
596.553	0.01
596.743	0.03
596.933	0
597.123	0.05
597.314	-0.03
597.504	0.01
597.694	0.01
597.884	0.04
598.074	-0.01
598.264	-0.02
598.454	0.02
598.644	0.02
598.834	0
599.024	-0.04
599.214	-0.01
599.404	0.04
599.594	-0.02
599.784	-0.01
599.974	0.03
600.164	0.02
600.354	-0.02
600.544	-0.02
600.734	0.03
600.924	0.05
601.114	-0.03
601.303	0.01
601.493	0.01
601.683	-0.01
601.873	-0.01
602.063	-0.02
602.252	0.04
602.442	-0.07
602.632	-0.05
602.821	-0.05
603.011	0.02
603.201	-0.03
603.39	-0.02
603.58	-0
603.77	-0
603.959	0
604.149	-0.02
604.339	-0.01
604.528	0.04
604.718	0.01
604.907	0
605.097	0.01
605.286	0.01
605.476	0.01
605.665	0.02
605.855	-0.03
606.044	0.05
606.234	0.02
606.423	-0.01
606.612	-0.03
606.802	0
606.991	0.01
607.181	0.01
607.37	-0.05
607.559	-0.01
607.749	-0.05
607.938	0
608.127	0.02
608.316	-0.03
608.506	-0.01
608.695	-0.01
608.884	-0.02
609.073	-0.01
609.263	0.01
609.452	0.02
609.641	0
609.83	-0.03
610.019	-0
610.208	-0
610.397	-0.01
610.586	0.03
610.775	-0.02
610.965	0.01
611.154	-0
611.343	-0.02
611.532	-0
611.721	-0.04
611.91	-0.04
612.099	0.02
612.287	-0.02
612.476	-0.08
612.665	-0.02
612.854	-0.02
613.043	0.05
613.232	-0.01
613.421	-0.05
613.61	0.01
613.798	-0.02
613.987	0.01
614.176	-0.01
614.365	0.01
614.554	-0
614.742	0.04
614.931	-0.01
615.12	0.04
615.309	-0.01
615.497	0.02
615.686	-0.03
615.875	-0.02
616.063	0.03
616.252	-0.02
616.44	-0.04
616.629	0.01
616.818	0.02
617.006	0.02
617.195	-0.01
617.383	0.01
617.572	0.02
617.76	-0.01
617.949	-0.03
618.137	0.01
618.326	0.03
618.514	-0.02
618.703	-0.03
618.891	0.03
619.079	-0.04
619.268	0.03
619.456	-0.04
619.644	0.05
619.833	-0.02
620.021	-0.07
620.209	-0.05
620.398	0.01
620.586	0.01
620.774	0.03
620.962	-0.02
621.151	0.06
621.339	0.03
621.527	-0.05
621.715	-0.05
621.903	-0.04
622.092	-0.03
622.28	0.01
622.468	0.01
622.656	-0.01
622.844	0.01
623.032	-0.01
623.22	-0.06
623.408	0.05
623.596	-0.01
623.784	0.04
623.972	-0.04
624.16	0.01
624.348	0.03
624.536	-0.03
624.724	-0.04
624.912	0.06
625.1	0.03
625.288	-0.06
625.476	-0.01
625.664	0.01
625.851	-0.02
626.039	-0.03
626.227	0
626.415	-0
626.603	-0.06
626.79	0
626.978	-0.01
627.166	-0
627.354	-0.02
627.541	0
627.729	-0.06
627.917	0.02
628.104	0.03
628.292	-0
628.48	-0
628.667	-0.01
628.855	0.02
629.042	0.02
629.23	0
629.418	-0.02
629.605	-0.01
629.793	-0.03
629.98	-0.04
630.168	-0.02
630.355	-0.02
630.543	-0.01
630.73	-0.04
630.917	-0.03
631.105	0.08
631.292	-0.02
631.48	-0.01
631.667	0.1
631.854	0
632.042	0
632.229	-0.02
632.416	-0
632.604	-0.03
632.791	-0.03
632.978	0.03
633.165	0.02
633.353	0.04
633.54	-0.02
633.727	-0.07
633.914	-0.02
634.101	-0.06
634.289	0.05
634.476	-0.03
634.663	-0.04
634.85	0.02
635.037	-0.05
635.224	-0.06
635.411	0.03
635.598	0.01
635.785	-0
635.972	-0.03
636.159	0
636.346	-0
636.533	-0.02
636.72	-0.02
636.907	-0
637.094	0.03
637.281	-0.02
637.468	0.02
637.655	-0.04
637.842	-0.02
638.029	-0.02
638.215	0.01
638.402	-0
638.589	-0.03
638.776	-0
638.963	-0.04
639.149	0.01
639.336	0.07
639.523	-0.07
639.709	0.02
639.896	-0.01
640.083	0.02
640.27	0.02
640.456	-0.03
640.643	0.01
640.829	-0.06
641.016	-0
641.203	-0.06
641.389	0
641.576	-0.02
641.762	-0.01
641.949	-0.02
642.135	0
642.322	-0
642.508	-0.07
642.695	-0.02
642.881	0.01
643.068	-0.05
643.254	-0.01
643.441	0.01
643.627	-0.01
643.813	-0.06
644	0.04
644.186	-0.06
644.372	-0
644.559	0.02
644.745	-0.03
644.931	-0.05
645.118	-0.01
645.304	-0.03
645.49	-0.02
645.676	0.01
645.862	-0.01
646.049	0.02
646.235	-0.01
646.421	0.04
646.607	0.07
646.793	-0.01
646.979	-0.05
647.165	-0.01
647.352	-0.03
647.538	0.02
647.724	-0.03
647.91	0.01
648.096	0.03
648.282	0.05
648.468	-0.01
648.654	0.01
648.84	-0.02
649.026	-0.02
649.212	-0.02
649.397	-0.02
649.583	-0.06
649.769	-0.01
649.955	0.01
650.141	0.02
650.327	0.07
650.513	-0.04
650.698	0
650.884	-0.06
651.07	0.03
651.256	-0.01
651.442	0.01
651.627	-0.02
651.813	0.04
651.999	-0.02
652.184	0.04
652.37	-0.05
652.556	-0.02
652.741	0.06
652.927	-0.09
653.113	0
653.298	-0.03
653.484	-0.04
653.669	-0.09
653.855	-0.01
654.04	0.01
654.226	0.01
654.412	0
654.597	-0.07
654.782	0
654.968	0.03
655.153	0.01
655.339	-0.02
655.524	-0.05
655.71	0.01
655.895	-0.05
656.08	-0.05
656.266	0.03
656.451	-0
656.636	-0.07
656.822	-0.01
657.007	-0.05
657.192	-0.03
657.378	-0.02
657.563	0
657.748	0.01
657.933	-0
658.118	-0.01
658.304	-0.04
658.489	0.02
658.674	0.04
658.859	-0.04
659.044	-0.01
659.229	0.04
659.414	-0
659.599	0
659.785	-0.05
659.97	-0.03
660.155	0.03
660.34	-0
660.525	-0.05
660.71	-0.03
660.895	0.07
661.08	-0.02
661.264	-0.01
661.449	0.04
661.634	0.03
661.819	0.04
662.004	0.01
662.189	-0.1
662.374	-0.07
662.559	-0.06
662.743	-0.08
662.928	-0.02
663.113	-0.02
663.298	-0.09
663.483	-0.03
663.667	0
663.852	-0.05
664.037	0.02
664.221	-0.03
664.406	-0
664.591	0.02
664.775	-0.02
664.96	-0.06
665.145	0
665.329	0.03
665.514	-0.02
665.698	-0.05
665.883	-0.08
666.068	0.01
666.252	-0
666.437	-0.06
666.621	0.02
666.806	0.03
666.99	0
667.174	-0.06
667.359	0.08
667.543	-0.02
667.728	-0.03
667.912	-0.08
668.096	0.01
668.281	-0.02
668.465	-0.04
668.649	-0.01
668.834	-0
669.018	0.01
669.202	-0.02
669.387	-0.05
669.571	0.03
669.755	-0.06
669.939	-0.03
670.124	0.02
670.308	0.03
670.492	-0.01
670.676	0.01
670.86	-0.01
671.044	-0.05
671.228	0.02
671.413	-0.06
671.597	-0.01
671.781	-0.01
671.965	0.04
672.149	-0
672.333	-0
672.517	-0.06
672.701	0.01
672.885	-0.01
673.069	-0.07
673.253	0.04
673.437	-0
673.621	-0.03
673.804	-0.01
673.988	-0.01
674.172	-0.02
674.356	-0.06
674.54	-0.05
674.724	0.11
674.908	-0.03
675.091	0.04
675.275	0
675.459	0.04
675.643	0.04
675.826	-0
676.01	-0.03
676.194	-0.02
676.377	0.03
676.561	0.02
676.745	0.01
676.928	0.02
677.112	-0.01
677.296	-0.06
677.479	-0.02
677.663	-0.03
677.846	0.02
678.03	-0.03
678.213	-0.01
678.397	0.01
678.58	-0.01
678.764	-0.04
678.947	-0.02
679.131	-0.02
679.314	0.03
679.498	0.03
679.681	-0.04
679.865	0.03
680.048	-0.02
680.231	0
680.415	0.02
680.598	-0.04
680.781	-0.03
680.965	0.03
681.148	0
681.331	-0.01
681.514	-0.04
681.698	-0.04
681.881	0
682.064	0
682.247	-0
682.43	-0.07
682.614	0.03
682.797	0.05
682.98	0.03
683.163	-0.07
683.346	-0.01
683.529	0
683.712	-0.04
683.895	-0.02
684.078	-0.09
684.261	-0.03
684.444	-0.03
684.627	-0.01
684.81	-0.01
684.993	-0.01
685.176	0.01
685.359	0
685.542	-0.02
685.725	0.1
685.908	0
686.091	-0.05
686.274	0.06
686.457	0.04
686.639	-0.02
686.822	0.02
687.005	0.03
687.188	0.02
687.371	0.08
687.553	0.07
687.736	-0.02
687.919	0.05
688.102	0.06
688.284	-0.02
688.467	-0.04
688.65	-0.04
688.832	-0.03
689.015	0
689.197	-0.08
689.38	0.07
689.563	0.1
689.745	-0.07
689.928	-0.08
690.11	0
690.293	-0.03
690.475	-0.05
690.658	0.01
690.84	-0.03
691.023	-0.01
691.205	-0
691.388	0.03
691.57	0.01
691.752	0.06
691.935	-0.05
692.117	-0.05
692.3	0.04
692.482	-0.01
692.664	0.02
692.847	0
693.029	0.1
693.211	0.04
693.393	-0.05
693.576	-0.04
693.758	-0
693.94	-0.01
694.122	-0.04
694.304	-0.05
694.487	-0.03
694.669	0.1
694.851	-0.08
695.033	-0.01
695.215	-0.05
695.397	-0.08
695.579	0.04
695.761	-0.04
695.943	-0.04
696.125	0.02
696.308	0.04
696.49	-0.07
696.671	0.07
696.853	-0.03
697.035	0.13
697.217	0.01
697.399	0.05
697.581	-0.03
697.763	-0.04
697.945	-0.04
698.127	-0.04
698.309	0.08
698.491	-0
698.672	0.02
698.854	0.03
699.036	0.03
699.218	0.01
699.399	0.03
699.581	0.07
699.763	-0.05
699.945	-0.01
700.126	-0.06
700.308	-0.02
700.49	-0.02
700.671	-0.11
700.853	-0.03
701.035	-0.03
701.216	0.06
701.398	-0.08
701.579	0.02
701.761	0.08
701.943	-0.08
702.124	-0.05
702.306	-0.04
702.487	0.11
702.669	0.01
702.85	-0.08
703.031	-0.06
703.213	0.12
703.394	0.05
703.576	-0.02
703.757	0.07
703.938	0.04
704.12	0.1
704.301	-0.03
704.483	-0.03
704.664	0.02
704.845	0.15
705.026	0.02
705.208	-0.04
705.389	0.03
705.57	-0.04
705.751	0.04
705.933	-0.04
706.114	0.03
706.295	-0.01
706.476	-0.07
706.657	0.06
706.838	-0
707.02	0.1
707.201	-0.07
707.382	-0.06
707.563	0.01
707.744	-0.04
707.925	-0.04
708.106	-0.09
708.287	0.02
708.468	0.12
708.649	-0.06
708.83	-0.01
709.011	-0.06
709.192	0.03
709.373	-0.08
709.554	-0.05
709.734	0.08
709.915	0.02
710.096	0
710.277	-0.13
710.458	-0
710.639	-0
710.819	-0.12
711	-0.03
711.181	0.09
711.362	0.04
711.542	-0.06
711.723	0.01
711.904	0.05
712.085	0.04
712.265	0.04
712.446	-0.12
712.627	-0.05
712.807	-0.03
712.988	0.01
713.168	-0.01
713.349	0.03
713.53	-0.15
713.71	-0.06
713.891	-0.07
714.071	0.02
714.252	-0.03
714.432	0
714.613	-0.11
714.793	0
714.974	0
715.154	0.1
715.334	0.03
715.515	0.1
715.695	-0.06
715.876	-0.05
716.056	-0.02
716.236	-0.07
716.417	-0.05
716.597	-0.01
716.777	0.15
716.957	0.02
717.138	0.04
717.318	0.06
717.498	-0.04
717.678	-0.03
717.859	0
718.039	-0.13
718.219	-0.01
718.399	0.06
718.579	-0.04
718.759	-0.03
718.939	0.03
719.12	0.03
719.3	-0.03
719.48	-0.12
719.66	-0.11
719.84	0.11
720.02	-0.04
720.2	-0.06
720.38	-0.01
720.56	0.08
720.74	-0.08
720.92	0.04
721.1	0.15
721.279	0.08
721.459	-0.03
721.639	-0.11
721.819	0.03
721.999	0
722.179	0.05
722.359	-0.1
722.538	-0.04
722.718	0.03
722.898	-0.06
723.078	-0.05
723.257	-0.06
723.437	-0.03
723.617	0.04
723.797	-0.04
723.976	-0.05
724.156	0.01
724.336	0.05
724.515	0.07
724.695	-0.11
724.874	-0.07
725.054	0.06
725.234	-0.15
725.413	0.05
725.593	-0.09
725.772	-0.07
725.952	-0
726.131	-0.03
726.311	-0.03
726.49	0.02
726.67	-0
726.849	-0.12
727.028	0.04
727.208	0.03
727.387	-0.05
727.567	-0.05
727.746	-0.05
727.925	-0.09
728.105	-0.13
728.284	0.05
728.463	-0.01
728.643	-0.02
728.822	-0.11
729.001	-0.15
729.18	-0.01
729.359	0.04
729.539	0.06
729.718	-0.02
729.897	0.06
730.076	-0.04
730.255	-0.04
730.434	-0.04
730.614	0.17
730.793	-0.05
730.972	-0.09
731.151	-0.03
731.33	0.06
731.509	-0.02
731.688	-0.02
731.867	-0.03
732.046	-0.11
732.225	0.17
732.404	-0.04
732.583	-0.05
732.762	0.05
732.941	0.02
733.12	0.05
733.298	0.01
733.477	0.13
733.656	0.09
733.835	-0.08
734.014	0.01
734.193	-0.02
734.371	0.08
734.55	0.01
734.729	-0.2
734.908	-0.03
735.086	-0.01
735.265	0.01
735.444	-0.17
735.623	-0.05
735.801	-0.09
735.98	0.02
736.159	0.01
736.337	0.05
736.516	-0.03
736.694	-0.01
736.873	0.05
737.052	0.13
737.23	0.06
737.409	-0.04
737.587	0.16
737.766	-0.2
737.944	-0.14
738.123	0.03
738.301	0.01
738.479	0.02
738.658	0.04
738.836	-0.13
739.015	0.02
739.193	-0.01
739.371	-0.15
739.55	0
739.728	-0.21
739.906	0.13
740.085	0.12
740.263	-0.05
740.441	-0.2
740.62	0.14
740.798	0.08
740.976	0.03
741.154	-0.02
741.332	0.04
741.511	-0.09
741.689	-0
741.867	-0.02
742.045	0.04
742.223	-0.05
742.401	-0.06
742.579	-0.07
742.757	0.05
742.935	-0.09
743.114	-0.12
743.292	0.03
743.47	0.09
743.648	-0.06
743.826	0.03
744.004	0.12
744.181	0.01
744.359	-0.03
744.537	-0.02
744.715	-0.06
744.893	0.02
745.071	-0.04
745.249	-0.07
745.427	0
745.605	0.01
745.782	0.1
745.96	-0.01
746.138	0.03
746.316	0.07
746.493	-0.02
746.671	-0.04
746.849	-0.03
747.027	0.11
747.204	-0.02
747.382	0.11
747.56	-0.09
747.737	-0.15
747.915	-0.07
748.093	0.01
748.27	-0.07
748.448	-0.09
748.625	-0.18
748.803	-0.08
748.98	-0.05
749.158	0.06
749.335	0.17
749.513	-0.07
749.69	-0.03
749.868	0.01
750.045	0.09
750.223	-0
750.4	-0.2
750.578	0.1
750.755	-0.01
750.932	-0.2
751.11	0.1
751.287	-0.18
751.464	0.11
751.642	-0.09
751.819	0.01
751.996	-0
752.173	-0.11
752.351	-0.07
752.528	0.05
752.705	-0.05
752.882	-0.15
753.06	-0.05
753.237	0.01
753.414	0.19
753.591	0.18
753.768	0.04
753.945	-0.12
754.122	0.11
754.299	-0.03
754.476	-0.1
754.654	-0.06
754.831	0.01
755.008	0
755.185	-0.02
755.362	-0.09
755.539	0.08
755.716	-0.12
755.892	-0.1
756.069	-0.06
756.246	-0.01
756.423	-0.08
756.6	0.12
756.777	-0.02
756.954	0.08
757.131	-0.08
757.307	-0.09
757.484	-0.13
757.661	-0
757.838	0.19
758.015	-0.19
758.191	0.05
758.368	0.09
758.545	0.16
758.721	-0.01
758.898	-0.07
759.075	-0.04
759.251	0.07
759.428	0.03
759.605	-0.15
759.781	-0.11
759.958	0.14
760.134	0.01
760.311	-0.16
760.488	0.04
760.664	0.09
760.841	0.05
761.017	-0.12
761.194	-0.04
761.37	0.14
761.547	0.09
761.723	-0
761.899	0.16
762.076	-0.16
762.252	-0.1
762.429	-0.13
762.605	-0
762.781	-0.04
762.958	0.05
763.134	-0.07
763.31	-0.08
763.486	0.05
763.663	-0.23
763.839	0.08
764.015	-0.24
764.191	-0.13
764.368	-0.03
764.544	-0.12
764.72	-0.08
764.896	0.04
765.072	-0.12
765.248	0
765.425	-0.04
765.601	-0.04
765.777	-0.08
765.953	-0.23
766.129	-0.05
766.305	-0.08
766.481	0.1
766.657	0.04
766.833	0.25
767.009	-0.13
767.185	-0.01
767.361	-0.03
767.537	-0.06
767.713	0.11
767.889	-0.04
768.065	-0.07
768.24	0.13
768.416	0
768.592	-0.14
768.768	-0.02
768.944	0.09
769.12	-0.12
769.295	-0.06
769.471	0.07
769.647	-0.03
769.823	-0
769.998	-0.13
770.174	-0.06
770.35	0.28
770.525	0.27
770.701	0.01
770.877	0.1
771.052	-0.12
771.228	0.08
771.403	0.09
771.579	0.03
771.755	0.33
771.93	-0.13
772.106	-0.17
772.281	-0.34
772.457	0.02
772.632	0.03
772.808	-0.13
772.983	-0.01
773.159	-0.18
773.334	0.18
773.509	-0.03
773.685	-0.16
773.86	0.3
774.036	0.09
774.211	-0.03
774.386	-0.07
774.562	-0.04
774.737	-0.04
774.912	-0.17
775.087	0.04
775.263	0.01
775.438	0.07
775.613	-0.14
775.788	-0.1
775.964	0.11
776.139	0.26
776.314	-0.1
776.489	-0.02
776.664	-0.09
776.839	-0.04
777.014	0.13
777.19	0.12
777.365	0.21
777.54	0.07
777.715	-0.03
777.89	0.01
778.065	-0.2
778.24	-0.14
778.415	0.13
778.59	-0.28
778.765	-0.09
778.94	-0.01
779.115	-0.07
779.289	-0.09
779.464	-0.11
779.639	0.08
779.814	-0.2
779.989	-0.27
780.164	0.13
780.339	0.04
780.513	-0.04
780.688	-0.07
780.863	-0.09
781.038	0.1
781.212	-0.23
781.387	0.05
781.562	0.22
781.737	-0.17
781.911	0.1
782.086	-0.16
782.261	-0.09
782.435	0.33
782.61	-0.09
782.784	0.06
782.959	0.23
783.134	-0.25
783.308	-0.18
783.483	0.01
783.657	0.33
783.832	0.14
784.006	-0.42
784.181	0.14
784.355	-0.01
784.53	-0.2
784.704	-0.15
784.878	0.26
785.053	0.13
785.227	0.05
785.402	0.4
785.576	-0.09
785.75	-0.11
785.925	-0.09
786.099	0.14
786.273	0.03
786.448	0.24
786.622	0.19
786.796	-0.17
786.97	-0.12
787.145	0.49
787.319	-0.37
787.493	-0.11
787.667	-0.13
787.841	-0.12
788.015	0.13
788.19	-0.08
788.364	-0.03
788.538	0.03
788.712	0.24
788.886	-0.04
789.06	0.26
789.234	0.38
789.408	-0.2
789.582	0.08
789.756	-0.06
789.93	-0.23
790.104	0.03
790.278	-0.06
790.452	-0.26
790.626	0.14
790.8	-0.24
790.973	0.1
791.147	0.27
791.321	0.35
791.495	0.28
791.669	-0
791.843	0.06
792.016	0.16
792.19	0.27
792.364	0
792.538	0.3
792.711	0.31
792.885	-0.14
793.059	-0.17
793.233	-0.64
793.406	0.24
793.58	-0.03
793.754	-0.03
793.927	0.11
794.101	0.24
794.274	-0.01
794.448	0.32
794.622	-0.04
794.795	0.22
794.969	0.11
795.142	0.13
795.316	-0.09
795.489	-0.1
795.663	0.25
795.836	0.06
796.009	-0.29
796.183	0.31
796.356	0.17
796.53	0.09
796.703	0.11
796.876	0.51
797.05	-0.17
797.223	-0.18
797.396	0.12
797.57	0.01
797.743	0.51
797.916	-0.13
798.09	0.09
798.263	0.15
798.436	0.02
798.609	-0.17
798.782	-0.04
798.956	0.03
799.129	-0.29
799.302	0.1
799.475	-0.05
799.648	-0.11
799.821	-0.03
799.994	-0.18
800.167	-0.53
800.34	-0.09
800.514	-0.11
800.687	-0.18
800.86	-0.06
801.033	-0.18
801.206	0.33
801.379	-0.4
801.551	0.09
801.724	0.33
801.897	0.23
802.07	-0.19
802.243	-0.47
802.416	0
802.589	-0.1
802.762	0.25
802.935	-0.06
803.107	0.21
803.28	0.2
803.453	0.09
803.626	-0.39
803.798	-0.28
803.971	-0.18
804.144	0.16
804.317	0.31
804.489	0.24
804.662	-0.04
804.835	0.05
805.007	-0.47
805.18	0.28
805.353	0.26
805.525	-0.17
805.698	-0.07
805.87	0.17
806.043	0.26
806.215	-0.27
806.388	-0.09
806.56	0.16
806.733	0.27
806.905	0.34
807.078	-0.26
807.25	-0.06
807.423	0.35
807.595	-0.08
807.768	0.08
807.94	0.09
808.112	-0
808.285	0.05
808.457	-0.21
808.629	-0.07
808.802	0.2
808.974	0.23
809.146	-0.23
809.318	-0.07
809.491	0.01
809.663	0.39
809.835	0.06
810.007	0.08
810.18	0.02
810.352	-0.41
810.524	-0.04
810.696	0.34
810.868	0.14
811.04	-0.11
811.212	-0.03
811.384	0.07
811.556	0.11
811.728	0.01
811.901	1.04
812.073	-0.46
812.245	0.13
812.417	0.14
812.589	-0.85
812.76	-0.24
812.932	-0.04
813.104	0.36
813.276	-0.22
813.448	0.4
813.62	0.08
813.792	-0.2
813.964	0.05
814.136	-0.2
814.307	-0.1
814.479	-0.19
814.651	-0.28
814.823	0.78
814.995	-0.02
815.166	0.07
815.338	-0.22
815.51	-0.74
815.681	0.8
815.853	0.04
816.025	-0.21
816.196	0.8
816.368	0.24
816.54	-0.55
816.711	-0.56
816.883	0.34
817.054	1.17
817.226	-0.19
817.398	0.48
817.569	-0.55
817.741	0.2
817.912	-0.06
818.084	-0.12
818.255	0.6
818.426	-0.29
818.598	-0.24
818.769	-0.29
818.941	0.06
819.112	0.47
819.283	0.06
819.455	-0.29
819.626	0.23
819.798	0.12
819.969	0.3
820.14	-0.24
820.311	-0.35
820.483	-0.08
820.654	0.27
820.825	-0.26
820.996	0.2
821.168	-0.53
821.339	-0.12
821.51	-0.25
821.681	1.1
821.852	-0.07
822.023	-0.44
822.195	-0.39
822.366	0.36
822.537	0.05
822.708	-0.13
822.879	-0.36
823.05	0.73
823.221	-0.1
823.392	-0.34
823.563	-0.01
823.734	0.27
823.905	-0.08
824.076	0.19
824.247	-0.22
824.418	-0.31
824.589	0.65
824.759	0.23
824.93	0.37
825.101	-0.8
825.272	0.76
825.443	0.72
825.614	0.51
825.784	-1.35
825.955	1.15
826.126	0.69
826.297	-0.07
826.467	0.24
826.638	1.02
826.809	-0.95
826.98	-0.1
827.15	0.5
827.321	0.25
827.492	0.33
827.662	-0.03
827.833	0.7
828.003	0.73
828.174	-0.53
828.345	-0.8
828.515	0.69
828.686	-0
828.856	-0
829.027	0.19
829.197	0.52
829.368	0.35
829.538	0.09
829.709	-0.37
829.879	0.28
830.049	0.29
830.22	0.13
830.39	0.34
830.56	0.71
830.731	-0.03
830.901	0.12
831.072	0.3
831.242	-0.17
831.412	0.49
831.582	-0.05
831.753	-0.7
831.923	0.36
832.093	-0.1
832.263	-0.04
832.434	-0.57
832.604	-0.02
832.774	0.38
832.944	-0.66
833.114	-0.22
833.284	0.07
833.454	0.17
833.624	-0.38
833.795	-0.11
833.965	0.85
834.135	0.93
834.305	-0.93
834.475	-0.7
834.645	0.05
834.815	-0.4
834.985	-0.59
835.155	-0.63
835.325	0.07
835.494	0.57
835.664	-0.47
835.834	-1.23
836.004	0.18
836.174	-0.05
836.344	0.07
836.514	-0.99
836.684	-0.22
836.853	-0.25
837.023	0.14
837.193	-0.91
837.363	0.96
837.532	0.44
837.702	-0.96
837.872	-0.28
838.041	1.01
838.211	1.04
838.381	-1.19
838.55	-0.03
838.72	1.62
838.89	1.34
839.059	0.24
839.229	-1.15
839.398	1.27
839.568	0.02
839.738	-0.06
839.907	0.26
840.077	-0.23
840.246	-0.09
840.416	-0.14
840.585	-0.27
840.755	1.44
840.924	0.71
841.093	-0.65
841.263	-0.37
841.432	-0.5
841.602	-0.6
841.771	-0.51
841.94	0.31
842.11	2.02
842.279	1.26
842.448	-0.98
842.617	-1.14
842.787	0.69
842.956	-0.93
843.125	-0.22
843.294	0.43
843.464	0.8
843.633	0.26
843.802	-0.9
843.971	-0.13
844.14	0.56
844.309	0.79
844.479	-0.76
844.648	-0.99
844.817	-0.84
844.986	0.03
845.155	-0.41
845.324	0.04
845.493	-0.18
845.662	-1.2
845.831	0.03
846	0.33
846.169	0.05
846.338	0.98
846.507	-0.29
846.676	-0.01
846.844	-0.51
847.013	0.97
847.182	0.19
847.351	-0.31
847.52	-0.5
847.689	0.48
847.858	0.12
848.026	-0.23
848.195	-0.81
848.364	-0.56
848.533	-0.56
848.701	-0.14
848.87	0.02
849.039	1.08
849.207	1.37
849.376	1.63
849.545	0.53
849.713	-0.01
849.882	-0.72
850.051	-0.63
850.219	0.61
850.388	-0.32
850.556	-0.5
850.725	-0.43
850.893	0.17
851.062	-0.11
851.23	0.14
851.399	-1.33
851.567	-0.36
851.736	-0.1
851.904	-0.88
852.073	0.61
852.241	1.37
852.41	-0.55
852.578	-0.11
852.746	-0.83
852.915	1
853.083	0.47
853.251	-0.66
853.42	-0.34
853.588	0.51
853.756	1.17
853.924	-0.06
854.093	-0.88
854.261	-0.88
854.429	-1.63
854.597	0.46
854.765	-0.24
854.934	0.49
855.102	1.35
855.27	-0.38
855.438	-0.15
855.606	0.86
855.774	0.24
855.942	-2.03
856.11	-1.42
856.278	0.51
856.446	0.58
856.614	0.22
856.782	-0.38
856.95	1.24
857.118	0.7
857.286	1.03
857.454	-2.29
857.622	0.38
857.79	1.67
857.958	-0.86
858.126	0.23
858.294	-2.53
858.462	0.86
858.629	0.17
858.797	-0.42
858.965	-0.27
859.133	-1
859.301	-0.27
859.468	0.17
859.636	-0.49
859.804	1.02
859.971	0.81
860.139	-0.94
860.307	0.94
860.474	0.07
860.642	-1.67
860.81	-0.79
860.977	-0.93
861.145	0.77
861.313	-0.21
861.48	-0.61
861.648	0.8
861.815	-0.04
861.983	-0.9
862.15	-0.82
862.318	0.44
862.485	1.03
862.653	-1.74
862.82	-1.15
862.988	2.52
863.155	0.59
863.322	-1.6
863.49	-1.38
863.657	-0.57
863.824	1.99
863.992	2.65
864.159	0.97
864.326	1.8
864.494	-0.27
864.661	1.74
864.828	-1.26
864.996	1.93
865.163	1.54
865.33	-1.63
865.497	-1.1
865.664	-0.85
865.832	-0.94
865.999	-0.38
866.166	-0.55
866.333	-0.09
866.5	-0.9
866.667	-0.9
866.834	0.42
867.001	1.36
867.168	-2.63
867.335	-0.46
867.502	-0.69
867.669	0.11
867.836	2.98
868.003	-0.47
868.17	-0.28
868.337	-1.33
868.504	2.41
868.671	-1.83
868.838	-0.15
869.005	-0.08
869.172	0.62
869.339	0.8
869.505	-1.72
869.672	0.86
869.839	1.4
870.006	1.01
870.173	-1.84
870.339	0.32
870.506	1.63
870.673	-2.21
870.84	-0.82
871.006	1.27
871.173	-2.02
871.34	0.08
871.506	-1.23
871.673	0.68
871.839	-0.5
872.006	1.03
872.173	-0.15
872.339	0.64
872.506	2.52
872.672	0.63
872.839	-1.4
873.005	0.67
873.172	3.39
873.338	0.82
873.505	1.33
873.671	-1.45
873.838	-0.24
874.004	-1.43
874.171	-2.15
874.337	1.95
874.503	1.39
874.67	-1.38
874.836	-0.86
875.002	1.11
875.169	1.7
875.335	-1.18
875.501	-1.77
875.668	2.41
875.834	0.04
876	1.05
876.166	2.29
876.332	1.87
876.499	2.78
876.665	-0.67
876.831	-0.29
876.997	4.47
877.163	1.25
877.329	-1.32
877.495	1.72
877.662	2.16
877.828	0.31
877.994	-0.64
878.16	-2.29
878.326	-0.24
878.492	-0.46
878.658	-1.37
878.824	0.91
878.99	1.1
879.156	-0.63
879.322	-0.26
879.487	-1.77
879.653	-0.02
879.819	-0.11
879.985	-2.8
880.151	-0.3
880.317	0
880.483	1.33
880.648	2.41
880.814	-2.2
880.98	0.88
881.146	-3.43
881.312	-0.58
881.477	0.45
881.643	0.75
881.809	2.51
881.974	2.84
882.14	-1.67
882.306	-0.13
882.471	2.09
882.637	-0.32
882.803	1.97
882.968	2.66
883.134	3.72
883.299	1.54
883.465	0.8
883.63	-0.13
883.796	0.19
883.961	1.15
884.127	2.07
884.292	-3.04
884.458	-3.16
884.623	-3.15
