Data from Apollo_Calib_20240827__AbsoluteIrradiance__213__02-42-00-579.txt Node

Date: Wed Aug 28 02:42:00 BST 2024
User: biology
Spectrometer: FLMT08252
Trigger mode: 0
Integration Time (sec): 5.000000E-1
Scans to average: 5
Electric dark correction enabled: true
Nonlinearity correction enabled: false
Boxcar width: 0
XAxis mode: Wavelengths
Number of Pixels in Spectrum: 3648
>>>>>Begin Spectral Data<<<<<
179.588	-0
179.809	-0
180.03	-0
180.251	-0
180.473	-0
180.694	0
180.915	0
181.136	-0
181.357	0
181.578	-0
181.799	-0
182.02	0
182.241	0
182.462	-0
182.683	0
182.904	-0
183.125	-0
183.346	0
183.567	0
183.788	-0
184.009	-0
184.23	0
184.451	0
184.672	-0
184.892	-0
185.113	0
185.334	0
185.555	-0
185.776	-0
185.996	0
186.217	-0
186.438	0
186.659	-0
186.879	-0
187.1	-0
187.321	-0
187.541	-0
187.762	0
187.983	0
188.203	-0
188.424	-0
188.644	-0
188.865	-0
189.086	-0
189.306	-0
189.527	0
189.747	0
189.968	-0
190.188	-0
190.409	-0
190.629	-0
190.849	-0
191.07	-0
191.29	0
191.511	-0
191.731	-0
191.951	-0
192.172	-0
192.392	-0
192.612	-0
192.833	-0
193.053	0
193.273	0
193.493	-0
193.714	0
193.934	0
194.154	0
194.374	-0
194.594	-0
194.815	0
195.035	-0
195.255	0
195.475	-0
195.695	0
195.915	0
196.135	-0
196.355	0
196.575	0
196.795	0
197.015	-0
197.235	-0
197.455	-0
197.675	-0
197.895	-0
198.115	-0
198.335	0
198.555	-0
198.775	-0
198.995	0
199.214	0
199.434	-0
199.654	-0
199.874	-0
200.094	0.84
200.313	-0.42
200.533	-0.49
200.753	-0.89
200.973	0.65
201.192	0.32
201.412	-1.06
201.632	-0.11
201.851	0.49
202.071	-0.51
202.291	-0.58
202.51	-0.87
202.73	0.53
202.95	-0.76
203.169	-1.13
203.389	-0.46
203.608	-0.06
203.828	-0.36
204.047	-0.62
204.267	0.17
204.486	0.02
204.706	0.18
204.925	-0.07
205.145	-0.63
205.364	0.24
205.583	0.6
205.803	-0.3
206.022	-0.35
206.242	-0.01
206.461	0.11
206.68	-0.48
206.9	0.02
207.119	0.58
207.338	0.37
207.557	-0.03
207.777	-0.07
207.996	-0.36
208.215	0.46
208.434	-0.31
208.654	-0.58
208.873	0.23
209.092	0.38
209.311	-0.27
209.53	-0.35
209.749	-0.32
209.968	0
210.187	-0.39
210.407	-0.74
210.626	-0.42
210.845	0.22
211.064	-0.08
211.283	-0.46
211.502	0.16
211.721	-0.13
211.94	-0.14
212.159	0.11
212.377	0.21
212.596	0.32
212.815	-0.01
213.034	-0.03
213.253	0.21
213.472	0.23
213.691	-0.47
213.91	-0.34
214.128	-0.2
214.347	0.25
214.566	-0.43
214.785	-0.56
215.003	0.3
215.222	-0.05
215.441	-0.05
215.66	-0.4
215.878	-0.12
216.097	0.17
216.316	-0.2
216.534	-0.29
216.753	-0.13
216.972	-0.03
217.19	-0.12
217.409	-0.35
217.627	-0.17
217.846	-0.19
218.064	-0.18
218.283	-0.39
218.501	0.44
218.72	0.1
218.938	-0.31
219.157	-0.19
219.375	0.24
219.594	-0.22
219.812	-0.09
220.031	-0.33
220.249	0.43
220.467	0.11
220.686	-0.25
220.904	-0.41
221.122	-0.28
221.341	0.36
221.559	-0.09
221.777	-0.29
221.995	-0.11
222.214	0.03
222.432	-0.18
222.65	0.04
222.868	-0.01
223.086	0.08
223.305	0.02
223.523	-0.12
223.741	0.18
223.959	-0.19
224.177	-0.36
224.395	-0.17
224.613	-0.01
224.831	0.03
225.049	-0.25
225.267	-0.18
225.485	0.1
225.703	0.08
225.921	-0.14
226.139	-0.25
226.357	0.21
226.575	0.03
226.793	-0.17
227.011	0.45
227.229	0.05
227.447	0.15
227.665	-0.17
227.883	-0.32
228.1	-0.05
228.318	0.05
228.536	-0.36
228.754	-0.22
228.972	0.01
229.189	0.1
229.407	-0.17
229.625	-0.08
229.843	0.09
230.06	0.11
230.278	-0
230.496	-0.04
230.713	-0.08
230.931	0.08
231.149	-0.13
231.366	-0.26
231.584	-0.02
231.801	0.33
232.019	-0.14
232.236	-0.24
232.454	-0.12
232.671	-0.01
232.889	-0.05
233.106	-0.15
233.324	-0.06
233.541	-0.17
233.759	-0.03
233.976	-0.25
234.194	-0.07
234.411	-0.03
234.628	-0.19
234.846	-0.16
235.063	-0.08
235.28	0.02
235.498	-0.03
235.715	-0.2
235.932	0.01
236.149	-0.03
236.367	-0.13
236.584	0.01
236.801	-0.02
237.018	0.08
237.236	-0.02
237.453	-0.22
237.67	0.15
237.887	-0.01
238.104	-0.03
238.321	-0.14
238.538	-0.15
238.755	0.08
238.973	-0.22
239.19	-0.04
239.407	0
239.624	-0.03
239.841	-0.18
240.058	-0.09
240.275	0.05
240.492	0.01
240.709	0.01
240.925	-0.15
241.142	-0.02
241.359	-0.18
241.576	-0.14
241.793	-0.05
242.01	0.07
242.227	0.06
242.444	0.04
242.66	0.06
242.877	-0.06
243.094	-0.15
243.311	-0.06
243.527	-0.03
243.744	0.03
243.961	-0.02
244.178	-0.09
244.394	-0.16
244.611	0.09
244.828	0.17
245.044	-0.2
245.261	-0.06
245.477	-0.04
245.694	0.01
245.911	-0.14
246.127	0.08
246.344	0.11
246.56	0.05
246.777	-0.13
246.993	-0.01
247.21	0.03
247.426	0.03
247.643	-0.1
247.859	-0.06
248.076	-0.03
248.292	0.14
248.508	-0.06
248.725	0.04
248.941	-0.06
249.157	0.18
249.374	-0.15
249.59	-0.09
249.806	-0.08
250.023	0.07
250.239	-0.1
250.455	-0.17
250.671	-0.02
250.888	-0.01
251.104	0.01
251.32	-0.13
251.536	-0.06
251.752	0
251.969	-0.06
252.185	0.04
252.401	0.14
252.617	0.04
252.833	-0.04
253.049	-0.1
253.265	-0.04
253.481	0.04
253.697	-0.05
253.913	-0.11
254.129	0.07
254.345	0.01
254.561	-0.07
254.777	-0.07
254.993	0.04
255.209	-0.05
255.425	-0.05
255.641	-0.15
255.857	0.09
256.073	-0.03
256.288	-0.09
256.504	-0.01
256.72	-0.03
256.936	0.09
257.152	-0.05
257.367	-0.11
257.583	0.02
257.799	0.04
258.015	-0.1
258.23	-0.14
258.446	0.09
258.662	-0.07
258.877	-0.11
259.093	-0.15
259.309	-0.01
259.524	0.02
259.74	-0.12
259.955	-0.14
260.171	0.03
260.387	-0.01
260.602	0.02
260.818	0.06
261.033	-0.13
261.249	-0.04
261.464	-0.04
261.68	-0.16
261.895	0.04
262.11	0.05
262.326	-0.09
262.541	-0.15
262.757	-0.01
262.972	0.05
263.187	-0.02
263.403	-0.07
263.618	0.07
263.833	-0
264.049	-0.08
264.264	-0.02
264.479	-0.01
264.694	0.06
264.91	-0.16
265.125	-0.07
265.34	0.1
265.555	0.08
265.77	-0.03
265.986	-0.09
266.201	0.05
266.416	0.09
266.631	-0.1
266.846	-0.07
267.061	-0
267.276	-0.01
267.491	-0.11
267.706	0.01
267.921	0.08
268.136	-0.04
268.351	-0.02
268.566	-0.12
268.781	0.07
268.996	0
269.211	-0
269.426	-0.1
269.641	-0.04
269.856	0.02
270.071	-0.09
270.285	-0.18
270.5	0.03
270.715	0.01
270.93	-0.03
271.145	-0
271.359	-0.01
271.574	-0.07
271.789	-0.02
272.004	-0.05
272.218	-0.08
272.433	-0
272.648	-0.07
272.862	0.04
273.077	-0.01
273.292	0.01
273.506	-0.09
273.721	0.01
273.936	0.02
274.15	0.06
274.365	-0.06
274.579	0.03
274.794	-0.05
275.008	0.02
275.223	-0.1
275.437	-0.04
275.652	0.04
275.866	0.04
276.081	-0.01
276.295	0.04
276.509	-0.04
276.724	0.02
276.938	0.03
277.153	-0.01
277.367	0.07
277.581	-0
277.796	-0.09
278.01	-0.12
278.224	0.03
278.438	0.08
278.653	-0.04
278.867	-0.15
279.081	-0.19
279.295	-0.01
279.51	-0.01
279.724	-0.14
279.938	0.12
280.152	0.05
280.366	-0.06
280.58	-0.01
280.794	0.11
281.008	0.06
281.222	0.01
281.437	0.11
281.651	0.01
281.865	0.09
282.079	-0.01
282.293	-0.05
282.507	-0.1
282.721	0.01
282.935	-0.01
283.148	-0.09
283.362	-0.06
283.576	-0.07
283.79	-0.01
284.004	-0.06
284.218	0.08
284.432	-0.07
284.646	-0.06
284.859	-0.05
285.073	-0.04
285.287	0.03
285.501	-0.03
285.714	-0.02
285.928	0
286.142	-0.02
286.356	-0.02
286.569	-0.06
286.783	0.08
286.997	0.05
287.21	0.06
287.424	0.01
287.637	-0.05
287.851	-0.1
288.065	0.04
288.278	-0.02
288.492	-0.01
288.705	-0.04
288.919	0.04
289.132	-0.07
289.346	0.06
289.559	-0.09
289.773	-0.05
289.986	-0.02
290.2	0.02
290.413	0.05
290.626	-0.07
290.84	-0.03
291.053	-0.02
291.267	0.08
291.48	-0.03
291.693	0
291.906	-0.05
292.12	-0.03
292.333	-0.06
292.546	-0.04
292.76	0.09
292.973	0.03
293.186	0.06
293.399	-0.01
293.612	0.05
293.826	0.02
294.039	-0.05
294.252	0.01
294.465	0.03
294.678	-0
294.891	-0
295.104	-0.09
295.317	-0.03
295.53	-0
295.743	0.04
295.956	-0.02
296.169	0.06
296.382	0.02
296.595	-0.01
296.808	-0.05
297.021	0.08
297.234	0.05
297.447	-0
297.66	0.02
297.873	0.05
298.086	0.02
298.299	-0.06
298.511	-0.06
298.724	-0.05
298.937	-0.07
299.15	-0.06
299.363	-0.02
299.575	-0.02
299.788	0.02
300.001	-0.01
300.213	-0.04
300.426	-0.04
300.639	-0.04
300.852	-0.05
301.064	0.02
301.277	0.06
301.489	0.05
301.702	-0
301.915	-0.02
302.127	0.01
302.34	0.03
302.552	-0.02
302.765	-0.02
302.977	0.05
303.19	-0.02
303.402	-0.04
303.615	-0.01
303.827	-0.04
304.04	-0.03
304.252	0.03
304.464	-0.03
304.677	0.11
304.889	0.01
305.102	-0.08
305.314	-0.02
305.526	0.04
305.739	-0.01
305.951	-0.03
306.163	0.01
306.375	0.07
306.588	-0.04
306.8	-0.04
307.012	-0.03
307.224	-0.01
307.436	0.11
307.649	-0.06
307.861	0.02
308.073	0.03
308.285	-0.03
308.497	-0.08
308.709	-0.04
308.921	-0.01
309.133	0.05
309.346	0.02
309.558	-0.05
309.77	0.04
309.982	0.02
310.194	0.06
310.406	-0.01
310.617	0.08
310.829	0.01
311.041	0.04
311.253	-0.06
311.465	-0.06
311.677	-0.02
311.889	-0.03
312.101	-0.07
312.313	0.04
312.524	0.07
312.736	-0.08
312.948	-0.03
313.16	0.04
313.372	0.03
313.583	-0.01
313.795	-0.04
314.007	-0.06
314.218	0
314.43	0.01
314.642	-0.03
314.853	-0.04
315.065	0.04
315.277	0.03
315.488	0.04
315.7	0.05
315.912	0.03
316.123	-0.03
316.335	0.02
316.546	0.09
316.758	0.02
316.969	-0.03
317.181	-0.01
317.392	-0.03
317.604	0.05
317.815	-0.08
318.026	-0.04
318.238	-0.02
318.449	0.02
318.661	-0.08
318.872	-0.03
319.083	0.01
319.295	0.02
319.506	-0.01
319.717	-0.02
319.929	-0.01
320.14	0.02
320.351	-0.01
320.562	0.01
320.774	-0.01
320.985	-0.05
321.196	-0.06
321.407	-0.06
321.618	0.02
321.829	0.01
322.041	0.01
322.252	0.03
322.463	0.05
322.674	0.06
322.885	-0.06
323.096	-0.05
323.307	-0.01
323.518	0.03
323.729	-0.1
323.94	-0.02
324.151	-0.05
324.362	-0.01
324.573	-0.01
324.784	-0.03
324.995	0.03
325.206	0.01
325.417	-0.01
325.628	-0.05
325.838	-0.01
326.049	-0.01
326.26	-0.02
326.471	-0.04
326.682	0.02
326.892	-0
327.103	-0.07
327.314	-0.06
327.525	0.06
327.735	0.01
327.946	-0.04
328.157	-0.05
328.368	-0.01
328.578	-0.01
328.789	0
328.999	-0.06
329.21	-0.01
329.421	-0.01
329.631	-0.05
329.842	-0.05
330.052	-0
330.263	0.04
330.473	0.03
330.684	-0
330.894	-0.01
331.105	0.01
331.315	-0.01
331.526	-0.07
331.736	0.09
331.947	0.01
332.157	0.04
332.367	-0.05
332.578	0.02
332.788	0.04
332.999	0.02
333.209	-0.01
333.419	-0.06
333.629	0.01
333.84	-0.01
334.05	-0.02
334.26	0.06
334.47	-0.06
334.681	-0.01
334.891	-0.03
335.101	0
335.311	0.05
335.521	-0
335.732	-0.07
335.942	0.07
336.152	0.04
336.362	0.03
336.572	0.01
336.782	0.02
336.992	-0.05
337.202	0.02
337.412	-0.05
337.622	0.01
337.832	0
338.042	-0.02
338.252	-0.05
338.462	-0.03
338.672	-0.04
338.882	-0.02
339.092	-0.02
339.302	0.09
339.511	-0.02
339.721	-0.03
339.931	-0.08
340.141	0.07
340.351	0.06
340.561	0.05
340.77	0.02
340.98	-0.02
341.19	0.04
341.4	-0.05
341.609	-0.06
341.819	-0.02
342.029	-0.03
342.238	-0.01
342.448	-0.05
342.658	0.01
342.867	0.01
343.077	-0
343.286	-0.03
343.496	-0
343.706	0.04
343.915	-0.04
344.125	-0.02
344.334	0.04
344.544	-0.1
344.753	0.01
344.963	-0.03
345.172	-0.01
345.381	-0.02
345.591	-0.06
345.8	0.02
346.01	0.06
346.219	0.04
346.428	-0.14
346.638	-0
346.847	0
347.056	0.03
347.266	-0.06
347.475	0.01
347.684	0.02
347.893	0.03
348.103	0.01
348.312	-0.02
348.521	-0.03
348.73	0
348.94	-0.01
349.149	-0.02
349.358	-0.06
349.567	-0.04
349.776	-0.06
349.985	-0.05
350.194	0
350.403	0.07
350.612	-0.11
350.821	-0.02
351.03	-0.03
351.239	-0.03
351.448	-0.01
351.657	-0.03
351.866	0.07
352.075	-0.01
352.284	-0.03
352.493	-0.06
352.702	0.04
352.911	-0
353.12	0.01
353.329	-0.03
353.538	-0
353.746	-0.02
353.955	-0.05
354.164	-0
354.373	0
354.582	0.04
354.79	0.01
354.999	0.02
355.208	-0.01
355.416	0.07
355.625	-0.06
355.834	-0.02
356.042	0.01
356.251	-0.04
356.46	-0.06
356.668	0.02
356.877	0.11
357.085	0.02
357.294	-0.03
357.503	0.04
357.711	-0
357.92	0.09
358.128	-0.01
358.337	-0.04
358.545	0.01
358.754	-0.01
358.962	0.05
359.17	-0.03
359.379	-0.01
359.587	0
359.796	-0.05
360.004	0.04
360.212	0.03
360.421	0.05
360.629	-0.01
360.837	-0.03
361.046	0.06
361.254	0.1
361.462	-0
361.67	-0.04
361.879	0.03
362.087	0.07
362.295	0.01
362.503	0
362.711	-0.03
362.92	-0.05
363.128	-0.06
363.336	-0.05
363.544	-0.06
363.752	-0.03
363.96	-0.04
364.168	0.01
364.376	-0.01
364.584	-0.05
364.792	0.05
365	-0.01
365.208	-0.02
365.416	0.03
365.624	0.02
365.832	-0.04
366.04	0.04
366.248	0.02
366.456	0.02
366.664	-0
366.872	-0.03
367.079	-0
367.287	0.02
367.495	0.03
367.703	-0.03
367.911	-0.02
368.118	-0.06
368.326	-0
368.534	-0.02
368.742	0.04
368.949	-0.07
369.157	-0.04
369.365	0.05
369.572	0.01
369.78	-0.03
369.988	0.03
370.195	0.01
370.403	0
370.61	-0.02
370.818	-0.03
371.026	0.06
371.233	-0.02
371.441	-0.02
371.648	-0.04
371.856	0.02
372.063	0.01
372.271	0.02
372.478	-0.02
372.685	-0.04
372.893	0.01
373.1	0.01
373.308	-0.04
373.515	0.1
373.722	0.03
373.93	-0.01
374.137	0.04
374.344	0.06
374.552	0.06
374.759	0.01
374.966	0.01
375.173	-0.06
375.381	0.01
375.588	-0.03
375.795	-0.07
376.002	-0.02
376.209	-0.05
376.417	-0.02
376.624	-0
376.831	-0.02
377.038	-0.01
377.245	-0.07
377.452	0
377.659	0
377.866	-0.03
378.073	-0.02
378.28	-0
378.487	0.07
378.694	-0.02
378.901	-0.01
379.108	-0.02
379.315	0.02
379.522	0.01
379.729	0.01
379.936	-0.01
380.143	-0.03
380.35	-0.04
380.557	-0.06
380.763	-0.01
380.97	-0
381.177	0.04
381.384	0
381.591	-0.07
381.797	0.01
382.004	0.03
382.211	0.01
382.418	0.02
382.624	0.04
382.831	0.02
383.038	-0.05
383.244	-0.02
383.451	-0.02
383.658	0.03
383.864	-0.06
384.071	-0.06
384.277	0.05
384.484	-0.02
384.69	0
384.897	-0.04
385.103	-0.03
385.31	-0.05
385.516	-0.02
385.723	-0.07
385.929	-0.01
386.136	-0.04
386.342	-0.03
386.549	-0.02
386.755	0.03
386.961	-0.01
387.168	-0
387.374	-0.01
387.58	-0
387.787	0
387.993	-0.05
388.199	-0.02
388.406	-0.09
388.612	-0.07
388.818	-0.04
389.024	-0.01
389.231	-0.01
389.437	0.1
389.643	0.02
389.849	-0.01
390.055	-0
390.261	0
390.467	0
390.674	-0.01
390.88	-0.03
391.086	0.01
391.292	-0.07
391.498	0.04
391.704	-0.02
391.91	-0.01
392.116	-0.05
392.322	-0.08
392.528	-0.02
392.734	-0.05
392.94	-0.01
393.146	-0.03
393.352	0.01
393.557	-0.04
393.763	-0.04
393.969	0.02
394.175	-0.03
394.381	-0
394.587	-0.06
394.792	-0.01
394.998	0.05
395.204	0.03
395.41	-0.03
395.615	0.02
395.821	0.03
396.027	-0.01
396.233	-0.06
396.438	-0.02
396.644	0.11
396.85	0.01
397.055	-0.02
397.261	-0.03
397.466	-0.03
397.672	-0.02
397.878	0
398.083	-0.02
398.289	-0.04
398.494	-0.01
398.7	0.02
398.905	-0.08
399.111	0.04
399.316	-0.07
399.522	-0.03
399.727	-0.02
399.932	-0.02
400.138	-0.03
400.343	0.03
400.549	-0.02
400.754	0.01
400.959	-0.01
401.165	-0.05
401.37	0.02
401.575	0.09
401.78	0.01
401.986	-0.03
402.191	-0.02
402.396	-0.04
402.601	-0.02
402.807	0.02
403.012	0
403.217	-0.01
403.422	0.01
403.627	-0.02
403.832	-0.04
404.037	0.04
404.243	0
404.448	-0.08
404.653	0.02
404.858	0.05
405.063	0
405.268	-0.02
405.473	-0.05
405.678	-0.02
405.883	0.12
406.088	-0.04
406.293	-0.08
406.498	-0.02
406.703	0.01
406.907	-0.05
407.112	-0.07
407.317	-0
407.522	0.02
407.727	-0.09
407.932	-0.01
408.136	0.03
408.341	-0.03
408.546	-0.03
408.751	0.02
408.956	-0.06
409.16	0.03
409.365	-0
409.57	-0.02
409.774	-0.06
409.979	-0
410.184	-0.01
410.388	0.01
410.593	0.05
410.798	0.02
411.002	-0.04
411.207	0.01
411.411	0.01
411.616	-0.04
411.82	-0.04
412.025	-0
412.229	-0.03
412.434	0.04
412.638	0.02
412.843	-0.07
413.047	0.01
413.252	-0.08
413.456	-0.07
413.66	0.02
413.865	-0.03
414.069	0.03
414.273	-0.03
414.478	-0.03
414.682	-0.06
414.886	-0.05
415.091	-0.1
415.295	-0.09
415.499	-0.02
415.703	-0.03
415.908	-0
416.112	-0.1
416.316	-0
416.52	-0
416.724	-0.06
416.929	-0.03
417.133	0.07
417.337	-0.08
417.541	-0.07
417.745	-0.03
417.949	0.02
418.153	0.01
418.357	-0.12
418.561	0.09
418.765	-0.01
418.969	0.1
419.173	0.01
419.377	-0.04
419.581	0.04
419.785	-0.02
419.989	-0.09
420.193	-0.02
420.397	-0.04
420.601	0.02
420.804	0.02
421.008	-0.05
421.212	0.01
421.416	0.05
421.62	-0.07
421.823	-0.02
422.027	0.09
422.231	0.03
422.435	-0.01
422.638	0.01
422.842	0.03
423.046	-0.06
423.249	0.02
423.453	0.01
423.657	0.06
423.86	-0.07
424.064	-0.01
424.268	0.06
424.471	0.01
424.675	0.07
424.878	0.1
425.082	-0.02
425.285	0.04
425.489	-0.01
425.692	0.01
425.896	-0.08
426.099	-0.01
426.303	-0.08
426.506	-0.1
426.71	0.02
426.913	0.03
427.116	0.01
427.32	-0.01
427.523	-0.04
427.726	0.02
427.93	-0.06
428.133	-0.04
428.336	-0.09
428.54	-0.07
428.743	0
428.946	0.05
429.149	-0.01
429.353	-0.04
429.556	-0.01
429.759	-0.1
429.962	-0.05
430.165	-0.05
430.368	-0.05
430.571	-0
430.775	0.02
430.978	-0.04
431.181	0.04
431.384	-0.03
431.587	-0.04
431.79	-0.05
431.993	-0.05
432.196	-0.03
432.399	0.02
432.602	0.05
432.805	-0.02
433.008	-0.02
433.211	-0.1
433.414	-0.02
433.616	-0.03
433.819	0.01
434.022	-0.1
434.225	0.06
434.428	-0.02
434.631	0.07
434.833	-0.04
435.036	-0.05
435.239	0.05
435.442	-0.02
435.645	-0.01
435.847	-0.02
436.05	0.02
436.253	-0.03
436.455	-0.1
436.658	-0.03
436.861	0.11
437.063	-0.05
437.266	-0.03
437.468	-0.01
437.671	0.11
437.874	-0.02
438.076	-0.07
438.279	-0.09
438.481	-0
438.684	-0.05
438.886	0.02
439.089	-0.13
439.291	-0
439.494	0.01
439.696	-0.09
439.899	-0.02
440.101	-0
440.303	-0.11
440.506	0
440.708	-0.07
440.91	0
441.113	-0.03
441.315	0
441.517	-0.06
441.72	0.05
441.922	-0.04
442.124	-0.09
442.326	0.01
442.529	0.11
442.731	-0.05
442.933	0.02
443.135	-0.02
443.337	-0.06
443.539	-0.05
443.742	-0
443.944	0.04
444.146	-0.06
444.348	-0.05
444.55	-0.02
444.752	-0.01
444.954	-0.06
445.156	0
445.358	-0.02
445.56	0.04
445.762	-0.04
445.964	-0.01
446.166	-0.02
446.368	-0.05
446.57	0.08
446.772	0
446.974	-0.02
447.175	-0.06
447.377	-0.04
447.579	-0.01
447.781	-0.12
447.983	0.04
448.184	-0.05
448.386	0.03
448.588	-0.08
448.79	0.03
448.991	-0.02
449.193	-0.04
449.395	-0.05
449.597	0.04
449.798	0.01
450	-0.02
450.202	-0.01
450.403	-0.05
450.605	0.04
450.806	-0.01
451.008	-0.04
451.21	-0.04
451.411	0.02
451.613	-0.06
451.814	-0.08
452.016	0.01
452.217	-0.02
452.419	0.01
452.62	-0.03
452.821	-0.01
453.023	0.06
453.224	0.02
453.426	-0.07
453.627	-0.02
453.828	0.07
454.03	-0.02
454.231	0.07
454.432	-0.04
454.634	0.07
454.835	-0.07
455.036	-0.08
455.238	0.05
455.439	0.07
455.64	-0.07
455.841	-0.05
456.042	0.11
456.244	0.04
456.445	-0.03
456.646	-0.1
456.847	-0.03
457.048	-0.02
457.249	0.03
457.45	0.13
457.651	-0.04
457.852	0.08
458.054	0.03
458.255	0.01
458.456	-0.03
458.657	0
458.858	-0.03
459.058	-0.03
459.259	0
459.46	-0.03
459.661	-0.05
459.862	0.06
460.063	-0.03
460.264	0.04
460.465	-0.06
460.666	0.12
460.866	-0.02
461.067	0.02
461.268	-0.01
461.469	-0.04
461.67	0.01
461.87	-0.03
462.071	-0.03
462.272	-0.04
462.473	0.01
462.673	0.02
462.874	-0.02
463.075	0.02
463.275	-0.03
463.476	0.02
463.676	0.01
463.877	-0.03
464.078	-0.01
464.278	-0.01
464.479	-0.08
464.679	-0.02
464.88	-0.01
465.08	0.11
465.281	-0.01
465.481	-0.05
465.682	-0.04
465.882	0.05
466.083	-0.02
466.283	-0.02
466.483	-0.03
466.684	-0.06
466.884	-0.08
467.085	-0.03
467.285	0.06
467.485	-0.06
467.686	-0.02
467.886	-0.07
468.086	-0.03
468.286	-0.03
468.487	0.03
468.687	-0.08
468.887	-0.03
469.087	0.01
469.287	-0.07
469.488	-0.03
469.688	0.02
469.888	0.03
470.088	-0.03
470.288	0.02
470.488	0.08
470.688	-0.08
470.888	-0.02
471.088	-0.06
471.288	0.03
471.488	0.03
471.688	0
471.888	-0.01
472.088	0.03
472.288	0.04
472.488	-0.06
472.688	-0.06
472.888	0.02
473.088	0.03
473.288	-0
473.488	-0.02
473.688	0.08
473.887	-0.02
474.087	-0.07
474.287	0.02
474.487	-0.04
474.687	-0.04
474.886	-0.03
475.086	-0
475.286	0.01
475.486	-0
475.685	-0.01
475.885	-0.02
476.085	0.03
476.284	-0
476.484	-0.06
476.684	-0.01
476.883	0.03
477.083	0.02
477.282	-0.06
477.482	0.08
477.681	0.08
477.881	-0.02
478.08	-0.06
478.28	-0.03
478.479	0.03
478.679	0.04
478.878	-0.03
479.078	-0.03
479.277	-0.01
479.477	-0
479.676	0.03
479.875	-0.01
480.075	-0.07
480.274	0.01
480.473	0
480.673	-0.05
480.872	0.03
481.071	-0.01
481.271	-0.01
481.47	-0.02
481.669	-0.02
481.868	0.01
482.067	-0.05
482.267	-0.01
482.466	-0.02
482.665	-0.04
482.864	-0.05
483.063	-0.06
483.262	-0.01
483.461	0.04
483.661	0.01
483.86	-0.02
484.059	0.01
484.258	-0.02
484.457	-0.02
484.656	0.01
484.855	0.02
485.054	-0.05
485.253	-0.02
485.452	-0.04
485.651	-0.02
485.849	-0.02
486.048	-0.02
486.247	-0.02
486.446	0.01
486.645	-0.06
486.844	-0.03
487.043	-0.01
487.241	0.04
487.44	-0.03
487.639	-0.03
487.838	0.03
488.037	0.01
488.235	0.06
488.434	-0.03
488.633	-0.03
488.831	0.01
489.03	0.03
489.229	-0.03
489.427	-0.03
489.626	0.04
489.825	0.07
490.023	-0.01
490.222	-0.05
490.42	0.05
490.619	0.02
490.817	-0.01
491.016	-0.03
491.214	0.02
491.413	-0.02
491.611	-0.02
491.81	0.01
492.008	0.01
492.207	0.02
492.405	0
492.604	-0.05
492.802	-0.04
493	0
493.199	-0.02
493.397	0.01
493.595	-0.01
493.794	-0.04
493.992	0.05
494.19	-0.01
494.388	0
494.587	-0.01
494.785	-0.01
494.983	-0.05
495.181	0.02
495.379	-0.01
495.578	-0.03
495.776	-0
495.974	0.01
496.172	0
496.37	-0.02
496.568	-0.04
496.766	-0.02
496.964	0.02
497.162	-0.01
497.36	-0.02
497.558	0.01
497.756	0.03
497.954	-0.02
498.152	-0.03
498.35	-0.01
498.548	-0
498.746	-0.03
498.944	-0.05
499.142	-0.03
499.34	-0.04
499.538	-0.01
499.736	-0.02
499.933	0.02
500.131	0.03
500.329	-0.01
500.527	0.01
500.725	0.01
500.922	0.01
501.12	-0.01
501.318	-0.02
501.516	-0.03
501.713	0
501.911	-0.03
502.109	-0.06
502.306	-0.01
502.504	0
502.701	-0.04
502.899	-0
503.097	0.02
503.294	0.02
503.492	-0.02
503.689	-0.01
503.887	0.02
504.084	0.07
504.282	-0
504.479	-0.04
504.677	-0.01
504.874	-0.03
505.072	0.01
505.269	-0.04
505.466	0.02
505.664	0.01
505.861	-0.04
506.059	-0.02
506.256	-0.02
506.453	-0.01
506.651	0.05
506.848	0.02
507.045	0.01
507.242	-0.01
507.44	-0.03
507.637	-0.01
507.834	-0.02
508.031	0.01
508.229	-0.04
508.426	0.01
508.623	0.01
508.82	-0.03
509.017	-0.04
509.214	-0.01
509.411	0.01
509.608	-0.01
509.805	-0
510.003	-0.03
510.2	-0.03
510.397	0.02
510.594	-0.02
510.791	-0.01
510.988	-0.02
511.184	0.04
511.381	-0.02
511.578	-0.03
511.775	0.04
511.972	-0.02
512.169	-0.01
512.366	-0.01
512.563	0.03
512.76	-0.02
512.956	0.01
513.153	-0.03
513.35	0.01
513.547	-0.03
513.744	-0.02
513.94	-0.04
514.137	0.01
514.334	-0
514.53	-0.01
514.727	-0.01
514.924	0.06
515.12	-0.01
515.317	-0.03
515.514	-0.02
515.71	-0.02
515.907	0
516.103	-0.01
516.3	0
516.497	0.02
516.693	0.02
516.89	0
517.086	-0.04
517.283	0
517.479	-0.01
517.676	-0.02
517.872	0
518.068	-0.01
518.265	-0.02
518.461	-0.02
518.658	-0.03
518.854	0.01
519.05	-0.01
519.247	-0.04
519.443	0
519.639	-0
519.836	-0.02
520.032	0
520.228	-0.01
520.424	0.02
520.621	-0.01
520.817	-0
521.013	0.01
521.209	0.02
521.405	0.03
521.601	0
521.798	0
521.994	0.04
522.19	-0.02
522.386	-0.04
522.582	0.01
522.778	-0.02
522.974	-0.04
523.17	-0.01
523.366	0.03
523.562	0.02
523.758	-0
523.954	-0.02
524.15	-0.03
524.346	0.03
524.542	-0.02
524.738	-0.03
524.934	-0.01
525.129	-0.01
525.325	-0
525.521	0
525.717	0.02
525.913	-0.01
526.109	-0.01
526.304	-0.01
526.5	0
526.696	0
526.892	-0.02
527.087	-0.01
527.283	-0.03
527.479	0.03
527.674	-0.02
527.87	-0.03
528.066	-0.03
528.261	0.01
528.457	0
528.653	-0.02
528.848	-0.03
529.044	-0.01
529.239	-0.01
529.435	0.03
529.63	0.01
529.826	0.03
530.021	0
530.217	0.02
530.412	-0.01
530.608	-0.04
530.803	-0
530.999	-0
531.194	-0.05
531.389	-0.01
531.585	-0.05
531.78	-0.01
531.975	0.01
532.171	0.02
532.366	-0.02
532.561	-0.01
532.757	-0.04
532.952	-0.01
533.147	0.01
533.342	-0.03
533.538	-0.02
533.733	0.02
533.928	-0
534.123	-0.01
534.318	-0.05
534.513	-0.03
534.709	0
534.904	-0.03
535.099	-0.02
535.294	-0.01
535.489	0
535.684	-0.03
535.879	-0.04
536.074	0
536.269	-0.01
536.464	-0.02
536.659	-0.03
536.854	-0.03
537.049	-0.01
537.244	-0.02
537.439	-0.02
537.634	0.03
537.828	0.01
538.023	-0.03
538.218	-0.05
538.413	-0.02
538.608	-0.04
538.803	0
538.997	-0.04
539.192	0.02
539.387	-0.01
539.582	-0.01
539.776	0
539.971	-0.01
540.166	-0.01
540.36	-0.03
540.555	-0.02
540.75	-0.03
540.944	-0
541.139	-0.06
541.334	-0
541.528	0.02
541.723	0.01
541.917	-0.04
542.112	-0.04
542.306	-0
542.501	-0.01
542.695	-0.01
542.89	-0.03
543.084	-0.01
543.279	-0.02
543.473	0
543.668	-0
543.862	0
544.056	0.02
544.251	-0.02
544.445	0
544.64	-0.01
544.834	-0.05
545.028	-0.01
545.222	-0.01
545.417	0.03
545.611	0
545.805	-0
546	-0.04
546.194	-0.02
546.388	-0.04
546.582	0
546.776	-0
546.97	-0
547.165	0
547.359	0.03
547.553	-0.02
547.747	-0.01
547.941	0
548.135	-0.02
548.329	0.02
548.523	0.01
548.717	-0.02
548.911	-0.02
549.105	0
549.299	0.01
549.493	-0
549.687	0.03
549.881	-0.01
550.075	-0
550.269	-0.04
550.463	0.03
550.657	-0.02
550.85	-0.01
551.044	-0.01
551.238	-0.01
551.432	-0.01
551.626	-0.04
551.82	0
552.013	-0.03
552.207	0.01
552.401	0.01
552.594	-0.02
552.788	-0.02
552.982	-0
553.176	-0.02
553.369	-0
553.563	0.02
553.756	-0.05
553.95	-0.02
554.144	-0.02
554.337	0
554.531	-0.01
554.724	-0.01
554.918	-0.02
555.111	0
555.305	-0.02
555.498	0.03
555.692	0.01
555.885	-0.03
556.079	-0.03
556.272	-0.02
556.466	0.01
556.659	0.01
556.852	-0.02
557.046	-0.01
557.239	0.02
557.432	-0.03
557.626	-0.03
557.819	-0.02
558.012	0.02
558.206	-0
558.399	0.01
558.592	-0
558.785	-0.01
558.979	0.01
559.172	-0.03
559.365	-0
559.558	0.01
559.751	-0.01
559.944	0
560.138	-0.02
560.331	0
560.524	-0.02
560.717	-0.01
560.91	-0
561.103	0.03
561.296	0
561.489	0
561.682	-0
561.875	0.03
562.068	0.01
562.261	0.01
562.454	0.02
562.647	-0
562.84	-0
563.032	-0.01
563.225	0.02
563.418	-0.02
563.611	-0.03
563.804	0.01
563.997	-0.04
564.19	-0.04
564.382	0.01
564.575	-0.01
564.768	-0
564.961	-0.02
565.153	-0.02
565.346	0.02
565.539	0
565.731	0.01
565.924	0.01
566.117	0.02
566.309	-0
566.502	-0.03
566.695	-0.01
566.887	-0.01
567.08	-0.03
567.272	-0.03
567.465	-0.01
567.657	-0.01
567.85	-0
568.042	0
568.235	0.03
568.427	-0.02
568.62	0.01
568.812	0.01
569.005	-0.02
569.197	-0.06
569.389	-0
569.582	0.01
569.774	0.01
569.966	-0.04
570.159	-0.02
570.351	0.01
570.543	-0.01
570.736	-0.02
570.928	-0.03
571.12	0.01
571.312	-0.01
571.505	-0.05
571.697	0.02
571.889	-0.02
572.081	-0.03
572.273	-0.04
572.465	0.04
572.658	-0.02
572.85	-0.02
573.042	-0.03
573.234	-0.01
573.426	0.03
573.618	-0.04
573.81	0
574.002	0.03
574.194	0.05
574.386	-0.06
574.578	-0.09
574.77	-0.02
574.962	-0.02
575.154	-0.04
575.346	-0.02
575.538	0
575.729	-0.02
575.921	-0.03
576.113	-0.02
576.305	0.02
576.497	-0.02
576.689	-0.02
576.88	-0.04
577.072	0.02
577.264	0
577.456	-0.03
577.647	-0.07
577.839	0.02
578.031	0.02
578.223	-0.06
578.414	-0.04
578.606	0.01
578.798	0
578.989	-0.04
579.181	-0.02
579.372	-0.01
579.564	-0.01
579.755	-0.01
579.947	-0.01
580.139	-0.02
580.33	-0.04
580.522	-0.04
580.713	-0.08
580.905	-0
581.096	0.02
581.287	-0
581.479	-0.02
581.67	0.01
581.862	-0.04
582.053	-0.03
582.244	-0.05
582.436	-0.02
582.627	0
582.818	-0.03
583.01	-0.05
583.201	0.01
583.392	0.02
583.583	0
583.775	-0.03
583.966	-0.02
584.157	-0.03
584.348	-0.02
584.54	-0.08
584.731	0.03
584.922	-0.01
585.113	-0.06
585.304	-0
585.495	0.02
585.686	-0.01
585.877	0.03
586.068	-0.01
586.259	0
586.45	-0.02
586.641	-0.03
586.832	-0.08
587.023	0
587.214	0.01
587.405	-0.01
587.596	-0.05
587.787	0.01
587.978	-0
588.169	-0.04
588.36	-0.04
588.551	0.01
588.742	-0.02
588.932	0
589.123	0
589.314	0.02
589.505	0
589.696	0
589.886	-0.05
590.077	-0.05
590.268	0.01
590.458	-0.04
590.649	-0.07
590.84	0.03
591.03	-0.03
591.221	-0.02
591.412	-0.06
591.602	0.02
591.793	0.03
591.984	-0.04
592.174	-0.02
592.365	0.08
592.555	-0.05
592.746	0.02
592.936	-0
593.127	0.01
593.317	0
593.508	-0.02
593.698	-0.02
593.889	-0.01
594.079	0.02
594.269	-0.04
594.46	-0.03
594.65	-0.01
594.84	-0.01
595.031	-0.05
595.221	-0.03
595.411	-0.08
595.602	0.02
595.792	-0.01
595.982	-0.03
596.172	0.05
596.363	-0.03
596.553	-0.01
596.743	-0.02
596.933	-0.01
597.123	0.02
597.314	-0.05
597.504	-0.04
597.694	0.05
597.884	0
598.074	-0.01
598.264	-0.03
598.454	0
598.644	-0.02
598.834	-0.05
599.024	-0.08
599.214	-0.02
599.404	0.04
599.594	-0.04
599.784	-0.03
599.974	0.05
600.164	0.03
600.354	-0.04
600.544	-0.06
600.734	0.01
600.924	0.02
601.114	-0.03
601.303	-0.01
601.493	0
601.683	-0.02
601.873	-0.02
602.063	-0.05
602.252	0.02
602.442	-0.04
602.632	-0.04
602.821	-0.05
603.011	-0.02
603.201	-0.02
603.39	-0.03
603.58	-0.04
603.77	-0
603.959	0.03
604.149	0.01
604.339	0.01
604.528	-0
604.718	0.02
604.907	-0.03
605.097	-0.04
605.286	-0.05
605.476	0
605.665	0.01
605.855	-0.02
606.044	0.05
606.234	0.01
606.423	-0.01
606.612	-0.06
606.802	-0.02
606.991	0
607.181	-0.01
607.37	-0.07
607.559	0
607.749	-0.05
607.938	-0.03
608.127	-0.04
608.316	-0.07
608.506	0.01
608.695	-0.02
608.884	-0.04
609.073	-0.02
609.263	-0
609.452	-0.01
609.641	0.02
609.83	-0.05
610.019	0
610.208	-0.03
610.397	-0.02
610.586	0.02
610.775	-0.03
610.965	-0.04
611.154	-0.05
611.343	0.01
611.532	-0
611.721	-0.02
611.91	-0.04
612.099	0.01
612.287	-0.02
612.476	-0.05
612.665	0.01
612.854	-0.04
613.043	0.03
613.232	-0.02
613.421	-0.06
613.61	-0.03
613.798	-0.05
613.987	0.02
614.176	-0.03
614.365	0.02
614.554	-0.02
614.742	0.03
614.931	-0.05
615.12	0.04
615.309	-0
615.497	0
615.686	-0.03
615.875	-0.03
616.063	0.02
616.252	-0.04
616.44	-0.04
616.629	0.01
616.818	0.03
617.006	-0.02
617.195	-0.04
617.383	0.01
617.572	0.02
617.76	-0.02
617.949	-0.02
618.137	0.02
618.326	0.01
618.514	-0.05
618.703	-0.04
618.891	0.04
619.079	-0.06
619.268	-0
619.456	-0.06
619.644	0.04
619.833	0.02
620.021	-0.05
620.209	-0.09
620.398	-0.01
620.586	0
620.774	0
620.962	-0.01
621.151	0.05
621.339	0.01
621.527	-0.03
621.715	-0.06
621.903	-0.05
622.092	-0.07
622.28	-0.02
622.468	-0.03
622.656	0.01
622.844	0.02
623.032	-0.05
623.22	-0.06
623.408	0
623.596	-0.02
623.784	-0.01
623.972	-0.05
624.16	-0.03
624.348	0.01
624.536	-0.01
624.724	-0.05
624.912	0.03
625.1	0.01
625.288	-0.07
625.476	-0.04
625.664	0.01
625.851	-0.06
626.039	-0.04
626.227	-0.01
626.415	-0.01
626.603	-0.08
626.79	-0.03
626.978	-0
627.166	-0.02
627.354	-0.03
627.541	-0.04
627.729	-0.1
627.917	0.01
628.104	0.03
628.292	-0.02
628.48	-0.05
628.667	0.02
628.855	-0
629.042	0.02
629.23	-0.04
629.418	-0.01
629.605	-0.03
629.793	-0.02
629.98	-0.05
630.168	0
630.355	-0.05
630.543	0.01
630.73	-0.04
630.917	0.02
631.105	0.04
631.292	-0.04
631.48	-0.03
631.667	0.08
631.854	0
632.042	-0.02
632.229	-0.06
632.416	-0.02
632.604	-0.02
632.791	-0.05
632.978	-0
633.165	0.01
633.353	0.04
633.54	0.02
633.727	-0.08
633.914	-0.03
634.101	-0.08
634.289	0.05
634.476	-0.04
634.663	-0.08
634.85	0.02
635.037	-0.1
635.224	-0.08
635.411	0.01
635.598	0
635.785	-0.01
635.972	-0.01
636.159	0.04
636.346	-0.08
636.533	0
636.72	-0.02
636.907	-0.03
637.094	0.04
637.281	-0.02
637.468	-0.01
637.655	-0.02
637.842	-0.01
638.029	-0.04
638.215	-0.02
638.402	0.01
638.589	-0.06
638.776	-0.03
638.963	-0.02
639.149	0.03
639.336	0.05
639.523	-0.02
639.709	-0.05
639.896	-0.03
640.083	0.08
640.27	0.02
640.456	-0.04
640.643	0.01
640.829	-0.05
641.016	-0.02
641.203	-0.08
641.389	0.03
641.576	0.02
641.762	-0.01
641.949	-0.05
642.135	0.01
642.322	-0.02
642.508	-0.08
642.695	-0.02
642.881	-0.04
643.068	-0.02
643.254	-0.01
643.441	0.03
643.627	-0.04
643.813	-0.06
644	0.02
644.186	-0.01
644.372	0.02
644.559	0.03
644.745	-0
644.931	-0.06
645.118	-0.02
645.304	-0.02
645.49	-0.05
645.676	-0.03
645.862	-0.03
646.049	0.07
646.235	-0.02
646.421	0.07
646.607	0.05
646.793	-0.04
646.979	-0.06
647.165	-0.03
647.352	-0
647.538	0.05
647.724	-0.02
647.91	-0.05
648.096	0.04
648.282	0.01
648.468	0.01
648.654	-0.02
648.84	-0.03
649.026	-0.03
649.212	0.01
649.397	-0.04
649.583	-0.07
649.769	0
649.955	0.01
650.141	-0.02
650.327	0.04
650.513	-0.06
650.698	0.02
650.884	-0.1
651.07	0.01
651.256	-0.03
651.442	-0.04
651.627	-0.02
651.813	-0.02
651.999	-0
652.184	-0.01
652.37	-0.01
652.556	-0.06
652.741	0.05
652.927	-0.09
653.113	0.01
653.298	-0.01
653.484	-0.04
653.669	-0.05
653.855	0
654.04	-0.01
654.226	0.03
654.412	-0.06
654.597	-0.08
654.782	-0.02
654.968	0.04
655.153	0.01
655.339	-0.06
655.524	-0.07
655.71	0.01
655.895	-0.06
656.08	0
656.266	0.04
656.451	-0.03
656.636	-0.04
656.822	0
657.007	-0.06
657.192	-0.03
657.378	-0.05
657.563	-0
657.748	-0
657.933	-0.02
658.118	-0.04
658.304	-0.04
658.489	0.02
658.674	-0.04
658.859	-0.06
659.044	-0.01
659.229	0.01
659.414	-0.02
659.599	-0.05
659.785	-0.02
659.97	-0.05
660.155	-0.01
660.34	-0.02
660.525	-0.05
660.71	-0.02
660.895	0.01
661.08	-0.02
661.264	-0.06
661.449	0.04
661.634	0.03
661.819	-0.01
662.004	0.03
662.189	-0.1
662.374	-0.01
662.559	-0.06
662.743	-0.1
662.928	-0.01
663.113	-0.03
663.298	-0.08
663.483	-0.04
663.667	0
663.852	-0.06
664.037	-0.01
664.221	-0.06
664.406	0.02
664.591	0.02
664.775	-0.02
664.96	-0.05
665.145	-0.02
665.329	0.01
665.514	-0.02
665.698	-0.02
665.883	-0.09
666.068	0.05
666.252	-0.02
666.437	-0.06
666.621	-0.03
666.806	0.05
666.99	-0.01
667.174	-0.08
667.359	0.04
667.543	-0.05
667.728	-0.04
667.912	-0.05
668.096	0
668.281	-0.04
668.465	-0.03
668.649	-0
668.834	-0.06
669.018	-0.01
669.202	-0.02
669.387	-0.07
669.571	0.02
669.755	-0.01
669.939	-0
670.124	-0.03
670.308	0.03
670.492	-0
670.676	-0.03
670.86	-0.05
671.044	-0.03
671.228	0.02
671.413	-0.03
671.597	-0.06
671.781	-0.06
671.965	0.01
672.149	-0.01
672.333	-0.05
672.517	-0.03
672.701	0.03
672.885	-0.04
673.069	-0.1
673.253	0.05
673.437	-0.06
673.621	-0.01
673.804	-0.03
673.988	-0.03
674.172	-0.02
674.356	-0.08
674.54	-0.03
674.724	0.09
674.908	-0.02
675.091	-0
675.275	-0.03
675.459	0.02
675.643	0.07
675.826	0.01
676.01	-0
676.194	0.01
676.377	0.02
676.561	0.02
676.745	-0.01
676.928	-0.02
677.112	-0.01
677.296	-0.04
677.479	-0.07
677.663	-0.04
677.846	0.02
678.03	-0.02
678.213	-0.06
678.397	-0.04
678.58	-0
678.764	-0.05
678.947	-0.07
679.131	-0.07
679.314	0.05
679.498	-0.05
679.681	-0.01
679.865	0.01
680.048	-0.01
680.231	-0.02
680.415	0.02
680.598	-0.01
680.781	-0.05
680.965	-0.03
681.148	-0
681.331	-0.07
681.514	0.03
681.698	-0.01
681.881	-0.04
682.064	-0.05
682.247	0.01
682.43	-0.13
682.614	-0
682.797	0.05
682.98	0.02
683.163	-0.07
683.346	-0.02
683.529	-0.04
683.712	-0.05
683.895	-0.01
684.078	-0.07
684.261	-0.03
684.444	0.02
684.627	0
684.81	-0.08
684.993	-0
685.176	-0.01
685.359	-0.07
685.542	-0.06
685.725	0.08
685.908	-0.07
686.091	-0.04
686.274	-0.02
686.457	0.01
686.639	-0.04
686.822	-0
687.005	-0.05
687.188	0
687.371	0.06
687.553	-0.01
687.736	0
687.919	0.1
688.102	0.1
688.284	-0.03
688.467	-0.05
688.65	-0.01
688.832	-0.06
689.015	-0.06
689.197	-0.07
689.38	0.07
689.563	0.08
689.745	-0.08
689.928	-0.03
690.11	-0.05
690.293	-0
690.475	-0.09
690.658	0.02
690.84	-0.05
691.023	-0.03
691.205	-0.03
691.388	-0.02
691.57	0.01
691.752	-0.01
691.935	-0.13
692.117	-0.08
692.3	0.01
692.482	-0.02
692.664	-0.07
692.847	0.02
693.029	0.05
693.211	0.01
693.393	-0.05
693.576	-0.06
693.758	-0
693.94	-0.07
694.122	-0.03
694.304	-0.05
694.487	-0.04
694.669	0.08
694.851	-0.06
695.033	0.03
695.215	-0.04
695.397	-0.02
695.579	0.03
695.761	-0.09
695.943	-0.13
696.125	0.03
696.308	-0.01
696.49	-0.14
696.671	0.09
696.853	-0.04
697.035	0.13
697.217	-0.01
697.399	0.03
697.581	-0.07
697.763	-0.01
697.945	-0.08
698.127	-0.01
698.309	-0.01
698.491	-0.05
698.672	-0.01
698.854	-0.02
699.036	0.08
699.218	-0.01
699.399	0.07
699.581	-0.01
699.763	-0.03
699.945	-0.07
700.126	-0.04
700.308	-0.06
700.49	-0.02
700.671	-0.14
700.853	-0.05
701.035	0.01
701.216	0.01
701.398	-0.08
701.579	-0.03
701.761	0.03
701.943	-0.01
702.124	-0.04
702.306	-0.05
702.487	0.08
702.669	-0.05
702.85	-0.06
703.031	-0.08
703.213	0.09
703.394	0.07
703.576	-0
703.757	0.08
703.938	0.02
704.12	0.22
704.301	-0.01
704.483	-0.03
704.664	-0.04
704.845	0.05
705.026	0.04
705.208	0.04
705.389	0.01
705.57	0.02
705.751	-0.03
705.933	-0.04
706.114	0.04
706.295	0.05
706.476	-0.13
706.657	0.09
706.838	-0.03
707.02	0.07
707.201	-0.01
707.382	-0.08
707.563	0.01
707.744	-0.03
707.925	-0.1
708.106	-0.13
708.287	-0
708.468	0.15
708.649	-0.01
708.83	0.04
709.011	-0.01
709.192	-0.03
709.373	-0.01
709.554	0
709.734	-0.03
709.915	0.06
710.096	-0.04
710.277	-0.15
710.458	-0.04
710.639	0.02
710.819	-0.11
711	-0.02
711.181	0.04
711.362	0.06
711.542	-0.08
711.723	0.02
711.904	0.04
712.085	0.03
712.265	0.02
712.446	-0.06
712.627	-0.02
712.807	-0.01
712.988	-0.01
713.168	-0.05
713.349	0.03
713.53	-0.17
713.71	-0.08
713.891	-0.12
714.071	-0.04
714.252	-0.06
714.432	-0.03
714.613	-0.07
714.793	-0.02
714.974	0.17
715.154	0.07
715.334	0.05
715.515	0.08
715.695	-0.08
715.876	-0.03
716.056	-0.05
716.236	-0.05
716.417	0.03
716.597	-0.08
716.777	0.16
716.957	0
717.138	0.01
717.318	-0
717.498	-0.11
717.678	-0.02
717.859	0.06
718.039	-0.09
718.219	0.01
718.399	-0.01
718.579	-0.1
718.759	-0.04
718.939	-0.07
719.12	-0.06
719.3	0.04
719.48	-0.16
719.66	-0.18
719.84	0.1
720.02	-0.01
720.2	-0.07
720.38	-0.1
720.56	0.12
720.74	-0.1
720.92	-0.08
721.1	0.03
721.279	0.09
721.459	0.05
721.639	-0.1
721.819	-0.04
721.999	-0.07
722.179	-0.03
722.359	-0.14
722.538	-0.01
722.718	-0.05
722.898	-0.05
723.078	-0.05
723.257	-0.08
723.437	-0.02
723.617	-0.02
723.797	-0.03
723.976	-0.04
724.156	-0.04
724.336	0.03
724.515	0.09
724.695	-0.17
724.874	-0.06
725.054	-0.1
725.234	-0.12
725.413	0.01
725.593	-0.02
725.772	-0.05
725.952	-0.01
726.131	-0.01
726.311	-0.03
726.49	-0.01
726.67	-0.16
726.849	-0.01
727.028	-0.05
727.208	-0.01
727.387	0.07
727.567	-0.12
727.746	-0.08
727.925	-0.09
728.105	-0.15
728.284	-0.12
728.463	-0.22
728.643	0.01
728.822	-0.15
729.001	-0.11
729.18	-0.04
729.359	0
729.539	-0.05
729.718	-0.04
729.897	0.02
730.076	-0.06
730.255	-0.14
730.434	-0
730.614	-0.02
730.793	-0.01
730.972	-0.08
731.151	-0.08
731.33	0.02
731.509	0.09
731.688	-0.03
731.867	-0
732.046	-0.22
732.225	0.14
732.404	-0.05
732.583	-0.15
732.762	0
732.941	0.06
733.12	0.07
733.298	-0.01
733.477	0.1
733.656	0
733.835	-0.1
734.014	0.03
734.193	-0.05
734.371	0
734.55	0
734.729	-0.13
734.908	-0.14
735.086	-0.01
735.265	0.07
735.444	-0.24
735.623	-0.11
735.801	-0.08
735.98	-0.03
736.159	-0.03
736.337	0.02
736.516	-0
736.694	0
736.873	-0.1
737.052	0.09
737.23	0.19
737.409	-0.12
737.587	0.18
737.766	-0.12
737.944	-0.06
738.123	-0.08
738.301	-0.04
738.479	-0.06
738.658	-0.12
738.836	-0.22
739.015	-0.06
739.193	0.08
739.371	-0.11
739.55	-0
739.728	-0.15
739.906	0.21
740.085	0.2
740.263	0.02
740.441	-0.19
740.62	0.21
740.798	0.11
740.976	-0.21
741.154	-0.14
741.332	0.17
741.511	-0.05
741.689	-0.07
741.867	0.02
742.045	-0.05
742.223	-0.02
742.401	-0.09
742.579	-0.1
742.757	0.02
742.935	-0.07
743.114	-0.14
743.292	-0.04
743.47	-0.03
743.648	-0.05
743.826	0.02
744.004	-0.02
744.181	-0.01
744.359	-0.08
744.537	-0.02
744.715	-0.07
744.893	-0.04
745.071	-0.06
745.249	0.01
745.427	-0.06
745.605	0.01
745.782	-0
745.96	0.06
746.138	0.03
746.316	0.13
746.493	0
746.671	-0.12
746.849	-0.11
747.027	0.17
747.204	-0.08
747.382	0.02
747.56	-0.23
747.737	-0.04
747.915	-0.05
748.093	-0.06
748.27	-0.15
748.448	-0.05
748.625	-0.13
748.803	-0.14
748.98	-0
749.158	0.07
749.335	0.1
749.513	-0.15
749.69	-0.12
749.868	-0.07
750.045	0.05
750.223	-0.15
750.4	-0.24
750.578	0.21
750.755	-0.09
750.932	-0.22
751.11	0.12
751.287	-0.22
751.464	0.04
751.642	-0.11
751.819	0.06
751.996	-0.08
752.173	-0.04
752.351	-0.11
752.528	-0.03
752.705	-0.07
752.882	-0.01
753.06	-0.03
753.237	0.03
753.414	0.24
753.591	0.11
753.768	0.01
753.945	-0.1
754.122	-0.05
754.299	0.04
754.476	-0.11
754.654	0.07
754.831	0.1
755.008	0.01
755.185	-0.06
755.362	-0.25
755.539	-0
755.716	-0.11
755.892	-0.11
756.069	-0.04
756.246	-0.02
756.423	-0.07
756.6	0.11
756.777	-0.1
756.954	0.03
757.131	-0.06
757.307	-0.14
757.484	-0.18
757.661	-0.02
757.838	-0.06
758.015	-0.16
758.191	0.01
758.368	0.01
758.545	0.13
758.721	0.03
758.898	-0.15
759.075	-0.03
759.251	0.06
759.428	0.01
759.605	-0.14
759.781	-0.06
759.958	0.04
760.134	-0.05
760.311	-0.03
760.488	0.15
760.664	0.12
760.841	-0.05
761.017	-0.07
761.194	0.05
761.37	0.08
761.547	0.07
761.723	-0.06
761.899	0.09
762.076	-0.17
762.252	-0.17
762.429	-0.09
762.605	0.11
762.781	0.08
762.958	0.06
763.134	-0.12
763.31	-0.05
763.486	0.12
763.663	-0.22
763.839	0
764.015	-0.26
764.191	-0.12
764.368	-0.22
764.544	-0.12
764.72	-0.01
764.896	-0.02
765.072	-0.03
765.248	0.02
765.425	-0.02
765.601	-0.04
765.777	-0.01
765.953	-0.22
766.129	-0.04
766.305	-0.09
766.481	0.02
766.657	-0.12
766.833	0.15
767.009	-0.17
767.185	-0.16
767.361	-0.09
767.537	-0.19
767.713	0.08
767.889	-0.13
768.065	-0.15
768.24	-0.2
768.416	0.04
768.592	-0.19
768.768	0.02
768.944	0.09
769.12	-0.21
769.295	-0.16
769.471	-0.06
769.647	-0.16
769.823	0.23
769.998	-0.05
770.174	-0.2
770.35	0.35
770.525	0.21
770.701	0.17
770.877	-0.05
771.052	-0.03
771.228	0.02
771.403	0.02
771.579	0.08
771.755	0.21
771.93	-0.17
772.106	-0.19
772.281	-0.27
772.457	0
772.632	0.09
772.808	-0.32
772.983	-0.17
773.159	-0.29
773.334	0.2
773.509	0.09
773.685	-0.15
773.86	0.32
774.036	0.19
774.211	0.03
774.386	-0.1
774.562	0.03
774.737	0.26
774.912	-0.23
775.087	-0.05
775.263	-0.08
775.438	0.01
775.613	-0.12
775.788	-0.2
775.964	0.1
776.139	0.24
776.314	-0.21
776.489	0.01
776.664	-0.01
776.839	-0.21
777.014	0.01
777.19	0.1
777.365	0.19
777.54	0.15
777.715	-0.11
777.89	0.03
778.065	-0.15
778.24	-0.09
778.415	0.09
778.59	-0.22
778.765	-0.23
778.94	0.03
779.115	-0.15
779.289	-0.04
779.464	0.05
779.639	-0.14
779.814	-0.18
779.989	-0.19
780.164	0.14
780.339	-0.08
780.513	-0.08
780.688	-0.19
780.863	-0.04
781.038	0.22
781.212	-0.22
781.387	0.01
781.562	0.29
781.737	0.03
781.911	0.01
782.086	-0.1
782.261	-0.16
782.435	0.25
782.61	-0.1
782.784	-0.02
782.959	0.17
783.134	-0.23
783.308	-0.35
783.483	-0.05
783.657	0.52
783.832	0.13
784.006	-0.3
784.181	0.01
784.355	0.04
784.53	0.07
784.704	-0.29
784.878	0.17
785.053	0.12
785.227	-0.11
785.402	0.39
785.576	-0.33
785.75	0.05
785.925	-0.05
786.099	0.14
786.273	-0.07
786.448	0.05
786.622	0.05
786.796	-0.08
786.97	-0.06
787.145	0.53
787.319	-0.25
787.493	-0.03
787.667	-0.37
787.841	0
788.015	0.4
788.19	-0.3
788.364	-0.17
788.538	0.12
788.712	0.21
788.886	-0.32
789.06	0.28
789.234	0.13
789.408	-0.08
789.582	-0.19
789.756	-0.22
789.93	-0.19
790.104	-0.08
790.278	-0.26
790.452	-0.45
790.626	0.15
790.8	-0.12
790.973	0.04
791.147	0.29
791.321	0.3
791.495	0.07
791.669	-0.06
791.843	0.04
792.016	0.12
792.19	0.42
792.364	-0.32
792.538	0.33
792.711	0.2
792.885	-0.3
793.059	-0.23
793.233	-0.72
793.406	0.02
793.58	-0.11
793.754	0.04
793.927	-0.21
794.101	0.37
794.274	0.28
794.448	0.2
794.622	-0.1
794.795	0.24
794.969	-0.24
795.142	0.07
795.316	-0.26
795.489	-0.11
795.663	0.06
795.836	-0.06
796.009	-0.32
796.183	0.44
796.356	0.25
796.53	0.06
796.703	-0.05
796.876	0.35
797.05	-0.09
797.223	-0.07
797.396	-0.02
797.57	-0.04
797.743	0.58
797.916	0.11
798.09	0.15
798.263	0.24
798.436	0.38
798.609	-0.1
798.782	-0.2
798.956	0.04
799.129	-0.07
799.302	-0.14
799.475	-0.33
799.648	-0.07
799.821	-0.53
799.994	0.1
800.167	-0.5
800.34	-0.02
800.514	0.02
800.687	-0.11
800.86	-0.43
801.033	-0.03
801.206	-0.05
801.379	-0.19
801.551	0.3
801.724	-0.01
801.897	0.37
802.07	-0.18
802.243	-0.24
802.416	-0.17
802.589	-0.06
802.762	-0.11
802.935	-0.08
803.107	-0.01
803.28	0.18
803.453	0.23
803.626	-0.28
803.798	-0.36
803.971	-0.33
804.144	0.09
804.317	0.1
804.489	0.19
804.662	-0.05
804.835	-0.08
805.007	-0.23
805.18	0.44
805.353	-0.17
805.525	-0.25
805.698	-0.43
805.87	0.2
806.043	0.35
806.215	-0.36
806.388	-0.13
806.56	-0.05
806.733	0.28
806.905	-0.07
807.078	-0.14
807.25	-0.27
807.423	0.13
807.595	-0.19
807.768	-0.07
807.94	0.24
808.112	-0.22
808.285	-0.11
808.457	0.1
808.629	-0.32
808.802	0.14
808.974	-0.07
809.146	-0.15
809.318	-0.38
809.491	-0.12
809.663	0.11
809.835	-0.52
810.007	0.04
810.18	0.19
810.352	-0.32
810.524	-0.27
810.696	0.11
810.868	0.69
811.04	-0.41
811.212	0.05
811.384	0.31
811.556	0.01
811.728	-0.22
811.901	0.46
812.073	-0.28
812.245	0.26
812.417	0.23
812.589	-0.57
812.76	0.12
812.932	0.36
813.104	0.15
813.276	-0.15
813.448	0.26
813.62	0.11
813.792	-0.15
813.964	-0.08
814.136	0.08
814.307	-0.2
814.479	-0.38
814.651	-0.09
814.823	0.76
814.995	-0.17
815.166	0.07
815.338	-0.34
815.51	-0.5
815.681	0.89
815.853	-0.14
816.025	-0.36
816.196	0.89
816.368	0.21
816.54	-0.33
816.711	-0.22
816.883	0.23
817.054	0.74
817.226	-0.6
817.398	-0.08
817.569	-0.44
817.741	-0.19
817.912	-0.12
818.084	-0.24
818.255	0.54
818.426	-0.26
818.598	0.22
818.769	-0.41
818.941	0.73
819.112	0.83
819.283	-0.18
819.455	-0.73
819.626	-0.06
819.798	0.48
819.969	-0.01
820.14	-0.17
820.311	-0.25
820.483	0.44
820.654	0.15
820.825	-0.35
820.996	-0.4
821.168	-0.38
821.339	-0.01
821.51	-0.52
821.681	-0.47
821.852	0.41
822.023	-0.39
822.195	-0.59
822.366	0.49
822.537	0.08
822.708	0.04
822.879	-0.25
823.05	1.1
823.221	0.19
823.392	0.15
823.563	0.4
823.734	-0.25
823.905	-0.17
824.076	-0.45
824.247	-0.24
824.418	-0.24
824.589	0.54
824.759	0.1
824.93	-0.11
825.101	-0.97
825.272	0.2
825.443	-0.01
825.614	0.45
825.784	-1.23
825.955	0.95
826.126	0.57
826.297	-0.08
826.467	0.67
826.638	0.45
826.809	-0.6
826.98	0.08
827.15	0.33
827.321	-0.17
827.492	0.47
827.662	0.16
827.833	0.94
828.003	0.36
828.174	-0.68
828.345	-0.75
828.515	1.19
828.686	-0.13
828.856	-0.14
829.027	-0.03
829.197	0.18
829.368	0.23
829.538	-0.65
829.709	-0.59
829.879	0.18
830.049	0.04
830.22	-0.14
830.39	-0.44
830.56	0.42
830.731	-0.34
830.901	-0.58
831.072	-0.09
831.242	0.21
831.412	0.62
831.582	0.03
831.753	-1.08
831.923	0.36
832.093	0.25
832.263	0.02
832.434	-0.7
832.604	-0.36
832.774	0.96
832.944	-0.58
833.114	-0.92
833.284	0.29
833.454	-0.38
833.624	-0.51
833.795	-0.68
833.965	0.43
834.135	0.6
834.305	-1.06
834.475	-0.95
834.645	-0.09
834.815	-0.66
834.985	0.04
835.155	-0.57
835.325	0.03
835.494	0.67
835.664	-0.41
835.834	-0.91
836.004	-0.04
836.174	0.2
836.344	-0.17
836.514	-0.6
836.684	-0.77
836.853	0.11
837.023	-0.41
837.193	-0.35
837.363	0.18
837.532	0.61
837.702	-0.55
837.872	-0.73
838.041	1
838.211	0.99
838.381	-0.69
838.55	0.29
838.72	2
838.89	1.25
839.059	-0.56
839.229	-0.45
839.398	1.86
839.568	-0.24
839.738	-0.02
839.907	0.64
840.077	0.14
840.246	-0.54
840.416	-0.51
840.585	-0.3
840.755	1.07
840.924	0.58
841.093	-1.11
841.263	-0.18
841.432	-0.03
841.602	-0.78
841.771	-0.64
841.94	-0.03
842.11	0.99
842.279	0.66
842.448	-0.63
842.617	-0.92
842.787	1
842.956	-0.49
843.125	-0.04
843.294	0.41
843.464	0.18
843.633	0.25
843.802	-1.03
843.971	0.37
844.14	0.42
844.309	1.56
844.479	-0.87
844.648	-0.75
844.817	0.17
844.986	-0.3
845.155	-1.36
845.324	-0.62
845.493	-0.45
845.662	-1.32
845.831	0.52
846	-0.73
846.169	-0.04
846.338	1.65
846.507	0.03
846.676	0.56
846.844	-0.61
847.013	0.68
847.182	-0.25
847.351	-0.81
847.52	-0.51
847.689	-0.3
847.858	0.07
848.026	-0.83
848.195	0.11
848.364	-0.89
848.533	-0.62
848.701	-0.75
848.87	-0.25
849.039	0.99
849.207	0.72
849.376	0.84
849.545	1.25
849.713	-0.6
849.882	-0.32
850.051	-0.34
850.219	0.01
850.388	0.92
850.556	-0.29
850.725	-1.35
850.893	0.12
851.062	0.12
851.23	0.21
851.399	-2.06
851.567	0.02
851.736	-0
851.904	-1
852.073	-0.6
852.241	1.34
852.41	-1.47
852.578	0.4
852.746	-0.78
852.915	0.46
853.083	0.65
853.251	-1.55
853.42	-0.69
853.588	0.1
853.756	2.42
853.924	-0.23
854.093	-0.07
854.261	-0.13
854.429	-2.2
854.597	-0.91
854.765	-1.27
854.934	0.97
855.102	1.45
855.27	-0.62
855.438	0.54
855.606	0.38
855.774	0.59
855.942	-1.7
856.11	-1.68
856.278	-0.12
856.446	0.05
856.614	0.21
856.782	-0.55
856.95	1.22
857.118	0.39
857.286	0.69
857.454	-1.92
857.622	0.53
857.79	0.11
857.958	-0.94
858.126	-0.91
858.294	-2.45
858.462	-0.36
858.629	-0.8
858.797	-0.81
858.965	-0.36
859.133	-0.32
859.301	-1.36
859.468	-0.35
859.636	-1.24
859.804	1.6
859.971	0.82
860.139	-1.56
860.307	0.56
860.474	0.39
860.642	-1.38
860.81	-0.23
860.977	-1.94
861.145	0.9
861.313	-1.45
861.48	-0.55
861.648	1.26
861.815	-0.12
861.983	-2.16
862.15	-0.8
862.318	0.32
862.485	1.23
862.653	-1.12
862.82	-0.53
862.988	1.8
863.155	-0.34
863.322	0.05
863.49	-1.12
863.657	-1.41
863.824	1.36
863.992	1.47
864.159	-0.17
864.326	3.06
864.494	-1.47
864.661	1.18
864.828	-0.6
864.996	1.81
865.163	0.98
865.33	-1.28
865.497	-2.91
865.664	-1.3
865.832	-2.54
865.999	-2.17
866.166	-1.88
866.333	0.34
866.5	0.07
866.667	0.64
866.834	0.23
867.001	1.87
867.168	-2.6
867.335	-0.57
867.502	-1.59
867.669	0.51
867.836	1.11
868.003	-0.7
868.17	0.63
868.337	-0.22
868.504	2.3
868.671	-1.88
868.838	-1.32
869.005	1.34
869.172	1.82
869.339	0.28
869.505	-0.4
869.672	0.42
869.839	0.58
870.006	0.28
870.173	-1.5
870.339	1.51
870.506	2.28
870.673	-0.59
870.84	-0.27
871.006	1.2
871.173	-0.21
871.34	0.01
871.506	-1.66
871.673	0.12
871.839	-2.78
872.006	-1.66
872.173	-1.45
872.339	0.34
872.506	1.28
872.672	-0.41
872.839	-2.92
873.005	-0.44
873.172	1.76
873.338	-0.57
873.505	-1
873.671	0.35
873.838	0.3
874.004	-2.51
874.171	-2.31
874.337	1.23
874.503	0.73
874.67	-0.71
874.836	-1.9
875.002	1.72
875.169	1.12
875.335	-1.42
875.501	0.01
875.668	1.79
875.834	1.3
876	0.01
876.166	0.69
876.332	1
876.499	4.03
876.665	-0.66
876.831	-0.96
876.997	1.4
877.163	3.46
877.329	-2.26
877.495	0.21
877.662	0.25
877.828	-0.56
877.994	-1.08
878.16	-3.11
878.326	0.07
878.492	0.96
878.658	-1.54
878.824	1.85
878.99	1.35
879.156	-1.22
879.322	2.18
879.487	-0.77
879.653	0.14
879.819	0.91
879.985	-2.5
880.151	-0.25
880.317	-0.18
880.483	0.52
880.648	1.77
880.814	-2.45
880.98	-0.4
881.146	-2.77
881.312	-0.06
881.477	-0.89
881.643	0.89
881.809	1.16
881.974	2.7
882.14	-1.1
882.306	0.27
882.471	3.8
882.637	-0.44
882.803	-0.05
882.968	2.44
883.134	5.64
883.299	0.68
883.465	-0.38
883.63	2.03
883.796	0.05
883.961	2.06
884.127	0.25
884.292	-3.91
884.458	-1.52
884.623	-1.52
