Data from Apollo_Calib_20240827__AbsoluteIrradiance__315__04-24-02-445.txt Node

Date: Wed Aug 28 04:24:02 BST 2024
User: biology
Spectrometer: FLMT08252
Trigger mode: 0
Integration Time (sec): 5.000000E-1
Scans to average: 5
Electric dark correction enabled: true
Nonlinearity correction enabled: false
Boxcar width: 0
XAxis mode: Wavelengths
Number of Pixels in Spectrum: 3648
>>>>>Begin Spectral Data<<<<<
179.588	-0
179.809	-0
180.03	-0
180.251	-0
180.473	-0
180.694	0
180.915	0
181.136	-0
181.357	0
181.578	0
181.799	-0
182.02	-0
182.241	-0
182.462	-0
182.683	0
182.904	-0
183.125	-0
183.346	0
183.567	0
183.788	-0
184.009	-0
184.23	0
184.451	0
184.672	-0
184.892	-0
185.113	0
185.334	0
185.555	-0
185.776	-0
185.996	0
186.217	0
186.438	0
186.659	-0
186.879	-0
187.1	-0
187.321	-0
187.541	-0
187.762	0
187.983	0
188.203	-0
188.424	0
188.644	-0
188.865	-0
189.086	-0
189.306	-0
189.527	-0
189.747	0
189.968	-0
190.188	0
190.409	-0
190.629	0
190.849	-0
191.07	-0
191.29	0
191.511	-0
191.731	-0
191.951	-0
192.172	-0
192.392	-0
192.612	0
192.833	-0
193.053	0
193.273	0
193.493	-0
193.714	-0
193.934	0
194.154	0
194.374	0
194.594	0
194.815	-0
195.035	0
195.255	-0
195.475	-0
195.695	0
195.915	0
196.135	-0
196.355	0
196.575	0
196.795	0
197.015	-0
197.235	-0
197.455	-0
197.675	0
197.895	-0
198.115	-0
198.335	0
198.555	0
198.775	-0
198.995	0
199.214	0
199.434	-0
199.654	-0
199.874	0
200.094	1.65
200.313	-0.08
200.533	-0.63
200.753	-1.32
200.973	0.39
201.192	0.27
201.412	-0.93
201.632	-0.54
201.851	0.66
202.071	-0.54
202.291	-0.47
202.51	-0.67
202.73	0.46
202.95	-0.37
203.169	-0.75
203.389	-0.16
203.608	-0.18
203.828	-0.28
204.047	0.16
204.267	0.01
204.486	-0
204.706	0.04
204.925	-0.29
205.145	-0.26
205.364	0.37
205.583	1.04
205.803	-0.05
206.022	-0.83
206.242	0.07
206.461	-0.05
206.68	-0.46
206.9	0.26
207.119	0.53
207.338	0.91
207.557	-0.52
207.777	0.02
207.996	-0.36
208.215	0.38
208.434	-0.21
208.654	-0.41
208.873	0.12
209.092	0.71
209.311	-0.14
209.53	-0.21
209.749	-0.16
209.968	-0.15
210.187	-0.24
210.407	-0.35
210.626	-0.23
210.845	0.33
211.064	0.08
211.283	-0.58
211.502	0.28
211.721	-0.1
211.94	-0.28
212.159	0.11
212.377	0.21
212.596	0.34
212.815	0.15
213.034	-0.06
213.253	-0.01
213.472	0.22
213.691	-0.18
213.91	-0.1
214.128	-0.4
214.347	0.38
214.566	-0.54
214.785	-0.45
215.003	0.05
215.222	0.28
215.441	-0.2
215.66	-0.2
215.878	0.18
216.097	0.15
216.316	-0.24
216.534	-0.22
216.753	0.07
216.972	-0.18
217.19	-0.02
217.409	-0.14
217.627	-0.34
217.846	-0.17
218.064	0.04
218.283	-0.26
218.501	0.56
218.72	0.14
218.938	-0.33
219.157	-0.02
219.375	0.16
219.594	0.22
219.812	-0.2
220.031	-0.16
220.249	0.28
220.467	0.27
220.686	-0.1
220.904	-0.23
221.122	-0.18
221.341	0.57
221.559	0.14
221.777	-0.26
221.995	0.08
222.214	0.3
222.432	-0.12
222.65	0.11
222.868	0.06
223.086	0.05
223.305	0.13
223.523	0.03
223.741	0.2
223.959	-0.09
224.177	-0.34
224.395	-0.2
224.613	-0.03
224.831	0.09
225.049	-0.25
225.267	-0.08
225.485	0.1
225.703	-0.01
225.921	-0.08
226.139	-0.09
226.357	0.11
226.575	-0
226.793	0.06
227.011	0.62
227.229	0.05
227.447	0.07
227.665	-0.23
227.883	-0.32
228.1	-0.07
228.318	0.06
228.536	-0.39
228.754	-0.12
228.972	0.05
229.189	0.06
229.407	-0.03
229.625	-0.07
229.843	0.12
230.06	0.14
230.278	-0.06
230.496	-0.04
230.713	0.02
230.931	0.22
231.149	-0.02
231.366	-0.26
231.584	0.02
231.801	0.3
232.019	-0.15
232.236	-0.14
232.454	-0.11
232.671	0.02
232.889	-0.03
233.106	-0.13
233.324	0.03
233.541	-0.02
233.759	-0.01
233.976	-0.09
234.194	-0.05
234.411	-0.02
234.628	-0.17
234.846	0.01
235.063	-0.06
235.28	-0.03
235.498	-0.05
235.715	-0.23
235.932	0.08
236.149	-0.01
236.367	-0.01
236.584	-0.01
236.801	-0.05
237.018	0.19
237.236	0.07
237.453	-0.09
237.67	0.09
237.887	-0.05
238.104	-0.05
238.321	-0.14
238.538	0.01
238.755	0.13
238.973	-0.05
239.19	0
239.407	-0.03
239.624	-0.03
239.841	-0.08
240.058	-0.11
240.275	0.05
240.492	-0.13
240.709	0.06
240.925	-0.09
241.142	-0
241.359	-0.1
241.576	-0.1
241.793	-0.08
242.01	0.02
242.227	0.11
242.444	0.02
242.66	0.15
242.877	0.08
243.094	-0.02
243.311	-0.05
243.527	0.03
243.744	0.11
243.961	0.09
244.178	-0.01
244.394	0.02
244.611	0.19
244.828	0.22
245.044	-0.11
245.261	-0.13
245.477	-0
245.694	0.19
245.911	-0.1
246.127	-0.03
246.344	0.18
246.56	0.09
246.777	-0.03
246.993	-0.03
247.21	0.05
247.426	-0.02
247.643	-0.04
247.859	-0.07
248.076	-0.04
248.292	0.2
248.508	-0.09
248.725	0
248.941	0.05
249.157	0.16
249.374	-0.02
249.59	0.03
249.806	0
250.023	0.03
250.239	-0.12
250.455	-0.08
250.671	-0.03
250.888	0.04
251.104	-0.02
251.32	-0.06
251.536	-0
251.752	-0.03
251.969	0.01
252.185	0.02
252.401	0.2
252.617	0.04
252.833	-0.05
253.049	0
253.265	-0
253.481	0.06
253.697	-0.03
253.913	-0.09
254.129	0
254.345	0.03
254.561	-0.01
254.777	-0.04
254.993	0.07
255.209	0.05
255.425	-0.03
255.641	-0.02
255.857	0.08
256.073	-0.03
256.288	-0.11
256.504	-0.05
256.72	0.03
256.936	0.15
257.152	-0.08
257.367	-0.13
257.583	-0.05
257.799	0.03
258.015	-0.06
258.23	-0.05
258.446	0.12
258.662	0.04
258.877	-0.03
259.093	-0.06
259.309	0.03
259.524	0.05
259.74	-0.06
259.955	-0.11
260.171	0.02
260.387	0.08
260.602	0.05
260.818	0.01
261.033	-0.08
261.249	-0.05
261.464	-0.06
261.68	-0.1
261.895	0.05
262.11	-0.01
262.326	-0.04
262.541	-0.11
262.757	0.1
262.972	0.07
263.187	-0.02
263.403	-0.02
263.618	0.06
263.833	-0.06
264.049	-0.1
264.264	0.02
264.479	0.08
264.694	0.13
264.91	-0.12
265.125	-0.02
265.34	-0
265.555	0.15
265.77	-0
265.986	-0.02
266.201	0.07
266.416	0.05
266.631	-0.03
266.846	0
267.061	0.07
267.276	0.02
267.491	-0.18
267.706	-0
267.921	0.07
268.136	0.02
268.351	-0.01
268.566	-0.04
268.781	0.06
268.996	0.1
269.211	-0.04
269.426	-0.06
269.641	0.03
269.856	0.02
270.071	-0.09
270.285	-0.07
270.5	0.08
270.715	0.06
270.93	0.02
271.145	0.04
271.359	0.08
271.574	-0.03
271.789	-0.04
272.004	-0.01
272.218	-0.01
272.433	0.05
272.648	-0.04
272.862	0.06
273.077	-0.06
273.292	0.08
273.506	-0.05
273.721	-0
273.936	0.02
274.15	0.08
274.365	0.01
274.579	0.08
274.794	0.04
275.008	0.07
275.223	-0.08
275.437	-0.04
275.652	0.07
275.866	0.03
276.081	0.05
276.295	0.09
276.509	-0.01
276.724	0.01
276.938	-0
277.153	0.03
277.367	0.09
277.581	-0.02
277.796	-0.05
278.01	-0.09
278.224	0.03
278.438	0.18
278.653	-0.08
278.867	-0.06
279.081	0.06
279.295	-0.04
279.51	0.07
279.724	-0.06
279.938	0.08
280.152	0.04
280.366	-0.04
280.58	0
280.794	0.05
281.008	0
281.222	0.04
281.437	0.14
281.651	0.03
281.865	0.08
282.079	0.03
282.293	-0.12
282.507	-0.06
282.721	0
282.935	0.01
283.148	-0.07
283.362	-0.04
283.576	-0.08
283.79	-0.01
284.004	-0.07
284.218	0.05
284.432	-0
284.646	-0.02
284.859	-0.02
285.073	-0.03
285.287	-0.01
285.501	-0.03
285.714	-0.02
285.928	0.07
286.142	0.07
286.356	-0.02
286.569	-0.03
286.783	0.07
286.997	0.06
287.21	0.01
287.424	0.05
287.637	0
287.851	-0.06
288.065	-0.01
288.278	-0.03
288.492	0.02
288.705	-0.01
288.919	0.04
289.132	-0.06
289.346	0.1
289.559	-0.11
289.773	-0.09
289.986	-0
290.2	0.01
290.413	0.05
290.626	-0.05
290.84	-0.05
291.053	-0.04
291.267	0.1
291.48	0.02
291.693	-0.03
291.906	-0.05
292.12	0.03
292.333	0.05
292.546	-0.02
292.76	0.05
292.973	0.02
293.186	0.03
293.399	0.01
293.612	0.06
293.826	-0
294.039	0.01
294.252	0
294.465	0.05
294.678	0.04
294.891	0.01
295.104	-0.04
295.317	-0.01
295.53	0.02
295.743	0.02
295.956	-0.01
296.169	0.07
296.382	0.05
296.595	-0.01
296.808	-0.05
297.021	0.06
297.234	0.05
297.447	-0
297.66	0.03
297.873	0.05
298.086	0.03
298.299	-0.06
298.511	-0.03
298.724	-0.01
298.937	-0.02
299.15	-0.05
299.363	0
299.575	0.02
299.788	0.01
300.001	-0
300.213	-0.05
300.426	0.01
300.639	-0.02
300.852	-0.02
301.064	0.07
301.277	0.08
301.489	0.08
301.702	0.04
301.915	-0
302.127	0.01
302.34	0.05
302.552	0.02
302.765	-0.08
302.977	0.02
303.19	-0.03
303.402	0
303.615	0.04
303.827	-0.03
304.04	0
304.252	0.01
304.464	-0.03
304.677	0.13
304.889	0.06
305.102	0
305.314	0
305.526	0.03
305.739	0.04
305.951	-0.05
306.163	-0.04
306.375	0.04
306.588	0
306.8	-0.01
307.012	-0.03
307.224	0.03
307.436	0.04
307.649	-0.09
307.861	0.01
308.073	0.04
308.285	-0.04
308.497	-0.06
308.709	-0.03
308.921	0.01
309.133	0.07
309.346	0.01
309.558	0.01
309.77	0.07
309.982	0.07
310.194	0.01
310.406	-0.03
310.617	0.06
310.829	0.03
311.041	0.07
311.253	-0.02
311.465	0
311.677	0.01
311.889	-0
312.101	-0
312.313	0.06
312.524	0.09
312.736	-0.06
312.948	-0.01
313.16	0.1
313.372	0.08
313.583	0.02
313.795	-0.02
314.007	-0.01
314.218	0.06
314.43	0.01
314.642	-0.04
314.853	-0.07
315.065	0.07
315.277	-0.05
315.488	0.02
315.7	0.07
315.912	0.03
316.123	0.03
316.335	0.01
316.546	0.14
316.758	0.01
316.969	-0
317.181	0.01
317.392	0
317.604	0.06
317.815	-0.06
318.026	-0.02
318.238	-0.02
318.449	0.02
318.661	-0.07
318.872	-0.06
319.083	-0
319.295	0.05
319.506	-0.05
319.717	0.01
319.929	0.08
320.14	0.05
320.351	0.02
320.562	-0.01
320.774	0.02
320.985	0.01
321.196	-0.03
321.407	-0.04
321.618	0.07
321.829	0.01
322.041	0.03
322.252	0.03
322.463	0.05
322.674	0.01
322.885	-0.08
323.096	-0.01
323.307	-0.03
323.518	0.03
323.729	-0.04
323.94	0.02
324.151	0.03
324.362	0.01
324.573	0.02
324.784	-0.05
324.995	0.05
325.206	-0.02
325.417	-0.02
325.628	-0.02
325.838	0.01
326.049	0.04
326.26	0.01
326.471	-0.02
326.682	0.04
326.892	0
327.103	-0.06
327.314	-0.03
327.525	0.07
327.735	0.02
327.946	-0.02
328.157	-0.03
328.368	0.05
328.578	-0
328.789	0.02
328.999	-0.01
329.21	0.01
329.421	0.07
329.631	-0.04
329.842	-0.05
330.052	0.08
330.263	-0.01
330.473	0.04
330.684	-0.01
330.894	-0.01
331.105	0.01
331.315	-0.04
331.526	-0.09
331.736	0.12
331.947	0.04
332.157	0.03
332.367	-0.01
332.578	0.01
332.788	0.06
332.999	0.04
333.209	0
333.419	-0.06
333.629	0.01
333.84	0.05
334.05	-0.04
334.26	0.1
334.47	0.08
334.681	0.04
334.891	-0.02
335.101	0.04
335.311	0.11
335.521	0.03
335.732	-0.02
335.942	0.09
336.152	0.03
336.362	0
336.572	0.01
336.782	0.05
336.992	-0.01
337.202	-0.06
337.412	-0.03
337.622	0.04
337.832	0.02
338.042	0.01
338.252	-0.01
338.462	0.01
338.672	-0.02
338.882	-0.01
339.092	-0.09
339.302	0.07
339.511	0.06
339.721	-0.02
339.931	-0.03
340.141	0.08
340.351	0.03
340.561	-0.01
340.77	0.04
340.98	0.02
341.19	0.05
341.4	-0.07
341.609	-0.07
341.819	0.01
342.029	-0.02
342.238	0.01
342.448	-0.01
342.658	0.05
342.867	-0.01
343.077	0.02
343.286	0.01
343.496	-0
343.706	0.07
343.915	-0.04
344.125	-0.03
344.334	-0.02
344.544	-0.05
344.753	-0.01
344.963	-0.02
345.172	-0.01
345.381	-0.04
345.591	-0.03
345.8	0.01
346.01	0.04
346.219	0.03
346.428	-0.11
346.638	-0.01
346.847	-0.01
347.056	0.04
347.266	-0.09
347.475	-0.05
347.684	0.05
347.893	0.06
348.103	0
348.312	-0.03
348.521	-0.01
348.73	0.02
348.94	0.02
349.149	-0.04
349.358	0.01
349.567	-0.02
349.776	0.01
349.985	-0.02
350.194	0.05
350.403	0.06
350.612	-0.03
350.821	-0.03
351.03	-0.01
351.239	-0.06
351.448	0.01
351.657	-0
351.866	0.13
352.075	0.04
352.284	0.05
352.493	-0.05
352.702	0.05
352.911	0.03
353.12	-0.01
353.329	0.01
353.538	0.03
353.746	0.02
353.955	-0.02
354.164	0.03
354.373	0
354.582	0.08
354.79	0.02
354.999	0.05
355.208	0.02
355.416	0.06
355.625	-0.03
355.834	0.01
356.042	0.02
356.251	-0.01
356.46	-0.08
356.668	0.04
356.877	0.11
357.085	0.06
357.294	-0.13
357.503	-0.02
357.711	0
357.92	0.11
358.128	0.02
358.337	-0.02
358.545	0.03
358.754	-0.05
358.962	0.02
359.17	0.02
359.379	0.04
359.587	0.03
359.796	0.01
360.004	0.04
360.212	0.04
360.421	0.06
360.629	-0
360.837	0.02
361.046	0.07
361.254	0.13
361.462	0
361.67	-0.01
361.879	0.01
362.087	0.08
362.295	-0.01
362.503	-0.02
362.711	-0.05
362.92	0
363.128	-0.04
363.336	-0.02
363.544	-0.05
363.752	-0.04
363.96	-0
364.168	-0.04
364.376	-0.01
364.584	0.01
364.792	0.09
365	0.03
365.208	0.04
365.416	0
365.624	0.03
365.832	-0
366.04	0.08
366.248	0.01
366.456	0.04
366.664	-0
366.872	-0
367.079	0
367.287	0.01
367.495	0.02
367.703	0.02
367.911	0
368.118	0
368.326	0.01
368.534	-0.04
368.742	0.06
368.949	-0.05
369.157	0.01
369.365	0.05
369.572	-0.01
369.78	-0.06
369.988	0.06
370.195	0.02
370.403	0.05
370.61	-0.02
370.818	0.01
371.026	0.11
371.233	-0.03
371.441	-0
371.648	-0.01
371.856	0.05
372.063	0.02
372.271	-0.02
372.478	-0.03
372.685	0.02
372.893	0.07
373.1	-0
373.308	-0.01
373.515	0.09
373.722	0.06
373.93	-0.04
374.137	0.01
374.344	0.07
374.552	0.04
374.759	0.02
374.966	-0.02
375.173	-0
375.381	0.03
375.588	-0
375.795	-0.09
376.002	0.02
376.209	-0.02
376.417	0.01
376.624	0.06
376.831	0.05
377.038	-0.02
377.245	-0.07
377.452	-0.02
377.659	0.02
377.866	0
378.073	0.01
378.28	-0
378.487	0.03
378.694	-0.02
378.901	0.01
379.108	0.02
379.315	0.07
379.522	0.13
379.729	0
379.936	-0.02
380.143	-0.02
380.35	0.04
380.557	-0.03
380.763	0
380.97	0.01
381.177	0.06
381.384	0.03
381.591	-0.02
381.797	0.01
382.004	0.08
382.211	0.05
382.418	-0
382.624	0.06
382.831	0.05
383.038	-0.01
383.244	0.02
383.451	0.03
383.658	0.04
383.864	-0.03
384.071	-0.04
384.277	0.1
384.484	-0.04
384.69	0.06
384.897	-0.03
385.103	-0.03
385.31	-0.02
385.516	-0
385.723	-0.06
385.929	0.02
386.136	0
386.342	0.02
386.549	-0.01
386.755	0.06
386.961	0.04
387.168	0.01
387.374	0.03
387.58	0.06
387.787	-0.01
387.993	0.01
388.199	0.04
388.406	-0.02
388.612	0.04
388.818	-0.03
389.024	-0.03
389.231	0.02
389.437	0.04
389.643	0.02
389.849	0.02
390.055	0.05
390.261	0.01
390.467	-0.01
390.674	-0.05
390.88	0.03
391.086	0.04
391.292	-0.01
391.498	0.08
391.704	0.02
391.91	-0.02
392.116	-0.03
392.322	-0.07
392.528	0
392.734	-0
392.94	-0.01
393.146	0.02
393.352	0.01
393.557	0.03
393.763	-0.01
393.969	-0.01
394.175	0.04
394.381	0.02
394.587	-0.04
394.792	0.02
394.998	0.03
395.204	0.07
395.41	-0.01
395.615	0.04
395.821	0.01
396.027	0.02
396.233	-0.02
396.438	0.05
396.644	0.06
396.85	-0
397.055	-0.03
397.261	0
397.466	-0
397.672	0.04
397.878	0.05
398.083	0.02
398.289	-0.03
398.494	0.07
398.7	0.03
398.905	-0.03
399.111	0.04
399.316	-0.01
399.522	0.03
399.727	0.01
399.932	-0
400.138	0.02
400.343	0.06
400.549	0.02
400.754	-0.01
400.959	0.02
401.165	-0.01
401.37	0.02
401.575	-0.02
401.78	0.02
401.986	-0.06
402.191	-0.01
402.396	0.03
402.601	0.05
402.807	0.01
403.012	0.02
403.217	0.05
403.422	0
403.627	0.02
403.832	-0
404.037	0.06
404.243	0.03
404.448	0.02
404.653	-0.01
404.858	-0
405.063	0.04
405.268	-0.03
405.473	-0.01
405.678	-0.01
405.883	0.13
406.088	0.03
406.293	-0.03
406.498	-0.01
406.703	0.07
406.907	0.02
407.112	-0.06
407.317	0.03
407.522	0.09
407.727	-0.03
407.932	0.03
408.136	0.07
408.341	0.04
408.546	0.02
408.751	0.03
408.956	-0.01
409.16	0.05
409.365	-0.03
409.57	-0.01
409.774	0.04
409.979	0.05
410.184	0.05
410.388	-0.05
410.593	0.02
410.798	0.04
411.002	-0.02
411.207	0.04
411.411	0.04
411.616	-0.02
411.82	-0.01
412.025	0.04
412.229	0.01
412.434	0.1
412.638	0.03
412.843	0.01
413.047	0.06
413.252	0.01
413.456	-0
413.66	0.04
413.865	-0.01
414.069	0.09
414.273	0.02
414.478	0.01
414.682	0.03
414.886	0.06
415.091	-0.02
415.295	-0.04
415.499	0.07
415.703	0.05
415.908	0.1
416.112	-0.05
416.316	0.02
416.52	0.05
416.724	0.04
416.929	-0.02
417.133	0.18
417.337	0.03
417.541	-0.02
417.745	0.06
417.949	0.09
418.153	0.05
418.357	0.01
418.561	0.17
418.765	0.06
418.969	0.22
419.173	0.08
419.377	0.03
419.581	0.17
419.785	0.05
419.989	0.06
420.193	0.07
420.397	0.08
420.601	0.17
420.804	0.17
421.008	0.04
421.212	0.16
421.416	0.12
421.62	0.07
421.823	0.09
422.027	0.21
422.231	0.08
422.435	0.12
422.638	0.13
422.842	0.12
423.046	0.07
423.249	0.15
423.453	0.14
423.657	0.14
423.86	0.12
424.064	0.12
424.268	0.2
424.471	0.15
424.675	0.23
424.878	0.26
425.082	0.18
425.285	0.3
425.489	0.26
425.692	0.19
425.896	0.13
426.099	0.25
426.303	0.16
426.506	0.18
426.71	0.26
426.913	0.34
427.116	0.26
427.32	0.23
427.523	0.23
427.726	0.33
427.93	0.24
428.133	0.28
428.336	0.23
428.54	0.24
428.743	0.37
428.946	0.39
429.149	0.28
429.353	0.32
429.556	0.33
429.759	0.32
429.962	0.3
430.165	0.35
430.368	0.36
430.571	0.34
430.775	0.34
430.978	0.32
431.181	0.33
431.384	0.38
431.587	0.37
431.79	0.43
431.993	0.37
432.196	0.4
432.399	0.4
432.602	0.49
432.805	0.42
433.008	0.48
433.211	0.4
433.414	0.53
433.616	0.49
433.819	0.48
434.022	0.38
434.225	0.59
434.428	0.54
434.631	0.72
434.833	0.54
435.036	0.57
435.239	0.62
435.442	0.6
435.645	0.58
435.847	0.57
436.05	0.68
436.253	0.64
436.455	0.65
436.658	0.64
436.861	0.75
437.063	0.66
437.266	0.68
437.468	0.72
437.671	0.9
437.874	0.77
438.076	0.77
438.279	0.74
438.481	0.79
438.684	0.86
438.886	0.87
439.089	0.79
439.291	0.89
439.494	0.96
439.696	0.89
439.899	0.99
440.101	1.12
440.303	1
440.506	1.15
440.708	1.13
440.91	1.24
441.113	1.17
441.315	1.27
441.517	1.21
441.72	1.38
441.922	1.25
442.124	1.31
442.326	1.36
442.529	1.48
442.731	1.4
442.933	1.57
443.135	1.48
443.337	1.46
443.539	1.52
443.742	1.53
443.944	1.65
444.146	1.61
444.348	1.66
444.55	1.64
444.752	1.77
444.954	1.71
445.156	1.77
445.358	1.8
445.56	1.93
445.762	1.89
445.964	1.98
446.166	1.96
446.368	1.91
446.57	2.01
446.772	1.97
446.974	1.91
447.175	2.03
447.377	1.99
447.579	2.07
447.781	2.02
447.983	2.16
448.184	2.03
448.386	2.1
448.588	1.93
448.79	2
448.991	2.05
449.193	2.07
449.395	2.04
449.597	2.01
449.798	1.94
450	1.96
450.202	1.95
450.403	1.98
450.605	2.01
450.806	1.9
451.008	1.78
451.21	1.8
451.411	1.84
451.613	1.71
451.814	1.71
452.016	1.7
452.217	1.59
452.419	1.67
452.62	1.56
452.821	1.61
453.023	1.63
453.224	1.53
453.426	1.42
453.627	1.29
453.828	1.38
454.03	1.37
454.231	1.35
454.432	1.25
454.634	1.3
454.835	1.19
455.036	1.12
455.238	1.21
455.439	1.19
455.64	1.01
455.841	1.01
456.042	1.14
456.244	1.04
456.445	0.98
456.646	0.88
456.847	0.88
457.048	0.92
457.249	0.93
457.45	1.13
457.651	0.78
457.852	0.85
458.054	0.76
458.255	0.67
458.456	0.74
458.657	0.75
458.858	0.68
459.058	0.66
459.259	0.73
459.46	0.66
459.661	0.62
459.862	0.75
460.063	0.66
460.264	0.64
460.465	0.57
460.666	0.69
460.866	0.57
461.067	0.53
461.268	0.53
461.469	0.52
461.67	0.52
461.87	0.53
462.071	0.53
462.272	0.47
462.473	0.52
462.673	0.5
462.874	0.42
463.075	0.5
463.275	0.46
463.476	0.49
463.676	0.5
463.877	0.47
464.078	0.42
464.278	0.48
464.479	0.47
464.679	0.41
464.88	0.4
465.08	0.41
465.281	0.35
465.481	0.38
465.682	0.34
465.882	0.39
466.083	0.33
466.283	0.34
466.483	0.32
466.684	0.28
466.884	0.28
467.085	0.28
467.285	0.32
467.485	0.25
467.686	0.27
467.886	0.23
468.086	0.24
468.286	0.28
468.487	0.28
468.687	0.23
468.887	0.26
469.087	0.29
469.287	0.24
469.488	0.17
469.688	0.25
469.888	0.25
470.088	0.25
470.288	0.24
470.488	0.27
470.688	0.17
470.888	0.14
471.088	0.14
471.288	0.23
471.488	0.19
471.688	0.2
471.888	0.11
472.088	0.26
472.288	0.22
472.488	0.16
472.688	0.1
472.888	0.18
473.088	0.16
473.288	0.15
473.488	0.12
473.688	0.17
473.887	0.14
474.087	0.07
474.287	0.15
474.487	0.09
474.687	0.12
474.886	0.08
475.086	0.12
475.286	0.11
475.486	0.12
475.685	0.11
475.885	0.1
476.085	0.09
476.284	0.14
476.484	0.06
476.684	0.13
476.883	0.14
477.083	0.11
477.282	0.05
477.482	0.15
477.681	0.14
477.881	0.08
478.08	0.04
478.28	0.05
478.479	0.08
478.679	0.16
478.878	0.04
479.078	0.05
479.277	0.08
479.477	0.09
479.676	0.1
479.875	0.07
480.075	-0
480.274	0.08
480.473	0.08
480.673	0.05
480.872	0.1
481.071	0.1
481.271	0.09
481.47	0.01
481.669	0.05
481.868	0.02
482.067	0.03
482.267	0.04
482.466	0.01
482.665	0.03
482.864	0
483.063	0.01
483.262	0.06
483.461	0.11
483.661	0.07
483.86	0.05
484.059	0.06
484.258	0.02
484.457	0.04
484.656	0.03
484.855	0.07
485.054	-0.01
485.253	0.01
485.452	0.01
485.651	0
485.849	0.05
486.048	-0.01
486.247	0
486.446	0.03
486.645	-0.01
486.844	0.01
487.043	0.02
487.241	0.04
487.44	0
487.639	0.02
487.838	0.05
488.037	0.03
488.235	0.08
488.434	0.02
488.633	0.02
488.831	0.04
489.03	0.06
489.229	0.04
489.427	0.02
489.626	0.07
489.825	0.06
490.023	0
490.222	0.01
490.42	0.04
490.619	0.07
490.817	0.02
491.016	-0
491.214	0.05
491.413	-0.01
491.611	0.01
491.81	0.02
492.008	0.05
492.207	0.04
492.405	0.02
492.604	-0.02
492.802	0.01
493	0.03
493.199	-0.01
493.397	0
493.595	0.02
493.794	-0.01
493.992	0.04
494.19	0.01
494.388	0.02
494.587	-0
494.785	0.02
494.983	-0.02
495.181	0.03
495.379	0.02
495.578	-0.01
495.776	0.03
495.974	0.03
496.172	-0.02
496.37	-0.01
496.568	-0.01
496.766	-0.01
496.964	0.07
497.162	0.01
497.36	-0.01
497.558	0.03
497.756	0.03
497.954	0
498.152	-0.01
498.35	0.03
498.548	0.01
498.746	0.01
498.944	-0.03
499.142	-0.01
499.34	-0.02
499.538	0.04
499.736	-0.01
499.933	0.03
500.131	0.06
500.329	0.01
500.527	0.03
500.725	0.05
500.922	0.02
501.12	-0.01
501.318	-0
501.516	-0.01
501.713	0.02
501.911	-0.01
502.109	-0.01
502.306	0.01
502.504	-0
502.701	-0.01
502.899	0.02
503.097	0.06
503.294	0.01
503.492	-0.02
503.689	0.02
503.887	0.02
504.084	0.06
504.282	0.01
504.479	-0.02
504.677	0.01
504.874	-0.03
505.072	-0
505.269	-0.01
505.466	0.01
505.664	0.01
505.861	-0.02
506.059	-0.02
506.256	0.01
506.453	-0.02
506.651	0.06
506.848	0.02
507.045	0.02
507.242	0
507.44	-0.02
507.637	0.01
507.834	-0
508.031	0.04
508.229	-0.02
508.426	0.02
508.623	0.02
508.82	-0.02
509.017	-0.03
509.214	-0.01
509.411	-0
509.608	-0.03
509.805	0.01
510.003	-0.03
510.2	-0
510.397	0.05
510.594	-0.01
510.791	-0.03
510.988	-0.01
511.184	0.04
511.381	0.01
511.578	-0.01
511.775	0.04
511.972	0.01
512.169	-0.01
512.366	0.01
512.563	0.03
512.76	-0.01
512.956	0.04
513.153	-0.01
513.35	0.02
513.547	-0.02
513.744	-0.03
513.94	-0.05
514.137	0.02
514.334	0.01
514.53	0
514.727	-0
514.924	0.06
515.12	0.01
515.317	-0.04
515.514	-0.02
515.71	-0.03
515.907	-0.02
516.103	0
516.3	0.01
516.497	0.02
516.693	0.04
516.89	-0.01
517.086	-0.03
517.283	0.02
517.479	0
517.676	-0.02
517.872	-0
518.068	-0.02
518.265	0
518.461	-0.03
518.658	-0.03
518.854	-0
519.05	-0.01
519.247	-0.03
519.443	0.01
519.639	0
519.836	-0
520.032	0.01
520.228	0.03
520.424	0.07
520.621	0.02
520.817	0
521.013	0
521.209	0.03
521.405	0.03
521.601	0.01
521.798	-0.01
521.994	0.04
522.19	-0.01
522.386	-0.01
522.582	0.01
522.778	0
522.974	-0.02
523.17	0.02
523.366	0.02
523.562	0.03
523.758	-0.01
523.954	-0.02
524.15	-0.01
524.346	0.02
524.542	-0.01
524.738	-0.01
524.934	0
525.129	-0
525.325	0
525.521	-0.01
525.717	0
525.913	0
526.109	-0.01
526.304	-0
526.5	0.02
526.696	0.03
526.892	0.02
527.087	0.02
527.283	-0.02
527.479	0.01
527.674	-0.01
527.87	-0
528.066	-0.01
528.261	0
528.457	0.03
528.653	-0.02
528.848	-0.01
529.044	0.02
529.239	0
529.435	0.03
529.63	-0
529.826	0.06
530.021	0
530.217	0.03
530.412	-0.02
530.608	-0.02
530.803	0
530.999	0.01
531.194	-0.05
531.389	0.03
531.585	-0.05
531.78	-0.01
531.975	0.01
532.171	0.02
532.366	0
532.561	0.01
532.757	-0.02
532.952	-0.01
533.147	0.01
533.342	-0
533.538	-0.01
533.733	0.02
533.928	-0.01
534.123	-0.02
534.318	-0.03
534.513	0
534.709	0.01
534.904	0
535.099	-0.01
535.294	-0.02
535.489	-0
535.684	0
535.879	-0.03
536.074	0.01
536.269	-0.02
536.464	0.01
536.659	-0.01
536.854	-0.02
537.049	0
537.244	-0
537.439	-0.01
537.634	0.02
537.828	-0
538.023	-0
538.218	-0.02
538.413	0.02
538.608	-0.03
538.803	0.02
538.997	-0.03
539.192	0.02
539.387	0.01
539.582	-0
539.776	0.02
539.971	-0.02
540.166	-0.01
540.36	-0.02
540.555	-0
540.75	0.01
540.944	0
541.139	-0.03
541.334	0
541.528	0.01
541.723	0.01
541.917	-0.02
542.112	-0.04
542.306	-0.01
542.501	-0.01
542.695	0.01
542.89	-0.03
543.084	-0.01
543.279	-0.04
543.473	-0.03
543.668	0
543.862	0
544.056	0.01
544.251	-0
544.445	0.02
544.64	-0.01
544.834	-0.03
545.028	0.01
545.222	0.01
545.417	0.04
545.611	-0
545.805	0.02
546	-0.03
546.194	-0
546.388	-0
546.582	0.01
546.776	-0.02
546.97	0.02
547.165	-0
547.359	0.02
547.553	-0.02
547.747	0.01
547.941	0.01
548.135	0.01
548.329	0.02
548.523	0.01
548.717	-0
548.911	-0.03
549.105	0.01
549.299	-0
549.493	0.02
549.687	0.02
549.881	0
550.075	0.02
550.269	-0.03
550.463	0.02
550.657	-0.03
550.85	-0
551.044	-0.01
551.238	0.01
551.432	-0.03
551.626	-0.03
551.82	0.01
552.013	-0.01
552.207	0
552.401	0.04
552.594	0
552.788	-0.01
552.982	-0
553.176	-0
553.369	0.03
553.563	0.01
553.756	-0.04
553.95	-0.01
554.144	0.01
554.337	0.04
554.531	-0
554.724	-0
554.918	0.01
555.111	0.02
555.305	-0.01
555.498	0.04
555.692	0.04
555.885	0
556.079	0.02
556.272	0
556.466	0.03
556.659	-0.01
556.852	0.02
557.046	-0.02
557.239	0.04
557.432	-0.02
557.626	-0.01
557.819	-0
558.012	0.03
558.206	0.03
558.399	0.02
558.592	0.03
558.785	-0.01
558.979	0.03
559.172	-0.02
559.365	0
559.558	0.01
559.751	0.01
559.944	0.01
560.138	-0.02
560.331	-0.02
560.524	-0.01
560.717	-0.01
560.91	-0.01
561.103	0.03
561.296	0.01
561.489	-0
561.682	-0.02
561.875	0.02
562.068	0.02
562.261	-0.01
562.454	0.06
562.647	0.03
562.84	0
563.032	-0.03
563.225	0
563.418	-0.01
563.611	-0.03
563.804	-0
563.997	-0.05
564.19	-0.04
564.382	-0
564.575	-0
564.768	0.02
564.961	-0.02
565.153	-0.01
565.346	-0.01
565.539	0.02
565.731	0.02
565.924	0.03
566.117	0.01
566.309	0.03
566.502	-0
566.695	-0.01
566.887	0.01
567.08	-0.03
567.272	-0.01
567.465	0.02
567.657	0.01
567.85	0.01
568.042	0
568.235	0.03
568.427	-0.01
568.62	-0.01
568.812	0
569.005	0
569.197	-0.03
569.389	0.02
569.582	0.01
569.774	0.01
569.966	-0.02
570.159	-0.04
570.351	-0
570.543	-0
570.736	-0.01
570.928	-0.02
571.12	0.01
571.312	-0
571.505	-0.02
571.697	0.02
571.889	-0.03
572.081	-0.01
572.273	-0.04
572.465	0.03
572.658	-0.01
572.85	-0.01
573.042	-0.02
573.234	-0.03
573.426	0.03
573.618	-0.03
573.81	-0
574.002	0.05
574.194	0.04
574.386	-0.04
574.578	-0.06
574.77	-0.04
574.962	-0.02
575.154	-0.02
575.346	-0.02
575.538	-0.01
575.729	-0.03
575.921	-0.03
576.113	-0.03
576.305	0.02
576.497	-0
576.689	0.01
576.88	-0.04
577.072	0.03
577.264	-0.01
577.456	0
577.647	-0.08
577.839	0.02
578.031	0.02
578.223	-0.04
578.414	-0.04
578.606	0.01
578.798	0
578.989	-0.02
579.181	0
579.372	-0.02
579.564	-0.01
579.755	0
579.947	0
580.139	0.02
580.33	-0.05
580.522	-0.02
580.713	-0.06
580.905	-0.01
581.096	0.02
581.287	-0.02
581.479	0.02
581.67	0
581.862	-0.01
582.053	-0.02
582.244	-0.06
582.436	0.01
582.627	0
582.818	-0.04
583.01	-0.03
583.201	0.02
583.392	0.04
583.583	0
583.775	-0.02
583.966	-0.01
584.157	-0.02
584.348	-0.03
584.54	-0.05
584.731	0.02
584.922	-0.02
585.113	-0.04
585.304	0.02
585.495	0.03
585.686	0.01
585.877	0
586.068	-0.01
586.259	0.03
586.45	0
586.641	-0.03
586.832	-0.06
587.023	0.02
587.214	0.01
587.405	-0.01
587.596	-0.01
587.787	0.04
587.978	0
588.169	-0.03
588.36	-0.02
588.551	0.01
588.742	-0.01
588.932	-0
589.123	0.01
589.314	0.02
589.505	-0.01
589.696	0
589.886	-0.02
590.077	-0.05
590.268	-0
590.458	-0.03
590.649	-0.04
590.84	0.03
591.03	-0.02
591.221	-0.05
591.412	-0.04
591.602	0.03
591.793	0.02
591.984	-0.04
592.174	-0.03
592.365	0.07
592.555	-0.03
592.746	0
592.936	0.02
593.127	0
593.317	0.04
593.508	-0.02
593.698	-0.02
593.889	0.02
594.079	0.02
594.269	-0.03
594.46	-0.02
594.65	-0
594.84	-0.01
595.031	-0.06
595.221	-0.03
595.411	-0.05
595.602	0.04
595.792	-0.02
595.982	-0.03
596.172	0.06
596.363	-0.01
596.553	-0
596.743	-0.01
596.933	-0
597.123	0.03
597.314	-0.02
597.504	-0.02
597.694	0.05
597.884	0.02
598.074	-0.03
598.264	-0.05
598.454	0.02
598.644	0
598.834	0.01
599.024	-0.04
599.214	-0.01
599.404	0.03
599.594	-0.02
599.784	-0.02
599.974	0.07
600.164	0.04
600.354	-0.04
600.544	-0.06
600.734	0.01
600.924	0.01
601.114	-0.01
601.303	0.01
601.493	0.01
601.683	-0
601.873	0.03
602.063	-0.06
602.252	0.03
602.442	-0.06
602.632	-0.05
602.821	-0.04
603.011	0.03
603.201	-0.03
603.39	-0.02
603.58	-0.04
603.77	0.01
603.959	0.02
604.149	-0.01
604.339	-0.01
604.528	0.01
604.718	0.01
604.907	-0.01
605.097	-0
605.286	-0.03
605.476	0.01
605.665	0.02
605.855	-0.02
606.044	0.02
606.234	0
606.423	-0.01
606.612	-0.06
606.802	0.02
606.991	-0
607.181	0.01
607.37	-0.05
607.559	-0
607.749	-0.03
607.938	-0.02
608.127	-0.01
608.316	-0.03
608.506	0.01
608.695	0.01
608.884	-0.04
609.073	0.02
609.263	0.04
609.452	0.02
609.641	0.01
609.83	-0.05
610.019	0.02
610.208	-0.02
610.397	-0.03
610.586	0.04
610.775	0.01
610.965	-0.03
611.154	-0.02
611.343	-0.01
611.532	0
611.721	-0.05
611.91	-0.03
612.099	0.02
612.287	0.02
612.476	-0.04
612.665	-0.01
612.854	-0.02
613.043	0.02
613.232	-0.03
613.421	-0.06
613.61	-0
613.798	-0.02
613.987	0.01
614.176	-0.03
614.365	0.02
614.554	0.01
614.742	0.03
614.931	-0.02
615.12	0.04
615.309	-0.01
615.497	-0.01
615.686	-0.03
615.875	-0.02
616.063	0.03
616.252	-0.04
616.44	-0.03
616.629	-0.01
616.818	0.03
617.006	-0.01
617.195	-0
617.383	0.02
617.572	-0.01
617.76	-0.04
617.949	-0.01
618.137	0.01
618.326	0.02
618.514	-0
618.703	-0.03
618.891	0.05
619.079	-0.05
619.268	0.01
619.456	-0.01
619.644	0.03
619.833	-0.03
620.021	-0.06
620.209	-0.04
620.398	-0
620.586	0.01
620.774	0.02
620.962	0
621.151	0.05
621.339	-0.02
621.527	-0.06
621.715	-0.04
621.903	-0.06
622.092	-0.06
622.28	-0.03
622.468	-0.03
622.656	-0.03
622.844	0.05
623.032	-0.05
623.22	-0.08
623.408	0.03
623.596	0.01
623.784	0.04
623.972	-0.03
624.16	-0.04
624.348	0.07
624.536	-0.03
624.724	-0.02
624.912	0.02
625.1	0.01
625.288	-0.03
625.476	-0.04
625.664	0.03
625.851	-0.04
626.039	-0.02
626.227	-0.01
626.415	0.01
626.603	-0.06
626.79	-0.03
626.978	-0.03
627.166	-0.02
627.354	0.02
627.541	-0.03
627.729	-0.06
627.917	0.03
628.104	0.04
628.292	-0.01
628.48	-0.02
628.667	0.01
628.855	-0.02
629.042	0.02
629.23	-0.01
629.418	0.02
629.605	-0
629.793	-0.03
629.98	-0.05
630.168	0
630.355	0.01
630.543	-0
630.73	-0.03
630.917	0.02
631.105	0.04
631.292	-0.02
631.48	-0.01
631.667	0.06
631.854	-0.02
632.042	-0.01
632.229	-0.05
632.416	0.01
632.604	-0.01
632.791	-0.06
632.978	0.04
633.165	0.02
633.353	0.06
633.54	0.04
633.727	-0.07
633.914	-0.04
634.101	-0.04
634.289	0.02
634.476	-0.02
634.663	-0.04
634.85	0.03
635.037	-0.03
635.224	-0.07
635.411	0.02
635.598	0.05
635.785	-0
635.972	0
636.159	0.04
636.346	-0.02
636.533	-0.01
636.72	-0.03
636.907	-0.01
637.094	0.02
637.281	-0.03
637.468	0.01
637.655	-0.04
637.842	-0
638.029	-0.04
638.215	0.02
638.402	-0.02
638.589	-0.03
638.776	-0.04
638.963	-0.02
639.149	0.04
639.336	0.08
639.523	-0.01
639.709	-0.01
639.896	0
640.083	0.02
640.27	0.05
640.456	-0.05
640.643	0
640.829	-0.07
641.016	-0
641.203	-0.04
641.389	0.02
641.576	0.05
641.762	-0.01
641.949	-0.04
642.135	-0.01
642.322	-0.02
642.508	-0.09
642.695	0.01
642.881	-0.04
643.068	-0.02
643.254	-0.02
643.441	0.05
643.627	-0.02
643.813	-0.04
644	0.05
644.186	-0.01
644.372	0
644.559	0.02
644.745	-0
644.931	-0.04
645.118	0
645.304	-0
645.49	-0.01
645.676	-0.03
645.862	0.01
646.049	0.04
646.235	-0.01
646.421	0.03
646.607	0.07
646.793	-0.01
646.979	-0.04
647.165	0
647.352	0.01
647.538	0.05
647.724	-0.01
647.91	0.01
648.096	-0.01
648.282	0.01
648.468	-0.02
648.654	0.01
648.84	-0.03
649.026	-0
649.212	0.02
649.397	-0.02
649.583	-0.02
649.769	0.06
649.955	-0.02
650.141	0.01
650.327	0.07
650.513	-0.03
650.698	0.05
650.884	-0.08
651.07	0.01
651.256	0.02
651.442	0.01
651.627	-0.04
651.813	0.02
651.999	0.01
652.184	-0.03
652.37	-0.02
652.556	-0.01
652.741	0.01
652.927	-0.05
653.113	0
653.298	0.01
653.484	0.01
653.669	-0.1
653.855	0.01
654.04	0.02
654.226	0.01
654.412	-0.02
654.597	-0.02
654.782	0.02
654.968	0.04
655.153	-0
655.339	-0.01
655.524	-0.06
655.71	0.06
655.895	-0.02
656.08	-0.03
656.266	0.03
656.451	-0.01
656.636	-0.04
656.822	0.01
657.007	-0.04
657.192	-0.03
657.378	-0.07
657.563	0.01
657.748	0
657.933	0.02
658.118	-0.02
658.304	-0.02
658.489	0.03
658.674	-0.03
658.859	-0.03
659.044	0.02
659.229	0.02
659.414	-0.04
659.599	-0.01
659.785	-0.06
659.97	-0.02
660.155	0.03
660.34	0.01
660.525	-0.04
660.71	-0.06
660.895	0.07
661.08	-0.03
661.264	-0.07
661.449	0.05
661.634	0.07
661.819	0.04
662.004	0.01
662.189	-0.06
662.374	-0.04
662.559	-0.02
662.743	-0.07
662.928	0.02
663.113	-0.04
663.298	-0.06
663.483	-0.04
663.667	0.02
663.852	-0.05
664.037	0.03
664.221	-0.05
664.406	0.01
664.591	-0.01
664.775	0.01
664.96	-0.07
665.145	0.01
665.329	0.04
665.514	-0.01
665.698	-0.01
665.883	-0.1
666.068	0.03
666.252	-0.02
666.437	-0.05
666.621	0
666.806	0.05
666.99	0.01
667.174	-0.07
667.359	0.07
667.543	-0.02
667.728	-0.02
667.912	-0.07
668.096	-0
668.281	-0.03
668.465	-0.01
668.649	-0.02
668.834	-0.03
669.018	-0.06
669.202	-0.03
669.387	-0.06
669.571	0.06
669.755	-0.04
669.939	-0.01
670.124	-0.03
670.308	0.05
670.492	0.02
670.676	-0.02
670.86	-0.03
671.044	-0.04
671.228	0.03
671.413	-0.03
671.597	-0.05
671.781	-0.05
671.965	0.02
672.149	-0.05
672.333	-0.06
672.517	-0.03
672.701	0
672.885	-0
673.069	-0.07
673.253	0.08
673.437	-0.01
673.621	-0.03
673.804	-0.03
673.988	0
674.172	-0.01
674.356	-0.06
674.54	-0.05
674.724	0.1
674.908	-0.05
675.091	0.01
675.275	-0.04
675.459	0.01
675.643	-0.02
675.826	-0.02
676.01	0.01
676.194	-0.01
676.377	0.01
676.561	0.04
676.745	-0.01
676.928	0.04
677.112	0.05
677.296	-0.03
677.479	-0.01
677.663	-0.03
677.846	-0
678.03	-0.02
678.213	-0.03
678.397	0.02
678.58	-0.04
678.764	0
678.947	-0.05
679.131	-0.04
679.314	0.02
679.498	-0.02
679.681	0.02
679.865	0.05
680.048	0
680.231	-0.01
680.415	-0
680.598	-0.04
680.781	-0.06
680.965	-0.04
681.148	0.03
681.331	-0.05
681.514	0.01
681.698	-0.04
681.881	0.02
682.064	0.03
682.247	0.03
682.43	-0.1
682.614	0.02
682.797	0.04
682.98	0
683.163	-0.04
683.346	0.04
683.529	-0.01
683.712	-0.07
683.895	0.01
684.078	-0.02
684.261	-0.01
684.444	0.02
684.627	0
684.81	-0.02
684.993	-0.03
685.176	0.05
685.359	-0.03
685.542	-0.03
685.725	0.06
685.908	-0.01
686.091	-0.04
686.274	0.04
686.457	0.02
686.639	0.03
686.822	0.03
687.005	0.04
687.188	0.06
687.371	0.09
687.553	0.01
687.736	0
687.919	0.06
688.102	0.08
688.284	-0.04
688.467	-0.02
688.65	0.02
688.832	-0.03
689.015	-0.02
689.197	-0.06
689.38	0.09
689.563	0.06
689.745	-0.06
689.928	-0.09
690.11	-0.06
690.293	0
690.475	-0.05
690.658	-0
690.84	-0.02
691.023	0.02
691.205	-0.03
691.388	-0.03
691.57	0.01
691.752	0.02
691.935	-0.07
692.117	0
692.3	0.02
692.482	-0.04
692.664	0.01
692.847	0.01
693.029	0.08
693.211	0.03
693.393	-0.06
693.576	-0.04
693.758	0.03
693.94	0.01
694.122	-0.08
694.304	-0.03
694.487	-0.03
694.669	0.05
694.851	-0.07
695.033	-0.03
695.215	-0.04
695.397	-0.04
695.579	0.03
695.761	-0.06
695.943	-0.07
696.125	0.09
696.308	0
696.49	-0.12
696.671	0.1
696.853	-0.01
697.035	0.12
697.217	0
697.399	0.01
697.581	-0.01
697.763	-0
697.945	-0.03
698.127	-0.02
698.309	0.09
698.491	0
698.672	0.04
698.854	0.04
699.036	0.11
699.218	-0
699.399	0.06
699.581	0.04
699.763	0.02
699.945	-0.1
700.126	-0.05
700.308	0.01
700.49	-0.02
700.671	-0.07
700.853	-0.07
701.035	-0.08
701.216	0
701.398	-0.05
701.579	0.01
701.761	0.08
701.943	0.01
702.124	-0.02
702.306	-0.03
702.487	0.09
702.669	-0
702.85	-0.03
703.031	-0.07
703.213	0.12
703.394	0.02
703.576	-0.01
703.757	0.04
703.938	-0.01
704.12	0.14
704.301	0.01
704.483	-0.05
704.664	0.04
704.845	0.09
705.026	0.03
705.208	-0.03
705.389	0.03
705.57	0.03
705.751	-0.03
705.933	0.02
706.114	0.08
706.295	-0.03
706.476	-0.08
706.657	0.07
706.838	0.04
707.02	0.04
707.201	-0.07
707.382	-0.05
707.563	0.02
707.744	0.08
707.925	-0.04
708.106	-0.05
708.287	0.04
708.468	0.06
708.649	-0.02
708.83	0.01
709.011	-0.02
709.192	0.08
709.373	-0.01
709.554	-0.05
709.734	0.12
709.915	0.05
710.096	-0.11
710.277	-0.16
710.458	0.02
710.639	0.06
710.819	-0.15
711	-0.02
711.181	0.06
711.362	0.05
711.542	-0.01
711.723	-0.03
711.904	0.02
712.085	-0.01
712.265	0.06
712.446	-0.1
712.627	0.02
712.807	0
712.988	-0.04
713.168	-0.09
713.349	0.03
713.53	-0.13
713.71	0.01
713.891	-0.12
714.071	-0.01
714.252	0.05
714.432	-0.06
714.613	-0.1
714.793	-0
714.974	0.1
715.154	0.06
715.334	0.05
715.515	0.12
715.695	-0.01
715.876	0.01
716.056	-0.03
716.236	-0.03
716.417	0.02
716.597	-0.11
716.777	0.1
716.957	0.01
717.138	-0
717.318	0.02
717.498	-0.12
717.678	0
717.859	-0.02
718.039	-0.15
718.219	-0.07
718.399	0.06
718.579	-0.07
718.759	-0.07
718.939	0.03
719.12	0.07
719.3	-0.01
719.48	-0.2
719.66	-0.12
719.84	0.14
720.02	-0.05
720.2	-0.14
720.38	-0.02
720.56	0.11
720.74	0.02
720.92	0
721.1	0.05
721.279	0.01
721.459	-0.03
721.639	-0.08
721.819	0
721.999	-0.01
722.179	0.06
722.359	-0.11
722.538	0.05
722.718	0.01
722.898	-0.01
723.078	-0.05
723.257	-0.04
723.437	-0.01
723.617	0.05
723.797	-0.07
723.976	-0.01
724.156	0.03
724.336	0.09
724.515	0.08
724.695	-0.09
724.874	0.02
725.054	0.06
725.234	-0.08
725.413	-0.02
725.593	0.02
725.772	0.02
725.952	0.01
726.131	-0.02
726.311	-0.01
726.49	-0.07
726.67	-0.14
726.849	-0.04
727.028	0
727.208	-0.02
727.387	0.05
727.567	-0.15
727.746	0.01
727.925	-0.06
728.105	-0.08
728.284	-0.1
728.463	-0.07
728.643	0.06
728.822	-0.09
729.001	-0.09
729.18	-0.04
729.359	0.09
729.539	-0.03
729.718	-0.01
729.897	0.1
730.076	-0.06
730.255	-0.06
730.434	-0.01
730.614	0.13
730.793	0.17
730.972	-0.07
731.151	-0.02
731.33	0.2
731.509	0.12
731.688	0.03
731.867	-0.02
732.046	-0.14
732.225	0.16
732.404	-0.01
732.583	-0.13
732.762	-0.02
732.941	0.05
733.12	0.05
733.298	-0.1
733.477	0.06
733.656	-0.01
733.835	-0.07
734.014	0.03
734.193	-0.06
734.371	-0.01
734.55	0.06
734.729	-0.09
734.908	0.02
735.086	0.1
735.265	0.05
735.444	-0.13
735.623	-0.14
735.801	-0.12
735.98	0.01
736.159	-0.03
736.337	0.01
736.516	0.02
736.694	0.09
736.873	0.03
737.052	0.11
737.23	0.13
737.409	-0.08
737.587	0.16
737.766	-0.22
737.944	-0.11
738.123	0.1
738.301	0.09
738.479	-0.09
738.658	0.08
738.836	-0.17
739.015	0.01
739.193	0.12
739.371	-0.2
739.55	-0.11
739.728	0.07
739.906	0.17
740.085	0.08
740.263	0.1
740.441	-0.12
740.62	0.14
740.798	0.13
740.976	-0.1
741.154	-0.12
741.332	0.16
741.511	0.04
741.689	-0.03
741.867	0.05
742.045	0.02
742.223	-0.09
742.401	-0.1
742.579	-0.03
742.757	-0.1
742.935	-0.14
743.114	-0.04
743.292	-0.01
743.47	-0.08
743.648	0.01
743.826	-0.08
744.004	0.15
744.181	-0.01
744.359	-0.13
744.537	0.01
744.715	-0.12
744.893	0.01
745.071	-0.11
745.249	0.01
745.427	-0.06
745.605	0.06
745.782	-0
745.96	0.08
746.138	0.08
746.316	0.11
746.493	0.04
746.671	0.07
746.849	-0.09
747.027	0.13
747.204	-0.03
747.382	0.03
747.56	-0.16
747.737	0.1
747.915	-0.08
748.093	0.09
748.27	-0.04
748.448	-0.07
748.625	-0.2
748.803	-0.08
748.98	-0.08
749.158	0.06
749.335	0.05
749.513	-0.02
749.69	-0.02
749.868	-0
750.045	0.03
750.223	-0.07
750.4	-0.11
750.578	0.15
750.755	-0.01
750.932	-0.07
751.11	0.09
751.287	-0.18
751.464	0.14
751.642	-0.01
751.819	0.01
751.996	-0.05
752.173	-0.08
752.351	-0.11
752.528	0.03
752.705	-0.15
752.882	-0.03
753.06	0.05
753.237	0.02
753.414	0.19
753.591	0.17
753.768	-0.05
753.945	-0.06
754.122	0.01
754.299	0.06
754.476	-0.06
754.654	0.02
754.831	0.03
755.008	0.05
755.185	-0.07
755.362	-0.22
755.539	0.01
755.716	-0.07
755.892	-0.04
756.069	-0.01
756.246	-0.02
756.423	-0.04
756.6	0.12
756.777	0.03
756.954	0.23
757.131	-0.11
757.307	-0.16
757.484	-0.1
757.661	-0.13
757.838	0.03
758.015	-0.11
758.191	0.02
758.368	0.06
758.545	0.17
758.721	0.05
758.898	-0.06
759.075	-0.02
759.251	0.03
759.428	0.04
759.605	-0.08
759.781	0.11
759.958	0.07
760.134	0.11
760.311	-0.17
760.488	0.11
760.664	0.08
760.841	-0.07
761.017	-0.11
761.194	0.07
761.37	0.11
761.547	0.06
761.723	-0.04
761.899	0.26
762.076	-0.08
762.252	-0.03
762.429	-0.14
762.605	0.14
762.781	-0.02
762.958	0.02
763.134	-0.03
763.31	-0.07
763.486	0.16
763.663	-0.19
763.839	0.13
764.015	-0.04
764.191	0.04
764.368	-0.02
764.544	-0.16
764.72	0.06
764.896	0.01
765.072	-0.05
765.248	-0
765.425	0.01
765.601	0.01
765.777	0.01
765.953	-0.17
766.129	-0.06
766.305	-0.12
766.481	0.06
766.657	0.04
766.833	0.2
767.009	-0.13
767.185	-0.08
767.361	-0.08
767.537	-0.14
767.713	0.19
767.889	-0.04
768.065	0
768.24	-0.18
768.416	0.1
768.592	-0.08
768.768	-0.06
768.944	-0.04
769.12	-0.1
769.295	-0.08
769.471	-0.05
769.647	-0.03
769.823	0.23
769.998	-0.02
770.174	-0.09
770.35	0.24
770.525	0.26
770.701	0.04
770.877	-0.13
771.052	-0.11
771.228	0.16
771.403	0.15
771.579	0.02
771.755	0.23
771.93	-0.13
772.106	-0.05
772.281	-0
772.457	0.04
772.632	0.14
772.808	-0.17
772.983	-0.09
773.159	-0.22
773.334	0.13
773.509	0.01
773.685	-0.04
773.86	0.34
774.036	0.3
774.211	0.05
774.386	0.08
774.562	-0.1
774.737	0.07
774.912	-0.1
775.087	0.18
775.263	-0.02
775.438	0.09
775.613	-0.07
775.788	-0.04
775.964	0.13
776.139	0.31
776.314	-0.27
776.489	0.01
776.664	0.15
776.839	-0.2
777.014	0.18
777.19	0.23
777.365	0.3
777.54	0.12
777.715	-0.11
777.89	-0.01
778.065	0.01
778.24	-0.01
778.415	0.17
778.59	-0.12
778.765	0.03
778.94	-0.04
779.115	0.02
779.289	-0.1
779.464	-0.06
779.639	0.03
779.814	-0.2
779.989	-0.11
780.164	0.19
780.339	0.11
780.513	-0.03
780.688	-0.19
780.863	0.11
781.038	0.25
781.212	-0.16
781.387	-0.1
781.562	0.35
781.737	-0.02
781.911	0.2
782.086	-0.25
782.261	0.02
782.435	0.34
782.61	-0.21
782.784	0.07
782.959	0.32
783.134	-0.16
783.308	-0.24
783.483	-0.24
783.657	0.39
783.832	0.17
784.006	-0.29
784.181	-0.09
784.355	0.03
784.53	-0.24
784.704	-0.13
784.878	0.3
785.053	-0.06
785.227	0.4
785.402	0.32
785.576	-0.14
785.75	0.01
785.925	-0.07
786.099	0.02
786.273	-0.05
786.448	0.26
786.622	0.17
786.796	0.06
786.97	-0.18
787.145	0.6
787.319	-0.15
787.493	0.02
787.667	-0.39
787.841	-0.12
788.015	0.33
788.19	0.03
788.364	0.01
788.538	0.04
788.712	0.1
788.886	0.16
789.06	0.23
789.234	0.25
789.408	-0.22
789.582	-0.15
789.756	0.02
789.93	-0.13
790.104	-0.09
790.278	0.07
790.452	-0.06
790.626	0.15
790.8	-0.27
790.973	0.17
791.147	0.09
791.321	0.26
791.495	0.07
791.669	0.16
791.843	0.18
792.016	-0
792.19	0.49
792.364	-0.1
792.538	0.3
792.711	0.23
792.885	0
793.059	-0.35
793.233	-0.49
793.406	0.13
793.58	0.1
793.754	0.02
793.927	0.12
794.101	0.24
794.274	-0.2
794.448	0.19
794.622	-0.01
794.795	0.31
794.969	-0.04
795.142	0.4
795.316	-0.24
795.489	0.04
795.663	0.34
795.836	-0.04
796.009	-0.25
796.183	0.46
796.356	-0.02
796.53	0.21
796.703	-0.06
796.876	0.75
797.05	0.15
797.223	-0.12
797.396	0.1
797.57	-0.06
797.743	0.27
797.916	0.16
798.09	0.05
798.263	0.23
798.436	0.25
798.609	-0.11
798.782	-0.02
798.956	-0.01
799.129	-0.07
799.302	-0.16
799.475	-0.09
799.648	-0.02
799.821	-0.33
799.994	0.05
800.167	-0.37
800.34	-0.05
800.514	0.17
800.687	-0.26
800.86	-0.08
801.033	0.07
801.206	0.2
801.379	-0.35
801.551	0.11
801.724	0.41
801.897	0.46
802.07	0.2
802.243	-0.36
802.416	-0.22
802.589	-0.17
802.762	0.43
802.935	0.33
803.107	0.2
803.28	0.18
803.453	0.15
803.626	-0.2
803.798	0.01
803.971	-0.06
804.144	0.02
804.317	0.01
804.489	0.41
804.662	-0.14
804.835	-0.1
805.007	-0.36
805.18	0.52
805.353	-0.19
805.525	-0.2
805.698	-0.18
805.87	0.23
806.043	0.34
806.215	-0.23
806.388	-0.17
806.56	0.16
806.733	0.22
806.905	0.27
807.078	-0.46
807.25	-0.04
807.423	0.17
807.595	0.01
807.768	-0.22
807.94	0.19
808.112	-0.02
808.285	0.08
808.457	-0.18
808.629	0.12
808.802	0.07
808.974	-0.13
809.146	-0.1
809.318	-0.07
809.491	0.2
809.663	0.4
809.835	-0.35
810.007	0.2
810.18	-0.17
810.352	-0.59
810.524	-0.13
810.696	0.43
810.868	0.41
811.04	-0.16
811.212	-0.1
811.384	0.19
811.556	0.51
811.728	-0.33
811.901	0.32
812.073	0.09
812.245	0.04
812.417	0.32
812.589	-0.53
812.76	-0.11
812.932	-0.04
813.104	0.46
813.276	-0.13
813.448	0.43
813.62	0.04
813.792	0.1
813.964	0.07
814.136	0.53
814.307	-0.08
814.479	-0.33
814.651	0.09
814.823	0.7
814.995	-0.07
815.166	0.16
815.338	-0.06
815.51	-0.22
815.681	0.93
815.853	0.15
816.025	-0.27
816.196	0.82
816.368	0.61
816.54	-0.8
816.711	-0.75
816.883	0.38
817.054	1.09
817.226	-0.56
817.398	0.27
817.569	0
817.741	-0.17
817.912	-0.03
818.084	0.21
818.255	0.25
818.426	0.08
818.598	-0.07
818.769	-0.46
818.941	0.02
819.112	0.64
819.283	0.15
819.455	-0.68
819.626	0.62
819.798	0.41
819.969	0.19
820.14	-0.21
820.311	-0.15
820.483	0.04
820.654	0.47
820.825	-0.02
820.996	-0.15
821.168	-0.06
821.339	0.2
821.51	-0.42
821.681	-0.45
821.852	0.11
822.023	-0.36
822.195	-0.52
822.366	0.5
822.537	0.21
822.708	0.35
822.879	-0.26
823.05	0.44
823.221	-0.26
823.392	0.23
823.563	0.11
823.734	0.02
823.905	0.14
824.076	0.12
824.247	-0.28
824.418	-0.53
824.589	0.34
824.759	-0.17
824.93	-0.21
825.101	-0.77
825.272	0.17
825.443	0.68
825.614	0.09
825.784	-0.99
825.955	1.21
826.126	0.63
826.297	0.27
826.467	0.67
826.638	0.76
826.809	-0.72
826.98	-0.06
827.15	0.2
827.321	0.32
827.492	0.18
827.662	0.05
827.833	0.96
828.003	0.75
828.174	-0.67
828.345	-0.33
828.515	0.92
828.686	0.27
828.856	0.2
829.027	-0.12
829.197	-0.07
829.368	0.13
829.538	-0.61
829.709	-0.08
829.879	0.53
830.049	0.38
830.22	-0.43
830.39	-0.13
830.56	-0.11
830.731	-0.42
830.901	-0.76
831.072	-0.14
831.242	0.26
831.412	0.35
831.582	-0.29
831.753	-0.77
831.923	0.64
832.093	0.39
832.263	0.38
832.434	-0.51
832.604	-0.43
832.774	0.71
832.944	-0.6
833.114	-0.29
833.284	0.12
833.454	-0.46
833.624	-0.19
833.795	-0.09
833.965	0.85
834.135	0.75
834.305	-0.83
834.475	-0.32
834.645	-0.29
834.815	-0.09
834.985	-1.18
835.155	-0.03
835.325	0.65
835.494	0.27
835.664	0.05
835.834	-0.53
836.004	0.62
836.174	-0.22
836.344	-0.18
836.514	-0.86
836.684	-0.31
836.853	0.51
837.023	0.24
837.193	-0.52
837.363	0.76
837.532	0.76
837.702	0.44
837.872	0.13
838.041	0.36
838.211	1.61
838.381	-0.28
838.55	-0.13
838.72	2.01
838.89	1.51
839.059	-0.03
839.229	-0.42
839.398	1.06
839.568	0.12
839.738	0.24
839.907	0.86
840.077	0.72
840.246	-0.52
840.416	-0.38
840.585	-0.89
840.755	1.56
840.924	0.97
841.093	-0.33
841.263	-0.32
841.432	0.32
841.602	-0.74
841.771	-0.88
841.94	-0.22
842.11	2.33
842.279	1.63
842.448	-0.19
842.617	-1.09
842.787	1.52
842.956	-0.71
843.125	0.43
843.294	0.34
843.464	1.54
843.633	-0.02
843.802	-0.54
843.971	-0.13
844.14	1.04
844.309	1.17
844.479	0.07
844.648	-0.34
844.817	0.2
844.986	-0
845.155	-0.54
845.324	-0.4
845.493	0.34
845.662	-0.1
845.831	1.24
846	-0.12
846.169	0.01
846.338	1.07
846.507	-0.53
846.676	1.09
846.844	-0.24
847.013	-0.14
847.182	0.83
847.351	-0.15
847.52	-0.55
847.689	0.83
847.858	-0.2
848.026	-0.46
848.195	-0.27
848.364	-0.83
848.533	-0.62
848.701	-0.95
848.87	-0.37
849.039	0.85
849.207	0.62
849.376	0.83
849.545	1.5
849.713	-0.85
849.882	-0.54
850.051	-0.51
850.219	-0.06
850.388	1.44
850.556	-0.43
850.725	-0.2
850.893	1.06
851.062	0.35
851.23	0.3
851.399	-0.08
851.567	-0.41
851.736	-0.94
851.904	-0.9
852.073	-0.25
852.241	0.17
852.41	-0.57
852.578	0.76
852.746	-0.12
852.915	1.1
853.083	0.65
853.251	-1.05
853.42	-0.17
853.588	-0.33
853.756	1.85
853.924	0.01
854.093	-0.03
854.261	0.47
854.429	-1.8
854.597	0.21
854.765	-1.6
854.934	0.68
855.102	1.53
855.27	0.48
855.438	0.81
855.606	1.06
855.774	1.71
855.942	-2.64
856.11	-1.82
856.278	0.04
856.446	1.32
856.614	0.4
856.782	0.57
856.95	1.44
857.118	1.12
857.286	0.16
857.454	-0.42
857.622	2.08
857.79	1.28
857.958	-0.86
858.126	0.48
858.294	-1.5
858.462	0.32
858.629	-1.12
858.797	-0.91
858.965	0.68
859.133	-0.03
859.301	0.35
859.468	0.57
859.636	-0.17
859.804	1.35
859.971	-0.14
860.139	0.08
860.307	1.32
860.474	1.16
860.642	-2.3
860.81	-1.28
860.977	0.23
861.145	0.38
861.313	-0.04
861.48	0.24
861.648	1.84
861.815	-1.02
861.983	-0.86
862.15	-1.02
862.318	-0.04
862.485	0.95
862.653	-0.74
862.82	-1.2
862.988	2.28
863.155	0.35
863.322	-0.33
863.49	-0.81
863.657	0.17
863.824	2.27
863.992	1.76
864.159	0.41
864.326	1.52
864.494	-0.91
864.661	2.49
864.828	-1.11
864.996	1.89
865.163	1.41
865.33	-1
865.497	-1.98
865.664	-0.79
865.832	-1.7
865.999	0.79
866.166	-2.03
866.333	-0.69
866.5	-0
866.667	0.28
866.834	-0.87
867.001	1.92
867.168	-2.74
867.335	-0.17
867.502	-2.12
867.669	1.04
867.836	3.24
868.003	0.1
868.17	0.44
868.337	-1.23
868.504	2.89
868.671	-2.08
868.838	-0.86
869.005	2.22
869.172	1.2
869.339	0.17
869.505	-0.68
869.672	0.41
869.839	2.42
870.006	1.12
870.173	-1.74
870.339	-0.03
870.506	2.52
870.673	-2.01
870.84	1.65
871.006	0.93
871.173	1.05
871.34	1.12
871.506	-0.97
871.673	1.2
871.839	-1.96
872.006	0.83
872.173	2.22
872.339	0.38
872.506	1.06
872.672	-1.23
872.839	-0.84
873.005	0.51
873.172	3.28
873.338	1.35
873.505	0.05
873.671	-0.2
873.838	2.64
874.004	-1.26
874.171	-2.07
874.337	1.38
874.503	1.01
874.67	-0.4
874.836	0.12
875.002	1.57
875.169	2.34
875.335	0.03
875.501	-0.32
875.668	0.05
875.834	1.29
876	-1.23
876.166	1.2
876.332	0.98
876.499	1.03
876.665	-0.6
876.831	0.42
876.997	2.91
877.163	1.39
877.329	-1.38
877.495	-0.09
877.662	1.74
877.828	0.24
877.994	1.78
878.16	-0.91
878.326	-1.11
878.492	1.29
878.658	-0.63
878.824	1.04
878.99	1.54
879.156	0.09
879.322	2.39
879.487	-1.07
879.653	-0.06
879.819	1.97
879.985	-1.3
880.151	1.38
880.317	0.37
880.483	1.3
880.648	0.18
880.814	-2.78
880.98	1.68
881.146	-3.49
881.312	-0.88
881.477	-1.05
881.643	-0.23
881.809	2.22
881.974	1.97
882.14	-2.61
882.306	-0.47
882.471	3.65
882.637	-1.79
882.803	1.33
882.968	2.95
883.134	3.51
883.299	-0.38
883.465	0.26
883.63	2.25
883.796	1.88
883.961	0.86
884.127	-0.86
884.292	-3.08
884.458	-1.83
884.623	-1.83
