Data from Apollo_Calib_20240827__AbsoluteIrradiance__637__09-46-00-108.txt Node

Date: Wed Aug 28 09:46:00 BST 2024
User: biology
Spectrometer: FLMT08252
Trigger mode: 0
Integration Time (sec): 5.000000E-1
Scans to average: 5
Electric dark correction enabled: true
Nonlinearity correction enabled: false
Boxcar width: 0
XAxis mode: Wavelengths
Number of Pixels in Spectrum: 3648
>>>>>Begin Spectral Data<<<<<
179.588	-0
179.809	-0
180.03	-0
180.251	-0
180.473	-0
180.694	0
180.915	0
181.136	-0
181.357	0
181.578	0
181.799	-0
182.02	-0
182.241	-0
182.462	-0
182.683	0
182.904	-0
183.125	0
183.346	0
183.567	0
183.788	-0
184.009	-0
184.23	0
184.451	0
184.672	-0
184.892	-0
185.113	0
185.334	0
185.555	-0
185.776	-0
185.996	0
186.217	0
186.438	-0
186.659	-0
186.879	0
187.1	-0
187.321	-0
187.541	-0
187.762	-0
187.983	0
188.203	-0
188.424	0
188.644	-0
188.865	0
189.086	-0
189.306	-0
189.527	0
189.747	-0
189.968	-0
190.188	0
190.409	0
190.629	0
190.849	-0
191.07	-0
191.29	0
191.511	0
191.731	-0
191.951	-0
192.172	0
192.392	0
192.612	0
192.833	0
193.053	0
193.273	0
193.493	-0
193.714	0
193.934	0
194.154	0
194.374	0
194.594	0
194.815	0
195.035	0
195.255	0
195.475	-0
195.695	0
195.915	0
196.135	0
196.355	0
196.575	0
196.795	-0
197.015	-0
197.235	-0
197.455	-0
197.675	0
197.895	-0
198.115	-0
198.335	0
198.555	-0
198.775	0
198.995	0
199.214	0
199.434	-0
199.654	-0
199.874	0
200.094	0.59
200.313	-0.08
200.533	0.21
200.753	-0.57
200.973	0.56
201.192	0.24
201.412	-0.91
201.632	-0.24
201.851	0.67
202.071	-0.56
202.291	-0.25
202.51	-0.64
202.73	0.74
202.95	0.28
203.169	-0.6
203.389	0.08
203.608	0.47
203.828	-0.39
204.047	0.02
204.267	0.39
204.486	-0.04
204.706	0.15
204.925	0.17
205.145	-0.38
205.364	0.38
205.583	0.37
205.803	-0.16
206.022	-0.46
206.242	0.06
206.461	0.19
206.68	-0.65
206.9	0.35
207.119	0.88
207.338	0.62
207.557	-0.14
207.777	-0.22
207.996	-0.26
208.215	0.34
208.434	-0.41
208.654	-0.47
208.873	0.16
209.092	0.43
209.311	-0.11
209.53	-0.18
209.749	-0
209.968	-0.22
210.187	-0.2
210.407	-0.46
210.626	-0.18
210.845	0.28
211.064	-0.01
211.283	-0.26
211.502	0.23
211.721	0.12
211.94	-0.08
212.159	-0.04
212.377	0.31
212.596	0.34
212.815	0.17
213.034	0.01
213.253	0.21
213.472	0.01
213.691	0.01
213.91	-0.29
214.128	-0.29
214.347	0.28
214.566	-0.45
214.785	-0.42
215.003	0.32
215.222	0.12
215.441	-0.19
215.66	-0.29
215.878	0.02
216.097	0.32
216.316	-0.22
216.534	-0
216.753	0.03
216.972	0.01
217.19	0.11
217.409	-0.24
217.627	-0.12
217.846	-0.17
218.064	-0.25
218.283	-0.29
218.501	0.4
218.72	0.17
218.938	-0.08
219.157	-0.14
219.375	0.19
219.594	0.05
219.812	-0.2
220.031	-0.33
220.249	0.24
220.467	0.17
220.686	-0.18
220.904	-0.24
221.122	-0.24
221.341	0.2
221.559	0.03
221.777	-0.08
221.995	0.02
222.214	0.2
222.432	-0.08
222.65	0.15
222.868	-0.01
223.086	0.07
223.305	0.23
223.523	-0.1
223.741	0.27
223.959	-0.16
224.177	-0.17
224.395	-0.09
224.613	0.12
224.831	0.18
225.049	-0.19
225.267	-0.01
225.485	-0.11
225.703	0.08
225.921	0.09
226.139	-0.14
226.357	0.07
226.575	0.02
226.793	0.04
227.011	0.42
227.229	0.16
227.447	0.03
227.665	-0.13
227.883	-0.25
228.1	-0.04
228.318	0.16
228.536	-0.21
228.754	-0.13
228.972	0.17
229.189	0.14
229.407	-0.08
229.625	-0.05
229.843	0.24
230.06	0.04
230.278	0
230.496	-0.03
230.713	0.1
230.931	0.26
231.149	-0.05
231.366	-0.19
231.584	-0.11
231.801	0.26
232.019	0.11
232.236	-0.1
232.454	-0.03
232.671	0.03
232.889	-0.05
233.106	-0.11
233.324	0.06
233.541	-0
233.759	-0.07
233.976	-0.08
234.194	-0.01
234.411	-0.02
234.628	-0.19
234.846	-0.06
235.063	0.04
235.28	-0.03
235.498	-0.1
235.715	-0.14
235.932	0.13
236.149	-0.05
236.367	-0.08
236.584	0.02
236.801	-0.01
237.018	-0
237.236	0.01
237.453	-0.27
237.67	0.09
237.887	0.01
238.104	-0.01
238.321	-0.09
238.538	-0.08
238.755	0.15
238.973	-0.15
239.19	-0.02
239.407	0.05
239.624	0.06
239.841	-0.12
240.058	-0.07
240.275	0.07
240.492	-0.11
240.709	0.01
240.925	-0.03
241.142	0.08
241.359	-0.08
241.576	-0.02
241.793	-0.07
242.01	-0.01
242.227	0.06
242.444	0.06
242.66	0.2
242.877	0.03
243.094	-0.09
243.311	-0.04
243.527	-0.02
243.744	0.03
243.961	0.07
244.178	-0.13
244.394	-0.01
244.611	0.19
244.828	0.17
245.044	-0.08
245.261	0.05
245.477	0
245.694	0.1
245.911	-0.09
246.127	0.01
246.344	0.18
246.56	0.09
246.777	-0.11
246.993	-0.08
247.21	0.06
247.426	0.11
247.643	-0.08
247.859	-0.02
248.076	-0.08
248.292	0.17
248.508	0.01
248.725	0.06
248.941	0.05
249.157	0.07
249.374	-0.01
249.59	-0.08
249.806	0.05
250.023	0.12
250.239	-0.13
250.455	-0.14
250.671	-0.07
250.888	0.07
251.104	0.05
251.32	-0.06
251.536	-0.01
251.752	-0.01
251.969	-0.04
252.185	-0.02
252.401	0.23
252.617	-0.08
252.833	-0.06
253.049	0
253.265	0.01
253.481	0.05
253.697	-0
253.913	-0.04
254.129	-0.01
254.345	-0
254.561	0.01
254.777	-0.02
254.993	0.02
255.209	0.02
255.425	-0.02
255.641	-0.07
255.857	0.08
256.073	0.02
256.288	-0.04
256.504	-0.03
256.72	0.05
256.936	0.14
257.152	-0.01
257.367	-0.08
257.583	0.02
257.799	0.09
258.015	-0.1
258.23	-0.07
258.446	0.11
258.662	0.03
258.877	-0.07
259.093	-0.03
259.309	0.06
259.524	0.03
259.74	-0.04
259.955	-0.08
260.171	0.02
260.387	-0.02
260.602	0.01
260.818	0.03
261.033	-0.09
261.249	-0.07
261.464	-0.09
261.68	-0.16
261.895	0.02
262.11	0.12
262.326	-0.03
262.541	-0.09
262.757	0.06
262.972	0.01
263.187	-0
263.403	0.03
263.618	0.09
263.833	-0.01
264.049	-0.01
264.264	0.02
264.479	0.1
264.694	0.1
264.91	-0.06
265.125	-0.06
265.34	0.01
265.555	0.12
265.77	0.04
265.986	-0.02
266.201	0.06
266.416	0.1
266.631	-0.05
266.846	0.02
267.061	0.04
267.276	0.06
267.491	-0.1
267.706	0.06
267.921	0.05
268.136	0.02
268.351	0
268.566	-0.01
268.781	0.09
268.996	0.04
269.211	-0.01
269.426	-0.06
269.641	0.01
269.856	0.05
270.071	-0.05
270.285	-0.04
270.5	0.02
270.715	0.09
270.93	0.02
271.145	0.01
271.359	0.06
271.574	-0.08
271.789	-0.07
272.004	-0.07
272.218	-0.01
272.433	0.02
272.648	-0.07
272.862	0.04
273.077	-0.01
273.292	-0.02
273.506	-0.11
273.721	-0
273.936	0.05
274.15	0.06
274.365	-0.01
274.579	0.05
274.794	0.06
275.008	0.05
275.223	-0.07
275.437	-0.02
275.652	0.09
275.866	0.05
276.081	-0.04
276.295	0.07
276.509	0.02
276.724	-0.01
276.938	-0
277.153	0
277.367	0.06
277.581	-0.02
277.796	-0.03
278.01	-0.07
278.224	-0.01
278.438	0.13
278.653	-0.05
278.867	-0.07
279.081	0.11
279.295	0
279.51	0
279.724	-0.1
279.938	0.07
280.152	0.03
280.366	-0.08
280.58	0.03
280.794	0.08
281.008	0.06
281.222	0.08
281.437	0.1
281.651	0.02
281.865	0.06
282.079	-0.02
282.293	-0.06
282.507	-0.02
282.721	-0.02
282.935	-0.04
283.148	-0.11
283.362	-0.04
283.576	-0.04
283.79	-0
284.004	-0.02
284.218	0.06
284.432	-0.05
284.646	-0
284.859	-0.02
285.073	-0.01
285.287	-0
285.501	-0
285.714	0.02
285.928	0.02
286.142	-0.01
286.356	-0.02
286.569	-0.06
286.783	0.06
286.997	0.05
287.21	0.04
287.424	0.01
287.637	0
287.851	0.04
288.065	0.06
288.278	-0.02
288.492	-0
288.705	-0.01
288.919	0.04
289.132	-0.09
289.346	0.08
289.559	-0.05
289.773	-0.04
289.986	0.04
290.2	-0.02
290.413	0.01
290.626	-0.06
290.84	0.02
291.053	-0
291.267	0.07
291.48	0.01
291.693	0.04
291.906	-0.04
292.12	0.01
292.333	-0.08
292.546	0
292.76	0.07
292.973	0.06
293.186	0.04
293.399	-0.01
293.612	0.02
293.826	0.01
294.039	-0.01
294.252	0.01
294.465	0.05
294.678	0.06
294.891	0.01
295.104	-0.02
295.317	0.02
295.53	0.03
295.743	0
295.956	-0.01
296.169	0.07
296.382	0.04
296.595	0.01
296.808	-0.02
297.021	0.07
297.234	0.07
297.447	-0.01
297.66	0.04
297.873	0.04
298.086	0.04
298.299	-0.01
298.511	-0.02
298.724	-0.08
298.937	-0.04
299.15	-0.01
299.363	0.02
299.575	0.03
299.788	0.07
300.001	0.01
300.213	-0.03
300.426	-0.01
300.639	0
300.852	-0.04
301.064	0.03
301.277	0.05
301.489	0.05
301.702	0.02
301.915	0.03
302.127	0.04
302.34	-0.01
302.552	0.01
302.765	-0.01
302.977	0.07
303.19	-0
303.402	0.01
303.615	-0.01
303.827	-0.02
304.04	-0.02
304.252	0.02
304.464	0.03
304.677	0.12
304.889	0.06
305.102	-0.04
305.314	-0.01
305.526	0.01
305.739	0.04
305.951	-0.03
306.163	-0.02
306.375	0.06
306.588	-0.03
306.8	-0.03
307.012	-0.08
307.224	-0
307.436	0.06
307.649	-0.03
307.861	0.04
308.073	0.05
308.285	-0.01
308.497	-0.02
308.709	-0
308.921	0.04
309.133	0.09
309.346	0.02
309.558	0.01
309.77	0.07
309.982	0.01
310.194	0.06
310.406	-0.06
310.617	0.1
310.829	0.02
311.041	0.06
311.253	-0.02
311.465	-0.03
311.677	0.07
311.889	0.01
312.101	0.01
312.313	0.06
312.524	0.05
312.736	-0.04
312.948	0.01
313.16	0.08
313.372	0.03
313.583	0.05
313.795	-0.03
314.007	-0.02
314.218	0.05
314.43	0
314.642	-0.02
314.853	-0.05
315.065	0.05
315.277	-0
315.488	0.02
315.7	0.04
315.912	0.04
316.123	0.01
316.335	0.01
316.546	0.06
316.758	-0.01
316.969	-0.07
317.181	0.03
317.392	0.01
317.604	0.04
317.815	-0.05
318.026	-0.04
318.238	0.06
318.449	0.03
318.661	-0.05
318.872	-0.06
319.083	-0.01
319.295	0.01
319.506	-0.03
319.717	0.02
319.929	0.02
320.14	-0.02
320.351	0.03
320.562	-0.06
320.774	-0.01
320.985	-0.01
321.196	0
321.407	-0.03
321.618	0.04
321.829	0.03
322.041	0.05
322.252	-0.02
322.463	0.01
322.674	0.06
322.885	-0.01
323.096	-0.02
323.307	-0.04
323.518	0.02
323.729	-0.03
323.94	-0.01
324.151	-0.01
324.362	0.01
324.573	0.01
324.784	-0.03
324.995	0.04
325.206	0.03
325.417	-0
325.628	-0
325.838	0.01
326.049	-0.02
326.26	0.03
326.471	0.02
326.682	0.02
326.892	-0.03
327.103	-0.05
327.314	-0.05
327.525	0.05
327.735	0.01
327.946	-0.02
328.157	-0.05
328.368	0.05
328.578	-0.01
328.789	0
328.999	-0.02
329.21	0.02
329.421	0.08
329.631	-0.04
329.842	-0.03
330.052	-0.01
330.263	0.06
330.473	0.01
330.684	0.02
330.894	-0.03
331.105	0
331.315	-0
331.526	-0.09
331.736	0.09
331.947	-0
332.157	0.01
332.367	-0.02
332.578	0.05
332.788	0.07
332.999	0.03
333.209	-0.01
333.419	-0.02
333.629	0
333.84	-0.01
334.05	-0
334.26	0.06
334.47	0.03
334.681	0.08
334.891	-0.04
335.101	0.07
335.311	0.08
335.521	0.01
335.732	-0.03
335.942	0.03
336.152	0.05
336.362	0.02
336.572	0
336.782	0.02
336.992	0.01
337.202	-0.01
337.412	-0.02
337.622	0.04
337.832	0.06
338.042	0.02
338.252	0.02
338.462	-0.02
338.672	-0.01
338.882	0.05
339.092	0.03
339.302	0.1
339.511	-0.02
339.721	-0.04
339.931	-0.02
340.141	0.05
340.351	0.04
340.561	0.04
340.77	0.02
340.98	0.02
341.19	0.05
341.4	-0.02
341.609	-0.08
341.819	0.04
342.029	-0.04
342.238	0
342.448	0.01
342.658	-0.01
342.867	0.02
343.077	0.02
343.286	0.04
343.496	0.01
343.706	0.07
343.915	-0.04
344.125	0.03
344.334	0.02
344.544	-0.04
344.753	-0.01
344.963	-0.04
345.172	-0.04
345.381	0
345.591	-0.01
345.8	0.03
346.01	0.07
346.219	0.03
346.428	-0.1
346.638	-0.01
346.847	-0.02
347.056	0.09
347.266	0.01
347.475	-0.01
347.684	0.01
347.893	0.02
348.103	0.04
348.312	0.02
348.521	-0.01
348.73	-0.04
348.94	0.01
349.149	-0.02
349.358	0.03
349.567	-0.02
349.776	0
349.985	-0.03
350.194	0.02
350.403	0.05
350.612	-0.07
350.821	-0.01
351.03	-0
351.239	-0.03
351.448	-0
351.657	-0.01
351.866	0.06
352.075	-0.03
352.284	0.03
352.493	-0.06
352.702	0.08
352.911	0.02
353.12	0.01
353.329	-0
353.538	0.03
353.746	-0.02
353.955	-0.02
354.164	0.04
354.373	0.01
354.582	-0
354.79	0.04
354.999	0.08
355.208	-0.01
355.416	0.07
355.625	-0.02
355.834	0.01
356.042	0.01
356.251	-0
356.46	-0.05
356.668	-0
356.877	0.06
357.085	0.02
357.294	-0.08
357.503	0.06
357.711	0.02
357.92	0.13
358.128	-0.01
358.337	-0.02
358.545	0.01
358.754	-0.01
358.962	0.04
359.17	-0
359.379	0.03
359.587	0.04
359.796	-0.03
360.004	0.04
360.212	0.08
360.421	0.04
360.629	0.01
360.837	-0.02
361.046	0.04
361.254	0.12
361.462	0.02
361.67	0.01
361.879	0.01
362.087	0.06
362.295	0.04
362.503	-0.01
362.711	-0.04
362.92	-0.01
363.128	0
363.336	0.01
363.544	-0.03
363.752	0.03
363.96	-0.01
364.168	0.03
364.376	0.02
364.584	0.02
364.792	0.02
365	0.04
365.208	0
365.416	0.01
365.624	0.05
365.832	-0.04
366.04	0.07
366.248	0.03
366.456	0.02
366.664	0.02
366.872	-0.02
367.079	-0.04
367.287	0.03
367.495	0.04
367.703	-0
367.911	-0.04
368.118	0
368.326	-0.01
368.534	-0.04
368.742	0.03
368.949	-0.02
369.157	-0.01
369.365	0.07
369.572	-0.03
369.78	-0.03
369.988	0.03
370.195	0.01
370.403	0.05
370.61	-0.03
370.818	-0.01
371.026	0.05
371.233	-0.05
371.441	0.02
371.648	-0.03
371.856	0.06
372.063	0.01
372.271	0.04
372.478	-0.01
372.685	-0.03
372.893	0.06
373.1	-0.03
373.308	-0.01
373.515	0.08
373.722	0.02
373.93	0.03
374.137	0.03
374.344	0.05
374.552	0.06
374.759	0.06
374.966	-0.02
375.173	-0.04
375.381	0.05
375.588	-0.01
375.795	-0.04
376.002	-0.02
376.209	-0.04
376.417	-0.05
376.624	-0.02
376.831	0.03
377.038	0.01
377.245	-0.09
377.452	-0.02
377.659	0.04
377.866	-0
378.073	-0.03
378.28	0
378.487	0.03
378.694	0.05
378.901	0.01
379.108	-0
379.315	0.02
379.522	0.12
379.729	0.02
379.936	0.02
380.143	0.01
380.35	0.03
380.557	-0.02
380.763	0.04
380.97	-0.02
381.177	0.06
381.384	0.03
381.591	-0.02
381.797	0.04
382.004	0.02
382.211	0.04
382.418	-0.01
382.624	0.06
382.831	0.04
383.038	-0.03
383.244	-0.01
383.451	-0.05
383.658	0.04
383.864	-0
384.071	-0.03
384.277	0.1
384.484	-0.01
384.69	0.05
384.897	-0.02
385.103	-0.02
385.31	-0.04
385.516	0
385.723	-0.03
385.929	-0.02
386.136	-0
386.342	0.02
386.549	0.02
386.755	0.08
386.961	0.03
387.168	-0.03
387.374	-0.01
387.58	0.01
387.787	0.01
387.993	0.03
388.199	0.03
388.406	-0.04
388.612	-0.01
388.818	-0.03
389.024	-0.02
389.231	0.01
389.437	0.07
389.643	0.04
389.849	-0.05
390.055	-0
390.261	0
390.467	-0.02
390.674	-0.03
390.88	0
391.086	0.02
391.292	-0.01
391.498	0.06
391.704	0.03
391.91	-0
392.116	0
392.322	-0.11
392.528	0.02
392.734	-0.03
392.94	0.06
393.146	-0.01
393.352	0.02
393.557	-0.04
393.763	0.01
393.969	-0
394.175	0.02
394.381	0.05
394.587	-0.03
394.792	0
394.998	0.04
395.204	0.06
395.41	-0.01
395.615	0.02
395.821	0
396.027	0.01
396.233	-0.05
396.438	-0
396.644	0.07
396.85	-0
397.055	0.01
397.261	-0
397.466	0.09
397.672	0.04
397.878	0.08
398.083	0.03
398.289	-0.05
398.494	-0.01
398.7	0.03
398.905	-0.05
399.111	0.03
399.316	-0.03
399.522	0.03
399.727	0.06
399.932	-0.03
400.138	0.02
400.343	0.03
400.549	0.03
400.754	0.01
400.959	-0
401.165	0.02
401.37	0.04
401.575	0.09
401.78	-0.02
401.986	-0.04
402.191	0.02
402.396	-0.02
402.601	0.02
402.807	0.01
403.012	0
403.217	0.05
403.422	0.01
403.627	-0.04
403.832	0
404.037	0.05
404.243	0.04
404.448	-0.01
404.653	-0.03
404.858	0.1
405.063	0.03
405.268	-0.02
405.473	-0.01
405.678	-0.02
405.883	0.15
406.088	0.02
406.293	-0.05
406.498	-0.04
406.703	0.03
406.907	0.03
407.112	-0.04
407.317	0.04
407.522	0.05
407.727	-0.09
407.932	0
408.136	0.03
408.341	0
408.546	0.05
408.751	0.05
408.956	-0.02
409.16	-0
409.365	0
409.57	0
409.774	0.02
409.979	0.04
410.184	-0.02
410.388	-0.04
410.593	0.03
410.798	-0.03
411.002	-0.03
411.207	0.07
411.411	0.01
411.616	-0.05
411.82	-0.06
412.025	0.03
412.229	-0.03
412.434	0.07
412.638	0.02
412.843	-0.01
413.047	0.02
413.252	-0.04
413.456	-0
413.66	0.03
413.865	-0.06
414.069	0.06
414.273	-0.02
414.478	0.01
414.682	-0.01
414.886	-0
415.091	-0.04
415.295	-0.11
415.499	0.01
415.703	-0.02
415.908	0.03
416.112	-0.05
416.316	0.01
416.52	-0.03
416.724	-0.08
416.929	-0.03
417.133	0.08
417.337	-0.01
417.541	-0.01
417.745	-0
417.949	0.03
418.153	0.02
418.357	-0.05
418.561	0.07
418.765	0
418.969	0.11
419.173	0
419.377	-0.04
419.581	0.07
419.785	-0
419.989	-0.04
420.193	-0.02
420.397	-0.02
420.601	0.04
420.804	0.01
421.008	-0.02
421.212	-0.02
421.416	0.05
421.62	-0.01
421.823	0.01
422.027	0.07
422.231	0.07
422.435	-0.02
422.638	0.02
422.842	0
423.046	-0.05
423.249	0.02
423.453	0.01
423.657	0.01
423.86	0
424.064	-0
424.268	0.09
424.471	-0.04
424.675	0.08
424.878	0.09
425.082	-0.01
425.285	0.06
425.489	-0.01
425.692	-0.01
425.896	-0.04
426.099	0.02
426.303	-0.02
426.506	-0.08
426.71	0.04
426.913	0.06
427.116	0.03
427.32	0.04
427.523	-0.02
427.726	0.11
427.93	-0.05
428.133	0.04
428.336	-0.05
428.54	-0.07
428.743	-0.03
428.946	0.04
429.149	0
429.353	0.03
429.556	-0.01
429.759	0.02
429.962	-0.02
430.165	-0.04
430.368	-0.02
430.571	-0.06
430.775	0.02
430.978	-0
431.181	0.03
431.384	0.05
431.587	-0.02
431.79	0.04
431.993	0.08
432.196	-0.02
432.399	0
432.602	0.07
432.805	-0.03
433.008	0
433.211	-0.07
433.414	0.05
433.616	0.06
433.819	-0
434.022	-0.08
434.225	0.08
434.428	0.03
434.631	0.09
434.833	0.04
435.036	0.03
435.239	0.06
435.442	0
435.645	-0.06
435.847	0.02
436.05	0.02
436.253	-0.03
436.455	-0.04
436.658	0
436.861	0.06
437.063	-0.02
437.266	-0.03
437.468	0.02
437.671	0.15
437.874	-0.01
438.076	-0.04
438.279	-0.03
438.481	-0.01
438.684	-0.05
438.886	0
439.089	-0.06
439.291	0.01
439.494	0.03
439.696	-0.02
439.899	-0.04
440.101	0
440.303	-0.07
440.506	0.03
440.708	0
440.91	0.04
441.113	-0.06
441.315	0.04
441.517	-0.09
441.72	-0.02
441.922	-0.01
442.124	-0.06
442.326	0.03
442.529	0.08
442.731	-0.07
442.933	0.07
443.135	0.04
443.337	-0.03
443.539	0.02
443.742	-0.08
443.944	0.04
444.146	-0.02
444.348	-0.01
444.55	-0.01
444.752	0.03
444.954	-0.03
445.156	0.02
445.358	-0.01
445.56	0.06
445.762	-0.01
445.964	-0.04
446.166	-0.01
446.368	-0.06
446.57	0.06
446.772	-0
446.974	0.01
447.175	0.02
447.377	-0.04
447.579	-0.1
447.781	-0.07
447.983	0.08
448.184	-0.02
448.386	0.01
448.588	-0.08
448.79	0.05
448.991	-0.02
449.193	-0.02
449.395	-0.03
449.597	0.06
449.798	0.03
450	0.02
450.202	0.02
450.403	0.03
450.605	0.03
450.806	0.01
451.008	-0.1
451.21	-0.01
451.411	0.01
451.613	0.02
451.814	-0.04
452.016	0.05
452.217	-0
452.419	0.08
452.62	0.05
452.821	0.05
453.023	0.06
453.224	0.05
453.426	-0.02
453.627	0.02
453.828	0.03
454.03	0.01
454.231	0.02
454.432	-0.06
454.634	0.09
454.835	-0.02
455.036	-0.06
455.238	0.03
455.439	0.08
455.64	-0.07
455.841	-0.05
456.042	0.11
456.244	0.04
456.445	-0.04
456.646	-0.08
456.847	-0.01
457.048	0.1
457.249	0.04
457.45	0.18
457.651	-0.03
457.852	0.03
458.054	-0.03
458.255	-0.02
458.456	0.02
458.657	-0.03
458.858	-0.05
459.058	-0
459.259	0.03
459.46	-0.05
459.661	-0.06
459.862	0.07
460.063	-0.01
460.264	0.09
460.465	-0.07
460.666	0.08
460.866	-0.01
461.067	-0.03
461.268	0.02
461.469	0.01
461.67	0.04
461.87	-0.01
462.071	0.02
462.272	-0.02
462.473	0.02
462.673	0.03
462.874	-0.05
463.075	0.01
463.275	-0.05
463.476	-0.01
463.676	0.05
463.877	0.02
464.078	-0.04
464.278	0.07
464.479	-0.05
464.679	-0.03
464.88	-0.02
465.08	0.1
465.281	-0.05
465.481	-0.04
465.682	-0.02
465.882	0.03
466.083	-0.02
466.283	0.02
466.483	-0.01
466.684	-0.07
466.884	-0.03
467.085	-0.01
467.285	0.05
467.485	0
467.686	-0
467.886	-0.02
468.086	-0.03
468.286	0
468.487	0
468.687	-0.02
468.887	0.02
469.087	0.03
469.287	-0.02
469.488	-0.07
469.688	-0
469.888	0.05
470.088	0.03
470.288	0.07
470.488	0.04
470.688	-0.03
470.888	-0.01
471.088	-0.03
471.288	0.08
471.488	0.04
471.688	0.05
471.888	-0
472.088	0.03
472.288	0.06
472.488	-0.01
472.688	0
472.888	0.02
473.088	0
473.288	0.04
473.488	0.02
473.688	0.07
473.887	-0
474.087	-0.05
474.287	0.01
474.487	-0.04
474.687	0.02
474.886	0.02
475.086	0.01
475.286	0.02
475.486	0.02
475.685	-0.02
475.885	-0.01
476.085	-0.01
476.284	0.07
476.484	-0.01
476.684	0.02
476.883	0.07
477.083	0
477.282	-0.05
477.482	0.05
477.681	0.07
477.881	0.02
478.08	-0.01
478.28	-0.05
478.479	0.01
478.679	0.06
478.878	0.01
479.078	-0.04
479.277	0.01
479.477	0
479.676	0.03
479.875	0.02
480.075	-0.02
480.274	0.02
480.473	0.03
480.673	-0.01
480.872	0.06
481.071	0.02
481.271	0.05
481.47	-0.01
481.669	0
481.868	-0.01
482.067	-0.03
482.267	-0.01
482.466	-0.01
482.665	-0.02
482.864	-0.04
483.063	-0.01
483.262	0.01
483.461	0.04
483.661	0.03
483.86	0
484.059	-0.01
484.258	-0
484.457	-0.01
484.656	0
484.855	0.03
485.054	-0.07
485.253	-0.03
485.452	-0.03
485.651	-0
485.849	-0.01
486.048	0.01
486.247	-0.01
486.446	0.03
486.645	-0.03
486.844	0.01
487.043	0
487.241	0.02
487.44	-0.03
487.639	-0.02
487.838	0.02
488.037	-0
488.235	0.04
488.434	-0.02
488.633	-0.02
488.831	0.03
489.03	0.05
489.229	0.04
489.427	0.01
489.626	0.02
489.825	0.05
490.023	0
490.222	-0.01
490.42	-0
490.619	0.03
490.817	-0.01
491.016	0.01
491.214	0.03
491.413	-0.01
491.611	-0.01
491.81	0.01
492.008	0.03
492.207	0.03
492.405	-0
492.604	-0.08
492.802	-0.01
493	-0.02
493.199	-0.01
493.397	-0
493.595	0.02
493.794	-0.01
493.992	0.06
494.19	0
494.388	0.01
494.587	-0.01
494.785	0.01
494.983	-0.02
495.181	-0.01
495.379	0.01
495.578	-0.02
495.776	0.02
495.974	0.03
496.172	0
496.37	-0.01
496.568	-0.03
496.766	-0.02
496.964	0.03
497.162	0.01
497.36	-0.03
497.558	0.01
497.756	-0
497.954	-0
498.152	-0.03
498.35	0.01
498.548	0.01
498.746	0
498.944	-0.03
499.142	-0
499.34	-0.03
499.538	0.02
499.736	-0.01
499.933	-0
500.131	0.03
500.329	0.01
500.527	0.03
500.725	0.03
500.922	0.02
501.12	0
501.318	0.01
501.516	-0.03
501.713	0.02
501.911	-0
502.109	-0.02
502.306	0.01
502.504	-0.01
502.701	-0.02
502.899	-0.02
503.097	0.03
503.294	0
503.492	0.01
503.689	0.02
503.887	0
504.084	0.07
504.282	-0.01
504.479	-0.01
504.677	-0.01
504.874	-0.04
505.072	0
505.269	0.01
505.466	0.02
505.664	0
505.861	-0.03
506.059	-0.04
506.256	0.02
506.453	0
506.651	0.03
506.848	0.03
507.045	0.02
507.242	-0
507.44	0
507.637	-0
507.834	-0.02
508.031	0.01
508.229	-0.01
508.426	-0
508.623	0.02
508.82	-0.03
509.017	-0.02
509.214	-0.02
509.411	0.01
509.608	-0.03
509.805	-0.02
510.003	-0.03
510.2	-0.01
510.397	0.02
510.594	-0.02
510.791	-0.02
510.988	-0
511.184	0.03
511.381	0
511.578	-0.01
511.775	0.01
511.972	-0.01
512.169	-0.02
512.366	-0
512.563	0.03
512.76	-0.02
512.956	-0.02
513.153	-0.01
513.35	0.01
513.547	-0.02
513.744	-0.02
513.94	-0.03
514.137	0
514.334	0.01
514.53	0.02
514.727	-0
514.924	0.02
515.12	-0.01
515.317	-0.01
515.514	0.01
515.71	-0.05
515.907	-0.04
516.103	-0.02
516.3	0
516.497	0.01
516.693	0.05
516.89	0
517.086	-0.04
517.283	0.03
517.479	0.01
517.676	-0.02
517.872	-0.01
518.068	0.01
518.265	-0.01
518.461	-0.02
518.658	-0
518.854	0.01
519.05	-0.02
519.247	-0.02
519.443	0.02
519.639	0.01
519.836	0.02
520.032	0.01
520.228	0.01
520.424	0.02
520.621	0.02
520.817	0
521.013	0.01
521.209	0.02
521.405	0.04
521.601	0
521.798	0.02
521.994	0.03
522.19	-0
522.386	-0.03
522.582	0
522.778	-0.01
522.974	-0.02
523.17	0
523.366	0.01
523.562	0.02
523.758	0.02
523.954	-0
524.15	-0.02
524.346	0.02
524.542	-0.02
524.738	-0.03
524.934	-0
525.129	-0
525.325	0.01
525.521	0.01
525.717	0.03
525.913	0
526.109	0.03
526.304	-0
526.5	0.01
526.696	0.03
526.892	-0
527.087	0
527.283	-0.01
527.479	0.01
527.674	-0.01
527.87	0.01
528.066	-0.01
528.261	0.03
528.457	0.02
528.653	-0.03
528.848	-0
529.044	0
529.239	-0.01
529.435	0.02
529.63	0.01
529.826	0.03
530.021	-0
530.217	0.02
530.412	-0.01
530.608	-0.01
530.803	0.01
530.999	-0.01
531.194	-0.06
531.389	0.01
531.585	-0.05
531.78	0.01
531.975	0.01
532.171	0
532.366	-0.01
532.561	0
532.757	-0.03
532.952	0
533.147	-0.02
533.342	0
533.538	-0.02
533.733	0.02
533.928	0.02
534.123	-0.01
534.318	-0.03
534.513	-0.01
534.709	-0.01
534.904	-0.03
535.099	-0.01
535.294	0
535.489	0.01
535.684	-0
535.879	-0.02
536.074	0.01
536.269	-0.02
536.464	0.01
536.659	0.01
536.854	0.02
537.049	0.01
537.244	0.01
537.439	-0.02
537.634	0.02
537.828	0.01
538.023	-0
538.218	-0.03
538.413	0.01
538.608	-0.04
538.803	0
538.997	-0.03
539.192	0.02
539.387	0.01
539.582	-0
539.776	0
539.971	-0.02
540.166	-0.01
540.36	-0.02
540.555	-0.03
540.75	-0.01
540.944	-0.01
541.139	-0.04
541.334	-0.01
541.528	0.02
541.723	0.01
541.917	-0.01
542.112	-0.04
542.306	-0.01
542.501	-0
542.695	0.02
542.89	-0.02
543.084	0.01
543.279	-0.01
543.473	-0.01
543.668	-0.01
543.862	0.01
544.056	0.02
544.251	0.02
544.445	0.03
544.64	-0.01
544.834	-0.02
545.028	-0
545.222	0.01
545.417	0.03
545.611	-0
545.805	-0
546	-0
546.194	-0.01
546.388	-0.01
546.582	0.01
546.776	-0
546.97	0
547.165	0.03
547.359	0.01
547.553	-0.03
547.747	0.01
547.941	-0.01
548.135	-0.01
548.329	0.02
548.523	0.01
548.717	0.01
548.911	-0
549.105	-0
549.299	0
549.493	0.02
549.687	0.02
549.881	0.03
550.075	-0
550.269	-0.01
550.463	0.02
550.657	0
550.85	0
551.044	-0.02
551.238	-0
551.432	-0.02
551.626	-0.03
551.82	0.02
552.013	-0.02
552.207	0.01
552.401	0.01
552.594	0
552.788	-0
552.982	0.01
553.176	-0.02
553.369	0.02
553.563	-0
553.756	-0.05
553.95	-0.01
554.144	-0
554.337	0
554.531	0.01
554.724	-0
554.918	-0.02
555.111	0.02
555.305	-0
555.498	0.05
555.692	0.01
555.885	-0.02
556.079	-0.01
556.272	-0.03
556.466	0.01
556.659	0.02
556.852	-0.03
557.046	-0.01
557.239	0.02
557.432	-0.02
557.626	-0.03
557.819	0.02
558.012	0.02
558.206	-0
558.399	-0
558.592	0
558.785	-0.03
558.979	-0.01
559.172	-0.01
559.365	-0
559.558	-0.01
559.751	0.01
559.944	0
560.138	-0.01
560.331	0.01
560.524	-0.01
560.717	0.01
560.91	0
561.103	0.02
561.296	-0
561.489	-0
561.682	0
561.875	0.03
562.068	-0
562.261	-0
562.454	0.04
562.647	-0
562.84	0.02
563.032	-0.01
563.225	0.02
563.418	-0.01
563.611	-0.03
563.804	-0
563.997	0.01
564.19	-0.02
564.382	-0.05
564.575	0.01
564.768	0.03
564.961	-0.02
565.153	0.01
565.346	0.03
565.539	0.01
565.731	0.02
565.924	0.03
566.117	-0
566.309	0
566.502	-0.03
566.695	0.01
566.887	0
567.08	-0.05
567.272	0
567.465	0
567.657	-0.01
567.85	0.04
568.042	-0
568.235	0.03
568.427	-0
568.62	-0.01
568.812	0.03
569.005	-0.01
569.197	-0.04
569.389	0.02
569.582	0.01
569.774	0.02
569.966	-0.02
570.159	-0.03
570.351	0.03
570.543	-0.03
570.736	-0.01
570.928	-0.02
571.12	0.02
571.312	-0.01
571.505	-0.03
571.697	0.02
571.889	-0.02
572.081	0.01
572.273	-0.02
572.465	0.05
572.658	-0.01
572.85	0.01
573.042	-0
573.234	-0.02
573.426	0.03
573.618	-0.02
573.81	0.01
574.002	0.03
574.194	0.03
574.386	-0.03
574.578	-0.05
574.77	-0.02
574.962	-0.01
575.154	-0.02
575.346	-0.01
575.538	-0.02
575.729	-0.02
575.921	-0.03
576.113	-0.01
576.305	0.01
576.497	0
576.689	0.01
576.88	-0.04
577.072	0.02
577.264	-0.01
577.456	0
577.647	-0.07
577.839	-0.01
578.031	0.02
578.223	-0.03
578.414	-0.02
578.606	0.01
578.798	-0
578.989	-0.01
579.181	-0.02
579.372	0.01
579.564	-0.02
579.755	0.01
579.947	0
580.139	0.02
580.33	-0.04
580.522	-0.04
580.713	-0.06
580.905	-0.02
581.096	-0
581.287	-0.01
581.479	-0.01
581.67	0.02
581.862	0
582.053	-0.02
582.244	-0.06
582.436	0
582.627	0.01
582.818	-0.01
583.01	-0.04
583.201	0.01
583.392	0.02
583.583	-0
583.775	-0.01
583.966	-0.01
584.157	0.01
584.348	-0.01
584.54	-0.02
584.731	0.01
584.922	0.01
585.113	-0.03
585.304	0.02
585.495	0.03
585.686	-0
585.877	0.02
586.068	0.01
586.259	0
586.45	0
586.641	-0.02
586.832	-0.06
587.023	0.02
587.214	-0.01
587.405	-0.01
587.596	-0.02
587.787	0.03
587.978	0.03
588.169	-0.03
588.36	0
588.551	0.02
588.742	-0.03
588.932	0.01
589.123	-0
589.314	0.02
589.505	0.03
589.696	0.01
589.886	0.01
590.077	-0.06
590.268	0.03
590.458	-0.05
590.649	-0.02
590.84	0.02
591.03	-0.03
591.221	-0.04
591.412	-0.05
591.602	0.03
591.793	0.04
591.984	-0.02
592.174	-0.01
592.365	0.07
592.555	-0.02
592.746	0.03
592.936	0.01
593.127	0.01
593.317	0
593.508	-0.02
593.698	-0.02
593.889	-0.01
594.079	0
594.269	0
594.46	0.01
594.65	-0.01
594.84	-0.02
595.031	-0.02
595.221	-0.02
595.411	-0.04
595.602	0
595.792	-0.01
595.982	-0.02
596.172	0.06
596.363	-0
596.553	-0
596.743	0
596.933	-0.01
597.123	0.03
597.314	-0.02
597.504	-0.02
597.694	0.04
597.884	0.02
598.074	-0.01
598.264	-0.03
598.454	0.01
598.644	-0
598.834	0
599.024	-0.06
599.214	0
599.404	0.01
599.594	-0.03
599.784	-0.04
599.974	0.02
600.164	0.02
600.354	-0.04
600.544	-0.05
600.734	0.01
600.924	0.03
601.114	-0.04
601.303	0.01
601.493	0.01
601.683	-0
601.873	0.01
602.063	-0.05
602.252	0.02
602.442	-0.04
602.632	-0.02
602.821	-0.02
603.011	0.02
603.201	-0.02
603.39	-0.03
603.58	-0.01
603.77	-0.01
603.959	0.01
604.149	-0.01
604.339	0.01
604.528	0.03
604.718	0.02
604.907	-0.01
605.097	-0
605.286	-0.02
605.476	-0.01
605.665	-0
605.855	-0.01
606.044	0.05
606.234	-0
606.423	-0
606.612	-0.05
606.802	0.03
606.991	0.01
607.181	0.02
607.37	-0.05
607.559	-0.03
607.749	-0.03
607.938	0
608.127	-0.02
608.316	-0.01
608.506	0.02
608.695	-0.01
608.884	-0.03
609.073	0.01
609.263	-0
609.452	0
609.641	0.01
609.83	-0.05
610.019	0
610.208	-0.03
610.397	0.02
610.586	0.02
610.775	-0.03
610.965	-0.03
611.154	-0.03
611.343	-0
611.532	0.02
611.721	-0.04
611.91	-0
612.099	0.02
612.287	-0.02
612.476	-0.02
612.665	0.01
612.854	-0.03
613.043	0.04
613.232	-0
613.421	-0.04
613.61	0.03
613.798	-0.04
613.987	0.03
614.176	-0.02
614.365	0
614.554	0.02
614.742	0.03
614.931	-0.01
615.12	0.03
615.309	-0.02
615.497	0.04
615.686	-0.02
615.875	-0.01
616.063	0.02
616.252	-0.01
616.44	0.02
616.629	-0
616.818	0.05
617.006	-0.03
617.195	-0.01
617.383	0.01
617.572	-0.02
617.76	-0.03
617.949	0
618.137	0.01
618.326	0.04
618.514	-0.04
618.703	-0.01
618.891	0.05
619.079	-0.08
619.268	0.05
619.456	-0
619.644	0.05
619.833	-0.01
620.021	-0.03
620.209	-0.04
620.398	0.03
620.586	-0
620.774	-0
620.962	-0.01
621.151	0.03
621.339	0
621.527	-0.05
621.715	-0.05
621.903	-0.01
622.092	-0.04
622.28	-0
622.468	-0.02
622.656	-0.01
622.844	0.02
623.032	-0.04
623.22	-0.03
623.408	0.03
623.596	0.01
623.784	0.03
623.972	-0.03
624.16	0
624.348	0.06
624.536	-0.02
624.724	-0.01
624.912	0.02
625.1	0.01
625.288	-0.04
625.476	-0.02
625.664	0.03
625.851	-0.03
626.039	0.02
626.227	0.03
626.415	0.01
626.603	-0.06
626.79	-0
626.978	0.03
627.166	-0.02
627.354	0.02
627.541	-0.02
627.729	-0.04
627.917	0.02
628.104	0.02
628.292	0.01
628.48	-0.01
628.667	0.02
628.855	0.01
629.042	0.02
629.23	-0.01
629.418	-0.02
629.605	0.01
629.793	-0.01
629.98	-0.05
630.168	-0.02
630.355	-0.02
630.543	0.01
630.73	-0.05
630.917	0.02
631.105	0.05
631.292	-0
631.48	-0
631.667	0.05
631.854	-0
632.042	0
632.229	-0.04
632.416	0.02
632.604	-0.05
632.791	-0.04
632.978	0.03
633.165	0
633.353	0.06
633.54	0
633.727	-0.07
633.914	-0.01
634.101	-0.05
634.289	0.02
634.476	-0.05
634.663	-0.02
634.85	0.02
635.037	-0.05
635.224	-0.06
635.411	0.01
635.598	0.03
635.785	-0
635.972	0.01
636.159	0.01
636.346	-0.03
636.533	0.01
636.72	-0.01
636.907	0
637.094	0.01
637.281	-0.01
637.468	0
637.655	-0.01
637.842	0.01
638.029	-0.03
638.215	0.03
638.402	-0.03
638.589	-0.02
638.776	-0.03
638.963	-0.02
639.149	0.03
639.336	0.02
639.523	0.02
639.709	0.01
639.896	-0.02
640.083	0.07
640.27	0.02
640.456	-0.04
640.643	0.04
640.829	-0.03
641.016	-0.03
641.203	-0.03
641.389	0.03
641.576	0.03
641.762	0.01
641.949	-0.03
642.135	0.05
642.322	0.01
642.508	-0.06
642.695	-0.01
642.881	-0.01
643.068	0.01
643.254	-0.02
643.441	0.03
643.627	0.02
643.813	-0.02
644	0.04
644.186	-0.02
644.372	-0.06
644.559	0.01
644.745	-0.04
644.931	-0.03
645.118	0.01
645.304	-0.02
645.49	-0.03
645.676	-0.01
645.862	0
646.049	0.03
646.235	-0.01
646.421	0.03
646.607	0.07
646.793	-0.03
646.979	-0.02
647.165	-0
647.352	0
647.538	0.04
647.724	-0.01
647.91	0
648.096	0.01
648.282	0.01
648.468	-0.01
648.654	0.03
648.84	-0.03
649.026	0.02
649.212	-0.01
649.397	-0.01
649.583	-0.03
649.769	0.02
649.955	0
650.141	0.02
650.327	0.06
650.513	-0
650.698	-0
650.884	-0.08
651.07	0.01
651.256	0.01
651.442	-0.01
651.627	0
651.813	0.05
651.999	-0
652.184	0.01
652.37	-0.03
652.556	-0.03
652.741	0.06
652.927	-0.06
653.113	-0.01
653.298	0.01
653.484	0.01
653.669	-0.02
653.855	0.01
654.04	0.04
654.226	0.01
654.412	-0.03
654.597	-0.05
654.782	0.01
654.968	0.02
655.153	0.03
655.339	-0.04
655.524	-0.05
655.71	0.03
655.895	0.01
656.08	-0.01
656.266	0.03
656.451	0.06
656.636	-0.05
656.822	0.02
657.007	-0.01
657.192	-0.05
657.378	-0.03
657.563	-0.01
657.748	0.02
657.933	0.03
658.118	-0
658.304	0
658.489	0.05
658.674	0.02
658.859	-0.02
659.044	0.03
659.229	0.02
659.414	-0.03
659.599	0.02
659.785	-0.05
659.97	-0.01
660.155	0.05
660.34	0.01
660.525	0.03
660.71	-0
660.895	0.04
661.08	-0.01
661.264	0
661.449	0.08
661.634	0.06
661.819	0.02
662.004	0.01
662.189	-0.04
662.374	-0.01
662.559	-0.05
662.743	-0.04
662.928	-0.02
663.113	-0.05
663.298	-0.06
663.483	-0.02
663.667	0.02
663.852	-0.03
664.037	0.05
664.221	-0.03
664.406	0.06
664.591	0.04
664.775	0
664.96	-0.07
665.145	0
665.329	0.01
665.514	-0.01
665.698	-0.03
665.883	-0.09
666.068	0.04
666.252	0.02
666.437	-0.06
666.621	0.02
666.806	0.02
666.99	0.01
667.174	-0.01
667.359	0.06
667.543	-0.02
667.728	0.03
667.912	-0.04
668.096	0.02
668.281	0.02
668.465	-0.03
668.649	0
668.834	-0.04
669.018	-0.02
669.202	0
669.387	-0.01
669.571	0.07
669.755	-0
669.939	-0.01
670.124	0.02
670.308	0.09
670.492	0.04
670.676	0.01
670.86	0.01
671.044	-0.05
671.228	0.01
671.413	-0.03
671.597	0.03
671.781	-0.03
671.965	0.01
672.149	0.03
672.333	-0.03
672.517	-0.01
672.701	0.04
672.885	0.01
673.069	-0.05
673.253	0.06
673.437	0.01
673.621	-0.02
673.804	0.03
673.988	0.03
674.172	0.01
674.356	-0.05
674.54	0.03
674.724	0.11
674.908	0.03
675.091	0.05
675.275	-0
675.459	0.06
675.643	0.05
675.826	0.05
676.01	0.01
676.194	0.01
676.377	0.08
676.561	0.08
676.745	0.02
676.928	0.04
677.112	0.08
677.296	-0.01
677.479	-0.01
677.663	-0.01
677.846	0.02
678.03	-0.01
678.213	0.02
678.397	0.09
678.58	-0.04
678.764	-0
678.947	0.02
679.131	-0.03
679.314	0.05
679.498	0.01
679.681	0.02
679.865	0.07
680.048	0.05
680.231	0.04
680.415	0.03
680.598	0
680.781	0
680.965	-0.02
681.148	0.03
681.331	0.02
681.514	0.02
681.698	0.05
681.881	0.02
682.064	0.02
682.247	0.02
682.43	-0.01
682.614	0.08
682.797	0.04
682.98	0.05
683.163	0.01
683.346	0.04
683.529	0.03
683.712	-0.03
683.895	0.05
684.078	0
684.261	0.06
684.444	0.07
684.627	0.08
684.81	0.02
684.993	0.03
685.176	0.03
685.359	-0.01
685.542	0.05
685.725	0.09
685.908	0.02
686.091	-0.03
686.274	0.06
686.457	0.05
686.639	0.08
686.822	0.08
687.005	0.08
687.188	0.08
687.371	0.15
687.553	0.06
687.736	0.04
687.919	0.08
688.102	0.12
688.284	0.05
688.467	0.04
688.65	0.07
688.832	0.06
689.015	0.11
689.197	0.03
689.38	0.12
689.563	0.13
689.745	0.08
689.928	0
690.11	0.06
690.293	0.11
690.475	-0
690.658	0.04
690.84	0.01
691.023	0.04
691.205	0.04
691.388	0.06
691.57	0.09
691.752	0.07
691.935	-0.02
692.117	0.02
692.3	0.05
692.482	0.05
692.664	0.07
692.847	0.13
693.029	0.14
693.211	0.12
693.393	0.07
693.576	0.08
693.758	0.13
693.94	0.07
694.122	0.08
694.304	0.06
694.487	0.08
694.669	0.14
694.851	0.04
695.033	0.12
695.215	0.08
695.397	0.07
695.579	0.13
695.761	0.13
695.943	0.06
696.125	0.19
696.308	0.12
696.49	0.06
696.671	0.22
696.853	0.11
697.035	0.28
697.217	0.11
697.399	0.16
697.581	0.08
697.763	0.12
697.945	0.1
698.127	0.12
698.309	0.19
698.491	0.13
698.672	0.2
698.854	0.17
699.036	0.22
699.218	0.13
699.399	0.21
699.581	0.23
699.763	0.18
699.945	0.12
700.126	0.11
700.308	0.15
700.49	0.17
700.671	0.1
700.853	0.1
701.035	0.13
701.216	0.2
701.398	0.11
701.579	0.11
701.761	0.23
701.943	0.12
702.124	0.13
702.306	0.14
702.487	0.33
702.669	0.21
702.85	0.18
703.031	0.15
703.213	0.31
703.394	0.23
703.576	0.15
703.757	0.27
703.938	0.28
704.12	0.39
704.301	0.21
704.483	0.14
704.664	0.2
704.845	0.32
705.026	0.23
705.208	0.24
705.389	0.27
705.57	0.24
705.751	0.24
705.933	0.24
706.114	0.34
706.295	0.26
706.476	0.23
706.657	0.39
706.838	0.29
707.02	0.34
707.201	0.23
707.382	0.22
707.563	0.32
707.744	0.27
707.925	0.26
708.106	0.29
708.287	0.33
708.468	0.38
708.649	0.38
708.83	0.31
709.011	0.32
709.192	0.39
709.373	0.27
709.554	0.36
709.734	0.35
709.915	0.45
710.096	0.35
710.277	0.26
710.458	0.38
710.639	0.43
710.819	0.28
711	0.4
711.181	0.46
711.362	0.48
711.542	0.5
711.723	0.36
711.904	0.49
712.085	0.47
712.265	0.5
712.446	0.32
712.627	0.41
712.807	0.51
712.988	0.54
713.168	0.44
713.349	0.57
713.53	0.44
713.71	0.51
713.891	0.48
714.071	0.62
714.252	0.57
714.432	0.47
714.613	0.45
714.793	0.6
714.974	0.64
715.154	0.57
715.334	0.62
715.515	0.7
715.695	0.62
715.876	0.71
716.056	0.69
716.236	0.63
716.417	0.57
716.597	0.66
716.777	0.86
716.957	0.7
717.138	0.71
717.318	0.65
717.498	0.68
717.678	0.78
717.859	0.73
718.039	0.68
718.219	0.8
718.399	0.79
718.579	0.69
718.759	0.72
718.939	0.82
719.12	0.85
719.3	0.89
719.48	0.75
719.66	0.82
719.84	0.94
720.02	0.97
720.2	0.9
720.38	0.93
720.56	1.07
720.74	0.93
720.92	0.99
721.1	1.1
721.279	1.05
721.459	0.97
721.639	0.96
721.819	1.06
721.999	1.09
722.179	1.16
722.359	1.02
722.538	1.18
722.718	1.18
722.898	1.18
723.078	1.15
723.257	1.07
723.437	1.25
723.617	1.28
723.797	1.26
723.976	1.28
724.156	1.41
724.336	1.39
724.515	1.44
724.695	1.27
724.874	1.35
725.054	1.38
725.234	1.38
725.413	1.42
725.593	1.44
725.772	1.42
725.952	1.46
726.131	1.52
726.311	1.49
726.49	1.44
726.67	1.48
726.849	1.48
727.028	1.7
727.208	1.54
727.387	1.61
727.567	1.45
727.746	1.62
727.925	1.63
728.105	1.56
728.284	1.69
728.463	1.77
728.643	1.77
728.822	1.6
729.001	1.7
729.18	1.88
729.359	1.95
729.539	1.96
729.718	1.93
729.897	1.92
730.076	1.95
730.255	1.92
730.434	1.9
730.614	2.03
730.793	2.15
730.972	2.08
731.151	2.07
731.33	2.21
731.509	2.25
731.688	2.23
731.867	2.28
732.046	2
732.225	2.4
732.404	2.18
732.583	2.2
732.762	2.44
732.941	2.43
733.12	2.46
733.298	2.38
733.477	2.49
733.656	2.39
733.835	2.42
734.014	2.53
734.193	2.52
734.371	2.67
734.55	2.56
734.729	2.45
734.908	2.69
735.086	2.63
735.265	2.71
735.444	2.54
735.623	2.44
735.801	2.53
735.98	2.61
736.159	2.56
736.337	2.63
736.516	2.58
736.694	2.45
736.873	2.37
737.052	2.66
737.23	2.6
737.409	2.33
737.587	2.74
737.766	2.33
737.944	2.31
738.123	2.48
738.301	2.44
738.479	2.28
738.658	2.18
738.836	2.17
739.015	2.21
739.193	2.22
739.371	1.96
739.55	2.21
739.728	1.87
739.906	2.16
740.085	2.17
740.263	1.99
740.441	1.66
740.62	1.97
740.798	1.86
740.976	1.71
741.154	1.46
741.332	1.79
741.511	1.51
741.689	1.55
741.867	1.54
742.045	1.38
742.223	1.28
742.401	1.31
742.579	1.14
742.757	1.41
742.935	1.05
743.114	1.07
743.292	1.17
743.47	1.09
743.648	0.95
743.826	1.08
744.004	0.98
744.181	1
744.359	0.9
744.537	0.94
744.715	0.9
744.893	0.84
745.071	0.89
745.249	0.81
745.427	0.68
745.605	0.77
745.782	0.7
745.96	0.73
746.138	0.82
746.316	0.73
746.493	0.54
746.671	0.64
746.849	0.49
747.027	0.69
747.204	0.59
747.382	0.63
747.56	0.43
747.737	0.49
747.915	0.37
748.093	0.48
748.27	0.39
748.448	0.28
748.625	0.32
748.803	0.37
748.98	0.43
749.158	0.45
749.335	0.31
749.513	0.33
749.69	0.41
749.868	0.4
750.045	0.3
750.223	0.22
750.4	0.11
750.578	0.51
750.755	0.26
750.932	0.08
751.11	0.37
751.287	0.09
751.464	0.31
751.642	0.25
751.819	0.21
751.996	0.28
752.173	0.22
752.351	0.09
752.528	0.14
752.705	0.26
752.882	0.16
753.06	0.17
753.237	0.25
753.414	0.34
753.591	0.25
753.768	0.15
753.945	0.13
754.122	0.08
754.299	0.28
754.476	0.1
754.654	0.16
754.831	0.27
755.008	0.12
755.185	0.02
755.362	0.04
755.539	0.1
755.716	0.12
755.892	0.1
756.069	0.09
756.246	0.12
756.423	0.07
756.6	0.17
756.777	0.02
756.954	0.2
757.131	0.12
757.307	-0.02
757.484	-0.02
757.661	0.13
757.838	0.07
758.015	-0.08
758.191	0.22
758.368	0.14
758.545	0.23
758.721	0.16
758.898	0.03
759.075	0.18
759.251	0.23
759.428	0.14
759.605	-0.06
759.781	0.13
759.958	0.23
760.134	0.12
760.311	-0.03
760.488	0.17
760.664	0.33
760.841	0.08
761.017	-0.11
761.194	0.13
761.37	0.03
761.547	-0.03
761.723	0.05
761.899	0.36
762.076	0.05
762.252	0.04
762.429	0.01
762.605	0.07
762.781	0.03
762.958	0.16
763.134	-0
763.31	0.07
763.486	0.18
763.663	-0.12
763.839	0.01
764.015	-0.16
764.191	-0.06
764.368	0.01
764.544	-0.02
764.72	0.09
764.896	0.13
765.072	0.09
765.248	-0.05
765.425	-0.03
765.601	0.1
765.777	-0.05
765.953	-0.1
766.129	-0.05
766.305	-0.09
766.481	0.02
766.657	0.11
766.833	0.33
767.009	-0.17
767.185	0.01
767.361	-0.17
767.537	-0.07
767.713	0.17
767.889	0.13
768.065	0.03
768.24	-0.01
768.416	0.06
768.592	-0.13
768.768	0.11
768.944	0.07
769.12	-0.07
769.295	0.03
769.471	-0.06
769.647	0.06
769.823	0.21
769.998	-0.07
770.174	-0.13
770.35	0.32
770.525	0.3
770.701	-0.02
770.877	-0.04
771.052	-0.03
771.228	0.12
771.403	0.12
771.579	0.07
771.755	0.13
771.93	-0.06
772.106	-0.15
772.281	-0.2
772.457	0.11
772.632	0.14
772.808	-0.09
772.983	-0.01
773.159	-0.11
773.334	0.19
773.509	0.06
773.685	-0.14
773.86	0.47
774.036	0.18
774.211	-0.05
774.386	-0.07
774.562	-0.13
774.737	0.23
774.912	-0.03
775.087	0.22
775.263	0.02
775.438	-0.02
775.613	-0.01
775.788	0.02
775.964	0.28
776.139	0.32
776.314	-0.09
776.489	0.12
776.664	0.1
776.839	-0.08
777.014	-0
777.19	0.14
777.365	0.29
777.54	0.14
777.715	-0.07
777.89	0.09
778.065	-0.03
778.24	0.06
778.415	0.1
778.59	-0.1
778.765	-0.18
778.94	0.21
779.115	0.04
779.289	0.02
779.464	0.05
779.639	-0.05
779.814	-0.09
779.989	-0.05
780.164	0.16
780.339	-0.08
780.513	-0.2
780.688	-0.15
780.863	0.04
781.038	0.16
781.212	0.08
781.387	0.02
781.562	0.42
781.737	-0.01
781.911	0.22
782.086	-0.02
782.261	0.09
782.435	0.42
782.61	-0.13
782.784	-0.06
782.959	0.29
783.134	0.07
783.308	-0.11
783.483	-0.02
783.657	0.38
783.832	0.03
784.006	-0.34
784.181	-0.03
784.355	0.21
784.53	-0.05
784.704	0.05
784.878	0.06
785.053	0.05
785.227	0.16
785.402	0.24
785.576	-0.15
785.75	-0.13
785.925	-0.02
786.099	0.19
786.273	0.03
786.448	0.27
786.622	0.19
786.796	-0.06
786.97	-0.09
787.145	0.4
787.319	-0.27
787.493	-0.06
787.667	-0.4
787.841	0.08
788.015	0.22
788.19	0.02
788.364	0.07
788.538	0.08
788.712	-0.07
788.886	0.16
789.06	0.27
789.234	0.12
789.408	-0.11
789.582	0.24
789.756	0
789.93	-0.15
790.104	0.03
790.278	-0.16
790.452	0.01
790.626	0.03
790.8	-0.03
790.973	0.05
791.147	0.31
791.321	0.21
791.495	0.26
791.669	-0.05
791.843	0.03
792.016	-0.12
792.19	0.39
792.364	-0.06
792.538	0.4
792.711	0.26
792.885	-0.1
793.059	-0.19
793.233	-0.45
793.406	0.16
793.58	0
793.754	0.17
793.927	0.13
794.101	0.33
794.274	-0.11
794.448	0.32
794.622	-0.06
794.795	0.2
794.969	0.13
795.142	0.36
795.316	-0.21
795.489	-0.08
795.663	0.25
795.836	-0.01
796.009	-0.19
796.183	0.4
796.356	0.3
796.53	-0.03
796.703	-0.1
796.876	0.58
797.05	-0.05
797.223	-0.07
797.396	0.04
797.57	0.05
797.743	0.34
797.916	0.19
798.09	-0
798.263	0.2
798.436	0.17
798.609	0.01
798.782	-0.05
798.956	0.03
799.129	0.02
799.302	0.08
799.475	-0.09
799.648	-0.07
799.821	-0.13
799.994	0.21
800.167	-0.29
800.34	0.09
800.514	0.11
800.687	0.16
800.86	-0.26
801.033	-0.13
801.206	0.2
801.379	-0.25
801.551	0.32
801.724	0.29
801.897	0.24
802.07	0.01
802.243	-0.36
802.416	0
802.589	-0.24
802.762	0.13
802.935	0.08
803.107	0.29
803.28	0.14
803.453	0.47
803.626	-0.05
803.798	0.22
803.971	-0.37
804.144	0.1
804.317	0.32
804.489	0.34
804.662	0.02
804.835	0.33
805.007	-0.17
805.18	0.35
805.353	0.45
805.525	-0.13
805.698	-0.3
805.87	0.4
806.043	0.62
806.215	-0.27
806.388	-0.07
806.56	0.17
806.733	0.15
806.905	-0.04
807.078	-0
807.25	-0.39
807.423	0.02
807.595	-0.24
807.768	-0.05
807.94	0.46
808.112	0.13
808.285	0.39
808.457	0.01
808.629	0.16
808.802	0.46
808.974	0.27
809.146	0.02
809.318	-0.18
809.491	0.11
809.663	0.34
809.835	-0.03
810.007	0.19
810.18	0.13
810.352	-0.27
810.524	-0.08
810.696	0.37
810.868	0.22
811.04	-0.18
811.212	-0.37
811.384	0.45
811.556	0.22
811.728	0.1
811.901	0.68
812.073	-0.02
812.245	0.27
812.417	-0.1
812.589	-0.15
812.76	0.32
812.932	0.01
813.104	0.13
813.276	0.07
813.448	0.09
813.62	-0.1
813.792	-0.09
813.964	-0.09
814.136	0.04
814.307	-0
814.479	0.07
814.651	0.07
814.823	0.63
814.995	-0.21
815.166	0.22
815.338	-0.07
815.51	-0.46
815.681	1.03
815.853	-0.11
816.025	-0.07
816.196	0.19
816.368	0.18
816.54	-0.52
816.711	-0.52
816.883	0.21
817.054	1.23
817.226	-0.56
817.398	-0.42
817.569	-0.17
817.741	0.04
817.912	-0.23
818.084	-0.14
818.255	0.33
818.426	-0.02
818.598	-0.21
818.769	-0.12
818.941	0.42
819.112	0.71
819.283	0.18
819.455	-0.05
819.626	0.31
819.798	0.2
819.969	0
820.14	-0.3
820.311	0.07
820.483	0.19
820.654	-0.15
820.825	-0.05
820.996	-0.02
821.168	-0.27
821.339	0.12
821.51	-0.23
821.681	0.02
821.852	0
822.023	-0.39
822.195	-0.62
822.366	0.27
822.537	-0.23
822.708	0.2
822.879	0.04
823.05	0.93
823.221	0.13
823.392	0.24
823.563	0.31
823.734	0.32
823.905	-0.16
824.076	-0.25
824.247	-0.34
824.418	-0.16
824.589	0.66
824.759	-0.17
824.93	-0.06
825.101	-0.56
825.272	0.52
825.443	0.5
825.614	0.65
825.784	-0.5
825.955	1.04
826.126	0.51
826.297	0.04
826.467	0.52
826.638	1.1
826.809	-0.67
826.98	0.01
827.15	1.05
827.321	0.09
827.492	1.09
827.662	-0.2
827.833	1.21
828.003	0.54
828.174	-0.46
828.345	-0.43
828.515	0.81
828.686	0.33
828.856	0.11
829.027	0.25
829.197	0.55
829.368	0.19
829.538	-0.49
829.709	0.18
829.879	0.44
830.049	0.42
830.22	-0.03
830.39	0.25
830.56	0.69
830.731	0.21
830.901	0.19
831.072	0.38
831.242	0.53
831.412	-0.22
831.582	0.11
831.753	-0.37
831.923	0.84
832.093	0.29
832.263	0.36
832.434	-0.38
832.604	-0.26
832.774	0.74
832.944	-0.05
833.114	-0.5
833.284	0.2
833.454	-0.47
833.624	-0.31
833.795	-0.59
833.965	0.35
834.135	1.07
834.305	-0.62
834.475	-0.35
834.645	-0.02
834.815	0.24
834.985	-0.35
835.155	-0.19
835.325	0.67
835.494	0.4
835.664	0.51
835.834	-0.57
836.004	0.85
836.174	0.03
836.344	-0.54
836.514	-0.6
836.684	-0.31
836.853	0.22
837.023	0.18
837.193	-0.1
837.363	0.4
837.532	0.7
837.702	0.14
837.872	0.11
838.041	0.86
838.211	1.61
838.381	-0.72
838.55	0.27
838.72	2.29
838.89	0.99
839.059	-0.14
839.229	-0.74
839.398	0.8
839.568	-0.53
839.738	0.13
839.907	0.21
840.077	0.6
840.246	-0.19
840.416	-0.93
840.585	-0.58
840.755	0.59
840.924	0.58
841.093	-1.34
841.263	-0.52
841.432	0.51
841.602	-0.55
841.771	-0.42
841.94	-0.37
842.11	1.56
842.279	1.24
842.448	-0.47
842.617	-0.15
842.787	0.42
842.956	-1.18
843.125	0.66
843.294	0.42
843.464	1.42
843.633	0.32
843.802	-0.94
843.971	0.13
844.14	0.67
844.309	0.86
844.479	0.49
844.648	-0.88
844.817	0.39
844.986	0.31
845.155	-0.42
845.324	-0.02
845.493	0.3
845.662	-0.46
845.831	0.7
846	1.28
846.169	-0.59
846.338	0.54
846.507	0.49
846.676	0.53
846.844	0.1
847.013	1.32
847.182	-0.04
847.351	-0.51
847.52	0.08
847.689	0.93
847.858	-0.26
848.026	-0.1
848.195	0.02
848.364	0.5
848.533	-0.58
848.701	0.18
848.87	-0.39
849.039	0.63
849.207	1.63
849.376	1.48
849.545	1.58
849.713	-0.06
849.882	-1
850.051	-0.67
850.219	0.49
850.388	0.53
850.556	-0.32
850.725	-0.44
850.893	0.22
851.062	0.86
851.23	0.84
851.399	-1.12
851.567	-0.69
851.736	0.61
851.904	-0.5
852.073	0.11
852.241	1.08
852.41	-0.22
852.578	-0.41
852.746	-0.06
852.915	0.16
853.083	0.08
853.251	-0.09
853.42	-0.45
853.588	0.99
853.756	1.11
853.924	0.38
854.093	0.21
854.261	-0.47
854.429	-0.72
854.597	0.08
854.765	-0
854.934	0.7
855.102	0.97
855.27	-0.56
855.438	0.44
855.606	0.6
855.774	0.74
855.942	-2.15
856.11	-1.07
856.278	0.6
856.446	1.76
856.614	0.34
856.782	-0.95
856.95	1.58
857.118	0.36
857.286	-0.52
857.454	0.03
857.622	1.03
857.79	1.15
857.958	-0.62
858.126	-0.81
858.294	-2.83
858.462	0.1
858.629	-1.36
858.797	-1.14
858.965	0.58
859.133	0.76
859.301	0.32
859.468	0.18
859.636	0.19
859.804	1.44
859.971	1.28
860.139	-0.97
860.307	1.37
860.474	-0.01
860.642	-0.54
860.81	-0.59
860.977	0.87
861.145	0.2
861.313	0.58
861.48	0.17
861.648	-0
861.815	0.55
861.983	-1.7
862.15	0.43
862.318	1.32
862.485	0.49
862.653	-0.15
862.82	0.3
862.988	1.82
863.155	-0.55
863.322	0.71
863.49	0.16
863.657	-1.1
863.824	1.48
863.992	0.76
864.159	0.79
864.326	1.3
864.494	-0.69
864.661	3.41
864.828	-1
864.996	1.55
865.163	1.41
865.33	-0.43
865.497	-2.05
865.664	0.14
865.832	-2.26
865.999	-0.19
866.166	-1.6
866.333	-1.18
866.5	1.62
866.667	-0.56
866.834	-0.51
867.001	1.61
867.168	-1.47
867.335	-0.15
867.502	-3.27
867.669	0.75
867.836	2.7
868.003	1.15
868.17	1.08
868.337	2.9
868.504	1.32
868.671	-0.65
868.838	-0.6
869.005	0.86
869.172	0.56
869.339	0.72
869.505	-1.61
869.672	0.22
869.839	0.94
870.006	1.4
870.173	-2.1
870.339	0.77
870.506	1.72
870.673	0.41
870.84	1.42
871.006	0.51
871.173	-1.29
871.34	-0.61
871.506	-0.26
871.673	1.41
871.839	-1.77
872.006	0.85
872.173	0.36
872.339	0.66
872.506	2.04
872.672	-0.73
872.839	-0.08
873.005	-0.42
873.172	3.83
873.338	1.23
873.505	1.37
873.671	-0.22
873.838	1.51
874.004	-2.47
874.171	0.75
874.337	0.53
874.503	0.53
874.67	0.02
874.836	-0.33
875.002	1.97
875.169	0.9
875.335	2.23
875.501	-0.32
875.668	1.2
875.834	0.37
876	-0.18
876.166	1.73
876.332	1.43
876.499	4.85
876.665	0.07
876.831	2.01
876.997	2.73
877.163	0.2
877.329	-0.53
877.495	0.27
877.662	2.65
877.828	-0.42
877.994	-1.11
878.16	-1.59
878.326	-0.57
878.492	1.44
878.658	-1.06
878.824	0.31
878.99	2.29
879.156	-2.46
879.322	3.06
879.487	0.32
879.653	1.83
879.819	0.69
879.985	1.09
880.151	1.43
880.317	-1.03
880.483	0.6
880.648	1.49
880.814	-2.15
880.98	0.95
881.146	-1.84
881.312	0.07
881.477	1.2
881.643	1.37
881.809	2.13
881.974	1.8
882.14	-0.15
882.306	0.73
882.471	2.86
882.637	1.75
882.803	1.89
882.968	4.43
883.134	1.53
883.299	2.32
883.465	-0.66
883.63	2.35
883.796	2.48
883.961	1.96
884.127	2.36
884.292	-3.18
884.458	-1.11
884.623	-1.11
