Data from Apollo_Calib_20240827__AbsoluteIrradiance__667__10-16-01-641.txt Node

Date: Wed Aug 28 10:16:01 BST 2024
User: biology
Spectrometer: FLMT08252
Trigger mode: 0
Integration Time (sec): 5.000000E-1
Scans to average: 5
Electric dark correction enabled: true
Nonlinearity correction enabled: false
Boxcar width: 0
XAxis mode: Wavelengths
Number of Pixels in Spectrum: 3648
>>>>>Begin Spectral Data<<<<<
179.588	-0
179.809	-0
180.03	-0
180.251	-0
180.473	-0
180.694	0
180.915	0
181.136	-0
181.357	0
181.578	-0
181.799	-0
182.02	-0
182.241	-0
182.462	-0
182.683	0
182.904	-0
183.125	-0
183.346	-0
183.567	0
183.788	-0
184.009	-0
184.23	0
184.451	0
184.672	-0
184.892	-0
185.113	0
185.334	0
185.555	-0
185.776	0
185.996	0
186.217	0
186.438	0
186.659	-0
186.879	0
187.1	-0
187.321	-0
187.541	-0
187.762	0
187.983	0
188.203	0
188.424	0
188.644	0
188.865	0
189.086	0
189.306	-0
189.527	0
189.747	0
189.968	-0
190.188	0
190.409	0
190.629	0
190.849	-0
191.07	0
191.29	0
191.511	0
191.731	-0
191.951	0
192.172	0
192.392	0
192.612	0
192.833	-0
193.053	0
193.273	0
193.493	0
193.714	0
193.934	0
194.154	0
194.374	0
194.594	0
194.815	0
195.035	-0
195.255	0
195.475	-0
195.695	0
195.915	0
196.135	0
196.355	0
196.575	0
196.795	0
197.015	-0
197.235	-0
197.455	-0
197.675	0
197.895	-0
198.115	0
198.335	0
198.555	-0
198.775	0
198.995	0
199.214	0
199.434	0
199.654	-0
199.874	0
200.094	1.26
200.313	0.62
200.533	-0.17
200.753	-0.53
200.973	1.06
201.192	0.66
201.412	-0.25
201.632	0.3
201.851	1.22
202.071	-0.28
202.291	-0.44
202.51	-0.28
202.73	0.27
202.95	-0
203.169	-0.23
203.389	0.5
203.608	0.61
203.828	0.13
204.047	-0.07
204.267	0.24
204.486	0.31
204.706	0.28
204.925	0.38
205.145	-0.02
205.364	0.71
205.583	0.9
205.803	-0.03
206.022	-0.62
206.242	0.15
206.461	0.13
206.68	-0.43
206.9	0.24
207.119	0.7
207.338	0.67
207.557	0.05
207.777	0.08
207.996	-0.22
208.215	0.58
208.434	-0.07
208.654	-0.46
208.873	-0.06
209.092	0.37
209.311	-0.01
209.53	-0.09
209.749	-0.15
209.968	0.04
210.187	0.1
210.407	-0.3
210.626	0.34
210.845	0.35
211.064	-0.04
211.283	-0.15
211.502	0.32
211.721	0.13
211.94	0.12
212.159	0.53
212.377	0.24
212.596	0.38
212.815	0.22
213.034	0.24
213.253	0.5
213.472	0.24
213.691	0.09
213.91	-0.18
214.128	-0.15
214.347	0.54
214.566	-0.17
214.785	-0.36
215.003	0.15
215.222	0.23
215.441	0.02
215.66	-0.04
215.878	0.09
216.097	0.41
216.316	0.06
216.534	0
216.753	0.19
216.972	0.17
217.19	0.12
217.409	-0.02
217.627	-0.05
217.846	0.03
218.064	0.08
218.283	-0.02
218.501	0.49
218.72	0.35
218.938	-0.11
219.157	0.07
219.375	0.35
219.594	0.14
219.812	-0.1
220.031	-0.22
220.249	0.41
220.467	0.37
220.686	-0.01
220.904	-0.07
221.122	-0.04
221.341	0.41
221.559	0.23
221.777	-0.14
221.995	0.13
222.214	0.22
222.432	-0
222.65	0.14
222.868	-0.01
223.086	0.08
223.305	0.3
223.523	0.13
223.741	0.28
223.959	-0.01
224.177	-0.13
224.395	-0.06
224.613	0.15
224.831	0.26
225.049	0.03
225.267	-0.13
225.485	0.07
225.703	0.12
225.921	0.06
226.139	-0.01
226.357	0.36
226.575	0.19
226.793	0.05
227.011	0.59
227.229	0.06
227.447	0.18
227.665	-0.05
227.883	-0.21
228.1	0.11
228.318	0.13
228.536	-0.19
228.754	-0.06
228.972	0.2
229.189	0.13
229.407	0.05
229.625	0.07
229.843	0.13
230.06	0.07
230.278	-0.03
230.496	0.07
230.713	0.1
230.931	0.24
231.149	0.06
231.366	-0.1
231.584	0.01
231.801	0.47
232.019	0.06
232.236	-0.12
232.454	-0.06
232.671	0.15
232.889	0.09
233.106	-0.04
233.324	0.07
233.541	0.06
233.759	0.05
233.976	-0.14
234.194	0.06
234.411	0.09
234.628	0.01
234.846	0.02
235.063	-0.05
235.28	0.01
235.498	0
235.715	-0.06
235.932	0.26
236.149	0.12
236.367	-0.06
236.584	0.05
236.801	-0.02
237.018	0.17
237.236	0.13
237.453	-0.15
237.67	0.24
237.887	0.08
238.104	0.04
238.321	0.06
238.538	0.02
238.755	0.15
238.973	-0.15
239.19	0.06
239.407	0.22
239.624	0.1
239.841	-0.11
240.058	-0.03
240.275	0.11
240.492	-0.05
240.709	0.06
240.925	0.03
241.142	-0
241.359	-0.04
241.576	-0
241.793	-0.01
242.01	0.04
242.227	0.11
242.444	0.15
242.66	0.16
242.877	0.04
243.094	0.01
243.311	0.04
243.527	0.1
243.744	0.13
243.961	0.19
244.178	-0.01
244.394	0.1
244.611	0.18
244.828	0.18
245.044	-0.06
245.261	0.12
245.477	0.08
245.694	0.07
245.911	0.01
246.127	0.01
246.344	0.15
246.56	0.14
246.777	0.05
246.993	0.09
247.21	0.08
247.426	-0.01
247.643	0.03
247.859	-0.03
248.076	-0.03
248.292	0.23
248.508	-0.03
248.725	0.11
248.941	0.1
249.157	0.1
249.374	-0.07
249.59	0.05
249.806	0.05
250.023	0.07
250.239	-0.03
250.455	0
250.671	0.08
250.888	0.18
251.104	0.11
251.32	0.05
251.536	0.1
251.752	0.05
251.969	0.12
252.185	-0.02
252.401	0.21
252.617	0.01
252.833	0.07
253.049	0.08
253.265	0.02
253.481	0.04
253.697	0.07
253.913	-0.02
254.129	0.04
254.345	0.09
254.561	0.04
254.777	0.05
254.993	0.1
255.209	0.09
255.425	-0.02
255.641	-0.06
255.857	0.07
256.073	0.02
256.288	-0.04
256.504	0.03
256.72	0.05
256.936	0.18
257.152	0.02
257.367	-0.05
257.583	0.04
257.799	0.14
258.015	-0.06
258.23	0.01
258.446	0.23
258.662	0.03
258.877	-0.02
259.093	-0.04
259.309	0.07
259.524	0.02
259.74	-0.03
259.955	-0.1
260.171	0.07
260.387	0.01
260.602	0.13
260.818	0.12
261.033	-0.01
261.249	-0.01
261.464	-0.03
261.68	0.02
261.895	0.08
262.11	0.09
262.326	0.01
262.541	-0.11
262.757	0.1
262.972	0.09
263.187	0.08
263.403	0.06
263.618	0.06
263.833	0.11
264.049	-0
264.264	0.07
264.479	0.09
264.694	0.15
264.91	-0.05
265.125	-0.06
265.34	0.11
265.555	0.19
265.77	0.05
265.986	0.05
266.201	0.12
266.416	0.14
266.631	-0.05
266.846	-0
267.061	0.07
267.276	0.05
267.491	-0.09
267.706	0.08
267.921	0.11
268.136	0.08
268.351	0.06
268.566	-0.05
268.781	0.14
268.996	0.11
269.211	0.02
269.426	0.03
269.641	-0.03
269.856	0.05
270.071	-0.02
270.285	-0.05
270.5	0.09
270.715	0.09
270.93	0.08
271.145	0.02
271.359	0.07
271.574	0.01
271.789	0.04
272.004	0
272.218	0.04
272.433	0.07
272.648	0.01
272.862	0.12
273.077	-0.01
273.292	0.03
273.506	0.04
273.721	0
273.936	0.1
274.15	0.06
274.365	0.02
274.579	0.08
274.794	0.08
275.008	0.1
275.223	-0.03
275.437	0.04
275.652	0.09
275.866	-0.01
276.081	0.05
276.295	0.13
276.509	0.08
276.724	0.06
276.938	0.06
277.153	0.03
277.367	0.06
277.581	-0
277.796	0.01
278.01	-0.05
278.224	0.11
278.438	0.24
278.653	-0.04
278.867	-0.03
279.081	-0.14
279.295	0.06
279.51	0.04
279.724	-0.03
279.938	0.04
280.152	0.05
280.366	-0.02
280.58	0.05
280.794	0.1
281.008	0.05
281.222	0.03
281.437	0.18
281.651	0.06
281.865	0.05
282.079	0.01
282.293	-0.11
282.507	0
282.721	0.06
282.935	-0
283.148	-0.06
283.362	-0.02
283.576	0
283.79	0.04
284.004	-0.01
284.218	0.12
284.432	-0
284.646	0
284.859	0.02
285.073	0.01
285.287	0.07
285.501	0.01
285.714	-0.01
285.928	0.07
286.142	-0.01
286.356	-0.01
286.569	0
286.783	0.14
286.997	0.08
287.21	0.09
287.424	0
287.637	0.06
287.851	0.02
288.065	0.07
288.278	0.02
288.492	0.04
288.705	-0.03
288.919	0.12
289.132	-0.02
289.346	0.02
289.559	-0.03
289.773	-0.05
289.986	-0.02
290.2	0.05
290.413	0.11
290.626	-0.04
290.84	0
291.053	0.02
291.267	0.07
291.48	0.05
291.693	0.07
291.906	0.01
292.12	-0.02
292.333	-0.01
292.546	0
292.76	0.1
292.973	0.03
293.186	0.03
293.399	0.05
293.612	0.05
293.826	0.02
294.039	-0.02
294.252	0.02
294.465	0.06
294.678	0.09
294.891	0.03
295.104	-0.01
295.317	-0
295.53	0.03
295.743	0.06
295.956	0.05
296.169	0.1
296.382	0.09
296.595	0.07
296.808	-0.02
297.021	0.09
297.234	0.09
297.447	0.04
297.66	0.03
297.873	0.08
298.086	0.04
298.299	-0.01
298.511	-0.05
298.724	0
298.937	-0
299.15	-0.01
299.363	0.05
299.575	0.03
299.788	0.06
300.001	-0.02
300.213	-0.05
300.426	0.05
300.639	0.01
300.852	0.02
301.064	0.07
301.277	0.09
301.489	0.08
301.702	0.07
301.915	0.03
302.127	0.04
302.34	0.07
302.552	0.07
302.765	0.02
302.977	0.11
303.19	-0
303.402	0.03
303.615	-0
303.827	-0
304.04	0.05
304.252	0.03
304.464	-0.04
304.677	0.12
304.889	0.06
305.102	-0.02
305.314	-0
305.526	0.05
305.739	0.05
305.951	0.03
306.163	0.06
306.375	0.1
306.588	-0.02
306.8	-0.03
307.012	-0.02
307.224	0.05
307.436	0.05
307.649	-0.06
307.861	0.06
308.073	0.05
308.285	-0.01
308.497	-0.01
308.709	0
308.921	0.08
309.133	0.07
309.346	0.05
309.558	0.02
309.77	0.06
309.982	0.09
310.194	0.07
310.406	-0.06
310.617	0.11
310.829	0.03
311.041	0.01
311.253	-0.04
311.465	-0.02
311.677	0.01
311.889	-0.01
312.101	0.01
312.313	0.04
312.524	0.04
312.736	-0.03
312.948	0.02
313.16	0.12
313.372	0.03
313.583	0.02
313.795	0.01
314.007	0.03
314.218	0.06
314.43	0.03
314.642	0.01
314.853	-0.02
315.065	0.07
315.277	0.01
315.488	0.06
315.7	0.06
315.912	-0.02
316.123	-0.02
316.335	0.03
316.546	0.16
316.758	0.02
316.969	-0.01
317.181	0.03
317.392	0.01
317.604	0.02
317.815	-0
318.026	0.01
318.238	-0.04
318.449	0.07
318.661	0.01
318.872	-0.01
319.083	-0.04
319.295	0.07
319.506	0.04
319.717	0.05
319.929	0.02
320.14	-0.01
320.351	0.04
320.562	0.01
320.774	0.03
320.985	0.03
321.196	-0.02
321.407	-0.05
321.618	0.03
321.829	0.05
322.041	0.05
322.252	0.03
322.463	-0
322.674	0.02
322.885	0.02
323.096	0.03
323.307	-0.01
323.518	0.08
323.729	0
323.94	0.02
324.151	-0
324.362	0.04
324.573	0.02
324.784	0.03
324.995	0.07
325.206	0.04
325.417	-0.01
325.628	-0.01
325.838	0.01
326.049	0.02
326.26	0.07
326.471	0.01
326.682	0.04
326.892	0.02
327.103	0
327.314	-0.03
327.525	0.03
327.735	0.01
327.946	0.01
328.157	0.02
328.368	0.06
328.578	0.02
328.789	0.05
328.999	0.03
329.21	-0.01
329.421	0.06
329.631	-0.01
329.842	-0.02
330.052	0.05
330.263	0.07
330.473	0.07
330.684	-0.03
330.894	0.01
331.105	0.04
331.315	-0
331.526	-0.06
331.736	0.09
331.947	0.03
332.157	0.04
332.367	-0.05
332.578	0.09
332.788	0.08
332.999	0.07
333.209	0
333.419	-0.04
333.629	0.02
333.84	0.04
334.05	0.02
334.26	0.08
334.47	0
334.681	0.1
334.891	0.04
335.101	0.04
335.311	0.1
335.521	0.02
335.732	-0.02
335.942	0.09
336.152	0.06
336.362	0.04
336.572	-0.01
336.782	-0
336.992	-0.01
337.202	0.06
337.412	0
337.622	0.07
337.832	0.06
338.042	0.03
338.252	0.02
338.462	-0.01
338.672	0.04
338.882	-0.02
339.092	0.05
339.302	0.1
339.511	0.1
339.721	0.01
339.931	-0.06
340.141	0.07
340.351	0.04
340.561	0.07
340.77	0.01
340.98	0.05
341.19	0.03
341.4	-0.01
341.609	-0.02
341.819	-0.01
342.029	-0
342.238	0.03
342.448	-0.03
342.658	0.05
342.867	-0.02
343.077	0.02
343.286	0.05
343.496	0.01
343.706	0.06
343.915	-0.04
344.125	0.06
344.334	0.06
344.544	-0.04
344.753	0
344.963	-0
345.172	0.01
345.381	0.01
345.591	-0
345.8	0.05
346.01	0.04
346.219	0.07
346.428	-0.14
346.638	-0.03
346.847	0.02
347.056	0.1
347.266	-0.02
347.475	0.01
347.684	0.06
347.893	0.06
348.103	0.06
348.312	-0
348.521	0.01
348.73	0.04
348.94	0.06
349.149	-0.02
349.358	0.02
349.567	-0.02
349.776	-0.05
349.985	0.02
350.194	0.04
350.403	0.06
350.612	-0.05
350.821	-0.03
351.03	0.02
351.239	-0.03
351.448	0.03
351.657	0.01
351.866	0.08
352.075	0.01
352.284	0.07
352.493	-0.02
352.702	0.07
352.911	0.04
353.12	0
353.329	0.04
353.538	0.03
353.746	0.02
353.955	-0.01
354.164	0.07
354.373	0.03
354.582	0.04
354.79	0.02
354.999	0.06
355.208	-0.01
355.416	0.08
355.625	-0.01
355.834	-0.02
356.042	0.02
356.251	0.01
356.46	-0
356.668	0.03
356.877	0.08
357.085	0.09
357.294	-0.06
357.503	0.02
357.711	0.01
357.92	0.14
358.128	0.05
358.337	0.03
358.545	0.03
358.754	0.01
358.962	0.07
359.17	0.03
359.379	0.02
359.587	0.06
359.796	0.04
360.004	0.07
360.212	0.05
360.421	0.09
360.629	0.05
360.837	-0.01
361.046	0.05
361.254	0.1
361.462	0.05
361.67	0
361.879	0.02
362.087	0.09
362.295	0
362.503	-0.01
362.711	-0.01
362.92	0.02
363.128	-0
363.336	-0.04
363.544	-0.02
363.752	0
363.96	-0
364.168	-0.01
364.376	0.01
364.584	0.03
364.792	0.05
365	0.04
365.208	0.04
365.416	0.02
365.624	0.06
365.832	-0
366.04	0.07
366.248	0.05
366.456	0.05
366.664	0.06
366.872	0.05
367.079	0.03
367.287	0.03
367.495	0.03
367.703	0.03
367.911	0.03
368.118	-0.02
368.326	0.01
368.534	-0.03
368.742	0.07
368.949	-0.03
369.157	-0.02
369.365	0.05
369.572	0.04
369.78	-0.04
369.988	0.03
370.195	0.07
370.403	0.02
370.61	-0
370.818	0.03
371.026	0.08
371.233	-0.01
371.441	0.05
371.648	0.01
371.856	0.01
372.063	-0.01
372.271	-0.02
372.478	-0
372.685	0.02
372.893	0.07
373.1	-0
373.308	-0.01
373.515	0.11
373.722	0.01
373.93	0.03
374.137	0.04
374.344	0.1
374.552	0.03
374.759	0.04
374.966	0.01
375.173	0.01
375.381	0.1
375.588	0.02
375.795	-0.02
376.002	-0.01
376.209	-0.03
376.417	0.04
376.624	0.09
376.831	0.05
377.038	0.02
377.245	-0.05
377.452	-0.02
377.659	-0.02
377.866	-0.02
378.073	-0.02
378.28	0.02
378.487	0.07
378.694	0.05
378.901	-0
379.108	0.01
379.315	-0
379.522	0.09
379.729	0.03
379.936	0
380.143	0.02
380.35	0.05
380.557	-0.02
380.763	0.02
380.97	0.05
381.177	0.04
381.384	0.08
381.591	-0.05
381.797	0.04
382.004	0.05
382.211	0.03
382.418	-0.02
382.624	0.07
382.831	0.03
383.038	-0
383.244	0.05
383.451	-0.01
383.658	0.05
383.864	0.04
384.071	-0.02
384.277	0.05
384.484	-0.02
384.69	0.05
384.897	-0.02
385.103	0.02
385.31	-0.02
385.516	0.05
385.723	-0.04
385.929	0.01
386.136	-0.01
386.342	0.02
386.549	0.01
386.755	0.06
386.961	0.08
387.168	0
387.374	0.02
387.58	0.04
387.787	-0.02
387.993	0.05
388.199	0.01
388.406	-0
388.612	0.02
388.818	0.01
389.024	0.04
389.231	0.02
389.437	0.07
389.643	0.06
389.849	0.04
390.055	0.02
390.261	0.04
390.467	0.03
390.674	-0
390.88	0.05
391.086	0.03
391.292	-0.02
391.498	0.06
391.704	0.04
391.91	0.01
392.116	0.02
392.322	-0.04
392.528	0.03
392.734	-0.03
392.94	0.02
393.146	-0.02
393.352	0.03
393.557	0.03
393.763	0.02
393.969	0.01
394.175	-0.02
394.381	0.03
394.587	-0.04
394.792	-0
394.998	0.02
395.204	0.04
395.41	-0.02
395.615	0
395.821	0.02
396.027	0.08
396.233	-0.02
396.438	0.04
396.644	0.1
396.85	0
397.055	-0.01
397.261	0.04
397.466	0.02
397.672	0.03
397.878	0.03
398.083	0.03
398.289	0
398.494	0.08
398.7	0.06
398.905	-0.08
399.111	0.12
399.316	0.04
399.522	0.02
399.727	0.05
399.932	0.01
400.138	0
400.343	0.05
400.549	0.07
400.754	0.04
400.959	0.01
401.165	0.02
401.37	0.02
401.575	0.08
401.78	0.03
401.986	0.01
402.191	0.05
402.396	0.01
402.601	0.04
402.807	0.02
403.012	0.03
403.217	0.08
403.422	-0.01
403.627	0.05
403.832	-0.04
404.037	0.08
404.243	0.03
404.448	-0.02
404.653	0.02
404.858	0.04
405.063	0.06
405.268	-0.02
405.473	0.01
405.678	-0.03
405.883	0.14
406.088	0.06
406.293	-0.03
406.498	-0.02
406.703	0.05
406.907	0.02
407.112	-0.02
407.317	0.02
407.522	0.07
407.727	-0.03
407.932	0.02
408.136	0.11
408.341	0.07
408.546	0.05
408.751	0.02
408.956	-0.02
409.16	0.04
409.365	0
409.57	-0.05
409.774	0.03
409.979	0.09
410.184	0.03
410.388	-0.02
410.593	0.06
410.798	0.05
411.002	0.01
411.207	0.03
411.411	0.05
411.616	-0.01
411.82	0.01
412.025	0.01
412.229	-0.01
412.434	0.09
412.638	0.03
412.843	-0.03
413.047	0
413.252	-0.04
413.456	-0.02
413.66	0.07
413.865	-0.02
414.069	0.05
414.273	-0.02
414.478	-0.02
414.682	-0.02
414.886	-0.02
415.091	-0.06
415.295	-0.02
415.499	0.02
415.703	0.02
415.908	0.09
416.112	-0.09
416.316	0.05
416.52	0.02
416.724	-0.01
416.929	-0.03
417.133	0.08
417.337	-0.01
417.541	-0.04
417.745	-0.04
417.949	0.05
418.153	0.03
418.357	-0.07
418.561	0.06
418.765	0.03
418.969	0.11
419.173	0.07
419.377	0
419.581	0.14
419.785	-0.02
419.989	-0.02
420.193	0.02
420.397	0.03
420.601	0.04
420.804	0.07
421.008	0.04
421.212	0.06
421.416	0.05
421.62	-0.01
421.823	-0
422.027	0.16
422.231	-0
422.435	-0.01
422.638	0.04
422.842	0.03
423.046	-0.05
423.249	0.06
423.453	0.04
423.657	0.04
423.86	-0.04
424.064	0.04
424.268	0.08
424.471	-0
424.675	0.08
424.878	0.14
425.082	0.06
425.285	0.09
425.489	0.02
425.692	0.01
425.896	-0.04
426.099	0.08
426.303	-0.03
426.506	-0.05
426.71	0.01
426.913	0.02
427.116	0.07
427.32	0.03
427.523	0.04
427.726	0.11
427.93	-0.05
428.133	0
428.336	-0.03
428.54	-0.03
428.743	0.08
428.946	0.07
429.149	-0
429.353	0.04
429.556	0
429.759	-0.02
429.962	-0.07
430.165	0.01
430.368	-0.01
430.571	-0.01
430.775	0.06
430.978	-0.02
431.181	-0.01
431.384	0.03
431.587	-0.03
431.79	0.02
431.993	0.03
432.196	-0
432.399	-0.02
432.602	0.1
432.805	-0.03
433.008	0.01
433.211	-0.04
433.414	0.01
433.616	0.05
433.819	0.01
434.022	-0.06
434.225	0.08
434.428	-0.01
434.631	0.09
434.833	-0.03
435.036	-0.01
435.239	0.04
435.442	0.04
435.645	-0.02
435.847	-0.01
436.05	0.07
436.253	0.04
436.455	-0.01
436.658	0.06
436.861	0.15
437.063	0.01
437.266	0
437.468	0.04
437.671	0.12
437.874	0.04
438.076	-0.01
438.279	-0.07
438.481	-0.05
438.684	-0.06
438.886	0.02
439.089	-0.07
439.291	-0.03
439.494	0.05
439.696	-0.07
439.899	0.02
440.101	0.02
440.303	-0.05
440.506	0.05
440.708	0.02
440.91	0.05
441.113	0.01
441.315	0.05
441.517	-0.04
441.72	0.07
441.922	-0.04
442.124	-0.05
442.326	0.02
442.529	0.06
442.731	-0.02
442.933	0.1
443.135	-0.02
443.337	0.01
443.539	0.01
443.742	-0.03
443.944	0.03
444.146	-0.04
444.348	-0.03
444.55	0.02
444.752	-0.02
444.954	-0.03
445.156	-0
445.358	-0.02
445.56	0.09
445.762	-0
445.964	0.03
446.166	-0.01
446.368	-0.01
446.57	0.05
446.772	0
446.974	0
447.175	-0
447.377	0.04
447.579	-0.02
447.781	-0.05
447.983	0.09
448.184	0.03
448.386	0
448.588	-0.07
448.79	0.03
448.991	-0.03
449.193	0.03
449.395	-0.04
449.597	0.02
449.798	0.03
450	-0
450.202	0
450.403	0.03
450.605	0.08
450.806	-0.03
451.008	-0.06
451.21	0.03
451.411	0.01
451.613	0
451.814	0.02
452.016	0.03
452.217	0.02
452.419	0.06
452.62	0.06
452.821	-0
453.023	0.06
453.224	0.04
453.426	0
453.627	0.03
453.828	0.08
454.03	0.05
454.231	0
454.432	-0
454.634	0.13
454.835	-0.01
455.036	-0.02
455.238	0.04
455.439	0.07
455.64	-0.02
455.841	-0.05
456.042	0.11
456.244	0.04
456.445	-0.03
456.646	-0.07
456.847	-0.02
457.048	0.07
457.249	0.06
457.45	0.19
457.651	-0.06
457.852	0.03
458.054	0.04
458.255	0.01
458.456	0
458.657	0.04
458.858	-0.03
459.058	0.03
459.259	0.07
459.46	0.02
459.661	-0.04
459.862	0.15
460.063	-0.04
460.264	0.07
460.465	-0.02
460.666	0.13
460.866	-0.01
461.067	0.05
461.268	-0
461.469	0
461.67	0.08
461.87	-0.02
462.071	-0.02
462.272	-0.01
462.473	-0
462.673	0.04
462.874	-0.02
463.075	-0.01
463.275	0.01
463.476	0.04
463.676	0.06
463.877	0.04
464.078	-0
464.278	0.06
464.479	0.01
464.679	0.06
464.88	-0
465.08	0.08
465.281	-0.01
465.481	-0.03
465.682	0.04
465.882	0.03
466.083	0.03
466.283	0.01
466.483	-0
466.684	-0.01
466.884	-0.04
467.085	0.02
467.285	0.04
467.485	-0.05
467.686	0.04
467.886	-0.02
468.086	0.01
468.286	0.01
468.487	0.02
468.687	-0.02
468.887	-0.01
469.087	0.06
469.287	0.05
469.488	-0.03
469.688	0.03
469.888	0.01
470.088	0.05
470.288	0.05
470.488	0.04
470.688	-0.03
470.888	0
471.088	-0.02
471.288	0.06
471.488	0.05
471.688	0.02
471.888	-0.02
472.088	0.08
472.288	0.06
472.488	-0.02
472.688	-0.01
472.888	0.05
473.088	0.02
473.288	0.04
473.488	0.03
473.688	0.08
473.887	-0.02
474.087	-0.02
474.287	0.05
474.487	0
474.687	0.05
474.886	-0.04
475.086	0
475.286	0.04
475.486	0.03
475.685	-0.01
475.885	0.03
476.085	0.01
476.284	0.01
476.484	0.01
476.684	0.02
476.883	0.07
477.083	-0
477.282	-0.01
477.482	0.09
477.681	0.08
477.881	0.05
478.08	-0.03
478.28	-0.03
478.479	0.03
478.679	0.07
478.878	-0.01
479.078	-0.03
479.277	0.03
479.477	-0.01
479.676	0.06
479.875	0.01
480.075	-0.04
480.274	0.01
480.473	0.04
480.673	-0.01
480.872	0.03
481.071	0.02
481.271	-0
481.47	-0.03
481.669	0.04
481.868	-0.02
482.067	-0.02
482.267	-0.03
482.466	-0
482.665	-0.04
482.864	-0.01
483.063	-0.03
483.262	0.01
483.461	0.1
483.661	0.03
483.86	0.02
484.059	0.01
484.258	0.01
484.457	-0.02
484.656	0.01
484.855	0.05
485.054	-0.01
485.253	-0.01
485.452	-0.03
485.651	-0.01
485.849	-0
486.048	-0
486.247	-0.01
486.446	0.04
486.645	-0.05
486.844	-0.02
487.043	-0.02
487.241	0.03
487.44	-0.04
487.639	0
487.838	0
488.037	0.01
488.235	0.04
488.434	0
488.633	-0.01
488.831	0.02
489.03	0.04
489.229	0.05
489.427	-0.02
489.626	0.03
489.825	0.06
490.023	-0.01
490.222	-0.01
490.42	0.01
490.619	0.04
490.817	0.04
491.016	-0.01
491.214	0.03
491.413	0.03
491.611	0.01
491.81	0.01
492.008	0.03
492.207	0.03
492.405	0.02
492.604	-0.02
492.802	-0.01
493	0.02
493.199	-0
493.397	0.01
493.595	0
493.794	-0.01
493.992	0.07
494.19	0.01
494.388	0.02
494.587	0
494.785	-0.01
494.983	-0.04
495.181	0.01
495.379	-0
495.578	0.02
495.776	0.03
495.974	0.01
496.172	-0.01
496.37	-0.01
496.568	-0.01
496.766	-0.02
496.964	0.02
497.162	-0
497.36	-0.02
497.558	0.03
497.756	0.02
497.954	0.01
498.152	-0.01
498.35	0.02
498.548	-0.01
498.746	0.01
498.944	-0.02
499.142	-0
499.34	-0.04
499.538	0
499.736	-0.02
499.933	0.05
500.131	0.04
500.329	-0
500.527	0.03
500.725	0.05
500.922	0.02
501.12	0.01
501.318	0.01
501.516	-0.03
501.713	0.03
501.911	0.01
502.109	-0.01
502.306	0.02
502.504	0
502.701	-0
502.899	-0.01
503.097	0.06
503.294	-0
503.492	-0.01
503.689	0.02
503.887	0
504.084	0.07
504.282	0.01
504.479	-0.01
504.677	0.02
504.874	-0.02
505.072	0.01
505.269	-0
505.466	0.02
505.664	0
505.861	-0.02
506.059	-0.05
506.256	0
506.453	-0.01
506.651	0.06
506.848	0.03
507.045	0.02
507.242	-0
507.44	-0
507.637	0.01
507.834	-0.01
508.031	0.03
508.229	-0.02
508.426	0
508.623	0.01
508.82	-0.02
509.017	-0.03
509.214	-0.01
509.411	0.01
509.608	-0.01
509.805	0.01
510.003	-0.02
510.2	-0.01
510.397	0.03
510.594	-0.01
510.791	-0.03
510.988	-0.01
511.184	0.03
511.381	0.01
511.578	-0.02
511.775	0.01
511.972	-0.01
512.169	0
512.366	-0.01
512.563	0.01
512.76	-0
512.956	0.02
513.153	-0.01
513.35	0.01
513.547	-0.03
513.744	-0.03
513.94	-0.02
514.137	0.04
514.334	0
514.53	0.01
514.727	0.01
514.924	0.04
515.12	-0.02
515.317	-0.04
515.514	0.01
515.71	-0.04
515.907	0
516.103	0.01
516.3	0.03
516.497	0.04
516.693	0.01
516.89	-0.01
517.086	-0.01
517.283	0.02
517.479	0.01
517.676	-0.01
517.872	0
518.068	-0.01
518.265	-0.03
518.461	-0.02
518.658	-0.02
518.854	0.01
519.05	-0
519.247	-0.01
519.443	0.03
519.639	0.01
519.836	0.01
520.032	0.02
520.228	0.02
520.424	0.03
520.621	0.01
520.817	0.01
521.013	0.02
521.209	0.01
521.405	0.04
521.601	0.02
521.798	-0
521.994	0.01
522.19	-0.02
522.386	-0.04
522.582	-0.02
522.778	-0.01
522.974	0.01
523.17	0.01
523.366	0
523.562	0.04
523.758	0.01
523.954	-0.01
524.15	0.01
524.346	0.02
524.542	-0.01
524.738	0
524.934	-0
525.129	-0.08
525.325	0.01
525.521	0
525.717	0.03
525.913	0
526.109	0.01
526.304	0
526.5	0
526.696	0.02
526.892	0.01
527.087	0.01
527.283	-0
527.479	0.02
527.674	-0.01
527.87	0.01
528.066	-0
528.261	0.03
528.457	0.01
528.653	-0.01
528.848	-0
529.044	0.02
529.239	0.01
529.435	0.03
529.63	0.03
529.826	0.05
530.021	0.02
530.217	0.02
530.412	0.02
530.608	-0.01
530.803	0.03
530.999	0
531.194	-0.03
531.389	0.01
531.585	-0.04
531.78	-0.01
531.975	-0.01
532.171	0.04
532.366	-0.02
532.561	-0.01
532.757	-0.02
532.952	0
533.147	-0
533.342	0.01
533.538	-0.01
533.733	0.03
533.928	0.01
534.123	0.01
534.318	-0.03
534.513	0.01
534.709	0.02
534.904	-0.02
535.099	-0.01
535.294	0
535.489	-0.01
535.684	0
535.879	-0
536.074	0.02
536.269	-0.03
536.464	0.01
536.659	-0
536.854	-0
537.049	-0.01
537.244	0
537.439	-0.01
537.634	0.03
537.828	0.01
538.023	0
538.218	-0.03
538.413	0.02
538.608	-0.03
538.803	0.01
538.997	-0.04
539.192	0.03
539.387	0.01
539.582	0
539.776	0.02
539.971	-0.01
540.166	0
540.36	-0.02
540.555	0
540.75	-0.01
540.944	0.01
541.139	-0.03
541.334	0.01
541.528	0.02
541.723	-0
541.917	0.01
542.112	-0.03
542.306	-0
542.501	-0
542.695	0.01
542.89	-0.02
543.084	0
543.279	-0
543.473	-0.01
543.668	0.02
543.862	0.01
544.056	0.04
544.251	0.01
544.445	0.02
544.64	0
544.834	-0.02
545.028	0.01
545.222	0.02
545.417	0.04
545.611	0.01
545.805	0
546	0
546.194	0.02
546.388	0
546.582	0.02
546.776	-0
546.97	0.01
547.165	0.02
547.359	0
547.553	-0.01
547.747	0.03
547.941	0.01
548.135	0
548.329	0.04
548.523	0.03
548.717	-0.01
548.911	-0.02
549.105	-0.01
549.299	-0.02
549.493	0.02
549.687	0.01
549.881	0.01
550.075	0
550.269	-0.03
550.463	0.01
550.657	0
550.85	0.01
551.044	0
551.238	0.01
551.432	-0
551.626	-0.02
551.82	0.02
552.013	-0.01
552.207	-0
552.401	0.02
552.594	0.01
552.788	-0.01
552.982	0.02
553.176	-0.03
553.369	0.02
553.563	0.02
553.756	-0.02
553.95	-0.02
554.144	0
554.337	0.01
554.531	-0
554.724	0.02
554.918	0.01
555.111	0.02
555.305	0
555.498	0.04
555.692	-0.01
555.885	0
556.079	0.04
556.272	0
556.466	0.03
556.659	0.01
556.852	-0.01
557.046	-0.01
557.239	0.03
557.432	-0.03
557.626	-0.01
557.819	0.01
558.012	0.03
558.206	-0
558.399	0.02
558.592	0.02
558.785	-0
558.979	0.04
559.172	-0
559.365	0.02
559.558	-0.01
559.751	-0
559.944	-0.01
560.138	0.03
560.331	-0.02
560.524	-0.01
560.717	0.02
560.91	0.01
561.103	0.02
561.296	0.02
561.489	0.02
561.682	-0
561.875	0.05
562.068	0.02
562.261	0.01
562.454	0.05
562.647	0.01
562.84	0.01
563.032	0.02
563.225	0
563.418	-0.02
563.611	0
563.804	-0.01
563.997	-0.04
564.19	0.01
564.382	-0.06
564.575	-0.02
564.768	-0.01
564.961	-0.01
565.153	-0
565.346	0.03
565.539	0.02
565.731	0.02
565.924	0.02
566.117	0.01
566.309	-0
566.502	-0.02
566.695	0
566.887	0.02
567.08	-0.01
567.272	0
567.465	-0.03
567.657	0
567.85	0.03
568.042	0.02
568.235	0.07
568.427	-0.01
568.62	0.01
568.812	0.02
569.005	-0
569.197	-0.03
569.389	0
569.582	0.01
569.774	0.02
569.966	-0.04
570.159	0
570.351	0.03
570.543	-0.01
570.736	-0
570.928	-0.02
571.12	0.01
571.312	-0
571.505	-0.06
571.697	0.03
571.889	-0.05
572.081	0.02
572.273	-0
572.465	0.04
572.658	-0.01
572.85	0.02
573.042	-0.02
573.234	-0.02
573.426	0.01
573.618	-0
573.81	0.01
574.002	0.04
574.194	0.04
574.386	-0.04
574.578	-0.06
574.77	-0.02
574.962	-0.02
575.154	-0.03
575.346	-0.02
575.538	0.03
575.729	-0.01
575.921	-0.01
576.113	-0.01
576.305	0.03
576.497	0
576.689	0
576.88	-0.02
577.072	0.04
577.264	-0
577.456	-0
577.647	-0.07
577.839	-0.01
578.031	0.03
578.223	-0.04
578.414	-0.04
578.606	0.03
578.798	0.02
578.989	-0.01
579.181	-0.01
579.372	0.01
579.564	-0.01
579.755	-0.01
579.947	0.01
580.139	0.02
580.33	-0.03
580.522	-0.03
580.713	-0.05
580.905	0.02
581.096	0.03
581.287	-0.01
581.479	0.01
581.67	0.02
581.862	-0.01
582.053	-0.02
582.244	-0.01
582.436	-0
582.627	0.02
582.818	-0.02
583.01	-0.03
583.201	0.02
583.392	0.03
583.583	0.02
583.775	0.01
583.966	-0.04
584.157	0
584.348	-0
584.54	-0.03
584.731	0
584.922	-0.01
585.113	-0
585.304	0.02
585.495	0.01
585.686	0.01
585.877	0.01
586.068	0.02
586.259	0.01
586.45	0.02
586.641	-0.02
586.832	-0.06
587.023	-0
587.214	0
587.405	0.01
587.596	-0.03
587.787	0.05
587.978	-0.01
588.169	-0.04
588.36	-0.01
588.551	0.02
588.742	0
588.932	-0.01
589.123	0.01
589.314	0.03
589.505	0.05
589.696	0.03
589.886	-0.02
590.077	-0.04
590.268	0
590.458	-0.04
590.649	-0.04
590.84	0.02
591.03	-0.02
591.221	-0.02
591.412	-0.02
591.602	0.01
591.793	0.02
591.984	-0.01
592.174	-0.01
592.365	0.05
592.555	-0.02
592.746	0.01
592.936	0
593.127	-0
593.317	0.04
593.508	-0.03
593.698	0.01
593.889	-0.03
594.079	-0
594.269	-0.02
594.46	-0
594.65	-0.02
594.84	-0.01
595.031	-0.04
595.221	-0.02
595.411	-0.06
595.602	0.02
595.792	-0.04
595.982	-0.01
596.172	0.06
596.363	0.02
596.553	0.01
596.743	-0.01
596.933	0.01
597.123	0.05
597.314	-0.02
597.504	-0.04
597.694	0.01
597.884	0.04
598.074	0.01
598.264	-0.02
598.454	0
598.644	0.01
598.834	-0
599.024	-0.07
599.214	0.01
599.404	0.05
599.594	-0.01
599.784	-0.03
599.974	0.05
600.164	0.04
600.354	-0.02
600.544	-0.03
600.734	-0.03
600.924	0.03
601.114	-0.01
601.303	-0.01
601.493	0.01
601.683	0.01
601.873	0.02
602.063	-0.06
602.252	0.02
602.442	-0.08
602.632	-0.01
602.821	-0.01
603.011	0.04
603.201	-0.01
603.39	-0.01
603.58	-0.03
603.77	-0.01
603.959	0.04
604.149	0.01
604.339	-0.01
604.528	0.03
604.718	0.01
604.907	-0.01
605.097	-0.02
605.286	-0.06
605.476	0.04
605.665	0.03
605.855	-0.01
606.044	0.03
606.234	0.02
606.423	-0.02
606.612	-0.04
606.802	0.02
606.991	0.02
607.181	0.02
607.37	-0.02
607.559	-0
607.749	-0.08
607.938	-0.03
608.127	0.02
608.316	-0.03
608.506	0.04
608.695	-0.01
608.884	-0.03
609.073	0.02
609.263	0.01
609.452	0
609.641	-0
609.83	-0.02
610.019	-0.01
610.208	0.01
610.397	-0
610.586	0.04
610.775	0.01
610.965	0
611.154	-0.01
611.343	0.01
611.532	0.02
611.721	-0.03
611.91	-0.03
612.099	0.02
612.287	-0
612.476	-0.04
612.665	0.01
612.854	-0.02
613.043	0.05
613.232	0
613.421	-0.04
613.61	0.01
613.798	-0.01
613.987	0.03
614.176	0.02
614.365	0.03
614.554	-0
614.742	0.03
614.931	0.01
615.12	0.04
615.309	-0.03
615.497	0.01
615.686	-0.02
615.875	-0.02
616.063	0
616.252	-0.01
616.44	-0.02
616.629	0.01
616.818	0.04
617.006	0
617.195	0.03
617.383	0.03
617.572	0.02
617.76	-0.04
617.949	0.03
618.137	0.01
618.326	0.01
618.514	-0
618.703	-0.01
618.891	0.02
619.079	-0.03
619.268	0.01
619.456	-0.01
619.644	0.03
619.833	0.03
620.021	0.01
620.209	-0.05
620.398	0.01
620.586	0.01
620.774	0.03
620.962	0.02
621.151	0.03
621.339	0.01
621.527	-0.04
621.715	-0.02
621.903	-0.02
622.092	-0.02
622.28	-0.03
622.468	0.02
622.656	-0.02
622.844	0.04
623.032	-0.02
623.22	-0.04
623.408	0.02
623.596	0.03
623.784	-0
623.972	-0.03
624.16	-0
624.348	0.05
624.536	-0.02
624.724	-0.03
624.912	0.05
625.1	0.04
625.288	-0.01
625.476	0
625.664	0.02
625.851	-0.02
626.039	-0.02
626.227	0.04
626.415	0
626.603	-0.04
626.79	0.01
626.978	0.02
627.166	0.03
627.354	-0.01
627.541	-0.03
627.729	-0.04
627.917	0.01
628.104	0.07
628.292	0.02
628.48	0
628.667	-0
628.855	0.02
629.042	0
629.23	-0.02
629.418	0.02
629.605	-0.02
629.793	0
629.98	-0.02
630.168	-0.02
630.355	-0.01
630.543	-0.01
630.73	-0.03
630.917	0.03
631.105	0.04
631.292	-0.01
631.48	-0.03
631.667	0.09
631.854	0.03
632.042	0
632.229	-0.05
632.416	0
632.604	0.02
632.791	-0.02
632.978	0
633.165	0.02
633.353	0.07
633.54	0.07
633.727	-0.03
633.914	-0.01
634.101	-0.06
634.289	0.03
634.476	-0.01
634.663	-0.04
634.85	0.01
635.037	-0.02
635.224	-0.05
635.411	0.02
635.598	0.03
635.785	0.01
635.972	0
636.159	0.02
636.346	-0.01
636.533	0.03
636.72	-0.01
636.907	-0.02
637.094	0.06
637.281	0
637.468	0.06
637.655	-0.01
637.842	0.02
638.029	-0.01
638.215	0.05
638.402	-0
638.589	-0
638.776	-0.04
638.963	0
639.149	0.04
639.336	0.1
639.523	0.02
639.709	0.02
639.896	0.01
640.083	0.08
640.27	0.02
640.456	-0.01
640.643	0.02
640.829	-0.03
641.016	0
641.203	-0.06
641.389	0.01
641.576	0.06
641.762	0.03
641.949	-0.03
642.135	0.05
642.322	0.04
642.508	-0.03
642.695	0.04
642.881	-0.01
643.068	0
643.254	0.02
643.441	0.05
643.627	-0.02
643.813	-0.01
644	0.06
644.186	-0.01
644.372	-0.03
644.559	0.05
644.745	0.01
644.931	-0.02
645.118	-0.01
645.304	0.05
645.49	-0
645.676	0.01
645.862	0
646.049	0.04
646.235	0
646.421	0.09
646.607	0.06
646.793	0.01
646.979	-0.01
647.165	0.02
647.352	0
647.538	0.08
647.724	0.02
647.91	0.03
648.096	0.05
648.282	0.08
648.468	0.02
648.654	0.02
648.84	0
649.026	0.01
649.212	0.01
649.397	0.01
649.583	-0.02
649.769	0.03
649.955	0.02
650.141	0.02
650.327	0.07
650.513	-0.03
650.698	0.03
650.884	-0.07
651.07	-0
651.256	0.02
651.442	0.01
651.627	-0.02
651.813	0
651.999	0.02
652.184	0.05
652.37	-0
652.556	-0.04
652.741	0.04
652.927	-0.06
653.113	0.03
653.298	0.03
653.484	0.01
653.669	-0.04
653.855	0.03
654.04	0.03
654.226	0.01
654.412	-0.01
654.597	-0.01
654.782	0.04
654.968	0.06
655.153	0.04
655.339	-0.02
655.524	-0.05
655.71	0.06
655.895	0
656.08	-0.01
656.266	0.05
656.451	0.04
656.636	0
656.822	0.03
657.007	-0.03
657.192	-0.01
657.378	-0.04
657.563	0.01
657.748	0.04
657.933	0.04
658.118	-0
658.304	0.03
658.489	0.08
658.674	0.03
658.859	-0
659.044	0.1
659.229	0.05
659.414	-0.02
659.599	0.01
659.785	-0.03
659.97	0.03
660.155	0.04
660.34	0.02
660.525	0.03
660.71	0.03
660.895	0.03
661.08	-0
661.264	0.01
661.449	0.05
661.634	0.04
661.819	0.06
662.004	0.04
662.189	-0.01
662.374	0.04
662.559	-0.03
662.743	-0.02
662.928	0.05
663.113	0.04
663.298	-0
663.483	0.01
663.667	0.03
663.852	-0.01
664.037	0.09
664.221	-0
664.406	0.09
664.591	0.07
664.775	0.08
664.96	0.05
665.145	0.02
665.329	0.09
665.514	0.03
665.698	0.06
665.883	-0.04
666.068	0.09
666.252	0.03
666.437	-0.02
666.621	0.07
666.806	0.06
666.99	0.04
667.174	0.03
667.359	0.09
667.543	0.07
667.728	0.04
667.912	-0.02
668.096	0.09
668.281	0.02
668.465	0.03
668.649	0.04
668.834	0.02
669.018	0.05
669.202	0.04
669.387	0.03
669.571	0.05
669.755	0.02
669.939	0.06
670.124	0.06
670.308	0.12
670.492	0.1
670.676	0.1
670.86	0.05
671.044	0
671.228	0.08
671.413	0.02
671.597	0.05
671.781	0.05
671.965	0.09
672.149	0.04
672.333	0.05
672.517	0.04
672.701	0.09
672.885	0.08
673.069	0.03
673.253	0.1
673.437	0.05
673.621	0.04
673.804	0.06
673.988	0.06
674.172	0.09
674.356	0.02
674.54	0.1
674.724	0.19
674.908	0.07
675.091	0.09
675.275	0.09
675.459	0.15
675.643	0.14
675.826	0.08
676.01	0.1
676.194	0.04
676.377	0.13
676.561	0.13
676.745	0.14
676.928	0.09
677.112	0.13
677.296	0.09
677.479	0.06
677.663	0.08
677.846	0.18
678.03	0.11
678.213	0.08
678.397	0.12
678.58	0.13
678.764	0.15
678.947	0.11
679.131	0.1
679.314	0.21
679.498	0.11
679.681	0.11
679.865	0.15
680.048	0.14
680.231	0.12
680.415	0.14
680.598	0.13
680.781	0.12
680.965	0.12
681.148	0.2
681.331	0.12
681.514	0.14
681.698	0.13
681.881	0.15
682.064	0.18
682.247	0.15
682.43	0.1
682.614	0.2
682.797	0.2
682.98	0.19
683.163	0.14
683.346	0.18
683.529	0.15
683.712	0.15
683.895	0.21
684.078	0.16
684.261	0.15
684.444	0.2
684.627	0.19
684.81	0.22
684.993	0.19
685.176	0.24
685.359	0.18
685.542	0.2
685.725	0.22
685.908	0.24
686.091	0.18
686.274	0.29
686.457	0.26
686.639	0.23
686.822	0.27
687.005	0.25
687.188	0.24
687.371	0.32
687.553	0.26
687.736	0.28
687.919	0.3
688.102	0.3
688.284	0.26
688.467	0.26
688.65	0.22
688.832	0.22
689.015	0.24
689.197	0.24
689.38	0.37
689.563	0.45
689.745	0.24
689.928	0.26
690.11	0.3
690.293	0.36
690.475	0.27
690.658	0.3
690.84	0.32
691.023	0.38
691.205	0.28
691.388	0.38
691.57	0.39
691.752	0.38
691.935	0.31
692.117	0.33
692.3	0.36
692.482	0.37
692.664	0.37
692.847	0.39
693.029	0.42
693.211	0.43
693.393	0.41
693.576	0.36
693.758	0.39
693.94	0.44
694.122	0.46
694.304	0.46
694.487	0.44
694.669	0.49
694.851	0.41
695.033	0.46
695.215	0.49
695.397	0.47
695.579	0.5
695.761	0.46
695.943	0.4
696.125	0.58
696.308	0.56
696.49	0.44
696.671	0.65
696.853	0.58
697.035	0.74
697.217	0.54
697.399	0.65
697.581	0.55
697.763	0.6
697.945	0.58
698.127	0.64
698.309	0.71
698.491	0.68
698.672	0.71
698.854	0.66
699.036	0.78
699.218	0.66
699.399	0.79
699.581	0.72
699.763	0.7
699.945	0.71
700.126	0.68
700.308	0.8
700.49	0.68
700.671	0.76
700.853	0.71
701.035	0.74
701.216	0.84
701.398	0.84
701.579	0.86
701.761	0.95
701.943	0.88
702.124	0.88
702.306	0.88
702.487	1.05
702.669	0.96
702.85	0.89
703.031	0.88
703.213	1.05
703.394	0.99
703.576	0.99
703.757	1.18
703.938	1.08
704.12	1.21
704.301	1.15
704.483	1.06
704.664	1.07
704.845	1.3
705.026	1.21
705.208	1.18
705.389	1.14
705.57	1.23
705.751	1.25
705.933	1.32
706.114	1.43
706.295	1.31
706.476	1.29
706.657	1.5
706.838	1.41
707.02	1.45
707.201	1.42
707.382	1.39
707.563	1.53
707.744	1.45
707.925	1.51
708.106	1.51
708.287	1.57
708.468	1.71
708.649	1.65
708.83	1.64
709.011	1.69
709.192	1.75
709.373	1.62
709.554	1.72
709.734	1.88
709.915	1.86
710.096	1.76
710.277	1.73
710.458	1.94
710.639	1.98
710.819	1.81
711	2.01
711.181	2.08
711.362	2.1
711.542	2.04
711.723	2.18
711.904	2.19
712.085	2.21
712.265	2.16
712.446	2.15
712.627	2.32
712.807	2.33
712.988	2.36
713.168	2.33
713.349	2.46
713.53	2.34
713.71	2.45
713.891	2.51
714.071	2.68
714.252	2.66
714.432	2.67
714.613	2.56
714.793	2.85
714.974	2.93
715.154	2.93
715.334	2.96
715.515	2.97
715.695	2.82
715.876	2.99
716.056	2.99
716.236	3.1
716.417	3.08
716.597	3.14
716.777	3.4
716.957	3.22
717.138	3.41
717.318	3.39
717.498	3.43
717.678	3.56
717.859	3.57
718.039	3.52
718.219	3.69
718.399	3.75
718.579	3.66
718.759	3.86
718.939	4.03
719.12	4.01
719.3	4.02
719.48	3.94
719.66	4.04
719.84	4.34
720.02	4.22
720.2	4.32
720.38	4.48
720.56	4.67
720.74	4.4
720.92	4.58
721.1	4.85
721.279	4.87
721.459	4.79
721.639	4.81
721.819	4.95
721.999	5.2
722.179	5.05
722.359	5.08
722.538	5.3
722.718	5.37
722.898	5.5
723.078	5.55
723.257	5.56
723.437	5.72
723.617	5.7
723.797	5.96
723.976	5.89
724.156	6.15
724.336	6.22
724.515	6.2
724.695	6.2
724.874	6.34
725.054	6.43
725.234	6.55
725.413	6.61
725.593	6.64
725.772	6.8
725.952	6.89
726.131	6.82
726.311	7.02
726.49	7.16
726.67	7.2
726.849	7.32
727.028	7.38
727.208	7.42
727.387	7.57
727.567	7.58
727.746	7.76
727.925	7.73
728.105	7.8
728.284	7.97
728.463	7.88
728.643	8.29
728.822	8.29
729.001	8.43
729.18	8.5
729.359	8.6
729.539	8.87
729.718	8.7
729.897	8.85
730.076	8.8
730.255	8.95
730.434	9.14
730.614	9.31
730.793	9.56
730.972	9.3
731.151	9.66
731.33	9.74
731.509	9.74
731.688	9.68
731.867	9.98
732.046	9.93
732.225	10.45
732.404	10.14
732.583	10.2
732.762	10.51
732.941	10.6
733.12	10.75
733.298	10.84
733.477	10.91
733.656	10.85
733.835	11.13
734.014	11.17
734.193	11.19
734.371	11.28
734.55	11.55
734.729	11.3
734.908	11.66
735.086	11.71
735.265	11.65
735.444	11.44
735.623	11.92
735.801	12.1
735.98	11.84
736.159	12.08
736.337	12.16
736.516	12.17
736.694	12
736.873	12.06
737.052	12.58
737.23	12.17
737.409	11.85
737.587	12.33
737.766	12.06
737.944	12.18
738.123	12.16
738.301	12.16
738.479	12.06
738.658	12.06
738.836	11.75
739.015	11.82
739.193	11.72
739.371	11.42
739.55	11.25
739.728	11.08
739.906	11.35
740.085	11.14
740.263	11.2
740.441	10.54
740.62	10.88
740.798	10.55
740.976	10.26
741.154	9.91
741.332	9.84
741.511	9.7
741.689	9.41
741.867	9.4
742.045	8.94
742.223	8.6
742.401	8.6
742.579	8.35
742.757	8.33
742.935	7.91
743.114	7.71
743.292	7.65
743.47	7.2
743.648	7.23
743.826	6.98
744.004	6.86
744.181	6.63
744.359	6.34
744.537	6.21
744.715	5.86
744.893	5.81
745.071	5.66
745.249	5.41
745.427	5.3
745.605	5.09
745.782	4.93
745.96	5.02
746.138	4.87
746.316	4.63
746.493	4.42
746.671	4.32
746.849	4.14
747.027	4.1
747.204	3.76
747.382	3.89
747.56	3.33
747.737	3.4
747.915	3.22
748.093	3.41
748.27	3.09
748.448	3.11
748.625	2.81
748.803	2.81
748.98	2.78
749.158	2.66
749.335	2.68
749.513	2.58
749.69	2.43
749.868	2.32
750.045	2.3
750.223	2.17
750.4	2.01
750.578	2.26
750.755	1.97
750.932	1.8
751.11	2.06
751.287	1.78
751.464	2.12
751.642	1.61
751.819	1.74
751.996	1.73
752.173	1.58
752.351	1.41
752.528	1.57
752.705	1.5
752.882	1.44
753.06	1.36
753.237	1.34
753.414	1.59
753.591	1.51
753.768	1.27
753.945	1.17
754.122	1.2
754.299	1.17
754.476	1.02
754.654	1.17
754.831	1.14
755.008	1.04
755.185	0.96
755.362	0.85
755.539	0.95
755.716	0.83
755.892	0.89
756.069	0.85
756.246	0.9
756.423	0.68
756.6	0.92
756.777	0.73
756.954	0.86
757.131	0.7
757.307	0.65
757.484	0.56
757.661	0.7
757.838	0.77
758.015	0.49
758.191	0.69
758.368	0.62
758.545	0.74
758.721	0.73
758.898	0.47
759.075	0.52
759.251	0.67
759.428	0.58
759.605	0.4
759.781	0.49
759.958	0.52
760.134	0.55
760.311	0.4
760.488	0.5
760.664	0.65
760.841	0.46
761.017	0.31
761.194	0.49
761.37	0.51
761.547	0.38
761.723	0.32
761.899	0.51
762.076	0.31
762.252	0.23
762.429	0.38
762.605	0.36
762.781	0.23
762.958	0.5
763.134	0.37
763.31	0.21
763.486	0.35
763.663	0.1
763.839	0.27
764.015	0.15
764.191	0.16
764.368	0.24
764.544	0.2
764.72	0.29
764.896	0.38
765.072	0.24
765.248	0.27
765.425	0.14
765.601	0.25
765.777	0.3
765.953	0.09
766.129	0.17
766.305	0.14
766.481	0.29
766.657	0.34
766.833	0.46
767.009	0.01
767.185	0.17
767.361	0.16
767.537	0.05
767.713	0.36
767.889	0.24
768.065	0.18
768.24	0.02
768.416	0.36
768.592	0.19
768.768	0.22
768.944	0.3
769.12	0.02
769.295	0.18
769.471	0.24
769.647	0.25
769.823	0.27
769.998	0.07
770.174	0.05
770.35	0.43
770.525	0.43
770.701	0.12
770.877	0.18
771.052	0.02
771.228	0.28
771.403	0.21
771.579	0.13
771.755	0.41
771.93	0.04
772.106	0.11
772.281	-0.08
772.457	0.19
772.632	0.16
772.808	-0.08
772.983	0.06
773.159	-0.1
773.334	0.31
773.509	0.11
773.685	-0.01
773.86	0.53
774.036	0.29
774.211	0.11
774.386	-0.07
774.562	0.07
774.737	0.09
774.912	0.02
775.087	0.23
775.263	0.27
775.438	0.1
775.613	0.01
775.788	0.12
775.964	0.19
776.139	0.43
776.314	-0.04
776.489	0.08
776.664	0.07
776.839	-0.17
777.014	0.31
777.19	0.14
777.365	0.43
777.54	0.21
777.715	-0.08
777.89	0.22
778.065	-0.05
778.24	-0.01
778.415	0.18
778.59	-0.16
778.765	0.22
778.94	-0.04
779.115	0.01
779.289	-0.11
779.464	0
779.639	0.03
779.814	-0.11
779.989	-0.1
780.164	0.21
780.339	0.15
780.513	0.06
780.688	-0.07
780.863	0.11
781.038	0.2
781.212	-0.16
781.387	0.12
781.562	0.35
781.737	0.04
781.911	0.05
782.086	-0.09
782.261	-0.03
782.435	0.32
782.61	0.06
782.784	-0.06
782.959	0.18
783.134	-0.02
783.308	-0.08
783.483	0
783.657	0.59
783.832	0.22
784.006	-0.01
784.181	-0
784.355	0.12
784.53	-0.19
784.704	-0.01
784.878	0.63
785.053	0.21
785.227	0.25
785.402	0.58
785.576	-0.19
785.75	0.09
785.925	0.13
786.099	-0.03
786.273	0.16
786.448	0.17
786.622	0.23
786.796	0.14
786.97	0.1
787.145	0.55
787.319	-0.29
787.493	-0.1
787.667	-0.25
787.841	-0.01
788.015	0.42
788.19	-0.09
788.364	0.03
788.538	0.18
788.712	0.46
788.886	0.18
789.06	0.41
789.234	0.17
789.408	-0.05
789.582	0.2
789.756	-0.05
789.93	-0.02
790.104	-0.05
790.278	0.05
790.452	0.03
790.626	0.33
790.8	-0.06
790.973	0.14
791.147	0.39
791.321	0.22
791.495	0.2
791.669	0.14
791.843	0.43
792.016	0.13
792.19	0.4
792.364	-0.07
792.538	0.37
792.711	0.46
792.885	0.02
793.059	-0.12
793.233	-0.43
793.406	0.21
793.58	0.23
793.754	-0.02
793.927	0.28
794.101	0.29
794.274	0.08
794.448	0.14
794.622	-0.28
794.795	0.46
794.969	0.01
795.142	0.29
795.316	-0.1
795.489	-0.02
795.663	0.66
795.836	0.02
796.009	-0.13
796.183	0.41
796.356	0.21
796.53	-0.03
796.703	-0.11
796.876	0.94
797.05	-0.04
797.223	-0.08
797.396	0.22
797.57	0.04
797.743	0.47
797.916	0.35
798.09	-0.09
798.263	0.25
798.436	0.16
798.609	-0.15
798.782	-0.03
798.956	0.41
799.129	0.09
799.302	-0.1
799.475	-0.07
799.648	-0.06
799.821	0.08
799.994	0.21
800.167	-0.17
800.34	0.17
800.514	-0.04
800.687	-0.04
800.86	-0.09
801.033	0.11
801.206	0.26
801.379	-0.28
801.551	0.4
801.724	0.44
801.897	0.28
802.07	0.1
802.243	-0.19
802.416	0.11
802.589	0.05
802.762	0.21
802.935	-0.25
803.107	0.47
803.28	0.41
803.453	0.25
803.626	-0.06
803.798	0.08
803.971	-0.02
804.144	0.33
804.317	0.01
804.489	0.15
804.662	-0.09
804.835	0.26
805.007	-0.22
805.18	0.6
805.353	0.03
805.525	-0.29
805.698	-0.04
805.87	0.51
806.043	0.28
806.215	-0.48
806.388	0.23
806.56	0.24
806.733	0.3
806.905	0.26
807.078	0.05
807.25	-0.04
807.423	0.05
807.595	0.3
807.768	0.18
807.94	0.49
808.112	0.15
808.285	0.06
808.457	-0.05
808.629	0.02
808.802	0.43
808.974	0.27
809.146	-0.11
809.318	-0.22
809.491	0.24
809.663	0.23
809.835	0.15
810.007	0.24
810.18	0.14
810.352	-0.07
810.524	0.06
810.696	0.42
810.868	0.65
811.04	-0.1
811.212	-0.11
811.384	0.38
811.556	0.03
811.728	-0.11
811.901	0.77
812.073	-0.1
812.245	0.4
812.417	0.06
812.589	-0.72
812.76	-0.02
812.932	0.03
813.104	0.58
813.276	0.38
813.448	0.54
813.62	0.04
813.792	-0.03
813.964	0.13
814.136	0.38
814.307	-0.05
814.479	-0.33
814.651	0.23
814.823	0.69
814.995	0.06
815.166	0.1
815.338	-0.29
815.51	-0.38
815.681	0.74
815.853	0.12
816.025	-0.01
816.196	0.39
816.368	0.32
816.54	-0.46
816.711	-0.05
816.883	0.28
817.054	0.98
817.226	-0.51
817.398	-0.02
817.569	-0.61
817.741	0.17
817.912	0.04
818.084	0.05
818.255	0.59
818.426	0.37
818.598	0.38
818.769	0.24
818.941	0.63
819.112	0.86
819.283	0.57
819.455	-0.06
819.626	0.13
819.798	0.45
819.969	0.17
820.14	0.07
820.311	-0.31
820.483	0.53
820.654	0.44
820.825	0.15
820.996	0.14
821.168	-0.39
821.339	0.24
821.51	-0.2
821.681	1.09
821.852	0.03
822.023	-0.07
822.195	-0.07
822.366	0.45
822.537	0.37
822.708	0.54
822.879	-0.26
823.05	1.05
823.221	0.35
823.392	0.47
823.563	0.12
823.734	0.1
823.905	-0.35
824.076	0.34
824.247	-0.19
824.418	-0.16
824.589	0.54
824.759	-0.6
824.93	0.34
825.101	-0.27
825.272	0.22
825.443	0.79
825.614	0.63
825.784	-0.45
825.955	1.13
826.126	0.88
826.297	0.05
826.467	1.25
826.638	0.85
826.809	-0.77
826.98	-0.27
827.15	0.61
827.321	0.14
827.492	0.72
827.662	-0.14
827.833	0.95
828.003	0.07
828.174	-0.05
828.345	0.21
828.515	0.77
828.686	0.41
828.856	0.29
829.027	0.43
829.197	0.27
829.368	0.24
829.538	-0.33
829.709	-0.12
829.879	0.05
830.049	-0.16
830.22	0.39
830.39	0.22
830.56	0.65
830.731	0.42
830.901	-0.14
831.072	0.15
831.242	0.65
831.412	0.43
831.582	0.19
831.753	-0.59
831.923	0.53
832.093	0.78
832.263	-0.1
832.434	-0.38
832.604	0.02
832.774	0.13
832.944	-0.04
833.114	0.18
833.284	0.46
833.454	0.27
833.624	0.31
833.795	0.04
833.965	0.36
834.135	1.03
834.305	-0.34
834.475	-0.16
834.645	-0.02
834.815	-1.05
834.985	-0.14
835.155	-0.28
835.325	0.66
835.494	0.19
835.664	-0.28
835.834	-0.68
836.004	0.7
836.174	1.11
836.344	-0.02
836.514	-0.41
836.684	0.03
836.853	0.64
837.023	0.05
837.193	-0.92
837.363	0.96
837.532	0.94
837.702	0.46
837.872	0.02
838.041	0.82
838.211	1.71
838.381	-0.55
838.55	-0.19
838.72	1.54
838.89	0.89
839.059	0.16
839.229	0.18
839.398	1.06
839.568	0.91
839.738	0.69
839.907	0.93
840.077	0.17
840.246	-0.52
840.416	-0.99
840.585	-0.61
840.755	1.27
840.924	1.13
841.093	-0.9
841.263	0.08
841.432	0.46
841.602	-0.05
841.771	-0.84
841.94	0.1
842.11	1.86
842.279	0.69
842.448	-0.4
842.617	-0.18
842.787	1.14
842.956	-0.86
843.125	0.14
843.294	0.48
843.464	0.58
843.633	-0.36
843.802	-0.9
843.971	-0.3
844.14	1.02
844.309	1.73
844.479	-0.62
844.648	-0.51
844.817	-0.3
844.986	-0.05
845.155	-0.2
845.324	-0.07
845.493	0.32
845.662	-0.66
845.831	1.13
846	0.97
846.169	0.57
846.338	1.3
846.507	1.03
846.676	0.22
846.844	-0.04
847.013	0.32
847.182	0.3
847.351	-0.63
847.52	0
847.689	0.6
847.858	-0.11
848.026	0.24
848.195	-0.68
848.364	0.16
848.533	-0.45
848.701	-0.37
848.87	0.38
849.039	2.23
849.207	0.93
849.376	1.26
849.545	1.39
849.713	0.32
849.882	0.34
850.051	-0.13
850.219	0.46
850.388	0.95
850.556	-0.01
850.725	0.47
850.893	0.99
851.062	0.03
851.23	0.56
851.399	-1.76
851.567	-0.42
851.736	-0.73
851.904	-1.71
852.073	0.55
852.241	1.28
852.41	-0.3
852.578	0.62
852.746	0.41
852.915	0.48
853.083	0.19
853.251	0.05
853.42	0.27
853.588	-0.11
853.756	1.36
853.924	0.09
854.093	0.07
854.261	0.79
854.429	-1.4
854.597	1.18
854.765	-0.17
854.934	0.88
855.102	1.83
855.27	0.69
855.438	1.06
855.606	2.21
855.774	2.36
855.942	-0.6
856.11	-1.3
856.278	0.41
856.446	0.71
856.614	1.05
856.782	0.54
856.95	1.22
857.118	1.67
857.286	1.3
857.454	-0.24
857.622	0.87
857.79	2.1
857.958	-0.22
858.126	0.94
858.294	-2.39
858.462	1.85
858.629	-0.88
858.797	-1.66
858.965	0.77
859.133	0.26
859.301	-0.45
859.468	1.05
859.636	-0.95
859.804	1.54
859.971	1.26
860.139	-0.34
860.307	1.63
860.474	-0.52
860.642	-0.47
860.81	-0
860.977	0.54
861.145	0.22
861.313	0.22
861.48	0.7
861.648	1.83
861.815	-0.05
861.983	-0.82
862.15	0.89
862.318	0.65
862.485	1.61
862.653	-0.69
862.82	-0.24
862.988	2.46
863.155	1.39
863.322	-0.28
863.49	-0.37
863.657	-0.82
863.824	1.94
863.992	1.66
864.159	2.3
864.326	3.35
864.494	-0.54
864.661	3.57
864.828	0.06
864.996	3.69
865.163	1.97
865.33	-0.65
865.497	-1.17
865.664	1.45
865.832	-0.78
865.999	0.8
866.166	-1.02
866.333	-0.49
866.5	-1.33
866.667	1.13
866.834	-0.1
867.001	2.58
867.168	-0.27
867.335	-0.03
867.502	-1.54
867.669	1.05
867.836	2.93
868.003	0.96
868.17	0.94
868.337	-0.06
868.504	3.49
868.671	-0.44
868.838	0.49
869.005	1.67
869.172	1.25
869.339	1.24
869.505	0.66
869.672	-0.08
869.839	3.15
870.006	0.46
870.173	-0.6
870.339	1.29
870.506	2.65
870.673	-0.41
870.84	1.18
871.006	1.19
871.173	0.59
871.34	1.26
871.506	-0.16
871.673	2.06
871.839	-1.05
872.006	0.82
872.173	0.84
872.339	0.53
872.506	1.95
872.672	1.33
872.839	-1.91
873.005	1.02
873.172	4.7
873.338	1.62
873.505	0.65
873.671	2.41
873.838	3.74
874.004	-0.41
874.171	-1.18
874.337	1.3
874.503	1.12
874.67	-0.22
874.836	1.47
875.002	3.7
875.169	1.79
875.335	1.88
875.501	-0.75
875.668	1.69
875.834	1.56
876	1.1
876.166	3.54
876.332	2.35
876.499	2.26
876.665	-0.53
876.831	1.57
876.997	5.16
877.163	2.02
877.329	0.71
877.495	1.54
877.662	1.78
877.828	1.61
877.994	0.57
878.16	-1.24
878.326	-0.55
878.492	0.24
878.658	0.83
878.824	1.49
878.99	1.65
879.156	-0.65
879.322	3.38
879.487	0.64
879.653	0.06
879.819	0.37
879.985	-1.21
880.151	1.36
880.317	0.39
880.483	1.89
880.648	1.4
880.814	-2.37
880.98	0.21
881.146	-0.86
881.312	-0.62
881.477	0.51
881.643	1.64
881.809	3.95
881.974	2.82
882.14	-0.49
882.306	1.54
882.471	2.15
882.637	-0.11
882.803	4.23
882.968	4.58
883.134	2.97
883.299	1.87
883.465	0.88
883.63	2.22
883.796	0.45
883.961	2.16
884.127	1.45
884.292	-3.6
884.458	-0.89
884.623	-0.88
