Data from Apollo_Calib_20240827__AbsoluteIrradiance__664__10-13-02-448.txt Node

Date: Wed Aug 28 10:13:02 BST 2024
User: biology
Spectrometer: FLMT08252
Trigger mode: 0
Integration Time (sec): 5.000000E-1
Scans to average: 5
Electric dark correction enabled: true
Nonlinearity correction enabled: false
Boxcar width: 0
XAxis mode: Wavelengths
Number of Pixels in Spectrum: 3648
>>>>>Begin Spectral Data<<<<<
179.588	-0
179.809	-0
180.03	-0
180.251	-0
180.473	-0
180.694	0
180.915	0
181.136	-0
181.357	0
181.578	-0
181.799	-0
182.02	-0
182.241	0
182.462	0
182.683	0
182.904	-0
183.125	-0
183.346	0
183.567	0
183.788	0
184.009	-0
184.23	0
184.451	0
184.672	0
184.892	-0
185.113	0
185.334	0
185.555	-0
185.776	-0
185.996	0
186.217	0
186.438	0
186.659	-0
186.879	0
187.1	-0
187.321	-0
187.541	0
187.762	0
187.983	0
188.203	0
188.424	0
188.644	-0
188.865	0
189.086	-0
189.306	-0
189.527	0
189.747	0
189.968	-0
190.188	0
190.409	0
190.629	0
190.849	-0
191.07	-0
191.29	0
191.511	0
191.731	-0
191.951	-0
192.172	0
192.392	0
192.612	0
192.833	0
193.053	0
193.273	0
193.493	0
193.714	-0
193.934	0
194.154	0
194.374	0
194.594	0
194.815	0
195.035	0
195.255	0
195.475	-0
195.695	0
195.915	0
196.135	0
196.355	0
196.575	0
196.795	0
197.015	-0
197.235	0
197.455	-0
197.675	0
197.895	-0
198.115	-0
198.335	0
198.555	0
198.775	0
198.995	0
199.214	0
199.434	-0
199.654	-0
199.874	0
200.094	0.79
200.313	0.13
200.533	-0.1
200.753	-0.24
200.973	1.45
201.192	0.76
201.412	-0.56
201.632	0.61
201.851	0.89
202.071	-0.44
202.291	-0.31
202.51	-0.09
202.73	0.79
202.95	0.05
203.169	-0.24
203.389	-0
203.608	0.05
203.828	-0.11
204.047	-0.12
204.267	0.58
204.486	0.75
204.706	0.41
204.925	0.13
205.145	0.58
205.364	0.81
205.583	0.57
205.803	0.18
206.022	-0.29
206.242	0.31
206.461	0.23
206.68	-0.14
206.9	0.15
207.119	0.84
207.338	0.45
207.557	-0.15
207.777	0.25
207.996	0.26
208.215	0.39
208.434	0.11
208.654	-0.41
208.873	0.37
209.092	0.71
209.311	-0.08
209.53	0.15
209.749	0.13
209.968	-0.09
210.187	-0.18
210.407	-0.34
210.626	0.19
210.845	0.21
211.064	0.26
211.283	-0.14
211.502	0.33
211.721	0.09
211.94	0
212.159	0.28
212.377	0.43
212.596	0.4
212.815	0.22
213.034	0.44
213.253	0.36
213.472	0.3
213.691	-0.27
213.91	-0.16
214.128	-0.11
214.347	0.52
214.566	-0.03
214.785	-0.15
215.003	0.19
215.222	0.06
215.441	0.18
215.66	-0.18
215.878	-0.06
216.097	0.2
216.316	-0.18
216.534	-0.05
216.753	0.07
216.972	0.09
217.19	0.08
217.409	-0.06
217.627	-0.08
217.846	0.06
218.064	-0.02
218.283	-0.19
218.501	0.52
218.72	0.31
218.938	-0.25
219.157	-0.02
219.375	0.22
219.594	0.34
219.812	-0.12
220.031	-0.05
220.249	0.2
220.467	0.42
220.686	0
220.904	-0.17
221.122	-0.06
221.341	0.26
221.559	0.14
221.777	-0.19
221.995	0.04
222.214	0.16
222.432	-0.11
222.65	0.16
222.868	0.2
223.086	0.13
223.305	0.17
223.523	-0.09
223.741	0.29
223.959	-0.07
224.177	-0.32
224.395	0.01
224.613	0.11
224.831	0.34
225.049	-0.12
225.267	-0.1
225.485	0.09
225.703	-0
225.921	-0.03
226.139	0.08
226.357	0.13
226.575	-0
226.793	-0.01
227.011	0.67
227.229	0.04
227.447	0.23
227.665	-0.07
227.883	-0.08
228.1	0.09
228.318	0.15
228.536	-0.2
228.754	-0.17
228.972	0.08
229.189	-0.02
229.407	0.03
229.625	-0.04
229.843	0.23
230.06	0.21
230.278	-0.11
230.496	0.11
230.713	0.07
230.931	0.17
231.149	0.01
231.366	-0.15
231.584	0.12
231.801	0.3
232.019	0.08
232.236	0.01
232.454	0.01
232.671	0.08
232.889	0.03
233.106	-0.18
233.324	-0.07
233.541	-0.01
233.759	0.08
233.976	-0.05
234.194	0.08
234.411	0.06
234.628	-0.02
234.846	0.02
235.063	-0.02
235.28	0.01
235.498	-0.06
235.715	-0.02
235.932	0.12
236.149	0.08
236.367	0.03
236.584	0.06
236.801	-0
237.018	0.1
237.236	0.05
237.453	-0.08
237.67	0.16
237.887	0.02
238.104	0.03
238.321	-0.07
238.538	0.03
238.755	0.11
238.973	-0.05
239.19	0.09
239.407	0.12
239.624	0.14
239.841	-0.04
240.058	-0.04
240.275	0.09
240.492	0.02
240.709	0.02
240.925	-0.06
241.142	0.02
241.359	-0.07
241.576	-0.02
241.793	-0
242.01	0.02
242.227	0.17
242.444	0.09
242.66	0.15
242.877	0
243.094	-0.04
243.311	0.08
243.527	0.09
243.744	0.08
243.961	-0.02
244.178	-0.06
244.394	0.03
244.611	0.12
244.828	0.24
245.044	-0.07
245.261	0.01
245.477	0.07
245.694	0.08
245.911	-0.06
246.127	0.11
246.344	0.18
246.56	0.13
246.777	0.03
246.993	0.04
247.21	0.1
247.426	0.13
247.643	-0.02
247.859	-0.09
248.076	-0.03
248.292	0.21
248.508	-0.01
248.725	0.04
248.941	0.08
249.157	0.08
249.374	-0.03
249.59	0.05
249.806	0.04
250.023	0.07
250.239	-0.04
250.455	0.05
250.671	0
250.888	0.07
251.104	0.16
251.32	0.02
251.536	0.01
251.752	0.02
251.969	0.07
252.185	0.12
252.401	0.17
252.617	0.06
252.833	-0.05
253.049	0.04
253.265	0.05
253.481	0.14
253.697	0.08
253.913	-0.03
254.129	0.05
254.345	0.04
254.561	0
254.777	0.01
254.993	0.13
255.209	0.13
255.425	-0.04
255.641	-0.06
255.857	0.11
256.073	0.07
256.288	-0.12
256.504	-0.03
256.72	-0
256.936	0.15
257.152	0.02
257.367	-0.03
257.583	-0.02
257.799	0.04
258.015	0.03
258.23	-0.01
258.446	0.16
258.662	-0
258.877	-0.08
259.093	-0.02
259.309	-0.02
259.524	0.08
259.74	-0.02
259.955	-0.04
260.171	0.05
260.387	0.07
260.602	0.14
260.818	0.07
261.033	-0.08
261.249	-0.03
261.464	-0.01
261.68	-0.05
261.895	0.03
262.11	0.13
262.326	0.05
262.541	-0.04
262.757	0.12
262.972	0.09
263.187	0.07
263.403	0.03
263.618	0.05
263.833	0.02
264.049	-0
264.264	0.04
264.479	0.08
264.694	0.21
264.91	-0.01
265.125	0.05
265.34	0.04
265.555	0.17
265.77	-0
265.986	-0
266.201	0.07
266.416	0.17
266.631	-0.02
266.846	0.04
267.061	0.07
267.276	0.04
267.491	-0.15
267.706	0.04
267.921	0.06
268.136	0.06
268.351	-0.03
268.566	-0.06
268.781	0.1
268.996	0.1
269.211	0.07
269.426	-0.05
269.641	-0.04
269.856	0.11
270.071	-0.05
270.285	-0.04
270.5	0.11
270.715	0.12
270.93	-0.02
271.145	0.02
271.359	0.04
271.574	-0.04
271.789	0.04
272.004	0.01
272.218	-0.02
272.433	0.08
272.648	-0.02
272.862	0.09
273.077	0.04
273.292	-0.02
273.506	-0.04
273.721	0.01
273.936	0.04
274.15	0.05
274.365	-0.02
274.579	0.05
274.794	0.01
275.008	0.07
275.223	-0.02
275.437	0.05
275.652	0.13
275.866	0
276.081	0.02
276.295	0.08
276.509	0.02
276.724	-0.03
276.938	0.03
277.153	0.06
277.367	0.07
277.581	-0
277.796	0.03
278.01	-0.01
278.224	0.12
278.438	0.17
278.653	-0.03
278.867	0.01
279.081	-0.18
279.295	0.01
279.51	0.03
279.724	-0.07
279.938	0.08
280.152	0.01
280.366	-0.05
280.58	0.04
280.794	0.1
281.008	0.06
281.222	0.05
281.437	0.15
281.651	0.14
281.865	0.12
282.079	0.03
282.293	-0.07
282.507	-0.01
282.721	0.05
282.935	0.01
283.148	-0
283.362	0
283.576	0.02
283.79	0.03
284.004	0.01
284.218	0.1
284.432	-0.05
284.646	0.02
284.859	-0.01
285.073	0.01
285.287	0.01
285.501	0.03
285.714	0.03
285.928	0.04
286.142	0.06
286.356	-0.01
286.569	0.01
286.783	0.13
286.997	0.08
287.21	0.06
287.424	0.06
287.637	-0.02
287.851	0.01
288.065	0.09
288.278	0.01
288.492	0.04
288.705	0.02
288.919	0.06
289.132	-0.05
289.346	0.05
289.559	-0.05
289.773	-0.04
289.986	0.01
290.2	-0
290.413	0.07
290.626	-0.03
290.84	-0
291.053	0.01
291.267	0.11
291.48	0.02
291.693	0.05
291.906	-0
292.12	0
292.333	-0.05
292.546	0.01
292.76	0.11
292.973	0.04
293.186	0.06
293.399	0.01
293.612	0.06
293.826	0.03
294.039	0.03
294.252	0.03
294.465	0.05
294.678	0.06
294.891	0.04
295.104	-0.02
295.317	0.01
295.53	0.06
295.743	0.02
295.956	0.02
296.169	0.07
296.382	0.04
296.595	0.01
296.808	0.02
297.021	0.09
297.234	0.09
297.447	-0.01
297.66	0.03
297.873	0.05
298.086	0.05
298.299	0.03
298.511	0.02
298.724	0.02
298.937	-0.01
299.15	-0.01
299.363	0.02
299.575	0.07
299.788	0.07
300.001	0.02
300.213	-0.05
300.426	0.03
300.639	-0.03
300.852	0.01
301.064	0.07
301.277	0.07
301.489	0.04
301.702	0.07
301.915	0.04
302.127	0.02
302.34	0.09
302.552	0.04
302.765	-0.02
302.977	0.1
303.19	-0.01
303.402	0.01
303.615	0.02
303.827	0.01
304.04	0.01
304.252	0.02
304.464	-0.03
304.677	0.15
304.889	0.07
305.102	-0.02
305.314	0.03
305.526	0.07
305.739	0.05
305.951	-0
306.163	0.01
306.375	0.12
306.588	0.03
306.8	0
307.012	-0.03
307.224	0.05
307.436	0.06
307.649	-0.01
307.861	0.04
308.073	0.05
308.285	0.05
308.497	-0.04
308.709	0.01
308.921	0.04
309.133	0.08
309.346	0.03
309.558	-0.02
309.77	0.02
309.982	0.07
310.194	0.07
310.406	-0.03
310.617	0.07
310.829	0.03
311.041	0.05
311.253	-0.03
311.465	0.02
311.677	0.04
311.889	0.01
312.101	0.02
312.313	0.05
312.524	0.06
312.736	-0
312.948	0.01
313.16	0.09
313.372	0.05
313.583	0.03
313.795	0.03
314.007	-0.06
314.218	0.02
314.43	0.05
314.642	0.01
314.853	-0.04
315.065	0.04
315.277	0.01
315.488	0.05
315.7	0.08
315.912	0.04
316.123	0.01
316.335	0.01
316.546	0.09
316.758	0.01
316.969	-0.04
317.181	0.05
317.392	-0.02
317.604	0.05
317.815	-0.03
318.026	-0.01
318.238	0.01
318.449	0.02
318.661	-0.04
318.872	-0
319.083	-0.03
319.295	0.07
319.506	0.02
319.717	0.02
319.929	0.06
320.14	0.03
320.351	0.02
320.562	0.07
320.774	0.07
320.985	0.02
321.196	-0.02
321.407	-0.04
321.618	0.02
321.829	0.01
322.041	0.08
322.252	0.02
322.463	0.06
322.674	0.03
322.885	0.02
323.096	-0.03
323.307	0.05
323.518	0.05
323.729	-0.01
323.94	-0.02
324.151	0.01
324.362	0.02
324.573	0.02
324.784	0.01
324.995	0.09
325.206	0.05
325.417	-0.02
325.628	0.04
325.838	0.04
326.049	0.01
326.26	0.05
326.471	-0.02
326.682	0.04
326.892	0
327.103	-0.04
327.314	-0.03
327.525	0.06
327.735	0.05
327.946	-0
328.157	-0.02
328.368	0.03
328.578	0.02
328.789	0.03
328.999	0.01
329.21	0.03
329.421	0.05
329.631	-0.05
329.842	-0.03
330.052	0.05
330.263	0.05
330.473	0.06
330.684	-0.02
330.894	0.04
331.105	0.07
331.315	0.01
331.526	-0.05
331.736	0.11
331.947	0.05
332.157	0.02
332.367	-0.02
332.578	0.05
332.788	0.07
332.999	0.03
333.209	0.01
333.419	0.01
333.629	0.04
333.84	-0.01
334.05	0
334.26	0.08
334.47	-0.01
334.681	0.07
334.891	-0
335.101	0.08
335.311	0.11
335.521	0.07
335.732	-0.03
335.942	0.11
336.152	0.07
336.362	0.04
336.572	-0.01
336.782	0.05
336.992	0.02
337.202	-0.02
337.412	-0.03
337.622	0.05
337.832	0.03
338.042	-0.04
338.252	-0.03
338.462	-0
338.672	0.03
338.882	-0.07
339.092	0.04
339.302	0.09
339.511	0.08
339.721	-0
339.931	0.01
340.141	0.06
340.351	0.05
340.561	0.03
340.77	0.06
340.98	0.01
341.19	0.04
341.4	0.03
341.609	-0.06
341.819	-0.03
342.029	-0.01
342.238	-0
342.448	-0.05
342.658	0.03
342.867	0.05
343.077	0.02
343.286	0.05
343.496	-0
343.706	0.06
343.915	-0.06
344.125	0.02
344.334	0.04
344.544	-0.01
344.753	-0.02
344.963	-0.02
345.172	-0.01
345.381	-0.04
345.591	-0.02
345.8	-0.02
346.01	0.08
346.219	0.05
346.428	-0.12
346.638	-0.02
346.847	-0.01
347.056	0.04
347.266	-0.01
347.475	-0.01
347.684	0.09
347.893	0.02
348.103	0.05
348.312	0.01
348.521	0
348.73	0.04
348.94	0.03
349.149	0.01
349.358	-0.02
349.567	0
349.776	-0.03
349.985	0
350.194	0.03
350.403	0.02
350.612	-0.06
350.821	0.01
351.03	-0.01
351.239	-0.01
351.448	0.02
351.657	-0
351.866	0.09
352.075	-0
352.284	0.02
352.493	-0.03
352.702	0.06
352.911	0.03
353.12	0.04
353.329	-0.04
353.538	0.07
353.746	0.03
353.955	0.02
354.164	0.08
354.373	-0
354.582	0.01
354.79	0.05
354.999	0.06
355.208	-0.01
355.416	0.09
355.625	-0.03
355.834	0.02
356.042	0.05
356.251	-0.02
356.46	0.03
356.668	0.03
356.877	0.05
357.085	0.06
357.294	-0.06
357.503	0.07
357.711	-0.01
357.92	0.12
358.128	0.05
358.337	-0.02
358.545	0.01
358.754	-0.03
358.962	0.03
359.17	0
359.379	0.03
359.587	0.03
359.796	-0.02
360.004	0.08
360.212	0.03
360.421	0.02
360.629	-0.01
360.837	0.02
361.046	0.02
361.254	0.08
361.462	0.04
361.67	-0
361.879	0
362.087	0.09
362.295	0.01
362.503	0
362.711	0.02
362.92	-0.02
363.128	-0.03
363.336	-0.06
363.544	-0.03
363.752	0.01
363.96	-0.02
364.168	-0.01
364.376	-0
364.584	0.04
364.792	0.05
365	0.03
365.208	0.04
365.416	-0
365.624	0.06
365.832	0
366.04	0.07
366.248	-0
366.456	0.04
366.664	0.02
366.872	-0
367.079	-0
367.287	0.04
367.495	0.03
367.703	-0.01
367.911	0
368.118	0.03
368.326	-0.01
368.534	-0.02
368.742	0.05
368.949	-0.04
369.157	-0
369.365	0.02
369.572	0.01
369.78	-0.03
369.988	0.07
370.195	0.04
370.403	0.02
370.61	-0.02
370.818	-0
371.026	0.08
371.233	-0.01
371.441	-0.02
371.648	-0.01
371.856	0.01
372.063	0.01
372.271	-0.01
372.478	0.03
372.685	0.01
372.893	0.03
373.1	0.03
373.308	0.01
373.515	0.05
373.722	0.01
373.93	-0.01
374.137	0.04
374.344	0.07
374.552	0.04
374.759	0.08
374.966	-0.01
375.173	0.04
375.381	0.08
375.588	0.01
375.795	-0.07
376.002	-0.02
376.209	-0.03
376.417	0.04
376.624	0.02
376.831	0.06
377.038	0.04
377.245	-0.05
377.452	0
377.659	-0.02
377.866	-0.04
378.073	-0.02
378.28	0.02
378.487	-0
378.694	0.02
378.901	0.03
379.108	0.02
379.315	0.07
379.522	0.12
379.729	0.01
379.936	0.01
380.143	0
380.35	0.04
380.557	-0.02
380.763	0.04
380.97	0
381.177	0.05
381.384	0.06
381.591	-0.02
381.797	0.03
382.004	0.03
382.211	0.03
382.418	-0.01
382.624	0.06
382.831	0.06
383.038	0.01
383.244	-0.02
383.451	-0.02
383.658	0.04
383.864	-0.03
384.071	0.02
384.277	0.1
384.484	-0.01
384.69	0.05
384.897	-0
385.103	0.01
385.31	-0
385.516	-0.02
385.723	-0.04
385.929	-0.03
386.136	0.01
386.342	-0.02
386.549	0
386.755	0.09
386.961	0.04
387.168	-0.02
387.374	-0
387.58	0.06
387.787	0.05
387.993	0.05
388.199	0
388.406	0.01
388.612	-0.01
388.818	-0.03
389.024	-0
389.231	0.04
389.437	0.06
389.643	0.07
389.849	-0.01
390.055	0.02
390.261	0.03
390.467	0.03
390.674	-0.02
390.88	0.01
391.086	0.04
391.292	-0.04
391.498	0.06
391.704	0.06
391.91	0.01
392.116	0.02
392.322	-0.06
392.528	0.04
392.734	-0.07
392.94	-0.02
393.146	0.01
393.352	-0.02
393.557	0.04
393.763	-0.01
393.969	0.04
394.175	0.01
394.381	0
394.587	-0
394.792	0.03
394.998	0.04
395.204	0.05
395.41	-0.04
395.615	0.05
395.821	0.01
396.027	0.07
396.233	-0
396.438	0.03
396.644	0.08
396.85	0.03
397.055	0.02
397.261	0.08
397.466	0.08
397.672	0.03
397.878	0.03
398.083	0.01
398.289	-0
398.494	0.07
398.7	0.03
398.905	-0.06
399.111	0.08
399.316	-0.01
399.522	0.01
399.727	0.05
399.932	0.02
400.138	0.06
400.343	0.06
400.549	0.03
400.754	0.06
400.959	0.01
401.165	0.02
401.37	0.02
401.575	0.09
401.78	0.03
401.986	-0.01
402.191	-0.04
402.396	0.01
402.601	0.03
402.807	0.05
403.012	-0.01
403.217	0.07
403.422	-0.01
403.627	0.01
403.832	-0.02
404.037	0.04
404.243	0.05
404.448	-0.01
404.653	-0.01
404.858	0.03
405.063	0.04
405.268	-0.06
405.473	-0.07
405.678	-0.01
405.883	0.19
406.088	0.06
406.293	-0.05
406.498	-0.02
406.703	0.05
406.907	0.01
407.112	-0.04
407.317	-0.01
407.522	0.02
407.727	-0.03
407.932	0.02
408.136	0.08
408.341	0.04
408.546	-0.03
408.751	0.03
408.956	-0.01
409.16	0.01
409.365	0.02
409.57	0.05
409.774	0.04
409.979	0.05
410.184	0.03
410.388	-0.02
410.593	0.07
410.798	0.03
411.002	-0.02
411.207	0.02
411.411	0.02
411.616	-0
411.82	0
412.025	0.02
412.229	-0.04
412.434	0.07
412.638	0.01
412.843	0.02
413.047	0.02
413.252	-0.03
413.456	0
413.66	0.03
413.865	0.01
414.069	0.03
414.273	-0.01
414.478	-0.01
414.682	-0.02
414.886	-0.02
415.091	-0.05
415.295	-0.06
415.499	0.01
415.703	0.02
415.908	0.03
416.112	-0.06
416.316	0.05
416.52	-0.01
416.724	0.01
416.929	-0.02
417.133	0.06
417.337	-0.03
417.541	-0.06
417.745	-0.03
417.949	0.02
418.153	0.01
418.357	-0.03
418.561	0.08
418.765	0.02
418.969	0.12
419.173	0.04
419.377	-0.03
419.581	0.07
419.785	0.03
419.989	-0.04
420.193	-0.01
420.397	-0
420.601	0.04
420.804	0.04
421.008	0.01
421.212	0.03
421.416	0.05
421.62	-0.03
421.823	0.04
422.027	0.11
422.231	0.02
422.435	0.01
422.638	0.04
422.842	0.03
423.046	0.02
423.249	0.04
423.453	0.02
423.657	0.01
423.86	0.02
424.064	-0.01
424.268	0.06
424.471	-0
424.675	0.09
424.878	0.09
425.082	-0.02
425.285	0.05
425.489	0
425.692	0.03
425.896	-0.02
426.099	0.04
426.303	-0.05
426.506	-0.03
426.71	0.05
426.913	0.05
427.116	0.07
427.32	-0
427.523	0.01
427.726	0.13
427.93	-0.02
428.133	0.04
428.336	-0.05
428.54	-0.01
428.743	0.04
428.946	0.05
429.149	-0.02
429.353	0.03
429.556	0.03
429.759	0.03
429.962	-0.02
430.165	-0.02
430.368	0
430.571	-0.02
430.775	0.05
430.978	-0.01
431.181	0.04
431.384	0.01
431.587	0.02
431.79	0.02
431.993	-0.04
432.196	-0.01
432.399	-0.06
432.602	0.04
432.805	-0.01
433.008	-0.01
433.211	-0.05
433.414	0.11
433.616	0.08
433.819	-0.01
434.022	-0.07
434.225	0.07
434.428	0.03
434.631	0.08
434.833	0.01
435.036	0
435.239	0.08
435.442	0.01
435.645	-0.04
435.847	-0
436.05	0.06
436.253	-0
436.455	-0.02
436.658	-0.02
436.861	0.09
437.063	0.01
437.266	0.04
437.468	0.01
437.671	0.12
437.874	0.07
438.076	-0.04
438.279	-0.05
438.481	-0.01
438.684	-0.07
438.886	0.05
439.089	-0.09
439.291	0.02
439.494	0.06
439.696	-0.01
439.899	0.01
440.101	-0.03
440.303	-0.07
440.506	0.04
440.708	0.02
440.91	0.03
441.113	-0.03
441.315	0.01
441.517	-0.05
441.72	0.09
441.922	-0.02
442.124	-0.05
442.326	-0.01
442.529	0.08
442.731	-0.05
442.933	0.1
443.135	-0.04
443.337	-0
443.539	0.03
443.742	-0.01
443.944	-0.02
444.146	-0.03
444.348	-0.03
444.55	-0.02
444.752	0.02
444.954	-0.02
445.156	0.02
445.358	-0.03
445.56	0.04
445.762	-0.01
445.964	-0.02
446.166	0.02
446.368	-0.06
446.57	0.06
446.772	-0
446.974	0.01
447.175	0
447.377	-0
447.579	-0.02
447.781	-0.08
447.983	0.06
448.184	-0.07
448.386	-0.01
448.588	-0.07
448.79	0.01
448.991	-0.01
449.193	-0.02
449.395	0.04
449.597	0.07
449.798	-0.01
450	0.05
450.202	-0.03
450.403	0.06
450.605	0.05
450.806	-0
451.008	-0.05
451.21	0.06
451.411	0.04
451.613	-0.02
451.814	0.02
452.016	0.02
452.217	0.01
452.419	0
452.62	0.01
452.821	0.05
453.023	0.05
453.224	0.03
453.426	-0.02
453.627	0.04
453.828	0.04
454.03	-0.02
454.231	-0.02
454.432	-0.08
454.634	0.1
454.835	-0.01
455.036	-0.1
455.238	0.02
455.439	0.1
455.64	-0.02
455.841	-0.07
456.042	0.11
456.244	0.05
456.445	-0.05
456.646	-0.04
456.847	-0.01
457.048	0.04
457.249	0.09
457.45	0.14
457.651	-0.06
457.852	0.1
458.054	-0
458.255	-0.02
458.456	0.07
458.657	0.02
458.858	-0.01
459.058	-0.04
459.259	0.05
459.46	0.01
459.661	0.01
459.862	0.07
460.063	-0.02
460.264	0.05
460.465	-0.01
460.666	0.09
460.866	0
461.067	-0
461.268	0
461.469	-0.01
461.67	-0
461.87	0.01
462.071	-0.04
462.272	-0.06
462.473	-0.02
462.673	0.03
462.874	-0.05
463.075	0.04
463.275	-0.02
463.476	-0.01
463.676	0.01
463.877	0.02
464.078	-0.02
464.278	0.02
464.479	-0.01
464.679	0.02
464.88	0.02
465.08	0.13
465.281	-0.03
465.481	0
465.682	0.04
465.882	0.02
466.083	0.01
466.283	0
466.483	-0.02
466.684	-0.04
466.884	-0.01
467.085	-0.02
467.285	0.05
467.485	-0.08
467.686	-0
467.886	-0.04
468.086	0
468.286	0.03
468.487	0.03
468.687	-0.09
468.887	-0.02
469.087	0.07
469.287	0.03
469.488	-0.03
469.688	0.04
469.888	0.07
470.088	0.05
470.288	0.02
470.488	0.06
470.688	-0.02
470.888	-0.02
471.088	-0.01
471.288	0.04
471.488	0.01
471.688	0.01
471.888	-0.04
472.088	0.04
472.288	0.06
472.488	-0.03
472.688	0.01
472.888	-0.01
473.088	0
473.288	0.02
473.488	0
473.688	0.07
473.887	-0.04
474.087	-0.04
474.287	-0.01
474.487	-0.02
474.687	0.04
474.886	-0.03
475.086	0.01
475.286	0.02
475.486	-0.01
475.685	-0
475.885	-0.01
476.085	0
476.284	0.01
476.484	-0.01
476.684	0.02
476.883	0.04
477.083	0.04
477.282	-0.03
477.482	0.03
477.681	0.05
477.881	0.05
478.08	-0.03
478.28	-0.02
478.479	0.02
478.679	0.09
478.878	-0
479.078	0.01
479.277	0.01
479.477	-0
479.676	0.04
479.875	0.01
480.075	-0.02
480.274	0.05
480.473	0.03
480.673	-0.02
480.872	0.03
481.071	-0.01
481.271	0.04
481.47	-0.03
481.669	0
481.868	-0.01
482.067	-0.02
482.267	-0.02
482.466	-0
482.665	-0.03
482.864	-0.03
483.063	-0.01
483.262	0.01
483.461	0.04
483.661	0.01
483.86	-0.01
484.059	-0.01
484.258	0.02
484.457	0.03
484.656	-0.02
484.855	0.04
485.054	-0.04
485.253	-0.05
485.452	-0.04
485.651	0
485.849	0.01
486.048	-0.02
486.247	-0.02
486.446	0.03
486.645	-0.03
486.844	-0.01
487.043	-0.01
487.241	0.05
487.44	-0.04
487.639	-0.01
487.838	0.01
488.037	0.02
488.235	0.06
488.434	0.02
488.633	-0.01
488.831	0.02
489.03	0.03
489.229	-0.01
489.427	-0.01
489.626	0
489.825	0.03
490.023	-0.02
490.222	-0.01
490.42	0
490.619	0.05
490.817	0.03
491.016	-0.01
491.214	0.05
491.413	-0
491.611	-0.01
491.81	-0
492.008	0.02
492.207	0.02
492.405	0.01
492.604	-0.02
492.802	-0
493	-0
493.199	-0.03
493.397	0
493.595	-0.01
493.794	-0.03
493.992	0.03
494.19	0.01
494.388	0.02
494.587	-0.02
494.785	0.01
494.983	0.01
495.181	0.01
495.379	-0.01
495.578	-0.02
495.776	0.01
495.974	0.02
496.172	0.02
496.37	-0.01
496.568	-0.03
496.766	-0.03
496.964	0.04
497.162	-0.01
497.36	-0.04
497.558	0.02
497.756	0.02
497.954	-0.01
498.152	-0.02
498.35	0.02
498.548	-0
498.746	0.02
498.944	-0.03
499.142	0
499.34	-0
499.538	0.01
499.736	-0.04
499.933	0.01
500.131	0.03
500.329	0.01
500.527	0.03
500.725	0.03
500.922	0.02
501.12	0.01
501.318	0.01
501.516	0
501.713	0.03
501.911	0.01
502.109	-0.02
502.306	0.02
502.504	-0.01
502.701	0.01
502.899	-0.04
503.097	0.04
503.294	-0.01
503.492	-0.02
503.689	0.02
503.887	0.03
504.084	0.04
504.282	0
504.479	-0.04
504.677	0.02
504.874	-0.03
505.072	-0.01
505.269	0
505.466	0.02
505.664	-0
505.861	-0.03
506.059	-0.02
506.256	0.02
506.453	-0.02
506.651	0.04
506.848	0.02
507.045	0.01
507.242	0.02
507.44	-0.01
507.637	-0
507.834	-0
508.031	0.03
508.229	-0.01
508.426	0
508.623	0.04
508.82	-0.01
509.017	-0.03
509.214	0
509.411	0.02
509.608	-0.01
509.805	0.02
510.003	-0.01
510.2	-0.02
510.397	0.05
510.594	-0.02
510.791	-0.02
510.988	-0
511.184	0.03
511.381	0
511.578	-0.01
511.775	0.04
511.972	-0.01
512.169	-0.02
512.366	0
512.563	0
512.76	-0.03
512.956	-0.01
513.153	-0.03
513.35	0.02
513.547	-0.02
513.744	-0.02
513.94	-0.02
514.137	0.02
514.334	-0.02
514.53	0.03
514.727	-0
514.924	0.05
515.12	-0
515.317	-0.03
515.514	0.01
515.71	-0.04
515.907	-0
516.103	0.02
516.3	0.01
516.497	0.01
516.693	0.04
516.89	-0.01
517.086	-0.03
517.283	0.02
517.479	0.01
517.676	0.01
517.872	-0.01
518.068	-0.03
518.265	-0.02
518.461	-0.01
518.658	-0.02
518.854	0.02
519.05	-0.01
519.247	-0.01
519.443	-0
519.639	0.02
519.836	0.01
520.032	0
520.228	0
520.424	0.04
520.621	0.02
520.817	-0.02
521.013	0.01
521.209	0
521.405	0.03
521.601	0.01
521.798	0.02
521.994	0.04
522.19	-0.02
522.386	-0.02
522.582	-0.02
522.778	-0.01
522.974	-0
523.17	0.01
523.366	-0
523.562	0.03
523.758	-0
523.954	-0.04
524.15	-0.02
524.346	0.04
524.542	0.01
524.738	-0.02
524.934	-0.01
525.129	-0.07
525.325	0.03
525.521	-0.01
525.717	0.02
525.913	0
526.109	0.01
526.304	-0
526.5	0.02
526.696	0.02
526.892	-0
527.087	0
527.283	-0.02
527.479	0.01
527.674	-0
527.87	-0.01
528.066	0.01
528.261	0.01
528.457	-0.01
528.653	-0
528.848	-0.01
529.044	0
529.239	0.01
529.435	0.05
529.63	0.01
529.826	0.03
530.021	0.01
530.217	0.01
530.412	-0.02
530.608	-0.04
530.803	0.02
530.999	-0.01
531.194	-0.05
531.389	0
531.585	-0.06
531.78	0.01
531.975	0.02
532.171	0.01
532.366	-0.02
532.561	0
532.757	-0.02
532.952	0
533.147	0.02
533.342	-0
533.538	-0.02
533.733	-0
533.928	0
534.123	-0.01
534.318	-0.03
534.513	-0
534.709	0.02
534.904	-0.02
535.099	-0.01
535.294	0.02
535.489	0.03
535.684	-0
535.879	-0.04
536.074	0.01
536.269	-0.01
536.464	0
536.659	0.01
536.854	0.01
537.049	0.02
537.244	0.01
537.439	-0.01
537.634	0.02
537.828	0
538.023	-0.01
538.218	-0.01
538.413	0.01
538.608	-0.02
538.803	0
538.997	-0.03
539.192	0.04
539.387	0.01
539.582	0
539.776	0.02
539.971	-0.01
540.166	-0.02
540.36	-0.03
540.555	0.02
540.75	-0.02
540.944	0.01
541.139	-0.02
541.334	0.01
541.528	0.03
541.723	0.04
541.917	-0.01
542.112	-0.04
542.306	-0.01
542.501	0
542.695	0.01
542.89	-0.01
543.084	0.01
543.279	-0.01
543.473	-0.03
543.668	-0
543.862	-0.01
544.056	0.02
544.251	0
544.445	0.01
544.64	-0.01
544.834	-0.03
545.028	0.02
545.222	0.02
545.417	0.04
545.611	0.01
545.805	-0
546	-0.02
546.194	-0
546.388	-0.03
546.582	0.02
546.776	-0.01
546.97	-0.01
547.165	0
547.359	0.02
547.553	-0.01
547.747	0.01
547.941	-0
548.135	-0
548.329	-0
548.523	0.01
548.717	0
548.911	0.01
549.105	-0
549.299	0
549.493	0
549.687	0
549.881	0.02
550.075	0.01
550.269	-0.02
550.463	0.02
550.657	-0.01
550.85	-0
551.044	-0.01
551.238	0.01
551.432	-0.01
551.626	-0.02
551.82	0.01
552.013	-0.03
552.207	0.01
552.401	0.03
552.594	0.01
552.788	-0.02
552.982	0.01
553.176	-0.01
553.369	0.02
553.563	0
553.756	-0.03
553.95	-0.01
554.144	-0.02
554.337	0.02
554.531	0
554.724	0.01
554.918	-0.02
555.111	0.02
555.305	0.01
555.498	0.04
555.692	0.01
555.885	-0.02
556.079	0
556.272	-0.03
556.466	0.02
556.659	0.01
556.852	-0.01
557.046	-0.01
557.239	0.02
557.432	-0.04
557.626	-0.01
557.819	0.01
558.012	0.01
558.206	0.02
558.399	-0.01
558.592	0.01
558.785	-0.02
558.979	0.02
559.172	0
559.365	0.01
559.558	0.01
559.751	0
559.944	-0
560.138	-0.02
560.331	-0.02
560.524	-0.02
560.717	-0.01
560.91	-0.01
561.103	0.02
561.296	0
561.489	0.01
561.682	0.02
561.875	0.04
562.068	0.02
562.261	0.02
562.454	0.03
562.647	-0.01
562.84	0.02
563.032	-0
563.225	-0.01
563.418	0
563.611	-0.02
563.804	-0
563.997	-0.03
564.19	-0.03
564.382	-0.05
564.575	-0.01
564.768	0.01
564.961	0
565.153	-0.02
565.346	0.02
565.539	0.02
565.731	0.03
565.924	0.03
566.117	0.01
566.309	0.01
566.502	-0.03
566.695	0
566.887	0
567.08	-0.01
567.272	-0.01
567.465	-0.01
567.657	0.01
567.85	0.01
568.042	0.03
568.235	0.01
568.427	-0
568.62	-0.01
568.812	0.02
569.005	0.01
569.197	-0.02
569.389	0.02
569.582	-0.02
569.774	0.03
569.966	-0.03
570.159	-0.04
570.351	0.02
570.543	-0.02
570.736	0.02
570.928	-0.02
571.12	-0.01
571.312	-0.02
571.505	-0.04
571.697	0.05
571.889	-0.02
572.081	-0
572.273	-0.02
572.465	0.04
572.658	-0.01
572.85	0.01
573.042	0.01
573.234	-0.01
573.426	0.03
573.618	-0.02
573.81	0.02
574.002	0.02
574.194	0.03
574.386	-0.02
574.578	-0.06
574.77	-0
574.962	0
575.154	-0.02
575.346	-0.01
575.538	0.01
575.729	-0.01
575.921	-0.01
576.113	0.01
576.305	0.01
576.497	-0.02
576.689	-0.03
576.88	-0.02
577.072	0.04
577.264	-0.01
577.456	-0.01
577.647	-0.06
577.839	-0.01
578.031	0.04
578.223	-0.03
578.414	-0.02
578.606	0.02
578.798	0.02
578.989	-0.04
579.181	-0
579.372	0.01
579.564	-0
579.755	0.01
579.947	-0.02
580.139	0.01
580.33	-0.04
580.522	-0.02
580.713	-0.05
580.905	-0
581.096	0.02
581.287	0.02
581.479	-0.02
581.67	0.02
581.862	0.03
582.053	-0.03
582.244	-0.04
582.436	-0.01
582.627	0.02
582.818	-0.02
583.01	-0.03
583.201	0
583.392	0.04
583.583	0.02
583.775	-0.01
583.966	0
584.157	0.01
584.348	-0.03
584.54	-0.02
584.731	0.02
584.922	-0.01
585.113	-0.02
585.304	0.01
585.495	0.03
585.686	0
585.877	0.01
586.068	0.02
586.259	0.02
586.45	0.01
586.641	-0.04
586.832	-0.03
587.023	0.03
587.214	-0.01
587.405	-0
587.596	-0.01
587.787	0.05
587.978	0.01
588.169	-0.03
588.36	-0.02
588.551	0.02
588.742	-0.01
588.932	0.02
589.123	-0
589.314	0.02
589.505	-0
589.696	0
589.886	-0.03
590.077	-0.05
590.268	0.01
590.458	-0.03
590.649	-0.03
590.84	0.02
591.03	-0.01
591.221	-0.07
591.412	-0.02
591.602	0.01
591.793	0.01
591.984	-0.02
592.174	-0.02
592.365	0.06
592.555	-0.01
592.746	0.01
592.936	0
593.127	0.02
593.317	0.04
593.508	-0.02
593.698	-0.01
593.889	0.04
594.079	-0.03
594.269	-0.02
594.46	0.01
594.65	-0.01
594.84	-0.01
595.031	-0.03
595.221	-0.01
595.411	-0.03
595.602	0.03
595.792	-0.01
595.982	-0.02
596.172	0.05
596.363	0.01
596.553	-0
596.743	-0.01
596.933	0.01
597.123	0.03
597.314	-0.02
597.504	-0.03
597.694	0.02
597.884	0.01
598.074	-0.01
598.264	-0.02
598.454	-0
598.644	-0.01
598.834	0
599.024	-0.02
599.214	0
599.404	0.03
599.594	0.02
599.784	-0.04
599.974	0.07
600.164	0.01
600.354	-0.04
600.544	-0.03
600.734	0.02
600.924	0.04
601.114	-0.01
601.303	0
601.493	-0.01
601.683	-0.01
601.873	0
602.063	-0.06
602.252	0.02
602.442	-0.06
602.632	-0.02
602.821	-0.02
603.011	0.03
603.201	-0.01
603.39	-0.01
603.58	-0.03
603.77	0
603.959	0.04
604.149	-0.01
604.339	0
604.528	0.01
604.718	0.03
604.907	0.01
605.097	-0.01
605.286	-0.04
605.476	0.01
605.665	0.02
605.855	-0.01
606.044	0.03
606.234	0
606.423	-0.02
606.612	-0.02
606.802	0.02
606.991	0.01
607.181	0
607.37	-0.02
607.559	0.01
607.749	-0.04
607.938	-0
608.127	-0
608.316	-0.05
608.506	-0.01
608.695	-0.01
608.884	-0.01
609.073	-0.01
609.263	0.02
609.452	0.03
609.641	0
609.83	-0
610.019	0
610.208	-0.02
610.397	0
610.586	0.04
610.775	-0.02
610.965	-0.04
611.154	-0.04
611.343	0.02
611.532	-0.01
611.721	-0.02
611.91	-0.01
612.099	-0
612.287	-0
612.476	-0.04
612.665	0.01
612.854	-0.02
613.043	0.05
613.232	0
613.421	-0.06
613.61	-0.01
613.798	-0.03
613.987	0.04
614.176	-0.01
614.365	0
614.554	0.02
614.742	0.04
614.931	-0
615.12	0.03
615.309	0.01
615.497	0.02
615.686	-0.03
615.875	-0.02
616.063	0.01
616.252	0
616.44	-0.02
616.629	-0.02
616.818	0.05
617.006	-0
617.195	-0.01
617.383	-0.02
617.572	-0.01
617.76	-0.01
617.949	-0.02
618.137	0
618.326	0.01
618.514	-0.03
618.703	-0.03
618.891	0.08
619.079	-0.06
619.268	0.02
619.456	-0.03
619.644	0.02
619.833	-0.01
620.021	-0.01
620.209	-0.05
620.398	0.03
620.586	-0.01
620.774	0.02
620.962	0.01
621.151	0.07
621.339	-0.01
621.527	-0.03
621.715	-0.02
621.903	-0.03
622.092	-0.04
622.28	-0.01
622.468	0
622.656	0.04
622.844	0.02
623.032	0
623.22	-0.04
623.408	-0
623.596	0.01
623.784	0.02
623.972	-0.03
624.16	-0.03
624.348	0.05
624.536	-0.01
624.724	-0.01
624.912	0.01
625.1	0.04
625.288	-0.01
625.476	-0.01
625.664	0.02
625.851	-0.02
626.039	-0.02
626.227	0.02
626.415	-0
626.603	-0.04
626.79	0.01
626.978	0.01
627.166	0.05
627.354	0.02
627.541	-0.03
627.729	-0.05
627.917	0.02
628.104	0.04
628.292	0
628.48	0
628.667	0.02
628.855	-0.01
629.042	0.02
629.23	-0.02
629.418	-0.02
629.605	-0.02
629.793	-0.01
629.98	-0.02
630.168	-0.01
630.355	0
630.543	-0.01
630.73	-0.02
630.917	0.04
631.105	0.07
631.292	-0.04
631.48	0.03
631.667	0.06
631.854	0.01
632.042	0.01
632.229	-0.05
632.416	-0.03
632.604	0
632.791	0
632.978	0.01
633.165	0.03
633.353	0.06
633.54	0.04
633.727	-0.06
633.914	0
634.101	0.03
634.289	0.05
634.476	-0.02
634.663	-0.03
634.85	0.01
635.037	-0.04
635.224	-0.07
635.411	0.01
635.598	0.05
635.785	0.01
635.972	-0.02
636.159	0.03
636.346	-0.04
636.533	0
636.72	-0.02
636.907	-0.01
637.094	0.02
637.281	0.01
637.468	0.01
637.655	-0.02
637.842	0
638.029	0
638.215	0.03
638.402	0.01
638.589	-0.03
638.776	-0.02
638.963	-0.01
639.149	0.04
639.336	0.08
639.523	0.03
639.709	-0
639.896	-0.02
640.083	0.06
640.27	0
640.456	-0
640.643	-0.01
640.829	-0.05
641.016	-0
641.203	-0.03
641.389	0.02
641.576	0.06
641.762	0
641.949	-0.03
642.135	0.04
642.322	0.05
642.508	-0.02
642.695	0.03
642.881	-0.02
643.068	0.01
643.254	0
643.441	0.04
643.627	-0
643.813	-0.05
644	0.04
644.186	-0.03
644.372	-0.03
644.559	0.02
644.745	0.01
644.931	-0.01
645.118	-0
645.304	0
645.49	-0.02
645.676	-0
645.862	-0.02
646.049	0.06
646.235	0.02
646.421	0.07
646.607	0.06
646.793	-0
646.979	-0.01
647.165	0.01
647.352	0.05
647.538	0.03
647.724	0.01
647.91	0.03
648.096	0.03
648.282	0.03
648.468	-0
648.654	0.04
648.84	0.01
649.026	0.04
649.212	-0
649.397	-0.02
649.583	-0.04
649.769	0.03
649.955	0.02
650.141	0.02
650.327	0.11
650.513	-0.04
650.698	0.05
650.884	-0.05
651.07	0.02
651.256	0.03
651.442	-0.02
651.627	0.01
651.813	0.04
651.999	-0.01
652.184	0.02
652.37	0.01
652.556	-0.02
652.741	0.04
652.927	-0.05
653.113	0.01
653.298	-0.01
653.484	0.01
653.669	-0.01
653.855	0.01
654.04	0.04
654.226	0.01
654.412	0
654.597	-0.03
654.782	0.06
654.968	0.04
655.153	0.02
655.339	0.02
655.524	-0.01
655.71	0.02
655.895	-0.01
656.08	-0.02
656.266	0.08
656.451	0.04
656.636	-0.03
656.822	0.04
657.007	-0.02
657.192	-0.01
657.378	-0.06
657.563	0
657.748	0.05
657.933	0.03
658.118	-0.04
658.304	0.01
658.489	0.04
658.674	0.02
658.859	-0.03
659.044	0.04
659.229	0.03
659.414	0.04
659.599	0.01
659.785	-0.01
659.97	0.02
660.155	0.01
660.34	0.01
660.525	0.03
660.71	0.01
660.895	0.05
661.08	-0.01
661.264	-0
661.449	0.08
661.634	0.06
661.819	0.06
662.004	0.05
662.189	-0.02
662.374	-0.01
662.559	0.02
662.743	-0.01
662.928	-0
663.113	0.02
663.298	-0.05
663.483	-0.01
663.667	0.05
663.852	-0.01
664.037	0.07
664.221	-0.03
664.406	0.08
664.591	0.07
664.775	0.03
664.96	0.03
665.145	0.05
665.329	0.05
665.514	0.03
665.698	0
665.883	-0.05
666.068	0.11
666.252	0.02
666.437	0.05
666.621	0.05
666.806	0.07
666.99	0.02
667.174	-0.02
667.359	0.12
667.543	0.02
667.728	0.06
667.912	-0.02
668.096	0.06
668.281	0.03
668.465	0.05
668.649	0.05
668.834	0.05
669.018	0.01
669.202	0.02
669.387	-0.01
669.571	0.09
669.755	0.04
669.939	0.04
670.124	0.05
670.308	0.08
670.492	0.07
670.676	0.07
670.86	0.07
671.044	0.01
671.228	0.06
671.413	0.01
671.597	0.06
671.781	0.03
671.965	0.08
672.149	0.06
672.333	0.08
672.517	0.04
672.701	0.07
672.885	0.05
673.069	-0.04
673.253	0.07
673.437	0.05
673.621	0.03
673.804	0.06
673.988	0.09
674.172	0.09
674.356	0.01
674.54	0.08
674.724	0.15
674.908	0.08
675.091	0.08
675.275	0.1
675.459	0.15
675.643	0.15
675.826	0.11
676.01	0.08
676.194	0.07
676.377	0.13
676.561	0.11
676.745	0.07
676.928	0.12
677.112	0.17
677.296	0.08
677.479	0.09
677.663	0.05
677.846	0.13
678.03	0.09
678.213	0.06
678.397	0.12
678.58	0.07
678.764	0.07
678.947	0.09
679.131	0.05
679.314	0.12
679.498	0.09
679.681	0.15
679.865	0.14
680.048	0.15
680.231	0.11
680.415	0.1
680.598	0.06
680.781	0.08
680.965	0.09
681.148	0.16
681.331	0.11
681.514	0.17
681.698	0.06
681.881	0.16
682.064	0.17
682.247	0.16
682.43	0.08
682.614	0.14
682.797	0.16
682.98	0.2
683.163	0.15
683.346	0.16
683.529	0.12
683.712	0.11
683.895	0.18
684.078	0.09
684.261	0.13
684.444	0.18
684.627	0.18
684.81	0.19
684.993	0.14
685.176	0.19
685.359	0.15
685.542	0.18
685.725	0.25
685.908	0.2
686.091	0.19
686.274	0.21
686.457	0.18
686.639	0.19
686.822	0.22
687.005	0.25
687.188	0.23
687.371	0.32
687.553	0.23
687.736	0.25
687.919	0.32
688.102	0.26
688.284	0.24
688.467	0.22
688.65	0.24
688.832	0.22
689.015	0.22
689.197	0.23
689.38	0.36
689.563	0.36
689.745	0.16
689.928	0.25
690.11	0.26
690.293	0.37
690.475	0.19
690.658	0.32
690.84	0.23
691.023	0.25
691.205	0.26
691.388	0.32
691.57	0.35
691.752	0.33
691.935	0.22
692.117	0.27
692.3	0.34
692.482	0.37
692.664	0.34
692.847	0.36
693.029	0.39
693.211	0.34
693.393	0.32
693.576	0.35
693.758	0.37
693.94	0.34
694.122	0.36
694.304	0.38
694.487	0.35
694.669	0.42
694.851	0.35
695.033	0.42
695.215	0.42
695.397	0.38
695.579	0.45
695.761	0.41
695.943	0.37
696.125	0.59
696.308	0.45
696.49	0.36
696.671	0.61
696.853	0.49
697.035	0.7
697.217	0.42
697.399	0.57
697.581	0.48
697.763	0.53
697.945	0.49
698.127	0.54
698.309	0.57
698.491	0.58
698.672	0.66
698.854	0.67
699.036	0.62
699.218	0.61
699.399	0.68
699.581	0.66
699.763	0.61
699.945	0.59
700.126	0.6
700.308	0.71
700.49	0.66
700.671	0.66
700.853	0.69
701.035	0.69
701.216	0.79
701.398	0.72
701.579	0.78
701.761	0.82
701.943	0.69
702.124	0.72
702.306	0.76
702.487	0.89
702.669	0.77
702.85	0.81
703.031	0.78
703.213	1.01
703.394	0.96
703.576	0.89
703.757	1.04
703.938	0.99
704.12	1.07
704.301	0.96
704.483	0.94
704.664	1
704.845	1.09
705.026	1.09
705.208	0.97
705.389	1.06
705.57	1.11
705.751	1.1
705.933	1.13
706.114	1.16
706.295	1.21
706.476	1.08
706.657	1.28
706.838	1.19
707.02	1.33
707.201	1.26
707.382	1.2
707.563	1.25
707.744	1.34
707.925	1.3
708.106	1.33
708.287	1.38
708.468	1.47
708.649	1.49
708.83	1.46
709.011	1.47
709.192	1.53
709.373	1.46
709.554	1.54
709.734	1.61
709.915	1.65
710.096	1.64
710.277	1.52
710.458	1.67
710.639	1.68
710.819	1.59
711	1.72
711.181	1.78
711.362	1.87
711.542	1.75
711.723	1.87
711.904	1.91
712.085	2.01
712.265	1.98
712.446	1.93
712.627	1.95
712.807	2.07
712.988	2.07
713.168	2.06
713.349	2.2
713.53	2.1
713.71	2.24
713.891	2.13
714.071	2.26
714.252	2.29
714.432	2.32
714.613	2.31
714.793	2.47
714.974	2.51
715.154	2.58
715.334	2.63
715.515	2.65
715.695	2.43
715.876	2.66
716.056	2.79
716.236	2.7
716.417	2.8
716.597	2.81
716.777	3.12
716.957	2.81
717.138	3.02
717.318	2.99
717.498	3.05
717.678	3.17
717.859	3.22
718.039	3.23
718.219	3.3
718.399	3.38
718.579	3.33
718.759	3.53
718.939	3.61
719.12	3.58
719.3	3.65
719.48	3.52
719.66	3.61
719.84	3.81
720.02	3.79
720.2	3.87
720.38	3.94
720.56	4.15
720.74	4
720.92	4.26
721.1	4.28
721.279	4.42
721.459	4.39
721.639	4.41
721.819	4.44
721.999	4.59
722.179	4.57
722.359	4.57
722.538	4.82
722.718	4.82
722.898	4.91
723.078	4.91
723.257	4.91
723.437	5.17
723.617	5.22
723.797	5.15
723.976	5.3
724.156	5.51
724.336	5.52
724.515	5.74
724.695	5.58
724.874	5.66
725.054	5.8
725.234	5.9
725.413	5.97
725.593	6.03
725.772	6.07
725.952	6.24
726.131	6.23
726.311	6.43
726.49	6.41
726.67	6.4
726.849	6.47
727.028	6.6
727.208	6.66
727.387	6.81
727.567	6.88
727.746	6.98
727.925	7.08
728.105	6.99
728.284	7.19
728.463	7.28
728.643	7.2
728.822	7.31
729.001	7.4
729.18	7.8
729.359	7.63
729.539	7.81
729.718	7.79
729.897	7.9
730.076	8.06
730.255	8.02
730.434	8.27
730.614	8.18
730.793	8.55
730.972	8.58
731.151	8.57
731.33	8.74
731.509	8.81
731.688	8.79
731.867	9.06
732.046	8.83
732.225	9.4
732.404	9.08
732.583	9.3
732.762	9.48
732.941	9.71
733.12	9.84
733.298	9.71
733.477	9.79
733.656	9.76
733.835	10
734.014	10.14
734.193	10.06
734.371	10.18
734.55	10.55
734.729	10.36
734.908	10.27
735.086	10.64
735.265	10.69
735.444	10.39
735.623	10.73
735.801	10.75
735.98	10.73
736.159	10.78
736.337	11.03
736.516	10.99
736.694	10.83
736.873	10.82
737.052	11.28
737.23	10.9
737.409	10.71
737.587	11.18
737.766	10.7
737.944	10.8
738.123	11.18
738.301	10.91
738.479	10.91
738.658	10.53
738.836	10.26
739.015	10.18
739.193	10.47
739.371	9.93
739.55	9.83
739.728	9.65
739.906	9.96
740.085	9.91
740.263	9.86
740.441	9.33
740.62	9.43
740.798	9.08
740.976	8.73
741.154	8.51
741.332	8.64
741.511	8.39
741.689	8.09
741.867	8.01
742.045	7.72
742.223	7.41
742.401	7.3
742.579	7.11
742.757	7.08
742.935	6.69
743.114	6.65
743.292	6.37
743.47	6.17
743.648	6.16
743.826	5.83
744.004	5.74
744.181	5.56
744.359	5.28
744.537	5.18
744.715	5.09
744.893	5.03
745.071	4.71
745.249	4.73
745.427	4.38
745.605	4.36
745.782	4.21
745.96	4.11
746.138	4.06
746.316	3.94
746.493	3.57
746.671	3.57
746.849	3.46
747.027	3.54
747.204	3.16
747.382	3.25
747.56	2.91
747.737	2.91
747.915	2.79
748.093	2.86
748.27	2.6
748.448	2.6
748.625	2.33
748.803	2.31
748.98	2.25
749.158	2.31
749.335	2.22
749.513	2.08
749.69	1.99
749.868	1.94
750.045	1.94
750.223	1.78
750.4	1.68
750.578	1.86
750.755	1.71
750.932	1.48
751.11	1.77
751.287	1.45
751.464	1.6
751.642	1.4
751.819	1.47
751.996	1.52
752.173	1.3
752.351	1.22
752.528	1.29
752.705	1.19
752.882	1.15
753.06	1.14
753.237	1.26
753.414	1.2
753.591	1.18
753.768	1.05
753.945	0.94
754.122	0.88
754.299	0.98
754.476	0.72
754.654	0.97
754.831	0.94
755.008	0.9
755.185	0.7
755.362	0.72
755.539	0.85
755.716	0.62
755.892	0.72
756.069	0.67
756.246	0.65
756.423	0.71
756.6	0.84
756.777	0.54
756.954	0.77
757.131	0.56
757.307	0.5
757.484	0.45
757.661	0.64
757.838	0.56
758.015	0.42
758.191	0.58
758.368	0.61
758.545	0.6
758.721	0.65
758.898	0.32
759.075	0.55
759.251	0.54
759.428	0.53
759.605	0.31
759.781	0.34
759.958	0.37
760.134	0.43
760.311	0.36
760.488	0.46
760.664	0.47
760.841	0.37
761.017	0.2
761.194	0.42
761.37	0.39
761.547	0.36
761.723	0.24
761.899	0.45
762.076	0.18
762.252	0.17
762.429	0.31
762.605	0.31
762.781	0.17
762.958	0.23
763.134	0.23
763.31	0.15
763.486	0.42
763.663	0.08
763.839	0.23
764.015	0.08
764.191	0.22
764.368	0.19
764.544	0.21
764.72	0.14
764.896	0.28
765.072	0.24
765.248	0.31
765.425	0.24
765.601	0.18
765.777	0.2
765.953	0.08
766.129	0.1
766.305	0.16
766.481	0.26
766.657	0.17
766.833	0.35
767.009	0.1
767.185	0.09
767.361	0.05
767.537	0.06
767.713	0.27
767.889	0.07
768.065	0.11
768.24	0.17
768.416	0.16
768.592	-0.1
768.768	0.17
768.944	0.17
769.12	-0.05
769.295	0.05
769.471	0.14
769.647	0.15
769.823	0.25
769.998	0.06
770.174	0.03
770.35	0.4
770.525	0.44
770.701	0.15
770.877	0.12
771.052	-0.02
771.228	0.28
771.403	0.2
771.579	0.16
771.755	0.39
771.93	0.02
772.106	-0.04
772.281	-0.02
772.457	0.16
772.632	0.12
772.808	-0.17
772.983	0.07
773.159	-0.03
773.334	0.3
773.509	0.14
773.685	0.06
773.86	0.36
774.036	0.24
774.211	0.12
774.386	0.04
774.562	0.11
774.737	-0.01
774.912	-0.23
775.087	0.04
775.263	0.16
775.438	0.11
775.613	0.03
775.788	0.14
775.964	0.18
776.139	0.49
776.314	-0.08
776.489	0.03
776.664	0.18
776.839	-0.09
777.014	0.15
777.19	0.23
777.365	0.34
777.54	0.48
777.715	0.05
777.89	0.11
778.065	-0.04
778.24	0.11
778.415	0.25
778.59	-0.03
778.765	0.02
778.94	0.18
779.115	0.14
779.289	-0.05
779.464	0.02
779.639	-0.06
779.814	0
779.989	-0.02
780.164	0.13
780.339	0.22
780.513	0.03
780.688	-0.15
780.863	-0.03
781.038	0.1
781.212	-0.14
781.387	0.03
781.562	0.48
781.737	-0.03
781.911	0.2
782.086	-0.05
782.261	0.12
782.435	0.35
782.61	0
782.784	0.09
782.959	0.04
783.134	-0.16
783.308	-0.08
783.483	-0.01
783.657	0.21
783.832	0.09
784.006	-0.13
784.181	0.15
784.355	0.19
784.53	-0.22
784.704	0.09
784.878	0.48
785.053	0.12
785.227	0.17
785.402	0.42
785.576	-0.1
785.75	-0.03
785.925	0.06
786.099	0.11
786.273	0.17
786.448	0.12
786.622	0.22
786.796	0.22
786.97	0.08
787.145	0.58
787.319	-0.23
787.493	-0.18
787.667	-0.18
787.841	-0.07
788.015	0.2
788.19	0.02
788.364	0.04
788.538	0.22
788.712	0.28
788.886	0.05
789.06	0.19
789.234	0.26
789.408	-0.16
789.582	0.1
789.756	0.08
789.93	-0.01
790.104	-0.06
790.278	-0.04
790.452	-0.1
790.626	0.22
790.8	0.02
790.973	0.13
791.147	0.19
791.321	0.24
791.495	0.12
791.669	0.08
791.843	0.14
792.016	0.13
792.19	0.54
792.364	-0.15
792.538	0.56
792.711	0.35
792.885	-0.03
793.059	0.13
793.233	-0.4
793.406	0.3
793.58	0.23
793.754	0.13
793.927	0.19
794.101	0.4
794.274	0
794.448	0.4
794.622	-0.24
794.795	0.16
794.969	0.1
795.142	0.51
795.316	0.15
795.489	-0.11
795.663	0.43
795.836	-0.04
796.009	-0.11
796.183	0.42
796.356	0.4
796.53	0.15
796.703	-0.06
796.876	0.3
797.05	-0.05
797.223	0.1
797.396	0.09
797.57	-0
797.743	0.42
797.916	0.26
798.09	0.01
798.263	0.25
798.436	0.26
798.609	-0.27
798.782	0.06
798.956	0.08
799.129	0.19
799.302	-0.08
799.475	-0.26
799.648	-0.19
799.821	-0.07
799.994	0.43
800.167	-0.23
800.34	0.07
800.514	0.17
800.687	0.07
800.86	0.02
801.033	-0.01
801.206	0.23
801.379	-0.39
801.551	0.24
801.724	0.54
801.897	0.47
802.07	0.01
802.243	-0.27
802.416	-0.17
802.589	-0.06
802.762	0.05
802.935	0.13
803.107	0.12
803.28	0.23
803.453	0.38
803.626	-0.15
803.798	0.21
803.971	-0.17
804.144	0.16
804.317	0.12
804.489	0.39
804.662	0.37
804.835	0.11
805.007	-0.29
805.18	0.2
805.353	0.24
805.525	-0.1
805.698	0.04
805.87	0.49
806.043	0.41
806.215	-0.33
806.388	-0.29
806.56	-0.14
806.733	0.49
806.905	0.05
807.078	-0.31
807.25	-0.12
807.423	0.54
807.595	-0.02
807.768	0.39
807.94	0.35
808.112	0.2
808.285	0.12
808.457	0.09
808.629	0.07
808.802	0.36
808.974	-0.12
809.146	-0.17
809.318	-0.39
809.491	0.02
809.663	-0.23
809.835	0.12
810.007	0.17
810.18	0.11
810.352	-0.3
810.524	-0.16
810.696	-0.04
810.868	0.65
811.04	0.03
811.212	0.06
811.384	0.2
811.556	-0.07
811.728	0.15
811.901	0.56
812.073	0.04
812.245	0.61
812.417	0.21
812.589	-0.4
812.76	0.03
812.932	0.49
813.104	0.24
813.276	-0.04
813.448	0.43
813.62	0.21
813.792	0.16
813.964	0.31
814.136	-0.01
814.307	0.13
814.479	-0.26
814.651	-0.09
814.823	0.97
814.995	-0.15
815.166	0.16
815.338	0.14
815.51	-0.66
815.681	0.81
815.853	-0.04
816.025	-0.51
816.196	0.55
816.368	0.01
816.54	-0.49
816.711	-0.6
816.883	0.6
817.054	0.86
817.226	-0.28
817.398	0.02
817.569	-0.25
817.741	0.21
817.912	0.12
818.084	0.28
818.255	0.03
818.426	-0.09
818.598	-0.17
818.769	-0.21
818.941	0.11
819.112	0.75
819.283	0.12
819.455	-0.09
819.626	0.05
819.798	0.03
819.969	0.23
820.14	-0.3
820.311	-0.1
820.483	0.11
820.654	0.39
820.825	0.18
820.996	-0.28
821.168	-0.03
821.339	-0.16
821.51	-0.55
821.681	0.95
821.852	0.09
822.023	-0.61
822.195	-0.37
822.366	0.48
822.537	-0.06
822.708	-0.06
822.879	-0.33
823.05	0.42
823.221	-0.28
823.392	0.45
823.563	-0.1
823.734	0.21
823.905	-0.39
824.076	0
824.247	-0.72
824.418	-0.09
824.589	0.37
824.759	0.2
824.93	0.41
825.101	-0.32
825.272	0.42
825.443	0.68
825.614	0.67
825.784	0.08
825.955	0.82
826.126	0.48
826.297	0.55
826.467	0.86
826.638	1.06
826.809	-0.72
826.98	0.4
827.15	0.75
827.321	0.23
827.492	1.11
827.662	0.04
827.833	1.2
828.003	0.36
828.174	-0.16
828.345	-0.71
828.515	1.24
828.686	0.55
828.856	-0.06
829.027	0.08
829.197	0.1
829.368	0.14
829.538	-0.03
829.709	0.09
829.879	0.13
830.049	0.43
830.22	-0.21
830.39	0.16
830.56	0.13
830.731	-0.1
830.901	-0.06
831.072	0.08
831.242	0.53
831.412	0.11
831.582	0.52
831.753	-0.03
831.923	0.07
832.093	0.19
832.263	0.13
832.434	-0.17
832.604	0.19
832.774	0.77
832.944	0.03
833.114	-0.07
833.284	-0.26
833.454	-0.13
833.624	0.01
833.795	0.01
833.965	0.64
834.135	0.48
834.305	-0.76
834.475	-0.64
834.645	-0.23
834.815	-0.69
834.985	-0.37
835.155	-0.12
835.325	0.54
835.494	-0.1
835.664	0.23
835.834	-0.15
836.004	0.43
836.174	0.58
836.344	0.01
836.514	-0.77
836.684	-0.05
836.853	0.47
837.023	0.36
837.193	-0.92
837.363	0.16
837.532	0.34
837.702	0.43
837.872	0.21
838.041	1.09
838.211	1.32
838.381	-0.47
838.55	-0.35
838.72	2.4
838.89	0.87
839.059	-0.2
839.229	-0.06
839.398	1.36
839.568	-0.12
839.738	-0.15
839.907	1.28
840.077	0.35
840.246	0.3
840.416	-0.66
840.585	-0.46
840.755	1.31
840.924	0.83
841.093	-0.13
841.263	0.06
841.432	0.2
841.602	-0.69
841.771	-0.6
841.94	0.78
842.11	1.1
842.279	1.21
842.448	-0.48
842.617	-0.32
842.787	0.71
842.956	-0.81
843.125	0.11
843.294	0.15
843.464	0.78
843.633	0.43
843.802	-1.17
843.971	-0.19
844.14	0.73
844.309	0.9
844.479	-0.34
844.648	0.2
844.817	-0.53
844.986	0.69
845.155	0.57
845.324	-0.38
845.493	0.74
845.662	-0.96
845.831	0.29
846	0.26
846.169	0.8
846.338	1.29
846.507	0.56
846.676	0.45
846.844	-0.24
847.013	1.5
847.182	0.59
847.351	0.07
847.52	-0.16
847.689	0.18
847.858	0.14
848.026	-0.36
848.195	0.14
848.364	0.33
848.533	-0.15
848.701	-0.94
848.87	0.49
849.039	1.34
849.207	1.07
849.376	1.29
849.545	1.5
849.713	-0.2
849.882	-0.16
850.051	-0.06
850.219	1.04
850.388	1.05
850.556	-0.68
850.725	-0.79
850.893	-0.14
851.062	0.17
851.23	0.66
851.399	-0.94
851.567	0.59
851.736	-0.03
851.904	-0.77
852.073	0.26
852.241	0.54
852.41	0.94
852.578	0.07
852.746	-0.41
852.915	1.03
853.083	0.56
853.251	-1.27
853.42	-0.29
853.588	1.26
853.756	1.37
853.924	-0.38
854.093	-0.9
854.261	0.1
854.429	-1.65
854.597	-0.06
854.765	-0.5
854.934	1.01
855.102	1.05
855.27	0.81
855.438	1.68
855.606	2.03
855.774	1.01
855.942	-1.7
856.11	-1
856.278	0.78
856.446	1.06
856.614	1.24
856.782	-1.06
856.95	1.39
857.118	1.27
857.286	0.42
857.454	-0.78
857.622	1.24
857.79	0.8
857.958	-1.26
858.126	0.46
858.294	-2.27
858.462	0.46
858.629	-0.61
858.797	-0.21
858.965	0.36
859.133	-0
859.301	-0.2
859.468	0.19
859.636	-0.3
859.804	1.69
859.971	1.3
860.139	-0.06
860.307	1.15
860.474	0.35
860.642	-0.84
860.81	-0.8
860.977	-1.09
861.145	1.7
861.313	1.1
861.48	-0.22
861.648	1.65
861.815	0.56
861.983	0.12
862.15	1.23
862.318	0.48
862.485	1.54
862.653	-0.41
862.82	-0.78
862.988	2.16
863.155	0.92
863.322	-0.39
863.49	-1.72
863.657	-0.63
863.824	1.37
863.992	0.33
864.159	0.7
864.326	3.16
864.494	0.92
864.661	3.08
864.828	-0.27
864.996	1.4
865.163	3.06
865.33	-0.7
865.497	-1.69
865.664	0.13
865.832	-1
865.999	0.51
866.166	-0.58
866.333	-0.18
866.5	-1.07
866.667	0.39
866.834	-0.06
867.001	2.26
867.168	-1.64
867.335	0.69
867.502	-0.97
867.669	1.61
867.836	2.56
868.003	-0.58
868.17	1.17
868.337	0.92
868.504	1.05
868.671	-1.17
868.838	1.04
869.005	0.43
869.172	1.43
869.339	-0.91
869.505	0.25
869.672	1.59
869.839	2.73
870.006	0.7
870.173	-1.52
870.339	0.42
870.506	1.73
870.673	-0.62
870.84	2.74
871.006	-0.88
871.173	1.73
871.34	1.77
871.506	-0.49
871.673	1.65
871.839	-1.21
872.006	-1.04
872.173	0.18
872.339	0.85
872.506	1.78
872.672	1.23
872.839	-1.22
873.005	0.8
873.172	4.06
873.338	1.05
873.505	2.07
873.671	1.06
873.838	1.5
874.004	-1.93
874.171	-0.53
874.337	0.56
874.503	1.94
874.67	1.08
874.836	0.82
875.002	1.33
875.169	0.67
875.335	0.22
875.501	0.78
875.668	2.27
875.834	1.43
876	0.71
876.166	2.62
876.332	0.91
876.499	4.38
876.665	-0
876.831	1.31
876.997	2.63
877.163	2.05
877.329	-0.97
877.495	1.28
877.662	1.99
877.828	1.2
877.994	1.69
878.16	-0.82
878.326	0.92
878.492	0.31
878.658	0.88
878.824	1.85
878.99	1.95
879.156	-0.94
879.322	3.28
879.487	0.07
879.653	0.65
879.819	1.78
879.985	-0.04
880.151	0.39
880.317	1.14
880.483	0.95
880.648	0.95
880.814	-1.57
880.98	1.18
881.146	-1.69
881.312	0.69
881.477	0.35
881.643	0.03
881.809	4.68
881.974	3.64
882.14	-1.68
882.306	1.12
882.471	1.8
882.637	0.75
882.803	2.58
882.968	2.54
883.134	3.6
883.299	1.25
883.465	0.26
883.63	1.97
883.796	1
883.961	2.16
884.127	0.31
884.292	-2.38
884.458	-0.21
884.623	-0.21
