Data from Apollo_Calib_20240827__AbsoluteIrradiance__200__02-29-03-010.txt Node

Date: Wed Aug 28 02:29:03 BST 2024
User: biology
Spectrometer: FLMT08252
Trigger mode: 0
Integration Time (sec): 5.000000E-1
Scans to average: 5
Electric dark correction enabled: true
Nonlinearity correction enabled: false
Boxcar width: 0
XAxis mode: Wavelengths
Number of Pixels in Spectrum: 3648
>>>>>Begin Spectral Data<<<<<
179.588	-0
179.809	-0
180.03	-0
180.251	-0
180.473	-0
180.694	0
180.915	0
181.136	-0
181.357	-0
181.578	0
181.799	0
182.02	-0
182.241	-0
182.462	-0
182.683	0
182.904	-0
183.125	0
183.346	0
183.567	0
183.788	-0
184.009	-0
184.23	0
184.451	0
184.672	-0
184.892	-0
185.113	0
185.334	0
185.555	0
185.776	-0
185.996	0
186.217	0
186.438	0
186.659	-0
186.879	0
187.1	0
187.321	-0
187.541	-0
187.762	0
187.983	0
188.203	0
188.424	0
188.644	0
188.865	0
189.086	0
189.306	-0
189.527	0
189.747	0
189.968	-0
190.188	0
190.409	0
190.629	0
190.849	-0
191.07	-0
191.29	0
191.511	0
191.731	-0
191.951	-0
192.172	0
192.392	-0
192.612	0
192.833	0
193.053	0
193.273	0
193.493	0
193.714	0
193.934	0
194.154	0
194.374	0
194.594	0
194.815	-0
195.035	0
195.255	-0
195.475	-0
195.695	0
195.915	0
196.135	0
196.355	0
196.575	0
196.795	0
197.015	-0
197.235	0
197.455	-0
197.675	0
197.895	-0
198.115	-0
198.335	0
198.555	0
198.775	0
198.995	0
199.214	0
199.434	0
199.654	-0
199.874	-0
200.094	1.6
200.313	0.03
200.533	-0.37
200.753	-0.28
200.973	1.2
201.192	0.66
201.412	-0.52
201.632	-0.11
201.851	0.84
202.071	-0.24
202.291	-0.21
202.51	0.07
202.73	0.87
202.95	0.53
203.169	-0.55
203.389	0.1
203.608	0.15
203.828	-0.4
204.047	0.09
204.267	0.48
204.486	0.33
204.706	0.55
204.925	0.13
205.145	0.28
205.364	0.96
205.583	0.97
205.803	-0.18
206.022	0.17
206.242	0.02
206.461	0.46
206.68	-0.06
206.9	0.26
207.119	0.71
207.338	0.87
207.557	-0.06
207.777	-0.22
207.996	0.03
208.215	0.69
208.434	-0.24
208.654	-0.11
208.873	0.09
209.092	0.61
209.311	0.15
209.53	0.05
209.749	0.16
209.968	-0.07
210.187	-0.03
210.407	-0.37
210.626	0.03
210.845	0.18
211.064	0.06
211.283	-0.37
211.502	0.3
211.721	0.13
211.94	-0.14
212.159	0.43
212.377	0.42
212.596	0.5
212.815	0.13
213.034	0.14
213.253	0.34
213.472	0.23
213.691	-0.03
213.91	-0.26
214.128	-0.22
214.347	0.47
214.566	-0.16
214.785	-0.26
215.003	0.33
215.222	0.02
215.441	-0.01
215.66	-0.28
215.878	0.04
216.097	0.25
216.316	-0.18
216.534	0.01
216.753	0.22
216.972	0.22
217.19	0.05
217.409	-0.04
217.627	0.12
217.846	0.14
218.064	0.09
218.283	-0.08
218.501	0.46
218.72	0.37
218.938	-0.2
219.157	-0.02
219.375	0.31
219.594	0.26
219.812	-0.24
220.031	-0.1
220.249	0.36
220.467	0.35
220.686	-0.06
220.904	-0.2
221.122	0.04
221.341	0.47
221.559	-0.01
221.777	-0.23
221.995	0.03
222.214	0.21
222.432	-0.1
222.65	0.04
222.868	0.09
223.086	0.25
223.305	0.13
223.523	0.06
223.741	0.48
223.959	-0.02
224.177	-0.14
224.395	-0.05
224.613	0.25
224.831	0.22
225.049	-0.14
225.267	0
225.485	0.13
225.703	0.12
225.921	0.04
226.139	-0.06
226.357	0.13
226.575	0.18
226.793	0.06
227.011	0.74
227.229	0.13
227.447	0.13
227.665	-0.08
227.883	-0.15
228.1	0.1
228.318	0.14
228.536	-0.34
228.754	-0.13
228.972	0.13
229.189	0.21
229.407	-0.05
229.625	0
229.843	0.29
230.06	0.25
230.278	0.02
230.496	0.15
230.713	0.06
230.931	0.25
231.149	0.01
231.366	-0.17
231.584	-0.08
231.801	0.49
232.019	-0.02
232.236	-0.12
232.454	-0.01
232.671	0.26
232.889	0.01
233.106	-0.06
233.324	0.07
233.541	0.02
233.759	0.1
233.976	-0.16
234.194	0.12
234.411	0.03
234.628	-0.09
234.846	0.03
235.063	-0.01
235.28	0.11
235.498	-0.03
235.715	-0.1
235.932	0.23
236.149	0.1
236.367	-0.09
236.584	0.17
236.801	-0.02
237.018	0.11
237.236	0.06
237.453	-0.07
237.67	0.17
237.887	0.1
238.104	0.1
238.321	-0.11
238.538	-0.02
238.755	0.22
238.973	-0.18
239.19	0.05
239.407	0.15
239.624	0.08
239.841	0.05
240.058	-0.04
240.275	0.2
240.492	0.08
240.709	0.04
240.925	-0.07
241.142	0.05
241.359	0.04
241.576	-0.14
241.793	-0.07
242.01	0.12
242.227	0.23
242.444	0.08
242.66	0.16
242.877	0.19
243.094	0.01
243.311	0.07
243.527	-0.05
243.744	0.15
243.961	0.05
244.178	-0.05
244.394	0.02
244.611	0.19
244.828	0.19
245.044	-0.08
245.261	-0.04
245.477	0.04
245.694	0.18
245.911	-0.05
246.127	0.04
246.344	0.23
246.56	0.08
246.777	-0.03
246.993	0.05
247.21	0.1
247.426	0.16
247.643	-0.14
247.859	-0.1
248.076	-0.04
248.292	0.17
248.508	0.03
248.725	0.06
248.941	0.09
249.157	0.18
249.374	-0.02
249.59	-0.07
249.806	-0
250.023	0.22
250.239	-0.03
250.455	-0.07
250.671	0.02
250.888	0.1
251.104	0.08
251.32	-0.06
251.536	0.02
251.752	0.05
251.969	0.08
252.185	0.12
252.401	0.26
252.617	0.01
252.833	-0.05
253.049	0.03
253.265	-0
253.481	0.09
253.697	-0.01
253.913	-0.03
254.129	0
254.345	0.08
254.561	0.04
254.777	-0.01
254.993	0.14
255.209	0.07
255.425	0.03
255.641	-0.03
255.857	0.11
256.073	0.05
256.288	-0.03
256.504	0
256.72	0.04
256.936	0.18
257.152	-0.02
257.367	0.02
257.583	0.1
257.799	0.12
258.015	-0.04
258.23	0.02
258.446	0.13
258.662	0
258.877	-0.13
259.093	0.05
259.309	0.1
259.524	0.04
259.74	0.05
259.955	-0.08
260.171	0.06
260.387	-0.02
260.602	0.09
260.818	0.04
261.033	-0.03
261.249	0
261.464	-0.07
261.68	-0
261.895	0.15
262.11	0.12
262.326	0
262.541	-0.11
262.757	0.09
262.972	0.11
263.187	0.07
263.403	0.12
263.618	0.06
263.833	-0.09
264.049	0.04
264.264	-0.02
264.479	0.07
264.694	0.12
264.91	0.02
265.125	-0.02
265.34	0.12
265.555	0.15
265.77	0.09
265.986	0.03
266.201	0.03
266.416	0.17
266.631	-0.01
266.846	0.03
267.061	0.07
267.276	0.15
267.491	-0.1
267.706	0.09
267.921	0.09
268.136	0.03
268.351	0.11
268.566	-0
268.781	0.1
268.996	0.18
269.211	0.04
269.426	-0.06
269.641	0.01
269.856	0.13
270.071	0
270.285	-0.08
270.5	0.07
270.715	0.14
270.93	-0.01
271.145	0.04
271.359	0.06
271.574	-0.01
271.789	-0.04
272.004	0.01
272.218	0.02
272.433	0.13
272.648	-0.03
272.862	0.09
273.077	0.07
273.292	0.05
273.506	-0.04
273.721	0.01
273.936	0.07
274.15	0.1
274.365	0.05
274.579	0.14
274.794	0.13
275.008	0.09
275.223	-0.03
275.437	0.08
275.652	0.15
275.866	0.12
276.081	0.04
276.295	0.11
276.509	0.05
276.724	0.03
276.938	0.05
277.153	0.06
277.367	0.1
277.581	-0.01
277.796	0.05
278.01	-0.03
278.224	0.16
278.438	0.18
278.653	-0.05
278.867	0.01
279.081	-0.13
279.295	0.02
279.51	0.03
279.724	-0.06
279.938	0.1
280.152	0.09
280.366	-0.04
280.58	0.07
280.794	0.11
281.008	0.13
281.222	0.1
281.437	0.16
281.651	0.09
281.865	0.12
282.079	0.03
282.293	-0.06
282.507	0.01
282.721	0
282.935	0.03
283.148	0.01
283.362	0.06
283.576	0
283.79	0.03
284.004	-0.01
284.218	0.14
284.432	-0.03
284.646	0.06
284.859	0.07
285.073	0.02
285.287	0.02
285.501	0.07
285.714	0.04
285.928	0.02
286.142	0.07
286.356	-0.01
286.569	-0
286.783	0.1
286.997	0.07
287.21	0.01
287.424	0.05
287.637	0.03
287.851	0.02
288.065	0.05
288.278	-0.02
288.492	0.05
288.705	0.02
288.919	0.07
289.132	-0.04
289.346	0.05
289.559	-0.07
289.773	0.01
289.986	0.06
290.2	0.07
290.413	0.08
290.626	-0.03
290.84	0.01
291.053	-0.02
291.267	0.11
291.48	0.01
291.693	0.05
291.906	0.04
292.12	0.03
292.333	-0.01
292.546	0.03
292.76	0.17
292.973	0.1
293.186	0.1
293.399	-0.01
293.612	0.09
293.826	0.05
294.039	0.03
294.252	-0
294.465	0.11
294.678	0.08
294.891	0.04
295.104	-0.04
295.317	0.05
295.53	0.03
295.743	-0.03
295.956	0.03
296.169	0.16
296.382	0.09
296.595	0.06
296.808	-0
297.021	0.13
297.234	0.08
297.447	0.05
297.66	0.09
297.873	0.11
298.086	0.12
298.299	0.01
298.511	-0.01
298.724	-0.01
298.937	-0
299.15	-0.03
299.363	0.06
299.575	0.1
299.788	0.08
300.001	0.01
300.213	-0.03
300.426	0.02
300.639	-0
300.852	0.01
301.064	0.08
301.277	0.12
301.489	0.12
301.702	0.1
301.915	0.07
302.127	0.06
302.34	0.03
302.552	0.09
302.765	-0.02
302.977	0.09
303.19	-0
303.402	0.01
303.615	0.02
303.827	0.04
304.04	0.07
304.252	0.04
304.464	0.04
304.677	0.19
304.889	0.07
305.102	0.02
305.314	0.06
305.526	0.09
305.739	0.12
305.951	-0.01
306.163	0.01
306.375	0.12
306.588	0.01
306.8	0.03
307.012	-0.04
307.224	0.08
307.436	0.1
307.649	-0.02
307.861	0.06
308.073	0.05
308.285	0.01
308.497	-0.02
308.709	0.01
308.921	0.02
309.133	0.13
309.346	0.04
309.558	0.04
309.77	0.07
309.982	0.16
310.194	0.07
310.406	-0.03
310.617	0.1
310.829	0.07
311.041	0.08
311.253	0.02
311.465	0.03
311.677	0.02
311.889	0.04
312.101	0.02
312.313	0.12
312.524	0.15
312.736	-0.02
312.948	-0.01
313.16	0.14
313.372	0.02
313.583	0.06
313.795	0.05
314.007	0.03
314.218	0.1
314.43	0.03
314.642	0.03
314.853	-0.02
315.065	0.11
315.277	0.04
315.488	0.06
315.7	0.1
315.912	0.09
316.123	0.04
316.335	0.01
316.546	0.17
316.758	0.06
316.969	0.06
317.181	0.03
317.392	0.03
317.604	0.11
317.815	-0.02
318.026	0.02
318.238	0.06
318.449	0.11
318.661	-0.02
318.872	-0.02
319.083	0.01
319.295	0.08
319.506	0.06
319.717	0.05
319.929	0.08
320.14	0.08
320.351	0.04
320.562	-0.01
320.774	0.04
320.985	0.01
321.196	-0
321.407	-0.03
321.618	0.04
321.829	0.07
322.041	0.09
322.252	0.05
322.463	0.06
322.674	0.12
322.885	0.01
323.096	0.05
323.307	0.05
323.518	0.1
323.729	0.02
323.94	0.04
324.151	-0
324.362	0.06
324.573	0.07
324.784	0.03
324.995	0.1
325.206	0.07
325.417	0.07
325.628	0.05
325.838	0.09
326.049	0.02
326.26	0.14
326.471	0.04
326.682	0.1
326.892	0.06
327.103	-0.01
327.314	0
327.525	0.09
327.735	0.07
327.946	0.03
328.157	0
328.368	0.11
328.578	0.03
328.789	0.08
328.999	0.08
329.21	0.01
329.421	0.09
329.631	0.02
329.842	0.03
330.052	0.06
330.263	0.09
330.473	0.08
330.684	0.01
330.894	0.07
331.105	0.06
331.315	0.03
331.526	-0.04
331.736	0.16
331.947	0.06
332.157	0.07
332.367	0.01
332.578	0.1
332.788	0.17
332.999	0.09
333.209	0.04
333.419	0.01
333.629	0.06
333.84	0.09
334.05	0.01
334.26	0.13
334.47	0.03
334.681	0.08
334.891	0.01
335.101	0.12
335.311	0.16
335.521	0.06
335.732	0.01
335.942	0.13
336.152	0.07
336.362	0.06
336.572	0.06
336.782	0.06
336.992	0.03
337.202	0.03
337.412	0.01
337.622	0.1
337.832	0.05
338.042	0.03
338.252	0.01
338.462	0.08
338.672	0.07
338.882	0.05
339.092	0.07
339.302	0.15
339.511	0.07
339.721	0
339.931	0.04
340.141	0.11
340.351	0.1
340.561	0.05
340.77	0.07
340.98	0.05
341.19	0.05
341.4	0.04
341.609	0.02
341.819	0.06
342.029	-0
342.238	0.02
342.448	0.05
342.658	0.05
342.867	0.02
343.077	0.07
343.286	0.06
343.496	0.04
343.706	0.12
343.915	-0.02
344.125	0.06
344.334	0.06
344.544	0.03
344.753	0.04
344.963	0.02
345.172	0
345.381	0.04
345.591	0.02
345.8	0.09
346.01	0.14
346.219	0.11
346.428	-0.06
346.638	0.06
346.847	0.05
347.056	0.11
347.266	0.02
347.475	0.08
347.684	0.09
347.893	0.06
348.103	0.08
348.312	0.04
348.521	0.04
348.73	0.07
348.94	0.07
349.149	-0
349.358	0.01
349.567	0.03
349.776	0.03
349.985	0.01
350.194	0.12
350.403	0.1
350.612	-0.04
350.821	0.04
351.03	0.07
351.239	-0.02
351.448	0.07
351.657	0.03
351.866	0.14
352.075	0.1
352.284	0.04
352.493	0.02
352.702	0.11
352.911	0.08
353.12	0.08
353.329	0.04
353.538	0.08
353.746	0.06
353.955	0.03
354.164	0.04
354.373	0.08
354.582	0.09
354.79	0.06
354.999	0.09
355.208	0.04
355.416	0.14
355.625	0.02
355.834	0.03
356.042	0.08
356.251	0.03
356.46	0.02
356.668	0.08
356.877	0.15
357.085	0.11
357.294	-0.05
357.503	0.08
357.711	0.06
357.92	0.19
358.128	0.11
358.337	0.07
358.545	0.06
358.754	0.08
358.962	0.09
359.17	0.06
359.379	0.07
359.587	0.09
359.796	0.05
360.004	0.13
360.212	0.07
360.421	0.15
360.629	0.02
360.837	0.08
361.046	0.12
361.254	0.18
361.462	0.01
361.67	0.04
361.879	0.09
362.087	0.14
362.295	0.09
362.503	0.06
362.711	0.05
362.92	0.03
363.128	0.03
363.336	0.02
363.544	0
363.752	0.07
363.96	0.04
364.168	0.04
364.376	0.04
364.584	0.05
364.792	0.11
365	0.1
365.208	0.09
365.416	0.09
365.624	0.12
365.832	0.07
366.04	0.13
366.248	0.06
366.456	0.11
366.664	0.08
366.872	0.06
367.079	0.08
367.287	0.07
367.495	0.09
367.703	0.09
367.911	0.06
368.118	0.06
368.326	0.06
368.534	0.05
368.742	0.15
368.949	0.03
369.157	0.04
369.365	0.11
369.572	0.07
369.78	0.03
369.988	0.11
370.195	0.09
370.403	0.1
370.61	0.08
370.818	0.09
371.026	0.15
371.233	0.03
371.441	0.07
371.648	0.09
371.856	0.1
372.063	0.08
372.271	0.08
372.478	0.06
372.685	0.07
372.893	0.15
373.1	0.1
373.308	0.1
373.515	0.17
373.722	0.1
373.93	0.11
374.137	0.08
374.344	0.17
374.552	0.14
374.759	0.12
374.966	0.1
375.173	0.11
375.381	0.14
375.588	0.09
375.795	0.04
376.002	0.07
376.209	0.06
376.417	0.09
376.624	0.13
376.831	0.1
377.038	0.1
377.245	-0
377.452	0.09
377.659	0.08
377.866	0.06
378.073	0.09
378.28	0.14
378.487	0.16
378.694	0.15
378.901	0.11
379.108	0.14
379.315	0.14
379.522	0.19
379.729	0.12
379.936	0.13
380.143	0.11
380.35	0.13
380.557	0.12
380.763	0.11
380.97	0.11
381.177	0.13
381.384	0.2
381.591	0.1
381.797	0.18
382.004	0.19
382.211	0.2
382.418	0.15
382.624	0.17
382.831	0.23
383.038	0.14
383.244	0.2
383.451	0.16
383.658	0.2
383.864	0.15
384.071	0.19
384.277	0.3
384.484	0.16
384.69	0.28
384.897	0.19
385.103	0.24
385.31	0.26
385.516	0.2
385.723	0.21
385.929	0.27
386.136	0.26
386.342	0.35
386.549	0.27
386.755	0.4
386.961	0.37
387.168	0.34
387.374	0.36
387.58	0.4
387.787	0.39
387.993	0.44
388.199	0.42
388.406	0.42
388.612	0.45
388.818	0.47
389.024	0.47
389.231	0.52
389.437	0.64
389.643	0.62
389.849	0.63
390.055	0.66
390.261	0.68
390.467	0.75
390.674	0.69
390.88	0.79
391.086	0.82
391.292	0.85
391.498	0.93
391.704	1.01
391.91	0.99
392.116	0.98
392.322	0.98
392.528	1.2
392.734	1.21
392.94	1.24
393.146	1.33
393.352	1.36
393.557	1.39
393.763	1.48
393.969	1.6
394.175	1.63
394.381	1.71
394.587	1.78
394.792	1.85
394.998	2.12
395.204	2.15
395.41	2.16
395.615	2.31
395.821	2.44
396.027	2.58
396.233	2.75
396.438	2.88
396.644	3.2
396.85	3.19
397.055	3.43
397.261	3.56
397.466	3.66
397.672	3.79
397.878	4.11
398.083	4.14
398.289	4.23
398.494	4.42
398.7	4.65
398.905	4.7
399.111	4.99
399.316	5.07
399.522	5.33
399.727	5.5
399.932	5.75
400.138	5.85
400.343	6.3
400.549	6.3
400.754	6.76
400.959	7.03
401.165	7.47
401.37	7.56
401.575	8.24
401.78	8.27
401.986	8.58
402.191	8.93
402.396	9.37
402.601	9.72
402.807	10.09
403.012	10.23
403.217	11.08
403.422	11.05
403.627	11.47
403.832	12.05
404.037	12.3
404.243	12.47
404.448	12.92
404.653	13.38
404.858	13.41
405.063	13.32
405.268	14.05
405.473	14.17
405.678	14.4
405.883	15.06
406.088	15.16
406.293	15.07
406.498	15.6
406.703	15.45
406.907	15.9
407.112	16.36
407.317	16.78
407.522	17.13
407.727	17.33
407.932	17.45
408.136	17.73
408.341	17.24
408.546	17.5
408.751	17.47
408.956	17.32
409.16	17.8
409.365	17.54
409.57	16.94
409.774	17.08
409.979	17.01
410.184	16.75
410.388	16.5
410.593	16.68
410.798	16.54
411.002	16.51
411.207	16.02
411.411	16.01
411.616	15.46
411.82	15.49
412.025	15.08
412.229	14.74
412.434	14.36
412.638	13.99
412.843	13.74
413.047	13.25
413.252	12.84
413.456	12.98
413.66	12.44
413.865	12.16
414.069	11.76
414.273	11.57
414.478	11.16
414.682	10.9
414.886	10.67
415.091	10.16
415.295	10.05
415.499	10.02
415.703	9.38
415.908	9.35
416.112	8.95
416.316	8.89
416.52	8.63
416.724	8.29
416.929	8.11
417.133	8.19
417.337	7.63
417.541	7.66
417.745	7.42
417.949	7.3
418.153	7.29
418.357	7.01
418.561	7.09
418.765	6.78
418.969	6.6
419.173	6.62
419.377	6.37
419.581	6.41
419.785	6.15
419.989	5.98
420.193	6.02
420.397	5.8
420.601	5.8
420.804	5.65
421.008	5.29
421.212	5.4
421.416	4.99
421.62	4.92
421.823	4.7
422.027	4.67
422.231	4.43
422.435	4.31
422.638	4.18
422.842	4.1
423.046	3.92
423.249	3.89
423.453	3.72
423.657	3.73
423.86	3.57
424.064	3.49
424.268	3.43
424.471	3.21
424.675	3.33
424.878	3.15
425.082	3.07
425.285	3.12
425.489	2.89
425.692	2.8
425.896	2.79
426.099	2.73
426.303	2.6
426.506	2.44
426.71	2.54
426.913	2.56
427.116	2.43
427.32	2.34
427.523	2.31
427.726	2.37
427.93	2.25
428.133	2.21
428.336	2.15
428.54	2.11
428.743	2.09
428.946	2.14
429.149	1.99
429.353	1.99
429.556	1.92
429.759	1.77
429.962	1.79
430.165	1.77
430.368	1.58
430.571	1.63
430.775	1.61
430.978	1.49
431.181	1.5
431.384	1.48
431.587	1.41
431.79	1.4
431.993	1.26
432.196	1.36
432.399	1.32
432.602	1.42
432.805	1.3
433.008	1.4
433.211	1.27
433.414	1.32
433.616	1.31
433.819	1.25
434.022	1.1
434.225	1.25
434.428	1.26
434.631	1.35
434.833	1.13
435.036	1.17
435.239	1.2
435.442	1.11
435.645	1.07
435.847	1.06
436.05	1.18
436.253	1.05
436.455	0.98
436.658	1.07
436.861	1.1
437.063	0.96
437.266	0.92
437.468	0.92
437.671	1.12
437.874	0.95
438.076	0.76
438.279	0.78
438.481	0.88
438.684	0.86
438.886	0.89
439.089	0.78
439.291	0.85
439.494	0.8
439.696	0.75
439.899	0.76
440.101	0.82
440.303	0.67
440.506	0.82
440.708	0.76
440.91	0.77
441.113	0.73
441.315	0.78
441.517	0.61
441.72	0.79
441.922	0.61
442.124	0.57
442.326	0.64
442.529	0.7
442.731	0.58
442.933	0.7
443.135	0.6
443.337	0.56
443.539	0.56
443.742	0.58
443.944	0.56
444.146	0.51
444.348	0.45
444.55	0.47
444.752	0.52
444.954	0.42
445.156	0.51
445.358	0.46
445.56	0.5
445.762	0.49
445.964	0.5
446.166	0.44
446.368	0.44
446.57	0.52
446.772	0.41
446.974	0.43
447.175	0.41
447.377	0.43
447.579	0.39
447.781	0.3
447.983	0.43
448.184	0.33
448.386	0.4
448.588	0.25
448.79	0.4
448.991	0.35
449.193	0.36
449.395	0.34
449.597	0.39
449.798	0.37
450	0.34
450.202	0.34
450.403	0.32
450.605	0.35
450.806	0.36
451.008	0.23
451.21	0.34
451.411	0.34
451.613	0.35
451.814	0.32
452.016	0.4
452.217	0.37
452.419	0.34
452.62	0.29
452.821	0.32
453.023	0.33
453.224	0.36
453.426	0.3
453.627	0.31
453.828	0.31
454.03	0.28
454.231	0.35
454.432	0.22
454.634	0.39
454.835	0.27
455.036	0.22
455.238	0.33
455.439	0.4
455.64	0.26
455.841	0.23
456.042	0.35
456.244	0.31
456.445	0.2
456.646	0.22
456.847	0.24
457.048	0.35
457.249	0.35
457.45	0.49
457.651	0.2
457.852	0.31
458.054	0.27
458.255	0.26
458.456	0.33
458.657	0.27
458.858	0.25
459.058	0.3
459.259	0.29
459.46	0.27
459.661	0.23
459.862	0.41
460.063	0.21
460.264	0.34
460.465	0.21
460.666	0.37
460.866	0.22
461.067	0.27
461.268	0.24
461.469	0.26
461.67	0.23
461.87	0.23
462.071	0.22
462.272	0.18
462.473	0.23
462.673	0.27
462.874	0.19
463.075	0.21
463.275	0.2
463.476	0.28
463.676	0.28
463.877	0.29
464.078	0.22
464.278	0.35
464.479	0.27
464.679	0.27
464.88	0.22
465.08	0.36
465.281	0.24
465.481	0.22
465.682	0.21
465.882	0.29
466.083	0.24
466.283	0.24
466.483	0.24
466.684	0.18
466.884	0.16
467.085	0.24
467.285	0.27
467.485	0.18
467.686	0.23
467.886	0.21
468.086	0.22
468.286	0.21
468.487	0.27
468.687	0.19
468.887	0.21
469.087	0.28
469.287	0.2
469.488	0.17
469.688	0.25
469.888	0.25
470.088	0.25
470.288	0.27
470.488	0.26
470.688	0.18
470.888	0.17
471.088	0.18
471.288	0.23
471.488	0.23
471.688	0.29
471.888	0.16
472.088	0.24
472.288	0.24
472.488	0.16
472.688	0.17
472.888	0.22
473.088	0.2
473.288	0.18
473.488	0.15
473.688	0.26
473.887	0.14
474.087	0.13
474.287	0.19
474.487	0.15
474.687	0.21
474.886	0.15
475.086	0.13
475.286	0.14
475.486	0.14
475.685	0.17
475.885	0.13
476.085	0.18
476.284	0.21
476.484	0.19
476.684	0.18
476.883	0.2
477.083	0.15
477.282	0.15
477.482	0.19
477.681	0.23
477.881	0.15
478.08	0.11
478.28	0.1
478.479	0.18
478.679	0.2
478.878	0.13
479.078	0.09
479.277	0.14
479.477	0.14
479.676	0.18
479.875	0.14
480.075	0.07
480.274	0.12
480.473	0.18
480.673	0.06
480.872	0.17
481.071	0.13
481.271	0.13
481.47	0.11
481.669	0.1
481.868	0.09
482.067	0.12
482.267	0.07
482.466	0.1
482.665	0.09
482.864	0.09
483.063	0.07
483.262	0.15
483.461	0.15
483.661	0.16
483.86	0.11
484.059	0.15
484.258	0.13
484.457	0.11
484.656	0.08
484.855	0.16
485.054	0.07
485.253	0.05
485.452	0.06
485.651	0.1
485.849	0.1
486.048	0.07
486.247	0.06
486.446	0.13
486.645	0.05
486.844	0.08
487.043	0.09
487.241	0.14
487.44	0.07
487.639	0.11
487.838	0.1
488.037	0.14
488.235	0.17
488.434	0.08
488.633	0.07
488.831	0.1
489.03	0.14
489.229	0.1
489.427	0.09
489.626	0.14
489.825	0.13
490.023	0.1
490.222	0.08
490.42	0.12
490.619	0.14
490.817	0.09
491.016	0.06
491.214	0.12
491.413	0.09
491.611	0.08
491.81	0.09
492.008	0.11
492.207	0.1
492.405	0.1
492.604	0.02
492.802	0.08
493	0.11
493.199	0.06
493.397	0.08
493.595	0.09
493.794	0.08
493.992	0.13
494.19	0.07
494.388	0.09
494.587	0.08
494.785	0.1
494.983	0.02
495.181	0.1
495.379	0.08
495.578	0.09
495.776	0.1
495.974	0.07
496.172	0.06
496.37	0.04
496.568	0.04
496.766	0.06
496.964	0.14
497.162	0.07
497.36	0.05
497.558	0.12
497.756	0.1
497.954	0.06
498.152	0.06
498.35	0.08
498.548	0.07
498.746	0.07
498.944	0.04
499.142	0.06
499.34	0.04
499.538	0.09
499.736	0.05
499.933	0.12
500.131	0.08
500.329	0.09
500.527	0.1
500.725	0.11
500.922	0.12
501.12	0.09
501.318	0.08
501.516	0.05
501.713	0.09
501.911	0.07
502.109	0.05
502.306	0.08
502.504	0.07
502.701	0.05
502.899	0.05
503.097	0.13
503.294	0.09
503.492	0.06
503.689	0.08
503.887	0.1
504.084	0.12
504.282	0.06
504.479	0.02
504.677	0.07
504.874	0.04
505.072	0.07
505.269	0.09
505.466	0.07
505.664	0.09
505.861	0.04
506.059	0.04
506.256	0.11
506.453	0.05
506.651	0.12
506.848	0.08
507.045	0.07
507.242	0.07
507.44	0.05
507.637	0.05
507.834	0.06
508.031	0.09
508.229	0.05
508.426	0.03
508.623	0.08
508.82	0.04
509.017	0.05
509.214	0.05
509.411	0.06
509.608	0.04
509.805	0.05
510.003	0.05
510.2	0.07
510.397	0.09
510.594	0.05
510.791	0.02
510.988	0.05
511.184	0.06
511.381	0.06
511.578	0.05
511.775	0.08
511.972	0.05
512.169	0.05
512.366	0.06
512.563	0.05
512.76	0.03
512.956	0.07
513.153	0.04
513.35	0.05
513.547	0.05
513.744	0.03
513.94	0
514.137	0.07
514.334	0.07
514.53	0.04
514.727	0.07
514.924	0.11
515.12	-0
515.317	0.01
515.514	0.04
515.71	0.01
515.907	0.05
516.103	0.04
516.3	0.05
516.497	0.07
516.693	0.1
516.89	0.04
517.086	0.03
517.283	0.06
517.479	0.05
517.676	0.05
517.872	0.05
518.068	0.02
518.265	0.03
518.461	0.01
518.658	0.03
518.854	0.05
519.05	0.02
519.247	0.03
519.443	0.05
519.639	0.05
519.836	0.06
520.032	0.05
520.228	0.03
520.424	0.11
520.621	0.05
520.817	0.04
521.013	0.05
521.209	0.02
521.405	0.08
521.601	0.04
521.798	0.04
521.994	0.11
522.19	0.01
522.386	0.03
522.582	0.01
522.778	0.05
522.974	0.05
523.17	0.05
523.366	0.06
523.562	0.06
523.758	0.05
523.954	0.02
524.15	0.01
524.346	0.04
524.542	0.05
524.738	0.03
524.934	0.03
525.129	0.04
525.325	0.05
525.521	0.04
525.717	0.06
525.913	0.03
526.109	0.05
526.304	0.04
526.5	0.06
526.696	0.06
526.892	0.04
527.087	0.05
527.283	0
527.479	0.05
527.674	0.02
527.87	0.04
528.066	0.03
528.261	0.08
528.457	0.05
528.653	0.03
528.848	0.02
529.044	0.04
529.239	0.02
529.435	0.08
529.63	0.05
529.826	0.09
530.021	0.04
530.217	0.05
530.412	0.02
530.608	0.01
530.803	0.04
530.999	0.03
531.194	-0.02
531.389	0.05
531.585	-0.02
531.78	0.03
531.975	0.05
532.171	0.08
532.366	0.03
532.561	0.02
532.757	-0
532.952	0.02
533.147	0.04
533.342	0.05
533.538	0.03
533.733	0.06
533.928	0.01
534.123	0.01
534.318	-0
534.513	0.05
534.709	0.04
534.904	0.01
535.099	0.02
535.294	0.04
535.489	0.05
535.684	0.02
535.879	0
536.074	0.04
536.269	0.01
536.464	0.04
536.659	0.04
536.854	0.03
537.049	0.04
537.244	0.06
537.439	0.01
537.634	0.08
537.828	0.05
538.023	0.03
538.218	-0
538.413	0.03
538.608	-0
538.803	0.05
538.997	0.01
539.192	0.06
539.387	0.04
539.582	0.02
539.776	0.02
539.971	0.02
540.166	0.02
540.36	0
540.555	0.01
540.75	0.02
540.944	0.04
541.139	-0.01
541.334	0.02
541.528	0.05
541.723	0.06
541.917	0.01
542.112	-0.05
542.306	0
542.501	0.02
542.695	0.02
542.89	0.01
543.084	0.03
543.279	0.03
543.473	0.03
543.668	0.01
543.862	0.03
544.056	0.05
544.251	0.03
544.445	0.04
544.64	0.01
544.834	0.01
545.028	0.04
545.222	0.02
545.417	0.05
545.611	0.03
545.805	0.03
546	0.01
546.194	0.03
546.388	0.01
546.582	0.04
546.776	0.05
546.97	0.02
547.165	0.04
547.359	0.04
547.553	0.01
547.747	0.04
547.941	0.03
548.135	0.04
548.329	0.04
548.523	0.04
548.717	0.02
548.911	0
549.105	0.02
549.299	0.02
549.493	0.02
549.687	0.04
549.881	0.04
550.075	0.01
550.269	-0.01
550.463	0.05
550.657	-0.02
550.85	0.04
551.044	0
551.238	0.05
551.432	0.01
551.626	0
551.82	0.03
552.013	0.01
552.207	0.01
552.401	0.03
552.594	0.04
552.788	0.02
552.982	0.03
553.176	0.01
553.369	0.03
553.563	0.02
553.756	-0.02
553.95	-0.01
554.144	0.04
554.337	0.05
554.531	0.03
554.724	0.03
554.918	0.02
555.111	0.05
555.305	0.03
555.498	0.08
555.692	0.04
555.885	0.02
556.079	0.03
556.272	0.01
556.466	0.06
556.659	0.01
556.852	0.02
557.046	0.01
557.239	0.04
557.432	-0.01
557.626	0.01
557.819	0.02
558.012	0.04
558.206	0.04
558.399	0.02
558.592	0.03
558.785	0.03
558.979	0.04
559.172	0.01
559.365	0.04
559.558	0.04
559.751	0.04
559.944	0
560.138	-0.01
560.331	0
560.524	0
560.717	0.01
560.91	0.03
561.103	0.04
561.296	0.03
561.489	0.01
561.682	0.03
561.875	0.06
562.068	0.05
562.261	0.03
562.454	0.05
562.647	0.04
562.84	0.04
563.032	0.03
563.225	0.04
563.418	0.02
563.611	0
563.804	0.01
563.997	-0.03
564.19	-0.01
564.382	0.04
564.575	0
564.768	0.02
564.961	0.02
565.153	0
565.346	0.04
565.539	0.04
565.731	0.03
565.924	0.06
566.117	0.07
566.309	0.02
566.502	-0.01
566.695	0.01
566.887	0.04
567.08	-0
567.272	0.02
567.465	-0
567.657	0
567.85	0.03
568.042	0.05
568.235	0.03
568.427	0.01
568.62	0.04
568.812	0.04
569.005	0.03
569.197	-0.03
569.389	0.03
569.582	0.03
569.774	0.03
569.966	-0.01
570.159	-0.01
570.351	0.04
570.543	0
570.736	0
570.928	0.01
571.12	0.02
571.312	-0
571.505	-0.01
571.697	0.07
571.889	-0.02
572.081	0
572.273	0.01
572.465	0.05
572.658	0.02
572.85	0.04
573.042	-0
573.234	0.02
573.426	0.06
573.618	-0.02
573.81	0.01
574.002	0.06
574.194	0.09
574.386	-0.02
574.578	-0.05
574.77	-0
574.962	0
575.154	-0.02
575.346	-0.01
575.538	0.03
575.729	0.03
575.921	0.01
576.113	0.01
576.305	0.02
576.497	-0
576.689	0.01
576.88	-0.01
577.072	0.06
577.264	-0.01
577.456	0.01
577.647	-0.03
577.839	0.01
578.031	0.03
578.223	-0
578.414	-0.02
578.606	0.03
578.798	0.04
578.989	0.02
579.181	-0
579.372	0.02
579.564	0.01
579.755	0.02
579.947	0.03
580.139	0.05
580.33	-0.04
580.522	-0.02
580.713	-0.05
580.905	0.01
581.096	0.03
581.287	0
581.479	0.02
581.67	0.05
581.862	0.04
582.053	0.01
582.244	-0.06
582.436	-0
582.627	0.01
582.818	-0.03
583.01	-0
583.201	0.03
583.392	0.03
583.583	-0.01
583.775	0.01
583.966	-0.01
584.157	-0
584.348	-0.01
584.54	-0.01
584.731	0.03
584.922	0.01
585.113	-0.01
585.304	0.04
585.495	0.05
585.686	0.01
585.877	0.03
586.068	0.03
586.259	0.05
586.45	0.03
586.641	-0.02
586.832	-0.04
587.023	0.01
587.214	-0
587.405	0.01
587.596	-0.01
587.787	0.05
587.978	0.03
588.169	-0.01
588.36	-0.01
588.551	0
588.742	0.01
588.932	0
589.123	-0.01
589.314	0.03
589.505	0.04
589.696	0.02
589.886	0.01
590.077	-0.01
590.268	0.02
590.458	-0.03
590.649	-0.01
590.84	0.05
591.03	-0.01
591.221	-0.03
591.412	-0.03
591.602	0.07
591.793	0.05
591.984	-0.03
592.174	-0
592.365	0.08
592.555	-0.01
592.746	0.03
592.936	0.03
593.127	0.04
593.317	0.07
593.508	-0.02
593.698	0
593.889	0.02
594.079	0.01
594.269	-0.01
594.46	0
594.65	0.02
594.84	-0.02
595.031	-0.03
595.221	0
595.411	-0.02
595.602	0.03
595.792	0.02
595.982	-0
596.172	0.07
596.363	0.03
596.553	0.02
596.743	-0
596.933	0.02
597.123	0.03
597.314	-0.03
597.504	-0.02
597.694	0.05
597.884	0.03
598.074	0.01
598.264	-0.02
598.454	-0
598.644	0.03
598.834	0.03
599.024	-0.05
599.214	0.01
599.404	0.06
599.594	0
599.784	-0.02
599.974	0.05
600.164	0.05
600.354	-0.01
600.544	-0.05
600.734	0.01
600.924	0.05
601.114	-0
601.303	0
601.493	0.02
601.683	-0.03
601.873	0
602.063	-0.02
602.252	0.04
602.442	-0.05
602.632	-0.02
602.821	-0.02
603.011	0.02
603.201	-0.01
603.39	-0.01
603.58	-0
603.77	0.04
603.959	0.05
604.149	0.01
604.339	0.01
604.528	0.03
604.718	0.05
604.907	0.02
605.097	-0.01
605.286	-0.01
605.476	0.03
605.665	0.01
605.855	-0.01
606.044	0.06
606.234	0.02
606.423	0.02
606.612	-0.02
606.802	0.02
606.991	0.04
607.181	0.02
607.37	-0.02
607.559	0.04
607.749	-0.03
607.938	0.02
608.127	0.01
608.316	0.01
608.506	0.04
608.695	0.01
608.884	0.02
609.073	0.01
609.263	0.04
609.452	0.02
609.641	0.01
609.83	-0.05
610.019	0.02
610.208	-0.04
610.397	0.02
610.586	0.08
610.775	-0.02
610.965	0.01
611.154	0.01
611.343	0.01
611.532	0.01
611.721	-0.05
611.91	0.01
612.099	0.04
612.287	0.02
612.476	-0.02
612.665	0.01
612.854	-0.01
613.043	0.05
613.232	0.01
613.421	-0.03
613.61	0.02
613.798	-0.03
613.987	0.07
614.176	0
614.365	0.04
614.554	0.02
614.742	0.04
614.931	-0.01
615.12	0.06
615.309	-0.02
615.497	0.02
615.686	0.01
615.875	-0.01
616.063	0.02
616.252	0
616.44	-0.02
616.629	-0.01
616.818	0.06
617.006	0
617.195	-0
617.383	0.03
617.572	-0.01
617.76	-0.01
617.949	0.01
618.137	0.02
618.326	0.02
618.514	0.01
618.703	-0.01
618.891	0.05
619.079	-0.03
619.268	0.06
619.456	0.01
619.644	0.05
619.833	0.02
620.021	-0.02
620.209	-0.03
620.398	0
620.586	0.01
620.774	0.01
620.962	-0.01
621.151	0.05
621.339	-0
621.527	-0.04
621.715	-0.03
621.903	-0.01
622.092	-0.03
622.28	-0
622.468	-0.01
622.656	-0.01
622.844	0.05
623.032	-0
623.22	-0.06
623.408	0.05
623.596	0.04
623.784	0.04
623.972	-0.02
624.16	-0.01
624.348	0.06
624.536	-0
624.724	0
624.912	0.02
625.1	0.05
625.288	-0.03
625.476	-0.04
625.664	0.03
625.851	-0.01
626.039	-0
626.227	0.01
626.415	0.02
626.603	-0.08
626.79	0
626.978	0.01
627.166	0
627.354	0.01
627.541	-0.01
627.729	-0.03
627.917	0.04
628.104	0.02
628.292	-0.02
628.48	-0.01
628.667	-0
628.855	0
629.042	0.01
629.23	-0
629.418	0.02
629.605	-0.01
629.793	-0.02
629.98	-0.02
630.168	-0.04
630.355	0.02
630.543	0.02
630.73	-0.03
630.917	0.04
631.105	0.07
631.292	0
631.48	0.01
631.667	0.09
631.854	-0
632.042	0.02
632.229	-0.05
632.416	-0.01
632.604	0.02
632.791	-0.03
632.978	0.01
633.165	0.04
633.353	0.07
633.54	0.04
633.727	-0.06
633.914	0.02
634.101	0.03
634.289	0.04
634.476	-0.02
634.663	-0.02
634.85	0.01
635.037	-0.04
635.224	-0.04
635.411	0.05
635.598	0.06
635.785	-0.03
635.972	-0.01
636.159	0.03
636.346	-0.03
636.533	0.01
636.72	-0.01
636.907	-0.02
637.094	0.04
637.281	-0.02
637.468	0.03
637.655	0.01
637.842	-0
638.029	-0.01
638.215	0.04
638.402	-0.03
638.589	-0.04
638.776	-0.01
638.963	0.01
639.149	0.07
639.336	0.07
639.523	-0
639.709	0.03
639.896	-0.02
640.083	0.06
640.27	0.02
640.456	-0
640.643	0.04
640.829	-0.05
641.016	0.01
641.203	-0.04
641.389	0.04
641.576	0.05
641.762	-0
641.949	-0.02
642.135	0.02
642.322	0.03
642.508	-0.05
642.695	-0.01
642.881	-0
643.068	-0
643.254	0.01
643.441	0.03
643.627	0
643.813	-0.02
644	0.04
644.186	-0.04
644.372	0.01
644.559	0.06
644.745	0
644.931	-0.03
645.118	-0.01
645.304	-0
645.49	-0.01
645.676	-0.01
645.862	0.02
646.049	0.06
646.235	0.01
646.421	0.07
646.607	0.09
646.793	0.01
646.979	-0.03
647.165	0.03
647.352	0.01
647.538	0.05
647.724	-0
647.91	0.01
648.096	0.05
648.282	0.04
648.468	-0.03
648.654	0.01
648.84	0.03
649.026	0.02
649.212	0
649.397	-0.01
649.583	-0.01
649.769	0.04
649.955	0.04
650.141	0
650.327	0.05
650.513	-0
650.698	0.04
650.884	-0.06
651.07	0.02
651.256	0.02
651.442	-0.02
651.627	-0.02
651.813	-0.01
651.999	0.02
652.184	0.03
652.37	-0.02
652.556	-0.01
652.741	0.07
652.927	-0.08
653.113	-0.03
653.298	0.01
653.484	-0.02
653.669	-0.04
653.855	0.01
654.04	0.04
654.226	0.01
654.412	-0.02
654.597	-0.04
654.782	0
654.968	0.03
655.153	-0.02
655.339	-0.04
655.524	-0.05
655.71	0.05
655.895	-0
656.08	-0.01
656.266	0.01
656.451	0.03
656.636	-0.04
656.822	0.02
657.007	-0.01
657.192	-0.02
657.378	-0.04
657.563	0.02
657.748	-0.01
657.933	0.02
658.118	-0.02
658.304	-0.02
658.489	0.04
658.674	0.03
658.859	-0.04
659.044	0.01
659.229	0.04
659.414	-0.04
659.599	-0.01
659.785	-0.06
659.97	0.01
660.155	0
660.34	0.02
660.525	-0.01
660.71	-0
660.895	0.04
661.08	-0.01
661.264	-0.06
661.449	0.06
661.634	0.04
661.819	0.03
662.004	0.03
662.189	-0.07
662.374	-0.03
662.559	-0.04
662.743	-0.04
662.928	0
663.113	-0.02
663.298	-0.07
663.483	0.01
663.667	-0
663.852	-0.05
664.037	0.01
664.221	-0.03
664.406	0.06
664.591	0.03
664.775	0.01
664.96	-0.08
665.145	0
665.329	0.03
665.514	0
665.698	-0.04
665.883	-0.09
666.068	0.07
666.252	-0.04
666.437	-0.04
666.621	0
666.806	0.03
666.99	0
667.174	-0.05
667.359	0.08
667.543	-0
667.728	-0.01
667.912	-0.05
668.096	0.05
668.281	0.02
668.465	-0
668.649	-0
668.834	-0.03
669.018	-0.04
669.202	-0
669.387	-0.01
669.571	0.02
669.755	-0.04
669.939	-0.02
670.124	0.01
670.308	0.07
670.492	0.07
670.676	-0.01
670.86	-0.03
671.044	-0.04
671.228	0.07
671.413	-0.04
671.597	-0.03
671.781	-0.01
671.965	0.01
672.149	-0.02
672.333	-0.02
672.517	-0
672.701	0.05
672.885	-0
673.069	-0.05
673.253	0.06
673.437	-0.02
673.621	-0.03
673.804	-0.02
673.988	0.02
674.172	0.01
674.356	-0.08
674.54	-0
674.724	0.1
674.908	-0
675.091	0.02
675.275	-0.02
675.459	-0
675.643	0.08
675.826	0.02
676.01	-0.01
676.194	-0
676.377	0.04
676.561	0.04
676.745	-0.02
676.928	0.03
677.112	0.08
677.296	-0.07
677.479	0.01
677.663	-0.01
677.846	0.06
678.03	-0.06
678.213	-0.08
678.397	0.02
678.58	0.01
678.764	-0.03
678.947	-0.05
679.131	-0.03
679.314	0.01
679.498	-0.03
679.681	0.05
679.865	0.09
680.048	-0.03
680.231	-0.03
680.415	-0.02
680.598	0
680.781	0.01
680.965	-0.03
681.148	0.01
681.331	0
681.514	0.06
681.698	-0.01
681.881	0.01
682.064	0
682.247	0.02
682.43	-0.07
682.614	0.02
682.797	0.07
682.98	0.04
683.163	-0.04
683.346	0.02
683.529	-0.01
683.712	-0.02
683.895	0.06
684.078	-0.07
684.261	-0.05
684.444	0.01
684.627	0.02
684.81	-0.02
684.993	-0
685.176	0.06
685.359	-0.04
685.542	-0.02
685.725	0.09
685.908	-0.02
686.091	-0.01
686.274	0.05
686.457	0.03
686.639	-0.01
686.822	0.01
687.005	-0.01
687.188	0.04
687.371	0.11
687.553	-0.02
687.736	0.02
687.919	0.1
688.102	0.08
688.284	-0.05
688.467	0.01
688.65	-0.01
688.832	-0.03
689.015	0.01
689.197	-0.06
689.38	0.1
689.563	0.11
689.745	-0.02
689.928	-0.01
690.11	-0.01
690.293	0
690.475	-0.05
690.658	0.01
690.84	0.02
691.023	-0.04
691.205	-0.02
691.388	-0.03
691.57	0.02
691.752	0.08
691.935	-0.05
692.117	-0.01
692.3	0.01
692.482	0.06
692.664	0.03
692.847	0.03
693.029	0.06
693.211	0.05
693.393	-0.03
693.576	-0.03
693.758	-0.02
693.94	-0.02
694.122	-0.03
694.304	0
694.487	0.01
694.669	0.08
694.851	-0.03
695.033	0
695.215	-0.02
695.397	-0.01
695.579	0.05
695.761	-0.02
695.943	-0.1
696.125	0.09
696.308	-0.01
696.49	-0.1
696.671	0.16
696.853	-0.03
697.035	0.15
697.217	0.01
697.399	0.03
697.581	-0.01
697.763	-0.02
697.945	-0.04
698.127	0.02
698.309	0.1
698.491	0.03
698.672	0.05
698.854	0.04
699.036	0.08
699.218	-0.02
699.399	0.07
699.581	0.06
699.763	0.02
699.945	-0.04
700.126	-0.06
700.308	0.02
700.49	-0.08
700.671	-0.06
700.853	-0.03
701.035	-0.02
701.216	-0.02
701.398	-0.1
701.579	-0.01
701.761	0.1
701.943	-0
702.124	-0.04
702.306	0
702.487	0.12
702.669	-0.02
702.85	-0.02
703.031	-0.03
703.213	0.06
703.394	0.08
703.576	0
703.757	0.05
703.938	0.09
704.12	0.15
704.301	-0.02
704.483	-0.01
704.664	0.08
704.845	0.11
705.026	0.06
705.208	0.01
705.389	-0.01
705.57	0.07
705.751	-0.06
705.933	-0.02
706.114	0.09
706.295	0.02
706.476	-0.01
706.657	0.06
706.838	0.08
707.02	0.02
707.201	-0.09
707.382	-0
707.563	0.05
707.744	-0.03
707.925	-0.06
708.106	-0.01
708.287	0.05
708.468	0.14
708.649	-0.06
708.83	0
709.011	-0.02
709.192	0.05
709.373	-0.08
709.554	0.05
709.734	-0.06
709.915	0.09
710.096	0.01
710.277	-0.05
710.458	-0
710.639	0.02
710.819	-0.06
711	-0.06
711.181	0.09
711.362	0.06
711.542	-0
711.723	-0.08
711.904	0.09
712.085	0.05
712.265	0.05
712.446	-0.04
712.627	0
712.807	0.04
712.988	-0.03
713.168	-0.05
713.349	0.07
713.53	-0.06
713.71	-0.04
713.891	-0.08
714.071	0
714.252	-0.04
714.432	-0.09
714.613	-0.08
714.793	0.04
714.974	0.11
715.154	0.07
715.334	-0
715.515	0.09
715.695	-0.01
715.876	-0.03
716.056	-0.03
716.236	-0.05
716.417	0.05
716.597	0.02
716.777	0.13
716.957	0.02
717.138	-0.03
717.318	0.03
717.498	-0.11
717.678	0.05
717.859	0.05
718.039	-0.09
718.219	-0.02
718.399	0.06
718.579	-0.07
718.759	-0.05
718.939	0
719.12	0.02
719.3	-0.03
719.48	-0.22
719.66	-0.09
719.84	0.09
720.02	-0.02
720.2	-0.03
720.38	-0.13
720.56	0.06
720.74	-0.06
720.92	-0.02
721.1	0.07
721.279	0.09
721.459	-0.04
721.639	-0.02
721.819	0.04
721.999	-0.05
722.179	0.03
722.359	-0.06
722.538	0.02
722.718	-0.02
722.898	-0.04
723.078	-0.04
723.257	-0.02
723.437	0.08
723.617	0.08
723.797	-0.02
723.976	-0.02
724.156	0.02
724.336	0.14
724.515	0.11
724.695	-0.13
724.874	0.01
725.054	0.08
725.234	-0.07
725.413	0.05
725.593	-0.03
725.772	0.01
725.952	0.04
726.131	-0.02
726.311	-0.02
726.49	0.05
726.67	-0.14
726.849	-0.05
727.028	0.07
727.208	-0.03
727.387	-0.05
727.567	-0.06
727.746	0.03
727.925	-0.03
728.105	-0.12
728.284	-0.01
728.463	-0.11
728.643	0.07
728.822	-0.09
729.001	-0.1
729.18	0.08
729.359	0.08
729.539	-0
729.718	0.03
729.897	0.03
730.076	-0.05
730.255	-0.1
730.434	-0
730.614	0.05
730.793	0.12
730.972	0.02
731.151	-0.02
731.33	0.1
731.509	0.02
731.688	0.01
731.867	0.02
732.046	-0.11
732.225	0.18
732.404	-0.12
732.583	-0.11
732.762	0.01
732.941	0.04
733.12	0.09
733.298	0.04
733.477	0.1
733.656	-0.01
733.835	-0.11
734.014	0.18
734.193	-0.06
734.371	0.08
734.55	0.11
734.729	-0.2
734.908	-0.01
735.086	0.09
735.265	0.01
735.444	-0.12
735.623	-0.09
735.801	-0.05
735.98	-0.07
736.159	-0.03
736.337	0.04
736.516	-0.14
736.694	0.01
736.873	-0.14
737.052	0.21
737.23	0.14
737.409	-0.06
737.587	0.14
737.766	-0.04
737.944	-0.02
738.123	0.07
738.301	0.11
738.479	-0.09
738.658	0.01
738.836	-0.13
739.015	0.1
739.193	0.13
739.371	-0.08
739.55	-0.07
739.728	-0.14
739.906	0.19
740.085	0.12
740.263	-0
740.441	-0.25
740.62	0.24
740.798	0.08
740.976	-0.13
741.154	-0.06
741.332	0.25
741.511	-0.08
741.689	0.03
741.867	0.04
742.045	0.11
742.223	0.07
742.401	-0.06
742.579	-0.12
742.757	-0.02
742.935	-0.15
743.114	0
743.292	-0.03
743.47	0.05
743.648	0.01
743.826	0
744.004	0.1
744.181	0.13
744.359	0.01
744.537	-0.02
744.715	-0.03
744.893	-0.03
745.071	-0.01
745.249	-0.02
745.427	0.03
745.605	0.05
745.782	0.01
745.96	0.09
746.138	0.05
746.316	0
746.493	-0.02
746.671	0.1
746.849	-0.05
747.027	0.05
747.204	-0.12
747.382	0.03
747.56	-0.13
747.737	-0.05
747.915	-0.09
748.093	0.06
748.27	-0.08
748.448	-0.05
748.625	-0.09
748.803	-0.02
748.98	-0.09
749.158	0.06
749.335	0.1
749.513	-0.1
749.69	-0.07
749.868	-0.06
750.045	0.11
750.223	-0.07
750.4	-0.24
750.578	0.17
750.755	0.02
750.932	-0.17
751.11	0.14
751.287	-0.11
751.464	0.12
751.642	-0.12
751.819	0.04
751.996	-0
752.173	-0.02
752.351	-0.09
752.528	-0.01
752.705	-0.04
752.882	-0.04
753.06	0.03
753.237	0.11
753.414	0.17
753.591	0.03
753.768	0.01
753.945	-0.14
754.122	-0
754.299	0.09
754.476	-0.12
754.654	-0.01
754.831	0.04
755.008	-0.01
755.185	-0.01
755.362	-0.08
755.539	0.02
755.716	0.06
755.892	-0.04
756.069	0.01
756.246	-0.1
756.423	-0.04
756.6	0.16
756.777	-0.1
756.954	0.02
757.131	0.03
757.307	-0.11
757.484	-0.16
757.661	0
757.838	0.05
758.015	-0.17
758.191	0.19
758.368	0
758.545	0.25
758.721	0.03
758.898	-0.12
759.075	-0.01
759.251	0.11
759.428	0.05
759.605	-0.16
759.781	-0.04
759.958	0.16
760.134	-0.07
760.311	-0.12
760.488	0.16
760.664	0.2
760.841	0.07
761.017	-0.08
761.194	0.03
761.37	0.16
761.547	0
761.723	-0
761.899	0.2
762.076	-0.15
762.252	-0.13
762.429	-0.06
762.605	0.21
762.781	-0.03
762.958	0.05
763.134	0.06
763.31	-0.12
763.486	0.13
763.663	-0.17
763.839	0.01
764.015	-0.09
764.191	-0.1
764.368	-0.1
764.544	-0.17
764.72	-0.02
764.896	0.09
765.072	0.05
765.248	-0.03
765.425	-0.08
765.601	-0.01
765.777	0.01
765.953	-0.27
766.129	0.05
766.305	-0.05
766.481	0.09
766.657	-0.1
766.833	0.22
767.009	-0.16
767.185	0
767.361	-0.05
767.537	-0.15
767.713	0.16
767.889	-0.08
768.065	-0.04
768.24	0.03
768.416	0.07
768.592	-0.09
768.768	-0.05
768.944	0.07
769.12	-0.04
769.295	-0.02
769.471	-0
769.647	-0.11
769.823	0.14
769.998	-0.16
770.174	-0.12
770.35	0.41
770.525	0.34
770.701	-0.04
770.877	-0.05
771.052	-0.16
771.228	0.25
771.403	0.09
771.579	0.03
771.755	0.25
771.93	-0.17
772.106	-0.17
772.281	-0.2
772.457	-0.02
772.632	0.05
772.808	-0.15
772.983	-0.01
773.159	-0.07
773.334	0.19
773.509	-0.17
773.685	-0.1
773.86	0.3
774.036	0.23
774.211	-0.03
774.386	0.03
774.562	-0.04
774.737	0.09
774.912	-0.13
775.087	0.01
775.263	-0.02
775.438	0.03
775.613	0.05
775.788	-0.04
775.964	0.11
776.139	0.33
776.314	-0.18
776.489	-0.06
776.664	-0.04
776.839	-0.13
777.014	0.16
777.19	0.01
777.365	0.25
777.54	0.43
777.715	0.05
777.89	0.05
778.065	0.04
778.24	0.03
778.415	0.22
778.59	-0.15
778.765	-0.02
778.94	0.06
779.115	-0.01
779.289	-0.05
779.464	-0
779.639	0.07
779.814	-0.16
779.989	-0.17
780.164	0.25
780.339	0.1
780.513	0.01
780.688	-0.13
780.863	0.06
781.038	0.35
781.212	-0.16
781.387	-0.01
781.562	0.33
781.737	0.17
781.911	0.11
782.086	-0.06
782.261	-0.03
782.435	0.26
782.61	-0.03
782.784	-0.2
782.959	0.32
783.134	-0.05
783.308	-0.19
783.483	-0.08
783.657	0.35
783.832	0.2
784.006	-0.26
784.181	0.05
784.355	0.34
784.53	-0.1
784.704	-0.16
784.878	0.34
785.053	0.17
785.227	0.16
785.402	0.33
785.576	-0.26
785.75	-0.1
785.925	-0.13
786.099	0.13
786.273	0.18
786.448	0.17
786.622	0.23
786.796	-0.04
786.97	-0.14
787.145	0.49
787.319	-0.3
787.493	-0.03
787.667	-0.42
787.841	0.02
788.015	-0.02
788.19	-0.04
788.364	-0.07
788.538	0.26
788.712	0.15
788.886	0.08
789.06	0.03
789.234	0.31
789.408	-0.2
789.582	-0.14
789.756	0.13
789.93	-0.07
790.104	-0.1
790.278	-0.06
790.452	-0.21
790.626	0.2
790.8	-0.05
790.973	0.25
791.147	0.17
791.321	0.45
791.495	0.26
791.669	0.1
791.843	0.04
792.016	0.01
792.19	0.56
792.364	-0.19
792.538	0.35
792.711	0.23
792.885	-0.31
793.059	-0.21
793.233	-0.44
793.406	0.33
793.58	0.25
793.754	0.13
793.927	-0.02
794.101	0.12
794.274	0.21
794.448	0.46
794.622	-0.28
794.795	0.38
794.969	-0.14
795.142	0.26
795.316	0
795.489	-0.16
795.663	0.38
795.836	0.01
796.009	-0.29
796.183	0.28
796.356	0.1
796.53	0.04
796.703	-0.16
796.876	0.57
797.05	0.09
797.223	-0.02
797.396	0.12
797.57	0.04
797.743	0.25
797.916	0.04
798.09	-0.08
798.263	0.42
798.436	0.33
798.609	-0.01
798.782	-0.04
798.956	0.22
799.129	-0.05
799.302	-0.14
799.475	-0.38
799.648	-0.1
799.821	-0.15
799.994	-0.02
800.167	-0.53
800.34	-0.13
800.514	0.34
800.687	-0.06
800.86	0.16
801.033	0.1
801.206	0.17
801.379	-0.06
801.551	0.38
801.724	0.14
801.897	0.38
802.07	-0.13
802.243	-0.42
802.416	-0.1
802.589	0.15
802.762	0.07
802.935	0.1
803.107	0.13
803.28	0.53
803.453	0.29
803.626	0.1
803.798	-0.03
803.971	-0.17
804.144	0.47
804.317	0.09
804.489	0.13
804.662	-0.29
804.835	0.08
805.007	-0.29
805.18	0.49
805.353	0.2
805.525	-0.2
805.698	0.04
805.87	0.29
806.043	0.26
806.215	-0.36
806.388	-0.18
806.56	-0.07
806.733	0.14
806.905	0.19
807.078	-0.05
807.25	-0.38
807.423	0.15
807.595	-0.17
807.768	-0.16
807.94	0.15
808.112	0.3
808.285	-0
808.457	-0.3
808.629	-0.1
808.802	0.26
808.974	-0.34
809.146	-0.15
809.318	-0.6
809.491	-0.12
809.663	0.38
809.835	-0.55
810.007	0.05
810.18	-0.08
810.352	-0.65
810.524	0.14
810.696	0.23
810.868	0.45
811.04	-0.31
811.212	-0.06
811.384	0.52
811.556	0.23
811.728	0.1
811.901	0.59
812.073	0.29
812.245	0.01
812.417	-0.17
812.589	-0.34
812.76	0.15
812.932	0.43
813.104	0.4
813.276	-0.16
813.448	0.49
813.62	0.34
813.792	-0.23
813.964	0.11
814.136	-0.02
814.307	-0.01
814.479	-0.06
814.651	-0.13
814.823	1.01
814.995	0.13
815.166	-0.02
815.338	-0.11
815.51	-0.27
815.681	0.74
815.853	0.15
816.025	-0.24
816.196	0.48
816.368	0.29
816.54	-0.47
816.711	-0.27
816.883	-0.07
817.054	0.99
817.226	-1
817.398	0.02
817.569	-0.26
817.741	0.04
817.912	-0.36
818.084	0.02
818.255	0.22
818.426	-0.28
818.598	-0.21
818.769	-0.08
818.941	0.43
819.112	0.26
819.283	0.06
819.455	-0.12
819.626	-0.06
819.798	0.34
819.969	-0.03
820.14	-0.08
820.311	-0.18
820.483	0.19
820.654	0.2
820.825	-0.44
820.996	-0.08
821.168	-0.2
821.339	-0.21
821.51	-0.32
821.681	-0.38
821.852	0.02
822.023	-0.68
822.195	-0.85
822.366	0.73
822.537	0.3
822.708	-0.05
822.879	-0.31
823.05	0.56
823.221	-0.09
823.392	0.29
823.563	0.06
823.734	0.16
823.905	0.13
824.076	-0.49
824.247	-0.27
824.418	0.05
824.589	0.77
824.759	0
824.93	-0.33
825.101	0.13
825.272	0.7
825.443	0.86
825.614	0.08
825.784	-0.8
825.955	0.82
826.126	1.06
826.297	0.39
826.467	0.29
826.638	0.85
826.809	-0.82
826.98	0.09
827.15	0.6
827.321	-0.5
827.492	1.07
827.662	0.5
827.833	0.92
828.003	0.61
828.174	-0.88
828.345	-1.18
828.515	0.85
828.686	-0.02
828.856	-0.3
829.027	-0.07
829.197	0.04
829.368	0.21
829.538	-0.35
829.709	-0.25
829.879	0.01
830.049	0.04
830.22	-0.24
830.39	-0.06
830.56	0.61
830.731	-0.11
830.901	-0.66
831.072	0.19
831.242	0.36
831.412	0.46
831.582	-0.3
831.753	-0.46
831.923	-0.15
832.093	0.08
832.263	-0.52
832.434	-0.51
832.604	-0.48
832.774	0.64
832.944	-0.44
833.114	0.05
833.284	0.43
833.454	-0.49
833.624	-0.28
833.795	-0.35
833.965	0.42
834.135	1.16
834.305	-0.92
834.475	-0.78
834.645	0.14
834.815	0.3
834.985	-0.36
835.155	-1.05
835.325	0.52
835.494	0.66
835.664	-0.1
835.834	-0.48
836.004	-0.19
836.174	0.24
836.344	-0.12
836.514	-0.35
836.684	-0.19
836.853	0.11
837.023	0.37
837.193	-0.22
837.363	0.75
837.532	0.99
837.702	0.02
837.872	-0.85
838.041	1.04
838.211	1.55
838.381	-1.34
838.55	-0
838.72	2.23
838.89	0.96
839.059	0.08
839.229	-0.64
839.398	1.56
839.568	-0
839.738	0.56
839.907	1.48
840.077	0.51
840.246	-0.86
840.416	-0.21
840.585	-0.88
840.755	1.22
840.924	1.23
841.093	-0.42
841.263	-0.7
841.432	0.58
841.602	-0.65
841.771	-0.31
841.94	-0.48
842.11	2.2
842.279	1.46
842.448	-0.35
842.617	-0.02
842.787	1.6
842.956	-0.41
843.125	0.01
843.294	0.49
843.464	1.02
843.633	0.12
843.802	-0.61
843.971	-0.37
844.14	0.03
844.309	1.55
844.479	-0.62
844.648	-1
844.817	-0.18
844.986	-0.1
845.155	0.69
845.324	-0.69
845.493	-0.27
845.662	-0.29
845.831	0.73
846	0.5
846.169	-0.01
846.338	1.48
846.507	0.02
846.676	0.82
846.844	-0.82
847.013	2.21
847.182	-0.05
847.351	-0.92
847.52	0.09
847.689	0.49
847.858	0.01
848.026	-0.81
848.195	0.05
848.364	-1.25
848.533	-1.23
848.701	-0.63
848.87	0.3
849.039	0.81
849.207	1.22
849.376	2.5
849.545	1.57
849.713	-0.39
849.882	-0.55
850.051	-0.33
850.219	1.41
850.388	0.76
850.556	-1.11
850.725	-0.01
850.893	0.85
851.062	0.38
851.23	0.43
851.399	-1.05
851.567	-0.26
851.736	-1.39
851.904	-1.59
852.073	1.32
852.241	1.16
852.41	-0.71
852.578	-0.41
852.746	-0.85
852.915	1.39
853.083	0.19
853.251	-0.17
853.42	0.03
853.588	-0.18
853.756	2.4
853.924	0.14
854.093	-0
854.261	0.17
854.429	0.07
854.597	-0.76
854.765	-1.63
854.934	0.68
855.102	0.39
855.27	0.08
855.438	-1.05
855.606	1.86
855.774	1.83
855.942	-1.6
856.11	-2.29
856.278	0.31
856.446	0.87
856.614	-0.56
856.782	-0.83
856.95	1.44
857.118	0.53
857.286	0.53
857.454	0.1
857.622	1.07
857.79	1.16
857.958	-0.77
858.126	0.8
858.294	-2.33
858.462	0.14
858.629	-0.34
858.797	-0.7
858.965	1.14
859.133	-0.35
859.301	-1.08
859.468	0.85
859.636	-0.42
859.804	1.23
859.971	-0.44
860.139	-0.46
860.307	1.58
860.474	0.01
860.642	-0.59
860.81	-1.05
860.977	-0.61
861.145	2.55
861.313	-0.07
861.48	0.01
861.648	0.93
861.815	-0.38
861.983	-1.95
862.15	-0.25
862.318	0.25
862.485	1.19
862.653	-0.41
862.82	-1.09
862.988	1.36
863.155	1.04
863.322	-0.95
863.49	-1.83
863.657	-1.12
863.824	1.95
863.992	0.02
864.159	-0.3
864.326	2
864.494	-0.88
864.661	1.82
864.828	-2.01
864.996	0.89
865.163	0.11
865.33	-1.33
865.497	-1.39
865.664	-1.18
865.832	-1.63
865.999	-0.21
866.166	-1.23
866.333	-0.57
866.5	-1.65
866.667	0.4
866.834	-0.11
867.001	1.25
867.168	-1.58
867.335	-1.1
867.502	-1.1
867.669	-0.23
867.836	0.69
868.003	-1.12
868.17	0.19
868.337	1.98
868.504	2.15
868.671	-2.2
868.838	-0.83
869.005	0.41
869.172	0.16
869.339	1.44
869.505	0.26
869.672	-0.5
869.839	2.49
870.006	0.15
870.173	-1.43
870.339	0.78
870.506	3.83
870.673	-0.58
870.84	2.47
871.006	1.25
871.173	0.44
871.34	-0.76
871.506	-1.43
871.673	1.08
871.839	-2.36
872.006	2.25
872.173	-0.14
872.339	-0.3
872.506	2.1
872.672	0.03
872.839	-2.24
873.005	0.69
873.172	4.59
873.338	1.29
873.505	-1.13
873.671	-0.46
873.838	1.03
874.004	-2.13
874.171	0.04
874.337	1.81
874.503	1.11
874.67	0.78
874.836	-0.35
875.002	1.86
875.169	1.66
875.335	-1.63
875.501	0.33
875.668	0.68
875.834	0.97
876	0.1
876.166	-0.38
876.332	3.22
876.499	3.82
876.665	-1.51
876.831	0.43
876.997	4.6
877.163	-1.27
877.329	-1.01
877.495	0.6
877.662	2.26
877.828	1.79
877.994	-0.5
878.16	-4.85
878.326	-0.21
878.492	0.81
878.658	-0.73
878.824	1.03
878.99	2.39
879.156	-2.11
879.322	2.66
879.487	-0.68
879.653	1.47
879.819	0.36
879.985	-1.36
880.151	0.85
880.317	-0.79
880.483	0.29
880.648	1.15
880.814	-3.29
880.98	-0.44
881.146	-1.83
881.312	-1.49
881.477	0.84
881.643	0.29
881.809	3.19
881.974	2.23
882.14	-2.69
882.306	0.95
882.471	4.31
882.637	-1.64
882.803	1.72
882.968	4.69
883.134	4.05
883.299	-0.05
883.465	-0.47
883.63	1.47
883.796	1.84
883.961	1.99
884.127	1.31
884.292	-3.09
884.458	-0.49
884.623	-0.49
