Data from Apollo_Calib_20240827__AbsoluteIrradiance__112__01-01-00-015.txt Node

Date: Wed Aug 28 01:01:00 BST 2024
User: biology
Spectrometer: FLMT08252
Trigger mode: 0
Integration Time (sec): 5.000000E-1
Scans to average: 5
Electric dark correction enabled: true
Nonlinearity correction enabled: false
Boxcar width: 0
XAxis mode: Wavelengths
Number of Pixels in Spectrum: 3648
>>>>>Begin Spectral Data<<<<<
179.588	-0
179.809	-0
180.03	-0
180.251	-0
180.473	-0
180.694	0
180.915	0
181.136	-0
181.357	0
181.578	-0
181.799	-0
182.02	0
182.241	-0
182.462	0
182.683	0
182.904	-0
183.125	-0
183.346	0
183.567	0
183.788	-0
184.009	-0
184.23	0
184.451	0
184.672	-0
184.892	-0
185.113	0
185.334	0
185.555	-0
185.776	-0
185.996	-0
186.217	-0
186.438	-0
186.659	-0
186.879	-0
187.1	-0
187.321	-0
187.541	-0
187.762	-0
187.983	0
188.203	-0
188.424	0
188.644	-0
188.865	-0
189.086	-0
189.306	-0
189.527	-0
189.747	0
189.968	-0
190.188	0
190.409	-0
190.629	0
190.849	-0
191.07	-0
191.29	-0
191.511	0
191.731	-0
191.951	-0
192.172	0
192.392	-0
192.612	-0
192.833	0
193.053	0
193.273	0
193.493	-0
193.714	-0
193.934	0
194.154	0
194.374	-0
194.594	-0
194.815	-0
195.035	-0
195.255	-0
195.475	-0
195.695	0
195.915	-0
196.135	0
196.355	0
196.575	0
196.795	-0
197.015	-0
197.235	-0
197.455	-0
197.675	0
197.895	-0
198.115	-0
198.335	0
198.555	-0
198.775	0
198.995	0
199.214	0
199.434	0
199.654	-0
199.874	-0
200.094	0.69
200.313	-0.41
200.533	-0.29
200.753	-1.13
200.973	0.92
201.192	0.19
201.412	-0.82
201.632	-0.4
201.851	0.95
202.071	-0.17
202.291	-0.03
202.51	-0.34
202.73	0.21
202.95	-0.29
203.169	-1.13
203.389	-0
203.608	-0.12
203.828	-0.3
204.047	-0.32
204.267	0.23
204.486	-0.11
204.706	0.1
204.925	-0.23
205.145	-0.12
205.364	0.2
205.583	0.3
205.803	-0.14
206.022	-0.33
206.242	0.05
206.461	-0.16
206.68	-0.24
206.9	-0.12
207.119	0.63
207.338	0.54
207.557	-0.29
207.777	-0.12
207.996	0.08
208.215	0.44
208.434	-0.25
208.654	-0.55
208.873	0.04
209.092	0.48
209.311	-0.19
209.53	-0.06
209.749	-0.39
209.968	-0.18
210.187	0.09
210.407	-0.7
210.626	-0.22
210.845	0.2
211.064	-0.18
211.283	-0.32
211.502	0.22
211.721	-0.19
211.94	-0.23
212.159	0.01
212.377	0.2
212.596	0.01
212.815	-0.07
213.034	0.07
213.253	0.19
213.472	0.25
213.691	-0.24
213.91	-0.25
214.128	-0.02
214.347	0.17
214.566	-0.4
214.785	-0.26
215.003	0.14
215.222	-0
215.441	0.11
215.66	-0.28
215.878	0.06
216.097	0.15
216.316	-0.31
216.534	-0.06
216.753	0.01
216.972	-0.17
217.19	0.05
217.409	-0.11
217.627	-0.26
217.846	-0.27
218.064	-0.09
218.283	-0.14
218.501	0.18
218.72	0.23
218.938	-0.21
219.157	-0.14
219.375	0.01
219.594	-0.21
219.812	-0.24
220.031	-0.29
220.249	0.24
220.467	0.24
220.686	-0.06
220.904	-0.3
221.122	-0.3
221.341	0.32
221.559	0
221.777	-0.12
221.995	-0.14
222.214	0.07
222.432	-0.06
222.65	0.11
222.868	0.13
223.086	-0.03
223.305	0.14
223.523	-0.11
223.741	0.23
223.959	-0.19
224.177	-0.22
224.395	-0.26
224.613	-0.03
224.831	0.18
225.049	-0.17
225.267	-0.04
225.485	-0.01
225.703	-0.12
225.921	0.03
226.139	-0.16
226.357	0.09
226.575	0.05
226.793	-0.18
227.011	0.26
227.229	-0.01
227.447	-0.02
227.665	-0.01
227.883	-0.23
228.1	-0.07
228.318	-0.05
228.536	-0.23
228.754	-0.11
228.972	0.16
229.189	-0
229.407	-0.1
229.625	-0.14
229.843	0.13
230.06	0.11
230.278	-0.17
230.496	0.01
230.713	0.02
230.931	0.21
231.149	-0.15
231.366	-0.19
231.584	-0.04
231.801	0.29
232.019	0.06
232.236	-0.25
232.454	-0.04
232.671	-0.01
232.889	-0.12
233.106	-0.2
233.324	0.01
233.541	0.07
233.759	-0.03
233.976	0.01
234.194	-0.03
234.411	-0.02
234.628	-0.18
234.846	-0.04
235.063	0
235.28	-0.01
235.498	-0.05
235.715	-0.14
235.932	-0.01
236.149	0.08
236.367	-0.09
236.584	-0
236.801	0.02
237.018	-0
237.236	0.03
237.453	-0.15
237.67	0.06
237.887	-0.08
238.104	-0.09
238.321	-0.11
238.538	-0.08
238.755	0.11
238.973	-0.18
239.19	-0.03
239.407	-0.02
239.624	0.01
239.841	-0.08
240.058	-0.11
240.275	-0.03
240.492	-0.03
240.709	-0.06
240.925	-0.07
241.142	0.14
241.359	-0.1
241.576	-0.1
241.793	-0.12
242.01	0.05
242.227	0.11
242.444	0.05
242.66	0.04
242.877	-0.03
243.094	-0.05
243.311	0.04
243.527	-0
243.744	-0.05
243.961	0.18
244.178	-0.09
244.394	-0.1
244.611	0.03
244.828	0.18
245.044	-0.08
245.261	-0.08
245.477	-0.02
245.694	0.03
245.911	-0.05
246.127	0.02
246.344	0.14
246.56	0
246.777	-0.1
246.993	-0.03
247.21	0.01
247.426	-0.07
247.643	-0.18
247.859	-0.12
248.076	-0.05
248.292	0.1
248.508	-0.1
248.725	0.06
248.941	0.03
249.157	0.04
249.374	-0.04
249.59	-0.08
249.806	-0.01
250.023	-0.05
250.239	-0.07
250.455	-0.03
250.671	-0.05
250.888	0.02
251.104	0.01
251.32	-0.03
251.536	0.03
251.752	-0.08
251.969	-0.04
252.185	0.07
252.401	0.2
252.617	-0.01
252.833	-0.12
253.049	-0.04
253.265	0.01
253.481	0.01
253.697	-0.01
253.913	-0.15
254.129	0
254.345	-0.04
254.561	-0.05
254.777	0.05
254.993	0.11
255.209	-0.07
255.425	-0.02
255.641	-0.05
255.857	0.17
256.073	0.05
256.288	-0.1
256.504	-0.05
256.72	-0.02
256.936	0.11
257.152	-0.01
257.367	-0.07
257.583	-0.03
257.799	0.05
258.015	-0.07
258.23	-0.06
258.446	0.08
258.662	0.04
258.877	-0.1
259.093	-0.11
259.309	-0.02
259.524	0.01
259.74	-0.1
259.955	-0.1
260.171	-0.02
260.387	-0.03
260.602	0.03
260.818	0.04
261.033	-0.04
261.249	-0.1
261.464	-0.04
261.68	-0.04
261.895	0
262.11	0.01
262.326	-0.04
262.541	-0.08
262.757	0.1
262.972	0
263.187	-0
263.403	-0.04
263.618	0.05
263.833	-0.02
264.049	-0.09
264.264	-0.03
264.479	0.08
264.694	0.1
264.91	-0.08
265.125	-0.08
265.34	0.04
265.555	0.14
265.77	0.02
265.986	-0.05
266.201	-0.03
266.416	0.11
266.631	0.03
266.846	0.01
267.061	-0.01
267.276	-0
267.491	-0.12
267.706	0.04
267.921	0.02
268.136	0
268.351	0.04
268.566	-0.11
268.781	0.06
268.996	0.04
269.211	-0.01
269.426	-0.07
269.641	-0.03
269.856	0.04
270.071	-0.03
270.285	-0.1
270.5	0.05
270.715	0.02
270.93	0.01
271.145	0.03
271.359	0.01
271.574	-0
271.789	-0.02
272.004	0.04
272.218	-0
272.433	0.08
272.648	-0.04
272.862	0.04
273.077	0.03
273.292	0.01
273.506	-0.02
273.721	-0.05
273.936	0.07
274.15	0.07
274.365	-0.02
274.579	0.04
274.794	0.01
275.008	0.02
275.223	-0.11
275.437	-0
275.652	0.03
275.866	-0
276.081	0.06
276.295	0.07
276.509	0.04
276.724	-0
276.938	0.02
277.153	0.02
277.367	0.04
277.581	-0
277.796	-0.04
278.01	0.01
278.224	-0
278.438	0.09
278.653	-0.08
278.867	-0.03
279.081	-0.2
279.295	-0.01
279.51	0.02
279.724	-0.1
279.938	0.03
280.152	0.08
280.366	-0.06
280.58	-0.02
280.794	0.06
281.008	0.07
281.222	0.09
281.437	0.13
281.651	0.02
281.865	0.03
282.079	-0.06
282.293	-0.12
282.507	-0.05
282.721	0.02
282.935	0.01
283.148	-0.1
283.362	-0.02
283.576	-0.11
283.79	-0.05
284.004	-0.04
284.218	0.04
284.432	0.02
284.646	0.01
284.859	0.03
285.073	0.03
285.287	0.02
285.501	-0.01
285.714	0.02
285.928	-0.02
286.142	-0.04
286.356	-0.04
286.569	-0.02
286.783	0.06
286.997	0.05
287.21	-0.01
287.424	-0.03
287.637	-0.01
287.851	0.01
288.065	0.02
288.278	-0
288.492	-0.01
288.705	0.01
288.919	0.02
289.132	-0.04
289.346	0.07
289.559	-0.05
289.773	-0.06
289.986	-0.02
290.2	0.01
290.413	0.03
290.626	-0.04
290.84	0.01
291.053	-0
291.267	0.06
291.48	-0.02
291.693	0.01
291.906	-0.06
292.12	-0.03
292.333	-0.09
292.546	-0.07
292.76	0.03
292.973	0.03
293.186	0.03
293.399	-0.05
293.612	0.02
293.826	0.03
294.039	-0.02
294.252	-0
294.465	0.1
294.678	0.06
294.891	-0.01
295.104	-0
295.317	-0.02
295.53	0.01
295.743	0.01
295.956	0.02
296.169	-0
296.382	0.06
296.595	0.02
296.808	-0.01
297.021	0.08
297.234	0.03
297.447	-0.01
297.66	0.09
297.873	0.05
298.086	0.01
298.299	-0.05
298.511	-0.06
298.724	0
298.937	-0.03
299.15	-0.02
299.363	0.01
299.575	0.02
299.788	0.04
300.001	-0.03
300.213	0
300.426	-0.03
300.639	0.02
300.852	-0.03
301.064	0.03
301.277	0.08
301.489	0.03
301.702	0.04
301.915	0.02
302.127	-0.01
302.34	0.03
302.552	0.01
302.765	-0.03
302.977	0.05
303.19	0.02
303.402	-0
303.615	-0.01
303.827	-0.03
304.04	-0.01
304.252	0.05
304.464	-0.01
304.677	0.08
304.889	0.01
305.102	-0.02
305.314	-0.06
305.526	0.02
305.739	0.02
305.951	-0.06
306.163	0.01
306.375	0.07
306.588	-0.03
306.8	-0.03
307.012	-0.09
307.224	0.04
307.436	0.07
307.649	-0.05
307.861	0.02
308.073	0.03
308.285	0.02
308.497	-0.02
308.709	-0.02
308.921	-0.02
309.133	0.07
309.346	0.02
309.558	0
309.77	0.03
309.982	0.01
310.194	0.04
310.406	-0
310.617	0.07
310.829	0.07
311.041	0.05
311.253	-0.04
311.465	-0.04
311.677	0.05
311.889	-0.03
312.101	-0.04
312.313	0.08
312.524	0.03
312.736	-0.03
312.948	-0.03
313.16	0.06
313.372	0.02
313.583	-0.01
313.795	-0.02
314.007	-0.05
314.218	0.07
314.43	0.01
314.642	0
314.853	-0.04
315.065	0.06
315.277	0
315.488	0
315.7	0.04
315.912	0.03
316.123	-0.01
316.335	-0.01
316.546	0.1
316.758	0
316.969	-0.03
317.181	0.03
317.392	-0.04
317.604	0.04
317.815	-0.06
318.026	0.01
318.238	-0.03
318.449	0.02
318.661	-0.05
318.872	-0.04
319.083	-0.02
319.295	0.01
319.506	-0.01
319.717	0.01
319.929	0.05
320.14	-0
320.351	0.01
320.562	-0.01
320.774	0.03
320.985	0.03
321.196	-0.05
321.407	-0.07
321.618	0.03
321.829	-0.01
322.041	0.02
322.252	-0
322.463	0.03
322.674	0.05
322.885	-0.02
323.096	-0.05
323.307	0
323.518	0.05
323.729	-0.03
323.94	0.01
324.151	-0.05
324.362	0.02
324.573	-0
324.784	-0.04
324.995	0.04
325.206	-0.01
325.417	-0
325.628	-0.01
325.838	0.03
326.049	-0.01
326.26	0.05
326.471	0.03
326.682	0.02
326.892	0
327.103	-0.06
327.314	-0.03
327.525	0.08
327.735	0.07
327.946	0.02
328.157	-0.02
328.368	-0.01
328.578	-0.02
328.789	0.01
328.999	0.02
329.21	-0.02
329.421	0.02
329.631	-0.04
329.842	-0.05
330.052	0.02
330.263	0.04
330.473	-0.01
330.684	0.03
330.894	-0.04
331.105	0.01
331.315	0.02
331.526	-0.03
331.736	0.07
331.947	0.02
332.157	-0.01
332.367	-0.04
332.578	0.03
332.788	0.05
332.999	0.04
333.209	0.01
333.419	-0.02
333.629	0.01
333.84	0.04
334.05	0.02
334.26	0.07
334.47	0.01
334.681	0.05
334.891	-0
335.101	0.03
335.311	0.09
335.521	-0
335.732	-0.04
335.942	0.07
336.152	0.03
336.362	0.03
336.572	0.01
336.782	0.03
336.992	-0.02
337.202	0.01
337.412	-0.04
337.622	0.04
337.832	-0.02
338.042	-0.01
338.252	-0.01
338.462	0.01
338.672	0.02
338.882	0.03
339.092	0.01
339.302	0.07
339.511	0.07
339.721	0.02
339.931	-0.02
340.141	0.03
340.351	0.07
340.561	0
340.77	0.01
340.98	0.06
341.19	0.03
341.4	-0
341.609	-0.01
341.819	0.02
342.029	-0.01
342.238	-0.01
342.448	-0.03
342.658	0.06
342.867	0.01
343.077	0.03
343.286	0.04
343.496	0
343.706	0.1
343.915	-0.05
344.125	-0
344.334	0.01
344.544	-0.02
344.753	-0.02
344.963	-0.04
345.172	-0.01
345.381	-0.01
345.591	-0.01
345.8	0.02
346.01	0.08
346.219	0.04
346.428	-0.09
346.638	-0.01
346.847	-0.02
347.056	0.05
347.266	-0.03
347.475	-0.02
347.684	0.04
347.893	-0
348.103	0.02
348.312	0.01
348.521	-0.03
348.73	0.03
348.94	0.04
349.149	0.02
349.358	0
349.567	-0.03
349.776	-0.06
349.985	-0.01
350.194	0.04
350.403	0.05
350.612	-0.03
350.821	0.03
351.03	0.04
351.239	-0.01
351.448	-0.03
351.657	-0.05
351.866	0.06
352.075	0.02
352.284	0.06
352.493	-0.05
352.702	0.02
352.911	0.03
353.12	0.02
353.329	-0.03
353.538	0.02
353.746	0.03
353.955	-0
354.164	0.02
354.373	0.02
354.582	0.02
354.79	0.07
354.999	0.06
355.208	0.02
355.416	0.06
355.625	-0.02
355.834	0
356.042	0.03
356.251	0
356.46	-0.04
356.668	-0
356.877	0.09
357.085	0.05
357.294	-0.05
357.503	0.02
357.711	0
357.92	0.11
358.128	-0
358.337	-0.02
358.545	0.02
358.754	-0.01
358.962	0.05
359.17	0.02
359.379	0.01
359.587	0.06
359.796	0.02
360.004	0.03
360.212	0.06
360.421	0.05
360.629	0.03
360.837	0.03
361.046	0.04
361.254	0.15
361.462	0.04
361.67	-0.01
361.879	0
362.087	0.11
362.295	0.03
362.503	0.01
362.711	-0.01
362.92	0.01
363.128	0.01
363.336	-0.02
363.544	-0.03
363.752	-0.01
363.96	-0.03
364.168	-0.05
364.376	0.05
364.584	-0.01
364.792	0.07
365	0.05
365.208	0.06
365.416	0.05
365.624	0.07
365.832	-0.02
366.04	0.08
366.248	0.04
366.456	0.08
366.664	0.04
366.872	0.02
367.079	0.04
367.287	0.05
367.495	0.05
367.703	0.05
367.911	0.06
368.118	0.05
368.326	0.05
368.534	0.01
368.742	0.13
368.949	0.05
369.157	0.09
369.365	0.14
369.572	0.06
369.78	0.09
369.988	0.23
370.195	0.18
370.403	0.18
370.61	0.17
370.818	0.23
371.026	0.29
371.233	0.18
371.441	0.27
371.648	0.31
371.856	0.32
372.063	0.34
372.271	0.36
372.478	0.43
372.685	0.39
372.893	0.44
373.1	0.46
373.308	0.51
373.515	0.66
373.722	0.54
373.93	0.62
374.137	0.71
374.344	0.76
374.552	0.75
374.759	0.78
374.966	0.84
375.173	0.85
375.381	0.94
375.588	0.97
375.795	0.96
376.002	1.05
376.209	1.13
376.417	1.15
376.624	1.23
376.831	1.31
377.038	1.34
377.245	1.39
377.452	1.47
377.659	1.6
377.866	1.61
378.073	1.73
378.28	1.83
378.487	1.92
378.694	1.99
378.901	2.09
379.108	2.08
379.315	2.25
379.522	2.36
379.729	2.42
379.936	2.53
380.143	2.64
380.35	2.66
380.557	2.86
380.763	2.91
380.97	2.96
381.177	3.15
381.384	3.39
381.591	3.4
381.797	3.42
382.004	3.58
382.211	3.71
382.418	3.69
382.624	3.86
382.831	3.8
383.038	3.95
383.244	3.93
383.451	3.91
383.658	3.88
383.864	4
384.071	3.89
384.277	3.94
384.484	3.88
384.69	3.8
384.897	3.71
385.103	3.7
385.31	3.63
385.516	3.51
385.723	3.36
385.929	3.34
386.136	3.11
386.342	3.12
386.549	2.94
386.755	2.92
386.961	2.86
387.168	2.7
387.374	2.56
387.58	2.53
387.787	2.32
387.993	2.36
388.199	2.18
388.406	2.07
388.612	1.93
388.818	1.9
389.024	1.77
389.231	1.74
389.437	1.74
389.643	1.73
389.849	1.59
390.055	1.5
390.261	1.44
390.467	1.44
390.674	1.4
390.88	1.38
391.086	1.35
391.292	1.33
391.498	1.28
391.704	1.23
391.91	1.16
392.116	1.12
392.322	0.97
392.528	1.13
392.734	1.02
392.94	1.04
393.146	0.99
393.352	0.93
393.557	0.85
393.763	0.87
393.969	0.9
394.175	0.81
394.381	0.82
394.587	0.71
394.792	0.7
394.998	0.76
395.204	0.76
395.41	0.64
395.615	0.65
395.821	0.63
396.027	0.6
396.233	0.6
396.438	0.55
396.644	0.66
396.85	0.54
397.055	0.5
397.261	0.52
397.466	0.57
397.672	0.42
397.878	0.49
398.083	0.47
398.289	0.43
398.494	0.48
398.7	0.41
398.905	0.32
399.111	0.43
399.316	0.28
399.522	0.31
399.727	0.3
399.932	0.32
400.138	0.26
400.343	0.31
400.549	0.28
400.754	0.3
400.959	0.32
401.165	0.26
401.37	0.32
401.575	0.34
401.78	0.28
401.986	0.24
402.191	0.23
402.396	0.23
402.601	0.26
402.807	0.28
403.012	0.24
403.217	0.3
403.422	0.2
403.627	0.19
403.832	0.2
404.037	0.23
404.243	0.22
404.448	0.2
404.653	0.16
404.858	0.2
405.063	0.21
405.268	0.18
405.473	0.15
405.678	0.15
405.883	0.27
406.088	0.25
406.293	0.13
406.498	0.09
406.703	0.18
406.907	0.08
407.112	0.09
407.317	0.18
407.522	0.18
407.727	0.11
407.932	0.15
408.136	0.25
408.341	0.13
408.546	0.11
408.751	0.12
408.956	0.12
409.16	0.14
409.365	0.06
409.57	0.12
409.774	0.12
409.979	0.15
410.184	0.14
410.388	0.05
410.593	0.12
410.798	0.09
411.002	0.1
411.207	0.14
411.411	0.15
411.616	0.09
411.82	0.08
412.025	0.11
412.229	0.07
412.434	0.13
412.638	0.12
412.843	0.06
413.047	0.11
413.252	0.01
413.456	0.07
413.66	0.1
413.865	0.06
414.069	0.16
414.273	0.08
414.478	0.05
414.682	0.05
414.886	0.04
415.091	0.03
415.295	-0
415.499	0.12
415.703	-0
415.908	0.1
416.112	-0
416.316	0.06
416.52	0.04
416.724	0.02
416.929	0.05
417.133	0.16
417.337	-0.02
417.541	-0
417.745	0.07
417.949	0.09
418.153	0.08
418.357	0
418.561	0.09
418.765	0.04
418.969	0.13
419.173	0.06
419.377	0.07
419.581	0.11
419.785	0.04
419.989	-0.01
420.193	0.04
420.397	0.03
420.601	0.12
420.804	0.08
421.008	0.05
421.212	0.07
421.416	0.08
421.62	0.04
421.823	0.05
422.027	0.13
422.231	0.03
422.435	0.09
422.638	0.05
422.842	0.03
423.046	0.04
423.249	0.06
423.453	0.04
423.657	0.09
423.86	0.01
424.064	0.03
424.268	0.11
424.471	0.04
424.675	0.13
424.878	0.09
425.082	0.06
425.285	0.05
425.489	0.09
425.692	0.05
425.896	0.02
426.099	0.09
426.303	0.02
426.506	-0.02
426.71	0.04
426.913	0.11
427.116	0.14
427.32	0.08
427.523	0.05
427.726	0.13
427.93	0.04
428.133	0.06
428.336	0.02
428.54	0.05
428.743	0.07
428.946	0.07
429.149	0.06
429.353	0.06
429.556	0.07
429.759	0.07
429.962	-0.02
430.165	0.08
430.368	0.04
430.571	0.07
430.775	0.03
430.978	0.02
431.181	0.07
431.384	0.06
431.587	0.07
431.79	0.06
431.993	0.02
432.196	0.02
432.399	0.01
432.602	0.13
432.805	0.07
433.008	0.03
433.211	0.01
433.414	0.07
433.616	0.09
433.819	0.05
434.022	-0.03
434.225	0.08
434.428	0.08
434.631	0.13
434.833	0.06
435.036	0.03
435.239	0.09
435.442	0.06
435.645	0.04
435.847	0.04
436.05	0.1
436.253	0.09
436.455	0.02
436.658	0.04
436.861	0.19
437.063	0.05
437.266	0.06
437.468	0.05
437.671	0.19
437.874	0.06
438.076	-0
438.279	0.02
438.481	0.08
438.684	0.02
438.886	0.13
439.089	0.02
439.291	0.03
439.494	0.11
439.696	-0.02
439.899	0.09
440.101	0.11
440.303	0.04
440.506	0.11
440.708	0.06
440.91	0.06
441.113	0.01
441.315	0.13
441.517	-0.01
441.72	0.11
441.922	-0.01
442.124	-0
442.326	0.1
442.529	0.15
442.731	0.03
442.933	0.18
443.135	0.08
443.337	0.06
443.539	0.05
443.742	0.04
443.944	0.09
444.146	0.06
444.348	0.05
444.55	0.04
444.752	0.08
444.954	0.05
445.156	0.08
445.358	0.08
445.56	0.14
445.762	0.09
445.964	0.09
446.166	0.06
446.368	0.06
446.57	0.08
446.772	0.07
446.974	0.05
447.175	0.09
447.377	0.06
447.579	0.1
447.781	0.01
447.983	0.16
448.184	0.07
448.386	0.09
448.588	0.05
448.79	0.1
448.991	0.06
449.193	0.08
449.395	0.1
449.597	0.08
449.798	0.1
450	0.15
450.202	0.08
450.403	0.11
450.605	0.09
450.806	0.08
451.008	0.01
451.21	0.1
451.411	0.04
451.613	0.05
451.814	0.1
452.016	0.06
452.217	0.1
452.419	0.09
452.62	0.12
452.821	0.12
453.023	0.11
453.224	0.09
453.426	0.05
453.627	0.09
453.828	0.09
454.03	0.12
454.231	0.11
454.432	-0.01
454.634	0.11
454.835	0.06
455.036	-0
455.238	0.11
455.439	0.12
455.64	0.03
455.841	0.04
456.042	0.15
456.244	0.09
456.445	0.02
456.646	-0.01
456.847	0.02
457.048	0.13
457.249	0.1
457.45	0.23
457.651	0.02
457.852	0.07
458.054	0.05
458.255	0.04
458.456	0.09
458.657	0.05
458.858	0
459.058	0.14
459.259	0.05
459.46	0.01
459.661	0
459.862	0.17
460.063	0.01
460.264	0.09
460.465	0.05
460.666	0.13
460.866	0.04
461.067	0.03
461.268	0.02
461.469	0.02
461.67	0.05
461.87	0.03
462.071	0
462.272	0.01
462.473	0.05
462.673	0.09
462.874	-0.01
463.075	0.07
463.275	-0.02
463.476	0.06
463.676	0.04
463.877	0.11
464.078	0.07
464.278	0.12
464.479	0.05
464.679	0.06
464.88	0.02
465.08	0.11
465.281	0.02
465.481	0.04
465.682	0
465.882	0.05
466.083	0.04
466.283	0.03
466.483	0.04
466.684	0.02
466.884	-0
467.085	0.03
467.285	0.09
467.485	0.04
467.686	0.04
467.886	0.01
468.086	0.03
468.286	0.04
468.487	0.05
468.687	-0.02
468.887	-0.02
469.087	0.04
469.287	0.05
469.488	0
469.688	0.04
469.888	0.04
470.088	0.03
470.288	0.08
470.488	0.1
470.688	-0.01
470.888	0
471.088	-0.01
471.288	0.08
471.488	0.05
471.688	0.04
471.888	0.01
472.088	0.05
472.288	0.1
472.488	-0.07
472.688	-0.03
472.888	0.03
473.088	0.01
473.288	0.03
473.488	0.02
473.688	0.05
473.887	0.03
474.087	0.01
474.287	0.05
474.487	-0
474.687	0.06
474.886	0.03
475.086	0.01
475.286	0.04
475.486	0.01
475.685	0
475.885	-0.02
476.085	-0
476.284	0.06
476.484	-0.01
476.684	0.04
476.883	0.03
477.083	0.04
477.282	0
477.482	0.08
477.681	0.1
477.881	0.05
478.08	-0.02
478.28	-0.03
478.479	0.03
478.679	0.09
478.878	-0.01
479.078	0
479.277	0.01
479.477	0.03
479.676	0.05
479.875	0.04
480.075	-0.07
480.274	0.03
480.473	0.02
480.673	-0.01
480.872	0.06
481.071	0.02
481.271	-0.03
481.47	0.01
481.669	0.01
481.868	0
482.067	-0.05
482.267	0.01
482.466	-0
482.665	-0.01
482.864	-0.02
483.063	-0.04
483.262	0.01
483.461	0.06
483.661	0.02
483.86	0
484.059	0.02
484.258	0.02
484.457	0.01
484.656	0
484.855	0.03
485.054	-0.03
485.253	-0.01
485.452	-0.02
485.651	0.02
485.849	-0.02
486.048	-0.01
486.247	-0
486.446	0.02
486.645	0
486.844	-0.01
487.043	-0
487.241	0
487.44	-0.02
487.639	-0
487.838	0.04
488.037	0.02
488.235	0.08
488.434	0.02
488.633	-0
488.831	-0
489.03	0.04
489.229	0.01
489.427	-0.01
489.626	0.04
489.825	0.04
490.023	0
490.222	-0.03
490.42	0.01
490.619	0.04
490.817	0.01
491.016	-0.02
491.214	0.04
491.413	0
491.611	0.01
491.81	0.01
492.008	0.01
492.207	0.02
492.405	0.03
492.604	-0.03
492.802	-0.01
493	0.03
493.199	-0.02
493.397	0.04
493.595	0.03
493.794	-0.02
493.992	0.05
494.19	0.01
494.388	0.03
494.587	0
494.785	0.01
494.983	-0.03
495.181	0.01
495.379	0
495.578	-0
495.776	0
495.974	0.02
496.172	-0
496.37	-0.03
496.568	-0.02
496.766	-0.01
496.964	0.01
497.162	-0
497.36	0
497.558	0.01
497.756	0.02
497.954	0.02
498.152	-0.02
498.35	0.01
498.548	-0.01
498.746	0.01
498.944	-0
499.142	0.01
499.34	-0.04
499.538	0.02
499.736	-0.01
499.933	0.06
500.131	0.03
500.329	-0.01
500.527	0.04
500.725	0.04
500.922	0.05
501.12	0.02
501.318	0.01
501.516	-0
501.713	0.01
501.911	0.01
502.109	-0.02
502.306	0.01
502.504	0.01
502.701	-0.02
502.899	-0
503.097	0.04
503.294	0.01
503.492	-0
503.689	0.02
503.887	0.04
504.084	0.04
504.282	0.01
504.479	-0.01
504.677	0.01
504.874	-0.03
505.072	0.02
505.269	0
505.466	0.03
505.664	0.03
505.861	-0.05
506.059	0.01
506.256	0.01
506.453	-0.02
506.651	0.02
506.848	0.03
507.045	-0
507.242	0
507.44	-0.02
507.637	0
507.834	0
508.031	0.04
508.229	-0.02
508.426	0.01
508.623	0.02
508.82	-0
509.017	-0.03
509.214	-0.02
509.411	-0.01
509.608	-0.02
509.805	0
510.003	-0.02
510.2	0
510.397	0.02
510.594	-0.02
510.791	-0.02
510.988	-0.01
511.184	0.03
511.381	0.01
511.578	-0.01
511.775	0.01
511.972	-0
512.169	-0.03
512.366	0
512.563	0.02
512.76	-0.03
512.956	0.02
513.153	-0.01
513.35	0.01
513.547	-0.01
513.744	-0.01
513.94	-0.02
514.137	0.02
514.334	0.02
514.53	0.01
514.727	-0.02
514.924	0.03
515.12	-0
515.317	-0.03
515.514	-0.02
515.71	-0.02
515.907	-0.01
516.103	0.02
516.3	0.02
516.497	0.03
516.693	0.03
516.89	-0.01
517.086	-0.01
517.283	0.05
517.479	0.01
517.676	0
517.872	-0
518.068	0.02
518.265	-0.02
518.461	-0.01
518.658	-0.01
518.854	0.02
519.05	-0.01
519.247	-0.03
519.443	0
519.639	-0
519.836	0
520.032	0
520.228	0
520.424	0.04
520.621	0.01
520.817	0
521.013	0.01
521.209	0.04
521.405	0.04
521.601	0.02
521.798	0.02
521.994	0.03
522.19	-0.01
522.386	-0.03
522.582	-0
522.778	-0
522.974	-0
523.17	0.01
523.366	0.01
523.562	0.04
523.758	0.01
523.954	-0.02
524.15	0.01
524.346	0.02
524.542	-0
524.738	-0.01
524.934	0
525.129	0
525.325	0.01
525.521	0.03
525.717	0.02
525.913	0.02
526.109	-0
526.304	-0.01
526.5	0.01
526.696	0.02
526.892	-0
527.087	0.02
527.283	-0.01
527.479	0
527.674	-0.01
527.87	-0.02
528.066	0
528.261	0.02
528.457	0
528.653	-0.02
528.848	0.01
529.044	-0.01
529.239	-0.01
529.435	0.04
529.63	0.03
529.826	0.05
530.021	0.01
530.217	0
530.412	-0.01
530.608	-0.02
530.803	-0.01
530.999	0.01
531.194	-0.03
531.389	0.01
531.585	-0.02
531.78	0
531.975	0.01
532.171	0.02
532.366	0.01
532.561	-0
532.757	-0.02
532.952	0.01
533.147	0.03
533.342	0.01
533.538	-0
533.733	0.04
533.928	-0.01
534.123	-0
534.318	-0.03
534.513	0.01
534.709	-0.01
534.904	-0.01
535.099	-0.01
535.294	0
535.489	-0
535.684	-0
535.879	-0
536.074	-0
536.269	-0.02
536.464	0.02
536.659	0.01
536.854	-0.01
537.049	0.03
537.244	0.01
537.439	0
537.634	0.04
537.828	0.01
538.023	-0
538.218	-0.04
538.413	-0.01
538.608	-0.03
538.803	0.04
538.997	-0.03
539.192	0.02
539.387	0.01
539.582	0.02
539.776	0.01
539.971	-0.03
540.166	-0
540.36	-0.02
540.555	0.02
540.75	-0.01
540.944	0.01
541.139	-0.04
541.334	0.01
541.528	-0
541.723	0.01
541.917	-0.01
542.112	-0.04
542.306	0
542.501	-0.01
542.695	-0
542.89	0.01
543.084	0.01
543.279	-0.01
543.473	-0.01
543.668	0.01
543.862	-0
544.056	0.02
544.251	-0.02
544.445	0.02
544.64	0.01
544.834	-0.01
545.028	0.02
545.222	0.02
545.417	0.02
545.611	0.01
545.805	0.02
546	-0.02
546.194	-0
546.388	-0.02
546.582	0.02
546.776	0.02
546.97	0.01
547.165	0.02
547.359	0
547.553	-0.02
547.747	0.02
547.941	0
548.135	0.01
548.329	0.01
548.523	0.03
548.717	-0
548.911	-0.01
549.105	0.01
549.299	0.01
549.493	0.01
549.687	0.01
549.881	0.02
550.075	0.01
550.269	-0.02
550.463	0.02
550.657	-0.03
550.85	0.01
551.044	0
551.238	0.01
551.432	-0.03
551.626	-0.02
551.82	-0.02
552.013	0
552.207	-0
552.401	0.03
552.594	-0
552.788	-0
552.982	-0.01
553.176	-0.01
553.369	0.02
553.563	0.01
553.756	-0.03
553.95	-0.02
554.144	-0.02
554.337	0.03
554.531	0.01
554.724	0
554.918	-0.02
555.111	0.02
555.305	0.02
555.498	0.05
555.692	0.04
555.885	0.01
556.079	-0
556.272	-0.02
556.466	0.02
556.659	0.03
556.852	0.01
557.046	0.01
557.239	0.02
557.432	-0.01
557.626	-0.01
557.819	0.02
558.012	0.03
558.206	0.03
558.399	0.01
558.592	0
558.785	0.01
558.979	0.03
559.172	-0.01
559.365	-0
559.558	0.01
559.751	-0.01
559.944	-0
560.138	0.01
560.331	-0.02
560.524	-0.01
560.717	-0.01
560.91	-0
561.103	0.01
561.296	0.01
561.489	-0.02
561.682	0.01
561.875	0.02
562.068	0.04
562.261	0.01
562.454	0.03
562.647	0.01
562.84	0.02
563.032	-0
563.225	-0
563.418	-0.02
563.611	0
563.804	0
563.997	-0.01
564.19	-0.03
564.382	0
564.575	-0
564.768	-0
564.961	-0.01
565.153	-0.01
565.346	0.01
565.539	0.02
565.731	0.01
565.924	0.01
566.117	0.01
566.309	-0
566.502	0
566.695	-0.01
566.887	-0.01
567.08	-0.02
567.272	-0.02
567.465	-0.01
567.657	0
567.85	0.02
568.042	0.02
568.235	0.03
568.427	0.01
568.62	0.01
568.812	0.01
569.005	0.01
569.197	-0.02
569.389	0.01
569.582	0.04
569.774	0.02
569.966	-0.02
570.159	-0.01
570.351	0.01
570.543	-0.03
570.736	-0.02
570.928	-0.03
571.12	0
571.312	-0
571.505	-0.01
571.697	0.06
571.889	-0.05
572.081	0.01
572.273	-0.01
572.465	0.03
572.658	-0.02
572.85	0.02
573.042	0.01
573.234	-0.02
573.426	0
573.618	-0.01
573.81	0.02
574.002	0.01
574.194	0.01
574.386	-0.02
574.578	-0.06
574.77	0.01
574.962	0
575.154	-0.01
575.346	-0.01
575.538	-0.02
575.729	-0.02
575.921	-0.02
576.113	-0.02
576.305	0.03
576.497	-0.02
576.689	-0.01
576.88	-0.03
577.072	0.05
577.264	0.01
577.456	-0.01
577.647	-0.05
577.839	-0.01
578.031	0.05
578.223	-0.04
578.414	-0.03
578.606	-0.01
578.798	-0.03
578.989	-0
579.181	-0.02
579.372	0.01
579.564	-0.03
579.755	0.01
579.947	0.01
580.139	0.03
580.33	-0.04
580.522	0.01
580.713	-0.05
580.905	-0.01
581.096	0.01
581.287	-0.02
581.479	-0.02
581.67	0.01
581.862	0.02
582.053	-0.03
582.244	-0.03
582.436	-0.02
582.627	0.01
582.818	-0.01
583.01	-0.04
583.201	0.02
583.392	0.01
583.583	0
583.775	-0.01
583.966	-0.03
584.157	-0.01
584.348	0
584.54	-0.03
584.731	0.03
584.922	-0
585.113	-0.01
585.304	0.03
585.495	0.03
585.686	0.01
585.877	-0
586.068	0
586.259	0.01
586.45	0
586.641	-0.02
586.832	-0.05
587.023	-0.02
587.214	0.01
587.405	0.01
587.596	-0.02
587.787	0.04
587.978	0.03
588.169	-0.02
588.36	-0.01
588.551	0.01
588.742	0
588.932	-0
589.123	-0.01
589.314	0.03
589.505	0.01
589.696	0.02
589.886	0
590.077	-0.05
590.268	0.01
590.458	-0.02
590.649	-0.04
590.84	0.04
591.03	-0.02
591.221	-0.04
591.412	-0.02
591.602	0.02
591.793	0.01
591.984	-0.01
592.174	0.01
592.365	0.06
592.555	-0.02
592.746	0.03
592.936	-0
593.127	0.03
593.317	0.01
593.508	-0.01
593.698	-0.02
593.889	-0
594.079	-0
594.269	-0.03
594.46	-0.02
594.65	0.01
594.84	-0.02
595.031	-0.04
595.221	-0.01
595.411	-0.01
595.602	0.05
595.792	-0.02
595.982	-0.02
596.172	0.03
596.363	0.01
596.553	-0.01
596.743	0.01
596.933	-0.01
597.123	0.03
597.314	-0.03
597.504	-0.02
597.694	0.04
597.884	0
598.074	-0.01
598.264	-0.03
598.454	-0.02
598.644	0.01
598.834	0.02
599.024	-0.05
599.214	0.02
599.404	0.03
599.594	-0.02
599.784	-0.04
599.974	0.04
600.164	0.04
600.354	-0.01
600.544	-0.02
600.734	-0.02
600.924	0.04
601.114	-0.02
601.303	0
601.493	0
601.683	-0.01
601.873	0.01
602.063	-0.05
602.252	0.03
602.442	-0.07
602.632	-0.02
602.821	-0.05
603.011	0.02
603.201	-0.02
603.39	-0.03
603.58	-0.03
603.77	-0
603.959	0.03
604.149	0.01
604.339	-0
604.528	0.02
604.718	0.03
604.907	-0
605.097	-0.02
605.286	-0.03
605.476	0
605.665	0.02
605.855	0
606.044	0.02
606.234	0.01
606.423	-0.01
606.612	-0.01
606.802	0
606.991	-0.01
607.181	0.01
607.37	-0.02
607.559	-0.02
607.749	-0.02
607.938	-0.02
608.127	-0.01
608.316	-0.03
608.506	0
608.695	-0.01
608.884	-0.04
609.073	-0.02
609.263	0.01
609.452	0.03
609.641	0.01
609.83	-0.04
610.019	-0
610.208	-0.02
610.397	0.01
610.586	-0.01
610.775	-0.05
610.965	-0.03
611.154	-0.01
611.343	-0.01
611.532	0.01
611.721	-0.02
611.91	-0.02
612.099	0.02
612.287	-0.02
612.476	-0.02
612.665	-0.01
612.854	-0.02
613.043	0.04
613.232	-0.02
613.421	-0.06
613.61	-0
613.798	-0
613.987	0.01
614.176	-0
614.365	0.01
614.554	-0.01
614.742	0.04
614.931	-0.02
615.12	0
615.309	-0.01
615.497	0.01
615.686	-0.04
615.875	-0.02
616.063	0.01
616.252	-0.01
616.44	-0.02
616.629	0
616.818	0.05
617.006	-0.02
617.195	-0.03
617.383	-0.01
617.572	0
617.76	-0.02
617.949	-0.01
618.137	0.03
618.326	0.04
618.514	-0.02
618.703	-0.01
618.891	0.06
619.079	-0.02
619.268	0
619.456	-0.04
619.644	0.03
619.833	-0.02
620.021	-0.01
620.209	-0.06
620.398	0.01
620.586	0.01
620.774	0.02
620.962	0.01
621.151	0.03
621.339	0
621.527	-0.02
621.715	-0.03
621.903	-0
622.092	-0.04
622.28	0.03
622.468	-0.02
622.656	-0.01
622.844	0.01
623.032	-0.02
623.22	-0.07
623.408	0
623.596	0.03
623.784	0.03
623.972	-0.02
624.16	0
624.348	0.02
624.536	0.01
624.724	-0.02
624.912	0.02
625.1	0.03
625.288	-0.02
625.476	-0.03
625.664	0.02
625.851	-0.02
626.039	-0.02
626.227	0.01
626.415	-0.06
626.603	-0.04
626.79	-0.03
626.978	-0.01
627.166	0.02
627.354	0.01
627.541	-0
627.729	-0.08
627.917	0.04
628.104	0.05
628.292	0.03
628.48	0.01
628.667	0.01
628.855	0.03
629.042	-0.01
629.23	-0.02
629.418	0.01
629.605	0.03
629.793	0.01
629.98	-0.04
630.168	-0.01
630.355	0
630.543	0.02
630.73	-0.02
630.917	0.05
631.105	0.04
631.292	-0.03
631.48	-0.01
631.667	0.05
631.854	0.04
632.042	-0
632.229	-0.07
632.416	0.02
632.604	0.01
632.791	-0.03
632.978	0.05
633.165	0.04
633.353	0.05
633.54	0.04
633.727	-0.04
633.914	-0.01
634.101	-0.06
634.289	0.06
634.476	-0.01
634.663	0
634.85	0.02
635.037	-0.01
635.224	-0.05
635.411	0.06
635.598	0.06
635.785	0.01
635.972	-0.02
636.159	0.05
636.346	0
636.533	0.02
636.72	-0.01
636.907	-0.01
637.094	0.01
637.281	-0
637.468	0.01
637.655	0.01
637.842	-0.01
638.029	-0.05
638.215	0.06
638.402	0.01
638.589	0
638.776	0.02
638.963	0.02
639.149	0.03
639.336	0.08
639.523	0.03
639.709	-0
639.896	0.03
640.083	0.09
640.27	0.03
640.456	0.02
640.643	0.02
640.829	-0.04
641.016	0.01
641.203	-0.03
641.389	0.04
641.576	0.05
641.762	0.04
641.949	-0.02
642.135	0.05
642.322	0.02
642.508	-0.02
642.695	0.05
642.881	-0
643.068	-0.01
643.254	0.01
643.441	0.06
643.627	-0
643.813	0.03
644	0.06
644.186	0
644.372	0.03
644.559	0.04
644.745	0.03
644.931	0.03
645.118	0.02
645.304	0.05
645.49	-0.01
645.676	0.02
645.862	0.03
646.049	0.08
646.235	0.03
646.421	0.1
646.607	0.05
646.793	0.03
646.979	0.02
647.165	0.05
647.352	0.04
647.538	0.08
647.724	0.04
647.91	0.06
648.096	0.05
648.282	0.03
648.468	0.07
648.654	0.03
648.84	0.05
649.026	0.02
649.212	0.07
649.397	0.03
649.583	0.02
649.769	0.06
649.955	0.09
650.141	0.09
650.327	0.09
650.513	0.04
650.698	0.08
650.884	-0.01
651.07	0.06
651.256	0.07
651.442	0.07
651.627	0.02
651.813	0.06
651.999	0.05
652.184	0.07
652.37	0.06
652.556	0.04
652.741	0.1
652.927	0.02
653.113	0.06
653.298	0.1
653.484	0.04
653.669	0.03
653.855	0.04
654.04	0.08
654.226	0.08
654.412	0.07
654.597	0.04
654.782	0.1
654.968	0.12
655.153	0.08
655.339	0.07
655.524	0.06
655.71	0.08
655.895	0.07
656.08	0.06
656.266	0.15
656.451	0.11
656.636	0.06
656.822	0.08
657.007	0.07
657.192	0.07
657.378	0.02
657.563	0.1
657.748	0.1
657.933	0.07
658.118	0.08
658.304	0.09
658.489	0.1
658.674	0.07
658.859	0.08
659.044	0.13
659.229	0.13
659.414	0.08
659.599	0.1
659.785	0.05
659.97	0.08
660.155	0.11
660.34	0.11
660.525	0.1
660.71	0.1
660.895	0.12
661.08	0.05
661.264	0.08
661.449	0.12
661.634	0.14
661.819	0.1
662.004	0.08
662.189	0.01
662.374	0.04
662.559	0.03
662.743	-0.01
662.928	0.1
663.113	0.08
663.298	0.03
663.483	0.05
663.667	0.06
663.852	0.03
664.037	0.11
664.221	0.04
664.406	0.06
664.591	0.04
664.775	0.04
664.96	0.04
665.145	0.08
665.329	0.03
665.514	0.01
665.698	0.03
665.883	-0.03
666.068	0.08
666.252	0.01
666.437	0.04
666.621	0.05
666.806	0.03
666.99	0.02
667.174	-0.03
667.359	0.11
667.543	0.02
667.728	0.02
667.912	-0.05
668.096	0.05
668.281	0.04
668.465	0.03
668.649	0.02
668.834	-0.05
669.018	-0
669.202	0.01
669.387	0
669.571	0.07
669.755	-0.03
669.939	0.01
670.124	0.03
670.308	0.09
670.492	0.07
670.676	0.03
670.86	-0
671.044	-0.06
671.228	0.01
671.413	-0.02
671.597	-0.01
671.781	-0.05
671.965	0.03
672.149	-0.02
672.333	0.02
672.517	-0
672.701	-0.02
672.885	0.02
673.069	-0.06
673.253	0.04
673.437	-0
673.621	-0.04
673.804	-0.03
673.988	-0.02
674.172	-0.03
674.356	-0.05
674.54	0.03
674.724	0.06
674.908	-0.03
675.091	0.04
675.275	-0.02
675.459	0.01
675.643	-0.01
675.826	0
676.01	-0.02
676.194	0
676.377	0.04
676.561	0.04
676.745	0.01
676.928	0.02
677.112	0.05
677.296	-0.02
677.479	0.01
677.663	-0
677.846	0.04
678.03	-0.02
678.213	-0.02
678.397	0.02
678.58	-0.01
678.764	-0.06
678.947	-0.03
679.131	-0
679.314	0.03
679.498	0.03
679.681	0.03
679.865	0.06
680.048	-0.01
680.231	-0.01
680.415	-0.03
680.598	-0.01
680.781	-0.01
680.965	-0.07
681.148	0.02
681.331	-0.06
681.514	0
681.698	-0.02
681.881	-0.01
682.064	-0.01
682.247	-0
682.43	-0.09
682.614	-0.01
682.797	0.02
682.98	0.04
683.163	-0.06
683.346	0.04
683.529	-0.03
683.712	-0.03
683.895	0.02
684.078	-0.03
684.261	-0.03
684.444	0.02
684.627	-0.04
684.81	-0.03
684.993	-0.05
685.176	-0.01
685.359	-0.02
685.542	-0.02
685.725	0.01
685.908	0
686.091	-0.03
686.274	0.03
686.457	-0.01
686.639	0.05
686.822	0.01
687.005	-0.02
687.188	-0.04
687.371	0.04
687.553	0
687.736	0.04
687.919	0.05
688.102	0.07
688.284	-0.04
688.467	-0.01
688.65	-0.04
688.832	-0.04
689.015	-0.02
689.197	-0.02
689.38	0.1
689.563	0.08
689.745	-0.03
689.928	-0.01
690.11	0.01
690.293	-0.02
690.475	-0.05
690.658	0.01
690.84	0
691.023	-0.07
691.205	-0.03
691.388	0.01
691.57	0.04
691.752	0.01
691.935	-0.1
692.117	-0.01
692.3	-0.03
692.482	-0.03
692.664	0.01
692.847	0.03
693.029	0.06
693.211	0.06
693.393	-0
693.576	-0.08
693.758	0.01
693.94	0.01
694.122	-0.02
694.304	-0.03
694.487	0.03
694.669	0.08
694.851	-0.03
695.033	0
695.215	-0.08
695.397	-0.02
695.579	-0
695.761	-0
695.943	-0.07
696.125	-0.02
696.308	0.02
696.49	-0.14
696.671	0.08
696.853	0
697.035	0.14
697.217	-0.05
697.399	0.01
697.581	0
697.763	0
697.945	-0.08
698.127	-0.04
698.309	0.01
698.491	-0
698.672	0.01
698.854	0.01
699.036	0.05
699.218	-0.06
699.399	0.03
699.581	0.04
699.763	-0.04
699.945	-0.05
700.126	-0.02
700.308	-0
700.49	0.06
700.671	-0.09
700.853	-0.09
701.035	-0.02
701.216	-0.05
701.398	-0.04
701.579	-0.01
701.761	0.09
701.943	-0.03
702.124	-0.03
702.306	-0
702.487	0.12
702.669	-0.03
702.85	-0.02
703.031	-0.06
703.213	0.09
703.394	0
703.576	0.01
703.757	0.09
703.938	-0.01
704.12	0.14
704.301	-0.01
704.483	-0.04
704.664	0.04
704.845	0.07
705.026	0.05
705.208	-0.01
705.389	0.03
705.57	0.01
705.751	-0.01
705.933	-0.02
706.114	-0.01
706.295	0.03
706.476	-0.03
706.657	0.06
706.838	0.02
707.02	0.05
707.201	-0.01
707.382	-0.04
707.563	0.02
707.744	-0.1
707.925	-0.03
708.106	-0.01
708.287	0.05
708.468	0.05
708.649	0.02
708.83	0.02
709.011	-0.06
709.192	0.06
709.373	-0.07
709.554	-0.01
709.734	0.05
709.915	0
710.096	-0.02
710.277	-0.09
710.458	-0.02
710.639	0.06
710.819	-0.07
711	0.03
711.181	0.11
711.362	0.07
711.542	0.03
711.723	0.01
711.904	0.07
712.085	-0.01
712.265	-0.05
712.446	-0.06
712.627	-0
712.807	-0.08
712.988	-0.01
713.168	-0.11
713.349	-0.04
713.53	-0.07
713.71	-0.05
713.891	-0.01
714.071	0.01
714.252	-0.07
714.432	0.02
714.613	-0.08
714.793	0.01
714.974	0.1
715.154	0.1
715.334	0.04
715.515	0.09
715.695	-0.07
715.876	0.01
716.056	0.01
716.236	0.02
716.417	0.01
716.597	-0.05
716.777	0.07
716.957	0
717.138	0.03
717.318	0.04
717.498	-0.05
717.678	0.04
717.859	0.06
718.039	-0.06
718.219	-0
718.399	0.09
718.579	-0.1
718.759	-0.01
718.939	0
719.12	0
719.3	0.04
719.48	-0.1
719.66	-0.1
719.84	0.09
720.02	0.07
720.2	-0.01
720.38	0.05
720.56	0.12
720.74	-0.05
720.92	-0.02
721.1	0.13
721.279	0.07
721.459	-0.02
721.639	-0.05
721.819	0.03
721.999	0.04
722.179	0.08
722.359	-0.04
722.538	0.06
722.718	0.09
722.898	0.01
723.078	0.04
723.257	0.03
723.437	0.07
723.617	0.05
723.797	-0.01
723.976	0.05
724.156	0.05
724.336	0.12
724.515	0.18
724.695	-0.05
724.874	-0.1
725.054	0.12
725.234	-0.04
725.413	0.09
725.593	-0.06
725.772	0.07
725.952	-0
726.131	0.06
726.311	0.05
726.49	0.07
726.67	-0.07
726.849	-0.02
727.028	0.03
727.208	0.02
727.387	0.07
727.567	-0.03
727.746	0.05
727.925	0.03
728.105	-0
728.284	0.04
728.463	-0.01
728.643	0.03
728.822	0.04
729.001	0.03
729.18	0.06
729.359	-0.02
729.539	0.07
729.718	0.05
729.897	0.11
730.076	0.02
730.255	-0.04
730.434	0.06
730.614	0.14
730.793	0.1
730.972	0.06
731.151	0.11
731.33	0.14
731.509	0.14
731.688	0.12
731.867	-0.02
732.046	-0.02
732.225	0.25
732.404	0.04
732.583	-0.06
732.762	0.01
732.941	0.14
733.12	0.07
733.298	0.03
733.477	0.17
733.656	0.04
733.835	-0.03
734.014	0.22
734.193	0.05
734.371	0.16
734.55	0.04
734.729	-0.02
734.908	0.06
735.086	0.15
735.265	0.19
735.444	-0.06
735.623	0.08
735.801	0.01
735.98	0.12
736.159	0.02
736.337	0.12
736.516	0.09
736.694	0.08
736.873	0.04
737.052	0.15
737.23	0.13
737.409	0.04
737.587	0.21
737.766	-0.01
737.944	-0.06
738.123	0.2
738.301	0.06
738.479	0.12
738.658	0.2
738.836	-0.16
739.015	0.12
739.193	0.1
739.371	0.06
739.55	0.05
739.728	-0.02
739.906	0.16
740.085	0.2
740.263	0.07
740.441	-0.1
740.62	0.2
740.798	0.12
740.976	-0.05
741.154	0.02
741.332	0.16
741.511	-0.01
741.689	0.06
741.867	0.15
742.045	-0.02
742.223	-0.01
742.401	-0.08
742.579	-0.01
742.757	0.09
742.935	-0.05
743.114	0.07
743.292	-0.04
743.47	0.05
743.648	0.03
743.826	0.16
744.004	0.04
744.181	0.05
744.359	-0.05
744.537	0.07
744.715	-0.08
744.893	-0.05
745.071	-0.04
745.249	-0.05
745.427	0.09
745.605	0.06
745.782	0.08
745.96	0.13
746.138	-0.02
746.316	0.06
746.493	-0.04
746.671	0.06
746.849	0.03
747.027	0.12
747.204	-0.03
747.382	0.13
747.56	-0.1
747.737	0.09
747.915	-0.05
748.093	-0
748.27	-0.07
748.448	-0.06
748.625	-0.17
748.803	-0.07
748.98	-0.02
749.158	-0.03
749.335	0.11
749.513	0.03
749.69	-0
749.868	-0.03
750.045	0.04
750.223	-0.04
750.4	-0.25
750.578	0.2
750.755	0
750.932	-0.14
751.11	0.11
751.287	-0.1
751.464	0.08
751.642	-0.1
751.819	0.09
751.996	-0.03
752.173	-0.02
752.351	0
752.528	0.04
752.705	0.02
752.882	-0.09
753.06	-0.08
753.237	0.08
753.414	0.18
753.591	0.08
753.768	-0.01
753.945	-0.1
754.122	-0.18
754.299	-0
754.476	-0.04
754.654	-0.03
754.831	0.02
755.008	-0.01
755.185	0.01
755.362	-0.15
755.539	-0.1
755.716	-0.08
755.892	0.02
756.069	0.03
756.246	-0.1
756.423	-0.12
756.6	0.05
756.777	-0.07
756.954	0.17
757.131	0.02
757.307	-0.1
757.484	-0.12
757.661	-0.03
757.838	0
758.015	-0.12
758.191	0.02
758.368	0.01
758.545	0.07
758.721	0.06
758.898	-0.02
759.075	0.01
759.251	0.06
759.428	0.12
759.605	-0.11
759.781	0.07
759.958	0.06
760.134	0.08
760.311	-0.05
760.488	0.03
760.664	0.09
760.841	-0.02
761.017	-0.12
761.194	0.01
761.37	0.08
761.547	0.08
761.723	-0.08
761.899	0.14
762.076	-0.13
762.252	-0.16
762.429	-0.09
762.605	0.05
762.781	-0.02
762.958	0.04
763.134	-0.02
763.31	-0.04
763.486	0.14
763.663	-0.11
763.839	-0.05
764.015	-0.15
764.191	-0.18
764.368	-0.13
764.544	0.02
764.72	0.01
764.896	0.12
765.072	-0.06
765.248	-0.06
765.425	-0.02
765.601	-0.03
765.777	-0.16
765.953	-0.24
766.129	-0.1
766.305	-0.16
766.481	-0.03
766.657	-0.05
766.833	0.21
767.009	-0.05
767.185	-0.17
767.361	-0.02
767.537	-0.16
767.713	0.13
767.889	-0.22
768.065	-0.04
768.24	-0.24
768.416	0.01
768.592	-0.21
768.768	-0.03
768.944	0.01
769.12	-0.09
769.295	-0.03
769.471	0.01
769.647	-0.05
769.823	0.2
769.998	-0.14
770.174	-0.1
770.35	0.21
770.525	0.16
770.701	0.06
770.877	-0.06
771.052	-0.11
771.228	0.15
771.403	-0.06
771.579	-0.1
771.755	0.15
771.93	-0.07
772.106	-0.11
772.281	-0.2
772.457	-0.13
772.632	0.08
772.808	-0.27
772.983	-0.02
773.159	-0.19
773.334	0.06
773.509	-0.1
773.685	-0.06
773.86	0.13
774.036	0.06
774.211	-0.08
774.386	-0.15
774.562	-0.04
774.737	0.03
774.912	-0.01
775.087	0.05
775.263	0.1
775.438	-0.05
775.613	-0.13
775.788	-0.1
775.964	0.28
776.139	0.28
776.314	-0.15
776.489	0.05
776.664	0.07
776.839	-0.03
777.014	0.12
777.19	0.16
777.365	0.08
777.54	0.18
777.715	-0.05
777.89	-0.02
778.065	-0.21
778.24	0.03
778.415	0.11
778.59	-0.27
778.765	-0.03
778.94	0.1
779.115	-0.06
779.289	-0.09
779.464	0.03
779.639	0
779.814	-0.29
779.989	-0.11
780.164	0.13
780.339	-0.12
780.513	-0.08
780.688	-0.22
780.863	-0.14
781.038	0.04
781.212	-0.13
781.387	-0.02
781.562	0.06
781.737	0.01
781.911	0.21
782.086	-0.17
782.261	0.06
782.435	0.17
782.61	-0.05
782.784	0.02
782.959	0.24
783.134	-0.17
783.308	-0.34
783.483	-0.11
783.657	0.11
783.832	-0.04
784.006	-0.35
784.181	-0.06
784.355	0.22
784.53	-0.01
784.704	-0.04
784.878	0.44
785.053	-0.14
785.227	0.07
785.402	0.35
785.576	-0.34
785.75	-0.01
785.925	-0.01
786.099	0.09
786.273	-0.11
786.448	-0.09
786.622	0.03
786.796	-0.19
786.97	0.1
787.145	0.5
787.319	-0.04
787.493	-0.3
787.667	-0.57
787.841	-0.13
788.015	0.17
788.19	-0.02
788.364	0.16
788.538	0.2
788.712	0.25
788.886	0.06
789.06	-0.07
789.234	0.2
789.408	-0.27
789.582	-0.1
789.756	-0.12
789.93	-0.25
790.104	0.02
790.278	-0.18
790.452	-0.14
790.626	0.1
790.8	-0.29
790.973	-0.23
791.147	0.28
791.321	0.04
791.495	0.29
791.669	0.13
791.843	0.1
792.016	-0
792.19	0.16
792.364	-0.37
792.538	0.36
792.711	0.16
792.885	-0.01
793.059	-0.29
793.233	-0.55
793.406	0.2
793.58	-0.16
793.754	0.16
793.927	0.06
794.101	0.38
794.274	0.1
794.448	0.07
794.622	-0.26
794.795	0.09
794.969	-0.25
795.142	0.27
795.316	0.06
795.489	-0.32
795.663	0.34
795.836	0.18
796.009	-0.15
796.183	0.49
796.356	-0.03
796.53	0.29
796.703	-0.19
796.876	0.57
797.05	-0.17
797.223	-0.07
797.396	0.06
797.57	-0.02
797.743	0.01
797.916	-0.18
798.09	-0.16
798.263	0.33
798.436	-0.05
798.609	-0.07
798.782	-0.11
798.956	-0.11
799.129	-0.22
799.302	-0.08
799.475	-0.12
799.648	-0.22
799.821	-0.13
799.994	-0.06
800.167	-0.43
800.34	0.06
800.514	-0.18
800.687	-0.18
800.86	-0.12
801.033	-0.07
801.206	-0.06
801.379	-0.23
801.551	0.33
801.724	0.29
801.897	0.28
802.07	-0.23
802.243	-0.31
802.416	-0.11
802.589	-0.41
802.762	0.21
802.935	-0.24
803.107	0.05
803.28	0.24
803.453	0.21
803.626	-0.1
803.798	-0.13
803.971	-0.22
804.144	0.31
804.317	0.18
804.489	0.15
804.662	-0.2
804.835	-0.13
805.007	-0.38
805.18	0.32
805.353	0.14
805.525	-0.31
805.698	-0.22
805.87	0.19
806.043	0.22
806.215	-0.03
806.388	-0.25
806.56	-0.06
806.733	0.18
806.905	-0.19
807.078	-0.28
807.25	0.11
807.423	0.15
807.595	-0.21
807.768	0.35
807.94	0.33
808.112	-0.05
808.285	0.21
808.457	-0.22
808.629	-0.07
808.802	0.09
808.974	0.1
809.146	0.04
809.318	-0.2
809.491	-0.02
809.663	0.21
809.835	-0.33
810.007	0.41
810.18	0.04
810.352	-0.26
810.524	-0.1
810.696	-0.14
810.868	0.52
811.04	-0.12
811.212	-0.06
811.384	0.19
811.556	-0.14
811.728	-0.09
811.901	0.67
812.073	0.19
812.245	0.14
812.417	-0.1
812.589	-0.75
812.76	-0.19
812.932	0.41
813.104	0.23
813.276	-0.18
813.448	0.25
813.62	-0.42
813.792	0.1
813.964	0.16
814.136	0.02
814.307	-0.29
814.479	-0.27
814.651	-0.13
814.823	0.93
814.995	0.2
815.166	-0.01
815.338	0.06
815.51	-0.46
815.681	0.76
815.853	0.05
816.025	-0.42
816.196	0.36
816.368	-0.05
816.54	-0.42
816.711	-0.24
816.883	-0.06
817.054	0.82
817.226	-0.53
817.398	-0.26
817.569	-0.52
817.741	-0.05
817.912	0.05
818.084	0.22
818.255	0.03
818.426	-0.37
818.598	0.06
818.769	-0.19
818.941	0.07
819.112	0.43
819.283	0.09
819.455	-0.23
819.626	-0.11
819.798	-0.01
819.969	0.2
820.14	0.15
820.311	-0.35
820.483	0.14
820.654	0.36
820.825	-0.39
820.996	-0.02
821.168	-0.38
821.339	-0.2
821.51	-0.22
821.681	-0.52
821.852	0.05
822.023	-0.21
822.195	-0.33
822.366	0.46
822.537	-0.06
822.708	0.28
822.879	-0.59
823.05	0.05
823.221	-0.06
823.392	0.65
823.563	-0.03
823.734	0.15
823.905	0.14
824.076	-0.46
824.247	-0.02
824.418	0.15
824.589	0.1
824.759	-0.31
824.93	0.09
825.101	-0.27
825.272	0.58
825.443	0.46
825.614	0.43
825.784	-0.9
825.955	0.67
826.126	0.53
826.297	0.33
826.467	0.63
826.638	1.03
826.809	-0.96
826.98	0.1
827.15	-0.13
827.321	-0.27
827.492	0.57
827.662	0.65
827.833	0.76
828.003	-0.17
828.174	-0.41
828.345	-0.76
828.515	0.2
828.686	0.15
828.856	-0.19
829.027	-0.06
829.197	-0.87
829.368	0.16
829.538	-0.35
829.709	-0.31
829.879	-0.29
830.049	0.13
830.22	-0.44
830.39	-0.44
830.56	0.84
830.731	-0.17
830.901	-0.82
831.072	0.5
831.242	0.23
831.412	-0.72
831.582	0.27
831.753	-0.43
831.923	-0.12
832.093	0.11
832.263	-0.06
832.434	-0.62
832.604	-0.57
832.774	0.14
832.944	-0.24
833.114	-0.3
833.284	0.43
833.454	-0.28
833.624	-0.89
833.795	0.06
833.965	0.3
834.135	0.17
834.305	-0.7
834.475	-0.59
834.645	0.15
834.815	-0.33
834.985	-0.5
835.155	-0.29
835.325	0.57
835.494	0.21
835.664	-0.39
835.834	-0.17
836.004	0.33
836.174	0.05
836.344	0.41
836.514	-0.98
836.684	-0.28
836.853	0.21
837.023	0.57
837.193	-0.44
837.363	0.61
837.532	0.19
837.702	-0.1
837.872	-0.24
838.041	0.71
838.211	1.24
838.381	-0.98
838.55	0.11
838.72	1.63
838.89	0.84
839.059	0.03
839.229	-0.73
839.398	0.96
839.568	-0.84
839.738	0.06
839.907	0.6
840.077	0.46
840.246	-0.36
840.416	-0.99
840.585	-0.85
840.755	0.77
840.924	0.99
841.093	-0.08
841.263	-0.4
841.432	0.25
841.602	-0.62
841.771	-0.71
841.94	0.16
842.11	1.12
842.279	0.84
842.448	-0.21
842.617	-0.31
842.787	0.98
842.956	-0.79
843.125	0.45
843.294	0.24
843.464	0.82
843.633	-0.24
843.802	-1.24
843.971	-0.43
844.14	-0.16
844.309	0.54
844.479	-0.84
844.648	-0.04
844.817	-1.07
844.986	-0.5
845.155	-1.42
845.324	0.21
845.493	-0.59
845.662	-0.68
845.831	0.56
846	0.28
846.169	-0
846.338	1.37
846.507	-0.15
846.676	0.04
846.844	-0.16
847.013	0.48
847.182	-0.18
847.351	-0.74
847.52	-0.05
847.689	-0.18
847.858	0.02
848.026	0.06
848.195	-0.19
848.364	-0.29
848.533	-0.22
848.701	-0.5
848.87	0.1
849.039	-0.24
849.207	0.24
849.376	1.08
849.545	1.18
849.713	-0.34
849.882	-0.27
850.051	-0.12
850.219	-0.01
850.388	0.96
850.556	0.11
850.725	-0.77
850.893	-0.59
851.062	-0.18
851.23	0.25
851.399	-1.5
851.567	-0.79
851.736	-0.12
851.904	-0.98
852.073	0.68
852.241	-0.33
852.41	0.37
852.578	-0.16
852.746	-0.81
852.915	1.23
853.083	-0.71
853.251	-1.05
853.42	-0.11
853.588	0.04
853.756	1.1
853.924	0.41
854.093	0.23
854.261	-0.79
854.429	-0.73
854.597	0.09
854.765	-1.11
854.934	0.84
855.102	0.82
855.27	-0.47
855.438	-0.59
855.606	1.15
855.774	0.63
855.942	-0.28
856.11	-1.56
856.278	-0.49
856.446	0.87
856.614	-0.79
856.782	-0.88
856.95	1
857.118	-0.73
857.286	0.23
857.454	-1.21
857.622	1.12
857.79	-0.12
857.958	-0.59
858.126	-0.98
858.294	-3.03
858.462	-0.27
858.629	0.05
858.797	-0.36
858.965	0.39
859.133	0.27
859.301	0.02
859.468	0.21
859.636	-0.48
859.804	0.49
859.971	0.15
860.139	-0.06
860.307	0.96
860.474	0.01
860.642	-1.11
860.81	0.38
860.977	-1.9
861.145	0.84
861.313	-1.18
861.48	-0.02
861.648	0.91
861.815	-1.37
861.983	-0.73
862.15	-0.04
862.318	1.19
862.485	0.59
862.653	-0.31
862.82	0.13
862.988	0.59
863.155	-1.26
863.322	-1.5
863.49	-1.1
863.657	-0.78
863.824	1.96
863.992	0.71
864.159	0.08
864.326	1.86
864.494	0.13
864.661	1.85
864.828	-0.89
864.996	1.31
865.163	1.52
865.33	-0.42
865.497	-2.94
865.664	-1.24
865.832	-2.09
865.999	-0.63
866.166	-0.2
866.333	-0.21
866.5	-1.25
866.667	0.13
866.834	-2.12
867.001	1.2
867.168	-1.79
867.335	0.43
867.502	-0.39
867.669	0.66
867.836	0.4
868.003	0.74
868.17	0.44
868.337	2
868.504	2.39
868.671	-1.22
868.838	-1.59
869.005	-0.05
869.172	1.47
869.339	1
869.505	-0.12
869.672	-1.49
869.839	1.39
870.006	0.31
870.173	-1.93
870.339	0.31
870.506	0.89
870.673	-1.11
870.84	1.34
871.006	0.41
871.173	-0.34
871.34	-0.4
871.506	-1.1
871.673	1.46
871.839	-0.71
872.006	-0.02
872.173	-0.42
872.339	-1.03
872.506	1.88
872.672	-1.27
872.839	-1.42
873.005	-1.77
873.172	4.23
873.338	0.31
873.505	0.11
873.671	-1.23
873.838	0.74
874.004	-2.78
874.171	-1.12
874.337	-0.42
874.503	1.15
874.67	-1.47
874.836	-0.2
875.002	1.52
875.169	1.11
875.335	0.29
875.501	-0.43
875.668	1.95
875.834	-0.2
876	0.37
876.166	1.34
876.332	1.66
876.499	3.3
876.665	-1.93
876.831	-1.25
876.997	2.52
877.163	1.55
877.329	-1.82
877.495	0.45
877.662	2.26
877.828	-0.74
877.994	-1.04
878.16	-4.48
878.326	0.14
878.492	-0.17
878.658	0.46
878.824	0.05
878.99	1.59
879.156	-0.71
879.322	1.28
879.487	-0.72
879.653	-0.36
879.819	1.63
879.985	-0.15
880.151	-1.13
880.317	-0.02
880.483	-0.21
880.648	0.83
880.814	-2.45
880.98	-0.29
881.146	-2.2
881.312	0.69
881.477	0.61
881.643	0.16
881.809	1.73
881.974	2.06
882.14	-3.26
882.306	-0.7
882.471	1.11
882.637	-0.33
882.803	1.66
882.968	3.1
883.134	3.66
883.299	-1.11
883.465	-1.18
883.63	1.67
883.796	0.87
883.961	0.8
884.127	-0.17
884.292	-3.51
884.458	-1.37
884.623	-1.37
