Data from Apollo_Calib_20240827__AbsoluteIrradiance__103__00-52-02-433.txt Node

Date: Wed Aug 28 00:52:02 BST 2024
User: biology
Spectrometer: FLMT08252
Trigger mode: 0
Integration Time (sec): 5.000000E-1
Scans to average: 5
Electric dark correction enabled: true
Nonlinearity correction enabled: false
Boxcar width: 0
XAxis mode: Wavelengths
Number of Pixels in Spectrum: 3648
>>>>>Begin Spectral Data<<<<<
179.588	-0
179.809	-0
180.03	-0
180.251	-0
180.473	-0
180.694	0
180.915	0
181.136	-0
181.357	0
181.578	-0
181.799	-0
182.02	-0
182.241	0
182.462	-0
182.683	0
182.904	-0
183.125	-0
183.346	0
183.567	0
183.788	-0
184.009	-0
184.23	0
184.451	0
184.672	-0
184.892	-0
185.113	0
185.334	0
185.555	-0
185.776	-0
185.996	0
186.217	0
186.438	0
186.659	-0
186.879	0
187.1	-0
187.321	-0
187.541	-0
187.762	-0
187.983	0
188.203	0
188.424	0
188.644	-0
188.865	-0
189.086	-0
189.306	0
189.527	-0
189.747	-0
189.968	-0
190.188	0
190.409	-0
190.629	0
190.849	-0
191.07	0
191.29	0
191.511	0
191.731	-0
191.951	-0
192.172	0
192.392	-0
192.612	-0
192.833	0
193.053	0
193.273	0
193.493	-0
193.714	-0
193.934	0
194.154	0
194.374	0
194.594	-0
194.815	0
195.035	-0
195.255	0
195.475	-0
195.695	0
195.915	0
196.135	0
196.355	0
196.575	0
196.795	0
197.015	-0
197.235	0
197.455	-0
197.675	0
197.895	-0
198.115	0
198.335	0
198.555	-0
198.775	0
198.995	0
199.214	0
199.434	0
199.654	-0
199.874	-0
200.094	0.49
200.313	-0.3
200.533	0.07
200.753	-0.49
200.973	0.74
201.192	0.54
201.412	-0.95
201.632	-0.39
201.851	0.82
202.071	-0.4
202.291	-0.27
202.51	-0.5
202.73	0.15
202.95	-0.22
203.169	-0.78
203.389	0.23
203.608	0.22
203.828	-0.71
204.047	0.1
204.267	0.41
204.486	0.17
204.706	0.07
204.925	-0
205.145	0.04
205.364	0.26
205.583	0.61
205.803	-0.03
206.022	-0.37
206.242	-0.14
206.461	0.1
206.68	-0.38
206.9	-0
207.119	0.28
207.338	0.43
207.557	-0.11
207.777	-0.04
207.996	-0.27
208.215	0.7
208.434	0.13
208.654	-0.43
208.873	0.16
209.092	0.15
209.311	-0.29
209.53	-0.17
209.749	-0.06
209.968	-0.24
210.187	0.19
210.407	-0.52
210.626	0.06
210.845	0.2
211.064	0.04
211.283	-0.12
211.502	0.23
211.721	0.02
211.94	-0.05
212.159	-0.02
212.377	0.14
212.596	0.19
212.815	0.07
213.034	-0.05
213.253	0.21
213.472	0.41
213.691	-0.07
213.91	-0.29
214.128	-0.12
214.347	0.19
214.566	-0.34
214.785	-0.49
215.003	0.09
215.222	0.06
215.441	-0.02
215.66	-0.25
215.878	0.05
216.097	0.23
216.316	-0.06
216.534	-0.05
216.753	0.07
216.972	-0.08
217.19	-0.03
217.409	-0.08
217.627	-0.03
217.846	-0.18
218.064	0.04
218.283	0.01
218.501	0.29
218.72	0.41
218.938	-0.19
219.157	-0.13
219.375	0.1
219.594	0.21
219.812	-0.3
220.031	-0.23
220.249	0.26
220.467	0.23
220.686	-0.12
220.904	-0.12
221.122	-0.27
221.341	0.29
221.559	-0.02
221.777	-0.06
221.995	-0
222.214	0.2
222.432	-0.11
222.65	0.14
222.868	0.04
223.086	0.14
223.305	0.2
223.523	0.02
223.741	0.37
223.959	-0.08
224.177	-0.22
224.395	-0.09
224.613	-0.09
224.831	0.19
225.049	-0.04
225.267	0.07
225.485	0.08
225.703	0
225.921	0.05
226.139	-0.01
226.357	0.2
226.575	0.01
226.793	-0.07
227.011	0.62
227.229	-0.01
227.447	0.14
227.665	-0.09
227.883	-0.28
228.1	0.12
228.318	0.03
228.536	-0.26
228.754	-0.04
228.972	0.2
229.189	0.05
229.407	0.09
229.625	-0.07
229.843	0.11
230.06	0.06
230.278	0.01
230.496	0.03
230.713	-0.04
230.931	0.11
231.149	-0.01
231.366	-0.06
231.584	-0.05
231.801	0.39
232.019	-0.03
232.236	-0.18
232.454	-0.08
232.671	0.11
232.889	-0.05
233.106	-0.12
233.324	-0.04
233.541	-0
233.759	0.04
233.976	-0.12
234.194	0.03
234.411	0.03
234.628	-0.07
234.846	-0.13
235.063	0
235.28	-0.03
235.498	-0.06
235.715	-0.05
235.932	0.12
236.149	-0.06
236.367	-0.08
236.584	-0.01
236.801	-0.1
237.018	0.07
237.236	0.02
237.453	-0.18
237.67	0.12
237.887	-0.1
238.104	0
238.321	-0.12
238.538	-0.04
238.755	0.08
238.973	-0.17
239.19	0.11
239.407	0.01
239.624	-0.04
239.841	-0.16
240.058	-0.08
240.275	0.15
240.492	-0.04
240.709	0.01
240.925	-0.06
241.142	0.08
241.359	-0.15
241.576	-0.16
241.793	0.02
242.01	0.01
242.227	0.07
242.444	0
242.66	-0.02
242.877	0.03
243.094	-0.12
243.311	0.06
243.527	-0.09
243.744	0.03
243.961	0.07
244.178	-0.06
244.394	0.05
244.611	0.12
244.828	0.15
245.044	-0.09
245.261	0.03
245.477	-0.01
245.694	0.02
245.911	-0.05
246.127	0.01
246.344	0.08
246.56	0.02
246.777	-0.01
246.993	0.07
247.21	0.05
247.426	0.1
247.643	-0.01
247.859	-0.07
248.076	-0.04
248.292	0.2
248.508	0.01
248.725	0.05
248.941	0.03
249.157	0.14
249.374	-0.09
249.59	-0.05
249.806	0.03
250.023	0.01
250.239	-0.07
250.455	-0.11
250.671	-0.04
250.888	0.08
251.104	0.05
251.32	-0.08
251.536	0.01
251.752	-0.05
251.969	0.08
252.185	0.07
252.401	0.14
252.617	0.01
252.833	-0.03
253.049	-0.04
253.265	-0.01
253.481	0.02
253.697	-0.02
253.913	-0.11
254.129	0.06
254.345	-0.06
254.561	-0.13
254.777	0.01
254.993	0.14
255.209	0.01
255.425	0
255.641	-0.04
255.857	0.09
256.073	0
256.288	-0.06
256.504	-0.04
256.72	0.06
256.936	0.12
257.152	0.05
257.367	-0.01
257.583	0.05
257.799	0.01
258.015	-0.01
258.23	0.01
258.446	0.11
258.662	-0.03
258.877	-0.09
259.093	-0.13
259.309	0.01
259.524	-0.01
259.74	0.01
259.955	-0.06
260.171	-0
260.387	0.01
260.602	0.14
260.818	0.07
261.033	-0.04
261.249	-0.06
261.464	-0.02
261.68	-0.1
261.895	0.09
262.11	0.07
262.326	-0.04
262.541	-0.08
262.757	0.06
262.972	-0.01
263.187	0.01
263.403	0.02
263.618	0.13
263.833	-0
264.049	-0.05
264.264	0.01
264.479	0.01
264.694	0.15
264.91	-0.1
265.125	0.03
265.34	0.03
265.555	0.16
265.77	-0.02
265.986	-0.01
266.201	0.02
266.416	0.13
266.631	0
266.846	0
267.061	0.01
267.276	0.05
267.491	-0.11
267.706	0.02
267.921	0.04
268.136	0.01
268.351	0.01
268.566	-0.04
268.781	0.12
268.996	0.1
269.211	0.07
269.426	-0.1
269.641	0.03
269.856	0.03
270.071	-0.02
270.285	-0.07
270.5	0.03
270.715	0.04
270.93	-0.02
271.145	0.02
271.359	0.01
271.574	-0.02
271.789	0.01
272.004	-0.02
272.218	-0.05
272.433	0.09
272.648	-0.03
272.862	0.1
273.077	-0.05
273.292	-0.02
273.506	0.02
273.721	-0.08
273.936	0.05
274.15	0.08
274.365	-0.04
274.579	0.07
274.794	0.05
275.008	0.11
275.223	-0.02
275.437	0
275.652	0.08
275.866	0
276.081	0.03
276.295	0.04
276.509	0.04
276.724	0.02
276.938	-0.02
277.153	0.04
277.367	0.04
277.581	0.03
277.796	-0.02
278.01	-0.02
278.224	0.09
278.438	0.14
278.653	-0.04
278.867	0.01
279.081	-0.17
279.295	-0.02
279.51	0.05
279.724	-0.14
279.938	0.01
280.152	0.02
280.366	-0.04
280.58	0.01
280.794	0.04
281.008	-0
281.222	0.07
281.437	0.13
281.651	0.03
281.865	0.09
282.079	-0.05
282.293	-0.04
282.507	-0.04
282.721	-0.02
282.935	0.01
283.148	-0.05
283.362	-0.02
283.576	-0.05
283.79	0.05
284.004	0
284.218	0.07
284.432	-0
284.646	0.03
284.859	-0.02
285.073	-0
285.287	0.02
285.501	-0.03
285.714	-0.05
285.928	0.06
286.142	-0.02
286.356	-0
286.569	-0.01
286.783	0.08
286.997	0.05
287.21	0.07
287.424	0.03
287.637	-0.01
287.851	-0
288.065	0.04
288.278	-0.02
288.492	0.03
288.705	-0.01
288.919	0.03
289.132	-0.01
289.346	0.03
289.559	-0.03
289.773	-0.01
289.986	0
290.2	-0
290.413	0.05
290.626	-0.03
290.84	-0.03
291.053	0.01
291.267	0.05
291.48	0.03
291.693	-0.06
291.906	-0.03
292.12	-0
292.333	-0.04
292.546	-0.03
292.76	0.12
292.973	0.01
293.186	0.06
293.399	0.01
293.612	0.08
293.826	0.03
294.039	0.04
294.252	0.03
294.465	0.01
294.678	0.02
294.891	0.01
295.104	0.01
295.317	-0
295.53	0.02
295.743	0.03
295.956	0.01
296.169	0.08
296.382	0.07
296.595	0.04
296.808	-0.06
297.021	0.08
297.234	0.05
297.447	-0.01
297.66	0.01
297.873	0.06
298.086	0.03
298.299	-0
298.511	-0.04
298.724	0.03
298.937	-0.06
299.15	-0.02
299.363	0.01
299.575	0.03
299.788	0.01
300.001	0.01
300.213	0.02
300.426	-0.01
300.639	-0.03
300.852	-0.01
301.064	0.02
301.277	0.08
301.489	0.05
301.702	0.04
301.915	0.05
302.127	-0.03
302.34	-0
302.552	0.05
302.765	-0.03
302.977	0.05
303.19	-0.05
303.402	0.02
303.615	0.03
303.827	0.01
304.04	-0.01
304.252	0.04
304.464	0
304.677	0.07
304.889	0.02
305.102	0.02
305.314	-0.04
305.526	0.03
305.739	0.08
305.951	0.01
306.163	0.01
306.375	0.13
306.588	-0.04
306.8	0
307.012	-0.1
307.224	0.01
307.436	0.1
307.649	-0.05
307.861	0.02
308.073	0.07
308.285	-0
308.497	-0.02
308.709	0
308.921	-0.04
309.133	0.05
309.346	0.02
309.558	-0
309.77	0.06
309.982	0.06
310.194	0.05
310.406	-0.02
310.617	0.07
310.829	0.01
311.041	0.02
311.253	-0.02
311.465	0
311.677	-0.04
311.889	0.02
312.101	-0.02
312.313	0.05
312.524	0.03
312.736	-0.05
312.948	0.01
313.16	0.1
313.372	0.03
313.583	0.01
313.795	0.03
314.007	0
314.218	0.02
314.43	0.04
314.642	-0
314.853	-0.02
315.065	0.04
315.277	-0.01
315.488	0.05
315.7	0.04
315.912	0
316.123	-0
316.335	-0.01
316.546	0.14
316.758	0.02
316.969	-0
317.181	0
317.392	0
317.604	0.07
317.815	-0.01
318.026	-0.02
318.238	-0.02
318.449	0.03
318.661	-0.04
318.872	-0.05
319.083	-0.06
319.295	-0
319.506	-0
319.717	0.03
319.929	0.01
320.14	0.02
320.351	0.03
320.562	-0.02
320.774	0.02
320.985	0.01
321.196	-0.07
321.407	-0.09
321.618	0.05
321.829	-0.02
322.041	0.03
322.252	0
322.463	0.03
322.674	-0
322.885	-0.03
323.096	0.01
323.307	-0
323.518	0.02
323.729	-0.01
323.94	-0
324.151	0
324.362	0.06
324.573	0.02
324.784	-0.07
324.995	0.06
325.206	0.02
325.417	-0.02
325.628	-0.01
325.838	0.03
326.049	0.01
326.26	0.02
326.471	0.01
326.682	0.01
326.892	0.03
327.103	-0.02
327.314	-0.02
327.525	0.07
327.735	0.01
327.946	0
328.157	-0.02
328.368	0.03
328.578	-0.02
328.789	-0
328.999	0
329.21	-0.02
329.421	0.03
329.631	-0.01
329.842	-0.01
330.052	0.04
330.263	0.05
330.473	0.02
330.684	0.02
330.894	0.01
331.105	-0.01
331.315	0.02
331.526	-0.05
331.736	0.1
331.947	0.02
332.157	0.03
332.367	-0.01
332.578	0.07
332.788	0.06
332.999	0.03
333.209	0.01
333.419	-0.02
333.629	0.03
333.84	0.03
334.05	0
334.26	0.03
334.47	0.06
334.681	0.04
334.891	-0.05
335.101	0.03
335.311	0.06
335.521	0.01
335.732	-0.04
335.942	0.09
336.152	0.04
336.362	0.02
336.572	0.01
336.782	0.01
336.992	0.02
337.202	0.03
337.412	-0.07
337.622	0.03
337.832	0.01
338.042	0.01
338.252	-0.01
338.462	0.02
338.672	0.02
338.882	-0.02
339.092	-0.01
339.302	0.09
339.511	0.03
339.721	-0.01
339.931	-0.01
340.141	0.05
340.351	0.04
340.561	0.06
340.77	0.08
340.98	0.01
341.19	0.06
341.4	-0.02
341.609	-0.01
341.819	0.01
342.029	-0.06
342.238	0.02
342.448	0.03
342.658	0.04
342.867	0.02
343.077	-0.01
343.286	0.05
343.496	0.03
343.706	0.07
343.915	-0
344.125	0.02
344.334	0.02
344.544	-0.07
344.753	0
344.963	-0.05
345.172	-0.01
345.381	-0.03
345.591	-0.01
345.8	0.07
346.01	0.1
346.219	0.06
346.428	-0.12
346.638	0.03
346.847	0.01
347.056	0.09
347.266	0.01
347.475	0.04
347.684	0.01
347.893	0.03
348.103	0.04
348.312	-0
348.521	-0.02
348.73	0.01
348.94	0.02
349.149	0.01
349.358	-0.02
349.567	0.01
349.776	-0.04
349.985	0.01
350.194	0.05
350.403	0.07
350.612	-0.04
350.821	0.01
351.03	0.02
351.239	-0.04
351.448	-0.01
351.657	-0.04
351.866	0.06
352.075	0.04
352.284	0.02
352.493	-0.03
352.702	0.02
352.911	0.06
353.12	0.03
353.329	-0
353.538	0.05
353.746	0.01
353.955	0.03
354.164	0.01
354.373	0
354.582	0.04
354.79	0.01
354.999	0.07
355.208	0.02
355.416	0.09
355.625	-0.02
355.834	-0.02
356.042	0.03
356.251	-0.02
356.46	-0.01
356.668	0.05
356.877	0.11
357.085	0.05
357.294	-0.07
357.503	0.03
357.711	0.02
357.92	0.1
358.128	0.01
358.337	0.03
358.545	0.02
358.754	-0.02
358.962	0.08
359.17	0.02
359.379	0.04
359.587	0.05
359.796	0.04
360.004	0.05
360.212	0.04
360.421	0.07
360.629	0.05
360.837	-0.03
361.046	0.04
361.254	0.11
361.462	0.05
361.67	0.03
361.879	0.03
362.087	0.05
362.295	0.03
362.503	-0.02
362.711	-0.05
362.92	-0.04
363.128	-0
363.336	-0
363.544	-0.05
363.752	-0.01
363.96	0.02
364.168	0.01
364.376	-0.01
364.584	-0
364.792	0.04
365	0.04
365.208	0.02
365.416	0.02
365.624	0.05
365.832	0
366.04	0.1
366.248	0.05
366.456	0.04
366.664	0
366.872	0.03
367.079	-0
367.287	0.02
367.495	0.06
367.703	0.04
367.911	0.09
368.118	0.06
368.326	0.08
368.534	0.02
368.742	0.16
368.949	0.04
369.157	0.09
369.365	0.13
369.572	0.09
369.78	0.09
369.988	0.17
370.195	0.18
370.403	0.17
370.61	0.17
370.818	0.22
371.026	0.25
371.233	0.2
371.441	0.24
371.648	0.25
371.856	0.32
372.063	0.38
372.271	0.3
372.478	0.31
372.685	0.37
372.893	0.44
373.1	0.41
373.308	0.42
373.515	0.56
373.722	0.52
373.93	0.56
374.137	0.6
374.344	0.67
374.552	0.68
374.759	0.71
374.966	0.7
375.173	0.76
375.381	0.83
375.588	0.81
375.795	0.77
376.002	0.89
376.209	0.91
376.417	0.96
376.624	1.1
376.831	1.09
377.038	1.1
377.245	1.13
377.452	1.24
377.659	1.35
377.866	1.37
378.073	1.49
378.28	1.57
378.487	1.65
378.694	1.73
378.901	1.77
379.108	1.78
379.315	1.92
379.522	2.04
379.729	2.11
379.936	2.14
380.143	2.32
380.35	2.35
380.557	2.49
380.763	2.54
380.97	2.58
381.177	2.7
381.384	2.85
381.591	2.89
381.797	2.88
382.004	3.03
382.211	3.12
382.418	3.09
382.624	3.29
382.831	3.15
383.038	3.29
383.244	3.28
383.451	3.24
383.658	3.17
383.864	3.29
384.071	3.15
384.277	3.15
384.484	3.05
384.69	3.07
384.897	2.93
385.103	2.92
385.31	2.81
385.516	2.68
385.723	2.63
385.929	2.51
386.136	2.4
386.342	2.39
386.549	2.29
386.755	2.21
386.961	2.1
387.168	2.03
387.374	1.91
387.58	1.9
387.787	1.72
387.993	1.73
388.199	1.65
388.406	1.52
388.612	1.43
388.818	1.35
389.024	1.32
389.231	1.35
389.437	1.36
389.643	1.27
389.849	1.23
390.055	1.19
390.261	1.16
390.467	1.09
390.674	1.04
390.88	1.02
391.086	1.03
391.292	0.98
391.498	0.98
391.704	0.95
391.91	0.88
392.116	0.9
392.322	0.76
392.528	0.81
392.734	0.78
392.94	0.8
393.146	0.75
393.352	0.7
393.557	0.68
393.763	0.63
393.969	0.64
394.175	0.6
394.381	0.64
394.587	0.58
394.792	0.56
394.998	0.55
395.204	0.58
395.41	0.51
395.615	0.46
395.821	0.5
396.027	0.49
396.233	0.45
396.438	0.43
396.644	0.52
396.85	0.42
397.055	0.36
397.261	0.43
397.466	0.36
397.672	0.37
397.878	0.36
398.083	0.35
398.289	0.25
398.494	0.34
398.7	0.32
398.905	0.21
399.111	0.29
399.316	0.25
399.522	0.23
399.727	0.28
399.932	0.2
400.138	0.19
400.343	0.27
400.549	0.24
400.754	0.23
400.959	0.22
401.165	0.22
401.37	0.23
401.575	0.29
401.78	0.17
401.986	0.2
402.191	0.17
402.396	0.15
402.601	0.19
402.807	0.2
403.012	0.19
403.217	0.18
403.422	0.18
403.627	0.13
403.832	0.14
404.037	0.16
404.243	0.2
404.448	0.13
404.653	0.14
404.858	0.17
405.063	0.21
405.268	0.13
405.473	0.09
405.678	0.09
405.883	0.25
406.088	0.13
406.293	0.12
406.498	0.1
406.703	0.18
406.907	0.11
407.112	0.08
407.317	0.12
407.522	0.15
407.727	0.09
407.932	0.11
408.136	0.2
408.341	0.14
408.546	0.12
408.751	0.13
408.956	0.08
409.16	0.12
409.365	0.1
409.57	0.08
409.774	0.1
409.979	0.15
410.184	0.13
410.388	0.02
410.593	0.15
410.798	0.12
411.002	0.12
411.207	0.09
411.411	0.04
411.616	0.08
411.82	0.08
412.025	0.11
412.229	0.01
412.434	0.15
412.638	0.1
412.843	0.1
413.047	0.14
413.252	0
413.456	0.02
413.66	0.11
413.865	0.07
414.069	0.13
414.273	0.06
414.478	0.02
414.682	0.03
414.886	-0.03
415.091	0
415.295	-0
415.499	0.1
415.703	-0.02
415.908	0.04
416.112	-0.03
416.316	0.1
416.52	0.09
416.724	0.08
416.929	0
417.133	0.1
417.337	0.04
417.541	0.02
417.745	0
417.949	0.08
418.153	0.05
418.357	0
418.561	0.12
418.765	0.05
418.969	0.14
419.173	0.05
419.377	-0.01
419.581	0.11
419.785	0.04
419.989	-0
420.193	0.02
420.397	0.04
420.601	0.07
420.804	0.07
421.008	0.05
421.212	0.06
421.416	0.09
421.62	0.02
421.823	0.05
422.027	0.11
422.231	0.07
422.435	0.03
422.638	0.05
422.842	-0.01
423.046	0.01
423.249	0.09
423.453	0.09
423.657	0.08
423.86	0.02
424.064	0.03
424.268	0.09
424.471	0.02
424.675	0.11
424.878	0.12
425.082	0.06
425.285	0.07
425.489	0.09
425.692	0.01
425.896	0
426.099	0.09
426.303	0.01
426.506	0.01
426.71	0.08
426.913	0.11
427.116	0.09
427.32	0.05
427.523	0.05
427.726	0.08
427.93	-0.02
428.133	0.03
428.336	-0
428.54	-0.02
428.743	0.07
428.946	0.06
429.149	0.05
429.353	0.08
429.556	0.02
429.759	0.04
429.962	-0.02
430.165	0.02
430.368	0.03
430.571	0.08
430.775	0.09
430.978	0.03
431.181	0.06
431.384	0.06
431.587	0.04
431.79	0.05
431.993	0.07
432.196	0.05
432.399	0.04
432.602	0.1
432.805	0.03
433.008	0.07
433.211	-0
433.414	0.08
433.616	0.08
433.819	0.08
434.022	-0.06
434.225	0.09
434.428	0.14
434.631	0.17
434.833	0.06
435.036	0.04
435.239	0.13
435.442	0.06
435.645	0.02
435.847	0.05
436.05	0.12
436.253	0.12
436.455	0.02
436.658	0.05
436.861	0.14
437.063	0.03
437.266	0.05
437.468	0.14
437.671	0.18
437.874	0.07
438.076	0
438.279	0.02
438.481	0.08
438.684	0.04
438.886	0.09
439.089	-0
439.291	0.06
439.494	0.11
439.696	0.02
439.899	0.08
440.101	0.08
440.303	0.01
440.506	0.1
440.708	0.11
440.91	0.09
441.113	0.07
441.315	0.11
441.517	0.06
441.72	0.12
441.922	0.08
442.124	0.04
442.326	0.12
442.529	0.13
442.731	0.04
442.933	0.14
443.135	0.09
443.337	0.08
443.539	0.09
443.742	0.03
443.944	0.1
444.146	0.05
444.348	0.06
444.55	0.06
444.752	0.09
444.954	0.02
445.156	0.11
445.358	0.04
445.56	0.17
445.762	0.1
445.964	0.03
446.166	0.09
446.368	0.1
446.57	0.11
446.772	0.08
446.974	0.07
447.175	0.07
447.377	0.06
447.579	0.09
447.781	0.02
447.983	0.12
448.184	0.09
448.386	0.13
448.588	0.02
448.79	0.08
448.991	0.06
449.193	0.07
449.395	0.06
449.597	0.14
449.798	0.08
450	0.1
450.202	0.06
450.403	0.1
450.605	0.11
450.806	0.11
451.008	-0.01
451.21	0.06
451.411	0.04
451.613	0.09
451.814	0.13
452.016	0.12
452.217	0.08
452.419	0.14
452.62	0.04
452.821	0.07
453.023	0.15
453.224	0.14
453.426	0.07
453.627	0.04
453.828	0.14
454.03	0.07
454.231	0.13
454.432	0.06
454.634	0.17
454.835	0.09
455.036	0.05
455.238	0.07
455.439	0.18
455.64	0.06
455.841	-0.01
456.042	0.15
456.244	0.07
456.445	0.09
456.646	0.01
456.847	0.06
457.048	0.09
457.249	0.09
457.45	0.28
457.651	0.01
457.852	0.08
458.054	0.03
458.255	0.04
458.456	0.08
458.657	0.07
458.858	0.06
459.058	0.06
459.259	0.06
459.46	0.04
459.661	0.04
459.862	0.17
460.063	0.04
460.264	0.09
460.465	0.01
460.666	0.15
460.866	0.02
461.067	0.09
461.268	0.08
461.469	0.03
461.67	0.04
461.87	0.02
462.071	0.03
462.272	-0.02
462.473	-0
462.673	0.09
462.874	0.02
463.075	0.02
463.275	0
463.476	0.04
463.676	0.05
463.877	0.07
464.078	-0.01
464.278	0.09
464.479	0.01
464.679	0.07
464.88	0.05
465.08	0.08
465.281	0.01
465.481	0.01
465.682	0.02
465.882	0.03
466.083	0.06
466.283	0.05
466.483	0.06
466.684	0
466.884	-0.01
467.085	0.04
467.285	0.08
467.485	0.01
467.686	0.03
467.886	-0.02
468.086	0.03
468.286	0.04
468.487	0.02
468.687	0.02
468.887	0.02
469.087	0.02
469.287	0.04
469.488	-0.04
469.688	0.05
469.888	0.08
470.088	0.06
470.288	0.07
470.488	0.07
470.688	-0.03
470.888	-0
471.088	0.01
471.288	0.04
471.488	0.07
471.688	0.04
471.888	0
472.088	0.05
472.288	0.08
472.488	-0.01
472.688	0
472.888	0.01
473.088	0.03
473.288	0.04
473.488	0.05
473.688	0.09
473.887	0
474.087	-0
474.287	0.05
474.487	-0.01
474.687	0.09
474.886	0.01
475.086	0.01
475.286	0.06
475.486	0
475.685	0.01
475.885	-0.01
476.085	0.02
476.284	0.05
476.484	0.02
476.684	0.08
476.883	0.06
477.083	0.02
477.282	-0.01
477.482	0.07
477.681	0.05
477.881	0.05
478.08	-0.02
478.28	-0.01
478.479	0.05
478.679	0.11
478.878	-0.01
479.078	-0.02
479.277	-0.01
479.477	0.01
479.676	0.07
479.875	0.01
480.075	-0.02
480.274	0.04
480.473	0.07
480.673	-0.01
480.872	0.02
481.071	0.03
481.271	0.02
481.47	-0.01
481.669	0.02
481.868	-0
482.067	0
482.267	-0
482.466	-0.02
482.665	-0.03
482.864	-0.01
483.063	-0.02
483.262	0.02
483.461	0.06
483.661	0.04
483.86	0.01
484.059	0.02
484.258	0.03
484.457	0.03
484.656	0
484.855	0.05
485.054	-0.04
485.253	-0.01
485.452	-0.02
485.651	0.01
485.849	0.01
486.048	-0
486.247	-0.03
486.446	0.03
486.645	-0.03
486.844	0
487.043	0.01
487.241	0.03
487.44	0
487.639	-0
487.838	0.01
488.037	0.02
488.235	0.06
488.434	0.02
488.633	0
488.831	0.02
489.03	0.05
489.229	0.01
489.427	-0.02
489.626	0.02
489.825	0.06
490.023	0.01
490.222	-0.01
490.42	0.02
490.619	0.03
490.817	0.03
491.016	-0
491.214	0.05
491.413	0
491.611	0.01
491.81	0.03
492.008	0.04
492.207	0.04
492.405	0.02
492.604	-0.01
492.802	0.02
493	-0
493.199	0.01
493.397	0.04
493.595	0.02
493.794	0.01
493.992	0.04
494.19	-0
494.388	0
494.587	-0.01
494.785	0.04
494.983	-0.05
495.181	0.02
495.379	0.01
495.578	-0
495.776	0.03
495.974	0.02
496.172	0
496.37	-0.01
496.568	-0.01
496.766	0.01
496.964	0.02
497.162	0.01
497.36	-0.02
497.558	0.03
497.756	0.05
497.954	0
498.152	-0.02
498.35	0.02
498.548	0.01
498.746	0.01
498.944	-0.01
499.142	-0
499.34	-0.03
499.538	0.01
499.736	0.01
499.933	0.04
500.131	0.05
500.329	0.01
500.527	0.04
500.725	0.06
500.922	0.03
501.12	0.01
501.318	0.01
501.516	-0.02
501.713	0.01
501.911	-0.02
502.109	-0.01
502.306	0.02
502.504	0.01
502.701	0.01
502.899	0.01
503.097	0.06
503.294	0.01
503.492	-0.01
503.689	0.01
503.887	0.02
504.084	0.04
504.282	0.02
504.479	-0.03
504.677	0
504.874	-0.02
505.072	0.02
505.269	0.01
505.466	0.03
505.664	0.02
505.861	-0.02
506.059	-0.01
506.256	0.02
506.453	0.01
506.651	0.03
506.848	0.03
507.045	0.01
507.242	0.02
507.44	0
507.637	0.02
507.834	0.01
508.031	0.02
508.229	-0.02
508.426	-0
508.623	0.02
508.82	-0.01
509.017	-0
509.214	0.01
509.411	0.01
509.608	-0.01
509.805	0.01
510.003	0
510.2	-0.02
510.397	0.02
510.594	-0.01
510.791	-0
510.988	0
511.184	0.03
511.381	0.03
511.578	-0.01
511.775	0.02
511.972	-0.01
512.169	-0.01
512.366	-0
512.563	0.03
512.76	-0.02
512.956	0.01
513.153	-0
513.35	0
513.547	-0.01
513.744	-0.01
513.94	-0.03
514.137	0.03
514.334	0.01
514.53	0.01
514.727	-0
514.924	0.04
515.12	-0.02
515.317	-0.02
515.514	0.01
515.71	-0.01
515.907	0
516.103	0
516.3	0.02
516.497	0.02
516.693	0.05
516.89	0.02
517.086	-0.02
517.283	0.04
517.479	0.01
517.676	0
517.872	-0.01
518.068	-0.01
518.265	0
518.461	-0.01
518.658	0
518.854	-0.01
519.05	-0.01
519.247	-0.02
519.443	0.03
519.639	0.02
519.836	0.01
520.032	0.01
520.228	0.01
520.424	0.03
520.621	0.03
520.817	-0.01
521.013	0.01
521.209	0
521.405	0.05
521.601	-0.01
521.798	0
521.994	0.03
522.19	-0.02
522.386	-0.04
522.582	0.03
522.778	0.01
522.974	0.01
523.17	0.01
523.366	0.05
523.562	0.03
523.758	0.01
523.954	-0.02
524.15	0.02
524.346	0.02
524.542	0
524.738	-0
524.934	0.02
525.129	0.01
525.325	0
525.521	0.02
525.717	0.01
525.913	0
526.109	0.01
526.304	0.01
526.5	0.02
526.696	0.01
526.892	-0.01
527.087	0.01
527.283	-0.01
527.479	0.04
527.674	-0
527.87	0.01
528.066	0
528.261	0.02
528.457	0.02
528.653	0.01
528.848	0
529.044	0.01
529.239	0
529.435	0.03
529.63	0.01
529.826	0.04
530.021	0.01
530.217	0.02
530.412	0
530.608	-0.01
530.803	0.01
530.999	0.01
531.194	-0.02
531.389	0.02
531.585	-0.05
531.78	0
531.975	-0.01
532.171	0.03
532.366	0.01
532.561	0.01
532.757	-0.01
532.952	-0.01
533.147	0
533.342	0.01
533.538	-0.02
533.733	0.04
533.928	0.01
534.123	0
534.318	-0.03
534.513	-0
534.709	-0
534.904	-0.02
535.099	-0.01
535.294	0.01
535.489	0
535.684	0
535.879	-0.01
536.074	-0
536.269	-0.01
536.464	0
536.659	0.01
536.854	0.01
537.049	-0
537.244	0
537.439	-0.02
537.634	0.02
537.828	0.01
538.023	-0.01
538.218	-0.03
538.413	0
538.608	-0.03
538.803	0.01
538.997	-0.02
539.192	0.02
539.387	0.03
539.582	0
539.776	0.02
539.971	0
540.166	0.01
540.36	-0.02
540.555	0.02
540.75	-0.01
540.944	0.02
541.139	-0.02
541.334	0.01
541.528	-0
541.723	0.03
541.917	-0
542.112	-0.02
542.306	0
542.501	0.01
542.695	0.02
542.89	0.01
543.084	0
543.279	-0.01
543.473	0.01
543.668	0
543.862	0
544.056	0.01
544.251	0
544.445	0.01
544.64	0
544.834	-0.01
545.028	0.01
545.222	0.01
545.417	0.03
545.611	0
545.805	0.01
546	0
546.194	0.01
546.388	-0.01
546.582	0.01
546.776	0
546.97	0.02
547.165	-0
547.359	0.02
547.553	0
547.747	0.01
547.941	-0.01
548.135	-0.01
548.329	0.02
548.523	0.05
548.717	-0
548.911	-0.01
549.105	-0.02
549.299	0
549.493	0.02
549.687	0.04
549.881	0
550.075	-0.01
550.269	-0.01
550.463	0.02
550.657	-0.03
550.85	0.02
551.044	0.01
551.238	0.02
551.432	-0.02
551.626	-0.02
551.82	0.02
552.013	-0.02
552.207	-0
552.401	0.02
552.594	0.01
552.788	0.01
552.982	0
553.176	0
553.369	0.03
553.563	0.04
553.756	-0.04
553.95	-0
554.144	0
554.337	0.02
554.531	0
554.724	0
554.918	-0
555.111	0.02
555.305	0.02
555.498	0.06
555.692	0.03
555.885	-0.01
556.079	0
556.272	-0.01
556.466	0.03
556.659	0.01
556.852	-0
557.046	0.01
557.239	0.03
557.432	-0.01
557.626	-0.01
557.819	-0.01
558.012	0.02
558.206	0.03
558.399	0.02
558.592	0
558.785	-0.02
558.979	0.04
559.172	0.02
559.365	-0
559.558	0.02
559.751	0.01
559.944	0.04
560.138	-0.02
560.331	-0
560.524	0
560.717	-0.01
560.91	0.01
561.103	0.02
561.296	0.03
561.489	0.01
561.682	0.03
561.875	0.03
562.068	0.01
562.261	0.03
562.454	0.03
562.647	0.02
562.84	0.02
563.032	-0.02
563.225	0.02
563.418	-0.01
563.611	-0
563.804	-0.01
563.997	-0.02
564.19	-0.01
564.382	0.02
564.575	0
564.768	-0.01
564.961	-0.01
565.153	-0.02
565.346	0.04
565.539	0.01
565.731	0.03
565.924	0.04
566.117	0.03
566.309	-0.01
566.502	-0.02
566.695	-0
566.887	0.01
567.08	-0.01
567.272	-0.01
567.465	0
567.657	0.03
567.85	0.02
568.042	-0.02
568.235	0.04
568.427	-0.02
568.62	0.01
568.812	0.03
569.005	0
569.197	-0.02
569.389	0.02
569.582	-0
569.774	0
569.966	-0.03
570.159	-0.04
570.351	0.04
570.543	-0.02
570.736	0.02
570.928	-0.01
571.12	0.02
571.312	-0.02
571.505	-0.01
571.697	0.02
571.889	-0.03
572.081	-0
572.273	-0.03
572.465	0.03
572.658	0.01
572.85	0.01
573.042	0.01
573.234	0.01
573.426	0.02
573.618	-0.02
573.81	0.01
574.002	0.04
574.194	0.04
574.386	-0.03
574.578	-0.06
574.77	-0.02
574.962	-0.01
575.154	-0.02
575.346	0.01
575.538	0.02
575.729	-0
575.921	-0.01
576.113	0
576.305	0.02
576.497	-0.02
576.689	0.01
576.88	-0.01
577.072	0.02
577.264	0.01
577.456	0
577.647	-0.05
577.839	-0
578.031	0.01
578.223	-0.04
578.414	-0.01
578.606	0.02
578.798	0.03
578.989	-0.02
579.181	-0
579.372	-0
579.564	-0.01
579.755	0.02
579.947	-0
580.139	0.03
580.33	-0.05
580.522	-0.01
580.713	-0.07
580.905	0.01
581.096	0.03
581.287	0.02
581.479	0.01
581.67	0.03
581.862	0.01
582.053	-0.02
582.244	-0.04
582.436	-0.01
582.627	-0.01
582.818	-0.03
583.01	-0.01
583.201	0.03
583.392	0.01
583.583	-0
583.775	0.01
583.966	-0.02
584.157	0
584.348	-0.01
584.54	-0.03
584.731	0.01
584.922	-0.01
585.113	-0
585.304	0.03
585.495	0.03
585.686	0
585.877	-0
586.068	0.04
586.259	0.01
586.45	-0.01
586.641	-0.03
586.832	-0.05
587.023	0.01
587.214	-0.01
587.405	0
587.596	-0.01
587.787	0.01
587.978	0.02
588.169	-0.02
588.36	-0
588.551	0.02
588.742	-0.01
588.932	0.02
589.123	0.01
589.314	0.02
589.505	0.02
589.696	0.01
589.886	-0.03
590.077	-0.03
590.268	0
590.458	-0.06
590.649	-0.04
590.84	0.03
591.03	-0.02
591.221	-0.03
591.412	-0.04
591.602	-0.01
591.793	0.04
591.984	-0.02
592.174	-0.01
592.365	0.05
592.555	-0.02
592.746	0.01
592.936	0.02
593.127	0.01
593.317	0.05
593.508	-0.01
593.698	-0.01
593.889	0.01
594.079	0.01
594.269	-0.02
594.46	-0
594.65	0.01
594.84	0.02
595.031	-0.01
595.221	-0.03
595.411	-0.04
595.602	0.02
595.792	0.01
595.982	0.01
596.172	0.05
596.363	0
596.553	0
596.743	0.02
596.933	-0
597.123	0.04
597.314	-0.02
597.504	-0.01
597.694	0.02
597.884	-0
598.074	-0.01
598.264	-0.03
598.454	0.02
598.644	-0.01
598.834	-0.01
599.024	-0.04
599.214	-0.01
599.404	0.01
599.594	-0.01
599.784	-0.01
599.974	0.02
600.164	0.01
600.354	-0.05
600.544	-0.02
600.734	0.02
600.924	0.02
601.114	0
601.303	0.02
601.493	0.01
601.683	-0.01
601.873	0.03
602.063	-0.05
602.252	0.03
602.442	-0.06
602.632	-0.01
602.821	-0.04
603.011	0.02
603.201	-0.02
603.39	-0.02
603.58	0.01
603.77	0.03
603.959	0.04
604.149	-0.01
604.339	-0.01
604.528	0
604.718	0.06
604.907	-0
605.097	-0.01
605.286	-0.05
605.476	0
605.665	0.04
605.855	0.01
606.044	0.04
606.234	0.02
606.423	-0
606.612	-0.04
606.802	0.01
606.991	0.02
607.181	0.02
607.37	-0.03
607.559	-0.01
607.749	-0.01
607.938	0.01
608.127	-0
608.316	-0.01
608.506	-0.01
608.695	0.01
608.884	-0.02
609.073	0.02
609.263	0.03
609.452	-0.01
609.641	0.01
609.83	-0
610.019	0.01
610.208	-0.01
610.397	-0.01
610.586	0.01
610.775	-0.01
610.965	-0.02
611.154	-0.03
611.343	-0
611.532	-0.02
611.721	-0
611.91	-0.01
612.099	0.03
612.287	0
612.476	-0.05
612.665	-0.01
612.854	-0.03
613.043	0.04
613.232	0.01
613.421	-0.04
613.61	0.02
613.798	-0
613.987	0.05
614.176	0.01
614.365	0.05
614.554	0.01
614.742	-0.01
614.931	-0.02
615.12	0.01
615.309	-0
615.497	0.04
615.686	-0.01
615.875	0.01
616.063	0.01
616.252	0.01
616.44	-0.02
616.629	0.01
616.818	0.01
617.006	-0.01
617.195	-0
617.383	-0.01
617.572	0
617.76	-0.01
617.949	-0.02
618.137	0.03
618.326	0.04
618.514	-0.02
618.703	0
618.891	0.06
619.079	-0.06
619.268	0.01
619.456	-0
619.644	0.05
619.833	0.02
620.021	-0.01
620.209	-0.07
620.398	0.01
620.586	0.01
620.774	-0
620.962	-0.01
621.151	0.06
621.339	0
621.527	-0.03
621.715	-0.05
621.903	-0.05
622.092	-0.04
622.28	0.02
622.468	0.01
622.656	0.01
622.844	0.02
623.032	-0.01
623.22	-0.04
623.408	0.05
623.596	0
623.784	0.03
623.972	-0.02
624.16	-0
624.348	0.06
624.536	0.01
624.724	0
624.912	0.07
625.1	0.05
625.288	-0.04
625.476	-0.03
625.664	0.04
625.851	-0.01
626.039	0
626.227	0.02
626.415	0.01
626.603	-0.04
626.79	0.02
626.978	-0
627.166	0.04
627.354	0.02
627.541	-0.02
627.729	-0.06
627.917	0.02
628.104	0.05
628.292	0.04
628.48	-0.01
628.667	0.04
628.855	0.04
629.042	0.03
629.23	-0.02
629.418	0.02
629.605	-0.03
629.793	-0.02
629.98	0.01
630.168	-0
630.355	-0.01
630.543	0.02
630.73	-0.04
630.917	0.02
631.105	0.07
631.292	-0.01
631.48	0.01
631.667	0.08
631.854	0.03
632.042	0.01
632.229	-0.04
632.416	0.01
632.604	0.01
632.791	-0.03
632.978	0.02
633.165	0.02
633.353	0.04
633.54	0.02
633.727	-0.05
633.914	-0.03
634.101	-0.07
634.289	0.03
634.476	0
634.663	-0.01
634.85	0.01
635.037	-0.03
635.224	-0.02
635.411	0.03
635.598	0.05
635.785	0.04
635.972	0.02
636.159	0.04
636.346	0
636.533	0.04
636.72	0.01
636.907	0.02
637.094	0.04
637.281	0.02
637.468	0.03
637.655	0
637.842	0.02
638.029	-0.03
638.215	0.04
638.402	0.01
638.589	0
638.776	0.02
638.963	-0
639.149	0.06
639.336	0.07
639.523	0.04
639.709	0.03
639.896	0.03
640.083	0.07
640.27	0.07
640.456	0.02
640.643	0.02
640.829	-0.02
641.016	0.01
641.203	-0.02
641.389	0.06
641.576	0.01
641.762	0.05
641.949	-0.01
642.135	0.04
642.322	0.02
642.508	-0.03
642.695	0.03
642.881	0.01
643.068	0.08
643.254	0.04
643.441	0.06
643.627	0.01
643.813	0
644	0.05
644.186	0.05
644.372	0.04
644.559	0.07
644.745	0.04
644.931	0.02
645.118	0.03
645.304	0.05
645.49	0.02
645.676	0.04
645.862	0.03
646.049	0.07
646.235	0.05
646.421	0.08
646.607	0.08
646.793	0.03
646.979	0.02
647.165	0.08
647.352	0.11
647.538	0.09
647.724	0.04
647.91	0.07
648.096	0.08
648.282	0.08
648.468	0.05
648.654	0.06
648.84	0.04
649.026	0.07
649.212	0.06
649.397	0.02
649.583	0.03
649.769	0.07
649.955	0.05
650.141	0.11
650.327	0.08
650.513	0.04
650.698	0.05
650.884	-0
651.07	0.08
651.256	0.07
651.442	0.04
651.627	0.06
651.813	0.07
651.999	0.03
652.184	0.06
652.37	0.07
652.556	0.07
652.741	0.11
652.927	0.03
653.113	0.09
653.298	0.09
653.484	0.06
653.669	0.03
653.855	0.11
654.04	0.1
654.226	0.09
654.412	0.08
654.597	0.08
654.782	0.1
654.968	0.12
655.153	0.1
655.339	0.08
655.524	0.05
655.71	0.16
655.895	0.1
656.08	0.09
656.266	0.17
656.451	0.12
656.636	0.07
656.822	0.1
657.007	0.05
657.192	0.08
657.378	0.04
657.563	0.09
657.748	0.13
657.933	0.09
658.118	0.09
658.304	0.11
658.489	0.14
658.674	0.13
658.859	0.11
659.044	0.14
659.229	0.15
659.414	0.11
659.599	0.11
659.785	0.08
659.97	0.06
660.155	0.13
660.34	0.11
660.525	0.07
660.71	0.09
660.895	0.17
661.08	0.08
661.264	0.06
661.449	0.14
661.634	0.16
661.819	0.11
662.004	0.12
662.189	-0
662.374	0.04
662.559	0.04
662.743	0.03
662.928	0.06
663.113	0.06
663.298	0.02
663.483	0.04
663.667	0.07
663.852	0.03
664.037	0.1
664.221	0.05
664.406	0.11
664.591	0.08
664.775	0.03
664.96	0.06
665.145	0.05
665.329	0.06
665.514	0.03
665.698	0.04
665.883	0.02
666.068	0.1
666.252	0.03
666.437	-0.02
666.621	0.04
666.806	0.06
666.99	0.02
667.174	-0.03
667.359	0.07
667.543	0.05
667.728	0.02
667.912	-0
668.096	0.05
668.281	-0.01
668.465	0.02
668.649	0.04
668.834	-0.02
669.018	0
669.202	0.06
669.387	-0.01
669.571	0.1
669.755	-0.03
669.939	0.01
670.124	0.01
670.308	0.08
670.492	0.1
670.676	0.02
670.86	0.02
671.044	-0
671.228	0.09
671.413	-0.01
671.597	-0.03
671.781	-0
671.965	0.05
672.149	0.02
672.333	0.01
672.517	-0.01
672.701	0.06
672.885	-0.01
673.069	-0.07
673.253	0.02
673.437	0.02
673.621	-0.04
673.804	-0
673.988	0.02
674.172	-0
674.356	-0.05
674.54	-0.03
674.724	0.09
674.908	-0.01
675.091	0.02
675.275	-0.03
675.459	0.03
675.643	0
675.826	0.02
676.01	0.03
676.194	-0.02
676.377	-0
676.561	0.06
676.745	-0.01
676.928	-0.02
677.112	0.06
677.296	-0.02
677.479	-0.02
677.663	-0.01
677.846	0.02
678.03	-0.02
678.213	-0.02
678.397	0.03
678.58	-0.02
678.764	0
678.947	-0.02
679.131	0.01
679.314	0.02
679.498	0
679.681	0.03
679.865	0.02
680.048	-0.03
680.231	0
680.415	-0.02
680.598	0.02
680.781	-0.03
680.965	-0.01
681.148	0.02
681.331	0.02
681.514	-0
681.698	-0.05
681.881	0.01
682.064	0.02
682.247	-0.03
682.43	-0.04
682.614	0.01
682.797	0.06
682.98	0.01
683.163	-0.06
683.346	0.05
683.529	-0.03
683.712	-0.03
683.895	0.02
684.078	-0.01
684.261	-0.03
684.444	-0
684.627	0.03
684.81	-0.04
684.993	-0.02
685.176	0.05
685.359	-0.07
685.542	-0.06
685.725	-0.02
685.908	0.02
686.091	0.01
686.274	0.05
686.457	0.04
686.639	0.01
686.822	0.03
687.005	0.02
687.188	0.02
687.371	0.04
687.553	0.04
687.736	0.02
687.919	0.08
688.102	0.12
688.284	0
688.467	-0
688.65	-0.03
688.832	-0.06
689.015	-0.03
689.197	-0.08
689.38	0.1
689.563	0.08
689.745	-0.01
689.928	-0.05
690.11	-0
690.293	0
690.475	0.02
690.658	0.01
690.84	-0.08
691.023	0
691.205	0.01
691.388	0.01
691.57	-0.01
691.752	0.03
691.935	-0.03
692.117	-0.05
692.3	0.01
692.482	0.02
692.664	0.01
692.847	-0.05
693.029	-0
693.211	0.01
693.393	0.02
693.576	0
693.758	-0.02
693.94	-0.04
694.122	-0.03
694.304	-0.04
694.487	0.01
694.669	0.05
694.851	-0.02
695.033	0
695.215	0
695.397	-0.04
695.579	0.02
695.761	-0
695.943	-0.03
696.125	0.04
696.308	0.04
696.49	-0.08
696.671	0.09
696.853	-0.01
697.035	0.09
697.217	-0.05
697.399	0.02
697.581	-0.04
697.763	0
697.945	-0.03
698.127	0.04
698.309	0.04
698.491	-0.02
698.672	0.02
698.854	0.03
699.036	0.07
699.218	-0.02
699.399	0.1
699.581	0.07
699.763	0.04
699.945	-0.03
700.126	-0.01
700.308	0.02
700.49	0.02
700.671	-0.09
700.853	-0.04
701.035	-0.06
701.216	-0.04
701.398	-0.03
701.579	-0.01
701.761	0.09
701.943	-0.02
702.124	-0.05
702.306	0.02
702.487	0.11
702.669	0
702.85	-0.01
703.031	-0.09
703.213	0.13
703.394	0.08
703.576	-0.02
703.757	0.02
703.938	0.02
704.12	0.19
704.301	-0
704.483	-0.06
704.664	0.04
704.845	0.1
705.026	0.05
705.208	-0
705.389	0.02
705.57	0.02
705.751	-0.01
705.933	0.01
706.114	0.02
706.295	0.01
706.476	0.03
706.657	0.11
706.838	0.05
707.02	0.02
707.201	-0.06
707.382	-0.05
707.563	0.04
707.744	-0.05
707.925	-0.04
708.106	-0.03
708.287	0.01
708.468	0.1
708.649	-0.04
708.83	0.04
709.011	-0.04
709.192	0.08
709.373	-0.05
709.554	0.02
709.734	0.03
709.915	0.11
710.096	0.04
710.277	-0.09
710.458	0
710.639	0.06
710.819	-0.08
711	0.03
711.181	0.1
711.362	0.06
711.542	0.06
711.723	-0.08
711.904	0.08
712.085	0.01
712.265	0.07
712.446	-0.07
712.627	0.02
712.807	0.02
712.988	0.05
713.168	-0.07
713.349	0.02
713.53	-0.11
713.71	-0.04
713.891	-0.08
714.071	0.01
714.252	-0.06
714.432	-0.02
714.613	-0.07
714.793	0.05
714.974	0.09
715.154	0.1
715.334	0.03
715.515	0.07
715.695	0.02
715.876	0.02
716.056	0.09
716.236	-0.01
716.417	-0.03
716.597	-0.04
716.777	0.2
716.957	-0.01
717.138	0.05
717.318	0
717.498	-0.07
717.678	0
717.859	0.08
718.039	0.04
718.219	0.06
718.399	0.03
718.579	-0.03
718.759	-0.02
718.939	0.06
719.12	0.07
719.3	0.06
719.48	-0.1
719.66	-0.07
719.84	0.06
720.02	0.06
720.2	-0.03
720.38	0.05
720.56	0.11
720.74	0.02
720.92	0.06
721.1	0.11
721.279	0.15
721.459	0.03
721.639	-0
721.819	0.07
721.999	0
722.179	0.02
722.359	-0
722.538	0.05
722.718	0.09
722.898	0
723.078	0.02
723.257	0.01
723.437	0.06
723.617	0.05
723.797	0.02
723.976	0.02
724.156	0.07
724.336	0.12
724.515	0.19
724.695	-0.05
724.874	0.09
725.054	0.12
725.234	0.03
725.413	0.1
725.593	0
725.772	0.06
725.952	0.08
726.131	0.09
726.311	0.06
726.49	0.11
726.67	0.03
726.849	0.09
727.028	0.04
727.208	-0
727.387	0.13
727.567	-0.05
727.746	0.06
727.925	-0.03
728.105	-0.05
728.284	0.02
728.463	-0.04
728.643	0.05
728.822	-0.03
729.001	0.15
729.18	0.1
729.359	0.08
729.539	0.1
729.718	0.06
729.897	0.12
730.076	0.07
730.255	0.08
730.434	0.05
730.614	0.11
730.793	0.11
730.972	0.01
731.151	0.09
731.33	0.14
731.509	0.17
731.688	0.04
731.867	0.09
732.046	-0.02
732.225	0.24
732.404	0.04
732.583	0.05
732.762	0.05
732.941	0.18
733.12	0.11
733.298	0.07
733.477	0.09
733.656	0.09
733.835	-0.04
734.014	0.16
734.193	0.04
734.371	0.16
734.55	0.1
734.729	0.07
734.908	0.14
735.086	0.01
735.265	0.14
735.444	-0.03
735.623	-0
735.801	-0
735.98	0.16
736.159	0.15
736.337	0.23
736.516	0.2
736.694	-0.02
736.873	0.08
737.052	0.24
737.23	0.25
737.409	0.01
737.587	0.23
737.766	-0.01
737.944	0.03
738.123	0.11
738.301	0.1
738.479	0.05
738.658	0.24
738.836	-0.1
739.015	0.08
739.193	0.18
739.371	-0.03
739.55	0.07
739.728	0
739.906	0.2
740.085	0.23
740.263	0.15
740.441	-0.14
740.62	0.32
740.798	0.16
740.976	-0.03
741.154	0.05
741.332	0.18
741.511	0.05
741.689	0.09
741.867	0.06
742.045	-0.02
742.223	0.02
742.401	0.09
742.579	0.05
742.757	0.13
742.935	-0.09
743.114	0.02
743.292	-0
743.47	0.12
743.648	0.07
743.826	0.07
744.004	0.1
744.181	0.05
744.359	0.09
744.537	0.05
744.715	0.04
744.893	0.1
745.071	0.12
745.249	-0.01
745.427	-0.06
745.605	0.11
745.782	0.13
745.96	0.12
746.138	0.06
746.316	0.01
746.493	-0.06
746.671	-0
746.849	0.03
747.027	0.07
747.204	-0.11
747.382	0.13
747.56	-0.13
747.737	-0.01
747.915	0.03
748.093	0.1
748.27	0.09
748.448	0.08
748.625	-0
748.803	-0.06
748.98	0.02
749.158	-0
749.335	0.23
749.513	-0.06
749.69	-0.02
749.868	0.01
750.045	0.14
750.223	-0.18
750.4	-0.12
750.578	0.21
750.755	0.12
750.932	-0.11
751.11	0.15
751.287	-0.1
751.464	-0.06
751.642	-0.03
751.819	0.08
751.996	0.01
752.173	0.06
752.351	-0.13
752.528	0.06
752.705	-0.04
752.882	-0.07
753.06	0.02
753.237	0.06
753.414	0.12
753.591	0.13
753.768	0.01
753.945	0.04
754.122	-0.08
754.299	0.05
754.476	-0.12
754.654	0.02
754.831	0.05
755.008	0.01
755.185	-0.12
755.362	-0.14
755.539	0.02
755.716	-0.07
755.892	-0.18
756.069	0.07
756.246	-0.02
756.423	-0.04
756.6	0.18
756.777	-0.04
756.954	0.1
757.131	0.11
757.307	-0.09
757.484	-0.08
757.661	-0.03
757.838	0.02
758.015	-0.07
758.191	0.12
758.368	0.04
758.545	0.22
758.721	0.11
758.898	-0.06
759.075	0.04
759.251	0.02
759.428	0.01
759.605	-0.09
759.781	-0.06
759.958	0.08
760.134	0.05
760.311	0.02
760.488	0.1
760.664	0.05
760.841	0.01
761.017	-0.1
761.194	0.12
761.37	0.07
761.547	-0.01
761.723	-0.15
761.899	0.01
762.076	0.01
762.252	-0.06
762.429	-0.03
762.605	0.16
762.781	0.01
762.958	0.17
763.134	0.02
763.31	-0.01
763.486	0.11
763.663	-0.11
763.839	-0
764.015	-0.13
764.191	-0.07
764.368	0.05
764.544	-0.06
764.72	0.01
764.896	0.06
765.072	0.02
765.248	-0.08
765.425	-0.03
765.601	-0.15
765.777	0.02
765.953	-0.15
766.129	-0.05
766.305	-0.11
766.481	-0.05
766.657	0.02
766.833	0.17
767.009	-0.1
767.185	-0.01
767.361	-0.03
767.537	0.1
767.713	0.1
767.889	-0.04
768.065	0.13
768.24	-0.14
768.416	0.14
768.592	-0.12
768.768	-0.1
768.944	-0.02
769.12	-0.1
769.295	-0.09
769.471	-0.06
769.647	-0.05
769.823	0.02
769.998	-0.09
770.174	-0.11
770.35	0.22
770.525	0.25
770.701	0.05
770.877	0.05
771.052	-0.07
771.228	0.08
771.403	0.06
771.579	0.13
771.755	0.27
771.93	-0.12
772.106	-0.14
772.281	-0.14
772.457	0.01
772.632	0.06
772.808	-0.05
772.983	-0.06
773.159	-0.21
773.334	0.11
773.509	-0.04
773.685	-0.03
773.86	0.3
774.036	0.15
774.211	0.11
774.386	-0.04
774.562	-0.07
774.737	0.04
774.912	0.02
775.087	0.14
775.263	0.06
775.438	0.03
775.613	-0.08
775.788	0.06
775.964	0.13
776.139	0.38
776.314	-0.07
776.489	0.14
776.664	0.07
776.839	0.04
777.014	0.14
777.19	0.1
777.365	0.29
777.54	0.28
777.715	0.02
777.89	-0.01
778.065	0.01
778.24	-0.09
778.415	0.23
778.59	-0.08
778.765	-0.13
778.94	0.01
779.115	-0.07
779.289	0.03
779.464	0.02
779.639	-0.03
779.814	-0.17
779.989	-0.1
780.164	0.06
780.339	0.02
780.513	-0.06
780.688	-0.02
780.863	0.12
781.038	0.2
781.212	-0.04
781.387	0.12
781.562	0.1
781.737	0.11
781.911	0.14
782.086	0.07
782.261	-0.04
782.435	0.32
782.61	-0.1
782.784	0
782.959	0.06
783.134	-0.11
783.308	-0.16
783.483	0.01
783.657	0.37
783.832	0.1
784.006	-0.39
784.181	0.09
784.355	0.18
784.53	-0.04
784.704	0.02
784.878	0.2
785.053	0.17
785.227	0.2
785.402	0.24
785.576	-0.22
785.75	-0.07
785.925	-0.04
786.099	0.21
786.273	0.06
786.448	0.19
786.622	0.02
786.796	-0.09
786.97	0.08
787.145	0.53
787.319	-0.14
787.493	-0.16
787.667	-0.26
787.841	0.09
788.015	0.14
788.19	-0.02
788.364	0.19
788.538	0.09
788.712	0.08
788.886	-0.08
789.06	0.01
789.234	0.24
789.408	-0.22
789.582	-0.25
789.756	-0.1
789.93	-0.21
790.104	0.09
790.278	-0.01
790.452	-0.19
790.626	0.18
790.8	-0.36
790.973	0.32
791.147	0.09
791.321	0.08
791.495	0.18
791.669	0.1
791.843	0.05
792.016	0.07
792.19	0.43
792.364	-0.12
792.538	0.43
792.711	0.25
792.885	-0.04
793.059	-0.26
793.233	-0.46
793.406	0.19
793.58	0.05
793.754	-0.11
793.927	-0.1
794.101	0.12
794.274	-0.04
794.448	0.11
794.622	-0.22
794.795	0.43
794.969	0.01
795.142	0.45
795.316	0.15
795.489	-0.28
795.663	0.23
795.836	0.07
796.009	0.01
796.183	0.3
796.356	-0.01
796.53	0.02
796.703	-0.07
796.876	0.4
797.05	-0.09
797.223	0.12
797.396	0.22
797.57	-0.3
797.743	0.32
797.916	0.17
798.09	-0.02
798.263	0.16
798.436	0.13
798.609	-0.09
798.782	-0.12
798.956	0.08
799.129	0.12
799.302	0
799.475	-0.09
799.648	-0.35
799.821	-0.17
799.994	0.01
800.167	-0.22
800.34	-0.04
800.514	0.3
800.687	-0
800.86	-0.07
801.033	0.36
801.206	-0
801.379	-0.08
801.551	0.34
801.724	0.28
801.897	0.53
802.07	-0.27
802.243	-0.36
802.416	-0.35
802.589	-0.18
802.762	0.07
802.935	-0.15
803.107	0.3
803.28	0.26
803.453	0.41
803.626	-0.23
803.798	0.13
803.971	-0.39
804.144	-0
804.317	0.18
804.489	0.4
804.662	0.24
804.835	0.1
805.007	-0.06
805.18	0.09
805.353	0.14
805.525	-0.19
805.698	-0.44
805.87	0.2
806.043	0.39
806.215	-0.3
806.388	-0.05
806.56	0.24
806.733	0.24
806.905	0.29
807.078	0.02
807.25	-0.21
807.423	0.06
807.595	0.21
807.768	0.15
807.94	0.18
808.112	0.24
808.285	0.17
808.457	-0.2
808.629	0.25
808.802	0.3
808.974	-0.1
809.146	-0.07
809.318	-0.38
809.491	-0.06
809.663	0.06
809.835	-0.15
810.007	0.31
810.18	-0.22
810.352	-0.51
810.524	0.04
810.696	0.06
810.868	0.77
811.04	-0.1
811.212	-0.3
811.384	-0.12
811.556	0.11
811.728	0.11
811.901	0.37
812.073	-0.17
812.245	0.33
812.417	0.19
812.589	-0.19
812.76	-0.14
812.932	0.35
813.104	0.59
813.276	-0.03
813.448	0.31
813.62	0.15
813.792	0.09
813.964	0.32
814.136	0.18
814.307	-0.02
814.479	-0.01
814.651	-0.06
814.823	0.75
814.995	-0.05
815.166	0.34
815.338	-0.46
815.51	-0.42
815.681	0.71
815.853	0.5
816.025	-0.03
816.196	0.54
816.368	-0.05
816.54	-0.7
816.711	0.3
816.883	0.31
817.054	0.8
817.226	-0.73
817.398	0.09
817.569	-0.21
817.741	0.51
817.912	0.1
818.084	0.13
818.255	-0.04
818.426	-0.05
818.598	-0.2
818.769	0.19
818.941	0.1
819.112	0.85
819.283	0.07
819.455	0.02
819.626	-0.15
819.798	0.57
819.969	0.03
820.14	0.26
820.311	0.07
820.483	0.33
820.654	0.18
820.825	0.15
820.996	-0.45
821.168	-0.21
821.339	-0.14
821.51	-0.4
821.681	-0.12
821.852	0.17
822.023	-0.39
822.195	-0.28
822.366	0.44
822.537	0.2
822.708	0.02
822.879	0.1
823.05	0.53
823.221	-0.12
823.392	0.3
823.563	0.16
823.734	0.2
823.905	0.34
824.076	-0.17
824.247	-0.36
824.418	-0.61
824.589	0.13
824.759	-0.01
824.93	-0.09
825.101	-0.51
825.272	0.16
825.443	0.45
825.614	0.43
825.784	-0.59
825.955	0.75
826.126	1.2
826.297	-0.47
826.467	1.52
826.638	0.27
826.809	-0.47
826.98	0.21
827.15	0.41
827.321	-0.01
827.492	0.32
827.662	0.16
827.833	0.81
828.003	0.14
828.174	-0.42
828.345	-0.73
828.515	0.9
828.686	0.44
828.856	-0.39
829.027	0.08
829.197	-0.29
829.368	-0.11
829.538	-0.21
829.709	-0.63
829.879	0.16
830.049	0.43
830.22	-0.37
830.39	-0.17
830.56	0.36
830.731	-0.07
830.901	-0.04
831.072	-0.37
831.242	0.52
831.412	-0.41
831.582	0.38
831.753	-0.3
831.923	0.59
832.093	-0.19
832.263	0.22
832.434	-0.05
832.604	-0.75
832.774	0.41
832.944	-0.67
833.114	-0.33
833.284	0.24
833.454	-0.72
833.624	0.3
833.795	-0.16
833.965	0.47
834.135	0.77
834.305	-0.69
834.475	-0.19
834.645	0.54
834.815	-0.48
834.985	-0.5
835.155	-0.03
835.325	0.15
835.494	-0.09
835.664	-0.26
835.834	-0.15
836.004	0.06
836.174	0.13
836.344	0.39
836.514	-0.32
836.684	0.02
836.853	0.41
837.023	0.2
837.193	-0.11
837.363	-0.11
837.532	0.72
837.702	-0.08
837.872	-0.07
838.041	0.58
838.211	1.32
838.381	-1.07
838.55	0.88
838.72	1.7
838.89	1.11
839.059	0.24
839.229	-0.53
839.398	0.77
839.568	-0.17
839.738	-0.41
839.907	0.16
840.077	0.63
840.246	-0.12
840.416	-1.21
840.585	-0.81
840.755	1.11
840.924	1.65
841.093	0.1
841.263	-0.8
841.432	0.18
841.602	-0.44
841.771	-0.58
841.94	0.34
842.11	1.13
842.279	1.71
842.448	-0.4
842.617	0.15
842.787	0.67
842.956	-0.49
843.125	0.24
843.294	0.61
843.464	1.05
843.633	-0.26
843.802	-0.2
843.971	-0.28
844.14	0.91
844.309	0.74
844.479	0.14
844.648	-0.89
844.817	-0.64
844.986	-0.13
845.155	-0.7
845.324	0.18
845.493	-0.1
845.662	-0.65
845.831	0.32
846	0.41
846.169	-0.7
846.338	1.91
846.507	-0.39
846.676	1.04
846.844	-0.66
847.013	-0.32
847.182	0.06
847.351	0.28
847.52	0.31
847.689	0.74
847.858	-0.2
848.026	0.62
848.195	-0.01
848.364	0.14
848.533	-0.8
848.701	-0.33
848.87	-0.52
849.039	1.26
849.207	0.82
849.376	1.2
849.545	0.51
849.713	0.02
849.882	0.75
850.051	0.88
850.219	0.46
850.388	0.98
850.556	0.3
850.725	-0.19
850.893	-0.29
851.062	0.78
851.23	-0.06
851.399	-0.73
851.567	-0.18
851.736	-0.51
851.904	-1.27
852.073	0.89
852.241	0.6
852.41	0.35
852.578	-0.34
852.746	0.24
852.915	1.73
853.083	-0.03
853.251	-0.58
853.42	-0.36
853.588	0.27
853.756	0.3
853.924	-0.54
854.093	-0.9
854.261	-0.01
854.429	-1.09
854.597	0.64
854.765	-0.46
854.934	1.31
855.102	0.78
855.27	-0.01
855.438	0.52
855.606	2.05
855.774	1.36
855.942	-1.25
856.11	-1.17
856.278	-0.02
856.446	0.63
856.614	0.21
856.782	0.12
856.95	1.05
857.118	0.78
857.286	0.63
857.454	-0.93
857.622	0.32
857.79	0.5
857.958	-1.09
858.126	-0.52
858.294	-2.24
858.462	0.2
858.629	0.25
858.797	-0.27
858.965	0.41
859.133	0.24
859.301	-0.25
859.468	0.64
859.636	-0.22
859.804	1.69
859.971	0.32
860.139	0.37
860.307	0.4
860.474	-0.25
860.642	0.14
860.81	-0.24
860.977	-0.68
861.145	0.64
861.313	0.25
861.48	-0.06
861.648	0.52
861.815	-0.06
861.983	-0.68
862.15	-0.24
862.318	0.49
862.485	0.14
862.653	0.25
862.82	-0.89
862.988	0.9
863.155	0.47
863.322	-0.64
863.49	-0.16
863.657	-0.87
863.824	1.49
863.992	0.56
864.159	-0.35
864.326	1.22
864.494	-0.39
864.661	2.07
864.828	-0.73
864.996	0.61
865.163	1.8
865.33	0.02
865.497	-0.85
865.664	0.58
865.832	-1.75
865.999	0.12
866.166	-0.04
866.333	-1.47
866.5	-1.54
866.667	-0.08
866.834	-0.1
867.001	2.8
867.168	0.07
867.335	-0.2
867.502	-2.08
867.669	0.23
867.836	1.95
868.003	-0.9
868.17	0.99
868.337	1.71
868.504	2.32
868.671	-0.8
868.838	-0.5
869.005	-0.66
869.172	0.82
869.339	1.48
869.505	-0.77
869.672	-0.36
869.839	0.98
870.006	-0.29
870.173	-2.23
870.339	0.54
870.506	2.93
870.673	-0.99
870.84	0.37
871.006	0.48
871.173	0.05
871.34	1.28
871.506	-0.99
871.673	1.94
871.839	-0.78
872.006	-0.45
872.173	0.17
872.339	-0.09
872.506	1.36
872.672	-0.19
872.839	-1.56
873.005	0.21
873.172	2.52
873.338	0.31
873.505	0.22
873.671	0.09
873.838	1.19
874.004	-0.96
874.171	-1.07
874.337	0.59
874.503	1.18
874.67	-0.78
874.836	-2.11
875.002	2.25
875.169	0.86
875.335	0.72
875.501	0.27
875.668	0.06
875.834	-0.24
876	0.77
876.166	1.21
876.332	1.1
876.499	2.98
876.665	0.39
876.831	0.66
876.997	2.55
877.163	0.45
877.329	0.25
877.495	1.86
877.662	1.49
877.828	0.36
877.994	-1.52
878.16	-2.76
878.326	-0.44
878.492	-0.55
878.658	-1.31
878.824	-0.36
878.99	3.04
879.156	-0.59
879.322	2.98
879.487	-1.11
879.653	1.3
879.819	1.26
879.985	-0.51
880.151	0.81
880.317	1.93
880.483	0.64
880.648	1.52
880.814	-1.37
880.98	1.92
881.146	-1.7
881.312	-0.25
881.477	-0.27
881.643	1.34
881.809	2.34
881.974	1.29
882.14	-2.28
882.306	-0.11
882.471	2.63
882.637	-0.07
882.803	1.24
882.968	0.46
883.134	2.55
883.299	0.46
883.465	1.18
883.63	1.29
883.796	0.25
883.961	1.91
884.127	1.51
884.292	-4.58
884.458	-2.65
884.623	-2.65
