Data from Apollo_Calib_20240827__AbsoluteIrradiance__703__10-52-01-560.txt Node

Date: Wed Aug 28 10:52:01 BST 2024
User: biology
Spectrometer: FLMT08252
Trigger mode: 0
Integration Time (sec): 5.000000E-1
Scans to average: 5
Electric dark correction enabled: true
Nonlinearity correction enabled: false
Boxcar width: 0
XAxis mode: Wavelengths
Number of Pixels in Spectrum: 3648
>>>>>Begin Spectral Data<<<<<
179.588	-0
179.809	-0
180.03	-0
180.251	-0
180.473	-0
180.694	0
180.915	0
181.136	-0
181.357	-0
181.578	-0
181.799	0
182.02	-0
182.241	0
182.462	-0
182.683	0
182.904	-0
183.125	-0
183.346	0
183.567	0
183.788	-0
184.009	-0
184.23	-0
184.451	0
184.672	-0
184.892	-0
185.113	0
185.334	0
185.555	-0
185.776	-0
185.996	-0
186.217	-0
186.438	0
186.659	-0
186.879	-0
187.1	-0
187.321	-0
187.541	-0
187.762	-0
187.983	-0
188.203	-0
188.424	-0
188.644	0
188.865	-0
189.086	-0
189.306	-0
189.527	-0
189.747	-0
189.968	-0
190.188	0
190.409	-0
190.629	0
190.849	-0
191.07	-0
191.29	-0
191.511	-0
191.731	-0
191.951	-0
192.172	-0
192.392	-0
192.612	-0
192.833	-0
193.053	0
193.273	0
193.493	-0
193.714	-0
193.934	0
194.154	0
194.374	0
194.594	0
194.815	0
195.035	0
195.255	-0
195.475	-0
195.695	0
195.915	0
196.135	0
196.355	0
196.575	0
196.795	-0
197.015	-0
197.235	-0
197.455	-0
197.675	0
197.895	-0
198.115	-0
198.335	0
198.555	-0
198.775	0
198.995	0
199.214	0
199.434	-0
199.654	-0
199.874	-0
200.094	0.52
200.313	-0.21
200.533	-0.19
200.753	-0.66
200.973	0.94
201.192	0.44
201.412	-0.88
201.632	-0.91
201.851	0.79
202.071	-0.35
202.291	-0.39
202.51	-0.51
202.73	-0.08
202.95	-0.62
203.169	-1.11
203.389	0.09
203.608	0.03
203.828	-0.59
204.047	-0.04
204.267	0.51
204.486	-0.37
204.706	-0.15
204.925	0.01
205.145	-0.25
205.364	0.32
205.583	0.4
205.803	-0.34
206.022	-0.41
206.242	-0.03
206.461	-0.11
206.68	-0.25
206.9	0.08
207.119	0.6
207.338	0.32
207.557	-0.68
207.777	-0.28
207.996	-0.27
208.215	0.12
208.434	-0.36
208.654	-0.47
208.873	-0.06
209.092	0.51
209.311	-0.28
209.53	-0.1
209.749	-0.38
209.968	-0.31
210.187	-0.17
210.407	-0.59
210.626	-0.15
210.845	0.33
211.064	-0.15
211.283	-0.4
211.502	0.21
211.721	-0.04
211.94	-0.29
212.159	0.36
212.377	-0.04
212.596	0.48
212.815	0.08
213.034	-0.09
213.253	0.23
213.472	0.3
213.691	-0.26
213.91	-0.38
214.128	-0.07
214.347	0.22
214.566	-0.49
214.785	-0.4
215.003	0.2
215.222	0.11
215.441	-0.08
215.66	-0.31
215.878	0.02
216.097	0.17
216.316	-0.42
216.534	-0.19
216.753	0.02
216.972	-0.18
217.19	-0.14
217.409	-0.29
217.627	0.01
217.846	-0.1
218.064	-0.15
218.283	-0.16
218.501	0.45
218.72	0.13
218.938	-0.21
219.157	-0.18
219.375	0.18
219.594	0.2
219.812	-0.23
220.031	-0.34
220.249	0.3
220.467	0.15
220.686	-0.22
220.904	-0.22
221.122	-0.23
221.341	0.36
221.559	-0.05
221.777	-0.29
221.995	-0.13
222.214	0.16
222.432	-0.24
222.65	0.02
222.868	0.12
223.086	-0.08
223.305	-0.01
223.523	0.05
223.741	0.1
223.959	-0.25
224.177	-0.29
224.395	-0.15
224.613	0.02
224.831	0.09
225.049	-0.19
225.267	-0.1
225.485	0.01
225.703	-0.12
225.921	-0.09
226.139	-0.05
226.357	0.09
226.575	-0.02
226.793	-0.09
227.011	0.49
227.229	0.02
227.447	0.1
227.665	0.06
227.883	-0.38
228.1	0.02
228.318	-0.02
228.536	-0.21
228.754	-0.17
228.972	-0.06
229.189	-0.05
229.407	-0.18
229.625	-0.04
229.843	0.2
230.06	0.11
230.278	-0.3
230.496	-0.03
230.713	-0.05
230.931	0.12
231.149	-0.15
231.366	-0.22
231.584	-0.07
231.801	0.29
232.019	-0.08
232.236	-0.24
232.454	-0.05
232.671	-0.02
232.889	-0.01
233.106	-0.17
233.324	-0.08
233.541	-0.07
233.759	-0.09
233.976	-0.16
234.194	-0.06
234.411	-0.04
234.628	-0.18
234.846	-0.04
235.063	0.08
235.28	-0.06
235.498	-0
235.715	-0.13
235.932	0.05
236.149	-0.04
236.367	-0.17
236.584	-0.04
236.801	-0.06
237.018	0.06
237.236	-0
237.453	-0.14
237.67	0.09
237.887	0.02
238.104	-0.04
238.321	-0.13
238.538	-0.17
238.755	0.15
238.973	-0.19
239.19	-0.02
239.407	0.02
239.624	-0.08
239.841	-0.21
240.058	-0.14
240.275	-0.04
240.492	0
240.709	0
240.925	-0.09
241.142	-0.1
241.359	-0.2
241.576	-0.15
241.793	-0.09
242.01	-0.03
242.227	0.1
242.444	0.03
242.66	0.07
242.877	-0.02
243.094	-0.17
243.311	0.01
243.527	-0.09
243.744	-0.01
243.961	0.09
244.178	-0.11
244.394	0.02
244.611	0.01
244.828	0.1
245.044	-0.12
245.261	-0.05
245.477	-0.08
245.694	-0.08
245.911	-0.08
246.127	-0.03
246.344	0.14
246.56	-0.01
246.777	-0.08
246.993	0.01
247.21	-0.09
247.426	0.01
247.643	-0.05
247.859	-0.09
248.076	-0.09
248.292	0.16
248.508	-0.08
248.725	0.05
248.941	0.05
249.157	0.05
249.374	-0.06
249.59	0
249.806	-0.05
250.023	0.02
250.239	-0.07
250.455	-0.07
250.671	-0.08
250.888	-0
251.104	0.02
251.32	-0.01
251.536	-0.03
251.752	-0.05
251.969	0.04
252.185	-0.09
252.401	0.12
252.617	-0.1
252.833	-0.1
253.049	-0.02
253.265	0
253.481	0.01
253.697	-0.07
253.913	-0.14
254.129	0.04
254.345	0.03
254.561	-0.02
254.777	-0.03
254.993	0.01
255.209	0
255.425	-0
255.641	-0.09
255.857	0.05
256.073	-0.01
256.288	-0.19
256.504	-0.03
256.72	-0.09
256.936	0.11
257.152	-0.04
257.367	-0.11
257.583	-0.03
257.799	0.08
258.015	-0.12
258.23	-0.09
258.446	0.14
258.662	0.02
258.877	-0.04
259.093	-0.07
259.309	-0.01
259.524	0.01
259.74	-0.04
259.955	-0.13
260.171	0.02
260.387	-0
260.602	0.06
260.818	0
261.033	-0.1
261.249	-0.03
261.464	-0.11
261.68	-0.16
261.895	0.03
262.11	0.01
262.326	-0.05
262.541	-0.09
262.757	0.01
262.972	0
263.187	0
263.403	0.01
263.618	0.05
263.833	0.02
264.049	-0.05
264.264	-0.05
264.479	0.01
264.694	0.05
264.91	-0.11
265.125	-0.09
265.34	0.1
265.555	0.1
265.77	0.02
265.986	-0.09
266.201	0.02
266.416	0.03
266.631	-0.04
266.846	-0.06
267.061	0
267.276	0.06
267.491	-0.15
267.706	-0.01
267.921	0.03
268.136	-0.04
268.351	0
268.566	-0.04
268.781	0.08
268.996	-0.02
269.211	-0.03
269.426	-0.11
269.641	0.02
269.856	-0.02
270.071	-0.07
270.285	-0.1
270.5	0.04
270.715	0.08
270.93	-0.07
271.145	-0.03
271.359	0.09
271.574	-0.13
271.789	-0.04
272.004	-0.05
272.218	-0.03
272.433	-0.01
272.648	-0.08
272.862	0.03
273.077	-0.06
273.292	-0.03
273.506	-0.07
273.721	-0.07
273.936	0.01
274.15	0.03
274.365	-0.06
274.579	0.04
274.794	0.07
275.008	0.06
275.223	-0.08
275.437	-0.03
275.652	0.03
275.866	0.02
276.081	-0.03
276.295	0.01
276.509	-0.04
276.724	-0.05
276.938	-0.01
277.153	0
277.367	0.02
277.581	-0.05
277.796	-0.03
278.01	-0.09
278.224	0.01
278.438	0.1
278.653	-0.1
278.867	-0.02
279.081	-0.23
279.295	-0.06
279.51	0.02
279.724	-0.14
279.938	-0
280.152	-0.01
280.366	-0.04
280.58	0.03
280.794	0.12
281.008	0.02
281.222	0.04
281.437	0.08
281.651	0.02
281.865	0.02
282.079	-0.05
282.293	-0.1
282.507	-0.02
282.721	-0.01
282.935	0.01
283.148	-0.06
283.362	-0.04
283.576	-0.07
283.79	0.02
284.004	-0.07
284.218	0.05
284.432	-0.07
284.646	-0
284.859	-0.03
285.073	-0.05
285.287	-0.01
285.501	-0.04
285.714	-0.06
285.928	-0.01
286.142	-0.01
286.356	-0.04
286.569	-0.05
286.783	0.03
286.997	0.03
287.21	0.03
287.424	-0
287.637	-0.02
287.851	-0.07
288.065	-0.03
288.278	-0.06
288.492	-0.02
288.705	0
288.919	-0.03
289.132	-0.02
289.346	0.06
289.559	-0.03
289.773	-0.09
289.986	0.01
290.2	-0.05
290.413	0.03
290.626	-0.11
290.84	-0.06
291.053	0
291.267	0.06
291.48	-0.06
291.693	0.02
291.906	-0.03
292.12	-0.03
292.333	-0.05
292.546	-0.05
292.76	0.08
292.973	0.03
293.186	0.02
293.399	-0.04
293.612	0.02
293.826	-0.04
294.039	-0.05
294.252	-0.02
294.465	0.05
294.678	0.01
294.891	-0.02
295.104	-0.04
295.317	0.02
295.53	0.01
295.743	-0.02
295.956	-0.04
296.169	0.08
296.382	0.06
296.595	-0.03
296.808	-0.05
297.021	0.05
297.234	0
297.447	-0.04
297.66	0.01
297.873	0.05
298.086	0.01
298.299	-0.04
298.511	-0.08
298.724	-0.02
298.937	-0.04
299.15	-0.04
299.363	-0.03
299.575	0.02
299.788	0.01
300.001	-0.06
300.213	-0.03
300.426	-0.02
300.639	-0.02
300.852	-0
301.064	0.03
301.277	0.07
301.489	0.07
301.702	0.03
301.915	-0.02
302.127	-0.04
302.34	-0.01
302.552	0.03
302.765	-0.08
302.977	-0.01
303.19	-0.06
303.402	-0.06
303.615	0.02
303.827	-0.01
304.04	-0.01
304.252	0.02
304.464	-0.03
304.677	0.12
304.889	0.07
305.102	-0.02
305.314	-0.01
305.526	-0.01
305.739	-0
305.951	-0.04
306.163	-0.03
306.375	0.03
306.588	-0.02
306.8	-0.03
307.012	-0.08
307.224	0.03
307.436	-0.02
307.649	-0.1
307.861	0.02
308.073	-0
308.285	0
308.497	-0.03
308.709	-0.03
308.921	-0.02
309.133	0.01
309.346	-0.04
309.558	-0.01
309.77	0.04
309.982	0.01
310.194	0.04
310.406	-0.05
310.617	0.05
310.829	0
311.041	-0.01
311.253	-0.06
311.465	-0.02
311.677	-0.01
311.889	0.04
312.101	-0.02
312.313	0.06
312.524	-0
312.736	-0.07
312.948	-0.04
313.16	0.08
313.372	0.02
313.583	0.01
313.795	0
314.007	-0.01
314.218	0.02
314.43	-0.06
314.642	-0.02
314.853	-0.06
315.065	-0.04
315.277	-0.02
315.488	-0.04
315.7	-0.02
315.912	0.03
316.123	-0.04
316.335	-0.02
316.546	0.07
316.758	0.01
316.969	-0.07
317.181	-0.03
317.392	-0.02
317.604	0.07
317.815	-0.06
318.026	-0.05
318.238	-0.04
318.449	0.04
318.661	-0.06
318.872	-0.07
319.083	-0.08
319.295	0.01
319.506	-0
319.717	-0.02
319.929	0.02
320.14	-0.05
320.351	-0.01
320.562	-0.05
320.774	0
320.985	0.01
321.196	-0.02
321.407	-0.06
321.618	0
321.829	-0.03
322.041	0.02
322.252	-0
322.463	0.03
322.674	0.02
322.885	-0.01
323.096	-0.06
323.307	-0.02
323.518	0
323.729	-0.03
323.94	-0.1
324.151	-0.06
324.362	0.01
324.573	0.03
324.784	-0.04
324.995	0.02
325.206	-0.02
325.417	-0.03
325.628	-0.01
325.838	0.01
326.049	0.01
326.26	0.07
326.471	0
326.682	0.04
326.892	-0.01
327.103	-0.1
327.314	-0.06
327.525	0.01
327.735	-0.04
327.946	-0.01
328.157	-0.07
328.368	0.01
328.578	-0.04
328.789	0.02
328.999	-0.04
329.21	-0.02
329.421	-0.01
329.631	-0.08
329.842	-0.03
330.052	-0.02
330.263	0.01
330.473	0.05
330.684	-0.04
330.894	-0.04
331.105	0.02
331.315	-0.03
331.526	-0.07
331.736	0.09
331.947	0.01
332.157	0.01
332.367	-0.07
332.578	0.01
332.788	0.06
332.999	-0.01
333.209	-0.01
333.419	-0.06
333.629	0.02
333.84	0.04
334.05	-0.02
334.26	0.05
334.47	-0
334.681	0.02
334.891	-0.06
335.101	0.01
335.311	0.08
335.521	-0.03
335.732	-0
335.942	0.07
336.152	-0.02
336.362	0.02
336.572	0.01
336.782	0.03
336.992	-0.05
337.202	0
337.412	-0.04
337.622	0
337.832	0
338.042	0.01
338.252	-0.05
338.462	-0.03
338.672	-0.03
338.882	-0.07
339.092	-0.07
339.302	0.04
339.511	0.02
339.721	-0.03
339.931	-0.04
340.141	-0
340.351	0.04
340.561	0.01
340.77	0
340.98	0.01
341.19	0.03
341.4	-0.06
341.609	-0.03
341.819	0.02
342.029	-0.04
342.238	0.01
342.448	-0.07
342.658	0.04
342.867	0.01
343.077	-0.01
343.286	0.01
343.496	0.01
343.706	0.06
343.915	-0.06
344.125	-0.01
344.334	0.03
344.544	-0.05
344.753	-0.02
344.963	-0.03
345.172	0
345.381	-0.02
345.591	-0.03
345.8	0.03
346.01	0.02
346.219	0.02
346.428	-0.15
346.638	-0.01
346.847	-0.01
347.056	0.04
347.266	-0.02
347.475	0
347.684	0.05
347.893	0.01
348.103	0.02
348.312	-0.02
348.521	-0.04
348.73	-0
348.94	0.02
349.149	-0.02
349.358	0.02
349.567	-0.03
349.776	-0.07
349.985	-0.03
350.194	0
350.403	0
350.612	-0.07
350.821	-0.01
351.03	-0.01
351.239	-0.04
351.448	-0
351.657	-0.02
351.866	0.1
352.075	-0.02
352.284	-0.05
352.493	-0.04
352.702	0.04
352.911	0.02
353.12	-0.02
353.329	-0.01
353.538	0.04
353.746	-0.04
353.955	-0.06
354.164	0
354.373	-0.02
354.582	0.02
354.79	0.02
354.999	0
355.208	0.03
355.416	0.05
355.625	-0.04
355.834	-0.04
356.042	0.01
356.251	-0.03
356.46	-0.05
356.668	0.03
356.877	0.05
357.085	0.02
357.294	-0.1
357.503	0.01
357.711	0
357.92	0.09
358.128	-0
358.337	-0.01
358.545	0.05
358.754	-0.01
358.962	0.05
359.17	-0.03
359.379	0.01
359.587	0.02
359.796	-0
360.004	0.02
360.212	0.03
360.421	0.03
360.629	-0.03
360.837	-0.02
361.046	0.05
361.254	0.06
361.462	0.03
361.67	-0
361.879	0.02
362.087	0.04
362.295	-0.01
362.503	-0.05
362.711	-0.04
362.92	-0.06
363.128	-0.06
363.336	-0.05
363.544	-0.07
363.752	-0.02
363.96	-0.01
364.168	-0.01
364.376	-0.02
364.584	-0.01
364.792	-0.01
365	0.04
365.208	-0.02
365.416	-0.01
365.624	0.04
365.832	-0.02
366.04	0.03
366.248	0
366.456	0.03
366.664	0.02
366.872	0
367.079	-0.02
367.287	0
367.495	-0.02
367.703	0
367.911	-0.02
368.118	-0.05
368.326	-0.06
368.534	-0.05
368.742	0.09
368.949	-0.06
369.157	-0.02
369.365	0.04
369.572	-0.06
369.78	-0.02
369.988	0.02
370.195	0.02
370.403	0.03
370.61	-0.03
370.818	-0.03
371.026	0.03
371.233	0.01
371.441	0.01
371.648	-0.05
371.856	-0.01
372.063	0.04
372.271	0
372.478	-0.03
372.685	-0.03
372.893	0.04
373.1	-0.02
373.308	-0.03
373.515	0.06
373.722	0.01
373.93	-0.03
374.137	0
374.344	0.08
374.552	0.05
374.759	0.03
374.966	0
375.173	-0.06
375.381	0.05
375.588	-0.01
375.795	-0.05
376.002	-0.02
376.209	-0.02
376.417	0.02
376.624	-0.01
376.831	0.02
377.038	-0.02
377.245	-0.09
377.452	-0.02
377.659	-0.05
377.866	-0.05
378.073	-0.03
378.28	-0.01
378.487	-0.01
378.694	0.01
378.901	0.01
379.108	-0.01
379.315	0.02
379.522	0.07
379.729	-0.01
379.936	-0
380.143	0
380.35	0.04
380.557	-0.03
380.763	-0
380.97	-0.02
381.177	0.02
381.384	-0.05
381.591	-0.03
381.797	0.01
382.004	0.02
382.211	-0.01
382.418	-0.03
382.624	0.02
382.831	0.03
383.038	-0.02
383.244	-0.02
383.451	-0
383.658	0.03
383.864	-0.04
384.071	-0
384.277	0.04
384.484	-0.04
384.69	0.03
384.897	-0.07
385.103	-0.02
385.31	-0.06
385.516	-0.02
385.723	-0.08
385.929	-0.03
386.136	-0.04
386.342	0.03
386.549	-0.03
386.755	0.04
386.961	0.01
387.168	-0.04
387.374	0
387.58	0.02
387.787	-0.03
387.993	-0.02
388.199	-0.03
388.406	-0.01
388.612	-0.03
388.818	-0.08
389.024	-0.03
389.231	-0.01
389.437	0.09
389.643	0.04
389.849	-0.02
390.055	-0.02
390.261	-0.02
390.467	0.01
390.674	-0.04
390.88	-0.01
391.086	0.01
391.292	-0.02
391.498	0.02
391.704	-0.01
391.91	-0.01
392.116	-0.06
392.322	-0.13
392.528	-0
392.734	-0
392.94	0.01
393.146	-0.04
393.352	0.01
393.557	-0.03
393.763	-0.04
393.969	-0.03
394.175	-0.03
394.381	0
394.587	-0.05
394.792	-0.03
394.998	0
395.204	0.05
395.41	0
395.615	0.02
395.821	-0.03
396.027	-0.01
396.233	-0.06
396.438	0.01
396.644	-0
396.85	0.01
397.055	-0
397.261	0
397.466	-0.01
397.672	0.01
397.878	0.06
398.083	0.02
398.289	0.02
398.494	0.05
398.7	0
398.905	-0.09
399.111	0.06
399.316	-0.07
399.522	0.02
399.727	0
399.932	-0.01
400.138	-0.05
400.343	0.04
400.549	0.01
400.754	-0.03
400.959	-0.02
401.165	-0.04
401.37	0.01
401.575	0.11
401.78	0.04
401.986	-0.05
402.191	0.01
402.396	-0.05
402.601	-0.01
402.807	0.01
403.012	-0.02
403.217	0.01
403.422	-0.01
403.627	-0.04
403.832	-0.02
404.037	0.02
404.243	0.02
404.448	-0.04
404.653	-0.05
404.858	-0.02
405.063	0.05
405.268	-0.04
405.473	-0.03
405.678	-0.07
405.883	0.07
406.088	0.02
406.293	-0.02
406.498	-0.03
406.703	0.03
406.907	-0.05
407.112	-0.04
407.317	-0.02
407.522	0.04
407.727	-0.04
407.932	-0.04
408.136	0.05
408.341	0
408.546	0.01
408.751	-0.03
408.956	-0
409.16	0.02
409.365	-0.02
409.57	-0.05
409.774	-0.02
409.979	0.03
410.184	0.01
410.388	-0.06
410.593	0.08
410.798	-0.01
411.002	-0.01
411.207	-0.02
411.411	0.01
411.616	-0.04
411.82	-0.02
412.025	0.01
412.229	-0.03
412.434	0.03
412.638	-0
412.843	-0.02
413.047	0.01
413.252	-0.04
413.456	-0.05
413.66	0.02
413.865	-0
414.069	0.07
414.273	-0.05
414.478	-0.03
414.682	-0.06
414.886	-0.01
415.091	-0.02
415.295	-0.06
415.499	0.01
415.703	-0.06
415.908	-0.01
416.112	-0.07
416.316	0.05
416.52	0.02
416.724	-0.03
416.929	-0.05
417.133	0.09
417.337	-0.02
417.541	-0.01
417.745	-0.01
417.949	0.01
418.153	0.02
418.357	-0.05
418.561	0.1
418.765	0.01
418.969	0.14
419.173	0.03
419.377	-0.01
419.581	0.12
419.785	0.01
419.989	-0.04
420.193	0.02
420.397	-0.02
420.601	0.03
420.804	0.04
421.008	0.04
421.212	0.03
421.416	0.06
421.62	-0.02
421.823	-0.03
422.027	0.14
422.231	-0
422.435	0.02
422.638	0.05
422.842	0.02
423.046	-0.03
423.249	0.08
423.453	0.08
423.657	0.01
423.86	0
424.064	0
424.268	0.05
424.471	0.04
424.675	0.07
424.878	0.08
425.082	0.06
425.285	0.06
425.489	0.06
425.692	0.04
425.896	0.04
426.099	0.08
426.303	-0.01
426.506	-0.06
426.71	0.04
426.913	0.07
427.116	0.17
427.32	0.06
427.523	0.08
427.726	0.13
427.93	0.03
428.133	0.07
428.336	-0
428.54	-0
428.743	0.09
428.946	0.06
429.149	0.01
429.353	0.04
429.556	0.01
429.759	0.05
429.962	-0
430.165	0.07
430.368	0.06
430.571	0.04
430.775	0.05
430.978	0.08
431.181	0.12
431.384	0.06
431.587	0.04
431.79	0.1
431.993	0.02
432.196	0.05
432.399	0.08
432.602	0.15
432.805	0.08
433.008	0.06
433.211	0.09
433.414	0.14
433.616	0.14
433.819	0.1
434.022	-0
434.225	0.13
434.428	0.12
434.631	0.18
434.833	0.1
435.036	0.09
435.239	0.16
435.442	0.13
435.645	0.08
435.847	0.11
436.05	0.13
436.253	0.13
436.455	0.02
436.658	0.09
436.861	0.19
437.063	0.1
437.266	0.06
437.468	0.16
437.671	0.24
437.874	0.13
438.076	0.09
438.279	0.07
438.481	0.13
438.684	0.06
438.886	0.19
439.089	0.05
439.291	0.06
439.494	0.16
439.696	0.05
439.899	0.09
440.101	0.16
440.303	0.13
440.506	0.19
440.708	0.16
440.91	0.19
441.113	0.11
441.315	0.21
441.517	0.12
441.72	0.21
441.922	0.1
442.124	0.16
442.326	0.19
442.529	0.26
442.731	0.14
442.933	0.32
443.135	0.19
443.337	0.15
443.539	0.2
443.742	0.16
443.944	0.23
444.146	0.13
444.348	0.18
444.55	0.17
444.752	0.21
444.954	0.13
445.156	0.2
445.358	0.22
445.56	0.27
445.762	0.16
445.964	0.19
446.166	0.2
446.368	0.18
446.57	0.26
446.772	0.19
446.974	0.21
447.175	0.2
447.377	0.19
447.579	0.18
447.781	0.12
447.983	0.27
448.184	0.2
448.386	0.25
448.588	0.14
448.79	0.18
448.991	0.15
449.193	0.18
449.395	0.21
449.597	0.25
449.798	0.16
450	0.15
450.202	0.18
450.403	0.19
450.605	0.22
450.806	0.16
451.008	0.07
451.21	0.14
451.411	0.18
451.613	0.12
451.814	0.16
452.016	0.17
452.217	0.15
452.419	0.21
452.62	0.16
452.821	0.17
453.023	0.17
453.224	0.2
453.426	0.06
453.627	0.14
453.828	0.17
454.03	0.1
454.231	0.11
454.432	0.06
454.634	0.19
454.835	0.09
455.036	0.06
455.238	0.16
455.439	0.11
455.64	0.04
455.841	0.06
456.042	0.16
456.244	0.11
456.445	0.06
456.646	0.02
456.847	0.02
457.048	0.08
457.249	0.15
457.45	0.29
457.651	0.02
457.852	0.13
458.054	0.09
458.255	0.06
458.456	0.14
458.657	0.07
458.858	0.04
459.058	0.11
459.259	0.08
459.46	0.03
459.661	0.02
459.862	0.18
460.063	0.05
460.264	0.11
460.465	-0
460.666	0.18
460.866	0.03
461.067	0.02
461.268	0.02
461.469	0.05
461.67	0.06
461.87	0.02
462.071	-0.05
462.272	0.05
462.473	0.04
462.673	0.09
462.874	-0.02
463.075	0.02
463.275	0.01
463.476	0.04
463.676	0.09
463.877	0.08
464.078	-0.02
464.278	0.14
464.479	-0.02
464.679	0.04
464.88	-0.01
465.08	0.1
465.281	-0.01
465.481	0.03
465.682	0.06
465.882	0.02
466.083	0.05
466.283	0.07
466.483	0.02
466.684	-0.03
466.884	0.01
467.085	0.02
467.285	0.02
467.485	0.01
467.686	0.02
467.886	0.03
468.086	0.04
468.286	0.04
468.487	0.06
468.687	-0.06
468.887	-0.02
469.087	0.06
469.287	-0
469.488	-0.02
469.688	0.06
469.888	0.08
470.088	0.09
470.288	0.08
470.488	0.08
470.688	-0.04
470.888	0
471.088	-0.04
471.288	0.04
471.488	0.06
471.688	0.01
471.888	-0
472.088	0.07
472.288	0.02
472.488	-0.02
472.688	-0.01
472.888	0.06
473.088	0.02
473.288	0.04
473.488	0.02
473.688	0.08
473.887	0.04
474.087	0.01
474.287	0.03
474.487	-0.02
474.687	0.04
474.886	0.02
475.086	0.01
475.286	0
475.486	0.02
475.685	0.04
475.885	0.01
476.085	-0.01
476.284	0.03
476.484	0.02
476.684	0.05
476.883	0.03
477.083	0.03
477.282	-0.01
477.482	0.04
477.681	0.08
477.881	0.05
478.08	-0.02
478.28	-0.04
478.479	0.03
478.679	0.07
478.878	-0.01
479.078	-0.01
479.277	0.03
479.477	0.02
479.676	0.07
479.875	0.03
480.075	-0.04
480.274	0.03
480.473	0.03
480.673	-0.04
480.872	0.03
481.071	0.03
481.271	0.03
481.47	-0.01
481.669	-0.01
481.868	-0.01
482.067	-0.01
482.267	-0
482.466	-0.04
482.665	0.01
482.864	-0.02
483.063	-0.04
483.262	0.02
483.461	0.06
483.661	0.04
483.86	0.02
484.059	0.03
484.258	0.02
484.457	0.02
484.656	-0
484.855	0.04
485.054	-0.02
485.253	0.01
485.452	-0.03
485.651	0.03
485.849	0.01
486.048	-0.02
486.247	-0.01
486.446	-0.01
486.645	0
486.844	-0.03
487.043	-0
487.241	0.02
487.44	-0.01
487.639	0.02
487.838	0.04
488.037	0.02
488.235	0.1
488.434	0.01
488.633	-0.01
488.831	0.02
489.03	0.06
489.229	0.02
489.427	0.01
489.626	0.07
489.825	0.07
490.023	0.03
490.222	0
490.42	0.04
490.619	0.05
490.817	0.03
491.016	-0
491.214	0.05
491.413	0.03
491.611	-0.02
491.81	0
492.008	0.05
492.207	0.04
492.405	0.01
492.604	-0.03
492.802	-0.01
493	0.02
493.199	-0
493.397	0.02
493.595	0.02
493.794	0.03
493.992	0.06
494.19	0.02
494.388	0.05
494.587	-0.02
494.785	0.04
494.983	-0.01
495.181	0.03
495.379	0.01
495.578	0.01
495.776	0.04
495.974	0.04
496.172	0
496.37	0.01
496.568	-0.01
496.766	-0
496.964	0.05
497.162	0.05
497.36	0.01
497.558	0.04
497.756	0.04
497.954	0.02
498.152	0
498.35	0.03
498.548	0.01
498.746	0.05
498.944	0.02
499.142	0.03
499.34	0
499.538	0.02
499.736	-0.01
499.933	0.05
500.131	0.07
500.329	0.04
500.527	0.06
500.725	0.06
500.922	0.05
501.12	0.03
501.318	0.06
501.516	0
501.713	0.04
501.911	0.04
502.109	0
502.306	0.05
502.504	0.03
502.701	-0
502.899	0.05
503.097	0.08
503.294	0.05
503.492	0.03
503.689	0.06
503.887	0.07
504.084	0.08
504.282	0.03
504.479	-0
504.677	0.05
504.874	0.01
505.072	0.04
505.269	0.04
505.466	0.08
505.664	0.06
505.861	0.04
506.059	0.02
506.256	0.06
506.453	0.05
506.651	0.08
506.848	0.07
507.045	0.06
507.242	0.06
507.44	0.03
507.637	0.05
507.834	0.06
508.031	0.07
508.229	0.01
508.426	0.06
508.623	0.06
508.82	0.04
509.017	0.03
509.214	0.04
509.411	0.05
509.608	0.03
509.805	0.07
510.003	0.04
510.2	0.06
510.397	0.09
510.594	0.05
510.791	0.05
510.988	0.04
511.184	0.08
511.381	0.06
511.578	0.04
511.775	0.09
511.972	0.07
512.169	0.05
512.366	0.06
512.563	0.08
512.76	0.08
512.956	0.07
513.153	0.06
513.35	0.08
513.547	0.05
513.744	0.05
513.94	0.06
514.137	0.08
514.334	0.07
514.53	0.08
514.727	0.07
514.924	0.14
515.12	0.05
515.317	0.05
515.514	0.06
515.71	0.05
515.907	0.05
516.103	0.07
516.3	0.1
516.497	0.11
516.693	0.11
516.89	0.08
517.086	0.04
517.283	0.08
517.479	0.08
517.676	0.08
517.872	0.07
518.068	0.07
518.265	0.09
518.461	0.07
518.658	0.05
518.854	0.08
519.05	0.06
519.247	0.06
519.443	0.08
519.639	0.1
519.836	0.09
520.032	0.1
520.228	0.08
520.424	0.11
520.621	0.09
520.817	0.08
521.013	0.08
521.209	0.09
521.405	0.13
521.601	0.08
521.798	0.08
521.994	0.12
522.19	0.04
522.386	0.05
522.582	0.08
522.778	0.06
522.974	0.04
523.17	0.09
523.366	0.07
523.562	0.11
523.758	0.1
523.954	0.06
524.15	0.08
524.346	0.09
524.542	0.08
524.738	0.07
524.934	0.08
525.129	0.07
525.325	0.09
525.521	0.08
525.717	0.11
525.913	0.07
526.109	0.1
526.304	0.08
526.5	0.1
526.696	0.1
526.892	0.08
527.087	0.12
527.283	0.07
527.479	0.12
527.674	0.08
527.87	0.08
528.066	0.07
528.261	0.11
528.457	0.08
528.653	0.06
528.848	0.08
529.044	0.08
529.239	0.09
529.435	0.1
529.63	0.08
529.826	0.12
530.021	0.11
530.217	0.11
530.412	0.08
530.608	0.07
530.803	0.08
530.999	0.08
531.194	0.04
531.389	0.1
531.585	0.06
531.78	0.09
531.975	0.09
532.171	0.11
532.366	0.08
532.561	0.08
532.757	0.09
532.952	0.09
533.147	0.1
533.342	0.11
533.538	0.07
533.733	0.14
533.928	0.07
534.123	0.08
534.318	0.07
534.513	0.08
534.709	0.1
534.904	0.07
535.099	0.08
535.294	0.09
535.489	0.09
535.684	0.08
535.879	0.07
536.074	0.1
536.269	0.08
536.464	0.11
536.659	0.09
536.854	0.08
537.049	0.09
537.244	0.09
537.439	0.09
537.634	0.1
537.828	0.1
538.023	0.09
538.218	0.05
538.413	0.07
538.608	0.06
538.803	0.09
538.997	0.05
539.192	0.13
539.387	0.1
539.582	0.1
539.776	0.08
539.971	0.1
540.166	0.09
540.36	0.05
540.555	0.1
540.75	0.09
540.944	0.09
541.139	0.07
541.334	0.07
541.528	0.1
541.723	0.11
541.917	0.07
542.112	0.04
542.306	0.09
542.501	0.07
542.695	0.09
542.89	0.05
543.084	0.09
543.279	0.09
543.473	0.08
543.668	0.09
543.862	0.09
544.056	0.12
544.251	0.09
544.445	0.1
544.64	0.07
544.834	0.06
545.028	0.08
545.222	0.1
545.417	0.12
545.611	0.09
545.805	0.09
546	0.04
546.194	0.07
546.388	0.06
546.582	0.11
546.776	0.08
546.97	0.09
547.165	0.11
547.359	0.11
547.553	0.06
547.747	0.09
547.941	0.11
548.135	0.08
548.329	0.1
548.523	0.08
548.717	0.08
548.911	0.09
549.105	0.08
549.299	0.09
549.493	0.13
549.687	0.1
549.881	0.12
550.075	0.1
550.269	0.05
550.463	0.11
550.657	0.05
550.85	0.08
551.044	0.08
551.238	0.11
551.432	0.07
551.626	0.08
551.82	0.12
552.013	0.07
552.207	0.11
552.401	0.12
552.594	0.08
552.788	0.09
552.982	0.11
553.176	0.07
553.369	0.12
553.563	0.08
553.756	0.06
553.95	0.09
554.144	0.09
554.337	0.1
554.531	0.1
554.724	0.1
554.918	0.07
555.111	0.09
555.305	0.09
555.498	0.16
555.692	0.13
555.885	0.09
556.079	0.11
556.272	0.07
556.466	0.1
556.659	0.08
556.852	0.08
557.046	0.09
557.239	0.12
557.432	0.07
557.626	0.08
557.819	0.11
558.012	0.11
558.206	0.09
558.399	0.09
558.592	0.11
558.785	0.08
558.979	0.1
559.172	0.12
559.365	0.1
559.558	0.11
559.751	0.09
559.944	0.11
560.138	0.09
560.331	0.08
560.524	0.08
560.717	0.11
560.91	0.1
561.103	0.11
561.296	0.1
561.489	0.1
561.682	0.1
561.875	0.12
562.068	0.11
562.261	0.1
562.454	0.15
562.647	0.11
562.84	0.12
563.032	0.08
563.225	0.08
563.418	0.08
563.611	0.09
563.804	0.1
563.997	0.06
564.19	0.07
564.382	0.03
564.575	0.08
564.768	0.09
564.961	0.1
565.153	0.08
565.346	0.1
565.539	0.09
565.731	0.1
565.924	0.12
566.117	0.11
566.309	0.12
566.502	0.09
566.695	0.07
566.887	0.1
567.08	0.09
567.272	0.08
567.465	0.08
567.657	0.09
567.85	0.09
568.042	0.1
568.235	0.11
568.427	0.09
568.62	0.09
568.812	0.08
569.005	0.11
569.197	0.06
569.389	0.09
569.582	0.1
569.774	0.07
569.966	0.05
570.159	0.06
570.351	0.11
570.543	0.06
570.736	0.09
570.928	0.06
571.12	0.09
571.312	0.08
571.505	0.06
571.697	0.13
571.889	0.07
572.081	0.08
572.273	0.07
572.465	0.15
572.658	0.08
572.85	0.11
573.042	0.09
573.234	0.07
573.426	0.11
573.618	0.05
573.81	0.1
574.002	0.14
574.194	0.11
574.386	0.04
574.578	0.03
574.77	0.06
574.962	0.1
575.154	0.05
575.346	0.09
575.538	0.1
575.729	0.08
575.921	0.1
576.113	0.08
576.305	0.11
576.497	0.07
576.689	0.08
576.88	0.09
577.072	0.11
577.264	0.07
577.456	0.06
577.647	0.02
577.839	0.1
578.031	0.11
578.223	0.05
578.414	0.05
578.606	0.1
578.798	0.09
578.989	0.06
579.181	0.08
579.372	0.09
579.564	0.08
579.755	0.09
579.947	0.09
580.139	0.11
580.33	0.04
580.522	0.07
580.713	-0
580.905	0.08
581.096	0.09
581.287	0.08
581.479	0.07
581.67	0.12
581.862	0.09
582.053	0.07
582.244	0.03
582.436	0.08
582.627	0.1
582.818	0.07
583.01	0.06
583.201	0.11
583.392	0.13
583.583	0.11
583.775	0.06
583.966	0.08
584.157	0.08
584.348	0.07
584.54	0.04
584.731	0.1
584.922	0.09
585.113	0.05
585.304	0.09
585.495	0.1
585.686	0.1
585.877	0.09
586.068	0.11
586.259	0.11
586.45	0.07
586.641	0.07
586.832	0.02
587.023	0.08
587.214	0.06
587.405	0.08
587.596	0.07
587.787	0.13
587.978	0.08
588.169	0.05
588.36	0.08
588.551	0.11
588.742	0.05
588.932	0.12
589.123	0.09
589.314	0.1
589.505	0.09
589.696	0.1
589.886	0.07
590.077	0.03
590.268	0.06
590.458	0.02
590.649	0.04
590.84	0.1
591.03	0.06
591.221	0.04
591.412	0.03
591.602	0.11
591.793	0.12
591.984	0.03
592.174	0.06
592.365	0.14
592.555	0.04
592.746	0.1
592.936	0.12
593.127	0.09
593.317	0.11
593.508	0.06
593.698	0.07
593.889	0.09
594.079	0.08
594.269	0.07
594.46	0.09
594.65	0.05
594.84	0.09
595.031	0.04
595.221	0.07
595.411	0.03
595.602	0.1
595.792	0.07
595.982	0.07
596.172	0.1
596.363	0.07
596.553	0.08
596.743	0.08
596.933	0.07
597.123	0.11
597.314	0.07
597.504	0.05
597.694	0.1
597.884	0.09
598.074	0.05
598.264	0.06
598.454	0.07
598.644	0.07
598.834	0.05
599.024	0.03
599.214	0.07
599.404	0.11
599.594	0.05
599.784	0.05
599.974	0.09
600.164	0.09
600.354	0.04
600.544	0.04
600.734	0.06
600.924	0.12
601.114	0.05
601.303	0.07
601.493	0.09
601.683	0.07
601.873	0.08
602.063	0.03
602.252	0.12
602.442	-0.02
602.632	0.03
602.821	0.04
603.011	0.08
603.201	0.04
603.39	0.04
603.58	0.04
603.77	0.06
603.959	0.09
604.149	0.05
604.339	0.05
604.528	0.08
604.718	0.06
604.907	0.04
605.097	0.05
605.286	0.02
605.476	0.07
605.665	0.08
605.855	0.06
606.044	0.11
606.234	0.05
606.423	0.04
606.612	0.03
606.802	0.07
606.991	0.1
607.181	0.06
607.37	0.02
607.559	0.08
607.749	0.02
607.938	0.05
608.127	0.04
608.316	0.05
608.506	0.07
608.695	0.04
608.884	0.03
609.073	0.07
609.263	0.08
609.452	0.1
609.641	0.05
609.83	0.01
610.019	0.08
610.208	0.01
610.397	0.07
610.586	0.09
610.775	0.02
610.965	0.04
611.154	0.04
611.343	0.06
611.532	0.06
611.721	0.05
611.91	0.03
612.099	0.04
612.287	0.03
612.476	0.03
612.665	0.07
612.854	0.02
613.043	0.05
613.232	0.02
613.421	0.01
613.61	0.06
613.798	0.02
613.987	0.11
614.176	0.05
614.365	0.1
614.554	0.08
614.742	0.11
614.931	0.05
615.12	0.07
615.309	0.03
615.497	0.07
615.686	0.03
615.875	0.03
616.063	0.06
616.252	0.05
616.44	0.02
616.629	0.06
616.818	0.08
617.006	0.04
617.195	0.07
617.383	0.09
617.572	0.06
617.76	0.02
617.949	0.06
618.137	0.09
618.326	0.1
618.514	0.03
618.703	0.01
618.891	0.12
619.079	-0.01
619.268	0.06
619.456	0.02
619.644	0.1
619.833	0.03
620.021	0.04
620.209	0.02
620.398	0.06
620.586	0.07
620.774	0.08
620.962	0.08
621.151	0.09
621.339	0.04
621.527	-0.01
621.715	0.01
621.903	0.01
622.092	-0.02
622.28	0.06
622.468	0.01
622.656	0.03
622.844	0.07
623.032	0.04
623.22	-0.01
623.408	0.08
623.596	0.07
623.784	0.08
623.972	0.02
624.16	0.04
624.348	0.07
624.536	0.05
624.724	0.02
624.912	0.07
625.1	0.09
625.288	0.03
625.476	0.04
625.664	0.09
625.851	0.02
626.039	0.02
626.227	0.05
626.415	0.06
626.603	-0.03
626.79	0.03
626.978	0.07
627.166	0.05
627.354	0.05
627.541	0.01
627.729	-0.02
627.917	0.05
628.104	0.08
628.292	0.04
628.48	0.03
628.667	0.07
628.855	0.03
629.042	0.04
629.23	0
629.418	0.04
629.605	0.02
629.793	0.01
629.98	0.02
630.168	0.04
630.355	0.01
630.543	0.03
630.73	0.05
630.917	0.05
631.105	0.07
631.292	0.02
631.48	0.02
631.667	0.09
631.854	0.03
632.042	0.01
632.229	0.01
632.416	0.03
632.604	0.03
632.791	-0.02
632.978	0.05
633.165	0.04
633.353	0.06
633.54	0.05
633.727	-0.01
633.914	-0.01
634.101	0.05
634.289	0.05
634.476	-0
634.663	0.02
634.85	0.05
635.037	-0.04
635.224	-0.01
635.411	0.06
635.598	0.09
635.785	0
635.972	0.03
636.159	0.07
636.346	0.01
636.533	0.02
636.72	0.01
636.907	0.02
637.094	0.06
637.281	-0.02
637.468	0.01
637.655	0.05
637.842	0.01
638.029	-0
638.215	0.07
638.402	0.03
638.589	0
638.776	-0.01
638.963	-0.01
639.149	0.05
639.336	0.06
639.523	0.03
639.709	0.03
639.896	0.02
640.083	0.09
640.27	0.01
640.456	0.01
640.643	0.07
640.829	-0.03
641.016	0.03
641.203	-0.03
641.389	0.03
641.576	0.07
641.762	0.01
641.949	-0.01
642.135	0.05
642.322	0.07
642.508	-0.02
642.695	0
642.881	-0.01
643.068	0.02
643.254	0.02
643.441	0.06
643.627	0.02
643.813	0.02
644	0.04
644.186	-0
644.372	0
644.559	0.06
644.745	0.01
644.931	0.01
645.118	0.03
645.304	0
645.49	-0.03
645.676	0.01
645.862	0.01
646.049	0.05
646.235	0.03
646.421	0.09
646.607	0.05
646.793	0
646.979	-0.03
647.165	0.05
647.352	0.02
647.538	0.04
647.724	0.03
647.91	0.02
648.096	0.02
648.282	0.05
648.468	0.02
648.654	0.02
648.84	0.07
649.026	0.02
649.212	0.02
649.397	0
649.583	-0.03
649.769	0.06
649.955	-0.01
650.141	0.04
650.327	0.06
650.513	-0
650.698	0.04
650.884	-0.07
651.07	0.02
651.256	0.03
651.442	0.03
651.627	-0.02
651.813	0.02
651.999	0.02
652.184	0.02
652.37	0.02
652.556	-0.02
652.741	0.02
652.927	-0.06
653.113	-0.01
653.298	0.01
653.484	0.01
653.669	-0.06
653.855	-0
654.04	0.01
654.226	0.03
654.412	-0
654.597	-0.01
654.782	0.04
654.968	0.07
655.153	0.02
655.339	0.01
655.524	-0.05
655.71	0.06
655.895	-0
656.08	-0.03
656.266	0.03
656.451	0.03
656.636	-0.03
656.822	0
657.007	-0.03
657.192	0.02
657.378	-0.05
657.563	-0
657.748	0.04
657.933	-0.01
658.118	0.01
658.304	-0.03
658.489	0.04
658.674	0.01
658.859	-0.02
659.044	0.01
659.229	0.02
659.414	0.01
659.599	-0.01
659.785	-0.07
659.97	0.02
660.155	0
660.34	0.01
660.525	-0.03
660.71	0.01
660.895	0.04
661.08	0
661.264	-0.02
661.449	0.06
661.634	0.06
661.819	0.02
662.004	0
662.189	-0.05
662.374	-0.01
662.559	-0.03
662.743	-0.08
662.928	0.02
663.113	0.01
663.298	-0.06
663.483	0.01
663.667	0.01
663.852	-0.04
664.037	0.06
664.221	0.02
664.406	0.03
664.591	0.03
664.775	0.01
664.96	-0.04
665.145	-0.02
665.329	0.07
665.514	0
665.698	-0.02
665.883	-0.05
666.068	0.08
666.252	-0.02
666.437	0.01
666.621	0.01
666.806	0.03
666.99	-0
667.174	-0.05
667.359	0.06
667.543	-0.02
667.728	0.01
667.912	-0.06
668.096	-0
668.281	-0.06
668.465	0.03
668.649	0.03
668.834	-0.01
669.018	-0.01
669.202	0.01
669.387	-0.02
669.571	0.02
669.755	0.01
669.939	0.03
670.124	-0
670.308	0.05
670.492	-0
670.676	-0.01
670.86	-0
671.044	-0.03
671.228	0.01
671.413	-0.01
671.597	-0.01
671.781	-0.04
671.965	0.04
672.149	0.01
672.333	-0.02
672.517	-0.05
672.701	0.06
672.885	-0.02
673.069	-0.05
673.253	0.05
673.437	-0.02
673.621	-0.04
673.804	-0.04
673.988	0
674.172	0
674.356	-0.03
674.54	-0
674.724	0.11
674.908	0.01
675.091	-0.01
675.275	-0.02
675.459	0.06
675.643	0.06
675.826	0.02
676.01	0.04
676.194	-0.01
676.377	0.02
676.561	0.01
676.745	-0.01
676.928	0.02
677.112	0.05
677.296	-0.04
677.479	0.05
677.663	-0.05
677.846	-0.01
678.03	-0.03
678.213	-0.03
678.397	0.05
678.58	-0.04
678.764	-0.01
678.947	-0.04
679.131	-0.07
679.314	0.07
679.498	0.01
679.681	0.04
679.865	0.01
680.048	-0.02
680.231	-0
680.415	-0.02
680.598	-0.01
680.781	0.01
680.965	-0.03
681.148	0.02
681.331	-0.02
681.514	0.03
681.698	-0.02
681.881	0.04
682.064	0.02
682.247	-0.03
682.43	-0.05
682.614	0.02
682.797	0.03
682.98	0.03
683.163	-0
683.346	0.04
683.529	-0.02
683.712	-0.01
683.895	0.01
684.078	-0.07
684.261	-0.01
684.444	0
684.627	0.01
684.81	-0.05
684.993	-0
685.176	-0.03
685.359	-0.1
685.542	-0.07
685.725	0.05
685.908	-0.02
686.091	-0.03
686.274	0.05
686.457	0.03
686.639	-0.02
686.822	0.05
687.005	-0.02
687.188	-0.03
687.371	0.05
687.553	-0
687.736	0.03
687.919	0.02
688.102	0.04
688.284	-0.03
688.467	0.05
688.65	-0.02
688.832	-0.01
689.015	-0.03
689.197	-0.05
689.38	0.1
689.563	0.05
689.745	-0.07
689.928	-0.08
690.11	0.03
690.293	-0.01
690.475	-0.04
690.658	0.04
690.84	-0.04
691.023	-0.07
691.205	-0.05
691.388	0.02
691.57	0.04
691.752	0.05
691.935	-0.05
692.117	-0.03
692.3	0.01
692.482	0.02
692.664	-0.03
692.847	0.03
693.029	0.06
693.211	0
693.393	-0.01
693.576	-0.04
693.758	-0
693.94	-0.03
694.122	-0.06
694.304	-0.05
694.487	-0.04
694.669	0.11
694.851	-0.07
695.033	-0.03
695.215	0
695.397	-0.01
695.579	-0
695.761	-0.01
695.943	-0.12
696.125	0.05
696.308	0.03
696.49	-0.14
696.671	0.12
696.853	-0.03
697.035	0.08
697.217	0.01
697.399	0.04
697.581	-0.02
697.763	0.02
697.945	-0.08
698.127	0.04
698.309	0.06
698.491	-0.04
698.672	0.04
698.854	0.04
699.036	0.07
699.218	-0.07
699.399	0.02
699.581	0.03
699.763	0.01
699.945	-0.05
700.126	-0.06
700.308	0.02
700.49	-0.03
700.671	-0.14
700.853	-0.03
701.035	-0.07
701.216	-0.03
701.398	-0.02
701.579	0.01
701.761	0.04
701.943	-0.05
702.124	-0.03
702.306	-0.05
702.487	0.14
702.669	-0.05
702.85	-0.06
703.031	-0.07
703.213	0.02
703.394	0.05
703.576	-0.05
703.757	-0.01
703.938	0.02
704.12	0.08
704.301	-0.03
704.483	-0.05
704.664	-0
704.845	0.1
705.026	0.05
705.208	-0.12
705.389	-0.04
705.57	-0.03
705.751	-0.05
705.933	-0.01
706.114	0.07
706.295	0.02
706.476	-0.04
706.657	0.12
706.838	0.06
707.02	-0.01
707.201	-0.08
707.382	-0.07
707.563	-0.04
707.744	-0.09
707.925	-0.09
708.106	-0.08
708.287	-0.03
708.468	0.09
708.649	-0.02
708.83	0.01
709.011	-0.03
709.192	0.05
709.373	-0.06
709.554	-0.05
709.734	-0.01
709.915	0
710.096	0.01
710.277	-0.1
710.458	-0.04
710.639	0
710.819	-0.12
711	-0.05
711.181	0.04
711.362	0
711.542	-0.07
711.723	-0.02
711.904	0.03
712.085	0.03
712.265	-0
712.446	-0
712.627	-0
712.807	-0.01
712.988	-0.03
713.168	-0.06
713.349	0.03
713.53	-0.14
713.71	-0.07
713.891	-0.06
714.071	0.02
714.252	-0.05
714.432	-0.08
714.613	-0.07
714.793	-0.01
714.974	0.07
715.154	0.04
715.334	0.01
715.515	0.13
715.695	-0.06
715.876	-0.03
716.056	0.06
716.236	-0.03
716.417	-0.02
716.597	-0.08
716.777	0.12
716.957	0
717.138	-0.03
717.318	-0.03
717.498	-0.1
717.678	-0.02
717.859	-0
718.039	-0.06
718.219	0.04
718.399	0.07
718.579	-0.1
718.759	-0.12
718.939	0.03
719.12	0
719.3	-0.04
719.48	-0.14
719.66	-0.12
719.84	0.02
720.02	-0
720.2	-0.11
720.38	0
720.56	0.07
720.74	-0.08
720.92	0.05
721.1	0.06
721.279	0.05
721.459	-0.02
721.639	-0.06
721.819	-0.01
721.999	-0.1
722.179	0.05
722.359	-0.07
722.538	-0
722.718	0.07
722.898	-0.04
723.078	0
723.257	-0.06
723.437	-0.02
723.617	0.03
723.797	-0.04
723.976	-0.03
724.156	0.01
724.336	0.03
724.515	0.16
724.695	-0.15
724.874	-0.05
725.054	-0.02
725.234	-0.07
725.413	0.06
725.593	-0.08
725.772	-0.04
725.952	-0.04
726.131	-0.03
726.311	-0.06
726.49	-0.07
726.67	-0.14
726.849	-0.09
727.028	-0.04
727.208	-0.02
727.387	-0
727.567	-0.14
727.746	-0.02
727.925	-0.11
728.105	-0.12
728.284	-0.01
728.463	-0.11
728.643	0.03
728.822	-0.16
729.001	-0.15
729.18	0
729.359	-0.02
729.539	-0.08
729.718	-0.01
729.897	0.05
730.076	-0.06
730.255	-0.11
730.434	0.03
730.614	-0.01
730.793	0.07
730.972	-0.03
731.151	-0.02
731.33	0.05
731.509	-0.1
731.688	-0.03
731.867	-0
732.046	-0.18
732.225	0.13
732.404	-0.1
732.583	-0.1
732.762	-0.04
732.941	0.06
733.12	0.02
733.298	-0.04
733.477	0.01
733.656	-0.1
733.835	-0.06
734.014	0
734.193	-0.07
734.371	0.02
734.55	0.03
734.729	-0.1
734.908	-0.03
735.086	0.03
735.265	0.07
735.444	-0.19
735.623	-0.08
735.801	-0.17
735.98	0.03
736.159	0.01
736.337	0.02
736.516	0.02
736.694	0.01
736.873	-0.13
737.052	0.14
737.23	0.14
737.409	-0.19
737.587	0.06
737.766	-0.17
737.944	-0.1
738.123	-0.02
738.301	0.07
738.479	-0.11
738.658	-0.03
738.836	-0.12
739.015	0.08
739.193	-0
739.371	-0.15
739.55	-0.16
739.728	-0.11
739.906	-0
740.085	0.17
740.263	0.05
740.441	-0.18
740.62	0.16
740.798	0.07
740.976	-0.16
741.154	-0.14
741.332	0.09
741.511	-0.21
741.689	0.04
741.867	-0.02
742.045	-0.03
742.223	-0.11
742.401	-0.09
742.579	-0.07
742.757	0.06
742.935	-0.13
743.114	-0.11
743.292	-0.1
743.47	-0.02
743.648	-0.01
743.826	-0.07
744.004	0.06
744.181	0.16
744.359	-0.04
744.537	-0.03
744.715	0.02
744.893	-0.01
745.071	-0.03
745.249	-0.06
745.427	-0.15
745.605	-0
745.782	-0.06
745.96	-0.05
746.138	0.05
746.316	0.17
746.493	-0.13
746.671	0.05
746.849	-0.08
747.027	0.12
747.204	-0.12
747.382	0.02
747.56	-0.19
747.737	0.01
747.915	-0.05
748.093	0.07
748.27	-0.13
748.448	0.02
748.625	-0.12
748.803	0.02
748.98	-0.08
749.158	-0.01
749.335	0.09
749.513	-0.04
749.69	-0.03
749.868	-0.1
750.045	0.01
750.223	-0.09
750.4	-0.34
750.578	0.12
750.755	-0.03
750.932	-0.15
751.11	0.09
751.287	-0.14
751.464	0.06
751.642	-0.12
751.819	0.01
751.996	0.02
752.173	0.04
752.351	-0.1
752.528	-0.06
752.705	-0.09
752.882	-0.14
753.06	0.05
753.237	-0.02
753.414	0.12
753.591	0.09
753.768	-0.06
753.945	-0.06
754.122	-0.04
754.299	0.03
754.476	-0.08
754.654	0.12
754.831	0.01
755.008	-0.01
755.185	-0.05
755.362	-0.04
755.539	0.01
755.716	-0.09
755.892	-0.02
756.069	-0.06
756.246	-0.07
756.423	-0.09
756.6	0.04
756.777	-0.04
756.954	-0.07
757.131	0.03
757.307	-0.16
757.484	-0.14
757.661	0.04
757.838	-0.02
758.015	-0.2
758.191	0.09
758.368	-0.06
758.545	0.07
758.721	0.06
758.898	-0.07
759.075	-0.07
759.251	0.1
759.428	0.07
759.605	-0.19
759.781	-0
759.958	-0.02
760.134	0.06
760.311	-0.23
760.488	0.03
760.664	0.07
760.841	-0.06
761.017	-0.07
761.194	0.04
761.37	0.01
761.547	0
761.723	0.01
761.899	0.03
762.076	-0.22
762.252	-0.01
762.429	-0.04
762.605	0.17
762.781	-0.08
762.958	0.03
763.134	-0.09
763.31	-0.1
763.486	-0
763.663	-0.13
763.839	0.05
764.015	-0.15
764.191	-0.1
764.368	0.05
764.544	-0.01
764.72	0.17
764.896	0.02
765.072	0.06
765.248	-0.05
765.425	-0.09
765.601	-0.1
765.777	-0.08
765.953	-0.26
766.129	-0.07
766.305	-0.03
766.481	-0.03
766.657	-0.05
766.833	0.19
767.009	-0.07
767.185	-0.12
767.361	0.03
767.537	-0.15
767.713	0.05
767.889	-0.14
768.065	0.05
768.24	-0
768.416	0.05
768.592	-0.1
768.768	-0.09
768.944	-0.01
769.12	-0.07
769.295	0
769.471	-0.1
769.647	-0.07
769.823	0.03
769.998	-0.17
770.174	-0.18
770.35	0.21
770.525	0.1
770.701	0.04
770.877	-0.08
771.052	-0.12
771.228	0
771.403	-0.03
771.579	0.12
771.755	0.24
771.93	-0.2
772.106	-0.1
772.281	-0.28
772.457	-0.11
772.632	0.07
772.808	-0.33
772.983	-0.12
773.159	-0.15
773.334	0.13
773.509	-0.11
773.685	-0.18
773.86	0.27
774.036	-0.05
774.211	-0.09
774.386	-0.15
774.562	0.05
774.737	-0.03
774.912	-0.15
775.087	0.13
775.263	-0.05
775.438	-0.12
775.613	-0.08
775.788	-0.19
775.964	0.11
776.139	0.26
776.314	-0.19
776.489	-0.09
776.664	-0.15
776.839	-0.11
777.014	0.09
777.19	0.03
777.365	0.28
777.54	0.22
777.715	-0.1
777.89	-0.05
778.065	-0.22
778.24	-0.06
778.415	0.09
778.59	-0.2
778.765	-0.14
778.94	0.05
779.115	-0.13
779.289	0.03
779.464	0.11
779.639	-0.14
779.814	-0.15
779.989	-0.06
780.164	0.26
780.339	0
780.513	-0.18
780.688	-0.23
780.863	-0.01
781.038	-0
781.212	-0.18
781.387	0
781.562	0.2
781.737	-0.06
781.911	0.03
782.086	-0.1
782.261	0.01
782.435	0.23
782.61	-0.11
782.784	-0.04
782.959	0.18
783.134	-0.16
783.308	-0.33
783.483	-0.18
783.657	0.31
783.832	-0.01
784.006	-0.29
784.181	-0.07
784.355	0.17
784.53	-0.21
784.704	-0.17
784.878	0.17
785.053	0.04
785.227	0.29
785.402	0.15
785.576	-0.01
785.75	-0.05
785.925	-0.36
786.099	-0.11
786.273	-0.13
786.448	0.09
786.622	-0.03
786.796	0.03
786.97	-0.07
787.145	0.51
787.319	-0.39
787.493	-0.11
787.667	-0.37
787.841	0.08
788.015	0.14
788.19	-0.3
788.364	0.05
788.538	0.1
788.712	0.25
788.886	-0.06
789.06	0.25
789.234	-0.02
789.408	-0.25
789.582	-0.05
789.756	0.08
789.93	-0.27
790.104	-0.06
790.278	-0.15
790.452	-0.38
790.626	0.02
790.8	-0.1
790.973	0.13
791.147	0.01
791.321	0.22
791.495	0.04
791.669	0.04
791.843	-0.11
792.016	0.02
792.19	0.37
792.364	-0.25
792.538	0.39
792.711	0.01
792.885	-0.14
793.059	-0.32
793.233	-0.53
793.406	0.24
793.58	-0.05
793.754	0.22
793.927	0.06
794.101	0.14
794.274	-0.12
794.448	0.13
794.622	-0.39
794.795	0.25
794.969	-0.28
795.142	0.14
795.316	-0.31
795.489	-0.16
795.663	0.5
795.836	-0.2
796.009	-0.26
796.183	0.29
796.356	0.06
796.53	-0.01
796.703	-0.25
796.876	0.39
797.05	0.14
797.223	-0.24
797.396	0.08
797.57	-0.17
797.743	0.37
797.916	0.27
798.09	-0.12
798.263	0.27
798.436	0.24
798.609	-0.19
798.782	-0.07
798.956	-0.02
799.129	-0.08
799.302	-0.08
799.475	-0.17
799.648	-0.19
799.821	-0.3
799.994	0.07
800.167	-0.26
800.34	-0.14
800.514	-0.19
800.687	-0.16
800.86	-0.19
801.033	0.03
801.206	0.07
801.379	-0.31
801.551	0.09
801.724	0.25
801.897	0.43
802.07	-0.27
802.243	-0.61
802.416	-0.11
802.589	-0.02
802.762	0.37
802.935	-0.11
803.107	0.18
803.28	0.04
803.453	-0.03
803.626	-0.33
803.798	-0.1
803.971	-0.35
804.144	0.02
804.317	0.37
804.489	0.06
804.662	0.14
804.835	-0.11
805.007	-0.37
805.18	0.3
805.353	0.06
805.525	-0.21
805.698	-0.36
805.87	0.01
806.043	0.16
806.215	-0.27
806.388	-0.13
806.56	0.05
806.733	0.27
806.905	-0.05
807.078	-0.02
807.25	-0.26
807.423	0.24
807.595	0.01
807.768	-0.3
807.94	0.11
808.112	-0.01
808.285	-0.1
808.457	0.09
808.629	0.07
808.802	0.1
808.974	0.08
809.146	-0.19
809.318	-0.75
809.491	0.22
809.663	0.27
809.835	-0.15
810.007	0.17
810.18	-0.24
810.352	-0.56
810.524	-0.32
810.696	0.18
810.868	0.67
811.04	-0.01
811.212	-0.08
811.384	0.12
811.556	-0.04
811.728	-0.38
811.901	0.57
812.073	0.05
812.245	0.06
812.417	-0.1
812.589	-0.58
812.76	-0.05
812.932	0.26
813.104	0.25
813.276	-0.35
813.448	0.09
813.62	0.11
813.792	0.18
813.964	0.04
814.136	-0.02
814.307	-0.7
814.479	-0.03
814.651	-0.03
814.823	0.8
814.995	-0.11
815.166	-0.08
815.338	-0.45
815.51	-0.32
815.681	0.69
815.853	-0.16
816.025	-0.21
816.196	0.59
816.368	0.57
816.54	-0.48
816.711	-0.18
816.883	0.22
817.054	0.77
817.226	-0.63
817.398	0.41
817.569	-0.65
817.741	-0.13
817.912	-0.25
818.084	-0.14
818.255	-0.01
818.426	-0.36
818.598	-0.18
818.769	-0.27
818.941	0.02
819.112	0.38
819.283	0.1
819.455	-0.36
819.626	-0.04
819.798	0
819.969	0.07
820.14	-0.29
820.311	-0.27
820.483	0.14
820.654	0.38
820.825	-0.15
820.996	-0.36
821.168	-0.86
821.339	-0.13
821.51	-0.55
821.681	0.78
821.852	0.34
822.023	-0.46
822.195	-0.28
822.366	0.34
822.537	0.18
822.708	0.04
822.879	-0.42
823.05	0.73
823.221	-0.32
823.392	0.16
823.563	-0.47
823.734	0.09
823.905	0.47
824.076	-0.46
824.247	-0.37
824.418	-0.51
824.589	0.66
824.759	-0.46
824.93	-0.33
825.101	-0.24
825.272	0.14
825.443	0.48
825.614	-0.17
825.784	-0.9
825.955	0.82
826.126	0.64
826.297	-0.33
826.467	0.6
826.638	0.91
826.809	-1.58
826.98	-0.44
827.15	-0.13
827.321	-0.34
827.492	0.42
827.662	0.11
827.833	0.66
828.003	-0.3
828.174	-0.74
828.345	-0.66
828.515	0.06
828.686	-0.3
828.856	-0.4
829.027	-0.66
829.197	0.38
829.368	0.17
829.538	-0.25
829.709	-0.57
829.879	0.35
830.049	0.41
830.22	-0.38
830.39	0.31
830.56	0.1
830.731	0
830.901	-0.8
831.072	-0.15
831.242	0.01
831.412	0.59
831.582	0.3
831.753	-0.94
831.923	0.81
832.093	-0.02
832.263	-0.64
832.434	-0.45
832.604	-0.14
832.774	0.05
832.944	-0.61
833.114	-0.17
833.284	-0.04
833.454	-0.89
833.624	0.06
833.795	0.05
833.965	0.52
834.135	0.77
834.305	-1.01
834.475	-0.62
834.645	-0.25
834.815	-0.95
834.985	-0.56
835.155	-0.3
835.325	0.16
835.494	0.29
835.664	-0.65
835.834	-0.76
836.004	-0.02
836.174	0.47
836.344	0.68
836.514	-1.25
836.684	-0.2
836.853	-0.08
837.023	0.28
837.193	-0.68
837.363	0.03
837.532	0.34
837.702	-0.24
837.872	-0.6
838.041	0.61
838.211	0.79
838.381	-0.73
838.55	0.43
838.72	1.65
838.89	0.36
839.059	-0.23
839.229	-0.8
839.398	1.05
839.568	0.21
839.738	-0.23
839.907	0.36
840.077	0.17
840.246	-0.33
840.416	-0.8
840.585	-0.75
840.755	1.18
840.924	0.28
841.093	-0.09
841.263	-0.17
841.432	-0.38
841.602	-1.2
841.771	-1.02
841.94	-0.31
842.11	1.63
842.279	0.92
842.448	-0.95
842.617	-0.53
842.787	1.7
842.956	-1.47
843.125	-0.46
843.294	-0.02
843.464	0.6
843.633	-0.8
843.802	-1.13
843.971	-0.28
844.14	0.36
844.309	0.27
844.479	-1.34
844.648	-1.14
844.817	-0.9
844.986	-0.57
845.155	0.02
845.324	-0.38
845.493	-0.08
845.662	-0.72
845.831	0.58
846	0.26
846.169	0.12
846.338	0.86
846.507	0.61
846.676	0.16
846.844	-0.12
847.013	0.41
847.182	0.18
847.351	-0.8
847.52	-0.53
847.689	-0.29
847.858	-0.59
848.026	-0.76
848.195	-0.44
848.364	-0.76
848.533	-0.87
848.701	-0.52
848.87	-0.66
849.039	0.18
849.207	0.81
849.376	-0.11
849.545	1.03
849.713	-0.66
849.882	-1.39
850.051	-0.56
850.219	0.26
850.388	0.54
850.556	-0.77
850.725	-0.5
850.893	0.46
851.062	-0.94
851.23	0.55
851.399	-0.86
851.567	-0.76
851.736	-0.43
851.904	-0.84
852.073	0.23
852.241	0.78
852.41	0.04
852.578	-1.04
852.746	-1.02
852.915	0.05
853.083	-0.1
853.251	-0.42
853.42	-0.34
853.588	-0.38
853.756	1.12
853.924	-0.39
854.093	-0.93
854.261	0.62
854.429	-0.76
854.597	1.05
854.765	-1.15
854.934	0.55
855.102	1.01
855.27	0.27
855.438	0.27
855.606	-0.19
855.774	2.37
855.942	-0.96
856.11	-2.11
856.278	-0.36
856.446	1.23
856.614	0.24
856.782	0.08
856.95	1.07
857.118	1.1
857.286	1.22
857.454	-0.73
857.622	0.76
857.79	-0.61
857.958	0.19
858.126	-1.13
858.294	-2.36
858.462	-0.72
858.629	0.13
858.797	0.15
858.965	-0.54
859.133	0.26
859.301	-1.46
859.468	0.06
859.636	-0.34
859.804	1.34
859.971	1.22
860.139	-1.16
860.307	0.97
860.474	-0.13
860.642	-2.41
860.81	-1.34
860.977	0.35
861.145	0.7
861.313	-0.41
861.48	0.94
861.648	0.75
861.815	-0.63
861.983	-0.52
862.15	-1.17
862.318	0.9
862.485	1.17
862.653	-0.04
862.82	-0.65
862.988	1.26
863.155	-0.23
863.322	-1.48
863.49	-1.77
863.657	-1.61
863.824	1.69
863.992	-0.58
864.159	-1.02
864.326	0.93
864.494	-1.9
864.661	3.25
864.828	-2.47
864.996	0.64
865.163	1.99
865.33	-1.05
865.497	-2.04
865.664	0.17
865.832	-2.37
865.999	-0.41
866.166	-1.26
866.333	0.28
866.5	-0.85
866.667	1.19
866.834	0.48
867.001	1.66
867.168	-3.12
867.335	-0.04
867.502	-2.21
867.669	-0.31
867.836	2.76
868.003	-1.78
868.17	0.8
868.337	-0.73
868.504	1.4
868.671	-1.3
868.838	-2.6
869.005	-0.59
869.172	-0.51
869.339	-0.55
869.505	-0.6
869.672	-0.24
869.839	0.9
870.006	-1.53
870.173	-1.94
870.339	1.67
870.506	1.47
870.673	-0.73
870.84	0.8
871.006	0.43
871.173	-0.89
871.34	-0.97
871.506	-1.04
871.673	-1.15
871.839	-2.3
872.006	0.02
872.173	-0.54
872.339	-0.73
872.506	0.68
872.672	-0.58
872.839	-3.25
873.005	1.62
873.172	2.7
873.338	1.47
873.505	-0.37
873.671	0.22
873.838	1.86
874.004	-2.6
874.171	-1.26
874.337	0.09
874.503	-0.29
874.67	-0.72
874.836	-1.62
875.002	1.8
875.169	0.52
875.335	-0.99
875.501	-2.17
875.668	0.81
875.834	-0.14
876	-0.23
876.166	0.32
876.332	0.83
876.499	2.8
876.665	-2.25
876.831	-0.27
876.997	1.15
877.163	0.79
877.329	-0.24
877.495	0.22
877.662	0.35
877.828	1.3
877.994	-1.9
878.16	-2
878.326	-0.41
878.492	-0.5
878.658	-1.61
878.824	-0.56
878.99	1.54
879.156	-1.08
879.322	2.99
879.487	-1.81
879.653	0.24
879.819	-0.93
879.985	-2.19
880.151	0.86
880.317	0.49
880.483	0.24
880.648	0.9
880.814	-1.21
880.98	1.12
881.146	-1.75
881.312	-1.09
881.477	-0.94
881.643	0.55
881.809	1.75
881.974	1.22
882.14	-2.7
882.306	-1
882.471	2.52
882.637	-1.58
882.803	-0.17
882.968	1.61
883.134	2.84
883.299	-0.84
883.465	1.2
883.63	1.62
883.796	0.35
883.961	-0.26
884.127	-0.54
884.292	-4.42
884.458	-1.68
884.623	-1.68
