Data from Apollo_Calib_20240827__AbsoluteIrradiance__310__04-19-01-655.txt Node

Date: Wed Aug 28 04:19:01 BST 2024
User: biology
Spectrometer: FLMT08252
Trigger mode: 0
Integration Time (sec): 5.000000E-1
Scans to average: 5
Electric dark correction enabled: true
Nonlinearity correction enabled: false
Boxcar width: 0
XAxis mode: Wavelengths
Number of Pixels in Spectrum: 3648
>>>>>Begin Spectral Data<<<<<
179.588	-0
179.809	-0
180.03	-0
180.251	-0
180.473	-0
180.694	0
180.915	0
181.136	-0
181.357	0
181.578	-0
181.799	-0
182.02	-0
182.241	0
182.462	-0
182.683	0
182.904	-0
183.125	-0
183.346	0
183.567	0
183.788	-0
184.009	-0
184.23	0
184.451	0
184.672	-0
184.892	-0
185.113	0
185.334	0
185.555	-0
185.776	-0
185.996	0
186.217	0
186.438	-0
186.659	-0
186.879	0
187.1	-0
187.321	-0
187.541	-0
187.762	-0
187.983	-0
188.203	-0
188.424	0
188.644	-0
188.865	-0
189.086	-0
189.306	-0
189.527	-0
189.747	0
189.968	-0
190.188	-0
190.409	-0
190.629	0
190.849	-0
191.07	-0
191.29	0
191.511	-0
191.731	-0
191.951	-0
192.172	0
192.392	-0
192.612	-0
192.833	-0
193.053	0
193.273	0
193.493	-0
193.714	-0
193.934	0
194.154	0
194.374	-0
194.594	0
194.815	0
195.035	0
195.255	-0
195.475	-0
195.695	0
195.915	-0
196.135	-0
196.355	0
196.575	0
196.795	0
197.015	-0
197.235	-0
197.455	-0
197.675	0
197.895	-0
198.115	-0
198.335	0
198.555	-0
198.775	0
198.995	-0
199.214	0
199.434	-0
199.654	-0
199.874	-0
200.094	0.62
200.313	-0.23
200.533	-0.94
200.753	-1.23
200.973	0.59
201.192	0.65
201.412	-0.74
201.632	-0.19
201.851	0.9
202.071	-0.33
202.291	-0.29
202.51	-0.21
202.73	0.5
202.95	-0.09
203.169	-0.75
203.389	0.09
203.608	-0.48
203.828	-0.49
204.047	-0.38
204.267	0.4
204.486	-0.04
204.706	-0.05
204.925	-0.26
205.145	-0.14
205.364	0.43
205.583	0.49
205.803	-0.48
206.022	-0.7
206.242	0.05
206.461	0.22
206.68	-0.53
206.9	-0.16
207.119	0.6
207.338	0.37
207.557	-0.36
207.777	-0.12
207.996	-0.28
208.215	0.47
208.434	-0.32
208.654	-0.77
208.873	-0.31
209.092	0.81
209.311	-0.19
209.53	-0.21
209.749	-0.22
209.968	-0.35
210.187	-0.16
210.407	-0.68
210.626	-0.15
210.845	0.24
211.064	-0.01
211.283	-0.28
211.502	-0.07
211.721	-0.09
211.94	-0.23
212.159	-0.07
212.377	0.25
212.596	0.29
212.815	-0.07
213.034	0.01
213.253	0.29
213.472	0.13
213.691	-0.27
213.91	-0.23
214.128	-0.35
214.347	0.55
214.566	-0.59
214.785	-0.26
215.003	0.13
215.222	0.02
215.441	-0.32
215.66	-0.39
215.878	-0.21
216.097	0.24
216.316	-0.23
216.534	-0.24
216.753	0.19
216.972	-0.15
217.19	-0.12
217.409	-0.38
217.627	-0.15
217.846	0.06
218.064	-0.02
218.283	-0.18
218.501	0.31
218.72	0.21
218.938	-0.35
219.157	-0.24
219.375	0.2
219.594	-0.04
219.812	-0.23
220.031	-0.21
220.249	0.28
220.467	0.15
220.686	-0.13
220.904	-0.21
221.122	-0.18
221.341	0.38
221.559	0.05
221.777	-0.26
221.995	0.03
222.214	0.11
222.432	-0.07
222.65	0.14
222.868	-0.08
223.086	0.03
223.305	0.11
223.523	-0.19
223.741	0.11
223.959	-0.12
224.177	-0.32
224.395	-0.11
224.613	0.04
224.831	0.04
225.049	-0.32
225.267	-0.07
225.485	-0.03
225.703	-0.26
225.921	-0.01
226.139	-0.17
226.357	0.21
226.575	0.09
226.793	-0.16
227.011	0.58
227.229	0
227.447	0.09
227.665	-0.15
227.883	-0.32
228.1	-0.09
228.318	-0
228.536	-0.31
228.754	-0.27
228.972	0.13
229.189	0.03
229.407	-0.07
229.625	-0.12
229.843	0.14
230.06	-0.03
230.278	-0.01
230.496	-0.12
230.713	0.03
230.931	0.19
231.149	-0.06
231.366	-0.22
231.584	-0.02
231.801	0.45
232.019	-0.17
232.236	-0.12
232.454	-0.21
232.671	0.06
232.889	-0.1
233.106	-0.21
233.324	0.09
233.541	-0.04
233.759	-0.01
233.976	-0.16
234.194	-0
234.411	-0.06
234.628	-0.21
234.846	-0.07
235.063	0.01
235.28	-0.08
235.498	-0.09
235.715	-0.18
235.932	0.12
236.149	-0.09
236.367	-0.14
236.584	-0.07
236.801	-0.01
237.018	0.08
237.236	-0.03
237.453	-0.23
237.67	0.11
237.887	0.01
238.104	-0.03
238.321	-0.19
238.538	-0.06
238.755	0.18
238.973	-0.19
239.19	-0.01
239.407	-0.07
239.624	-0.05
239.841	-0.12
240.058	-0.16
240.275	-0.03
240.492	0.06
240.709	-0.06
240.925	-0.04
241.142	-0.08
241.359	-0.06
241.576	-0.15
241.793	-0.07
242.01	-0.02
242.227	0.06
242.444	-0.04
242.66	-0.01
242.877	0.01
243.094	-0.18
243.311	-0.04
243.527	0.05
243.744	-0.04
243.961	0.09
244.178	-0.1
244.394	-0.08
244.611	0.07
244.828	0.18
245.044	-0.16
245.261	-0.11
245.477	0.01
245.694	0.15
245.911	-0.06
246.127	0
246.344	0.2
246.56	0.01
246.777	-0.05
246.993	-0.02
247.21	0.02
247.426	0.12
247.643	-0.06
247.859	-0.17
248.076	-0.1
248.292	0.22
248.508	-0.1
248.725	0.01
248.941	0.07
249.157	0.1
249.374	-0.13
249.59	-0.04
249.806	-0.01
250.023	0.04
250.239	-0.18
250.455	0.01
250.671	-0.04
250.888	0.04
251.104	0.08
251.32	-0.05
251.536	-0.05
251.752	-0.11
251.969	0.04
252.185	-0.03
252.401	0.16
252.617	0
252.833	-0.09
253.049	-0.01
253.265	0.03
253.481	-0.08
253.697	-0.07
253.913	-0.09
254.129	0.02
254.345	-0.04
254.561	-0.07
254.777	-0.01
254.993	0.02
255.209	-0.04
255.425	-0.03
255.641	-0.05
255.857	0.09
256.073	-0
256.288	-0.2
256.504	-0.14
256.72	-0.02
256.936	0
257.152	-0.08
257.367	-0.12
257.583	0.03
257.799	0.06
258.015	-0.05
258.23	-0.01
258.446	0.14
258.662	-0.02
258.877	-0.12
259.093	-0.08
259.309	-0.04
259.524	-0.03
259.74	-0.12
259.955	-0.09
260.171	0.02
260.387	-0.06
260.602	0
260.818	0.06
261.033	-0.1
261.249	-0.09
261.464	-0.13
261.68	-0.1
261.895	-0.01
262.11	0.08
262.326	-0.05
262.541	-0.05
262.757	0.1
262.972	0.04
263.187	0.02
263.403	0.01
263.618	0.09
263.833	0.01
264.049	-0.08
264.264	-0
264.479	-0.01
264.694	0.08
264.91	-0.1
265.125	-0.05
265.34	0.08
265.555	0.14
265.77	0.01
265.986	-0.03
266.201	0.02
266.416	0.11
266.631	-0.05
266.846	-0.03
267.061	0.02
267.276	0.06
267.491	-0.17
267.706	0.02
267.921	0.1
268.136	0.07
268.351	-0.03
268.566	-0.12
268.781	0.08
268.996	0.01
269.211	-0.04
269.426	-0.09
269.641	0
269.856	0.05
270.071	-0.04
270.285	-0.17
270.5	0.02
270.715	0.07
270.93	0.06
271.145	0
271.359	0.01
271.574	-0.02
271.789	-0.04
272.004	-0.06
272.218	-0
272.433	0.08
272.648	-0.02
272.862	0.06
273.077	0.01
273.292	-0.07
273.506	-0.09
273.721	0.01
273.936	0.01
274.15	0.05
274.365	-0.06
274.579	-0.01
274.794	0.04
275.008	0.01
275.223	-0.1
275.437	-0.01
275.652	0.05
275.866	0.07
276.081	-0.02
276.295	0.1
276.509	-0.03
276.724	0
276.938	-0.04
277.153	0.04
277.367	0.03
277.581	-0.02
277.796	-0.06
278.01	-0.04
278.224	0.08
278.438	0.12
278.653	-0.13
278.867	-0.04
279.081	0.06
279.295	-0.06
279.51	-0
279.724	-0.09
279.938	0.02
280.152	0.02
280.366	-0.03
280.58	0.02
280.794	0.06
281.008	0.08
281.222	0.02
281.437	0.14
281.651	0.01
281.865	0.04
282.079	0
282.293	-0.1
282.507	-0.07
282.721	-0.04
282.935	-0.03
283.148	-0.08
283.362	-0.03
283.576	-0
283.79	-0.01
284.004	-0.06
284.218	0.05
284.432	-0.03
284.646	-0.05
284.859	-0.08
285.073	-0.04
285.287	-0
285.501	-0.01
285.714	-0.05
285.928	0.02
286.142	-0.01
286.356	-0.03
286.569	-0.02
286.783	0.04
286.997	0.01
287.21	-0.03
287.424	0.01
287.637	-0.04
287.851	-0.07
288.065	0.01
288.278	-0.01
288.492	0.02
288.705	-0.05
288.919	0.02
289.132	-0.09
289.346	-0.05
289.559	-0.1
289.773	-0.08
289.986	-0
290.2	-0.01
290.413	0.01
290.626	-0.11
290.84	-0.02
291.053	0
291.267	0.1
291.48	-0.04
291.693	0
291.906	-0.03
292.12	-0.02
292.333	-0.05
292.546	-0.02
292.76	0.1
292.973	-0.01
293.186	0.05
293.399	-0.08
293.612	0.04
293.826	-0.04
294.039	-0.02
294.252	-0.01
294.465	0.06
294.678	-0
294.891	0.03
295.104	-0.06
295.317	0.02
295.53	0.04
295.743	-0.01
295.956	0.01
296.169	0.09
296.382	0.03
296.595	0.01
296.808	-0.01
297.021	0.06
297.234	0.03
297.447	-0.03
297.66	-0.01
297.873	0.08
298.086	0.08
298.299	-0.07
298.511	-0.04
298.724	-0.06
298.937	-0.07
299.15	-0.04
299.363	-0.03
299.575	-0.02
299.788	0.06
300.001	-0.03
300.213	-0.03
300.426	-0.01
300.639	-0.05
300.852	-0.02
301.064	0.05
301.277	0.06
301.489	0.04
301.702	0.05
301.915	0
302.127	-0.01
302.34	-0.01
302.552	0.06
302.765	-0.03
302.977	0.02
303.19	-0.02
303.402	-0.03
303.615	-0.03
303.827	-0.04
304.04	-0.03
304.252	0.02
304.464	-0.02
304.677	0.1
304.889	0.04
305.102	-0.09
305.314	-0.02
305.526	0.05
305.739	0.05
305.951	-0.03
306.163	-0.01
306.375	0.09
306.588	-0
306.8	-0.03
307.012	-0.07
307.224	-0.01
307.436	0.07
307.649	-0.08
307.861	-0.02
308.073	0.06
308.285	-0.03
308.497	-0.06
308.709	-0.01
308.921	-0.03
309.133	0.07
309.346	-0.03
309.558	-0.03
309.77	0.01
309.982	0.06
310.194	0.02
310.406	-0.05
310.617	0.11
310.829	0
311.041	0.02
311.253	-0.05
311.465	-0.02
311.677	0
311.889	-0.03
312.101	-0.02
312.313	0.02
312.524	0.03
312.736	-0.07
312.948	-0.02
313.16	0.09
313.372	-0.02
313.583	0.02
313.795	-0.05
314.007	-0.06
314.218	0.08
314.43	0.01
314.642	-0.05
314.853	-0.02
315.065	0.05
315.277	-0.02
315.488	-0.01
315.7	0.04
315.912	0.02
316.123	-0.04
316.335	-0
316.546	0.13
316.758	0
316.969	-0.02
317.181	-0.02
317.392	-0.01
317.604	0.05
317.815	-0.07
318.026	-0.02
318.238	-0.01
318.449	0.03
318.661	-0.04
318.872	-0.05
319.083	-0.03
319.295	0.06
319.506	-0.02
319.717	0.01
319.929	0.04
320.14	0.01
320.351	-0.01
320.562	-0.07
320.774	0.02
320.985	-0.05
321.196	-0.07
321.407	-0.06
321.618	0.05
321.829	0.01
322.041	0.03
322.252	0.04
322.463	0.02
322.674	0
322.885	-0.05
323.096	-0.02
323.307	0.01
323.518	0.01
323.729	-0.02
323.94	-0
324.151	-0.04
324.362	0.02
324.573	-0.04
324.784	-0
324.995	0.03
325.206	0.03
325.417	-0.01
325.628	-0.04
325.838	0.03
326.049	-0
326.26	0.03
326.471	-0.03
326.682	0.02
326.892	-0.02
327.103	-0.08
327.314	-0.03
327.525	0.03
327.735	0.03
327.946	0.01
328.157	-0.05
328.368	0.03
328.578	-0.01
328.789	0.03
328.999	0.02
329.21	-0.05
329.421	0.05
329.631	-0.07
329.842	-0.05
330.052	0.04
330.263	0.01
330.473	0.03
330.684	0.02
330.894	-0.01
331.105	0.01
331.315	-0.04
331.526	-0.09
331.736	0.06
331.947	-0.01
332.157	0.04
332.367	-0.03
332.578	0.05
332.788	0.04
332.999	0.02
333.209	0.05
333.419	-0.02
333.629	-0.01
333.84	-0.01
334.05	-0.03
334.26	0.07
334.47	0.03
334.681	0.06
334.891	-0.05
335.101	0.04
335.311	0.08
335.521	-0.01
335.732	-0.06
335.942	0.1
336.152	0.03
336.362	-0.01
336.572	-0.03
336.782	0.04
336.992	-0.01
337.202	-0.04
337.412	-0.11
337.622	0.03
337.832	-0
338.042	0
338.252	-0.02
338.462	-0.03
338.672	0
338.882	-0.02
339.092	-0.01
339.302	0.08
339.511	0.02
339.721	-0.03
339.931	-0.05
340.141	0.08
340.351	0.1
340.561	0.03
340.77	-0
340.98	0.03
341.19	0.06
341.4	-0.01
341.609	-0.03
341.819	-0.05
342.029	-0.04
342.238	-0.06
342.448	-0.07
342.658	-0
342.867	-0.01
343.077	-0.02
343.286	-0.03
343.496	-0.02
343.706	0.06
343.915	-0.03
344.125	-0.02
344.334	0.03
344.544	-0.07
344.753	-0.02
344.963	-0.07
345.172	-0.04
345.381	-0.03
345.591	-0.03
345.8	0
346.01	0.07
346.219	0.05
346.428	-0.15
346.638	0.01
346.847	-0.02
347.056	0.04
347.266	-0.07
347.475	-0.05
347.684	0.03
347.893	-0.02
348.103	-0.02
348.312	-0.01
348.521	-0.01
348.73	0
348.94	-0
349.149	0.01
349.358	-0.02
349.567	-0.03
349.776	-0.05
349.985	-0.03
350.194	0.03
350.403	0.08
350.612	-0.09
350.821	-0.02
351.03	-0.03
351.239	-0.06
351.448	0.01
351.657	-0.02
351.866	0.06
352.075	-0
352.284	0
352.493	-0.02
352.702	0.07
352.911	0.03
353.12	0.02
353.329	0.01
353.538	-0.01
353.746	0.02
353.955	-0.02
354.164	-0
354.373	-0.02
354.582	-0.01
354.79	0.01
354.999	0.03
355.208	-0.02
355.416	0.06
355.625	-0.08
355.834	-0.04
356.042	0
356.251	-0.04
356.46	-0.05
356.668	-0
356.877	0.08
357.085	0.07
357.294	-0.04
357.503	-0
357.711	-0.02
357.92	0.09
358.128	0
358.337	-0.03
358.545	-0.02
358.754	-0.02
358.962	0.07
359.17	-0.02
359.379	0.02
359.587	0.01
359.796	0
360.004	0.08
360.212	0.05
360.421	0.06
360.629	-0
360.837	0.01
361.046	0.05
361.254	0.06
361.462	0.02
361.67	-0.04
361.879	0.01
362.087	0.09
362.295	-0.01
362.503	0.01
362.711	-0.03
362.92	-0.03
363.128	-0.02
363.336	-0.04
363.544	-0.06
363.752	-0.01
363.96	-0.07
364.168	-0.01
364.376	-0.02
364.584	0.02
364.792	0.03
365	0.04
365.208	-0
365.416	0.01
365.624	0.04
365.832	-0.01
366.04	0.06
366.248	0.04
366.456	0.01
366.664	-0.01
366.872	0.01
367.079	-0.02
367.287	-0.04
367.495	0.01
367.703	0.01
367.911	-0.01
368.118	-0.01
368.326	-0.03
368.534	-0.05
368.742	0.06
368.949	-0.04
369.157	-0.02
369.365	0.06
369.572	-0.02
369.78	-0.06
369.988	0.08
370.195	0.01
370.403	0.05
370.61	-0.07
370.818	0.02
371.026	0.05
371.233	-0.03
371.441	0.01
371.648	-0.05
371.856	0.04
372.063	0.03
372.271	-0.03
372.478	0
372.685	-0.02
372.893	0.03
373.1	-0.03
373.308	0
373.515	0.07
373.722	0.03
373.93	-0.03
374.137	-0.01
374.344	0.05
374.552	0.05
374.759	0.02
374.966	-0.02
375.173	-0.01
375.381	0.05
375.588	-0.02
375.795	-0.08
376.002	-0.02
376.209	-0.02
376.417	0.01
376.624	0.02
376.831	0.05
377.038	-0.01
377.245	-0.09
377.452	0.02
377.659	-0.03
377.866	-0.01
378.073	-0.01
378.28	-0.02
378.487	0.04
378.694	0.02
378.901	-0.04
379.108	-0
379.315	0.02
379.522	0.03
379.729	0.01
379.936	-0.01
380.143	0.01
380.35	0.01
380.557	-0.01
380.763	-0.01
380.97	-0.01
381.177	0
381.384	-0.01
381.591	-0.07
381.797	-0.02
382.004	0.02
382.211	0.03
382.418	-0
382.624	0.06
382.831	0.04
383.038	-0.05
383.244	0.01
383.451	-0.02
383.658	0.04
383.864	-0.02
384.071	-0.04
384.277	0.05
384.484	-0.03
384.69	0.02
384.897	-0.04
385.103	-0.03
385.31	-0.06
385.516	-0.07
385.723	-0.03
385.929	-0.01
386.136	-0.02
386.342	0.03
386.549	-0.07
386.755	0.06
386.961	-0
387.168	-0.06
387.374	-0.01
387.58	-0
387.787	0.03
387.993	-0
388.199	-0.02
388.406	-0.02
388.612	-0
388.818	-0.06
389.024	-0.06
389.231	0.03
389.437	0.07
389.643	0.02
389.849	-0.04
390.055	0.01
390.261	-0.02
390.467	-0.02
390.674	-0.03
390.88	-0.05
391.086	0.04
391.292	-0.07
391.498	0.01
391.704	0.01
391.91	0.02
392.116	-0.01
392.322	-0.09
392.528	0.06
392.734	-0.01
392.94	-0.08
393.146	-0.02
393.352	0
393.557	-0.02
393.763	-0.07
393.969	0.01
394.175	-0.03
394.381	0.02
394.587	-0.09
394.792	0.02
394.998	0.02
395.204	-0
395.41	-0.08
395.615	0.01
395.821	0.02
396.027	0.01
396.233	0
396.438	0.02
396.644	0.07
396.85	-0
397.055	-0.03
397.261	0.02
397.466	0
397.672	-0.03
397.878	-0
398.083	-0.02
398.289	-0.06
398.494	0.06
398.7	0.01
398.905	-0.06
399.111	0.11
399.316	-0.07
399.522	0.01
399.727	-0.06
399.932	0.02
400.138	0.03
400.343	0.04
400.549	-0.01
400.754	-0.01
400.959	-0.05
401.165	-0.05
401.37	-0.02
401.575	0.07
401.78	-0.04
401.986	-0.05
402.191	-0.02
402.396	-0.03
402.601	-0.01
402.807	0.06
403.012	0
403.217	0.04
403.422	-0.03
403.627	-0.02
403.832	-0.03
404.037	0.04
404.243	0.02
404.448	-0.03
404.653	0.02
404.858	0.02
405.063	0.09
405.268	-0.03
405.473	-0.01
405.678	-0.01
405.883	0.18
406.088	0.04
406.293	-0.04
406.498	-0.01
406.703	0.04
406.907	0.02
407.112	-0.02
407.317	0.02
407.522	0.06
407.727	-0.04
407.932	0.02
408.136	0.06
408.341	0
408.546	0.01
408.751	-0.03
408.956	-0.01
409.16	0.08
409.365	-0.02
409.57	-0.01
409.774	-0.02
409.979	0.02
410.184	0.01
410.388	-0.05
410.593	0.05
410.798	0.03
411.002	-0.03
411.207	0.01
411.411	0.03
411.616	-0.02
411.82	-0.07
412.025	0.03
412.229	-0.01
412.434	0.09
412.638	0.04
412.843	-0.02
413.047	0.03
413.252	-0.04
413.456	-0.02
413.66	0.07
413.865	0.03
414.069	0.07
414.273	-0.06
414.478	-0.06
414.682	-0.01
414.886	0.01
415.091	-0.07
415.295	-0.05
415.499	0.01
415.703	-0.01
415.908	0.04
416.112	-0.11
416.316	0.07
416.52	0.01
416.724	-0.04
416.929	-0.04
417.133	0.09
417.337	-0.02
417.541	-0.02
417.745	-0.04
417.949	0.04
418.153	0.05
418.357	-0.05
418.561	0.07
418.765	0.02
418.969	0.15
419.173	0.07
419.377	0.01
419.581	0.14
419.785	-0.02
419.989	-0.04
420.193	0.01
420.397	-0.02
420.601	0.03
420.804	0.08
421.008	0.01
421.212	0.05
421.416	0.08
421.62	0.05
421.823	0.02
422.027	0.14
422.231	0.08
422.435	0.03
422.638	0.07
422.842	0.03
423.046	-0
423.249	0.09
423.453	0.11
423.657	0.05
423.86	0.06
424.064	0.05
424.268	0.12
424.471	0.04
424.675	0.15
424.878	0.15
425.082	0.09
425.285	0.1
425.489	0.07
425.692	0.06
425.896	0.02
426.099	0.1
426.303	0.03
426.506	0.02
426.71	0.07
426.913	0.14
427.116	0.17
427.32	0.13
427.523	0.13
427.726	0.2
427.93	0.08
428.133	0.11
428.336	0.05
428.54	0.06
428.743	0.16
428.946	0.17
429.149	0.06
429.353	0.11
429.556	0.12
429.759	0.14
429.962	0.13
430.165	0.14
430.368	0.16
430.571	0.1
430.775	0.14
430.978	0.17
431.181	0.19
431.384	0.19
431.587	0.14
431.79	0.2
431.993	0.19
432.196	0.18
432.399	0.19
432.602	0.32
432.805	0.09
433.008	0.17
433.211	0.12
433.414	0.29
433.616	0.25
433.819	0.26
434.022	0.13
434.225	0.28
434.428	0.21
434.631	0.33
434.833	0.2
435.036	0.23
435.239	0.27
435.442	0.24
435.645	0.24
435.847	0.23
436.05	0.35
436.253	0.27
436.455	0.25
436.658	0.28
436.861	0.41
437.063	0.26
437.266	0.27
437.468	0.33
437.671	0.42
437.874	0.34
438.076	0.22
438.279	0.31
438.481	0.35
438.684	0.3
438.886	0.42
439.089	0.3
439.291	0.44
439.494	0.46
439.696	0.36
439.899	0.41
440.101	0.48
440.303	0.4
440.506	0.54
440.708	0.5
440.91	0.53
441.113	0.5
441.315	0.54
441.517	0.44
441.72	0.61
441.922	0.52
442.124	0.55
442.326	0.66
442.529	0.65
442.731	0.55
442.933	0.77
443.135	0.6
443.337	0.62
443.539	0.67
443.742	0.62
443.944	0.74
444.146	0.7
444.348	0.75
444.55	0.67
444.752	0.79
444.954	0.66
445.156	0.84
445.358	0.76
445.56	0.89
445.762	0.84
445.964	0.82
446.166	0.83
446.368	0.84
446.57	0.9
446.772	0.85
446.974	0.84
447.175	0.9
447.377	0.82
447.579	0.89
447.781	0.84
447.983	0.92
448.184	0.87
448.386	0.93
448.588	0.8
448.79	0.89
448.991	0.88
449.193	0.9
449.395	0.96
449.597	0.95
449.798	0.91
450	0.91
450.202	0.9
450.403	0.86
450.605	0.9
450.806	0.81
451.008	0.71
451.21	0.8
451.411	0.77
451.613	0.71
451.814	0.76
452.016	0.81
452.217	0.7
452.419	0.76
452.62	0.67
452.821	0.69
453.023	0.72
453.224	0.69
453.426	0.61
453.627	0.61
453.828	0.64
454.03	0.54
454.231	0.64
454.432	0.55
454.634	0.63
454.835	0.47
455.036	0.45
455.238	0.55
455.439	0.58
455.64	0.44
455.841	0.38
456.042	0.58
456.244	0.44
456.445	0.34
456.646	0.33
456.847	0.41
457.048	0.4
457.249	0.45
457.45	0.66
457.651	0.31
457.852	0.39
458.054	0.33
458.255	0.26
458.456	0.38
458.657	0.36
458.858	0.23
459.058	0.32
459.259	0.34
459.46	0.31
459.661	0.26
459.862	0.41
460.063	0.22
460.264	0.32
460.465	0.23
460.666	0.36
460.866	0.24
461.067	0.2
461.268	0.2
461.469	0.2
461.67	0.25
461.87	0.18
462.071	0.19
462.272	0.2
462.473	0.19
462.673	0.3
462.874	0.13
463.075	0.22
463.275	0.13
463.476	0.2
463.676	0.22
463.877	0.22
464.078	0.17
464.278	0.23
464.479	0.19
464.679	0.18
464.88	0.17
465.08	0.27
465.281	0.15
465.481	0.19
465.682	0.13
465.882	0.22
466.083	0.11
466.283	0.18
466.483	0.12
466.684	0.05
466.884	0.11
467.085	0.12
467.285	0.2
467.485	0.09
467.686	0.1
467.886	0.06
468.086	0.09
468.286	0.1
468.487	0.15
468.687	0.05
468.887	0.08
469.087	0.08
469.287	0.1
469.488	0.04
469.688	0.11
469.888	0.12
470.088	0.13
470.288	0.09
470.488	0.16
470.688	0.06
470.888	0.07
471.088	0.03
471.288	0.1
471.488	0.08
471.688	0.12
471.888	0.04
472.088	0.12
472.288	0.09
472.488	0.02
472.688	0.06
472.888	0.08
473.088	0.07
473.288	0.09
473.488	0.05
473.688	0.14
473.887	0.06
474.087	0.03
474.287	0.06
474.487	0.02
474.687	0.07
474.886	-0.02
475.086	0.04
475.286	0.04
475.486	0.03
475.685	0.06
475.885	0.04
476.085	0
476.284	0.07
476.484	0.02
476.684	0.06
476.883	0.05
477.083	0.03
477.282	0.01
477.482	0.07
477.681	0.08
477.881	0.05
478.08	0.01
478.28	0.02
478.479	0.06
478.679	0.09
478.878	0.03
479.078	-0.01
479.277	0.02
479.477	0.02
479.676	0.08
479.875	0.01
480.075	-0.04
480.274	0.07
480.473	0.05
480.673	-0
480.872	0.05
481.071	0.01
481.271	0.05
481.47	0.01
481.669	0.01
481.868	0.02
482.067	0
482.267	-0.02
482.466	-0
482.665	-0
482.864	-0.01
483.063	-0.03
483.262	0.03
483.461	0.06
483.661	0.05
483.86	0.01
484.059	-0
484.258	0.01
484.457	-0
484.656	-0
484.855	0.06
485.054	-0.02
485.253	-0.02
485.452	-0.03
485.651	0.01
485.849	0.06
486.048	-0.01
486.247	-0.02
486.446	-0.01
486.645	-0.03
486.844	-0.01
487.043	-0.01
487.241	0.01
487.44	-0.01
487.639	-0.01
487.838	0.04
488.037	0
488.235	0.09
488.434	0.01
488.633	-0.01
488.831	0.02
489.03	0.05
489.229	0.03
489.427	-0.02
489.626	0.05
489.825	0.05
490.023	-0
490.222	-0.01
490.42	0.02
490.619	0.05
490.817	0.03
491.016	0.01
491.214	0.05
491.413	-0.01
491.611	0
491.81	0
492.008	0.02
492.207	0.01
492.405	-0.03
492.604	-0.04
492.802	-0.01
493	0.02
493.199	-0.01
493.397	-0.02
493.595	-0.02
493.794	-0
493.992	0.04
494.19	0
494.388	-0
494.587	-0.02
494.785	0
494.983	-0.03
495.181	0.01
495.379	0.01
495.578	-0.01
495.776	0
495.974	0.02
496.172	-0.01
496.37	-0.02
496.568	-0.02
496.766	-0.03
496.964	0.03
497.162	0.01
497.36	-0
497.558	0.03
497.756	0.02
497.954	-0.01
498.152	-0.04
498.35	0.01
498.548	-0
498.746	0.01
498.944	-0.03
499.142	-0.01
499.34	-0.02
499.538	0
499.736	-0.01
499.933	0.06
500.131	0.05
500.329	0.01
500.527	0.02
500.725	0.02
500.922	0.02
501.12	-0
501.318	0
501.516	-0.02
501.713	0.02
501.911	-0.02
502.109	-0.05
502.306	0.01
502.504	0
502.701	-0
502.899	0.01
503.097	0.04
503.294	0.02
503.492	-0
503.689	0
503.887	0.03
504.084	0.02
504.282	0.01
504.479	-0.05
504.677	0.03
504.874	-0.02
505.072	-0.01
505.269	-0.01
505.466	0.02
505.664	0.01
505.861	-0.03
506.059	-0.02
506.256	0.02
506.453	-0.01
506.651	0.04
506.848	0.01
507.045	-0.02
507.242	0
507.44	-0.02
507.637	-0.02
507.834	0.01
508.031	0.03
508.229	-0.02
508.426	0
508.623	0.03
508.82	-0.03
509.017	-0.05
509.214	0.01
509.411	0.01
509.608	-0.04
509.805	-0.01
510.003	-0.02
510.2	0.01
510.397	0.03
510.594	-0.05
510.791	-0.03
510.988	-0
511.184	0.02
511.381	0.01
511.578	0.01
511.775	0.02
511.972	-0
512.169	-0.02
512.366	-0.01
512.563	0
512.76	-0.03
512.956	-0.02
513.153	-0.01
513.35	-0.01
513.547	-0.03
513.744	-0.03
513.94	-0.03
514.137	0.02
514.334	0.02
514.53	-0.01
514.727	0.01
514.924	0.06
515.12	-0.04
515.317	-0.04
515.514	-0.02
515.71	-0.02
515.907	0
516.103	0
516.3	-0.01
516.497	0.01
516.693	0.02
516.89	-0
517.086	-0.01
517.283	0
517.479	-0
517.676	-0.02
517.872	-0.02
518.068	-0.02
518.265	-0.02
518.461	-0.02
518.658	-0.02
518.854	0.01
519.05	-0.02
519.247	-0.03
519.443	-0.01
519.639	-0.03
519.836	0
520.032	-0.02
520.228	0
520.424	0.04
520.621	0.01
520.817	-0
521.013	-0
521.209	0.01
521.405	0.03
521.601	-0
521.798	-0
521.994	0.04
522.19	-0.01
522.386	-0.04
522.582	-0.02
522.778	0.02
522.974	-0.02
523.17	0.02
523.366	0.01
523.562	0.03
523.758	-0
523.954	-0.03
524.15	-0.01
524.346	0.01
524.542	-0.02
524.738	-0.04
524.934	-0
525.129	-0.07
525.325	0
525.521	-0.01
525.717	0.03
525.913	0.01
526.109	-0
526.304	-0.02
526.5	-0
526.696	0.04
526.892	-0.01
527.087	0
527.283	-0.03
527.479	0.01
527.674	-0.04
527.87	-0.01
528.066	-0.03
528.261	0.01
528.457	-0.01
528.653	0.01
528.848	0
529.044	0.02
529.239	0.01
529.435	0.04
529.63	0.01
529.826	0.04
530.021	0.02
530.217	0.03
530.412	-0.03
530.608	-0.02
530.803	-0.02
530.999	-0.01
531.194	-0.04
531.389	0.01
531.585	-0.03
531.78	-0.02
531.975	-0.01
532.171	0.02
532.366	-0
532.561	-0.01
532.757	-0.04
532.952	-0.02
533.147	0.01
533.342	-0.03
533.538	-0.01
533.733	0.02
533.928	-0
534.123	-0.01
534.318	-0.01
534.513	-0.01
534.709	-0.01
534.904	-0.01
535.099	-0.01
535.294	-0.03
535.489	-0
535.684	-0
535.879	-0.01
536.074	-0
536.269	-0.01
536.464	-0
536.659	-0.01
536.854	-0
537.049	-0.01
537.244	-0
537.439	-0.02
537.634	0.02
537.828	-0
538.023	-0.01
538.218	-0.05
538.413	-0.02
538.608	-0.03
538.803	0
538.997	-0.03
539.192	0.02
539.387	0.01
539.582	-0
539.776	0
539.971	-0
540.166	-0.02
540.36	-0.02
540.555	0.02
540.75	-0.01
540.944	0
541.139	-0.04
541.334	-0.03
541.528	0
541.723	0.02
541.917	0.01
542.112	-0.06
542.306	-0.02
542.501	-0.01
542.695	0.01
542.89	-0.03
543.084	0
543.279	-0.02
543.473	-0.01
543.668	0.01
543.862	-0.02
544.056	0.01
544.251	-0.01
544.445	0
544.64	0
544.834	-0.05
545.028	-0.02
545.222	0
545.417	0.01
545.611	-0
545.805	0.01
546	-0.01
546.194	-0.02
546.388	-0.01
546.582	-0
546.776	-0
546.97	-0.02
547.165	0.04
547.359	-0.01
547.553	-0.02
547.747	-0
547.941	-0.01
548.135	-0.02
548.329	0.03
548.523	0.02
548.717	-0.01
548.911	0
549.105	-0.02
549.299	0
549.493	0
549.687	-0
549.881	0.03
550.075	-0
550.269	-0.05
550.463	0.01
550.657	-0.01
550.85	0.01
551.044	-0.02
551.238	-0.01
551.432	-0.04
551.626	-0.02
551.82	-0
552.013	-0.03
552.207	0.02
552.401	0.01
552.594	0
552.788	-0.01
552.982	0
553.176	-0.03
553.369	-0
553.563	0.01
553.756	-0.06
553.95	-0.04
554.144	-0
554.337	0.02
554.531	-0
554.724	0.01
554.918	-0.02
555.111	0.01
555.305	0
555.498	0.04
555.692	0
555.885	-0.02
556.079	0.01
556.272	-0.03
556.466	0.02
556.659	0
556.852	-0.01
557.046	-0.02
557.239	0.03
557.432	-0.04
557.626	-0.04
557.819	-0
558.012	0.01
558.206	0.01
558.399	-0.01
558.592	0
558.785	-0.02
558.979	0.01
559.172	-0
559.365	0.04
559.558	0.02
559.751	-0.01
559.944	0
560.138	-0.01
560.331	-0.01
560.524	-0.03
560.717	-0.05
560.91	-0.01
561.103	0.01
561.296	-0.01
561.489	0.02
561.682	-0.01
561.875	0.02
562.068	0
562.261	0
562.454	0.04
562.647	0.01
562.84	0.02
563.032	0
563.225	0.01
563.418	-0.01
563.611	-0.01
563.804	-0.01
563.997	-0.03
564.19	-0.03
564.382	0
564.575	-0.02
564.768	0.01
564.961	-0.01
565.153	-0.01
565.346	0.01
565.539	0.01
565.731	0.01
565.924	0.01
566.117	0.03
566.309	0.02
566.502	-0.04
566.695	0.02
566.887	0.01
567.08	-0.03
567.272	-0.04
567.465	-0.01
567.657	0
567.85	0.02
568.042	0.01
568.235	0.01
568.427	-0.02
568.62	-0.02
568.812	-0.01
569.005	-0.01
569.197	-0.04
569.389	0.01
569.582	0.01
569.774	0.01
569.966	-0.05
570.159	-0.04
570.351	0
570.543	-0.03
570.736	-0.01
570.928	-0.03
571.12	-0.01
571.312	-0.03
571.505	-0.03
571.697	0.02
571.889	-0.04
572.081	-0.01
572.273	-0.02
572.465	0.03
572.658	-0.01
572.85	0.01
573.042	-0.02
573.234	-0.03
573.426	0.05
573.618	-0.03
573.81	-0.01
574.002	0.04
574.194	0.04
574.386	-0.05
574.578	-0.07
574.77	-0.03
574.962	-0.03
575.154	-0.05
575.346	-0
575.538	0.02
575.729	-0.03
575.921	-0.01
576.113	-0.01
576.305	0.02
576.497	-0.02
576.689	-0.01
576.88	-0.02
577.072	0.03
577.264	-0.01
577.456	-0.01
577.647	-0.11
577.839	0.01
578.031	0.03
578.223	-0.05
578.414	-0.03
578.606	0.02
578.798	-0
578.989	-0.03
579.181	-0.03
579.372	-0.02
579.564	-0.03
579.755	-0
579.947	-0
580.139	0
580.33	-0.04
580.522	-0.03
580.713	-0.09
580.905	-0.03
581.096	0.02
581.287	-0.01
581.479	-0.02
581.67	0.01
581.862	-0.02
582.053	-0
582.244	-0.04
582.436	-0.02
582.627	-0
582.818	-0.04
583.01	-0.04
583.201	0.01
583.392	0.05
583.583	-0.02
583.775	-0.02
583.966	-0
584.157	-0.02
584.348	-0.02
584.54	-0.06
584.731	0.01
584.922	0
585.113	-0.04
585.304	-0.01
585.495	0.02
585.686	0
585.877	-0
586.068	0.01
586.259	-0.01
586.45	-0
586.641	-0.02
586.832	-0.07
587.023	0.01
587.214	-0.01
587.405	-0
587.596	-0.03
587.787	0.03
587.978	0.02
588.169	-0.03
588.36	-0.04
588.551	0.03
588.742	-0.04
588.932	-0.01
589.123	-0.04
589.314	0.04
589.505	0.02
589.696	-0.01
589.886	-0.04
590.077	-0.05
590.268	0.01
590.458	-0.05
590.649	-0.05
590.84	0.03
591.03	-0.04
591.221	-0.06
591.412	-0.05
591.602	0.03
591.793	0.03
591.984	-0.03
592.174	-0.02
592.365	0.07
592.555	-0.03
592.746	-0.01
592.936	0.02
593.127	0.02
593.317	0.02
593.508	-0.02
593.698	-0.05
593.889	0.02
594.079	0.01
594.269	-0.02
594.46	-0.04
594.65	-0
594.84	-0
595.031	-0.05
595.221	-0.03
595.411	-0.07
595.602	0.01
595.792	-0.01
595.982	-0.06
596.172	0.03
596.363	-0
596.553	-0
596.743	-0.02
596.933	-0.02
597.123	0.02
597.314	-0.01
597.504	-0.03
597.694	0.04
597.884	0.02
598.074	-0.04
598.264	-0.02
598.454	0.01
598.644	0
598.834	-0.01
599.024	-0.04
599.214	-0
599.404	0.03
599.594	-0.02
599.784	-0.02
599.974	0.03
600.164	0.02
600.354	-0.04
600.544	-0.07
600.734	0.01
600.924	0.02
601.114	-0.05
601.303	-0.01
601.493	0.01
601.683	-0.01
601.873	-0.01
602.063	-0.04
602.252	0.01
602.442	-0.08
602.632	-0.03
602.821	-0.02
603.011	0.04
603.201	-0.01
603.39	-0.05
603.58	-0.02
603.77	0.02
603.959	0.03
604.149	-0.02
604.339	-0.03
604.528	0.01
604.718	0
604.907	-0.03
605.097	-0.05
605.286	-0.03
605.476	0.02
605.665	0.01
605.855	0
606.044	0.03
606.234	0.01
606.423	-0.03
606.612	-0.05
606.802	-0
606.991	0
607.181	-0.02
607.37	-0.04
607.559	-0.01
607.749	-0.06
607.938	0.01
608.127	-0.01
608.316	-0.03
608.506	0.02
608.695	0
608.884	-0.05
609.073	-0.01
609.263	-0.02
609.452	0
609.641	-0.01
609.83	-0.06
610.019	0.01
610.208	-0.03
610.397	0
610.586	0.01
610.775	-0.01
610.965	-0.03
611.154	-0.04
611.343	-0.03
611.532	-0.01
611.721	-0.04
611.91	-0.03
612.099	0.01
612.287	-0
612.476	-0.06
612.665	-0.01
612.854	-0.01
613.043	0.02
613.232	-0.02
613.421	-0.03
613.61	0.01
613.798	-0.02
613.987	0.01
614.176	-0.01
614.365	0.04
614.554	0
614.742	0.03
614.931	-0.02
615.12	0.03
615.309	-0.05
615.497	-0.01
615.686	-0.03
615.875	-0.05
616.063	0.01
616.252	-0.03
616.44	-0.02
616.629	-0.03
616.818	0.02
617.006	-0.03
617.195	-0.01
617.383	0.01
617.572	-0.02
617.76	-0.03
617.949	-0.02
618.137	0.03
618.326	0.03
618.514	-0
618.703	-0.01
618.891	0.06
619.079	-0.08
619.268	0
619.456	-0.04
619.644	-0.01
619.833	-0.01
620.021	-0.03
620.209	-0.06
620.398	0
620.586	0.01
620.774	0.01
620.962	-0.03
621.151	0.05
621.339	0.01
621.527	-0.05
621.715	-0.05
621.903	-0.05
622.092	-0.05
622.28	0
622.468	-0.03
622.656	-0
622.844	0.04
623.032	-0.03
623.22	-0.08
623.408	0.03
623.596	0.03
623.784	-0.01
623.972	-0.06
624.16	-0.04
624.348	0.06
624.536	-0.04
624.724	-0.05
624.912	0.06
625.1	0.01
625.288	-0.01
625.476	-0.05
625.664	0.01
625.851	-0.04
626.039	0.02
626.227	-0.03
626.415	-0.02
626.603	-0.05
626.79	-0.02
626.978	-0.04
627.166	0.01
627.354	-0.04
627.541	-0.06
627.729	-0.08
627.917	0.02
628.104	0.03
628.292	0.02
628.48	-0.02
628.667	0.03
628.855	0
629.042	0.01
629.23	-0.03
629.418	-0.01
629.605	-0.03
629.793	-0.06
629.98	-0.05
630.168	-0.03
630.355	-0
630.543	0.01
630.73	-0.04
630.917	0.01
631.105	0.02
631.292	-0.02
631.48	0.01
631.667	0.09
631.854	-0.01
632.042	-0.01
632.229	-0.06
632.416	-0.04
632.604	-0.02
632.791	-0.04
632.978	0
633.165	0.03
633.353	0.06
633.54	0.02
633.727	-0.08
633.914	-0.07
634.101	-0.08
634.289	0.03
634.476	-0.07
634.663	-0.06
634.85	0.03
635.037	-0.03
635.224	-0.06
635.411	0.04
635.598	0.01
635.785	-0.02
635.972	-0.04
636.159	0.03
636.346	-0.06
636.533	0
636.72	-0.02
636.907	-0.02
637.094	0.03
637.281	-0.01
637.468	0.02
637.655	-0.01
637.842	-0.04
638.029	-0.03
638.215	0.04
638.402	0
638.589	-0.06
638.776	-0.04
638.963	0
639.149	-0
639.336	0.06
639.523	-0.04
639.709	-0.01
639.896	-0.04
640.083	0.03
640.27	0
640.456	-0.02
640.643	0.02
640.829	-0.04
641.016	-0
641.203	-0.04
641.389	0
641.576	0.02
641.762	-0
641.949	-0.03
642.135	0.02
642.322	0.01
642.508	-0.05
642.695	-0.03
642.881	-0.02
643.068	-0.01
643.254	-0.01
643.441	0.03
643.627	-0.02
643.813	-0.02
644	0.02
644.186	-0.05
644.372	0.02
644.559	0.02
644.745	0.01
644.931	-0.03
645.118	-0.03
645.304	-0.01
645.49	-0.02
645.676	-0.03
645.862	-0.01
646.049	0.03
646.235	-0.02
646.421	0.06
646.607	0.06
646.793	-0.03
646.979	-0.04
647.165	0
647.352	0
647.538	0.05
647.724	-0.02
647.91	-0.02
648.096	0.04
648.282	0.01
648.468	-0.01
648.654	-0
648.84	-0
649.026	-0.01
649.212	-0.01
649.397	-0.06
649.583	-0.08
649.769	-0
649.955	0.01
650.141	0
650.327	0.05
650.513	-0.05
650.698	0.03
650.884	-0.11
651.07	-0
651.256	0.02
651.442	-0.03
651.627	-0.04
651.813	0
651.999	-0
652.184	-0
652.37	-0.02
652.556	-0.04
652.741	0.06
652.927	-0.09
653.113	-0.05
653.298	-0.02
653.484	-0.02
653.669	-0.09
653.855	-0.03
654.04	0.01
654.226	-0.01
654.412	-0.02
654.597	-0.05
654.782	0.03
654.968	0.01
655.153	-0.03
655.339	-0.05
655.524	-0.08
655.71	0.02
655.895	-0.04
656.08	-0.06
656.266	0.02
656.451	-0
656.636	-0.02
656.822	-0
657.007	-0.02
657.192	-0.02
657.378	-0.06
657.563	-0.03
657.748	0.02
657.933	-0.01
658.118	-0.04
658.304	-0.05
658.489	0.03
658.674	0.03
658.859	-0.05
659.044	0.03
659.229	-0.01
659.414	0
659.599	-0.03
659.785	-0.09
659.97	-0.02
660.155	0.04
660.34	-0.01
660.525	-0.02
660.71	-0.01
660.895	0.01
661.08	-0.03
661.264	-0.05
661.449	0.02
661.634	0.03
661.819	-0.02
662.004	0.01
662.189	-0.09
662.374	-0.04
662.559	-0.04
662.743	-0.07
662.928	0.01
663.113	-0.03
663.298	-0.08
663.483	-0.01
663.667	-0.03
663.852	-0.06
664.037	0.03
664.221	-0.05
664.406	0.04
664.591	0.01
664.775	-0.04
664.96	-0
665.145	0.01
665.329	0.03
665.514	-0.06
665.698	-0.02
665.883	-0.1
666.068	0.06
666.252	-0.01
666.437	-0.05
666.621	-0.01
666.806	-0.02
666.99	-0.04
667.174	-0.06
667.359	0.06
667.543	-0.01
667.728	-0.04
667.912	-0.08
668.096	0
668.281	-0.01
668.465	-0.04
668.649	-0.01
668.834	0.01
669.018	-0.06
669.202	-0.04
669.387	-0.03
669.571	-0
669.755	-0.06
669.939	-0.03
670.124	0.01
670.308	0.04
670.492	0.01
670.676	0
670.86	-0.03
671.044	-0.07
671.228	-0.01
671.413	-0.08
671.597	-0.05
671.781	-0.03
671.965	0.04
672.149	-0.03
672.333	-0.03
672.517	-0.05
672.701	-0
672.885	-0.02
673.069	-0.09
673.253	0.02
673.437	-0.03
673.621	-0.06
673.804	-0.05
673.988	-0.04
674.172	-0.03
674.356	-0.05
674.54	0.01
674.724	0.1
674.908	-0.02
675.091	0.03
675.275	-0
675.459	0.06
675.643	-0.03
675.826	0.01
676.01	-0.02
676.194	-0
676.377	0.03
676.561	0.03
676.745	0.01
676.928	0
677.112	0.04
677.296	-0.06
677.479	-0.03
677.663	-0.07
677.846	0.01
678.03	-0.02
678.213	-0.06
678.397	0.01
678.58	-0.04
678.764	-0.05
678.947	-0.04
679.131	-0.09
679.314	0.03
679.498	-0.03
679.681	0
679.865	0.01
680.048	-0.01
680.231	-0.03
680.415	-0.02
680.598	-0.05
680.781	-0.04
680.965	-0.02
681.148	-0.04
681.331	-0.03
681.514	0.01
681.698	0
681.881	-0.02
682.064	0.05
682.247	0.01
682.43	-0.06
682.614	-0.01
682.797	0.07
682.98	0.02
683.163	-0.05
683.346	-0.02
683.529	-0.05
683.712	-0.06
683.895	0.01
684.078	-0.07
684.261	-0
684.444	-0.03
684.627	0.01
684.81	-0.01
684.993	-0.02
685.176	0.06
685.359	-0.06
685.542	-0.04
685.725	0.04
685.908	-0
686.091	-0.04
686.274	-0.01
686.457	-0
686.639	-0.01
686.822	-0.01
687.005	0
687.188	0.01
687.371	0.08
687.553	-0.03
687.736	0.02
687.919	0.07
688.102	0.06
688.284	-0.07
688.467	-0.02
688.65	-0.04
688.832	-0.03
689.015	-0.08
689.197	-0.1
689.38	0.07
689.563	0.1
689.745	-0.05
689.928	-0.09
690.11	0.05
690.293	0.01
690.475	-0.1
690.658	0.02
690.84	-0.07
691.023	-0.01
691.205	-0.04
691.388	-0.01
691.57	0.04
691.752	0.06
691.935	-0.11
692.117	-0.02
692.3	0.05
692.482	0.06
692.664	0.02
692.847	0.05
693.029	0.08
693.211	0.02
693.393	-0.05
693.576	-0.05
693.758	0.03
693.94	-0.05
694.122	-0.04
694.304	-0.05
694.487	-0.07
694.669	0
694.851	-0.04
695.033	-0.02
695.215	-0.02
695.397	-0.02
695.579	-0
695.761	-0.04
695.943	-0.06
696.125	0.08
696.308	-0.01
696.49	-0.17
696.671	0.13
696.853	0.07
697.035	0.12
697.217	0.03
697.399	0.01
697.581	-0.05
697.763	-0.03
697.945	-0.08
698.127	0.01
698.309	0.06
698.491	-0.04
698.672	-0
698.854	0.06
699.036	0.13
699.218	-0.05
699.399	0.02
699.581	0.02
699.763	0
699.945	-0.03
700.126	-0.06
700.308	0.05
700.49	-0.01
700.671	-0.14
700.853	-0.04
701.035	0.02
701.216	-0.02
701.398	-0.06
701.579	-0.08
701.761	0.08
701.943	-0.08
702.124	-0.06
702.306	-0.06
702.487	0.11
702.669	-0.02
702.85	-0.04
703.031	-0.11
703.213	0.1
703.394	0.11
703.576	-0.06
703.757	0.06
703.938	0.05
704.12	0.13
704.301	-0.01
704.483	-0.06
704.664	-0
704.845	0.08
705.026	0.02
705.208	0
705.389	0.03
705.57	-0
705.751	-0.04
705.933	-0.03
706.114	0.03
706.295	-0.03
706.476	-0.04
706.657	0.06
706.838	0.07
707.02	0.05
707.201	-0.05
707.382	-0.08
707.563	0.02
707.744	-0.08
707.925	0.01
708.106	-0.12
708.287	-0.04
708.468	0.07
708.649	-0.03
708.83	0.05
709.011	-0.02
709.192	0.01
709.373	-0.16
709.554	-0.01
709.734	-0
709.915	0.09
710.096	0.01
710.277	-0.09
710.458	0.03
710.639	0.03
710.819	-0.19
711	-0.04
711.181	0.01
711.362	0.01
711.542	-0.08
711.723	-0
711.904	0.09
712.085	0.02
712.265	0.03
712.446	-0.14
712.627	-0.05
712.807	-0.06
712.988	0.01
713.168	-0.09
713.349	-0.02
713.53	-0.13
713.71	-0.14
713.891	-0.14
714.071	-0.07
714.252	-0.03
714.432	-0.01
714.613	-0.11
714.793	-0.01
714.974	0.06
715.154	0.04
715.334	-0.03
715.515	0.04
715.695	-0.07
715.876	-0.01
716.056	-0.02
716.236	-0.06
716.417	-0
716.597	-0.12
716.777	0.09
716.957	-0.02
717.138	-0.1
717.318	-0.07
717.498	-0.09
717.678	-0.04
717.859	0.03
718.039	-0.05
718.219	0.02
718.399	0.04
718.579	-0.04
718.759	-0.06
718.939	0.03
719.12	0.07
719.3	-0.04
719.48	-0.14
719.66	-0.06
719.84	0.07
720.02	-0.07
720.2	-0.06
720.38	-0.04
720.56	0.08
720.74	-0.02
720.92	-0.08
721.1	0.09
721.279	0.06
721.459	-0.05
721.639	-0.07
721.819	0.06
721.999	-0.05
722.179	0
722.359	-0.1
722.538	0.04
722.718	-0.02
722.898	-0.05
723.078	-0.03
723.257	-0.05
723.437	-0.03
723.617	-0.05
723.797	-0.02
723.976	-0.06
724.156	0.06
724.336	0.07
724.515	0.15
724.695	-0.17
724.874	-0.02
725.054	0.06
725.234	-0.1
725.413	-0.05
725.593	-0.05
725.772	-0.07
725.952	-0.04
726.131	-0.06
726.311	0.03
726.49	-0.09
726.67	-0.11
726.849	-0.09
727.028	0.04
727.208	-0.02
727.387	-0.01
727.567	-0.06
727.746	-0.03
727.925	-0.09
728.105	-0.16
728.284	-0.11
728.463	-0.14
728.643	-0.03
728.822	-0.08
729.001	-0.06
729.18	0.02
729.359	0.11
729.539	0
729.718	-0.05
729.897	0.04
730.076	-0.03
730.255	-0.15
730.434	0.01
730.614	0.03
730.793	0.11
730.972	0.01
731.151	0.02
731.33	0.02
731.509	0.06
731.688	-0
731.867	-0.02
732.046	-0.12
732.225	0.12
732.404	-0.09
732.583	-0.11
732.762	0
732.941	0.01
733.12	0.02
733.298	0.01
733.477	0.05
733.656	-0.14
733.835	-0.14
734.014	0.06
734.193	-0.08
734.371	0.1
734.55	0.03
734.729	-0.06
734.908	-0.06
735.086	0.03
735.265	0.09
735.444	-0.18
735.623	-0.09
735.801	-0.05
735.98	-0.05
736.159	-0.06
736.337	0.09
736.516	-0
736.694	0.06
736.873	-0.09
737.052	0.15
737.23	0.08
737.409	-0.03
737.587	0.2
737.766	-0.18
737.944	-0.11
738.123	-0.02
738.301	0.01
738.479	-0.03
738.658	0.04
738.836	-0.19
739.015	-0.04
739.193	0.18
739.371	-0.06
739.55	-0.12
739.728	-0.04
739.906	0.11
740.085	0.22
740.263	0.04
740.441	-0.21
740.62	0.16
740.798	0.1
740.976	-0.03
741.154	-0.07
741.332	0.05
741.511	-0.07
741.689	0.09
741.867	-0.03
742.045	-0.03
742.223	-0.02
742.401	-0.05
742.579	-0.08
742.757	0.06
742.935	-0.07
743.114	-0.06
743.292	-0.01
743.47	-0.01
743.648	0.05
743.826	0.07
744.004	0.04
744.181	0.01
744.359	-0.04
744.537	-0.03
744.715	0.01
744.893	0
745.071	-0.04
745.249	-0.09
745.427	-0.08
745.605	0.1
745.782	0.06
745.96	-0.01
746.138	0.05
746.316	0.13
746.493	-0.09
746.671	0.01
746.849	-0.02
747.027	0.12
747.204	-0.07
747.382	0.01
747.56	-0.21
747.737	0.05
747.915	-0.04
748.093	0.01
748.27	-0.13
748.448	-0.09
748.625	-0.2
748.803	-0.12
748.98	-0.1
749.158	-0.09
749.335	0.05
749.513	-0.16
749.69	-0.07
749.868	-0.03
750.045	-0.02
750.223	-0.2
750.4	-0.24
750.578	0.04
750.755	-0.01
750.932	-0.2
751.11	-0.04
751.287	-0.21
751.464	0.13
751.642	-0.12
751.819	-0.04
751.996	0
752.173	-0.07
752.351	-0.1
752.528	-0.01
752.705	-0.07
752.882	-0.05
753.06	-0.08
753.237	0.09
753.414	0.12
753.591	0.23
753.768	0
753.945	0.04
754.122	-0.21
754.299	-0.03
754.476	-0.16
754.654	-0.01
754.831	0.07
755.008	-0.01
755.185	-0.11
755.362	-0.12
755.539	0.09
755.716	-0.06
755.892	-0.09
756.069	-0.02
756.246	-0.01
756.423	-0.16
756.6	0.1
756.777	-0.01
756.954	0.03
757.131	-0.08
757.307	-0.12
757.484	-0.18
757.661	-0.04
757.838	-0.04
758.015	-0.16
758.191	-0.01
758.368	0.06
758.545	0.18
758.721	0.01
758.898	-0.03
759.075	0.03
759.251	0.05
759.428	0.06
759.605	-0.22
759.781	0
759.958	0.1
760.134	0.05
760.311	-0.02
760.488	0.13
760.664	0.21
760.841	-0.14
761.017	-0.09
761.194	0.05
761.37	0.08
761.547	-0.05
761.723	-0.06
761.899	0.2
762.076	-0.08
762.252	-0.14
762.429	-0.18
762.605	0.16
762.781	-0.04
762.958	0.06
763.134	-0.13
763.31	-0.16
763.486	0.05
763.663	-0.25
763.839	-0.03
764.015	-0.18
764.191	-0.14
764.368	-0.04
764.544	-0.09
764.72	0.02
764.896	0.16
765.072	0.05
765.248	-0.06
765.425	0.01
765.601	-0.04
765.777	0.01
765.953	-0.22
766.129	-0.01
766.305	-0.15
766.481	-0.02
766.657	-0.09
766.833	0.23
767.009	-0.12
767.185	-0.13
767.361	-0.06
767.537	-0.05
767.713	0.18
767.889	-0.12
768.065	-0.09
768.24	-0.09
768.416	0.15
768.592	-0.08
768.768	-0.12
768.944	0.16
769.12	-0.16
769.295	-0.15
769.471	-0.03
769.647	-0.09
769.823	0.22
769.998	-0.14
770.174	-0.17
770.35	0.4
770.525	0.36
770.701	-0.07
770.877	-0.05
771.052	-0.22
771.228	0.13
771.403	0.01
771.579	-0.11
771.755	0.21
771.93	0.01
772.106	-0.18
772.281	-0.24
772.457	0.05
772.632	-0.03
772.808	-0
772.983	-0.04
773.159	-0.23
773.334	0.25
773.509	-0.08
773.685	-0.15
773.86	0.28
774.036	0.08
774.211	0.09
774.386	-0.06
774.562	-0.01
774.737	0.16
774.912	-0.09
775.087	0.05
775.263	0.09
775.438	0.08
775.613	-0.16
775.788	-0.09
775.964	0.24
776.139	0.39
776.314	-0.2
776.489	-0.02
776.664	-0.01
776.839	-0.2
777.014	0.26
777.19	0.09
777.365	0.49
777.54	0.22
777.715	-0.23
777.89	-0.05
778.065	-0.08
778.24	-0.01
778.415	0.16
778.59	-0.19
778.765	-0.13
778.94	0.03
779.115	-0.04
779.289	0.01
779.464	-0.06
779.639	0.02
779.814	-0.27
779.989	-0.21
780.164	0.25
780.339	0.09
780.513	-0.18
780.688	-0.23
780.863	-0.07
781.038	0.27
781.212	-0.22
781.387	-0.08
781.562	0.22
781.737	-0.09
781.911	0.13
782.086	-0.27
782.261	-0.06
782.435	0.33
782.61	-0.08
782.784	-0.03
782.959	0.39
783.134	-0.1
783.308	-0.18
783.483	-0.13
783.657	0.23
783.832	0.2
784.006	-0.32
784.181	0.12
784.355	0.29
784.53	-0.4
784.704	-0.19
784.878	0.01
785.053	0.08
785.227	0.19
785.402	0.3
785.576	-0.21
785.75	0.06
785.925	-0.17
786.099	-0.08
786.273	-0.09
786.448	0.15
786.622	0.16
786.796	-0.11
786.97	-0.28
787.145	0.34
787.319	-0.04
787.493	-0.15
787.667	-0.38
787.841	-0.15
788.015	0.28
788.19	-0.31
788.364	-0.01
788.538	0.18
788.712	-0.1
788.886	-0.05
789.06	0.01
789.234	0.11
789.408	-0.16
789.582	0.04
789.756	-0.05
789.93	-0.2
790.104	-0.08
790.278	-0.1
790.452	-0.13
790.626	0.15
790.8	-0.19
790.973	0.17
791.147	0.26
791.321	0.13
791.495	0.15
791.669	-0
791.843	-0
792.016	-0.09
792.19	0.56
792.364	-0.35
792.538	0.43
792.711	0.26
792.885	-0.16
793.059	-0.22
793.233	-0.45
793.406	0.19
793.58	0.16
793.754	0
793.927	-0.09
794.101	0.24
794.274	-0.02
794.448	0.13
794.622	-0.19
794.795	0.29
794.969	0.19
795.142	0.45
795.316	-0.07
795.489	-0.16
795.663	0.5
795.836	-0.01
796.009	-0.01
796.183	0.45
796.356	-0.07
796.53	0.18
796.703	-0.24
796.876	0.36
797.05	-0.14
797.223	-0.09
797.396	-0.04
797.57	-0.02
797.743	0.21
797.916	-0.03
798.09	-0.1
798.263	0.15
798.436	-0.05
798.609	-0.31
798.782	-0.19
798.956	0.04
799.129	-0.13
799.302	-0.01
799.475	-0.15
799.648	-0.19
799.821	-0.38
799.994	0.08
800.167	-0.42
800.34	0
800.514	-0.05
800.687	-0.36
800.86	-0.28
801.033	-0.08
801.206	-0.16
801.379	-0.23
801.551	0.35
801.724	-0.07
801.897	0.3
802.07	-0.07
802.243	-0.54
802.416	0.1
802.589	-0.21
802.762	0.01
802.935	-0.08
803.107	0.23
803.28	0.03
803.453	-0.1
803.626	-0.33
803.798	-0.06
803.971	-0.11
804.144	0.14
804.317	-0.02
804.489	0.4
804.662	0.01
804.835	0.04
805.007	-0.29
805.18	0.41
805.353	0.06
805.525	-0.2
805.698	-0.05
805.87	0.07
806.043	0.08
806.215	-0.21
806.388	-0.09
806.56	0.05
806.733	0.09
806.905	-0.16
807.078	-0.38
807.25	-0.18
807.423	0.03
807.595	0.02
807.768	-0.16
807.94	0.27
808.112	0.26
808.285	0.44
808.457	-0.14
808.629	-0.39
808.802	0.2
808.974	0.28
809.146	-0.3
809.318	-0.14
809.491	-0.19
809.663	0.32
809.835	-0.46
810.007	-0.05
810.18	-0.1
810.352	-0.36
810.524	-0.1
810.696	-0.03
810.868	0.31
811.04	-0.06
811.212	-0.13
811.384	0.14
811.556	0.05
811.728	-0.09
811.901	0.6
812.073	0.07
812.245	-0.21
812.417	-0.23
812.589	-0.57
812.76	0.1
812.932	0.26
813.104	0.05
813.276	0.08
813.448	0.55
813.62	0.03
813.792	-0.07
813.964	0.08
814.136	0.22
814.307	-0.29
814.479	-0.18
814.651	-0.48
814.823	0.55
814.995	0.07
815.166	-0.23
815.338	-0.6
815.51	-0.78
815.681	0.97
815.853	-0.23
816.025	-0.11
816.196	0.26
816.368	0.36
816.54	-0.75
816.711	-0.54
816.883	0.62
817.054	1.04
817.226	-0.71
817.398	-0.39
817.569	-0.16
817.741	0.06
817.912	-0
818.084	-0.08
818.255	0.28
818.426	-0.43
818.598	0.03
818.769	-0.5
818.941	0.19
819.112	0.38
819.283	0.01
819.455	-0.12
819.626	0.32
819.798	0.56
819.969	-0.05
820.14	-0.46
820.311	-0.46
820.483	0.24
820.654	0.19
820.825	-0.03
820.996	0.02
821.168	-0.25
821.339	-0
821.51	-0.35
821.681	-0.35
821.852	-0
822.023	-0.16
822.195	-0.06
822.366	0.52
822.537	0.12
822.708	-0
822.879	-0.04
823.05	0.19
823.221	-0.23
823.392	0.2
823.563	0.12
823.734	0.32
823.905	0.09
824.076	-0.79
824.247	-0.59
824.418	-0.35
824.589	0.55
824.759	-0.17
824.93	0.13
825.101	-0.32
825.272	0.03
825.443	0.23
825.614	0.72
825.784	-0.81
825.955	1.08
826.126	0.38
826.297	0.18
826.467	0.49
826.638	0.81
826.809	-1.22
826.98	-0.23
827.15	-0.11
827.321	-0.42
827.492	1.03
827.662	-0.58
827.833	0.67
828.003	0.21
828.174	-0.42
828.345	-0.46
828.515	1.06
828.686	0.63
828.856	-0.17
829.027	-0.23
829.197	-0.35
829.368	-0.25
829.538	-0.36
829.709	-0.18
829.879	-0.28
830.049	-0.41
830.22	-0.65
830.39	-0.04
830.56	0.63
830.731	-0.18
830.901	-0.37
831.072	-0.39
831.242	-0.19
831.412	0.15
831.582	0.05
831.753	-0.68
831.923	0.22
832.093	0.33
832.263	-0.57
832.434	-0.61
832.604	-0.2
832.774	0.05
832.944	0.11
833.114	-0.33
833.284	0.09
833.454	0.27
833.624	-0.47
833.795	-0.49
833.965	1.12
834.135	0.76
834.305	-0.79
834.475	-0.73
834.645	-0.14
834.815	0.36
834.985	-1.12
835.155	-0.27
835.325	0.32
835.494	0.82
835.664	-0.81
835.834	-0.88
836.004	0.24
836.174	0.75
836.344	-0.5
836.514	-1.44
836.684	-0.17
836.853	-0.25
837.023	-0.06
837.193	-0.15
837.363	0.98
837.532	0.61
837.702	-0.63
837.872	-0.69
838.041	0.82
838.211	1.48
838.381	-1.02
838.55	-0.4
838.72	2.06
838.89	1.29
839.059	-0.14
839.229	-0.96
839.398	1.07
839.568	0.2
839.738	-0.77
839.907	0.45
840.077	0.03
840.246	-0.73
840.416	-1.14
840.585	-1.04
840.755	1.29
840.924	1.52
841.093	-0.95
841.263	-0.08
841.432	0.35
841.602	-0.91
841.771	-0.71
841.94	0.03
842.11	1.52
842.279	0.99
842.448	-1.1
842.617	-0.82
842.787	0.53
842.956	-0.6
843.125	-0.68
843.294	0.21
843.464	0.84
843.633	-0.14
843.802	-1.32
843.971	-0.36
844.14	0.21
844.309	1.01
844.479	-0.62
844.648	-0.7
844.817	0.07
844.986	0.04
845.155	-0.46
845.324	-1.09
845.493	-0.03
845.662	-1.22
845.831	0.72
846	0.12
846.169	-1.07
846.338	1.9
846.507	0.07
846.676	0.6
846.844	-1.22
847.013	-0.13
847.182	-0.08
847.351	-0.85
847.52	-0.62
847.689	0.12
847.858	-0.72
848.026	-0.04
848.195	-0.44
848.364	-0.85
848.533	-0.96
848.701	-0.82
848.87	0.62
849.039	0.39
849.207	1.12
849.376	1.35
849.545	1.95
849.713	-0.6
849.882	-0.32
850.051	-0.8
850.219	0.44
850.388	0.74
850.556	-0.86
850.725	-0.07
850.893	-0.25
851.062	-0.07
851.23	0.27
851.399	-1.63
851.567	-0.9
851.736	-0.45
851.904	-1.19
852.073	0.57
852.241	0.46
852.41	-0.84
852.578	-0.27
852.746	-0.6
852.915	-0.52
853.083	0.11
853.251	-0.96
853.42	-0.4
853.588	-0.11
853.756	0.37
853.924	0.02
854.093	-0.6
854.261	-0.05
854.429	-1.33
854.597	0.06
854.765	-2.07
854.934	0.68
855.102	2.16
855.27	-0.18
855.438	0.36
855.606	1.67
855.774	0.45
855.942	-1.57
856.11	-2.04
856.278	0.31
856.446	1.25
856.614	-0.53
856.782	0.12
856.95	0.92
857.118	0.68
857.286	0.06
857.454	-0.94
857.622	1.13
857.79	0.35
857.958	-0.61
858.126	-0.89
858.294	-2.83
858.462	-0.29
858.629	-1.22
858.797	-1.16
858.965	-0.33
859.133	0.83
859.301	-0.24
859.468	0.06
859.636	-0.68
859.804	1.64
859.971	0.73
860.139	-0.94
860.307	1.77
860.474	-0.06
860.642	-0.43
860.81	-1.34
860.977	-0.66
861.145	0.52
861.313	-0.92
861.48	0.19
861.648	1.33
861.815	-0.62
861.983	-2.31
862.15	-0.05
862.318	0.55
862.485	0.89
862.653	-0.47
862.82	-1.19
862.988	1.47
863.155	0.96
863.322	-1.6
863.49	-1.58
863.657	-2.21
863.824	2.82
863.992	0.77
864.159	-0.28
864.326	2.89
864.494	-1.26
864.661	3.36
864.828	-2.72
864.996	0.45
865.163	0.41
865.33	-1.89
865.497	-2.75
865.664	-2.04
865.832	-2.13
865.999	-0.83
866.166	-1.09
866.333	-0.55
866.5	-0.63
866.667	0.37
866.834	-1.3
867.001	1.49
867.168	-2.07
867.335	0.01
867.502	-1.97
867.669	-0
867.836	2.5
868.003	-0.76
868.17	1.96
868.337	3.17
868.504	2.8
868.671	-0.88
868.838	-1.91
869.005	-0.46
869.172	0.86
869.339	0.12
869.505	-0.84
869.672	0.47
869.839	1.65
870.006	-0.8
870.173	-1.04
870.339	-0.25
870.506	2.1
870.673	0.46
870.84	0.84
871.006	0.43
871.173	0.86
871.34	0.48
871.506	-2.58
871.673	0.66
871.839	-2.6
872.006	1.67
872.173	-0.26
872.339	-1.4
872.506	1.42
872.672	-0.12
872.839	-1.93
873.005	1.03
873.172	2.93
873.338	1
873.505	-1.17
873.671	-1.87
873.838	2.08
874.004	-0.55
874.171	-0.53
874.337	0.99
874.503	1.24
874.67	-0.43
874.836	-0.66
875.002	3.35
875.169	1.02
875.335	-1.15
875.501	0.56
875.668	2.25
875.834	1.77
876	-1.3
876.166	1.45
876.332	2.4
876.499	3.75
876.665	-0.75
876.831	-0.73
876.997	1.44
877.163	0.6
877.329	-0.88
877.495	-0
877.662	0.42
877.828	1.3
877.994	-1.44
878.16	-1.72
878.326	-1.2
878.492	0.42
878.658	0.31
878.824	0.2
878.99	2.77
879.156	-1.03
879.322	2.13
879.487	-1.22
879.653	0.3
879.819	0.52
879.985	-0.13
880.151	-0.9
880.317	1.36
880.483	0.5
880.648	0.93
880.814	-1.92
880.98	1.59
881.146	-2.18
881.312	-2.46
881.477	-0.87
881.643	-0.7
881.809	2.47
881.974	2.09
882.14	-2.11
882.306	1
882.471	3.07
882.637	-0.62
882.803	0.32
882.968	3.25
883.134	3.94
883.299	-0.53
883.465	-0.09
883.63	2.52
883.796	0.46
883.961	0.83
884.127	1.88
884.292	-5.4
884.458	-1.94
884.623	-1.94
