Data from Apollo_Calib_20240827__AbsoluteIrradiance__198__02-27-01-413.txt Node

Date: Wed Aug 28 02:27:01 BST 2024
User: biology
Spectrometer: FLMT08252
Trigger mode: 0
Integration Time (sec): 5.000000E-1
Scans to average: 5
Electric dark correction enabled: true
Nonlinearity correction enabled: false
Boxcar width: 0
XAxis mode: Wavelengths
Number of Pixels in Spectrum: 3648
>>>>>Begin Spectral Data<<<<<
179.588	-0
179.809	-0
180.03	-0
180.251	-0
180.473	-0
180.694	0
180.915	0
181.136	-0
181.357	0
181.578	-0
181.799	-0
182.02	-0
182.241	-0
182.462	-0
182.683	0
182.904	-0
183.125	-0
183.346	0
183.567	-0
183.788	-0
184.009	-0
184.23	0
184.451	0
184.672	-0
184.892	-0
185.113	0
185.334	0
185.555	-0
185.776	-0
185.996	0
186.217	0
186.438	-0
186.659	-0
186.879	0
187.1	-0
187.321	-0
187.541	-0
187.762	0
187.983	0
188.203	0
188.424	-0
188.644	-0
188.865	-0
189.086	-0
189.306	-0
189.527	0
189.747	0
189.968	-0
190.188	0
190.409	0
190.629	0
190.849	-0
191.07	-0
191.29	0
191.511	0
191.731	-0
191.951	-0
192.172	0
192.392	0
192.612	-0
192.833	0
193.053	0
193.273	0
193.493	-0
193.714	0
193.934	0
194.154	0
194.374	0
194.594	0
194.815	0
195.035	0
195.255	0
195.475	-0
195.695	0
195.915	0
196.135	0
196.355	0
196.575	0
196.795	0
197.015	-0
197.235	-0
197.455	-0
197.675	0
197.895	-0
198.115	-0
198.335	0
198.555	0
198.775	0
198.995	0
199.214	0
199.434	0
199.654	-0
199.874	-0
200.094	0.98
200.313	-0.11
200.533	-0.02
200.753	-0.31
200.973	1.28
201.192	0.53
201.412	-0.62
201.632	-0.05
201.851	0.91
202.071	-0.07
202.291	-0.39
202.51	-0.24
202.73	1.04
202.95	-0.02
203.169	-0.43
203.389	0.01
203.608	0.37
203.828	-0.01
204.047	-0.3
204.267	0.57
204.486	0.37
204.706	0.12
204.925	-0.06
205.145	-0.34
205.364	0.49
205.583	0.74
205.803	0.24
206.022	-0.25
206.242	0.19
206.461	0.32
206.68	-0.36
206.9	-0.15
207.119	0.39
207.338	0.64
207.557	0.06
207.777	-0.36
207.996	0.03
208.215	0.53
208.434	-0.27
208.654	-0.05
208.873	0.2
209.092	0.61
209.311	-0.09
209.53	-0.05
209.749	0.05
209.968	-0.01
210.187	-0.02
210.407	-0.6
210.626	-0.08
210.845	0.3
211.064	-0.08
211.283	-0.23
211.502	0.44
211.721	-0.02
211.94	-0.2
212.159	-0.02
212.377	0.14
212.596	0.25
212.815	0.32
213.034	0.16
213.253	0.42
213.472	0.29
213.691	0.04
213.91	-0.29
214.128	-0.11
214.347	0.48
214.566	-0.46
214.785	-0.32
215.003	0.2
215.222	0
215.441	0.13
215.66	-0.43
215.878	0.09
216.097	0.42
216.316	-0.15
216.534	-0.03
216.753	0.04
216.972	0.06
217.19	-0.09
217.409	0
217.627	0.05
217.846	-0.12
218.064	-0.03
218.283	-0.14
218.501	0.6
218.72	0.27
218.938	-0.14
219.157	0
219.375	0.12
219.594	0.1
219.812	-0.17
220.031	-0.06
220.249	0.64
220.467	0.47
220.686	-0.06
220.904	0.02
221.122	-0.09
221.341	0.22
221.559	-0.02
221.777	-0.17
221.995	0.08
222.214	0.01
222.432	-0.07
222.65	0.13
222.868	0.07
223.086	0.14
223.305	0.24
223.523	0.06
223.741	0.33
223.959	0.06
224.177	-0.28
224.395	-0
224.613	0.16
224.831	0.32
225.049	-0.2
225.267	-0.15
225.485	0.05
225.703	0.03
225.921	0.06
226.139	-0.07
226.357	0.23
226.575	0.2
226.793	-0.07
227.011	0.55
227.229	0.09
227.447	0.2
227.665	0.07
227.883	-0.25
228.1	0.09
228.318	0.1
228.536	-0.25
228.754	-0.09
228.972	0.15
229.189	0.14
229.407	0.09
229.625	-0.01
229.843	0.17
230.06	0.22
230.278	0.02
230.496	0.06
230.713	0.11
230.931	0.18
231.149	-0.06
231.366	-0.15
231.584	0.07
231.801	0.42
232.019	-0.05
232.236	-0.05
232.454	-0.07
232.671	0.26
232.889	-0.04
233.106	-0.1
233.324	0.1
233.541	0.05
233.759	-0
233.976	-0.07
234.194	0
234.411	0.05
234.628	-0
234.846	-0.02
235.063	0.05
235.28	0.06
235.498	-0.05
235.715	-0.02
235.932	0.14
236.149	0.02
236.367	-0.06
236.584	0.04
236.801	-0.06
237.018	0.17
237.236	-0.05
237.453	-0.06
237.67	0.19
237.887	0.03
238.104	0.07
238.321	-0.1
238.538	-0.07
238.755	0.14
238.973	-0.16
239.19	0.04
239.407	0.09
239.624	0.11
239.841	-0.09
240.058	-0.07
240.275	0.07
240.492	0
240.709	0.08
240.925	-0.07
241.142	-0.07
241.359	-0.13
241.576	-0.17
241.793	-0.15
242.01	0.04
242.227	0.14
242.444	0.03
242.66	0.08
242.877	0.09
243.094	-0.06
243.311	0.1
243.527	-0
243.744	0.11
243.961	0.09
244.178	-0.05
244.394	-0.12
244.611	0.12
244.828	0.23
245.044	-0.06
245.261	0.03
245.477	0.03
245.694	0.14
245.911	-0.08
246.127	-0.01
246.344	0.19
246.56	0.12
246.777	0.04
246.993	0.1
247.21	-0
247.426	0.04
247.643	0.04
247.859	-0.1
248.076	-0.01
248.292	0.16
248.508	0.04
248.725	0.04
248.941	0.11
249.157	0.11
249.374	-0.07
249.59	0.01
249.806	-0.02
250.023	0.2
250.239	-0.07
250.455	-0.04
250.671	0.05
250.888	0.18
251.104	-0.03
251.32	0.08
251.536	0.03
251.752	0.03
251.969	0.06
252.185	0.03
252.401	0.23
252.617	0.16
252.833	-0.03
253.049	-0.03
253.265	0.16
253.481	0.07
253.697	-0.02
253.913	-0.08
254.129	0.04
254.345	0.09
254.561	0.04
254.777	0.02
254.993	0.03
255.209	0.01
255.425	0.09
255.641	-0.05
255.857	0.14
256.073	0.07
256.288	-0.12
256.504	0.03
256.72	0.08
256.936	0.11
257.152	-0.01
257.367	0.01
257.583	0.06
257.799	0.19
258.015	-0.02
258.23	-0.02
258.446	0.2
258.662	-0.01
258.877	-0.04
259.093	-0.02
259.309	-0.04
259.524	0.09
259.74	-0.08
259.955	-0.11
260.171	0.04
260.387	0.03
260.602	0.12
260.818	0.11
261.033	-0.1
261.249	0.02
261.464	0.01
261.68	-0.12
261.895	0.06
262.11	0.05
262.326	-0.01
262.541	-0.12
262.757	0.06
262.972	0.05
263.187	0.03
263.403	0.02
263.618	0.07
263.833	0.06
264.049	-0.07
264.264	0.03
264.479	0.09
264.694	0.08
264.91	-0.04
265.125	0
265.34	0.08
265.555	0.17
265.77	0.01
265.986	-0
266.201	0.06
266.416	0.1
266.631	-0.05
266.846	-0.08
267.061	0.09
267.276	0.15
267.491	-0.08
267.706	0.08
267.921	0.08
268.136	0.1
268.351	-0.04
268.566	-0.08
268.781	0.09
268.996	0.07
269.211	0.09
269.426	-0.06
269.641	0.01
269.856	0.05
270.071	-0.07
270.285	-0.05
270.5	0.11
270.715	0.09
270.93	0.07
271.145	0.04
271.359	0.09
271.574	-0
271.789	-0.03
272.004	-0.01
272.218	0.02
272.433	0.02
272.648	-0.03
272.862	0.08
273.077	0
273.292	0.04
273.506	-0.02
273.721	-0.09
273.936	0.03
274.15	0.13
274.365	0.02
274.579	0.04
274.794	0.06
275.008	0.11
275.223	-0.05
275.437	0.03
275.652	0.07
275.866	0.08
276.081	0.04
276.295	0.06
276.509	0.01
276.724	0.01
276.938	0.04
277.153	0.05
277.367	0.08
277.581	-0.01
277.796	-0.04
278.01	-0.02
278.224	0
278.438	0.21
278.653	-0.02
278.867	-0.02
279.081	0.09
279.295	0
279.51	0.03
279.724	-0.08
279.938	0.08
280.152	0.1
280.366	-0.06
280.58	0.03
280.794	0.11
281.008	0.11
281.222	0.04
281.437	0.22
281.651	0.03
281.865	0.14
282.079	0.03
282.293	-0.05
282.507	0.04
282.721	0.03
282.935	0.02
283.148	-0.06
283.362	0
283.576	-0.04
283.79	0.04
284.004	0.01
284.218	0.06
284.432	-0.01
284.646	-0.01
284.859	-0.05
285.073	-0.02
285.287	0.05
285.501	0.01
285.714	0.02
285.928	0.01
286.142	0.09
286.356	0.01
286.569	-0.03
286.783	0.13
286.997	0.1
287.21	0.05
287.424	0.05
287.637	0.02
287.851	0.03
288.065	0.07
288.278	0.02
288.492	0
288.705	-0.01
288.919	0.09
289.132	-0.05
289.346	0.1
289.559	-0.01
289.773	-0.07
289.986	0.02
290.2	0.03
290.413	0.09
290.626	-0.03
290.84	0
291.053	0.02
291.267	0.13
291.48	0.05
291.693	0.03
291.906	-0.02
292.12	0.01
292.333	0.02
292.546	0.03
292.76	0.13
292.973	0.06
293.186	0.06
293.399	0
293.612	0.1
293.826	-0.02
294.039	0.04
294.252	0.02
294.465	0.06
294.678	0.09
294.891	0.01
295.104	-0.02
295.317	-0.02
295.53	0.04
295.743	0.02
295.956	0.03
296.169	0.15
296.382	0.04
296.595	0.04
296.808	-0.02
297.021	0.13
297.234	0.1
297.447	0
297.66	0.02
297.873	0.09
298.086	0.07
298.299	-0.02
298.511	-0.03
298.724	0.04
298.937	-0.05
299.15	0.02
299.363	0.02
299.575	0.06
299.788	0.09
300.001	0.04
300.213	0
300.426	-0
300.639	-0.04
300.852	0.01
301.064	0.07
301.277	0.07
301.489	0.09
301.702	0.06
301.915	0.07
302.127	0.05
302.34	0.08
302.552	0.01
302.765	-0.02
302.977	0.05
303.19	0.02
303.402	0
303.615	0.01
303.827	0.01
304.04	0.04
304.252	0.09
304.464	0.01
304.677	0.09
304.889	0.05
305.102	-0.01
305.314	0.01
305.526	0.1
305.739	0.07
305.951	-0.01
306.163	0.02
306.375	0.1
306.588	-0.02
306.8	0.02
307.012	-0.05
307.224	0.05
307.436	0.08
307.649	-0.01
307.861	0.05
308.073	0.07
308.285	0.06
308.497	-0.03
308.709	0.01
308.921	0.05
309.133	0.07
309.346	0.01
309.558	0.03
309.77	0.06
309.982	0.13
310.194	0.05
310.406	-0.07
310.617	0.12
310.829	0.06
311.041	0.05
311.253	-0.03
311.465	0
311.677	0.04
311.889	0.04
312.101	0.01
312.313	0.11
312.524	0.07
312.736	-0.06
312.948	-0.01
313.16	0.1
313.372	0.1
313.583	0.04
313.795	0.03
314.007	0.04
314.218	0.11
314.43	0.03
314.642	0
314.853	-0.02
315.065	0.06
315.277	0.01
315.488	0.05
315.7	0.1
315.912	0.04
316.123	0.01
316.335	0.03
316.546	0.17
316.758	0.07
316.969	0.01
317.181	-0
317.392	0.04
317.604	0.11
317.815	-0.03
318.026	-0
318.238	0.06
318.449	0.06
318.661	-0.03
318.872	-0.01
319.083	0.03
319.295	0.09
319.506	0.02
319.717	0.02
319.929	0.08
320.14	0.01
320.351	0.07
320.562	-0.04
320.774	0.03
320.985	0.05
321.196	-0
321.407	-0.04
321.618	0.09
321.829	0.04
322.041	0.06
322.252	0.06
322.463	0.09
322.674	0.08
322.885	-0
323.096	0.06
323.307	0.05
323.518	0.05
323.729	0.03
323.94	0.1
324.151	0.05
324.362	0.06
324.573	0.07
324.784	-0.02
324.995	0.12
325.206	0.05
325.417	0.01
325.628	0.01
325.838	0.06
326.049	0.05
326.26	0.03
326.471	0.04
326.682	0.06
326.892	0.05
327.103	-0.04
327.314	-0.01
327.525	0.14
327.735	0.05
327.946	0.04
328.157	0
328.368	0.07
328.578	0.05
328.789	0.06
328.999	0.04
329.21	0.03
329.421	0.07
329.631	0
329.842	-0
330.052	0.08
330.263	0.08
330.473	0.06
330.684	0.02
330.894	0.02
331.105	0.05
331.315	0.04
331.526	-0.02
331.736	0.13
331.947	0.05
332.157	0.04
332.367	-0.05
332.578	0.08
332.788	0.12
332.999	0.08
333.209	0.04
333.419	-0.02
333.629	0.09
333.84	0.07
334.05	-0.01
334.26	0.09
334.47	0.04
334.681	0.08
334.891	-0
335.101	0.09
335.311	0.15
335.521	0.03
335.732	0.02
335.942	0.1
336.152	0.07
336.362	0.08
336.572	0.07
336.782	0.06
336.992	0.02
337.202	0.01
337.412	0.03
337.622	0.05
337.832	0.04
338.042	0.01
338.252	-0
338.462	0.03
338.672	0.03
338.882	0.05
339.092	0.02
339.302	0.11
339.511	0.09
339.721	0.02
339.931	-0.03
340.141	0.08
340.351	0.13
340.561	0.06
340.77	0.08
340.98	0.07
341.19	0.1
341.4	0.02
341.609	0.03
341.819	0.05
342.029	0.03
342.238	0.04
342.448	0.02
342.658	0.09
342.867	0.05
343.077	0.06
343.286	0.05
343.496	0.03
343.706	0.13
343.915	-0.03
344.125	0.04
344.334	0.03
344.544	-0.03
344.753	0.03
344.963	0.01
345.172	0.01
345.381	0.02
345.591	-0.01
345.8	0.05
346.01	0.09
346.219	0.1
346.428	-0.05
346.638	0.05
346.847	0.05
347.056	0.09
347.266	0
347.475	0.05
347.684	0.07
347.893	0.05
348.103	0.06
348.312	0.03
348.521	0.06
348.73	0.08
348.94	0.05
349.149	0.03
349.358	0.02
349.567	0.02
349.776	-0.02
349.985	0
350.194	0.1
350.403	0.08
350.612	-0
350.821	0.04
351.03	0.06
351.239	0.06
351.448	0.02
351.657	-0
351.866	0.13
352.075	0.06
352.284	0.05
352.493	-0.01
352.702	0.12
352.911	0.07
353.12	0.05
353.329	0.05
353.538	0.05
353.746	0.07
353.955	0.02
354.164	0.06
354.373	0.01
354.582	0.07
354.79	0.03
354.999	0.1
355.208	0.02
355.416	0.11
355.625	-0.03
355.834	0.03
356.042	0.1
356.251	0.01
356.46	-0.01
356.668	0.06
356.877	0.12
357.085	0.1
357.294	-0.02
357.503	0.08
357.711	0.07
357.92	0.18
358.128	0.08
358.337	0.02
358.545	0.07
358.754	0.02
358.962	0.08
359.17	0.03
359.379	0.09
359.587	0.1
359.796	0.07
360.004	0.11
360.212	0.12
360.421	0.1
360.629	0.05
360.837	0.04
361.046	0.08
361.254	0.15
361.462	0.04
361.67	0.02
361.879	0.06
362.087	0.09
362.295	0.04
362.503	0.04
362.711	-0.02
362.92	0.03
363.128	0.03
363.336	0.03
363.544	0.02
363.752	0.06
363.96	0.02
364.168	-0.02
364.376	0.08
364.584	0.06
364.792	0.1
365	0.08
365.208	0.08
365.416	0.08
365.624	0.13
365.832	0.05
366.04	0.15
366.248	0.09
366.456	0.09
366.664	0.06
366.872	0.06
367.079	0.07
367.287	0.09
367.495	0.06
367.703	0.06
367.911	0.08
368.118	0.06
368.326	0.07
368.534	0.03
368.742	0.1
368.949	0.01
369.157	0.03
369.365	0.11
369.572	0.07
369.78	0.07
369.988	0.11
370.195	0.1
370.403	0.1
370.61	0.05
370.818	0.07
371.026	0.11
371.233	0.03
371.441	0.08
371.648	0.03
371.856	0.13
372.063	0.1
372.271	0.06
372.478	0.05
372.685	0.03
372.893	0.09
373.1	0.04
373.308	0.01
373.515	0.16
373.722	0.12
373.93	0.09
374.137	0.11
374.344	0.18
374.552	0.12
374.759	0.08
374.966	0.09
375.173	0.08
375.381	0.13
375.588	0.12
375.795	0.02
376.002	0.05
376.209	0.03
376.417	0.09
376.624	0.1
376.831	0.1
377.038	0.08
377.245	0
377.452	0.08
377.659	0.12
377.866	0.09
378.073	0.1
378.28	0.08
378.487	0.13
378.694	0.1
378.901	0.1
379.108	0.13
379.315	0.15
379.522	0.2
379.729	0.09
379.936	0.12
380.143	0.14
380.35	0.14
380.557	0.12
380.763	0.1
380.97	0.15
381.177	0.18
381.384	0.18
381.591	0.07
381.797	0.15
382.004	0.16
382.211	0.16
382.418	0.15
382.624	0.21
382.831	0.21
383.038	0.19
383.244	0.18
383.451	0.15
383.658	0.16
383.864	0.18
384.071	0.14
384.277	0.27
384.484	0.2
384.69	0.28
384.897	0.22
385.103	0.21
385.31	0.21
385.516	0.21
385.723	0.21
385.929	0.27
386.136	0.23
386.342	0.33
386.549	0.29
386.755	0.34
386.961	0.35
387.168	0.31
387.374	0.35
387.58	0.37
387.787	0.41
387.993	0.4
388.199	0.4
388.406	0.37
388.612	0.48
388.818	0.46
389.024	0.46
389.231	0.52
389.437	0.56
389.643	0.62
389.849	0.57
390.055	0.62
390.261	0.65
390.467	0.76
390.674	0.75
390.88	0.82
391.086	0.88
391.292	0.82
391.498	0.92
391.704	0.94
391.91	0.96
392.116	1
392.322	0.95
392.528	1.16
392.734	1.17
392.94	1.21
393.146	1.3
393.352	1.38
393.557	1.36
393.763	1.42
393.969	1.66
394.175	1.64
394.381	1.75
394.587	1.79
394.792	1.89
394.998	2.09
395.204	2.19
395.41	2.22
395.615	2.34
395.821	2.51
396.027	2.56
396.233	2.75
396.438	2.85
396.644	3.17
396.85	3.22
397.055	3.34
397.261	3.5
397.466	3.65
397.672	3.76
397.878	4.07
398.083	4.09
398.289	4.22
398.494	4.43
398.7	4.59
398.905	4.7
399.111	5
399.316	5.08
399.522	5.29
399.727	5.58
399.932	5.79
400.138	5.96
400.343	6.29
400.549	6.29
400.754	6.84
400.959	6.99
401.165	7.37
401.37	7.61
401.575	8.21
401.78	8.26
401.986	8.59
402.191	8.86
402.396	9.32
402.601	9.69
402.807	10.02
403.012	10.19
403.217	10.98
403.422	11.06
403.627	11.55
403.832	12.07
404.037	12.34
404.243	12.36
404.448	12.88
404.653	13.38
404.858	13.5
405.063	13.28
405.268	13.9
405.473	14.06
405.678	14.33
405.883	15.07
406.088	15.15
406.293	15.07
406.498	15.62
406.703	15.49
406.907	15.92
407.112	16.38
407.317	16.79
407.522	17.11
407.727	17.28
407.932	17.36
408.136	17.68
408.341	17.34
408.546	17.47
408.751	17.41
408.956	17.24
409.16	17.74
409.365	17.51
409.57	17.08
409.774	16.94
409.979	16.97
410.184	16.63
410.388	16.46
410.593	16.6
410.798	16.5
411.002	16.45
411.207	16.05
411.411	15.93
411.616	15.59
411.82	15.34
412.025	14.97
412.229	14.72
412.434	14.35
412.638	13.94
412.843	13.7
413.047	13.32
413.252	12.87
413.456	13.02
413.66	12.48
413.865	12.13
414.069	11.62
414.273	11.6
414.478	11.15
414.682	10.81
414.886	10.66
415.091	10.14
415.295	9.97
415.499	9.92
415.703	9.35
415.908	9.31
416.112	8.9
416.316	9.01
416.52	8.6
416.724	8.26
416.929	8.11
417.133	8.11
417.337	7.65
417.541	7.59
417.745	7.39
417.949	7.3
418.153	7.2
418.357	6.95
418.561	7.03
418.765	6.72
418.969	6.62
419.173	6.58
419.377	6.33
419.581	6.35
419.785	6.25
419.989	5.92
420.193	5.98
420.397	5.77
420.601	5.72
420.804	5.66
421.008	5.43
421.212	5.31
421.416	5.05
421.62	4.84
421.823	4.75
422.027	4.8
422.231	4.46
422.435	4.23
422.638	4.11
422.842	4.02
423.046	3.88
423.249	3.91
423.453	3.69
423.657	3.66
423.86	3.59
424.064	3.49
424.268	3.47
424.471	3.24
424.675	3.24
424.878	3.17
425.082	3.07
425.285	3.1
425.489	2.87
425.692	2.86
425.896	2.72
426.099	2.67
426.303	2.6
426.506	2.45
426.71	2.53
426.913	2.57
427.116	2.46
427.32	2.33
427.523	2.33
427.726	2.3
427.93	2.15
428.133	2.2
428.336	2.14
428.54	2.09
428.743	2.14
428.946	2.15
429.149	2
429.353	1.96
429.556	1.94
429.759	1.84
429.962	1.8
430.165	1.75
430.368	1.62
430.571	1.55
430.775	1.61
430.978	1.51
431.181	1.47
431.384	1.46
431.587	1.37
431.79	1.42
431.993	1.37
432.196	1.35
432.399	1.36
432.602	1.38
432.805	1.33
433.008	1.33
433.211	1.24
433.414	1.36
433.616	1.27
433.819	1.21
434.022	1.16
434.225	1.27
434.428	1.24
434.631	1.34
434.833	1.08
435.036	1.1
435.239	1.14
435.442	1.07
435.645	1.04
435.847	1.08
436.05	1.07
436.253	1.03
436.455	0.95
436.658	0.99
436.861	1.08
437.063	0.89
437.266	0.93
437.468	0.91
437.671	1.06
437.874	0.87
438.076	0.79
438.279	0.87
438.481	0.85
438.684	0.84
438.886	0.89
439.089	0.75
439.291	0.85
439.494	0.77
439.696	0.68
439.899	0.75
440.101	0.7
440.303	0.66
440.506	0.78
440.708	0.75
440.91	0.76
441.113	0.59
441.315	0.74
441.517	0.63
441.72	0.77
441.922	0.62
442.124	0.58
442.326	0.63
442.529	0.69
442.731	0.58
442.933	0.69
443.135	0.57
443.337	0.49
443.539	0.51
443.742	0.5
443.944	0.53
444.146	0.48
444.348	0.52
444.55	0.42
444.752	0.54
444.954	0.43
445.156	0.45
445.358	0.4
445.56	0.53
445.762	0.46
445.964	0.44
446.166	0.42
446.368	0.39
446.57	0.47
446.772	0.41
446.974	0.36
447.175	0.43
447.377	0.36
447.579	0.39
447.781	0.31
447.983	0.45
448.184	0.38
448.386	0.37
448.588	0.26
448.79	0.37
448.991	0.28
449.193	0.3
449.395	0.31
449.597	0.44
449.798	0.36
450	0.33
450.202	0.32
450.403	0.3
450.605	0.37
450.806	0.29
451.008	0.24
451.21	0.28
451.411	0.31
451.613	0.28
451.814	0.31
452.016	0.36
452.217	0.28
452.419	0.32
452.62	0.32
452.821	0.35
453.023	0.36
453.224	0.32
453.426	0.28
453.627	0.26
453.828	0.34
454.03	0.24
454.231	0.32
454.432	0.28
454.634	0.38
454.835	0.25
455.036	0.22
455.238	0.3
455.439	0.42
455.64	0.22
455.841	0.25
456.042	0.37
456.244	0.3
456.445	0.24
456.646	0.18
456.847	0.26
457.048	0.33
457.249	0.32
457.45	0.47
457.651	0.21
457.852	0.33
458.054	0.27
458.255	0.21
458.456	0.28
458.657	0.28
458.858	0.19
459.058	0.26
459.259	0.29
459.46	0.21
459.661	0.22
459.862	0.37
460.063	0.24
460.264	0.34
460.465	0.23
460.666	0.37
460.866	0.27
461.067	0.24
461.268	0.26
461.469	0.23
461.67	0.24
461.87	0.17
462.071	0.19
462.272	0.16
462.473	0.22
462.673	0.26
462.874	0.18
463.075	0.26
463.275	0.21
463.476	0.25
463.676	0.25
463.877	0.24
464.078	0.27
464.278	0.31
464.479	0.24
464.679	0.22
464.88	0.22
465.08	0.28
465.281	0.22
465.481	0.22
465.682	0.21
465.882	0.24
466.083	0.21
466.283	0.23
466.483	0.22
466.684	0.17
466.884	0.19
467.085	0.23
467.285	0.29
467.485	0.19
467.686	0.23
467.886	0.15
468.086	0.18
468.286	0.21
468.487	0.27
468.687	0.17
468.887	0.19
469.087	0.24
469.287	0.17
469.488	0.17
469.688	0.25
469.888	0.25
470.088	0.28
470.288	0.28
470.488	0.26
470.688	0.17
470.888	0.2
471.088	0.15
471.288	0.22
471.488	0.21
471.688	0.25
471.888	0.18
472.088	0.25
472.288	0.21
472.488	0.18
472.688	0.14
472.888	0.18
473.088	0.14
473.288	0.18
473.488	0.13
473.688	0.24
473.887	0.17
474.087	0.16
474.287	0.17
474.487	0.17
474.687	0.16
474.886	0.17
475.086	0.15
475.286	0.18
475.486	0.17
475.685	0.19
475.885	0.16
476.085	0.2
476.284	0.19
476.484	0.15
476.684	0.14
476.883	0.2
477.083	0.17
477.282	0.1
477.482	0.2
477.681	0.2
477.881	0.15
478.08	0.12
478.28	0.14
478.479	0.17
478.679	0.2
478.878	0.11
479.078	0.1
479.277	0.11
479.477	0.14
479.676	0.14
479.875	0.17
480.075	0.07
480.274	0.16
480.473	0.17
480.673	0.11
480.872	0.14
481.071	0.14
481.271	0.12
481.47	0.08
481.669	0.11
481.868	0.09
482.067	0.09
482.267	0.08
482.466	0.07
482.665	0.12
482.864	0.05
483.063	0.07
483.262	0.12
483.461	0.15
483.661	0.14
483.86	0.1
484.059	0.11
484.258	0.09
484.457	0.1
484.656	0.11
484.855	0.12
485.054	0.04
485.253	0.08
485.452	0.06
485.651	0.08
485.849	0.09
486.048	0.06
486.247	0.07
486.446	0.11
486.645	0.04
486.844	0.08
487.043	0.06
487.241	0.1
487.44	0.07
487.639	0.06
487.838	0.11
488.037	0.09
488.235	0.13
488.434	0.09
488.633	0.06
488.831	0.12
489.03	0.12
489.229	0.09
489.427	0.11
489.626	0.14
489.825	0.15
490.023	0.11
490.222	0.07
490.42	0.09
490.619	0.13
490.817	0.11
491.016	0.06
491.214	0.13
491.413	0.07
491.611	0.05
491.81	0.07
492.008	0.09
492.207	0.11
492.405	0.09
492.604	0.02
492.802	0.07
493	0.07
493.199	0.09
493.397	0.08
493.595	0.09
493.794	0.05
493.992	0.13
494.19	0.07
494.388	0.1
494.587	0.05
494.785	0.1
494.983	0.05
495.181	0.08
495.379	0.08
495.578	0.07
495.776	0.08
495.974	0.1
496.172	0.07
496.37	0.06
496.568	0.05
496.766	0.04
496.964	0.11
497.162	0.09
497.36	0.03
497.558	0.1
497.756	0.1
497.954	0.05
498.152	0.05
498.35	0.06
498.548	0.05
498.746	0.07
498.944	0.03
499.142	0.04
499.34	0.03
499.538	0.05
499.736	0.04
499.933	0.12
500.131	0.1
500.329	0.07
500.527	0.09
500.725	0.08
500.922	0.09
501.12	0.08
501.318	0.08
501.516	0.02
501.713	0.07
501.911	0.04
502.109	0.04
502.306	0.07
502.504	0.07
502.701	0.04
502.899	0.08
503.097	0.11
503.294	0.07
503.492	0.05
503.689	0.05
503.887	0.08
504.084	0.1
504.282	0.06
504.479	0.03
504.677	0.09
504.874	0.04
505.072	0.05
505.269	0.06
505.466	0.09
505.664	0.06
505.861	0.02
506.059	0.05
506.256	0.06
506.453	0.04
506.651	0.09
506.848	0.09
507.045	0.08
507.242	0.06
507.44	0.04
507.637	0.06
507.834	0.04
508.031	0.09
508.229	0.01
508.426	0.05
508.623	0.09
508.82	0.02
509.017	0.03
509.214	0.04
509.411	0.04
509.608	0.03
509.805	0.04
510.003	0.05
510.2	0.03
510.397	0.07
510.594	0.03
510.791	0.03
510.988	0.05
511.184	0.07
511.381	0.05
511.578	0.01
511.775	0.08
511.972	0.04
512.169	0.04
512.366	0.07
512.563	0.06
512.76	0.01
512.956	0.06
513.153	0.06
513.35	0.07
513.547	0.05
513.744	0.03
513.94	0
514.137	0.04
514.334	0.05
514.53	0.05
514.727	0.05
514.924	0.09
515.12	0.02
515.317	0.01
515.514	0.02
515.71	0
515.907	0.05
516.103	0.04
516.3	0.05
516.497	0.08
516.693	0.08
516.89	0.03
517.086	0.02
517.283	0.04
517.479	0.05
517.676	0.04
517.872	0.04
518.068	0.02
518.265	0.03
518.461	0.01
518.658	0.02
518.854	0.02
519.05	0.05
519.247	0.01
519.443	0.04
519.639	0.05
519.836	0.06
520.032	0.04
520.228	0.03
520.424	0.08
520.621	0.07
520.817	0.04
521.013	0.05
521.209	0.06
521.405	0.08
521.601	0.03
521.798	0.03
521.994	0.08
522.19	0.01
522.386	-0.01
522.582	0.02
522.778	0.02
522.974	0.02
523.17	0.04
523.366	0.05
523.562	0.09
523.758	0.02
523.954	0
524.15	0.04
524.346	0.06
524.542	0.04
524.738	0.02
524.934	0.03
525.129	0.02
525.325	0.03
525.521	0.04
525.717	0.07
525.913	0.03
526.109	0.03
526.304	0.02
526.5	0.04
526.696	0.05
526.892	0.04
527.087	0.04
527.283	0
527.479	0.04
527.674	0.01
527.87	0.03
528.066	0
528.261	0.06
528.457	0.05
528.653	0.02
528.848	0.01
529.044	0.06
529.239	0.03
529.435	0.04
529.63	0.04
529.826	0.08
530.021	0.04
530.217	0.04
530.412	0.02
530.608	0.01
530.803	0.04
530.999	0.03
531.194	-0.02
531.389	0.06
531.585	-0.01
531.78	0.01
531.975	0.03
532.171	0.06
532.366	0.02
532.561	0.02
532.757	0.01
532.952	0.03
533.147	0.05
533.342	0.02
533.538	0.02
533.733	0.06
533.928	0.02
534.123	0.03
534.318	-0.01
534.513	0.02
534.709	0.03
534.904	0.01
535.099	0.04
535.294	0.01
535.489	0.03
535.684	0
535.879	-0.02
536.074	0.01
536.269	-0
536.464	0.03
536.659	0.02
536.854	0.02
537.049	0.02
537.244	0.04
537.439	0.02
537.634	0.06
537.828	0.03
538.023	0.04
538.218	-0.01
538.413	0.03
538.608	0.01
538.803	0.04
538.997	-0.01
539.192	0.06
539.387	0.05
539.582	0.03
539.776	0.03
539.971	0
540.166	0.03
540.36	-0.01
540.555	0.02
540.75	0.01
540.944	0.04
541.139	0.01
541.334	0.02
541.528	0.06
541.723	0.04
541.917	0.03
542.112	-0.02
542.306	0.01
542.501	0
542.695	0.03
542.89	-0.01
543.084	0.03
543.279	0.03
543.473	0.02
543.668	0.02
543.862	0.02
544.056	0.05
544.251	0.03
544.445	0.03
544.64	-0
544.834	0.01
545.028	0.01
545.222	0.04
545.417	0.07
545.611	0.04
545.805	0
546	0.01
546.194	0.02
546.388	0
546.582	0.05
546.776	-0
546.97	0.03
547.165	0.05
547.359	0.03
547.553	-0.01
547.747	0.02
547.941	0.03
548.135	0.01
548.329	0.04
548.523	0.04
548.717	0.02
548.911	0.01
549.105	0.03
549.299	0.04
549.493	0.05
549.687	0.04
549.881	0.03
550.075	0.02
550.269	0.01
550.463	0.04
550.657	-0
550.85	0.03
551.044	0.02
551.238	0.02
551.432	0
551.626	-0.01
551.82	0.04
552.013	-0
552.207	0.01
552.401	0.06
552.594	0.03
552.788	0.01
552.982	0.02
553.176	-0
553.369	0.04
553.563	0.05
553.756	-0.03
553.95	-0.01
554.144	0.03
554.337	0.06
554.531	0.02
554.724	0.01
554.918	0.01
555.111	0.05
555.305	0.01
555.498	0.07
555.692	0.04
555.885	0.02
556.079	0.03
556.272	0.01
556.466	0.03
556.659	0.01
556.852	-0.01
557.046	-0.01
557.239	0.03
557.432	0.01
557.626	-0.01
557.819	0.05
558.012	0.05
558.206	0.03
558.399	0.03
558.592	0.02
558.785	-0.01
558.979	0.05
559.172	0.03
559.365	0.03
559.558	0.03
559.751	0.02
559.944	0.04
560.138	-0.01
560.331	0.01
560.524	-0.01
560.717	0.01
560.91	0.03
561.103	0.02
561.296	-0.01
561.489	0.03
561.682	0.03
561.875	0.05
562.068	0.02
562.261	0.04
562.454	0.08
562.647	0.01
562.84	0.04
563.032	0.01
563.225	0.03
563.418	0.01
563.611	0.03
563.804	-0.02
563.997	-0
564.19	-0.01
564.382	0.02
564.575	0
564.768	0.02
564.961	0.01
565.153	-0
565.346	0.03
565.539	0.03
565.731	0.03
565.924	0.04
566.117	0.02
566.309	0.02
566.502	-0
566.695	0.01
566.887	0
567.08	0.01
567.272	-0.01
567.465	0.02
567.657	0.04
567.85	0.02
568.042	0.04
568.235	0.02
568.427	0.02
568.62	0.02
568.812	0.03
569.005	0.01
569.197	-0.03
569.389	0.01
569.582	0.02
569.774	0
569.966	-0.01
570.159	0
570.351	0.03
570.543	-0
570.736	0.01
570.928	-0
571.12	0.03
571.312	-0.02
571.505	-0.03
571.697	0.04
571.889	-0.01
572.081	-0
572.273	-0.02
572.465	0.02
572.658	-0.01
572.85	0.03
573.042	-0.01
573.234	-0
573.426	0.04
573.618	-0.02
573.81	0.03
574.002	0.03
574.194	0.06
574.386	-0
574.578	-0.09
574.77	-0
574.962	0.03
575.154	-0.04
575.346	0.01
575.538	0.02
575.729	-0.01
575.921	-0
576.113	-0.02
576.305	0.03
576.497	-0.02
576.689	-0
576.88	-0.01
577.072	0.06
577.264	0
577.456	0.02
577.647	-0.06
577.839	0.02
578.031	0.05
578.223	-0.03
578.414	-0.03
578.606	0.01
578.798	0.01
578.989	-0.02
579.181	0
579.372	0
579.564	-0.02
579.755	0.02
579.947	0.04
580.139	0.06
580.33	-0.03
580.522	-0.01
580.713	-0.06
580.905	0.01
581.096	0.02
581.287	-0.01
581.479	0.01
581.67	0.05
581.862	0.01
582.053	-0.01
582.244	-0.05
582.436	0
582.627	0.01
582.818	-0.02
583.01	-0.03
583.201	0.04
583.392	0.04
583.583	-0.01
583.775	-0.02
583.966	-0.02
584.157	0.01
584.348	-0.02
584.54	-0.03
584.731	0.01
584.922	0.02
585.113	-0.03
585.304	0.04
585.495	0.02
585.686	0.01
585.877	0.04
586.068	0.01
586.259	0.02
586.45	0.01
586.641	-0.05
586.832	-0.06
587.023	0.03
587.214	0.01
587.405	0.03
587.596	-0.01
587.787	0.05
587.978	0.02
588.169	-0.03
588.36	0
588.551	0.01
588.742	0.02
588.932	0.02
589.123	-0.01
589.314	0.04
589.505	0.01
589.696	0.02
589.886	-0.05
590.077	-0.04
590.268	-0.01
590.458	-0.01
590.649	-0.05
590.84	0.04
591.03	-0
591.221	-0.02
591.412	-0.03
591.602	0.04
591.793	0.06
591.984	-0.03
592.174	0.01
592.365	0.08
592.555	-0.01
592.746	0.02
592.936	0.02
593.127	0.02
593.317	0.05
593.508	-0.02
593.698	-0.01
593.889	0
594.079	0.04
594.269	-0.02
594.46	-0.01
594.65	0.03
594.84	0
595.031	-0.04
595.221	-0.01
595.411	-0.04
595.602	0.04
595.792	0.02
595.982	-0.01
596.172	0.06
596.363	0.01
596.553	-0
596.743	0.01
596.933	0.03
597.123	0.07
597.314	-0.03
597.504	-0.03
597.694	0.04
597.884	0.03
598.074	-0.02
598.264	-0.02
598.454	-0.01
598.644	0.01
598.834	-0.01
599.024	-0.05
599.214	0.02
599.404	0.05
599.594	-0.01
599.784	-0
599.974	0.06
600.164	0.05
600.354	-0.03
600.544	-0.06
600.734	0.02
600.924	0.05
601.114	-0.04
601.303	0.03
601.493	0.02
601.683	0.02
601.873	0
602.063	-0.03
602.252	0.04
602.442	-0.07
602.632	-0.03
602.821	-0.03
603.011	0.03
603.201	-0.03
603.39	-0.04
603.58	-0.04
603.77	0.04
603.959	0.06
604.149	0.01
604.339	-0.03
604.528	0.04
604.718	0.04
604.907	-0.02
605.097	-0.01
605.286	-0.04
605.476	0.03
605.665	0.02
605.855	-0.01
606.044	0.08
606.234	0.03
606.423	0.01
606.612	-0.06
606.802	-0.01
606.991	0.03
607.181	0.01
607.37	-0.04
607.559	-0.01
607.749	-0.03
607.938	0
608.127	-0.01
608.316	-0
608.506	0.02
608.695	-0.01
608.884	-0.04
609.073	-0.01
609.263	0
609.452	0.02
609.641	0.01
609.83	-0.05
610.019	-0
610.208	-0.03
610.397	0.01
610.586	0.02
610.775	-0
610.965	-0.02
611.154	-0.02
611.343	0.03
611.532	-0
611.721	-0.03
611.91	-0.01
612.099	0.05
612.287	-0
612.476	-0.05
612.665	-0
612.854	-0.02
613.043	0.03
613.232	0
613.421	-0.07
613.61	0.01
613.798	-0.04
613.987	0.05
614.176	-0.01
614.365	0.04
614.554	-0.02
614.742	0.04
614.931	-0.05
615.12	0.04
615.309	-0.02
615.497	0.02
615.686	-0.02
615.875	-0.01
616.063	0.02
616.252	0
616.44	-0.04
616.629	0.02
616.818	0.02
617.006	-0
617.195	-0.01
617.383	-0
617.572	0
617.76	-0.03
617.949	-0.01
618.137	0.01
618.326	0.03
618.514	-0.01
618.703	0.01
618.891	0.04
619.079	-0.04
619.268	0
619.456	-0.02
619.644	0.07
619.833	0.02
620.021	-0.02
620.209	-0.04
620.398	0.04
620.586	0
620.774	0.03
620.962	0.01
621.151	0.06
621.339	-0.02
621.527	-0.04
621.715	-0.06
621.903	-0.03
622.092	-0.02
622.28	-0.02
622.468	-0.01
622.656	-0.02
622.844	0.04
623.032	-0.03
623.22	-0.05
623.408	0.03
623.596	0.01
623.784	0.02
623.972	-0.02
624.16	-0.01
624.348	0.04
624.536	-0.02
624.724	-0.01
624.912	0.07
625.1	0.06
625.288	-0.04
625.476	-0.03
625.664	0.04
625.851	-0.06
626.039	-0
626.227	0
626.415	-0.02
626.603	-0.08
626.79	-0.01
626.978	0.01
627.166	0.04
627.354	0
627.541	-0.05
627.729	-0.04
627.917	0.04
628.104	0.04
628.292	-0
628.48	-0.01
628.667	0
628.855	0.03
629.042	0.02
629.23	-0.03
629.418	-0.03
629.605	-0.01
629.793	-0.03
629.98	-0
630.168	-0.04
630.355	0.02
630.543	0.04
630.73	-0.01
630.917	0.04
631.105	0.06
631.292	-0.02
631.48	0
631.667	0.06
631.854	0.02
632.042	-0.01
632.229	-0.06
632.416	0.06
632.604	-0.02
632.791	-0.03
632.978	0
633.165	0.04
633.353	0.05
633.54	0.04
633.727	-0.1
633.914	-0.03
634.101	-0.09
634.289	0.04
634.476	-0.03
634.663	-0.03
634.85	0.02
635.037	-0.04
635.224	-0.06
635.411	0.03
635.598	0.04
635.785	-0.03
635.972	0
636.159	0.04
636.346	-0
636.533	-0.01
636.72	-0.03
636.907	-0.02
637.094	0.01
637.281	0.01
637.468	0.02
637.655	-0.01
637.842	-0.01
638.029	-0.01
638.215	0.01
638.402	-0.01
638.589	-0.07
638.776	-0.01
638.963	-0.01
639.149	0.03
639.336	0.07
639.523	0.01
639.709	-0.01
639.896	-0.02
640.083	0.03
640.27	0.03
640.456	-0.03
640.643	-0.01
640.829	-0.05
641.016	-0.01
641.203	-0.04
641.389	-0.01
641.576	0.02
641.762	0.01
641.949	-0.03
642.135	0.01
642.322	0
642.508	-0.05
642.695	0.02
642.881	-0.03
643.068	-0
643.254	0
643.441	0.03
643.627	-0.01
643.813	-0.03
644	0.02
644.186	-0.06
644.372	0.04
644.559	0
644.745	-0.04
644.931	-0.04
645.118	0
645.304	-0.02
645.49	-0.02
645.676	-0.02
645.862	-0
646.049	0.06
646.235	0.01
646.421	0.07
646.607	0.04
646.793	-0.03
646.979	-0.01
647.165	0.04
647.352	0.03
647.538	0.03
647.724	-0
647.91	-0.01
648.096	0.03
648.282	0.05
648.468	-0.03
648.654	0.02
648.84	-0
649.026	-0.02
649.212	0.01
649.397	-0.01
649.583	-0.04
649.769	0.03
649.955	-0.02
650.141	0.03
650.327	0.07
650.513	-0.02
650.698	0.03
650.884	-0.06
651.07	-0
651.256	-0.01
651.442	-0.02
651.627	-0.01
651.813	-0.02
651.999	0
652.184	0.04
652.37	-0.02
652.556	-0.02
652.741	0.08
652.927	-0.09
653.113	0.01
653.298	-0.01
653.484	-0.01
653.669	-0.07
653.855	0.01
654.04	0.02
654.226	0.01
654.412	-0.03
654.597	-0.05
654.782	-0
654.968	0.05
655.153	-0.01
655.339	-0.04
655.524	-0.03
655.71	0.05
655.895	-0.02
656.08	-0.02
656.266	0.06
656.451	0.01
656.636	-0.01
656.822	-0
657.007	-0.04
657.192	-0.04
657.378	-0.07
657.563	-0.01
657.748	0.03
657.933	0.02
658.118	-0.03
658.304	-0.04
658.489	-0.01
658.674	0.04
658.859	-0.06
659.044	0
659.229	0.03
659.414	-0.02
659.599	-0.04
659.785	-0.07
659.97	-0.01
660.155	0.03
660.34	-0
660.525	-0.04
660.71	-0.04
660.895	0.04
661.08	-0.04
661.264	-0.05
661.449	0.02
661.634	0.06
661.819	-0.02
662.004	0.03
662.189	-0.08
662.374	-0.03
662.559	-0.02
662.743	-0.07
662.928	-0.01
663.113	0.01
663.298	-0.07
663.483	-0.04
663.667	0.05
663.852	-0.06
664.037	0.02
664.221	-0.03
664.406	0.02
664.591	0.01
664.775	0.04
664.96	0
665.145	-0
665.329	0.04
665.514	-0.01
665.698	-0.01
665.883	-0.06
666.068	0.09
666.252	0.01
666.437	-0.06
666.621	-0.01
666.806	0.01
666.99	-0.02
667.174	-0.06
667.359	0.07
667.543	-0.01
667.728	-0.04
667.912	-0.08
668.096	0.03
668.281	-0.03
668.465	-0.02
668.649	-0.01
668.834	-0.03
669.018	-0.02
669.202	-0.01
669.387	-0.03
669.571	0.06
669.755	-0.04
669.939	-0.02
670.124	-0.01
670.308	0.05
670.492	0.04
670.676	0.02
670.86	-0.02
671.044	-0.02
671.228	0.04
671.413	-0
671.597	-0.05
671.781	-0.04
671.965	0.04
672.149	0.02
672.333	0.01
672.517	-0.02
672.701	0
672.885	-0.02
673.069	-0.09
673.253	0.06
673.437	-0.04
673.621	-0.02
673.804	-0.01
673.988	-0.02
674.172	-0.03
674.356	-0.04
674.54	-0.04
674.724	0.07
674.908	0.03
675.091	0.05
675.275	-0.01
675.459	0.05
675.643	0.04
675.826	-0
676.01	0.01
676.194	-0.01
676.377	0.04
676.561	0.01
676.745	-0.04
676.928	0.01
677.112	0.1
677.296	-0.05
677.479	-0.02
677.663	0.01
677.846	-0.01
678.03	-0.02
678.213	-0.01
678.397	0.05
678.58	-0.03
678.764	-0.05
678.947	-0.05
679.131	-0.06
679.314	0.03
679.498	-0.02
679.681	-0.01
679.865	0.06
680.048	-0.04
680.231	-0.02
680.415	-0.03
680.598	-0.04
680.781	-0.01
680.965	-0.01
681.148	0.03
681.331	-0.03
681.514	-0
681.698	-0.02
681.881	-0
682.064	-0.01
682.247	-0
682.43	-0.06
682.614	-0.02
682.797	0.05
682.98	0.05
683.163	-0.06
683.346	0.01
683.529	-0.03
683.712	-0.07
683.895	0.04
684.078	-0.06
684.261	-0.01
684.444	0.02
684.627	-0
684.81	-0.04
684.993	0
685.176	0.03
685.359	-0.1
685.542	-0.03
685.725	0.04
685.908	0.01
686.091	0.01
686.274	0.02
686.457	0.03
686.639	-0.01
686.822	0.03
687.005	-0.03
687.188	0.06
687.371	0.07
687.553	0
687.736	0.06
687.919	0.05
688.102	0.07
688.284	-0.05
688.467	0.02
688.65	0.02
688.832	-0.04
689.015	-0.06
689.197	-0.04
689.38	0.03
689.563	0.09
689.745	-0.03
689.928	-0.04
690.11	-0.03
690.293	0.01
690.475	-0.12
690.658	0.03
690.84	-0.01
691.023	-0.07
691.205	-0.02
691.388	-0.01
691.57	0.09
691.752	0.05
691.935	-0.06
692.117	-0.07
692.3	-0.03
692.482	0.01
692.664	-0.02
692.847	0.03
693.029	0.07
693.211	0.01
693.393	-0.01
693.576	-0.06
693.758	0.03
693.94	-0.04
694.122	-0.03
694.304	-0.02
694.487	-0.03
694.669	0.07
694.851	-0.08
695.033	0.03
695.215	-0.02
695.397	-0.12
695.579	0.02
695.761	-0.09
695.943	-0.04
696.125	0.08
696.308	0.03
696.49	-0.15
696.671	0.18
696.853	-0.05
697.035	0.13
697.217	-0.03
697.399	0.05
697.581	-0.04
697.763	-0.04
697.945	-0.01
698.127	-0.02
698.309	0.09
698.491	-0
698.672	0.02
698.854	0.05
699.036	0.08
699.218	-0.04
699.399	0.05
699.581	0.08
699.763	-0
699.945	-0.06
700.126	-0.02
700.308	0.04
700.49	-0.05
700.671	-0.05
700.853	-0.1
701.035	-0.06
701.216	0.01
701.398	-0.08
701.579	-0.06
701.761	0.03
701.943	-0.04
702.124	-0.04
702.306	-0.03
702.487	0.1
702.669	-0
702.85	-0.07
703.031	-0.06
703.213	0.07
703.394	0.04
703.576	-0.02
703.757	0.06
703.938	0.01
704.12	0.14
704.301	-0.05
704.483	-0.11
704.664	-0
704.845	0.09
705.026	0.03
705.208	-0.04
705.389	-0.03
705.57	0.04
705.751	-0
705.933	-0.05
706.114	0.07
706.295	-0.03
706.476	-0.02
706.657	0.1
706.838	-0
707.02	0.05
707.201	-0.02
707.382	-0.04
707.563	0.02
707.744	-0.07
707.925	-0.04
708.106	-0.08
708.287	0.02
708.468	0.14
708.649	0
708.83	0.02
709.011	-0.06
709.192	0.03
709.373	-0.08
709.554	-0.01
709.734	-0.04
709.915	0.06
710.096	-0.03
710.277	-0.12
710.458	-0.05
710.639	0
710.819	-0.13
711	-0.01
711.181	0.01
711.362	-0.01
711.542	-0.06
711.723	-0.06
711.904	0.12
712.085	-0.02
712.265	-0.01
712.446	-0.12
712.627	-0.04
712.807	0.02
712.988	-0.04
713.168	-0.14
713.349	0.07
713.53	-0.08
713.71	-0.07
713.891	0
714.071	0
714.252	-0.06
714.432	-0.06
714.613	-0.13
714.793	-0.01
714.974	0.1
715.154	0.08
715.334	-0.01
715.515	0.08
715.695	-0.1
715.876	-0.1
716.056	-0.03
716.236	-0.02
716.417	-0.08
716.597	-0.05
716.777	0.07
716.957	-0.05
717.138	0.03
717.318	-0
717.498	-0.07
717.678	0.02
717.859	-0.02
718.039	-0.08
718.219	-0.03
718.399	0.06
718.579	-0.11
718.759	-0.12
718.939	-0.03
719.12	-0.05
719.3	-0.07
719.48	-0.16
719.66	-0.16
719.84	0.05
720.02	-0.05
720.2	-0.02
720.38	0.05
720.56	0.04
720.74	-0.05
720.92	-0.02
721.1	0.05
721.279	0.11
721.459	0.04
721.639	-0.14
721.819	-0.02
721.999	-0.07
722.179	0.04
722.359	-0.12
722.538	-0.03
722.718	0.01
722.898	-0
723.078	-0.09
723.257	-0.07
723.437	-0.02
723.617	0.01
723.797	-0.08
723.976	-0.03
724.156	-0.04
724.336	0.09
724.515	0.11
724.695	-0.13
724.874	-0.06
725.054	0.06
725.234	-0.08
725.413	0.01
725.593	-0.11
725.772	-0.01
725.952	-0.07
726.131	-0.05
726.311	-0.01
726.49	0.01
726.67	-0.1
726.849	-0.07
727.028	0.05
727.208	-0.05
727.387	-0.06
727.567	-0.09
727.746	-0.03
727.925	-0.08
728.105	-0.05
728.284	-0.05
728.463	-0.06
728.643	0.09
728.822	-0.16
729.001	-0.18
729.18	0.01
729.359	0.01
729.539	-0.07
729.718	-0.04
729.897	0.03
730.076	-0.07
730.255	-0.16
730.434	-0.02
730.614	-0.02
730.793	0.12
730.972	-0.01
731.151	-0.05
731.33	0
731.509	0.12
731.688	0.03
731.867	0.01
732.046	-0.17
732.225	0.18
732.404	-0.13
732.583	-0.14
732.762	-0.05
732.941	0.06
733.12	-0.04
733.298	-0.03
733.477	0.09
733.656	-0.06
733.835	-0.12
734.014	-0.03
734.193	-0
734.371	0.09
734.55	0.03
734.729	-0.03
734.908	-0.16
735.086	0.04
735.265	0.07
735.444	-0.17
735.623	-0.12
735.801	-0.12
735.98	-0.06
736.159	-0.02
736.337	0.14
736.516	-0.03
736.694	-0.05
736.873	-0.03
737.052	0.17
737.23	0.15
737.409	-0.04
737.587	0.15
737.766	-0.2
737.944	-0.02
738.123	0.04
738.301	0.02
738.479	-0.06
738.658	-0.12
738.836	-0.22
739.015	0.02
739.193	0.12
739.371	-0.15
739.55	0.02
739.728	-0.22
739.906	0.17
740.085	0.15
740.263	0.02
740.441	-0.09
740.62	0.18
740.798	0.03
740.976	-0.09
741.154	-0.08
741.332	0.12
741.511	-0.11
741.689	0.02
741.867	-0.04
742.045	0.06
742.223	-0.09
742.401	-0.08
742.579	-0.11
742.757	0.08
742.935	-0.12
743.114	-0.01
743.292	-0.02
743.47	0.03
743.648	0.09
743.826	0.07
744.004	-0.02
744.181	0
744.359	-0.13
744.537	0.11
744.715	0.01
744.893	-0.06
745.071	-0.05
745.249	-0.04
745.427	-0.06
745.605	0.13
745.782	-0.03
745.96	0
746.138	0.05
746.316	0.12
746.493	-0.05
746.671	-0.07
746.849	-0.09
747.027	0.15
747.204	-0.07
747.382	-0.01
747.56	-0.15
747.737	-0.11
747.915	-0.05
748.093	0.02
748.27	-0.09
748.448	-0.01
748.625	-0.17
748.803	-0.06
748.98	-0.06
749.158	0.06
749.335	0.01
749.513	-0.12
749.69	-0.09
749.868	0.02
750.045	0.08
750.223	-0.07
750.4	-0.23
750.578	0.16
750.755	-0.06
750.932	-0.19
751.11	0.04
751.287	-0.15
751.464	0.12
751.642	-0.13
751.819	0.1
751.996	0.08
752.173	-0.05
752.351	-0.15
752.528	-0.05
752.705	-0.01
752.882	-0.03
753.06	-0.01
753.237	0.01
753.414	0.07
753.591	0.16
753.768	0.02
753.945	-0.06
754.122	-0.05
754.299	-0.03
754.476	-0.14
754.654	-0.14
754.831	-0.06
755.008	-0.07
755.185	-0.13
755.362	-0.2
755.539	0
755.716	-0.05
755.892	0.04
756.069	0.01
756.246	-0.06
756.423	-0.06
756.6	0.02
756.777	-0.1
756.954	0.08
757.131	-0.01
757.307	-0.17
757.484	-0.18
757.661	-0.03
757.838	0.03
758.015	-0.19
758.191	0.03
758.368	0.03
758.545	0.19
758.721	0.01
758.898	-0.17
759.075	-0.01
759.251	0.14
759.428	0.02
759.605	-0.14
759.781	-0.09
759.958	-0.01
760.134	0.03
760.311	-0.15
760.488	0.1
760.664	0.15
760.841	-0.14
761.017	-0.17
761.194	0.1
761.37	0.1
761.547	0.02
761.723	-0.07
761.899	0.11
762.076	-0.07
762.252	-0.12
762.429	-0.19
762.605	0.1
762.781	0.06
762.958	0.06
763.134	-0.05
763.31	-0.06
763.486	0.08
763.663	-0.33
763.839	0.03
764.015	-0.2
764.191	-0.17
764.368	-0.03
764.544	-0.03
764.72	-0.01
764.896	0.19
765.072	0.01
765.248	-0.11
765.425	-0.05
765.601	0.02
765.777	-0.14
765.953	-0.18
766.129	-0.09
766.305	-0.14
766.481	-0.02
766.657	0.05
766.833	0.24
767.009	-0.02
767.185	-0.07
767.361	-0.03
767.537	-0.05
767.713	0.13
767.889	-0.16
768.065	-0.04
768.24	-0.12
768.416	0.03
768.592	-0.14
768.768	-0.01
768.944	0.13
769.12	-0.05
769.295	-0.16
769.471	-0.06
769.647	-0.17
769.823	0.2
769.998	-0.25
770.174	-0.18
770.35	0.18
770.525	0.23
770.701	-0.05
770.877	-0.05
771.052	-0.23
771.228	0.04
771.403	-0.05
771.579	0.1
771.755	0.27
771.93	-0.04
772.106	-0.21
772.281	-0.26
772.457	0.01
772.632	0.15
772.808	-0.18
772.983	-0.14
773.159	-0.24
773.334	0.19
773.509	0
773.685	-0.14
773.86	0.37
774.036	0.1
774.211	-0.03
774.386	-0.05
774.562	-0.11
774.737	0.15
774.912	-0.15
775.087	0.01
775.263	-0.03
775.438	0.1
775.613	-0.04
775.788	0.11
775.964	0.16
776.139	0.33
776.314	-0.15
776.489	0.06
776.664	-0.05
776.839	-0.21
777.014	0.01
777.19	0.07
777.365	0.26
777.54	0.32
777.715	-0.17
777.89	-0.19
778.065	-0.06
778.24	-0.02
778.415	0.19
778.59	-0.06
778.765	0.04
778.94	0.16
779.115	-0.01
779.289	-0.05
779.464	-0.08
779.639	-0.04
779.814	-0.36
779.989	-0.21
780.164	0.07
780.339	-0.02
780.513	-0.08
780.688	-0.28
780.863	-0.08
781.038	0.07
781.212	-0.22
781.387	0.03
781.562	0.21
781.737	0.12
781.911	0.08
782.086	-0.22
782.261	-0.19
782.435	0.16
782.61	-0.18
782.784	-0.12
782.959	0.17
783.134	-0.12
783.308	-0.26
783.483	-0.17
783.657	0.39
783.832	0.09
784.006	-0.38
784.181	-0.16
784.355	0.2
784.53	-0.1
784.704	-0.26
784.878	0.25
785.053	-0.02
785.227	0.15
785.402	0.29
785.576	-0.29
785.75	-0.1
785.925	0.04
786.099	0.03
786.273	0.02
786.448	0.06
786.622	0.15
786.796	-0.11
786.97	-0.13
787.145	0.59
787.319	-0.17
787.493	-0.04
787.667	-0.32
787.841	-0.19
788.015	0.29
788.19	-0.1
788.364	-0.01
788.538	0.23
788.712	0.21
788.886	0.11
789.06	0.11
789.234	0.12
789.408	-0.36
789.582	0.07
789.756	-0.07
789.93	-0.29
790.104	0.2
790.278	-0.27
790.452	-0.33
790.626	0.05
790.8	-0.33
790.973	0.04
791.147	0.18
791.321	0.27
791.495	0.32
791.669	0.05
791.843	-0.04
792.016	0.03
792.19	0.44
792.364	-0.21
792.538	0.41
792.711	0.25
792.885	-0.11
793.059	-0.2
793.233	-0.8
793.406	0.26
793.58	0.07
793.754	0.06
793.927	-0.14
794.101	0.24
794.274	0.18
794.448	0.19
794.622	-0.36
794.795	0.19
794.969	-0.39
795.142	0.14
795.316	0.03
795.489	-0.14
795.663	0.41
795.836	-0.01
796.009	-0.37
796.183	0.29
796.356	-0.05
796.53	0.12
796.703	-0.15
796.876	0.67
797.05	-0.17
797.223	-0.17
797.396	0.15
797.57	0.05
797.743	0.29
797.916	0.03
798.09	0.02
798.263	0.47
798.436	0.19
798.609	0.06
798.782	-0.16
798.956	0.13
799.129	-0.24
799.302	0.03
799.475	-0.18
799.648	-0.12
799.821	-0.27
799.994	0
800.167	-0.56
800.34	-0.12
800.514	0.12
800.687	-0.11
800.86	-0.31
801.033	-0.03
801.206	-0.13
801.379	-0.19
801.551	0.07
801.724	-0.1
801.897	0.26
802.07	0.02
802.243	-0.61
802.416	-0.14
802.589	-0.23
802.762	0.2
802.935	0.05
803.107	0.15
803.28	0.24
803.453	0.29
803.626	-0.31
803.798	0.03
803.971	-0.03
804.144	0.03
804.317	0.01
804.489	0.12
804.662	-0.23
804.835	-0.31
805.007	-0.21
805.18	0.22
805.353	0.05
805.525	0.02
805.698	-0.3
805.87	0.01
806.043	0.11
806.215	-0.4
806.388	-0.28
806.56	0.23
806.733	0.39
806.905	0.11
807.078	-0.26
807.25	-0.32
807.423	0.02
807.595	-0.06
807.768	-0.11
807.94	0.34
808.112	0.23
808.285	0.08
808.457	-0.39
808.629	0.11
808.802	0.03
808.974	0.57
809.146	0.05
809.318	-0.25
809.491	-0.02
809.663	0.21
809.835	-0.37
810.007	0.04
810.18	-0.16
810.352	-0.56
810.524	-0.15
810.696	0.17
810.868	0.27
811.04	-0.41
811.212	-0.18
811.384	0.2
811.556	0.27
811.728	-0.11
811.901	0.41
812.073	-0.42
812.245	0.07
812.417	-0.03
812.589	-0.63
812.76	0.08
812.932	0.16
813.104	0.26
813.276	-0.1
813.448	0.2
813.62	-0.43
813.792	-0.12
813.964	0.05
814.136	-0.21
814.307	-0.12
814.479	-0.4
814.651	0.18
814.823	0.54
814.995	0.06
815.166	0.11
815.338	-0.44
815.51	-0.83
815.681	0.6
815.853	0.51
816.025	0.04
816.196	0.57
816.368	-0.19
816.54	-0.53
816.711	-0.4
816.883	0.25
817.054	0.92
817.226	-1.04
817.398	0.1
817.569	-0.59
817.741	-0.33
817.912	0.01
818.084	0
818.255	-0.03
818.426	-0.61
818.598	-0.02
818.769	-0.29
818.941	0.48
819.112	0.23
819.283	0.28
819.455	-0.25
819.626	-0.28
819.798	-0.22
819.969	-0.1
820.14	-0.46
820.311	0.03
820.483	-0.31
820.654	0.15
820.825	-0.29
820.996	-0.26
821.168	-0.21
821.339	-0.22
821.51	-0.2
821.681	-0.1
821.852	-0.34
822.023	-0.75
822.195	-0.43
822.366	0.79
822.537	0.05
822.708	0.45
822.879	-0.46
823.05	0.43
823.221	0.07
823.392	0.33
823.563	0.11
823.734	-0.31
823.905	-0.04
824.076	-0.05
824.247	-0.85
824.418	-0.03
824.589	0.62
824.759	-0.09
824.93	-0.38
825.101	-1.13
825.272	-0.15
825.443	0.56
825.614	0.08
825.784	-1.16
825.955	0.9
826.126	-0.13
826.297	-0.38
826.467	0.79
826.638	0.52
826.809	-0.63
826.98	0.21
827.15	0.06
827.321	-0.07
827.492	0.44
827.662	0.34
827.833	1.08
828.003	0.02
828.174	-0.46
828.345	-0.89
828.515	0.89
828.686	0.3
828.856	-0.11
829.027	0.37
829.197	-0.45
829.368	0.31
829.538	-0.63
829.709	-0.97
829.879	-0.21
830.049	0.26
830.22	-0.16
830.39	-0.11
830.56	0.49
830.731	0.12
830.901	-0.78
831.072	0.2
831.242	-0.18
831.412	-0.08
831.582	-0.23
831.753	-0.78
831.923	0.25
832.093	-0.01
832.263	-0.11
832.434	-0.6
832.604	-0.57
832.774	0.68
832.944	0.05
833.114	-0.67
833.284	0.02
833.454	-0.64
833.624	-0.63
833.795	-0.71
833.965	-0.2
834.135	0.42
834.305	-0.76
834.475	-0.94
834.645	0.13
834.815	0.25
834.985	-0.58
835.155	-0.26
835.325	-0.01
835.494	0.68
835.664	-0.35
835.834	-1.23
836.004	-0.69
836.174	-0.25
836.344	-0.04
836.514	-1.08
836.684	-0.66
836.853	0.22
837.023	-0.58
837.193	-0.3
837.363	0.67
837.532	0.45
837.702	-0.43
837.872	-0.78
838.041	0.06
838.211	1.22
838.381	-0.83
838.55	-0.03
838.72	1.71
838.89	0.95
839.059	-0.13
839.229	-0.97
839.398	1.27
839.568	-0.14
839.738	0.28
839.907	0.62
840.077	0.85
840.246	-0.89
840.416	-0.79
840.585	-0.45
840.755	1.11
840.924	0.59
841.093	-0.92
841.263	-0.37
841.432	0.3
841.602	-1.11
841.771	-0.79
841.94	-0.65
842.11	1.61
842.279	1.21
842.448	-0.69
842.617	-0.62
842.787	1.2
842.956	-1.29
843.125	-0.02
843.294	-0.19
843.464	1.57
843.633	0.22
843.802	-0.7
843.971	-0.24
844.14	1.5
844.309	0.37
844.479	-0.45
844.648	-1.31
844.817	0.08
844.986	0.28
845.155	-0.6
845.324	-0.38
845.493	-0.15
845.662	-0.6
845.831	0.73
846	0.35
846.169	-0.37
846.338	1.15
846.507	0.22
846.676	-0.64
846.844	-0.82
847.013	1.3
847.182	-0.79
847.351	-0.92
847.52	0.72
847.689	0.15
847.858	-1.1
848.026	-0.63
848.195	0.06
848.364	-0.5
848.533	-0.82
848.701	-0.33
848.87	0.51
849.039	1.13
849.207	0.51
849.376	0.87
849.545	0.5
849.713	-0.74
849.882	-0.33
850.051	-0.57
850.219	-0.27
850.388	0.09
850.556	-0.85
850.725	-0.67
850.893	1.19
851.062	0.03
851.23	0.13
851.399	-1.68
851.567	-0.82
851.736	-0.02
851.904	-1.29
852.073	-0.1
852.241	0.52
852.41	-0.44
852.578	-0.24
852.746	0.61
852.915	0.66
853.083	-0.46
853.251	-1.43
853.42	-0.98
853.588	-0.64
853.756	0.98
853.924	0.21
854.093	-0.62
854.261	-0.24
854.429	-2.04
854.597	0.01
854.765	-1.45
854.934	0.42
855.102	0.95
855.27	-0.32
855.438	0.6
855.606	0.6
855.774	2.09
855.942	-2.12
856.11	-1.18
856.278	-0.38
856.446	1.49
856.614	-0.39
856.782	-0.03
856.95	0.79
857.118	1.01
857.286	0.51
857.454	-0.5
857.622	0.31
857.79	0.57
857.958	-0.93
858.126	-1.36
858.294	-2.22
858.462	0.01
858.629	-0.92
858.797	-0.54
858.965	1.28
859.133	0.18
859.301	-0.39
859.468	-0.68
859.636	-1.6
859.804	2.63
859.971	-0.43
860.139	-0.58
860.307	0.77
860.474	-1.11
860.642	-0.43
860.81	-1.02
860.977	-1.14
861.145	1.03
861.313	-0.21
861.48	-0.56
861.648	1.09
861.815	0.75
861.983	-1.15
862.15	-0.21
862.318	0.34
862.485	1.38
862.653	-0.91
862.82	-1.49
862.988	1.09
863.155	1.26
863.322	-2
863.49	-2.95
863.657	-1.29
863.824	2.31
863.992	1.55
864.159	-1.31
864.326	2.15
864.494	-1.05
864.661	2.56
864.828	-1.3
864.996	0.87
865.163	0.92
865.33	-0.45
865.497	-3.09
865.664	-0.63
865.832	-0.98
865.999	-0.01
866.166	-0.81
866.333	-2.25
866.5	-1.63
866.667	-0.24
866.834	-1.32
867.001	0.15
867.168	-1.93
867.335	-1.29
867.502	-1.85
867.669	-0.32
867.836	1.6
868.003	-0.63
868.17	1.28
868.337	-1.58
868.504	2.7
868.671	-2.03
868.838	-2.04
869.005	-0.37
869.172	1.81
869.339	-1.61
869.505	-0.66
869.672	-0.33
869.839	0.3
870.006	-0.17
870.173	-2.52
870.339	0.65
870.506	2.61
870.673	-1.15
870.84	1.2
871.006	0.15
871.173	-1.45
871.34	-1.63
871.506	-1.23
871.673	0.46
871.839	-1.83
872.006	0.59
872.173	-0.29
872.339	0.13
872.506	0.57
872.672	0.39
872.839	-1.43
873.005	-0.11
873.172	2.7
873.338	0.79
873.505	-0.2
873.671	1.5
873.838	1.27
874.004	-2.96
874.171	-1.47
874.337	0.6
874.503	2.77
874.67	-1.99
874.836	-1.17
875.002	2.39
875.169	1.36
875.335	-1.13
875.501	-0.66
875.668	2.2
875.834	-1.8
876	-0.96
876.166	-0.46
876.332	1.03
876.499	1.3
876.665	-1.28
876.831	-2.1
876.997	3.57
877.163	0.17
877.329	-1.08
877.495	-0.77
877.662	1.21
877.828	1.63
877.994	0.63
878.16	-1.86
878.326	-1.29
878.492	0.02
878.658	-0.83
878.824	0.52
878.99	-0.83
879.156	-1.64
879.322	1.7
879.487	-1.17
879.653	0.41
879.819	1.29
879.985	-1.69
880.151	-1.04
880.317	0.99
880.483	1.5
880.648	0.77
880.814	-2.87
880.98	0.57
881.146	-2.49
881.312	-2.04
881.477	-0.3
881.643	-0.11
881.809	1.9
881.974	1.04
882.14	-2.98
882.306	1.85
882.471	3.92
882.637	0.23
882.803	0.7
882.968	1.18
883.134	4.57
883.299	-0.56
883.465	-0.89
883.63	1.79
883.796	-0.18
883.961	1.4
884.127	0.47
884.292	-4.47
884.458	-2.01
884.623	-2.01
