Data from Apollo_Calib_20240827__AbsoluteIrradiance__594__09-03-01-008.txt Node

Date: Wed Aug 28 09:03:01 BST 2024
User: biology
Spectrometer: FLMT08252
Trigger mode: 0
Integration Time (sec): 5.000000E-1
Scans to average: 5
Electric dark correction enabled: true
Nonlinearity correction enabled: false
Boxcar width: 0
XAxis mode: Wavelengths
Number of Pixels in Spectrum: 3648
>>>>>Begin Spectral Data<<<<<
179.588	-0
179.809	-0
180.03	-0
180.251	-0
180.473	-0
180.694	0
180.915	0
181.136	-0
181.357	0
181.578	-0
181.799	0
182.02	-0
182.241	-0
182.462	-0
182.683	0
182.904	-0
183.125	-0
183.346	-0
183.567	0
183.788	0
184.009	0
184.23	0
184.451	0
184.672	0
184.892	-0
185.113	0
185.334	0
185.555	0
185.776	0
185.996	0
186.217	0
186.438	0
186.659	0
186.879	0
187.1	0
187.321	0
187.541	0
187.762	0
187.983	0
188.203	0
188.424	0
188.644	0
188.865	0
189.086	0
189.306	0
189.527	0
189.747	0
189.968	0
190.188	0
190.409	0
190.629	0
190.849	0
191.07	0
191.29	0
191.511	0
191.731	-0
191.951	0
192.172	0
192.392	0
192.612	0
192.833	0
193.053	0
193.273	0
193.493	0
193.714	0
193.934	0
194.154	0
194.374	0
194.594	0
194.815	0
195.035	0
195.255	0
195.475	-0
195.695	0
195.915	0
196.135	0
196.355	0
196.575	0
196.795	0
197.015	0
197.235	0
197.455	0
197.675	0
197.895	-0
198.115	0
198.335	0
198.555	-0
198.775	0
198.995	0
199.214	0
199.434	0
199.654	0
199.874	0
200.094	2.15
200.313	1.08
200.533	0.16
200.753	-0.26
200.973	1.22
201.192	1.12
201.412	-0.29
201.632	0.2
201.851	1.26
202.071	0.2
202.291	0.49
202.51	-0.11
202.73	0.66
202.95	0.17
203.169	0.18
203.389	0.4
203.608	0.54
203.828	-0.33
204.047	0.25
204.267	1.08
204.486	0.31
204.706	0.54
204.925	0.42
205.145	0.33
205.364	1.06
205.583	0.55
205.803	0.36
206.022	0.16
206.242	0.45
206.461	0.52
206.68	0.32
206.9	0.53
207.119	0.97
207.338	0.99
207.557	0.22
207.777	0.31
207.996	0.34
208.215	0.97
208.434	0.19
208.654	0.06
208.873	0.32
209.092	0.95
209.311	0.29
209.53	0.38
209.749	0.18
209.968	0.21
210.187	-0.04
210.407	0.05
210.626	0.13
210.845	0.26
211.064	0.39
211.283	0.11
211.502	0.63
211.721	0.27
211.94	0.37
212.159	0.57
212.377	0.68
212.596	0.62
212.815	0.35
213.034	0.13
213.253	0.41
213.472	0.4
213.691	0.25
213.91	-0.13
214.128	0.31
214.347	0.82
214.566	0.07
214.785	0.04
215.003	0.49
215.222	0.3
215.441	0.31
215.66	-0.12
215.878	0.2
216.097	0.28
216.316	-0.09
216.534	0.22
216.753	0.29
216.972	0.33
217.19	0.12
217.409	0.21
217.627	0.04
217.846	0.21
218.064	0.33
218.283	0.03
218.501	0.7
218.72	0.39
218.938	0.03
219.157	0.15
219.375	0.36
219.594	0.33
219.812	0.03
220.031	0.15
220.249	0.61
220.467	0.46
220.686	0.12
220.904	0.1
221.122	-0.01
221.341	0.6
221.559	0.2
221.777	0.03
221.995	0.27
222.214	0.28
222.432	0.16
222.65	0.36
222.868	0.27
223.086	0.28
223.305	0.26
223.523	0.08
223.741	0.5
223.959	0.04
224.177	-0.17
224.395	0.07
224.613	0.21
224.831	0.38
225.049	0.06
225.267	0.16
225.485	0.16
225.703	0.16
225.921	0.22
226.139	0.21
226.357	0.23
226.575	0.25
226.793	0.21
227.011	0.72
227.229	0.2
227.447	0.45
227.665	0.08
227.883	-0.05
228.1	0.1
228.318	0.28
228.536	-0.09
228.754	0.03
228.972	0.32
229.189	0.27
229.407	0.07
229.625	0.14
229.843	0.33
230.06	0.3
230.278	0.08
230.496	0.26
230.713	0.28
230.931	0.38
231.149	0.09
231.366	-0.1
231.584	0.15
231.801	0.51
232.019	0.1
232.236	-0.01
232.454	0.01
232.671	0.21
232.889	0.1
233.106	0.03
233.324	0.14
233.541	0.13
233.759	0.16
233.976	0.06
234.194	0.12
234.411	0.11
234.628	0.13
234.846	0.06
235.063	0.14
235.28	0.15
235.498	0.17
235.715	0.09
235.932	0.34
236.149	0.07
236.367	-0.01
236.584	0.15
236.801	0.06
237.018	0.24
237.236	0.16
237.453	-0.03
237.67	0.33
237.887	0.16
238.104	0.05
238.321	0.03
238.538	0.12
238.755	0.32
238.973	0.07
239.19	0.21
239.407	0.16
239.624	0.11
239.841	-0.07
240.058	0.01
240.275	0.2
240.492	0.15
240.709	0.06
240.925	0.03
241.142	0.1
241.359	0.04
241.576	0.02
241.793	0.08
242.01	0.09
242.227	0.21
242.444	0.21
242.66	0.09
242.877	0.08
243.094	0.09
243.311	0.09
243.527	0.08
243.744	0.11
243.961	0.1
244.178	0
244.394	0.15
244.611	0.16
244.828	0.32
245.044	0.09
245.261	-0.04
245.477	0.09
245.694	0.12
245.911	0.04
246.127	0.15
246.344	0.28
246.56	0.17
246.777	0.13
246.993	0.12
247.21	0.08
247.426	0.05
247.643	0.07
247.859	-0.01
248.076	0.04
248.292	0.19
248.508	0.1
248.725	0.12
248.941	0.17
249.157	0.23
249.374	0.1
249.59	0.06
249.806	0.11
250.023	0.18
250.239	0.07
250.455	0.1
250.671	0.11
250.888	0.1
251.104	0.17
251.32	0.05
251.536	0.05
251.752	0.04
251.969	0.09
252.185	0.12
252.401	0.23
252.617	0.12
252.833	0.1
253.049	0.16
253.265	0.15
253.481	0.06
253.697	0.07
253.913	-0.03
254.129	0.15
254.345	0.13
254.561	0.03
254.777	0.11
254.993	0.2
255.209	0.14
255.425	0.08
255.641	0.09
255.857	0.22
256.073	0.07
256.288	-0.01
256.504	0.08
256.72	0.12
256.936	0.18
257.152	0.06
257.367	0
257.583	0.12
257.799	0.2
258.015	-0.02
258.23	0.07
258.446	0.21
258.662	0.11
258.877	0.07
259.093	0.07
259.309	0.08
259.524	0.09
259.74	0.06
259.955	0.02
260.171	0.1
260.387	0.06
260.602	0.19
260.818	0.09
261.033	0.01
261.249	0.12
261.464	0.02
261.68	-0.02
261.895	0.09
262.11	0.12
262.326	0.1
262.541	-0
262.757	0.2
262.972	0.14
263.187	0.11
263.403	0.13
263.618	0.13
263.833	0.07
264.049	-0
264.264	0.04
264.479	0.16
264.694	0.21
264.91	0
265.125	0.09
265.34	0.16
265.555	0.27
265.77	0.06
265.986	0.08
266.201	0.09
266.416	0.27
266.631	0.07
266.846	0.09
267.061	0.13
267.276	0.1
267.491	-0.03
267.706	0.19
267.921	0.13
268.136	0.12
268.351	0.05
268.566	-0
268.781	0.15
268.996	0.14
269.211	0.1
269.426	0.02
269.641	0.04
269.856	0.19
270.071	0.02
270.285	-0.03
270.5	0.11
270.715	0.2
270.93	0.09
271.145	0.11
271.359	0.19
271.574	-0.02
271.789	0.08
272.004	0.02
272.218	0
272.433	0.12
272.648	0.08
272.862	0.11
273.077	0.04
273.292	0.06
273.506	-0
273.721	0.01
273.936	0.11
274.15	0.2
274.365	0.09
274.579	0.18
274.794	0.13
275.008	0.14
275.223	-0
275.437	0.09
275.652	0.15
275.866	0.18
276.081	0.09
276.295	0.16
276.509	0.13
276.724	0.07
276.938	0.04
277.153	0.1
277.367	0.16
277.581	0.04
277.796	0.1
278.01	0.1
278.224	0.13
278.438	0.24
278.653	-0.04
278.867	0.04
279.081	-0.08
279.295	0.07
279.51	0.07
279.724	-0.01
279.938	0.1
280.152	0.1
280.366	0.04
280.58	0.02
280.794	0.13
281.008	0.08
281.222	0.1
281.437	0.17
281.651	0.12
281.865	0.13
282.079	0.06
282.293	-0.04
282.507	0.04
282.721	0.1
282.935	0.08
283.148	0
283.362	0.05
283.576	0.02
283.79	0.06
284.004	0.02
284.218	0.11
284.432	0.03
284.646	0.04
284.859	0.03
285.073	0.01
285.287	0.07
285.501	0.05
285.714	0.04
285.928	0.08
286.142	0.1
286.356	0.04
286.569	0.04
286.783	0.11
286.997	0.14
287.21	0.13
287.424	0.13
287.637	0.02
287.851	0.01
288.065	0.07
288.278	0.08
288.492	0.08
288.705	0.06
288.919	0.09
289.132	0.02
289.346	0.15
289.559	0.01
289.773	-0.03
289.986	0.04
290.2	0.02
290.413	0.16
290.626	0.05
290.84	0.01
291.053	-0
291.267	0.12
291.48	0.02
291.693	0.1
291.906	-0.01
292.12	0.07
292.333	0.02
292.546	0.03
292.76	0.15
292.973	0.07
293.186	0.1
293.399	0.04
293.612	0.12
293.826	0.04
294.039	0.06
294.252	0.06
294.465	0.07
294.678	0.11
294.891	0.06
295.104	0.03
295.317	0.07
295.53	0.09
295.743	0.07
295.956	0.1
296.169	0.16
296.382	0.07
296.595	0.06
296.808	0.01
297.021	0.1
297.234	0.1
297.447	0.07
297.66	0.09
297.873	0.16
298.086	0.12
298.299	0.02
298.511	-0.01
298.724	0.05
298.937	0.03
299.15	0
299.363	0.05
299.575	0.05
299.788	0.08
300.001	0.04
300.213	0.04
300.426	0.09
300.639	0.03
300.852	0.06
301.064	0.11
301.277	0.1
301.489	0.08
301.702	0.12
301.915	0.07
302.127	0.06
302.34	0.05
302.552	0.1
302.765	0.02
302.977	0.1
303.19	0.05
303.402	0.08
303.615	0.06
303.827	0.05
304.04	0.02
304.252	0.05
304.464	0.06
304.677	0.16
304.889	0.11
305.102	0.06
305.314	0.05
305.526	0.11
305.739	0.07
305.951	0.02
306.163	0.04
306.375	0.12
306.588	0.03
306.8	0.03
307.012	-0.02
307.224	0.1
307.436	0.13
307.649	0.02
307.861	0.05
308.073	0.1
308.285	0.05
308.497	0.03
308.709	0.02
308.921	0.1
309.133	0.12
309.346	0.06
309.558	0.05
309.77	0.11
309.982	0.12
310.194	0.08
310.406	0.04
310.617	0.14
310.829	0.08
311.041	0.04
311.253	0.02
311.465	0.03
311.677	0.01
311.889	0.07
312.101	0.02
312.313	0.09
312.524	0.07
312.736	-0.01
312.948	0.05
313.16	0.14
313.372	0.08
313.583	0.05
313.795	0.05
314.007	0.06
314.218	0.1
314.43	0.07
314.642	0.06
314.853	0
315.065	0.12
315.277	0.05
315.488	0.08
315.7	0.1
315.912	0.1
316.123	0.01
316.335	0.04
316.546	0.15
316.758	0.05
316.969	0.05
317.181	0.03
317.392	0.07
317.604	0.11
317.815	0.08
318.026	0.02
318.238	0.03
318.449	0.15
318.661	0.03
318.872	-0
319.083	0.03
319.295	0.08
319.506	0.03
319.717	0.05
319.929	0.03
320.14	0.05
320.351	0.04
320.562	0.04
320.774	0.05
320.985	0.09
321.196	-0.02
321.407	0.01
321.618	0.15
321.829	0.07
322.041	0.11
322.252	0.08
322.463	0.08
322.674	0.06
322.885	0.02
323.096	0.03
323.307	0.02
323.518	0.08
323.729	0.02
323.94	0.07
324.151	0.01
324.362	0.07
324.573	0.04
324.784	0.05
324.995	0.12
325.206	0.1
325.417	0.03
325.628	0.06
325.838	0.02
326.049	0.08
326.26	0.05
326.471	-0.01
326.682	0.11
326.892	0.04
327.103	0.02
327.314	0.02
327.525	0.12
327.735	0.04
327.946	0.06
328.157	0.03
328.368	0.09
328.578	0.04
328.789	0.1
328.999	0.07
329.21	0.04
329.421	0.1
329.631	0
329.842	0.04
330.052	0.08
330.263	0.07
330.473	0.09
330.684	0.02
330.894	0.07
331.105	0.08
331.315	0.06
331.526	-0.01
331.736	0.14
331.947	0.1
332.157	0.07
332.367	0.02
332.578	0.09
332.788	0.09
332.999	0.05
333.209	0.1
333.419	-0.01
333.629	0.07
333.84	0.09
334.05	0.03
334.26	0.12
334.47	0.04
334.681	0.11
334.891	0.06
335.101	0.08
335.311	0.15
335.521	0.07
335.732	0.03
335.942	0.13
336.152	0.11
336.362	0.09
336.572	0.06
336.782	0.11
336.992	0.01
337.202	0.04
337.412	0.03
337.622	0.03
337.832	0.05
338.042	0.08
338.252	0.03
338.462	0.02
338.672	0.06
338.882	0
339.092	0.06
339.302	0.12
339.511	0.04
339.721	0.02
339.931	0.03
340.141	0.08
340.351	0.08
340.561	0.06
340.77	0.08
340.98	0.05
341.19	0.07
341.4	0
341.609	-0
341.819	-0.01
342.029	-0.01
342.238	0.09
342.448	0.03
342.658	0.12
342.867	0.09
343.077	0.07
343.286	0.06
343.496	0.06
343.706	0.12
343.915	-0.01
344.125	0.06
344.334	0.11
344.544	0.01
344.753	0.02
344.963	0.03
345.172	-0.01
345.381	0.06
345.591	0.05
345.8	0.1
346.01	0.09
346.219	0.07
346.428	-0.09
346.638	0.07
346.847	0.06
347.056	0.08
347.266	0.04
347.475	-0
347.684	0.04
347.893	0.06
348.103	0.07
348.312	0.01
348.521	0.01
348.73	0.06
348.94	0.05
349.149	0.07
349.358	0.06
349.567	0.01
349.776	0.04
349.985	0.02
350.194	0.08
350.403	0.1
350.612	0.02
350.821	0.05
351.03	0.04
351.239	0.01
351.448	0.05
351.657	0.02
351.866	0.12
352.075	0.05
352.284	0.14
352.493	0.02
352.702	0.09
352.911	0.11
353.12	0.05
353.329	0.03
353.538	0.06
353.746	0.03
353.955	0.01
354.164	0.08
354.373	0.05
354.582	0.11
354.79	0.09
354.999	0.1
355.208	0.05
355.416	0.08
355.625	0.01
355.834	0
356.042	0.07
356.251	0.01
356.46	-0.01
356.668	0.13
356.877	0.15
357.085	0.09
357.294	-0.03
357.503	0.07
357.711	0.1
357.92	0.18
358.128	0.04
358.337	0.03
358.545	0.06
358.754	0.07
358.962	0.07
359.17	0.06
359.379	0.05
359.587	0.07
359.796	0.02
360.004	0.09
360.212	0.09
360.421	0.08
360.629	0.07
360.837	0.03
361.046	0.07
361.254	0.15
361.462	0.04
361.67	0.04
361.879	0.05
362.087	0.12
362.295	0.07
362.503	0.03
362.711	0.01
362.92	0.02
363.128	0.01
363.336	-0.02
363.544	-0.01
363.752	0.01
363.96	0.04
364.168	0.03
364.376	0.07
364.584	0.07
364.792	0.11
365	0.08
365.208	0.05
365.416	0.06
365.624	0.07
365.832	0.02
366.04	0.09
366.248	0.08
366.456	0.09
366.664	0.03
366.872	0.06
367.079	0.04
367.287	0.07
367.495	0.02
367.703	0.05
367.911	0.04
368.118	0.03
368.326	0.02
368.534	0.04
368.742	0.09
368.949	0.02
369.157	0.02
369.365	0.07
369.572	0
369.78	0.03
369.988	0.11
370.195	0.08
370.403	0.07
370.61	-0
370.818	0.05
371.026	0.12
371.233	0.05
371.441	0.13
371.648	0.01
371.856	0.05
372.063	0.04
372.271	0.05
372.478	0.05
372.685	0.03
372.893	0.09
373.1	0.06
373.308	-0.04
373.515	0.12
373.722	0.08
373.93	0.05
374.137	0.06
374.344	0.14
374.552	0.07
374.759	0.08
374.966	0.08
375.173	0.02
375.381	0.08
375.588	-0
375.795	-0.03
376.002	0.03
376.209	0.03
376.417	0.03
376.624	0.05
376.831	0.07
377.038	0.01
377.245	-0
377.452	0.07
377.659	0.03
377.866	0.03
378.073	0
378.28	0.07
378.487	0.1
378.694	0.05
378.901	0.06
379.108	0.06
379.315	0.1
379.522	0.13
379.729	0.06
379.936	0.04
380.143	0.02
380.35	0.05
380.557	0.01
380.763	0.06
380.97	0.03
381.177	0.04
381.384	0.07
381.591	0.01
381.797	0.04
382.004	0.03
382.211	0.07
382.418	-0
382.624	0.09
382.831	0.07
383.038	0.03
383.244	0.09
383.451	0.06
383.658	0.09
383.864	0.06
384.071	0.03
384.277	0.13
384.484	0.02
384.69	0.11
384.897	0.01
385.103	0.01
385.31	0.05
385.516	0.05
385.723	-0.01
385.929	0.07
386.136	0.02
386.342	0.1
386.549	0.07
386.755	0.09
386.961	0.09
387.168	0.05
387.374	0.08
387.58	0.1
387.787	0.04
387.993	0.08
388.199	0.03
388.406	0.02
388.612	0.04
388.818	-0.01
389.024	0.03
389.231	0.05
389.437	0.09
389.643	0.11
389.849	0.04
390.055	0.04
390.261	0.06
390.467	0.03
390.674	0.03
390.88	0.04
391.086	0.08
391.292	-0
391.498	0.09
391.704	0.03
391.91	0.06
392.116	0.04
392.322	-0.01
392.528	0.05
392.734	0.02
392.94	0.03
393.146	0.03
393.352	0.06
393.557	0.07
393.763	0.03
393.969	0.05
394.175	0.05
394.381	0.09
394.587	-0.01
394.792	0.05
394.998	0.09
395.204	0.12
395.41	0.03
395.615	0.07
395.821	0.07
396.027	0.02
396.233	0.03
396.438	0.07
396.644	0.15
396.85	0.07
397.055	0.04
397.261	0.03
397.466	0.03
397.672	0.06
397.878	0.08
398.083	0.05
398.289	-0.01
398.494	0.06
398.7	0.09
398.905	-0.01
399.111	0.1
399.316	-0.01
399.522	0.06
399.727	0.06
399.932	0.04
400.138	0.04
400.343	0.1
400.549	0.01
400.754	0.06
400.959	0.1
401.165	-0.01
401.37	0.04
401.575	0.12
401.78	0.08
401.986	0.01
402.191	0.06
402.396	0.06
402.601	0.04
402.807	0.05
403.012	0.05
403.217	0.08
403.422	0.02
403.627	0.04
403.832	0.02
404.037	0.06
404.243	0.02
404.448	-0.01
404.653	0.03
404.858	0.04
405.063	0.08
405.268	0.04
405.473	0.01
405.678	0.03
405.883	0.19
406.088	0.06
406.293	-0.02
406.498	0.03
406.703	0.1
406.907	0.05
407.112	-0.01
407.317	0.05
407.522	0.08
407.727	-0.02
407.932	0.03
408.136	0.13
408.341	0.03
408.546	0.04
408.751	0.03
408.956	0.03
409.16	0.09
409.365	0.07
409.57	0.02
409.774	0.04
409.979	0.1
410.184	0.04
410.388	-0.01
410.593	0.12
410.798	0.07
411.002	0.06
411.207	0
411.411	0.03
411.616	-0.01
411.82	0.02
412.025	0.09
412.229	0.01
412.434	0.12
412.638	0.05
412.843	0.03
413.047	0.08
413.252	0.04
413.456	0.04
413.66	0.06
413.865	0
414.069	0.14
414.273	0.03
414.478	0.02
414.682	0.04
414.886	0.05
415.091	-0
415.295	-0.02
415.499	0.09
415.703	0.04
415.908	0.13
416.112	-0.01
416.316	0.08
416.52	0
416.724	-0.05
416.929	0.03
417.133	0.14
417.337	0.05
417.541	0.01
417.745	0.05
417.949	0.01
418.153	0.05
418.357	0.02
418.561	0.14
418.765	0.07
418.969	0.18
419.173	0.1
419.377	-0.01
419.581	0.16
419.785	0.03
419.989	-0.03
420.193	0.03
420.397	0.08
420.601	0.09
420.804	0.13
421.008	0.02
421.212	0.09
421.416	0.04
421.62	0.07
421.823	0.06
422.027	0.1
422.231	0.05
422.435	0.07
422.638	0.02
422.842	0.01
423.046	0.05
423.249	0.07
423.453	0.06
423.657	0.06
423.86	0.03
424.064	-0.02
424.268	0.14
424.471	0.06
424.675	0.09
424.878	0.14
425.082	0.06
425.285	0.11
425.489	0.08
425.692	0.11
425.896	0.03
426.099	0.07
426.303	0
426.506	-0.05
426.71	0.1
426.913	0.1
427.116	0.08
427.32	0.05
427.523	0.05
427.726	0.15
427.93	-0.01
428.133	0.01
428.336	0.01
428.54	-0
428.743	0.07
428.946	0.14
429.149	0.03
429.353	0.11
429.556	0.08
429.759	0.05
429.962	0.03
430.165	0.05
430.368	0.05
430.571	0.02
430.775	0.07
430.978	0.05
431.181	0.09
431.384	0.05
431.587	0.07
431.79	0.07
431.993	0.07
432.196	0.05
432.399	0.01
432.602	0.11
432.805	0.07
433.008	0.07
433.211	-0.02
433.414	0.03
433.616	0.07
433.819	0.02
434.022	-0.05
434.225	0.1
434.428	0.07
434.631	0.18
434.833	0.06
435.036	0
435.239	0.1
435.442	0.09
435.645	0.06
435.847	0.05
436.05	0.08
436.253	0.05
436.455	-0
436.658	0.08
436.861	0.13
437.063	0.02
437.266	0.04
437.468	0.07
437.671	0.17
437.874	0.06
438.076	0
438.279	0.01
438.481	0.08
438.684	0.01
438.886	0.04
439.089	-0.02
439.291	0.05
439.494	0.05
439.696	0
439.899	0.07
440.101	0.09
440.303	-0.01
440.506	0.05
440.708	0.06
440.91	0.08
441.113	0.02
441.315	0.05
441.517	-0
441.72	0.08
441.922	-0.02
442.124	0.01
442.326	0.11
442.529	0.11
442.731	-0.02
442.933	0.12
443.135	0.09
443.337	0.02
443.539	0.03
443.742	0.05
443.944	0.05
444.146	0
444.348	0.02
444.55	0.04
444.752	0.03
444.954	-0.01
445.156	0.05
445.358	0.04
445.56	0.09
445.762	0.01
445.964	0.04
446.166	-0
446.368	0.02
446.57	0.1
446.772	0.04
446.974	0.07
447.175	0.08
447.377	-0
447.579	-0.01
447.781	-0.01
447.983	0.13
448.184	0.07
448.386	0.06
448.588	-0
448.79	0.08
448.991	0
449.193	0.05
449.395	0.07
449.597	0.05
449.798	0.04
450	0.08
450.202	0.05
450.403	0.05
450.605	0.08
450.806	0.06
451.008	-0.03
451.21	0.07
451.411	0.06
451.613	0.05
451.814	0.09
452.016	0.11
452.217	0.1
452.419	0.16
452.62	0.01
452.821	0.07
453.023	0.1
453.224	0.07
453.426	0.04
453.627	0.04
453.828	0.07
454.03	0.05
454.231	0.07
454.432	0.04
454.634	0.14
454.835	0.03
455.036	-0.01
455.238	0.11
455.439	0.1
455.64	0.01
455.841	0.02
456.042	0.15
456.244	0.1
456.445	0.07
456.646	0.02
456.847	-0.01
457.048	0.16
457.249	0.08
457.45	0.19
457.651	-0
457.852	0.12
458.054	0.02
458.255	0.05
458.456	0.08
458.657	0.06
458.858	-0.01
459.058	0.03
459.259	0.08
459.46	0.08
459.661	0.01
459.862	0.14
460.063	0.03
460.264	0.1
460.465	-0.01
460.666	0.1
460.866	0.04
461.067	0.04
461.268	-0.01
461.469	0.05
461.67	0.08
461.87	0.03
462.071	0.05
462.272	-0.01
462.473	0.05
462.673	0.13
462.874	0.02
463.075	0.08
463.275	-0.02
463.476	0.04
463.676	0.08
463.877	0.04
464.078	0.03
464.278	0.09
464.479	0.02
464.679	0
464.88	0.03
465.08	0.13
465.281	0.01
465.481	0.06
465.682	0.01
465.882	0.09
466.083	0.09
466.283	0.05
466.483	0.05
466.684	0.01
466.884	0.03
467.085	0.02
467.285	0.1
467.485	0.02
467.686	0.03
467.886	0.01
468.086	0.01
468.286	0.08
468.487	0.04
468.687	0.01
468.887	0.05
469.087	0.1
469.287	0.04
469.488	-0.02
469.688	0.07
469.888	0.07
470.088	0.09
470.288	0.1
470.488	0.09
470.688	0
470.888	0.02
471.088	0.01
471.288	0.12
471.488	0.06
471.688	0.07
471.888	-0.02
472.088	0.1
472.288	0.1
472.488	0.02
472.688	0.05
472.888	0.05
473.088	0.04
473.288	0.06
473.488	0.03
473.688	0.1
473.887	0.07
474.087	0
474.287	0.07
474.487	-0
474.687	0.1
474.886	-0.01
475.086	0.02
475.286	0.09
475.486	0.06
475.685	0.03
475.885	0.02
476.085	0.04
476.284	0.08
476.484	0.04
476.684	0.07
476.883	0.08
477.083	0.05
477.282	0
477.482	0.09
477.681	0.08
477.881	0.04
478.08	0.05
478.28	0.05
478.479	0.05
478.679	0.13
478.878	0.03
479.078	0.02
479.277	0.06
479.477	0.06
479.676	0.09
479.875	0.06
480.075	-0.02
480.274	0.04
480.473	0.04
480.673	-0
480.872	0.04
481.071	0.04
481.271	0.03
481.47	0.01
481.669	0
481.868	0
482.067	-0.01
482.267	0.04
482.466	0.01
482.665	0.02
482.864	0.01
483.063	-0
483.262	0.06
483.461	0.05
483.661	0.05
483.86	0.03
484.059	0.05
484.258	0.03
484.457	0.01
484.656	0.06
484.855	0.06
485.054	-0.01
485.253	-0.02
485.452	-0.01
485.651	0
485.849	0.06
486.048	0.01
486.247	0
486.446	0.04
486.645	-0.01
486.844	0.03
487.043	0.03
487.241	0.05
487.44	-0.02
487.639	0.01
487.838	0.05
488.037	0.02
488.235	0.06
488.434	0.03
488.633	0.01
488.831	0.06
489.03	0.04
489.229	0.05
489.427	0.01
489.626	0.07
489.825	0.07
490.023	0.03
490.222	0.01
490.42	0.06
490.619	0.08
490.817	0.05
491.016	-0
491.214	0.06
491.413	0.04
491.611	0.01
491.81	0.02
492.008	0.06
492.207	0.05
492.405	0.05
492.604	-0.02
492.802	0.03
493	0.04
493.199	-0
493.397	0.02
493.595	0.03
493.794	0
493.992	0.06
494.19	0.02
494.388	0.05
494.587	0.01
494.785	0.02
494.983	-0.02
495.181	0.04
495.379	0.03
495.578	0.03
495.776	0.05
495.974	0.03
496.172	0.03
496.37	0.01
496.568	0.02
496.766	0.01
496.964	0.04
497.162	0.03
497.36	0.02
497.558	0.04
497.756	0.04
497.954	0.02
498.152	0.01
498.35	0.01
498.548	0
498.746	0.01
498.944	0.01
499.142	0.03
499.34	0.01
499.538	0.03
499.736	-0
499.933	0.06
500.131	0.04
500.329	0.02
500.527	0.05
500.725	0.05
500.922	0.03
501.12	0.02
501.318	0.03
501.516	-0.01
501.713	0.03
501.911	0
502.109	-0.02
502.306	0.04
502.504	0.03
502.701	0.01
502.899	0.02
503.097	0.06
503.294	0.04
503.492	0.01
503.689	0.04
503.887	0.05
504.084	0.07
504.282	0.02
504.479	-0.02
504.677	0.02
504.874	-0.02
505.072	0.03
505.269	0.03
505.466	0.05
505.664	0.04
505.861	-0.02
506.059	-0.02
506.256	0.03
506.453	0.01
506.651	0.07
506.848	0.04
507.045	0.04
507.242	0.02
507.44	0.01
507.637	0.03
507.834	0.03
508.031	0.04
508.229	0
508.426	0.02
508.623	0.07
508.82	-0
509.017	-0.01
509.214	0.02
509.411	0.02
509.608	-0
509.805	0.02
510.003	0.02
510.2	0.02
510.397	0.06
510.594	-0
510.791	0.01
510.988	0.02
511.184	0.05
511.381	0.01
511.578	-0
511.775	0.06
511.972	0
512.169	0.03
512.366	0.01
512.563	0.03
512.76	0.02
512.956	0.04
513.153	0.02
513.35	0.03
513.547	0.02
513.744	0.02
513.94	0
514.137	0.04
514.334	0.03
514.53	0.01
514.727	0.03
514.924	0.08
515.12	0
515.317	0
515.514	0.02
515.71	0
515.907	0.03
516.103	0.02
516.3	0.03
516.497	0.04
516.693	0.08
516.89	0.04
517.086	-0
517.283	0.02
517.479	0.04
517.676	0.04
517.872	0.01
518.068	-0.01
518.265	0.03
518.461	0
518.658	-0.01
518.854	0.04
519.05	0
519.247	0.01
519.443	0.03
519.639	0.02
519.836	0.02
520.032	0.03
520.228	0.05
520.424	0.05
520.621	0.03
520.817	0.03
521.013	0.03
521.209	0.02
521.405	0.06
521.601	0.02
521.798	0.03
521.994	0.08
522.19	-0.01
522.386	-0.01
522.582	0
522.778	0.04
522.974	0.02
523.17	0.01
523.366	0.02
523.562	0.05
523.758	0.03
523.954	0.01
524.15	0.02
524.346	0.06
524.542	0.02
524.738	0.01
524.934	0.02
525.129	-0.05
525.325	0.04
525.521	0.02
525.717	0.04
525.913	0.04
526.109	0.02
526.304	0.01
526.5	0.03
526.696	0.06
526.892	0.02
527.087	0.04
527.283	0
527.479	0.03
527.674	0.01
527.87	0.03
528.066	0.02
528.261	0.03
528.457	0.03
528.653	0.01
528.848	-0.01
529.044	0.04
529.239	0.02
529.435	0.04
529.63	0.03
529.826	0.09
530.021	0.03
530.217	0.03
530.412	0.03
530.608	0.01
530.803	0.03
530.999	0.01
531.194	-0.02
531.389	0.02
531.585	-0.04
531.78	0.02
531.975	0.03
532.171	0.06
532.366	0.02
532.561	0.03
532.757	-0.01
532.952	0.02
533.147	0.05
533.342	0.01
533.538	0
533.733	0.05
533.928	0.03
534.123	0.02
534.318	0.01
534.513	0.03
534.709	0.02
534.904	0.02
535.099	0.02
535.294	0.03
535.489	0.04
535.684	0.03
535.879	0.01
536.074	0.02
536.269	-0.01
536.464	0.02
536.659	0.02
536.854	0.01
537.049	0.04
537.244	0.04
537.439	0.02
537.634	0.04
537.828	0.02
538.023	0.04
538.218	-0.01
538.413	0.02
538.608	0
538.803	0.03
538.997	-0.01
539.192	0.06
539.387	0.06
539.582	0.02
539.776	0.02
539.971	0.05
540.166	0.03
540.36	0.01
540.555	0.04
540.75	0.04
540.944	0.02
541.139	-0.01
541.334	0.02
541.528	0.02
541.723	0.05
541.917	0.03
542.112	-0.03
542.306	0.02
542.501	0.02
542.695	0.03
542.89	0.01
543.084	0.02
543.279	0.01
543.473	0.02
543.668	0.03
543.862	0.03
544.056	0.05
544.251	0.02
544.445	0.05
544.64	0.03
544.834	0.01
545.028	0.03
545.222	0.05
545.417	0.06
545.611	0.05
545.805	0.05
546	0.02
546.194	0.04
546.388	0.01
546.582	0.04
546.776	0.04
546.97	0.05
547.165	0.02
547.359	0.06
547.553	0.01
547.747	0.04
547.941	0.02
548.135	0.03
548.329	0.07
548.523	0.04
548.717	0.02
548.911	0.01
549.105	0.01
549.299	0.03
549.493	0.04
549.687	0.05
549.881	0.04
550.075	0.02
550.269	0.01
550.463	0.05
550.657	0.01
550.85	0.04
551.044	0.01
551.238	0.02
551.432	0.03
551.626	-0
551.82	0.03
552.013	0.03
552.207	0.05
552.401	0.07
552.594	0.03
552.788	0.03
552.982	0.05
553.176	0.01
553.369	0.05
553.563	0.03
553.756	-0
553.95	0
554.144	0.02
554.337	0.06
554.531	0.04
554.724	0.04
554.918	0.03
555.111	0.04
555.305	0.04
555.498	0.07
555.692	0.05
555.885	0.03
556.079	0.05
556.272	0.03
556.466	0.05
556.659	0.02
556.852	0.03
557.046	0.03
557.239	0.06
557.432	-0.01
557.626	0.02
557.819	0.04
558.012	0.04
558.206	0.05
558.399	0.02
558.592	0.03
558.785	0.04
558.979	0.06
559.172	0.04
559.365	0.01
559.558	0.03
559.751	0.05
559.944	0.04
560.138	0.02
560.331	0.03
560.524	0.03
560.717	0.04
560.91	0.04
561.103	0.04
561.296	0.05
561.489	0.05
561.682	0.02
561.875	0.07
562.068	0.05
562.261	0.04
562.454	0.08
562.647	0.05
562.84	0.06
563.032	0.05
563.225	0.04
563.418	0.02
563.611	0.02
563.804	0.01
563.997	0.01
564.19	-0.02
564.382	-0.02
564.575	0.02
564.768	0.04
564.961	0.02
565.153	0.03
565.346	0.05
565.539	0.04
565.731	0.05
565.924	0.05
566.117	0.07
566.309	0.05
566.502	0.03
566.695	0.04
566.887	0.06
567.08	0.03
567.272	0.04
567.465	0.02
567.657	0.05
567.85	0.04
568.042	0.04
568.235	0.07
568.427	0.04
568.62	0.05
568.812	0.07
569.005	0.04
569.197	0.02
569.389	0.04
569.582	0.04
569.774	0.06
569.966	0.02
570.159	0.01
570.351	0.07
570.543	0.03
570.736	0.04
570.928	0.01
571.12	0.05
571.312	0.03
571.505	0.01
571.697	0.08
571.889	0.02
572.081	0.02
572.273	0.01
572.465	0.11
572.658	0.04
572.85	0.06
573.042	0.02
573.234	0.04
573.426	0.09
573.618	0.01
573.81	0.05
574.002	0.07
574.194	0.06
574.386	0.01
574.578	-0.02
574.77	0.02
574.962	0.05
575.154	-0
575.346	0.03
575.538	0.06
575.729	0.02
575.921	0.02
576.113	0.03
576.305	0.08
576.497	0.03
576.689	0.03
576.88	0.03
577.072	0.08
577.264	0.04
577.456	0.03
577.647	-0.01
577.839	0.06
578.031	0.08
578.223	0.02
578.414	-0.01
578.606	0.09
578.798	0.04
578.989	0.02
579.181	0.06
579.372	0.05
579.564	0.03
579.755	0.05
579.947	0.05
580.139	0.07
580.33	0.01
580.522	0.03
580.713	0.01
580.905	0.03
581.096	0.06
581.287	0.04
581.479	0.06
581.67	0.05
581.862	0.05
582.053	0.03
582.244	0.02
582.436	0.04
582.627	0.06
582.818	0.03
583.01	0.02
583.201	0.09
583.392	0.07
583.583	0.08
583.775	0.04
583.966	0.03
584.157	0.07
584.348	0.05
584.54	0.02
584.731	0.08
584.922	0.04
585.113	0.04
585.304	0.06
585.495	0.07
585.686	0.07
585.877	0.09
586.068	0.07
586.259	0.07
586.45	0.07
586.641	0.05
586.832	0.02
587.023	0.07
587.214	0.04
587.405	0.05
587.596	0.04
587.787	0.1
587.978	0.08
588.169	0.04
588.36	0.05
588.551	0.1
588.742	0.04
588.932	0.06
589.123	0.06
589.314	0.09
589.505	0.09
589.696	0.1
589.886	0.05
590.077	0.02
590.268	0.08
590.458	0.05
590.649	0.04
590.84	0.12
591.03	0.04
591.221	0.04
591.412	0.03
591.602	0.09
591.793	0.12
591.984	0.05
592.174	0.09
592.365	0.14
592.555	0.05
592.746	0.11
592.936	0.08
593.127	0.11
593.317	0.1
593.508	0.06
593.698	0.1
593.889	0.08
594.079	0.07
594.269	0.07
594.46	0.09
594.65	0.09
594.84	0.1
595.031	0.06
595.221	0.09
595.411	0.05
595.602	0.13
595.792	0.1
595.982	0.09
596.172	0.16
596.363	0.11
596.553	0.09
596.743	0.08
596.933	0.12
597.123	0.16
597.314	0.09
597.504	0.11
597.694	0.15
597.884	0.11
598.074	0.09
598.264	0.1
598.454	0.12
598.644	0.14
598.834	0.09
599.024	0.12
599.214	0.1
599.404	0.14
599.594	0.12
599.784	0.11
599.974	0.18
600.164	0.15
600.354	0.12
600.544	0.1
600.734	0.14
600.924	0.19
601.114	0.14
601.303	0.14
601.493	0.15
601.683	0.16
601.873	0.15
602.063	0.14
602.252	0.2
602.442	0.12
602.632	0.15
602.821	0.14
603.011	0.19
603.201	0.15
603.39	0.13
603.58	0.16
603.77	0.15
603.959	0.2
604.149	0.19
604.339	0.18
604.528	0.25
604.718	0.22
604.907	0.17
605.097	0.18
605.286	0.17
605.476	0.24
605.665	0.22
605.855	0.21
606.044	0.25
606.234	0.22
606.423	0.21
606.612	0.21
606.802	0.23
606.991	0.24
607.181	0.27
607.37	0.21
607.559	0.24
607.749	0.21
607.938	0.24
608.127	0.25
608.316	0.24
608.506	0.3
608.695	0.25
608.884	0.23
609.073	0.26
609.263	0.32
609.452	0.32
609.641	0.28
609.83	0.28
610.019	0.29
610.208	0.26
610.397	0.32
610.586	0.34
610.775	0.33
610.965	0.3
611.154	0.3
611.343	0.33
611.532	0.35
611.721	0.32
611.91	0.35
612.099	0.35
612.287	0.36
612.476	0.35
612.665	0.4
612.854	0.38
613.043	0.46
613.232	0.42
613.421	0.36
613.61	0.45
613.798	0.44
613.987	0.46
614.176	0.47
614.365	0.49
614.554	0.48
614.742	0.51
614.931	0.46
615.12	0.49
615.309	0.5
615.497	0.52
615.686	0.47
615.875	0.54
616.063	0.56
616.252	0.54
616.44	0.55
616.629	0.57
616.818	0.6
617.006	0.59
617.195	0.59
617.383	0.61
617.572	0.6
617.76	0.63
617.949	0.65
618.137	0.69
618.326	0.69
618.514	0.64
618.703	0.66
618.891	0.77
619.079	0.68
619.268	0.78
619.456	0.71
619.644	0.86
619.833	0.77
620.021	0.79
620.209	0.76
620.398	0.84
620.586	0.84
620.774	0.94
620.962	0.85
621.151	0.97
621.339	0.92
621.527	0.87
621.715	0.91
621.903	0.95
622.092	0.97
622.28	1.05
622.468	0.99
622.656	1
622.844	1.08
623.032	1.06
623.22	1.07
623.408	1.17
623.596	1.12
623.784	1.2
623.972	1.16
624.16	1.23
624.348	1.3
624.536	1.28
624.724	1.24
624.912	1.36
625.1	1.4
625.288	1.36
625.476	1.33
625.664	1.46
625.851	1.43
626.039	1.49
626.227	1.52
626.415	1.51
626.603	1.44
626.79	1.6
626.978	1.57
627.166	1.66
627.354	1.65
627.541	1.67
627.729	1.65
627.917	1.84
628.104	1.81
628.292	1.78
628.48	1.9
628.667	1.86
628.855	1.94
629.042	2.04
629.23	2.01
629.418	2.03
629.605	2.09
629.793	2.06
629.98	2.12
630.168	2.21
630.355	2.19
630.543	2.33
630.73	2.28
630.917	2.37
631.105	2.48
631.292	2.47
631.48	2.49
631.667	2.53
631.854	2.54
632.042	2.63
632.229	2.61
632.416	2.73
632.604	2.76
632.791	2.73
632.978	2.87
633.165	2.94
633.353	2.92
633.54	3.03
633.727	3
633.914	3.03
634.101	3.04
634.289	3.23
634.476	3.16
634.663	3.29
634.85	3.26
635.037	3.37
635.224	3.35
635.411	3.49
635.598	3.49
635.785	3.52
635.972	3.65
636.159	3.76
636.346	3.76
636.533	3.74
636.72	3.94
636.907	3.93
637.094	3.91
637.281	3.97
637.468	4.12
637.655	4.13
637.842	4.24
638.029	4.31
638.215	4.35
638.402	4.48
638.589	4.41
638.776	4.52
638.963	4.6
639.149	4.77
639.336	4.83
639.523	4.86
639.709	4.96
639.896	5.01
640.083	5.03
640.27	5.23
640.456	5.19
640.643	5.31
640.829	5.27
641.016	5.35
641.203	5.53
641.389	5.65
641.576	5.72
641.762	5.74
641.949	5.85
642.135	5.98
642.322	6.06
642.508	6.13
642.695	6.35
642.881	6.28
643.068	6.36
643.254	6.65
643.441	6.66
643.627	6.9
643.813	6.75
644	7.1
644.186	7.06
644.372	7.28
644.559	7.27
644.745	7.43
644.931	7.59
645.118	7.66
645.304	7.79
645.49	8
645.676	8.06
645.862	8.26
646.049	8.47
646.235	8.53
646.421	8.89
646.607	8.98
646.793	8.98
646.979	8.93
647.165	9.32
647.352	9.37
647.538	9.53
647.724	9.77
647.91	9.83
648.096	10.14
648.282	10.33
648.468	10.33
648.654	10.66
648.84	10.74
649.026	10.95
649.212	10.89
649.397	11.2
649.583	11.57
649.769	11.67
649.955	11.76
650.141	12.06
650.327	12.04
650.513	12.45
650.698	12.57
650.884	12.66
651.07	12.94
651.256	13
651.442	13.33
651.627	13.17
651.813	13.91
651.999	13.71
652.184	14.08
652.37	14.25
652.556	14.5
652.741	14.67
652.927	14.62
653.113	14.97
653.298	15.32
653.484	15.41
653.669	15.74
653.855	15.78
654.04	16.05
654.226	16.15
654.412	16.34
654.597	16.32
654.782	16.79
654.968	16.88
655.153	17.13
655.339	17.38
655.524	17.32
655.71	17.68
655.895	17.99
656.08	18.17
656.266	18.42
656.451	18.32
656.636	18.42
656.822	18.72
657.007	18.93
657.192	19.05
657.378	19.11
657.563	19.17
657.748	19.35
657.933	19.62
658.118	19.23
658.304	19.83
658.489	19.91
658.674	19.82
658.859	19.7
659.044	19.78
659.229	20.11
659.414	20.13
659.599	19.94
659.785	20.07
659.97	19.95
660.155	19.73
660.34	20.04
660.525	19.69
660.71	19.67
660.895	19.63
661.08	19.24
661.264	19.03
661.449	18.85
661.634	18.4
661.819	18.64
662.004	17.96
662.189	17.8
662.374	17.66
662.559	17.21
662.743	16.76
662.928	16.69
663.113	16.09
663.298	15.83
663.483	15.42
663.667	14.97
663.852	14.7
664.037	14.4
664.221	13.96
664.406	13.55
664.591	13.26
664.775	12.74
664.96	12.48
665.145	11.9
665.329	11.79
665.514	11.34
665.698	10.74
665.883	10.56
666.068	10.31
666.252	9.95
666.437	9.61
666.621	9.29
666.806	8.95
666.99	8.62
667.174	8.38
667.359	8.04
667.543	7.72
667.728	7.5
667.912	7.15
668.096	6.94
668.281	6.64
668.465	6.55
668.649	6.29
668.834	5.97
669.018	5.86
669.202	5.68
669.387	5.44
669.571	5.32
669.755	5.07
669.939	4.88
670.124	4.75
670.308	4.6
670.492	4.49
670.676	4.27
670.86	4.14
671.044	3.98
671.228	3.96
671.413	3.68
671.597	3.57
671.781	3.53
671.965	3.49
672.149	3.3
672.333	3.22
672.517	3.09
672.701	2.96
672.885	2.88
673.069	2.7
673.253	2.73
673.437	2.61
673.621	2.53
673.804	2.49
673.988	2.36
674.172	2.32
674.356	2.2
674.54	2.16
674.724	2.19
674.908	2.04
675.091	1.98
675.275	1.89
675.459	1.87
675.643	1.83
675.826	1.72
676.01	1.69
676.194	1.67
676.377	1.62
676.561	1.6
676.745	1.51
676.928	1.48
677.112	1.43
677.296	1.36
677.479	1.3
677.663	1.25
677.846	1.3
678.03	1.2
678.213	1.11
678.397	1.17
678.58	1.1
678.764	1.06
678.947	1.01
679.131	0.95
679.314	1
679.498	0.96
679.681	0.91
679.865	0.98
680.048	0.84
680.231	0.83
680.415	0.77
680.598	0.76
680.781	0.77
680.965	0.75
681.148	0.72
681.331	0.71
681.514	0.72
681.698	0.67
681.881	0.66
682.064	0.62
682.247	0.59
682.43	0.54
682.614	0.64
682.797	0.6
682.98	0.58
683.163	0.5
683.346	0.55
683.529	0.52
683.712	0.48
683.895	0.5
684.078	0.44
684.261	0.44
684.444	0.47
684.627	0.48
684.81	0.43
684.993	0.42
685.176	0.45
685.359	0.41
685.542	0.39
685.725	0.47
685.908	0.44
686.091	0.36
686.274	0.41
686.457	0.39
686.639	0.36
686.822	0.4
687.005	0.33
687.188	0.37
687.371	0.42
687.553	0.4
687.736	0.35
687.919	0.42
688.102	0.4
688.284	0.32
688.467	0.37
688.65	0.3
688.832	0.25
689.015	0.31
689.197	0.23
689.38	0.4
689.563	0.35
689.745	0.23
689.928	0.25
690.11	0.24
690.293	0.26
690.475	0.21
690.658	0.31
690.84	0.2
691.023	0.21
691.205	0.25
691.388	0.22
691.57	0.28
691.752	0.22
691.935	0.13
692.117	0.2
692.3	0.3
692.482	0.22
692.664	0.18
692.847	0.24
693.029	0.22
693.211	0.17
693.393	0.17
693.576	0.23
693.758	0.24
693.94	0.18
694.122	0.16
694.304	0.17
694.487	0.16
694.669	0.25
694.851	0.14
695.033	0.18
695.215	0.18
695.397	0.11
695.579	0.24
695.761	0.11
695.943	0.1
696.125	0.25
696.308	0.24
696.49	0.08
696.671	0.27
696.853	0.14
697.035	0.31
697.217	0.17
697.399	0.24
697.581	0.1
697.763	0.16
697.945	0.13
698.127	0.15
698.309	0.18
698.491	0.17
698.672	0.23
698.854	0.18
699.036	0.19
699.218	0.14
699.399	0.17
699.581	0.21
699.763	0.11
699.945	0.08
700.126	0.11
700.308	0.13
700.49	0.15
700.671	0.01
700.853	0.11
701.035	0.09
701.216	0.12
701.398	0.05
701.579	0.1
701.761	0.24
701.943	0.12
702.124	0.05
702.306	0.11
702.487	0.19
702.669	0.11
702.85	0.12
703.031	0.09
703.213	0.25
703.394	0.19
703.576	0.09
703.757	0.17
703.938	0.15
704.12	0.18
704.301	0.16
704.483	0.09
704.664	0.12
704.845	0.17
705.026	0.19
705.208	0.11
705.389	0.1
705.57	0.17
705.751	0.14
705.933	0.15
706.114	0.18
706.295	0.16
706.476	0.11
706.657	0.19
706.838	0.13
707.02	0.16
707.201	0.08
707.382	0.08
707.563	0.15
707.744	0.05
707.925	0.06
708.106	0.1
708.287	0.13
708.468	0.17
708.649	0.1
708.83	0.18
709.011	0.12
709.192	0.15
709.373	0.05
709.554	0.13
709.734	0.21
709.915	0.13
710.096	0.09
710.277	0.03
710.458	0.15
710.639	0.15
710.819	0.01
711	0.07
711.181	0.21
711.362	0.15
711.542	0.09
711.723	0.09
711.904	0.17
712.085	0.13
712.265	0.1
712.446	0.06
712.627	0.14
712.807	0.11
712.988	0.11
713.168	0.02
713.349	0.09
713.53	0.03
713.71	0.09
713.891	0.05
714.071	0.05
714.252	0.08
714.432	0.08
714.613	0.04
714.793	0.16
714.974	0.19
715.154	0.13
715.334	0.1
715.515	0.15
715.695	0.03
715.876	0.09
716.056	0.07
716.236	0.03
716.417	0.08
716.597	0.05
716.777	0.24
716.957	0.09
717.138	0.11
717.318	0.11
717.498	0.04
717.678	0.11
717.859	0.1
718.039	0.05
718.219	0.16
718.399	0.16
718.579	0.05
718.759	0.05
718.939	0.05
719.12	0.08
719.3	0.13
719.48	-0.04
719.66	-0.05
719.84	0.14
720.02	0.12
720.2	0.05
720.38	0.11
720.56	0.11
720.74	0.12
720.92	0.13
721.1	0.15
721.279	0.19
721.459	0.17
721.639	-0.05
721.819	0.21
721.999	0.04
722.179	0.12
722.359	-0.02
722.538	0.09
722.718	0.06
722.898	0.03
723.078	0.07
723.257	0.06
723.437	0.15
723.617	0.11
723.797	0.04
723.976	0.06
724.156	0.14
724.336	0.19
724.515	0.27
724.695	-0.03
724.874	0.04
725.054	0.13
725.234	0.01
725.413	0.09
725.593	0.17
725.772	0.09
725.952	0.15
726.131	0.07
726.311	0.05
726.49	0.09
726.67	0.04
726.849	0.04
727.028	0.12
727.208	0.03
727.387	0.09
727.567	0.03
727.746	0.1
727.925	0.1
728.105	0
728.284	0.01
728.463	-0.17
728.643	0.15
728.822	-0.02
729.001	0.04
729.18	0.14
729.359	0.09
729.539	0.12
729.718	0.16
729.897	0.12
730.076	-0.02
730.255	-0
730.434	0.09
730.614	0.17
730.793	0.2
730.972	0.01
731.151	0.11
731.33	0.15
731.509	0.2
731.688	0.16
731.867	0.08
732.046	-0.06
732.225	0.28
732.404	-0.04
732.583	0.04
732.762	0.14
732.941	0.17
733.12	0.13
733.298	0.05
733.477	0.2
733.656	0.04
733.835	0.06
734.014	0.16
734.193	0.07
734.371	0.15
734.55	0.25
734.729	-0
734.908	0.14
735.086	0.16
735.265	0.2
735.444	-0.05
735.623	0.05
735.801	0.04
735.98	0.06
736.159	0.07
736.337	0.19
736.516	0.06
736.694	0.06
736.873	0.14
737.052	0.29
737.23	0.19
737.409	0.12
737.587	0.35
737.766	-0.02
737.944	0.09
738.123	0.12
738.301	0.13
738.479	0.07
738.658	0.14
738.836	-0.11
739.015	0.12
739.193	0.06
739.371	-0.06
739.55	0.03
739.728	0.02
739.906	0.15
740.085	0.32
740.263	0.1
740.441	-0.13
740.62	0.27
740.798	0.09
740.976	-0.01
741.154	0.02
741.332	0.25
741.511	0.07
741.689	0.21
741.867	0.21
742.045	0.12
742.223	0.07
742.401	-0.07
742.579	0.08
742.757	0.26
742.935	-0.01
743.114	0.02
743.292	0.06
743.47	0.05
743.648	0.12
743.826	0.12
744.004	0.24
744.181	0.11
744.359	0.05
744.537	0.14
744.715	-0.02
744.893	0.19
745.071	-0.02
745.249	0.06
745.427	0.04
745.605	0.02
745.782	0.15
745.96	0.13
746.138	0.02
746.316	0.19
746.493	-0.01
746.671	0.07
746.849	0.09
747.027	0.25
747.204	0.06
747.382	0.13
747.56	0.15
747.737	0.15
747.915	0.07
748.093	0.18
748.27	0.05
748.448	0.08
748.625	0
748.803	0.02
748.98	-0.08
749.158	0.05
749.335	0.16
749.513	0.11
749.69	0.08
749.868	0.13
750.045	0.27
750.223	0.08
750.4	-0.1
750.578	0.2
750.755	0.12
750.932	-0.06
751.11	0.26
751.287	-0.05
751.464	0.22
751.642	0.03
751.819	0.2
751.996	0.18
752.173	-0.03
752.351	-0.02
752.528	0.1
752.705	0.05
752.882	0.08
753.06	0.12
753.237	0.09
753.414	0.29
753.591	0.26
753.768	0.11
753.945	0.07
754.122	0.03
754.299	0.09
754.476	0.02
754.654	0.03
754.831	0.21
755.008	0.15
755.185	-0.01
755.362	0.01
755.539	0.14
755.716	0.09
755.892	-0
756.069	0.03
756.246	0.04
756.423	0.08
756.6	0.22
756.777	0.02
756.954	0.16
757.131	-0.03
757.307	-0.05
757.484	-0.04
757.661	0.11
757.838	0.11
758.015	0
758.191	0.18
758.368	0.15
758.545	0.31
758.721	0.16
758.898	-0
759.075	0.22
759.251	0.18
759.428	0.19
759.605	-0.06
759.781	0.07
759.958	0.17
760.134	0.14
760.311	0.1
760.488	0.29
760.664	0.13
760.841	0.17
761.017	0.05
761.194	0.26
761.37	0.15
761.547	0.18
761.723	-0.01
761.899	0.26
762.076	0.15
762.252	0.02
762.429	0.01
762.605	0.18
762.781	0.07
762.958	0.15
763.134	0.01
763.31	0.07
763.486	0.22
763.663	-0.05
763.839	-0.01
764.015	-0.13
764.191	-0.03
764.368	0.04
764.544	0.06
764.72	0.1
764.896	0.35
765.072	0.13
765.248	0
765.425	0.02
765.601	0.02
765.777	0.03
765.953	-0.09
766.129	0.03
766.305	0.02
766.481	0.03
766.657	0.19
766.833	0.18
767.009	-0.05
767.185	0.09
767.361	-0.02
767.537	-0.02
767.713	0.25
767.889	-0.02
768.065	0.05
768.24	-0.1
768.416	0.12
768.592	0.04
768.768	0.07
768.944	0.07
769.12	-0.04
769.295	0.08
769.471	0.1
769.647	0.06
769.823	0.21
769.998	-0.08
770.174	-0
770.35	0.31
770.525	0.28
770.701	0.03
770.877	0.13
771.052	-0.08
771.228	0.1
771.403	0.14
771.579	0.26
771.755	0.34
771.93	-0.03
772.106	-0.02
772.281	-0.14
772.457	0.18
772.632	0.09
772.808	0
772.983	0.15
773.159	-0.09
773.334	0.34
773.509	0.09
773.685	0.08
773.86	0.36
774.036	0.2
774.211	0.03
774.386	0.13
774.562	0.09
774.737	0.08
774.912	-0.03
775.087	0.26
775.263	0.1
775.438	0.17
775.613	0.12
775.788	0.18
775.964	0.34
776.139	0.37
776.314	-0.03
776.489	0.11
776.664	0.23
776.839	-0.01
777.014	0.32
777.19	0.24
777.365	0.3
777.54	0.28
777.715	0
777.89	0.11
778.065	-0.16
778.24	0.15
778.415	0.31
778.59	0.02
778.765	-0.02
778.94	0.02
779.115	-0.02
779.289	0.04
779.464	0.04
779.639	0.22
779.814	-0.16
779.989	-0.1
780.164	0.24
780.339	0.2
780.513	-0.1
780.688	-0.05
780.863	-0.03
781.038	0.35
781.212	-0.11
781.387	0.03
781.562	0.35
781.737	-0.06
781.911	0.39
782.086	-0.01
782.261	0.25
782.435	0.3
782.61	0.17
782.784	-0.02
782.959	0.42
783.134	0.04
783.308	-0.08
783.483	0.05
783.657	0.51
783.832	0.28
784.006	-0.08
784.181	0.18
784.355	0.38
784.53	-0.09
784.704	-0.01
784.878	0.44
785.053	0.25
785.227	0.3
785.402	0.44
785.576	0
785.75	0.05
785.925	0.19
786.099	0.22
786.273	0.1
786.448	0.16
786.622	0.22
786.796	0.25
786.97	-0.16
787.145	0.48
787.319	-0.16
787.493	-0.16
787.667	-0.1
787.841	0.22
788.015	0.28
788.19	0.08
788.364	0.17
788.538	0.41
788.712	0.42
788.886	0.24
789.06	0.26
789.234	0.25
789.408	0.03
789.582	0.2
789.756	0.19
789.93	0.04
790.104	0.09
790.278	-0.01
790.452	0.08
790.626	0.43
790.8	-0.05
790.973	0.36
791.147	0.36
791.321	0.4
791.495	0.23
791.669	0.23
791.843	0.28
792.016	0.13
792.19	0.65
792.364	-0.16
792.538	0.58
792.711	0.46
792.885	0.25
793.059	-0.1
793.233	-0.33
793.406	0.34
793.58	0.22
793.754	0.17
793.927	0.04
794.101	0.26
794.274	0.16
794.448	0.34
794.622	0.22
794.795	0.43
794.969	-0.11
795.142	0.44
795.316	0.01
795.489	0.11
795.663	0.64
795.836	0.02
796.009	0.11
796.183	0.46
796.356	0.45
796.53	0.24
796.703	0.27
796.876	0.8
797.05	-0.06
797.223	0.33
797.396	0.18
797.57	0.4
797.743	0.36
797.916	0.22
798.09	0.09
798.263	0.4
798.436	0.28
798.609	-0.03
798.782	0.12
798.956	0.32
799.129	0.23
799.302	0.1
799.475	0.1
799.648	-0.05
799.821	-0.04
799.994	0.08
800.167	-0.34
800.34	0.18
800.514	0.14
800.687	0.14
800.86	0.1
801.033	-0.12
801.206	0.27
801.379	0.06
801.551	0.52
801.724	0.38
801.897	0.49
802.07	0.06
802.243	-0.35
802.416	0.31
802.589	0.1
802.762	0.45
802.935	0.06
803.107	0.1
803.28	0.33
803.453	0.26
803.626	-0.17
803.798	-0.09
803.971	-0.05
804.144	0.4
804.317	0.18
804.489	0.42
804.662	0.24
804.835	0.28
805.007	0.08
805.18	0.47
805.353	0.18
805.525	-0.28
805.698	0.04
805.87	0.18
806.043	0.49
806.215	-0.07
806.388	-0.09
806.56	0.11
806.733	0.46
806.905	0.3
807.078	0.31
807.25	-0.02
807.423	0.27
807.595	0.44
807.768	0.53
807.94	0.49
808.112	0.4
808.285	0.17
808.457	-0.08
808.629	0.12
808.802	0.5
808.974	0.29
809.146	-0.04
809.318	-0.03
809.491	0.41
809.663	0.65
809.835	0.13
810.007	0.53
810.18	0.04
810.352	-0.21
810.524	0.04
810.696	0.22
810.868	0.29
811.04	0.18
811.212	-0.24
811.384	0.47
811.556	0.45
811.728	0.2
811.901	0.91
812.073	-0.08
812.245	0.46
812.417	0.11
812.589	-0.38
812.76	0.29
812.932	0.49
813.104	0.52
813.276	0.08
813.448	0.51
813.62	-0.01
813.792	0.44
813.964	0.53
814.136	0.39
814.307	0.19
814.479	-0.04
814.651	0.3
814.823	0.96
814.995	-0.08
815.166	0.08
815.338	0.59
815.51	0.15
815.681	1.18
815.853	0.61
816.025	0.07
816.196	0.61
816.368	0.34
816.54	-0.23
816.711	0.47
816.883	0.6
817.054	1.04
817.226	-0.25
817.398	0.46
817.569	-0.34
817.741	0.32
817.912	0.13
818.084	0.27
818.255	0.43
818.426	0.39
818.598	0.15
818.769	0.22
818.941	0.55
819.112	0.84
819.283	0.3
819.455	-0.04
819.626	-0.09
819.798	0.68
819.969	0.26
820.14	0.33
820.311	0.14
820.483	0.35
820.654	0.49
820.825	0.48
820.996	0.12
821.168	-0.33
821.339	0.04
821.51	-0.23
821.681	0.01
821.852	0.64
822.023	-0.15
822.195	-0.14
822.366	0.4
822.537	0.5
822.708	0.22
822.879	-0.12
823.05	0.83
823.221	-0.03
823.392	0.5
823.563	0.39
823.734	0.64
823.905	0.35
824.076	-0.01
824.247	-0.32
824.418	-0.18
824.589	1
824.759	0.17
824.93	0.15
825.101	-0.43
825.272	0.69
825.443	1.02
825.614	0.64
825.784	-0.05
825.955	1.28
826.126	1.11
826.297	0.69
826.467	1.22
826.638	1.1
826.809	-0.31
826.98	0.26
827.15	0.44
827.321	0.52
827.492	1.23
827.662	0.38
827.833	1.58
828.003	0.64
828.174	-0.16
828.345	-0.16
828.515	0.96
828.686	0.69
828.856	0.21
829.027	0.32
829.197	0.26
829.368	1.15
829.538	-0.16
829.709	0.22
829.879	0.4
830.049	0.77
830.22	-0.23
830.39	0.16
830.56	0.63
830.731	-0.12
830.901	0.16
831.072	-0.07
831.242	0.46
831.412	0.63
831.582	0.12
831.753	-0.07
831.923	1.2
832.093	0.15
832.263	0.65
832.434	-0.32
832.604	0.11
832.774	0.76
832.944	0.57
833.114	0.31
833.284	0.62
833.454	-0.32
833.624	0.77
833.795	0.17
833.965	0.93
834.135	0.83
834.305	-0.72
834.475	-0.21
834.645	1.01
834.815	-0.01
834.985	0.1
835.155	-0.22
835.325	0.7
835.494	0.57
835.664	0.42
835.834	-0.09
836.004	0.49
836.174	0.52
836.344	0.58
836.514	-0.33
836.684	-0.08
836.853	-0.19
837.023	0.67
837.193	0.06
837.363	0.95
837.532	1.1
837.702	0.25
837.872	-0.43
838.041	1.33
838.211	1.56
838.381	0.03
838.55	0.23
838.72	2.09
838.89	1.8
839.059	0.27
839.229	0.4
839.398	1.28
839.568	0.03
839.738	0.96
839.907	1.37
840.077	0.84
840.246	0.03
840.416	0.16
840.585	-0.61
840.755	1.75
840.924	1.61
841.093	-0.11
841.263	0.04
841.432	0.65
841.602	-0.51
841.771	0.6
841.94	0.87
842.11	1.81
842.279	1.41
842.448	-0.19
842.617	-0.39
842.787	1.56
842.956	0.04
843.125	0.63
843.294	1.03
843.464	1.03
843.633	-0.02
843.802	0.34
843.971	0.79
844.14	0.71
844.309	0.81
844.479	-0
844.648	-0.35
844.817	0.13
844.986	0.85
845.155	0.19
845.324	0.22
845.493	0.84
845.662	-0.28
845.831	0.65
846	1.02
846.169	-0.22
846.338	1.42
846.507	0.33
846.676	1.04
846.844	-0.04
847.013	1.08
847.182	0.98
847.351	0.31
847.52	0.02
847.689	0.47
847.858	0.53
848.026	-0.76
848.195	-0.13
848.364	-0.04
848.533	0.1
848.701	0.29
848.87	-0.96
849.039	2
849.207	2.14
849.376	0.84
849.545	0.9
849.713	-0.49
849.882	-0.03
850.051	0.47
850.219	0.43
850.388	1.81
850.556	-0.17
850.725	0.53
850.893	0.85
851.062	-0.35
851.23	1.53
851.399	0.27
851.567	0.11
851.736	0.22
851.904	-0.15
852.073	0.65
852.241	0.44
852.41	0.8
852.578	0.02
852.746	0.41
852.915	0.68
853.083	-0.32
853.251	-0.97
853.42	0.05
853.588	0.25
853.756	1.76
853.924	0.8
854.093	-0.61
854.261	-0.32
854.429	0.02
854.597	0.22
854.765	-0.64
854.934	0.24
855.102	1.82
855.27	0.12
855.438	1.06
855.606	3.05
855.774	1.95
855.942	0.2
856.11	-0.86
856.278	1.22
856.446	0.77
856.614	1.05
856.782	0.11
856.95	1.41
857.118	1.24
857.286	2.37
857.454	-0.34
857.622	2.44
857.79	0.83
857.958	-0.57
858.126	-0
858.294	-2.7
858.462	1.01
858.629	0.03
858.797	-0.46
858.965	1.79
859.133	0.84
859.301	-0.15
859.468	0.88
859.636	-0.1
859.804	0.72
859.971	2.55
860.139	-0.5
860.307	2.04
860.474	1.04
860.642	-0.41
860.81	1.12
860.977	0.47
861.145	0.73
861.313	0.23
861.48	1.07
861.648	1.74
861.815	0.68
861.983	-0.52
862.15	0.98
862.318	2.51
862.485	3.09
862.653	-0.61
862.82	0.58
862.988	2.94
863.155	0.85
863.322	0.2
863.49	0.09
863.657	-0.47
863.824	2.08
863.992	1.9
864.159	1.5
864.326	1.89
864.494	0.92
864.661	2.68
864.828	0.48
864.996	2.28
865.163	2.41
865.33	0.55
865.497	-0.26
865.664	-0.09
865.832	-0.51
865.999	0.71
866.166	-0.71
866.333	0.35
866.5	0.19
866.667	1.15
866.834	1.15
867.001	2.77
867.168	-1.82
867.335	0.31
867.502	-0.36
867.669	0.11
867.836	3.64
868.003	0.65
868.17	1.93
868.337	2.84
868.504	1.03
868.671	-0.5
868.838	0.67
869.005	1
869.172	1.3
869.339	0.53
869.505	1.49
869.672	0.79
869.839	2.97
870.006	0.91
870.173	-0.24
870.339	1.35
870.506	3.12
870.673	-2.12
870.84	2.61
871.006	0.14
871.173	1.03
871.34	0.97
871.506	-0.26
871.673	2.67
871.839	-1.1
872.006	2.04
872.173	0.36
872.339	0.85
872.506	2.53
872.672	0.61
872.839	-1.6
873.005	0.18
873.172	3.11
873.338	4.28
873.505	2.44
873.671	2.59
873.838	0.71
874.004	0.74
874.171	-0.09
874.337	0.34
874.503	1.8
874.67	1.03
874.836	0.06
875.002	3.11
875.169	2.91
875.335	2.8
875.501	1.52
875.668	2.28
875.834	0.14
876	0.42
876.166	2.84
876.332	1.79
876.499	4.38
876.665	-1.04
876.831	0.85
876.997	3.29
877.163	2.53
877.329	-1.03
877.495	1.71
877.662	2.98
877.828	2.52
877.994	1.71
878.16	-0.34
878.326	0.14
878.492	1.09
878.658	-0.86
878.824	2.05
878.99	1.67
879.156	0.7
879.322	4.23
879.487	-0.12
879.653	1.9
879.819	2.68
879.985	-1.07
880.151	2.16
880.317	2.37
880.483	1.49
880.648	1.11
880.814	-1.2
880.98	2.66
881.146	-2.43
881.312	-0.19
881.477	0.13
881.643	1.54
881.809	2.06
881.974	3.32
882.14	-1.26
882.306	0.24
882.471	2.74
882.637	0.37
882.803	2.49
882.968	3.3
883.134	3.08
883.299	2.03
883.465	1.3
883.63	3.61
883.796	2.47
883.961	1.76
884.127	1.37
884.292	-3.37
884.458	-0.38
884.623	-0.37
