Data from Apollo_Calib_20240827__AbsoluteIrradiance__237__03-06-00-524.txt Node

Date: Wed Aug 28 03:06:00 BST 2024
User: biology
Spectrometer: FLMT08252
Trigger mode: 0
Integration Time (sec): 5.000000E-1
Scans to average: 5
Electric dark correction enabled: true
Nonlinearity correction enabled: false
Boxcar width: 0
XAxis mode: Wavelengths
Number of Pixels in Spectrum: 3648
>>>>>Begin Spectral Data<<<<<
179.588	-0
179.809	-0
180.03	-0
180.251	-0
180.473	-0
180.694	0
180.915	0
181.136	-0
181.357	0
181.578	-0
181.799	-0
182.02	-0
182.241	0
182.462	-0
182.683	0
182.904	-0
183.125	-0
183.346	0
183.567	-0
183.788	-0
184.009	-0
184.23	0
184.451	0
184.672	-0
184.892	-0
185.113	0
185.334	0
185.555	-0
185.776	-0
185.996	0
186.217	0
186.438	-0
186.659	-0
186.879	0
187.1	-0
187.321	-0
187.541	-0
187.762	-0
187.983	-0
188.203	0
188.424	0
188.644	-0
188.865	-0
189.086	-0
189.306	-0
189.527	0
189.747	0
189.968	-0
190.188	-0
190.409	-0
190.629	0
190.849	-0
191.07	-0
191.29	0
191.511	-0
191.731	-0
191.951	-0
192.172	-0
192.392	-0
192.612	0
192.833	-0
193.053	0
193.273	0
193.493	-0
193.714	-0
193.934	0
194.154	0
194.374	-0
194.594	0
194.815	0
195.035	-0
195.255	-0
195.475	-0
195.695	0
195.915	0
196.135	-0
196.355	0
196.575	0
196.795	0
197.015	-0
197.235	-0
197.455	-0
197.675	0
197.895	-0
198.115	-0
198.335	0
198.555	-0
198.775	-0
198.995	0
199.214	0
199.434	-0
199.654	-0
199.874	-0
200.094	0.68
200.313	-0.21
200.533	-0.31
200.753	-0.78
200.973	0.62
201.192	0.41
201.412	-1.39
201.632	-0.69
201.851	0.64
202.071	-0.43
202.291	-0.72
202.51	-0.61
202.73	0.04
202.95	-0.26
203.169	-0.65
203.389	-0.31
203.608	0.03
203.828	-0.53
204.047	-0.55
204.267	0.44
204.486	-0.14
204.706	0.21
204.925	-0.11
205.145	-0.7
205.364	0.24
205.583	0.49
205.803	-0.27
206.022	-0.49
206.242	0.06
206.461	-0.05
206.68	-0.16
206.9	0.21
207.119	0.52
207.338	0.52
207.557	-0.35
207.777	-0.18
207.996	-0.19
208.215	0.48
208.434	-0.27
208.654	-0.6
208.873	0.3
209.092	0.71
209.311	-0.12
209.53	-0.35
209.749	-0.17
209.968	-0.44
210.187	-0.18
210.407	-0.56
210.626	-0.05
210.845	0.1
211.064	-0.3
211.283	-0.31
211.502	0.39
211.721	0.19
211.94	-0.31
212.159	0.06
212.377	0.07
212.596	0.3
212.815	0.06
213.034	-0.13
213.253	0.36
213.472	0.28
213.691	-0.24
213.91	-0.48
214.128	-0.05
214.347	0.46
214.566	-0.58
214.785	-0.54
215.003	0.22
215.222	0.19
215.441	-0.35
215.66	-0.36
215.878	-0.09
216.097	0.07
216.316	-0.33
216.534	-0.04
216.753	0.04
216.972	-0.02
217.19	-0.02
217.409	-0.37
217.627	-0.17
217.846	-0.1
218.064	-0.14
218.283	-0.21
218.501	0.35
218.72	0.1
218.938	-0.26
219.157	-0.19
219.375	0.27
219.594	0.02
219.812	-0.34
220.031	-0.27
220.249	0.43
220.467	0.45
220.686	-0.1
220.904	-0.15
221.122	-0.23
221.341	0.24
221.559	0.01
221.777	-0.23
221.995	0.04
222.214	0.14
222.432	0.02
222.65	0.1
222.868	0
223.086	0.12
223.305	0.01
223.523	-0.18
223.741	0.18
223.959	-0.19
224.177	-0.23
224.395	-0.12
224.613	0.02
224.831	0.03
225.049	-0.17
225.267	-0.21
225.485	0.16
225.703	-0.04
225.921	-0.07
226.139	-0.14
226.357	0.12
226.575	0.08
226.793	-0.17
227.011	0.57
227.229	0
227.447	0.08
227.665	-0.16
227.883	-0.32
228.1	-0.01
228.318	0.03
228.536	-0.16
228.754	-0.25
228.972	0.07
229.189	0.03
229.407	-0.15
229.625	-0.14
229.843	0.12
230.06	0.16
230.278	-0.16
230.496	-0.05
230.713	-0.08
230.931	0.2
231.149	-0.01
231.366	-0.29
231.584	-0.01
231.801	0.28
232.019	-0.07
232.236	-0.27
232.454	-0.18
232.671	0.02
232.889	-0.13
233.106	-0.16
233.324	0.01
233.541	-0.11
233.759	-0.03
233.976	-0.18
234.194	-0.03
234.411	0.02
234.628	-0.08
234.846	-0.13
235.063	-0.01
235.28	-0.02
235.498	-0.01
235.715	-0.21
235.932	0.17
236.149	-0.1
236.367	-0.08
236.584	-0.03
236.801	-0.19
237.018	0.06
237.236	0.07
237.453	-0.16
237.67	0.11
237.887	-0.08
238.104	-0.05
238.321	-0.08
238.538	-0.19
238.755	0.15
238.973	-0.22
239.19	-0.01
239.407	-0.04
239.624	-0.09
239.841	-0.25
240.058	-0.09
240.275	-0.01
240.492	-0.05
240.709	-0.04
240.925	-0.02
241.142	-0.08
241.359	-0.12
241.576	-0.07
241.793	-0.05
242.01	-0.03
242.227	0.05
242.444	0.03
242.66	0.09
242.877	0.03
243.094	-0.13
243.311	-0.03
243.527	-0.05
243.744	0.04
243.961	0.07
244.178	-0.07
244.394	-0.06
244.611	0.11
244.828	0.11
245.044	-0.16
245.261	-0.08
245.477	0.01
245.694	0
245.911	-0.15
246.127	-0.05
246.344	0.13
246.56	0.1
246.777	-0.15
246.993	0.02
247.21	-0.01
247.426	-0.04
247.643	-0.09
247.859	-0.18
248.076	-0.08
248.292	0.11
248.508	-0.05
248.725	0.05
248.941	0.01
249.157	0.1
249.374	-0.08
249.59	-0.02
249.806	-0.02
250.023	0.03
250.239	-0.1
250.455	-0.07
250.671	-0.03
250.888	-0.04
251.104	0.08
251.32	-0.01
251.536	0.01
251.752	-0.08
251.969	0
252.185	0.01
252.401	0.19
252.617	0.06
252.833	-0.06
253.049	-0.02
253.265	-0.07
253.481	0.04
253.697	-0.05
253.913	-0.14
254.129	0.01
254.345	-0.03
254.561	-0.07
254.777	-0.06
254.993	0.04
255.209	0.03
255.425	-0.02
255.641	-0.12
255.857	0.07
256.073	0.03
256.288	-0.08
256.504	-0.14
256.72	-0.03
256.936	0.11
257.152	-0.09
257.367	-0.08
257.583	-0.06
257.799	0.04
258.015	-0.05
258.23	-0.04
258.446	0.11
258.662	0.02
258.877	-0.06
259.093	-0.15
259.309	-0
259.524	-0.04
259.74	-0.08
259.955	-0.2
260.171	-0.02
260.387	-0.07
260.602	0.03
260.818	-0.02
261.033	-0.09
261.249	-0.05
261.464	-0.05
261.68	-0.17
261.895	0.02
262.11	0.08
262.326	-0.03
262.541	-0.07
262.757	0.06
262.972	0.06
263.187	0.03
263.403	-0.02
263.618	0.1
263.833	0.01
264.049	-0.13
264.264	-0.03
264.479	0.05
264.694	0.09
264.91	-0.1
265.125	-0.03
265.34	0.06
265.555	0.1
265.77	-0.03
265.986	-0.01
266.201	0.05
266.416	0.06
266.631	-0.01
266.846	-0.03
267.061	0.1
267.276	0.07
267.491	-0.17
267.706	0.04
267.921	-0.02
268.136	-0.04
268.351	-0.04
268.566	-0.1
268.781	0.04
268.996	0.06
269.211	-0
269.426	-0.09
269.641	-0.03
269.856	0.07
270.071	-0.08
270.285	-0.12
270.5	0.07
270.715	0.08
270.93	-0.03
271.145	0
271.359	0.05
271.574	-0.07
271.789	-0.02
272.004	-0.04
272.218	-0.05
272.433	0.02
272.648	-0.06
272.862	0.01
273.077	-0
273.292	-0.02
273.506	-0.05
273.721	-0.06
273.936	0.05
274.15	0.06
274.365	-0.04
274.579	0.04
274.794	0.03
275.008	0.07
275.223	-0.07
275.437	-0.01
275.652	0.09
275.866	0.03
276.081	-0.01
276.295	0.02
276.509	0.02
276.724	0.06
276.938	0.07
277.153	-0.02
277.367	0.02
277.581	-0.04
277.796	-0.09
278.01	-0.08
278.224	0.1
278.438	0.14
278.653	-0.09
278.867	-0.06
279.081	-0.04
279.295	-0.01
279.51	-0.01
279.724	-0.15
279.938	0.03
280.152	0.05
280.366	-0.09
280.58	0.03
280.794	0.1
281.008	-0.02
281.222	0.06
281.437	0.08
281.651	-0
281.865	0.13
282.079	-0.08
282.293	-0.11
282.507	-0.06
282.721	0.01
282.935	0.01
283.148	-0.08
283.362	-0.06
283.576	-0.07
283.79	0.01
284.004	-0
284.218	0.14
284.432	-0.05
284.646	-0.03
284.859	-0.02
285.073	-0.05
285.287	-0.02
285.501	-0.01
285.714	-0.04
285.928	-0.03
286.142	-0
286.356	-0.04
286.569	0
286.783	0.07
286.997	0.03
287.21	0.01
287.424	0.03
287.637	-0.01
287.851	-0.05
288.065	0.03
288.278	-0.07
288.492	-0.02
288.705	0
288.919	0.04
289.132	-0.02
289.346	0.06
289.559	-0.07
289.773	-0.06
289.986	-0.02
290.2	-0
290.413	0.07
290.626	-0.05
290.84	-0.03
291.053	0
291.267	0.07
291.48	0.01
291.693	0.01
291.906	-0.04
292.12	0.01
292.333	-0.06
292.546	-0.04
292.76	0.07
292.973	0.02
293.186	0.03
293.399	-0.07
293.612	0.04
293.826	0.02
294.039	-0.05
294.252	-0.04
294.465	0.09
294.678	0.02
294.891	-0.01
295.104	-0.06
295.317	-0.02
295.53	0
295.743	-0.04
295.956	-0.05
296.169	0.06
296.382	0.04
296.595	0.01
296.808	-0.05
297.021	0.07
297.234	0.06
297.447	-0.05
297.66	-0.01
297.873	0.07
298.086	0.06
298.299	-0.06
298.511	-0.07
298.724	-0.03
298.937	-0.08
299.15	-0.03
299.363	-0.01
299.575	0.03
299.788	0.01
300.001	-0.02
300.213	-0.07
300.426	-0.02
300.639	-0.02
300.852	-0.02
301.064	0.02
301.277	0.08
301.489	0.05
301.702	0.01
301.915	-0.01
302.127	0.02
302.34	0.04
302.552	0
302.765	-0.04
302.977	0.03
303.19	-0.03
303.402	-0.02
303.615	-0.07
303.827	-0.03
304.04	-0.02
304.252	0.02
304.464	0
304.677	0.09
304.889	0.11
305.102	-0.06
305.314	-0.06
305.526	0.01
305.739	0.06
305.951	-0.02
306.163	-0.03
306.375	0.08
306.588	-0.03
306.8	-0.03
307.012	-0.03
307.224	-0
307.436	0.1
307.649	-0.1
307.861	0.03
308.073	0.03
308.285	0
308.497	-0.02
308.709	-0.04
308.921	0.01
309.133	0.05
309.346	-0.02
309.558	-0
309.77	0.07
309.982	0.06
310.194	0.05
310.406	-0.04
310.617	0.11
310.829	0.02
311.041	0.03
311.253	-0.06
311.465	0.03
311.677	-0
311.889	0
312.101	-0.04
312.313	0.06
312.524	0.08
312.736	-0.06
312.948	-0.05
313.16	0.08
313.372	0.03
313.583	-0
313.795	-0
314.007	-0.02
314.218	0.06
314.43	0.02
314.642	-0
314.853	-0.04
315.065	0.04
315.277	-0.02
315.488	-0.01
315.7	0.05
315.912	0.04
316.123	-0.02
316.335	-0.02
316.546	0.14
316.758	0.02
316.969	-0.01
317.181	-0.02
317.392	0.01
317.604	0.06
317.815	-0.06
318.026	-0.06
318.238	-0.03
318.449	0.02
318.661	-0.04
318.872	-0.07
319.083	-0.05
319.295	0.03
319.506	-0.01
319.717	0.01
319.929	-0.01
320.14	-0.02
320.351	-0
320.562	-0.06
320.774	0.02
320.985	0.05
321.196	-0.04
321.407	-0.08
321.618	0.05
321.829	-0.01
322.041	0
322.252	0.01
322.463	0.01
322.674	0.02
322.885	-0.06
323.096	-0.01
323.307	-0
323.518	0
323.729	-0.04
323.94	-0.01
324.151	-0.04
324.362	0.02
324.573	0.03
324.784	-0.02
324.995	-0.01
325.206	-0.01
325.417	-0.02
325.628	0.01
325.838	0
326.049	-0
326.26	0.02
326.471	-0.02
326.682	0.07
326.892	0.02
327.103	-0.09
327.314	-0.05
327.525	0.02
327.735	0.02
327.946	-0.03
328.157	-0.06
328.368	0.01
328.578	0.01
328.789	0.03
328.999	0.01
329.21	-0.01
329.421	0.07
329.631	-0.05
329.842	-0.04
330.052	0
330.263	0.04
330.473	0.04
330.684	-0
330.894	0.01
331.105	0.05
331.315	-0.02
331.526	-0.02
331.736	0.09
331.947	0.01
332.157	0.01
332.367	-0.02
332.578	0.06
332.788	0.04
332.999	0.05
333.209	-0
333.419	-0.05
333.629	0.02
333.84	-0.01
334.05	0.01
334.26	0.08
334.47	0.02
334.681	0.06
334.891	-0.04
335.101	0.04
335.311	0.08
335.521	0.04
335.732	-0.05
335.942	0.06
336.152	0.03
336.362	0.02
336.572	0.01
336.782	0.05
336.992	-0.02
337.202	-0.02
337.412	-0.02
337.622	0.02
337.832	-0.01
338.042	0
338.252	-0.02
338.462	0.01
338.672	-0.03
338.882	0
339.092	-0
339.302	0.13
339.511	0.01
339.721	-0.01
339.931	-0.04
340.141	0.07
340.351	0.07
340.561	0.03
340.77	0.02
340.98	0.01
341.19	0.02
341.4	-0.09
341.609	-0.07
341.819	-0.02
342.029	-0.04
342.238	0
342.448	-0.06
342.658	0.06
342.867	0.02
343.077	0.02
343.286	-0.01
343.496	0.04
343.706	0.06
343.915	-0.07
344.125	-0.02
344.334	0.02
344.544	-0.02
344.753	-0.01
344.963	-0.03
345.172	0.02
345.381	-0.01
345.591	-0.03
345.8	0.03
346.01	0.04
346.219	0.06
346.428	-0.14
346.638	0.01
346.847	0.01
347.056	0.03
347.266	0.01
347.475	-0.01
347.684	0.06
347.893	-0.02
348.103	0.02
348.312	-0.03
348.521	-0.01
348.73	0.01
348.94	0.03
349.149	-0.02
349.358	0.01
349.567	-0.01
349.776	-0.09
349.985	-0.07
350.194	0.06
350.403	0.04
350.612	-0.03
350.821	-0.02
351.03	-0.01
351.239	-0.02
351.448	-0.02
351.657	-0.06
351.866	0.09
352.075	0
352.284	0.04
352.493	-0.06
352.702	0.02
352.911	0.01
353.12	0.01
353.329	-0.03
353.538	0.01
353.746	-0
353.955	-0.03
354.164	0.04
354.373	0.01
354.582	0.03
354.79	0.02
354.999	0.04
355.208	0
355.416	0.09
355.625	-0.03
355.834	0
356.042	0.05
356.251	-0.04
356.46	-0.06
356.668	0
356.877	0.11
357.085	0.04
357.294	-0.08
357.503	0.03
357.711	0.02
357.92	0.15
358.128	0
358.337	-0.04
358.545	0.05
358.754	-0.02
358.962	0.04
359.17	-0.05
359.379	0.07
359.587	0.02
359.796	-0.01
360.004	0.03
360.212	0.03
360.421	0.07
360.629	0
360.837	-0.03
361.046	0.04
361.254	0.11
361.462	0
361.67	-0.03
361.879	-0.02
362.087	0.04
362.295	0.01
362.503	-0.02
362.711	-0.01
362.92	0.04
363.128	-0.03
363.336	-0.06
363.544	-0.06
363.752	-0.01
363.96	-0.06
364.168	-0.03
364.376	0.03
364.584	-0.01
364.792	0.04
365	-0
365.208	0.04
365.416	0.02
365.624	0.08
365.832	-0.06
366.04	0.04
366.248	-0.02
366.456	-0
366.664	0.01
366.872	-0
367.079	0.01
367.287	0.01
367.495	0.01
367.703	0.03
367.911	0.01
368.118	-0
368.326	-0.01
368.534	-0.05
368.742	0.05
368.949	-0.03
369.157	-0.03
369.365	0.04
369.572	-0
369.78	-0.03
369.988	0.05
370.195	0.06
370.403	0.01
370.61	-0.04
370.818	0.04
371.026	0.1
371.233	-0.06
371.441	0
371.648	-0.03
371.856	0.03
372.063	0.02
372.271	-0.03
372.478	-0
372.685	-0.02
372.893	0.04
373.1	-0.03
373.308	0
373.515	0.09
373.722	0.02
373.93	-0
374.137	0.06
374.344	0.12
374.552	0.06
374.759	0.03
374.966	0.01
375.173	-0.02
375.381	0.07
375.588	-0.01
375.795	-0.08
376.002	-0
376.209	-0.01
376.417	-0.03
376.624	0.04
376.831	0.03
377.038	0.01
377.245	-0.06
377.452	-0.02
377.659	0
377.866	-0.03
378.073	0.01
378.28	0.02
378.487	0.04
378.694	0.03
378.901	-0
379.108	-0.02
379.315	0.02
379.522	0.06
379.729	0
379.936	-0.01
380.143	-0.03
380.35	0.01
380.557	0.04
380.763	0.03
380.97	0.02
381.177	0.02
381.384	0
381.591	-0.02
381.797	0
382.004	0.01
382.211	0.05
382.418	0.02
382.624	0.05
382.831	0.04
383.038	-0.05
383.244	0.01
383.451	-0.01
383.658	0.01
383.864	-0.01
384.071	-0.03
384.277	0.06
384.484	-0.02
384.69	0.04
384.897	-0.05
385.103	-0
385.31	-0.04
385.516	0
385.723	-0.02
385.929	0.02
386.136	-0.03
386.342	0.02
386.549	-0.01
386.755	0.06
386.961	0.03
387.168	-0.04
387.374	-0.03
387.58	0.03
387.787	-0.05
387.993	-0.01
388.199	-0.04
388.406	-0
388.612	-0.03
388.818	-0.03
389.024	-0
389.231	-0
389.437	0.11
389.643	0.01
389.849	0
390.055	0.06
390.261	0.05
390.467	0.01
390.674	-0.03
390.88	-0.02
391.086	0.05
391.292	-0.05
391.498	0.02
391.704	0.03
391.91	0.02
392.116	-0.03
392.322	-0.06
392.528	0.04
392.734	-0.01
392.94	-0.01
393.146	-0.02
393.352	0.01
393.557	0.05
393.763	0.01
393.969	0.05
394.175	-0
394.381	0.03
394.587	-0.07
394.792	0.01
394.998	0.05
395.204	0.08
395.41	-0.01
395.615	0.08
395.821	0.06
396.027	0.05
396.233	-0.02
396.438	0.04
396.644	0.11
396.85	0.03
397.055	0.01
397.261	0.05
397.466	-0.02
397.672	0.04
397.878	0.07
398.083	-0.01
398.289	0.01
398.494	0.06
398.7	0.06
398.905	-0.02
399.111	0.07
399.316	0
399.522	0.08
399.727	0.07
399.932	0.07
400.138	0.07
400.343	0.11
400.549	0.06
400.754	0.09
400.959	0.08
401.165	0.1
401.37	0.03
401.575	0.17
401.78	0.09
401.986	0.07
402.191	0.09
402.396	0.11
402.601	0.17
402.807	0.14
403.012	0.11
403.217	0.14
403.422	0.1
403.627	0.09
403.832	0.1
404.037	0.19
404.243	0.11
404.448	0.16
404.653	0.19
404.858	0.16
405.063	0.18
405.268	0.16
405.473	0.15
405.678	0.23
405.883	0.4
406.088	0.24
406.293	0.21
406.498	0.2
406.703	0.25
406.907	0.25
407.112	0.24
407.317	0.29
407.522	0.34
407.727	0.25
407.932	0.37
408.136	0.43
408.341	0.36
408.546	0.38
408.751	0.4
408.956	0.41
409.16	0.49
409.365	0.47
409.57	0.48
409.774	0.52
409.979	0.59
410.184	0.56
410.388	0.5
410.593	0.66
410.798	0.64
411.002	0.68
411.207	0.75
411.411	0.71
411.616	0.72
411.82	0.75
412.025	0.84
412.229	0.82
412.434	0.94
412.638	0.93
412.843	0.93
413.047	1.04
413.252	0.96
413.456	1.12
413.66	1.11
413.865	1.09
414.069	1.17
414.273	1.18
414.478	1.3
414.682	1.25
414.886	1.32
415.091	1.37
415.295	1.35
415.499	1.55
415.703	1.49
415.908	1.67
416.112	1.6
416.316	1.83
416.52	1.85
416.724	1.75
416.929	1.88
417.133	2.11
417.337	2.03
417.541	2.2
417.745	2.21
417.949	2.33
418.153	2.3
418.357	2.34
418.561	2.63
418.765	2.57
418.969	2.73
419.173	2.8
419.377	2.8
419.581	3.01
419.785	3.01
419.989	3.02
420.193	3.23
420.397	3.25
420.601	3.29
420.804	3.41
421.008	3.43
421.212	3.5
421.416	3.47
421.62	3.47
421.823	3.49
422.027	3.59
422.231	3.48
422.435	3.49
422.638	3.52
422.842	3.53
423.046	3.49
423.249	3.6
423.453	3.64
423.657	3.63
423.86	3.59
424.064	3.68
424.268	3.76
424.471	3.59
424.675	3.68
424.878	3.68
425.082	3.63
425.285	3.75
425.489	3.57
425.692	3.49
425.896	3.43
426.099	3.48
426.303	3.46
426.506	3.32
426.71	3.31
426.913	3.42
427.116	3.36
427.32	3.22
427.523	3.21
427.726	3.19
427.93	3.01
428.133	3.09
428.336	2.99
428.54	2.9
428.743	2.87
428.946	2.99
429.149	2.78
429.353	2.7
429.556	2.54
429.759	2.44
429.962	2.39
430.165	2.37
430.368	2.16
430.571	2.08
430.775	1.99
430.978	1.89
431.181	1.85
431.384	1.8
431.587	1.75
431.79	1.71
431.993	1.65
432.196	1.67
432.399	1.62
432.602	1.68
432.805	1.5
433.008	1.61
433.211	1.43
433.414	1.53
433.616	1.44
433.819	1.31
434.022	1.27
434.225	1.38
434.428	1.35
434.631	1.44
434.833	1.21
435.036	1.2
435.239	1.2
435.442	1.17
435.645	1.07
435.847	1.09
436.05	1.16
436.253	1.08
436.455	0.98
436.658	0.95
436.861	1.07
437.063	0.98
437.266	0.96
437.468	0.9
437.671	1.03
437.874	0.93
438.076	0.77
438.279	0.72
438.481	0.83
438.684	0.76
438.886	0.78
439.089	0.7
439.291	0.75
439.494	0.76
439.696	0.64
439.899	0.69
440.101	0.74
440.303	0.63
440.506	0.69
440.708	0.66
440.91	0.65
441.113	0.61
441.315	0.63
441.517	0.53
441.72	0.68
441.922	0.49
442.124	0.47
442.326	0.54
442.529	0.57
442.731	0.49
442.933	0.56
443.135	0.44
443.337	0.41
443.539	0.46
443.742	0.42
443.944	0.41
444.146	0.34
444.348	0.33
444.55	0.28
444.752	0.36
444.954	0.24
445.156	0.3
445.358	0.31
445.56	0.38
445.762	0.3
445.964	0.31
446.166	0.26
446.368	0.27
446.57	0.31
446.772	0.28
446.974	0.29
447.175	0.22
447.377	0.2
447.579	0.25
447.781	0.16
447.983	0.3
448.184	0.25
448.386	0.25
448.588	0.11
448.79	0.18
448.991	0.19
449.193	0.16
449.395	0.16
449.597	0.29
449.798	0.17
450	0.18
450.202	0.17
450.403	0.17
450.605	0.22
450.806	0.1
451.008	0.09
451.21	0.17
451.411	0.16
451.613	0.13
451.814	0.11
452.016	0.16
452.217	0.14
452.419	0.19
452.62	0.15
452.821	0.16
453.023	0.21
453.224	0.14
453.426	0.14
453.627	0.1
453.828	0.14
454.03	0.13
454.231	0.13
454.432	0.04
454.634	0.17
454.835	0.07
455.036	0.03
455.238	0.15
455.439	0.19
455.64	0.04
455.841	0.06
456.042	0.17
456.244	0.16
456.445	0.05
456.646	0.03
456.847	0.08
457.048	0.18
457.249	0.16
457.45	0.27
457.651	0.08
457.852	0.14
458.054	0.12
458.255	-0
458.456	0.09
458.657	0.07
458.858	0.02
459.058	0.07
459.259	0.13
459.46	0.09
459.661	0.03
459.862	0.23
460.063	0.05
460.264	0.08
460.465	0.04
460.666	0.17
460.866	0.04
461.067	0.05
461.268	0.01
461.469	0.01
461.67	0.01
461.87	0.04
462.071	0
462.272	-0.02
462.473	0.08
462.673	0.09
462.874	0.01
463.075	0.05
463.275	-0.03
463.476	0.03
463.676	0.05
463.877	0.04
464.078	0.02
464.278	0.14
464.479	0.02
464.679	0.05
464.88	0.05
465.08	0.04
465.281	0.02
465.481	0.02
465.682	0.02
465.882	0.08
466.083	0.03
466.283	0.02
466.483	0.02
466.684	0
466.884	0
467.085	0.04
467.285	0.06
467.485	-0.01
467.686	-0
467.886	-0.05
468.086	0.02
468.286	0.04
468.487	-0.01
468.687	-0.01
468.887	0.06
469.087	0.1
469.287	0.03
469.488	-0.03
469.688	0.04
469.888	0.08
470.088	0.05
470.288	0.08
470.488	0.07
470.688	-0.02
470.888	-0.01
471.088	-0.04
471.288	0.06
471.488	0.02
471.688	0.02
471.888	0.03
472.088	0.07
472.288	0.07
472.488	-0.04
472.688	-0.01
472.888	-0.02
473.088	0.03
473.288	0.04
473.488	0.01
473.688	0.06
473.887	0.01
474.087	0.01
474.287	0.03
474.487	-0.01
474.687	0.05
474.886	-0.03
475.086	0.02
475.286	0.02
475.486	0.03
475.685	-0.02
475.885	0.02
476.085	0.02
476.284	0.05
476.484	0.01
476.684	0.01
476.883	0.08
477.083	0.06
477.282	0.01
477.482	0.04
477.681	0.08
477.881	0.02
478.08	-0.06
478.28	-0.03
478.479	0.04
478.679	0.12
478.878	-0.03
479.078	0
479.277	0.02
479.477	0.01
479.676	0.07
479.875	-0.01
480.075	-0.05
480.274	0.01
480.473	0.01
480.673	-0.02
480.872	0.04
481.071	0.05
481.271	0.01
481.47	-0.01
481.669	-0.01
481.868	-0.01
482.067	-0.01
482.267	-0.03
482.466	0.01
482.665	-0.05
482.864	-0.03
483.063	-0.02
483.262	0.05
483.461	0.03
483.661	0.03
483.86	0.03
484.059	0.02
484.258	0.01
484.457	-0.01
484.656	0.01
484.855	0.05
485.054	-0.05
485.253	-0.03
485.452	-0.05
485.651	-0.01
485.849	-0.02
486.048	-0.05
486.247	-0.03
486.446	0.01
486.645	-0.02
486.844	-0.02
487.043	-0.01
487.241	0.05
487.44	-0.02
487.639	-0.02
487.838	0.04
488.037	-0.01
488.235	0.07
488.434	0.01
488.633	-0.03
488.831	-0.01
489.03	0.02
489.229	0.03
489.427	-0.03
489.626	0.04
489.825	0.07
490.023	0.02
490.222	-0.04
490.42	0.03
490.619	0.04
490.817	0.02
491.016	-0.02
491.214	0.02
491.413	-0
491.611	-0
491.81	-0.01
492.008	0.02
492.207	0.02
492.405	-0.01
492.604	-0.06
492.802	-0
493	0.01
493.199	0.01
493.397	0
493.595	-0.03
493.794	-0.01
493.992	0.04
494.19	0.02
494.388	0.01
494.587	-0.03
494.785	-0.01
494.983	-0.04
495.181	-0
495.379	0.02
495.578	-0.02
495.776	-0
495.974	0.03
496.172	-0.01
496.37	-0.02
496.568	-0.01
496.766	-0.02
496.964	0.03
497.162	-0
497.36	-0.04
497.558	0.02
497.756	0.04
497.954	-0.02
498.152	-0.03
498.35	-0.01
498.548	0
498.746	0.01
498.944	-0.02
499.142	0.01
499.34	-0.01
499.538	0.01
499.736	-0.03
499.933	0.04
500.131	0.02
500.329	-0.01
500.527	0.03
500.725	0.03
500.922	0.02
501.12	0.03
501.318	0.01
501.516	-0.02
501.713	0.01
501.911	-0
502.109	-0.02
502.306	0.01
502.504	0
502.701	-0.02
502.899	-0.01
503.097	0.03
503.294	0
503.492	-0
503.689	0
503.887	0.02
504.084	0.04
504.282	0
504.479	-0.02
504.677	0.04
504.874	-0.05
505.072	0.02
505.269	-0.01
505.466	0.02
505.664	0.02
505.861	-0.03
506.059	-0.01
506.256	0.02
506.453	-0.01
506.651	0.06
506.848	0.02
507.045	0
507.242	-0
507.44	0.01
507.637	-0
507.834	-0.03
508.031	0.02
508.229	-0.02
508.426	0.01
508.623	0.02
508.82	-0.04
509.017	-0.02
509.214	-0.01
509.411	0.01
509.608	-0.03
509.805	-0.01
510.003	-0.01
510.2	-0.01
510.397	0.03
510.594	-0.02
510.791	-0.01
510.988	-0
511.184	0.02
511.381	-0.01
511.578	-0.02
511.775	0.03
511.972	-0.01
512.169	-0.01
512.366	-0.02
512.563	0.02
512.76	-0.01
512.956	0.02
513.153	-0.03
513.35	0.04
513.547	-0.04
513.744	-0.02
513.94	-0.03
514.137	-0
514.334	-0
514.53	0.02
514.727	-0
514.924	0.05
515.12	-0.04
515.317	-0.04
515.514	-0.03
515.71	-0.02
515.907	-0.02
516.103	0
516.3	0.01
516.497	0.03
516.693	0.04
516.89	-0.01
517.086	-0.03
517.283	0.03
517.479	0
517.676	-0
517.872	0
518.068	-0.02
518.265	-0.01
518.461	0
518.658	-0.02
518.854	-0.01
519.05	-0.03
519.247	-0.03
519.443	0.01
519.639	0
519.836	0.03
520.032	0.01
520.228	0.02
520.424	0.05
520.621	0
520.817	0
521.013	0.01
521.209	0
521.405	0.04
521.601	0.01
521.798	0.01
521.994	0.02
522.19	-0.02
522.386	-0.03
522.582	-0.01
522.778	-0.02
522.974	-0
523.17	0.01
523.366	0.01
523.562	0.04
523.758	0.02
523.954	-0.05
524.15	-0
524.346	0.02
524.542	0.01
524.738	-0.02
524.934	-0.01
525.129	-0.01
525.325	0.01
525.521	-0.02
525.717	0.02
525.913	0
526.109	0.01
526.304	-0.01
526.5	0.01
526.696	0.01
526.892	-0.02
527.087	0.01
527.283	-0.01
527.479	0.05
527.674	-0.03
527.87	-0.02
528.066	-0.03
528.261	0.03
528.457	0
528.653	-0.01
528.848	-0.01
529.044	0.02
529.239	-0.01
529.435	0.03
529.63	0.01
529.826	0.03
530.021	0.02
530.217	0.04
530.412	-0.02
530.608	-0.02
530.803	0.01
530.999	0
531.194	-0.03
531.389	0.01
531.585	-0.05
531.78	-0.01
531.975	0.01
532.171	-0
532.366	0
532.561	-0.03
532.757	-0.01
532.952	-0
533.147	0.02
533.342	-0
533.538	0
533.733	0.01
533.928	0.01
534.123	-0.01
534.318	-0.04
534.513	-0.01
534.709	-0.01
534.904	-0.01
535.099	0.02
535.294	-0
535.489	0
535.684	-0
535.879	-0.04
536.074	-0
536.269	-0.02
536.464	0.01
536.659	-0.02
536.854	-0.02
537.049	-0
537.244	0.01
537.439	0
537.634	0.04
537.828	0.01
538.023	-0.04
538.218	-0.04
538.413	-0.01
538.608	-0.03
538.803	0.02
538.997	-0.02
539.192	0.04
539.387	0.01
539.582	-0.01
539.776	-0.01
539.971	0.01
540.166	0
540.36	-0.05
540.555	-0.01
540.75	-0.02
540.944	0
541.139	-0.03
541.334	-0.02
541.528	0.02
541.723	0.02
541.917	-0.03
542.112	-0.06
542.306	-0.03
542.501	-0.01
542.695	-0
542.89	-0.02
543.084	-0
543.279	-0.01
543.473	-0
543.668	-0.01
543.862	0
544.056	0
544.251	0.01
544.445	0
544.64	-0.02
544.834	-0.03
545.028	-0.01
545.222	0.01
545.417	0
545.611	0
545.805	-0.02
546	-0.02
546.194	-0.02
546.388	0
546.582	0.02
546.776	0.01
546.97	0.01
547.165	0.02
547.359	0.02
547.553	-0.03
547.747	-0
547.941	-0
548.135	-0.01
548.329	0
548.523	-0.01
548.717	0.01
548.911	-0.03
549.105	0.01
549.299	0
549.493	0.02
549.687	0.02
549.881	0.02
550.075	-0.02
550.269	-0.02
550.463	0
550.657	-0.01
550.85	-0
551.044	-0.02
551.238	0
551.432	-0.02
551.626	-0.04
551.82	-0
552.013	-0.04
552.207	0
552.401	0.02
552.594	0
552.788	-0.02
552.982	0.02
553.176	-0.01
553.369	0.01
553.563	0.03
553.756	-0.04
553.95	-0.02
554.144	-0.02
554.337	0.02
554.531	0.02
554.724	-0
554.918	-0
555.111	0.01
555.305	-0.03
555.498	0.05
555.692	0.02
555.885	-0.03
556.079	0.01
556.272	-0
556.466	0.01
556.659	0
556.852	-0.01
557.046	-0.01
557.239	0.02
557.432	-0.04
557.626	-0.04
557.819	-0.01
558.012	0.01
558.206	0.01
558.399	-0.01
558.592	0.02
558.785	-0.02
558.979	0.02
559.172	-0
559.365	0.02
559.558	0.01
559.751	0.01
559.944	-0.01
560.138	-0
560.331	-0.03
560.524	-0.03
560.717	-0.01
560.91	-0.01
561.103	0.02
561.296	0.02
561.489	-0
561.682	0
561.875	0.03
562.068	0.01
562.261	-0
562.454	0.02
562.647	-0
562.84	0.01
563.032	-0.02
563.225	-0
563.418	-0.02
563.611	-0.01
563.804	-0.02
563.997	-0.01
564.19	-0.03
564.382	0.01
564.575	0.01
564.768	-0.03
564.961	0.01
565.153	-0.03
565.346	0.02
565.539	0.02
565.731	0.01
565.924	0.02
566.117	0.01
566.309	0
566.502	-0.01
566.695	-0.01
566.887	0.01
567.08	-0.03
567.272	0
567.465	-0.03
567.657	-0.02
567.85	0.02
568.042	0.02
568.235	0.05
568.427	-0.02
568.62	0.02
568.812	0.01
569.005	-0.01
569.197	-0.05
569.389	0
569.582	0.01
569.774	-0.02
569.966	-0.03
570.159	-0.06
570.351	0.01
570.543	-0.02
570.736	-0.01
570.928	-0.02
571.12	0.02
571.312	-0.03
571.505	-0.04
571.697	0.03
571.889	-0.02
572.081	-0.01
572.273	-0.03
572.465	0.04
572.658	0.01
572.85	0.01
573.042	-0.02
573.234	-0.02
573.426	0.03
573.618	-0.03
573.81	0
574.002	0.03
574.194	0.06
574.386	-0.04
574.578	-0.1
574.77	-0.02
574.962	-0.01
575.154	-0.03
575.346	-0.03
575.538	-0
575.729	-0.02
575.921	0
576.113	-0.02
576.305	0.05
576.497	-0.01
576.689	-0.01
576.88	-0.01
577.072	0.02
577.264	-0.01
577.456	-0.01
577.647	-0.05
577.839	-0.02
578.031	0.01
578.223	-0.06
578.414	-0.05
578.606	0.02
578.798	-0.01
578.989	-0.02
579.181	-0.02
579.372	-0.01
579.564	-0.02
579.755	0.02
579.947	-0.02
580.139	-0
580.33	-0.06
580.522	-0.03
580.713	-0.07
580.905	-0.01
581.096	0.02
581.287	0
581.479	-0.01
581.67	0.02
581.862	-0.02
582.053	-0.03
582.244	-0.06
582.436	-0.01
582.627	-0.01
582.818	-0.06
583.01	-0.04
583.201	0.02
583.392	0.03
583.583	-0.01
583.775	-0.02
583.966	-0.03
584.157	-0.03
584.348	-0.05
584.54	-0.05
584.731	0.01
584.922	-0.01
585.113	-0.03
585.304	0.01
585.495	-0.01
585.686	-0.01
585.877	0.01
586.068	-0.01
586.259	0.02
586.45	-0
586.641	-0.01
586.832	-0.05
587.023	-0.01
587.214	-0.02
587.405	0.02
587.596	-0.03
587.787	0.04
587.978	0
588.169	-0.03
588.36	-0
588.551	0
588.742	-0.02
588.932	-0
589.123	-0.01
589.314	0.04
589.505	0.01
589.696	-0
589.886	-0.03
590.077	-0.03
590.268	0.02
590.458	-0.05
590.649	-0.06
590.84	0.01
591.03	-0.03
591.221	-0.05
591.412	-0.05
591.602	0.02
591.793	0.02
591.984	-0.07
592.174	-0.01
592.365	0.08
592.555	-0.05
592.746	0.02
592.936	-0
593.127	0.02
593.317	0.02
593.508	-0.03
593.698	-0
593.889	-0.02
594.079	0
594.269	-0.01
594.46	-0.02
594.65	-0
594.84	-0.01
595.031	-0.05
595.221	-0.02
595.411	-0.05
595.602	0.01
595.792	-0.03
595.982	-0.03
596.172	0.04
596.363	0.03
596.553	0.01
596.743	-0.01
596.933	-0.01
597.123	0.01
597.314	-0.02
597.504	-0.02
597.694	0.01
597.884	0.02
598.074	-0.03
598.264	-0.02
598.454	0.01
598.644	0
598.834	-0
599.024	-0.07
599.214	-0
599.404	0.01
599.594	-0.01
599.784	-0.05
599.974	0.05
600.164	0
600.354	-0.06
600.544	-0.07
600.734	-0.02
600.924	0.01
601.114	-0.02
601.303	0
601.493	0
601.683	0
601.873	0.01
602.063	-0.06
602.252	0.03
602.442	-0.07
602.632	-0.04
602.821	-0.04
603.011	0.03
603.201	-0.01
603.39	-0.03
603.58	-0.05
603.77	0
603.959	0.03
604.149	0
604.339	-0.02
604.528	0.03
604.718	0.02
604.907	-0.02
605.097	-0.02
605.286	-0.08
605.476	0.01
605.665	0.02
605.855	-0.03
606.044	0.01
606.234	0.02
606.423	-0.02
606.612	-0.04
606.802	0.02
606.991	0.02
607.181	0.03
607.37	-0.07
607.559	-0.04
607.749	-0.05
607.938	-0.02
608.127	-0.03
608.316	-0.04
608.506	0.03
608.695	-0.01
608.884	-0.05
609.073	-0.03
609.263	0.02
609.452	-0.02
609.641	-0.01
609.83	-0.05
610.019	-0.02
610.208	-0.03
610.397	-0.01
610.586	0.04
610.775	-0.04
610.965	-0.02
611.154	-0.03
611.343	0.02
611.532	0.01
611.721	-0.04
611.91	-0.02
612.099	0.02
612.287	-0
612.476	-0.04
612.665	-0.01
612.854	-0.01
613.043	0.02
613.232	-0.02
613.421	-0.05
613.61	-0.01
613.798	-0.02
613.987	0.01
614.176	-0.03
614.365	0.03
614.554	-0
614.742	0.03
614.931	-0.03
615.12	0.02
615.309	-0.03
615.497	-0.02
615.686	-0.02
615.875	-0.01
616.063	0
616.252	-0.02
616.44	-0.03
616.629	-0.04
616.818	0.02
617.006	-0.01
617.195	-0.04
617.383	0.01
617.572	0
617.76	-0.06
617.949	-0.02
618.137	0.01
618.326	0.01
618.514	-0.04
618.703	-0.03
618.891	0.06
619.079	-0.08
619.268	-0.01
619.456	-0.04
619.644	0.06
619.833	-0.01
620.021	-0.04
620.209	-0.07
620.398	0.03
620.586	0.01
620.774	-0.02
620.962	-0.01
621.151	0.06
621.339	-0.03
621.527	-0.07
621.715	-0.06
621.903	-0.05
622.092	-0.04
622.28	-0
622.468	-0.02
622.656	-0.05
622.844	0.01
623.032	-0.05
623.22	-0.1
623.408	0.05
623.596	0.01
623.784	0.04
623.972	-0.05
624.16	-0.01
624.348	0.03
624.536	-0.03
624.724	-0.03
624.912	0.02
625.1	0.01
625.288	-0.04
625.476	-0.05
625.664	0.04
625.851	-0.05
626.039	-0.01
626.227	0.01
626.415	-0.01
626.603	-0.06
626.79	-0.02
626.978	-0.04
627.166	0.01
627.354	0.01
627.541	-0.02
627.729	-0.08
627.917	0.03
628.104	0.02
628.292	0
628.48	-0.02
628.667	-0.01
628.855	-0.02
629.042	0.02
629.23	-0.01
629.418	-0.01
629.605	-0.04
629.793	-0.05
629.98	-0.03
630.168	-0.02
630.355	-0.02
630.543	-0.01
630.73	-0.03
630.917	0.01
631.105	0.07
631.292	-0.04
631.48	-0.04
631.667	0.07
631.854	-0.02
632.042	-0.04
632.229	-0.06
632.416	-0.02
632.604	-0.04
632.791	-0.04
632.978	0.03
633.165	0.02
633.353	0.06
633.54	0.02
633.727	-0.09
633.914	-0.05
634.101	-0.09
634.289	0.02
634.476	-0.06
634.663	-0.05
634.85	-0.01
635.037	-0.08
635.224	-0.1
635.411	0.01
635.598	0.01
635.785	-0.01
635.972	-0.01
636.159	0.03
636.346	-0.02
636.533	-0.04
636.72	-0
636.907	-0.02
637.094	0.04
637.281	-0.05
637.468	-0.01
637.655	-0
637.842	-0.04
638.029	-0.05
638.215	-0.01
638.402	-0.02
638.589	-0.01
638.776	-0.04
638.963	-0.02
639.149	-0.01
639.336	0.04
639.523	-0.02
639.709	-0.01
639.896	-0.04
640.083	0.05
640.27	-0.02
640.456	-0.05
640.643	0.04
640.829	-0.07
641.016	-0
641.203	-0.04
641.389	0.01
641.576	0
641.762	-0.03
641.949	-0.04
642.135	-0.01
642.322	0.02
642.508	-0.09
642.695	-0.01
642.881	-0.01
643.068	-0.02
643.254	-0.03
643.441	0.04
643.627	-0.01
643.813	-0.05
644	0.04
644.186	-0.04
644.372	0
644.559	0.05
644.745	-0.02
644.931	-0.01
645.118	-0.02
645.304	0.02
645.49	-0.04
645.676	-0.07
645.862	0
646.049	0.05
646.235	-0.01
646.421	0.07
646.607	0.07
646.793	-0.04
646.979	-0.07
647.165	0.03
647.352	-0.03
647.538	0.03
647.724	0.01
647.91	-0.01
648.096	0.02
648.282	0.01
648.468	0.01
648.654	-0.03
648.84	0.02
649.026	-0.01
649.212	-0.01
649.397	-0.04
649.583	-0.05
649.769	-0.02
649.955	-0.03
650.141	-0.03
650.327	0.04
650.513	-0.02
650.698	-0
650.884	-0.05
651.07	-0.02
651.256	-0.01
651.442	0
651.627	-0.03
651.813	0.02
651.999	-0.01
652.184	-0
652.37	-0.02
652.556	-0.03
652.741	0.05
652.927	-0.08
653.113	-0.06
653.298	-0
653.484	-0.04
653.669	-0.08
653.855	-0.02
654.04	0.03
654.226	-0.01
654.412	-0.02
654.597	-0.05
654.782	0
654.968	0.02
655.153	0.02
655.339	-0.01
655.524	-0.05
655.71	0.04
655.895	-0.03
656.08	-0.03
656.266	0.02
656.451	0.01
656.636	-0.03
656.822	0.02
657.007	-0.01
657.192	-0.01
657.378	-0.05
657.563	-0.03
657.748	-0
657.933	-0.02
658.118	0
658.304	-0.04
658.489	-0.01
658.674	-0.01
658.859	-0.03
659.044	0.02
659.229	0.02
659.414	-0.04
659.599	-0.04
659.785	-0.05
659.97	-0.04
660.155	-0.01
660.34	-0.01
660.525	-0.02
660.71	-0.02
660.895	0.05
661.08	-0.01
661.264	-0.04
661.449	0.04
661.634	0.03
661.819	-0
662.004	-0.02
662.189	-0.07
662.374	-0.07
662.559	-0.07
662.743	-0.08
662.928	0.01
663.113	-0.03
663.298	-0.09
663.483	-0.03
663.667	0
663.852	-0.07
664.037	0.04
664.221	-0.04
664.406	0.02
664.591	-0.05
664.775	0.02
664.96	-0.06
665.145	-0.02
665.329	0.02
665.514	-0.04
665.698	-0.05
665.883	-0.1
666.068	0.07
666.252	-0.01
666.437	-0.05
666.621	0.02
666.806	0.02
666.99	-0.03
667.174	-0.08
667.359	0.03
667.543	-0.03
667.728	-0.03
667.912	-0.1
668.096	0
668.281	-0.04
668.465	-0.02
668.649	-0
668.834	-0.02
669.018	0.01
669.202	-0
669.387	-0.04
669.571	0.07
669.755	-0.01
669.939	-0.04
670.124	-0.02
670.308	0.05
670.492	0.01
670.676	-0.04
670.86	-0.04
671.044	-0.06
671.228	0.02
671.413	-0.06
671.597	-0.05
671.781	-0.05
671.965	0.05
672.149	-0.05
672.333	-0.03
672.517	-0.04
672.701	-0.01
672.885	-0.02
673.069	-0.06
673.253	0.05
673.437	-0.05
673.621	-0.07
673.804	-0.07
673.988	0.02
674.172	0.01
674.356	-0.1
674.54	-0.05
674.724	0.1
674.908	-0.05
675.091	0.04
675.275	-0.04
675.459	0.03
675.643	-0.05
675.826	-0.02
676.01	-0.01
676.194	-0.02
676.377	0.02
676.561	0.03
676.745	-0.04
676.928	0.01
677.112	0.04
677.296	-0.06
677.479	-0.06
677.663	-0.03
677.846	0.02
678.03	-0.02
678.213	-0.05
678.397	0.01
678.58	-0.01
678.764	-0.03
678.947	-0.07
679.131	-0.05
679.314	0.07
679.498	-0.05
679.681	-0.01
679.865	0.01
680.048	-0.01
680.231	-0.01
680.415	-0.05
680.598	-0.02
680.781	-0.01
680.965	-0.02
681.148	0.02
681.331	-0.01
681.514	0.03
681.698	-0.04
681.881	-0.04
682.064	-0.01
682.247	-0.03
682.43	-0.09
682.614	0.01
682.797	0.05
682.98	0.02
683.163	-0.05
683.346	0.01
683.529	-0.04
683.712	-0.06
683.895	-0.01
684.078	-0.03
684.261	-0.04
684.444	-0
684.627	0
684.81	-0.07
684.993	0.02
685.176	0.01
685.359	-0.06
685.542	-0.09
685.725	0.05
685.908	0
686.091	-0.08
686.274	0.06
686.457	-0.01
686.639	-0.05
686.822	0.01
687.005	-0.04
687.188	0.01
687.371	0.08
687.553	-0.03
687.736	-0.02
687.919	0.06
688.102	0.07
688.284	-0.02
688.467	-0.01
688.65	-0.03
688.832	-0.04
689.015	-0.01
689.197	-0.03
689.38	0.04
689.563	0.08
689.745	-0.04
689.928	-0.04
690.11	-0.02
690.293	0
690.475	-0.12
690.658	-0.01
690.84	-0.04
691.023	0.01
691.205	-0.05
691.388	-0.03
691.57	0.03
691.752	0.05
691.935	-0.11
692.117	-0.03
692.3	0.01
692.482	-0.01
692.664	0.01
692.847	0.02
693.029	0.06
693.211	-0.01
693.393	-0.04
693.576	-0.05
693.758	0.02
693.94	-0.01
694.122	-0
694.304	-0.02
694.487	-0.06
694.669	0.06
694.851	-0.05
695.033	-0.03
695.215	-0.06
695.397	-0.05
695.579	-0.01
695.761	-0.06
695.943	-0.11
696.125	0.1
696.308	-0.01
696.49	-0.14
696.671	0.09
696.853	-0.04
697.035	0.09
697.217	0.01
697.399	-0.03
697.581	-0.04
697.763	-0.02
697.945	-0.07
698.127	-0
698.309	0.04
698.491	-0
698.672	0.01
698.854	0
699.036	0.04
699.218	-0.04
699.399	0.02
699.581	-0.01
699.763	0
699.945	-0.08
700.126	-0.1
700.308	0.04
700.49	-0.05
700.671	-0.1
700.853	-0.09
701.035	-0.06
701.216	-0.02
701.398	-0.09
701.579	-0.01
701.761	-0.01
701.943	-0.07
702.124	-0.09
702.306	-0.06
702.487	0.14
702.669	-0.03
702.85	-0.06
703.031	-0.09
703.213	0.1
703.394	0.08
703.576	-0.04
703.757	0.09
703.938	0.05
704.12	0.2
704.301	-0.01
704.483	-0.01
704.664	0.03
704.845	0.11
705.026	0.04
705.208	-0.06
705.389	-0.02
705.57	-0.02
705.751	-0
705.933	-0.04
706.114	0.06
706.295	-0
706.476	-0.04
706.657	0.08
706.838	0.09
707.02	0.05
707.201	-0.03
707.382	-0.04
707.563	0.02
707.744	-0.03
707.925	-0.07
708.106	-0.04
708.287	0.05
708.468	0.13
708.649	-0.05
708.83	0.02
709.011	0
709.192	0.03
709.373	-0.13
709.554	-0.07
709.734	0.04
709.915	0
710.096	-0
710.277	-0.12
710.458	0.02
710.639	0.07
710.819	-0.12
711	-0.02
711.181	0.09
711.362	0.06
711.542	0.03
711.723	-0.01
711.904	0.07
712.085	0.02
712.265	-0.02
712.446	-0.12
712.627	-0.01
712.807	-0
712.988	-0.01
713.168	-0.19
713.349	-0.04
713.53	-0.08
713.71	-0.09
713.891	-0.07
714.071	0.03
714.252	-0.13
714.432	-0.04
714.613	-0.12
714.793	0.04
714.974	0.06
715.154	0.05
715.334	-0
715.515	0.06
715.695	-0.09
715.876	-0.04
716.056	-0.05
716.236	-0.02
716.417	-0.04
716.597	-0.18
716.777	0.12
716.957	-0.02
717.138	-0.04
717.318	-0.01
717.498	-0.07
717.678	-0.06
717.859	0.04
718.039	-0.17
718.219	0.06
718.399	0.06
718.579	-0.09
718.759	-0.11
718.939	0.01
719.12	-0
719.3	-0.01
719.48	-0.14
719.66	-0.16
719.84	0.02
720.02	0.02
720.2	-0.11
720.38	0
720.56	0.08
720.74	-0.12
720.92	0.03
721.1	0.14
721.279	0.09
721.459	0
721.639	-0.08
721.819	0.01
721.999	-0.1
722.179	0.06
722.359	-0.05
722.538	-0.03
722.718	-0.05
722.898	-0.02
723.078	-0.08
723.257	-0.1
723.437	0.02
723.617	0.03
723.797	-0.08
723.976	-0.02
724.156	-0.02
724.336	0.05
724.515	0.11
724.695	-0.15
724.874	-0.03
725.054	0.01
725.234	-0.12
725.413	-0.04
725.593	-0.02
725.772	-0.03
725.952	-0.09
726.131	-0.05
726.311	-0.02
726.49	-0.02
726.67	-0.14
726.849	-0.14
727.028	0.01
727.208	-0.01
727.387	0.06
727.567	-0.08
727.746	-0.07
727.925	-0.05
728.105	-0.14
728.284	-0.09
728.463	-0.32
728.643	-0.08
728.822	-0.09
729.001	-0.08
729.18	-0.12
729.359	0.04
729.539	-0.06
729.718	-0.05
729.897	0.05
730.076	-0.07
730.255	-0.16
730.434	0.01
730.614	0.04
730.793	0.08
730.972	-0.04
731.151	-0.09
731.33	0.05
731.509	0.04
731.688	-0.01
731.867	-0.02
732.046	-0.2
732.225	0.2
732.404	-0.01
732.583	-0.15
732.762	-0.05
732.941	0.06
733.12	-0.09
733.298	-0.08
733.477	0.05
733.656	-0.02
733.835	-0.08
734.014	-0.01
734.193	0.02
734.371	-0.01
734.55	0.05
734.729	-0.16
734.908	-0.09
735.086	-0.06
735.265	0.06
735.444	-0.11
735.623	-0.2
735.801	-0.14
735.98	0.04
736.159	-0.15
736.337	0.03
736.516	-0.1
736.694	0.08
736.873	-0.1
737.052	0.15
737.23	0.12
737.409	-0
737.587	0.15
737.766	-0.18
737.944	-0.16
738.123	-0.03
738.301	0.06
738.479	0.01
738.658	-0.05
738.836	-0.19
739.015	-0.03
739.193	0.08
739.371	-0.05
739.55	-0.1
739.728	-0.16
739.906	0.08
740.085	0.06
740.263	-0.03
740.441	-0.21
740.62	0.05
740.798	0.04
740.976	-0.07
741.154	-0.07
741.332	0.08
741.511	-0.04
741.689	-0.03
741.867	0.04
742.045	-0.12
742.223	-0.01
742.401	-0.14
742.579	-0.06
742.757	0.05
742.935	-0.14
743.114	-0.08
743.292	-0.04
743.47	-0.09
743.648	-0.04
743.826	-0.13
744.004	0.08
744.181	0.02
744.359	-0.07
744.537	0.04
744.715	-0
744.893	-0.01
745.071	0
745.249	-0.05
745.427	-0.01
745.605	0.12
745.782	-0.03
745.96	0.14
746.138	0.04
746.316	0.05
746.493	-0.02
746.671	-0.01
746.849	-0.07
747.027	0.15
747.204	-0.14
747.382	0.01
747.56	-0.26
747.737	0.04
747.915	-0.01
748.093	-0
748.27	-0.11
748.448	-0.04
748.625	-0.12
748.803	-0.15
748.98	-0.05
749.158	0.16
749.335	0.07
749.513	-0.03
749.69	-0.08
749.868	-0.02
750.045	0.09
750.223	0.01
750.4	-0.2
750.578	0.21
750.755	-0
750.932	-0.13
751.11	0.07
751.287	-0.19
751.464	0.14
751.642	-0.04
751.819	0.04
751.996	-0.03
752.173	-0.02
752.351	-0.14
752.528	0
752.705	-0.07
752.882	-0.18
753.06	-0.03
753.237	-0
753.414	0.22
753.591	0.16
753.768	0.08
753.945	0.03
754.122	-0
754.299	0.04
754.476	-0.03
754.654	-0.05
754.831	0.02
755.008	0.07
755.185	-0.05
755.362	-0.19
755.539	-0.03
755.716	-0.02
755.892	0.04
756.069	-0.02
756.246	-0
756.423	-0.08
756.6	0.06
756.777	-0.04
756.954	0.19
757.131	-0.12
757.307	-0.2
757.484	-0.2
757.661	0.08
757.838	-0.04
758.015	-0.15
758.191	-0.06
758.368	0.16
758.545	0.22
758.721	0.04
758.898	-0.11
759.075	0.01
759.251	0.08
759.428	0.04
759.605	-0.26
759.781	-0.09
759.958	0.15
760.134	0.06
760.311	0.01
760.488	0.14
760.664	0.09
760.841	0.02
761.017	-0.07
761.194	0.08
761.37	0.07
761.547	-0.1
761.723	-0.05
761.899	0.19
762.076	-0.16
762.252	-0.24
762.429	-0.11
762.605	0.03
762.781	-0.06
762.958	0.15
763.134	-0.16
763.31	-0.05
763.486	0.12
763.663	-0.22
763.839	-0.05
764.015	-0.18
764.191	-0.1
764.368	-0.08
764.544	-0.05
764.72	-0.04
764.896	0.02
765.072	-0.13
765.248	-0.01
765.425	-0.05
765.601	0.06
765.777	0.01
765.953	-0.35
766.129	-0.01
766.305	-0.02
766.481	0.09
766.657	0.01
766.833	0.08
767.009	-0.19
767.185	-0.13
767.361	0.03
767.537	-0.05
767.713	0.1
767.889	-0.17
768.065	-0.03
768.24	-0.26
768.416	0.12
768.592	-0.05
768.768	-0.04
768.944	-0.01
769.12	-0.17
769.295	-0.04
769.471	-0.07
769.647	-0.05
769.823	0.04
769.998	-0.13
770.174	-0.2
770.35	0.22
770.525	0.18
770.701	0.03
770.877	-0.06
771.052	-0.21
771.228	0.12
771.403	-0.08
771.579	0.03
771.755	0.4
771.93	-0.03
772.106	-0.23
772.281	-0.16
772.457	-0.04
772.632	-0.14
772.808	-0.18
772.983	-0.08
773.159	-0.17
773.334	0.27
773.509	0.1
773.685	-0.1
773.86	0.27
774.036	0.21
774.211	0.06
774.386	-0.07
774.562	-0.03
774.737	0.2
774.912	-0.03
775.087	0.1
775.263	-0.05
775.438	0.05
775.613	-0.13
775.788	0.04
775.964	-0
776.139	0.38
776.314	-0.14
776.489	0.01
776.664	0.03
776.839	-0.3
777.014	0.17
777.19	0.06
777.365	0.2
777.54	0.21
777.715	-0.08
777.89	-0.07
778.065	-0.18
778.24	-0.01
778.415	0.17
778.59	-0.23
778.765	0.1
778.94	0.11
779.115	-0.1
779.289	-0.08
779.464	-0.09
779.639	-0.15
779.814	-0.26
779.989	-0.26
780.164	0.31
780.339	0.01
780.513	-0.31
780.688	-0.23
780.863	-0.02
781.038	0.21
781.212	-0.09
781.387	-0.14
781.562	0.36
781.737	-0.04
781.911	0.2
782.086	-0.15
782.261	-0.05
782.435	0.12
782.61	-0.18
782.784	-0.04
782.959	0.36
783.134	-0.16
783.308	-0.22
783.483	-0.14
783.657	0.46
783.832	0.21
784.006	-0.41
784.181	0.03
784.355	0.2
784.53	-0.26
784.704	-0.32
784.878	0.12
785.053	0.09
785.227	0.02
785.402	0.23
785.576	-0.37
785.75	-0.07
785.925	-0.11
786.099	-0.1
786.273	0.09
786.448	0.18
786.622	0.05
786.796	0.04
786.97	-0.12
787.145	0.35
787.319	-0.17
787.493	-0.14
787.667	-0.36
787.841	-0.04
788.015	0.15
788.19	-0.27
788.364	-0.04
788.538	0.11
788.712	0.17
788.886	-0.17
789.06	0.28
789.234	0.22
789.408	-0.09
789.582	-0.16
789.756	-0.13
789.93	-0.33
790.104	-0.25
790.278	-0.21
790.452	-0.14
790.626	0.25
790.8	-0.27
790.973	0.11
791.147	0.3
791.321	0.2
791.495	0.18
791.669	0.09
791.843	0.17
792.016	-0.12
792.19	0.33
792.364	-0.23
792.538	0.47
792.711	0.19
792.885	-0.28
793.059	-0.24
793.233	-0.37
793.406	0.17
793.58	0.01
793.754	0.07
793.927	0.07
794.101	0.28
794.274	0.13
794.448	0.27
794.622	-0.36
794.795	0.23
794.969	-0.16
795.142	0.26
795.316	-0.22
795.489	-0.04
795.663	0.39
795.836	-0.1
796.009	-0.22
796.183	0.17
796.356	0.27
796.53	0.04
796.703	-0.21
796.876	0.54
797.05	-0.12
797.223	-0.09
797.396	0.05
797.57	0.02
797.743	0.38
797.916	0.02
798.09	-0.09
798.263	0.23
798.436	0.17
798.609	-0.24
798.782	-0.19
798.956	0.14
799.129	-0.1
799.302	-0.33
799.475	-0.23
799.648	-0.09
799.821	-0.43
799.994	-0.13
800.167	-0.46
800.34	-0.25
800.514	0.08
800.687	-0.08
800.86	-0.24
801.033	0.08
801.206	0.04
801.379	-0.21
801.551	0.21
801.724	0.2
801.897	0.47
802.07	-0.08
802.243	-0.48
802.416	-0.18
802.589	-0.22
802.762	-0.04
802.935	-0.31
803.107	0
803.28	0.25
803.453	0.31
803.626	-0.33
803.798	-0.1
803.971	-0.29
804.144	0.14
804.317	0.1
804.489	0.12
804.662	0.43
804.835	-0.09
805.007	-0.18
805.18	0.32
805.353	0.02
805.525	-0.53
805.698	-0.25
805.87	0.18
806.043	0.24
806.215	-0.18
806.388	-0.26
806.56	0.05
806.733	0.16
806.905	-0.03
807.078	-0.46
807.25	-0.2
807.423	0.18
807.595	-0.29
807.768	0.29
807.94	0.23
808.112	-0.05
808.285	0.21
808.457	-0.48
808.629	-0.35
808.802	0.17
808.974	-0.1
809.146	-0.15
809.318	-0.5
809.491	0.03
809.663	0.07
809.835	-0.35
810.007	0.39
810.18	-0.23
810.352	-0.46
810.524	-0.11
810.696	0.25
810.868	0.12
811.04	-0.16
811.212	-0.14
811.384	0.18
811.556	-0.23
811.728	0
811.901	0.26
812.073	-0.34
812.245	0.46
812.417	-0.01
812.589	-0.88
812.76	-0.13
812.932	0.26
813.104	0.06
813.276	0.01
813.448	0.09
813.62	0.08
813.792	0.11
813.964	-0
814.136	-0.02
814.307	-0.55
814.479	-0.24
814.651	-0.21
814.823	0.85
814.995	0.03
815.166	0.16
815.338	-0.58
815.51	-0.49
815.681	0.75
815.853	-0.01
816.025	0.27
816.196	0.35
816.368	-0.04
816.54	-0.46
816.711	-0.57
816.883	0.01
817.054	0.95
817.226	-0.78
817.398	-0.39
817.569	-0.38
817.741	0.16
817.912	0.29
818.084	-0.28
818.255	0.06
818.426	-0.45
818.598	-0.51
818.769	-0.28
818.941	0.57
819.112	0.68
819.283	0.29
819.455	-0.52
819.626	-0.08
819.798	-0.04
819.969	0.39
820.14	-0.57
820.311	-0.49
820.483	0.21
820.654	-0.01
820.825	-0.1
820.996	-0.27
821.168	-0.67
821.339	-0.21
821.51	-0.85
821.681	-0.43
821.852	-0.08
822.023	-0.66
822.195	-0.5
822.366	0.25
822.537	0.29
822.708	0.03
822.879	-0.33
823.05	0.29
823.221	0.13
823.392	-0
823.563	-0.21
823.734	-0.58
823.905	-0.08
824.076	-0.59
824.247	-0.14
824.418	-0.65
824.589	0.47
824.759	-0.24
824.93	0.17
825.101	-0.71
825.272	0.38
825.443	0.34
825.614	0.38
825.784	-0.98
825.955	0.93
826.126	0.59
826.297	0.05
826.467	0.71
826.638	0.79
826.809	-1.2
826.98	-0.27
827.15	0.24
827.321	0.15
827.492	0.21
827.662	0.64
827.833	1.49
828.003	0.28
828.174	-0.88
828.345	-0.61
828.515	0.34
828.686	-0.09
828.856	-0.55
829.027	-0.01
829.197	-0.04
829.368	0.23
829.538	-0.26
829.709	-0.59
829.879	0.51
830.049	-0.17
830.22	-0.9
830.39	-0.44
830.56	-0.25
830.731	-0.39
830.901	-0.67
831.072	-0.62
831.242	-0.14
831.412	-0.32
831.582	-0.56
831.753	-1.3
831.923	0.63
832.093	-0.41
832.263	-0.14
832.434	-1.21
832.604	-0.63
832.774	0.46
832.944	-0.14
833.114	-0.36
833.284	0.59
833.454	-0.45
833.624	-0.41
833.795	-0.02
833.965	0.75
834.135	1.12
834.305	-0.93
834.475	-1.22
834.645	-0.09
834.815	-0.12
834.985	-0.2
835.155	-0.05
835.325	-0.14
835.494	0.49
835.664	-0.4
835.834	-0.99
836.004	0.42
836.174	0.3
836.344	-0.62
836.514	-0.62
836.684	-0.37
836.853	-0.6
837.023	-0.04
837.193	-0.46
837.363	0.5
837.532	0.37
837.702	-1.08
837.872	-0.61
838.041	0.52
838.211	1.17
838.381	-0.81
838.55	-0.37
838.72	1.37
838.89	1.41
839.059	-0.2
839.229	-0.64
839.398	0.47
839.568	-0.26
839.738	-0.49
839.907	0.33
840.077	1.05
840.246	-0.36
840.416	-0.76
840.585	-0.89
840.755	1.12
840.924	0.74
841.093	-1.05
841.263	-0.49
841.432	-0.06
841.602	-1.13
841.771	-1.12
841.94	0.12
842.11	2.75
842.279	0.7
842.448	-0.5
842.617	-0.84
842.787	1.43
842.956	-0.93
843.125	-0.63
843.294	0.42
843.464	0.92
843.633	-0.22
843.802	-1.3
843.971	-1.02
844.14	0.65
844.309	0.27
844.479	-0.59
844.648	-0.18
844.817	-0.63
844.986	0.12
845.155	-0.18
845.324	-0.25
845.493	-0.32
845.662	-0.86
845.831	0.48
846	0.51
846.169	-0.09
846.338	1.13
846.507	0.66
846.676	0.04
846.844	-0.53
847.013	0.22
847.182	0.22
847.351	-0.26
847.52	-0.04
847.689	0.16
847.858	-0
848.026	-0.28
848.195	-0.12
848.364	-0.76
848.533	-0.62
848.701	-1.57
848.87	-0.07
849.039	0.45
849.207	1.07
849.376	0.9
849.545	1.55
849.713	-0.93
849.882	-0.52
850.051	-0.27
850.219	0.07
850.388	0.08
850.556	-1.46
850.725	-1.48
850.893	-0.15
851.062	-0.39
851.23	0.5
851.399	-1.78
851.567	-1.11
851.736	-0.83
851.904	-0.95
852.073	-0.79
852.241	-0.12
852.41	-0.59
852.578	0.36
852.746	-0.85
852.915	0.32
853.083	-0.14
853.251	-1.45
853.42	-0.63
853.588	-0.09
853.756	1.09
853.924	-0.94
854.093	-0.65
854.261	-0.5
854.429	-1.48
854.597	-0.64
854.765	-0.79
854.934	0.31
855.102	1.76
855.27	-0.29
855.438	0.02
855.606	-0.13
855.774	1.03
855.942	-1.45
856.11	-1.78
856.278	0.04
856.446	0.53
856.614	-0.35
856.782	-0.84
856.95	1.02
857.118	-0.5
857.286	0.4
857.454	-0.34
857.622	0.83
857.79	-0.06
857.958	-1.54
858.126	-0.76
858.294	-2.68
858.462	0.45
858.629	-0.34
858.797	-0.92
858.965	0.29
859.133	0.32
859.301	-1.08
859.468	0.64
859.636	-0.29
859.804	1.78
859.971	0.16
860.139	-1.01
860.307	1.17
860.474	0.18
860.642	-1.12
860.81	-0.99
860.977	-0.83
861.145	-0.38
861.313	-0.79
861.48	0.12
861.648	0.28
861.815	-0.42
861.983	-1.83
862.15	-1.6
862.318	1.43
862.485	1.79
862.653	-0.56
862.82	-1.67
862.988	2.69
863.155	0.64
863.322	-1.26
863.49	-1.63
863.657	-0.73
863.824	0.93
863.992	0.92
864.159	-0.5
864.326	1.28
864.494	0.59
864.661	2.72
864.828	-2.51
864.996	1.03
865.163	2.05
865.33	-2.28
865.497	-2.05
865.664	0.18
865.832	-1.67
865.999	-0.21
866.166	-0.58
866.333	-0.3
866.5	-1.37
866.667	-0.67
866.834	-0.41
867.001	1.78
867.168	-1.76
867.335	-0.84
867.502	-2.35
867.669	0.26
867.836	1.65
868.003	0.23
868.17	0.57
868.337	-0.42
868.504	2.43
868.671	-2.31
868.838	-2.11
869.005	0.87
869.172	2.02
869.339	-1.48
869.505	0.37
869.672	-0.35
869.839	2.78
870.006	0.56
870.173	-0.64
870.339	-0.83
870.506	2.74
870.673	-1.18
870.84	1.52
871.006	0.34
871.173	0.39
871.34	0.11
871.506	-2.46
871.673	1.63
871.839	-1.22
872.006	-1.5
872.173	-1.14
872.339	0.72
872.506	1.07
872.672	-0.01
872.839	-2.49
873.005	0.24
873.172	3.66
873.338	0.04
873.505	1.4
873.671	-0.23
873.838	1.81
874.004	-3.34
874.171	-0.84
874.337	0.04
874.503	1.57
874.67	0.6
874.836	0.34
875.002	1.91
875.169	0.76
875.335	-0.2
875.501	-1.13
875.668	0.36
875.834	-1.48
876	-0.52
876.166	0.15
876.332	-0.12
876.499	3.46
876.665	-1.44
876.831	-0.87
876.997	1.8
877.163	1.68
877.329	-0.92
877.495	-0.25
877.662	0.23
877.828	0.23
877.994	-0.73
878.16	-3.13
878.326	-1.21
878.492	-0.86
878.658	-0.67
878.824	-0.27
878.99	0.33
879.156	-2.65
879.322	1.64
879.487	-1.04
879.653	0.07
879.819	0.05
879.985	-2.87
880.151	0.33
880.317	-0.44
880.483	-1.8
880.648	0.25
880.814	-1.91
880.98	0.03
881.146	-3.37
881.312	-1.02
881.477	-1.85
881.643	-1.38
881.809	-0.74
881.974	1.18
882.14	-1.32
882.306	-1.21
882.471	2.89
882.637	-1.72
882.803	0.12
882.968	2.25
883.134	3.81
883.299	-1.67
883.465	-0.72
883.63	1.89
883.796	2.1
883.961	2.31
884.127	0.27
884.292	-5.04
884.458	-1.85
884.623	-1.85
