Data from Apollo_Calib_20240827__AbsoluteIrradiance__301__04-10-00-879.txt Node

Date: Wed Aug 28 04:10:00 BST 2024
User: biology
Spectrometer: FLMT08252
Trigger mode: 0
Integration Time (sec): 5.000000E-1
Scans to average: 5
Electric dark correction enabled: true
Nonlinearity correction enabled: false
Boxcar width: 0
XAxis mode: Wavelengths
Number of Pixels in Spectrum: 3648
>>>>>Begin Spectral Data<<<<<
179.588	-0
179.809	-0
180.03	-0
180.251	-0
180.473	-0
180.694	0
180.915	0
181.136	-0
181.357	0
181.578	-0
181.799	-0
182.02	-0
182.241	-0
182.462	-0
182.683	0
182.904	-0
183.125	-0
183.346	0
183.567	0
183.788	-0
184.009	-0
184.23	-0
184.451	-0
184.672	-0
184.892	-0
185.113	0
185.334	0
185.555	-0
185.776	-0
185.996	0
186.217	0
186.438	-0
186.659	-0
186.879	-0
187.1	-0
187.321	-0
187.541	-0
187.762	-0
187.983	-0
188.203	-0
188.424	-0
188.644	-0
188.865	0
189.086	-0
189.306	-0
189.527	-0
189.747	-0
189.968	-0
190.188	0
190.409	0
190.629	0
190.849	-0
191.07	-0
191.29	0
191.511	-0
191.731	-0
191.951	-0
192.172	-0
192.392	-0
192.612	-0
192.833	-0
193.053	-0
193.273	0
193.493	-0
193.714	-0
193.934	0
194.154	0
194.374	-0
194.594	-0
194.815	-0
195.035	-0
195.255	-0
195.475	-0
195.695	0
195.915	0
196.135	-0
196.355	0
196.575	0
196.795	0
197.015	-0
197.235	-0
197.455	-0
197.675	-0
197.895	-0
198.115	-0
198.335	0
198.555	-0
198.775	0
198.995	-0
199.214	0
199.434	-0
199.654	-0
199.874	-0
200.094	0.98
200.313	-0.44
200.533	-0.89
200.753	-0.9
200.973	0.44
201.192	0.21
201.412	-1.35
201.632	-0.62
201.851	0.3
202.071	-0.32
202.291	-0.86
202.51	-0.94
202.73	0.39
202.95	-0.93
203.169	-1.1
203.389	-0.42
203.608	0.16
203.828	-0.69
204.047	-0.68
204.267	0.19
204.486	-0.25
204.706	-0.03
204.925	-0.73
205.145	-0.8
205.364	0.4
205.583	0.77
205.803	-0.59
206.022	-0.77
206.242	-0.36
206.461	-0.28
206.68	-0.47
206.9	-0.14
207.119	0.65
207.338	0.35
207.557	-0.37
207.777	0.03
207.996	-0.46
208.215	0.47
208.434	-0.36
208.654	-0.69
208.873	-0.17
209.092	0.54
209.311	-0.21
209.53	-0.17
209.749	-0.35
209.968	-0.3
210.187	-0.24
210.407	-0.67
210.626	-0.37
210.845	-0.09
211.064	-0.13
211.283	-0.48
211.502	0.02
211.721	-0.25
211.94	-0.34
212.159	-0.21
212.377	-0.07
212.596	0.46
212.815	0.06
213.034	-0.13
213.253	0.05
213.472	0.14
213.691	-0.25
213.91	-0.27
214.128	-0.22
214.347	0.1
214.566	-0.65
214.785	-0.53
215.003	0.12
215.222	0.11
215.441	-0.1
215.66	-0.43
215.878	-0.22
216.097	0.14
216.316	-0.42
216.534	-0.37
216.753	-0.07
216.972	-0.19
217.19	-0.19
217.409	-0.27
217.627	-0.09
217.846	-0.33
218.064	-0.03
218.283	-0.27
218.501	0.35
218.72	0.14
218.938	-0.35
219.157	-0.23
219.375	0.01
219.594	0.22
219.812	-0.37
220.031	-0.26
220.249	0.18
220.467	0.04
220.686	-0.14
220.904	-0.29
221.122	-0.22
221.341	0.23
221.559	-0.04
221.777	-0.17
221.995	-0.1
222.214	-0.02
222.432	-0.15
222.65	0.09
222.868	0.04
223.086	-0.1
223.305	0.09
223.523	-0.2
223.741	0.35
223.959	-0.07
224.177	-0.26
224.395	-0.11
224.613	0.04
224.831	0.04
225.049	-0.27
225.267	-0.16
225.485	-0.09
225.703	-0.15
225.921	-0.19
226.139	-0.29
226.357	0.12
226.575	0.02
226.793	-0.19
227.011	0.63
227.229	0.02
227.447	0.27
227.665	-0.17
227.883	-0.28
228.1	-0.01
228.318	-0.02
228.536	-0.44
228.754	-0.23
228.972	0.13
229.189	0.1
229.407	-0.17
229.625	-0.18
229.843	0.11
230.06	0.05
230.278	-0.18
230.496	-0.14
230.713	-0.04
230.931	0.02
231.149	-0.13
231.366	-0.28
231.584	-0.04
231.801	0.32
232.019	-0.06
232.236	-0.28
232.454	-0.15
232.671	-0.03
232.889	0.01
233.106	-0.25
233.324	-0.03
233.541	-0.12
233.759	-0.05
233.976	-0.17
234.194	0.05
234.411	-0
234.628	-0.1
234.846	-0.19
235.063	-0.04
235.28	-0.02
235.498	-0.06
235.715	-0.23
235.932	0.04
236.149	-0.05
236.367	-0.17
236.584	-0.09
236.801	-0.14
237.018	0.08
237.236	-0.02
237.453	-0.23
237.67	0.07
237.887	-0.08
238.104	-0.1
238.321	-0.17
238.538	-0.17
238.755	0.12
238.973	-0.19
239.19	-0.07
239.407	0.06
239.624	-0.04
239.841	-0.12
240.058	-0.24
240.275	0.06
240.492	-0.04
240.709	-0.08
240.925	-0.08
241.142	-0.13
241.359	-0.14
241.576	-0.16
241.793	-0.17
242.01	-0.03
242.227	0.05
242.444	0.01
242.66	0.03
242.877	0.04
243.094	-0.05
243.311	-0.04
243.527	-0.17
243.744	-0.07
243.961	0.04
244.178	-0.16
244.394	-0.05
244.611	0.1
244.828	0.1
245.044	-0.09
245.261	-0.07
245.477	-0.04
245.694	-0.02
245.911	-0.08
246.127	-0.04
246.344	0.11
246.56	0.01
246.777	-0.04
246.993	-0.12
247.21	0
247.426	0.09
247.643	-0.14
247.859	-0.11
248.076	-0.18
248.292	0.19
248.508	-0.06
248.725	-0.05
248.941	0.01
249.157	0.05
249.374	-0.1
249.59	-0.09
249.806	-0.14
250.023	0.01
250.239	-0.1
250.455	-0.17
250.671	-0.05
250.888	0.04
251.104	-0.05
251.32	-0.12
251.536	-0.03
251.752	-0.1
251.969	-0.03
252.185	-0.06
252.401	0.17
252.617	0.07
252.833	-0.04
253.049	-0.04
253.265	-0.03
253.481	0.06
253.697	-0.16
253.913	-0.14
254.129	-0.04
254.345	-0.06
254.561	-0.09
254.777	-0.08
254.993	-0
255.209	-0.03
255.425	-0.03
255.641	-0.13
255.857	0.11
256.073	-0.07
256.288	-0.08
256.504	-0.08
256.72	-0.03
256.936	0.12
257.152	-0.05
257.367	-0.07
257.583	-0.02
257.799	0.1
258.015	-0.07
258.23	-0.06
258.446	0.13
258.662	-0.04
258.877	-0.07
259.093	-0.11
259.309	-0.03
259.524	0.02
259.74	-0.1
259.955	-0.15
260.171	-0.07
260.387	-0.05
260.602	-0.03
260.818	0.07
261.033	-0.13
261.249	-0.05
261.464	-0.1
261.68	-0.12
261.895	-0.04
262.11	0.1
262.326	-0.14
262.541	-0.16
262.757	0.03
262.972	0.01
263.187	-0
263.403	-0.04
263.618	0.04
263.833	-0.01
264.049	-0.11
264.264	0.02
264.479	-0.01
264.694	0.04
264.91	-0.12
265.125	-0.05
265.34	0.06
265.555	0.11
265.77	-0.01
265.986	-0.03
266.201	0.02
266.416	0.08
266.631	-0.07
266.846	-0.08
267.061	0.06
267.276	0.01
267.491	-0.17
267.706	-0.06
267.921	0.03
268.136	0.02
268.351	-0
268.566	-0.14
268.781	0.09
268.996	0.01
269.211	0
269.426	-0.1
269.641	-0.1
269.856	0.02
270.071	-0.11
270.285	-0.12
270.5	0
270.715	0.06
270.93	-0.05
271.145	-0.03
271.359	-0.03
271.574	-0.04
271.789	-0.02
272.004	-0.07
272.218	-0.07
272.433	0.06
272.648	-0.09
272.862	-0.04
273.077	-0.01
273.292	-0.01
273.506	-0.12
273.721	-0.08
273.936	0.03
274.15	0.03
274.365	-0.07
274.579	-0.01
274.794	0.01
275.008	0.04
275.223	-0.13
275.437	-0.04
275.652	0
275.866	0.02
276.081	-0.04
276.295	-0.01
276.509	-0.06
276.724	-0.02
276.938	-0
277.153	0.01
277.367	0.05
277.581	-0.07
277.796	-0.01
278.01	-0.11
278.224	0.02
278.438	0.12
278.653	-0.12
278.867	-0.04
279.081	0.02
279.295	-0.06
279.51	0.06
279.724	-0.13
279.938	-0.02
280.152	-0.02
280.366	-0.09
280.58	-0.02
280.794	0.07
281.008	-0.01
281.222	0.03
281.437	0.13
281.651	-0.06
281.865	0.06
282.079	-0.02
282.293	-0.11
282.507	-0.12
282.721	0.01
282.935	-0.07
283.148	-0.11
283.362	-0.04
283.576	-0.06
283.79	-0.05
284.004	-0.08
284.218	0.07
284.432	-0.06
284.646	-0.04
284.859	-0.05
285.073	-0.05
285.287	0.01
285.501	-0.01
285.714	-0.09
285.928	-0
286.142	-0.01
286.356	-0.04
286.569	-0.06
286.783	0.05
286.997	-0.01
287.21	-0.02
287.424	-0.02
287.637	-0.04
287.851	-0.01
288.065	0
288.278	-0
288.492	0.01
288.705	-0.02
288.919	0.02
289.132	-0.07
289.346	0.11
289.559	-0.09
289.773	-0.12
289.986	-0.03
290.2	-0.05
290.413	0.1
290.626	-0.05
290.84	-0.03
291.053	-0.02
291.267	0.06
291.48	-0.01
291.693	-0.11
291.906	-0.01
292.12	-0.04
292.333	-0.06
292.546	-0.05
292.76	0.04
292.973	-0
293.186	0.02
293.399	-0.02
293.612	0
293.826	0.01
294.039	-0.04
294.252	-0.01
294.465	0.02
294.678	0.03
294.891	0.02
295.104	-0.08
295.317	-0.06
295.53	0.03
295.743	-0.03
295.956	-0.06
296.169	0.08
296.382	0.04
296.595	-0.01
296.808	-0.04
297.021	0.03
297.234	0.06
297.447	0.01
297.66	0.03
297.873	0.01
298.086	0.04
298.299	-0.05
298.511	-0.1
298.724	-0
298.937	-0.09
299.15	-0.03
299.363	-0.03
299.575	0.01
299.788	0
300.001	-0.03
300.213	-0.05
300.426	-0.01
300.639	-0.06
300.852	-0.08
301.064	-0
301.277	0.05
301.489	0.08
301.702	0.01
301.915	-0.02
302.127	-0.03
302.34	0.01
302.552	0
302.765	-0.05
302.977	-0.01
303.19	-0.04
303.402	-0.05
303.615	-0.07
303.827	-0.04
304.04	-0.03
304.252	0.02
304.464	-0.03
304.677	0.14
304.889	0.04
305.102	-0.05
305.314	-0.03
305.526	0.05
305.739	0.02
305.951	-0.02
306.163	-0.04
306.375	0.05
306.588	-0.02
306.8	-0.04
307.012	-0.05
307.224	-0.02
307.436	0.05
307.649	-0.09
307.861	-0.02
308.073	0.04
308.285	-0.04
308.497	-0.08
308.709	-0.02
308.921	0.01
309.133	0.04
309.346	-0.05
309.558	-0.04
309.77	0.05
309.982	0.02
310.194	-0
310.406	-0.03
310.617	0.1
310.829	-0
311.041	-0.02
311.253	-0.05
311.465	-0.01
311.677	-0
311.889	-0.01
312.101	-0.05
312.313	0.03
312.524	0.03
312.736	-0.06
312.948	-0.04
313.16	0.05
313.372	0
313.583	0
313.795	-0.04
314.007	-0.08
314.218	0.02
314.43	-0.07
314.642	-0.05
314.853	-0.06
315.065	0.05
315.277	-0.01
315.488	0.02
315.7	0.1
315.912	0
316.123	-0.02
316.335	-0.04
316.546	0.1
316.758	0.03
316.969	-0.05
317.181	-0.01
317.392	0
317.604	0.06
317.815	-0.05
318.026	-0.07
318.238	-0.03
318.449	0.04
318.661	-0.02
318.872	-0.07
319.083	-0.03
319.295	0.03
319.506	-0.03
319.717	-0.01
319.929	0.05
320.14	-0.01
320.351	-0
320.562	-0.06
320.774	0.01
320.985	-0.04
321.196	-0.05
321.407	-0.13
321.618	0
321.829	-0.01
322.041	0.01
322.252	-0.06
322.463	0.07
322.674	0.02
322.885	-0.09
323.096	-0.03
323.307	-0.05
323.518	-0.02
323.729	-0.06
323.94	-0.04
324.151	-0.05
324.362	0.01
324.573	-0.02
324.784	-0.05
324.995	0.08
325.206	0.01
325.417	-0.06
325.628	-0.04
325.838	-0.02
326.049	-0.01
326.26	-0.03
326.471	-0.03
326.682	-0.02
326.892	-0.04
327.103	-0.06
327.314	-0.08
327.525	0.03
327.735	-0.02
327.946	-0.06
328.157	-0.06
328.368	0.03
328.578	-0.03
328.789	0.02
328.999	-0.02
329.21	-0.08
329.421	-0
329.631	-0.06
329.842	0
330.052	0.02
330.263	-0
330.473	0.03
330.684	0.01
330.894	-0.01
331.105	0.02
331.315	-0.02
331.526	-0.07
331.736	0.09
331.947	0.04
332.157	-0.03
332.367	-0.09
332.578	0
332.788	0.03
332.999	0
333.209	-0.04
333.419	-0.09
333.629	0.04
333.84	-0.02
334.05	-0.09
334.26	0.02
334.47	0.08
334.681	0.05
334.891	-0
335.101	0.03
335.311	0.08
335.521	-0.03
335.732	-0.03
335.942	0.05
336.152	-0.01
336.362	-0.01
336.572	-0.02
336.782	0.03
336.992	-0.04
337.202	-0.05
337.412	-0.1
337.622	0.02
337.832	0
338.042	-0.01
338.252	-0.04
338.462	-0.03
338.672	-0.02
338.882	-0.03
339.092	-0.03
339.302	0.05
339.511	0.05
339.721	-0.06
339.931	-0.06
340.141	0.04
340.351	0.02
340.561	-0.03
340.77	-0.01
340.98	-0
341.19	0.02
341.4	-0.03
341.609	-0.01
341.819	-0.04
342.029	-0.05
342.238	-0.02
342.448	-0.03
342.658	0.01
342.867	-0.01
343.077	-0.05
343.286	-0.01
343.496	0.01
343.706	0.07
343.915	-0.06
344.125	-0.02
344.334	0.02
344.544	-0.09
344.753	-0.05
344.963	-0.07
345.172	-0.04
345.381	0.01
345.591	-0.07
345.8	-0.01
346.01	0.02
346.219	0.04
346.428	-0.14
346.638	-0.03
346.847	-0.01
347.056	0.04
347.266	-0.04
347.475	-0.04
347.684	-0.02
347.893	-0.01
348.103	-0
348.312	0
348.521	-0.02
348.73	0.01
348.94	-0
349.149	-0.03
349.358	-0.03
349.567	-0.02
349.776	-0.03
349.985	-0.02
350.194	0.04
350.403	0.01
350.612	-0.1
350.821	-0.02
351.03	-0.02
351.239	-0.04
351.448	-0.03
351.657	-0.06
351.866	0.04
352.075	-0.03
352.284	-0.05
352.493	-0.09
352.702	0.03
352.911	-0
353.12	-0.03
353.329	0
353.538	0
353.746	0.02
353.955	-0.05
354.164	0.04
354.373	-0.01
354.582	0.06
354.79	-0
354.999	-0.01
355.208	-0.03
355.416	0.03
355.625	-0.08
355.834	-0.06
356.042	-0.02
356.251	-0.02
356.46	-0.08
356.668	-0.01
356.877	0.08
357.085	0.04
357.294	-0.1
357.503	0.01
357.711	-0.04
357.92	0.08
358.128	0.02
358.337	-0.05
358.545	0.01
358.754	-0.01
358.962	0.02
359.17	-0.05
359.379	-0.04
359.587	0
359.796	-0.03
360.004	0.03
360.212	0.02
360.421	0.03
360.629	-0.06
360.837	-0.03
361.046	0.02
361.254	0.09
361.462	-0.01
361.67	-0.01
361.879	-0.02
362.087	0.03
362.295	0.01
362.503	-0.04
362.711	-0.08
362.92	-0.07
363.128	-0.03
363.336	-0.04
363.544	-0.06
363.752	-0.03
363.96	-0.05
364.168	-0.05
364.376	-0.03
364.584	0.01
364.792	0.05
365	-0.01
365.208	-0
365.416	0.02
365.624	0.03
365.832	-0.05
366.04	0.06
366.248	0.02
366.456	0
366.664	-0.03
366.872	-0.02
367.079	-0.05
367.287	-0.03
367.495	-0.02
367.703	-0.03
367.911	0.01
368.118	-0.01
368.326	-0.03
368.534	-0.06
368.742	0.04
368.949	-0.04
369.157	-0.03
369.365	0.03
369.572	-0.03
369.78	-0.07
369.988	0.05
370.195	-0
370.403	0.02
370.61	-0.03
370.818	-0.01
371.026	0.01
371.233	-0.05
371.441	-0.04
371.648	-0.01
371.856	-0.01
372.063	-0
372.271	-0.04
372.478	-0.03
372.685	-0.05
372.893	0.03
373.1	-0.05
373.308	-0.05
373.515	0.06
373.722	0.07
373.93	-0.02
374.137	0.02
374.344	0.07
374.552	0.06
374.759	-0.01
374.966	0.04
375.173	-0.02
375.381	0.05
375.588	-0.02
375.795	-0.06
376.002	-0.05
376.209	-0.02
376.417	-0.04
376.624	-0.02
376.831	0.03
377.038	0.01
377.245	-0.08
377.452	-0.01
377.659	-0
377.866	-0.05
378.073	-0.05
378.28	-0.01
378.487	0.01
378.694	0.01
378.901	0
379.108	-0.02
379.315	0.01
379.522	0.09
379.729	-0.01
379.936	-0.03
380.143	-0.04
380.35	-0.02
380.557	-0.01
380.763	-0.01
380.97	-0.05
381.177	0.01
381.384	0.01
381.591	-0.07
381.797	0.01
382.004	0.02
382.211	0
382.418	-0
382.624	0
382.831	0.02
383.038	-0.02
383.244	-0.02
383.451	0.01
383.658	0.01
383.864	-0.07
384.071	-0.07
384.277	0.01
384.484	-0.03
384.69	0.03
384.897	0.02
385.103	-0.04
385.31	-0.08
385.516	-0.03
385.723	-0.06
385.929	-0.01
386.136	0
386.342	-0.04
386.549	-0.06
386.755	0.07
386.961	0.03
387.168	-0.01
387.374	0.01
387.58	0.01
387.787	0
387.993	-0.02
388.199	-0.03
388.406	-0.06
388.612	-0.03
388.818	-0.04
389.024	-0.06
389.231	-0.02
389.437	0.07
389.643	0.05
389.849	-0.04
390.055	-0.01
390.261	0.02
390.467	-0.01
390.674	-0.07
390.88	-0
391.086	0.02
391.292	-0.06
391.498	0
391.704	-0.01
391.91	-0.04
392.116	-0.04
392.322	-0.1
392.528	-0.01
392.734	-0.01
392.94	-0.02
393.146	-0.04
393.352	-0
393.557	-0.05
393.763	-0.05
393.969	0.02
394.175	-0
394.381	-0.02
394.587	-0.07
394.792	-0.03
394.998	0.06
395.204	0.01
395.41	-0.03
395.615	0.03
395.821	0.01
396.027	0.02
396.233	-0.07
396.438	-0.03
396.644	0.03
396.85	0.01
397.055	-0.04
397.261	-0
397.466	-0.03
397.672	-0.01
397.878	0.04
398.083	0.05
398.289	-0.05
398.494	0.08
398.7	0.03
398.905	-0.1
399.111	0.03
399.316	-0.08
399.522	0.03
399.727	0.02
399.932	-0.07
400.138	-0.03
400.343	0.04
400.549	0
400.754	-0.03
400.959	0.06
401.165	-0.02
401.37	-0.01
401.575	0.05
401.78	-0.01
401.986	-0.02
402.191	-0.01
402.396	-0.01
402.601	-0.02
402.807	-0.04
403.012	-0.02
403.217	0
403.422	0.02
403.627	0.02
403.832	-0.03
404.037	0.02
404.243	-0.01
404.448	-0.06
404.653	-0.01
404.858	-0.02
405.063	-0
405.268	-0.02
405.473	-0.03
405.678	-0.06
405.883	0.16
406.088	-0.02
406.293	-0.06
406.498	-0.03
406.703	0.02
406.907	-0.01
407.112	-0.04
407.317	-0.01
407.522	0.04
407.727	-0.06
407.932	-0.05
408.136	0.06
408.341	0.02
408.546	0.01
408.751	-0.04
408.956	-0.02
409.16	0.04
409.365	-0.03
409.57	-0.06
409.774	0
409.979	-0.01
410.184	0.01
410.388	-0.08
410.593	0.05
410.798	0.05
411.002	-0.09
411.207	-0.01
411.411	-0.01
411.616	-0.04
411.82	-0.04
412.025	-0.03
412.229	-0.02
412.434	0.06
412.638	-0.01
412.843	-0.07
413.047	0
413.252	-0.04
413.456	-0.07
413.66	-0.04
413.865	-0.03
414.069	0.08
414.273	-0.09
414.478	-0.02
414.682	-0.03
414.886	-0.04
415.091	-0.05
415.295	-0.07
415.499	-0.01
415.703	-0.06
415.908	-0.01
416.112	-0.16
416.316	0.02
416.52	-0.01
416.724	-0.07
416.929	-0.09
417.133	0.1
417.337	-0.03
417.541	-0.07
417.745	-0.03
417.949	0.01
418.153	-0.02
418.357	-0.07
418.561	0.02
418.765	-0.03
418.969	0.13
419.173	0.06
419.377	-0.06
419.581	0.1
419.785	-0.04
419.989	-0.13
420.193	-0.01
420.397	-0.03
420.601	0.05
420.804	0.03
421.008	-0.05
421.212	-0.04
421.416	-0.02
421.62	-0.06
421.823	-0.05
422.027	0.1
422.231	0.01
422.435	-0.04
422.638	0
422.842	0.02
423.046	-0.04
423.249	0.04
423.453	0.04
423.657	-0
423.86	0.01
424.064	-0.03
424.268	0.04
424.471	-0.03
424.675	0.01
424.878	0.02
425.082	-0.01
425.285	0.03
425.489	-0
425.692	-0.08
425.896	-0.08
426.099	0.04
426.303	-0.06
426.506	-0.08
426.71	0.01
426.913	0.04
427.116	0.04
427.32	-0
427.523	-0.01
427.726	0.08
427.93	-0.06
428.133	-0.04
428.336	-0.06
428.54	-0.07
428.743	0.03
428.946	0.02
429.149	-0.03
429.353	-0.01
429.556	-0.01
429.759	-0.03
429.962	-0.06
430.165	-0.02
430.368	-0
430.571	-0.06
430.775	0.04
430.978	-0.05
431.181	0.01
431.384	-0.04
431.587	-0.02
431.79	-0.02
431.993	-0.07
432.196	0.03
432.399	-0.03
432.602	0.04
432.805	-0.03
433.008	-0.01
433.211	-0.11
433.414	-0
433.616	0
433.819	-0.04
434.022	-0.09
434.225	0.12
434.428	-0.02
434.631	0.08
434.833	-0.02
435.036	-0.07
435.239	0.04
435.442	0.02
435.645	-0.07
435.847	0.01
436.05	0.05
436.253	0.05
436.455	-0.06
436.658	0.01
436.861	0.06
437.063	-0.03
437.266	-0.03
437.468	0.02
437.671	0.14
437.874	0.01
438.076	-0.11
438.279	-0.1
438.481	-0.03
438.684	-0.03
438.886	0.04
439.089	-0.09
439.291	0.06
439.494	0.05
439.696	-0.05
439.899	-0.02
440.101	-0
440.303	-0.06
440.506	0.06
440.708	-0.01
440.91	0.03
441.113	-0.05
441.315	0.05
441.517	-0.02
441.72	0.06
441.922	-0.06
442.124	-0.01
442.326	0.02
442.529	0.08
442.731	-0.02
442.933	0.07
443.135	0.02
443.337	-0.04
443.539	-0.02
443.742	0.01
443.944	0.08
444.146	-0
444.348	0.03
444.55	-0.02
444.752	0.06
444.954	-0
445.156	0.01
445.358	0
445.56	0.07
445.762	-0.01
445.964	0.03
446.166	-0.01
446.368	-0.02
446.57	0.1
446.772	0.01
446.974	-0
447.175	0.05
447.377	-0.01
447.579	-0.01
447.781	-0.09
447.983	0.13
448.184	0.03
448.386	0.03
448.588	-0.07
448.79	0.04
448.991	0.05
449.193	0.03
449.395	0.05
449.597	0.09
449.798	0.01
450	0.04
450.202	0.07
450.403	-0.02
450.605	0.08
450.806	0.06
451.008	-0.04
451.21	0.07
451.411	0.01
451.613	0.05
451.814	0.03
452.016	0.06
452.217	-0.02
452.419	0.1
452.62	-0
452.821	-0.01
453.023	0.08
453.224	0.08
453.426	0.01
453.627	0.02
453.828	0.07
454.03	0.02
454.231	0.05
454.432	-0.07
454.634	0.1
454.835	0.01
455.036	-0.03
455.238	0.03
455.439	0.12
455.64	-0.08
455.841	-0.03
456.042	0.1
456.244	0.07
456.445	-0.02
456.646	-0.05
456.847	-0.03
457.048	0.06
457.249	0.08
457.45	0.22
457.651	-0.02
457.852	0.08
458.054	-0.02
458.255	0.01
458.456	0.07
458.657	-0.06
458.858	-0.04
459.058	0.01
459.259	0.08
459.46	-0.02
459.661	-0.06
459.862	0.1
460.063	-0.04
460.264	0.09
460.465	-0.05
460.666	0.08
460.866	-0.01
461.067	0.04
461.268	-0.02
461.469	-0
461.67	-0.02
461.87	-0.02
462.071	0
462.272	-0.01
462.473	-0.02
462.673	0.02
462.874	-0.04
463.075	-0.02
463.275	-0.04
463.476	0.01
463.676	-0.01
463.877	0.03
464.078	0
464.278	0.04
464.479	-0.07
464.679	0.03
464.88	-0.01
465.08	0.05
465.281	-0.05
465.481	-0.02
465.682	0.02
465.882	0.01
466.083	0.01
466.283	-0.03
466.483	-0.02
466.684	-0.09
466.884	-0.03
467.085	-0.01
467.285	0.06
467.485	-0.05
467.686	-0.01
467.886	-0.04
468.086	-0.03
468.286	0.01
468.487	-0.04
468.687	-0.06
468.887	-0.04
469.087	0.03
469.287	0.02
469.488	-0.03
469.688	0
469.888	0.03
470.088	0.03
470.288	0.03
470.488	0.03
470.688	-0.05
470.888	-0.02
471.088	-0.04
471.288	0.03
471.488	0.06
471.688	0.02
471.888	0.01
472.088	0.06
472.288	0.06
472.488	-0.05
472.688	-0.02
472.888	0.03
473.088	-0.03
473.288	-0.04
473.488	0
473.688	0.09
473.887	-0.02
474.087	-0.02
474.287	-0
474.487	-0.01
474.687	0.03
474.886	-0.05
475.086	-0.03
475.286	-0.01
475.486	-0
475.685	-0.02
475.885	-0.02
476.085	0.02
476.284	-0.01
476.484	-0.04
476.684	0
476.883	0.05
477.083	0
477.282	-0.04
477.482	0.05
477.681	0.08
477.881	0
478.08	-0.07
478.28	-0.05
478.479	-0
478.679	0.05
478.878	-0.04
479.078	-0.04
479.277	0
479.477	0
479.676	0.02
479.875	-0.03
480.075	-0.09
480.274	-0.01
480.473	0.01
480.673	-0.03
480.872	0
481.071	0.03
481.271	-0
481.47	-0
481.669	-0.04
481.868	-0.02
482.067	-0.05
482.267	-0.03
482.466	-0.04
482.665	-0.05
482.864	-0.08
483.063	-0.03
483.262	0.03
483.461	0.07
483.661	-0.01
483.86	-0.01
484.059	0.03
484.258	0.01
484.457	-0.01
484.656	0.02
484.855	0.06
485.054	-0.05
485.253	-0.03
485.452	-0.05
485.651	-0.02
485.849	0.01
486.048	-0.04
486.247	-0.04
486.446	-0.01
486.645	-0.04
486.844	-0.05
487.043	-0.02
487.241	0.01
487.44	-0.03
487.639	-0.02
487.838	0.01
488.037	-0.02
488.235	0.06
488.434	-0.01
488.633	-0.02
488.831	0.02
489.03	0
489.229	-0
489.427	-0.02
489.626	0.06
489.825	0.02
490.023	-0
490.222	-0.02
490.42	-0
490.619	0.03
490.817	0.01
491.016	-0.02
491.214	0.03
491.413	-0.02
491.611	0
491.81	-0.01
492.008	0.02
492.207	0
492.405	-0.01
492.604	-0.06
492.802	-0.03
493	-0.01
493.199	-0
493.397	-0.03
493.595	-0.02
493.794	-0.02
493.992	0.05
494.19	-0.02
494.388	-0.01
494.587	-0.03
494.785	-0.01
494.983	-0.04
495.181	-0.02
495.379	0
495.578	-0.03
495.776	-0
495.974	0.03
496.172	-0
496.37	-0.03
496.568	-0.04
496.766	-0.03
496.964	0.01
497.162	-0.02
497.36	-0.05
497.558	0.02
497.756	0.01
497.954	-0.03
498.152	-0.05
498.35	-0.03
498.548	0
498.746	0
498.944	-0.06
499.142	-0.01
499.34	-0.05
499.538	0.01
499.736	-0.04
499.933	0.03
500.131	0.03
500.329	0.01
500.527	0.02
500.725	0.01
500.922	0.02
501.12	-0.02
501.318	-0.01
501.516	-0.02
501.713	-0.01
501.911	-0.01
502.109	-0.04
502.306	-0
502.504	-0.03
502.701	-0.04
502.899	-0.02
503.097	0.03
503.294	0.01
503.492	-0.02
503.689	-0.01
503.887	0.02
504.084	0.03
504.282	0.01
504.479	-0.06
504.677	0.01
504.874	-0.06
505.072	-0.02
505.269	-0.01
505.466	0.01
505.664	0.01
505.861	-0.05
506.059	-0.04
506.256	0.01
506.453	-0.03
506.651	0.02
506.848	0.01
507.045	0.01
507.242	-0.02
507.44	-0.03
507.637	-0.01
507.834	0.01
508.031	0.01
508.229	-0.03
508.426	-0
508.623	-0.02
508.82	-0.02
509.017	-0.02
509.214	-0.03
509.411	-0.02
509.608	-0.03
509.805	-0.01
510.003	-0.02
510.2	-0.04
510.397	-0
510.594	-0.04
510.791	-0.04
510.988	-0.02
511.184	0.02
511.381	0.01
511.578	-0.04
511.775	0.02
511.972	-0
512.169	-0.01
512.366	-0.03
512.563	-0
512.76	-0.02
512.956	0.02
513.153	-0.03
513.35	-0
513.547	-0.02
513.744	-0.05
513.94	-0.04
514.137	0.01
514.334	-0.01
514.53	-0.02
514.727	-0
514.924	0.04
515.12	-0.01
515.317	-0.03
515.514	-0.03
515.71	-0.02
515.907	-0.01
516.103	0.01
516.3	0
516.497	0.02
516.693	0.02
516.89	-0.03
517.086	-0.03
517.283	0.01
517.479	0.01
517.676	0.01
517.872	-0.02
518.068	-0.01
518.265	-0.03
518.461	-0.03
518.658	-0.05
518.854	0
519.05	-0.04
519.247	-0.02
519.443	0.03
519.639	-0.01
519.836	-0.01
520.032	-0.02
520.228	-0.01
520.424	0.05
520.621	0.02
520.817	-0.02
521.013	0
521.209	-0
521.405	0.04
521.601	0
521.798	-0.01
521.994	0.04
522.19	-0.03
522.386	-0.03
522.582	-0.03
522.778	-0.01
522.974	-0.03
523.17	-0.02
523.366	-0.01
523.562	0.01
523.758	-0.01
523.954	-0.04
524.15	-0.04
524.346	0
524.542	-0.02
524.738	-0.02
524.934	-0.02
525.129	-0.02
525.325	-0
525.521	-0
525.717	0.02
525.913	0
526.109	-0.01
526.304	-0.02
526.5	0.01
526.696	0.01
526.892	-0
527.087	0
527.283	-0.04
527.479	0.02
527.674	-0.05
527.87	-0.03
528.066	-0.01
528.261	0.03
528.457	0
528.653	-0.02
528.848	-0.03
529.044	0
529.239	-0
529.435	0
529.63	0.01
529.826	0.06
530.021	-0.02
530.217	0.01
530.412	-0.01
530.608	-0.01
530.803	-0.01
530.999	0.01
531.194	-0.06
531.389	0.01
531.585	-0.05
531.78	-0.03
531.975	-0
532.171	0.03
532.366	-0.03
532.561	-0.02
532.757	-0.05
532.952	-0.04
533.147	-0
533.342	0
533.538	-0.02
533.733	0.02
533.928	-0.01
534.123	-0.04
534.318	-0.03
534.513	-0
534.709	0.01
534.904	-0.03
535.099	0
535.294	-0.01
535.489	-0.02
535.684	-0
535.879	-0.04
536.074	0.02
536.269	-0.03
536.464	-0.02
536.659	-0.01
536.854	-0.02
537.049	-0.02
537.244	-0.01
537.439	-0.02
537.634	0.02
537.828	-0.02
538.023	-0.02
538.218	-0.03
538.413	-0.01
538.608	-0.05
538.803	0
538.997	-0.07
539.192	0.01
539.387	0
539.582	0
539.776	0
539.971	-0.03
540.166	-0.01
540.36	-0.05
540.555	-0
540.75	-0.01
540.944	0.01
541.139	-0.05
541.334	-0.02
541.528	-0.01
541.723	0.03
541.917	-0.03
542.112	-0.06
542.306	-0.01
542.501	-0.04
542.695	0
542.89	-0.03
543.084	-0.01
543.279	-0.02
543.473	-0.01
543.668	-0.02
543.862	-0.01
544.056	-0
544.251	-0.01
544.445	-0.01
544.64	-0.02
544.834	-0.04
545.028	-0.03
545.222	0.01
545.417	0.01
545.611	-0.01
545.805	-0.01
546	-0.02
546.194	-0.02
546.388	-0.02
546.582	-0
546.776	-0.02
546.97	-0.01
547.165	-0
547.359	0.01
547.553	-0.05
547.747	-0.01
547.941	-0
548.135	0
548.329	0.02
548.523	0.01
548.717	-0.02
548.911	-0.04
549.105	-0.01
549.299	-0
549.493	-0
549.687	0.02
549.881	-0
550.075	-0
550.269	-0.05
550.463	0
550.657	-0.03
550.85	0
551.044	-0.04
551.238	-0.02
551.432	-0.03
551.626	-0.04
551.82	0
552.013	-0.03
552.207	0.01
552.401	0.01
552.594	-0.01
552.788	-0.01
552.982	0.01
553.176	-0.03
553.369	0.02
553.563	0
553.756	-0.04
553.95	-0.04
554.144	-0.01
554.337	0
554.531	-0.01
554.724	0.01
554.918	-0.02
555.111	0.01
555.305	-0.02
555.498	0.05
555.692	0.02
555.885	-0.03
556.079	-0.02
556.272	0.01
556.466	0.02
556.659	-0.01
556.852	-0.02
557.046	-0.03
557.239	0.03
557.432	-0.05
557.626	-0.03
557.819	-0.01
558.012	0.01
558.206	0.02
558.399	-0.02
558.592	-0
558.785	-0.05
558.979	0.01
559.172	-0.01
559.365	0.05
559.558	-0
559.751	-0.02
559.944	-0.03
560.138	-0.01
560.331	-0
560.524	-0.01
560.717	-0
560.91	-0.01
561.103	0.03
561.296	0.01
561.489	-0.02
561.682	0
561.875	0.02
562.068	0.01
562.261	-0.03
562.454	0.03
562.647	-0.01
562.84	0.01
563.032	-0.02
563.225	-0.01
563.418	-0.02
563.611	-0.04
563.804	-0.02
563.997	-0.01
564.19	-0.06
564.382	-0.02
564.575	-0.03
564.768	-0.02
564.961	-0.02
565.153	-0.02
565.346	0
565.539	0.02
565.731	0.01
565.924	0.02
566.117	0
566.309	-0.02
566.502	-0.03
566.695	0
566.887	0
567.08	-0.02
567.272	-0.03
567.465	-0.01
567.657	-0.02
567.85	-0.01
568.042	-0.01
568.235	0.03
568.427	-0
568.62	-0.01
568.812	0
569.005	-0.01
569.197	-0.05
569.389	-0.02
569.582	0.01
569.774	-0.03
569.966	-0.05
570.159	-0.07
570.351	0
570.543	-0.03
570.736	-0.01
570.928	-0.02
571.12	0.02
571.312	-0.04
571.505	-0.04
571.697	0.03
571.889	-0.03
572.081	-0.03
572.273	-0.05
572.465	0.03
572.658	-0.01
572.85	0.01
573.042	-0.01
573.234	-0.03
573.426	0.05
573.618	-0.03
573.81	-0.01
574.002	0.02
574.194	0.05
574.386	-0.04
574.578	-0.08
574.77	-0.03
574.962	-0.01
575.154	-0.01
575.346	-0.02
575.538	-0.01
575.729	-0.03
575.921	-0.02
576.113	-0.02
576.305	-0
576.497	-0.01
576.689	-0.04
576.88	-0.05
577.072	0.01
577.264	-0.01
577.456	-0.03
577.647	-0.1
577.839	0.01
578.031	0.02
578.223	-0.04
578.414	-0.02
578.606	-0.01
578.798	-0.02
578.989	-0.04
579.181	0.02
579.372	-0
579.564	-0.01
579.755	0.01
579.947	-0.01
580.139	0.01
580.33	-0.04
580.522	-0.04
580.713	-0.08
580.905	-0.02
581.096	-0.02
581.287	-0.02
581.479	-0.01
581.67	0.02
581.862	-0.02
582.053	-0.04
582.244	-0.06
582.436	-0.03
582.627	0
582.818	-0.06
583.01	-0.04
583.201	0
583.392	0.02
583.583	-0.02
583.775	-0.04
583.966	-0.03
584.157	-0.02
584.348	-0.01
584.54	-0.06
584.731	0.02
584.922	0.02
585.113	-0.05
585.304	0
585.495	0.03
585.686	-0
585.877	-0.01
586.068	-0.02
586.259	-0.01
586.45	-0.02
586.641	-0.04
586.832	-0.06
587.023	0
587.214	0
587.405	-0.01
587.596	-0.04
587.787	0.02
587.978	-0.01
588.169	-0.03
588.36	-0.02
588.551	0.02
588.742	-0.02
588.932	-0
589.123	-0.03
589.314	-0
589.505	0.01
589.696	-0.01
589.886	-0.05
590.077	-0.04
590.268	-0
590.458	-0.06
590.649	-0.07
590.84	0.01
591.03	-0.02
591.221	-0.06
591.412	-0.07
591.602	0.02
591.793	0.02
591.984	-0.06
592.174	-0.01
592.365	0.07
592.555	-0.05
592.746	0.03
592.936	-0.02
593.127	0.01
593.317	0.02
593.508	-0.03
593.698	-0.04
593.889	-0.01
594.079	-0.02
594.269	-0.02
594.46	-0
594.65	-0.01
594.84	-0.02
595.031	-0.05
595.221	-0.04
595.411	-0.05
595.602	0.02
595.792	-0.04
595.982	-0.02
596.172	0.02
596.363	-0.02
596.553	-0.02
596.743	-0.02
596.933	-0.01
597.123	-0
597.314	-0.03
597.504	-0.05
597.694	0.01
597.884	0.01
598.074	-0.06
598.264	-0.03
598.454	0
598.644	-0
598.834	-0.02
599.024	-0.09
599.214	-0.04
599.404	-0.01
599.594	-0.01
599.784	-0.06
599.974	0.03
600.164	0.01
600.354	-0.04
600.544	-0.05
600.734	-0.01
600.924	0.04
601.114	-0.03
601.303	-0.02
601.493	-0.02
601.683	-0.02
601.873	0
602.063	-0.06
602.252	0
602.442	-0.08
602.632	-0.03
602.821	-0.03
603.011	0.01
603.201	-0.01
603.39	-0.05
603.58	-0.05
603.77	-0
603.959	0.03
604.149	0
604.339	-0.05
604.528	0.01
604.718	0.01
604.907	-0.03
605.097	-0.05
605.286	-0.03
605.476	0.03
605.665	-0.01
605.855	-0.03
606.044	0.05
606.234	-0
606.423	-0
606.612	-0.05
606.802	-0.01
606.991	-0.01
607.181	-0.01
607.37	-0.06
607.559	-0
607.749	-0.05
607.938	0.01
608.127	-0.04
608.316	-0.03
608.506	0.02
608.695	-0.04
608.884	-0.05
609.073	-0.01
609.263	0.02
609.452	0.01
609.641	0.01
609.83	-0.03
610.019	-0.01
610.208	-0.04
610.397	-0.02
610.586	0.03
610.775	-0.05
610.965	-0.06
611.154	-0.04
611.343	-0.01
611.532	0
611.721	-0.06
611.91	-0.05
612.099	0.01
612.287	-0.01
612.476	-0.04
612.665	-0.02
612.854	-0.03
613.043	0.04
613.232	-0.04
613.421	-0.07
613.61	-0
613.798	-0.07
613.987	-0
614.176	-0.03
614.365	0.01
614.554	-0
614.742	0.02
614.931	-0.06
615.12	0.03
615.309	-0.05
615.497	-0
615.686	-0.06
615.875	0
616.063	-0.01
616.252	-0.06
616.44	-0.04
616.629	-0.01
616.818	0
617.006	-0.01
617.195	-0.01
617.383	0
617.572	0
617.76	-0.04
617.949	-0.02
618.137	0
618.326	0.02
618.514	-0.03
618.703	-0.04
618.891	0.03
619.079	-0.11
619.268	-0.01
619.456	-0.06
619.644	0.02
619.833	-0.03
620.021	-0.04
620.209	-0.09
620.398	0.03
620.586	0.01
620.774	0.01
620.962	-0.04
621.151	0.06
621.339	-0.03
621.527	-0.07
621.715	-0.03
621.903	-0.05
622.092	-0.08
622.28	0.01
622.468	-0.01
622.656	-0.04
622.844	0.01
623.032	-0.05
623.22	-0.05
623.408	0.02
623.596	-0.02
623.784	0.03
623.972	-0.05
624.16	-0.04
624.348	0.05
624.536	-0.05
624.724	-0.03
624.912	0.01
625.1	0.03
625.288	-0.07
625.476	-0.01
625.664	-0.01
625.851	-0.07
626.039	-0.01
626.227	-0.02
626.415	-0.04
626.603	-0.08
626.79	-0.03
626.978	-0.03
627.166	0.01
627.354	-0.02
627.541	-0.04
627.729	-0.06
627.917	0.03
628.104	0.02
628.292	-0.01
628.48	-0.03
628.667	-0.01
628.855	-0.04
629.042	-0.04
629.23	-0.05
629.418	-0
629.605	-0.02
629.793	-0.05
629.98	-0.06
630.168	-0.01
630.355	-0.01
630.543	-0
630.73	-0.07
630.917	0.02
631.105	0.03
631.292	-0.02
631.48	-0.02
631.667	0.07
631.854	-0
632.042	-0.04
632.229	-0.07
632.416	-0.02
632.604	-0.04
632.791	-0.04
632.978	0.03
633.165	-0.01
633.353	0.06
633.54	0
633.727	-0.07
633.914	-0.08
634.101	-0.09
634.289	0.02
634.476	-0.06
634.663	-0.02
634.85	0
635.037	-0.06
635.224	-0.08
635.411	0.02
635.598	0
635.785	-0.02
635.972	-0.06
636.159	-0
636.346	-0.05
636.533	-0.03
636.72	-0.05
636.907	-0.03
637.094	0.01
637.281	-0.03
637.468	0.01
637.655	-0.01
637.842	-0.02
638.029	-0.05
638.215	0.03
638.402	-0.03
638.589	-0.02
638.776	-0.02
638.963	-0.05
639.149	0.02
639.336	0.05
639.523	-0.01
639.709	-0.01
639.896	-0.02
640.083	0.02
640.27	-0.01
640.456	-0.03
640.643	-0.01
640.829	-0.09
641.016	-0.04
641.203	-0.04
641.389	0.01
641.576	0
641.762	-0.02
641.949	-0.06
642.135	-0
642.322	-0.01
642.508	-0.09
642.695	-0.03
642.881	-0.03
643.068	-0.03
643.254	-0.04
643.441	0.02
643.627	-0.03
643.813	-0.05
644	-0.01
644.186	-0.05
644.372	0.02
644.559	0.02
644.745	-0.04
644.931	-0.06
645.118	-0.05
645.304	-0.01
645.49	-0.05
645.676	-0.05
645.862	-0.03
646.049	-0.01
646.235	-0.02
646.421	0.03
646.607	0.02
646.793	-0.04
646.979	-0.06
647.165	-0
647.352	-0.01
647.538	0.03
647.724	-0.02
647.91	-0.05
648.096	-0.01
648.282	0.02
648.468	-0.02
648.654	-0.06
648.84	0
649.026	-0.02
649.212	-0.03
649.397	-0.1
649.583	-0.05
649.769	0.01
649.955	-0.02
650.141	-0.01
650.327	0.02
650.513	-0.02
650.698	0.01
650.884	-0.11
651.07	0.01
651.256	0.01
651.442	-0.04
651.627	-0.03
651.813	-0.02
651.999	-0.02
652.184	0.01
652.37	-0.04
652.556	-0.05
652.741	0.06
652.927	-0.08
653.113	-0.04
653.298	-0.01
653.484	-0.04
653.669	-0.08
653.855	-0.01
654.04	0
654.226	-0.01
654.412	-0.02
654.597	-0.06
654.782	-0.02
654.968	0.01
655.153	-0
655.339	-0.05
655.524	-0.07
655.71	0.03
655.895	-0.06
656.08	-0.03
656.266	0.03
656.451	0
656.636	-0.05
656.822	-0.01
657.007	-0.04
657.192	-0.05
657.378	-0.07
657.563	-0.03
657.748	0.02
657.933	-0.01
658.118	-0.02
658.304	-0.02
658.489	-0
658.674	-0.01
658.859	-0.05
659.044	-0.02
659.229	-0.03
659.414	-0.03
659.599	-0.03
659.785	-0.07
659.97	-0.04
660.155	-0.02
660.34	0
660.525	-0.03
660.71	-0.06
660.895	0.01
661.08	-0.03
661.264	-0.05
661.449	0.03
661.634	0.04
661.819	-0.02
662.004	-0.01
662.189	-0.1
662.374	-0.04
662.559	-0.04
662.743	-0.05
662.928	-0.02
663.113	-0.04
663.298	-0.08
663.483	-0.04
663.667	-0.01
663.852	-0.07
664.037	0.04
664.221	-0.06
664.406	0.02
664.591	0.01
664.775	-0
664.96	-0.01
665.145	-0.01
665.329	0
665.514	-0.05
665.698	-0.03
665.883	-0.12
666.068	0.04
666.252	-0.04
666.437	-0.04
666.621	-0.01
666.806	0.04
666.99	-0.02
667.174	-0.02
667.359	0.01
667.543	-0.05
667.728	-0.04
667.912	-0.1
668.096	0
668.281	-0.01
668.465	-0.07
668.649	-0.04
668.834	-0.01
669.018	-0.05
669.202	-0.07
669.387	-0.02
669.571	0.04
669.755	-0.01
669.939	-0
670.124	-0.06
670.308	0.05
670.492	0.06
670.676	-0.02
670.86	-0.06
671.044	-0.07
671.228	0.02
671.413	-0.04
671.597	-0.03
671.781	-0.06
671.965	0.02
672.149	-0.04
672.333	-0.03
672.517	-0.09
672.701	0.01
672.885	-0.07
673.069	-0.11
673.253	0.05
673.437	-0.06
673.621	-0.07
673.804	-0.04
673.988	-0.05
674.172	0
674.356	-0.02
674.54	-0.05
674.724	0.08
674.908	-0.02
675.091	-0.01
675.275	-0.05
675.459	-0.02
675.643	0.05
675.826	0.01
676.01	-0.04
676.194	-0.03
676.377	-0.01
676.561	-0.01
676.745	-0.02
676.928	0.01
677.112	0.01
677.296	-0.08
677.479	-0.06
677.663	-0.04
677.846	-0.01
678.03	-0.08
678.213	-0.05
678.397	0.04
678.58	-0.04
678.764	-0.09
678.947	-0.05
679.131	-0.08
679.314	0.01
679.498	-0.01
679.681	-0
679.865	0
680.048	-0.04
680.231	-0.08
680.415	-0.04
680.598	-0.03
680.781	-0.01
680.965	-0.06
681.148	-0
681.331	-0.01
681.514	0.03
681.698	-0.02
681.881	0.01
682.064	0.02
682.247	0.02
682.43	-0.09
682.614	0.02
682.797	0.04
682.98	0.01
683.163	-0.04
683.346	0
683.529	-0.05
683.712	-0.07
683.895	0.02
684.078	-0.04
684.261	-0.06
684.444	-0.03
684.627	0
684.81	-0.04
684.993	-0.01
685.176	-0.01
685.359	-0.03
685.542	-0.05
685.725	0.06
685.908	-0.01
686.091	-0.04
686.274	0.03
686.457	0.01
686.639	-0.03
686.822	-0.02
687.005	-0.04
687.188	-0
687.371	0.08
687.553	0.01
687.736	0.02
687.919	0.05
688.102	0.06
688.284	-0.02
688.467	-0.01
688.65	0
688.832	-0.04
689.015	-0.04
689.197	-0.07
689.38	0.07
689.563	0.12
689.745	-0.08
689.928	-0.04
690.11	0
690.293	0.05
690.475	-0.09
690.658	-0.02
690.84	-0.01
691.023	-0.03
691.205	-0.05
691.388	0.03
691.57	0.07
691.752	0.05
691.935	-0.09
692.117	-0.06
692.3	0.05
692.482	-0.05
692.664	-0.03
692.847	0.01
693.029	0.08
693.211	0.01
693.393	-0.04
693.576	-0.05
693.758	0.03
693.94	-0.03
694.122	-0.03
694.304	0
694.487	-0.03
694.669	0.05
694.851	-0.08
695.033	0
695.215	-0.01
695.397	-0.05
695.579	0.02
695.761	-0.08
695.943	-0.11
696.125	0.04
696.308	-0.01
696.49	-0.13
696.671	0.1
696.853	-0.02
697.035	0.07
697.217	-0.02
697.399	0.03
697.581	-0.05
697.763	-0.07
697.945	-0.1
698.127	0
698.309	0.03
698.491	-0.05
698.672	0.02
698.854	0.04
699.036	0.06
699.218	-0.11
699.399	-0.01
699.581	0.07
699.763	0
699.945	-0.07
700.126	-0.06
700.308	-0.04
700.49	-0.02
700.671	-0.12
700.853	-0.01
701.035	-0.04
701.216	0.03
701.398	-0.06
701.579	-0.08
701.761	-0.02
701.943	-0.05
702.124	-0.11
702.306	-0.05
702.487	0.05
702.669	-0.02
702.85	-0.05
703.031	-0.1
703.213	0.07
703.394	-0.03
703.576	-0.11
703.757	0.09
703.938	0.06
704.12	0.04
704.301	-0.07
704.483	-0.07
704.664	-0.05
704.845	0.03
705.026	-0.01
705.208	-0.05
705.389	0
705.57	-0.01
705.751	-0.05
705.933	-0.05
706.114	0.08
706.295	-0.02
706.476	-0.09
706.657	0.05
706.838	0.04
707.02	-0.03
707.201	-0.02
707.382	-0.06
707.563	-0.02
707.744	-0.05
707.925	-0.05
708.106	-0.04
708.287	0.02
708.468	0.1
708.649	-0.03
708.83	-0
709.011	-0.03
709.192	-0.03
709.373	-0.13
709.554	-0.08
709.734	-0.01
709.915	-0.03
710.096	-0.05
710.277	-0.12
710.458	-0.04
710.639	0.07
710.819	-0.14
711	0.03
711.181	0.02
711.362	0.06
711.542	-0.04
711.723	-0.03
711.904	0.01
712.085	0.01
712.265	-0.04
712.446	-0.08
712.627	-0.03
712.807	-0.02
712.988	-0.05
713.168	-0.12
713.349	0.03
713.53	-0.12
713.71	-0.07
713.891	-0.13
714.071	-0.03
714.252	-0.04
714.432	-0.06
714.613	-0.11
714.793	-0.03
714.974	0.09
715.154	0.03
715.334	0.01
715.515	0.09
715.695	-0.09
715.876	0.01
716.056	-0.07
716.236	0
716.417	-0.12
716.597	-0.1
716.777	0.14
716.957	-0.04
717.138	-0.03
717.318	-0.01
717.498	-0.14
717.678	-0.02
717.859	-0
718.039	-0.08
718.219	-0.06
718.399	-0.02
718.579	-0.1
718.759	-0.05
718.939	-0.07
719.12	-0.07
719.3	-0
719.48	-0.21
719.66	-0.21
719.84	0.07
720.02	-0.03
720.2	-0.1
720.38	-0
720.56	0.18
720.74	-0.07
720.92	-0
721.1	0.07
721.279	0.03
721.459	-0.03
721.639	-0.14
721.819	0.07
721.999	-0.05
722.179	-0.02
722.359	-0.14
722.538	-0.08
722.718	0.01
722.898	-0.08
723.078	-0.05
723.257	-0.02
723.437	-0.01
723.617	-0.03
723.797	-0.11
723.976	-0.04
724.156	0.06
724.336	0.06
724.515	0.09
724.695	-0.16
724.874	-0.03
725.054	-0.03
725.234	-0.07
725.413	0.03
725.593	0.01
725.772	-0.08
725.952	0
726.131	-0.01
726.311	-0.03
726.49	-0.02
726.67	-0.03
726.849	-0.11
727.028	-0.02
727.208	-0.1
727.387	0.04
727.567	-0.14
727.746	-0.06
727.925	-0.08
728.105	-0.12
728.284	-0.12
728.463	-0.08
728.643	0.01
728.822	-0.15
729.001	-0.05
729.18	-0.07
729.359	0.04
729.539	-0.04
729.718	-0.01
729.897	0.01
730.076	-0.04
730.255	-0.1
730.434	-0.03
730.614	0.04
730.793	0.05
730.972	-0.07
731.151	-0.06
731.33	0.06
731.509	-0.03
731.688	-0.04
731.867	-0.03
732.046	-0.15
732.225	0.09
732.404	-0.15
732.583	-0.11
732.762	-0.04
732.941	0.03
733.12	-0.11
733.298	0.02
733.477	0.02
733.656	-0.07
733.835	-0.1
734.014	0.03
734.193	-0.03
734.371	0.03
734.55	0.03
734.729	-0.11
734.908	-0.01
735.086	-0
735.265	0.12
735.444	-0.13
735.623	-0.09
735.801	-0.08
735.98	-0.1
736.159	-0.04
736.337	0.12
736.516	0.05
736.694	-0.1
736.873	-0.06
737.052	0.17
737.23	0.16
737.409	-0.1
737.587	0.09
737.766	-0.17
737.944	0.01
738.123	-0.02
738.301	-0.05
738.479	-0.13
738.658	0.1
738.836	-0.26
739.015	-0.06
739.193	-0.01
739.371	-0.19
739.55	-0.19
739.728	-0.16
739.906	0.13
740.085	0.03
740.263	0.01
740.441	-0.25
740.62	0.13
740.798	0.15
740.976	-0.14
741.154	-0.09
741.332	0.11
741.511	-0.14
741.689	-0.01
741.867	-0.04
742.045	-0.01
742.223	-0.07
742.401	-0.19
742.579	-0.08
742.757	0.01
742.935	-0.19
743.114	0
743.292	-0.01
743.47	-0.02
743.648	0.15
743.826	-0.21
744.004	-0.06
744.181	0.08
744.359	-0.08
744.537	-0.05
744.715	-0.08
744.893	0.02
745.071	-0.03
745.249	-0.1
745.427	-0.09
745.605	0.03
745.782	-0.07
745.96	-0
746.138	0.09
746.316	-0.04
746.493	-0.18
746.671	0.01
746.849	-0
747.027	0.15
747.204	-0.1
747.382	0.02
747.56	-0.21
747.737	0.12
747.915	-0.1
748.093	-0.07
748.27	-0.13
748.448	-0.02
748.625	-0.14
748.803	-0.09
748.98	-0.09
749.158	0.12
749.335	0.01
749.513	0.01
749.69	-0.08
749.868	-0.03
750.045	-0.02
750.223	-0.15
750.4	-0.3
750.578	0.12
750.755	0.02
750.932	-0.2
751.11	0.05
751.287	-0.14
751.464	0.01
751.642	-0.14
751.819	-0.05
751.996	-0
752.173	-0.12
752.351	-0.14
752.528	-0.1
752.705	-0.07
752.882	-0.22
753.06	-0.01
753.237	-0
753.414	0.13
753.591	0.14
753.768	0.04
753.945	-0.06
754.122	-0.07
754.299	0.06
754.476	-0.19
754.654	-0.08
754.831	0.04
755.008	0.01
755.185	-0.11
755.362	-0.2
755.539	0
755.716	-0.14
755.892	-0.06
756.069	-0.01
756.246	-0.03
756.423	-0.15
756.6	0.11
756.777	-0.05
756.954	0.19
757.131	-0.04
757.307	-0.21
757.484	-0.15
757.661	-0.04
757.838	0.02
758.015	-0.18
758.191	-0.1
758.368	-0.09
758.545	0.2
758.721	-0
758.898	-0.04
759.075	0.03
759.251	-0.01
759.428	0.02
759.605	-0.2
759.781	-0.07
759.958	0.03
760.134	-0.08
760.311	-0.15
760.488	0
760.664	0.19
760.841	0.08
761.017	-0.13
761.194	-0.05
761.37	0.03
761.547	-0
761.723	-0.05
761.899	0.05
762.076	-0.19
762.252	-0.2
762.429	-0.08
762.605	0.02
762.781	-0.2
762.958	0.1
763.134	-0.21
763.31	-0.08
763.486	-0.01
763.663	-0.21
763.839	-0.08
764.015	-0.33
764.191	-0.15
764.368	-0.05
764.544	-0.05
764.72	0.07
764.896	0.07
765.072	-0.01
765.248	-0.15
765.425	0
765.601	0.01
765.777	-0.01
765.953	-0.24
766.129	-0.02
766.305	-0.14
766.481	0.01
766.657	-0.09
766.833	0.16
767.009	-0.08
767.185	-0.15
767.361	-0.11
767.537	-0.1
767.713	0.14
767.889	-0.13
768.065	-0.1
768.24	-0.07
768.416	0.03
768.592	-0.17
768.768	-0.1
768.944	0
769.12	-0.14
769.295	-0.01
769.471	-0.22
769.647	-0.1
769.823	0.11
769.998	-0.08
770.174	-0.28
770.35	0.24
770.525	0.17
770.701	0.06
770.877	-0.18
771.052	-0.08
771.228	0.15
771.403	0.09
771.579	-0
771.755	0.35
771.93	-0.1
772.106	-0.07
772.281	-0.23
772.457	-0.03
772.632	0.01
772.808	-0.3
772.983	-0.03
773.159	-0.31
773.334	0.08
773.509	0.01
773.685	-0.07
773.86	0.34
774.036	0.15
774.211	-0
774.386	-0.09
774.562	-0.06
774.737	0.09
774.912	-0.21
775.087	-0.02
775.263	-0.04
775.438	-0.16
775.613	-0.22
775.788	-0.03
775.964	0.09
776.139	0.4
776.314	-0.21
776.489	0
776.664	0.01
776.839	-0.24
777.014	0.09
777.19	0.18
777.365	0.14
777.54	0.19
777.715	-0.1
777.89	-0.18
778.065	-0.19
778.24	-0.05
778.415	-0.1
778.59	-0.13
778.765	-0.04
778.94	-0.05
779.115	-0.16
779.289	-0.18
779.464	-0.13
779.639	-0.04
779.814	-0.39
779.989	-0.19
780.164	0.23
780.339	0.1
780.513	-0.1
780.688	-0.13
780.863	-0.08
781.038	0.11
781.212	-0.34
781.387	-0
781.562	0.44
781.737	-0.26
781.911	0.18
782.086	-0.15
782.261	-0.06
782.435	0.22
782.61	-0.1
782.784	-0.32
782.959	0.12
783.134	-0.15
783.308	-0.33
783.483	-0.17
783.657	0.33
783.832	0.25
784.006	-0.34
784.181	0.04
784.355	0.04
784.53	-0.28
784.704	-0.37
784.878	0.18
785.053	0.24
785.227	0.09
785.402	0.28
785.576	-0.3
785.75	-0.24
785.925	-0.14
786.099	-0.08
786.273	0.1
786.448	0.06
786.622	-0.05
786.796	-0.14
786.97	-0.01
787.145	0.31
787.319	-0.23
787.493	-0.07
787.667	-0.41
787.841	-0.12
788.015	0.29
788.19	-0.21
788.364	-0.12
788.538	0.09
788.712	-0.1
788.886	-0.22
789.06	0.21
789.234	0.09
789.408	-0.41
789.582	-0.29
789.756	-0.08
789.93	-0.19
790.104	-0.15
790.278	-0.09
790.452	-0.17
790.626	0.26
790.8	-0.31
790.973	0.24
791.147	0.03
791.321	0.09
791.495	0.18
791.669	0.11
791.843	0.12
792.016	-0.1
792.19	0.2
792.364	-0.37
792.538	0.34
792.711	0.34
792.885	-0.01
793.059	-0.27
793.233	-0.53
793.406	0.22
793.58	-0
793.754	-0.15
793.927	-0.27
794.101	0.08
794.274	-0.08
794.448	0.06
794.622	-0.33
794.795	0.42
794.969	-0.27
795.142	0.3
795.316	-0.1
795.489	-0.32
795.663	0.2
795.836	-0.12
796.009	-0.37
796.183	0.17
796.356	0.01
796.53	0.08
796.703	-0.18
796.876	0.32
797.05	-0.2
797.223	-0.18
797.396	-0.01
797.57	-0
797.743	0.3
797.916	-0.04
798.09	-0.18
798.263	0.14
798.436	0.29
798.609	-0.14
798.782	-0.22
798.956	-0.03
799.129	-0.33
799.302	-0.43
799.475	-0.29
799.648	-0.22
799.821	-0.31
799.994	-0.18
800.167	-0.26
800.34	0.21
800.514	-0.04
800.687	-0.09
800.86	-0.23
801.033	-0.12
801.206	0.06
801.379	-0.26
801.551	0.16
801.724	-0.02
801.897	0.46
802.07	-0.31
802.243	-0.48
802.416	-0.22
802.589	-0.44
802.762	-0.07
802.935	-0.37
803.107	-0.14
803.28	0.36
803.453	0.24
803.626	-0.4
803.798	-0.26
803.971	-0.38
804.144	0.03
804.317	-0.05
804.489	0.17
804.662	0.16
804.835	-0.12
805.007	-0.28
805.18	0.42
805.353	0.17
805.525	-0.35
805.698	-0.11
805.87	0.04
806.043	0.41
806.215	-0.23
806.388	-0.38
806.56	-0.15
806.733	0.32
806.905	-0.06
807.078	-0.64
807.25	-0.52
807.423	-0.04
807.595	-0.11
807.768	-0.32
807.94	0.29
808.112	-0.12
808.285	-0.13
808.457	-0.22
808.629	0.06
808.802	-0.27
808.974	-0.05
809.146	-0.59
809.318	-0.31
809.491	0.01
809.663	-0.03
809.835	-0.44
810.007	0.05
810.18	0.06
810.352	-0.46
810.524	-0.02
810.696	0.09
810.868	0.34
811.04	-0.09
811.212	-0.04
811.384	0.03
811.556	0.24
811.728	-0.47
811.901	0.65
812.073	-0.15
812.245	-0.22
812.417	-0.02
812.589	-0.74
812.76	-0.16
812.932	0.03
813.104	0.09
813.276	-0.01
813.448	0.3
813.62	0.01
813.792	0.17
813.964	-0.14
814.136	-0.01
814.307	-0.04
814.479	-0.46
814.651	-0.22
814.823	0.64
814.995	-0.36
815.166	0.06
815.338	-0.6
815.51	-0.61
815.681	0.95
815.853	0.09
816.025	-0.12
816.196	0.02
816.368	0.44
816.54	-0.55
816.711	-0.49
816.883	-0.12
817.054	0.88
817.226	-0.93
817.398	-0.8
817.569	0.19
817.741	-0.35
817.912	-0.25
818.084	-0.09
818.255	0.23
818.426	-0.42
818.598	-0.29
818.769	-0.89
818.941	0.38
819.112	0.61
819.283	0
819.455	-0.47
819.626	0.19
819.798	0.12
819.969	-0.18
820.14	-0.27
820.311	-0.44
820.483	0.34
820.654	0.35
820.825	-0.16
820.996	-0.33
821.168	-0.49
821.339	-0.31
821.51	-0.16
821.681	-0.07
821.852	0.1
822.023	-0.67
822.195	-0.74
822.366	-0
822.537	0.02
822.708	0.37
822.879	-0.48
823.05	0.7
823.221	-0.55
823.392	0.35
823.563	-0.36
823.734	-0.09
823.905	-0.17
824.076	-0.73
824.247	-0.71
824.418	-0.76
824.589	0.25
824.759	-0.36
824.93	-0.02
825.101	-0.13
825.272	0.65
825.443	0.37
825.614	0.25
825.784	-1.35
825.955	1.06
826.126	0.31
826.297	-0.12
826.467	0.71
826.638	0.13
826.809	-1.17
826.98	-0.45
827.15	-0.48
827.321	-0.18
827.492	0.38
827.662	-0.55
827.833	1.3
828.003	0.14
828.174	-0.68
828.345	-0.85
828.515	0.5
828.686	-0.16
828.856	-0.62
829.027	0.1
829.197	0.06
829.368	0.28
829.538	-0.19
829.709	-0.84
829.879	-0.38
830.049	-0.35
830.22	-0.56
830.39	-0.36
830.56	0.18
830.731	-0.49
830.901	-0.43
831.072	-0.76
831.242	-0.16
831.412	0.56
831.582	-0.32
831.753	-1.19
831.923	-0.15
832.093	0.26
832.263	-0.58
832.434	-0.85
832.604	-0.04
832.774	-0.07
832.944	-0.46
833.114	-0.38
833.284	0.41
833.454	-1.02
833.624	-0.9
833.795	-0.25
833.965	0.61
834.135	0.72
834.305	-1.04
834.475	-0.69
834.645	-0.38
834.815	0.25
834.985	-0.53
835.155	-1.08
835.325	0.15
835.494	0.21
835.664	-0.39
835.834	-0.58
836.004	-0.45
836.174	0.22
836.344	0.36
836.514	-1.43
836.684	-0.31
836.853	0.13
837.023	-0.13
837.193	-0.55
837.363	0.75
837.532	0.21
837.702	-0.01
837.872	-0.53
838.041	0.52
838.211	1.63
838.381	-0.62
838.55	0.5
838.72	1.81
838.89	0.58
839.059	-1.01
839.229	-0.79
839.398	0.83
839.568	-0.11
839.738	-0.35
839.907	1.21
840.077	0.41
840.246	-0.51
840.416	-1.23
840.585	-0.92
840.755	1.83
840.924	0.6
841.093	-0.76
841.263	-0.44
841.432	-0.16
841.602	-0.43
841.771	-1.08
841.94	-0.36
842.11	1.41
842.279	0.45
842.448	-0.96
842.617	-1
842.787	1.98
842.956	-1.29
843.125	-0.23
843.294	-0.26
843.464	0.85
843.633	0.15
843.802	-1.26
843.971	-0.76
844.14	0.94
844.309	0.5
844.479	-1.38
844.648	-1.11
844.817	0.05
844.986	-0.09
845.155	-0.84
845.324	-0.34
845.493	-0.27
845.662	-0.89
845.831	0.03
846	-0.12
846.169	0.24
846.338	1.51
846.507	-0.22
846.676	-0.44
846.844	-0.49
847.013	-0.12
847.182	0.49
847.351	-0.08
847.52	0.14
847.689	0.36
847.858	-0.17
848.026	-0.33
848.195	-0.84
848.364	-0.35
848.533	-0.78
848.701	-1.42
848.87	-0.02
849.039	0.65
849.207	0.1
849.376	0.63
849.545	1.21
849.713	-1.06
849.882	-0.78
850.051	-0.77
850.219	0.42
850.388	0.28
850.556	-0.63
850.725	-1.74
850.893	0.04
851.062	-0.43
851.23	0.1
851.399	-1.42
851.567	-0.49
851.736	-0.71
851.904	-1.08
852.073	-0
852.241	1.29
852.41	-0.1
852.578	-0.52
852.746	-0.46
852.915	0.36
853.083	0.16
853.251	-1.25
853.42	-0.93
853.588	-0.34
853.756	1.67
853.924	-0.64
854.093	-0.18
854.261	-0.76
854.429	-1.51
854.597	0.11
854.765	-0.68
854.934	2.07
855.102	2.16
855.27	-0.33
855.438	0.42
855.606	0.79
855.774	2.06
855.942	-1.59
856.11	-2.59
856.278	0.3
856.446	2.32
856.614	-1.3
856.782	-1.16
856.95	1.22
857.118	1.43
857.286	0.03
857.454	-0.97
857.622	0.21
857.79	1.04
857.958	-0.5
858.126	-1.11
858.294	-3.25
858.462	-0.74
858.629	-1.26
858.797	-0.73
858.965	-0.13
859.133	-0.11
859.301	-0.25
859.468	0.82
859.636	-0.16
859.804	0.76
859.971	-0.28
860.139	-1.56
860.307	0.36
860.474	0.22
860.642	-1.7
860.81	-1.69
860.977	0.32
861.145	1.15
861.313	-0.56
861.48	-1.47
861.648	0.77
861.815	-0.59
861.983	-1.58
862.15	-0.87
862.318	-1.06
862.485	-0.24
862.653	-0.67
862.82	-0.77
862.988	1.34
863.155	0.66
863.322	-2.45
863.49	-2.74
863.657	-0.8
863.824	0.15
863.992	-0.82
864.159	0.48
864.326	0.69
864.494	-1.4
864.661	2.07
864.828	-1.58
864.996	1.23
865.163	1.9
865.33	-1.92
865.497	-3.08
865.664	-0.94
865.832	-2.64
865.999	-0.27
866.166	-2.78
866.333	-1.96
866.5	-1.15
866.667	-0.92
866.834	-0.59
867.001	0.98
867.168	-2.4
867.335	-1.73
867.502	-1.98
867.669	0.63
867.836	2.35
868.003	-2.03
868.17	0.41
868.337	-0.86
868.504	2.45
868.671	-2.08
868.838	-0.2
869.005	0.46
869.172	0.66
869.339	-0.92
869.505	-1.91
869.672	-0.18
869.839	0.36
870.006	-0.21
870.173	-2.94
870.339	1.24
870.506	2.52
870.673	-0.23
870.84	1
871.006	-0.53
871.173	-1.17
871.34	-1.41
871.506	-1.95
871.673	0.68
871.839	-2.47
872.006	0.84
872.173	-1.09
872.339	0.17
872.506	2.01
872.672	-0.09
872.839	-2.14
873.005	-0.59
873.172	2.61
873.338	1.03
873.505	-0.16
873.671	-1.35
873.838	1.13
874.004	-2.08
874.171	-1.6
874.337	1.09
874.503	0.66
874.67	-1.06
874.836	0.08
875.002	2.14
875.169	0.93
875.335	0.05
875.501	-0.02
875.668	1.42
875.834	0.17
876	-1.07
876.166	0.53
876.332	0.84
876.499	4.02
876.665	-1.84
876.831	-0.92
876.997	2.96
877.163	2.01
877.329	-1.27
877.495	0.41
877.662	0.67
877.828	1.55
877.994	-1.68
878.16	-1.25
878.326	0.03
878.492	-0.1
878.658	0.01
878.824	-0.43
878.99	0.74
879.156	-0.88
879.322	1.17
879.487	-1.86
879.653	-0.1
879.819	0.23
879.985	-1.66
880.151	0.65
880.317	0.91
880.483	-1.48
880.648	-0.85
880.814	-3.76
880.98	-0.51
881.146	-2.69
881.312	-2.01
881.477	-1.92
881.643	-0.35
881.809	1.42
881.974	0.76
882.14	-2.6
882.306	-0.2
882.471	4.83
882.637	-2.06
882.803	0.59
882.968	2.01
883.134	1.43
883.299	0.14
883.465	-0.79
883.63	2.86
883.796	0.66
883.961	1.76
884.127	0.36
884.292	-4.68
884.458	-2.11
884.623	-2.11
