Data from Apollo_Calib_20240827__AbsoluteIrradiance__54__00-03-01-748.txt Node

Date: Wed Aug 28 00:03:01 BST 2024
User: biology
Spectrometer: FLMT08252
Trigger mode: 0
Integration Time (sec): 5.000000E-1
Scans to average: 5
Electric dark correction enabled: true
Nonlinearity correction enabled: false
Boxcar width: 0
XAxis mode: Wavelengths
Number of Pixels in Spectrum: 3648
>>>>>Begin Spectral Data<<<<<
179.588	-0
179.809	-0
180.03	-0
180.251	-0
180.473	-0
180.694	0
180.915	0
181.136	-0
181.357	0
181.578	-0
181.799	-0
182.02	-0
182.241	0
182.462	-0
182.683	0
182.904	-0
183.125	-0
183.346	0
183.567	0
183.788	-0
184.009	-0
184.23	0
184.451	-0
184.672	-0
184.892	-0
185.113	0
185.334	0
185.555	-0
185.776	-0
185.996	-0
186.217	-0
186.438	-0
186.659	-0
186.879	-0
187.1	-0
187.321	-0
187.541	-0
187.762	0
187.983	-0
188.203	-0
188.424	0
188.644	-0
188.865	0
189.086	-0
189.306	-0
189.527	-0
189.747	-0
189.968	-0
190.188	-0
190.409	-0
190.629	0
190.849	-0
191.07	-0
191.29	-0
191.511	-0
191.731	-0
191.951	-0
192.172	-0
192.392	-0
192.612	-0
192.833	-0
193.053	-0
193.273	-0
193.493	-0
193.714	0
193.934	0
194.154	0
194.374	-0
194.594	-0
194.815	-0
195.035	-0
195.255	-0
195.475	-0
195.695	0
195.915	-0
196.135	-0
196.355	0
196.575	0
196.795	0
197.015	-0
197.235	-0
197.455	-0
197.675	0
197.895	-0
198.115	-0
198.335	0
198.555	-0
198.775	-0
198.995	0
199.214	0
199.434	-0
199.654	-0
199.874	-0
200.094	0.54
200.313	-0.7
200.533	-0.54
200.753	-1.15
200.973	0.47
201.192	0.12
201.412	-1.16
201.632	-0.65
201.851	0.59
202.071	-0.78
202.291	-0.47
202.51	-1.16
202.73	0.03
202.95	-0.4
203.169	-1.04
203.389	-0.58
203.608	-0.28
203.828	-0.66
204.047	-0.47
204.267	-0.03
204.486	-0.33
204.706	-0.04
204.925	-0.12
205.145	-0.84
205.364	0.26
205.583	0.25
205.803	-0.56
206.022	-0.98
206.242	-0.15
206.461	0.02
206.68	-0.6
206.9	-0.19
207.119	0.49
207.338	0.56
207.557	-0.33
207.777	-0.53
207.996	-0.29
208.215	0.17
208.434	-0.38
208.654	-0.72
208.873	-0.37
209.092	0.38
209.311	-0.65
209.53	-0.27
209.749	-0.29
209.968	-0.3
210.187	-0.3
210.407	-0.61
210.626	-0.4
210.845	0.08
211.064	-0.15
211.283	-0.47
211.502	0.28
211.721	0.05
211.94	-0.35
212.159	-0
212.377	0.25
212.596	0.32
212.815	0.07
213.034	0.02
213.253	0.1
213.472	0.08
213.691	-0.02
213.91	-0.3
214.128	-0.18
214.347	0.24
214.566	-0.62
214.785	-0.44
215.003	0.02
215.222	-0.06
215.441	0.01
215.66	-0.45
215.878	-0.15
216.097	0.05
216.316	-0.3
216.534	-0.13
216.753	-0.09
216.972	-0.17
217.19	-0.11
217.409	-0.42
217.627	-0.3
217.846	-0.25
218.064	-0.01
218.283	-0.17
218.501	0.34
218.72	0.15
218.938	-0.44
219.157	-0.12
219.375	0.19
219.594	-0.01
219.812	-0.19
220.031	-0.26
220.249	0.1
220.467	0.26
220.686	-0.29
220.904	-0.33
221.122	-0.3
221.341	0.2
221.559	-0.13
221.777	-0.38
221.995	-0.12
222.214	-0.01
222.432	-0.2
222.65	0.1
222.868	-0.16
223.086	0.01
223.305	0.02
223.523	-0.19
223.741	0.25
223.959	0.06
224.177	-0.41
224.395	-0.18
224.613	-0.06
224.831	0.1
225.049	-0.31
225.267	-0.26
225.485	-0.04
225.703	-0.18
225.921	-0.04
226.139	-0.14
226.357	0.04
226.575	-0.07
226.793	-0.14
227.011	0.59
227.229	0.07
227.447	0.04
227.665	-0.2
227.883	-0.21
228.1	-0.07
228.318	-0.06
228.536	-0.26
228.754	-0.19
228.972	-0
229.189	0
229.407	-0.15
229.625	-0.2
229.843	0.13
230.06	-0.01
230.278	-0.22
230.496	-0.09
230.713	-0.04
230.931	0.13
231.149	-0.18
231.366	-0.3
231.584	-0.09
231.801	0.26
232.019	-0.15
232.236	-0.26
232.454	-0.14
232.671	-0.02
232.889	-0.13
233.106	-0.16
233.324	0.03
233.541	-0.1
233.759	-0.11
233.976	-0.22
234.194	-0.12
234.411	-0.07
234.628	-0.14
234.846	-0.21
235.063	-0.07
235.28	-0.08
235.498	-0.23
235.715	-0.26
235.932	-0
236.149	-0.11
236.367	-0.12
236.584	-0.05
236.801	-0.18
237.018	0.07
237.236	-0.05
237.453	-0.24
237.67	0.04
237.887	-0.08
238.104	-0.16
238.321	-0.25
238.538	-0.2
238.755	0.13
238.973	-0.22
239.19	-0.03
239.407	-0.05
239.624	-0.03
239.841	-0.25
240.058	-0.16
240.275	0.04
240.492	-0.1
240.709	-0
240.925	-0.09
241.142	-0.03
241.359	-0.17
241.576	-0.17
241.793	-0.14
242.01	-0.17
242.227	0
242.444	-0.04
242.66	0.03
242.877	-0.02
243.094	-0.11
243.311	-0.13
243.527	-0.12
243.744	-0.03
243.961	0.08
244.178	-0.19
244.394	-0.09
244.611	0.08
244.828	0.22
245.044	-0.21
245.261	-0.05
245.477	-0.01
245.694	-0.1
245.911	-0.05
246.127	-0.1
246.344	0.1
246.56	-0.02
246.777	-0.12
246.993	-0
247.21	0.09
247.426	0.08
247.643	-0.05
247.859	-0.03
248.076	-0.07
248.292	0.12
248.508	-0.06
248.725	-0.03
248.941	0.06
249.157	0.1
249.374	-0.1
249.59	-0.11
249.806	-0.07
250.023	0.04
250.239	-0.1
250.455	-0.14
250.671	-0
250.888	-0.05
251.104	0.04
251.32	-0.16
251.536	-0.1
251.752	-0.05
251.969	-0.05
252.185	-0.02
252.401	0.16
252.617	-0.01
252.833	-0.11
253.049	-0.01
253.265	-0.06
253.481	-0.02
253.697	-0.09
253.913	-0.07
254.129	-0.03
254.345	0.01
254.561	-0.07
254.777	-0.05
254.993	-0.01
255.209	-0.07
255.425	-0.09
255.641	-0.15
255.857	0.08
256.073	-0.03
256.288	-0.15
256.504	-0.08
256.72	-0.05
256.936	0.05
257.152	-0.09
257.367	-0.07
257.583	-0.02
257.799	0.08
258.015	-0.11
258.23	-0.15
258.446	0.09
258.662	-0.08
258.877	-0.11
259.093	-0.08
259.309	0.03
259.524	-0.06
259.74	-0.08
259.955	-0.13
260.171	0.01
260.387	-0.07
260.602	-0.04
260.818	0
261.033	-0.06
261.249	-0.11
261.464	-0.12
261.68	-0.13
261.895	-0.02
262.11	-0.02
262.326	-0.13
262.541	-0.09
262.757	0.06
262.972	0.03
263.187	-0.03
263.403	-0.04
263.618	-0.01
263.833	-0.02
264.049	-0.15
264.264	-0.06
264.479	0.07
264.694	0.12
264.91	-0.16
265.125	-0.02
265.34	0.09
265.555	0.11
265.77	-0.05
265.986	-0.06
266.201	-0.03
266.416	0.03
266.631	-0.07
266.846	-0.1
267.061	0.06
267.276	-0.04
267.491	-0.2
267.706	-0.04
267.921	-0
268.136	-0.09
268.351	-0.06
268.566	-0.12
268.781	0.03
268.996	0.05
269.211	-0.01
269.426	-0.07
269.641	-0.06
269.856	0.02
270.071	-0.11
270.285	-0.14
270.5	0.02
270.715	0.06
270.93	-0.06
271.145	-0.1
271.359	-0.01
271.574	-0.05
271.789	-0.04
272.004	-0.01
272.218	-0.02
272.433	0.01
272.648	-0.12
272.862	0.01
273.077	-0.04
273.292	0.01
273.506	-0.09
273.721	-0.06
273.936	0.03
274.15	0.05
274.365	-0.04
274.579	-0.02
274.794	-0
275.008	-0.01
275.223	-0.03
275.437	-0.07
275.652	0.09
275.866	-0.03
276.081	-0.04
276.295	0.03
276.509	-0.06
276.724	-0.01
276.938	-0.03
277.153	-0
277.367	-0.01
277.581	-0.05
277.796	-0.06
278.01	-0.13
278.224	0
278.438	0.12
278.653	-0.12
278.867	-0.05
279.081	0.08
279.295	-0.06
279.51	-0.03
279.724	-0.14
279.938	-0.02
280.152	0.05
280.366	-0.08
280.58	-0.02
280.794	0.04
281.008	-0.01
281.222	-0.02
281.437	0.05
281.651	-0.05
281.865	0.1
282.079	-0.04
282.293	-0.1
282.507	-0.09
282.721	-0.03
282.935	0
283.148	-0.12
283.362	-0.03
283.576	-0.11
283.79	-0.03
284.004	-0.07
284.218	0.03
284.432	-0.01
284.646	-0.02
284.859	-0.1
285.073	-0.07
285.287	-0.03
285.501	-0.06
285.714	0.03
285.928	0.04
286.142	0.03
286.356	-0.05
286.569	-0.08
286.783	0.07
286.997	0.04
287.21	-0.02
287.424	-0.03
287.637	0.01
287.851	-0.06
288.065	-0.02
288.278	-0.04
288.492	0.01
288.705	-0.07
288.919	0.01
289.132	-0.09
289.346	0.03
289.559	-0.06
289.773	-0.08
289.986	-0.06
290.2	-0.04
290.413	0.02
290.626	-0.03
290.84	-0.01
291.053	-0.01
291.267	0.04
291.48	0
291.693	-0.03
291.906	-0.06
292.12	-0.04
292.333	-0.05
292.546	-0.06
292.76	0.03
292.973	0
293.186	0.02
293.399	-0.06
293.612	0.03
293.826	-0.02
294.039	-0.04
294.252	-0.05
294.465	0.05
294.678	0.01
294.891	-0.03
295.104	-0.05
295.317	-0.01
295.53	0
295.743	-0.02
295.956	-0.05
296.169	0.03
296.382	0.05
296.595	-0.01
296.808	-0.03
297.021	0.04
297.234	0.03
297.447	-0.02
297.66	-0
297.873	0.05
298.086	0.04
298.299	-0.08
298.511	-0.07
298.724	0.05
298.937	-0.04
299.15	-0.06
299.363	-0
299.575	0.02
299.788	0.03
300.001	-0.06
300.213	-0.01
300.426	-0.03
300.639	-0.02
300.852	-0.04
301.064	0.06
301.277	0.06
301.489	0
301.702	0.02
301.915	0
302.127	0
302.34	-0.01
302.552	-0.01
302.765	-0.05
302.977	0.06
303.19	-0.06
303.402	-0.07
303.615	-0.03
303.827	-0.03
304.04	-0.05
304.252	-0.02
304.464	-0.02
304.677	0.08
304.889	0.05
305.102	-0.02
305.314	-0.03
305.526	-0
305.739	0
305.951	-0.06
306.163	-0.01
306.375	0.04
306.588	-0.01
306.8	-0.06
307.012	-0.08
307.224	-0.02
307.436	0.02
307.649	-0.13
307.861	0
308.073	0.01
308.285	-0.06
308.497	-0.06
308.709	-0.07
308.921	-0.02
309.133	0.02
309.346	-0.03
309.558	-0.05
309.77	-0
309.982	0.06
310.194	0.06
310.406	-0.07
310.617	0.12
310.829	-0
311.041	0.02
311.253	-0.07
311.465	-0.04
311.677	-0.02
311.889	0
312.101	-0.06
312.313	0.06
312.524	0.03
312.736	-0.04
312.948	-0.05
313.16	0.05
313.372	0.06
313.583	-0
313.795	-0.05
314.007	-0.03
314.218	0.04
314.43	-0
314.642	-0.09
314.853	-0.03
315.065	-0.02
315.277	0.01
315.488	0
315.7	0.01
315.912	0.02
316.123	-0.02
316.335	-0.03
316.546	0.04
316.758	-0.04
316.969	-0.04
317.181	0.01
317.392	0.01
317.604	0.09
317.815	-0.06
318.026	-0.05
318.238	-0.02
318.449	0.01
318.661	-0.07
318.872	-0.06
319.083	-0.07
319.295	0
319.506	-0.04
319.717	0.01
319.929	0.03
320.14	-0.06
320.351	-0.03
320.562	-0.08
320.774	0.04
320.985	0
321.196	-0.04
321.407	-0.05
321.618	0.01
321.829	0.03
322.041	0
322.252	-0.04
322.463	-0.03
322.674	-0.02
322.885	-0.08
323.096	-0.03
323.307	-0
323.518	-0.03
323.729	-0.05
323.94	-0.03
324.151	-0.04
324.362	-0.03
324.573	-0.01
324.784	-0.02
324.995	0.04
325.206	-0.01
325.417	-0.02
325.628	-0.03
325.838	-0.02
326.049	-0.02
326.26	0.02
326.471	-0.08
326.682	-0.03
326.892	0
327.103	-0.07
327.314	-0.1
327.525	0.05
327.735	-0.02
327.946	-0.04
328.157	-0.06
328.368	0.06
328.578	-0
328.789	0.04
328.999	-0.04
329.21	-0.03
329.421	-0.01
329.631	-0.09
329.842	-0.06
330.052	0.01
330.263	0.05
330.473	0.01
330.684	-0.05
330.894	-0.05
331.105	0.03
331.315	-0.01
331.526	-0.12
331.736	0.06
331.947	-0.02
332.157	0
332.367	-0.05
332.578	0.02
332.788	0.04
332.999	0.02
333.209	0
333.419	-0.07
333.629	-0.01
333.84	-0
334.05	-0.03
334.26	0.04
334.47	-0.01
334.681	-0.02
334.891	-0.04
335.101	0.02
335.311	0.07
335.521	-0.04
335.732	-0.03
335.942	0.06
336.152	-0.04
336.362	-0.04
336.572	-0.04
336.782	0.03
336.992	-0.04
337.202	-0.02
337.412	-0.06
337.622	0.01
337.832	-0.01
338.042	0
338.252	-0.04
338.462	-0.05
338.672	-0
338.882	-0.04
339.092	-0.03
339.302	0.06
339.511	0.01
339.721	-0.06
339.931	-0.06
340.141	0.03
340.351	0
340.561	-0.03
340.77	-0
340.98	0.04
341.19	0.02
341.4	-0.05
341.609	-0.05
341.819	-0.05
342.029	-0.08
342.238	0
342.448	-0.04
342.658	0.02
342.867	-0.02
343.077	-0.01
343.286	0.02
343.496	-0.01
343.706	0.07
343.915	-0.04
344.125	-0.05
344.334	-0.03
344.544	-0.03
344.753	-0.05
344.963	0
345.172	-0.02
345.381	-0.05
345.591	-0.08
345.8	-0.01
346.01	0.01
346.219	0.05
346.428	-0.14
346.638	-0.02
346.847	-0.02
347.056	0
347.266	-0.09
347.475	-0.03
347.684	0.01
347.893	0
348.103	0.02
348.312	-0.03
348.521	-0.04
348.73	-0.04
348.94	-0.05
349.149	-0.01
349.358	-0.04
349.567	-0.05
349.776	-0.08
349.985	-0.05
350.194	0.05
350.403	0
350.612	-0.09
350.821	-0.03
351.03	0.02
351.239	-0.07
351.448	-0.02
351.657	-0.04
351.866	0.05
352.075	-0.01
352.284	-0
352.493	-0.06
352.702	0.04
352.911	0.04
353.12	-0.02
353.329	-0.05
353.538	-0.01
353.746	0
353.955	-0.05
354.164	-0.02
354.373	-0.04
354.582	0
354.79	-0.03
354.999	0.01
355.208	-0.02
355.416	0.06
355.625	-0.06
355.834	-0.06
356.042	0.04
356.251	-0.02
356.46	-0.07
356.668	0.05
356.877	0.05
357.085	0.02
357.294	-0.08
357.503	-0.03
357.711	-0.02
357.92	0.06
358.128	-0.04
358.337	-0.04
358.545	-0.01
358.754	-0.04
358.962	0.02
359.17	-0.02
359.379	0.02
359.587	0.02
359.796	-0.01
360.004	0.01
360.212	-0.02
360.421	0.04
360.629	-0.04
360.837	-0.02
361.046	0
361.254	0.07
361.462	-0
361.67	-0.05
361.879	-0
362.087	0.04
362.295	0.01
362.503	-0.03
362.711	-0.06
362.92	0
363.128	-0.03
363.336	-0.08
363.544	-0.07
363.752	-0.03
363.96	-0.03
364.168	-0.02
364.376	-0.05
364.584	0
364.792	0.02
365	0
365.208	-0.04
365.416	-0
365.624	0.03
365.832	-0.01
366.04	0.06
366.248	0.02
366.456	0.01
366.664	0
366.872	-0.01
367.079	-0.04
367.287	-0.02
367.495	-0.02
367.703	0.01
367.911	-0.04
368.118	-0.03
368.326	-0.02
368.534	-0.04
368.742	0.06
368.949	-0.07
369.157	-0.05
369.365	-0.01
369.572	-0.01
369.78	-0.04
369.988	0.02
370.195	0
370.403	-0.02
370.61	-0.02
370.818	-0
371.026	0.08
371.233	-0.03
371.441	0.01
371.648	-0.03
371.856	0.01
372.063	-0.02
372.271	-0.05
372.478	-0.03
372.685	-0.05
372.893	0.04
373.1	-0.01
373.308	-0.03
373.515	0.05
373.722	0.02
373.93	-0.04
374.137	0.04
374.344	0.08
374.552	0.02
374.759	0.03
374.966	-0.03
375.173	-0.04
375.381	0.01
375.588	-0.02
375.795	-0.08
376.002	-0.02
376.209	-0.06
376.417	-0.06
376.624	-0.04
376.831	0.02
377.038	-0.05
377.245	-0.09
377.452	-0.05
377.659	-0.03
377.866	-0.05
378.073	-0.03
378.28	-0.01
378.487	0.01
378.694	0.01
378.901	-0.01
379.108	0
379.315	0.03
379.522	0.07
379.729	-0.01
379.936	-0.04
380.143	-0.01
380.35	0.01
380.557	-0.03
380.763	0.01
380.97	-0.01
381.177	0.01
381.384	-0.03
381.591	-0.03
381.797	-0.03
382.004	-0.01
382.211	0.02
382.418	-0.02
382.624	-0.04
382.831	-0.01
383.038	-0.03
383.244	-0.01
383.451	0.01
383.658	0.01
383.864	-0.04
384.071	-0.06
384.277	0
384.484	-0.05
384.69	0.02
384.897	-0.04
385.103	-0.04
385.31	-0.05
385.516	0
385.723	-0.04
385.929	-0.04
386.136	0
386.342	-0.01
386.549	-0.03
386.755	0.01
386.961	0.01
387.168	-0.04
387.374	0.01
387.58	0.01
387.787	-0.05
387.993	-0.01
388.199	-0.04
388.406	-0.07
388.612	-0.03
388.818	-0.07
389.024	-0.05
389.231	0.02
389.437	0.05
389.643	-0
389.849	0
390.055	0.02
390.261	-0.01
390.467	-0.03
390.674	-0.04
390.88	-0.04
391.086	0.02
391.292	-0.07
391.498	-0.01
391.704	-0.02
391.91	-0.02
392.116	-0.05
392.322	-0.11
392.528	0
392.734	-0.03
392.94	-0.03
393.146	-0.09
393.352	0.02
393.557	-0.07
393.763	-0.05
393.969	-0.03
394.175	-0.03
394.381	0.03
394.587	-0.07
394.792	-0.03
394.998	-0
395.204	0.04
395.41	-0.09
395.615	0.02
395.821	0.02
396.027	0.02
396.233	-0.06
396.438	-0.02
396.644	0.09
396.85	-0.05
397.055	-0.02
397.261	-0.03
397.466	-0.04
397.672	-0.03
397.878	0
398.083	-0.01
398.289	-0.07
398.494	0.01
398.7	0.05
398.905	-0.06
399.111	0.04
399.316	-0.06
399.522	-0.01
399.727	-0.03
399.932	-0.06
400.138	-0.06
400.343	0.05
400.549	0.01
400.754	0.03
400.959	-0.01
401.165	-0.05
401.37	-0.01
401.575	0.03
401.78	-0.01
401.986	-0.11
402.191	-0.05
402.396	-0.02
402.601	0.01
402.807	0.01
403.012	-0.01
403.217	-0.02
403.422	-0
403.627	-0.05
403.832	-0.05
404.037	0.02
404.243	-0.02
404.448	-0.04
404.653	0
404.858	0
405.063	0.04
405.268	-0.07
405.473	-0.03
405.678	-0.04
405.883	0.11
406.088	0.01
406.293	-0.06
406.498	-0.03
406.703	0.03
406.907	-0.06
407.112	-0.04
407.317	-0.04
407.522	0.01
407.727	-0.09
407.932	-0.03
408.136	0.09
408.341	-0.01
408.546	0.01
408.751	-0
408.956	-0.03
409.16	0.05
409.365	-0.04
409.57	-0.03
409.774	-0.04
409.979	-0
410.184	0.03
410.388	-0.01
410.593	0.04
410.798	-0.02
411.002	-0.01
411.207	0.04
411.411	0.02
411.616	-0.02
411.82	-0.06
412.025	0.01
412.229	-0.07
412.434	0.07
412.638	0
412.843	-0.03
413.047	-0.01
413.252	-0.06
413.456	-0.03
413.66	0.01
413.865	-0.06
414.069	0.06
414.273	-0.03
414.478	-0.04
414.682	-0.04
414.886	0
415.091	-0.07
415.295	-0.11
415.499	-0.01
415.703	-0
415.908	0.03
416.112	-0.08
416.316	-0.02
416.52	-0.01
416.724	-0.07
416.929	-0.08
417.133	0.11
417.337	-0.04
417.541	-0.04
417.745	-0.05
417.949	-0.01
418.153	0.01
418.357	-0.07
418.561	0.1
418.765	-0.01
418.969	0.06
419.173	0.03
419.377	-0.12
419.581	0.07
419.785	-0.05
419.989	-0.1
420.193	-0.05
420.397	-0.07
420.601	0.06
420.804	-0.01
421.008	-0
421.212	-0.05
421.416	-0.01
421.62	-0.05
421.823	-0.07
422.027	0.04
422.231	-0.01
422.435	-0.02
422.638	0.02
422.842	-0.04
423.046	-0.05
423.249	0.02
423.453	0.03
423.657	0.02
423.86	-0.01
424.064	-0.01
424.268	0.07
424.471	-0.01
424.675	0.04
424.878	0.04
425.082	0.01
425.285	0.04
425.489	-0.01
425.692	-0.02
425.896	-0
426.099	0.02
426.303	-0.04
426.506	-0.07
426.71	-0.01
426.913	0.06
427.116	0.04
427.32	-0.03
427.523	-0.03
427.726	0.06
427.93	-0.05
428.133	-0.06
428.336	-0.09
428.54	-0.08
428.743	0.01
428.946	0.05
429.149	-0.05
429.353	-0.01
429.556	-0.01
429.759	-0.08
429.962	-0.07
430.165	0.02
430.368	-0.03
430.571	-0.03
430.775	0.01
430.978	-0.05
431.181	0.05
431.384	0.03
431.587	-0.03
431.79	-0.02
431.993	-0.01
432.196	-0.04
432.399	-0.02
432.602	0.06
432.805	-0.06
433.008	0
433.211	-0.06
433.414	0.05
433.616	0.03
433.819	-0.01
434.022	-0.11
434.225	0.04
434.428	0.02
434.631	0.11
434.833	-0.02
435.036	-0.05
435.239	0.08
435.442	0.02
435.645	-0.03
435.847	0.03
436.05	0.06
436.253	-0.01
436.455	-0.06
436.658	-0.02
436.861	0.07
437.063	-0.01
437.266	0.03
437.468	-0
437.671	0.14
437.874	-0
438.076	-0.06
438.279	-0.08
438.481	0.05
438.684	-0.02
438.886	0.06
439.089	-0.07
439.291	0.01
439.494	0.04
439.696	-0.09
439.899	-0.02
440.101	-0.03
440.303	-0.07
440.506	0.05
440.708	0.01
440.91	0.06
441.113	-0
441.315	0.04
441.517	-0.08
441.72	0.05
441.922	-0.02
442.124	-0.05
442.326	0.04
442.529	0.11
442.731	-0.04
442.933	0.1
443.135	-0.04
443.337	0.03
443.539	-0.01
443.742	-0
443.944	0.03
444.146	-0.03
444.348	0
444.55	0.02
444.752	0.01
444.954	-0.02
445.156	-0.01
445.358	-0.05
445.56	0.07
445.762	-0
445.964	0.07
446.166	-0.05
446.368	-0.02
446.57	0.05
446.772	0.02
446.974	0.01
447.175	0.03
447.377	0.01
447.579	0.02
447.781	-0.04
447.983	0.1
448.184	0.09
448.386	0.08
448.588	-0
448.79	0.05
448.991	0.06
449.193	0.04
449.395	0.03
449.597	0.07
449.798	0.1
450	0.02
450.202	0.1
450.403	0.03
450.605	0.07
450.806	0.01
451.008	-0.04
451.21	0.06
451.411	0.05
451.613	0.02
451.814	0.03
452.016	0.07
452.217	0.05
452.419	0.1
452.62	0.02
452.821	0.08
453.023	0.14
453.224	0.14
453.426	0.03
453.627	0.04
453.828	0.1
454.03	0.02
454.231	0.05
454.432	-0.01
454.634	0.12
454.835	0
455.036	-0
455.238	0.05
455.439	0.1
455.64	-0.03
455.841	0.01
456.042	0.12
456.244	0.08
456.445	-0.03
456.646	-0.06
456.847	-0.01
457.048	0.07
457.249	0.06
457.45	0.22
457.651	-0.07
457.852	0.06
458.054	0.03
458.255	0.01
458.456	0.1
458.657	0.03
458.858	-0.01
459.058	0.01
459.259	0.1
459.46	0.03
459.661	-0.03
459.862	0.1
460.063	-0.05
460.264	0.05
460.465	-0.03
460.666	0.09
460.866	-0.01
461.067	0.04
461.268	0.02
461.469	-0.04
461.67	-0.04
461.87	-0.04
462.071	-0.04
462.272	-0.02
462.473	0.02
462.673	0.05
462.874	-0.02
463.075	0.02
463.275	-0.03
463.476	-0.01
463.676	-0.01
463.877	0.01
464.078	-0.02
464.278	0.04
464.479	-0.02
464.679	0
464.88	-0.02
465.08	0.09
465.281	-0.03
465.481	-0.04
465.682	0.03
465.882	0.01
466.083	-0.02
466.283	-0
466.483	0.01
466.684	-0.05
466.884	-0.03
467.085	-0.06
467.285	0.06
467.485	-0.05
467.686	0.03
467.886	-0.06
468.086	-0.01
468.286	0.01
468.487	0.03
468.687	-0.05
468.887	-0
469.087	0
469.287	0.03
469.488	-0.08
469.688	0.02
469.888	0.02
470.088	0.02
470.288	0.03
470.488	0.03
470.688	-0.03
470.888	-0.03
471.088	-0.04
471.288	0.05
471.488	0.03
471.688	0.01
471.888	-0.06
472.088	0.05
472.288	0.06
472.488	-0.06
472.688	0
472.888	0
473.088	-0.03
473.288	0.01
473.488	-0.02
473.688	0.09
473.887	-0.03
474.087	-0.07
474.287	0
474.487	-0.05
474.687	0.02
474.886	-0.02
475.086	0.01
475.286	-0
475.486	-0.04
475.685	-0.02
475.885	-0.01
476.085	-0.01
476.284	0.01
476.484	-0.05
476.684	-0
476.883	0.05
477.083	-0.02
477.282	-0.03
477.482	0.03
477.681	0.05
477.881	-0.01
478.08	-0.05
478.28	-0.04
478.479	0.01
478.679	0.05
478.878	-0.02
479.078	-0.01
479.277	-0.03
479.477	-0.03
479.676	0.04
479.875	-0.02
480.075	-0.08
480.274	-0.01
480.473	-0
480.673	-0.04
480.872	0.03
481.071	0.01
481.271	0.02
481.47	-0.04
481.669	-0.02
481.868	-0.02
482.067	-0.04
482.267	-0.03
482.466	-0.06
482.665	0
482.864	-0.06
483.063	-0.06
483.262	0.01
483.461	0.05
483.661	0.01
483.86	-0.03
484.059	0.01
484.258	0
484.457	-0.02
484.656	-0
484.855	0.02
485.054	-0.04
485.253	-0.03
485.452	-0.05
485.651	-0.02
485.849	-0.02
486.048	-0.04
486.247	-0.06
486.446	-0.04
486.645	-0.06
486.844	-0.04
487.043	0.01
487.241	0.03
487.44	-0.03
487.639	-0.03
487.838	0.02
488.037	0
488.235	0.04
488.434	-0.02
488.633	-0.04
488.831	-0
489.03	0.03
489.229	-0
489.427	0
489.626	0.03
489.825	0.06
490.023	-0.02
490.222	-0.05
490.42	0.01
490.619	-0
490.817	0.01
491.016	-0.02
491.214	0.03
491.413	-0.02
491.611	-0
491.81	-0.01
492.008	0.01
492.207	0.05
492.405	-0
492.604	-0.05
492.802	-0.03
493	0.01
493.199	-0.04
493.397	-0.01
493.595	-0.01
493.794	-0.04
493.992	0.04
494.19	-0.02
494.388	-0.01
494.587	-0.03
494.785	-0
494.983	-0.02
495.181	-0.01
495.379	-0.01
495.578	-0.02
495.776	-0
495.974	0.02
496.172	-0
496.37	-0.04
496.568	-0.04
496.766	-0.03
496.964	0.03
497.162	-0.01
497.36	-0.01
497.558	-0.01
497.756	0.02
497.954	-0.02
498.152	-0.04
498.35	-0
498.548	-0.01
498.746	-0.01
498.944	-0.02
499.142	-0.02
499.34	-0.04
499.538	-0
499.736	-0.03
499.933	0.01
500.131	0.02
500.329	0.01
500.527	0.03
500.725	0.02
500.922	0.01
501.12	0
501.318	0
501.516	-0.04
501.713	-0
501.911	-0.01
502.109	-0.06
502.306	-0.01
502.504	-0.02
502.701	-0.02
502.899	-0.02
503.097	0.04
503.294	0
503.492	-0.02
503.689	-0.02
503.887	0.01
504.084	0.01
504.282	0.01
504.479	-0.04
504.677	-0.01
504.874	-0.03
505.072	-0.02
505.269	-0.01
505.466	0
505.664	0
505.861	-0.06
506.059	-0.04
506.256	0.01
506.453	-0.02
506.651	0.04
506.848	0.02
507.045	-0.01
507.242	0
507.44	-0.02
507.637	0
507.834	-0.01
508.031	-0
508.229	-0.03
508.426	-0.01
508.623	0
508.82	-0.02
509.017	-0.04
509.214	-0.04
509.411	0.01
509.608	-0.03
509.805	-0.02
510.003	-0.01
510.2	-0.04
510.397	0.03
510.594	-0.03
510.791	-0.03
510.988	-0.03
511.184	0.02
511.381	-0.01
511.578	-0.01
511.775	0.01
511.972	-0.04
512.169	-0.02
512.366	-0.01
512.563	-0.01
512.76	-0.04
512.956	0.02
513.153	-0.04
513.35	0
513.547	-0.05
513.744	-0.02
513.94	-0.05
514.137	0.03
514.334	0.01
514.53	-0.01
514.727	-0.02
514.924	0.02
515.12	-0.02
515.317	-0.05
515.514	-0.05
515.71	-0.05
515.907	-0.01
516.103	-0.02
516.3	0
516.497	0.01
516.693	0
516.89	-0.01
517.086	-0.04
517.283	-0.01
517.479	-0.01
517.676	-0.01
517.872	-0.02
518.068	-0.03
518.265	-0.01
518.461	-0.02
518.658	-0.03
518.854	-0.01
519.05	-0.03
519.247	-0.04
519.443	0
519.639	-0.01
519.836	-0
520.032	-0.02
520.228	-0
520.424	0.01
520.621	0.02
520.817	-0.03
521.013	-0.02
521.209	-0
521.405	0.02
521.601	-0.01
521.798	-0.01
521.994	0.02
522.19	-0.02
522.386	-0.03
522.582	0
522.778	-0.02
522.974	-0.02
523.17	0.01
523.366	0.01
523.562	0.02
523.758	-0.01
523.954	-0.04
524.15	-0.04
524.346	0
524.542	-0.01
524.738	-0.04
524.934	0.01
525.129	-0.09
525.325	-0.02
525.521	-0.01
525.717	0.01
525.913	-0.01
526.109	-0.01
526.304	0
526.5	-0.01
526.696	0.02
526.892	-0.01
527.087	-0.02
527.283	-0.01
527.479	0.01
527.674	-0.04
527.87	-0.02
528.066	-0.03
528.261	0.02
528.457	0.02
528.653	-0.03
528.848	-0.01
529.044	-0.02
529.239	-0.04
529.435	0.01
529.63	-0
529.826	0.03
530.021	0
530.217	0.02
530.412	-0.01
530.608	-0.01
530.803	-0.01
530.999	-0.02
531.194	-0.05
531.389	-0.02
531.585	-0.06
531.78	-0.02
531.975	-0.01
532.171	0.01
532.366	-0.01
532.561	-0.02
532.757	-0.03
532.952	-0.02
533.147	0.01
533.342	-0.01
533.538	-0.05
533.733	0
533.928	-0.01
534.123	-0.03
534.318	-0.04
534.513	-0.01
534.709	-0.01
534.904	-0.01
535.099	-0.01
535.294	-0
535.489	-0.01
535.684	-0.01
535.879	-0.03
536.074	-0.02
536.269	-0.02
536.464	-0.01
536.659	-0
536.854	-0
537.049	0
537.244	-0
537.439	-0.01
537.634	0
537.828	0.01
538.023	-0.02
538.218	-0.03
538.413	-0
538.608	-0.03
538.803	0.01
538.997	-0.03
539.192	-0
539.387	-0.01
539.582	-0.01
539.776	-0.01
539.971	-0.03
540.166	-0.01
540.36	-0.03
540.555	-0.01
540.75	-0.02
540.944	-0.02
541.139	-0.06
541.334	-0.01
541.528	-0
541.723	0.01
541.917	-0.03
542.112	-0.06
542.306	-0.01
542.501	-0.01
542.695	-0.01
542.89	-0.04
543.084	-0.02
543.279	-0.01
543.473	-0.02
543.668	-0.01
543.862	-0.04
544.056	0
544.251	-0.02
544.445	0
544.64	-0.03
544.834	-0.03
545.028	-0.01
545.222	-0.01
545.417	0.03
545.611	-0
545.805	-0.02
546	-0.02
546.194	-0.02
546.388	-0.03
546.582	0
546.776	0.01
546.97	0.01
547.165	0.02
547.359	-0.01
547.553	-0.03
547.747	0.01
547.941	-0.01
548.135	-0.02
548.329	0.02
548.523	-0
548.717	-0
548.911	-0.02
549.105	-0.02
549.299	0
549.493	0.02
549.687	0.01
549.881	-0
550.075	-0.02
550.269	-0.03
550.463	0.01
550.657	-0.02
550.85	-0
551.044	-0.03
551.238	-0.02
551.432	-0.02
551.626	-0.06
551.82	-0.02
552.013	-0.02
552.207	0
552.401	-0
552.594	0
552.788	-0.02
552.982	-0.01
553.176	-0.02
553.369	0
553.563	0
553.756	-0.04
553.95	-0.05
554.144	-0
554.337	0.01
554.531	0.01
554.724	-0.01
554.918	-0.02
555.111	0
555.305	-0.01
555.498	0.05
555.692	0.01
555.885	-0.01
556.079	-0
556.272	-0.04
556.466	0
556.659	-0.03
556.852	-0.01
557.046	-0.03
557.239	-0
557.432	-0.04
557.626	-0.02
557.819	-0
558.012	0.01
558.206	-0
558.399	0.01
558.592	-0.01
558.785	-0.04
558.979	0
559.172	-0.02
559.365	0.01
559.558	0.01
559.751	-0
559.944	-0.03
560.138	-0.01
560.331	-0.01
560.524	-0.02
560.717	0.01
560.91	-0.01
561.103	-0.01
561.296	-0.01
561.489	-0.02
561.682	-0.03
561.875	0.02
562.068	0
562.261	-0.02
562.454	0.02
562.647	0.02
562.84	0
563.032	-0.01
563.225	-0.02
563.418	-0
563.611	-0.02
563.804	-0
563.997	-0.05
564.19	-0.04
564.382	0.01
564.575	-0
564.768	-0.02
564.961	-0.02
565.153	-0
565.346	-0
565.539	-0
565.731	0.01
565.924	-0
566.117	0.01
566.309	0.01
566.502	-0.03
566.695	0
566.887	0
567.08	-0.03
567.272	-0.02
567.465	-0.01
567.657	-0.01
567.85	0.01
568.042	-0.01
568.235	0.01
568.427	-0.01
568.62	-0.02
568.812	-0.02
569.005	-0.01
569.197	-0.06
569.389	-0.02
569.582	0.01
569.774	-0.01
569.966	-0.06
570.159	-0.04
570.351	-0.03
570.543	-0.03
570.736	0
570.928	-0.05
571.12	0
571.312	-0.03
571.505	-0.04
571.697	0.01
571.889	-0.02
572.081	-0.02
572.273	-0.02
572.465	0.01
572.658	-0.02
572.85	-0.01
573.042	-0.01
573.234	-0.01
573.426	0.03
573.618	-0.05
573.81	-0.03
574.002	0.03
574.194	0.02
574.386	-0.05
574.578	-0.09
574.77	-0.03
574.962	-0.01
575.154	-0.05
575.346	-0.01
575.538	0
575.729	-0.02
575.921	-0.02
576.113	-0.03
576.305	0.02
576.497	-0.04
576.689	-0.01
576.88	-0.04
577.072	0.01
577.264	-0.01
577.456	-0.02
577.647	-0.07
577.839	-0.01
578.031	0.03
578.223	-0.02
578.414	-0.04
578.606	0.01
578.798	-0.03
578.989	-0.04
579.181	-0
579.372	-0.05
579.564	-0.03
579.755	-0.01
579.947	-0.01
580.139	-0
580.33	-0.06
580.522	-0.04
580.713	-0.09
580.905	-0.02
581.096	0
581.287	-0.04
581.479	-0.01
581.67	0.02
581.862	0.01
582.053	-0.03
582.244	-0.04
582.436	-0.01
582.627	-0
582.818	-0.03
583.01	-0.05
583.201	0.03
583.392	0.01
583.583	-0.01
583.775	-0.02
583.966	-0.02
584.157	-0.02
584.348	-0.04
584.54	-0.05
584.731	0.02
584.922	0
585.113	-0.05
585.304	0.02
585.495	0.01
585.686	-0.02
585.877	-0.02
586.068	-0.02
586.259	-0.01
586.45	0.01
586.641	-0.04
586.832	-0.07
587.023	-0.02
587.214	-0.02
587.405	0
587.596	-0.04
587.787	0.01
587.978	-0.01
588.169	-0.06
588.36	-0.03
588.551	-0.01
588.742	-0.04
588.932	-0.03
589.123	-0.04
589.314	0.03
589.505	0
589.696	-0
589.886	-0.02
590.077	-0.06
590.268	-0
590.458	-0.03
590.649	-0.05
590.84	0.02
591.03	-0.04
591.221	-0.06
591.412	-0.05
591.602	0.01
591.793	0.04
591.984	-0.07
592.174	-0.02
592.365	0.02
592.555	-0.06
592.746	-0.03
592.936	0
593.127	-0.01
593.317	0.02
593.508	-0.03
593.698	-0.04
593.889	-0.02
594.079	-0.03
594.269	-0.03
594.46	-0.03
594.65	-0
594.84	-0.02
595.031	-0.06
595.221	-0.05
595.411	-0.09
595.602	0.02
595.792	-0.03
595.982	-0.03
596.172	0.05
596.363	-0.02
596.553	-0.02
596.743	-0.01
596.933	-0.02
597.123	0.03
597.314	-0.05
597.504	-0.05
597.694	0.04
597.884	-0
598.074	-0.04
598.264	-0.04
598.454	0.03
598.644	-0.02
598.834	-0.03
599.024	-0.03
599.214	-0.03
599.404	0.01
599.594	-0.04
599.784	-0.03
599.974	0.04
600.164	-0.02
600.354	-0.07
600.544	-0.03
600.734	0.01
600.924	0.03
601.114	-0.06
601.303	-0.02
601.493	-0.03
601.683	-0.03
601.873	-0.01
602.063	-0.06
602.252	0.03
602.442	-0.07
602.632	-0.04
602.821	-0.07
603.011	0.01
603.201	-0.01
603.39	-0.04
603.58	-0.04
603.77	-0.04
603.959	0.04
604.149	-0.01
604.339	-0.04
604.528	-0.01
604.718	-0
604.907	-0.02
605.097	-0.04
605.286	-0.01
605.476	0.01
605.665	0
605.855	-0.01
606.044	0.06
606.234	-0
606.423	-0.04
606.612	-0.03
606.802	0
606.991	0.03
607.181	-0.01
607.37	-0.05
607.559	-0.03
607.749	-0.04
607.938	-0
608.127	-0.03
608.316	-0.02
608.506	0.02
608.695	-0.03
608.884	-0.04
609.073	-0.04
609.263	0.02
609.452	0.01
609.641	0.02
609.83	-0.04
610.019	-0.02
610.208	-0.03
610.397	-0.03
610.586	-0.01
610.775	-0.03
610.965	-0.04
611.154	-0.02
611.343	-0.02
611.532	-0.01
611.721	-0.05
611.91	-0.02
612.099	0
612.287	-0
612.476	-0.04
612.665	0.02
612.854	-0.02
613.043	0.04
613.232	-0.03
613.421	-0.07
613.61	-0.04
613.798	-0.06
613.987	0.01
614.176	-0.02
614.365	0.01
614.554	-0.01
614.742	0
614.931	-0.03
615.12	0
615.309	-0.01
615.497	-0.01
615.686	-0.02
615.875	-0.03
616.063	0.01
616.252	-0.05
616.44	-0.03
616.629	-0.01
616.818	0.03
617.006	-0.03
617.195	-0.01
617.383	-0.01
617.572	-0.04
617.76	-0.03
617.949	-0
618.137	0.03
618.326	-0
618.514	-0.03
618.703	-0.04
618.891	0.04
619.079	-0.08
619.268	0.01
619.456	-0.06
619.644	0.04
619.833	-0.01
620.021	-0.03
620.209	-0.06
620.398	-0.01
620.586	0.01
620.774	0
620.962	-0.04
621.151	0.02
621.339	-0.01
621.527	-0.05
621.715	-0.07
621.903	-0.06
622.092	-0.08
622.28	-0.02
622.468	-0.01
622.656	-0.06
622.844	0.01
623.032	-0.01
623.22	-0.08
623.408	0
623.596	-0.01
623.784	0.05
623.972	-0.03
624.16	-0.02
624.348	0.08
624.536	-0.03
624.724	-0.04
624.912	0.03
625.1	0.04
625.288	-0.05
625.476	-0.03
625.664	-0
625.851	-0.03
626.039	-0.03
626.227	0.03
626.415	-0
626.603	-0.07
626.79	-0
626.978	-0.06
627.166	0.02
627.354	-0.01
627.541	-0.04
627.729	-0.05
627.917	0.02
628.104	0.05
628.292	0.02
628.48	-0.01
628.667	-0.01
628.855	-0.02
629.042	-0.01
629.23	-0.02
629.418	-0.03
629.605	-0.02
629.793	-0.03
629.98	-0.03
630.168	-0.01
630.355	-0.01
630.543	0
630.73	-0.02
630.917	0.02
631.105	0.03
631.292	-0.02
631.48	-0.01
631.667	0.1
631.854	0.03
632.042	-0.04
632.229	-0.06
632.416	-0.02
632.604	-0
632.791	-0.03
632.978	0.04
633.165	0.01
633.353	0.08
633.54	0.05
633.727	-0.07
633.914	-0.04
634.101	-0.05
634.289	0.03
634.476	-0.05
634.663	-0.03
634.85	0
635.037	-0.08
635.224	-0.06
635.411	0.07
635.598	0.02
635.785	-0.01
635.972	-0.05
636.159	0.03
636.346	-0.03
636.533	-0
636.72	-0.02
636.907	0.02
637.094	0.04
637.281	0
637.468	0.04
637.655	0.03
637.842	0.01
638.029	-0.03
638.215	0.03
638.402	-0.02
638.589	-0.02
638.776	-0.01
638.963	-0.04
639.149	0.07
639.336	0.08
639.523	-0.01
639.709	0
639.896	0.01
640.083	0.07
640.27	0.04
640.456	-0
640.643	0.03
640.829	-0.03
641.016	0.01
641.203	-0.04
641.389	0.04
641.576	0.05
641.762	-0.01
641.949	-0.05
642.135	0.03
642.322	0.03
642.508	-0.05
642.695	0.04
642.881	-0.01
643.068	-0.02
643.254	-0.01
643.441	0.07
643.627	0.02
643.813	-0.03
644	0.05
644.186	-0.01
644.372	0.05
644.559	0.08
644.745	0.02
644.931	-0.01
645.118	0.03
645.304	0.01
645.49	0.02
645.676	0.01
645.862	0.03
646.049	0.07
646.235	0.01
646.421	0.1
646.607	0.08
646.793	-0
646.979	0
647.165	0.02
647.352	0.04
647.538	0.06
647.724	0.05
647.91	-0.01
648.096	0.1
648.282	0.08
648.468	0.03
648.654	0.05
648.84	0.06
649.026	0.03
649.212	0.05
649.397	0.01
649.583	0.01
649.769	0.06
649.955	0.04
650.141	0.05
650.327	0.1
650.513	0.02
650.698	0.1
650.884	-0.01
651.07	0.07
651.256	0.04
651.442	0.04
651.627	0.03
651.813	0.07
651.999	0.02
652.184	0.06
652.37	0.06
652.556	0.04
652.741	0.12
652.927	0
653.113	0.06
653.298	0.07
653.484	0.05
653.669	0.02
653.855	0.07
654.04	0.1
654.226	0.09
654.412	0.04
654.597	0.05
654.782	0.1
654.968	0.12
655.153	0.1
655.339	0.08
655.524	0.04
655.71	0.13
655.895	0.04
656.08	0.1
656.266	0.11
656.451	0.12
656.636	0.07
656.822	0.09
657.007	0.07
657.192	0.07
657.378	0.03
657.563	0.09
657.748	0.12
657.933	0.08
658.118	0.07
658.304	0.09
658.489	0.13
658.674	0.12
658.859	0.04
659.044	0.07
659.229	0.12
659.414	0.07
659.599	0.07
659.785	0.04
659.97	0.11
660.155	0.15
660.34	0.1
660.525	0.07
660.71	0.07
660.895	0.09
661.08	0.09
661.264	0.06
661.449	0.14
661.634	0.13
661.819	0.08
662.004	0.08
662.189	0
662.374	0.07
662.559	-0.02
662.743	-0
662.928	0.03
663.113	0.05
663.298	-0.01
663.483	0
663.667	0.07
663.852	0
664.037	0.08
664.221	0.03
664.406	0.06
664.591	0.05
664.775	0.04
664.96	-0.01
665.145	0.03
665.329	0.06
665.514	0.01
665.698	0.03
665.883	-0.03
666.068	0.13
666.252	0.02
666.437	-0.04
666.621	0.01
666.806	0.05
666.99	0
667.174	-0.05
667.359	0.09
667.543	-0.01
667.728	0.03
667.912	-0.07
668.096	0.03
668.281	0
668.465	-0.02
668.649	-0.01
668.834	-0.04
669.018	0.01
669.202	-0.04
669.387	-0.03
669.571	0.04
669.755	-0.05
669.939	-0.02
670.124	-0.01
670.308	0.06
670.492	0.03
670.676	-0
670.86	0
671.044	-0.04
671.228	-0
671.413	-0
671.597	-0.01
671.781	-0.02
671.965	0.01
672.149	-0.04
672.333	-0.01
672.517	-0.02
672.701	-0.02
672.885	-0.01
673.069	-0.05
673.253	0.03
673.437	-0.02
673.621	-0.07
673.804	-0.02
673.988	-0.01
674.172	-0.01
674.356	-0.1
674.54	-0.05
674.724	0.07
674.908	0.01
675.091	0.03
675.275	0
675.459	0.02
675.643	0.06
675.826	-0.04
676.01	0.01
676.194	-0.04
676.377	0.03
676.561	-0.04
676.745	-0.01
676.928	0.02
677.112	0.03
677.296	-0.04
677.479	-0.07
677.663	-0.05
677.846	-0.02
678.03	-0.03
678.213	-0.02
678.397	-0.01
678.58	-0.04
678.764	-0.01
678.947	-0.07
679.131	-0.05
679.314	-0.02
679.498	-0.02
679.681	-0.04
679.865	0.05
680.048	-0.04
680.231	-0.03
680.415	-0.03
680.598	-0.02
680.781	0.02
680.965	-0.05
681.148	0.01
681.331	-0.02
681.514	-0.02
681.698	-0.09
681.881	-0.02
682.064	-0.05
682.247	-0.01
682.43	-0.12
682.614	-0.04
682.797	0
682.98	0.03
683.163	-0.09
683.346	0
683.529	-0.04
683.712	-0.07
683.895	0.02
684.078	-0.06
684.261	-0.06
684.444	0.01
684.627	0.03
684.81	-0.07
684.993	-0.05
685.176	-0.02
685.359	-0.03
685.542	-0.04
685.725	-0.02
685.908	0.01
686.091	-0.04
686.274	-0
686.457	0.03
686.639	0.01
686.822	-0.02
687.005	0.03
687.188	0.03
687.371	0.02
687.553	-0.01
687.736	-0.01
687.919	0.01
688.102	0.02
688.284	-0.04
688.467	-0.02
688.65	0
688.832	-0.11
689.015	-0.03
689.197	-0.11
689.38	0.1
689.563	0.04
689.745	-0.01
689.928	-0.04
690.11	-0.04
690.293	0.03
690.475	-0.1
690.658	0
690.84	-0.07
691.023	-0.05
691.205	-0.03
691.388	-0
691.57	-0.01
691.752	0.03
691.935	-0.12
692.117	-0.02
692.3	-0
692.482	-0.03
692.664	-0.06
692.847	-0.01
693.029	0.09
693.211	-0.01
693.393	0
693.576	-0.04
693.758	-0.01
693.94	-0.01
694.122	0.02
694.304	-0.02
694.487	-0.07
694.669	0.01
694.851	-0.09
695.033	-0.02
695.215	-0.07
695.397	-0.1
695.579	0.03
695.761	-0.05
695.943	-0.13
696.125	0.08
696.308	-0.02
696.49	-0.11
696.671	0.14
696.853	-0.02
697.035	0.15
697.217	-0.06
697.399	0
697.581	-0.02
697.763	0
697.945	-0.08
698.127	-0.04
698.309	0.08
698.491	-0.05
698.672	0.05
698.854	0.08
699.036	0.05
699.218	-0.07
699.399	0.02
699.581	0.03
699.763	0.02
699.945	-0.04
700.126	-0.03
700.308	-0.04
700.49	-0.01
700.671	-0.11
700.853	-0.04
701.035	-0.06
701.216	-0.04
701.398	-0.07
701.579	-0.04
701.761	0.02
701.943	-0.05
702.124	-0.02
702.306	-0.08
702.487	0.16
702.669	0.02
702.85	0
703.031	-0.08
703.213	0.09
703.394	0.01
703.576	-0.05
703.757	0.01
703.938	0.03
704.12	0.14
704.301	-0.06
704.483	-0.06
704.664	-0.02
704.845	0.04
705.026	0.04
705.208	0
705.389	-0.01
705.57	0.03
705.751	-0.06
705.933	-0.02
706.114	0.01
706.295	-0.05
706.476	-0.07
706.657	0.05
706.838	0.02
707.02	0.06
707.201	-0.07
707.382	-0.06
707.563	-0
707.744	-0.11
707.925	-0.06
708.106	-0.05
708.287	-0.02
708.468	0.06
708.649	-0.08
708.83	0.01
709.011	-0.01
709.192	0.03
709.373	-0.08
709.554	-0.01
709.734	0.06
709.915	0.04
710.096	-0.02
710.277	-0.11
710.458	-0.04
710.639	0.02
710.819	-0.11
711	-0.04
711.181	0.07
711.362	0.1
711.542	0.01
711.723	0.01
711.904	0.08
712.085	0.02
712.265	0.07
712.446	-0.08
712.627	-0.05
712.807	-0.01
712.988	-0.01
713.168	-0.11
713.349	0.03
713.53	-0.13
713.71	-0.1
713.891	-0.05
714.071	0.02
714.252	-0.04
714.432	-0.1
714.613	-0.01
714.793	-0.08
714.974	0.1
715.154	0.07
715.334	0.04
715.515	0.07
715.695	-0
715.876	-0.04
716.056	-0.08
716.236	-0.05
716.417	-0
716.597	-0.04
716.777	0.18
716.957	-0.01
717.138	0.01
717.318	-0
717.498	-0.07
717.678	0.01
717.859	0.03
718.039	-0.06
718.219	-0
718.399	0.01
718.579	-0.03
718.759	0.02
718.939	0.03
719.12	-0
719.3	0.05
719.48	-0.16
719.66	-0.06
719.84	0.1
720.02	-0
720.2	-0.03
720.38	0.01
720.56	0.06
720.74	-0.05
720.92	0.04
721.1	0.06
721.279	0.12
721.459	0.05
721.639	-0.1
721.819	0.02
721.999	-0.08
722.179	0.09
722.359	-0.09
722.538	0.04
722.718	0.02
722.898	-0.09
723.078	0.04
723.257	-0.02
723.437	0.07
723.617	0.02
723.797	-0.03
723.976	0.01
724.156	0.14
724.336	0.11
724.515	0.19
724.695	-0.04
724.874	0.04
725.054	0.08
725.234	-0.04
725.413	0.06
725.593	0.08
725.772	0.05
725.952	0.03
726.131	-0.01
726.311	0
726.49	0.03
726.67	-0.04
726.849	-0.06
727.028	0.02
727.208	0.01
727.387	-0.01
727.567	-0.11
727.746	-0.03
727.925	-0.04
728.105	-0.07
728.284	-0.07
728.463	-0.06
728.643	0.14
728.822	-0.02
729.001	0
729.18	-0.02
729.359	0.06
729.539	0.03
729.718	-0
729.897	0.22
730.076	-0.01
730.255	-0.06
730.434	0.04
730.614	0.03
730.793	0.07
730.972	0.02
731.151	0.09
731.33	0.17
731.509	0.1
731.688	0.05
731.867	0.01
732.046	-0.02
732.225	0.25
732.404	0.02
732.583	-0.02
732.762	0.02
732.941	0.13
733.12	0.11
733.298	0.03
733.477	0.09
733.656	0.05
733.835	-0.11
734.014	0.15
734.193	0.06
734.371	0.16
734.55	0.07
734.729	-0.01
734.908	0.1
735.086	0.05
735.265	0.13
735.444	-0.14
735.623	-0.06
735.801	-0
735.98	0.12
736.159	-0.02
736.337	0.1
736.516	0.04
736.694	0.14
736.873	-0.02
737.052	0.21
737.23	0.19
737.409	0.08
737.587	0.19
737.766	-0.08
737.944	0.02
738.123	0.18
738.301	0.12
738.479	0.05
738.658	0.11
738.836	-0.17
739.015	0.16
739.193	0.15
739.371	-0
739.55	-0.03
739.728	-0.01
739.906	0.15
740.085	0.17
740.263	0.05
740.441	-0.15
740.62	0.23
740.798	0.1
740.976	-0.05
741.154	-0.03
741.332	0.21
741.511	0.06
741.689	0.09
741.867	0.11
742.045	0.07
742.223	0.01
742.401	-0.06
742.579	-0.1
742.757	0.13
742.935	-0.1
743.114	-0.09
743.292	0.05
743.47	0.1
743.648	-0.02
743.826	0.08
744.004	0.13
744.181	0.09
744.359	0
744.537	0.02
744.715	-0.04
744.893	0.01
745.071	0.03
745.249	-0.02
745.427	0.06
745.605	0.07
745.782	0.08
745.96	0.1
746.138	0.1
746.316	0.07
746.493	0.04
746.671	-0.03
746.849	-0.01
747.027	0.18
747.204	-0.05
747.382	-0.02
747.56	-0.22
747.737	-0.02
747.915	-0.07
748.093	0.08
748.27	-0.08
748.448	-0.04
748.625	-0.19
748.803	-0.06
748.98	-0.12
749.158	-0.02
749.335	0.11
749.513	-0.07
749.69	0.09
749.868	-0.09
750.045	-0.03
750.223	-0.05
750.4	-0.15
750.578	0.14
750.755	-0.12
750.932	-0.12
751.11	0.15
751.287	-0.21
751.464	0.05
751.642	-0.1
751.819	0.02
751.996	0.02
752.173	-0.01
752.351	-0.2
752.528	0
752.705	-0.13
752.882	-0.08
753.06	0.02
753.237	0.01
753.414	0.23
753.591	0.06
753.768	-0.02
753.945	-0.11
754.122	-0.05
754.299	0.06
754.476	-0.17
754.654	0.05
754.831	0.07
755.008	0.06
755.185	0
755.362	-0.11
755.539	-0.07
755.716	-0.11
755.892	0.01
756.069	-0.03
756.246	-0.03
756.423	-0.07
756.6	0.13
756.777	0.03
756.954	0.13
757.131	0.02
757.307	-0.16
757.484	-0.25
757.661	0.01
757.838	0.04
758.015	-0.18
758.191	0.1
758.368	-0.06
758.545	-0
758.721	-0.03
758.898	-0.16
759.075	-0.02
759.251	0.05
759.428	0.09
759.605	-0.22
759.781	0.04
759.958	-0.05
760.134	0.04
760.311	-0.12
760.488	0.06
760.664	0.09
760.841	-0.06
761.017	-0.21
761.194	-0.07
761.37	0.05
761.547	-0.03
761.723	-0.04
761.899	0.09
762.076	-0.16
762.252	-0.11
762.429	-0.19
762.605	0.04
762.781	-0.03
762.958	0.06
763.134	-0.04
763.31	-0.07
763.486	0.08
763.663	-0.29
763.839	0.02
764.015	-0.2
764.191	-0.16
764.368	-0.06
764.544	-0.18
764.72	-0
764.896	0.05
765.072	0.04
765.248	-0.12
765.425	-0.03
765.601	-0
765.777	-0.07
765.953	-0.19
766.129	-0.08
766.305	-0.17
766.481	0.07
766.657	-0.02
766.833	0.23
767.009	-0.2
767.185	-0.14
767.361	0
767.537	-0.17
767.713	0.11
767.889	-0.17
768.065	-0.09
768.24	-0.24
768.416	0.12
768.592	-0.15
768.768	-0.13
768.944	-0.03
769.12	-0.27
769.295	-0.08
769.471	-0.12
769.647	-0.06
769.823	0.01
769.998	-0.16
770.174	-0.14
770.35	0.23
770.525	0.2
770.701	0.05
770.877	-0.18
771.052	-0.17
771.228	0.13
771.403	-0.09
771.579	0.13
771.755	0.32
771.93	-0.23
772.106	-0.2
772.281	-0.29
772.457	-0.12
772.632	-0.06
772.808	-0.23
772.983	-0.23
773.159	-0.32
773.334	0.26
773.509	-0.06
773.685	-0.07
773.86	0.35
774.036	0.1
774.211	-0.16
774.386	-0.21
774.562	-0.06
774.737	0.06
774.912	-0.15
775.087	0.1
775.263	-0.08
775.438	-0.01
775.613	-0.22
775.788	-0.13
775.964	-0.03
776.139	0.34
776.314	-0.2
776.489	-0.05
776.664	-0.13
776.839	-0.22
777.014	0.17
777.19	0.11
777.365	0.15
777.54	0.23
777.715	-0.01
777.89	-0.03
778.065	-0.05
778.24	-0.02
778.415	0.03
778.59	-0.23
778.765	-0.08
778.94	0
779.115	-0.22
779.289	-0.15
779.464	-0.1
779.639	-0.09
779.814	-0.23
779.989	-0.13
780.164	0.13
780.339	-0.08
780.513	-0.17
780.688	-0.26
780.863	-0.2
781.038	0.03
781.212	-0.1
781.387	-0.07
781.562	0.26
781.737	-0.06
781.911	0.05
782.086	-0.25
782.261	-0.14
782.435	0.22
782.61	-0.22
782.784	-0.16
782.959	0.06
783.134	-0.18
783.308	-0.39
783.483	-0.09
783.657	0.22
783.832	0.01
784.006	-0.35
784.181	-0.09
784.355	0.14
784.53	0.08
784.704	-0.2
784.878	0.1
785.053	-0.01
785.227	0.15
785.402	0.25
785.576	-0.14
785.75	-0.07
785.925	-0.13
786.099	0.1
786.273	0.06
786.448	0.01
786.622	0.07
786.796	-0.02
786.97	-0.01
787.145	0.36
787.319	-0.22
787.493	-0.18
787.667	-0.31
787.841	-0.03
788.015	0.17
788.19	-0.15
788.364	-0.24
788.538	-0.01
788.712	-0.02
788.886	-0.23
789.06	0.39
789.234	0.12
789.408	-0.27
789.582	-0.01
789.756	-0.18
789.93	-0.14
790.104	-0.18
790.278	-0.24
790.452	-0.25
790.626	0.02
790.8	-0.12
790.973	0.11
791.147	0.27
791.321	0.1
791.495	0
791.669	0.06
791.843	0.06
792.016	0.01
792.19	0.36
792.364	-0.22
792.538	0.12
792.711	0.33
792.885	0.04
793.059	-0.33
793.233	-0.57
793.406	-0.12
793.58	-0.19
793.754	-0.03
793.927	-0
794.101	0.25
794.274	0.23
794.448	-0.02
794.622	-0.42
794.795	0.35
794.969	0.11
795.142	-0.01
795.316	-0.05
795.489	-0.11
795.663	0.35
795.836	-0.27
796.009	-0.18
796.183	0.21
796.356	0.15
796.53	0.22
796.703	-0.08
796.876	0.36
797.05	-0.25
797.223	-0.39
797.396	0.01
797.57	0.08
797.743	0.14
797.916	-0.03
798.09	-0.17
798.263	-0.04
798.436	0.15
798.609	-0.2
798.782	-0.32
798.956	-0.13
799.129	-0.28
799.302	-0.33
799.475	-0.27
799.648	-0.27
799.821	-0.17
799.994	0.03
800.167	-0.37
800.34	-0.01
800.514	-0.02
800.687	-0.09
800.86	-0.35
801.033	-0.03
801.206	-0.36
801.379	-0.34
801.551	0.3
801.724	-0.05
801.897	0.09
802.07	-0.24
802.243	-0.71
802.416	-0.01
802.589	-0.48
802.762	-0.1
802.935	0.03
803.107	0.17
803.28	0.1
803.453	-0.04
803.626	-0.59
803.798	0.02
803.971	-0.11
804.144	-0.18
804.317	0.1
804.489	0.15
804.662	-0.17
804.835	0.09
805.007	-0.57
805.18	0.63
805.353	0.07
805.525	-0.42
805.698	-0.23
805.87	0.09
806.043	0.35
806.215	-0.75
806.388	-0.35
806.56	0.3
806.733	0.26
806.905	0.08
807.078	-0.42
807.25	-0.47
807.423	-0.16
807.595	-0.19
807.768	-0.14
807.94	0.17
808.112	-0.42
808.285	-0.23
808.457	-0.2
808.629	-0.26
808.802	0.08
808.974	0.08
809.146	-0.34
809.318	-0.13
809.491	0.14
809.663	0.21
809.835	-0.27
810.007	0.2
810.18	-0.12
810.352	-0.53
810.524	-0.36
810.696	-0.14
810.868	0.14
811.04	-0.33
811.212	-0.25
811.384	-0.05
811.556	-0.14
811.728	-0.01
811.901	0.32
812.073	-0.45
812.245	-0.1
812.417	-0.05
812.589	-0.48
812.76	-0.07
812.932	0.09
813.104	0.24
813.276	-0.27
813.448	0.25
813.62	0.01
813.792	0.1
813.964	-0.16
814.136	0.12
814.307	-0.4
814.479	-0.6
814.651	-0.19
814.823	0.45
814.995	-0.32
815.166	0.04
815.338	-0.38
815.51	-0.42
815.681	0.88
815.853	-0.44
816.025	-0.27
816.196	0.85
816.368	-0.2
816.54	-0.85
816.711	-0.22
816.883	0.27
817.054	0.56
817.226	-0.55
817.398	-0.17
817.569	-0.34
817.741	0.06
817.912	-0.5
818.084	-0.07
818.255	0.24
818.426	-0.25
818.598	-0.31
818.769	-0.34
818.941	0.07
819.112	0.3
819.283	-0.09
819.455	-0.67
819.626	-0.28
819.798	0.06
819.969	-0.11
820.14	-0.42
820.311	-0.33
820.483	0.22
820.654	0.09
820.825	-0.54
820.996	-0.63
821.168	-0.7
821.339	-0.17
821.51	-0.35
821.681	-0.45
821.852	-0.25
822.023	-0.4
822.195	-1.27
822.366	-0.23
822.537	-0.44
822.708	0.11
822.879	-0.7
823.05	0.6
823.221	-0.22
823.392	-0.36
823.563	0.01
823.734	0.17
823.905	0.24
824.076	-0.26
824.247	-1.17
824.418	-0.52
824.589	0.82
824.759	-0.23
824.93	-0.3
825.101	-0.77
825.272	-0.03
825.443	0.53
825.614	0.23
825.784	-1.16
825.955	1.3
826.126	0.12
826.297	-0.09
826.467	0.79
826.638	0.07
826.809	-0.82
826.98	-0.11
827.15	0.23
827.321	-0.39
827.492	0.49
827.662	0.13
827.833	0.96
828.003	0.22
828.174	-0.33
828.345	-0.58
828.515	0.68
828.686	-0
828.856	-0.31
829.027	0.06
829.197	-0.6
829.368	0.04
829.538	-0.55
829.709	-0.43
829.879	0.08
830.049	-0.06
830.22	-0.23
830.39	-0.45
830.56	0.12
830.731	-0.42
830.901	-0.62
831.072	-0.04
831.242	-0.12
831.412	0.34
831.582	-0.54
831.753	-0.35
831.923	0.16
832.093	-0.36
832.263	-0.49
832.434	-0.77
832.604	-0.59
832.774	0.27
832.944	-0.39
833.114	-0.51
833.284	0.34
833.454	-1.25
833.624	-0.51
833.795	-0.85
833.965	0.54
834.135	0.59
834.305	-1.43
834.475	-1.08
834.645	-0.55
834.815	-0.27
834.985	-0.47
835.155	-0.49
835.325	0.32
835.494	0.02
835.664	-0.26
835.834	-1.33
836.004	-0.61
836.174	-0.45
836.344	-1.02
836.514	-1.21
836.684	-0.8
836.853	-0.42
837.023	-0.04
837.193	-0.78
837.363	0.06
837.532	-0.02
837.702	-0.9
837.872	-0.67
838.041	0.6
838.211	1.44
838.381	-1.38
838.55	-0.02
838.72	1.79
838.89	1.2
839.059	-0.57
839.229	-0.58
839.398	1.3
839.568	-0.07
839.738	-0.3
839.907	0.49
840.077	-0.11
840.246	-0.66
840.416	-0.81
840.585	-1.03
840.755	0.59
840.924	1.02
841.093	-1
841.263	-0.62
841.432	0.11
841.602	-0.82
841.771	-0.84
841.94	-0.1
842.11	1.38
842.279	0.82
842.448	-0.88
842.617	-0.82
842.787	0.63
842.956	-1.37
843.125	0.58
843.294	-0.67
843.464	0.62
843.633	-0.57
843.802	-1.04
843.971	-0.53
844.14	0.36
844.309	0.44
844.479	-0.88
844.648	-1.25
844.817	-0.56
844.986	-0.24
845.155	-1.08
845.324	-0.39
845.493	-0.02
845.662	-0.36
845.831	-0.57
846	0.41
846.169	-0.63
846.338	1.13
846.507	0.72
846.676	-0.78
846.844	-0.4
847.013	-0.1
847.182	-0.6
847.351	-1.07
847.52	-0.61
847.689	0.7
847.858	-0.43
848.026	-0.68
848.195	0.1
848.364	0.07
848.533	-1.62
848.701	-0.24
848.87	0.02
849.039	0.64
849.207	0.38
849.376	0.21
849.545	0.6
849.713	-0.93
849.882	-0.95
850.051	0.21
850.219	-0
850.388	0.4
850.556	-1.14
850.725	-0.24
850.893	-0.02
851.062	-0.9
851.23	-0.77
851.399	-0.87
851.567	-1
851.736	-0.83
851.904	-1.26
852.073	0.21
852.241	-0.24
852.41	-0.46
852.578	-0.61
852.746	-0.82
852.915	0.24
853.083	-0.38
853.251	-1.37
853.42	-1.18
853.588	-0.2
853.756	0.93
853.924	0.32
854.093	-0.32
854.261	-0.97
854.429	-1.72
854.597	-0.08
854.765	-1.66
854.934	1.53
855.102	0.45
855.27	-0.81
855.438	0.58
855.606	1.23
855.774	1.47
855.942	-1.6
856.11	-1.09
856.278	0.45
856.446	0.93
856.614	-0.97
856.782	-2.07
856.95	0.95
857.118	-0.03
857.286	-0.3
857.454	-0.16
857.622	0.28
857.79	-0.27
857.958	-2.08
858.126	-0.39
858.294	0.03
858.462	-0.94
858.629	-1.33
858.797	-1.1
858.965	0.64
859.133	-0.45
859.301	-0.95
859.468	0.02
859.636	-0.51
859.804	1.37
859.971	0.28
860.139	-0.89
860.307	1.14
860.474	-0.02
860.642	-1.53
860.81	-1.18
860.977	-1.38
861.145	-0.17
861.313	-0.62
861.48	-0.17
861.648	0.23
861.815	-0.27
861.983	-1.86
862.15	-1.54
862.318	0.31
862.485	0.76
862.653	-0.9
862.82	-1.02
862.988	1.14
863.155	-0.45
863.322	-1.03
863.49	-2.58
863.657	-1.23
863.824	1.38
863.992	-0.09
864.159	0.48
864.326	1.56
864.494	-1.01
864.661	0.6
864.828	-2.41
864.996	1.25
865.163	1.21
865.33	-1.57
865.497	-2.35
865.664	-0.57
865.832	-2.89
865.999	-1.03
866.166	-1.97
866.333	-0.1
866.5	-3.01
866.667	0.76
866.834	0.91
867.001	1.68
867.168	-2.09
867.335	-0.85
867.502	-2.33
867.669	0.26
867.836	1.55
868.003	-0.84
868.17	1.02
868.337	-2.36
868.504	2.19
868.671	-1.11
868.838	-0.8
869.005	-0.83
869.172	0.27
869.339	-0.81
869.505	-0.56
869.672	0.5
869.839	1.97
870.006	0.57
870.173	-3.19
870.339	0.65
870.506	2.06
870.673	-1.67
870.84	-0.15
871.006	1.23
871.173	-1.6
871.34	-0.36
871.506	-2.16
871.673	0.01
871.839	-1.17
872.006	-0.14
872.173	-1.29
872.339	0.62
872.506	0.7
872.672	-0.82
872.839	-1.72
873.005	0.14
873.172	3.06
873.338	0.39
873.505	-0.09
873.671	1.24
873.838	1.28
874.004	-3.24
874.171	-2.43
874.337	1
874.503	1.18
874.67	-0.54
874.836	0.42
875.002	0.73
875.169	-1.61
875.335	-0.34
875.501	-2.38
875.668	0.45
875.834	-0.63
876	-1.2
876.166	-0.03
876.332	-1.03
876.499	3.69
876.665	-1.53
876.831	-0.28
876.997	3.3
877.163	-0.71
877.329	-0.08
877.495	-0.48
877.662	0.52
877.828	0.47
877.994	0.19
878.16	-1.62
878.326	0.53
878.492	0.73
878.658	-1.45
878.824	0.53
878.99	1.22
879.156	-2.36
879.322	1.97
879.487	-0.01
879.653	0.81
879.819	-1.44
879.985	-1.2
880.151	-0.31
880.317	-0.4
880.483	-1.91
880.648	1.52
880.814	-3.33
880.98	2.22
881.146	-3.59
881.312	-1.68
881.477	0.82
881.643	-0.78
881.809	0.33
881.974	0.2
882.14	-2.13
882.306	0.39
882.471	1.65
882.637	-1.78
882.803	-0.27
882.968	2.63
883.134	4.25
883.299	-1.09
883.465	-0.96
883.63	0.85
883.796	2.53
883.961	0.78
884.127	-0.94
884.292	-5.47
884.458	-1.25
884.623	-1.24
