Data from Apollo_Calib_20240827__AbsoluteIrradiance__567__08-36-01-869.txt Node

Date: Wed Aug 28 08:36:01 BST 2024
User: biology
Spectrometer: FLMT08252
Trigger mode: 0
Integration Time (sec): 5.000000E-1
Scans to average: 5
Electric dark correction enabled: true
Nonlinearity correction enabled: false
Boxcar width: 0
XAxis mode: Wavelengths
Number of Pixels in Spectrum: 3648
>>>>>Begin Spectral Data<<<<<
179.588	-0
179.809	-0
180.03	-0
180.251	-0
180.473	-0
180.694	0
180.915	0
181.136	-0
181.357	0
181.578	0
181.799	-0
182.02	-0
182.241	0
182.462	-0
182.683	0
182.904	-0
183.125	0
183.346	0
183.567	0
183.788	-0
184.009	-0
184.23	0
184.451	0
184.672	0
184.892	-0
185.113	0
185.334	0
185.555	-0
185.776	-0
185.996	0
186.217	0
186.438	0
186.659	-0
186.879	0
187.1	-0
187.321	-0
187.541	-0
187.762	0
187.983	0
188.203	0
188.424	0
188.644	-0
188.865	0
189.086	0
189.306	0
189.527	0
189.747	0
189.968	-0
190.188	0
190.409	0
190.629	0
190.849	-0
191.07	0
191.29	0
191.511	0
191.731	-0
191.951	-0
192.172	0
192.392	-0
192.612	0
192.833	0
193.053	0
193.273	0
193.493	-0
193.714	0
193.934	0
194.154	0
194.374	0
194.594	0
194.815	0
195.035	0
195.255	0
195.475	-0
195.695	0
195.915	0
196.135	0
196.355	0
196.575	0
196.795	0
197.015	-0
197.235	-0
197.455	-0
197.675	0
197.895	-0
198.115	-0
198.335	0
198.555	-0
198.775	0
198.995	0
199.214	0
199.434	0
199.654	-0
199.874	-0
200.094	0.64
200.313	0.05
200.533	0.36
200.753	-0.68
200.973	0.74
201.192	0.78
201.412	-0.46
201.632	0.32
201.851	0.77
202.071	-0.33
202.291	0.42
202.51	-0.37
202.73	0.86
202.95	-0.11
203.169	-0.27
203.389	-0.11
203.608	-0.06
203.828	-0.55
204.047	-0.09
204.267	0.62
204.486	0.05
204.706	0.22
204.925	-0.12
205.145	-0.12
205.364	0.6
205.583	0.76
205.803	-0.07
206.022	-0.08
206.242	0.13
206.461	-0.12
206.68	-0.05
206.9	0.03
207.119	0.75
207.338	0.68
207.557	0.14
207.777	0.18
207.996	-0.13
208.215	0.47
208.434	0.14
208.654	-0.51
208.873	0.25
209.092	0.5
209.311	-0.13
209.53	0.04
209.749	-0.01
209.968	-0.16
210.187	0.02
210.407	-0.49
210.626	0.14
210.845	0.24
211.064	0.38
211.283	-0.17
211.502	0.38
211.721	0.09
211.94	-0.01
212.159	0.36
212.377	0.48
212.596	0.29
212.815	0.11
213.034	0.13
213.253	0.28
213.472	0.39
213.691	0.11
213.91	-0.06
214.128	0.11
214.347	0.37
214.566	-0.19
214.785	-0.05
215.003	0.1
215.222	0.11
215.441	-0.04
215.66	-0.23
215.878	0.13
216.097	0.27
216.316	-0.2
216.534	-0.03
216.753	0.02
216.972	0.14
217.19	-0.03
217.409	0.06
217.627	-0.19
217.846	0.09
218.064	0.24
218.283	-0.08
218.501	0.58
218.72	0.31
218.938	-0.07
219.157	-0.12
219.375	0.28
219.594	0.21
219.812	-0.03
220.031	-0.04
220.249	0.37
220.467	0.28
220.686	0.12
220.904	-0.05
221.122	-0.11
221.341	0.41
221.559	0.14
221.777	-0.08
221.995	0.05
222.214	0.2
222.432	-0.17
222.65	0.21
222.868	0.19
223.086	0.15
223.305	0.14
223.523	0.14
223.741	0.3
223.959	-0.02
224.177	-0.06
224.395	-0.07
224.613	0.02
224.831	0.1
225.049	-0.08
225.267	0.01
225.485	0.07
225.703	0.04
225.921	0.04
226.139	-0
226.357	0.14
226.575	0.03
226.793	-0
227.011	0.52
227.229	-0.11
227.447	0.14
227.665	-0.06
227.883	-0.14
228.1	0.09
228.318	-0.01
228.536	-0.19
228.754	-0.16
228.972	0.19
229.189	0.28
229.407	0.05
229.625	-0.02
229.843	0.21
230.06	0.23
230.278	-0.04
230.496	-0.03
230.713	0.12
230.931	0.27
231.149	-0.02
231.366	-0.16
231.584	-0.02
231.801	0.34
232.019	0.12
232.236	-0.07
232.454	0.09
232.671	0.07
232.889	0.14
233.106	-0.05
233.324	0.1
233.541	-0
233.759	-0.02
233.976	-0.14
234.194	-0.01
234.411	0.05
234.628	-0.06
234.846	-0.04
235.063	-0.02
235.28	0.02
235.498	0.04
235.715	-0.07
235.932	0.15
236.149	0.09
236.367	-0.07
236.584	0.13
236.801	-0.02
237.018	0.06
237.236	0.04
237.453	-0.09
237.67	0.1
237.887	-0.01
238.104	0.09
238.321	-0.12
238.538	-0.03
238.755	0.17
238.973	-0.15
239.19	0.01
239.407	0.17
239.624	0.06
239.841	-0.17
240.058	-0.03
240.275	0.05
240.492	-0
240.709	0.03
240.925	-0.01
241.142	0.04
241.359	-0.1
241.576	-0.05
241.793	-0.08
242.01	0.08
242.227	0.1
242.444	0.04
242.66	0.17
242.877	0.05
243.094	0.05
243.311	0.08
243.527	-0.06
243.744	0.08
243.961	0.15
244.178	-0.08
244.394	-0.06
244.611	0.17
244.828	0.24
245.044	-0.04
245.261	0.03
245.477	0.06
245.694	0.09
245.911	0.01
246.127	0.02
246.344	0.18
246.56	0.17
246.777	-0.05
246.993	0.07
247.21	0.1
247.426	0.16
247.643	-0.04
247.859	-0.08
248.076	0.02
248.292	0.16
248.508	-0.02
248.725	0.04
248.941	0.06
249.157	0.13
249.374	0.04
249.59	-0.01
249.806	0.08
250.023	0.04
250.239	-0.1
250.455	-0.05
250.671	0.11
250.888	0.08
251.104	0.12
251.32	0.02
251.536	0
251.752	0.05
251.969	0.03
252.185	0.03
252.401	0.25
252.617	0.06
252.833	-0.04
253.049	0.01
253.265	0.06
253.481	0.02
253.697	-0.08
253.913	-0.03
254.129	-0.01
254.345	0.03
254.561	-0
254.777	0.05
254.993	0.09
255.209	0.04
255.425	-0.03
255.641	-0.01
255.857	0.09
256.073	0.05
256.288	-0.04
256.504	-0.06
256.72	0.06
256.936	0.14
257.152	0.02
257.367	-0.01
257.583	0.06
257.799	0.04
258.015	-0.02
258.23	-0.05
258.446	0.11
258.662	0.02
258.877	-0.02
259.093	-0.02
259.309	0.06
259.524	0.04
259.74	0.01
259.955	-0.14
260.171	0.04
260.387	-0.02
260.602	0.15
260.818	0.06
261.033	0
261.249	-0.01
261.464	0.01
261.68	-0.03
261.895	0.1
262.11	0.05
262.326	-0.03
262.541	-0.11
262.757	0.06
262.972	0.11
263.187	0
263.403	0.01
263.618	0.1
263.833	0.03
264.049	0.08
264.264	0.07
264.479	0.11
264.694	0.08
264.91	-0.06
265.125	0.03
265.34	-0.01
265.555	0.17
265.77	0.1
265.986	0.05
266.201	0.05
266.416	0.18
266.631	0.01
266.846	0.06
267.061	0.06
267.276	0.02
267.491	-0.14
267.706	0.1
267.921	0.05
268.136	0.02
268.351	0
268.566	-0.05
268.781	0.19
268.996	0.06
269.211	0.02
269.426	-0
269.641	0
269.856	0.13
270.071	0.01
270.285	-0.05
270.5	0.1
270.715	0.01
270.93	0.04
271.145	0
271.359	0.04
271.574	-0.07
271.789	0.11
272.004	-0.07
272.218	0.03
272.433	0.07
272.648	-0.01
272.862	0.1
273.077	0.06
273.292	-0
273.506	-0.01
273.721	-0
273.936	0.01
274.15	0.13
274.365	0.01
274.579	0.07
274.794	0.05
275.008	0.14
275.223	-0.08
275.437	0.04
275.652	0.08
275.866	0.07
276.081	0.04
276.295	0.1
276.509	0
276.724	0.02
276.938	0.02
277.153	0.03
277.367	0.06
277.581	0.03
277.796	0.01
278.01	-0.06
278.224	0.02
278.438	0.1
278.653	-0.04
278.867	-0.01
279.081	-0.17
279.295	0.01
279.51	0.01
279.724	-0.08
279.938	0.07
280.152	0.04
280.366	-0.09
280.58	0.03
280.794	0.1
281.008	0.07
281.222	0.07
281.437	0.09
281.651	0.05
281.865	0.13
282.079	-0
282.293	-0.05
282.507	0
282.721	-0.02
282.935	0.05
283.148	-0.02
283.362	-0.01
283.576	0.02
283.79	0.03
284.004	-0.04
284.218	0.08
284.432	-0.05
284.646	0.04
284.859	0.01
285.073	-0.04
285.287	0.04
285.501	-0.01
285.714	0.03
285.928	0.1
286.142	-0.02
286.356	-0.02
286.569	0.02
286.783	0.11
286.997	0.05
287.21	0.06
287.424	0.04
287.637	-0.01
287.851	0.02
288.065	0.04
288.278	0.02
288.492	0.08
288.705	0.03
288.919	0.04
289.132	-0.06
289.346	0.09
289.559	-0.05
289.773	-0.05
289.986	0.05
290.2	-0
290.413	0.02
290.626	-0.05
290.84	-0.01
291.053	0.01
291.267	0.04
291.48	0.04
291.693	0.02
291.906	-0.03
292.12	-0.07
292.333	-0.04
292.546	-0.01
292.76	0.09
292.973	0.04
293.186	0.05
293.399	0.03
293.612	0.07
293.826	0.01
294.039	0.04
294.252	-0.06
294.465	0.07
294.678	0.07
294.891	0.01
295.104	-0.04
295.317	0.05
295.53	0.04
295.743	0
295.956	0.05
296.169	0.06
296.382	0.04
296.595	0.02
296.808	-0.01
297.021	0.09
297.234	0.05
297.447	0.06
297.66	0.06
297.873	0.1
298.086	0.01
298.299	0.01
298.511	-0.03
298.724	0.01
298.937	-0.02
299.15	-0.01
299.363	0.05
299.575	0.02
299.788	0.08
300.001	-0.01
300.213	0
300.426	-0
300.639	0.01
300.852	0.04
301.064	0.06
301.277	0.07
301.489	0.07
301.702	0.07
301.915	0.03
302.127	0.06
302.34	0.03
302.552	0.1
302.765	-0.01
302.977	0.06
303.19	-0.02
303.402	0.04
303.615	-0
303.827	0.01
304.04	-0.02
304.252	0.04
304.464	0.02
304.677	0.11
304.889	0.13
305.102	-0
305.314	0.01
305.526	0.07
305.739	0.05
305.951	-0.03
306.163	0.01
306.375	0.1
306.588	-0.02
306.8	0.03
307.012	-0.05
307.224	0.03
307.436	0.08
307.649	-0.04
307.861	0.03
308.073	0.06
308.285	0.02
308.497	-0.02
308.709	-0.02
308.921	0.05
309.133	0.06
309.346	0
309.558	0.02
309.77	0.07
309.982	0.09
310.194	0.1
310.406	-0.02
310.617	0.12
310.829	0.03
311.041	0.01
311.253	-0.01
311.465	0.02
311.677	0.02
311.889	0.02
312.101	-0
312.313	0.06
312.524	0.04
312.736	-0.01
312.948	0.01
313.16	0.07
313.372	0.05
313.583	0.02
313.795	0.01
314.007	0.01
314.218	0.01
314.43	0.01
314.642	-0.02
314.853	0.01
315.065	0.06
315.277	0.03
315.488	-0
315.7	0.07
315.912	0.03
316.123	0.04
316.335	0.01
316.546	0.09
316.758	0.08
316.969	0.01
317.181	0.04
317.392	0.01
317.604	0.08
317.815	0.01
318.026	-0.03
318.238	0.02
318.449	0.06
318.661	-0.11
318.872	-0.01
319.083	-0.06
319.295	0.08
319.506	-0.02
319.717	0.01
319.929	0.06
320.14	0.02
320.351	0.06
320.562	0.01
320.774	0.06
320.985	0.03
321.196	-0.04
321.407	-0.08
321.618	0.06
321.829	0.04
322.041	0.05
322.252	0.02
322.463	0.03
322.674	0.04
322.885	-0
323.096	0.02
323.307	0.01
323.518	0.03
323.729	0
323.94	0.01
324.151	0.01
324.362	0.02
324.573	0.05
324.784	-0.01
324.995	0.06
325.206	0.04
325.417	0.01
325.628	-0.02
325.838	0.02
326.049	0.03
326.26	0.05
326.471	0.01
326.682	0.07
326.892	0
327.103	-0.03
327.314	-0.06
327.525	0.06
327.735	-0.04
327.946	0.02
328.157	-0.01
328.368	0.05
328.578	0.03
328.789	0.05
328.999	0.04
329.21	0.04
329.421	0.03
329.631	-0
329.842	0.01
330.052	0.04
330.263	0.07
330.473	0.03
330.684	0
330.894	-0.01
331.105	0.03
331.315	0.07
331.526	-0.04
331.736	0.06
331.947	0.03
332.157	0.02
332.367	-0.02
332.578	0.04
332.788	0.02
332.999	0.05
333.209	0.03
333.419	-0.03
333.629	0.08
333.84	0.06
334.05	0.04
334.26	0.12
334.47	-0.01
334.681	0.05
334.891	0.04
335.101	0.09
335.311	0.13
335.521	0.02
335.732	0
335.942	0.04
336.152	0.04
336.362	0.02
336.572	0.08
336.782	0.08
336.992	0.03
337.202	0.03
337.412	0.03
337.622	0.06
337.832	0.04
338.042	0.03
338.252	-0.01
338.462	-0.03
338.672	0.01
338.882	0.07
339.092	0.01
339.302	0.09
339.511	0.05
339.721	-0.03
339.931	-0.04
340.141	0.06
340.351	0.04
340.561	0.06
340.77	0.03
340.98	0.03
341.19	0.04
341.4	-0.01
341.609	0
341.819	0.05
342.029	-0
342.238	0.02
342.448	-0.02
342.658	0.07
342.867	0.02
343.077	-0
343.286	0.03
343.496	0.06
343.706	0.07
343.915	-0.06
344.125	-0.01
344.334	0.04
344.544	-0.05
344.753	0.02
344.963	-0.01
345.172	0
345.381	0
345.591	-0.01
345.8	0.02
346.01	0.04
346.219	0.05
346.428	-0.12
346.638	0.06
346.847	0.02
347.056	0.04
347.266	-0.01
347.475	0.01
347.684	0.03
347.893	0.01
348.103	0.04
348.312	0.01
348.521	0.01
348.73	0.05
348.94	0.01
349.149	-0.01
349.358	-0.01
349.567	-0.01
349.776	-0.01
349.985	-0.01
350.194	0.02
350.403	0.01
350.612	-0.04
350.821	0.01
351.03	0.02
351.239	-0.01
351.448	0.03
351.657	-0.04
351.866	0.06
352.075	0
352.284	0.07
352.493	-0.04
352.702	0.09
352.911	-0.01
353.12	-0
353.329	0.01
353.538	0.04
353.746	0
353.955	-0
354.164	0.03
354.373	-0.01
354.582	0.05
354.79	0.01
354.999	0.04
355.208	0.02
355.416	0.11
355.625	-0.03
355.834	-0
356.042	0.03
356.251	0.03
356.46	-0
356.668	0.03
356.877	0.08
357.085	0.07
357.294	-0.08
357.503	0.05
357.711	0.03
357.92	0.11
358.128	0.02
358.337	0.01
358.545	0.02
358.754	-0.01
358.962	0.07
359.17	0.02
359.379	0.05
359.587	0.05
359.796	-0
360.004	0.1
360.212	0.04
360.421	0.05
360.629	0.01
360.837	0.01
361.046	0.06
361.254	0.12
361.462	0.05
361.67	-0.02
361.879	0.01
362.087	0.09
362.295	-0.02
362.503	0.01
362.711	0.03
362.92	0.02
363.128	-0.02
363.336	0.01
363.544	-0.03
363.752	-0.02
363.96	-0
364.168	-0.02
364.376	-0.01
364.584	0.01
364.792	0.03
365	0.04
365.208	0.06
365.416	0.03
365.624	0.04
365.832	-0
366.04	0.04
366.248	0.04
366.456	0.01
366.664	0.03
366.872	0.01
367.079	-0.02
367.287	0.03
367.495	0.06
367.703	-0
367.911	-0.01
368.118	0.04
368.326	-0.01
368.534	0
368.742	0.04
368.949	-0.01
369.157	-0.01
369.365	0.07
369.572	-0.01
369.78	-0.03
369.988	0.08
370.195	0.06
370.403	0.03
370.61	-0.01
370.818	0.05
371.026	0.06
371.233	-0.02
371.441	0.01
371.648	0
371.856	0.02
372.063	0.01
372.271	0.01
372.478	0
372.685	-0.02
372.893	0.03
373.1	0.02
373.308	-0.02
373.515	0.1
373.722	0.06
373.93	0.03
374.137	0.03
374.344	0.13
374.552	0.01
374.759	0.03
374.966	-0.01
375.173	-0.03
375.381	0.07
375.588	0.03
375.795	-0.03
376.002	0.02
376.209	-0.02
376.417	0.02
376.624	0.04
376.831	0.01
377.038	-0.03
377.245	-0.05
377.452	-0.03
377.659	0.02
377.866	-0.01
378.073	-0
378.28	0.01
378.487	0.06
378.694	0.06
378.901	-0
379.108	-0.01
379.315	0.05
379.522	0.11
379.729	0.04
379.936	0.04
380.143	-0.01
380.35	0.02
380.557	-0.01
380.763	0.05
380.97	-0.05
381.177	0.06
381.384	0.05
381.591	-0.02
381.797	0.04
382.004	0.02
382.211	0.07
382.418	-0.02
382.624	0.05
382.831	0.02
383.038	-0.04
383.244	-0.01
383.451	-0.03
383.658	0.04
383.864	-0.01
384.071	-0.01
384.277	0.07
384.484	-0.05
384.69	0.06
384.897	0.01
385.103	0.01
385.31	-0.04
385.516	-0.05
385.723	0.01
385.929	0.03
386.136	0.01
386.342	0.05
386.549	-0.03
386.755	0.07
386.961	0.06
387.168	0.01
387.374	0.01
387.58	0.05
387.787	0.05
387.993	0.04
388.199	0.03
388.406	-0.01
388.612	-0.01
388.818	-0.01
389.024	-0.02
389.231	0.04
389.437	0.13
389.643	0.06
389.849	-0.02
390.055	0.01
390.261	0.03
390.467	0.06
390.674	-0.03
390.88	0.06
391.086	0.01
391.292	-0.03
391.498	0.08
391.704	0.01
391.91	0.04
392.116	-0.01
392.322	-0.04
392.528	0.03
392.734	0.03
392.94	0.03
393.146	-0
393.352	-0.01
393.557	-0
393.763	-0
393.969	0.03
394.175	0.03
394.381	0.04
394.587	-0.03
394.792	0.02
394.998	0.03
395.204	0.1
395.41	-0.01
395.615	0.06
395.821	0.04
396.027	0.03
396.233	0.01
396.438	0.01
396.644	0.03
396.85	0.05
397.055	0.03
397.261	0.04
397.466	0.01
397.672	0.01
397.878	0.05
398.083	0.03
398.289	0.01
398.494	-0.01
398.7	0.03
398.905	-0.05
399.111	0.08
399.316	-0.02
399.522	0.01
399.727	0.02
399.932	-0.04
400.138	-0
400.343	0.09
400.549	0.01
400.754	-0
400.959	0
401.165	0.04
401.37	0.02
401.575	0.09
401.78	-0
401.986	-0.01
402.191	-0
402.396	0
402.601	0.03
402.807	0.05
403.012	0.04
403.217	0.04
403.422	0.04
403.627	-0.01
403.832	0.03
404.037	0.05
404.243	0.01
404.448	0
404.653	-0.06
404.858	0.03
405.063	0.04
405.268	-0.01
405.473	-0.04
405.678	-0.05
405.883	0.14
406.088	0.06
406.293	-0.02
406.498	-0.01
406.703	0.03
406.907	-0.03
407.112	-0.02
407.317	0.01
407.522	0.08
407.727	-0.04
407.932	0.04
408.136	0.09
408.341	0.06
408.546	0.02
408.751	0.03
408.956	0
409.16	0.06
409.365	0.02
409.57	0.01
409.774	0.01
409.979	0.04
410.184	0.04
410.388	-0.05
410.593	0.05
410.798	0.01
411.002	0
411.207	0.04
411.411	0.02
411.616	0.01
411.82	-0.01
412.025	0.04
412.229	-0.01
412.434	0.05
412.638	0.08
412.843	0.04
413.047	-0.01
413.252	-0.05
413.456	0.02
413.66	0.02
413.865	0.01
414.069	0.09
414.273	-0.03
414.478	0.01
414.682	0
414.886	0.01
415.091	-0.06
415.295	-0.06
415.499	0.05
415.703	-0.04
415.908	0.04
416.112	-0.04
416.316	0.05
416.52	0.03
416.724	-0.07
416.929	-0.02
417.133	0.08
417.337	0
417.541	-0.01
417.745	0.01
417.949	0.04
418.153	0.04
418.357	-0.04
418.561	0.09
418.765	0.03
418.969	0.11
419.173	0.02
419.377	0.01
419.581	0.07
419.785	-0.01
419.989	-0
420.193	-0
420.397	-0
420.601	0.06
420.804	0.08
421.008	-0.02
421.212	0.01
421.416	0.03
421.62	-0.03
421.823	-0
422.027	0.1
422.231	0.05
422.435	0.02
422.638	0.04
422.842	0.02
423.046	-0.06
423.249	0.08
423.453	0.06
423.657	0.01
423.86	-0.01
424.064	-0
424.268	0.07
424.471	0.02
424.675	0.08
424.878	0.09
425.082	0.01
425.285	0.06
425.489	0.01
425.692	0.05
425.896	-0.02
426.099	0.05
426.303	-0.03
426.506	-0.05
426.71	0.08
426.913	0.05
427.116	0.08
427.32	-0.01
427.523	0.01
427.726	0.11
427.93	-0.03
428.133	0.04
428.336	-0
428.54	-0.04
428.743	-0.04
428.946	0.03
429.149	0.03
429.353	0.04
429.556	0.01
429.759	-0.02
429.962	-0.03
430.165	0.04
430.368	-0.04
430.571	0.01
430.775	0.01
430.978	-0.03
431.181	0.04
431.384	0.01
431.587	-0.02
431.79	0.05
431.993	0.05
432.196	0.04
432.399	-0.02
432.602	0.08
432.805	0.05
433.008	0.03
433.211	-0.05
433.414	0.02
433.616	0.06
433.819	-0
434.022	-0.03
434.225	0.05
434.428	-0.01
434.631	0.11
434.833	-0.03
435.036	-0.01
435.239	0.05
435.442	0.03
435.645	-0
435.847	0.01
436.05	0.06
436.253	0.03
436.455	-0.04
436.658	0.01
436.861	0.06
437.063	-0
437.266	0.01
437.468	0.03
437.671	0.11
437.874	0.03
438.076	-0.07
438.279	-0.07
438.481	0.03
438.684	-0.05
438.886	0.01
439.089	-0.09
439.291	0.02
439.494	0.01
439.696	-0.07
439.899	-0.01
440.101	0.05
440.303	-0.06
440.506	0.02
440.708	0
440.91	0.01
441.113	-0.05
441.315	0.1
441.517	-0.06
441.72	0.04
441.922	-0.01
442.124	-0.02
442.326	0.01
442.529	0.08
442.731	-0.02
442.933	0.12
443.135	-0.02
443.337	-0.05
443.539	0.03
443.742	-0.01
443.944	0.03
444.146	-0.02
444.348	-0.03
444.55	-0.04
444.752	0.01
444.954	-0.02
445.156	0
445.358	0.03
445.56	0.09
445.762	-0.01
445.964	-0
446.166	0.02
446.368	-0.04
446.57	0.04
446.772	-0.03
446.974	0.01
447.175	0.04
447.377	-0.02
447.579	-0.06
447.781	-0.08
447.983	0.09
448.184	0.04
448.386	0.04
448.588	-0.07
448.79	0.06
448.991	-0
449.193	-0.02
449.395	0.02
449.597	0.07
449.798	0.05
450	0.08
450.202	-0.03
450.403	-0
450.605	0.02
450.806	0
451.008	-0.06
451.21	0.03
451.411	0.03
451.613	0.02
451.814	0.02
452.016	0
452.217	0.03
452.419	0.06
452.62	0.02
452.821	0.04
453.023	0.11
453.224	0.03
453.426	0.02
453.627	0.04
453.828	0.05
454.03	0.01
454.231	0.06
454.432	-0.03
454.634	0.07
454.835	0.03
455.036	-0.06
455.238	0.03
455.439	0.1
455.64	-0.03
455.841	-0.01
456.042	0.09
456.244	0.06
456.445	-0.06
456.646	-0.06
456.847	-0.02
457.048	0.06
457.249	0.05
457.45	0.19
457.651	-0.01
457.852	0.05
458.054	0.02
458.255	0.02
458.456	0.05
458.657	0.08
458.858	-0.02
459.058	0
459.259	0.1
459.46	0.04
459.661	0.04
459.862	0.12
460.063	0.02
460.264	0.06
460.465	-0.02
460.666	0.11
460.866	0.01
461.067	-0.03
461.268	0
461.469	-0.01
461.67	0
461.87	-0.01
462.071	0.02
462.272	-0.01
462.473	-0.02
462.673	0.05
462.874	-0.06
463.075	0.01
463.275	0
463.476	0.02
463.676	0.06
463.877	0.03
464.078	-0
464.278	0.06
464.479	0.01
464.679	-0.01
464.88	-0
465.08	0.05
465.281	0.02
465.481	-0
465.682	0.01
465.882	0.07
466.083	0.02
466.283	0.02
466.483	-0.02
466.684	-0.05
466.884	-0.03
467.085	0.02
467.285	0.03
467.485	-0.02
467.686	0.03
467.886	-0
468.086	0.02
468.286	0.03
468.487	0.02
468.687	-0.03
468.887	0.04
469.087	0.05
469.287	0
469.488	-0.04
469.688	0.03
469.888	0.08
470.088	0.04
470.288	0.1
470.488	0.07
470.688	-0.04
470.888	-0.02
471.088	-0.04
471.288	0.05
471.488	0.03
471.688	0.05
471.888	-0.03
472.088	0.04
472.288	0.03
472.488	-0.03
472.688	0.01
472.888	0.01
473.088	-0.01
473.288	-0.03
473.488	-0
473.688	0.07
473.887	0.04
474.087	-0.04
474.287	0.04
474.487	-0.02
474.687	0.05
474.886	-0.03
475.086	0.02
475.286	-0.01
475.486	0.03
475.685	0.01
475.885	0
476.085	-0
476.284	0.04
476.484	0.05
476.684	0.03
476.883	0.06
477.083	0.05
477.282	-0.01
477.482	0.05
477.681	0.07
477.881	0.05
478.08	0.01
478.28	-0.01
478.479	0.04
478.679	0.07
478.878	-0.03
479.078	-0.02
479.277	0.02
479.477	0.03
479.676	0.02
479.875	0.02
480.075	-0.06
480.274	0.03
480.473	0.03
480.673	-0.05
480.872	0.04
481.071	0.04
481.271	0.03
481.47	0
481.669	0.03
481.868	-0.01
482.067	-0.03
482.267	-0.02
482.466	-0.04
482.665	-0.03
482.864	-0.05
483.063	-0.02
483.262	-0.01
483.461	0.07
483.661	0.03
483.86	-0.02
484.059	0.03
484.258	0.03
484.457	0.01
484.656	0.01
484.855	0.04
485.054	-0.03
485.253	-0.02
485.452	-0.03
485.651	0
485.849	-0.01
486.048	-0.01
486.247	-0.01
486.446	-0.01
486.645	-0.01
486.844	-0.01
487.043	0.02
487.241	0.01
487.44	0.01
487.639	-0
487.838	0.03
488.037	0.02
488.235	0.05
488.434	0.01
488.633	-0.01
488.831	0.01
489.03	0.05
489.229	0.01
489.427	-0
489.626	0.05
489.825	0.04
490.023	-0.01
490.222	-0.02
490.42	0.01
490.619	0.04
490.817	0.03
491.016	-0.01
491.214	0.02
491.413	0.04
491.611	-0.02
491.81	0.01
492.008	0.02
492.207	0.02
492.405	0.02
492.604	-0.03
492.802	0
493	0
493.199	-0
493.397	0.03
493.595	0.01
493.794	-0.01
493.992	0.03
494.19	0.01
494.388	0.01
494.587	-0.01
494.785	0.02
494.983	-0.02
495.181	0
495.379	0.01
495.578	0
495.776	0.01
495.974	0.02
496.172	0
496.37	0.01
496.568	-0
496.766	-0.02
496.964	0.04
497.162	0.01
497.36	-0
497.558	0.03
497.756	0.03
497.954	0.02
498.152	-0.01
498.35	-0
498.548	0.02
498.746	-0
498.944	-0.01
499.142	0.02
499.34	-0.02
499.538	-0
499.736	-0.02
499.933	0.04
500.131	0.04
500.329	-0
500.527	0.04
500.725	0.03
500.922	0.03
501.12	0.01
501.318	0.01
501.516	-0.02
501.713	0.02
501.911	-0
502.109	-0.03
502.306	0.03
502.504	0.01
502.701	-0.01
502.899	-0.01
503.097	0.05
503.294	-0.01
503.492	0
503.689	0.03
503.887	0.04
504.084	0.07
504.282	0.01
504.479	-0.02
504.677	0.01
504.874	-0.03
505.072	0.01
505.269	-0
505.466	0.06
505.664	-0
505.861	-0.02
506.059	-0.03
506.256	0.03
506.453	0
506.651	0.07
506.848	0.02
507.045	0
507.242	0.02
507.44	-0.01
507.637	0
507.834	0
508.031	0.03
508.229	-0.02
508.426	-0.01
508.623	0.05
508.82	-0.02
509.017	-0
509.214	0.01
509.411	-0.01
509.608	-0.03
509.805	0.01
510.003	-0
510.2	-0.01
510.397	0.03
510.594	-0.01
510.791	0
510.988	0.02
511.184	0.05
511.381	0.03
511.578	0.01
511.775	0.04
511.972	-0.01
512.169	-0.01
512.366	0.02
512.563	0.01
512.76	-0.01
512.956	0.03
513.153	-0.01
513.35	0.02
513.547	0.02
513.744	-0.01
513.94	-0.01
514.137	0.03
514.334	0.01
514.53	0.02
514.727	0.01
514.924	0.05
515.12	-0.01
515.317	-0.04
515.514	-0.03
515.71	-0.01
515.907	0
516.103	0.02
516.3	0.02
516.497	0.04
516.693	0.04
516.89	0.01
517.086	-0.03
517.283	0.04
517.479	0
517.676	-0
517.872	0.01
518.068	0
518.265	-0.01
518.461	-0.02
518.658	-0
518.854	0.03
519.05	0
519.247	0
519.443	0
519.639	0.02
519.836	0.01
520.032	0
520.228	0
520.424	0.04
520.621	0.02
520.817	0.02
521.013	0.02
521.209	0.02
521.405	0.04
521.601	0
521.798	0.03
521.994	0.03
522.19	-0.01
522.386	-0.03
522.582	-0
522.778	0.01
522.974	0.01
523.17	0.01
523.366	-0
523.562	0.05
523.758	0.01
523.954	-0
524.15	0.01
524.346	0.01
524.542	-0.01
524.738	-0
524.934	-0
525.129	0.01
525.325	0.01
525.521	0.02
525.717	0.02
525.913	0.02
526.109	0.02
526.304	0.02
526.5	0.02
526.696	0.04
526.892	0.02
527.087	0.01
527.283	-0.01
527.479	0.02
527.674	0
527.87	0.04
528.066	-0
528.261	0.03
528.457	0.01
528.653	0.01
528.848	-0.01
529.044	0.02
529.239	-0
529.435	0.03
529.63	0.01
529.826	0.05
530.021	0.03
530.217	0.03
530.412	-0
530.608	-0.01
530.803	-0
530.999	0
531.194	-0.02
531.389	0.01
531.585	-0.04
531.78	-0
531.975	-0
532.171	0.02
532.366	-0.01
532.561	0.01
532.757	-0.01
532.952	-0.01
533.147	0.03
533.342	0.01
533.538	-0
533.733	0.02
533.928	-0
534.123	-0.01
534.318	-0.02
534.513	-0.01
534.709	0
534.904	-0.02
535.099	-0.01
535.294	-0
535.489	0.02
535.684	0.01
535.879	-0.01
536.074	0.02
536.269	-0.01
536.464	0.01
536.659	-0.02
536.854	0
537.049	0.02
537.244	0.02
537.439	0.02
537.634	0.05
537.828	-0.01
538.023	0.02
538.218	-0.02
538.413	0
538.608	-0.02
538.803	0.01
538.997	-0.03
539.192	0.02
539.387	0.02
539.582	0.01
539.776	0
539.971	0.01
540.166	-0.01
540.36	-0.03
540.555	0.01
540.75	0.01
540.944	0.02
541.139	-0.01
541.334	-0.01
541.528	0.05
541.723	0.03
541.917	-0.02
542.112	-0.04
542.306	-0
542.501	0.01
542.695	0.01
542.89	-0
543.084	0
543.279	-0.01
543.473	-0.01
543.668	0.01
543.862	0.01
544.056	-0
544.251	0
544.445	0
544.64	-0.01
544.834	-0.01
545.028	0
545.222	0.01
545.417	0.01
545.611	0.03
545.805	0.02
546	-0.01
546.194	0.02
546.388	0.01
546.582	0.05
546.776	-0.01
546.97	0
547.165	0.03
547.359	0.03
547.553	-0.01
547.747	0.01
547.941	0.01
548.135	0.01
548.329	0.03
548.523	0.02
548.717	-0.01
548.911	-0
549.105	0.01
549.299	0.04
549.493	0.02
549.687	0.02
549.881	0
550.075	0.01
550.269	-0.03
550.463	0.02
550.657	-0
550.85	-0
551.044	-0.02
551.238	0.01
551.432	-0.01
551.626	-0.01
551.82	0
552.013	-0.01
552.207	0.02
552.401	0.03
552.594	0.03
552.788	-0.01
552.982	0.01
553.176	-0
553.369	0.01
553.563	0.02
553.756	-0.02
553.95	-0.02
554.144	0.01
554.337	0.03
554.531	0
554.724	0.01
554.918	0.02
555.111	0.02
555.305	0.01
555.498	0.06
555.692	0.03
555.885	-0
556.079	0.02
556.272	-0.02
556.466	0.02
556.659	0.02
556.852	-0
557.046	-0
557.239	0.05
557.432	-0.01
557.626	0.01
557.819	0.01
558.012	0.03
558.206	0.04
558.399	0.02
558.592	0.04
558.785	0.02
558.979	0.02
559.172	0.04
559.365	0.03
559.558	-0
559.751	0.01
559.944	-0.01
560.138	0
560.331	0.02
560.524	-0.02
560.717	0.01
560.91	0.02
561.103	0.01
561.296	0.03
561.489	0.03
561.682	0.02
561.875	0.05
562.068	0.03
562.261	0.03
562.454	0.06
562.647	0.04
562.84	0.02
563.032	0.01
563.225	0.02
563.418	0.02
563.611	-0.01
563.804	0.03
563.997	0
564.19	-0.03
564.382	-0.04
564.575	0.01
564.768	0.02
564.961	0
565.153	0.01
565.346	0.03
565.539	0.03
565.731	0.04
565.924	0.04
566.117	0.04
566.309	0.01
566.502	-0.01
566.695	0
566.887	0.01
567.08	-0.01
567.272	-0.01
567.465	0.02
567.657	0.03
567.85	0.04
568.042	0.02
568.235	0.04
568.427	0.02
568.62	-0
568.812	0.03
569.005	0.02
569.197	-0.02
569.389	0.02
569.582	0.03
569.774	0.03
569.966	-0.01
570.159	-0.03
570.351	0.02
570.543	0.02
570.736	-0.01
570.928	-0.01
571.12	0.02
571.312	-0.01
571.505	-0.02
571.697	0.02
571.889	-0.03
572.081	0.02
572.273	0
572.465	0.04
572.658	0
572.85	0.01
573.042	0.01
573.234	0
573.426	0.06
573.618	-0
573.81	0.03
574.002	0.06
574.194	0.04
574.386	-0.02
574.578	-0.05
574.77	-0.01
574.962	-0.01
575.154	-0.01
575.346	-0
575.538	0.03
575.729	0.03
575.921	0.01
576.113	0.02
576.305	0.04
576.497	-0
576.689	0.01
576.88	-0.02
577.072	0.02
577.264	0.01
577.456	0.04
577.647	-0.04
577.839	0.03
578.031	0.04
578.223	-0.02
578.414	-0.03
578.606	0.02
578.798	0.03
578.989	-0
579.181	0.01
579.372	0.01
579.564	0
579.755	0.03
579.947	0.05
580.139	0.04
580.33	-0.01
580.522	0.01
580.713	-0.04
580.905	0.02
581.096	0.04
581.287	0.04
581.479	0.01
581.67	0.03
581.862	-0.01
582.053	0.01
582.244	-0.04
582.436	0.04
582.627	0.03
582.818	0.02
583.01	-0.02
583.201	0.04
583.392	0.02
583.583	0.04
583.775	-0
583.966	0
584.157	-0.01
584.348	0
584.54	0
584.731	0.04
584.922	0.01
585.113	-0
585.304	0.02
585.495	0.05
585.686	0.02
585.877	0.05
586.068	0.03
586.259	0.04
586.45	0.01
586.641	0.01
586.832	-0.02
587.023	0.02
587.214	0.01
587.405	0.02
587.596	0.01
587.787	0.04
587.978	0.04
588.169	0.01
588.36	0.01
588.551	0.04
588.742	0.01
588.932	0.01
589.123	0.03
589.314	0.02
589.505	0.06
589.696	0.05
589.886	-0
590.077	-0.01
590.268	0.04
590.458	-0.01
590.649	-0
590.84	0.03
591.03	-0
591.221	0.01
591.412	-0.02
591.602	0.06
591.793	0.06
591.984	0.01
592.174	0.04
592.365	0.08
592.555	0.01
592.746	0.07
592.936	0.04
593.127	0.07
593.317	0.05
593.508	-0.01
593.698	0.01
593.889	0.05
594.079	0.03
594.269	0.04
594.46	0.02
594.65	0.02
594.84	0.05
595.031	0.01
595.221	0.02
595.411	0
595.602	0.06
595.792	0.04
595.982	0.05
596.172	0.09
596.363	0.06
596.553	0.03
596.743	0.05
596.933	0.05
597.123	0.05
597.314	0.01
597.504	0.04
597.694	0.09
597.884	0.04
598.074	0.03
598.264	0.04
598.454	0.06
598.644	0.06
598.834	0.07
599.024	-0.01
599.214	0.06
599.404	0.08
599.594	0.03
599.784	0.01
599.974	0.08
600.164	0.07
600.354	0.04
600.544	0.03
600.734	0.08
600.924	0.1
601.114	0.05
601.303	0.08
601.493	0.07
601.683	0.06
601.873	0.07
602.063	0.04
602.252	0.09
602.442	0.02
602.632	0.08
602.821	0.05
603.011	0.11
603.201	0.04
603.39	0.02
603.58	0.04
603.77	0.09
603.959	0.09
604.149	0.06
604.339	0.06
604.528	0.1
604.718	0.1
604.907	0.06
605.097	0.06
605.286	0.07
605.476	0.1
605.665	0.1
605.855	0.07
606.044	0.11
606.234	0.11
606.423	0.09
606.612	0.06
606.802	0.11
606.991	0.1
607.181	0.11
607.37	0.06
607.559	0.1
607.749	0.06
607.938	0.13
608.127	0.1
608.316	0.11
608.506	0.11
608.695	0.11
608.884	0.09
609.073	0.12
609.263	0.16
609.452	0.16
609.641	0.14
609.83	0.1
610.019	0.14
610.208	0.11
610.397	0.12
610.586	0.17
610.775	0.12
610.965	0.15
611.154	0.1
611.343	0.17
611.532	0.16
611.721	0.13
611.91	0.14
612.099	0.17
612.287	0.15
612.476	0.13
612.665	0.19
612.854	0.16
613.043	0.23
613.232	0.2
613.421	0.18
613.61	0.19
613.798	0.19
613.987	0.21
614.176	0.2
614.365	0.22
614.554	0.23
614.742	0.24
614.931	0.19
615.12	0.26
615.309	0.23
615.497	0.26
615.686	0.2
615.875	0.23
616.063	0.26
616.252	0.26
616.44	0.23
616.629	0.25
616.818	0.3
617.006	0.26
617.195	0.29
617.383	0.3
617.572	0.27
617.76	0.28
617.949	0.31
618.137	0.33
618.326	0.35
618.514	0.27
618.703	0.31
618.891	0.41
619.079	0.25
619.268	0.38
619.456	0.33
619.644	0.43
619.833	0.33
620.021	0.36
620.209	0.31
620.398	0.38
620.586	0.41
620.774	0.45
620.962	0.42
621.151	0.46
621.339	0.39
621.527	0.38
621.715	0.42
621.903	0.41
622.092	0.4
622.28	0.47
622.468	0.46
622.656	0.53
622.844	0.5
623.032	0.48
623.22	0.44
623.408	0.58
623.596	0.57
623.784	0.56
623.972	0.54
624.16	0.55
624.348	0.59
624.536	0.62
624.724	0.55
624.912	0.67
625.1	0.65
625.288	0.67
625.476	0.62
625.664	0.74
625.851	0.63
626.039	0.69
626.227	0.68
626.415	0.72
626.603	0.68
626.79	0.76
626.978	0.74
627.166	0.81
627.354	0.76
627.541	0.77
627.729	0.74
627.917	0.89
628.104	0.87
628.292	0.86
628.48	0.91
628.667	0.9
628.855	0.97
629.042	0.96
629.23	0.95
629.418	0.95
629.605	0.99
629.793	1.01
629.98	0.98
630.168	1.04
630.355	1.04
630.543	1.1
630.73	1.1
630.917	1.13
631.105	1.19
631.292	1.16
631.48	1.18
631.667	1.27
631.854	1.23
632.042	1.26
632.229	1.24
632.416	1.33
632.604	1.31
632.791	1.25
632.978	1.44
633.165	1.41
633.353	1.42
633.54	1.49
633.727	1.45
633.914	1.46
634.101	1.39
634.289	1.57
634.476	1.55
634.663	1.58
634.85	1.65
635.037	1.58
635.224	1.64
635.411	1.75
635.598	1.74
635.785	1.75
635.972	1.72
636.159	1.85
636.346	1.83
636.533	1.84
636.72	1.94
636.907	1.9
637.094	1.93
637.281	1.96
637.468	2.06
637.655	2.05
637.842	2.08
638.029	2.11
638.215	2.15
638.402	2.23
638.589	2.22
638.776	2.26
638.963	2.28
639.149	2.45
639.336	2.48
639.523	2.45
639.709	2.44
639.896	2.51
640.083	2.55
640.27	2.64
640.456	2.62
640.643	2.7
640.829	2.61
641.016	2.77
641.203	2.83
641.389	2.92
641.576	2.97
641.762	2.95
641.949	2.96
642.135	3.11
642.322	3.17
642.508	3.13
642.695	3.27
642.881	3.24
643.068	3.34
643.254	3.41
643.441	3.54
643.627	3.6
643.813	3.55
644	3.73
644.186	3.7
644.372	3.81
644.559	3.88
644.745	3.88
644.931	3.96
645.118	4.14
645.304	4.15
645.49	4.25
645.676	4.29
645.862	4.36
646.049	4.53
646.235	4.51
646.421	4.73
646.607	4.81
646.793	4.78
646.979	4.82
647.165	5.09
647.352	5.1
647.538	5.18
647.724	5.31
647.91	5.35
648.096	5.47
648.282	5.59
648.468	5.64
648.654	5.73
648.84	5.85
649.026	6
649.212	5.95
649.397	6.12
649.583	6.22
649.769	6.44
649.955	6.38
650.141	6.62
650.327	6.6
650.513	6.8
650.698	6.85
650.884	6.89
651.07	7.12
651.256	7.21
651.442	7.31
651.627	7.27
651.813	7.61
651.999	7.58
652.184	7.71
652.37	7.86
652.556	8.02
652.741	8.05
652.927	8.04
653.113	8.3
653.298	8.45
653.484	8.52
653.669	8.58
653.855	8.67
654.04	8.9
654.226	8.96
654.412	9.02
654.597	9.06
654.782	9.33
654.968	9.41
655.153	9.47
655.339	9.64
655.524	9.67
655.71	9.88
655.895	9.97
656.08	10.09
656.266	10.22
656.451	10.18
656.636	10.3
656.822	10.31
657.007	10.52
657.192	10.5
657.378	10.6
657.563	10.48
657.748	10.66
657.933	10.8
658.118	10.54
658.304	10.72
658.489	10.78
658.674	10.67
658.859	10.61
659.044	10.53
659.229	10.57
659.414	10.55
659.599	10.42
659.785	10.22
659.97	10.18
660.155	10.06
660.34	10
660.525	9.77
660.71	9.56
660.895	9.52
661.08	9.19
661.264	8.98
661.449	8.84
661.634	8.58
661.819	8.37
662.004	8.08
662.189	7.96
662.374	7.71
662.559	7.44
662.743	7.2
662.928	7.06
663.113	6.74
663.298	6.56
663.483	6.31
663.667	6.1
663.852	5.95
664.037	5.82
664.221	5.54
664.406	5.39
664.591	5.23
664.775	5.01
664.96	4.8
665.145	4.53
665.329	4.41
665.514	4.21
665.698	4.05
665.883	3.84
666.068	3.84
666.252	3.68
666.437	3.49
666.621	3.38
666.806	3.27
666.99	3.11
667.174	3
667.359	2.89
667.543	2.75
667.728	2.71
667.912	2.52
668.096	2.51
668.281	2.33
668.465	2.37
668.649	2.26
668.834	2.11
669.018	2.12
669.202	2.04
669.387	1.88
669.571	1.9
669.755	1.79
669.939	1.71
670.124	1.68
670.308	1.64
670.492	1.57
670.676	1.56
670.86	1.43
671.044	1.39
671.228	1.35
671.413	1.25
671.597	1.26
671.781	1.17
671.965	1.17
672.149	1.1
672.333	1.12
672.517	1.08
672.701	1
672.885	0.98
673.069	0.91
673.253	1.05
673.437	0.89
673.621	0.79
673.804	0.83
673.988	0.79
674.172	0.75
674.356	0.64
674.54	0.76
674.724	0.78
674.908	0.7
675.091	0.68
675.275	0.66
675.459	0.65
675.643	0.59
675.826	0.6
676.01	0.52
676.194	0.49
676.377	0.59
676.561	0.6
676.745	0.49
676.928	0.49
677.112	0.5
677.296	0.44
677.479	0.42
677.663	0.39
677.846	0.38
678.03	0.37
678.213	0.31
678.397	0.38
678.58	0.34
678.764	0.34
678.947	0.31
679.131	0.26
679.314	0.35
679.498	0.35
679.681	0.31
679.865	0.31
680.048	0.31
680.231	0.21
680.415	0.2
680.598	0.25
680.781	0.26
680.965	0.23
681.148	0.25
681.331	0.24
681.514	0.25
681.698	0.19
681.881	0.22
682.064	0.24
682.247	0.22
682.43	0.14
682.614	0.2
682.797	0.26
682.98	0.2
683.163	0.16
683.346	0.19
683.529	0.17
683.712	0.16
683.895	0.2
684.078	0.12
684.261	0.18
684.444	0.17
684.627	0.16
684.81	0.11
684.993	0.13
685.176	0.18
685.359	0.08
685.542	0.11
685.725	0.16
685.908	0.12
686.091	0.13
686.274	0.15
686.457	0.2
686.639	0.11
686.822	0.17
687.005	0.15
687.188	0.17
687.371	0.22
687.553	0.18
687.736	0.17
687.919	0.18
688.102	0.17
688.284	0.08
688.467	0.18
688.65	0.08
688.832	0.09
689.015	0.13
689.197	0.06
689.38	0.2
689.563	0.2
689.745	0.07
689.928	0.04
690.11	0.08
690.293	0.12
690.475	0.01
690.658	0.1
690.84	0.06
691.023	0.12
691.205	0.06
691.388	0.12
691.57	0.1
691.752	0.11
691.935	0.01
692.117	0.08
692.3	0.12
692.482	0.09
692.664	0.06
692.847	0.08
693.029	0.13
693.211	0.1
693.393	0.08
693.576	0.03
693.758	0.1
693.94	0.03
694.122	0.05
694.304	0.02
694.487	0.02
694.669	0.2
694.851	0.03
695.033	0.08
695.215	-0
695.397	-0
695.579	0.09
695.761	0.04
695.943	-0.04
696.125	0.13
696.308	0.09
696.49	-0.01
696.671	0.17
696.853	0.06
697.035	0.15
697.217	0.07
697.399	0.09
697.581	0.04
697.763	0.03
697.945	0.04
698.127	0.03
698.309	0.09
698.491	0.11
698.672	0.05
698.854	0.11
699.036	0.1
699.218	-0.03
699.399	0.11
699.581	0.09
699.763	0.06
699.945	0.03
700.126	-0
700.308	0.03
700.49	0.03
700.671	-0.03
700.853	0.03
701.035	0.05
701.216	0.02
701.398	0.03
701.579	0.05
701.761	0.15
701.943	0.02
702.124	-0.01
702.306	0.12
702.487	0.19
702.669	0.07
702.85	0.03
703.031	-0.01
703.213	0.1
703.394	0.05
703.576	0.02
703.757	0.1
703.938	0.07
704.12	0.18
704.301	0.09
704.483	-0
704.664	0.08
704.845	0.08
705.026	0.13
705.208	0.08
705.389	0.11
705.57	0.11
705.751	0.06
705.933	0.05
706.114	0.16
706.295	0.04
706.476	-0.03
706.657	0.13
706.838	0.12
707.02	0.11
707.201	-0
707.382	-0.05
707.563	0.06
707.744	0.01
707.925	0.04
708.106	-0.03
708.287	0.08
708.468	0.13
708.649	0.02
708.83	0.05
709.011	0.04
709.192	0.1
709.373	-0.04
709.554	0.02
709.734	0.07
709.915	0.07
710.096	0.09
710.277	-0.02
710.458	0.05
710.639	0.05
710.819	-0.02
711	0.01
711.181	0.09
711.362	0.04
711.542	0.01
711.723	0.06
711.904	0.08
712.085	0.01
712.265	0.05
712.446	-0.03
712.627	0.01
712.807	0.03
712.988	0.03
713.168	-0.01
713.349	0.06
713.53	-0.04
713.71	0.02
713.891	-0.07
714.071	0.02
714.252	0.03
714.432	0.01
714.613	-0.01
714.793	0.07
714.974	0.05
715.154	0.11
715.334	0.04
715.515	0.12
715.695	-0.01
715.876	0.06
716.056	0.01
716.236	0.02
716.417	0.02
716.597	0.08
716.777	0.15
716.957	0.01
717.138	0.02
717.318	0.02
717.498	-0.04
717.678	0.02
717.859	0.03
718.039	0
718.219	0.06
718.399	0.09
718.579	-0.07
718.759	-0.05
718.939	0.03
719.12	-0.02
719.3	0.08
719.48	-0.13
719.66	-0.06
719.84	0.07
720.02	0.04
720.2	0.02
720.38	0.07
720.56	0.08
720.74	-0.05
720.92	0.07
721.1	0.08
721.279	0.11
721.459	0.03
721.639	-0.02
721.819	0.05
721.999	-0.03
722.179	0.04
722.359	-0.02
722.538	0.08
722.718	0.05
722.898	-0.03
723.078	0.08
723.257	0.01
723.437	-0.01
723.617	0.1
723.797	0.1
723.976	0.05
724.156	0.06
724.336	0.14
724.515	0.16
724.695	-0
724.874	-0.01
725.054	0.07
725.234	0.03
725.413	0.08
725.593	0.01
725.772	-0
725.952	-0.02
726.131	0.07
726.311	0
726.49	0.1
726.67	0.07
726.849	0.02
727.028	0.01
727.208	0.01
727.387	-0
727.567	-0.03
727.746	-0.05
727.925	0.02
728.105	-0.12
728.284	-0.05
728.463	-0.07
728.643	0.05
728.822	-0.02
729.001	-0.02
729.18	0.04
729.359	0.05
729.539	0.1
729.718	0.04
729.897	0.06
730.076	-0.01
730.255	-0.05
730.434	-0.02
730.614	-0.01
730.793	0.14
730.972	0.01
731.151	0.09
731.33	0.12
731.509	0.07
731.688	0.06
731.867	0.05
732.046	-0.04
732.225	0.14
732.404	0.01
732.583	-0.07
732.762	0.04
732.941	0.13
733.12	0.01
733.298	0.02
733.477	0.14
733.656	-0.03
733.835	-0.12
734.014	0.19
734.193	0.01
734.371	0.07
734.55	0.06
734.729	-0.04
734.908	0.11
735.086	0.08
735.265	0.11
735.444	-0.15
735.623	-0.11
735.801	-0.09
735.98	-0.04
736.159	-0.03
736.337	0.12
736.516	0.02
736.694	0.11
736.873	0.05
737.052	0.22
737.23	0.05
737.409	-0.01
737.587	0.18
737.766	-0.09
737.944	-0.04
738.123	-0.01
738.301	0.1
738.479	-0.01
738.658	0.06
738.836	-0.18
739.015	0.17
739.193	0.12
739.371	-0.1
739.55	-0.04
739.728	-0.05
739.906	0.14
740.085	0.27
740.263	-0.01
740.441	-0.09
740.62	0.22
740.798	-0.05
740.976	-0.13
741.154	-0.02
741.332	0.12
741.511	0.06
741.689	-0.02
741.867	0.05
742.045	-0.09
742.223	-0.01
742.401	-0.02
742.579	-0.01
742.757	0.03
742.935	-0.05
743.114	-0.01
743.292	0.03
743.47	0.02
743.648	-0.07
743.826	0.08
744.004	0.07
744.181	0.09
744.359	-0.04
744.537	0.09
744.715	-0.01
744.893	0.04
745.071	0.09
745.249	-0.09
745.427	0.03
745.605	-0.01
745.782	0.13
745.96	0.05
746.138	0.16
746.316	0.03
746.493	-0.04
746.671	0.14
746.849	-0.01
747.027	0.17
747.204	-0.07
747.382	0.11
747.56	-0.08
747.737	0.1
747.915	-0.07
748.093	0.07
748.27	-0.01
748.448	0.03
748.625	-0.1
748.803	-0.04
748.98	-0
749.158	0.14
749.335	0.08
749.513	0.01
749.69	-0.02
749.868	-0.03
750.045	-0
750.223	-0.09
750.4	-0.13
750.578	0.15
750.755	0.02
750.932	0.01
751.11	0.08
751.287	-0.1
751.464	0.13
751.642	0.01
751.819	0.07
751.996	0.07
752.173	-0.05
752.351	-0.1
752.528	0.12
752.705	-0.06
752.882	-0.03
753.06	0.05
753.237	0.1
753.414	0.14
753.591	0.14
753.768	0.01
753.945	0.03
754.122	-0.06
754.299	0.11
754.476	-0.07
754.654	-0.03
754.831	0.09
755.008	0.13
755.185	0.03
755.362	-0.03
755.539	0.03
755.716	-0.07
755.892	0.06
756.069	0.04
756.246	0.01
756.423	0.03
756.6	0.18
756.777	0.04
756.954	0.11
757.131	-0.01
757.307	-0.04
757.484	-0.03
757.661	0.04
757.838	0.12
758.015	-0.07
758.191	0.03
758.368	0.1
758.545	0.26
758.721	0.06
758.898	-0.06
759.075	0.08
759.251	0.1
759.428	0.02
759.605	-0.11
759.781	0.03
759.958	0.04
760.134	0.04
760.311	-0.13
760.488	0.24
760.664	0.26
760.841	-0.07
761.017	-0.06
761.194	-0.04
761.37	0.15
761.547	0.03
761.723	0.04
761.899	0.17
762.076	-0.07
762.252	-0.04
762.429	-0.02
762.605	0.09
762.781	0.11
762.958	0.11
763.134	-0.02
763.31	-0.07
763.486	0.09
763.663	-0.11
763.839	-0.01
764.015	-0.17
764.191	-0.07
764.368	0.04
764.544	-0.02
764.72	0.11
764.896	0.12
765.072	0.01
765.248	0.07
765.425	-0.04
765.601	-0.05
765.777	0.13
765.953	-0.16
766.129	0.04
766.305	-0.06
766.481	0.1
766.657	0.18
766.833	0.19
767.009	-0.2
767.185	-0.03
767.361	0.04
767.537	-0.12
767.713	0.19
767.889	-0.05
768.065	0.04
768.24	-0.28
768.416	0.01
768.592	-0.12
768.768	0.02
768.944	-0.02
769.12	-0.17
769.295	-0
769.471	-0.07
769.647	-0.12
769.823	0.29
769.998	-0
770.174	-0.09
770.35	0.34
770.525	0.22
770.701	0.09
770.877	-0.05
771.052	-0.01
771.228	-0.04
771.403	0.08
771.579	0.06
771.755	0.35
771.93	-0.1
772.106	-0.03
772.281	-0.11
772.457	0.06
772.632	0.05
772.808	-0.14
772.983	0
773.159	-0.1
773.334	0.25
773.509	-0.08
773.685	-0.13
773.86	0.32
774.036	0.19
774.211	0.03
774.386	0.02
774.562	0
774.737	0.1
774.912	-0.1
775.087	0.01
775.263	0.06
775.438	0.05
775.613	0.1
775.788	0.14
775.964	0.2
776.139	0.23
776.314	-0.16
776.489	0.03
776.664	0.11
776.839	-0.14
777.014	0.14
777.19	0.14
777.365	0.1
777.54	0.24
777.715	-0.05
777.89	-0.03
778.065	-0.19
778.24	0.09
778.415	0.15
778.59	-0.08
778.765	-0.04
778.94	-0.08
779.115	0.02
779.289	-0.01
779.464	-0.01
779.639	0.04
779.814	-0.14
779.989	-0.18
780.164	0.12
780.339	0.09
780.513	0.07
780.688	-0.16
780.863	0.07
781.038	0.03
781.212	0.03
781.387	-0.01
781.562	0.41
781.737	0.01
781.911	0.1
782.086	-0.14
782.261	0.02
782.435	0.28
782.61	-0.2
782.784	-0.03
782.959	0.18
783.134	-0.26
783.308	-0.05
783.483	0.02
783.657	0.42
783.832	0.19
784.006	-0.23
784.181	0
784.355	0.2
784.53	-0.15
784.704	-0.07
784.878	0.24
785.053	0.19
785.227	0.12
785.402	0.33
785.576	-0.21
785.75	0.03
785.925	0.15
786.099	0.19
786.273	-0.02
786.448	0.16
786.622	0.04
786.796	-0.15
786.97	0.03
787.145	0.52
787.319	-0.26
787.493	-0.08
787.667	-0.42
787.841	0.1
788.015	0.35
788.19	0.05
788.364	-0.01
788.538	-0.16
788.712	0.14
788.886	-0.13
789.06	0.29
789.234	0.02
789.408	-0.06
789.582	0
789.756	0.18
789.93	-0.06
790.104	-0.06
790.278	-0.12
790.452	-0.19
790.626	0.29
790.8	-0.07
790.973	0.19
791.147	0.42
791.321	0.34
791.495	0.06
791.669	0.13
791.843	0.15
792.016	0.02
792.19	0.3
792.364	-0.03
792.538	0.63
792.711	-0.01
792.885	-0.04
793.059	-0.19
793.233	-0.65
793.406	0.22
793.58	0.06
793.754	0.3
793.927	-0
794.101	0.25
794.274	0.07
794.448	0.32
794.622	-0.23
794.795	0.28
794.969	-0.07
795.142	0.23
795.316	0.05
795.489	-0.16
795.663	0.6
795.836	0.09
796.009	0.08
796.183	0.36
796.356	0.25
796.53	0.12
796.703	0.1
796.876	0.28
797.05	0.23
797.223	0.11
797.396	-0.12
797.57	0.05
797.743	0.46
797.916	0.01
798.09	-0.09
798.263	0.3
798.436	0.33
798.609	0.08
798.782	0.21
798.956	0.18
799.129	0.12
799.302	0.16
799.475	-0.12
799.648	0.1
799.821	-0.38
799.994	0.07
800.167	-0.18
800.34	0.1
800.514	-0.01
800.687	0.1
800.86	-0.09
801.033	-0.05
801.206	0.2
801.379	-0.16
801.551	0.44
801.724	0.31
801.897	0.46
802.07	0.01
802.243	-0.38
802.416	0.04
802.589	-0.14
802.762	0.01
802.935	0.04
803.107	0.02
803.28	0.59
803.453	-0.07
803.626	-0.07
803.798	-0.02
803.971	0.07
804.144	0.29
804.317	0.1
804.489	0.19
804.662	0.03
804.835	0.32
805.007	-0.43
805.18	0.59
805.353	0.3
805.525	-0.24
805.698	-0.31
805.87	0.03
806.043	0.3
806.215	-0.08
806.388	-0.22
806.56	0.24
806.733	0.54
806.905	0.4
807.078	-0.2
807.25	-0.26
807.423	0.56
807.595	0.1
807.768	0.32
807.94	0.41
808.112	0.32
808.285	0.17
808.457	0.08
808.629	-0
808.802	-0.04
808.974	-0.26
809.146	0.08
809.318	0.09
809.491	0.38
809.663	0.54
809.835	-0.21
810.007	0.24
810.18	-0.09
810.352	-0.12
810.524	-0.12
810.696	-0.12
810.868	0.73
811.04	0.21
811.212	-0.23
811.384	0.09
811.556	0.05
811.728	0.08
811.901	0.63
812.073	0
812.245	0.32
812.417	-0.14
812.589	-0.45
812.76	0.3
812.932	-0.02
813.104	0.4
813.276	0.09
813.448	0.33
813.62	-0.11
813.792	0.32
813.964	0.16
814.136	0.14
814.307	-0.14
814.479	-0.14
814.651	-0.02
814.823	0.87
814.995	0.08
815.166	0.09
815.338	-0.07
815.51	-0.32
815.681	1.01
815.853	-0.14
816.025	0.07
816.196	0.77
816.368	0.46
816.54	-0.05
816.711	-0.5
816.883	0.23
817.054	0.92
817.226	-0.45
817.398	0.45
817.569	-0.1
817.741	0.21
817.912	-0.28
818.084	-0.18
818.255	0.71
818.426	0.06
818.598	0.23
818.769	-0.46
818.941	0.71
819.112	0.51
819.283	0.66
819.455	-0.33
819.626	0.17
819.798	0.34
819.969	0.22
820.14	0.21
820.311	-0.32
820.483	0.31
820.654	-0.42
820.825	-0.03
820.996	0.12
821.168	-0.47
821.339	0
821.51	-0.19
821.681	-0.23
821.852	0.01
822.023	-0.23
822.195	-0.34
822.366	0.16
822.537	0.3
822.708	-0.15
822.879	-0.37
823.05	0.75
823.221	-0.25
823.392	0.02
823.563	0.16
823.734	0.07
823.905	-0.08
824.076	0.15
824.247	-0.44
824.418	-0.22
824.589	0.84
824.759	0.05
824.93	0.07
825.101	-0.15
825.272	0.22
825.443	0.72
825.614	0.58
825.784	-0.01
825.955	0.05
826.126	0.46
826.297	0.07
826.467	0.63
826.638	0.88
826.809	-0.97
826.98	-0.01
827.15	0.12
827.321	0.04
827.492	0.67
827.662	0.12
827.833	0.51
828.003	0.34
828.174	-0.23
828.345	-0.55
828.515	0.86
828.686	0.35
828.856	-0.35
829.027	-0.01
829.197	0.31
829.368	0.25
829.538	-0.23
829.709	-0.43
829.879	-0.13
830.049	0.75
830.22	-0.09
830.39	0.4
830.56	-0.09
830.731	-0.28
830.901	-0.21
831.072	0.4
831.242	0.06
831.412	-0.11
831.582	0.28
831.753	-0.21
831.923	0.63
832.093	-0.32
832.263	0.36
832.434	-0.25
832.604	0.18
832.774	0.08
832.944	0.12
833.114	-0.23
833.284	0.31
833.454	0.04
833.624	-0.28
833.795	-0.56
833.965	1.22
834.135	0.65
834.305	-0.48
834.475	-0.35
834.645	0.02
834.815	-0.62
834.985	-0.37
835.155	-0.4
835.325	1.08
835.494	0.31
835.664	-0.37
835.834	-0.68
836.004	0.16
836.174	-0.13
836.344	0.32
836.514	-0.16
836.684	-0.31
836.853	0.68
837.023	0.29
837.193	-0.28
837.363	1
837.532	0.44
837.702	0.66
837.872	-0.52
838.041	0.57
838.211	1.42
838.381	-0.59
838.55	0.48
838.72	1.5
838.89	1.45
839.059	0.29
839.229	-0.68
839.398	0.84
839.568	-0.45
839.738	0.13
839.907	0.97
840.077	0.42
840.246	-0.94
840.416	-0.4
840.585	-0.22
840.755	0.96
840.924	1.48
841.093	-0.81
841.263	-0.31
841.432	-0.01
841.602	-0.4
841.771	-0.55
841.94	0.49
842.11	1.17
842.279	1.6
842.448	-0.78
842.617	-0.85
842.787	1.25
842.956	-0.09
843.125	-0.02
843.294	-0.22
843.464	1.1
843.633	-0.07
843.802	-0.6
843.971	0.77
844.14	1.15
844.309	0.27
844.479	-0.37
844.648	0.22
844.817	-0.95
844.986	-0.58
845.155	-0.02
845.324	0.57
845.493	0.48
845.662	0.17
845.831	0.69
846	0.11
846.169	-0.06
846.338	0.8
846.507	0.5
846.676	0.79
846.844	-0.28
847.013	0.13
847.182	0.41
847.351	-0.15
847.52	0.11
847.689	0.45
847.858	0.29
848.026	-0.58
848.195	-0.71
848.364	-0.39
848.533	0.41
848.701	-0.06
848.87	0.9
849.039	0.31
849.207	1.59
849.376	1.08
849.545	1.39
849.713	0.06
849.882	-0.5
850.051	-0.36
850.219	0.35
850.388	0.76
850.556	-0.67
850.725	-0.62
850.893	-0.08
851.062	0.72
851.23	0.26
851.399	-0.65
851.567	-0.38
851.736	-1.04
851.904	-1.39
852.073	-0.08
852.241	0.96
852.41	0.52
852.578	-0.44
852.746	-0.25
852.915	0.7
853.083	0.02
853.251	-0.21
853.42	0.24
853.588	0.05
853.756	1.5
853.924	0.2
854.093	0.77
854.261	0.06
854.429	-1.17
854.597	0.84
854.765	-0.33
854.934	0.12
855.102	0.79
855.27	0.56
855.438	1.26
855.606	1.27
855.774	1.67
855.942	-0.62
856.11	-1.47
856.278	0.03
856.446	1.47
856.614	0.24
856.782	-0.49
856.95	1.02
857.118	1.44
857.286	0.71
857.454	-0.8
857.622	0.95
857.79	0.01
857.958	-0.71
858.126	-0.44
858.294	-1.62
858.462	-0.51
858.629	-0.17
858.797	-0.76
858.965	-0.38
859.133	-0.04
859.301	0.06
859.468	-0.13
859.636	-0.5
859.804	1.12
859.971	1.82
860.139	-0
860.307	0.61
860.474	-0.12
860.642	-0.95
860.81	1.07
860.977	-0.67
861.145	1.04
861.313	-0.82
861.48	-0.65
861.648	1.3
861.815	-0.82
861.983	-2.12
862.15	-0.27
862.318	1.28
862.485	0.89
862.653	-0.34
862.82	0.84
862.988	1.11
863.155	1.83
863.322	-0.98
863.49	-1.17
863.657	-0.23
863.824	0.85
863.992	1.01
864.159	0.3
864.326	1.42
864.494	-1.42
864.661	4.12
864.828	-1.04
864.996	1.38
865.163	1.94
865.33	-0.71
865.497	-1.16
865.664	0.42
865.832	-1.12
865.999	0.69
866.166	-1.12
866.333	-0.31
866.5	0.72
866.667	-0.86
866.834	0.13
867.001	2.79
867.168	-1.25
867.335	1.27
867.502	-0.13
867.669	1.35
867.836	1.56
868.003	0.49
868.17	1.4
868.337	-1.71
868.504	2.29
868.671	-1.12
868.838	-0.7
869.005	2.18
869.172	1.59
869.339	0.92
869.505	0.46
869.672	0.5
869.839	1.93
870.006	0.44
870.173	-1.69
870.339	1.97
870.506	3.82
870.673	0.05
870.84	2.03
871.006	0.4
871.173	0.7
871.34	1.87
871.506	-0.11
871.673	0.39
871.839	-1.39
872.006	0.15
872.173	0.15
872.339	-0.63
872.506	2.52
872.672	0.18
872.839	-1.2
873.005	0.31
873.172	1.83
873.338	0.3
873.505	0.23
873.671	-0.86
873.838	1.47
874.004	-1.8
874.171	-0.79
874.337	2.16
874.503	0.45
874.67	0.29
874.836	0.4
875.002	2.35
875.169	1.63
875.335	-0.56
875.501	0.14
875.668	-0.39
875.834	-0.13
876	0.09
876.166	1.48
876.332	1.11
876.499	3.46
876.665	-1.11
876.831	2.13
876.997	2.38
877.163	0.82
877.329	-0.64
877.495	2.03
877.662	0.95
877.828	0.35
877.994	-0.02
878.16	-2.59
878.326	1.49
878.492	0.87
878.658	0.74
878.824	-0.09
878.99	1.8
879.156	-0.82
879.322	2.69
879.487	-0.17
879.653	0.43
879.819	-1.4
879.985	-0.88
880.151	0.43
880.317	1.72
880.483	0.05
880.648	0.41
880.814	-1.72
880.98	0.6
881.146	-1.75
881.312	-0.73
881.477	0.79
881.643	0.9
881.809	3.2
881.974	2.89
882.14	-0.38
882.306	1.73
882.471	3.58
882.637	1.13
882.803	2.73
882.968	2.34
883.134	0.63
883.299	1.59
883.465	-0.62
883.63	0.22
883.796	0.89
883.961	2.16
884.127	0.15
884.292	-4.99
884.458	-0.89
884.623	-0.89
