Data from Apollo_Calib_20240827__AbsoluteIrradiance__340__04-49-03-187.txt Node

Date: Wed Aug 28 04:49:03 BST 2024
User: biology
Spectrometer: FLMT08252
Trigger mode: 0
Integration Time (sec): 5.000000E-1
Scans to average: 5
Electric dark correction enabled: true
Nonlinearity correction enabled: false
Boxcar width: 0
XAxis mode: Wavelengths
Number of Pixels in Spectrum: 3648
>>>>>Begin Spectral Data<<<<<
179.588	-0
179.809	-0
180.03	-0
180.251	-0
180.473	-0
180.694	0
180.915	0
181.136	-0
181.357	0
181.578	-0
181.799	-0
182.02	-0
182.241	0
182.462	-0
182.683	0
182.904	-0
183.125	-0
183.346	0
183.567	0
183.788	-0
184.009	-0
184.23	0
184.451	0
184.672	-0
184.892	-0
185.113	-0
185.334	0
185.555	-0
185.776	-0
185.996	0
186.217	0
186.438	0
186.659	-0
186.879	0
187.1	0
187.321	-0
187.541	-0
187.762	0
187.983	0
188.203	0
188.424	0
188.644	0
188.865	0
189.086	0
189.306	-0
189.527	-0
189.747	0
189.968	-0
190.188	0
190.409	0
190.629	0
190.849	-0
191.07	0
191.29	0
191.511	0
191.731	-0
191.951	-0
192.172	0
192.392	-0
192.612	0
192.833	0
193.053	0
193.273	0
193.493	0
193.714	0
193.934	0
194.154	0
194.374	0
194.594	0
194.815	0
195.035	0
195.255	0
195.475	-0
195.695	0
195.915	0
196.135	-0
196.355	0
196.575	0
196.795	0
197.015	-0
197.235	0
197.455	0
197.675	0
197.895	-0
198.115	-0
198.335	0
198.555	0
198.775	0
198.995	0
199.214	0
199.434	0
199.654	-0
199.874	0
200.094	1.52
200.313	0.05
200.533	-0.76
200.753	-0.65
200.973	1
201.192	0.51
201.412	-0.68
201.632	-0.2
201.851	1
202.071	0.05
202.291	0.02
202.51	-0.33
202.73	0.66
202.95	-0.15
203.169	-0.51
203.389	0.33
203.608	0.63
203.828	-0.3
204.047	-0.17
204.267	0.59
204.486	0.37
204.706	0.66
204.925	0.26
205.145	0.11
205.364	0.63
205.583	0.64
205.803	0.13
206.022	-0.01
206.242	0.22
206.461	0.31
206.68	-0.06
206.9	0.37
207.119	1.1
207.338	0.88
207.557	0.22
207.777	0.26
207.996	0.11
208.215	0.63
208.434	-0.08
208.654	-0.27
208.873	0.35
209.092	0.78
209.311	0.37
209.53	0.13
209.749	-0.08
209.968	-0.06
210.187	-0.07
210.407	-0.21
210.626	-0.1
210.845	0.57
211.064	0.22
211.283	-0.18
211.502	0.2
211.721	0.49
211.94	-0.12
212.159	0.33
212.377	0.24
212.596	0.42
212.815	0.08
213.034	0.27
213.253	0.62
213.472	0.3
213.691	-0.2
213.91	-0.1
214.128	0.06
214.347	0.73
214.566	-0.44
214.785	-0.3
215.003	0.35
215.222	0.15
215.441	-0.05
215.66	-0.39
215.878	0.16
216.097	0.43
216.316	0.05
216.534	0.02
216.753	0.05
216.972	0.07
217.19	0.14
217.409	-0.04
217.627	-0.13
217.846	0.02
218.064	0.04
218.283	-0.01
218.501	0.69
218.72	0.33
218.938	-0.32
219.157	-0.01
219.375	0.31
219.594	0.15
219.812	-0.09
220.031	-0.11
220.249	0.51
220.467	0.42
220.686	-0.08
220.904	-0.12
221.122	-0.1
221.341	0.34
221.559	0.19
221.777	-0.19
221.995	0.19
222.214	0.3
222.432	-0.06
222.65	0.18
222.868	0.3
223.086	0.12
223.305	0.04
223.523	0.02
223.741	0.49
223.959	0
224.177	-0.12
224.395	-0
224.613	0.17
224.831	0.18
225.049	-0.16
225.267	0.04
225.485	0.17
225.703	-0.09
225.921	0.1
226.139	-0.02
226.357	0.22
226.575	0.25
226.793	0.08
227.011	0.59
227.229	0.14
227.447	0.31
227.665	-0.02
227.883	-0.11
228.1	0
228.318	0.2
228.536	-0.23
228.754	-0.01
228.972	0.21
229.189	0.19
229.407	0.07
229.625	0.04
229.843	0.24
230.06	0.27
230.278	-0
230.496	0.12
230.713	0.11
230.931	0.29
231.149	0.14
231.366	-0.11
231.584	0.04
231.801	0.35
232.019	0.01
232.236	0.09
232.454	0
232.671	0.16
232.889	0.01
233.106	0
233.324	0.21
233.541	0.07
233.759	0.06
233.976	-0.1
234.194	0.07
234.411	0.06
234.628	-0.1
234.846	0.03
235.063	0.06
235.28	0.06
235.498	0.06
235.715	-0.04
235.932	0.3
236.149	0.16
236.367	-0.07
236.584	0.13
236.801	0.01
237.018	0.14
237.236	0.15
237.453	-0.11
237.67	0.25
237.887	0.1
238.104	0.06
238.321	-0.07
238.538	-0.02
238.755	0.19
238.973	-0.09
239.19	0.01
239.407	0.14
239.624	0.09
239.841	-0.08
240.058	0
240.275	0.11
240.492	0.08
240.709	0.06
240.925	0.06
241.142	0.01
241.359	-0.06
241.576	-0.05
241.793	0.05
242.01	0.12
242.227	0.25
242.444	0.14
242.66	0.13
242.877	0.07
243.094	0.01
243.311	0.11
243.527	0.02
243.744	0.07
243.961	0.1
244.178	0.05
244.394	-0.01
244.611	0.22
244.828	0.35
245.044	-0.03
245.261	0.1
245.477	0.05
245.694	0.16
245.911	0
246.127	0.12
246.344	0.27
246.56	0.12
246.777	0.01
246.993	0.12
247.21	0.07
247.426	0.07
247.643	0.03
247.859	0.06
248.076	0.06
248.292	0.2
248.508	0.05
248.725	0.15
248.941	0.12
249.157	0.1
249.374	0.08
249.59	0.08
249.806	0.11
250.023	0.25
250.239	-0
250.455	0.02
250.671	0.01
250.888	0.17
251.104	0.15
251.32	0.07
251.536	0.01
251.752	0.04
251.969	0.13
252.185	0.1
252.401	0.19
252.617	0.18
252.833	0.02
253.049	0.04
253.265	0.09
253.481	0.08
253.697	-0.02
253.913	0.03
254.129	0.07
254.345	0.15
254.561	-0.01
254.777	0.1
254.993	0.21
255.209	0.12
255.425	-0.03
255.641	-0
255.857	0.12
256.073	0.15
256.288	0.03
256.504	0.06
256.72	0.16
256.936	0.22
257.152	0.13
257.367	-0.01
257.583	0.1
257.799	0.15
258.015	-0.05
258.23	0.03
258.446	0.2
258.662	0.05
258.877	-0.01
259.093	0.02
259.309	0.07
259.524	0.09
259.74	0.04
259.955	-0.04
260.171	0.13
260.387	0.07
260.602	0.06
260.818	0.12
261.033	0.06
261.249	0.06
261.464	0.04
261.68	-0.04
261.895	0.12
262.11	0.14
262.326	0.03
262.541	-0.01
262.757	0.04
262.972	0.14
263.187	0.1
263.403	0.04
263.618	0.14
263.833	0.08
264.049	-0
264.264	0.03
264.479	0.15
264.694	0.23
264.91	-0.04
265.125	0.06
265.34	0.18
265.555	0.25
265.77	0.07
265.986	0.01
266.201	0.09
266.416	0.19
266.631	0.02
266.846	0.03
267.061	0.1
267.276	0.11
267.491	-0.06
267.706	0.07
267.921	0.11
268.136	0.02
268.351	0.05
268.566	-0.03
268.781	0.21
268.996	0.21
269.211	0.09
269.426	0.03
269.641	0.04
269.856	0.12
270.071	0.03
270.285	-0.01
270.5	0.17
270.715	0.11
270.93	0.06
271.145	0.11
271.359	0.13
271.574	0.1
271.789	0.06
272.004	0.03
272.218	0.03
272.433	0.16
272.648	0.01
272.862	0.14
273.077	0.07
273.292	0.1
273.506	0.07
273.721	0.03
273.936	0.15
274.15	0.2
274.365	-0
274.579	0.09
274.794	0.12
275.008	0.16
275.223	-0.06
275.437	0.04
275.652	0.13
275.866	0.12
276.081	0.07
276.295	0.16
276.509	0.1
276.724	0.1
276.938	0.08
277.153	0.05
277.367	0.07
277.581	0.07
277.796	0.04
278.01	-0.01
278.224	0.12
278.438	0.18
278.653	-0.03
278.867	0.06
279.081	0.16
279.295	0.02
279.51	0.12
279.724	-0.04
279.938	0.13
280.152	0.07
280.366	0
280.58	0.06
280.794	0.15
281.008	0.08
281.222	0.17
281.437	0.18
281.651	0.12
281.865	0.16
282.079	0.09
282.293	-0.02
282.507	-0.01
282.721	0.08
282.935	0.07
283.148	-0.06
283.362	0.02
283.576	0.03
283.79	0.01
284.004	0.05
284.218	0.15
284.432	0.08
284.646	0.06
284.859	0.01
285.073	0.05
285.287	0.11
285.501	0.06
285.714	0.05
285.928	0.06
286.142	0.07
286.356	0.07
286.569	0.04
286.783	0.17
286.997	0.09
287.21	0.11
287.424	0.09
287.637	0.03
287.851	0.04
288.065	0.11
288.278	0
288.492	0.08
288.705	0.06
288.919	0.11
289.132	-0.01
289.346	0.14
289.559	-0.01
289.773	-0.02
289.986	0.05
290.2	0.07
290.413	0.1
290.626	0.04
290.84	0.05
291.053	0.05
291.267	0.17
291.48	0.06
291.693	0.06
291.906	0.03
292.12	0.02
292.333	-0
292.546	0.04
292.76	0.13
292.973	0.11
293.186	0.11
293.399	0.04
293.612	0.1
293.826	0.06
294.039	0.08
294.252	0.06
294.465	0.05
294.678	0.09
294.891	0.11
295.104	0.01
295.317	0.06
295.53	0.07
295.743	0.03
295.956	0.07
296.169	0.13
296.382	0.11
296.595	0.07
296.808	0.03
297.021	0.12
297.234	0.14
297.447	0.04
297.66	0.11
297.873	0.15
298.086	0.07
298.299	0.02
298.511	0.03
298.724	0.03
298.937	0.01
299.15	-0
299.363	0.08
299.575	0.11
299.788	0.1
300.001	0.04
300.213	-0.02
300.426	0.06
300.639	0.03
300.852	0.03
301.064	0.07
301.277	0.13
301.489	0.16
301.702	0.09
301.915	0.06
302.127	0.05
302.34	0.11
302.552	0.1
302.765	0.05
302.977	0.11
303.19	0.06
303.402	0.08
303.615	0.04
303.827	0.08
304.04	0.08
304.252	0.09
304.464	0.06
304.677	0.19
304.889	0.14
305.102	0.04
305.314	0.02
305.526	0.14
305.739	0.1
305.951	-0.01
306.163	0.07
306.375	0.17
306.588	0.02
306.8	0.06
307.012	0.02
307.224	0.07
307.436	0.08
307.649	0.02
307.861	0.06
308.073	0.15
308.285	0.04
308.497	0.04
308.709	0.02
308.921	0.09
309.133	0.09
309.346	0.06
309.558	0.08
309.77	0.1
309.982	0.17
310.194	0.08
310.406	0.07
310.617	0.15
310.829	0.07
311.041	0.08
311.253	-0
311.465	0.05
311.677	0.03
311.889	0.08
312.101	0.01
312.313	0.12
312.524	0.1
312.736	0.02
312.948	0.07
313.16	0.14
313.372	0.08
313.583	0.04
313.795	0.07
314.007	0.07
314.218	0.11
314.43	0.09
314.642	0.05
314.853	-0.01
315.065	0.13
315.277	0.06
315.488	0.07
315.7	0.06
315.912	0.1
316.123	0.08
316.335	0.06
316.546	0.17
316.758	0.07
316.969	0.03
317.181	0.09
317.392	0.07
317.604	0.11
317.815	0.04
318.026	0.05
318.238	0.07
318.449	0.1
318.661	-0.03
318.872	0.02
319.083	0.05
319.295	0.08
319.506	0.02
319.717	0.06
319.929	0.06
320.14	0.02
320.351	0.07
320.562	0.03
320.774	0.09
320.985	0.11
321.196	0.02
321.407	0.01
321.618	0.12
321.829	0.09
322.041	0.06
322.252	0.08
322.463	0.09
322.674	0.08
322.885	0.01
323.096	0.05
323.307	0.09
323.518	0.09
323.729	0.04
323.94	0.06
324.151	0.02
324.362	0.11
324.573	0.06
324.784	0.01
324.995	0.11
325.206	0.08
325.417	0.02
325.628	0.08
325.838	0.06
326.049	0.07
326.26	0.12
326.471	0.05
326.682	0.09
326.892	0.09
327.103	-0.01
327.314	0.01
327.525	0.13
327.735	0.04
327.946	0.06
328.157	0.03
328.368	0.1
328.578	0.02
328.789	0.11
328.999	0.06
329.21	0.05
329.421	0.07
329.631	0
329.842	0.03
330.052	0.07
330.263	0.08
330.473	0.08
330.684	0.02
330.894	0.05
331.105	0.07
331.315	0.07
331.526	0.02
331.736	0.1
331.947	0.1
332.157	0.08
332.367	0.05
332.578	0.09
332.788	0.14
332.999	0.07
333.209	0.06
333.419	0.03
333.629	0.07
333.84	0.14
334.05	0.11
334.26	0.14
334.47	0.06
334.681	0.08
334.891	0.04
335.101	0.08
335.311	0.14
335.521	0.08
335.732	-0.01
335.942	0.14
336.152	0.14
336.362	0.08
336.572	0.08
336.782	0.1
336.992	0.04
337.202	0.05
337.412	0.06
337.622	0.11
337.832	0.09
338.042	0.06
338.252	0.04
338.462	0.06
338.672	0.09
338.882	0.03
339.092	0.04
339.302	0.14
339.511	0.08
339.721	0.03
339.931	0.03
340.141	0.09
340.351	0.13
340.561	0.13
340.77	0.07
340.98	0.07
341.19	0.07
341.4	0.04
341.609	0.01
341.819	0.11
342.029	0.02
342.238	0.1
342.448	0.02
342.658	0.07
342.867	0.06
343.077	0.07
343.286	0.11
343.496	0.07
343.706	0.13
343.915	0.02
344.125	0.07
344.334	0.08
344.544	-0
344.753	0.03
344.963	0.07
345.172	0.06
345.381	0.04
345.591	-0.01
345.8	0.05
346.01	0.12
346.219	0.1
346.428	-0.05
346.638	0.05
346.847	0.06
347.056	0.14
347.266	0.03
347.475	0.08
347.684	0.1
347.893	0.13
348.103	0.09
348.312	0.06
348.521	0.06
348.73	0.07
348.94	0.08
349.149	0.05
349.358	0.06
349.567	0.05
349.776	0.03
349.985	0.02
350.194	0.1
350.403	0.12
350.612	0.03
350.821	0.05
351.03	0.09
351.239	0.02
351.448	0.03
351.657	0.05
351.866	0.14
352.075	0.08
352.284	0.12
352.493	0.05
352.702	0.12
352.911	0.12
353.12	0.1
353.329	0.02
353.538	0.07
353.746	0.1
353.955	0.04
354.164	0.06
354.373	0.04
354.582	0.05
354.79	0.07
354.999	0.13
355.208	0.02
355.416	0.14
355.625	-0.01
355.834	0.07
356.042	0.1
356.251	0.05
356.46	0.02
356.668	0.05
356.877	0.17
357.085	0.13
357.294	-0.03
357.503	0.09
357.711	0.07
357.92	0.2
358.128	0.06
358.337	0.05
358.545	0.09
358.754	0.06
358.962	0.09
359.17	0.04
359.379	0.06
359.587	0.08
359.796	0.03
360.004	0.14
360.212	0.13
360.421	0.12
360.629	0.01
360.837	0.09
361.046	0.08
361.254	0.21
361.462	0.06
361.67	0.05
361.879	0.08
362.087	0.09
362.295	0.08
362.503	0.04
362.711	0.04
362.92	0.04
363.128	0.05
363.336	0.02
363.544	0.07
363.752	0.04
363.96	0.05
364.168	0.04
364.376	0.08
364.584	0.07
364.792	0.11
365	0.07
365.208	0.07
365.416	0.11
365.624	0.11
365.832	0.08
366.04	0.14
366.248	0.08
366.456	0.1
366.664	0.06
366.872	0.06
367.079	0.05
367.287	0.04
367.495	0.11
367.703	0.05
367.911	0.06
368.118	0.11
368.326	0.07
368.534	0.04
368.742	0.09
368.949	0.01
369.157	0.04
369.365	0.07
369.572	0.04
369.78	0.04
369.988	0.13
370.195	0.06
370.403	0.1
370.61	0.03
370.818	0.1
371.026	0.1
371.233	0.01
371.441	0.07
371.648	0.04
371.856	0.07
372.063	0.11
372.271	0.05
372.478	0.07
372.685	0.07
372.893	0.11
373.1	0.05
373.308	0.02
373.515	0.11
373.722	0.07
373.93	0.07
374.137	0.09
374.344	0.16
374.552	0.12
374.759	0.07
374.966	0.06
375.173	0.03
375.381	0.12
375.588	0.05
375.795	-0.01
376.002	0.06
376.209	0.01
376.417	0.09
376.624	0.09
376.831	0.08
377.038	0.04
377.245	-0.01
377.452	0.08
377.659	0.03
377.866	0.05
378.073	0.08
378.28	0.08
378.487	0.11
378.694	0.1
378.901	0.03
379.108	0.06
379.315	0.08
379.522	0.11
379.729	0.05
379.936	0.07
380.143	0.11
380.35	0.1
380.557	0.05
380.763	0.07
380.97	0.07
381.177	0.08
381.384	0.11
381.591	0.07
381.797	0.11
382.004	0.09
382.211	0.13
382.418	0.09
382.624	0.11
382.831	0.12
383.038	0.07
383.244	0.07
383.451	0.08
383.658	0.11
383.864	0.06
384.071	0.06
384.277	0.12
384.484	0.07
384.69	0.14
384.897	0.06
385.103	0.03
385.31	0.02
385.516	0.08
385.723	0.06
385.929	0.08
386.136	0.07
386.342	0.1
386.549	0.07
386.755	0.11
386.961	0.09
387.168	0.05
387.374	0.1
387.58	0.13
387.787	0.1
387.993	0.08
388.199	0.06
388.406	0.1
388.612	0.04
388.818	0.03
389.024	0.06
389.231	0.13
389.437	0.15
389.643	0.11
389.849	0.07
390.055	0.1
390.261	0.07
390.467	0.1
390.674	0.03
390.88	0.09
391.086	0.13
391.292	0.03
391.498	0.1
391.704	0.11
391.91	0.1
392.116	0.05
392.322	-0
392.528	0.13
392.734	0.08
392.94	0.08
393.146	0.09
393.352	0.08
393.557	0.07
393.763	0.06
393.969	0.09
394.175	0.12
394.381	0.09
394.587	0.05
394.792	0.07
394.998	0.13
395.204	0.11
395.41	0.05
395.615	0.13
395.821	0.08
396.027	0.11
396.233	0.07
396.438	0.07
396.644	0.19
396.85	0.11
397.055	0.06
397.261	0.14
397.466	0.19
397.672	0.1
397.878	0.14
398.083	0.12
398.289	0.05
398.494	0.16
398.7	0.12
398.905	0.03
399.111	0.14
399.316	0.06
399.522	0.06
399.727	0.1
399.932	0.1
400.138	0.09
400.343	0.14
400.549	0.13
400.754	0.1
400.959	0.14
401.165	0.12
401.37	0.11
401.575	0.06
401.78	0.13
401.986	0.05
402.191	0.08
402.396	0.1
402.601	0.11
402.807	0.18
403.012	0.13
403.217	0.15
403.422	0.1
403.627	0.13
403.832	0.1
404.037	0.16
404.243	0.16
404.448	0.06
404.653	0.11
404.858	0.15
405.063	0.17
405.268	0.09
405.473	0.08
405.678	0.1
405.883	0.29
406.088	0.16
406.293	0.1
406.498	0.14
406.703	0.17
406.907	0.17
407.112	0.11
407.317	0.15
407.522	0.17
407.727	0.07
407.932	0.18
408.136	0.2
408.341	0.19
408.546	0.19
408.751	0.17
408.956	0.15
409.16	0.23
409.365	0.15
409.57	0.13
409.774	0.17
409.979	0.28
410.184	0.17
410.388	0.13
410.593	0.23
410.798	0.24
411.002	0.22
411.207	0.23
411.411	0.19
411.616	0.2
411.82	0.22
412.025	0.25
412.229	0.24
412.434	0.34
412.638	0.26
412.843	0.24
413.047	0.27
413.252	0.26
413.456	0.27
413.66	0.38
413.865	0.27
414.069	0.34
414.273	0.29
414.478	0.31
414.682	0.32
414.886	0.36
415.091	0.33
415.295	0.31
415.499	0.46
415.703	0.42
415.908	0.47
416.112	0.32
416.316	0.5
416.52	0.49
416.724	0.42
416.929	0.44
417.133	0.6
417.337	0.5
417.541	0.5
417.745	0.57
417.949	0.65
418.153	0.6
418.357	0.59
418.561	0.82
418.765	0.66
418.969	0.83
419.173	0.78
419.377	0.77
419.581	0.99
419.785	0.86
419.989	0.84
420.193	0.91
420.397	1
420.601	1.04
420.804	1.08
421.008	1.14
421.212	1.13
421.416	1.15
421.62	1.23
421.823	1.22
422.027	1.36
422.231	1.3
422.435	1.28
422.638	1.36
422.842	1.44
423.046	1.44
423.249	1.55
423.453	1.61
423.657	1.62
423.86	1.69
424.064	1.8
424.268	1.87
424.471	1.82
424.675	2.01
424.878	2.07
425.082	2.05
425.285	2.22
425.489	2.22
425.692	2.24
425.896	2.29
426.099	2.46
426.303	2.54
426.506	2.56
426.71	2.75
426.913	2.92
427.116	2.92
427.32	2.98
427.523	3.04
427.726	3.29
427.93	3.21
428.133	3.46
428.336	3.5
428.54	3.59
428.743	3.77
428.946	4
429.149	3.98
429.353	4.06
429.556	4.09
429.759	4.1
429.962	4.19
430.165	4.29
430.368	4.1
430.571	4.21
430.775	4.24
430.978	4.25
431.181	4.29
431.384	4.36
431.587	4.43
431.79	4.71
431.993	4.66
432.196	4.87
432.399	5.06
432.602	5.22
432.805	5.22
433.008	5.62
433.211	5.54
433.414	5.8
433.616	5.79
433.819	5.79
434.022	5.89
434.225	5.99
434.428	6.07
434.631	6.39
434.833	6.27
435.036	6.42
435.239	6.6
435.442	6.59
435.645	6.76
435.847	6.85
436.05	7.12
436.253	7.31
436.455	7.34
436.658	7.32
436.861	7.54
437.063	7.66
437.266	7.73
437.468	8.01
437.671	8.33
437.874	8.38
438.076	8.28
438.279	8.77
438.481	8.75
438.684	9.49
438.886	9.26
439.089	9.53
439.291	9.65
439.494	10.05
439.696	10.12
439.899	10.77
440.101	11.12
440.303	11.33
440.506	11.93
440.708	11.96
440.91	12.29
441.113	12.58
441.315	12.88
441.517	12.85
441.72	13.33
441.922	13.15
442.124	13.47
442.326	13.81
442.529	14.04
442.731	14.29
442.933	14.81
443.135	14.66
443.337	14.89
443.539	15.61
443.742	15.36
443.944	16.14
444.146	15.93
444.348	16.17
444.55	16.14
444.752	16.6
444.954	16.63
445.156	16.87
445.358	17.3
445.56	17.74
445.762	17.76
445.964	18.22
446.166	18.14
446.368	18.28
446.57	18.33
446.772	18.22
446.974	18.1
447.175	18.55
447.377	18.33
447.579	18.92
447.781	18.63
447.983	18.44
448.184	18.21
448.386	18.63
448.588	18.29
448.79	18.3
448.991	18.61
449.193	18.79
449.395	18.13
449.597	17.7
449.798	17.59
450	17.16
450.202	17.18
450.403	17.09
450.605	17.09
450.806	16.7
451.008	16.47
451.21	16.31
451.411	15.73
451.613	14.87
451.814	15.25
452.016	15.04
452.217	14.28
452.419	14.31
452.62	13.89
452.821	13.78
453.023	13.43
453.224	13.11
453.426	12.44
453.627	11.8
453.828	11.77
454.03	11.83
454.231	11.75
454.432	11.37
454.634	11.16
454.835	10.92
455.036	10.79
455.238	10.36
455.439	10.03
455.64	9.71
455.841	9.53
456.042	9.49
456.244	9.28
456.445	8.89
456.646	8.68
456.847	8.47
457.048	8.46
457.249	8.44
457.45	8.21
457.651	7.66
457.852	7.45
458.054	7.13
458.255	7.12
458.456	7.13
458.657	7.02
458.858	6.56
459.058	6.4
459.259	6.5
459.46	6.27
459.661	6.21
459.862	6.11
460.063	6.13
460.264	5.87
460.465	5.68
460.666	5.71
460.866	5.5
461.067	5.23
461.268	5.2
461.469	5.18
461.67	5.04
461.87	4.89
462.071	4.8
462.272	4.74
462.473	4.69
462.673	4.87
462.874	4.72
463.075	4.68
463.275	4.68
463.476	4.65
463.676	4.67
463.877	4.37
464.078	4.4
464.278	4.35
464.479	4.32
464.679	4.08
464.88	4.03
465.08	3.97
465.281	3.83
465.481	3.65
465.682	3.48
465.882	3.44
466.083	3.32
466.283	3.29
466.483	3.12
466.684	2.97
466.884	2.89
467.085	2.84
467.285	2.85
467.485	2.78
467.686	2.7
467.886	2.54
468.086	2.52
468.286	2.44
468.487	2.53
468.687	2.3
468.887	2.25
469.087	2.32
469.287	2.24
469.488	2.07
469.688	2.17
469.888	2.12
470.088	2.09
470.288	2
470.488	1.93
470.688	1.81
470.888	1.81
471.088	1.67
471.288	1.77
471.488	1.67
471.688	1.68
471.888	1.57
472.088	1.64
472.288	1.57
472.488	1.46
472.688	1.38
472.888	1.41
473.088	1.38
473.288	1.36
473.488	1.3
473.688	1.46
473.887	1.29
474.087	1.24
474.287	1.22
474.487	1.2
474.687	1.19
474.886	1.15
475.086	1.07
475.286	1.11
475.486	1.09
475.685	1.08
475.885	0.97
476.085	1.04
476.284	1.02
476.484	0.98
476.684	0.94
476.883	0.99
477.083	0.94
477.282	0.81
477.482	0.91
477.681	0.9
477.881	0.82
478.08	0.82
478.28	0.77
478.479	0.81
478.679	0.84
478.878	0.74
479.078	0.7
479.277	0.74
479.477	0.67
479.676	0.71
479.875	0.65
480.075	0.6
480.274	0.67
480.473	0.69
480.673	0.59
480.872	0.68
481.071	0.61
481.271	0.6
481.47	0.59
481.669	0.57
481.868	0.53
482.067	0.52
482.267	0.51
482.466	0.49
482.665	0.48
482.864	0.44
483.063	0.45
483.262	0.48
483.461	0.51
483.661	0.5
483.86	0.46
484.059	0.46
484.258	0.43
484.457	0.4
484.656	0.41
484.855	0.45
485.054	0.33
485.253	0.33
485.452	0.34
485.651	0.36
485.849	0.36
486.048	0.3
486.247	0.32
486.446	0.32
486.645	0.29
486.844	0.32
487.043	0.27
487.241	0.32
487.44	0.28
487.639	0.3
487.838	0.27
488.037	0.28
488.235	0.33
488.434	0.27
488.633	0.21
488.831	0.29
489.03	0.27
489.229	0.24
489.427	0.26
489.626	0.25
489.825	0.25
490.023	0.25
490.222	0.19
490.42	0.22
490.619	0.23
490.817	0.19
491.016	0.19
491.214	0.23
491.413	0.2
491.611	0.18
491.81	0.19
492.008	0.2
492.207	0.23
492.405	0.18
492.604	0.12
492.802	0.16
493	0.16
493.199	0.15
493.397	0.18
493.595	0.15
493.794	0.12
493.992	0.2
494.19	0.17
494.388	0.18
494.587	0.15
494.785	0.15
494.983	0.1
495.181	0.15
495.379	0.16
495.578	0.11
495.776	0.14
495.974	0.12
496.172	0.11
496.37	0.1
496.568	0.11
496.766	0.09
496.964	0.17
497.162	0.14
497.36	0.1
497.558	0.14
497.756	0.14
497.954	0.12
498.152	0.08
498.35	0.11
498.548	0.1
498.746	0.11
498.944	0.06
499.142	0.07
499.34	0.08
499.538	0.08
499.736	0.06
499.933	0.13
500.131	0.12
500.329	0.1
500.527	0.13
500.725	0.15
500.922	0.12
501.12	0.11
501.318	0.09
501.516	0.08
501.713	0.12
501.911	0.08
502.109	0.05
502.306	0.07
502.504	0.08
502.701	0.05
502.899	0.09
503.097	0.13
503.294	0.11
503.492	0.08
503.689	0.1
503.887	0.09
504.084	0.12
504.282	0.08
504.479	0.05
504.677	0.07
504.874	0.04
505.072	0.07
505.269	0.07
505.466	0.09
505.664	0.08
505.861	0.05
506.059	0.05
506.256	0.09
506.453	0.05
506.651	0.12
506.848	0.1
507.045	0.07
507.242	0.06
507.44	0.05
507.637	0.08
507.834	0.07
508.031	0.09
508.229	0.03
508.426	0.04
508.623	0.08
508.82	0.04
509.017	0.03
509.214	0.06
509.411	0.05
509.608	0.03
509.805	0.07
510.003	0.04
510.2	0.05
510.397	0.1
510.594	0.02
510.791	0.03
510.988	0.05
511.184	0.08
511.381	0.07
511.578	0.02
511.775	0.07
511.972	0.05
512.169	0.05
512.366	0.04
512.563	0.06
512.76	0.04
512.956	0.05
513.153	0.03
513.35	0.08
513.547	0.04
513.744	0.02
513.94	0.02
514.137	0.05
514.334	0.05
514.53	0.05
514.727	0.06
514.924	0.12
515.12	0.05
515.317	0.02
515.514	0.02
515.71	0.02
515.907	0.05
516.103	0.05
516.3	0.06
516.497	0.05
516.693	0.08
516.89	0.05
517.086	0.03
517.283	0.1
517.479	0.05
517.676	0.06
517.872	0.04
518.068	0.02
518.265	0.05
518.461	0.02
518.658	0.02
518.854	0.06
519.05	0.02
519.247	-0
519.443	0.07
519.639	0.06
519.836	0.06
520.032	0.05
520.228	0.04
520.424	0.07
520.621	0.06
520.817	0.02
521.013	0.05
521.209	0.05
521.405	0.08
521.601	0.04
521.798	0.03
521.994	0.1
522.19	0.02
522.386	0.02
522.582	0.05
522.778	0.07
522.974	0.04
523.17	0.04
523.366	0.05
523.562	0.08
523.758	0.02
523.954	0.03
524.15	0.03
524.346	0.06
524.542	-0
524.738	0.02
524.934	0.03
525.129	0.02
525.325	0.05
525.521	0.05
525.717	0.06
525.913	0.04
526.109	0.03
526.304	0.01
526.5	0.05
526.696	0.05
526.892	0.04
527.087	0.02
527.283	0.04
527.479	0.06
527.674	0.03
527.87	0.02
528.066	0.04
528.261	0.06
528.457	0.03
528.653	0.02
528.848	0.03
529.044	0.03
529.239	0.04
529.435	0.05
529.63	0.04
529.826	0.09
530.021	0.04
530.217	0.03
530.412	0.03
530.608	0.02
530.803	0.03
530.999	0.02
531.194	-0.02
531.389	0.05
531.585	0
531.78	0.03
531.975	0.01
532.171	0.05
532.366	0.05
532.561	0.03
532.757	-0
532.952	0.03
533.147	0.05
533.342	0.02
533.538	0.03
533.733	0.08
533.928	0.04
534.123	0.02
534.318	0
534.513	0.03
534.709	0.04
534.904	0.02
535.099	0.01
535.294	0.04
535.489	0.05
535.684	0.04
535.879	0.01
536.074	0.05
536.269	-0
536.464	0.04
536.659	0.04
536.854	0.03
537.049	0.03
537.244	0.04
537.439	0.04
537.634	0.07
537.828	0.03
538.023	0.01
538.218	-0
538.413	0.01
538.608	-0
538.803	0.06
538.997	-0
539.192	0.05
539.387	0.07
539.582	0.04
539.776	0.02
539.971	0.03
540.166	0.02
540.36	-0.01
540.555	0.04
540.75	0.01
540.944	0.03
541.139	-0.01
541.334	0.03
541.528	0.04
541.723	0.06
541.917	0.02
542.112	0.01
542.306	0.02
542.501	0.01
542.695	0.03
542.89	0
543.084	0.02
543.279	0.03
543.473	0.04
543.668	0.03
543.862	0
544.056	0.03
544.251	0.03
544.445	0.05
544.64	0.01
544.834	-0
545.028	0.05
545.222	0.03
545.417	0.06
545.611	0.04
545.805	0.03
546	0.03
546.194	0.03
546.388	0.02
546.582	0.03
546.776	0.03
546.97	0.05
547.165	0.05
547.359	0.05
547.553	0.02
547.747	0.03
547.941	0.02
548.135	0.02
548.329	0.05
548.523	0.03
548.717	0.02
548.911	0.01
549.105	0.03
549.299	0.03
549.493	0.05
549.687	0.03
549.881	0.03
550.075	0.03
550.269	-0.01
550.463	0.06
550.657	0
550.85	0.04
551.044	0.02
551.238	0.04
551.432	0
551.626	-0.01
551.82	0.02
552.013	0
552.207	0.03
552.401	0.05
552.594	0.04
552.788	-0
552.982	0.05
553.176	-0.01
553.369	0.05
553.563	0.06
553.756	-0.02
553.95	0
554.144	0.03
554.337	0.03
554.531	0.02
554.724	0.03
554.918	-0
555.111	0.06
555.305	0.03
555.498	0.07
555.692	0.05
555.885	0.04
556.079	0.04
556.272	0.01
556.466	0.05
556.659	0.02
556.852	0.01
557.046	0.01
557.239	0.06
557.432	0
557.626	0.01
557.819	0.03
558.012	0.05
558.206	0.06
558.399	0.02
558.592	0.04
558.785	0.01
558.979	0.03
559.172	0.03
559.365	0.05
559.558	0.04
559.751	0.02
559.944	0.06
560.138	0
560.331	0.03
560.524	0.03
560.717	0.03
560.91	0.01
561.103	0.03
561.296	0.01
561.489	0.02
561.682	0.03
561.875	0.07
562.068	0.04
562.261	0.03
562.454	0.09
562.647	0.05
562.84	0.03
563.032	0.01
563.225	0.05
563.418	0.03
563.611	-0.01
563.804	0.03
563.997	-0.01
564.19	-0.01
564.382	0.06
564.575	0.03
564.768	0
564.961	0.02
565.153	0
565.346	0.06
565.539	0.06
565.731	0.04
565.924	0.05
566.117	0.05
566.309	0.01
566.502	0.02
566.695	0.02
566.887	0.04
567.08	0.02
567.272	0.02
567.465	-0.01
567.657	0.04
567.85	0.05
568.042	0.05
568.235	0.06
568.427	0.02
568.62	0.03
568.812	0.05
569.005	0.03
569.197	-0.02
569.389	0.02
569.582	0.06
569.774	0.03
569.966	-0.01
570.159	-0
570.351	0.03
570.543	0.01
570.736	0.03
570.928	-0.01
571.12	0.03
571.312	-0
571.505	-0.02
571.697	0.06
571.889	-0.02
572.081	0
572.273	0.01
572.465	0.06
572.658	0.03
572.85	0.02
573.042	0.02
573.234	0.01
573.426	0.05
573.618	-0.03
573.81	0.04
574.002	0.05
574.194	0.05
574.386	-0.04
574.578	-0.06
574.77	0.01
574.962	0
575.154	-0.01
575.346	0.01
575.538	0.04
575.729	0.01
575.921	0.02
576.113	0.01
576.305	0.05
576.497	0.04
576.689	0.02
576.88	-0.01
577.072	0.09
577.264	0.01
577.456	0.02
577.647	-0.06
577.839	0.02
578.031	0.07
578.223	-0.01
578.414	0.01
578.606	0.03
578.798	-0
578.989	-0.02
579.181	0.02
579.372	0.03
579.564	0.01
579.755	0.03
579.947	0.03
580.139	0.03
580.33	-0.04
580.522	-0.01
580.713	-0.04
580.905	0
581.096	0.04
581.287	0.01
581.479	0.02
581.67	0.05
581.862	0.02
582.053	0
582.244	-0.05
582.436	0.01
582.627	0.02
582.818	0
583.01	-0.01
583.201	0.04
583.392	0.04
583.583	-0.01
583.775	0
583.966	0.01
584.157	0.01
584.348	-0
584.54	-0.02
584.731	0.05
584.922	0
585.113	-0.01
585.304	0.03
585.495	0.08
585.686	0.02
585.877	0.02
586.068	0.02
586.259	0.03
586.45	0.03
586.641	0.01
586.832	-0.04
587.023	-0
587.214	0.02
587.405	0.02
587.596	-0.01
587.787	0.05
587.978	0.03
588.169	0.02
588.36	-0
588.551	0.03
588.742	0.02
588.932	0.03
589.123	-0
589.314	0.06
589.505	0.01
589.696	0.02
589.886	-0.02
590.077	-0.02
590.268	0.02
590.458	-0.02
590.649	-0.04
590.84	0.05
591.03	0.01
591.221	-0.04
591.412	-0.02
591.602	0.05
591.793	0.06
591.984	0.02
592.174	-0.01
592.365	0.08
592.555	-0.03
592.746	0.01
592.936	0.02
593.127	0.04
593.317	0.05
593.508	-0.01
593.698	-0.01
593.889	0.01
594.079	0.02
594.269	-0.02
594.46	0
594.65	0.02
594.84	0
595.031	-0.01
595.221	0.02
595.411	-0.04
595.602	0.05
595.792	0.02
595.982	-0
596.172	0.06
596.363	0.03
596.553	0.03
596.743	0.03
596.933	0
597.123	0.05
597.314	-0.03
597.504	-0.01
597.694	0.07
597.884	0.04
598.074	-0.01
598.264	-0.04
598.454	0.01
598.644	0.01
598.834	0
599.024	-0.05
599.214	0.03
599.404	0.04
599.594	-0
599.784	-0.01
599.974	0.08
600.164	0.02
600.354	-0.01
600.544	-0.04
600.734	0.03
600.924	0.07
601.114	0.01
601.303	0.01
601.493	0.03
601.683	0.03
601.873	0
602.063	-0.03
602.252	0.08
602.442	-0.04
602.632	0
602.821	-0.03
603.011	0.06
603.201	0.02
603.39	-0.01
603.58	0.02
603.77	0.02
603.959	0.04
604.149	0.02
604.339	-0
604.528	0.04
604.718	0.05
604.907	0.02
605.097	-0.01
605.286	-0.02
605.476	0.04
605.665	0.03
605.855	0
606.044	0.08
606.234	0.02
606.423	-0.02
606.612	-0.01
606.802	0.02
606.991	0.04
607.181	0.03
607.37	-0.05
607.559	0.03
607.749	-0.01
607.938	0
608.127	0.01
608.316	-0.01
608.506	0.02
608.695	0.02
608.884	-0.01
609.073	0.02
609.263	0.04
609.452	0.02
609.641	0.03
609.83	0.01
610.019	0.01
610.208	0.01
610.397	-0.02
610.586	0.04
610.775	-0.01
610.965	0
611.154	-0.02
611.343	0.05
611.532	0
611.721	-0.01
611.91	0.02
612.099	0.04
612.287	0
612.476	-0.01
612.665	0.01
612.854	0
613.043	0.05
613.232	0.01
613.421	-0.01
613.61	0.03
613.798	0.01
613.987	0.04
614.176	0.01
614.365	0.04
614.554	0.02
614.742	0.03
614.931	-0.03
615.12	0.04
615.309	0.02
615.497	0
615.686	-0.01
615.875	0.02
616.063	0.04
616.252	-0.01
616.44	0.01
616.629	0.03
616.818	0.08
617.006	0
617.195	0
617.383	0.04
617.572	0.01
617.76	0.01
617.949	0.02
618.137	0.04
618.326	0.04
618.514	-0.01
618.703	0
618.891	0.07
619.079	-0.05
619.268	0.03
619.456	-0.01
619.644	0.04
619.833	0.02
620.021	0.01
620.209	-0.02
620.398	0.03
620.586	0.02
620.774	0.03
620.962	0.02
621.151	0.05
621.339	0.02
621.527	-0.04
621.715	-0.01
621.903	-0.02
622.092	-0.02
622.28	0.05
622.468	0.03
622.656	-0.02
622.844	0.02
623.032	0.01
623.22	-0.05
623.408	0.05
623.596	0.02
623.784	0.02
623.972	-0.02
624.16	0.02
624.348	0.09
624.536	0
624.724	-0.01
624.912	0.05
625.1	0.05
625.288	0.02
625.476	-0.01
625.664	0.05
625.851	-0.02
626.039	0.03
626.227	0.01
626.415	0
626.603	-0.07
626.79	0.02
626.978	-0.01
627.166	0.04
627.354	0.03
627.541	-0.01
627.729	-0.04
627.917	0.03
628.104	0.06
628.292	0.02
628.48	-0.02
628.667	0.01
628.855	0.01
629.042	0.03
629.23	-0.02
629.418	0.01
629.605	-0.01
629.793	0.01
629.98	-0
630.168	0
630.355	0.04
630.543	0.04
630.73	0.01
630.917	0.06
631.105	0.09
631.292	-0.02
631.48	0.01
631.667	0.11
631.854	0.01
632.042	-0.02
632.229	-0.06
632.416	0.01
632.604	0
632.791	0
632.978	0.03
633.165	0.03
633.353	0.05
633.54	0.03
633.727	-0.05
633.914	0.02
634.101	-0.01
634.289	0.03
634.476	-0.02
634.663	-0.04
634.85	0.05
635.037	-0.01
635.224	-0.05
635.411	0.04
635.598	0.05
635.785	0
635.972	0
636.159	0.06
636.346	-0.01
636.533	-0.02
636.72	0.02
636.907	0
637.094	0.02
637.281	0.01
637.468	0.04
637.655	-0.02
637.842	0
638.029	-0.02
638.215	0.07
638.402	0
638.589	-0
638.776	-0.01
638.963	-0.02
639.149	0.05
639.336	0.07
639.523	0.01
639.709	0.05
639.896	-0.02
640.083	0.08
640.27	0.01
640.456	-0.01
640.643	0.02
640.829	-0.03
641.016	0.02
641.203	-0.02
641.389	0.03
641.576	0.05
641.762	0.04
641.949	-0.05
642.135	-0
642.322	0.01
642.508	-0.04
642.695	-0.01
642.881	-0.03
643.068	-0.01
643.254	-0
643.441	0.03
643.627	-0.01
643.813	-0.01
644	0.04
644.186	-0.03
644.372	0.03
644.559	0.05
644.745	0.03
644.931	-0
645.118	-0
645.304	-0
645.49	-0.03
645.676	-0.03
645.862	0.03
646.049	0.09
646.235	0.02
646.421	0.06
646.607	0.09
646.793	-0.02
646.979	-0.01
647.165	0.02
647.352	0.02
647.538	0.05
647.724	0.01
647.91	0.02
648.096	0.06
648.282	0.04
648.468	0
648.654	0
648.84	0.06
649.026	0.01
649.212	0.01
649.397	-0.05
649.583	-0
649.769	0.03
649.955	0.03
650.141	0.04
650.327	0.06
650.513	-0.02
650.698	0.03
650.884	-0.05
651.07	0.01
651.256	0.01
651.442	-0.02
651.627	-0.01
651.813	0.06
651.999	-0.01
652.184	0.03
652.37	-0.02
652.556	-0.03
652.741	0.1
652.927	-0.08
653.113	0.02
653.298	0.03
653.484	-0
653.669	-0.06
653.855	-0.01
654.04	0.05
654.226	0.02
654.412	-0.02
654.597	-0.02
654.782	0.03
654.968	0.05
655.153	0
655.339	-0.02
655.524	-0.01
655.71	0.05
655.895	-0.02
656.08	0.01
656.266	0.04
656.451	0.03
656.636	-0.01
656.822	0.04
657.007	0.01
657.192	-0.01
657.378	-0.02
657.563	0.02
657.748	0.05
657.933	0.06
658.118	0
658.304	-0.02
658.489	0.03
658.674	0.01
658.859	0.01
659.044	0.02
659.229	0.01
659.414	-0
659.599	-0
659.785	-0.02
659.97	-0.04
660.155	0.05
660.34	0.04
660.525	-0.02
660.71	-0
660.895	0.04
661.08	0.01
661.264	0.01
661.449	0.07
661.634	0.04
661.819	-0
662.004	0.04
662.189	-0.05
662.374	-0.01
662.559	-0.04
662.743	-0.06
662.928	0.01
663.113	0.01
663.298	-0.05
663.483	0.02
663.667	0.01
663.852	-0.03
664.037	0.02
664.221	-0.02
664.406	0.04
664.591	0.02
664.775	0.04
664.96	-0.03
665.145	0.03
665.329	0.07
665.514	-0.01
665.698	-0
665.883	-0.03
666.068	0.1
666.252	0.04
666.437	-0.02
666.621	0.03
666.806	0.05
666.99	0.02
667.174	-0.03
667.359	0.09
667.543	-0.03
667.728	0.01
667.912	-0.07
668.096	0.02
668.281	-0.03
668.465	0
668.649	-0.01
668.834	-0.04
669.018	0.02
669.202	-0.02
669.387	-0.03
669.571	0.03
669.755	-0.1
669.939	-0.03
670.124	-0.03
670.308	0.1
670.492	0.05
670.676	0
670.86	-0.02
671.044	-0.05
671.228	0.05
671.413	-0.01
671.597	-0.03
671.781	-0.04
671.965	0.04
672.149	0.01
672.333	-0.02
672.517	0.01
672.701	0.06
672.885	0.01
673.069	-0.04
673.253	0.06
673.437	0.02
673.621	-0.04
673.804	0.02
673.988	-0
674.172	-0.01
674.356	-0.04
674.54	0.02
674.724	0.1
674.908	0.01
675.091	0.07
675.275	0.04
675.459	0.05
675.643	0.06
675.826	0.02
676.01	0.03
676.194	0.01
676.377	0.04
676.561	0.06
676.745	-0
676.928	0.05
677.112	0.08
677.296	-0.01
677.479	0
677.663	-0
677.846	0
678.03	0.01
678.213	-0
678.397	0.06
678.58	0.03
678.764	0.01
678.947	-0
679.131	0.01
679.314	0.06
679.498	-0.02
679.681	0.03
679.865	0.07
680.048	-0.02
680.231	0.01
680.415	0.05
680.598	-0
680.781	-0.01
680.965	-0.01
681.148	0.04
681.331	-0.03
681.514	0.04
681.698	-0.03
681.881	0.02
682.064	0.01
682.247	0.06
682.43	-0.09
682.614	0.01
682.797	0.07
682.98	0.05
683.163	-0.05
683.346	0.03
683.529	-0.01
683.712	-0
683.895	0.07
684.078	-0.06
684.261	0.01
684.444	0.02
684.627	0.06
684.81	-0.03
684.993	0.02
685.176	0.06
685.359	0.02
685.542	-0
685.725	0.03
685.908	0.01
686.091	0.01
686.274	0.06
686.457	0.06
686.639	-0.01
686.822	0.02
687.005	-0.04
687.188	0.06
687.371	0.1
687.553	0.06
687.736	0.05
687.919	0.13
688.102	0.1
688.284	-0.03
688.467	0.04
688.65	0
688.832	0
689.015	-0.03
689.197	-0.07
689.38	0.09
689.563	0.14
689.745	0
689.928	0.02
690.11	0.02
690.293	0.03
690.475	-0.07
690.658	0.04
690.84	0.05
691.023	0
691.205	-0.04
691.388	0
691.57	0.03
691.752	0.08
691.935	-0.04
692.117	-0.02
692.3	0.05
692.482	0.03
692.664	0.03
692.847	0.07
693.029	0.1
693.211	0.05
693.393	-0.01
693.576	-0.07
693.758	0.04
693.94	0.01
694.122	0.02
694.304	-0.01
694.487	-0
694.669	0.08
694.851	-0.06
695.033	0.01
695.215	-0.01
695.397	-0.02
695.579	0.04
695.761	-0.02
695.943	-0.09
696.125	0.09
696.308	0.01
696.49	-0.04
696.671	0.17
696.853	0.03
697.035	0.09
697.217	0.01
697.399	0.06
697.581	-0.03
697.763	-0.02
697.945	-0.01
698.127	0.03
698.309	0.12
698.491	0.04
698.672	0.05
698.854	0.05
699.036	0.13
699.218	0.02
699.399	0.06
699.581	0.07
699.763	0.02
699.945	-0.01
700.126	-0.04
700.308	0.04
700.49	-0.04
700.671	-0.08
700.853	0
701.035	-0.02
701.216	0.02
701.398	-0
701.579	0.01
701.761	0.02
701.943	-0.02
702.124	0.04
702.306	0.04
702.487	0.1
702.669	-0.01
702.85	0.01
703.031	-0.05
703.213	0.12
703.394	0.01
703.576	-0.03
703.757	0.11
703.938	0.11
704.12	0.2
704.301	0.02
704.483	-0.04
704.664	0.1
704.845	0.15
705.026	0.06
705.208	-0.01
705.389	0.02
705.57	-0.02
705.751	-0.02
705.933	0.04
706.114	0.11
706.295	0.02
706.476	0.01
706.657	0.1
706.838	0.05
707.02	0.1
707.201	0.03
707.382	-0.03
707.563	0.09
707.744	-0.05
707.925	-0.04
708.106	-0.04
708.287	0.01
708.468	0.1
708.649	0.02
708.83	0.08
709.011	-0.04
709.192	-0.01
709.373	-0.08
709.554	0.03
709.734	0.08
709.915	0.1
710.096	0.09
710.277	-0.15
710.458	0.06
710.639	0.04
710.819	-0.04
711	-0.03
711.181	-0.02
711.362	0.08
711.542	-0.02
711.723	0.02
711.904	0.11
712.085	0.03
712.265	0.04
712.446	-0
712.627	-0.02
712.807	-0
712.988	0.01
713.168	-0.01
713.349	0.06
713.53	-0.07
713.71	0.02
713.891	-0.04
714.071	0.01
714.252	-0.01
714.432	-0.02
714.613	-0.08
714.793	0.02
714.974	0.13
715.154	0.12
715.334	0.13
715.515	0.13
715.695	-0.11
715.876	0.05
716.056	0.02
716.236	-0.03
716.417	-0.02
716.597	-0.04
716.777	0.12
716.957	-0.02
717.138	-0.02
717.318	0.02
717.498	-0.11
717.678	-0
717.859	0.05
718.039	-0.06
718.219	0.06
718.399	0.05
718.579	0.02
718.759	-0.02
718.939	0.03
719.12	0.05
719.3	0.07
719.48	-0.1
719.66	-0.14
719.84	0.19
720.02	0.06
720.2	0.01
720.38	0
720.56	0.13
720.74	-0.04
720.92	0.08
721.1	0.1
721.279	0.12
721.459	0.02
721.639	-0.05
721.819	0.07
721.999	0.04
722.179	0.08
722.359	-0.08
722.538	0.03
722.718	0.04
722.898	-0.07
723.078	-0.02
723.257	-0.09
723.437	0.03
723.617	0.01
723.797	-0.04
723.976	0.09
724.156	0.06
724.336	0.11
724.515	0.16
724.695	-0.12
724.874	0.01
725.054	0.12
725.234	-0.03
725.413	-0.01
725.593	-0.02
725.772	0.04
725.952	0.01
726.131	-0.06
726.311	-0
726.49	-0.03
726.67	-0.05
726.849	-0.11
727.028	0.09
727.208	0.06
727.387	-0.01
727.567	-0.11
727.746	0.06
727.925	-0.05
728.105	-0.12
728.284	-0.02
728.463	-0
728.643	0.08
728.822	-0.13
729.001	0.01
729.18	0.09
729.359	0.07
729.539	0
729.718	-0.01
729.897	0.09
730.076	0.04
730.255	-0.15
730.434	0.06
730.614	0.11
730.793	0.06
730.972	0.05
731.151	0.08
731.33	0.06
731.509	0.09
731.688	0.06
731.867	0.01
732.046	-0.14
732.225	0.25
732.404	-0.09
732.583	-0.05
732.762	0.06
732.941	0.13
733.12	0.09
733.298	-0.03
733.477	0.19
733.656	0.04
733.835	-0.09
734.014	0.08
734.193	-0.05
734.371	0.02
734.55	0.13
734.729	-0.12
734.908	0.07
735.086	0.08
735.265	0.04
735.444	-0.17
735.623	-0.06
735.801	-0.07
735.98	-0.06
736.159	0.07
736.337	0.06
736.516	0.09
736.694	0.11
736.873	-0.02
737.052	0.24
737.23	0.13
737.409	-0.04
737.587	0.18
737.766	-0.16
737.944	-0.06
738.123	0.1
738.301	0.09
738.479	0.01
738.658	0.05
738.836	-0.14
739.015	0.1
739.193	0.06
739.371	-0.06
739.55	-0
739.728	-0.13
739.906	0.15
740.085	0.18
740.263	0.08
740.441	-0.26
740.62	0.18
740.798	0.2
740.976	-0.01
741.154	0.04
741.332	0.13
741.511	-0.12
741.689	0.13
741.867	0.12
742.045	0.12
742.223	0.11
742.401	0.04
742.579	-0.12
742.757	-0.06
742.935	0.03
743.114	-0.02
743.292	-0.04
743.47	0.01
743.648	0.05
743.826	0.12
744.004	0.11
744.181	0.09
744.359	0.03
744.537	0.08
744.715	0.06
744.893	0.04
745.071	-0.01
745.249	0.04
745.427	-0
745.605	0.11
745.782	0.03
745.96	0.11
746.138	0.02
746.316	0.16
746.493	-0.07
746.671	0.03
746.849	0.12
747.027	0.13
747.204	0.03
747.382	0.09
747.56	-0.01
747.737	-0.03
747.915	-0.05
748.093	-0
748.27	-0.04
748.448	-0.01
748.625	-0.1
748.803	-0.06
748.98	0.01
749.158	0.08
749.335	0.2
749.513	-0.02
749.69	-0
749.868	-0.01
750.045	0.15
750.223	0.01
750.4	-0.12
750.578	0.13
750.755	0.03
750.932	-0.18
751.11	0.18
751.287	-0.19
751.464	0.13
751.642	-0.01
751.819	0.04
751.996	0.08
752.173	0.04
752.351	-0.12
752.528	0
752.705	0.04
752.882	-0.04
753.06	0
753.237	0.13
753.414	0.21
753.591	0.15
753.768	0.1
753.945	0.02
754.122	0.07
754.299	0.06
754.476	-0.05
754.654	-0.02
754.831	0.19
755.008	0.03
755.185	0.01
755.362	-0.11
755.539	0.02
755.716	-0.01
755.892	0.04
756.069	-0
756.246	0.12
756.423	-0.05
756.6	0.23
756.777	0.02
756.954	0.18
757.131	-0.06
757.307	-0.03
757.484	-0.23
757.661	0.06
757.838	0
758.015	-0.05
758.191	0.15
758.368	0.04
758.545	0.19
758.721	0.05
758.898	-0.02
759.075	0.04
759.251	0.09
759.428	0.08
759.605	-0.07
759.781	0.07
759.958	0.08
760.134	0.11
760.311	0.02
760.488	0.14
760.664	0.08
760.841	0.06
761.017	-0.17
761.194	0.03
761.37	0.22
761.547	-0.07
761.723	0.08
761.899	0.15
762.076	-0.08
762.252	-0.05
762.429	-0.02
762.605	0.1
762.781	0.08
762.958	0.14
763.134	0.01
763.31	-0.17
763.486	0.22
763.663	-0.09
763.839	0.03
764.015	-0.2
764.191	-0.06
764.368	-0.09
764.544	-0.04
764.72	0.06
764.896	0.11
765.072	0.14
765.248	-0
765.425	-0.02
765.601	0.15
765.777	0.09
765.953	-0.25
766.129	-0.04
766.305	-0.13
766.481	0.15
766.657	0.11
766.833	0.15
767.009	-0.07
767.185	-0.03
767.361	-0.04
767.537	-0.07
767.713	0.27
767.889	-0.14
768.065	0.01
768.24	0.07
768.416	0.11
768.592	-0.08
768.768	0.02
768.944	0.17
769.12	-0.11
769.295	-0.13
769.471	0.03
769.647	-0.02
769.823	0.29
769.998	-0.01
770.174	-0.01
770.35	0.28
770.525	0.28
770.701	0
770.877	-0.03
771.052	0
771.228	0.08
771.403	-0.06
771.579	0.05
771.755	0.28
771.93	-0.03
772.106	-0.14
772.281	-0.2
772.457	-0.03
772.632	0.02
772.808	-0.12
772.983	-0.04
773.159	-0.19
773.334	0.13
773.509	-0.08
773.685	-0.08
773.86	0.37
774.036	0.17
774.211	0.06
774.386	-0.1
774.562	-0.07
774.737	0.03
774.912	-0.15
775.087	0.04
775.263	0.18
775.438	0.1
775.613	-0.06
775.788	-0.1
775.964	0.18
776.139	0.48
776.314	-0.18
776.489	0.06
776.664	0.02
776.839	-0.06
777.014	0.24
777.19	0.04
777.365	0.18
777.54	0.25
777.715	0.13
777.89	0.15
778.065	-0.19
778.24	0.07
778.415	0.33
778.59	-0.17
778.765	-0.01
778.94	-0.04
779.115	-0.12
779.289	-0.1
779.464	0.02
779.639	-0.05
779.814	-0.12
779.989	-0.13
780.164	0.3
780.339	0.19
780.513	-0.13
780.688	-0.22
780.863	0.07
781.038	0.28
781.212	-0.1
781.387	0.01
781.562	0.32
781.737	-0.15
781.911	0.23
782.086	-0.18
782.261	0.05
782.435	0.19
782.61	0.01
782.784	0.1
782.959	0.37
783.134	-0.16
783.308	-0.32
783.483	0.04
783.657	0.6
783.832	0.15
784.006	-0.4
784.181	-0.07
784.355	0.22
784.53	-0.33
784.704	-0.2
784.878	0.11
785.053	0.09
785.227	0.28
785.402	0.63
785.576	-0.28
785.75	0.02
785.925	-0.18
786.099	-0.1
786.273	-0.07
786.448	0.18
786.622	0.1
786.796	-0.04
786.97	-0.1
787.145	0.6
787.319	-0.13
787.493	0.03
787.667	-0.36
787.841	0.18
788.015	0.02
788.19	-0.02
788.364	0.08
788.538	0.15
788.712	0.25
788.886	-0.17
789.06	0.16
789.234	0.25
789.408	-0.29
789.582	-0.03
789.756	-0.07
789.93	0.17
790.104	-0.07
790.278	0.06
790.452	-0.12
790.626	0.39
790.8	-0.07
790.973	0.13
791.147	0.03
791.321	0.29
791.495	0.35
791.669	0.09
791.843	0.19
792.016	-0.15
792.19	0.51
792.364	-0.27
792.538	0.48
792.711	0.37
792.885	-0.15
793.059	-0.31
793.233	-0.15
793.406	0.23
793.58	0.09
793.754	0.08
793.927	-0.06
794.101	0.43
794.274	-0.03
794.448	0.12
794.622	-0.26
794.795	0.28
794.969	-0.16
795.142	0.17
795.316	-0
795.489	-0.02
795.663	0.57
795.836	-0.23
796.009	-0.11
796.183	0.37
796.356	0.18
796.53	0.24
796.703	-0.04
796.876	0.42
797.05	-0.09
797.223	-0.31
797.396	0.22
797.57	0.33
797.743	0.14
797.916	-0.05
798.09	0.05
798.263	0.54
798.436	0.09
798.609	-0.3
798.782	-0.07
798.956	0.37
799.129	-0
799.302	-0.07
799.475	0.06
799.648	-0.02
799.821	0.12
799.994	0.09
800.167	-0.48
800.34	-0.06
800.514	0.12
800.687	-0.2
800.86	-0.09
801.033	0.06
801.206	0.2
801.379	-0.15
801.551	0.38
801.724	0.11
801.897	0.29
802.07	0.07
802.243	-0.24
802.416	0.13
802.589	-0.12
802.762	0.39
802.935	0.12
803.107	0.26
803.28	0.51
803.453	0.25
803.626	-0.36
803.798	-0.07
803.971	-0.14
804.144	0.16
804.317	0.01
804.489	0.2
804.662	0.27
804.835	0.11
805.007	-0.41
805.18	0.41
805.353	0.18
805.525	-0.02
805.698	-0.1
805.87	0.28
806.043	0.54
806.215	-0.3
806.388	-0.18
806.56	0.39
806.733	0.32
806.905	0
807.078	-0.18
807.25	-0.09
807.423	0.19
807.595	-0.09
807.768	0.12
807.94	0.34
808.112	0.25
808.285	0.08
808.457	-0.15
808.629	0.2
808.802	0.21
808.974	0.07
809.146	-0.04
809.318	-0.11
809.491	0.06
809.663	0.21
809.835	-0.33
810.007	0.13
810.18	-0.09
810.352	-0.41
810.524	-0.29
810.696	0.08
810.868	0.37
811.04	0.17
811.212	0.01
811.384	0.57
811.556	0.21
811.728	-0.25
811.901	0.74
812.073	0.01
812.245	0.69
812.417	0.24
812.589	-0.31
812.76	0.28
812.932	0.31
813.104	0.47
813.276	0.15
813.448	0.88
813.62	0.29
813.792	0.21
813.964	0.36
814.136	0.27
814.307	0.02
814.479	-0.03
814.651	-0.24
814.823	1.04
814.995	0.07
815.166	-0.23
815.338	-0.37
815.51	-0.22
815.681	0.56
815.853	-0.39
816.025	-0.34
816.196	0.76
816.368	0.07
816.54	-0.57
816.711	-0.42
816.883	0.38
817.054	1.31
817.226	-0.58
817.398	0.19
817.569	-0.15
817.741	-0.04
817.912	0.32
818.084	-0.2
818.255	0.09
818.426	-0.11
818.598	-0.25
818.769	-0.29
818.941	0.41
819.112	0.52
819.283	0.24
819.455	-0.48
819.626	-0.05
819.798	0.66
819.969	0.35
820.14	-0.09
820.311	-0.32
820.483	-0.01
820.654	0.35
820.825	-0.08
820.996	-0.27
821.168	-0.09
821.339	-0.09
821.51	-0.25
821.681	-0.5
821.852	0.28
822.023	-0.3
822.195	-0.43
822.366	0.48
822.537	0.4
822.708	-0.29
822.879	0.02
823.05	0.35
823.221	0.12
823.392	0.43
823.563	-0.08
823.734	0.6
823.905	0.01
824.076	-0.08
824.247	-0.8
824.418	-0.1
824.589	0.6
824.759	-0.27
824.93	-0.16
825.101	-0.4
825.272	0.85
825.443	-0.2
825.614	-0.02
825.784	-1.07
825.955	0.92
826.126	0.47
826.297	-0.71
826.467	0.94
826.638	1.11
826.809	-1.23
826.98	-0.05
827.15	-0.21
827.321	0.01
827.492	0.29
827.662	0.51
827.833	1.13
828.003	0.71
828.174	-0.56
828.345	-0.45
828.515	0.53
828.686	0.7
828.856	-0.11
829.027	0.31
829.197	0.5
829.368	0.7
829.538	-0.42
829.709	0.2
829.879	0.34
830.049	-0.16
830.22	0.05
830.39	0.24
830.56	0.69
830.731	0.06
830.901	-0.6
831.072	0.09
831.242	0.26
831.412	0.21
831.582	-0.02
831.753	-0.5
831.923	0.63
832.093	0.33
832.263	-0.11
832.434	-0.34
832.604	-0.35
832.774	0.78
832.944	0.28
833.114	0.33
833.284	0.79
833.454	-0.37
833.624	-0.31
833.795	-0.03
833.965	1.41
834.135	1.09
834.305	-1.81
834.475	-0.39
834.645	0.32
834.815	0.64
834.985	-0.7
835.155	0.38
835.325	0.56
835.494	-0.26
835.664	0.08
835.834	-0.85
836.004	0.36
836.174	-0.06
836.344	-0.23
836.514	-1.05
836.684	-0.18
836.853	0.1
837.023	0.26
837.193	-0.27
837.363	0.94
837.532	1.2
837.702	0.02
837.872	-0.42
838.041	0.95
838.211	1.36
838.381	-0.42
838.55	-0.11
838.72	1.86
838.89	0.58
839.059	-0.13
839.229	-0.21
839.398	1.81
839.568	0.67
839.738	-0.82
839.907	0.9
840.077	0.56
840.246	-0.61
840.416	-0.69
840.585	-0.84
840.755	1.12
840.924	1.57
841.093	-0.34
841.263	-0.11
841.432	0.47
841.602	-0.35
841.771	-0.93
841.94	0.38
842.11	2.03
842.279	0.92
842.448	-0.41
842.617	-0.15
842.787	1.33
842.956	-0.72
843.125	-1.15
843.294	0.49
843.464	0.89
843.633	0.1
843.802	-1.15
843.971	-0.31
844.14	0.32
844.309	0.78
844.479	-0.44
844.648	-1.6
844.817	-0.28
844.986	-0.09
845.155	-0.07
845.324	0.04
845.493	-0.66
845.662	0.04
845.831	-0.36
846	0.42
846.169	-0.71
846.338	0.63
846.507	0.47
846.676	0.28
846.844	-0.47
847.013	0.77
847.182	0.36
847.351	-0.71
847.52	-0.52
847.689	0.32
847.858	-0.08
848.026	-0.76
848.195	0.09
848.364	0.06
848.533	-0.46
848.701	-1.38
848.87	1.02
849.039	1.4
849.207	0.51
849.376	1.08
849.545	0.99
849.713	-0.53
849.882	-0.18
850.051	-0.41
850.219	0.44
850.388	0.99
850.556	-0.38
850.725	-0.87
850.893	0.49
851.062	0.2
851.23	0.56
851.399	-1.13
851.567	0.35
851.736	0.3
851.904	-0.65
852.073	0.53
852.241	0.66
852.41	0.42
852.578	0.16
852.746	-0.59
852.915	0.85
853.083	-0.12
853.251	-0.98
853.42	-0.6
853.588	-0.27
853.756	1.7
853.924	0.98
854.093	-0.47
854.261	-0.07
854.429	-0.81
854.597	0.58
854.765	-0.46
854.934	0.63
855.102	2.16
855.27	-0.02
855.438	1.41
855.606	0.75
855.774	2.16
855.942	-1.5
856.11	-1.02
856.278	-0.07
856.446	0.57
856.614	1.19
856.782	-0.46
856.95	0.76
857.118	0.58
857.286	1.16
857.454	-0.55
857.622	1.38
857.79	0.57
857.958	-0.22
858.126	-0.44
858.294	-2.49
858.462	0.43
858.629	0.53
858.797	-0.9
858.965	0.94
859.133	-0.06
859.301	0.48
859.468	0.37
859.636	-0.28
859.804	3.01
859.971	1.66
860.139	-1.27
860.307	0.88
860.474	0.08
860.642	-0.46
860.81	-1.51
860.977	-0.53
861.145	0.76
861.313	-0.42
861.48	0.58
861.648	1.38
861.815	0.33
861.983	-1.61
862.15	0.56
862.318	1.24
862.485	2.2
862.653	-0.99
862.82	-1
862.988	1.4
863.155	0.78
863.322	0.3
863.49	-0.86
863.657	-0.28
863.824	1.74
863.992	1.13
864.159	-0.72
864.326	2.35
864.494	0.72
864.661	1.97
864.828	-2.5
864.996	1.82
865.163	2.01
865.33	0.74
865.497	-2.81
865.664	-1.4
865.832	-2.85
865.999	0.34
866.166	-0.9
866.333	-0.88
866.5	-1.99
866.667	1.37
866.834	0.2
867.001	1.57
867.168	-0.03
867.335	-1
867.502	-0.84
867.669	0.29
867.836	2.46
868.003	-0.07
868.17	1.03
868.337	2.35
868.504	3.12
868.671	-0.89
868.838	-1.17
869.005	0.88
869.172	0.07
869.339	-0.11
869.505	-0.88
869.672	0.27
869.839	1.26
870.006	-0.45
870.173	-0.61
870.339	0.93
870.506	2.42
870.673	-1.62
870.84	0.86
871.006	0.8
871.173	0.63
871.34	0.93
871.506	-1.55
871.673	0.8
871.839	-2.36
872.006	0.43
872.173	-0.87
872.339	0.52
872.506	2.5
872.672	-0.05
872.839	-0.93
873.005	0.39
873.172	4.01
873.338	2.51
873.505	1.18
873.671	1.62
873.838	1.78
874.004	-2.1
874.171	-1.04
874.337	1.49
874.503	1.83
874.67	1
874.836	-1.01
875.002	4.55
875.169	2.3
875.335	0.96
875.501	1.06
875.668	1.03
875.834	-0.86
876	-0.26
876.166	1.47
876.332	2.93
876.499	3.61
876.665	-0.34
876.831	0.48
876.997	4.34
877.163	1.47
877.329	-0.49
877.495	-0.47
877.662	2.26
877.828	1.54
877.994	1.24
878.16	-2.75
878.326	-1.66
878.492	-1.09
878.658	-0.03
878.824	0.39
878.99	1.32
879.156	-0.07
879.322	2.64
879.487	0.36
879.653	0.86
879.819	0.99
879.985	-1.09
880.151	0.45
880.317	1.05
880.483	1.91
880.648	1.57
880.814	-2.35
880.98	0.94
881.146	-1.5
881.312	-2.62
881.477	-1.12
881.643	-0.48
881.809	2.4
881.974	2.2
882.14	-3.09
882.306	1.25
882.471	3.09
882.637	-1.89
882.803	-1.74
882.968	3.16
883.134	5
883.299	0.81
883.465	0.92
883.63	1.37
883.796	1.44
883.961	2.19
884.127	-0.63
884.292	-3.84
884.458	-2.89
884.623	-2.89
