Data from Apollo_Calib_20240827__AbsoluteIrradiance__60__00-09-00-134.txt Node

Date: Wed Aug 28 00:09:00 BST 2024
User: biology
Spectrometer: FLMT08252
Trigger mode: 0
Integration Time (sec): 5.000000E-1
Scans to average: 5
Electric dark correction enabled: true
Nonlinearity correction enabled: false
Boxcar width: 0
XAxis mode: Wavelengths
Number of Pixels in Spectrum: 3648
>>>>>Begin Spectral Data<<<<<
179.588	-0
179.809	-0
180.03	-0
180.251	-0
180.473	-0
180.694	0
180.915	0
181.136	-0
181.357	0
181.578	-0
181.799	-0
182.02	-0
182.241	0
182.462	-0
182.683	0
182.904	-0
183.125	-0
183.346	0
183.567	-0
183.788	-0
184.009	-0
184.23	0
184.451	-0
184.672	-0
184.892	-0
185.113	0
185.334	0
185.555	-0
185.776	-0
185.996	0
186.217	0
186.438	-0
186.659	-0
186.879	0
187.1	-0
187.321	-0
187.541	-0
187.762	-0
187.983	-0
188.203	-0
188.424	-0
188.644	-0
188.865	-0
189.086	-0
189.306	-0
189.527	-0
189.747	-0
189.968	-0
190.188	0
190.409	-0
190.629	0
190.849	-0
191.07	-0
191.29	0
191.511	0
191.731	-0
191.951	-0
192.172	-0
192.392	-0
192.612	-0
192.833	-0
193.053	-0
193.273	0
193.493	-0
193.714	-0
193.934	0
194.154	0
194.374	-0
194.594	-0
194.815	-0
195.035	-0
195.255	-0
195.475	-0
195.695	0
195.915	0
196.135	-0
196.355	0
196.575	0
196.795	-0
197.015	-0
197.235	-0
197.455	-0
197.675	0
197.895	-0
198.115	-0
198.335	0
198.555	-0
198.775	-0
198.995	0
199.214	0
199.434	-0
199.654	-0
199.874	-0
200.094	1.32
200.313	-0.59
200.533	-0.6
200.753	-0.71
200.973	0.65
201.192	0.49
201.412	-1.62
201.632	-0.91
201.851	0.74
202.071	-0.71
202.291	-0.73
202.51	-0.82
202.73	0.64
202.95	-0.14
203.169	-0.78
203.389	-0.4
203.608	-0.12
203.828	-0.85
204.047	-0.17
204.267	0.02
204.486	0.14
204.706	-0.15
204.925	-0.37
205.145	-0.38
205.364	-0.03
205.583	0.3
205.803	-0.36
206.022	-0.7
206.242	0.11
206.461	-0.43
206.68	-0.49
206.9	-0.02
207.119	0.36
207.338	0.45
207.557	-0.49
207.777	-0.05
207.996	-0.13
208.215	0.61
208.434	-0.19
208.654	-0.45
208.873	0.18
209.092	0.24
209.311	-0.15
209.53	-0.32
209.749	-0.16
209.968	-0.38
210.187	-0.41
210.407	-0.69
210.626	-0.27
210.845	0.18
211.064	-0.28
211.283	-0.45
211.502	0.33
211.721	-0.19
211.94	-0.13
212.159	0.03
212.377	0.24
212.596	0.22
212.815	0.12
213.034	-0.02
213.253	0.16
213.472	0.15
213.691	-0.25
213.91	-0.26
214.128	-0.12
214.347	0.34
214.566	-0.41
214.785	-0.49
215.003	0.11
215.222	0.02
215.441	-0.15
215.66	-0.42
215.878	-0.21
216.097	0.15
216.316	-0.4
216.534	-0.08
216.753	-0.1
216.972	0.2
217.19	-0.2
217.409	-0.25
217.627	-0.19
217.846	-0.3
218.064	-0.14
218.283	-0.26
218.501	0.43
218.72	0.12
218.938	-0.33
219.157	0.02
219.375	-0.01
219.594	-0.07
219.812	-0.33
220.031	-0.29
220.249	0.16
220.467	0.32
220.686	-0.25
220.904	-0.29
221.122	-0.3
221.341	0.27
221.559	-0.07
221.777	-0.29
221.995	-0.07
222.214	-0.06
222.432	-0.22
222.65	0.05
222.868	-0.04
223.086	0.07
223.305	0.09
223.523	-0.01
223.741	0.15
223.959	-0.12
224.177	-0.21
224.395	-0.22
224.613	-0.03
224.831	0.01
225.049	-0.25
225.267	-0.26
225.485	-0.13
225.703	-0.03
225.921	-0.05
226.139	-0.15
226.357	0.05
226.575	0.02
226.793	-0.12
227.011	0.54
227.229	-0.03
227.447	0.11
227.665	-0.16
227.883	-0.31
228.1	-0.06
228.318	0.07
228.536	-0.28
228.754	-0.25
228.972	0.06
229.189	0.09
229.407	-0.15
229.625	-0.11
229.843	0.18
230.06	0.07
230.278	-0.13
230.496	0.03
230.713	0.14
230.931	0.15
231.149	-0.09
231.366	-0.19
231.584	-0.14
231.801	0.19
232.019	-0.12
232.236	-0.32
232.454	-0.17
232.671	0.03
232.889	-0.1
233.106	-0.17
233.324	-0.03
233.541	-0.05
233.759	-0.02
233.976	-0.14
234.194	-0.13
234.411	-0.04
234.628	-0.21
234.846	-0.05
235.063	-0.08
235.28	-0.06
235.498	-0.14
235.715	-0.23
235.932	0.02
236.149	-0.07
236.367	-0.12
236.584	-0.1
236.801	-0.12
237.018	0.04
237.236	-0.13
237.453	-0.29
237.67	0.08
237.887	-0.08
238.104	-0.07
238.321	-0.14
238.538	-0.16
238.755	0.1
238.973	-0.27
239.19	-0.05
239.407	0.08
239.624	-0.01
239.841	-0.17
240.058	-0.06
240.275	0.09
240.492	-0.06
240.709	-0.12
240.925	-0.07
241.142	-0.03
241.359	-0.12
241.576	-0.14
241.793	-0.11
242.01	-0.05
242.227	0.04
242.444	-0.02
242.66	0.02
242.877	-0
243.094	0.01
243.311	0.05
243.527	-0.07
243.744	-0.01
243.961	-0.03
244.178	-0.12
244.394	-0.09
244.611	0.21
244.828	0.1
245.044	-0.12
245.261	-0.06
245.477	-0.03
245.694	0.02
245.911	-0.13
246.127	-0.06
246.344	0.14
246.56	0.09
246.777	0.08
246.993	0.04
247.21	-0.09
247.426	0.17
247.643	-0.07
247.859	-0.12
248.076	-0.08
248.292	0.16
248.508	-0.07
248.725	0.01
248.941	0.02
249.157	0.12
249.374	-0.12
249.59	0.02
249.806	0.01
250.023	0.03
250.239	-0.08
250.455	-0.19
250.671	0.01
250.888	-0.02
251.104	-0.08
251.32	-0.13
251.536	-0.01
251.752	-0.07
251.969	-0.04
252.185	-0.02
252.401	0.12
252.617	0.02
252.833	-0.05
253.049	-0.06
253.265	-0.06
253.481	0
253.697	-0.06
253.913	-0.08
254.129	-0.06
254.345	-0.01
254.561	-0.1
254.777	-0.06
254.993	0.06
255.209	-0.01
255.425	-0.07
255.641	-0.13
255.857	0.02
256.073	-0.02
256.288	-0.18
256.504	-0.11
256.72	-0.05
256.936	0.09
257.152	-0.11
257.367	-0.12
257.583	-0.05
257.799	0.03
258.015	-0.11
258.23	-0.06
258.446	0.13
258.662	-0.1
258.877	-0.1
259.093	-0.07
259.309	-0.01
259.524	-0.03
259.74	-0.05
259.955	-0.14
260.171	0
260.387	-0.01
260.602	0.02
260.818	-0.03
261.033	-0.14
261.249	-0.08
261.464	-0.09
261.68	-0.12
261.895	0
262.11	-0.03
262.326	-0
262.541	-0.15
262.757	0.03
262.972	0.03
263.187	-0.05
263.403	-0.01
263.618	0.04
263.833	-0.01
264.049	-0.08
264.264	-0.05
264.479	-0.03
264.694	0.09
264.91	-0.14
265.125	-0.08
265.34	-0.03
265.555	0.14
265.77	-0.03
265.986	0.01
266.201	0.06
266.416	0.03
266.631	-0.07
266.846	-0.09
267.061	-0.02
267.276	0.01
267.491	-0.13
267.706	-0.02
267.921	-0
268.136	-0.04
268.351	-0.03
268.566	-0.12
268.781	0.04
268.996	-0.05
269.211	-0.05
269.426	-0.07
269.641	-0.08
269.856	0.01
270.071	-0.03
270.285	-0.15
270.5	-0.01
270.715	0.01
270.93	-0.05
271.145	-0.04
271.359	0
271.574	-0.02
271.789	-0
272.004	0.01
272.218	-0.07
272.433	-0.01
272.648	-0.02
272.862	0.08
273.077	-0.05
273.292	-0.05
273.506	-0.11
273.721	-0.01
273.936	0.03
274.15	0.05
274.365	-0.1
274.579	-0.07
274.794	0.04
275.008	0.06
275.223	-0.13
275.437	-0.01
275.652	0.06
275.866	0.01
276.081	-0.04
276.295	-0.01
276.509	0.02
276.724	-0.01
276.938	-0.04
277.153	0.02
277.367	0.05
277.581	-0.05
277.796	-0.09
278.01	-0.1
278.224	0.05
278.438	0.12
278.653	-0.08
278.867	-0.08
279.081	-0.2
279.295	-0.05
279.51	-0.01
279.724	-0.08
279.938	0.04
280.152	0.02
280.366	-0.07
280.58	-0.02
280.794	0.07
281.008	-0.02
281.222	0.03
281.437	0.09
281.651	0.04
281.865	0.07
282.079	-0.1
282.293	-0.13
282.507	-0.12
282.721	0.03
282.935	-0.03
283.148	-0.1
283.362	-0.07
283.576	-0.04
283.79	-0.01
284.004	-0.04
284.218	-0.01
284.432	-0.01
284.646	-0.08
284.859	-0.05
285.073	-0.05
285.287	0.01
285.501	-0.02
285.714	-0.08
285.928	-0.06
286.142	0.02
286.356	-0.03
286.569	-0.03
286.783	0.06
286.997	0.03
287.21	0
287.424	-0.02
287.637	-0.03
287.851	-0.04
288.065	-0.02
288.278	-0.01
288.492	0.01
288.705	-0.03
288.919	0.02
289.132	-0.05
289.346	0.02
289.559	-0.06
289.773	-0.08
289.986	-0.06
290.2	-0.02
290.413	0.04
290.626	-0.05
290.84	-0.05
291.053	0.03
291.267	0.07
291.48	0.01
291.693	-0.03
291.906	-0.04
292.12	-0.04
292.333	-0.06
292.546	-0.03
292.76	0.02
292.973	0.04
293.186	-0
293.399	-0.06
293.612	0.03
293.826	-0.03
294.039	-0.04
294.252	-0.01
294.465	0
294.678	0.03
294.891	-0.04
295.104	-0.07
295.317	0.02
295.53	-0.01
295.743	-0.02
295.956	-0.06
296.169	0.04
296.382	0.02
296.595	-0.01
296.808	-0.04
297.021	0.03
297.234	0.04
297.447	0.01
297.66	0.04
297.873	0.04
298.086	0
298.299	-0.05
298.511	-0.06
298.724	-0.01
298.937	-0.07
299.15	-0.04
299.363	0.01
299.575	0.04
299.788	0.01
300.001	-0.03
300.213	-0.01
300.426	-0.02
300.639	-0
300.852	-0.03
301.064	0.02
301.277	0.03
301.489	0.01
301.702	0.07
301.915	0.02
302.127	0
302.34	0.02
302.552	0.04
302.765	-0.12
302.977	0.02
303.19	-0.01
303.402	-0.04
303.615	-0.03
303.827	-0.03
304.04	0
304.252	-0
304.464	-0.05
304.677	0.09
304.889	0.02
305.102	-0.02
305.314	-0.03
305.526	0.02
305.739	-0.03
305.951	-0.02
306.163	0
306.375	0.03
306.588	-0.02
306.8	-0.05
307.012	-0.07
307.224	-0.02
307.436	0.04
307.649	-0.08
307.861	0
308.073	0.03
308.285	-0.01
308.497	-0.05
308.709	-0.03
308.921	0.02
309.133	0.03
309.346	-0
309.558	-0.05
309.77	0.05
309.982	0.07
310.194	0.02
310.406	-0.01
310.617	0.09
310.829	0.01
311.041	0
311.253	-0.07
311.465	-0.02
311.677	-0.03
311.889	-0.04
312.101	0.01
312.313	0.05
312.524	0.02
312.736	-0.08
312.948	-0.02
313.16	0.04
313.372	0.02
313.583	-0.01
313.795	-0.02
314.007	-0.05
314.218	0
314.43	-0.03
314.642	-0.04
314.853	-0.13
315.065	0.05
315.277	-0.03
315.488	0.01
315.7	0.04
315.912	0.03
316.123	-0.01
316.335	-0.01
316.546	0.1
316.758	-0.02
316.969	-0.03
317.181	0
317.392	-0.02
317.604	0.02
317.815	-0.07
318.026	-0.06
318.238	-0.03
318.449	-0.03
318.661	-0.12
318.872	-0.06
319.083	-0.01
319.295	-0.01
319.506	-0.06
319.717	-0.01
319.929	-0.01
320.14	0.01
320.351	0.03
320.562	-0.06
320.774	-0.06
320.985	0.01
321.196	-0.05
321.407	-0.1
321.618	0.01
321.829	-0.02
322.041	0.01
322.252	0
322.463	-0.01
322.674	-0.02
322.885	-0.06
323.096	-0.07
323.307	-0.05
323.518	0.03
323.729	-0.05
323.94	-0.01
324.151	-0
324.362	-0.04
324.573	-0
324.784	-0.07
324.995	0.05
325.206	0.06
325.417	-0.02
325.628	-0.07
325.838	-0.06
326.049	0.06
326.26	0.04
326.471	-0.02
326.682	0.01
326.892	-0.03
327.103	-0.07
327.314	-0.05
327.525	0.02
327.735	-0.02
327.946	-0.05
328.157	-0.06
328.368	0.02
328.578	-0.08
328.789	0.03
328.999	-0.04
329.21	0
329.421	0.02
329.631	-0.06
329.842	-0.03
330.052	0.02
330.263	0.05
330.473	0.02
330.684	-0.02
330.894	-0.01
331.105	0.01
331.315	-0.01
331.526	-0.09
331.736	0.08
331.947	-0.06
332.157	-0.02
332.367	-0.07
332.578	0.08
332.788	0.04
332.999	0.01
333.209	0.04
333.419	-0.07
333.629	-0
333.84	0
334.05	-0.01
334.26	0.05
334.47	-0.03
334.681	0.01
334.891	-0.04
335.101	0.02
335.311	0.08
335.521	-0.01
335.732	-0.05
335.942	0.03
336.152	0.03
336.362	0.01
336.572	-0.06
336.782	0.05
336.992	-0.08
337.202	-0.04
337.412	-0.06
337.622	0
337.832	-0.03
338.042	-0
338.252	-0.04
338.462	-0.02
338.672	0.01
338.882	0.01
339.092	-0.01
339.302	0.05
339.511	-0.01
339.721	-0.01
339.931	-0.03
340.141	0.02
340.351	0.07
340.561	0.02
340.77	0.01
340.98	-0.01
341.19	0.02
341.4	-0.06
341.609	-0.05
341.819	0.02
342.029	-0.02
342.238	0.01
342.448	-0.05
342.658	0.02
342.867	-0.05
343.077	0.03
343.286	0.02
343.496	0.02
343.706	0.08
343.915	-0.08
344.125	-0.03
344.334	0.03
344.544	-0.06
344.753	-0.04
344.963	-0.03
345.172	-0.04
345.381	0.01
345.591	-0.02
345.8	-0
346.01	0.05
346.219	0.02
346.428	-0.14
346.638	-0.02
346.847	-0.02
347.056	0.07
347.266	-0.06
347.475	-0.03
347.684	-0.03
347.893	0.03
348.103	0.01
348.312	-0.03
348.521	-0.02
348.73	-0.03
348.94	-0.04
349.149	-0.07
349.358	-0.05
349.567	-0.03
349.776	-0.06
349.985	-0.02
350.194	-0
350.403	0.08
350.612	-0.06
350.821	-0.05
351.03	-0.04
351.239	-0.02
351.448	0.01
351.657	-0.01
351.866	0.08
352.075	-0.03
352.284	0.02
352.493	-0.08
352.702	0.05
352.911	0
353.12	0.01
353.329	-0.06
353.538	0.02
353.746	0.01
353.955	-0.02
354.164	-0
354.373	-0
354.582	-0.01
354.79	-0.02
354.999	0.01
355.208	-0.01
355.416	0.04
355.625	-0.05
355.834	-0.06
356.042	0.03
356.251	0.04
356.46	-0.05
356.668	-0
356.877	0.04
357.085	0.02
357.294	-0.11
357.503	-0.02
357.711	0.02
357.92	0.09
358.128	-0.01
358.337	-0.02
358.545	0.04
358.754	-0.01
358.962	0.02
359.17	-0.05
359.379	-0.02
359.587	0.02
359.796	-0.02
360.004	0.03
360.212	0.01
360.421	0.04
360.629	-0.07
360.837	-0.02
361.046	0
361.254	0.09
361.462	-0.03
361.67	-0.04
361.879	-0.01
362.087	0.06
362.295	0.02
362.503	-0.02
362.711	-0.02
362.92	-0.01
363.128	-0.05
363.336	-0.03
363.544	-0.05
363.752	-0.03
363.96	-0.05
364.168	-0.05
364.376	-0.03
364.584	-0.01
364.792	0.02
365	0.01
365.208	-0.01
365.416	-0.01
365.624	0
365.832	-0.02
366.04	0.05
366.248	-0
366.456	-0.01
366.664	0.01
366.872	-0.01
367.079	0.01
367.287	-0.03
367.495	0.02
367.703	0.03
367.911	-0.04
368.118	0.01
368.326	-0.03
368.534	-0.06
368.742	0.04
368.949	-0.06
369.157	-0.04
369.365	0.03
369.572	0
369.78	-0.02
369.988	0
370.195	0
370.403	-0
370.61	-0.06
370.818	0.01
371.026	0.03
371.233	-0.04
371.441	0.04
371.648	-0.03
371.856	0.01
372.063	0.01
372.271	-0.03
372.478	-0.03
372.685	-0
372.893	0.05
373.1	-0.02
373.308	-0.03
373.515	0.05
373.722	0.03
373.93	-0.01
374.137	0.02
374.344	0.01
374.552	0.04
374.759	-0.01
374.966	-0.01
375.173	-0.02
375.381	0.06
375.588	-0.01
375.795	-0.06
376.002	-0.06
376.209	0
376.417	-0.02
376.624	0
376.831	0.02
377.038	0
377.245	-0.1
377.452	-0.05
377.659	-0.04
377.866	-0.02
378.073	-0.02
378.28	-0.01
378.487	0.02
378.694	0.02
378.901	-0.02
379.108	0
379.315	0.04
379.522	0.07
379.729	0.01
379.936	0.01
380.143	-0.01
380.35	-0
380.557	-0
380.763	0.03
380.97	-0.02
381.177	-0.02
381.384	0.05
381.591	0.03
381.797	-0.04
382.004	0
382.211	0.02
382.418	-0.02
382.624	0.04
382.831	0.02
383.038	-0.07
383.244	-0.02
383.451	-0.03
383.658	0.06
383.864	-0.03
384.071	-0.04
384.277	0.1
384.484	-0.03
384.69	0.05
384.897	-0.03
385.103	-0.02
385.31	-0.05
385.516	-0.05
385.723	-0.06
385.929	-0.04
386.136	-0.05
386.342	0.03
386.549	-0.04
386.755	0.06
386.961	0.02
387.168	-0.03
387.374	-0.02
387.58	-0
387.787	-0.05
387.993	-0.01
388.199	0
388.406	-0.05
388.612	-0.03
388.818	-0.04
389.024	-0.02
389.231	-0.01
389.437	0.07
389.643	0.04
389.849	0
390.055	-0.05
390.261	-0.04
390.467	-0.01
390.674	-0.06
390.88	0
391.086	-0.01
391.292	-0.07
391.498	0.01
391.704	-0.02
391.91	-0.08
392.116	-0.05
392.322	-0.11
392.528	-0.01
392.734	-0.03
392.94	-0.02
393.146	-0.03
393.352	0
393.557	-0.02
393.763	-0.05
393.969	0.05
394.175	-0.01
394.381	0.01
394.587	-0.04
394.792	-0.02
394.998	-0.01
395.204	0
395.41	-0.04
395.615	-0.01
395.821	0
396.027	0.03
396.233	-0.1
396.438	-0.02
396.644	0.07
396.85	0
397.055	-0.04
397.261	-0.03
397.466	0.09
397.672	-0.01
397.878	-0
398.083	-0.03
398.289	-0.06
398.494	0.03
398.7	0.02
398.905	-0.05
399.111	0.03
399.316	-0.04
399.522	0.01
399.727	-0
399.932	-0.01
400.138	-0.05
400.343	0.02
400.549	-0.01
400.754	-0.01
400.959	-0.02
401.165	-0.02
401.37	0
401.575	0.08
401.78	-0.04
401.986	-0.02
402.191	-0.06
402.396	-0.01
402.601	-0.01
402.807	-0.01
403.012	-0
403.217	0.02
403.422	-0.04
403.627	0
403.832	-0.01
404.037	0.03
404.243	0.01
404.448	-0.05
404.653	-0.02
404.858	0.01
405.063	0
405.268	-0.06
405.473	-0.04
405.678	-0
405.883	0.12
406.088	0.03
406.293	-0.06
406.498	-0.04
406.703	0.05
406.907	0.04
407.112	-0.07
407.317	0.03
407.522	-0
407.727	-0.07
407.932	0.01
408.136	0.05
408.341	-0.04
408.546	-0.03
408.751	0
408.956	-0.04
409.16	0.01
409.365	-0.01
409.57	-0.05
409.774	-0.04
409.979	0.04
410.184	-0.01
410.388	-0.04
410.593	0.03
410.798	0
411.002	-0.07
411.207	0
411.411	0.03
411.616	-0.11
411.82	-0.01
412.025	-0
412.229	-0.06
412.434	0.03
412.638	-0.04
412.843	-0.05
413.047	0.03
413.252	-0.06
413.456	-0.07
413.66	-0.02
413.865	-0.06
414.069	0.01
414.273	-0.06
414.478	-0.04
414.682	-0.07
414.886	-0.04
415.091	-0.06
415.295	-0.12
415.499	0.02
415.703	-0.04
415.908	0.01
416.112	-0.1
416.316	0.01
416.52	0.02
416.724	-0.08
416.929	-0.04
417.133	0.07
417.337	-0.07
417.541	-0.02
417.745	-0.06
417.949	0
418.153	0.02
418.357	-0.09
418.561	0.04
418.765	-0.04
418.969	0.06
419.173	-0
419.377	-0.03
419.581	0.01
419.785	-0.08
419.989	-0.04
420.193	-0.05
420.397	-0.06
420.601	-0.01
420.804	0.01
421.008	-0.01
421.212	-0.01
421.416	0.05
421.62	-0.03
421.823	-0.03
422.027	0.06
422.231	-0.01
422.435	-0.05
422.638	0.03
422.842	-0.01
423.046	-0.05
423.249	-0
423.453	0.02
423.657	-0.02
423.86	0.01
424.064	-0.06
424.268	0.05
424.471	0.02
424.675	0.06
424.878	0.07
425.082	-0.02
425.285	0.04
425.489	0.04
425.692	-0.01
425.896	-0.09
426.099	0.02
426.303	-0.1
426.506	-0.07
426.71	0.03
426.913	0.02
427.116	0.04
427.32	0.01
427.523	-0.02
427.726	0.03
427.93	-0.02
428.133	0.03
428.336	-0.09
428.54	-0.03
428.743	0.03
428.946	0.07
429.149	-0.05
429.353	-0.03
429.556	-0.04
429.759	-0.01
429.962	-0.01
430.165	-0.05
430.368	-0.05
430.571	-0.04
430.775	-0.01
430.978	-0.02
431.181	-0.01
431.384	0.02
431.587	-0.03
431.79	-0.02
431.993	0.03
432.196	-0.02
432.399	-0.01
432.602	0.04
432.805	-0
433.008	-0.03
433.211	-0.05
433.414	0
433.616	0.06
433.819	-0.01
434.022	-0.07
434.225	0.05
434.428	0.01
434.631	0.08
434.833	-0.03
435.036	-0.04
435.239	-0.01
435.442	-0.03
435.645	-0.07
435.847	0
436.05	0.03
436.253	-0.02
436.455	-0.05
436.658	-0.02
436.861	0.08
437.063	-0.01
437.266	-0.03
437.468	0.04
437.671	0.13
437.874	0.02
438.076	-0.05
438.279	-0.04
438.481	-0.02
438.684	-0.06
438.886	0.03
439.089	-0.06
439.291	-0.02
439.494	-0.01
439.696	-0.06
439.899	0.01
440.101	0.04
440.303	-0.07
440.506	0.04
440.708	0.03
440.91	0.05
441.113	-0.06
441.315	0.07
441.517	-0.04
441.72	0.09
441.922	-0.03
442.124	-0.01
442.326	0.07
442.529	0.09
442.731	-0.02
442.933	0.09
443.135	0.02
443.337	0.06
443.539	0
443.742	-0.01
443.944	0.08
444.146	-0.01
444.348	-0
444.55	-0.02
444.752	0.01
444.954	0.03
445.156	-0.01
445.358	0
445.56	0.11
445.762	0.03
445.964	0.07
446.166	-0.03
446.368	0.01
446.57	0.08
446.772	0.05
446.974	-0
447.175	0.07
447.377	0.01
447.579	0.07
447.781	-0.02
447.983	0.12
448.184	0.02
448.386	0.03
448.588	-0
448.79	0.05
448.991	0.07
449.193	0.02
449.395	0.05
449.597	0.08
449.798	0.08
450	0.06
450.202	0.02
450.403	0.04
450.605	0.09
450.806	0.03
451.008	-0.03
451.21	-0
451.411	0.06
451.613	0.02
451.814	0.05
452.016	0.07
452.217	0.02
452.419	0.1
452.62	0.03
452.821	0.03
453.023	0.07
453.224	0.08
453.426	0.07
453.627	0.06
453.828	0.05
454.03	0.01
454.231	0.08
454.432	-0.08
454.634	0.17
454.835	0.01
455.036	-0.05
455.238	0.05
455.439	0.09
455.64	-0.01
455.841	-0.02
456.042	0.15
456.244	0.01
456.445	-0.01
456.646	-0.05
456.847	-0.01
457.048	0.06
457.249	0.08
457.45	0.24
457.651	-0.06
457.852	0.06
458.054	-0.01
458.255	-0.01
458.456	0.05
458.657	0.02
458.858	-0.04
459.058	-0.01
459.259	0.06
459.46	0.02
459.661	0.01
459.862	0.14
460.063	0.01
460.264	0.04
460.465	-0.05
460.666	0.08
460.866	-0
461.067	-0.02
461.268	-0.02
461.469	0
461.67	0
461.87	-0.01
462.071	-0
462.272	-0.05
462.473	-0.01
462.673	0.02
462.874	-0.07
463.075	-0.04
463.275	-0.01
463.476	-0.01
463.676	0.03
463.877	0.07
464.078	-0.01
464.278	0.03
464.479	-0.04
464.679	0.02
464.88	0.02
465.08	0.11
465.281	-0.05
465.481	-0.03
465.682	-0.04
465.882	0.04
466.083	0.02
466.283	0.01
466.483	-0
466.684	-0.07
466.884	-0.02
467.085	-0.05
467.285	0.03
467.485	-0.06
467.686	-0.02
467.886	-0.05
468.086	-0
468.286	0
468.487	-0
468.687	-0.07
468.887	-0
469.087	-0.01
469.287	0.01
469.488	-0.07
469.688	0.07
469.888	0.01
470.088	0.02
470.288	0.02
470.488	0.02
470.688	-0.04
470.888	0.02
471.088	-0.06
471.288	0.07
471.488	0.05
471.688	0.02
471.888	-0.09
472.088	0.05
472.288	0.04
472.488	-0.07
472.688	-0.05
472.888	0.01
473.088	0.03
473.288	-0.02
473.488	-0.02
473.688	0.07
473.887	-0.02
474.087	-0.04
474.287	-0.01
474.487	-0.08
474.687	0.01
474.886	-0.04
475.086	-0
475.286	0.01
475.486	-0
475.685	-0
475.885	0
476.085	-0.01
476.284	-0.01
476.484	-0.02
476.684	0.04
476.883	0.04
477.083	-0.01
477.282	-0.03
477.482	0.02
477.681	0.02
477.881	0.01
478.08	-0.06
478.28	-0.03
478.479	0.04
478.679	0.07
478.878	-0.02
479.078	-0.04
479.277	-0.01
479.477	-0.01
479.676	0.04
479.875	-0.03
480.075	-0.06
480.274	0
480.473	-0
480.673	-0.03
480.872	0.02
481.071	0.01
481.271	0.03
481.47	-0.04
481.669	-0.06
481.868	-0.04
482.067	-0.05
482.267	-0.01
482.466	-0.04
482.665	-0.05
482.864	-0.05
483.063	-0.03
483.262	-0.02
483.461	0.05
483.661	0.02
483.86	-0.03
484.059	0.01
484.258	-0.02
484.457	-0.02
484.656	-0
484.855	0.02
485.054	-0.08
485.253	-0.05
485.452	-0.04
485.651	0.01
485.849	0.01
486.048	-0.02
486.247	-0.03
486.446	-0.01
486.645	-0.07
486.844	-0.03
487.043	-0.02
487.241	-0.01
487.44	-0.03
487.639	-0.01
487.838	0.03
488.037	-0.03
488.235	0.02
488.434	0
488.633	-0.03
488.831	-0.01
489.03	0.02
489.229	-0.01
489.427	0
489.626	0.04
489.825	0.02
490.023	-0.02
490.222	-0.03
490.42	0.02
490.619	0.01
490.817	-0.01
491.016	-0.02
491.214	0.04
491.413	-0.02
491.611	-0
491.81	-0.01
492.008	0.02
492.207	-0.01
492.405	0
492.604	-0.03
492.802	-0.02
493	-0.02
493.199	-0.02
493.397	-0
493.595	-0.02
493.794	-0.01
493.992	0.04
494.19	-0.01
494.388	0.02
494.587	0
494.785	-0.03
494.983	-0.05
495.181	-0
495.379	-0.02
495.578	-0.03
495.776	0.01
495.974	-0.01
496.172	-0.03
496.37	-0.01
496.568	-0.04
496.766	-0.03
496.964	0.02
497.162	-0
497.36	-0.03
497.558	-0.01
497.756	0.01
497.954	-0.02
498.152	-0.05
498.35	-0.01
498.548	-0.02
498.746	-0.01
498.944	-0.02
499.142	-0.04
499.34	-0.03
499.538	-0.02
499.736	-0.05
499.933	0.02
500.131	0.04
500.329	-0.03
500.527	0.01
500.725	0.03
500.922	0.01
501.12	-0.02
501.318	-0.01
501.516	-0.02
501.713	0.01
501.911	-0.01
502.109	-0.05
502.306	0.02
502.504	-0.02
502.701	-0.03
502.899	-0.01
503.097	0.05
503.294	0
503.492	-0.03
503.689	-0.01
503.887	0.01
504.084	0.03
504.282	-0
504.479	-0.04
504.677	-0.01
504.874	-0.02
505.072	-0
505.269	-0.02
505.466	0
505.664	0
505.861	-0.04
506.059	-0.02
506.256	-0.01
506.453	-0.03
506.651	0.03
506.848	-0.01
507.045	-0
507.242	-0.01
507.44	-0.02
507.637	-0.03
507.834	-0.01
508.031	0.01
508.229	-0.03
508.426	-0.03
508.623	0
508.82	-0.02
509.017	-0.02
509.214	0
509.411	-0.02
509.608	-0.03
509.805	0.01
510.003	-0.03
510.2	-0.03
510.397	-0
510.594	-0.03
510.791	-0.03
510.988	-0
511.184	0
511.381	-0.01
511.578	-0.03
511.775	0
511.972	-0.01
512.169	-0.01
512.366	-0.02
512.563	-0.01
512.76	-0.04
512.956	-0.01
513.153	-0.02
513.35	0.02
513.547	-0.03
513.744	-0.03
513.94	-0.04
514.137	-0.01
514.334	-0.01
514.53	-0.02
514.727	-0.01
514.924	-0
515.12	-0.03
515.317	-0.05
515.514	-0.02
515.71	-0.05
515.907	-0.01
516.103	-0.02
516.3	-0.01
516.497	0.02
516.693	0.01
516.89	-0
517.086	-0.05
517.283	0.01
517.479	-0
517.676	-0
517.872	0
518.068	-0.03
518.265	-0.02
518.461	-0.02
518.658	-0.02
518.854	0
519.05	-0.03
519.247	-0.02
519.443	-0
519.639	-0
519.836	-0.02
520.032	-0.02
520.228	-0.02
520.424	0.04
520.621	-0.01
520.817	-0.03
521.013	0.01
521.209	-0.01
521.405	0.02
521.601	-0.04
521.798	-0
521.994	0.05
522.19	-0.02
522.386	-0.03
522.582	-0.01
522.778	-0.01
522.974	-0.04
523.17	-0.01
523.366	0.01
523.562	0.03
523.758	-0.03
523.954	-0.02
524.15	-0.01
524.346	0.01
524.542	-0.01
524.738	-0.02
524.934	-0.02
525.129	-0.01
525.325	-0.02
525.521	0
525.717	0
525.913	0
526.109	-0.01
526.304	0
526.5	-0.01
526.696	0.02
526.892	-0
527.087	-0.02
527.283	-0.02
527.479	0.01
527.674	0
527.87	0
528.066	-0
528.261	-0.01
528.457	0.01
528.653	-0.02
528.848	-0.01
529.044	-0
529.239	-0.03
529.435	0
529.63	-0.02
529.826	0.02
530.021	-0.01
530.217	0.04
530.412	-0.03
530.608	-0.02
530.803	-0.01
530.999	-0.01
531.194	-0.05
531.389	-0.01
531.585	-0.07
531.78	-0.01
531.975	-0.02
532.171	0.04
532.366	0
532.561	-0.01
532.757	-0.03
532.952	-0.01
533.147	-0
533.342	-0.01
533.538	-0.03
533.733	0.03
533.928	-0.01
534.123	-0.03
534.318	-0.01
534.513	-0.03
534.709	-0.01
534.904	-0.04
535.099	-0.01
535.294	-0.01
535.489	-0
535.684	-0
535.879	-0.05
536.074	0
536.269	-0.04
536.464	-0.01
536.659	-0.01
536.854	0
537.049	-0
537.244	0.01
537.439	-0.04
537.634	0.03
537.828	-0.01
538.023	0.01
538.218	-0.03
538.413	-0.02
538.608	-0.05
538.803	0.02
538.997	-0.03
539.192	-0.01
539.387	0.01
539.582	0.01
539.776	0
539.971	-0.02
540.166	-0.03
540.36	-0.05
540.555	-0.01
540.75	-0.02
540.944	0
541.139	-0.04
541.334	-0.02
541.528	-0.01
541.723	0.02
541.917	-0.04
542.112	-0.06
542.306	-0.02
542.501	-0.01
542.695	0.01
542.89	-0
543.084	0.01
543.279	-0
543.473	-0.04
543.668	-0.02
543.862	-0.02
544.056	0.03
544.251	-0.02
544.445	-0
544.64	-0.03
544.834	-0.04
545.028	0.01
545.222	-0.02
545.417	0.02
545.611	-0.02
545.805	-0.02
546	-0.02
546.194	-0.02
546.388	-0.04
546.582	0.01
546.776	-0.01
546.97	-0
547.165	0
547.359	-0.01
547.553	-0.04
547.747	-0
547.941	0.01
548.135	-0.01
548.329	0.01
548.523	0.01
548.717	-0.02
548.911	-0.02
549.105	-0.03
549.299	-0.03
549.493	0.02
549.687	0
549.881	0.01
550.075	0
550.269	-0.03
550.463	0
550.657	-0.03
550.85	0.01
551.044	-0.03
551.238	0.02
551.432	-0.02
551.626	-0.05
551.82	-0.02
552.013	-0.02
552.207	-0.02
552.401	0.01
552.594	0
552.788	-0.01
552.982	0.02
553.176	-0.02
553.369	-0.01
553.563	-0.01
553.756	-0.04
553.95	-0.04
554.144	-0.02
554.337	0.01
554.531	-0.01
554.724	0
554.918	-0.02
555.111	0
555.305	-0.01
555.498	0.03
555.692	0.01
555.885	-0.03
556.079	-0.01
556.272	-0.02
556.466	0.02
556.659	-0.01
556.852	-0.01
557.046	-0
557.239	0.02
557.432	-0.03
557.626	-0.03
557.819	-0.01
558.012	-0
558.206	0.02
558.399	-0.01
558.592	0.01
558.785	-0.02
558.979	0.02
559.172	0
559.365	0.02
559.558	0
559.751	0.01
559.944	-0.03
560.138	-0
560.331	-0.02
560.524	-0.01
560.717	0.01
560.91	-0.02
561.103	-0
561.296	-0.01
561.489	-0.01
561.682	-0.01
561.875	0.01
562.068	0
562.261	-0.02
562.454	0.02
562.647	0
562.84	0.02
563.032	-0.01
563.225	-0.01
563.418	-0.03
563.611	-0.02
563.804	-0.02
563.997	-0.03
564.19	-0.05
564.382	-0.01
564.575	0
564.768	-0.02
564.961	-0.03
565.153	-0.02
565.346	0.01
565.539	-0.01
565.731	0.02
565.924	0.01
566.117	0.01
566.309	-0
566.502	-0.03
566.695	-0.01
566.887	0
567.08	-0.01
567.272	-0.01
567.465	-0.03
567.657	-0.02
567.85	-0.01
568.042	0
568.235	0.02
568.427	-0.01
568.62	-0.02
568.812	-0.01
569.005	0
569.197	-0.05
569.389	0
569.582	-0.01
569.774	-0.01
569.966	-0.04
570.159	-0.02
570.351	-0.01
570.543	-0.01
570.736	-0.01
570.928	-0.03
571.12	-0.02
571.312	-0.03
571.505	-0.05
571.697	0.02
571.889	-0.03
572.081	-0.02
572.273	-0.02
572.465	0.03
572.658	-0.03
572.85	-0.01
573.042	-0.01
573.234	0
573.426	0.02
573.618	-0.05
573.81	-0.01
574.002	0.02
574.194	0.03
574.386	-0.06
574.578	-0.07
574.77	-0.02
574.962	-0.03
575.154	-0.05
575.346	-0.04
575.538	-0.01
575.729	-0.03
575.921	-0.03
576.113	-0.02
576.305	-0
576.497	-0.03
576.689	-0.01
576.88	-0.02
577.072	0.02
577.264	-0.02
577.456	-0.02
577.647	-0.07
577.839	-0.02
578.031	0.01
578.223	-0.07
578.414	-0.04
578.606	0
578.798	0
578.989	-0.05
579.181	0.01
579.372	-0.01
579.564	-0.03
579.755	-0.01
579.947	-0.01
580.139	-0
580.33	-0.08
580.522	-0.02
580.713	-0.08
580.905	-0.01
581.096	0.02
581.287	-0
581.479	-0.04
581.67	0.02
581.862	0
582.053	-0.03
582.244	-0.07
582.436	-0.02
582.627	-0.01
582.818	-0.05
583.01	-0.06
583.201	-0
583.392	0.01
583.583	-0.02
583.775	-0.05
583.966	-0.03
584.157	-0.01
584.348	-0.05
584.54	-0.05
584.731	-0
584.922	0
585.113	-0.04
585.304	0.01
585.495	0.04
585.686	-0.02
585.877	0.01
586.068	0
586.259	0.01
586.45	0.01
586.641	-0.05
586.832	-0.08
587.023	-0.01
587.214	-0.01
587.405	-0.01
587.596	-0.05
587.787	0.03
587.978	-0.02
588.169	-0.04
588.36	-0.02
588.551	-0.01
588.742	-0.04
588.932	-0
589.123	-0.02
589.314	0.02
589.505	0.01
589.696	-0.01
589.886	-0.08
590.077	-0.04
590.268	0.01
590.458	-0.06
590.649	-0.07
590.84	0.01
591.03	-0.03
591.221	-0.05
591.412	-0.04
591.602	0.03
591.793	0.03
591.984	-0.05
592.174	-0.01
592.365	0.06
592.555	-0.04
592.746	-0.01
592.936	-0
593.127	0.01
593.317	0.02
593.508	-0.03
593.698	-0.03
593.889	0
594.079	0
594.269	-0.05
594.46	0
594.65	-0.01
594.84	-0.02
595.031	-0.06
595.221	-0.05
595.411	-0.06
595.602	0.03
595.792	0
595.982	-0.05
596.172	0.05
596.363	-0.02
596.553	-0.03
596.743	-0.03
596.933	-0
597.123	0
597.314	-0.03
597.504	-0.04
597.694	0.01
597.884	-0
598.074	-0.03
598.264	-0.04
598.454	-0.02
598.644	-0.01
598.834	-0.03
599.024	-0.05
599.214	-0.01
599.404	0.01
599.594	-0.03
599.784	-0.04
599.974	0.04
600.164	-0
600.354	-0.04
600.544	-0.07
600.734	0
600.924	0.02
601.114	-0.06
601.303	0.01
601.493	0.01
601.683	-0.01
601.873	-0.02
602.063	-0.09
602.252	0
602.442	-0.08
602.632	-0.03
602.821	-0.06
603.011	-0.02
603.201	-0.03
603.39	-0.05
603.58	-0.04
603.77	-0.02
603.959	0.04
604.149	-0.03
604.339	-0.02
604.528	-0
604.718	0
604.907	-0.01
605.097	-0.04
605.286	0.01
605.476	0.01
605.665	-0
605.855	-0.02
606.044	0.02
606.234	-0
606.423	-0.02
606.612	-0.05
606.802	-0.01
606.991	-0
607.181	-0.02
607.37	-0.07
607.559	-0.03
607.749	-0.05
607.938	-0.03
608.127	-0.04
608.316	-0.03
608.506	0.02
608.695	-0.01
608.884	-0.03
609.073	-0.02
609.263	-0.01
609.452	0.02
609.641	-0.01
609.83	-0.05
610.019	-0.04
610.208	-0.05
610.397	0.02
610.586	-0.04
610.775	-0.03
610.965	-0
611.154	-0.05
611.343	0.01
611.532	-0
611.721	-0.04
611.91	-0.01
612.099	0.01
612.287	-0.03
612.476	-0.06
612.665	-0.01
612.854	-0.05
613.043	0.04
613.232	-0.02
613.421	-0.05
613.61	-0.01
613.798	-0.01
613.987	0.01
614.176	-0.02
614.365	0.02
614.554	-0.03
614.742	0.01
614.931	-0.05
615.12	0.01
615.309	-0.02
615.497	0
615.686	-0.04
615.875	-0.05
616.063	0.01
616.252	-0.03
616.44	-0.02
616.629	-0.01
616.818	-0.01
617.006	-0.03
617.195	-0.04
617.383	0.01
617.572	-0.01
617.76	-0.04
617.949	-0.06
618.137	0.02
618.326	0.02
618.514	-0.01
618.703	-0.02
618.891	0.04
619.079	-0.08
619.268	-0.01
619.456	-0.05
619.644	0.06
619.833	-0.03
620.021	-0.01
620.209	-0.05
620.398	-0.01
620.586	0.01
620.774	0.05
620.962	-0.03
621.151	0.05
621.339	-0.03
621.527	-0.06
621.715	-0.07
621.903	-0.05
622.092	-0.05
622.28	-0.02
622.468	-0.02
622.656	-0.06
622.844	0.01
623.032	-0.02
623.22	-0.09
623.408	0.04
623.596	0.01
623.784	0.02
623.972	-0.04
624.16	-0.03
624.348	0.03
624.536	-0.01
624.724	-0.07
624.912	0.02
625.1	0.01
625.288	-0.02
625.476	-0.04
625.664	-0.01
625.851	-0.03
626.039	0.01
626.227	0.02
626.415	-0.02
626.603	-0.06
626.79	-0.01
626.978	-0.03
627.166	0.01
627.354	-0.02
627.541	-0.03
627.729	-0.08
627.917	0.02
628.104	0.03
628.292	0.04
628.48	-0.01
628.667	-0
628.855	-0
629.042	0.01
629.23	-0.02
629.418	-0
629.605	-0.05
629.793	-0.04
629.98	-0.02
630.168	-0.02
630.355	0.01
630.543	-0.02
630.73	-0
630.917	0.03
631.105	0.06
631.292	-0.02
631.48	-0.04
631.667	0.07
631.854	-0.01
632.042	0.04
632.229	-0.03
632.416	-0.01
632.604	-0.02
632.791	-0.08
632.978	0.05
633.165	0.02
633.353	0.04
633.54	0.06
633.727	-0.06
633.914	-0.04
634.101	-0.04
634.289	0.06
634.476	-0.02
634.663	-0.03
634.85	-0
635.037	-0.02
635.224	-0.06
635.411	0.04
635.598	0.04
635.785	0
635.972	0.01
636.159	0.04
636.346	-0.03
636.533	0
636.72	-0.01
636.907	0.02
637.094	0.03
637.281	-0.02
637.468	0.05
637.655	0.01
637.842	0.03
638.029	-0.04
638.215	0.04
638.402	0
638.589	-0.02
638.776	-0.02
638.963	-0.02
639.149	0.06
639.336	0.07
639.523	0
639.709	-0
639.896	0.04
640.083	0.07
640.27	-0
640.456	-0.01
640.643	0.05
640.829	-0.02
641.016	0.01
641.203	-0.02
641.389	0.03
641.576	0.04
641.762	0.02
641.949	-0.03
642.135	0.01
642.322	0.04
642.508	-0.02
642.695	0.02
642.881	0.01
643.068	0.01
643.254	0.03
643.441	0.02
643.627	0.02
643.813	0
644	0.05
644.186	-0.01
644.372	0.04
644.559	0.06
644.745	0.02
644.931	0.01
645.118	0.03
645.304	0.05
645.49	-0.01
645.676	0.04
645.862	0.06
646.049	0.08
646.235	0.04
646.421	0.11
646.607	0.1
646.793	-0
646.979	0.04
647.165	0.04
647.352	0.03
647.538	0.09
647.724	0.04
647.91	0.03
648.096	0.08
648.282	0.09
648.468	0.02
648.654	0.05
648.84	0.03
649.026	0.05
649.212	0.04
649.397	0.02
649.583	0.03
649.769	0.06
649.955	0.04
650.141	0.08
650.327	0.1
650.513	0.04
650.698	0.07
650.884	-0.02
651.07	0.09
651.256	0.05
651.442	0.06
651.627	0.07
651.813	0.05
651.999	0.04
652.184	0.04
652.37	0.04
652.556	0.04
652.741	0.1
652.927	0.02
653.113	0.07
653.298	0.09
653.484	0.1
653.669	0.05
653.855	0.06
654.04	0.11
654.226	0.1
654.412	0.06
654.597	0.04
654.782	0.09
654.968	0.1
655.153	0.11
655.339	0.09
655.524	0.04
655.71	0.12
655.895	0.08
656.08	0.11
656.266	0.1
656.451	0.12
656.636	0.1
656.822	0.07
657.007	0.09
657.192	0.04
657.378	0.04
657.563	0.1
657.748	0.11
657.933	0.1
658.118	0.03
658.304	0.06
658.489	0.13
658.674	0.11
658.859	0.02
659.044	0.1
659.229	0.09
659.414	0.1
659.599	0.07
659.785	0.04
659.97	0.08
660.155	0.14
660.34	0.1
660.525	0.05
660.71	0.05
660.895	0.11
661.08	0.08
661.264	0.08
661.449	0.12
661.634	0.15
661.819	0.07
662.004	0.09
662.189	-0
662.374	0.03
662.559	-0
662.743	-0
662.928	0.02
663.113	0.06
663.298	0.01
663.483	0.04
663.667	0.05
663.852	0.01
664.037	0.1
664.221	0.02
664.406	0.05
664.591	0.05
664.775	0.05
664.96	0.03
665.145	0.04
665.329	0.07
665.514	-0.01
665.698	0.03
665.883	-0.01
666.068	0.07
666.252	0.06
666.437	-0.02
666.621	0.03
666.806	0.02
666.99	0.01
667.174	-0.02
667.359	0.08
667.543	-0.01
667.728	0
667.912	-0.05
668.096	0.02
668.281	-0.02
668.465	0.02
668.649	-0
668.834	-0.02
669.018	-0.02
669.202	-0
669.387	-0.03
669.571	0.06
669.755	-0.02
669.939	-0.04
670.124	0.01
670.308	0.03
670.492	0
670.676	0.02
670.86	-0.01
671.044	-0.05
671.228	0.03
671.413	-0.04
671.597	-0.03
671.781	-0.07
671.965	-0.02
672.149	-0.04
672.333	-0.01
672.517	-0.05
672.701	-0.01
672.885	-0.05
673.069	-0.1
673.253	0.02
673.437	0.01
673.621	-0.05
673.804	-0.02
673.988	-0.02
674.172	-0.04
674.356	-0.1
674.54	0
674.724	0.06
674.908	-0.04
675.091	0.01
675.275	-0
675.459	-0.03
675.643	-0.04
675.826	0.03
676.01	0.01
676.194	-0.02
676.377	-0
676.561	-0
676.745	-0.03
676.928	-0.02
677.112	0.02
677.296	-0.04
677.479	-0.06
677.663	-0.06
677.846	0.03
678.03	-0.04
678.213	-0.03
678.397	0.01
678.58	-0.04
678.764	-0.04
678.947	-0.04
679.131	-0.05
679.314	-0.02
679.498	-0.02
679.681	0.01
679.865	0.03
680.048	-0.01
680.231	-0.01
680.415	-0.02
680.598	-0.03
680.781	-0.05
680.965	-0.06
681.148	0
681.331	-0.05
681.514	0.02
681.698	-0.06
681.881	-0.05
682.064	-0.02
682.247	-0.01
682.43	-0.11
682.614	-0.02
682.797	0.01
682.98	0.03
683.163	-0.1
683.346	-0.01
683.529	-0.05
683.712	-0.04
683.895	0.02
684.078	-0.03
684.261	-0.05
684.444	0
684.627	-0.04
684.81	-0.04
684.993	0
685.176	0.01
685.359	-0.08
685.542	-0.05
685.725	0.06
685.908	-0.04
686.091	-0.01
686.274	0.04
686.457	0.02
686.639	-0.02
686.822	0.08
687.005	-0.06
687.188	0
687.371	0.07
687.553	-0.02
687.736	0.01
687.919	0.11
688.102	0.08
688.284	-0.05
688.467	-0.01
688.65	-0.02
688.832	-0.06
689.015	-0.06
689.197	-0.07
689.38	0.05
689.563	0.09
689.745	-0.02
689.928	-0.07
690.11	-0.03
690.293	0.02
690.475	-0.12
690.658	-0.02
690.84	-0.04
691.023	-0.02
691.205	-0.04
691.388	0.02
691.57	0.03
691.752	-0.02
691.935	-0.1
692.117	-0.01
692.3	-0.02
692.482	0.02
692.664	-0.01
692.847	-0.02
693.029	0.05
693.211	0.03
693.393	-0.05
693.576	-0.05
693.758	-0.01
693.94	-0.02
694.122	-0.06
694.304	-0.04
694.487	-0.08
694.669	0.02
694.851	-0.04
695.033	-0.03
695.215	-0.03
695.397	-0.07
695.579	0.02
695.761	-0.05
695.943	-0.1
696.125	-0
696.308	0.03
696.49	-0.09
696.671	0.07
696.853	-0.02
697.035	0.06
697.217	-0.02
697.399	0.1
697.581	-0.1
697.763	0.03
697.945	-0.08
698.127	0.03
698.309	0.05
698.491	-0.01
698.672	-0.02
698.854	0.01
699.036	0.08
699.218	-0.02
699.399	0.02
699.581	0.02
699.763	-0.04
699.945	-0.06
700.126	-0.08
700.308	-0.02
700.49	-0.01
700.671	-0.12
700.853	-0.02
701.035	-0.03
701.216	-0.03
701.398	-0.04
701.579	-0.02
701.761	0.06
701.943	-0.03
702.124	-0.04
702.306	-0.03
702.487	0.12
702.669	-0.04
702.85	-0.04
703.031	-0.13
703.213	0.06
703.394	0.06
703.576	-0.1
703.757	0.05
703.938	0.04
704.12	0.1
704.301	-0.02
704.483	-0.05
704.664	0
704.845	0.05
705.026	0.03
705.208	-0.02
705.389	0.01
705.57	0
705.751	-0.03
705.933	-0.04
706.114	0.05
706.295	0.01
706.476	-0.11
706.657	0.12
706.838	0.03
707.02	0.04
707.201	-0.03
707.382	-0.07
707.563	0.02
707.744	-0.03
707.925	-0.05
708.106	-0.05
708.287	0.02
708.468	0.08
708.649	-0
708.83	0.07
709.011	-0.05
709.192	0.04
709.373	-0.09
709.554	-0.03
709.734	0.02
709.915	0.05
710.096	-0.01
710.277	-0.11
710.458	0.02
710.639	-0.03
710.819	-0.1
711	-0.02
711.181	0.03
711.362	0.09
711.542	-0.01
711.723	-0.05
711.904	-0.04
712.085	0
712.265	0.05
712.446	-0.09
712.627	-0.03
712.807	-0.02
712.988	-0.02
713.168	-0.06
713.349	0.01
713.53	-0.04
713.71	-0.04
713.891	-0.08
714.071	0.01
714.252	-0.01
714.432	-0.04
714.613	-0.06
714.793	0.01
714.974	0.09
715.154	0.06
715.334	0
715.515	0.11
715.695	-0.07
715.876	0.01
716.056	-0.1
716.236	-0.05
716.417	-0.02
716.597	0
716.777	0.09
716.957	-0.05
717.138	-0
717.318	0
717.498	-0.06
717.678	-0.05
717.859	0.02
718.039	-0.11
718.219	0.06
718.399	0.11
718.579	-0.09
718.759	-0.04
718.939	0.04
719.12	0.03
719.3	0.03
719.48	-0.16
719.66	-0.1
719.84	0.14
720.02	0.02
720.2	-0.03
720.38	0.04
720.56	0.13
720.74	-0.02
720.92	0.09
721.1	0.05
721.279	0.11
721.459	0.03
721.639	-0.09
721.819	0.05
721.999	-0.04
722.179	-0.01
722.359	-0.08
722.538	0.09
722.718	-0.05
722.898	0.01
723.078	0.01
723.257	-0.06
723.437	-0.02
723.617	0.08
723.797	-0
723.976	0.03
724.156	0.06
724.336	0.16
724.515	0.17
724.695	-0.12
724.874	-0.04
725.054	0.1
725.234	-0.01
725.413	-0.03
725.593	0.01
725.772	-0.02
725.952	-0.01
726.131	0
726.311	0.03
726.49	0.02
726.67	-0.15
726.849	-0.06
727.028	0.08
727.208	-0.01
727.387	0.01
727.567	-0.06
727.746	0.04
727.925	0.08
728.105	-0.03
728.284	0.01
728.463	0.01
728.643	0.07
728.822	-0.14
729.001	0
729.18	0.07
729.359	0.12
729.539	0.02
729.718	0.04
729.897	0.17
730.076	-0.01
730.255	0.05
730.434	0.07
730.614	0.07
730.793	0.18
730.972	0.05
731.151	0.03
731.33	0.14
731.509	0.07
731.688	0.12
731.867	-0.01
732.046	-0.03
732.225	0.29
732.404	0.07
732.583	-0.04
732.762	0.1
732.941	0.13
733.12	0.05
733.298	0.05
733.477	0.15
733.656	0.05
733.835	-0.02
734.014	0.15
734.193	0.04
734.371	0.18
734.55	0.1
734.729	-0.1
734.908	0.11
735.086	0.16
735.265	0.18
735.444	-0.05
735.623	-0.02
735.801	0.01
735.98	0.12
736.159	0.11
736.337	0.18
736.516	0.08
736.694	-0.03
736.873	-0.04
737.052	0.14
737.23	0.17
737.409	0.09
737.587	0.25
737.766	-0.05
737.944	-0.02
738.123	0.11
738.301	0.12
738.479	0.06
738.658	0.05
738.836	-0.15
739.015	-0.05
739.193	0.21
739.371	-0.02
739.55	0.13
739.728	-0.1
739.906	0.1
740.085	0.08
740.263	0.15
740.441	-0.12
740.62	0.09
740.798	0.21
740.976	-0.05
741.154	-0.04
741.332	0.2
741.511	-0.01
741.689	0.02
741.867	0.12
742.045	0.02
742.223	0.06
742.401	-0
742.579	0.05
742.757	0.08
742.935	-0.03
743.114	0.01
743.292	-0.08
743.47	-0.04
743.648	0.08
743.826	0.01
744.004	0.13
744.181	0.13
744.359	-0
744.537	0.04
744.715	-0.1
744.893	-0.02
745.071	-0.07
745.249	-0.1
745.427	0.01
745.605	0
745.782	0
745.96	0.08
746.138	0.11
746.316	0.13
746.493	-0.04
746.671	-0
746.849	-0.03
747.027	0.16
747.204	-0.14
747.382	0.02
747.56	-0.05
747.737	0.04
747.915	-0.11
748.093	0.1
748.27	-0.06
748.448	0.02
748.625	-0.15
748.803	-0.03
748.98	-0.18
749.158	-0.03
749.335	0.09
749.513	-0
749.69	-0.01
749.868	-0.05
750.045	0.01
750.223	-0.06
750.4	-0.16
750.578	0.16
750.755	-0.02
750.932	-0.19
751.11	0.02
751.287	-0.2
751.464	0.16
751.642	-0.16
751.819	-0.01
751.996	-0.06
752.173	-0.07
752.351	-0.12
752.528	-0.01
752.705	0.04
752.882	0.01
753.06	-0.04
753.237	0.04
753.414	0.23
753.591	0.1
753.768	0.03
753.945	-0.08
754.122	-0.08
754.299	0.01
754.476	-0.07
754.654	-0.05
754.831	0.03
755.008	-0.02
755.185	-0.07
755.362	-0.17
755.539	0.05
755.716	-0.07
755.892	-0.01
756.069	-0.01
756.246	-0.01
756.423	-0.03
756.6	0.13
756.777	-0.09
756.954	0.21
757.131	-0.03
757.307	-0.03
757.484	-0.08
757.661	-0.1
757.838	-0.18
758.015	-0.11
758.191	0.02
758.368	-0.06
758.545	0.1
758.721	-0.04
758.898	-0.11
759.075	0.04
759.251	-0.05
759.428	-0.01
759.605	-0.23
759.781	-0.03
759.958	0.01
760.134	-0.09
760.311	-0
760.488	0.15
760.664	0.04
760.841	-0.08
761.017	-0.11
761.194	0.04
761.37	0.13
761.547	-0.06
761.723	-0.07
761.899	0.13
762.076	-0.2
762.252	-0.16
762.429	-0.02
762.605	0.05
762.781	-0.07
762.958	0.07
763.134	-0.09
763.31	-0.14
763.486	0.14
763.663	-0.24
763.839	-0.05
764.015	-0.26
764.191	-0.14
764.368	-0.01
764.544	-0.06
764.72	-0.04
764.896	-0.04
765.072	0.05
765.248	-0.15
765.425	-0.08
765.601	0.03
765.777	0.07
765.953	-0.29
766.129	-0.12
766.305	-0.27
766.481	0.09
766.657	-0.21
766.833	0.05
767.009	-0.2
767.185	-0.15
767.361	-0.02
767.537	-0.13
767.713	0.18
767.889	-0.08
768.065	0.01
768.24	-0.03
768.416	-0.01
768.592	-0.22
768.768	-0.03
768.944	-0.01
769.12	-0.26
769.295	0.03
769.471	-0.07
769.647	-0.11
769.823	0.11
769.998	-0.15
770.174	-0.06
770.35	0.27
770.525	0.13
770.701	0.03
770.877	-0.06
771.052	-0.05
771.228	0.04
771.403	-0.05
771.579	-0.15
771.755	0.23
771.93	-0.22
772.106	-0.05
772.281	-0.26
772.457	0.02
772.632	-0.13
772.808	-0.23
772.983	-0.17
773.159	-0.14
773.334	0.01
773.509	-0.01
773.685	-0.27
773.86	0.3
774.036	0.12
774.211	-0.09
774.386	-0.06
774.562	-0.01
774.737	0.02
774.912	-0.19
775.087	0.04
775.263	-0.01
775.438	0.01
775.613	-0.13
775.788	-0.08
775.964	0.04
776.139	0.35
776.314	-0.32
776.489	-0.11
776.664	0.03
776.839	-0.12
777.014	0.06
777.19	0.01
777.365	0.14
777.54	0.22
777.715	-0.11
777.89	-0.07
778.065	-0.26
778.24	-0.18
778.415	0.11
778.59	-0.35
778.765	-0.03
778.94	0.01
779.115	-0.25
779.289	-0.18
779.464	-0.05
779.639	-0.04
779.814	-0.3
779.989	-0.18
780.164	0.14
780.339	-0.05
780.513	-0.06
780.688	-0.2
780.863	0.02
781.038	-0
781.212	-0.23
781.387	-0.12
781.562	0.19
781.737	0.03
781.911	0.15
782.086	-0.28
782.261	-0.02
782.435	0.19
782.61	-0.05
782.784	-0.09
782.959	-0.01
783.134	-0.16
783.308	-0.28
783.483	-0.2
783.657	0.46
783.832	0.17
784.006	-0.3
784.181	-0
784.355	-0.03
784.53	0.13
784.704	-0.26
784.878	0.26
785.053	0.14
785.227	0.08
785.402	0.17
785.576	-0.26
785.75	-0.06
785.925	-0.05
786.099	-0.09
786.273	0.02
786.448	-0.03
786.622	-0.11
786.796	-0.04
786.97	-0.29
787.145	0.34
787.319	-0.41
787.493	-0.17
787.667	-0.3
787.841	-0.1
788.015	0.06
788.19	-0.15
788.364	-0.13
788.538	0.22
788.712	0.03
788.886	-0.2
789.06	-0.05
789.234	-0.06
789.408	-0.23
789.582	-0.2
789.756	0.06
789.93	-0.13
790.104	-0.24
790.278	-0.17
790.452	-0.14
790.626	0.14
790.8	-0.28
790.973	0.17
791.147	0.15
791.321	0.23
791.495	0.19
791.669	-0.07
791.843	0.13
792.016	-0.15
792.19	0.4
792.364	-0.09
792.538	0.32
792.711	0.13
792.885	-0.18
793.059	-0.27
793.233	-0.57
793.406	0.2
793.58	-0.13
793.754	0.14
793.927	-0.12
794.101	0.23
794.274	0.17
794.448	0.34
794.622	-0.35
794.795	0.09
794.969	-0.25
795.142	0.23
795.316	-0.19
795.489	-0.08
795.663	0.33
795.836	-0.25
796.009	-0.25
796.183	0.28
796.356	-0.02
796.53	0.16
796.703	-0.23
796.876	0.47
797.05	-0.23
797.223	-0.09
797.396	-0.07
797.57	0.08
797.743	0.36
797.916	-0.1
798.09	-0.21
798.263	0.31
798.436	0.03
798.609	-0.21
798.782	-0.1
798.956	-0.03
799.129	0.14
799.302	-0.15
799.475	-0.14
799.648	0.17
799.821	-0.26
799.994	-0.11
800.167	-0.24
800.34	-0.11
800.514	0.26
800.687	0.11
800.86	-0.4
801.033	0
801.206	-0.05
801.379	-0.41
801.551	0.26
801.724	0.09
801.897	0.31
802.07	-0.39
802.243	-0.58
802.416	-0.05
802.589	-0.1
802.762	0.26
802.935	-0.17
803.107	0.12
803.28	0.24
803.453	0.39
803.626	-0.15
803.798	-0.32
803.971	-0.32
804.144	0.22
804.317	-0.13
804.489	0.18
804.662	0.02
804.835	0.16
805.007	-0.32
805.18	0.15
805.353	-0.03
805.525	-0.31
805.698	-0.27
805.87	0.14
806.043	-0.09
806.215	-0.28
806.388	-0.06
806.56	-0.05
806.733	0.27
806.905	0.17
807.078	-0.42
807.25	-0.21
807.423	-0.05
807.595	0.01
807.768	-0.02
807.94	0.15
808.112	-0.38
808.285	-0.25
808.457	0.08
808.629	0.07
808.802	0.27
808.974	-0.12
809.146	-0.37
809.318	-0.55
809.491	-0.26
809.663	0.02
809.835	-0.23
810.007	-0.15
810.18	-0.23
810.352	-0.47
810.524	-0.05
810.696	0.02
810.868	0.25
811.04	-0.08
811.212	-0.42
811.384	0.29
811.556	0.25
811.728	-0.1
811.901	0.51
812.073	-0.29
812.245	0.16
812.417	-0.18
812.589	-0.74
812.76	-0.07
812.932	-0.11
813.104	0.16
813.276	0.08
813.448	0.12
813.62	-0.39
813.792	0.05
813.964	-0.09
814.136	0.28
814.307	-0.25
814.479	-0.42
814.651	0.02
814.823	0.46
814.995	0.08
815.166	0.08
815.338	-0.24
815.51	-0.41
815.681	0.76
815.853	-0.11
816.025	-0.37
816.196	0.36
816.368	-0.53
816.54	-0.41
816.711	-0.22
816.883	0.1
817.054	0.72
817.226	-0.99
817.398	-0.21
817.569	-0.09
817.741	0.16
817.912	-0.61
818.084	-0.44
818.255	-0.12
818.426	-0.46
818.598	-0.38
818.769	-0.36
818.941	0.49
819.112	0.35
819.283	-0.06
819.455	-0.3
819.626	-0
819.798	0.12
819.969	0.22
820.14	-0.19
820.311	-0.46
820.483	-0.2
820.654	0.43
820.825	-0.03
820.996	-0.12
821.168	-0.22
821.339	-0.47
821.51	-0.7
821.681	-0.69
821.852	-0.2
822.023	-0.42
822.195	-1.28
822.366	0.23
822.537	-0.3
822.708	-0.01
822.879	-0.58
823.05	0.53
823.221	-0.17
823.392	0.26
823.563	-0.59
823.734	-0.08
823.905	-0.18
824.076	-0.58
824.247	-0.48
824.418	-0.59
824.589	0.22
824.759	-0.33
824.93	-0.39
825.101	-0.98
825.272	0.55
825.443	0.11
825.614	0.96
825.784	-0.99
825.955	0.58
826.126	0.77
826.297	-0.43
826.467	0.43
826.638	0.66
826.809	-0.48
826.98	-0.33
827.15	0.3
827.321	-0.13
827.492	0.06
827.662	-0.36
827.833	0.5
828.003	-0.06
828.174	-0.6
828.345	-0.6
828.515	-0.17
828.686	0.01
828.856	-0.64
829.027	-0.45
829.197	-0.25
829.368	0.05
829.538	0.04
829.709	-0.39
829.879	-0.09
830.049	0.12
830.22	-0.09
830.39	-0.43
830.56	0.31
830.731	0.05
830.901	-0.87
831.072	-0.1
831.242	-0.13
831.412	0.19
831.582	0.26
831.753	-0.84
831.923	-0.03
832.093	0.76
832.263	0.26
832.434	-0.85
832.604	-0.76
832.774	0.7
832.944	-0.12
833.114	-0.9
833.284	0.22
833.454	-0.43
833.624	0.03
833.795	-0.36
833.965	0.47
834.135	0.75
834.305	-1.13
834.475	-0.6
834.645	0.2
834.815	0.18
834.985	-0.94
835.155	-0.44
835.325	0.21
835.494	0.71
835.664	-0.38
835.834	-1.18
836.004	-0.53
836.174	0.4
836.344	-0.65
836.514	-0.67
836.684	-0.57
836.853	-0
837.023	-0.01
837.193	-0.26
837.363	0.72
837.532	0.13
837.702	-0.16
837.872	-0.82
838.041	-0.04
838.211	1.03
838.381	-1.3
838.55	-0.41
838.72	1.37
838.89	1.13
839.059	0.1
839.229	-0.33
839.398	0.93
839.568	-0.07
839.738	-0.1
839.907	0.45
840.077	-0.13
840.246	-0.06
840.416	-0.83
840.585	-0.57
840.755	0.42
840.924	0.47
841.093	-1.21
841.263	-0.45
841.432	-0.05
841.602	-0.65
841.771	-0.66
841.94	-0.93
842.11	1.79
842.279	1.16
842.448	-1.26
842.617	-0.73
842.787	0.21
842.956	-0.75
843.125	-0.68
843.294	-0.29
843.464	0.96
843.633	0.63
843.802	-0.94
843.971	-0.34
844.14	0.28
844.309	0.41
844.479	-0.07
844.648	-1.34
844.817	-0.4
844.986	-0.12
845.155	-0.39
845.324	-0.39
845.493	-0.85
845.662	-0.75
845.831	0.02
846	0.21
846.169	-0.02
846.338	0.91
846.507	-0.56
846.676	-0.23
846.844	-0.34
847.013	1.48
847.182	-0.36
847.351	-1.34
847.52	-0.33
847.689	-0.31
847.858	-0.27
848.026	-1.14
848.195	0.32
848.364	-0.92
848.533	-0.73
848.701	-0.27
848.87	-0.46
849.039	0.34
849.207	0.41
849.376	1.51
849.545	1.13
849.713	-0.45
849.882	-0.78
850.051	-1.36
850.219	-0.23
850.388	0.74
850.556	-0.97
850.725	-0.57
850.893	-0.09
851.062	-1.04
851.23	0.58
851.399	-1.71
851.567	0.25
851.736	-1.53
851.904	-0.97
852.073	-0.44
852.241	0.13
852.41	0.03
852.578	-0
852.746	-0.77
852.915	0.62
853.083	0.48
853.251	-1.07
853.42	-0.72
853.588	-0.14
853.756	0.29
853.924	-0.65
854.093	-0.4
854.261	-0.71
854.429	-2.12
854.597	0.23
854.765	-0.57
854.934	-0.16
855.102	0.59
855.27	-1.06
855.438	0.09
855.606	0.1
855.774	1.31
855.942	-1.42
856.11	-1.64
856.278	0.36
856.446	1.01
856.614	-0.32
856.782	-1
856.95	0.16
857.118	-0.26
857.286	-1.1
857.454	-1.29
857.622	-0.32
857.79	-0.22
857.958	-0.9
858.126	-1.04
858.294	-0.78
858.462	-0.36
858.629	0.01
858.797	-0.55
858.965	0.01
859.133	-1.27
859.301	-0.07
859.468	-0.56
859.636	-1.02
859.804	1.73
859.971	-1.21
860.139	-0.73
860.307	-0.03
860.474	-0.33
860.642	-0.09
860.81	-2.01
860.977	-1.2
861.145	-0.23
861.313	-0.98
861.48	-0.41
861.648	0.11
861.815	-0.57
861.983	-1
862.15	-0.51
862.318	0.13
862.485	1.21
862.653	-0.53
862.82	-1.65
862.988	1.26
863.155	0.1
863.322	-1.63
863.49	-1.07
863.657	-0.92
863.824	1.17
863.992	-0.4
864.159	0.07
864.326	1.17
864.494	-2.31
864.661	2.13
864.828	-1.41
864.996	0.53
865.163	1.38
865.33	-1.1
865.497	-2.12
865.664	-2.44
865.832	-2.13
865.999	-1.74
866.166	-0.74
866.333	-0.78
866.5	-0.89
866.667	-0.54
866.834	0.03
867.001	0.65
867.168	-3.37
867.335	-0.25
867.502	-2.76
867.669	-1.54
867.836	2.52
868.003	-1.39
868.17	1.01
868.337	-1.96
868.504	1.2
868.671	-1.53
868.838	-1.93
869.005	0.43
869.172	-0
869.339	-0.88
869.505	-0.48
869.672	-0.56
869.839	1.26
870.006	0.08
870.173	-2.27
870.339	-0.03
870.506	2.65
870.673	-1.16
870.84	0.41
871.006	-0.34
871.173	-0.54
871.34	0.09
871.506	-2.36
871.673	-0.17
871.839	-2.22
872.006	-0.67
872.173	-0.43
872.339	0.57
872.506	0.94
872.672	-0.53
872.839	-3.22
873.005	-1.37
873.172	3.23
873.338	1.42
873.505	1.04
873.671	-1.77
873.838	0.9
874.004	-3.06
874.171	-1.25
874.337	1.32
874.503	1.37
874.67	0.01
874.836	0.19
875.002	3.52
875.169	1.14
875.335	-0.74
875.501	-0.39
875.668	0.07
875.834	1.34
876	-1.23
876.166	-0.18
876.332	0.5
876.499	2.67
876.665	-3.39
876.831	-2.3
876.997	1.35
877.163	0.36
877.329	0.49
877.495	1.09
877.662	1.65
877.828	-0.55
877.994	-2.47
878.16	-2.48
878.326	-1.96
878.492	1.03
878.658	-1.56
878.824	-0.69
878.99	1.32
879.156	-2.65
879.322	3.13
879.487	-1.09
879.653	-0.21
879.819	-0.79
879.985	-1.64
880.151	-0.95
880.317	1.66
880.483	-0.26
880.648	1.04
880.814	-2.9
880.98	0.13
881.146	-2.82
881.312	-0.3
881.477	-1.49
881.643	-1.13
881.809	1.01
881.974	1.09
882.14	-4.55
882.306	-0
882.471	2.28
882.637	-1.45
882.803	0.56
882.968	2.15
883.134	3.61
883.299	-1.11
883.465	-0.23
883.63	1.15
883.796	-0.34
883.961	0.2
884.127	-0.52
884.292	-5.66
884.458	-1.48
884.623	-1.48
