Data from Apollo_Calib_20240827__AbsoluteIrradiance__218__02-47-01-375.txt Node

Date: Wed Aug 28 02:47:01 BST 2024
User: biology
Spectrometer: FLMT08252
Trigger mode: 0
Integration Time (sec): 5.000000E-1
Scans to average: 5
Electric dark correction enabled: true
Nonlinearity correction enabled: false
Boxcar width: 0
XAxis mode: Wavelengths
Number of Pixels in Spectrum: 3648
>>>>>Begin Spectral Data<<<<<
179.588	-0
179.809	-0
180.03	-0
180.251	-0
180.473	-0
180.694	0
180.915	0
181.136	-0
181.357	0
181.578	-0
181.799	-0
182.02	-0
182.241	0
182.462	-0
182.683	0
182.904	-0
183.125	-0
183.346	0
183.567	0
183.788	-0
184.009	-0
184.23	-0
184.451	0
184.672	-0
184.892	-0
185.113	0
185.334	0
185.555	-0
185.776	-0
185.996	0
186.217	-0
186.438	-0
186.659	-0
186.879	0
187.1	-0
187.321	-0
187.541	-0
187.762	-0
187.983	-0
188.203	-0
188.424	-0
188.644	-0
188.865	-0
189.086	-0
189.306	-0
189.527	-0
189.747	0
189.968	-0
190.188	0
190.409	-0
190.629	0
190.849	-0
191.07	-0
191.29	0
191.511	-0
191.731	-0
191.951	-0
192.172	-0
192.392	0
192.612	-0
192.833	0
193.053	0
193.273	-0
193.493	-0
193.714	-0
193.934	0
194.154	0
194.374	-0
194.594	0
194.815	-0
195.035	-0
195.255	-0
195.475	-0
195.695	0
195.915	-0
196.135	-0
196.355	0
196.575	0
196.795	0
197.015	-0
197.235	-0
197.455	-0
197.675	0
197.895	-0
198.115	-0
198.335	0
198.555	-0
198.775	0
198.995	-0
199.214	0
199.434	-0
199.654	-0
199.874	-0
200.094	0.85
200.313	-0.81
200.533	-0.92
200.753	-1.27
200.973	0.9
201.192	0.68
201.412	-1.25
201.632	-0.49
201.851	0.52
202.071	-0.97
202.291	-0.54
202.51	-0.93
202.73	0.19
202.95	-0.95
203.169	-1.03
203.389	-0.24
203.608	0.03
203.828	-0.85
204.047	-0.67
204.267	-0.05
204.486	-0.24
204.706	-0.36
204.925	-0.42
205.145	-0.42
205.364	0.48
205.583	0.6
205.803	-0.54
206.022	-0.57
206.242	0.08
206.461	-0.13
206.68	-0.56
206.9	-0.2
207.119	0.44
207.338	0.08
207.557	-0.57
207.777	-0.52
207.996	-0.04
208.215	0.3
208.434	-0.57
208.654	-0.12
208.873	0.2
209.092	0.5
209.311	-0.16
209.53	-0.17
209.749	-0.17
209.968	-0.31
210.187	-0.43
210.407	-0.61
210.626	-0.42
210.845	0.02
211.064	-0.11
211.283	-0.51
211.502	0.09
211.721	-0.13
211.94	-0.27
212.159	0.13
212.377	0.12
212.596	0.08
212.815	-0.3
213.034	-0.02
213.253	0.15
213.472	0.07
213.691	-0.37
213.91	-0.41
214.128	-0.13
214.347	0.22
214.566	-0.42
214.785	-0.58
215.003	0.13
215.222	0.06
215.441	-0.15
215.66	-0.39
215.878	-0.16
216.097	0.23
216.316	-0.39
216.534	-0.27
216.753	0.07
216.972	-0.25
217.19	-0.24
217.409	-0.32
217.627	-0.17
217.846	-0.17
218.064	-0.05
218.283	-0.45
218.501	0.33
218.72	0.04
218.938	-0.27
219.157	-0.3
219.375	0.16
219.594	-0.26
219.812	-0.3
220.031	-0.28
220.249	0.21
220.467	0.31
220.686	-0.25
220.904	-0.26
221.122	-0.2
221.341	0.2
221.559	-0.07
221.777	-0.39
221.995	-0.14
222.214	-0.11
222.432	-0.28
222.65	0.03
222.868	-0.06
223.086	-0.02
223.305	0.02
223.523	-0.2
223.741	0.25
223.959	-0.26
224.177	-0.38
224.395	-0.17
224.613	-0.1
224.831	0.07
225.049	-0.32
225.267	-0.22
225.485	0.03
225.703	-0.18
225.921	-0.16
226.139	-0.12
226.357	-0.01
226.575	0.08
226.793	-0.22
227.011	0.54
227.229	-0.05
227.447	0.08
227.665	-0.15
227.883	-0.31
228.1	-0.05
228.318	-0.02
228.536	-0.45
228.754	-0.3
228.972	-0.05
229.189	-0.06
229.407	-0.21
229.625	-0.06
229.843	0.09
230.06	0.13
230.278	-0.23
230.496	-0.18
230.713	-0
230.931	0.13
231.149	-0.09
231.366	-0.42
231.584	-0.16
231.801	0.36
232.019	-0.22
232.236	-0.08
232.454	-0.1
232.671	0.09
232.889	-0.05
233.106	-0.22
233.324	0.05
233.541	0.01
233.759	0.01
233.976	-0.14
234.194	-0.08
234.411	-0.04
234.628	-0.14
234.846	-0.11
235.063	-0.08
235.28	0.01
235.498	-0.07
235.715	-0.12
235.932	0.1
236.149	-0.01
236.367	-0.14
236.584	-0.04
236.801	-0.23
237.018	0
237.236	-0.11
237.453	-0.25
237.67	0.15
237.887	-0.14
238.104	-0.13
238.321	-0.12
238.538	-0.21
238.755	0.16
238.973	-0.19
239.19	-0.19
239.407	-0
239.624	0
239.841	-0.2
240.058	-0.22
240.275	0.01
240.492	-0.11
240.709	-0.09
240.925	-0.1
241.142	0.01
241.359	-0.17
241.576	-0.08
241.793	-0.07
242.01	-0.02
242.227	0.03
242.444	-0.07
242.66	0.02
242.877	-0.01
243.094	-0.1
243.311	-0.06
243.527	-0.15
243.744	0.01
243.961	-0.08
244.178	-0.14
244.394	-0.08
244.611	0.12
244.828	0.19
245.044	-0.12
245.261	-0.12
245.477	0.05
245.694	-0.04
245.911	-0.12
246.127	-0.03
246.344	0.15
246.56	0.07
246.777	-0.12
246.993	-0.05
247.21	0.05
247.426	0.05
247.643	-0.12
247.859	-0.19
248.076	-0.16
248.292	0.15
248.508	-0.1
248.725	-0.05
248.941	-0
249.157	0.1
249.374	-0.11
249.59	-0.09
249.806	-0.09
250.023	0.13
250.239	-0.14
250.455	-0.18
250.671	-0.11
250.888	0.02
251.104	-0.05
251.32	-0.09
251.536	-0.03
251.752	-0.03
251.969	-0.05
252.185	0.01
252.401	0.09
252.617	-0.13
252.833	-0.15
253.049	-0.1
253.265	-0.04
253.481	0
253.697	-0.08
253.913	-0.08
254.129	-0.03
254.345	0.01
254.561	-0.14
254.777	-0.05
254.993	0.06
255.209	0.03
255.425	-0.13
255.641	-0.15
255.857	0.01
256.073	-0.03
256.288	-0.12
256.504	-0.05
256.72	-0.07
256.936	0.12
257.152	-0.04
257.367	-0.13
257.583	-0.03
257.799	0.01
258.015	-0.12
258.23	-0.14
258.446	0.15
258.662	-0.04
258.877	-0.15
259.093	-0.14
259.309	-0.06
259.524	-0.06
259.74	-0.06
259.955	-0.17
260.171	-0.07
260.387	-0.05
260.602	0.02
260.818	-0.03
261.033	-0.13
261.249	-0.05
261.464	-0.09
261.68	-0.17
261.895	0.02
262.11	0.07
262.326	-0.07
262.541	-0.14
262.757	-0
262.972	0.01
263.187	-0.06
263.403	-0.11
263.618	0.05
263.833	-0.04
264.049	-0.12
264.264	-0.06
264.479	0.02
264.694	0.03
264.91	-0.15
265.125	-0.01
265.34	-0.01
265.555	0.12
265.77	-0.09
265.986	-0.1
266.201	-0.01
266.416	0.11
266.631	-0.09
266.846	-0.06
267.061	0.04
267.276	0.03
267.491	-0.15
267.706	0.04
267.921	0.03
268.136	0.02
268.351	-0.04
268.566	-0.12
268.781	-0
268.996	0.02
269.211	-0.06
269.426	-0.05
269.641	-0.06
269.856	-0.02
270.071	-0.09
270.285	-0.1
270.5	0.08
270.715	0.06
270.93	-0.08
271.145	-0.01
271.359	-0.01
271.574	-0.09
271.789	-0.06
272.004	-0.08
272.218	-0.03
272.433	0.02
272.648	-0.11
272.862	0.02
273.077	-0.04
273.292	0.01
273.506	-0.12
273.721	-0.08
273.936	-0.03
274.15	0.02
274.365	-0.09
274.579	-0.03
274.794	0
275.008	0.01
275.223	-0.12
275.437	-0.07
275.652	0.05
275.866	-0.02
276.081	-0.02
276.295	0.03
276.509	-0.05
276.724	-0.01
276.938	-0.02
277.153	-0.02
277.367	0.03
277.581	-0.08
277.796	-0.02
278.01	-0.09
278.224	0.03
278.438	0.1
278.653	-0.07
278.867	-0.1
279.081	-0.13
279.295	-0.03
279.51	0.03
279.724	-0.11
279.938	-0.03
280.152	0.02
280.366	-0.08
280.58	-0.05
280.794	0.07
281.008	-0.01
281.222	-0.01
281.437	0.11
281.651	-0.02
281.865	0.03
282.079	-0.03
282.293	-0.14
282.507	-0.06
282.721	-0.01
282.935	-0.04
283.148	-0.1
283.362	-0.04
283.576	-0.04
283.79	-0.01
284.004	-0.1
284.218	0.05
284.432	-0.03
284.646	-0.03
284.859	-0.05
285.073	-0.08
285.287	0.03
285.501	-0.05
285.714	-0.05
285.928	-0.02
286.142	-0.01
286.356	-0.1
286.569	-0.07
286.783	0.04
286.997	0.02
287.21	0.02
287.424	0
287.637	-0.08
287.851	-0.05
288.065	-0.01
288.278	-0.08
288.492	0.01
288.705	-0.08
288.919	0.04
289.132	-0.09
289.346	0.06
289.559	-0.09
289.773	-0.09
289.986	-0.02
290.2	-0.03
290.413	0.05
290.626	-0.09
290.84	-0.08
291.053	0
291.267	0.04
291.48	-0.01
291.693	-0.01
291.906	-0.07
292.12	-0.02
292.333	-0.06
292.546	-0.01
292.76	0.07
292.973	0.01
293.186	0.02
293.399	-0.08
293.612	0.05
293.826	-0.01
294.039	-0.04
294.252	-0.05
294.465	0
294.678	0.03
294.891	-0.05
295.104	-0.06
295.317	-0.06
295.53	0.03
295.743	0.01
295.956	-0.02
296.169	0.08
296.382	0.05
296.595	-0
296.808	-0.1
297.021	0.03
297.234	0.03
297.447	-0.06
297.66	0.01
297.873	0.03
298.086	0.04
298.299	-0.05
298.511	-0.1
298.724	-0.06
298.937	-0.04
299.15	-0.04
299.363	-0
299.575	0.04
299.788	-0
300.001	-0.04
300.213	-0.12
300.426	-0.03
300.639	-0.02
300.852	-0.07
301.064	0
301.277	0.08
301.489	0.02
301.702	-0.01
301.915	0
302.127	-0.02
302.34	-0.04
302.552	-0.04
302.765	-0.08
302.977	0.05
303.19	-0.07
303.402	-0
303.615	-0.02
303.827	-0.07
304.04	-0.02
304.252	0.03
304.464	-0.05
304.677	0.1
304.889	0.01
305.102	-0.05
305.314	-0
305.526	0.04
305.739	0.01
305.951	-0.07
306.163	-0.05
306.375	0.04
306.588	-0.02
306.8	-0.05
307.012	-0.09
307.224	0.01
307.436	0.07
307.649	-0.1
307.861	-0.02
308.073	0.02
308.285	-0.02
308.497	-0.09
308.709	-0.03
308.921	-0.01
309.133	0.03
309.346	0.01
309.558	-0.04
309.77	0
309.982	0.02
310.194	0.03
310.406	-0.03
310.617	0.09
310.829	-0.02
311.041	-0.03
311.253	-0.05
311.465	-0.01
311.677	-0.03
311.889	-0.02
312.101	-0.04
312.313	0.03
312.524	0.05
312.736	-0.11
312.948	-0.07
313.16	0.09
313.372	-0.02
313.583	0
313.795	-0.01
314.007	-0.02
314.218	0.03
314.43	0.01
314.642	-0.03
314.853	-0.07
315.065	0.02
315.277	-0.02
315.488	0
315.7	0.04
315.912	-0.01
316.123	-0.01
316.335	-0.03
316.546	0.11
316.758	-0
316.969	-0.06
317.181	-0
317.392	-0.08
317.604	0.05
317.815	-0.06
318.026	-0.07
318.238	-0.05
318.449	-0.03
318.661	-0.08
318.872	-0.1
319.083	-0.07
319.295	0.04
319.506	-0.02
319.717	-0.06
319.929	0
320.14	-0.01
320.351	-0.01
320.562	-0.04
320.774	-0.04
320.985	-0.05
321.196	-0.05
321.407	-0.09
321.618	-0.01
321.829	0.02
322.041	0.03
322.252	-0.06
322.463	-0.01
322.674	-0
322.885	-0.09
323.096	-0.04
323.307	-0.02
323.518	0.01
323.729	-0.03
323.94	-0.02
324.151	-0.05
324.362	-0.02
324.573	-0.01
324.784	-0.05
324.995	0.04
325.206	0.02
325.417	-0.01
325.628	-0.01
325.838	0.03
326.049	-0.01
326.26	-0
326.471	-0.03
326.682	0.01
326.892	0.01
327.103	-0.1
327.314	-0.05
327.525	0.05
327.735	-0
327.946	-0.04
328.157	-0.05
328.368	-0.03
328.578	-0.04
328.789	0.02
328.999	-0.04
329.21	-0.01
329.421	-0.01
329.631	-0.02
329.842	-0.06
330.052	0.03
330.263	0.01
330.473	-0.02
330.684	-0.09
330.894	-0.04
331.105	-0.01
331.315	-0.02
331.526	-0.07
331.736	0.05
331.947	-0.02
332.157	0
332.367	-0.07
332.578	0.02
332.788	0.04
332.999	0.04
333.209	-0.02
333.419	-0.06
333.629	0.01
333.84	0.03
334.05	-0.05
334.26	0.02
334.47	-0.05
334.681	0
334.891	-0.05
335.101	0.04
335.311	0.05
335.521	0
335.732	-0.06
335.942	0.07
336.152	0.01
336.362	0.02
336.572	0.02
336.782	0.06
336.992	-0.04
337.202	-0.03
337.412	-0.05
337.622	0.01
337.832	-0.04
338.042	-0.04
338.252	-0.06
338.462	-0.02
338.672	-0.01
338.882	-0.05
339.092	-0.05
339.302	0.01
339.511	0
339.721	-0.05
339.931	-0.09
340.141	0.08
340.351	0.04
340.561	-0.01
340.77	-0
340.98	-0
341.19	-0
341.4	-0.02
341.609	-0.08
341.819	-0.01
342.029	-0.07
342.238	-0.02
342.448	-0.08
342.658	0.02
342.867	-0.03
343.077	0
343.286	-0.02
343.496	0.01
343.706	0.05
343.915	-0.09
344.125	-0.03
344.334	-0
344.544	-0.06
344.753	-0.04
344.963	-0.06
345.172	-0.04
345.381	-0.05
345.591	-0.07
345.8	0.01
346.01	0.09
346.219	0.07
346.428	-0.15
346.638	-0.02
346.847	-0.04
347.056	0.04
347.266	-0.05
347.475	-0
347.684	-0
347.893	0.04
348.103	-0.03
348.312	-0.06
348.521	-0.01
348.73	-0.01
348.94	0.01
349.149	-0.01
349.358	-0.07
349.567	-0.06
349.776	-0.1
349.985	-0.02
350.194	0.04
350.403	0.06
350.612	-0.08
350.821	-0.05
351.03	-0.02
351.239	-0.07
351.448	-0.03
351.657	-0.01
351.866	0.08
352.075	0.01
352.284	-0.03
352.493	-0.08
352.702	0.04
352.911	-0
353.12	0.02
353.329	-0.04
353.538	-0
353.746	-0.02
353.955	-0.03
354.164	-0.01
354.373	-0.03
354.582	0.01
354.79	-0.01
354.999	0.01
355.208	-0.07
355.416	0.07
355.625	-0.05
355.834	-0.06
356.042	-0.03
356.251	-0.03
356.46	-0.05
356.668	-0
356.877	0.08
357.085	-0.02
357.294	-0.05
357.503	-0
357.711	-0.06
357.92	0.09
358.128	0
358.337	-0.05
358.545	0.02
358.754	-0.05
358.962	0.03
359.17	-0
359.379	0.04
359.587	0.02
359.796	-0.01
360.004	0.01
360.212	0.02
360.421	0.05
360.629	-0.02
360.837	-0.01
361.046	0.02
361.254	0.05
361.462	-0.04
361.67	-0.06
361.879	-0.04
362.087	0.08
362.295	0.01
362.503	-0.02
362.711	-0.05
362.92	-0.02
363.128	-0.06
363.336	-0.03
363.544	-0.07
363.752	-0.01
363.96	-0.05
364.168	-0
364.376	-0.05
364.584	-0.04
364.792	0
365	0.02
365.208	-0.02
365.416	-0.01
365.624	0.02
365.832	-0.04
366.04	0.04
366.248	-0.01
366.456	0.03
366.664	0
366.872	-0.03
367.079	-0.02
367.287	0.02
367.495	-0
367.703	-0.02
367.911	-0.03
368.118	-0.04
368.326	-0.05
368.534	-0.04
368.742	0.04
368.949	-0.06
369.157	-0.08
369.365	-0.02
369.572	-0.01
369.78	-0.02
369.988	0.05
370.195	0
370.403	-0.02
370.61	-0.04
370.818	-0.04
371.026	0.06
371.233	-0.05
371.441	-0.01
371.648	-0.05
371.856	-0.02
372.063	-0.01
372.271	-0.05
372.478	-0.05
372.685	-0.06
372.893	0.02
373.1	-0
373.308	-0.04
373.515	0.03
373.722	-0
373.93	-0.02
374.137	-0.01
374.344	0.09
374.552	-0.01
374.759	-0.01
374.966	-0.06
375.173	-0.02
375.381	0.01
375.588	-0.03
375.795	-0.09
376.002	-0.01
376.209	-0.05
376.417	-0.02
376.624	-0.07
376.831	-0.02
377.038	-0.01
377.245	-0.06
377.452	-0.03
377.659	-0.03
377.866	-0.04
378.073	-0.06
378.28	-0.04
378.487	0.05
378.694	-0
378.901	-0.05
379.108	-0.04
379.315	-0
379.522	0.04
379.729	-0.02
379.936	-0
380.143	-0.04
380.35	-0.03
380.557	-0.04
380.763	-0.05
380.97	-0.02
381.177	-0
381.384	-0.03
381.591	-0.09
381.797	-0.03
382.004	0.02
382.211	0.03
382.418	-0.02
382.624	0.03
382.831	0.03
383.038	-0.04
383.244	-0.04
383.451	0
383.658	0.01
383.864	-0.03
384.071	-0.06
384.277	0.03
384.484	-0.09
384.69	0.02
384.897	-0.04
385.103	-0.03
385.31	-0.07
385.516	-0.01
385.723	-0.07
385.929	-0.01
386.136	-0.04
386.342	0.04
386.549	-0.02
386.755	0.03
386.961	0.02
387.168	-0.06
387.374	-0.01
387.58	0.05
387.787	-0
387.993	0
388.199	-0.04
388.406	-0.06
388.612	-0.03
388.818	0
389.024	-0.07
389.231	0
389.437	0.05
389.643	0.02
389.849	-0.05
390.055	-0.04
390.261	-0.03
390.467	-0.01
390.674	-0.06
390.88	-0.03
391.086	0
391.292	-0.04
391.498	0.04
391.704	0.03
391.91	-0.02
392.116	-0.07
392.322	-0.1
392.528	-0.01
392.734	-0.05
392.94	-0.03
393.146	-0
393.352	0.01
393.557	-0.04
393.763	-0.03
393.969	0.05
394.175	-0.05
394.381	-0.01
394.587	-0.06
394.792	-0.01
394.998	0.02
395.204	0.01
395.41	-0.04
395.615	-0
395.821	-0.03
396.027	-0
396.233	-0.07
396.438	-0.03
396.644	0.02
396.85	-0
397.055	-0
397.261	-0.01
397.466	-0.02
397.672	-0
397.878	0.02
398.083	-0
398.289	-0.03
398.494	-0.01
398.7	0.05
398.905	-0.1
399.111	0.07
399.316	-0.03
399.522	-0.01
399.727	-0.03
399.932	0
400.138	-0.01
400.343	0.04
400.549	0.02
400.754	-0.03
400.959	-0.02
401.165	0.01
401.37	-0.02
401.575	0.06
401.78	-0.02
401.986	-0.05
402.191	-0.04
402.396	-0.02
402.601	-0.01
402.807	-0.01
403.012	-0.05
403.217	0
403.422	-0.04
403.627	-0.08
403.832	-0.05
404.037	0.01
404.243	-0.04
404.448	-0.06
404.653	-0.03
404.858	-0.03
405.063	0.02
405.268	-0.07
405.473	-0.08
405.678	-0.02
405.883	0.14
406.088	-0.02
406.293	-0.05
406.498	-0.07
406.703	0.05
406.907	-0.06
407.112	-0.06
407.317	0.04
407.522	0.04
407.727	-0.08
407.932	0.02
408.136	0.07
408.341	-0.02
408.546	-0.03
408.751	-0.02
408.956	-0.04
409.16	0.01
409.365	0.01
409.57	-0.04
409.774	-0.01
409.979	0.01
410.184	0.02
410.388	-0.06
410.593	0.04
410.798	0.02
411.002	-0.03
411.207	0.01
411.411	-0.02
411.616	-0.09
411.82	-0.03
412.025	0.01
412.229	-0.05
412.434	0.07
412.638	0.02
412.843	-0.02
413.047	0.01
413.252	-0.06
413.456	-0.06
413.66	0.03
413.865	0.01
414.069	0.06
414.273	-0.06
414.478	-0.04
414.682	-0.01
414.886	-0.06
415.091	-0.01
415.295	-0.09
415.499	0.02
415.703	-0.02
415.908	0.03
416.112	-0.05
416.316	0.03
416.52	-0.04
416.724	-0.08
416.929	-0.08
417.133	0.09
417.337	-0.02
417.541	-0.03
417.745	-0.01
417.949	0.05
418.153	-0
418.357	-0.04
418.561	0.12
418.765	0.03
418.969	0.1
419.173	0.03
419.377	-0.08
419.581	0.11
419.785	-0.02
419.989	-0.05
420.193	0.01
420.397	-0.02
420.601	0.06
420.804	0.03
421.008	0.01
421.212	0.03
421.416	0.08
421.62	-0.04
421.823	0
422.027	0.1
422.231	0.02
422.435	-0.01
422.638	0.03
422.842	-0.01
423.046	-0.04
423.249	0
423.453	0.03
423.657	0.02
423.86	-0.02
424.064	0.02
424.268	0.11
424.471	0.01
424.675	0.1
424.878	0.05
425.082	0.02
425.285	0.11
425.489	0
425.692	0.05
425.896	-0.01
426.099	0.07
426.303	-0.06
426.506	-0.08
426.71	0.03
426.913	0.03
427.116	0.08
427.32	-0.01
427.523	0.01
427.726	0.03
427.93	-0.04
428.133	-0.01
428.336	-0.07
428.54	-0.04
428.743	0.07
428.946	0.03
429.149	-0.04
429.353	0.01
429.556	-0.01
429.759	-0.05
429.962	-0.02
430.165	-0.04
430.368	-0.01
430.571	-0.05
430.775	0
430.978	-0.02
431.181	0
431.384	-0.01
431.587	-0.02
431.79	0
431.993	-0.1
432.196	0.01
432.399	-0.02
432.602	0.04
432.805	0.01
433.008	-0
433.211	-0.07
433.414	0.06
433.616	-0.02
433.819	-0.01
434.022	-0.07
434.225	0.07
434.428	-0.02
434.631	0.09
434.833	-0.01
435.036	-0.05
435.239	0.07
435.442	0.01
435.645	-0.07
435.847	-0.02
436.05	0.04
436.253	-0.03
436.455	-0.06
436.658	-0
436.861	0.1
437.063	-0.05
437.266	-0.05
437.468	-0.03
437.671	0.15
437.874	0.02
438.076	-0.06
438.279	-0.08
438.481	-0.01
438.684	-0.07
438.886	-0.03
439.089	-0.09
439.291	0.04
439.494	0.03
439.696	-0.05
439.899	-0.04
440.101	-0.04
440.303	-0.09
440.506	0.02
440.708	-0.04
440.91	0.02
441.113	-0.02
441.315	-0
441.517	-0.07
441.72	0.03
441.922	-0.05
442.124	-0.07
442.326	0.01
442.529	0.12
442.731	-0.05
442.933	0.09
443.135	-0.01
443.337	-0.07
443.539	-0.05
443.742	-0.03
443.944	0.03
444.146	0.01
444.348	-0.07
444.55	-0.09
444.752	-0.06
444.954	-0.05
445.156	0.01
445.358	-0.07
445.56	0.06
445.762	-0.07
445.964	-0.01
446.166	-0.02
446.368	-0.04
446.57	-0.03
446.772	-0.06
446.974	-0.01
447.175	0.01
447.377	-0.04
447.579	-0.05
447.781	-0.1
447.983	0.06
448.184	0.01
448.386	0.01
448.588	-0.07
448.79	-0.02
448.991	-0.04
449.193	-0.05
449.395	-0.02
449.597	0.04
449.798	-0.01
450	-0.03
450.202	-0.03
450.403	0.01
450.605	0
450.806	0.01
451.008	-0.1
451.21	-0.05
451.411	-0.03
451.613	-0.02
451.814	-0.04
452.016	0.03
452.217	-0.01
452.419	-0.03
452.62	-0.04
452.821	-0.03
453.023	-0.01
453.224	0.02
453.426	-0.01
453.627	-0.01
453.828	0.03
454.03	-0.04
454.231	-0.01
454.432	-0.06
454.634	0.12
454.835	-0.03
455.036	-0.01
455.238	0.01
455.439	0.02
455.64	-0.09
455.841	-0.05
456.042	-0.02
456.244	0.01
456.445	-0.06
456.646	-0.14
456.847	-0.11
457.048	0
457.249	0.04
457.45	0.18
457.651	-0.06
457.852	0.05
458.054	-0.02
458.255	-0.02
458.456	0.02
458.657	-0.01
458.858	-0.04
459.058	-0.04
459.259	0.02
459.46	-0.05
459.661	-0.03
459.862	0.05
460.063	-0.05
460.264	0
460.465	-0.05
460.666	0.09
460.866	0
461.067	-0.03
461.268	-0.04
461.469	-0.02
461.67	-0.05
461.87	-0.08
462.071	-0.06
462.272	-0.07
462.473	-0
462.673	0.01
462.874	-0.07
463.075	-0.01
463.275	-0.06
463.476	0.01
463.676	0.03
463.877	-0
464.078	-0.09
464.278	0.03
464.479	-0.06
464.679	-0.06
464.88	-0.05
465.08	0.03
465.281	-0.05
465.481	-0.07
465.682	-0.02
465.882	0.01
466.083	-0.03
466.283	-0
466.483	-0.02
466.684	-0.08
466.884	-0.05
467.085	-0.01
467.285	0.07
467.485	-0.03
467.686	-0.03
467.886	-0.06
468.086	-0.03
468.286	0
468.487	0.01
468.687	-0.07
468.887	-0
469.087	0.01
469.287	-0.03
469.488	-0.08
469.688	0.03
469.888	0.03
470.088	0.01
470.288	-0
470.488	0.07
470.688	-0.05
470.888	-0.03
471.088	-0.05
471.288	0.04
471.488	0.02
471.688	0.01
471.888	-0.04
472.088	0.05
472.288	0.01
472.488	-0.06
472.688	-0.04
472.888	0
473.088	-0.01
473.288	0.02
473.488	-0.06
473.688	0.06
473.887	-0
474.087	-0.03
474.287	-0.03
474.487	-0.06
474.687	-0.02
474.886	-0.02
475.086	-0.02
475.286	0.01
475.486	0.01
475.685	0.01
475.885	-0.03
476.085	-0.03
476.284	0.01
476.484	-0.03
476.684	-0.02
476.883	0.04
477.083	0.02
477.282	-0.06
477.482	0.05
477.681	0.03
477.881	0.03
478.08	-0.05
478.28	-0.04
478.479	-0
478.679	0.06
478.878	-0.02
479.078	-0.03
479.277	-0.03
479.477	-0.03
479.676	-0
479.875	-0.02
480.075	-0.08
480.274	0.02
480.473	0.02
480.673	-0.06
480.872	0.03
481.071	-0.03
481.271	0.01
481.47	-0.03
481.669	-0.02
481.868	-0.03
482.067	-0.05
482.267	-0.02
482.466	-0.06
482.665	-0.06
482.864	-0.08
483.063	-0.07
483.262	-0.01
483.461	0.04
483.661	0.02
483.86	-0.01
484.059	-0.02
484.258	-0
484.457	0.01
484.656	-0.01
484.855	0.03
485.054	-0.07
485.253	-0.03
485.452	-0.05
485.651	-0.02
485.849	-0
486.048	-0.06
486.247	-0.07
486.446	-0.02
486.645	-0.05
486.844	-0.03
487.043	-0.04
487.241	0.02
487.44	-0.05
487.639	-0.04
487.838	0.01
488.037	-0.02
488.235	0.03
488.434	0.01
488.633	-0.05
488.831	0
489.03	-0
489.229	0
489.427	-0.03
489.626	0.05
489.825	0.06
490.023	-0.01
490.222	-0.04
490.42	-0.01
490.619	0.01
490.817	-0.02
491.016	-0.01
491.214	0.03
491.413	-0.02
491.611	-0.03
491.81	0
492.008	0.01
492.207	0
492.405	0.02
492.604	-0.06
492.802	-0.03
493	-0.01
493.199	-0.03
493.397	-0
493.595	-0
493.794	-0.02
493.992	0.03
494.19	-0.01
494.388	0.02
494.587	-0
494.785	0
494.983	-0.04
495.181	-0
495.379	-0
495.578	-0
495.776	0.02
495.974	0
496.172	-0.02
496.37	-0.04
496.568	-0.05
496.766	-0.03
496.964	0.03
497.162	-0.01
497.36	-0.05
497.558	0.01
497.756	0.01
497.954	-0.01
498.152	-0.04
498.35	0.01
498.548	-0.02
498.746	-0.02
498.944	-0.03
499.142	-0.03
499.34	-0.04
499.538	-0.04
499.736	-0.04
499.933	0.03
500.131	0.03
500.329	-0.01
500.527	0
500.725	0.02
500.922	0.02
501.12	-0.02
501.318	-0.01
501.516	-0.02
501.713	-0.01
501.911	-0.01
502.109	-0.02
502.306	0
502.504	-0.01
502.701	-0.02
502.899	-0.03
503.097	0.03
503.294	-0
503.492	-0.01
503.689	-0
503.887	0.03
504.084	0.01
504.282	-0.01
504.479	-0.06
504.677	-0
504.874	-0.04
505.072	-0.01
505.269	-0.02
505.466	0.01
505.664	-0
505.861	-0.05
506.059	-0.03
506.256	-0
506.453	-0.03
506.651	0.03
506.848	-0.01
507.045	-0.01
507.242	-0.01
507.44	-0.02
507.637	0.03
507.834	-0.01
508.031	-0
508.229	-0.03
508.426	-0.02
508.623	0.02
508.82	-0.04
509.017	-0.03
509.214	-0.02
509.411	-0.02
509.608	-0.04
509.805	-0
510.003	-0.02
510.2	-0.03
510.397	0
510.594	-0.05
510.791	-0.06
510.988	-0.04
511.184	0.03
511.381	0.01
511.578	-0.03
511.775	0.02
511.972	-0.02
512.169	-0.03
512.366	0.01
512.563	0.01
512.76	-0.04
512.956	-0.01
513.153	-0.01
513.35	0.01
513.547	-0.03
513.744	-0.02
513.94	-0.05
514.137	-0.01
514.334	-0.01
514.53	0
514.727	-0
514.924	0.04
515.12	-0.03
515.317	-0.08
515.514	-0.02
515.71	-0.03
515.907	-0.01
516.103	0
516.3	-0.01
516.497	0.02
516.693	0.03
516.89	-0.01
517.086	-0.03
517.283	0.02
517.479	0
517.676	-0.03
517.872	-0.02
518.068	-0.05
518.265	-0.02
518.461	-0.04
518.658	-0.04
518.854	0
519.05	-0.03
519.247	-0.03
519.443	-0
519.639	-0
519.836	0
520.032	-0.01
520.228	-0.01
520.424	0.03
520.621	0.01
520.817	0.01
521.013	0.01
521.209	0
521.405	0.03
521.601	-0.01
521.798	-0.01
521.994	0.03
522.19	-0.02
522.386	-0.04
522.582	-0.01
522.778	0.02
522.974	-0
523.17	0.01
523.366	0
523.562	0.02
523.758	-0.01
523.954	-0.03
524.15	-0.01
524.346	0
524.542	-0.01
524.738	-0.03
524.934	-0.02
525.129	-0.03
525.325	0
525.521	-0.01
525.717	0.01
525.913	-0.01
526.109	0.01
526.304	-0.03
526.5	0.01
526.696	0.02
526.892	-0.01
527.087	-0.01
527.283	-0.02
527.479	0
527.674	-0.03
527.87	-0.03
528.066	-0.02
528.261	0.03
528.457	0.01
528.653	-0.01
528.848	-0.01
529.044	0.01
529.239	-0
529.435	0.01
529.63	-0.02
529.826	0.03
530.021	0
530.217	0.02
530.412	-0.03
530.608	-0.02
530.803	-0.01
530.999	-0.02
531.194	-0.05
531.389	0
531.585	-0.07
531.78	-0.03
531.975	-0.01
532.171	0
532.366	-0.01
532.561	-0.03
532.757	-0.03
532.952	-0.03
533.147	0.03
533.342	-0.02
533.538	-0.03
533.733	0.01
533.928	-0.01
534.123	-0.04
534.318	-0.03
534.513	-0.02
534.709	-0.01
534.904	-0.03
535.099	-0.02
535.294	-0.03
535.489	0
535.684	-0.02
535.879	-0.05
536.074	-0
536.269	-0.03
536.464	-0
536.659	-0.04
536.854	-0.02
537.049	-0
537.244	-0.01
537.439	-0.03
537.634	0.02
537.828	0.01
538.023	-0.03
538.218	-0.06
538.413	-0
538.608	-0.04
538.803	0
538.997	-0.04
539.192	0.03
539.387	-0.01
539.582	0.01
539.776	-0.01
539.971	-0.02
540.166	-0.02
540.36	-0.04
540.555	-0.01
540.75	-0.04
540.944	-0.02
541.139	-0.04
541.334	-0.01
541.528	0.01
541.723	0
541.917	-0.03
542.112	-0.05
542.306	-0.02
542.501	-0.02
542.695	-0.02
542.89	-0.03
543.084	-0.02
543.279	-0.03
543.473	-0.02
543.668	-0.03
543.862	-0.02
544.056	-0.01
544.251	-0.01
544.445	-0.01
544.64	-0.02
544.834	-0.03
545.028	-0.03
545.222	-0.01
545.417	0.02
545.611	-0.01
545.805	-0.01
546	-0.02
546.194	-0.02
546.388	-0.03
546.582	0.01
546.776	-0.01
546.97	-0.02
547.165	0
547.359	0.01
547.553	-0.04
547.747	-0.02
547.941	0.01
548.135	-0.02
548.329	-0
548.523	0.01
548.717	-0.01
548.911	-0.02
549.105	-0.05
549.299	-0.02
549.493	0.02
549.687	-0
549.881	-0.01
550.075	-0.01
550.269	-0.05
550.463	0.01
550.657	-0.03
550.85	-0.03
551.044	-0.02
551.238	-0.02
551.432	-0.03
551.626	-0.03
551.82	0.01
552.013	-0.02
552.207	-0.01
552.401	-0
552.594	-0
552.788	-0.03
552.982	-0.01
553.176	-0.02
553.369	-0.03
553.563	0.01
553.756	-0.04
553.95	-0.03
554.144	-0.02
554.337	0.05
554.531	-0.01
554.724	0
554.918	-0.03
555.111	0
555.305	0.01
555.498	0.03
555.692	0
555.885	-0.03
556.079	-0
556.272	-0.03
556.466	0.01
556.659	-0
556.852	0
557.046	-0.02
557.239	0.02
557.432	-0.04
557.626	-0.05
557.819	-0
558.012	0.02
558.206	0
558.399	0.01
558.592	0
558.785	-0.01
558.979	0.02
559.172	-0.01
559.365	0.01
559.558	-0.01
559.751	-0.01
559.944	-0.01
560.138	-0.02
560.331	-0.03
560.524	-0.02
560.717	-0.02
560.91	-0
561.103	0.01
561.296	-0.01
561.489	-0
561.682	-0.02
561.875	0.02
562.068	0.03
562.261	-0
562.454	0.04
562.647	-0
562.84	-0.01
563.032	-0.02
563.225	0
563.418	-0.02
563.611	-0.03
563.804	-0.02
563.997	-0.03
564.19	-0.05
564.382	0.01
564.575	-0.02
564.768	-0.02
564.961	-0.01
565.153	-0.03
565.346	0.02
565.539	0
565.731	0.01
565.924	0.02
566.117	0.02
566.309	-0.01
566.502	-0.04
566.695	-0.02
566.887	-0.01
567.08	-0.02
567.272	-0.03
567.465	-0.01
567.657	-0
567.85	-0.02
568.042	-0
568.235	0.03
568.427	-0.02
568.62	0
568.812	-0.01
569.005	-0.02
569.197	-0.04
569.389	0
569.582	0
569.774	0.01
569.966	-0.04
570.159	-0.04
570.351	0.01
570.543	-0.03
570.736	-0.01
570.928	-0.03
571.12	0.01
571.312	-0.05
571.505	-0.04
571.697	0.02
571.889	-0.02
572.081	-0.02
572.273	-0.05
572.465	0.02
572.658	-0.03
572.85	0
573.042	-0.03
573.234	-0.02
573.426	0.02
573.618	-0.04
573.81	-0.02
574.002	0.05
574.194	0.03
574.386	-0.05
574.578	-0.09
574.77	-0.04
574.962	-0.01
575.154	-0.05
575.346	-0.02
575.538	-0.01
575.729	-0.03
575.921	-0.02
576.113	-0.01
576.305	-0.01
576.497	-0.02
576.689	-0.03
576.88	-0.01
577.072	0.03
577.264	-0.03
577.456	-0.01
577.647	-0.07
577.839	0.01
578.031	0.01
578.223	-0.03
578.414	-0.04
578.606	0.03
578.798	-0.04
578.989	-0.05
579.181	-0.01
579.372	-0.01
579.564	-0.01
579.755	-0.01
579.947	-0.02
580.139	-0.01
580.33	-0.07
580.522	-0.05
580.713	-0.08
580.905	-0.01
581.096	0.02
581.287	-0.01
581.479	-0.02
581.67	0.01
581.862	0
582.053	-0.05
582.244	-0.08
582.436	-0.02
582.627	-0.03
582.818	-0.04
583.01	-0.04
583.201	0
583.392	0.01
583.583	-0.02
583.775	-0.03
583.966	-0.04
584.157	-0.03
584.348	-0.03
584.54	-0.05
584.731	-0.01
584.922	-0.01
585.113	-0.07
585.304	0.01
585.495	0.04
585.686	-0.01
585.877	-0
586.068	0
586.259	0.02
586.45	0.01
586.641	-0.03
586.832	-0.07
587.023	-0.02
587.214	0
587.405	-0.02
587.596	-0.05
587.787	0.01
587.978	-0
588.169	-0.04
588.36	-0.05
588.551	0
588.742	-0.02
588.932	-0.01
589.123	-0.03
589.314	0
589.505	-0.01
589.696	-0.02
589.886	-0.06
590.077	-0.05
590.268	0.02
590.458	-0.06
590.649	-0.07
590.84	0.03
591.03	-0.06
591.221	-0.05
591.412	-0.07
591.602	0.01
591.793	0.04
591.984	-0.05
592.174	-0.03
592.365	0.06
592.555	-0.04
592.746	0.02
592.936	-0.01
593.127	-0.01
593.317	0.02
593.508	-0.04
593.698	-0.03
593.889	0.01
594.079	-0.02
594.269	-0.04
594.46	-0.03
594.65	0.02
594.84	-0.01
595.031	-0.05
595.221	-0.04
595.411	-0.03
595.602	0.02
595.792	-0.06
595.982	-0.03
596.172	0.03
596.363	-0.02
596.553	-0.02
596.743	-0.04
596.933	0
597.123	0.04
597.314	-0.03
597.504	-0.03
597.694	0.03
597.884	0.01
598.074	-0.03
598.264	-0.03
598.454	-0
598.644	-0.03
598.834	-0.01
599.024	-0.07
599.214	-0.04
599.404	-0.01
599.594	-0.01
599.784	-0.05
599.974	0.03
600.164	0
600.354	-0.05
600.544	-0.08
600.734	-0.01
600.924	0.02
601.114	-0.05
601.303	0
601.493	0
601.683	-0.01
601.873	-0
602.063	-0.07
602.252	0.02
602.442	-0.07
602.632	-0.03
602.821	-0.06
603.011	0
603.201	-0.02
603.39	-0.06
603.58	-0.04
603.77	-0.01
603.959	0
604.149	-0.01
604.339	-0.04
604.528	0.02
604.718	0.02
604.907	-0.02
605.097	-0.04
605.286	-0.04
605.476	0.01
605.665	0.01
605.855	-0.02
606.044	0.05
606.234	-0.01
606.423	-0.03
606.612	-0.06
606.802	-0.01
606.991	0.01
607.181	0
607.37	-0.06
607.559	-0.03
607.749	-0.05
607.938	-0.05
608.127	-0.01
608.316	-0.02
608.506	0
608.695	-0.04
608.884	-0.05
609.073	-0.04
609.263	-0.01
609.452	-0.01
609.641	-0.02
609.83	-0.04
610.019	-0.01
610.208	-0.06
610.397	-0.02
610.586	0.01
610.775	-0.02
610.965	-0.04
611.154	-0.04
611.343	-0.01
611.532	-0.02
611.721	-0.05
611.91	-0.05
612.099	0.02
612.287	-0.01
612.476	-0.07
612.665	0.02
612.854	-0.03
613.043	0.01
613.232	-0.02
613.421	-0.05
613.61	-0.02
613.798	-0.05
613.987	0.01
614.176	-0.03
614.365	-0
614.554	0.02
614.742	0.02
614.931	-0.03
615.12	0
615.309	-0.04
615.497	0.01
615.686	-0.07
615.875	-0.01
616.063	-0.01
616.252	-0.04
616.44	-0.02
616.629	-0.03
616.818	0
617.006	-0.04
617.195	-0.04
617.383	-0
617.572	-0.02
617.76	-0.04
617.949	-0.05
618.137	0.02
618.326	-0
618.514	-0.07
618.703	-0.05
618.891	0.04
619.079	-0.08
619.268	0.01
619.456	-0.08
619.644	0.05
619.833	-0
620.021	-0.05
620.209	-0.09
620.398	-0.02
620.586	-0.03
620.774	0.02
620.962	-0.04
621.151	-0
621.339	-0.01
621.527	-0.06
621.715	-0.07
621.903	-0.07
622.092	-0.06
622.28	-0.03
622.468	-0.01
622.656	-0.04
622.844	0.01
623.032	-0.05
623.22	-0.09
623.408	0
623.596	0.02
623.784	-0.04
623.972	-0.04
624.16	-0.06
624.348	0.04
624.536	-0.03
624.724	-0.06
624.912	0.03
625.1	0
625.288	-0.07
625.476	-0.04
625.664	-0.02
625.851	-0.04
626.039	-0.03
626.227	-0
626.415	0.02
626.603	-0.07
626.79	-0.01
626.978	-0.02
627.166	0.03
627.354	0.01
627.541	-0.06
627.729	-0.05
627.917	0.01
628.104	0.03
628.292	-0.01
628.48	-0
628.667	0.02
628.855	-0.02
629.042	-0
629.23	-0.04
629.418	-0.02
629.605	-0.04
629.793	-0.03
629.98	-0.05
630.168	-0.01
630.355	-0.01
630.543	0
630.73	-0.04
630.917	0.02
631.105	0.04
631.292	-0.04
631.48	-0.02
631.667	0.05
631.854	-0.04
632.042	-0.04
632.229	-0.08
632.416	-0.03
632.604	-0
632.791	-0.07
632.978	0.04
633.165	-0.01
633.353	0.04
633.54	-0.01
633.727	-0.11
633.914	-0.07
634.101	0.03
634.289	0.02
634.476	-0.04
634.663	-0.05
634.85	0.02
635.037	-0.08
635.224	-0.1
635.411	-0.01
635.598	-0
635.785	-0.05
635.972	-0.03
636.159	0.04
636.346	-0.05
636.533	-0.04
636.72	-0.02
636.907	-0.04
637.094	0
637.281	0
637.468	-0.01
637.655	-0.03
637.842	-0.04
638.029	-0.05
638.215	0.01
638.402	-0
638.589	-0.07
638.776	-0.06
638.963	-0.01
639.149	-0.01
639.336	0.06
639.523	-0.04
639.709	-0.04
639.896	-0.03
640.083	0.06
640.27	0.01
640.456	-0.04
640.643	-0.01
640.829	-0.08
641.016	-0.02
641.203	-0.02
641.389	0.01
641.576	0
641.762	-0.04
641.949	-0.04
642.135	-0
642.322	-0
642.508	-0.07
642.695	-0.02
642.881	-0.06
643.068	-0.01
643.254	-0.03
643.441	0.02
643.627	-0.04
643.813	-0.05
644	0.01
644.186	-0.04
644.372	-0.02
644.559	0.02
644.745	-0.04
644.931	-0.03
645.118	-0.04
645.304	-0.02
645.49	-0.03
645.676	-0.05
645.862	-0.02
646.049	0.07
646.235	-0.05
646.421	0.08
646.607	0.03
646.793	-0.06
646.979	-0.06
647.165	-0
647.352	-0.02
647.538	-0
647.724	-0.02
647.91	-0
648.096	0.04
648.282	0.01
648.468	-0.02
648.654	-0.01
648.84	-0.02
649.026	-0.02
649.212	-0.01
649.397	-0.03
649.583	-0.07
649.769	-0.02
649.955	-0.03
650.141	-0.02
650.327	0.04
650.513	-0.04
650.698	0.01
650.884	-0.08
651.07	-0.01
651.256	-0.01
651.442	-0.02
651.627	-0.04
651.813	-0.04
651.999	-0.01
652.184	-0
652.37	-0.02
652.556	-0.03
652.741	0.03
652.927	-0.07
653.113	-0.01
653.298	-0.01
653.484	-0.06
653.669	-0.08
653.855	-0.03
654.04	0.02
654.226	0.01
654.412	-0.03
654.597	-0.09
654.782	-0.01
654.968	0.01
655.153	-0.01
655.339	-0.07
655.524	-0.06
655.71	0.02
655.895	-0.05
656.08	-0.01
656.266	0.03
656.451	0
656.636	-0.07
656.822	-0.03
657.007	-0.05
657.192	-0.02
657.378	-0.05
657.563	-0.02
657.748	-0.02
657.933	0
658.118	-0.04
658.304	-0.05
658.489	0
658.674	-0.01
658.859	-0.04
659.044	-0.01
659.229	-0.03
659.414	-0.07
659.599	-0.02
659.785	-0.07
659.97	-0.03
660.155	-0.02
660.34	-0
660.525	-0.02
660.71	-0.05
660.895	-0.04
661.08	-0.04
661.264	-0.03
661.449	0.05
661.634	0.02
661.819	-0.01
662.004	-0.03
662.189	-0.08
662.374	-0.05
662.559	-0.07
662.743	-0.08
662.928	-0.04
663.113	-0.04
663.298	-0.05
663.483	-0.01
663.667	0.01
663.852	-0.05
664.037	-0.01
664.221	-0.06
664.406	0.05
664.591	-0
664.775	-0.04
664.96	-0.01
665.145	-0.04
665.329	-0
665.514	-0.07
665.698	-0.01
665.883	-0.09
666.068	0.06
666.252	-0.05
666.437	-0.05
666.621	0
666.806	-0
666.99	-0.01
667.174	-0.04
667.359	0.01
667.543	-0.05
667.728	-0.05
667.912	-0.08
668.096	0.02
668.281	-0.02
668.465	-0.05
668.649	-0.03
668.834	-0.08
669.018	-0.06
669.202	-0.06
669.387	-0.09
669.571	0.01
669.755	-0.06
669.939	-0.03
670.124	-0.06
670.308	0.03
670.492	-0.01
670.676	-0.02
670.86	-0.04
671.044	-0.06
671.228	-0.03
671.413	-0.04
671.597	-0.04
671.781	-0.07
671.965	-0.02
672.149	-0.03
672.333	-0.01
672.517	-0.09
672.701	-0.01
672.885	-0.06
673.069	-0.11
673.253	0.06
673.437	-0.07
673.621	-0.07
673.804	-0.04
673.988	-0.01
674.172	-0.03
674.356	-0.07
674.54	-0.04
674.724	0.04
674.908	-0.01
675.091	0.01
675.275	-0.07
675.459	0
675.643	-0.04
675.826	-0.05
676.01	-0.04
676.194	-0.03
676.377	0.02
676.561	-0.02
676.745	-0.03
676.928	0.01
677.112	0.07
677.296	-0.08
677.479	-0.05
677.663	-0.05
677.846	-0.01
678.03	-0.07
678.213	-0.06
678.397	0.03
678.58	-0.04
678.764	-0.05
678.947	-0.07
679.131	-0.09
679.314	0.05
679.498	-0.04
679.681	-0.07
679.865	0.03
680.048	0.02
680.231	-0.04
680.415	0
680.598	-0.03
680.781	-0.01
680.965	-0.03
681.148	-0.01
681.331	0.01
681.514	0.02
681.698	-0.07
681.881	-0.03
682.064	-0.01
682.247	-0.07
682.43	-0.07
682.614	0.01
682.797	0.03
682.98	-0.02
683.163	-0.07
683.346	-0.01
683.529	-0.05
683.712	-0.03
683.895	0.01
684.078	-0.02
684.261	-0
684.444	-0.01
684.627	-0.02
684.81	-0.04
684.993	0
685.176	0.07
685.359	-0.09
685.542	-0.06
685.725	0.05
685.908	-0.05
686.091	-0.07
686.274	0.02
686.457	0.04
686.639	-0.03
686.822	0
687.005	0.01
687.188	0.01
687.371	0.12
687.553	-0.01
687.736	-0.01
687.919	0.06
688.102	0.02
688.284	-0.03
688.467	-0.01
688.65	0.02
688.832	-0.06
689.015	-0.04
689.197	-0.07
689.38	0.06
689.563	0.09
689.745	-0.07
689.928	-0.09
690.11	-0.01
690.293	0.02
690.475	-0.1
690.658	-0.03
690.84	-0.02
691.023	-0.06
691.205	-0.01
691.388	-0.06
691.57	0
691.752	-0.04
691.935	-0.11
692.117	-0.04
692.3	-0.02
692.482	-0.02
692.664	-0
692.847	0.03
693.029	-0
693.211	0.04
693.393	-0.04
693.576	-0.03
693.758	0.02
693.94	-0.07
694.122	-0.04
694.304	-0.03
694.487	-0.05
694.669	0.04
694.851	-0.11
695.033	-0.05
695.215	-0.09
695.397	-0.05
695.579	0
695.761	-0.06
695.943	-0.1
696.125	0.09
696.308	-0.02
696.49	-0.16
696.671	0.08
696.853	-0.05
697.035	0.15
697.217	-0.06
697.399	0.01
697.581	-0.03
697.763	-0.03
697.945	-0.09
698.127	0.02
698.309	0.04
698.491	-0.04
698.672	0.01
698.854	0.01
699.036	0.06
699.218	-0.04
699.399	0.04
699.581	0.08
699.763	-0.05
699.945	-0.09
700.126	-0.1
700.308	-0.02
700.49	-0.03
700.671	-0.13
700.853	-0.08
701.035	-0.08
701.216	-0.04
701.398	-0.1
701.579	0.03
701.761	0.02
701.943	-0.1
702.124	-0.09
702.306	-0.08
702.487	0.08
702.669	-0.07
702.85	-0.09
703.031	-0.09
703.213	0.1
703.394	0.08
703.576	-0.06
703.757	0.01
703.938	0
704.12	0.13
704.301	-0.03
704.483	-0.06
704.664	-0.02
704.845	0.14
705.026	0.04
705.208	-0.05
705.389	0.02
705.57	0
705.751	-0.05
705.933	-0.08
706.114	0.04
706.295	-0.01
706.476	-0.05
706.657	0.08
706.838	0
707.02	0.03
707.201	-0.09
707.382	-0.09
707.563	-0.01
707.744	-0.05
707.925	-0.03
708.106	-0.13
708.287	0.01
708.468	0.11
708.649	-0.05
708.83	0
709.011	-0.06
709.192	0.02
709.373	-0.16
709.554	-0.02
709.734	0.04
709.915	-0.04
710.096	-0.01
710.277	-0.2
710.458	-0.02
710.639	-0.01
710.819	-0.07
711	-0.02
711.181	0.03
711.362	-0.06
711.542	-0.01
711.723	-0.05
711.904	0.01
712.085	0.04
712.265	0.05
712.446	-0.05
712.627	-0.08
712.807	0.03
712.988	-0.03
713.168	-0.08
713.349	0
713.53	-0.21
713.71	-0.09
713.891	-0.13
714.071	-0.06
714.252	-0.1
714.432	-0.04
714.613	-0.03
714.793	-0.09
714.974	0.1
715.154	-0.01
715.334	-0.01
715.515	0.06
715.695	-0.03
715.876	-0.1
716.056	-0.03
716.236	-0.04
716.417	-0.03
716.597	-0.07
716.777	0.12
716.957	0
717.138	-0.07
717.318	-0.01
717.498	-0.1
717.678	-0.01
717.859	0
718.039	-0.1
718.219	-0.05
718.399	-0.03
718.579	-0.14
718.759	-0.14
718.939	-0.01
719.12	0.01
719.3	0.05
719.48	-0.12
719.66	-0.09
719.84	0.05
720.02	-0.03
720.2	0.02
720.38	-0.06
720.56	0.06
720.74	-0.06
720.92	-0.08
721.1	0.07
721.279	0.09
721.459	0.01
721.639	-0.09
721.819	0.04
721.999	-0.07
722.179	-0
722.359	-0.17
722.538	-0.02
722.718	-0.03
722.898	-0.09
723.078	0.03
723.257	-0.09
723.437	-0.08
723.617	-0.03
723.797	-0.02
723.976	-0.07
724.156	0.01
724.336	0.04
724.515	0.02
724.695	-0.11
724.874	0.04
725.054	-0
725.234	-0.11
725.413	-0.04
725.593	-0.07
725.772	-0.13
725.952	-0.07
726.131	-0.1
726.311	-0.05
726.49	-0.05
726.67	-0.13
726.849	-0.17
727.028	0.01
727.208	-0.05
727.387	0.05
727.567	-0.13
727.746	-0.03
727.925	-0.15
728.105	-0.19
728.284	0.03
728.463	-0.24
728.643	-0.06
728.822	-0.11
729.001	-0.14
729.18	-0.09
729.359	0.02
729.539	-0.02
729.718	-0.07
729.897	0.03
730.076	-0.03
730.255	-0.16
730.434	0.01
730.614	-0.01
730.793	-0
730.972	-0.04
731.151	-0.09
731.33	0.08
731.509	0.02
731.688	-0.05
731.867	-0.04
732.046	-0.17
732.225	0.15
732.404	-0.13
732.583	-0.12
732.762	-0.12
732.941	0.02
733.12	-0.04
733.298	-0.11
733.477	0.2
733.656	-0.08
733.835	-0.12
734.014	0.02
734.193	-0.05
734.371	0.01
734.55	-0.1
734.729	-0.13
734.908	-0
735.086	-0.06
735.265	0.02
735.444	-0.21
735.623	-0.14
735.801	-0.09
735.98	0.06
736.159	-0.12
736.337	0.06
736.516	-0.04
736.694	-0.1
736.873	-0.13
737.052	0.08
737.23	-0.04
737.409	-0.21
737.587	0.14
737.766	-0.24
737.944	-0.1
738.123	-0.08
738.301	0.05
738.479	-0.14
738.658	-0.02
738.836	-0.31
739.015	-0.02
739.193	0.08
739.371	-0.12
739.55	-0.12
739.728	-0.06
739.906	0.01
740.085	0.05
740.263	0.01
740.441	-0.2
740.62	0.17
740.798	-0.02
740.976	-0.08
741.154	-0.05
741.332	0.2
741.511	-0.03
741.689	-0.06
741.867	0.01
742.045	0.01
742.223	0
742.401	-0.07
742.579	-0.15
742.757	0.04
742.935	-0.08
743.114	-0.17
743.292	-0.08
743.47	-0.13
743.648	-0.05
743.826	-0.01
744.004	-0.03
744.181	0.04
744.359	-0.08
744.537	0.06
744.715	-0.16
744.893	0
745.071	-0.03
745.249	-0.03
745.427	-0.05
745.605	0.02
745.782	-0.04
745.96	-0.04
746.138	0.03
746.316	0.06
746.493	-0.02
746.671	-0.08
746.849	-0.19
747.027	0.14
747.204	-0.13
747.382	-0.03
747.56	-0.07
747.737	0.03
747.915	-0.14
748.093	-0.05
748.27	-0.17
748.448	-0.02
748.625	-0.19
748.803	-0.14
748.98	-0.01
749.158	-0.04
749.335	0.01
749.513	-0.15
749.69	-0.1
749.868	-0.01
750.045	-0.07
750.223	-0.04
750.4	-0.25
750.578	0.08
750.755	0.03
750.932	-0.2
751.11	0.12
751.287	-0.11
751.464	0.02
751.642	-0.09
751.819	0.01
751.996	0.04
752.173	-0.06
752.351	-0.21
752.528	0.03
752.705	-0.05
752.882	-0.15
753.06	-0.05
753.237	0.03
753.414	0.07
753.591	0.05
753.768	-0.03
753.945	-0.15
754.122	-0.15
754.299	0.02
754.476	-0.12
754.654	-0.11
754.831	0.04
755.008	-0.01
755.185	-0.11
755.362	-0.14
755.539	0.03
755.716	-0.09
755.892	-0.08
756.069	-0.09
756.246	0.02
756.423	-0.06
756.6	0.18
756.777	-0.12
756.954	0.05
757.131	-0.04
757.307	-0.03
757.484	-0.13
757.661	-0.02
757.838	0.07
758.015	-0.33
758.191	-0
758.368	-0.08
758.545	0.1
758.721	0.05
758.898	-0.21
759.075	0.05
759.251	0.07
759.428	0.03
759.605	-0.1
759.781	-0.06
759.958	0.03
760.134	-0.06
760.311	-0.18
760.488	0.08
760.664	0.04
760.841	0.02
761.017	-0.13
761.194	0.07
761.37	0
761.547	0.02
761.723	-0.14
761.899	0.07
762.076	-0.08
762.252	-0.2
762.429	-0.04
762.605	-0
762.781	-0.07
762.958	0.04
763.134	-0.07
763.31	-0.13
763.486	-0.03
763.663	-0.39
763.839	-0.06
764.015	-0.28
764.191	-0.07
764.368	0.03
764.544	-0.16
764.72	0.01
764.896	0.05
765.072	-0.05
765.248	-0.22
765.425	-0.11
765.601	0.06
765.777	-0.03
765.953	-0.38
766.129	-0.14
766.305	-0.11
766.481	-0.13
766.657	0.03
766.833	0.08
767.009	-0.2
767.185	-0.18
767.361	-0.15
767.537	-0.07
767.713	0.14
767.889	-0.16
768.065	-0.11
768.24	-0.3
768.416	0.03
768.592	-0.04
768.768	0
768.944	0.13
769.12	-0.21
769.295	-0.08
769.471	-0.15
769.647	-0.03
769.823	0.02
769.998	-0.12
770.174	-0.01
770.35	0.22
770.525	0.29
770.701	-0.11
770.877	-0.2
771.052	-0.14
771.228	0.12
771.403	0.01
771.579	0.11
771.755	0.14
771.93	-0.19
772.106	-0.16
772.281	-0.42
772.457	-0.11
772.632	0.06
772.808	-0.19
772.983	-0.22
773.159	-0.1
773.334	0.04
773.509	-0.17
773.685	-0.14
773.86	0.3
774.036	0.13
774.211	0.01
774.386	-0.16
774.562	-0.03
774.737	0.13
774.912	-0.24
775.087	-0.05
775.263	-0.05
775.438	0.1
775.613	-0.15
775.788	-0.21
775.964	0.09
776.139	0.38
776.314	-0.19
776.489	-0.04
776.664	-0.05
776.839	-0.12
777.014	-0.03
777.19	0.06
777.365	0.13
777.54	0.21
777.715	-0.16
777.89	-0.04
778.065	-0.12
778.24	-0.03
778.415	0.13
778.59	-0.24
778.765	0.03
778.94	0.01
779.115	-0.15
779.289	-0.07
779.464	-0.1
779.639	-0.03
779.814	-0.23
779.989	-0.36
780.164	0.12
780.339	-0.03
780.513	-0.21
780.688	-0.3
780.863	0.09
781.038	0.15
781.212	-0.27
781.387	-0.17
781.562	0.19
781.737	0.01
781.911	-0.02
782.086	-0.14
782.261	-0.09
782.435	0.25
782.61	-0.3
782.784	-0.31
782.959	0.25
783.134	-0.06
783.308	-0.12
783.483	-0.16
783.657	0.28
783.832	0.07
784.006	-0.47
784.181	-0.23
784.355	0.19
784.53	-0.26
784.704	-0.21
784.878	0.07
785.053	0.1
785.227	0.2
785.402	-0.02
785.576	-0.27
785.75	-0.07
785.925	-0.01
786.099	-0.14
786.273	-0.06
786.448	-0.12
786.622	-0.03
786.796	-0.17
786.97	-0.23
787.145	0.36
787.319	-0.16
787.493	-0.27
787.667	-0.45
787.841	-0.07
788.015	0.07
788.19	-0.15
788.364	-0.32
788.538	-0.02
788.712	0.09
788.886	-0.03
789.06	0.19
789.234	0.24
789.408	-0.37
789.582	0.01
789.756	-0.12
789.93	-0.3
790.104	-0.15
790.278	-0.19
790.452	-0.36
790.626	-0.05
790.8	-0.38
790.973	0.02
791.147	0.18
791.321	0.13
791.495	0.16
791.669	0.08
791.843	0.11
792.016	0.2
792.19	0.5
792.364	-0.22
792.538	0.38
792.711	0.15
792.885	-0.13
793.059	-0.14
793.233	-0.53
793.406	0.18
793.58	-0.23
793.754	-0.05
793.927	-0
794.101	0.19
794.274	0.01
794.448	-0.01
794.622	-0.39
794.795	0.25
794.969	-0.3
795.142	0.06
795.316	-0.26
795.489	0.05
795.663	0.25
795.836	-0.29
796.009	-0.34
796.183	0.3
796.356	-0.17
796.53	0.03
796.703	-0.22
796.876	0.33
797.05	-0.15
797.223	-0.21
797.396	0.07
797.57	-0.06
797.743	0.35
797.916	-0.01
798.09	-0.48
798.263	0.01
798.436	-0.06
798.609	-0.49
798.782	-0.26
798.956	-0.06
799.129	-0.05
799.302	-0.02
799.475	-0.41
799.648	-0.35
799.821	-0.05
799.994	-0.3
800.167	-0.51
800.34	0
800.514	0.12
800.687	-0.31
800.86	-0.51
801.033	0.21
801.206	-0
801.379	-0.52
801.551	-0.12
801.724	0.28
801.897	0.22
802.07	-0.2
802.243	-0.42
802.416	-0.04
802.589	0.02
802.762	-0.22
802.935	-0.36
803.107	0.13
803.28	0.34
803.453	0.2
803.626	-0.43
803.798	-0.2
803.971	-0.37
804.144	0.31
804.317	0.31
804.489	0.08
804.662	-0.06
804.835	-0.03
805.007	-0.27
805.18	0.17
805.353	-0.11
805.525	-0.18
805.698	-0.34
805.87	0.2
806.043	0.49
806.215	-0.63
806.388	-0.05
806.56	-0.04
806.733	0.03
806.905	-0.01
807.078	-0.28
807.25	-0.45
807.423	-0.06
807.595	-0.07
807.768	-0.1
807.94	0.44
808.112	0.29
808.285	-0
808.457	-0.25
808.629	-0.34
808.802	0.23
808.974	0.2
809.146	-0.25
809.318	-0.52
809.491	0.01
809.663	0.08
809.835	-0.54
810.007	0.13
810.18	-0.25
810.352	-0.31
810.524	-0.14
810.696	-0.01
810.868	0.47
811.04	-0.29
811.212	-0.23
811.384	0.38
811.556	-0.26
811.728	-0.2
811.901	0.56
812.073	-0.25
812.245	0.41
812.417	-0.21
812.589	-0.91
812.76	0.31
812.932	0.26
813.104	0.07
813.276	-0.14
813.448	-0.1
813.62	-0.22
813.792	-0.18
813.964	-0.05
814.136	0.24
814.307	-0.32
814.479	-0.3
814.651	0
814.823	0.84
814.995	-0.23
815.166	-0.15
815.338	-0.66
815.51	-1.01
815.681	0.24
815.853	-0.01
816.025	-0.24
816.196	0.68
816.368	0.38
816.54	-0.51
816.711	-1.2
816.883	0.15
817.054	0.49
817.226	-0.89
817.398	0.26
817.569	-0.59
817.741	0.15
817.912	0
818.084	-0.15
818.255	0.15
818.426	-0.5
818.598	-0.37
818.769	-0.6
818.941	0.22
819.112	0.79
819.283	0.3
819.455	-0.59
819.626	-0.39
819.798	0.36
819.969	-0.26
820.14	-0.33
820.311	-0.54
820.483	0.07
820.654	-0.05
820.825	-0.15
820.996	-0.7
821.168	-0.4
821.339	-0.29
821.51	-0.48
821.681	-0.35
821.852	0.27
822.023	-0.68
822.195	-0.17
822.366	0.1
822.537	-0.37
822.708	0.04
822.879	-0.07
823.05	0.18
823.221	-0.6
823.392	0.16
823.563	-0.51
823.734	-0.41
823.905	-0.56
824.076	-0.56
824.247	-0.76
824.418	-0.73
824.589	0.37
824.759	-0.43
824.93	-0.13
825.101	-0.97
825.272	0.28
825.443	0.57
825.614	-0.02
825.784	-0.85
825.955	0.8
826.126	0.45
826.297	-0.47
826.467	0.33
826.638	0.15
826.809	-1.33
826.98	-0.08
827.15	-0.14
827.321	-0.33
827.492	0.85
827.662	0.18
827.833	1
828.003	0.45
828.174	-0.46
828.345	-0.94
828.515	0.57
828.686	0.09
828.856	-0.35
829.027	-0.08
829.197	0.15
829.368	0.4
829.538	-0.6
829.709	-0.31
829.879	-0.32
830.049	-0.02
830.22	-0.44
830.39	0.04
830.56	0.6
830.731	-0.1
830.901	-0.95
831.072	-0.46
831.242	-0.21
831.412	0.55
831.582	-0.68
831.753	-0.93
831.923	0.05
832.093	-0.05
832.263	-0.46
832.434	-0.51
832.604	-0.73
832.774	0.03
832.944	-0.55
833.114	-0.38
833.284	-0.4
833.454	-0.3
833.624	-0.83
833.795	-0.87
833.965	0.94
834.135	0.47
834.305	-1.39
834.475	-0.61
834.645	0.37
834.815	-0.21
834.985	-0.35
835.155	-0.3
835.325	-0
835.494	0.43
835.664	-0.14
835.834	-1.19
836.004	0.02
836.174	-0.2
836.344	-0.29
836.514	-1.11
836.684	-0.71
836.853	-0.59
837.023	-0.11
837.193	-1.41
837.363	1
837.532	0.34
837.702	-0.77
837.872	-0.51
838.041	-0.06
838.211	1.42
838.381	-0.9
838.55	-0.61
838.72	1.62
838.89	1.5
839.059	-0.56
839.229	-1.09
839.398	1.08
839.568	0.25
839.738	-0.75
839.907	0.9
840.077	-0.46
840.246	-0.76
840.416	-0.87
840.585	-0.41
840.755	1.26
840.924	0.17
841.093	-1.05
841.263	-0.53
841.432	0.21
841.602	-0.99
841.771	-1.08
841.94	-0.44
842.11	2.14
842.279	1.48
842.448	-0.87
842.617	-0.98
842.787	1.48
842.956	-1.44
843.125	-0.37
843.294	-0.21
843.464	0.6
843.633	-0.16
843.802	-0.82
843.971	-0.32
844.14	-0.2
844.309	0.93
844.479	-0.66
844.648	-1.08
844.817	0.09
844.986	-0.37
845.155	-1.84
845.324	-1.35
845.493	-0.5
845.662	-0.12
845.831	-0.21
846	0.4
846.169	0.18
846.338	0.98
846.507	0.06
846.676	0.18
846.844	-1.67
847.013	0.08
847.182	0.3
847.351	-1.23
847.52	-0.01
847.689	0.3
847.858	-0.6
848.026	-0.86
848.195	-0.25
848.364	-0.77
848.533	-1.39
848.701	-0.42
848.87	-0.17
849.039	0.4
849.207	0.46
849.376	0.23
849.545	0.8
849.713	-1.25
849.882	-0.43
850.051	-1.52
850.219	-1.12
850.388	0.27
850.556	-1.19
850.725	-1.07
850.893	0.82
851.062	0.01
851.23	0.25
851.399	-2.3
851.567	-0.79
851.736	-0.36
851.904	-1.36
852.073	-0.42
852.241	-0.59
852.41	-0.05
852.578	-0.47
852.746	-0.58
852.915	1.33
853.083	-0.42
853.251	-1.23
853.42	-0.4
853.588	-0.74
853.756	0.95
853.924	-1.24
854.093	-0.25
854.261	-0.67
854.429	-2.01
854.597	0.12
854.765	-1.6
854.934	-0.4
855.102	1.1
855.27	0.03
855.438	0.41
855.606	1.34
855.774	1.38
855.942	-2.54
856.11	-1.7
856.278	-0.87
856.446	1.04
856.614	-1.02
856.782	-1
856.95	1.05
857.118	0.49
857.286	0.07
857.454	-0.64
857.622	1.69
857.79	1.02
857.958	-2.03
858.126	-0.39
858.294	-4.09
858.462	0.26
858.629	-0.55
858.797	-1.13
858.965	-0.3
859.133	0.79
859.301	-0.57
859.468	0.14
859.636	-1.6
859.804	1.89
859.971	0.3
860.139	-1.2
860.307	-0.01
860.474	0.42
860.642	-2.45
860.81	-1.75
860.977	-1.02
861.145	1.07
861.313	-1.44
861.48	0.23
861.648	0.72
861.815	-0.68
861.983	-1.61
862.15	-0.45
862.318	0.51
862.485	0.28
862.653	-2.14
862.82	-1.2
862.988	1.37
863.155	-0.54
863.322	-1.19
863.49	-1.25
863.657	-1.13
863.824	1.42
863.992	-0.39
864.159	0.97
864.326	1.26
864.494	-1.83
864.661	1.79
864.828	-2.38
864.996	-0.13
865.163	1.35
865.33	-1.31
865.497	-3.23
865.664	-0.24
865.832	-1.63
865.999	-1.38
866.166	-1.97
866.333	-1.87
866.5	0.25
866.667	-0.86
866.834	-0.34
867.001	2.18
867.168	-1.63
867.335	-0.56
867.502	-0.5
867.669	-0.94
867.836	3.1
868.003	-0.44
868.17	0.72
868.337	-1.44
868.504	0.95
868.671	-2.92
868.838	-0.79
869.005	0.98
869.172	0.94
869.339	-1.34
869.505	-1.03
869.672	-0.42
869.839	1.31
870.006	-0.61
870.173	-2.12
870.339	0.67
870.506	2.52
870.673	-1.51
870.84	0.26
871.006	-1.09
871.173	-0.15
871.34	-0.7
871.506	-2.13
871.673	-0.29
871.839	-2.48
872.006	-0.35
872.173	0.06
872.339	-0.83
872.506	1.25
872.672	0.07
872.839	-2.07
873.005	-1.96
873.172	-0.11
873.338	0.36
873.505	-1.89
873.671	-1.49
873.838	-0.77
874.004	-2.73
874.171	-2.9
874.337	0.57
874.503	1.76
874.67	-0.65
874.836	-1.3
875.002	2.5
875.169	0.88
875.335	0.18
875.501	-0.62
875.668	1.19
875.834	0.7
876	-1.22
876.166	1.46
876.332	0.71
876.499	3.72
876.665	-1.75
876.831	-0.56
876.997	3.01
877.163	0.17
877.329	-0.72
877.495	-2.06
877.662	0.63
877.828	0.8
877.994	-0.64
878.16	-2.63
878.326	-2.28
878.492	0.29
878.658	-1.81
878.824	0.16
878.99	-0.22
879.156	-1.97
879.322	2.34
879.487	-1.54
879.653	0.36
879.819	-1.67
879.985	-3.15
880.151	-0.61
880.317	0.42
880.483	-2.23
880.648	0.05
880.814	-3.58
880.98	0.78
881.146	-3.2
881.312	0.63
881.477	-0.5
881.643	-0.03
881.809	0.03
881.974	0.55
882.14	-3.41
882.306	-1.37
882.471	2.38
882.637	-1.63
882.803	-0.59
882.968	1.86
883.134	2.91
883.299	-0.53
883.465	-0.98
883.63	1.56
883.796	1.46
883.961	0.42
884.127	1.2
884.292	-4.21
884.458	-2.06
884.623	-2.06
