Data from Apollo_Calib_20240827__AbsoluteIrradiance__623__09-32-01-741.txt Node

Date: Wed Aug 28 09:32:01 BST 2024
User: biology
Spectrometer: FLMT08252
Trigger mode: 0
Integration Time (sec): 5.000000E-1
Scans to average: 5
Electric dark correction enabled: true
Nonlinearity correction enabled: false
Boxcar width: 0
XAxis mode: Wavelengths
Number of Pixels in Spectrum: 3648
>>>>>Begin Spectral Data<<<<<
179.588	-0
179.809	-0
180.03	-0
180.251	-0
180.473	-0
180.694	0
180.915	0
181.136	-0
181.357	0
181.578	-0
181.799	-0
182.02	-0
182.241	-0
182.462	0
182.683	0
182.904	-0
183.125	-0
183.346	0
183.567	-0
183.788	-0
184.009	-0
184.23	-0
184.451	0
184.672	-0
184.892	-0
185.113	-0
185.334	0
185.555	-0
185.776	-0
185.996	0
186.217	-0
186.438	-0
186.659	-0
186.879	0
187.1	-0
187.321	-0
187.541	-0
187.762	0
187.983	0
188.203	-0
188.424	0
188.644	-0
188.865	-0
189.086	-0
189.306	-0
189.527	-0
189.747	-0
189.968	-0
190.188	0
190.409	-0
190.629	0
190.849	-0
191.07	-0
191.29	0
191.511	-0
191.731	-0
191.951	-0
192.172	0
192.392	0
192.612	-0
192.833	-0
193.053	0
193.273	0
193.493	-0
193.714	-0
193.934	0
194.154	0
194.374	-0
194.594	-0
194.815	0
195.035	0
195.255	-0
195.475	-0
195.695	0
195.915	0
196.135	-0
196.355	0
196.575	0
196.795	-0
197.015	-0
197.235	-0
197.455	-0
197.675	-0
197.895	-0
198.115	-0
198.335	-0
198.555	-0
198.775	0
198.995	0
199.214	0
199.434	-0
199.654	-0
199.874	-0
200.094	0.03
200.313	-0.5
200.533	-1.04
200.753	-0.69
200.973	0.82
201.192	0.25
201.412	-0.8
201.632	-0.14
201.851	0.27
202.071	-0.46
202.291	-0.69
202.51	-0.68
202.73	0.07
202.95	-0.01
203.169	-0.84
203.389	-0.07
203.608	-0.58
203.828	-0.37
204.047	-0.28
204.267	-0.09
204.486	-0.31
204.706	0.03
204.925	-0.17
205.145	-0.82
205.364	-0.11
205.583	0.55
205.803	-0.58
206.022	-0.47
206.242	-0.29
206.461	-0.08
206.68	-0.35
206.9	-0.12
207.119	0.33
207.338	0.28
207.557	-0.28
207.777	-0.42
207.996	-0.08
208.215	0.35
208.434	-0.38
208.654	-0.57
208.873	0.06
209.092	0.15
209.311	-0.32
209.53	-0.17
209.749	-0.21
209.968	-0.27
210.187	-0.22
210.407	-0.85
210.626	-0.26
210.845	0.05
211.064	-0.28
211.283	-0.39
211.502	0.13
211.721	-0.12
211.94	-0.08
212.159	0.13
212.377	0.04
212.596	0.05
212.815	-0.08
213.034	0.08
213.253	0.02
213.472	-0.07
213.691	-0.11
213.91	-0.39
214.128	-0.11
214.347	0.15
214.566	-0.48
214.785	-0.59
215.003	-0.1
215.222	0.01
215.441	0.06
215.66	-0.31
215.878	-0.2
216.097	0.07
216.316	-0.4
216.534	-0.09
216.753	-0.03
216.972	-0.03
217.19	-0.01
217.409	-0.23
217.627	-0.45
217.846	-0.11
218.064	-0.19
218.283	-0.19
218.501	0.21
218.72	0.09
218.938	-0.31
219.157	-0.17
219.375	0.05
219.594	0.13
219.812	-0.11
220.031	-0.32
220.249	0.22
220.467	0.15
220.686	-0.08
220.904	-0.21
221.122	-0.23
221.341	0.14
221.559	-0.05
221.777	-0.21
221.995	-0.13
222.214	0.09
222.432	-0.19
222.65	0.09
222.868	0.04
223.086	0.1
223.305	0.03
223.523	-0.23
223.741	0.22
223.959	-0.28
224.177	-0.14
224.395	-0.13
224.613	-0.06
224.831	0.07
225.049	-0.24
225.267	0
225.485	0.02
225.703	-0.15
225.921	-0.08
226.139	-0.11
226.357	-0.15
226.575	-0.09
226.793	-0.08
227.011	0.45
227.229	0.01
227.447	0.19
227.665	-0.2
227.883	-0.21
228.1	-0.07
228.318	-0
228.536	-0.3
228.754	-0.2
228.972	0.13
229.189	-0.02
229.407	-0.12
229.625	-0.03
229.843	0.13
230.06	0.02
230.278	-0.19
230.496	-0.09
230.713	-0.03
230.931	0.22
231.149	-0.11
231.366	-0.28
231.584	0.01
231.801	0.34
232.019	-0.12
232.236	-0.12
232.454	-0.14
232.671	-0.02
232.889	-0.02
233.106	-0.18
233.324	-0.11
233.541	-0.05
233.759	-0.05
233.976	-0.15
234.194	-0.09
234.411	-0.05
234.628	-0.17
234.846	0.03
235.063	-0.01
235.28	-0.01
235.498	-0.06
235.715	-0.17
235.932	0.09
236.149	0.01
236.367	-0.13
236.584	-0.01
236.801	-0.04
237.018	0.03
237.236	-0.09
237.453	-0.18
237.67	0.09
237.887	-0.03
238.104	-0.06
238.321	-0.11
238.538	-0.14
238.755	-0.03
238.973	-0.24
239.19	-0.08
239.407	-0.07
239.624	0.05
239.841	-0.13
240.058	-0.06
240.275	0.04
240.492	-0.08
240.709	-0.01
240.925	-0.05
241.142	-0.05
241.359	-0.09
241.576	-0.06
241.793	-0.08
242.01	-0.06
242.227	0.02
242.444	-0.05
242.66	0.05
242.877	0.01
243.094	-0.1
243.311	-0.01
243.527	-0.04
243.744	0
243.961	0.05
244.178	-0.08
244.394	-0.03
244.611	0.03
244.828	0.05
245.044	-0.13
245.261	-0.08
245.477	-0.07
245.694	-0.01
245.911	-0.08
246.127	0.01
246.344	0.09
246.56	0.04
246.777	-0.12
246.993	0.03
247.21	-0.03
247.426	0.04
247.643	-0.08
247.859	-0.11
248.076	-0.08
248.292	0.22
248.508	-0.02
248.725	0.01
248.941	0.05
249.157	0.06
249.374	-0.09
249.59	-0.08
249.806	-0.12
250.023	0.04
250.239	-0.1
250.455	-0.07
250.671	-0.02
250.888	-0.02
251.104	0.05
251.32	-0.1
251.536	0.02
251.752	-0.01
251.969	-0.08
252.185	0.03
252.401	0.2
252.617	-0.04
252.833	-0.07
253.049	-0.05
253.265	-0.03
253.481	-0.01
253.697	-0.04
253.913	-0.16
254.129	-0.02
254.345	-0.09
254.561	-0.08
254.777	0.05
254.993	0.02
255.209	-0
255.425	-0.03
255.641	-0.11
255.857	0.05
256.073	-0.04
256.288	-0.11
256.504	-0.14
256.72	0.01
256.936	0.11
257.152	-0.11
257.367	-0.21
257.583	-0
257.799	0.07
258.015	-0.04
258.23	-0.01
258.446	0.09
258.662	0
258.877	-0.13
259.093	-0.1
259.309	0.04
259.524	-0.02
259.74	-0.07
259.955	-0.16
260.171	-0.03
260.387	0
260.602	0
260.818	-0.04
261.033	-0.11
261.249	-0.03
261.464	-0.01
261.68	-0.09
261.895	-0
262.11	0.04
262.326	-0.04
262.541	-0.1
262.757	0.07
262.972	-0.02
263.187	-0.01
263.403	-0.04
263.618	0.04
263.833	-0.02
264.049	-0.1
264.264	-0.03
264.479	0.08
264.694	0.07
264.91	-0.13
265.125	-0.03
265.34	0.04
265.555	0.09
265.77	0
265.986	-0.07
266.201	-0.06
266.416	0.05
266.631	-0.09
266.846	-0
267.061	-0.01
267.276	-0.01
267.491	-0.12
267.706	0.08
267.921	-0
268.136	-0.05
268.351	-0.08
268.566	-0.09
268.781	0.07
268.996	-0.01
269.211	-0
269.426	-0.04
269.641	-0.1
269.856	0.03
270.071	-0.06
270.285	-0.13
270.5	0.01
270.715	0.06
270.93	-0.02
271.145	-0.03
271.359	0.05
271.574	-0.08
271.789	-0.01
272.004	-0.09
272.218	-0.03
272.433	0.04
272.648	-0.04
272.862	0.04
273.077	-0.03
273.292	-0.04
273.506	-0.01
273.721	-0.06
273.936	0.03
274.15	0.06
274.365	-0.02
274.579	-0
274.794	0.01
275.008	0.04
275.223	-0.05
275.437	-0.02
275.652	0.05
275.866	0.05
276.081	-0.01
276.295	0.03
276.509	-0.04
276.724	0.03
276.938	0.02
277.153	0.03
277.367	0.04
277.581	-0.06
277.796	-0.07
278.01	-0.07
278.224	0.07
278.438	0.14
278.653	-0.08
278.867	-0.07
279.081	-0.2
279.295	0.01
279.51	-0.04
279.724	-0.1
279.938	-0.01
280.152	0.03
280.366	-0.08
280.58	-0.05
280.794	0.09
281.008	0.01
281.222	0.04
281.437	0.06
281.651	-0.01
281.865	0.03
282.079	-0.06
282.293	-0.14
282.507	-0.09
282.721	0
282.935	-0.02
283.148	-0.09
283.362	-0.04
283.576	-0.06
283.79	-0.05
284.004	-0.03
284.218	0.03
284.432	-0.04
284.646	-0.03
284.859	-0.05
285.073	-0.04
285.287	-0.03
285.501	-0.08
285.714	-0.05
285.928	0.02
286.142	-0.02
286.356	-0.05
286.569	-0.05
286.783	0.11
286.997	0.01
287.21	0.01
287.424	-0.02
287.637	-0.02
287.851	-0.04
288.065	-0.01
288.278	-0.02
288.492	-0.03
288.705	-0.01
288.919	-0
289.132	-0.08
289.346	0.04
289.559	-0.05
289.773	-0.11
289.986	-0.02
290.2	0.04
290.413	0.05
290.626	-0.08
290.84	-0.02
291.053	0
291.267	0.04
291.48	0.01
291.693	-0.02
291.906	-0.06
292.12	-0.03
292.333	-0.06
292.546	-0.05
292.76	0.08
292.973	-0.03
293.186	0.04
293.399	-0.04
293.612	0.03
293.826	-0.01
294.039	-0.03
294.252	-0
294.465	0.06
294.678	0.01
294.891	0
295.104	-0.08
295.317	-0.03
295.53	0
295.743	-0.04
295.956	-0.02
296.169	0.05
296.382	0.02
296.595	-0.03
296.808	-0.06
297.021	0.06
297.234	0.03
297.447	-0.03
297.66	0.01
297.873	0.03
298.086	0.05
298.299	-0.05
298.511	-0.06
298.724	-0
298.937	-0.05
299.15	-0.03
299.363	-0
299.575	0.04
299.788	-0.01
300.001	-0.06
300.213	-0.05
300.426	-0.02
300.639	-0.06
300.852	-0
301.064	0.04
301.277	0.08
301.489	0.01
301.702	0.02
301.915	-0.01
302.127	0.03
302.34	0.01
302.552	0.01
302.765	-0.03
302.977	0.04
303.19	-0.05
303.402	-0.07
303.615	-0.02
303.827	-0.01
304.04	-0.03
304.252	0.01
304.464	-0.04
304.677	0.06
304.889	0.03
305.102	-0.06
305.314	-0.01
305.526	0.02
305.739	0.04
305.951	-0
306.163	0.01
306.375	0.06
306.588	-0.05
306.8	-0.01
307.012	-0.04
307.224	-0.01
307.436	0.08
307.649	-0.07
307.861	-0.04
308.073	0.02
308.285	-0
308.497	-0.03
308.709	-0.06
308.921	0.03
309.133	0.04
309.346	-0.01
309.558	0
309.77	0.04
309.982	0.02
310.194	0.01
310.406	-0.02
310.617	0.05
310.829	0.04
311.041	0.01
311.253	-0.07
311.465	-0.02
311.677	0.01
311.889	-0.04
312.101	0.01
312.313	0.03
312.524	0.08
312.736	-0.06
312.948	-0.01
313.16	0.09
313.372	-0
313.583	-0.03
313.795	-0.03
314.007	-0.01
314.218	0.01
314.43	-0
314.642	-0.02
314.853	-0.08
315.065	-0.01
315.277	-0.02
315.488	0.02
315.7	0.05
315.912	-0
316.123	-0.01
316.335	0.02
316.546	0.05
316.758	-0.01
316.969	-0.03
317.181	0.04
317.392	-0.03
317.604	0.02
317.815	-0.03
318.026	-0.03
318.238	0.01
318.449	0.01
318.661	-0.06
318.872	-0.08
319.083	-0.07
319.295	0.01
319.506	-0
319.717	0.05
319.929	-0.02
320.14	-0.04
320.351	0.02
320.562	-0.07
320.774	0.02
320.985	-0.04
321.196	-0.05
321.407	-0.05
321.618	0.03
321.829	0.01
322.041	0.04
322.252	0.01
322.463	-0.01
322.674	-0.01
322.885	-0.06
323.096	-0.02
323.307	-0.02
323.518	0.01
323.729	-0.03
323.94	0.02
324.151	-0.04
324.362	-0.03
324.573	0.02
324.784	-0.05
324.995	0.04
325.206	0.02
325.417	-0.03
325.628	-0.03
325.838	0.02
326.049	0.01
326.26	0.02
326.471	-0.04
326.682	-0.01
326.892	-0.03
327.103	-0.06
327.314	-0.02
327.525	0.02
327.735	-0.02
327.946	-0.04
328.157	-0.07
328.368	0.03
328.578	-0.06
328.789	-0
328.999	-0.03
329.21	-0.07
329.421	0.01
329.631	-0.04
329.842	-0.06
330.052	0.03
330.263	0
330.473	0.03
330.684	-0.03
330.894	-0.03
331.105	0.01
331.315	-0
331.526	-0.06
331.736	0.07
331.947	-0.03
332.157	-0.01
332.367	-0.06
332.578	0.03
332.788	0.03
332.999	0.01
333.209	-0.03
333.419	-0.05
333.629	0.02
333.84	0.04
334.05	0.02
334.26	-0
334.47	-0.01
334.681	0.08
334.891	-0.02
335.101	0.01
335.311	0.11
335.521	-0.01
335.732	-0
335.942	0.04
336.152	-0
336.362	0.01
336.572	-0.03
336.782	0.05
336.992	-0.03
337.202	-0.08
337.412	-0.07
337.622	0.01
337.832	-0
338.042	-0.01
338.252	-0.04
338.462	-0
338.672	0
338.882	-0.02
339.092	0
339.302	0.06
339.511	0.04
339.721	-0.04
339.931	-0.03
340.141	0.05
340.351	0.03
340.561	0.01
340.77	-0.04
340.98	-0.01
341.19	-0.02
341.4	-0.03
341.609	-0.02
341.819	-0.01
342.029	-0.07
342.238	-0.01
342.448	-0.07
342.658	-0.01
342.867	0
343.077	0.02
343.286	0.03
343.496	-0.01
343.706	0.06
343.915	-0.04
344.125	-0.01
344.334	0.01
344.544	-0.06
344.753	-0.02
344.963	-0.03
345.172	-0.08
345.381	-0.04
345.591	-0.05
345.8	-0.04
346.01	0.09
346.219	0.03
346.428	-0.15
346.638	-0.01
346.847	-0.01
347.056	0.07
347.266	-0.02
347.475	-0.04
347.684	0.03
347.893	0.03
348.103	0.01
348.312	0.01
348.521	-0.01
348.73	0.03
348.94	-0.02
349.149	-0.04
349.358	-0.01
349.567	-0.04
349.776	-0.05
349.985	-0.04
350.194	0.01
350.403	0.02
350.612	-0.06
350.821	-0.04
351.03	-0.02
351.239	-0.08
351.448	-0.01
351.657	-0.03
351.866	0.08
352.075	-0.03
352.284	-0.02
352.493	-0.08
352.702	-0
352.911	-0.04
353.12	-0.02
353.329	-0.01
353.538	-0
353.746	-0.02
353.955	-0.02
354.164	0.01
354.373	-0.01
354.582	0.01
354.79	-0.02
354.999	0.02
355.208	-0.01
355.416	0.02
355.625	-0.08
355.834	-0.05
356.042	-0.01
356.251	-0.03
356.46	-0.07
356.668	-0
356.877	0.1
357.085	0.06
357.294	-0.08
357.503	0.02
357.711	-0.02
357.92	0.08
358.128	-0.01
358.337	-0.04
358.545	-0.02
358.754	-0.06
358.962	0.01
359.17	-0.05
359.379	-0.04
359.587	0.01
359.796	-0.02
360.004	0.01
360.212	0.02
360.421	-0.04
360.629	-0.02
360.837	-0.01
361.046	0.03
361.254	0.04
361.462	0
361.67	-0
361.879	-0.02
362.087	0.03
362.295	0.01
362.503	-0.01
362.711	-0.1
362.92	-0.08
363.128	-0.03
363.336	-0.01
363.544	-0.07
363.752	-0.06
363.96	-0.04
364.168	-0.05
364.376	-0.01
364.584	-0.04
364.792	-0.01
365	0.01
365.208	-0
365.416	0.01
365.624	0.02
365.832	-0.01
366.04	0.05
366.248	-0.03
366.456	0.02
366.664	0.01
366.872	0.01
367.079	0.02
367.287	-0.03
367.495	0
367.703	-0.04
367.911	0.02
368.118	-0.01
368.326	-0.05
368.534	-0.06
368.742	0.04
368.949	-0.04
369.157	-0.05
369.365	0.02
369.572	-0.03
369.78	-0.02
369.988	0
370.195	0.02
370.403	-0.02
370.61	-0.03
370.818	0.02
371.026	0.04
371.233	-0.05
371.441	-0.01
371.648	-0.06
371.856	0.02
372.063	-0.01
372.271	-0.06
372.478	-0.02
372.685	-0.02
372.893	0.05
373.1	-0.01
373.308	-0.07
373.515	0.06
373.722	0.06
373.93	-0.02
374.137	0
374.344	0.04
374.552	-0.01
374.759	0
374.966	-0
375.173	-0.06
375.381	0.04
375.588	-0.01
375.795	-0.07
376.002	-0.02
376.209	-0.03
376.417	-0
376.624	0.02
376.831	0.01
377.038	-0.01
377.245	-0.08
377.452	-0.02
377.659	-0.04
377.866	-0.04
378.073	-0.02
378.28	-0.01
378.487	0.05
378.694	0.01
378.901	-0.02
379.108	0
379.315	0.01
379.522	0.1
379.729	0
379.936	-0.01
380.143	0.01
380.35	0.03
380.557	-0.01
380.763	0
380.97	-0.04
381.177	0.03
381.384	-0.04
381.591	-0.05
381.797	-0.01
382.004	0.01
382.211	-0
382.418	-0.06
382.624	0.02
382.831	0.01
383.038	-0
383.244	-0
383.451	-0.02
383.658	0.04
383.864	-0.01
384.071	-0.01
384.277	0.03
384.484	-0.05
384.69	0.04
384.897	0.01
385.103	-0.02
385.31	-0.02
385.516	-0.05
385.723	-0.05
385.929	-0.06
386.136	-0.05
386.342	0.01
386.549	-0.03
386.755	0.05
386.961	0.02
387.168	-0.06
387.374	-0.04
387.58	0.04
387.787	0
387.993	0.04
388.199	-0.04
388.406	-0.02
388.612	-0.03
388.818	-0.04
389.024	-0.03
389.231	0.01
389.437	0.1
389.643	0.05
389.849	0.01
390.055	-0.01
390.261	-0.04
390.467	-0
390.674	-0.06
390.88	-0.03
391.086	0
391.292	-0.04
391.498	0.03
391.704	0.03
391.91	-0.03
392.116	-0.02
392.322	-0.06
392.528	-0.01
392.734	-0.04
392.94	-0.02
393.146	-0.03
393.352	-0.04
393.557	-0.03
393.763	-0.02
393.969	0.01
394.175	-0.01
394.381	-0
394.587	-0.06
394.792	-0.04
394.998	-0.02
395.204	0.04
395.41	-0.01
395.615	-0.02
395.821	0.02
396.027	0
396.233	-0.02
396.438	0.01
396.644	0.06
396.85	0.01
397.055	0
397.261	-0.02
397.466	-0.04
397.672	-0.01
397.878	0.01
398.083	0.02
398.289	-0.03
398.494	0.04
398.7	-0.02
398.905	-0.08
399.111	0.12
399.316	-0.09
399.522	-0.01
399.727	0
399.932	-0.02
400.138	-0.04
400.343	0.01
400.549	0.02
400.754	-0.01
400.959	0.01
401.165	-0.01
401.37	-0.02
401.575	0.08
401.78	-0.04
401.986	-0.03
402.191	-0
402.396	0
402.601	0.02
402.807	0.01
403.012	0.01
403.217	0.03
403.422	-0
403.627	-0.04
403.832	-0.03
404.037	0
404.243	-0.05
404.448	-0.06
404.653	-0.04
404.858	-0.02
405.063	0
405.268	-0.01
405.473	-0.06
405.678	-0.07
405.883	0.12
406.088	-0.01
406.293	-0.1
406.498	-0.05
406.703	-0.01
406.907	-0.02
407.112	-0.05
407.317	0.01
407.522	0
407.727	-0.06
407.932	0.02
408.136	0.04
408.341	-0.04
408.546	-0.01
408.751	-0.01
408.956	0.01
409.16	0
409.365	-0.02
409.57	-0.06
409.774	-0.05
409.979	0.03
410.184	-0.03
410.388	-0.07
410.593	0.04
410.798	-0.04
411.002	-0.02
411.207	0.01
411.411	-0.02
411.616	-0.08
411.82	-0.03
412.025	0.01
412.229	-0.02
412.434	0.07
412.638	-0.01
412.843	-0.03
413.047	0.02
413.252	0.01
413.456	-0.05
413.66	0.03
413.865	-0.04
414.069	0.06
414.273	-0.04
414.478	-0.05
414.682	-0.02
414.886	-0.06
415.091	-0.04
415.295	-0.05
415.499	-0.02
415.703	-0.03
415.908	0.01
416.112	-0.08
416.316	-0.03
416.52	0.01
416.724	-0.03
416.929	-0.05
417.133	0.08
417.337	-0
417.541	-0.02
417.745	-0.04
417.949	0.02
418.153	0.01
418.357	-0.07
418.561	0.02
418.765	-0.03
418.969	0.06
419.173	0.02
419.377	-0.08
419.581	0.07
419.785	-0.06
419.989	-0.11
420.193	-0.02
420.397	-0.05
420.601	0.03
420.804	0.01
421.008	-0.01
421.212	-0
421.416	-0.04
421.62	-0.05
421.823	-0.02
422.027	0.11
422.231	0.02
422.435	-0.01
422.638	0.01
422.842	-0.02
423.046	-0.05
423.249	-0.02
423.453	-0.05
423.657	-0.01
423.86	-0.01
424.064	-0.04
424.268	0.03
424.471	-0
424.675	0.02
424.878	0.02
425.082	0.01
425.285	0.06
425.489	0
425.692	-0.01
425.896	-0.1
426.099	0.04
426.303	-0.06
426.506	-0.1
426.71	-0.01
426.913	0.03
427.116	0
427.32	-0.03
427.523	-0.03
427.726	0.05
427.93	-0.08
428.133	-0.01
428.336	-0.04
428.54	-0.05
428.743	-0.02
428.946	-0.01
429.149	-0.03
429.353	0.01
429.556	-0.09
429.759	0
429.962	-0.04
430.165	-0.03
430.368	-0.04
430.571	-0.07
430.775	0.01
430.978	-0.05
431.181	-0
431.384	0.01
431.587	-0.02
431.79	-0.03
431.993	-0.1
432.196	0
432.399	-0.03
432.602	0.03
432.805	0.01
433.008	-0.04
433.211	-0.08
433.414	0.03
433.616	-0
433.819	-0.08
434.022	-0.1
434.225	0.01
434.428	-0.03
434.631	0.04
434.833	-0.03
435.036	0.01
435.239	0.03
435.442	-0.01
435.645	-0.07
435.847	0.01
436.05	0.04
436.253	-0.07
436.455	-0.04
436.658	-0
436.861	0.05
437.063	-0.01
437.266	-0.04
437.468	0
437.671	0.07
437.874	0.01
438.076	-0.03
438.279	-0.1
438.481	-0.03
438.684	-0.06
438.886	0.01
439.089	-0.07
439.291	-0.08
439.494	-0
439.696	-0.04
439.899	-0.01
440.101	-0.04
440.303	-0.1
440.506	-0.03
440.708	-0.08
440.91	0.03
441.113	-0.08
441.315	0.01
441.517	-0.05
441.72	0.01
441.922	-0.07
442.124	-0.06
442.326	0
442.529	0.05
442.731	-0.08
442.933	0.1
443.135	-0
443.337	-0.09
443.539	-0.03
443.742	0.04
443.944	-0.04
444.146	-0.06
444.348	-0.06
444.55	-0.05
444.752	-0.05
444.954	-0.04
445.156	-0
445.358	-0.02
445.56	0.06
445.762	-0.02
445.964	-0.02
446.166	0.01
446.368	-0.03
446.57	0.05
446.772	-0.02
446.974	-0.04
447.175	0.01
447.377	-0.1
447.579	-0.05
447.781	-0.11
447.983	0.06
448.184	-0
448.386	0.01
448.588	-0.1
448.79	0.01
448.991	-0.08
449.193	-0.05
449.395	-0.02
449.597	0.02
449.798	0.03
450	0.02
450.202	-0.02
450.403	0.02
450.605	0.05
450.806	0.02
451.008	-0.14
451.21	-0.06
451.411	-0.02
451.613	-0.08
451.814	-0.02
452.016	0.01
452.217	-0.02
452.419	0.04
452.62	0.01
452.821	-0.02
453.023	0.01
453.224	0.06
453.426	-0.04
453.627	-0.01
453.828	0.01
454.03	-0.05
454.231	-0.02
454.432	-0.07
454.634	0.05
454.835	-0.04
455.036	-0.03
455.238	0.04
455.439	0.08
455.64	-0.05
455.841	-0.08
456.042	0.08
456.244	0.03
456.445	-0.06
456.646	-0.06
456.847	-0.04
457.048	-0.01
457.249	0.02
457.45	0.15
457.651	-0.06
457.852	0.01
458.054	-0.02
458.255	-0.05
458.456	-0.01
458.657	0.01
458.858	-0.01
459.058	-0.01
459.259	0.02
459.46	-0.06
459.661	-0.04
459.862	0.05
460.063	-0.01
460.264	0
460.465	-0.06
460.666	0.1
460.866	-0.01
461.067	-0.06
461.268	-0.08
461.469	-0
461.67	0.01
461.87	-0.07
462.071	-0.05
462.272	-0.08
462.473	0.02
462.673	0.02
462.874	-0.09
463.075	0.01
463.275	-0.04
463.476	-0.02
463.676	0.01
463.877	-0.06
464.078	-0.05
464.278	0.01
464.479	-0.05
464.679	-0.04
464.88	-0.01
465.08	0.06
465.281	-0.05
465.481	-0.01
465.682	-0.05
465.882	-0.01
466.083	-0.01
466.283	-0.03
466.483	-0.03
466.684	-0.06
466.884	-0.03
467.085	-0.05
467.285	0.01
467.485	-0.03
467.686	-0.04
467.886	-0.02
468.086	-0.03
468.286	0.03
468.487	-0.01
468.687	-0.02
468.887	-0.03
469.087	-0.01
469.287	0.01
469.488	-0.07
469.688	0.02
469.888	0.02
470.088	0.01
470.288	0.03
470.488	0.04
470.688	-0.03
470.888	-0.05
471.088	-0.06
471.288	-0.01
471.488	0.03
471.688	0.03
471.888	-0.01
472.088	0.03
472.288	0
472.488	-0.07
472.688	-0.05
472.888	-0.02
473.088	-0.01
473.288	-0
473.488	-0.01
473.688	0.07
473.887	-0.03
474.087	-0.03
474.287	0
474.487	-0.03
474.687	-0.02
474.886	-0.05
475.086	-0.01
475.286	0.03
475.486	-0
475.685	-0.04
475.885	-0.04
476.085	-0.04
476.284	0.02
476.484	0
476.684	-0
476.883	0.04
477.083	-0.02
477.282	-0.05
477.482	0.03
477.681	0.05
477.881	-0.02
478.08	-0.05
478.28	-0.06
478.479	0
478.679	0.07
478.878	-0.01
479.078	-0.03
479.277	-0.04
479.477	-0.03
479.676	0.05
479.875	-0
480.075	-0.04
480.274	0.03
480.473	0.01
480.673	-0.04
480.872	0.02
481.071	0.02
481.271	0.01
481.47	-0
481.669	-0.04
481.868	-0.04
482.067	-0.02
482.267	-0.03
482.466	-0.06
482.665	-0.03
482.864	-0.07
483.063	-0.02
483.262	0.02
483.461	0.05
483.661	0.02
483.86	-0
484.059	0.01
484.258	-0.01
484.457	0.01
484.656	-0.02
484.855	0.04
485.054	-0.05
485.253	-0.01
485.452	-0.05
485.651	-0.01
485.849	0
486.048	-0.05
486.247	-0.02
486.446	0.01
486.645	-0.05
486.844	-0.03
487.043	-0.03
487.241	0.01
487.44	-0.02
487.639	-0.01
487.838	0.02
488.037	0.01
488.235	0.05
488.434	-0.01
488.633	-0.03
488.831	-0.01
489.03	0.01
489.229	0.01
489.427	-0.03
489.626	0.02
489.825	0.03
490.023	-0.04
490.222	-0.04
490.42	0.01
490.619	0.01
490.817	-0
491.016	-0
491.214	0.04
491.413	-0.01
491.611	-0.01
491.81	-0.02
492.008	0.01
492.207	0.01
492.405	0
492.604	-0.07
492.802	-0.02
493	0
493.199	-0.01
493.397	-0.02
493.595	-0.01
493.794	-0.03
493.992	0.04
494.19	-0.02
494.388	0
494.587	-0.01
494.785	-0.01
494.983	-0.05
495.181	-0.03
495.379	-0.02
495.578	-0
495.776	0.01
495.974	-0.01
496.172	-0.03
496.37	-0.01
496.568	-0.04
496.766	-0.03
496.964	0.02
497.162	-0
497.36	-0.02
497.558	-0.01
497.756	0
497.954	0.01
498.152	-0.03
498.35	-0
498.548	-0.02
498.746	0.01
498.944	-0.06
499.142	-0.02
499.34	-0.05
499.538	-0.02
499.736	-0.04
499.933	0.01
500.131	0.04
500.329	-0.01
500.527	0.01
500.725	0.03
500.922	0.01
501.12	0.01
501.318	0
501.516	-0.04
501.713	-0
501.911	-0.01
502.109	-0.03
502.306	0
502.504	-0.02
502.701	-0.03
502.899	-0.01
503.097	0.02
503.294	-0.03
503.492	-0.02
503.689	-0
503.887	0
504.084	0.02
504.282	-0
504.479	-0.03
504.677	0.02
504.874	-0.05
505.072	-0
505.269	-0.02
505.466	0.01
505.664	-0.02
505.861	-0.02
506.059	-0.05
506.256	0.02
506.453	-0.02
506.651	0.02
506.848	0
507.045	-0.01
507.242	-0.01
507.44	-0
507.637	-0.03
507.834	-0.01
508.031	0.02
508.229	-0.04
508.426	0.01
508.623	0
508.82	-0.02
509.017	-0.03
509.214	-0.01
509.411	-0
509.608	-0.03
509.805	0.01
510.003	-0.01
510.2	-0.04
510.397	0.01
510.594	-0.02
510.791	-0.02
510.988	-0.02
511.184	0.02
511.381	-0.01
511.578	-0.03
511.775	0.02
511.972	-0.02
512.169	-0.01
512.366	-0.02
512.563	-0.01
512.76	-0.02
512.956	0
513.153	-0.02
513.35	0
513.547	-0
513.744	-0.03
513.94	-0.02
514.137	-0
514.334	0
514.53	-0.01
514.727	-0
514.924	0.05
515.12	-0.01
515.317	-0.04
515.514	-0.02
515.71	-0.04
515.907	-0.01
516.103	0.01
516.3	0.02
516.497	0
516.693	0.01
516.89	-0.02
517.086	-0.04
517.283	0.01
517.479	-0.01
517.676	0
517.872	-0
518.068	-0.02
518.265	-0.02
518.461	-0.01
518.658	-0.04
518.854	0.01
519.05	-0.02
519.247	-0.03
519.443	-0
519.639	-0.01
519.836	-0
520.032	-0.02
520.228	0.01
520.424	0.06
520.621	-0
520.817	-0.02
521.013	0.01
521.209	0
521.405	0.03
521.601	0.01
521.798	-0
521.994	0.03
522.19	-0.01
522.386	-0.04
522.582	-0.01
522.778	-0.01
522.974	-0.02
523.17	-0.02
523.366	-0.03
523.562	0
523.758	-0.02
523.954	-0.02
524.15	-0.02
524.346	0.01
524.542	-0.03
524.738	-0.04
524.934	-0.01
525.129	-0
525.325	0.01
525.521	-0.01
525.717	0.02
525.913	-0.01
526.109	-0.02
526.304	-0
526.5	0
526.696	0.03
526.892	0
527.087	0.01
527.283	-0.03
527.479	-0.01
527.674	-0.04
527.87	-0.01
528.066	-0.01
528.261	-0
528.457	0.02
528.653	-0.04
528.848	-0.02
529.044	-0
529.239	0
529.435	0
529.63	-0.01
529.826	0.03
530.021	-0
530.217	-0
530.412	-0.02
530.608	-0.03
530.803	0.01
530.999	0.01
531.194	-0.06
531.389	0
531.585	-0.05
531.78	-0.01
531.975	-0.02
532.171	0
532.366	-0.02
532.561	-0.02
532.757	-0.03
532.952	-0.01
533.147	-0.01
533.342	-0.01
533.538	-0.03
533.733	0.02
533.928	-0
534.123	-0
534.318	-0.02
534.513	-0.01
534.709	-0.01
534.904	-0.03
535.099	-0.01
535.294	-0.02
535.489	0.01
535.684	-0.01
535.879	-0.04
536.074	-0.01
536.269	-0.03
536.464	-0.03
536.659	-0.03
536.854	-0.01
537.049	0
537.244	-0.01
537.439	-0.01
537.634	0.03
537.828	-0.01
538.023	-0.01
538.218	-0.02
538.413	-0.02
538.608	-0.04
538.803	0.03
538.997	-0.06
539.192	0.01
539.387	0.01
539.582	-0.01
539.776	-0.01
539.971	-0.03
540.166	-0
540.36	-0.02
540.555	0.01
540.75	-0.02
540.944	-0
541.139	-0.06
541.334	-0.04
541.528	-0.02
541.723	0.03
541.917	-0.02
542.112	-0.06
542.306	-0.01
542.501	-0.02
542.695	-0.01
542.89	-0.02
543.084	0.01
543.279	-0.02
543.473	-0.01
543.668	0
543.862	-0.02
544.056	0
544.251	-0.01
544.445	-0.01
544.64	-0.01
544.834	-0.04
545.028	0.01
545.222	-0.02
545.417	0.01
545.611	0
545.805	0.01
546	-0.01
546.194	-0.03
546.388	-0.02
546.582	0
546.776	-0
546.97	-0.01
547.165	-0
547.359	0.01
547.553	-0.03
547.747	-0.02
547.941	-0.01
548.135	-0.02
548.329	-0
548.523	-0.02
548.717	-0.01
548.911	-0.02
549.105	-0.01
549.299	-0
549.493	0.01
549.687	0.03
549.881	0.01
550.075	-0.01
550.269	-0.03
550.463	-0.01
550.657	-0.01
550.85	-0.01
551.044	-0.04
551.238	-0
551.432	-0
551.626	-0.02
551.82	-0.01
552.013	-0.04
552.207	-0.01
552.401	-0
552.594	0.01
552.788	-0.03
552.982	-0.03
553.176	-0.02
553.369	0.01
553.563	0.03
553.756	-0.04
553.95	-0.04
554.144	-0.01
554.337	0.03
554.531	0.02
554.724	-0.01
554.918	-0.01
555.111	0.02
555.305	-0.01
555.498	0.02
555.692	-0.01
555.885	-0.01
556.079	-0
556.272	-0.04
556.466	0.02
556.659	-0.03
556.852	-0.01
557.046	-0.01
557.239	0.02
557.432	-0.04
557.626	-0.02
557.819	-0
558.012	-0
558.206	0.03
558.399	0
558.592	0.01
558.785	-0.01
558.979	0.03
559.172	-0.01
559.365	0.01
559.558	0
559.751	-0.03
559.944	-0.01
560.138	0
560.331	-0.02
560.524	-0.01
560.717	-0
560.91	-0.01
561.103	0.02
561.296	-0.01
561.489	0.01
561.682	0.01
561.875	0.02
562.068	0
562.261	0.01
562.454	0.02
562.647	0
562.84	0
563.032	-0.01
563.225	0
563.418	-0.01
563.611	-0.04
563.804	-0.02
563.997	-0.03
564.19	-0.05
564.382	-0.07
564.575	-0.03
564.768	-0.02
564.961	-0
565.153	-0.03
565.346	0.01
565.539	0.02
565.731	0
565.924	-0
566.117	0.01
566.309	0.02
566.502	-0.02
566.695	-0
566.887	0.01
567.08	-0.03
567.272	-0.03
567.465	-0.02
567.657	0
567.85	0.01
568.042	0.02
568.235	0
568.427	-0
568.62	-0.01
568.812	0.01
569.005	-0
569.197	-0.05
569.389	-0.01
569.582	0.02
569.774	-0.01
569.966	-0.04
570.159	-0.06
570.351	0.02
570.543	-0.03
570.736	-0.01
570.928	-0.04
571.12	-0.01
571.312	-0.03
571.505	-0.03
571.697	0.02
571.889	-0.04
572.081	-0.01
572.273	-0.03
572.465	0.03
572.658	-0.02
572.85	0.03
573.042	-0.01
573.234	-0.01
573.426	0.01
573.618	-0.04
573.81	-0.01
574.002	0.02
574.194	0.02
574.386	-0.04
574.578	-0.05
574.77	-0.02
574.962	-0.02
575.154	-0.04
575.346	0
575.538	-0
575.729	-0.04
575.921	-0.04
576.113	-0.02
576.305	0.02
576.497	-0.03
576.689	-0.02
576.88	-0.04
577.072	-0
577.264	-0.02
577.456	-0.02
577.647	-0.06
577.839	-0.02
578.031	0.04
578.223	-0.05
578.414	-0.03
578.606	-0
578.798	-0.02
578.989	-0.04
579.181	-0.03
579.372	-0.01
579.564	-0.01
579.755	0
579.947	0
580.139	0.02
580.33	-0.06
580.522	-0.03
580.713	-0.08
580.905	-0.04
581.096	0.01
581.287	0
581.479	-0.01
581.67	0.01
581.862	-0
582.053	-0.03
582.244	-0.04
582.436	-0.01
582.627	0
582.818	-0.04
583.01	-0.05
583.201	0.01
583.392	0.03
583.583	-0.01
583.775	-0.03
583.966	-0.03
584.157	-0.01
584.348	-0.04
584.54	-0.05
584.731	-0.01
584.922	0.01
585.113	-0.01
585.304	-0
585.495	0
585.686	-0
585.877	0.01
586.068	0.02
586.259	-0.02
586.45	-0.02
586.641	-0.04
586.832	-0.06
587.023	0
587.214	-0.01
587.405	-0.02
587.596	-0.04
587.787	0.02
587.978	0.01
588.169	-0.02
588.36	-0.02
588.551	0
588.742	-0.02
588.932	0.02
589.123	-0.01
589.314	0.02
589.505	0
589.696	0.01
589.886	-0.03
590.077	-0.05
590.268	-0.03
590.458	-0.05
590.649	-0.05
590.84	0.01
591.03	-0.03
591.221	-0.04
591.412	-0.06
591.602	0.01
591.793	0
591.984	-0.03
592.174	-0.04
592.365	0.06
592.555	-0.03
592.746	-0.01
592.936	0.01
593.127	0.01
593.317	0.03
593.508	-0.02
593.698	-0.04
593.889	-0
594.079	-0.03
594.269	0
594.46	-0.02
594.65	-0
594.84	-0.03
595.031	-0.04
595.221	-0.03
595.411	-0.03
595.602	-0
595.792	-0.01
595.982	-0.01
596.172	0.05
596.363	-0.04
596.553	-0.01
596.743	-0
596.933	-0.03
597.123	0.03
597.314	-0.03
597.504	-0.06
597.694	0.04
597.884	0.01
598.074	-0.04
598.264	-0.04
598.454	0
598.644	-0.02
598.834	-0.03
599.024	-0.05
599.214	-0.01
599.404	0.02
599.594	-0.02
599.784	-0.04
599.974	0.01
600.164	0.01
600.354	-0.05
600.544	-0.03
600.734	-0.01
600.924	0.02
601.114	-0.05
601.303	-0.03
601.493	-0.04
601.683	-0.02
601.873	0
602.063	-0.06
602.252	0.03
602.442	-0.04
602.632	-0.04
602.821	-0.04
603.011	-0
603.201	-0.04
603.39	-0.02
603.58	-0.01
603.77	-0
603.959	0.03
604.149	-0
604.339	-0.03
604.528	0.01
604.718	-0.02
604.907	0
605.097	-0.02
605.286	-0.06
605.476	-0
605.665	0.02
605.855	-0.03
606.044	0.02
606.234	0.01
606.423	-0.03
606.612	-0.05
606.802	-0.01
606.991	-0
607.181	0.02
607.37	-0.05
607.559	-0
607.749	-0.07
607.938	-0.01
608.127	-0.04
608.316	-0.02
608.506	-0.02
608.695	-0.01
608.884	-0.03
609.073	-0.03
609.263	-0
609.452	-0.01
609.641	0.01
609.83	-0.05
610.019	-0.02
610.208	-0.04
610.397	-0.03
610.586	0.01
610.775	-0.03
610.965	-0.03
611.154	-0.02
611.343	0.01
611.532	-0.03
611.721	-0.04
611.91	-0.02
612.099	0.02
612.287	-0.01
612.476	-0.06
612.665	0
612.854	-0.06
613.043	-0
613.232	-0.01
613.421	-0.07
613.61	-0
613.798	-0.04
613.987	0
614.176	-0.01
614.365	-0.01
614.554	-0
614.742	0.03
614.931	-0.03
615.12	0.02
615.309	-0.02
615.497	0.01
615.686	-0.05
615.875	-0.03
616.063	-0.01
616.252	-0.04
616.44	-0.04
616.629	0
616.818	0.02
617.006	-0.03
617.195	-0.01
617.383	-0
617.572	-0.01
617.76	-0.03
617.949	-0.04
618.137	-0
618.326	0.06
618.514	-0.04
618.703	-0.05
618.891	0.04
619.079	-0.05
619.268	0.02
619.456	-0.05
619.644	0.03
619.833	0.01
620.021	-0.06
620.209	-0.04
620.398	0
620.586	-0.05
620.774	-0
620.962	-0.01
621.151	0.03
621.339	-0.03
621.527	-0.08
621.715	-0.06
621.903	-0.02
622.092	-0.05
622.28	-0.02
622.468	-0.02
622.656	0
622.844	0.03
623.032	-0.05
623.22	-0.05
623.408	0.01
623.596	0.01
623.784	0
623.972	-0.03
624.16	-0.06
624.348	0.06
624.536	-0.04
624.724	-0
624.912	0.04
625.1	-0.01
625.288	-0.02
625.476	-0.01
625.664	-0
625.851	-0.04
626.039	-0.03
626.227	0.01
626.415	-0.02
626.603	-0.07
626.79	-0
626.978	-0.02
627.166	0.02
627.354	-0.02
627.541	-0.06
627.729	-0.08
627.917	-0
628.104	-0.01
628.292	-0.01
628.48	0.01
628.667	-0.03
628.855	-0.02
629.042	0.01
629.23	-0.02
629.418	-0.03
629.605	-0.03
629.793	-0.08
629.98	-0.02
630.168	-0.05
630.355	-0.04
630.543	0.01
630.73	-0.07
630.917	0.02
631.105	0.03
631.292	-0.05
631.48	-0
631.667	0.03
631.854	0
632.042	-0.01
632.229	-0.08
632.416	-0.02
632.604	-0.05
632.791	-0.05
632.978	0.06
633.165	-0.01
633.353	0.03
633.54	0.07
633.727	-0.09
633.914	-0.03
634.101	-0.09
634.289	-0.01
634.476	-0.04
634.663	-0.04
634.85	-0.02
635.037	-0.04
635.224	-0.07
635.411	0.04
635.598	0.03
635.785	0
635.972	-0.03
636.159	0.03
636.346	-0.03
636.533	-0
636.72	-0.03
636.907	0.01
637.094	-0.02
637.281	0
637.468	0
637.655	-0.02
637.842	-0.01
638.029	-0.04
638.215	0.03
638.402	-0.01
638.589	-0.04
638.776	-0.03
638.963	-0.03
639.149	0.02
639.336	0.04
639.523	-0
639.709	-0.05
639.896	-0.01
640.083	0.04
640.27	0.01
640.456	-0.03
640.643	0
640.829	-0.08
641.016	-0.04
641.203	-0.05
641.389	0.03
641.576	-0
641.762	-0.01
641.949	-0.05
642.135	-0
642.322	0.01
642.508	-0.08
642.695	-0.02
642.881	-0.02
643.068	-0.01
643.254	-0.02
643.441	0.01
643.627	-0.02
643.813	-0.04
644	0.03
644.186	-0.05
644.372	-0.01
644.559	0.04
644.745	-0.03
644.931	-0.02
645.118	-0.01
645.304	0
645.49	-0.02
645.676	-0.05
645.862	-0.04
646.049	0.06
646.235	-0.02
646.421	0.07
646.607	0.04
646.793	-0.04
646.979	-0.03
647.165	0.03
647.352	-0.02
647.538	0.02
647.724	0.02
647.91	-0.01
648.096	0.02
648.282	0.02
648.468	-0.03
648.654	0.02
648.84	-0.02
649.026	-0.03
649.212	-0
649.397	-0.05
649.583	-0.03
649.769	0.01
649.955	-0.02
650.141	0.01
650.327	0
650.513	-0.04
650.698	-0.02
650.884	-0.08
651.07	0.02
651.256	-0.03
651.442	-0.01
651.627	-0.02
651.813	-0
651.999	-0.03
652.184	-0.02
652.37	-0
652.556	-0.04
652.741	0.03
652.927	-0.1
653.113	-0.04
653.298	-0
653.484	-0.03
653.669	-0.05
653.855	-0.03
654.04	0.01
654.226	-0.03
654.412	-0.03
654.597	-0.05
654.782	0.03
654.968	0.03
655.153	0.01
655.339	-0.02
655.524	-0.07
655.71	0.03
655.895	-0.02
656.08	-0.04
656.266	-0
656.451	-0.02
656.636	-0.06
656.822	-0
657.007	-0.07
657.192	-0.04
657.378	-0.06
657.563	-0.02
657.748	-0.03
657.933	-0.03
658.118	-0.05
658.304	-0.05
658.489	0.04
658.674	-0
658.859	-0.07
659.044	0
659.229	-0.01
659.414	-0.03
659.599	-0.01
659.785	-0.07
659.97	-0.02
660.155	0
660.34	-0.03
660.525	-0.02
660.71	-0.05
660.895	0.04
661.08	-0.01
661.264	-0.02
661.449	0.06
661.634	0.03
661.819	-0.02
662.004	0.04
662.189	-0.09
662.374	-0.02
662.559	-0.05
662.743	-0.02
662.928	-0.02
663.113	-0.02
663.298	-0.08
663.483	-0.05
663.667	-0.02
663.852	-0.06
664.037	-0.02
664.221	-0.07
664.406	0.01
664.591	0.04
664.775	0.01
664.96	-0.05
665.145	0
665.329	0.01
665.514	-0.03
665.698	-0.04
665.883	-0.11
666.068	0.04
666.252	-0.05
666.437	-0.07
666.621	0.03
666.806	-0.03
666.99	-0.05
667.174	-0.1
667.359	0.01
667.543	-0.02
667.728	-0
667.912	-0.07
668.096	0.02
668.281	-0.03
668.465	-0.03
668.649	0
668.834	-0.05
669.018	-0.01
669.202	-0.04
669.387	-0.04
669.571	0.04
669.755	-0.05
669.939	-0.03
670.124	-0.04
670.308	0.04
670.492	0.04
670.676	0.02
670.86	-0.03
671.044	-0.05
671.228	0.03
671.413	-0.05
671.597	-0.01
671.781	-0.02
671.965	-0
672.149	-0.02
672.333	-0.02
672.517	-0.04
672.701	0.02
672.885	0.01
673.069	-0.06
673.253	0.04
673.437	-0.04
673.621	-0.05
673.804	-0.02
673.988	0
674.172	-0
674.356	-0.08
674.54	-0.04
674.724	0.06
674.908	-0.02
675.091	0
675.275	-0.03
675.459	-0.05
675.643	-0.04
675.826	-0.03
676.01	-0.02
676.194	-0.01
676.377	0.05
676.561	0.04
676.745	0
676.928	0.01
677.112	0.06
677.296	-0.07
677.479	-0.04
677.663	-0.01
677.846	-0.01
678.03	-0.04
678.213	-0.06
678.397	0.03
678.58	-0.01
678.764	-0.04
678.947	-0.1
679.131	-0.03
679.314	0
679.498	-0.01
679.681	0
679.865	0.03
680.048	-0.04
680.231	-0.03
680.415	-0.01
680.598	-0.05
680.781	-0.02
680.965	-0.05
681.148	0.03
681.331	-0.02
681.514	-0
681.698	-0.03
681.881	-0.01
682.064	-0
682.247	-0.05
682.43	-0.06
682.614	0.06
682.797	0.03
682.98	0.03
683.163	-0.07
683.346	0
683.529	-0.06
683.712	-0.04
683.895	-0.05
684.078	-0.03
684.261	-0.03
684.444	-0.04
684.627	0.02
684.81	-0.02
684.993	-0.02
685.176	0.05
685.359	-0.07
685.542	-0.04
685.725	-0.01
685.908	-0.01
686.091	-0.03
686.274	0.04
686.457	0
686.639	-0.04
686.822	0.01
687.005	0.02
687.188	0.05
687.371	0
687.553	0.03
687.736	-0.02
687.919	0.06
688.102	0.05
688.284	-0.02
688.467	-0
688.65	-0.06
688.832	-0.01
689.015	0
689.197	-0.06
689.38	0.04
689.563	0.04
689.745	-0.03
689.928	-0.07
690.11	-0.03
690.293	0.04
690.475	-0.05
690.658	-0.05
690.84	-0.02
691.023	-0.02
691.205	-0.02
691.388	0
691.57	0.03
691.752	-0.01
691.935	-0.06
692.117	-0
692.3	0.06
692.482	-0
692.664	-0.01
692.847	0.03
693.029	0.03
693.211	0.02
693.393	-0.02
693.576	-0.01
693.758	-0.01
693.94	-0
694.122	-0.03
694.304	-0.05
694.487	-0.05
694.669	0.03
694.851	-0.09
695.033	0.03
695.215	-0.03
695.397	-0.05
695.579	-0.01
695.761	-0.06
695.943	-0.06
696.125	0.03
696.308	0
696.49	-0.12
696.671	0.09
696.853	0.01
697.035	0.15
697.217	0.02
697.399	-0
697.581	-0.06
697.763	0.04
697.945	-0.01
698.127	0.02
698.309	0.06
698.491	-0.04
698.672	0
698.854	0.08
699.036	0.08
699.218	-0.04
699.399	0.1
699.581	0.04
699.763	-0.02
699.945	-0.04
700.126	-0.05
700.308	-0.01
700.49	-0.01
700.671	-0.09
700.853	-0.03
701.035	-0.07
701.216	0.01
701.398	-0.03
701.579	-0.03
701.761	0.1
701.943	-0.09
702.124	-0.07
702.306	0.01
702.487	0.11
702.669	0.02
702.85	-0.04
703.031	-0.04
703.213	0.06
703.394	0.03
703.576	0.01
703.757	0.06
703.938	0.03
704.12	0.12
704.301	-0.01
704.483	-0.09
704.664	0.01
704.845	0.04
705.026	0.06
705.208	0
705.389	-0.05
705.57	0.02
705.751	-0.05
705.933	0.01
706.114	0.06
706.295	0.01
706.476	0.01
706.657	0.09
706.838	0.03
707.02	0.08
707.201	-0.04
707.382	-0.02
707.563	0.09
707.744	-0.02
707.925	-0.03
708.106	0.01
708.287	-0.01
708.468	0.12
708.649	0.06
708.83	0.05
709.011	-0.01
709.192	0.07
709.373	-0.1
709.554	-0.07
709.734	0.04
709.915	0.03
710.096	-0.04
710.277	-0.11
710.458	-0.01
710.639	-0.04
710.819	-0.06
711	-0.04
711.181	0.09
711.362	0.1
711.542	0.01
711.723	0.05
711.904	0.05
712.085	0.02
712.265	0.04
712.446	-0.11
712.627	0.01
712.807	0.05
712.988	0.05
713.168	-0.08
713.349	-0.04
713.53	-0.09
713.71	0.01
713.891	-0.13
714.071	0.04
714.252	0.02
714.432	0.03
714.613	-0.05
714.793	-0.02
714.974	0.1
715.154	0.03
715.334	0.09
715.515	0.13
715.695	-0.08
715.876	0
716.056	0.02
716.236	-0
716.417	0.03
716.597	-0.04
716.777	0.14
716.957	0.08
717.138	0.03
717.318	0.06
717.498	-0.06
717.678	-0.04
717.859	0.01
718.039	-0.12
718.219	0.05
718.399	0.18
718.579	0
718.759	-0.02
718.939	0.15
719.12	0.07
719.3	0.05
719.48	-0.05
719.66	-0.04
719.84	0.12
720.02	0.07
720.2	-0.06
720.38	0.02
720.56	0.11
720.74	-0
720.92	0.07
721.1	0.09
721.279	0.07
721.459	-0.01
721.639	0.03
721.819	0.1
721.999	0.01
722.179	0.09
722.359	-0.01
722.538	0.17
722.718	0.07
722.898	-0.01
723.078	0.05
723.257	0.07
723.437	0.12
723.617	0.09
723.797	0.06
723.976	0.03
724.156	0.14
724.336	0.16
724.515	0.19
724.695	-0.07
724.874	0
725.054	0.02
725.234	0
725.413	0.13
725.593	0.14
725.772	0.19
725.952	0.09
726.131	0.1
726.311	0.11
726.49	0.08
726.67	0.13
726.849	-0.01
727.028	0.07
727.208	0.05
727.387	0.03
727.567	0.04
727.746	0.12
727.925	0.1
728.105	-0
728.284	0.1
728.463	0.01
728.643	0.2
728.822	0.12
729.001	-0
729.18	0.11
729.359	0.21
729.539	0.14
729.718	0.08
729.897	0.24
730.076	0.09
730.255	0.06
730.434	0.18
730.614	0.24
730.793	0.16
730.972	0.16
731.151	0.17
731.33	0.22
731.509	0.26
731.688	0.11
731.867	0.2
732.046	0.02
732.225	0.3
732.404	0.06
732.583	0.05
732.762	0.18
732.941	0.22
733.12	0.16
733.298	0.07
733.477	0.28
733.656	0.08
733.835	0.15
734.014	0.3
734.193	0.2
734.371	0.21
734.55	0.19
734.729	0.04
734.908	0.23
735.086	0.21
735.265	0.21
735.444	-0.12
735.623	0.05
735.801	0.07
735.98	0.18
736.159	0.04
736.337	0.19
736.516	0.2
736.694	0.29
736.873	0.1
737.052	0.31
737.23	0.24
737.409	0.1
737.587	0.39
737.766	-0.01
737.944	0.12
738.123	0.26
738.301	0.15
738.479	-0.04
738.658	0.14
738.836	-0.03
739.015	0.17
739.193	0.21
739.371	0.1
739.55	0.14
739.728	0.14
739.906	0.24
740.085	0.13
740.263	0.09
740.441	-0.01
740.62	0.21
740.798	0.22
740.976	0.05
741.154	0
741.332	0.17
741.511	0.16
741.689	0.1
741.867	0.18
742.045	0.08
742.223	-0.04
742.401	-0
742.579	0.06
742.757	0.15
742.935	0.02
743.114	-0.01
743.292	0.05
743.47	0.02
743.648	-0.05
743.826	0.01
744.004	0.08
744.181	0.17
744.359	-0.01
744.537	0.13
744.715	0.07
744.893	0.01
745.071	0.02
745.249	0.01
745.427	0
745.605	0.07
745.782	-0.02
745.96	0.12
746.138	0.04
746.316	0.09
746.493	-0.11
746.671	0
746.849	-0.07
747.027	0.07
747.204	-0.15
747.382	0.09
747.56	-0.09
747.737	0.04
747.915	-0.09
748.093	-0.03
748.27	-0.01
748.448	-0.09
748.625	-0.06
748.803	-0.05
748.98	-0.07
749.158	-0.01
749.335	0.06
749.513	0.02
749.69	-0.04
749.868	-0.02
750.045	0.01
750.223	-0.07
750.4	-0.2
750.578	0.16
750.755	0.07
750.932	-0.22
751.11	0.16
751.287	-0.15
751.464	0.15
751.642	-0.03
751.819	0.04
751.996	0.06
752.173	-0.04
752.351	-0.09
752.528	-0.03
752.705	-0.02
752.882	-0.04
753.06	0.04
753.237	0.07
753.414	0.18
753.591	0.04
753.768	0.03
753.945	-0.07
754.122	-0.07
754.299	0.03
754.476	-0.08
754.654	0.02
754.831	-0.1
755.008	0.08
755.185	-0.05
755.362	-0.22
755.539	-0.04
755.716	-0.08
755.892	-0.12
756.069	0.01
756.246	-0.11
756.423	-0.11
756.6	0.12
756.777	0.02
756.954	0.04
757.131	-0.08
757.307	-0.15
757.484	-0.06
757.661	-0.04
757.838	0.02
758.015	-0.05
758.191	0.15
758.368	0
758.545	0.12
758.721	-0.06
758.898	-0.19
759.075	0.13
759.251	0.05
759.428	0.05
759.605	-0.16
759.781	0
759.958	0.02
760.134	0.01
760.311	-0.16
760.488	0.1
760.664	0.04
760.841	0.05
761.017	-0.14
761.194	0.01
761.37	0.08
761.547	0.07
761.723	0
761.899	0.23
762.076	-0.11
762.252	-0.15
762.429	-0.09
762.605	0.03
762.781	-0.11
762.958	0.14
763.134	-0.11
763.31	-0.03
763.486	0.14
763.663	-0.15
763.839	-0.02
764.015	-0.1
764.191	-0.03
764.368	0.08
764.544	-0.04
764.72	0.02
764.896	0.08
765.072	-0.05
765.248	-0.06
765.425	-0.16
765.601	-0.06
765.777	0.06
765.953	-0.14
766.129	-0.1
766.305	-0.11
766.481	0.07
766.657	-0.04
766.833	0.08
767.009	-0.15
767.185	-0.13
767.361	-0.14
767.537	-0.16
767.713	0.12
767.889	-0.05
768.065	0.13
768.24	-0.02
768.416	0.13
768.592	-0.15
768.768	-0.05
768.944	0.02
769.12	-0.1
769.295	-0.16
769.471	-0.08
769.647	-0.04
769.823	0.14
769.998	-0.04
770.174	-0.19
770.35	0.26
770.525	0.19
770.701	-0.17
770.877	-0.07
771.052	-0.08
771.228	-0.01
771.403	-0.04
771.579	-0
771.755	0.15
771.93	0.04
772.106	-0.17
772.281	-0.25
772.457	-0.01
772.632	0.04
772.808	-0.13
772.983	-0.03
773.159	-0.23
773.334	0
773.509	-0.49
773.685	-0.23
773.86	0.17
774.036	0.16
774.211	-0.09
774.386	-0.03
774.562	0.08
774.737	0.15
774.912	-0.12
775.087	0.08
775.263	-0.03
775.438	-0.03
775.613	-0.11
775.788	-0.06
775.964	0.16
776.139	0.23
776.314	-0.32
776.489	0
776.664	-0
776.839	-0.23
777.014	0.1
777.19	0.11
777.365	0.15
777.54	0.19
777.715	-0.17
777.89	-0.02
778.065	-0.06
778.24	-0.14
778.415	0.01
778.59	-0.14
778.765	-0.18
778.94	0.16
779.115	-0.07
779.289	-0.06
779.464	-0.04
779.639	-0.08
779.814	-0.22
779.989	-0.16
780.164	0.24
780.339	-0.08
780.513	-0.05
780.688	-0.14
780.863	-0.14
781.038	0.09
781.212	0.03
781.387	-0.01
781.562	0.25
781.737	-0.08
781.911	0.18
782.086	-0.08
782.261	-0.11
782.435	0.11
782.61	-0.17
782.784	-0.22
782.959	0.08
783.134	-0.12
783.308	-0.26
783.483	-0.08
783.657	0.32
783.832	0.17
784.006	-0.38
784.181	-0.16
784.355	-0.01
784.53	-0.31
784.704	-0.1
784.878	0.26
785.053	-0.05
785.227	0.16
785.402	0.17
785.576	-0.04
785.75	-0.03
785.925	0.06
786.099	0.08
786.273	0.11
786.448	0.27
786.622	-0.08
786.796	-0.14
786.97	-0.08
787.145	0.45
787.319	-0.52
787.493	0.02
787.667	-0.4
787.841	-0.21
788.015	-0.03
788.19	-0.19
788.364	-0.01
788.538	0.23
788.712	0.01
788.886	0.03
789.06	0.25
789.234	0.15
789.408	-0.06
789.582	-0.08
789.756	-0.04
789.93	-0.08
790.104	-0.27
790.278	-0.19
790.452	-0.28
790.626	0.12
790.8	-0.21
790.973	0.12
791.147	0.04
791.321	0.26
791.495	0.18
791.669	-0.1
791.843	-0.08
792.016	0.02
792.19	0.39
792.364	-0.37
792.538	0.4
792.711	0.05
792.885	-0.14
793.059	-0.31
793.233	-0.69
793.406	0.07
793.58	-0.15
793.754	-0.21
793.927	-0.12
794.101	0.41
794.274	0.07
794.448	0.03
794.622	-0.3
794.795	0.2
794.969	-0.29
795.142	0.29
795.316	-0.32
795.489	-0.27
795.663	0.21
795.836	-0.04
796.009	-0.31
796.183	0.08
796.356	0.04
796.53	-0.02
796.703	-0.13
796.876	0.32
797.05	0.01
797.223	-0.05
797.396	-0.09
797.57	0.04
797.743	0.36
797.916	0.11
798.09	-0.11
798.263	0.02
798.436	0.06
798.609	-0.1
798.782	-0.24
798.956	-0.14
799.129	-0.1
799.302	-0.18
799.475	-0.25
799.648	-0.36
799.821	-0.04
799.994	0.06
800.167	-0.37
800.34	-0.09
800.514	-0.32
800.687	0.14
800.86	-0.47
801.033	-0.02
801.206	-0.07
801.379	-0.29
801.551	0.03
801.724	0.15
801.897	0.19
802.07	-0.25
802.243	-0.41
802.416	-0.18
802.589	-0.14
802.762	0.23
802.935	-0.16
803.107	0.07
803.28	0.07
803.453	0.16
803.626	-0.41
803.798	-0.21
803.971	-0.32
804.144	-0.12
804.317	-0.06
804.489	0.18
804.662	-0.22
804.835	0.17
805.007	-0.2
805.18	0.36
805.353	0.01
805.525	-0.17
805.698	-0.45
805.87	0.31
806.043	0.33
806.215	-0.35
806.388	-0.4
806.56	0.1
806.733	0.44
806.905	0.02
807.078	-0.2
807.25	-0.31
807.423	0.01
807.595	-0.04
807.768	0.01
807.94	0.27
808.112	-0.05
808.285	0.02
808.457	-0.1
808.629	-0.03
808.802	0.07
808.974	0.06
809.146	0.14
809.318	-0.61
809.491	0.01
809.663	0.18
809.835	-0.58
810.007	0.35
810.18	0.13
810.352	-0.54
810.524	-0.13
810.696	0.34
810.868	0.53
811.04	-0.09
811.212	-0.02
811.384	0.16
811.556	-0.01
811.728	-0.25
811.901	0.55
812.073	-0.41
812.245	0.55
812.417	-0.31
812.589	-0.73
812.76	-0.17
812.932	-0.01
813.104	0.35
813.276	-0.15
813.448	0.43
813.62	0.06
813.792	-0.08
813.964	-0.07
814.136	-0.1
814.307	-0.19
814.479	-0.28
814.651	0.01
814.823	0.46
814.995	-0.09
815.166	0.26
815.338	-0.48
815.51	-0.6
815.681	0.46
815.853	-0.18
816.025	-0.29
816.196	0.35
816.368	0.27
816.54	-0.82
816.711	-0.79
816.883	0.04
817.054	0.58
817.226	-0.8
817.398	-0.17
817.569	-0.44
817.741	0.06
817.912	-0.39
818.084	0.09
818.255	0.15
818.426	-0.16
818.598	-0.16
818.769	-0.57
818.941	-0.04
819.112	0.67
819.283	0.53
819.455	-0.09
819.626	-0.25
819.798	-0.01
819.969	-0.12
820.14	-0.32
820.311	-0.41
820.483	0.07
820.654	0.13
820.825	0.12
820.996	-0.46
821.168	-0.25
821.339	-0.16
821.51	-0.46
821.681	-0.17
821.852	-0.03
822.023	-0.34
822.195	-0.69
822.366	0.22
822.537	0.02
822.708	0.02
822.879	-0.45
823.05	0.31
823.221	-0.51
823.392	0.35
823.563	-0.23
823.734	-0.18
823.905	0.17
824.076	-0.1
824.247	-0.38
824.418	-0.42
824.589	0.68
824.759	0.07
824.93	-0.42
825.101	-0.64
825.272	0.08
825.443	0.52
825.614	0.28
825.784	-1.56
825.955	0.63
826.126	0.52
826.297	0.03
826.467	0.26
826.638	0.16
826.809	-1.44
826.98	-0.69
827.15	0.2
827.321	-0.17
827.492	0.43
827.662	-0.41
827.833	0.57
828.003	0.04
828.174	-0.78
828.345	-0.83
828.515	0.47
828.686	-0.22
828.856	-0.3
829.027	-0.12
829.197	0.14
829.368	-0.28
829.538	-0.21
829.709	-0.25
829.879	0.09
830.049	-0.09
830.22	-0.16
830.39	-0.35
830.56	0.18
830.731	-0.18
830.901	-0.11
831.072	-0.2
831.242	-0.02
831.412	-0.42
831.582	-0.12
831.753	-0.43
831.923	0.43
832.093	0.33
832.263	-0.54
832.434	-0.53
832.604	0.09
832.774	0.46
832.944	-0.29
833.114	-0.51
833.284	-0.28
833.454	-0.84
833.624	-0.14
833.795	-0.67
833.965	0.49
834.135	0.54
834.305	-0.87
834.475	-0.56
834.645	0.11
834.815	-0.57
834.985	-0.7
835.155	-0.37
835.325	-0.05
835.494	-0.06
835.664	-0.35
835.834	-0.72
836.004	-0.38
836.174	0.02
836.344	0.02
836.514	-0.78
836.684	-0.07
836.853	-0.34
837.023	-0.38
837.193	-0.55
837.363	0.69
837.532	0.4
837.702	-0.47
837.872	-0.78
838.041	0.42
838.211	1.69
838.381	-0.88
838.55	-0.06
838.72	2.14
838.89	1.36
839.059	-0.65
839.229	-0.36
839.398	0.7
839.568	0.22
839.738	-0.68
839.907	1.31
840.077	-0.05
840.246	-0.47
840.416	-0.55
840.585	-1.52
840.755	0.79
840.924	1.04
841.093	-0.82
841.263	-0.26
841.432	-0.74
841.602	-1.32
841.771	-0.99
841.94	-0.23
842.11	1.9
842.279	0.96
842.448	-1.21
842.617	-0.89
842.787	1.19
842.956	-0.84
843.125	-0.04
843.294	-0.2
843.464	0.61
843.633	-0.08
843.802	-1.08
843.971	0.43
844.14	0.64
844.309	0.47
844.479	-0.79
844.648	-0.13
844.817	-0.03
844.986	-0.17
845.155	-0.05
845.324	0.01
845.493	-0.27
845.662	-0.84
845.831	0.37
846	0.24
846.169	-0.65
846.338	1.1
846.507	0.3
846.676	0.75
846.844	-1.83
847.013	0.36
847.182	0.01
847.351	-0.78
847.52	0.01
847.689	0.51
847.858	-0.42
848.026	-0.81
848.195	0.31
848.364	-0.28
848.533	-0.69
848.701	-0.38
848.87	0.17
849.039	0.78
849.207	0.77
849.376	1
849.545	1.34
849.713	-1.52
849.882	0.3
850.051	-0.18
850.219	0.51
850.388	0.65
850.556	-0.02
850.725	-0.6
850.893	0.08
851.062	0.46
851.23	1.07
851.399	-0.94
851.567	-0.94
851.736	-0.82
851.904	-1.26
852.073	0.72
852.241	0.12
852.41	1.85
852.578	-0.24
852.746	-0.3
852.915	-0.01
853.083	-0.18
853.251	-1.4
853.42	-0.81
853.588	-0.48
853.756	1.32
853.924	-0.54
854.093	-0.2
854.261	-0.73
854.429	-1.32
854.597	0.39
854.765	-1.38
854.934	-1.11
855.102	0.89
855.27	0.37
855.438	-0.68
855.606	0.51
855.774	1.11
855.942	-2.12
856.11	-1.53
856.278	0.22
856.446	0.14
856.614	-0.62
856.782	-0.12
856.95	0.25
857.118	-0.41
857.286	0.14
857.454	-0.46
857.622	0.3
857.79	0.52
857.958	-1.35
858.126	-0.63
858.294	-2.56
858.462	-0.99
858.629	-1.47
858.797	-0.54
858.965	-0.88
859.133	0.22
859.301	-0.56
859.468	0.59
859.636	-1.04
859.804	1.69
859.971	0.57
860.139	-1.33
860.307	0.26
860.474	-0.45
860.642	-0.69
860.81	-0.77
860.977	-0.71
861.145	0.95
861.313	-1.91
861.48	0.27
861.648	1.83
861.815	-0.11
861.983	-0.25
862.15	0.26
862.318	-0.42
862.485	0.59
862.653	-0.94
862.82	-1.38
862.988	2.1
863.155	1.02
863.322	-1.04
863.49	-1.46
863.657	-1.45
863.824	1.52
863.992	0.13
864.159	0.74
864.326	0.2
864.494	-1.22
864.661	2.99
864.828	-1.83
864.996	0.79
865.163	0.96
865.33	-1.14
865.497	-2.8
865.664	-0.94
865.832	-1.95
865.999	-0.65
866.166	-1.91
866.333	-1.92
866.5	-1.27
866.667	-0.23
866.834	-1.78
867.001	1.71
867.168	-1.7
867.335	-0.14
867.502	-1.82
867.669	0.24
867.836	2.36
868.003	-0.36
868.17	0.56
868.337	-2.6
868.504	2.64
868.671	-1.08
868.838	-2.51
869.005	0.35
869.172	0.46
869.339	0.12
869.505	-0.14
869.672	0.1
869.839	2.57
870.006	0.46
870.173	-3.26
870.339	-0.42
870.506	2.14
870.673	-1.45
870.84	1.65
871.006	0.2
871.173	-0.47
871.34	-1.02
871.506	-1.69
871.673	0.22
871.839	-2.12
872.006	0.01
872.173	-0.04
872.339	0.11
872.506	2.09
872.672	-0.36
872.839	-1.82
873.005	-0.24
873.172	3.94
873.338	-0.56
873.505	-0.95
873.671	0.63
873.838	0.99
874.004	-2.9
874.171	-0.9
874.337	-0.64
874.503	1
874.67	-1.34
874.836	-0.87
875.002	1.72
875.169	0.37
875.335	0.22
875.501	-2.01
875.668	1.08
875.834	0.06
876	0.74
876.166	1.1
876.332	1.16
876.499	1.32
876.665	-1.33
876.831	0.54
876.997	3.14
877.163	-0.3
877.329	-0.65
877.495	-0.89
877.662	0.61
877.828	0.14
877.994	0.65
878.16	-2.76
878.326	-1.88
878.492	1.12
878.658	-0.14
878.824	-0.14
878.99	1.83
879.156	-2.47
879.322	3.61
879.487	-0.63
879.653	1.45
879.819	0.44
879.985	-1.37
880.151	-1.24
880.317	1.39
880.483	2.02
880.648	-0.65
880.814	-1.97
880.98	-0.89
881.146	-1.89
881.312	-1.66
881.477	-1.49
881.643	-0.09
881.809	1.48
881.974	1.25
882.14	-3.03
882.306	-0.27
882.471	2.32
882.637	-1.89
882.803	2.14
882.968	1.8
883.134	3.62
883.299	-0.2
883.465	0.36
883.63	1.89
883.796	1.03
883.961	0.23
884.127	-0.46
884.292	-3.31
884.458	-0.82
884.623	-0.82
