Data from Apollo_Calib_20240827__AbsoluteIrradiance__155__01-44-02-312.txt Node

Date: Wed Aug 28 01:44:02 BST 2024
User: biology
Spectrometer: FLMT08252
Trigger mode: 0
Integration Time (sec): 5.000000E-1
Scans to average: 5
Electric dark correction enabled: true
Nonlinearity correction enabled: false
Boxcar width: 0
XAxis mode: Wavelengths
Number of Pixels in Spectrum: 3648
>>>>>Begin Spectral Data<<<<<
179.588	-0
179.809	-0
180.03	-0
180.251	-0
180.473	-0
180.694	0
180.915	0
181.136	-0
181.357	0
181.578	-0
181.799	-0
182.02	-0
182.241	0
182.462	0
182.683	0
182.904	0
183.125	-0
183.346	0
183.567	0
183.788	-0
184.009	-0
184.23	0
184.451	0
184.672	-0
184.892	-0
185.113	0
185.334	0
185.555	-0
185.776	-0
185.996	0
186.217	-0
186.438	-0
186.659	-0
186.879	-0
187.1	-0
187.321	-0
187.541	-0
187.762	-0
187.983	-0
188.203	0
188.424	0
188.644	-0
188.865	0
189.086	-0
189.306	-0
189.527	-0
189.747	-0
189.968	-0
190.188	0
190.409	-0
190.629	0
190.849	-0
191.07	-0
191.29	0
191.511	-0
191.731	-0
191.951	-0
192.172	-0
192.392	-0
192.612	-0
192.833	-0
193.053	0
193.273	0
193.493	-0
193.714	-0
193.934	0
194.154	0
194.374	-0
194.594	-0
194.815	-0
195.035	-0
195.255	-0
195.475	-0
195.695	0
195.915	0
196.135	-0
196.355	0
196.575	0
196.795	0
197.015	-0
197.235	-0
197.455	-0
197.675	0
197.895	-0
198.115	-0
198.335	0
198.555	-0
198.775	0
198.995	-0
199.214	0
199.434	-0
199.654	-0
199.874	-0
200.094	0.71
200.313	-0.54
200.533	-0.07
200.753	-0.74
200.973	0.38
201.192	0.23
201.412	-0.79
201.632	-0.08
201.851	0.29
202.071	-0.56
202.291	-0.48
202.51	-0.98
202.73	-0.03
202.95	-0.69
203.169	-0.99
203.389	-0.12
203.608	-0.21
203.828	-0.67
204.047	-0.36
204.267	0.2
204.486	-0.21
204.706	0.03
204.925	-0.27
205.145	-0.3
205.364	0.1
205.583	-0.05
205.803	-0.5
206.022	-0.79
206.242	-0.22
206.461	0.06
206.68	-0.71
206.9	-0.1
207.119	0.09
207.338	0.22
207.557	-0.36
207.777	-0.26
207.996	-0.06
208.215	-0.02
208.434	-0.53
208.654	-0.61
208.873	0.16
209.092	0.2
209.311	-0.4
209.53	-0.43
209.749	-0.39
209.968	-0.59
210.187	-0.43
210.407	-0.71
210.626	-0.08
210.845	0.05
211.064	-0.08
211.283	-0.35
211.502	0.29
211.721	-0.07
211.94	-0.2
212.159	0.05
212.377	-0.06
212.596	0.17
212.815	-0.21
213.034	-0.25
213.253	0.27
213.472	0.08
213.691	-0.16
213.91	-0.34
214.128	-0.11
214.347	0.16
214.566	-0.49
214.785	-0.46
215.003	0
215.222	0.02
215.441	-0.09
215.66	-0.45
215.878	-0.05
216.097	0.16
216.316	-0.3
216.534	-0.38
216.753	-0.02
216.972	-0
217.19	-0.01
217.409	-0.33
217.627	-0.3
217.846	-0.08
218.064	-0.13
218.283	-0.36
218.501	0.31
218.72	-0.09
218.938	-0.19
219.157	-0.29
219.375	0.08
219.594	0.06
219.812	-0.39
220.031	-0.22
220.249	0.14
220.467	0.14
220.686	-0.2
220.904	-0.38
221.122	-0.2
221.341	0.34
221.559	0.03
221.777	-0.32
221.995	-0.19
222.214	0.21
222.432	-0.21
222.65	-0.08
222.868	0.04
223.086	-0.12
223.305	0.04
223.523	-0.09
223.741	0.08
223.959	-0.2
224.177	-0.32
224.395	-0.23
224.613	0.06
224.831	0.04
225.049	-0.15
225.267	-0.24
225.485	-0.05
225.703	-0.08
225.921	-0.12
226.139	-0.1
226.357	0.1
226.575	-0.1
226.793	-0.18
227.011	0.42
227.229	0.07
227.447	0.11
227.665	-0.21
227.883	-0.38
228.1	0.03
228.318	-0.02
228.536	-0.36
228.754	-0.26
228.972	0.18
229.189	0.06
229.407	-0.09
229.625	-0.06
229.843	0.11
230.06	0.06
230.278	-0.18
230.496	0.04
230.713	-0.04
230.931	0.17
231.149	-0.16
231.366	-0.22
231.584	-0.04
231.801	0.22
232.019	-0.2
232.236	-0.22
232.454	-0.14
232.671	0.09
232.889	-0.17
233.106	-0.15
233.324	-0.04
233.541	-0.05
233.759	-0.11
233.976	-0.16
234.194	-0.11
234.411	-0.09
234.628	-0.21
234.846	-0.17
235.063	-0.03
235.28	-0.12
235.498	-0.07
235.715	-0.13
235.932	0.05
236.149	-0.03
236.367	-0.11
236.584	-0.03
236.801	-0.12
237.018	0.01
237.236	-0.03
237.453	-0.23
237.67	0.23
237.887	-0.03
238.104	-0.06
238.321	-0.09
238.538	-0.14
238.755	0.07
238.973	-0.19
239.19	-0.06
239.407	0.07
239.624	-0.05
239.841	-0.14
240.058	-0.13
240.275	-0.05
240.492	-0.17
240.709	0.05
240.925	-0.14
241.142	-0.06
241.359	-0.16
241.576	-0.07
241.793	-0.13
242.01	0
242.227	0.02
242.444	-0.06
242.66	0.01
242.877	0.02
243.094	-0.08
243.311	-0.02
243.527	-0.03
243.744	0.02
243.961	0.04
244.178	-0.08
244.394	-0.11
244.611	0.04
244.828	0.09
245.044	-0.19
245.261	-0.09
245.477	-0.03
245.694	-0.02
245.911	-0.16
246.127	-0.04
246.344	0.06
246.56	0.06
246.777	-0.04
246.993	-0.04
247.21	0.07
247.426	0.02
247.643	-0.13
247.859	-0.12
248.076	-0.1
248.292	0.05
248.508	-0
248.725	-0.05
248.941	-0.01
249.157	0.09
249.374	-0.12
249.59	-0.08
249.806	0.05
250.023	-0.08
250.239	-0.11
250.455	-0.14
250.671	0.01
250.888	-0.01
251.104	0.07
251.32	-0.06
251.536	-0.08
251.752	-0.07
251.969	-0.01
252.185	-0.03
252.401	0.13
252.617	-0.03
252.833	-0
253.049	-0.01
253.265	-0.06
253.481	-0.08
253.697	-0.06
253.913	-0.1
254.129	-0.07
254.345	-0.09
254.561	-0.03
254.777	-0.03
254.993	0.14
255.209	-0.03
255.425	-0.01
255.641	-0.08
255.857	0.05
256.073	-0.04
256.288	-0.11
256.504	-0.03
256.72	-0.01
256.936	0.07
257.152	-0.09
257.367	-0.11
257.583	-0.05
257.799	-0
258.015	-0.03
258.23	-0.12
258.446	0.07
258.662	-0.08
258.877	-0.07
259.093	-0.08
259.309	-0.05
259.524	0
259.74	-0.12
259.955	-0.12
260.171	-0.03
260.387	-0.06
260.602	0.05
260.818	0.05
261.033	-0.13
261.249	-0.11
261.464	-0.08
261.68	-0.1
261.895	-0.01
262.11	0.01
262.326	-0.12
262.541	-0.14
262.757	0
262.972	-0.03
263.187	-0.05
263.403	-0
263.618	-0.01
263.833	0.01
264.049	-0.1
264.264	-0.04
264.479	0.06
264.694	0.05
264.91	-0.11
265.125	-0.06
265.34	0.01
265.555	0.16
265.77	0.03
265.986	-0.01
266.201	0.06
266.416	0.04
266.631	-0
266.846	-0.06
267.061	0.04
267.276	-0.04
267.491	-0.11
267.706	-0.03
267.921	0.02
268.136	0.01
268.351	0
268.566	-0.12
268.781	0.06
268.996	0.01
269.211	-0.01
269.426	-0.06
269.641	-0.09
269.856	0.03
270.071	-0.07
270.285	-0.13
270.5	-0
270.715	0.04
270.93	-0.1
271.145	-0.04
271.359	0.07
271.574	-0.1
271.789	-0.06
272.004	-0.06
272.218	-0.05
272.433	-0.02
272.648	-0.11
272.862	0.01
273.077	0.01
273.292	-0.02
273.506	-0.08
273.721	-0.03
273.936	0.01
274.15	-0.01
274.365	-0.07
274.579	0.01
274.794	0
275.008	0.07
275.223	-0.07
275.437	-0.05
275.652	-0.06
275.866	-0.01
276.081	-0.02
276.295	0.03
276.509	-0.01
276.724	-0.04
276.938	0.02
277.153	-0.03
277.367	0.06
277.581	-0.01
277.796	-0.11
278.01	-0.06
278.224	0.04
278.438	0.06
278.653	-0.03
278.867	-0.08
279.081	-0.19
279.295	-0.06
279.51	-0.01
279.724	-0.12
279.938	0.01
280.152	0.01
280.366	-0.06
280.58	-0.01
280.794	-0
281.008	0.01
281.222	0.08
281.437	0.07
281.651	0.02
281.865	0.08
282.079	-0.05
282.293	-0.11
282.507	-0.11
282.721	-0.05
282.935	0.02
283.148	-0.13
283.362	-0.06
283.576	-0.1
283.79	0.02
284.004	-0.05
284.218	0.06
284.432	-0.02
284.646	-0.02
284.859	-0.08
285.073	-0.05
285.287	-0
285.501	0
285.714	-0.05
285.928	-0.05
286.142	-0.03
286.356	-0.06
286.569	-0.03
286.783	0
286.997	0.01
287.21	-0.01
287.424	-0.03
287.637	-0.03
287.851	-0.02
288.065	0.05
288.278	-0.03
288.492	0.02
288.705	-0
288.919	0.02
289.132	-0.12
289.346	0.03
289.559	-0.1
289.773	-0.04
289.986	-0.04
290.2	-0.02
290.413	0.01
290.626	-0.09
290.84	-0.05
291.053	-0.01
291.267	0.06
291.48	-0.04
291.693	-0.03
291.906	-0.02
292.12	-0.04
292.333	-0.08
292.546	-0.08
292.76	0.07
292.973	0.01
293.186	-0.02
293.399	-0.06
293.612	0.02
293.826	-0.04
294.039	-0.05
294.252	0
294.465	0.01
294.678	-0.02
294.891	0
295.104	-0.07
295.317	-0.01
295.53	-0.02
295.743	-0.01
295.956	-0.03
296.169	0.07
296.382	0
296.595	0.03
296.808	-0.04
297.021	0.06
297.234	0.03
297.447	-0.01
297.66	-0.01
297.873	0.04
298.086	0.02
298.299	-0.04
298.511	-0.11
298.724	-0.04
298.937	-0.06
299.15	0.01
299.363	-0.01
299.575	0.04
299.788	0.02
300.001	0.03
300.213	-0.03
300.426	-0.01
300.639	-0.04
300.852	-0.04
301.064	0.03
301.277	0.04
301.489	0.02
301.702	0.01
301.915	-0.01
302.127	0.01
302.34	0.04
302.552	0.01
302.765	-0.03
302.977	0.04
303.19	-0.04
303.402	-0.01
303.615	-0.03
303.827	-0.05
304.04	-0.03
304.252	0.03
304.464	-0.03
304.677	0.12
304.889	-0
305.102	-0.03
305.314	-0.06
305.526	0.02
305.739	-0.01
305.951	-0.05
306.163	-0.05
306.375	0.03
306.588	-0.02
306.8	-0.05
307.012	-0.09
307.224	0
307.436	0.03
307.649	-0.1
307.861	-0
308.073	0.02
308.285	-0.04
308.497	-0.04
308.709	-0.02
308.921	-0.01
309.133	0
309.346	-0.04
309.558	-0.03
309.77	-0
309.982	0.04
310.194	-0.01
310.406	-0.06
310.617	0.06
310.829	-0.02
311.041	-0.02
311.253	-0.01
311.465	0.01
311.677	0.02
311.889	0.01
312.101	-0.03
312.313	-0
312.524	0.03
312.736	-0.06
312.948	-0.04
313.16	0.04
313.372	0.01
313.583	-0.02
313.795	-0.02
314.007	-0.07
314.218	0.06
314.43	-0.03
314.642	-0.03
314.853	-0.07
315.065	0.02
315.277	-0.04
315.488	0.01
315.7	0.03
315.912	0.03
316.123	-0.01
316.335	-0.03
316.546	0.07
316.758	-0.03
316.969	-0.06
317.181	0
317.392	-0.01
317.604	0.05
317.815	-0.07
318.026	-0.07
318.238	-0
318.449	0.02
318.661	-0.08
318.872	-0.08
319.083	-0.03
319.295	-0.02
319.506	-0.02
319.717	-0.05
319.929	-0.02
320.14	-0.05
320.351	-0.02
320.562	-0.01
320.774	0.04
320.985	-0
321.196	-0.09
321.407	-0.08
321.618	0.01
321.829	-0.05
322.041	-0
322.252	0.03
322.463	0.01
322.674	-0.01
322.885	-0.05
323.096	-0.03
323.307	-0.02
323.518	0.01
323.729	-0.05
323.94	-0.04
324.151	-0.02
324.362	0.03
324.573	-0
324.784	-0.07
324.995	0.04
325.206	-0
325.417	-0.05
325.628	-0.03
325.838	-0.02
326.049	0.04
326.26	0.01
326.471	-0.06
326.682	0.01
326.892	-0.01
327.103	-0.07
327.314	-0.05
327.525	0
327.735	0.01
327.946	-0.06
328.157	-0.03
328.368	0.03
328.578	-0
328.789	0.01
328.999	-0.03
329.21	-0.03
329.421	0.01
329.631	-0.06
329.842	-0.06
330.052	0
330.263	0.03
330.473	0.04
330.684	-0.03
330.894	-0.01
331.105	-0.02
331.315	-0
331.526	-0.07
331.736	0.05
331.947	0.01
332.157	-0.01
332.367	-0.03
332.578	0.05
332.788	0.06
332.999	0.01
333.209	-0.03
333.419	-0.03
333.629	0
333.84	0.01
334.05	-0
334.26	-0
334.47	-0.01
334.681	0.02
334.891	-0.03
335.101	-0.01
335.311	0.06
335.521	-0.04
335.732	-0.08
335.942	0.07
336.152	0.04
336.362	0.02
336.572	0.01
336.782	0.01
336.992	-0.01
337.202	-0.01
337.412	-0.07
337.622	0.02
337.832	-0
338.042	-0
338.252	-0.03
338.462	-0.01
338.672	-0
338.882	-0.04
339.092	0
339.302	0.04
339.511	-0
339.721	-0.02
339.931	-0.06
340.141	0.01
340.351	0.03
340.561	-0.01
340.77	-0.03
340.98	-0.02
341.19	0.04
341.4	-0.05
341.609	-0.11
341.819	-0.01
342.029	-0.03
342.238	0.02
342.448	-0.05
342.658	0.04
342.867	-0.02
343.077	-0.03
343.286	-0
343.496	-0.02
343.706	0.03
343.915	-0.06
344.125	-0
344.334	0.03
344.544	-0.09
344.753	0
344.963	-0.06
345.172	-0.03
345.381	-0.04
345.591	-0.07
345.8	0.01
346.01	0.04
346.219	-0
346.428	-0.16
346.638	-0.03
346.847	-0.01
347.056	-0.01
347.266	-0.04
347.475	0.03
347.684	-0
347.893	0.05
348.103	-0.02
348.312	0
348.521	-0.01
348.73	-0.03
348.94	-0.02
349.149	-0.03
349.358	-0.01
349.567	-0.06
349.776	-0.06
349.985	-0.06
350.194	0.04
350.403	0.03
350.612	-0.09
350.821	-0.02
351.03	-0.02
351.239	-0.06
351.448	-0.05
351.657	-0.03
351.866	0.04
352.075	-0.01
352.284	0.03
352.493	-0.02
352.702	0.06
352.911	0.02
353.12	-0.01
353.329	-0.04
353.538	0
353.746	0.02
353.955	-0.06
354.164	0.03
354.373	-0.01
354.582	0
354.79	-0.02
354.999	0.01
355.208	-0.07
355.416	0.06
355.625	-0.05
355.834	-0.01
356.042	-0.02
356.251	-0.02
356.46	-0.04
356.668	0.03
356.877	0.09
357.085	-0.01
357.294	-0.05
357.503	-0.01
357.711	-0
357.92	0.09
358.128	0
358.337	-0.03
358.545	0.03
358.754	-0
358.962	0.04
359.17	0.01
359.379	0.04
359.587	-0
359.796	-0.02
360.004	0.01
360.212	0.03
360.421	0.04
360.629	-0.05
360.837	-0.02
361.046	0.02
361.254	0.1
361.462	-0.01
361.67	-0.08
361.879	-0.01
362.087	0.06
362.295	0
362.503	-0.03
362.711	-0.04
362.92	-0.04
363.128	-0.03
363.336	-0.06
363.544	-0.05
363.752	-0.05
363.96	-0.07
364.168	-0.03
364.376	0.01
364.584	-0.01
364.792	0
365	-0.02
365.208	-0.02
365.416	0.03
365.624	-0
365.832	-0.06
366.04	0.05
366.248	0.02
366.456	0.03
366.664	0.01
366.872	-0.02
367.079	0
367.287	-0.02
367.495	-0
367.703	0.02
367.911	-0.02
368.118	0.01
368.326	-0.03
368.534	-0.06
368.742	0.01
368.949	-0.06
369.157	-0.02
369.365	0.05
369.572	-0.01
369.78	-0.06
369.988	0.02
370.195	-0.01
370.403	0.03
370.61	-0.04
370.818	-0.02
371.026	0.01
371.233	-0.06
371.441	-0.03
371.648	-0.03
371.856	-0
372.063	0
372.271	0.01
372.478	0.01
372.685	-0.06
372.893	0.03
373.1	-0.02
373.308	-0.04
373.515	0.06
373.722	0.04
373.93	-0.04
374.137	0.01
374.344	0.06
374.552	0.04
374.759	0.02
374.966	-0.01
375.173	-0.04
375.381	0.01
375.588	0.01
375.795	-0.08
376.002	-0.05
376.209	-0.04
376.417	-0
376.624	-0.01
376.831	0.01
377.038	-0.01
377.245	-0.06
377.452	0
377.659	-0.01
377.866	-0.04
378.073	-0.02
378.28	-0.02
378.487	0
378.694	0.06
378.901	0.01
379.108	0
379.315	0.04
379.522	0.07
379.729	-0.02
379.936	0.03
380.143	-0.01
380.35	-0.02
380.557	-0
380.763	0.02
380.97	-0
381.177	-0.02
381.384	0
381.591	-0.03
381.797	-0.03
382.004	0
382.211	0.02
382.418	-0.02
382.624	0.07
382.831	0.02
383.038	0.02
383.244	-0.01
383.451	-0.02
383.658	0.01
383.864	0
384.071	-0.02
384.277	0.07
384.484	-0.02
384.69	0.04
384.897	-0.02
385.103	-0.05
385.31	-0.04
385.516	-0.01
385.723	-0.01
385.929	-0.02
386.136	-0.03
386.342	0.01
386.549	-0.02
386.755	0.05
386.961	0.02
387.168	-0.04
387.374	-0.02
387.58	0.01
387.787	0.01
387.993	0.02
388.199	0
388.406	0.02
388.612	0.04
388.818	-0.05
389.024	0.01
389.231	0.04
389.437	0.05
389.643	0.08
389.849	-0.01
390.055	0.03
390.261	0.06
390.467	0.03
390.674	-0.01
390.88	0.05
391.086	0.07
391.292	-0.02
391.498	0.06
391.704	0.06
391.91	0.04
392.116	-0
392.322	-0.03
392.528	0.04
392.734	-0
392.94	0.09
393.146	0.02
393.352	0.08
393.557	0.02
393.763	0.08
393.969	0.1
394.175	0.03
394.381	0.08
394.587	0.02
394.792	0.08
394.998	0.13
395.204	0.14
395.41	0.1
395.615	0.14
395.821	0.13
396.027	0.15
396.233	0.08
396.438	0.14
396.644	0.24
396.85	0.16
397.055	0.16
397.261	0.22
397.466	0.29
397.672	0.17
397.878	0.18
398.083	0.27
398.289	0.28
398.494	0.26
398.7	0.26
398.905	0.25
399.111	0.39
399.316	0.27
399.522	0.38
399.727	0.33
399.932	0.31
400.138	0.3
400.343	0.39
400.549	0.41
400.754	0.4
400.959	0.43
401.165	0.44
401.37	0.49
401.575	0.48
401.78	0.51
401.986	0.54
402.191	0.57
402.396	0.61
402.601	0.69
402.807	0.69
403.012	0.66
403.217	0.8
403.422	0.72
403.627	0.75
403.832	0.77
404.037	0.83
404.243	0.84
404.448	0.82
404.653	0.88
404.858	0.94
405.063	0.94
405.268	0.96
405.473	0.92
405.678	0.95
405.883	1.15
406.088	1.06
406.293	0.99
406.498	1.06
406.703	1.06
406.907	1.1
407.112	1.09
407.317	1.15
407.522	1.23
407.727	1.12
407.932	1.13
408.136	1.27
408.341	1.17
408.546	1.15
408.751	1.12
408.956	1.11
409.16	1.16
409.365	1.16
409.57	1.04
409.774	1.08
409.979	1.06
410.184	1.07
410.388	0.94
410.593	1.11
410.798	1
411.002	0.94
411.207	0.98
411.411	0.98
411.616	0.93
411.82	0.93
412.025	0.88
412.229	0.83
412.434	0.87
412.638	0.75
412.843	0.77
413.047	0.74
413.252	0.65
413.456	0.71
413.66	0.65
413.865	0.65
414.069	0.69
414.273	0.62
414.478	0.53
414.682	0.55
414.886	0.56
415.091	0.48
415.295	0.4
415.499	0.58
415.703	0.47
415.908	0.49
416.112	0.38
416.316	0.48
416.52	0.44
416.724	0.39
416.929	0.39
417.133	0.48
417.337	0.4
417.541	0.38
417.745	0.36
417.949	0.4
418.153	0.42
418.357	0.33
418.561	0.39
418.765	0.37
418.969	0.42
419.173	0.35
419.377	0.35
419.581	0.39
419.785	0.29
419.989	0.25
420.193	0.28
420.397	0.25
420.601	0.33
420.804	0.38
421.008	0.25
421.212	0.25
421.416	0.3
421.62	0.21
421.823	0.25
422.027	0.33
422.231	0.22
422.435	0.18
422.638	0.25
422.842	0.23
423.046	0.16
423.249	0.21
423.453	0.2
423.657	0.17
423.86	0.19
424.064	0.17
424.268	0.22
424.471	0.16
424.675	0.19
424.878	0.22
425.082	0.17
425.285	0.18
425.489	0.14
425.692	0.09
425.896	0.1
426.099	0.12
426.303	0.1
426.506	0.08
426.71	0.14
426.913	0.13
427.116	0.19
427.32	0.1
427.523	0.06
427.726	0.19
427.93	0.05
428.133	0.08
428.336	0.02
428.54	0.04
428.743	0.12
428.946	0.11
429.149	0.12
429.353	0.05
429.556	0.07
429.759	0.08
429.962	0.01
430.165	0.06
430.368	0.07
430.571	0.02
430.775	0.1
430.978	-0.01
431.181	0.09
431.384	0.03
431.587	0.03
431.79	0.04
431.993	-0.02
432.196	0.05
432.399	0.04
432.602	0.13
432.805	0.05
433.008	0.07
433.211	-0.06
433.414	0.11
433.616	0.07
433.819	0.02
434.022	-0.02
434.225	0.13
434.428	0.03
434.631	0.11
434.833	0.03
435.036	0
435.239	0.06
435.442	0.05
435.645	-0
435.847	0.04
436.05	0.12
436.253	0.08
436.455	0
436.658	0.05
436.861	0.12
437.063	-0.01
437.266	0.03
437.468	0.03
437.671	0.16
437.874	0.07
438.076	-0.06
438.279	-0.02
438.481	0
438.684	-0.01
438.886	0.08
439.089	-0.04
439.291	-0.04
439.494	0.03
439.696	-0.01
439.899	0
440.101	0.05
440.303	-0.06
440.506	0.06
440.708	-0.01
440.91	0.1
441.113	-0.03
441.315	0.06
441.517	-0.04
441.72	0.05
441.922	-0.04
442.124	-0.03
442.326	0.01
442.529	0.04
442.731	-0.01
442.933	0.08
443.135	-0.01
443.337	-0.05
443.539	0.01
443.742	-0.03
443.944	0.02
444.146	-0.03
444.348	-0
444.55	-0.01
444.752	-0.03
444.954	-0.03
445.156	0.01
445.358	-0.04
445.56	0.06
445.762	-0.02
445.964	-0.02
446.166	-0.01
446.368	0.02
446.57	-0.01
446.772	0.01
446.974	0
447.175	0.03
447.377	-0.02
447.579	-0.03
447.781	-0.05
447.983	0.02
448.184	0
448.386	-0.02
448.588	0
448.79	0.02
448.991	-0.08
449.193	0
449.395	-0.01
449.597	0.03
449.798	0.01
450	-0.01
450.202	-0
450.403	-0.01
450.605	0.03
450.806	-0.04
451.008	-0.09
451.21	-0.01
451.411	0.02
451.613	-0.02
451.814	0.02
452.016	0.04
452.217	-0.04
452.419	0.02
452.62	-0.02
452.821	-0.01
453.023	0.1
453.224	0.03
453.426	-0.04
453.627	0.05
453.828	0.06
454.03	-0.02
454.231	0.04
454.432	-0.07
454.634	0.07
454.835	-0.04
455.036	-0.08
455.238	0.04
455.439	0.04
455.64	-0.06
455.841	-0.02
456.042	0.07
456.244	0.02
456.445	-0.05
456.646	-0.03
456.847	-0.09
457.048	0.04
457.249	0.02
457.45	0.17
457.651	-0.07
457.852	-0
458.054	0.01
458.255	-0.03
458.456	0.04
458.657	-0.02
458.858	-0.05
459.058	-0
459.259	0.07
459.46	-0.01
459.661	-0.05
459.862	0.1
460.063	-0.03
460.264	0.08
460.465	-0.01
460.666	0.07
460.866	-0.05
461.067	-0.03
461.268	-0.01
461.469	0.01
461.67	0.01
461.87	-0.06
462.071	-0.06
462.272	-0.02
462.473	0.02
462.673	0.06
462.874	-0.01
463.075	0.01
463.275	-0.06
463.476	0.02
463.676	0.01
463.877	-0.01
464.078	0
464.278	0.07
464.479	-0.01
464.679	-0.03
464.88	-0.03
465.08	0.08
465.281	-0.07
465.481	-0.03
465.682	0.03
465.882	0.01
466.083	0.02
466.283	0.01
466.483	-0.02
466.684	-0.06
466.884	-0.02
467.085	-0.02
467.285	0.07
467.485	-0.03
467.686	-0.02
467.886	-0.05
468.086	0
468.286	0.02
468.487	-0
468.687	-0.09
468.887	-0.04
469.087	0.01
469.287	-0.01
469.488	-0.06
469.688	-0.01
469.888	0.04
470.088	0.06
470.288	0.06
470.488	0.02
470.688	-0.06
470.888	-0.04
471.088	-0.06
471.288	0.08
471.488	0.04
471.688	0.05
471.888	-0.03
472.088	0.04
472.288	-0
472.488	-0.04
472.688	-0.03
472.888	0.02
473.088	-0
473.288	-0.01
473.488	-0.01
473.688	0.07
473.887	-0
474.087	-0.01
474.287	-0.01
474.487	-0.07
474.687	0.01
474.886	-0.03
475.086	0
475.286	0.01
475.486	-0.01
475.685	0.01
475.885	-0.03
476.085	-0.03
476.284	0.03
476.484	-0.05
476.684	0.02
476.883	0.07
477.083	-0
477.282	-0.05
477.482	0.03
477.681	0.03
477.881	0.02
478.08	-0.05
478.28	-0.03
478.479	0.04
478.679	0.08
478.878	-0.03
479.078	-0.03
479.277	-0.03
479.477	-0.02
479.676	0.02
479.875	-0.01
480.075	-0.05
480.274	0.02
480.473	0.05
480.673	-0.04
480.872	0.03
481.071	-0.01
481.271	0.03
481.47	-0.04
481.669	-0.01
481.868	-0.02
482.067	-0.02
482.267	-0.02
482.466	-0.01
482.665	-0.03
482.864	-0.05
483.063	-0.05
483.262	0
483.461	0.03
483.661	0.02
483.86	-0.01
484.059	-0.01
484.258	-0.02
484.457	-0.02
484.656	0
484.855	0.04
485.054	-0.04
485.253	-0
485.452	-0.04
485.651	0.01
485.849	0.01
486.048	0
486.247	-0.04
486.446	-0.01
486.645	-0.04
486.844	-0.03
487.043	-0
487.241	0.01
487.44	-0.03
487.639	-0.02
487.838	0.01
488.037	-0.01
488.235	0.05
488.434	-0
488.633	-0.04
488.831	0
489.03	0.04
489.229	-0.03
489.427	0.02
489.626	0.03
489.825	0.04
490.023	0.01
490.222	-0.03
490.42	0.01
490.619	0.03
490.817	0
491.016	-0.01
491.214	0.02
491.413	-0
491.611	-0.01
491.81	0
492.008	0.01
492.207	0.03
492.405	-0.02
492.604	-0.03
492.802	0
493	0.01
493.199	-0.03
493.397	-0
493.595	0
493.794	0
493.992	0.02
494.19	-0.01
494.388	0.02
494.587	-0.04
494.785	-0.01
494.983	-0.04
495.181	-0
495.379	-0
495.578	-0.04
495.776	0
495.974	0.01
496.172	0
496.37	-0.01
496.568	-0.05
496.766	-0.01
496.964	-0
497.162	-0.01
497.36	-0.02
497.558	0.01
497.756	0.01
497.954	-0.01
498.152	-0.04
498.35	-0
498.548	-0.02
498.746	-0.01
498.944	-0.03
499.142	-0.01
499.34	-0.04
499.538	-0.01
499.736	-0.03
499.933	0.01
500.131	0.02
500.329	-0
500.527	0
500.725	0.02
500.922	-0
501.12	-0.01
501.318	-0.01
501.516	-0.02
501.713	0.02
501.911	0.01
502.109	-0.01
502.306	0
502.504	-0.02
502.701	-0.02
502.899	-0.03
503.097	0.03
503.294	-0.02
503.492	-0
503.689	0
503.887	0.02
504.084	0.04
504.282	0
504.479	-0.05
504.677	0.01
504.874	-0.03
505.072	-0.02
505.269	-0.01
505.466	0.02
505.664	-0.01
505.861	-0.04
506.059	-0.02
506.256	0.03
506.453	-0.02
506.651	0.03
506.848	-0.01
507.045	-0.01
507.242	-0.02
507.44	-0.01
507.637	0
507.834	-0.02
508.031	0.01
508.229	-0.02
508.426	-0.01
508.623	-0.01
508.82	-0.03
509.017	-0.04
509.214	-0.02
509.411	0.01
509.608	-0.04
509.805	-0.02
510.003	-0.01
510.2	-0.03
510.397	0.01
510.594	-0.03
510.791	-0.03
510.988	0
511.184	0.02
511.381	-0.01
511.578	-0.03
511.775	0.03
511.972	-0.04
512.169	-0.01
512.366	-0.02
512.563	0.02
512.76	-0
512.956	0.01
513.153	-0.01
513.35	0.01
513.547	-0.03
513.744	-0.01
513.94	-0.03
514.137	0.01
514.334	-0.03
514.53	-0
514.727	-0.01
514.924	0
515.12	-0.03
515.317	-0.04
515.514	-0.04
515.71	-0.04
515.907	-0.02
516.103	-0.01
516.3	0.02
516.497	0.01
516.693	0.02
516.89	-0.01
517.086	-0.05
517.283	0.04
517.479	0.02
517.676	-0.02
517.872	-0.01
518.068	-0.01
518.265	-0.03
518.461	-0
518.658	-0.04
518.854	-0.01
519.05	-0.02
519.247	-0.03
519.443	0
519.639	-0
519.836	-0.01
520.032	-0
520.228	-0.02
520.424	0.02
520.621	0.03
520.817	-0
521.013	0.01
521.209	0
521.405	0.02
521.601	-0.01
521.798	-0.01
521.994	0.02
522.19	-0.02
522.386	-0.02
522.582	-0
522.778	-0.02
522.974	-0.03
523.17	-0.01
523.366	-0
523.562	-0
523.758	-0.02
523.954	-0.02
524.15	-0.04
524.346	0.01
524.542	-0.02
524.738	-0.02
524.934	-0.02
525.129	-0.08
525.325	0
525.521	-0
525.717	0.01
525.913	0.01
526.109	-0.01
526.304	-0.01
526.5	0.01
526.696	0
526.892	-0.01
527.087	-0
527.283	-0.04
527.479	-0
527.674	-0.03
527.87	-0.01
528.066	-0.02
528.261	0
528.457	-0
528.653	-0.01
528.848	-0.03
529.044	0.01
529.239	-0.01
529.435	0
529.63	-0.02
529.826	0.03
530.021	-0.01
530.217	0.01
530.412	-0.02
530.608	-0.03
530.803	-0
530.999	-0.01
531.194	-0.04
531.389	-0.01
531.585	-0.06
531.78	-0.01
531.975	-0.01
532.171	0.01
532.366	-0.01
532.561	-0
532.757	-0.03
532.952	0
533.147	-0.01
533.342	0.01
533.538	-0.02
533.733	0.03
533.928	-0
534.123	-0.02
534.318	-0.04
534.513	-0
534.709	-0
534.904	-0.02
535.099	-0.02
535.294	-0.01
535.489	0.01
535.684	-0.04
535.879	-0.03
536.074	0
536.269	-0.02
536.464	-0.01
536.659	-0.01
536.854	-0.02
537.049	-0.02
537.244	-0
537.439	-0
537.634	0.03
537.828	-0
538.023	-0.01
538.218	-0.03
538.413	-0
538.608	-0.05
538.803	-0
538.997	-0.06
539.192	0.01
539.387	0.01
539.582	-0
539.776	0.01
539.971	-0.01
540.166	0
540.36	-0.05
540.555	-0.02
540.75	-0.01
540.944	-0.01
541.139	-0.05
541.334	-0.02
541.528	0.01
541.723	-0
541.917	-0.02
542.112	-0.06
542.306	-0.02
542.501	-0.02
542.695	-0.01
542.89	-0.01
543.084	-0
543.279	-0.01
543.473	-0.02
543.668	-0.01
543.862	-0.01
544.056	0.01
544.251	-0.01
544.445	0
544.64	-0.02
544.834	-0.03
545.028	0
545.222	0.01
545.417	0.02
545.611	-0.01
545.805	0
546	-0.02
546.194	-0.01
546.388	-0.02
546.582	0
546.776	-0.01
546.97	0.01
547.165	-0
547.359	-0.01
547.553	-0.03
547.747	-0
547.941	-0.01
548.135	-0.01
548.329	0.01
548.523	0.02
548.717	-0.03
548.911	-0.01
549.105	0
549.299	-0.01
549.493	0
549.687	0.01
549.881	-0.01
550.075	-0.02
550.269	-0.05
550.463	0.01
550.657	-0.03
550.85	-0.01
551.044	-0.02
551.238	-0
551.432	-0.01
551.626	-0.02
551.82	0
552.013	-0.02
552.207	-0.01
552.401	0.01
552.594	0.01
552.788	0.01
552.982	0
553.176	-0.04
553.369	0.01
553.563	-0.01
553.756	-0.05
553.95	-0.03
554.144	0
554.337	0
554.531	-0.01
554.724	-0.02
554.918	-0.02
555.111	0.01
555.305	0
555.498	0.02
555.692	0.02
555.885	-0.01
556.079	-0.01
556.272	-0.01
556.466	0
556.659	-0.01
556.852	-0.02
557.046	-0.03
557.239	0.01
557.432	-0.02
557.626	-0.04
557.819	0
558.012	-0
558.206	0.01
558.399	-0.02
558.592	-0
558.785	-0.02
558.979	0
559.172	-0.02
559.365	0.01
559.558	0.02
559.751	-0.03
559.944	-0.02
560.138	-0.02
560.331	-0.01
560.524	-0.03
560.717	-0.04
560.91	-0.01
561.103	0.01
561.296	-0.01
561.489	0.02
561.682	0
561.875	0.01
562.068	0
562.261	0.01
562.454	0.02
562.647	-0.01
562.84	0.02
563.032	-0.02
563.225	0.01
563.418	-0.02
563.611	0.01
563.804	-0.02
563.997	-0.05
564.19	-0.03
564.382	0.03
564.575	-0
564.768	-0.02
564.961	-0.01
565.153	-0.02
565.346	0.02
565.539	0.02
565.731	-0.01
565.924	0.01
566.117	-0.01
566.309	-0.01
566.502	-0.03
566.695	-0.01
566.887	-0
567.08	-0.03
567.272	-0.04
567.465	-0.01
567.657	-0.01
567.85	-0.01
568.042	0.02
568.235	0.01
568.427	-0.01
568.62	0.02
568.812	-0
569.005	-0
569.197	-0.06
569.389	-0
569.582	0.01
569.774	-0
569.966	-0.01
570.159	-0.03
570.351	0.01
570.543	-0.02
570.736	0.01
570.928	-0.03
571.12	0.01
571.312	-0.03
571.505	-0.04
571.697	0
571.889	-0.04
572.081	-0.01
572.273	-0.03
572.465	0.02
572.658	0
572.85	0.01
573.042	-0.02
573.234	-0.03
573.426	0.03
573.618	-0.05
573.81	-0.02
574.002	0.04
574.194	0.03
574.386	-0.05
574.578	-0.09
574.77	-0.05
574.962	-0.03
575.154	-0.04
575.346	-0.03
575.538	-0.01
575.729	-0.02
575.921	-0.02
576.113	-0
576.305	0.01
576.497	-0.03
576.689	-0.01
576.88	-0.02
577.072	0.01
577.264	-0.02
577.456	-0
577.647	-0.08
577.839	-0.02
578.031	0.04
578.223	-0.04
578.414	-0.04
578.606	0.02
578.798	0
578.989	-0.05
579.181	-0.01
579.372	0
579.564	-0.01
579.755	-0.01
579.947	0
580.139	0.01
580.33	-0.06
580.522	-0.03
580.713	-0.07
580.905	-0.01
581.096	0.02
581.287	0
581.479	-0.04
581.67	0.01
581.862	-0.01
582.053	-0.03
582.244	-0.05
582.436	-0.01
582.627	-0.02
582.818	-0.03
583.01	-0.05
583.201	0.01
583.392	0.02
583.583	0
583.775	-0.01
583.966	-0.02
584.157	-0.01
584.348	-0.02
584.54	-0.06
584.731	-0.02
584.922	-0.01
585.113	-0.04
585.304	-0.01
585.495	0.02
585.686	0.01
585.877	0
586.068	-0.01
586.259	-0.01
586.45	0.01
586.641	-0.04
586.832	-0.05
587.023	-0
587.214	-0.02
587.405	-0.01
587.596	-0.03
587.787	0.03
587.978	0
588.169	-0.05
588.36	-0.02
588.551	0.02
588.742	-0.01
588.932	0
589.123	-0.02
589.314	0.01
589.505	-0.01
589.696	0
589.886	-0.03
590.077	-0.06
590.268	-0.01
590.458	-0.05
590.649	-0.04
590.84	0.03
591.03	-0.05
591.221	-0.04
591.412	-0.06
591.602	0.01
591.793	0.03
591.984	-0.02
592.174	-0.05
592.365	0.04
592.555	-0.04
592.746	0.02
592.936	-0.02
593.127	0.01
593.317	0.01
593.508	-0.04
593.698	-0.02
593.889	0
594.079	-0.01
594.269	-0.02
594.46	-0.03
594.65	-0.03
594.84	-0.04
595.031	-0.04
595.221	-0.02
595.411	-0.05
595.602	0.01
595.792	-0.01
595.982	-0.01
596.172	0.03
596.363	0
596.553	-0
596.743	-0.03
596.933	-0.02
597.123	-0
597.314	-0.04
597.504	-0.02
597.694	0.01
597.884	-0
598.074	-0.02
598.264	-0.04
598.454	0.01
598.644	0.01
598.834	-0
599.024	-0.09
599.214	-0.01
599.404	0.01
599.594	-0.03
599.784	-0.02
599.974	0.04
600.164	-0
600.354	-0.07
600.544	-0.05
600.734	-0.01
600.924	0
601.114	-0.04
601.303	-0.01
601.493	-0.01
601.683	-0.03
601.873	0
602.063	-0.08
602.252	0.02
602.442	-0.09
602.632	-0.04
602.821	-0.02
603.011	-0
603.201	-0.03
603.39	-0.03
603.58	-0.04
603.77	0
603.959	0.03
604.149	-0.03
604.339	-0.01
604.528	0.02
604.718	0.01
604.907	-0.02
605.097	-0.05
605.286	-0.04
605.476	-0
605.665	0.01
605.855	-0.03
606.044	0.01
606.234	0.02
606.423	0
606.612	-0.06
606.802	-0.03
606.991	0
607.181	-0.03
607.37	-0.07
607.559	-0.01
607.749	-0.05
607.938	-0.02
608.127	-0.04
608.316	-0.03
608.506	-0.04
608.695	-0.04
608.884	-0.03
609.073	-0.03
609.263	0.02
609.452	0
609.641	0.01
609.83	-0.06
610.019	-0.01
610.208	-0.04
610.397	-0.02
610.586	-0.01
610.775	-0.02
610.965	-0.03
611.154	-0.06
611.343	0.01
611.532	-0.01
611.721	-0.05
611.91	-0.02
612.099	0.01
612.287	-0.06
612.476	-0.06
612.665	-0.02
612.854	-0.03
613.043	0
613.232	-0.02
613.421	-0.08
613.61	-0.01
613.798	-0.04
613.987	0.01
614.176	-0.03
614.365	0
614.554	0
614.742	0.01
614.931	-0.05
615.12	-0
615.309	-0.03
615.497	-0
615.686	-0.05
615.875	-0.01
616.063	-0.02
616.252	-0.05
616.44	-0.02
616.629	-0.02
616.818	0.02
617.006	-0.02
617.195	-0.04
617.383	-0.01
617.572	-0.01
617.76	-0.02
617.949	-0.03
618.137	0.01
618.326	0.01
618.514	-0.03
618.703	-0.05
618.891	0.02
619.079	-0.05
619.268	0.02
619.456	-0.03
619.644	0.02
619.833	-0.03
620.021	-0.05
620.209	-0.04
620.398	-0
620.586	-0.01
620.774	0.02
620.962	0
621.151	0.07
621.339	-0.01
621.527	-0.06
621.715	-0.05
621.903	-0.06
622.092	-0.04
622.28	0.01
622.468	-0.02
622.656	-0.05
622.844	0.03
623.032	-0.04
623.22	-0.07
623.408	0.01
623.596	0.01
623.784	-0.01
623.972	-0.03
624.16	-0.05
624.348	0.01
624.536	-0.04
624.724	-0.03
624.912	-0
625.1	0.04
625.288	-0.08
625.476	-0.04
625.664	0.01
625.851	-0.07
626.039	-0.06
626.227	0.01
626.415	0.01
626.603	-0.04
626.79	-0.01
626.978	-0.03
627.166	0
627.354	-0.02
627.541	-0.06
627.729	-0.08
627.917	0
628.104	0
628.292	-0.02
628.48	-0.04
628.667	0.02
628.855	-0.01
629.042	-0.02
629.23	-0.04
629.418	-0.02
629.605	-0.03
629.793	-0.07
629.98	-0.03
630.168	-0.03
630.355	-0.03
630.543	-0.01
630.73	-0.04
630.917	0.02
631.105	0.02
631.292	-0.01
631.48	-0
631.667	0.07
631.854	0.01
632.042	-0.03
632.229	-0.06
632.416	-0.02
632.604	-0.03
632.791	-0.07
632.978	0.01
633.165	0.02
633.353	0.04
633.54	0.05
633.727	-0.09
633.914	-0.05
634.101	-0.08
634.289	0
634.476	-0.05
634.663	-0.07
634.85	-0.05
635.037	-0.04
635.224	-0.07
635.411	0.03
635.598	0.04
635.785	-0.01
635.972	-0.05
636.159	-0
636.346	-0.04
636.533	-0.03
636.72	-0
636.907	-0.04
637.094	0.01
637.281	-0.04
637.468	0
637.655	-0.05
637.842	-0.03
638.029	-0.04
638.215	0
638.402	-0.01
638.589	-0.05
638.776	-0.05
638.963	-0.03
639.149	0.02
639.336	0.03
639.523	-0.02
639.709	-0.02
639.896	-0.05
640.083	0.01
640.27	0
640.456	-0.03
640.643	-0
640.829	-0.07
641.016	-0.04
641.203	-0.06
641.389	0.03
641.576	0.03
641.762	-0.02
641.949	-0.04
642.135	0.02
642.322	-0.01
642.508	-0.05
642.695	-0.05
642.881	-0.02
643.068	-0.03
643.254	-0.01
643.441	-0.02
643.627	-0.03
643.813	-0.04
644	0.03
644.186	-0.04
644.372	-0.04
644.559	0.02
644.745	-0.03
644.931	-0.04
645.118	-0.03
645.304	-0.03
645.49	-0.05
645.676	-0.03
645.862	-0.02
646.049	0.01
646.235	0.02
646.421	0.03
646.607	0.06
646.793	-0.06
646.979	-0.06
647.165	0.01
647.352	-0
647.538	0.03
647.724	-0.04
647.91	-0.02
648.096	0.04
648.282	0.03
648.468	-0.02
648.654	-0.01
648.84	-0.02
649.026	-0.01
649.212	-0
649.397	-0.05
649.583	-0.05
649.769	0.03
649.955	-0.04
650.141	0
650.327	0.04
650.513	-0.05
650.698	0.01
650.884	-0.09
651.07	0.01
651.256	-0.01
651.442	-0.02
651.627	-0.02
651.813	-0.06
651.999	-0.02
652.184	0.01
652.37	-0.03
652.556	-0.04
652.741	0.04
652.927	-0.08
653.113	-0.05
653.298	-0.02
653.484	-0.07
653.669	-0.06
653.855	-0.01
654.04	0.02
654.226	0.01
654.412	-0.03
654.597	-0.07
654.782	0.02
654.968	0.04
655.153	0.01
655.339	-0.05
655.524	-0.05
655.71	-0.01
655.895	-0.04
656.08	-0.03
656.266	0.02
656.451	-0
656.636	-0.08
656.822	-0.03
657.007	-0.04
657.192	-0.03
657.378	-0.07
657.563	-0.01
657.748	-0.01
657.933	0.01
658.118	-0.07
658.304	-0.04
658.489	0.01
658.674	0.01
658.859	-0.05
659.044	-0.01
659.229	0
659.414	-0.03
659.599	-0.01
659.785	-0.08
659.97	-0.04
660.155	-0.01
660.34	0
660.525	-0.02
660.71	-0.04
660.895	0.01
661.08	-0.09
661.264	-0.04
661.449	-0.01
661.634	0.02
661.819	-0
662.004	0.03
662.189	-0.08
662.374	-0.04
662.559	-0.07
662.743	-0.07
662.928	-0.01
663.113	-0.1
663.298	-0.06
663.483	-0.02
663.667	-0.01
663.852	-0.08
664.037	0.03
664.221	-0.04
664.406	0.01
664.591	-0.01
664.775	-0.03
664.96	-0.07
665.145	0.01
665.329	-0.01
665.514	-0.06
665.698	-0.04
665.883	-0.02
666.068	0.04
666.252	-0.03
666.437	-0.08
666.621	-0.03
666.806	-0.01
666.99	0.01
667.174	-0.08
667.359	0.07
667.543	-0.02
667.728	-0.05
667.912	-0.08
668.096	0.02
668.281	-0.06
668.465	0.02
668.649	-0.03
668.834	-0.05
669.018	-0.03
669.202	-0.05
669.387	-0.07
669.571	0.04
669.755	-0.08
669.939	-0.04
670.124	-0.02
670.308	0.06
670.492	0.01
670.676	-0.06
670.86	-0.06
671.044	-0.06
671.228	0.02
671.413	-0.05
671.597	-0.07
671.781	-0.03
671.965	-0.01
672.149	-0.01
672.333	-0.06
672.517	-0.04
672.701	-0.02
672.885	-0.04
673.069	-0.08
673.253	-0.01
673.437	-0.06
673.621	-0.1
673.804	-0.02
673.988	-0.02
674.172	-0.02
674.356	-0.11
674.54	-0.04
674.724	0.1
674.908	-0.02
675.091	0.01
675.275	-0.06
675.459	0.03
675.643	-0.03
675.826	0.01
676.01	-0.04
676.194	-0.04
676.377	0.03
676.561	0
676.745	-0.03
676.928	-0.05
677.112	0.04
677.296	-0.04
677.479	-0.03
677.663	-0.04
677.846	-0.03
678.03	-0.03
678.213	-0.03
678.397	0
678.58	-0.01
678.764	-0.06
678.947	-0.09
679.131	-0.09
679.314	-0.01
679.498	-0.04
679.681	-0.01
679.865	-0.02
680.048	-0.04
680.231	-0.02
680.415	-0.04
680.598	-0.01
680.781	-0.05
680.965	-0.06
681.148	-0.04
681.331	-0.07
681.514	0.05
681.698	-0.02
681.881	-0
682.064	-0.03
682.247	-0.02
682.43	-0.08
682.614	-0
682.797	0
682.98	0.02
683.163	-0.04
683.346	0
683.529	-0.02
683.712	-0.05
683.895	0
684.078	-0.08
684.261	-0.01
684.444	0.01
684.627	-0.03
684.81	-0.06
684.993	-0.02
685.176	-0.03
685.359	-0.06
685.542	-0.04
685.725	0.03
685.908	-0.02
686.091	-0.04
686.274	0.02
686.457	-0.04
686.639	-0.01
686.822	0.02
687.005	-0.07
687.188	0.02
687.371	0.09
687.553	-0.02
687.736	0
687.919	0.07
688.102	0.07
688.284	-0.09
688.467	0.02
688.65	-0.03
688.832	-0.03
689.015	-0.03
689.197	-0.06
689.38	0.07
689.563	0.05
689.745	-0.07
689.928	-0.06
690.11	0.01
690.293	0.03
690.475	-0.05
690.658	0.04
690.84	-0.03
691.023	-0.07
691.205	-0.04
691.388	-0.02
691.57	-0
691.752	0.04
691.935	-0.09
692.117	-0.09
692.3	-0.03
692.482	-0.04
692.664	-0.01
692.847	-0.03
693.029	0.01
693.211	-0.01
693.393	-0.02
693.576	-0.06
693.758	-0.04
693.94	-0.04
694.122	-0.05
694.304	-0.06
694.487	-0.03
694.669	0.03
694.851	-0.07
695.033	0.05
695.215	-0.04
695.397	-0.07
695.579	-0.01
695.761	-0.07
695.943	-0.07
696.125	0.06
696.308	-0
696.49	-0.12
696.671	0.08
696.853	-0.09
697.035	0.06
697.217	-0.05
697.399	0.02
697.581	-0.05
697.763	-0
697.945	-0.14
698.127	-0.02
698.309	-0
698.491	-0.04
698.672	0
698.854	0.02
699.036	0.05
699.218	-0.07
699.399	-0.01
699.581	0.03
699.763	-0.03
699.945	-0.07
700.126	-0.09
700.308	0.03
700.49	0.03
700.671	-0.03
700.853	-0.08
701.035	-0.04
701.216	-0.03
701.398	-0.08
701.579	-0.04
701.761	0.05
701.943	-0.04
702.124	-0.08
702.306	-0.07
702.487	0.04
702.669	0.01
702.85	-0.06
703.031	-0.08
703.213	-0.02
703.394	0.05
703.576	-0.04
703.757	0.03
703.938	0.06
704.12	0.11
704.301	-0.04
704.483	-0.1
704.664	0.01
704.845	0.02
705.026	-0.04
705.208	-0.09
705.389	-0.02
705.57	-0.05
705.751	-0.02
705.933	-0.01
706.114	0.04
706.295	-0.05
706.476	-0.12
706.657	0.05
706.838	0.04
707.02	0.01
707.201	-0.01
707.382	-0.04
707.563	-0.04
707.744	-0.06
707.925	-0.11
708.106	-0.1
708.287	-0.03
708.468	0.07
708.649	-0.01
708.83	0.04
709.011	-0.06
709.192	0
709.373	-0.09
709.554	-0.02
709.734	-0
709.915	-0.02
710.096	-0.02
710.277	-0.13
710.458	0.02
710.639	-0.04
710.819	-0.1
711	-0.07
711.181	-0.02
711.362	0.05
711.542	-0.01
711.723	-0.04
711.904	0.01
712.085	-0.05
712.265	-0.02
712.446	-0.08
712.627	-0.07
712.807	-0.06
712.988	0.01
713.168	-0.08
713.349	0.05
713.53	-0.12
713.71	-0.11
713.891	-0.12
714.071	-0.04
714.252	-0.07
714.432	-0.08
714.613	-0.06
714.793	-0.06
714.974	0.01
715.154	-0
715.334	-0.01
715.515	0.03
715.695	-0.17
715.876	-0.08
716.056	-0.07
716.236	-0.04
716.417	-0.08
716.597	-0.11
716.777	0.1
716.957	-0.07
717.138	-0.03
717.318	-0.03
717.498	-0.1
717.678	-0.05
717.859	-0.05
718.039	-0.13
718.219	-0.04
718.399	-0.08
718.579	-0.14
718.759	-0.09
718.939	0.09
719.12	-0.06
719.3	-0.03
719.48	-0.21
719.66	-0.1
719.84	0.07
720.02	0
720.2	-0.1
720.38	-0.04
720.56	0.06
720.74	-0.05
720.92	-0.06
721.1	0.03
721.279	0.06
721.459	0.01
721.639	-0.09
721.819	-0.05
721.999	-0.02
722.179	0.05
722.359	-0.19
722.538	-0.07
722.718	0.02
722.898	-0.08
723.078	-0.1
723.257	-0.06
723.437	-0.08
723.617	-0.01
723.797	-0.04
723.976	-0.06
724.156	-0.11
724.336	0.03
724.515	0.07
724.695	-0.21
724.874	0.01
725.054	0.02
725.234	-0.11
725.413	0.01
725.593	-0.05
725.772	-0.1
725.952	-0.06
726.131	-0.04
726.311	-0.05
726.49	-0.11
726.67	-0.13
726.849	-0.05
727.028	0.01
727.208	-0.03
727.387	-0.06
727.567	-0.14
727.746	-0.01
727.925	-0.11
728.105	-0.1
728.284	-0.07
728.463	-0.09
728.643	-0.06
728.822	-0.15
729.001	0.02
729.18	-0.07
729.359	-0.05
729.539	-0.12
729.718	0
729.897	-0.01
730.076	-0.08
730.255	-0.19
730.434	-0.02
730.614	0.06
730.793	0.04
730.972	-0.13
731.151	-0.02
731.33	0.04
731.509	0.07
731.688	-0.08
731.867	-0.02
732.046	-0.19
732.225	0.13
732.404	-0.08
732.583	-0.09
732.762	-0.09
732.941	0.04
733.12	-0.05
733.298	-0.02
733.477	0.04
733.656	-0.08
733.835	-0.18
734.014	-0
734.193	-0.05
734.371	0.01
734.55	-0.02
734.729	-0.21
734.908	-0.03
735.086	0.06
735.265	0.05
735.444	-0.15
735.623	-0.2
735.801	-0.15
735.98	-0.05
736.159	-0.16
736.337	0.01
736.516	-0.01
736.694	-0.07
736.873	-0.07
737.052	0.05
737.23	0.06
737.409	-0.03
737.587	0.14
737.766	-0.11
737.944	-0.12
738.123	0.02
738.301	-0.04
738.479	0.01
738.658	-0.07
738.836	-0.28
739.015	-0.1
739.193	-0.01
739.371	-0.14
739.55	-0.04
739.728	-0.2
739.906	0.09
740.085	0.02
740.263	0.04
740.441	-0.24
740.62	0.21
740.798	0.14
740.976	-0.17
741.154	-0.24
741.332	0.06
741.511	-0.04
741.689	-0
741.867	0.07
742.045	-0.05
742.223	-0.08
742.401	-0.1
742.579	-0.05
742.757	-0.03
742.935	-0.08
743.114	-0.04
743.292	-0.02
743.47	0.01
743.648	-0.01
743.826	-0.22
744.004	-0.02
744.181	-0.1
744.359	0.03
744.537	-0.07
744.715	-0.17
744.893	-0.01
745.071	-0.02
745.249	-0.06
745.427	-0.22
745.605	-0.04
745.782	-0.08
745.96	0.09
746.138	-0.04
746.316	0.03
746.493	-0
746.671	-0.02
746.849	-0.04
747.027	0.07
747.204	-0.03
747.382	-0.09
747.56	-0.19
747.737	-0.09
747.915	-0.14
748.093	-0.03
748.27	-0.11
748.448	-0.04
748.625	-0.14
748.803	-0.12
748.98	-0.03
749.158	0.09
749.335	-0
749.513	-0.1
749.69	-0.01
749.868	-0.13
750.045	-0.07
750.223	-0.05
750.4	-0.21
750.578	0.04
750.755	-0.05
750.932	-0.16
751.11	0.06
751.287	-0.22
751.464	-0.07
751.642	-0.12
751.819	0.08
751.996	-0.02
752.173	-0.08
752.351	-0.19
752.528	-0.07
752.705	-0.05
752.882	-0.04
753.06	-0.08
753.237	0.06
753.414	0.17
753.591	0.09
753.768	-0.09
753.945	-0.12
754.122	-0.18
754.299	0.04
754.476	-0.21
754.654	-0.05
754.831	0.04
755.008	0.02
755.185	-0.19
755.362	-0.11
755.539	0.03
755.716	-0.17
755.892	-0.12
756.069	-0.05
756.246	-0.03
756.423	-0.1
756.6	0.15
756.777	0.01
756.954	-0.02
757.131	-0.15
757.307	-0.16
757.484	-0.07
757.661	-0.07
757.838	-0.07
758.015	-0.12
758.191	0.02
758.368	-0.08
758.545	0.16
758.721	-0.04
758.898	-0.15
759.075	0.13
759.251	0.03
759.428	0.02
759.605	-0.25
759.781	-0.14
759.958	-0.13
760.134	0.02
760.311	-0.1
760.488	0.1
760.664	0.12
760.841	-0.15
761.017	-0.14
761.194	0.13
761.37	0.06
761.547	0.02
761.723	-0.1
761.899	0.14
762.076	-0.15
762.252	-0.17
762.429	-0.1
762.605	0.07
762.781	-0.16
762.958	0.06
763.134	-0.13
763.31	-0.04
763.486	0
763.663	-0.16
763.839	0
764.015	-0.19
764.191	-0.16
764.368	-0.06
764.544	-0.15
764.72	-0.03
764.896	0.04
765.072	0.03
765.248	-0.08
765.425	-0.04
765.601	-0.05
765.777	0.01
765.953	-0.21
766.129	-0.13
766.305	-0.07
766.481	0.05
766.657	-0.01
766.833	0.16
767.009	-0.21
767.185	-0.12
767.361	-0.07
767.537	-0.24
767.713	0.01
767.889	-0.12
768.065	-0.06
768.24	0.08
768.416	0.15
768.592	-0.04
768.768	-0.14
768.944	-0.05
769.12	-0.15
769.295	-0.16
769.471	-0.02
769.647	-0.04
769.823	0.1
769.998	-0.13
770.174	-0.12
770.35	0.19
770.525	0.17
770.701	0.03
770.877	-0.02
771.052	-0.16
771.228	-0.1
771.403	0.07
771.579	-0.02
771.755	0.17
771.93	-0.05
772.106	-0.17
772.281	-0.18
772.457	-0.12
772.632	-0.12
772.808	-0.24
772.983	-0.12
773.159	-0.14
773.334	0.08
773.509	-0.05
773.685	-0.14
773.86	0.28
774.036	0.09
774.211	-0.03
774.386	-0.18
774.562	0.03
774.737	0.13
774.912	-0.22
775.087	0.05
775.263	0.09
775.438	-0.1
775.613	-0.14
775.788	-0.13
775.964	-0.02
776.139	0.36
776.314	-0.17
776.489	-0.11
776.664	-0.18
776.839	-0.14
777.014	-0.03
777.19	0.12
777.365	0.12
777.54	0.09
777.715	-0.17
777.89	-0.19
778.065	-0.17
778.24	0.01
778.415	0.06
778.59	-0.27
778.765	-0.16
778.94	-0.06
779.115	0.11
779.289	-0.16
779.464	-0.11
779.639	-0.06
779.814	-0.11
779.989	-0.13
780.164	0.07
780.339	0.01
780.513	-0.17
780.688	-0.26
780.863	-0.06
781.038	0.06
781.212	-0.22
781.387	-0.08
781.562	0.12
781.737	-0.09
781.911	0.09
782.086	-0.21
782.261	-0.02
782.435	0.14
782.61	-0.2
782.784	-0.01
782.959	0.1
783.134	-0.27
783.308	-0.28
783.483	-0.12
783.657	0.29
783.832	0.11
784.006	-0.39
784.181	-0.07
784.355	0.14
784.53	-0.07
784.704	-0.15
784.878	0.41
785.053	0.07
785.227	0.04
785.402	0.14
785.576	-0.18
785.75	-0.11
785.925	-0.15
786.099	-0.07
786.273	-0.05
786.448	0.05
786.622	0.09
786.796	-0.05
786.97	-0.19
787.145	0.38
787.319	-0.27
787.493	-0.37
787.667	-0.49
787.841	-0.17
788.015	-0
788.19	-0.2
788.364	0.11
788.538	0.13
788.712	0.01
788.886	0.06
789.06	-0.01
789.234	0.16
789.408	-0.28
789.582	-0.22
789.756	0.09
789.93	-0.31
790.104	-0.14
790.278	-0.17
790.452	-0.19
790.626	-0.06
790.8	-0.07
790.973	0.2
791.147	0.1
791.321	0.1
791.495	0.17
791.669	0.13
791.843	0.03
792.016	0.14
792.19	0.17
792.364	-0.32
792.538	0.39
792.711	0.28
792.885	-0.24
793.059	-0.46
793.233	-0.48
793.406	0.08
793.58	-0.07
793.754	-0.38
793.927	-0.15
794.101	0.21
794.274	-0.15
794.448	0.1
794.622	-0.27
794.795	0.2
794.969	-0.23
795.142	-0.03
795.316	-0.03
795.489	-0.16
795.663	0.29
795.836	-0.45
796.009	-0.1
796.183	0.27
796.356	0.19
796.53	-0.06
796.703	-0.15
796.876	0.38
797.05	-0.2
797.223	-0.21
797.396	-0.11
797.57	0.09
797.743	0.25
797.916	-0.17
798.09	-0.18
798.263	0.02
798.436	-0.12
798.609	-0.2
798.782	-0.26
798.956	-0.1
799.129	-0.08
799.302	-0.13
799.475	-0.26
799.648	-0.2
799.821	-0.37
799.994	-0.19
800.167	-0.39
800.34	-0.16
800.514	-0.07
800.687	-0.32
800.86	-0.44
801.033	-0.06
801.206	0.1
801.379	-0.5
801.551	0.09
801.724	0.46
801.897	0.05
802.07	-0.02
802.243	-0.3
802.416	-0.19
802.589	-0.33
802.762	0.12
802.935	-0.27
803.107	0.01
803.28	0.09
803.453	0.16
803.626	-0.33
803.798	-0.13
803.971	-0.01
804.144	0.13
804.317	-0.09
804.489	0.15
804.662	-0.37
804.835	-0.17
805.007	-0.16
805.18	0.3
805.353	0.13
805.525	-0.23
805.698	-0.09
805.87	0.21
806.043	0.27
806.215	-0.3
806.388	-0.51
806.56	0.19
806.733	0.39
806.905	-0.19
807.078	-0.16
807.25	-0.46
807.423	0.02
807.595	-0.22
807.768	-0.1
807.94	-0.03
808.112	-0.1
808.285	0.35
808.457	-0.03
808.629	-0.37
808.802	0.33
808.974	0.09
809.146	-0.09
809.318	-0.38
809.491	0.03
809.663	0.07
809.835	-0.3
810.007	0.03
810.18	-0.19
810.352	-0.65
810.524	-0.47
810.696	0.03
810.868	-0.01
811.04	-0.64
811.212	-0.31
811.384	0.11
811.556	-0.39
811.728	-0.1
811.901	1
812.073	-0.15
812.245	0.11
812.417	-0.33
812.589	-0.52
812.76	-0.16
812.932	-0.07
813.104	0.1
813.276	-0.31
813.448	0.18
813.62	0.03
813.792	0.06
813.964	0
814.136	-0.16
814.307	-0.4
814.479	-0.29
814.651	-0.4
814.823	0.46
814.995	-0.04
815.166	-0.25
815.338	-0.19
815.51	-0.55
815.681	0.59
815.853	0.03
816.025	-0.28
816.196	0.62
816.368	-0.33
816.54	-0.5
816.711	-0.54
816.883	0.31
817.054	0.83
817.226	-0.68
817.398	0.12
817.569	-0.37
817.741	-0.21
817.912	-0.1
818.084	-0.12
818.255	-0.37
818.426	-0.62
818.598	-0.43
818.769	-0.42
818.941	0.54
819.112	0.45
819.283	0.03
819.455	-0.43
819.626	-0.1
819.798	0.43
819.969	-0.24
820.14	-0.17
820.311	-0.43
820.483	-0.4
820.654	-0.27
820.825	0.01
820.996	-0.1
821.168	-0.19
821.339	-0.16
821.51	-0.57
821.681	-0.46
821.852	-0.12
822.023	-0.5
822.195	-0.81
822.366	0.62
822.537	0.01
822.708	-0.29
822.879	-0.29
823.05	0.29
823.221	-0.49
823.392	0.02
823.563	-0.17
823.734	-0.28
823.905	0.1
824.076	-0.15
824.247	-0.2
824.418	-0.14
824.589	0.34
824.759	0.22
824.93	0.14
825.101	-0.89
825.272	0.14
825.443	0.42
825.614	-0.03
825.784	-1.11
825.955	0.82
826.126	0.4
826.297	-0.38
826.467	0.6
826.638	0.58
826.809	-0.35
826.98	0.16
827.15	0.67
827.321	-0.26
827.492	0.35
827.662	-0.26
827.833	0.36
828.003	0.17
828.174	-0.66
828.345	-1.09
828.515	0.4
828.686	0.07
828.856	-0.63
829.027	0.06
829.197	0.1
829.368	-0.07
829.538	-0.67
829.709	-0.38
829.879	0.02
830.049	0.49
830.22	-0.51
830.39	-0.39
830.56	0.72
830.731	-0.03
830.901	-0.34
831.072	0.24
831.242	-0.12
831.412	-0.05
831.582	-0.5
831.753	-0.81
831.923	0.87
832.093	-0.04
832.263	-0.35
832.434	-0.67
832.604	-0.59
832.774	0.54
832.944	-0.55
833.114	0.16
833.284	0.04
833.454	-1.27
833.624	-0.36
833.795	-0.01
833.965	0.42
834.135	0.67
834.305	-0.66
834.475	-0.95
834.645	-0.17
834.815	0.16
834.985	-0.88
835.155	-0.68
835.325	0.19
835.494	-0.18
835.664	-0.9
835.834	-1.18
836.004	-0.28
836.174	-0.04
836.344	-0.43
836.514	-1.31
836.684	-0.37
836.853	-0.3
837.023	-0.03
837.193	-0.26
837.363	0.47
837.532	0.57
837.702	-0.61
837.872	-0.84
838.041	0.77
838.211	0.65
838.381	-0.94
838.55	-0.31
838.72	0.63
838.89	0.85
839.059	-0.26
839.229	-0.34
839.398	0.66
839.568	-0.35
839.738	-0.25
839.907	0.44
840.077	-0.2
840.246	-0.63
840.416	-0.56
840.585	-0.42
840.755	0.36
840.924	0.71
841.093	-1.33
841.263	-1
841.432	0.09
841.602	-0.2
841.771	-0.2
841.94	0.07
842.11	1.53
842.279	1.92
842.448	-0.34
842.617	-0.91
842.787	0.8
842.956	-0.18
843.125	0.12
843.294	0.72
843.464	0.34
843.633	-0.5
843.802	-0.77
843.971	-0.48
844.14	-0.1
844.309	0.31
844.479	-0.05
844.648	-0.62
844.817	-0.55
844.986	0.47
845.155	-0.71
845.324	-0.38
845.493	-0.42
845.662	-1.37
845.831	-0.45
846	0.62
846.169	-0.06
846.338	1.01
846.507	0.49
846.676	-0.15
846.844	-0.26
847.013	-0.06
847.182	0
847.351	-0.4
847.52	-0.55
847.689	0.09
847.858	-0.77
848.026	-1
848.195	-0.62
848.364	-0.68
848.533	-1.02
848.701	-0.24
848.87	-0.63
849.039	1.18
849.207	1.03
849.376	0.05
849.545	0.67
849.713	-0.88
849.882	-0.08
850.051	-0.45
850.219	-0.31
850.388	-0.19
850.556	-0.87
850.725	-1.26
850.893	0.48
851.062	0.27
851.23	0
851.399	-2
851.567	-0.82
851.736	0.1
851.904	-2.38
852.073	0.2
852.241	0.51
852.41	-1.11
852.578	-0.43
852.746	-0.81
852.915	-0.54
853.083	-0.74
853.251	-0.84
853.42	-0.74
853.588	0.1
853.756	0.29
853.924	-0.31
854.093	-0.97
854.261	-0.38
854.429	-0.72
854.597	-0.17
854.765	-0.36
854.934	0.18
855.102	0.64
855.27	-0.4
855.438	0.59
855.606	1.15
855.774	-0.2
855.942	-1.45
856.11	-2.12
856.278	-1.58
856.446	0.36
856.614	-0.82
856.782	-2.43
856.95	1.84
857.118	0.87
857.286	-0.68
857.454	-1.37
857.622	1.31
857.79	0.31
857.958	-0.54
858.126	0.3
858.294	-2.79
858.462	-0.19
858.629	-1.24
858.797	-1.14
858.965	-0.08
859.133	-0.47
859.301	-0.08
859.468	0.24
859.636	-1.48
859.804	1.57
859.971	1.52
860.139	-1.94
860.307	0.88
860.474	0.38
860.642	-1.45
860.81	-1.58
860.977	-1.1
861.145	0.65
861.313	-0.73
861.48	0.7
861.648	0.1
861.815	-1.06
861.983	-1.39
862.15	-0.93
862.318	0.7
862.485	-0.5
862.653	-1.1
862.82	-0.71
862.988	1.69
863.155	0.34
863.322	-2.8
863.49	-1.66
863.657	-1.51
863.824	2.42
863.992	1.82
864.159	-0.25
864.326	-0.86
864.494	-0.85
864.661	2.99
864.828	-1.05
864.996	0.97
865.163	0.64
865.33	-1.22
865.497	-2.44
865.664	-1.49
865.832	-2.44
865.999	-0.9
866.166	-1.99
866.333	-0.73
866.5	-1.65
866.667	-0.99
866.834	-0.97
867.001	1.88
867.168	-2.76
867.335	-1.15
867.502	-1.89
867.669	-0.19
867.836	1.44
868.003	-0.56
868.17	0.45
868.337	-1.67
868.504	1.12
868.671	-2.19
868.838	-0.84
869.005	-0.83
869.172	0.06
869.339	-1.86
869.505	-0.04
869.672	-0.68
869.839	0.62
870.006	-1.38
870.173	-1.86
870.339	-0.74
870.506	1.39
870.673	-3.57
870.84	0
871.006	-0.2
871.173	0.48
871.34	0.02
871.506	-2.16
871.673	0.33
871.839	-1.35
872.006	-0.83
872.173	-0.66
872.339	-0.31
872.506	1.54
872.672	-1.19
872.839	-3.04
873.005	0.84
873.172	2.85
873.338	1.02
873.505	-1.41
873.671	-2.1
873.838	1.07
874.004	-3.3
874.171	-2.08
874.337	-0.51
874.503	0.95
874.67	-0.77
874.836	-1.93
875.002	1.33
875.169	-0.48
875.335	-0.14
875.501	-0.91
875.668	0.88
875.834	-1.34
876	-0.39
876.166	-0.43
876.332	0.65
876.499	2.24
876.665	-0.52
876.831	-0.56
876.997	1.69
877.163	1.84
877.329	-0.36
877.495	-0.22
877.662	-0.25
877.828	-0.27
877.994	0.72
878.16	-2.79
878.326	-1.27
878.492	0.97
878.658	-2.22
878.824	0.28
878.99	0.45
879.156	-2.18
879.322	0.86
879.487	-0.74
879.653	-0.3
879.819	0.38
879.985	-0.78
880.151	0.04
880.317	0.4
880.483	-1.06
880.648	1.76
880.814	-2.96
880.98	0.55
881.146	-3.6
881.312	-0.82
881.477	-1.44
881.643	-0.54
881.809	1.9
881.974	1.77
882.14	-2.04
882.306	-1.03
882.471	1.4
882.637	-2.33
882.803	0.28
882.968	0.4
883.134	1.99
883.299	-1.4
883.465	-1.71
883.63	0.41
883.796	0
883.961	-0.58
884.127	1.14
884.292	-2.63
884.458	-4.24
884.623	-4.24
