Data from Apollo_Calib_20240827__AbsoluteIrradiance__117__01-06-00-801.txt Node

Date: Wed Aug 28 01:06:00 BST 2024
User: biology
Spectrometer: FLMT08252
Trigger mode: 0
Integration Time (sec): 5.000000E-1
Scans to average: 5
Electric dark correction enabled: true
Nonlinearity correction enabled: false
Boxcar width: 0
XAxis mode: Wavelengths
Number of Pixels in Spectrum: 3648
>>>>>Begin Spectral Data<<<<<
179.588	-0
179.809	-0
180.03	-0
180.251	-0
180.473	-0
180.694	0
180.915	0
181.136	-0
181.357	0
181.578	-0
181.799	-0
182.02	-0
182.241	0
182.462	-0
182.683	0
182.904	-0
183.125	-0
183.346	0
183.567	0
183.788	-0
184.009	-0
184.23	-0
184.451	0
184.672	-0
184.892	-0
185.113	0
185.334	0
185.555	-0
185.776	-0
185.996	0
186.217	0
186.438	-0
186.659	-0
186.879	0
187.1	-0
187.321	-0
187.541	-0
187.762	-0
187.983	0
188.203	-0
188.424	-0
188.644	0
188.865	0
189.086	-0
189.306	0
189.527	0
189.747	-0
189.968	-0
190.188	-0
190.409	-0
190.629	0
190.849	-0
191.07	-0
191.29	0
191.511	0
191.731	-0
191.951	-0
192.172	0
192.392	0
192.612	0
192.833	-0
193.053	0
193.273	0
193.493	-0
193.714	0
193.934	0
194.154	0
194.374	-0
194.594	-0
194.815	0
195.035	-0
195.255	0
195.475	-0
195.695	0
195.915	0
196.135	0
196.355	0
196.575	0
196.795	-0
197.015	-0
197.235	-0
197.455	-0
197.675	0
197.895	-0
198.115	-0
198.335	-0
198.555	-0
198.775	0
198.995	0
199.214	0
199.434	-0
199.654	-0
199.874	-0
200.094	0.63
200.313	-0.26
200.533	-0.37
200.753	-0.77
200.973	0.37
201.192	0.18
201.412	-1.06
201.632	-0.14
201.851	0.71
202.071	-0.67
202.291	0.12
202.51	-0.64
202.73	0.53
202.95	-0.13
203.169	-0.54
203.389	0.04
203.608	0.04
203.828	-0.64
204.047	-0.29
204.267	0.43
204.486	0.14
204.706	0.09
204.925	-0.19
205.145	-0.25
205.364	0.33
205.583	0.56
205.803	-0.23
206.022	-0.44
206.242	-0.08
206.461	0.2
206.68	-0.02
206.9	0.11
207.119	0.12
207.338	0.4
207.557	-0.16
207.777	-0.09
207.996	-0.09
208.215	0.22
208.434	-0.16
208.654	-0.38
208.873	-0.03
209.092	0.45
209.311	-0.08
209.53	0.01
209.749	-0.08
209.968	-0.23
210.187	-0.09
210.407	-0.54
210.626	-0.4
210.845	0.19
211.064	-0.04
211.283	-0.33
211.502	0.63
211.721	-0.08
211.94	-0.18
212.159	0.04
212.377	0.21
212.596	0.17
212.815	-0.11
213.034	-0.07
213.253	0.16
213.472	0.01
213.691	-0.28
213.91	-0.33
214.128	-0.04
214.347	0.2
214.566	-0.44
214.785	-0.16
215.003	-0.09
215.222	0.13
215.441	0.1
215.66	-0.27
215.878	-0.17
216.097	0.22
216.316	-0.31
216.534	-0.07
216.753	-0.11
216.972	-0.13
217.19	-0.04
217.409	-0.2
217.627	-0.26
217.846	-0.17
218.064	-0.24
218.283	-0.2
218.501	0.29
218.72	0.18
218.938	-0.41
219.157	0.04
219.375	0.03
219.594	-0.25
219.812	-0.18
220.031	-0.14
220.249	0.26
220.467	0.18
220.686	-0.16
220.904	-0.28
221.122	-0.31
221.341	0.25
221.559	-0.09
221.777	-0.22
221.995	-0.09
222.214	0
222.432	-0.11
222.65	-0.03
222.868	-0.01
223.086	0.02
223.305	0.08
223.523	0.05
223.741	0.19
223.959	-0.07
224.177	-0.24
224.395	-0.07
224.613	-0.04
224.831	0.08
225.049	-0.2
225.267	-0.09
225.485	-0.03
225.703	0.01
225.921	-0.03
226.139	-0.28
226.357	0.18
226.575	-0.13
226.793	-0.13
227.011	0.51
227.229	-0.01
227.447	0.06
227.665	-0.12
227.883	-0.32
228.1	0.02
228.318	-0.04
228.536	-0.27
228.754	-0.13
228.972	0.13
229.189	0.06
229.407	-0.31
229.625	-0.03
229.843	0.19
230.06	0.13
230.278	-0.04
230.496	-0
230.713	0.06
230.931	0.1
231.149	-0.09
231.366	-0.19
231.584	-0.04
231.801	0.35
232.019	-0.07
232.236	-0.2
232.454	-0.12
232.671	0.06
232.889	-0.03
233.106	-0.09
233.324	-0.03
233.541	-0.13
233.759	-0.09
233.976	-0
234.194	0.01
234.411	-0.13
234.628	-0.14
234.846	0.02
235.063	-0.08
235.28	-0.1
235.498	-0.08
235.715	-0.13
235.932	0.17
236.149	-0.07
236.367	-0.2
236.584	0.05
236.801	-0.16
237.018	0.04
237.236	0.02
237.453	-0.16
237.67	0.04
237.887	-0.08
238.104	-0.03
238.321	-0.08
238.538	-0.08
238.755	0.07
238.973	-0.24
239.19	-0.02
239.407	0.04
239.624	-0.09
239.841	-0.13
240.058	-0.04
240.275	0.02
240.492	0
240.709	-0.03
240.925	-0.04
241.142	-0.04
241.359	-0.12
241.576	-0.06
241.793	-0.05
242.01	0.01
242.227	0.04
242.444	0.07
242.66	0.03
242.877	-0.06
243.094	-0.08
243.311	0.03
243.527	-0.07
243.744	-0.07
243.961	0.06
244.178	-0.14
244.394	-0.04
244.611	0.19
244.828	0.04
245.044	-0.05
245.261	0
245.477	0.02
245.694	0.03
245.911	-0.09
246.127	-0.02
246.344	0.18
246.56	-0.08
246.777	-0.02
246.993	-0.03
247.21	-0.02
247.426	0
247.643	-0.06
247.859	-0.04
248.076	-0.05
248.292	0.09
248.508	-0.06
248.725	0.04
248.941	-0.06
249.157	0.06
249.374	-0.09
249.59	-0.1
249.806	0.06
250.023	0
250.239	-0.07
250.455	-0.13
250.671	0.01
250.888	-0.01
251.104	0.06
251.32	-0.07
251.536	0.01
251.752	-0.06
251.969	0.07
252.185	0.02
252.401	0.11
252.617	0.04
252.833	-0.08
253.049	-0.05
253.265	-0
253.481	-0.03
253.697	-0.04
253.913	-0.07
254.129	0.01
254.345	0.01
254.561	-0.09
254.777	-0.04
254.993	0.02
255.209	-0.04
255.425	-0.06
255.641	-0.08
255.857	0.11
256.073	-0.04
256.288	-0.14
256.504	-0.03
256.72	0
256.936	0.02
257.152	0.05
257.367	-0.12
257.583	-0.06
257.799	0.08
258.015	-0.14
258.23	-0.1
258.446	0.08
258.662	-0
258.877	-0.07
259.093	0.02
259.309	0.03
259.524	0.05
259.74	-0.01
259.955	-0.13
260.171	0.02
260.387	-0.02
260.602	0.07
260.818	0.05
261.033	-0.05
261.249	-0.03
261.464	-0.07
261.68	-0.09
261.895	0.06
262.11	0.03
262.326	-0.1
262.541	-0.01
262.757	-0.01
262.972	-0.02
263.187	0.05
263.403	-0.07
263.618	0.03
263.833	-0.05
264.049	-0.03
264.264	-0.07
264.479	0.06
264.694	0.1
264.91	-0.06
265.125	-0.1
265.34	0.03
265.555	0.16
265.77	0.07
265.986	-0.04
266.201	0.07
266.416	0.07
266.631	-0.06
266.846	-0.01
267.061	-0.02
267.276	0.03
267.491	-0.13
267.706	0.01
267.921	0
268.136	-0.02
268.351	0.01
268.566	-0.06
268.781	0.09
268.996	0.01
269.211	-0.05
269.426	-0.04
269.641	-0.06
269.856	0.09
270.071	-0.05
270.285	-0.07
270.5	0.05
270.715	0.01
270.93	-0.09
271.145	-0.01
271.359	0.06
271.574	-0.11
271.789	-0.05
272.004	-0.08
272.218	0.02
272.433	0.06
272.648	-0.12
272.862	0.05
273.077	0.02
273.292	0.03
273.506	-0.08
273.721	-0.02
273.936	-0.01
274.15	0.06
274.365	0.03
274.579	0.08
274.794	-0.04
275.008	0.05
275.223	-0.07
275.437	0.02
275.652	-0.01
275.866	0.04
276.081	0.01
276.295	0.04
276.509	-0.01
276.724	0.02
276.938	-0.01
277.153	0.1
277.367	-0
277.581	-0.04
277.796	-0.06
278.01	-0.01
278.224	0.04
278.438	0.09
278.653	-0.05
278.867	-0.06
279.081	0.07
279.295	-0.02
279.51	0.04
279.724	-0.06
279.938	0.04
280.152	0.02
280.366	-0.03
280.58	0.01
280.794	0.07
281.008	-0.03
281.222	0.03
281.437	0.15
281.651	0.03
281.865	0.07
282.079	-0.01
282.293	-0.08
282.507	-0.04
282.721	-0.02
282.935	-0.01
283.148	-0.08
283.362	-0.02
283.576	-0.04
283.79	-0.03
284.004	-0.06
284.218	0.03
284.432	-0.05
284.646	0.04
284.859	-0.04
285.073	-0.06
285.287	-0.02
285.501	0.03
285.714	-0.01
285.928	0
286.142	0.01
286.356	-0.03
286.569	0.01
286.783	0.08
286.997	0
287.21	-0.01
287.424	-0.01
287.637	0
287.851	-0.05
288.065	-0.01
288.278	-0.01
288.492	0.04
288.705	0.01
288.919	0.03
289.132	-0.05
289.346	0.11
289.559	-0.06
289.773	-0.06
289.986	0
290.2	0.02
290.413	0.04
290.626	-0.05
290.84	-0.01
291.053	-0.02
291.267	0.08
291.48	0.01
291.693	-0.03
291.906	0.01
292.12	-0.03
292.333	-0.01
292.546	-0.03
292.76	0.09
292.973	0.03
293.186	0.06
293.399	-0.03
293.612	0.06
293.826	0.02
294.039	0.01
294.252	-0
294.465	0.04
294.678	0.01
294.891	0.02
295.104	-0
295.317	-0.01
295.53	-0.02
295.743	0.02
295.956	-0.02
296.169	0.04
296.382	0.04
296.595	-0.04
296.808	-0.06
297.021	0.02
297.234	-0.01
297.447	0
297.66	0.02
297.873	0.1
298.086	0
298.299	-0.06
298.511	-0.09
298.724	-0.03
298.937	-0.05
299.15	-0.04
299.363	0.01
299.575	0.02
299.788	0.02
300.001	0.01
300.213	-0.03
300.426	-0.01
300.639	-0.08
300.852	-0.05
301.064	0.03
301.277	0.04
301.489	0.05
301.702	0.04
301.915	0.01
302.127	0.01
302.34	0.01
302.552	0.04
302.765	-0.04
302.977	0.03
303.19	-0.03
303.402	-0.06
303.615	0
303.827	-0.03
304.04	0.01
304.252	0.02
304.464	-0.01
304.677	0.11
304.889	0.08
305.102	-0.04
305.314	-0.03
305.526	0.05
305.739	-0.01
305.951	-0.07
306.163	-0.02
306.375	0.03
306.588	-0.06
306.8	-0.03
307.012	-0.07
307.224	0.04
307.436	0.06
307.649	-0.02
307.861	0.03
308.073	0.02
308.285	-0.02
308.497	-0.02
308.709	-0.02
308.921	0.02
309.133	0.05
309.346	0.02
309.558	-0.03
309.77	0.06
309.982	0.05
310.194	0.03
310.406	-0.03
310.617	0.07
310.829	0.02
311.041	0.01
311.253	-0.02
311.465	-0.02
311.677	-0.02
311.889	-0.02
312.101	-0.02
312.313	0.03
312.524	0.01
312.736	-0.03
312.948	-0.05
313.16	0.05
313.372	0.05
313.583	0.02
313.795	0.01
314.007	-0.04
314.218	0.01
314.43	0
314.642	-0.03
314.853	-0
315.065	0.03
315.277	0.02
315.488	0
315.7	-0.01
315.912	0.01
316.123	0
316.335	0
316.546	0.12
316.758	-0.02
316.969	-0.05
317.181	-0
317.392	0.03
317.604	0.02
317.815	-0.04
318.026	-0.06
318.238	-0.03
318.449	0.01
318.661	-0.06
318.872	-0.05
319.083	-0.03
319.295	0.01
319.506	-0.06
319.717	0
319.929	0.06
320.14	-0.03
320.351	0.02
320.562	-0.02
320.774	-0.04
320.985	-0.03
321.196	-0.05
321.407	-0.07
321.618	0.02
321.829	0.03
322.041	-0.01
322.252	0.02
322.463	-0.01
322.674	0.04
322.885	-0.05
323.096	-0.02
323.307	-0.03
323.518	-0.04
323.729	-0.04
323.94	-0.02
324.151	-0.01
324.362	0.02
324.573	0.01
324.784	-0.03
324.995	0.07
325.206	0.03
325.417	-0.06
325.628	-0.03
325.838	-0.03
326.049	0.02
326.26	0.05
326.471	-0
326.682	0.02
326.892	-0.02
327.103	-0.02
327.314	-0.05
327.525	0.05
327.735	-0
327.946	-0.02
328.157	-0
328.368	0.03
328.578	-0.02
328.789	-0
328.999	-0
329.21	-0.01
329.421	-0.01
329.631	-0.08
329.842	0
330.052	0.03
330.263	0.04
330.473	0.04
330.684	-0.02
330.894	-0.02
331.105	-0.01
331.315	-0.04
331.526	-0.04
331.736	0.07
331.947	0.03
332.157	0.01
332.367	-0.02
332.578	0.04
332.788	0.07
332.999	0.01
333.209	0.01
333.419	-0.05
333.629	0.02
333.84	-0
334.05	0.02
334.26	0.06
334.47	0.01
334.681	0.06
334.891	-0.03
335.101	0.06
335.311	0.09
335.521	-0.02
335.732	-0.04
335.942	0.05
336.152	0.05
336.362	0.05
336.572	-0.02
336.782	0.05
336.992	-0.02
337.202	-0.01
337.412	-0.02
337.622	-0.01
337.832	-0.04
338.042	0.01
338.252	-0.01
338.462	0.01
338.672	-0
338.882	-0.03
339.092	0.02
339.302	0.09
339.511	0.03
339.721	-0.07
339.931	-0.04
340.141	0.02
340.351	0
340.561	0.02
340.77	0.01
340.98	-0
341.19	0.04
341.4	-0.02
341.609	-0.01
341.819	0.03
342.029	-0.03
342.238	0.05
342.448	-0.02
342.658	0.02
342.867	0.02
343.077	-0.01
343.286	0.05
343.496	0.04
343.706	0.04
343.915	-0.04
344.125	-0
344.334	0.06
344.544	-0.06
344.753	-0.04
344.963	0.01
345.172	0.02
345.381	0
345.591	-0.04
345.8	-0.02
346.01	0.03
346.219	0.04
346.428	-0.17
346.638	0.02
346.847	-0.01
347.056	0.07
347.266	-0.01
347.475	0.04
347.684	0.04
347.893	0.03
348.103	0.04
348.312	-0
348.521	-0
348.73	0.01
348.94	0.04
349.149	0.01
349.358	-0.02
349.567	-0.06
349.776	-0.05
349.985	0.01
350.194	0.02
350.403	0.05
350.612	-0.01
350.821	-0.01
351.03	0.03
351.239	-0.04
351.448	0.01
351.657	-0.03
351.866	0.06
352.075	0.04
352.284	0.03
352.493	-0.02
352.702	0.07
352.911	0.01
353.12	0.08
353.329	0.02
353.538	0.04
353.746	0.03
353.955	-0
354.164	0.01
354.373	-0.03
354.582	0.04
354.79	0.01
354.999	0.06
355.208	-0.01
355.416	0.04
355.625	-0.02
355.834	-0.02
356.042	0.04
356.251	0.01
356.46	-0.02
356.668	0.01
356.877	0.07
357.085	0.04
357.294	-0.06
357.503	0.02
357.711	0.04
357.92	0.08
358.128	0.05
358.337	-0.01
358.545	0.01
358.754	0.01
358.962	0.03
359.17	-0.01
359.379	0.04
359.587	0.02
359.796	-0.01
360.004	0.04
360.212	-0.01
360.421	0.05
360.629	0.01
360.837	0.03
361.046	0.02
361.254	0.09
361.462	0.03
361.67	-0
361.879	0.03
362.087	0.07
362.295	0.02
362.503	-0
362.711	0.01
362.92	0.02
363.128	-0.02
363.336	0
363.544	-0.07
363.752	-0.03
363.96	0.03
364.168	0
364.376	0.03
364.584	0.01
364.792	0.07
365	0.08
365.208	0.04
365.416	0.01
365.624	0.08
365.832	0.01
366.04	0.05
366.248	0.02
366.456	0.07
366.664	0.01
366.872	0.04
367.079	0
367.287	0.08
367.495	0.06
367.703	0.05
367.911	0.04
368.118	0.04
368.326	0.08
368.534	0.03
368.742	0.11
368.949	0.04
369.157	0.05
369.365	0.13
369.572	0.11
369.78	0.09
369.988	0.17
370.195	0.2
370.403	0.21
370.61	0.15
370.818	0.21
371.026	0.3
371.233	0.25
371.441	0.26
371.648	0.32
371.856	0.33
372.063	0.32
372.271	0.36
372.478	0.38
372.685	0.38
372.893	0.53
373.1	0.5
373.308	0.53
373.515	0.62
373.722	0.62
373.93	0.72
374.137	0.7
374.344	0.82
374.552	0.81
374.759	0.85
374.966	0.88
375.173	0.89
375.381	1.05
375.588	0.98
375.795	1
376.002	1.13
376.209	1.12
376.417	1.18
376.624	1.3
376.831	1.36
377.038	1.43
377.245	1.41
377.452	1.57
377.659	1.65
377.866	1.67
378.073	1.86
378.28	1.89
378.487	2.06
378.694	2
378.901	2.2
379.108	2.27
379.315	2.36
379.522	2.49
379.729	2.54
379.936	2.6
380.143	2.78
380.35	2.85
380.557	2.98
380.763	3.01
380.97	3.17
381.177	3.28
381.384	3.51
381.591	3.54
381.797	3.63
382.004	3.79
382.211	3.94
382.418	3.95
382.624	4.03
382.831	4.04
383.038	4.22
383.244	4.27
383.451	4.11
383.658	4.18
383.864	4.27
384.071	4.24
384.277	4.29
384.484	4.13
384.69	4.21
384.897	4.03
385.103	4.03
385.31	4.02
385.516	3.88
385.723	3.84
385.929	3.7
386.136	3.45
386.342	3.54
386.549	3.37
386.755	3.31
386.961	3.23
387.168	3.05
387.374	2.89
387.58	2.84
387.787	2.66
387.993	2.63
388.199	2.5
388.406	2.41
388.612	2.21
388.818	2.16
389.024	2.01
389.231	2.02
389.437	2.03
389.643	1.93
389.849	1.84
390.055	1.78
390.261	1.67
390.467	1.69
390.674	1.57
390.88	1.56
391.086	1.55
391.292	1.44
391.498	1.41
391.704	1.4
391.91	1.33
392.116	1.29
392.322	1.2
392.528	1.2
392.734	1.11
392.94	1.14
393.146	1.12
393.352	1.06
393.557	1.01
393.763	0.95
393.969	1.05
394.175	0.88
394.381	0.89
394.587	0.87
394.792	0.87
394.998	0.9
395.204	0.85
395.41	0.69
395.615	0.74
395.821	0.77
396.027	0.68
396.233	0.63
396.438	0.66
396.644	0.71
396.85	0.63
397.055	0.62
397.261	0.59
397.466	0.52
397.672	0.53
397.878	0.55
398.083	0.52
398.289	0.43
398.494	0.46
398.7	0.46
398.905	0.36
399.111	0.48
399.316	0.34
399.522	0.36
399.727	0.37
399.932	0.33
400.138	0.36
400.343	0.38
400.549	0.35
400.754	0.32
400.959	0.34
401.165	0.31
401.37	0.29
401.575	0.25
401.78	0.29
401.986	0.25
402.191	0.25
402.396	0.26
402.601	0.31
402.807	0.31
403.012	0.26
403.217	0.33
403.422	0.21
403.627	0.27
403.832	0.21
404.037	0.23
404.243	0.23
404.448	0.16
404.653	0.23
404.858	0.26
405.063	0.24
405.268	0.18
405.473	0.15
405.678	0.16
405.883	0.28
406.088	0.25
406.293	0.14
406.498	0.2
406.703	0.17
406.907	0.16
407.112	0.12
407.317	0.16
407.522	0.2
407.727	0.08
407.932	0.18
408.136	0.25
408.341	0.12
408.546	0.14
408.751	0.15
408.956	0.15
409.16	0.16
409.365	0.16
409.57	0.11
409.774	0.13
409.979	0.17
410.184	0.14
410.388	0.08
410.593	0.15
410.798	0.12
411.002	0.13
411.207	0.14
411.411	0.1
411.616	0.03
411.82	0.07
412.025	0.14
412.229	0.06
412.434	0.11
412.638	0.09
412.843	0.11
413.047	0.13
413.252	0.07
413.456	0.1
413.66	0.1
413.865	0.1
414.069	0.16
414.273	0.05
414.478	0.05
414.682	0.04
414.886	0.09
415.091	0.04
415.295	0.02
415.499	0.05
415.703	0.05
415.908	0.1
416.112	-0.01
416.316	0.12
416.52	0.03
416.724	0.04
416.929	0.03
417.133	0.16
417.337	0.01
417.541	0.02
417.745	0.06
417.949	0.05
418.153	0.09
418.357	0
418.561	0.15
418.765	0.04
418.969	0.11
419.173	0.07
419.377	0.03
419.581	0.13
419.785	0.05
419.989	0.05
420.193	0.07
420.397	0.01
420.601	0.04
420.804	0.12
421.008	0.05
421.212	0.05
421.416	0.07
421.62	0.01
421.823	0.03
422.027	0.15
422.231	0.04
422.435	0.04
422.638	0.06
422.842	0.04
423.046	0.05
423.249	0.11
423.453	0.09
423.657	0.05
423.86	0.01
424.064	0.05
424.268	0.09
424.471	0.03
424.675	0.09
424.878	0.08
425.082	0.07
425.285	0.1
425.489	0.07
425.692	0.04
425.896	0
426.099	0.07
426.303	0
426.506	0
426.71	0.1
426.913	0.07
427.116	0.11
427.32	0.06
427.523	0.1
427.726	0.1
427.93	-0.05
428.133	0.08
428.336	-0.01
428.54	0.06
428.743	0.07
428.946	0.06
429.149	0.02
429.353	0.09
429.556	0.07
429.759	0.04
429.962	0.04
430.165	0.04
430.368	0.05
430.571	0.03
430.775	0.07
430.978	0.05
431.181	0.04
431.384	0.1
431.587	0.09
431.79	0.01
431.993	0.08
432.196	0.05
432.399	0.02
432.602	0.12
432.805	0.04
433.008	0.1
433.211	-0.01
433.414	0.05
433.616	0.07
433.819	0.06
434.022	-0.05
434.225	0.11
434.428	0.07
434.631	0.13
434.833	0.06
435.036	0.05
435.239	0.12
435.442	0.07
435.645	0.06
435.847	0.09
436.05	0.06
436.253	0.04
436.455	0.04
436.658	0.07
436.861	0.11
437.063	0.03
437.266	0.04
437.468	0.08
437.671	0.18
437.874	0.07
438.076	-0.04
438.279	0.03
438.481	0.06
438.684	0.03
438.886	0.09
439.089	-0.06
439.291	0.06
439.494	0.12
439.696	-0.01
439.899	0.05
440.101	0.07
440.303	-0.03
440.506	0.12
440.708	0.06
440.91	0.09
441.113	0.01
441.315	0.08
441.517	0.03
441.72	0.1
441.922	0.01
442.124	-0
442.326	0.11
442.529	0.18
442.731	0.03
442.933	0.15
443.135	0.03
443.337	0.02
443.539	0.05
443.742	0.03
443.944	0.08
444.146	0.04
444.348	0.04
444.55	0.09
444.752	0.07
444.954	-0
445.156	0.12
445.358	0.03
445.56	0.15
445.762	0.06
445.964	0.08
446.166	0.1
446.368	0.08
446.57	0.16
446.772	0.07
446.974	0.05
447.175	0.07
447.377	0.04
447.579	0.07
447.781	0.02
447.983	0.16
448.184	0.12
448.386	0.11
448.588	-0.03
448.79	0.11
448.991	0.06
449.193	0.1
449.395	0.08
449.597	0.09
449.798	0.09
450	0.09
450.202	0.08
450.403	0.07
450.605	0.12
450.806	0.07
451.008	0.01
451.21	0.08
451.411	0.11
451.613	0.07
451.814	0.08
452.016	0.11
452.217	0.07
452.419	0.1
452.62	0.08
452.821	0.07
453.023	0.12
453.224	0.09
453.426	0.07
453.627	0.12
453.828	0.14
454.03	0.05
454.231	0.12
454.432	0.01
454.634	0.14
454.835	0.03
455.036	0.01
455.238	0.11
455.439	0.11
455.64	-0
455.841	0.03
456.042	0.2
456.244	0.1
456.445	0.03
456.646	-0.03
456.847	0.08
457.048	0.08
457.249	0.08
457.45	0.21
457.651	0.01
457.852	0.07
458.054	0.04
458.255	0.04
458.456	0.06
458.657	0.07
458.858	0.01
459.058	0.05
459.259	0.08
459.46	0.01
459.661	0.02
459.862	0.16
460.063	0.03
460.264	0.1
460.465	0
460.666	0.14
460.866	-0.02
461.067	-0.03
461.268	0.04
461.469	-0.01
461.67	0.04
461.87	0.02
462.071	0.01
462.272	-0.02
462.473	0.07
462.673	0.13
462.874	0.01
463.075	0.06
463.275	0.08
463.476	0.03
463.676	0.11
463.877	0.02
464.078	-0.01
464.278	0.1
464.479	0.03
464.679	0.04
464.88	0.03
465.08	0.1
465.281	0
465.481	0
465.682	0.04
465.882	0.06
466.083	0.04
466.283	0.04
466.483	0.06
466.684	-0.01
466.884	-0.02
467.085	0.02
467.285	0.08
467.485	-0.02
467.686	0.02
467.886	-0.01
468.086	0.05
468.286	0.04
468.487	0.04
468.687	-0.02
468.887	0.01
469.087	0.07
469.287	0.01
469.488	0
469.688	0.03
469.888	0.06
470.088	0.04
470.288	0.08
470.488	0.06
470.688	-0.02
470.888	0.02
471.088	-0.02
471.288	0.07
471.488	0.02
471.688	0.06
471.888	0.02
472.088	0.07
472.288	0.06
472.488	-0.04
472.688	-0.01
472.888	0.01
473.088	0.01
473.288	0.05
473.488	0.04
473.688	0.05
473.887	0.03
474.087	-0.01
474.287	0.04
474.487	0.01
474.687	0.05
474.886	-0
475.086	0
475.286	0.03
475.486	0.04
475.685	0.03
475.885	-0.01
476.085	0.04
476.284	0.05
476.484	0.02
476.684	0.05
476.883	0.05
477.083	0
477.282	-0.02
477.482	0.08
477.681	0.05
477.881	0.03
478.08	-0.02
478.28	0.01
478.479	0.07
478.679	0.07
478.878	0
479.078	-0.01
479.277	0.03
479.477	0.01
479.676	0.08
479.875	-0.01
480.075	-0.01
480.274	0.01
480.473	0.03
480.673	-0
480.872	0.05
481.071	0.03
481.271	0.04
481.47	-0.03
481.669	0.01
481.868	-0
482.067	-0.01
482.267	-0.01
482.466	-0.01
482.665	-0.01
482.864	-0.02
483.063	-0.01
483.262	0
483.461	0.05
483.661	0.04
483.86	0.03
484.059	0.03
484.258	-0.01
484.457	0.01
484.656	0
484.855	0.05
485.054	-0.02
485.253	-0.03
485.452	-0.02
485.651	0.01
485.849	-0
486.048	-0
486.247	-0.01
486.446	-0.01
486.645	-0.05
486.844	-0.03
487.043	0.01
487.241	0.04
487.44	-0.02
487.639	0.02
487.838	0.05
488.037	0.01
488.235	0.05
488.434	-0.01
488.633	-0.01
488.831	0.04
489.03	0.01
489.229	0.03
489.427	-0
489.626	0.03
489.825	0.05
490.023	0.02
490.222	0
490.42	0.04
490.619	0.05
490.817	0.02
491.016	0.01
491.214	0.04
491.413	0.02
491.611	0.01
491.81	0
492.008	0.01
492.207	0
492.405	0.01
492.604	-0.05
492.802	-0
493	0.01
493.199	-0.01
493.397	0.01
493.595	0.01
493.794	-0.01
493.992	0.02
494.19	0.01
494.388	0.01
494.587	-0.01
494.785	0.03
494.983	-0.04
495.181	0.01
495.379	0
495.578	0.01
495.776	0.02
495.974	0.01
496.172	0.01
496.37	-0.01
496.568	-0.01
496.766	-0.01
496.964	0.03
497.162	-0
497.36	-0.02
497.558	0.03
497.756	0.02
497.954	0
498.152	-0.03
498.35	-0
498.548	0.01
498.746	0.02
498.944	-0.03
499.142	0
499.34	-0.02
499.538	-0
499.736	-0.03
499.933	0.04
500.131	0.03
500.329	0.01
500.527	0.04
500.725	0.04
500.922	0.02
501.12	0.02
501.318	0.01
501.516	-0.02
501.713	0.03
501.911	-0.02
502.109	-0.04
502.306	0.03
502.504	0
502.701	-0.01
502.899	-0
503.097	0.03
503.294	0.01
503.492	-0.02
503.689	0.03
503.887	0.02
504.084	0.03
504.282	-0.03
504.479	-0
504.677	-0.02
504.874	-0.02
505.072	0.02
505.269	0.01
505.466	0.03
505.664	0.03
505.861	-0.03
506.059	-0.01
506.256	0.02
506.453	-0.01
506.651	0.03
506.848	0.03
507.045	-0
507.242	0.01
507.44	0
507.637	0.01
507.834	-0
508.031	0.01
508.229	-0.04
508.426	0.03
508.623	0.02
508.82	-0.01
509.017	-0.01
509.214	-0.01
509.411	0
509.608	-0
509.805	0.02
510.003	-0.01
510.2	0
510.397	0.04
510.594	-0.01
510.791	-0.02
510.988	0.01
511.184	0.03
511.381	0.01
511.578	-0.01
511.775	0.03
511.972	-0.02
512.169	0
512.366	-0.01
512.563	-0
512.76	-0.01
512.956	-0.01
513.153	-0.02
513.35	0.02
513.547	0.01
513.744	-0.02
513.94	-0.01
514.137	-0
514.334	-0.01
514.53	0
514.727	0.03
514.924	0.03
515.12	-0.02
515.317	-0.03
515.514	-0.01
515.71	-0.01
515.907	0.02
516.103	0
516.3	0.01
516.497	0.03
516.693	0.02
516.89	0.01
517.086	-0.02
517.283	0.03
517.479	0.02
517.676	0.02
517.872	0.01
518.068	-0.03
518.265	-0.02
518.461	-0.01
518.658	-0.01
518.854	-0
519.05	-0
519.247	-0.02
519.443	0.01
519.639	0
519.836	-0
520.032	-0
520.228	0.01
520.424	0.06
520.621	0.01
520.817	-0.01
521.013	0.02
521.209	0
521.405	0.03
521.601	0.01
521.798	0.01
521.994	0.03
522.19	-0.01
522.386	-0.04
522.582	-0.01
522.778	0.02
522.974	-0.01
523.17	0
523.366	0.02
523.562	0.03
523.758	0.02
523.954	0.02
524.15	-0.01
524.346	-0.01
524.542	-0.02
524.738	-0.01
524.934	0
525.129	-0.01
525.325	0.02
525.521	0.03
525.717	0.01
525.913	-0
526.109	-0
526.304	0.01
526.5	0
526.696	0.02
526.892	0.01
527.087	0.02
527.283	-0.02
527.479	0.01
527.674	-0.03
527.87	-0.02
528.066	0.02
528.261	0.01
528.457	0.01
528.653	-0.01
528.848	-0.03
529.044	0.02
529.239	0
529.435	0.02
529.63	0.02
529.826	0.03
530.021	0.02
530.217	0.04
530.412	-0.02
530.608	-0.01
530.803	0.03
530.999	-0
531.194	-0.05
531.389	0.01
531.585	-0.04
531.78	-0
531.975	0
532.171	0.02
532.366	0.01
532.561	-0.01
532.757	-0.04
532.952	-0.04
533.147	0
533.342	0.02
533.538	-0.01
533.733	0.01
533.928	-0.01
534.123	-0.01
534.318	-0.03
534.513	-0.02
534.709	0.01
534.904	-0.01
535.099	0.01
535.294	0.01
535.489	0.01
535.684	0.02
535.879	-0.02
536.074	-0.02
536.269	-0.03
536.464	0.01
536.659	0.01
536.854	0
537.049	0.02
537.244	0.02
537.439	-0.03
537.634	0.03
537.828	-0.01
538.023	-0.01
538.218	-0.03
538.413	0.02
538.608	-0.02
538.803	0.02
538.997	-0.03
539.192	0.02
539.387	0.01
539.582	0.01
539.776	0.01
539.971	-0.01
540.166	-0
540.36	-0.02
540.555	-0.01
540.75	-0.01
540.944	-0
541.139	-0.02
541.334	-0
541.528	0.02
541.723	0.01
541.917	-0.01
542.112	-0.05
542.306	-0.01
542.501	0.01
542.695	0.01
542.89	-0
543.084	-0.02
543.279	-0.01
543.473	-0
543.668	0
543.862	-0.03
544.056	0.01
544.251	-0.01
544.445	-0.01
544.64	-0.01
544.834	-0.03
545.028	-0.01
545.222	0
545.417	0.05
545.611	-0.01
545.805	0
546	-0
546.194	-0
546.388	0.01
546.582	0.01
546.776	0.02
546.97	-0.02
547.165	0
547.359	0.02
547.553	0.01
547.747	0
547.941	0
548.135	0.01
548.329	-0
548.523	0.02
548.717	-0.03
548.911	-0
549.105	0.01
549.299	0.01
549.493	0.03
549.687	0.01
549.881	0.02
550.075	-0
550.269	-0.02
550.463	0.01
550.657	-0.02
550.85	0.01
551.044	-0.02
551.238	0.01
551.432	-0.02
551.626	-0.04
551.82	0.01
552.013	-0.03
552.207	-0.01
552.401	0.03
552.594	-0
552.788	-0.01
552.982	-0
553.176	-0.02
553.369	0.01
553.563	0.01
553.756	-0.02
553.95	-0.02
554.144	0
554.337	0.01
554.531	0
554.724	0
554.918	-0.02
555.111	0.03
555.305	0
555.498	0.05
555.692	0.02
555.885	-0.01
556.079	0.01
556.272	-0.02
556.466	0.02
556.659	-0
556.852	0.01
557.046	0.01
557.239	0.04
557.432	0.01
557.626	-0.01
557.819	-0.02
558.012	0.02
558.206	0
558.399	-0
558.592	0.02
558.785	0.01
558.979	0.03
559.172	-0
559.365	0.01
559.558	0.02
559.751	-0.02
559.944	-0
560.138	-0
560.331	0
560.524	-0
560.717	0
560.91	-0.01
561.103	0.01
561.296	-0.01
561.489	0.01
561.682	0
561.875	0.02
562.068	0.01
562.261	0.01
562.454	0.04
562.647	0.01
562.84	0
563.032	-0.01
563.225	-0
563.418	-0.02
563.611	0.02
563.804	-0
563.997	-0.01
564.19	-0.02
564.382	0
564.575	0
564.768	-0.02
564.961	-0.02
565.153	-0.02
565.346	0.04
565.539	0.01
565.731	0.04
565.924	0.03
566.117	0.01
566.309	0.03
566.502	-0.01
566.695	0.01
566.887	-0.01
567.08	-0
567.272	-0
567.465	-0.03
567.657	0.02
567.85	0
568.042	0.03
568.235	0.03
568.427	0.01
568.62	0
568.812	0
569.005	0
569.197	-0.05
569.389	0.01
569.582	0.03
569.774	0.01
569.966	-0.04
570.159	-0.06
570.351	0.02
570.543	-0.02
570.736	-0.02
570.928	-0.02
571.12	0
571.312	0.01
571.505	-0.02
571.697	0.01
571.889	-0.01
572.081	-0.02
572.273	-0.02
572.465	0.03
572.658	-0.02
572.85	0.03
573.042	-0.01
573.234	-0.01
573.426	0.02
573.618	-0.01
573.81	0.02
574.002	0.04
574.194	0.03
574.386	-0.02
574.578	-0.05
574.77	-0.02
574.962	0.01
575.154	-0.04
575.346	-0.01
575.538	-0.01
575.729	-0.02
575.921	-0.01
576.113	0.01
576.305	0.02
576.497	0.01
576.689	-0
576.88	-0.04
577.072	0.03
577.264	-0.01
577.456	0
577.647	-0.06
577.839	0
578.031	0.04
578.223	-0.03
578.414	-0.02
578.606	-0
578.798	-0.01
578.989	-0.02
579.181	-0
579.372	-0.01
579.564	-0.01
579.755	0.01
579.947	0
580.139	0.01
580.33	-0.04
580.522	-0.02
580.713	-0.05
580.905	0
581.096	0.01
581.287	-0
581.479	-0.02
581.67	0.03
581.862	-0.01
582.053	-0.02
582.244	-0.03
582.436	-0.01
582.627	0
582.818	-0.02
583.01	-0.03
583.201	0
583.392	0.01
583.583	0
583.775	-0.01
583.966	-0.01
584.157	-0.01
584.348	0
584.54	-0.04
584.731	0.01
584.922	-0
585.113	-0.01
585.304	0.03
585.495	0.05
585.686	0.01
585.877	0.03
586.068	0.04
586.259	-0.02
586.45	0.02
586.641	-0.02
586.832	-0.04
587.023	0.02
587.214	-0
587.405	0.01
587.596	-0.04
587.787	0.05
587.978	-0.01
588.169	-0.02
588.36	-0.04
588.551	0.02
588.742	-0.02
588.932	0.02
589.123	-0.02
589.314	0.02
589.505	-0.01
589.696	-0
589.886	-0.01
590.077	-0.04
590.268	-0.01
590.458	-0.03
590.649	-0.03
590.84	0.01
591.03	-0.01
591.221	-0.04
591.412	-0.04
591.602	0.01
591.793	0.04
591.984	-0.02
592.174	-0.01
592.365	0.06
592.555	-0.02
592.746	0
592.936	-0
593.127	0.01
593.317	0.02
593.508	-0.01
593.698	-0.01
593.889	-0.02
594.079	0.01
594.269	-0.02
594.46	-0.01
594.65	0
594.84	-0
595.031	-0.03
595.221	-0.04
595.411	-0.03
595.602	0
595.792	-0.02
595.982	-0.01
596.172	0.03
596.363	0
596.553	0.02
596.743	-0
596.933	0.01
597.123	0.05
597.314	-0.01
597.504	0
597.694	0.01
597.884	0.02
598.074	-0.02
598.264	-0.01
598.454	0.01
598.644	-0.02
598.834	0.01
599.024	-0.05
599.214	-0.02
599.404	0.03
599.594	-0.03
599.784	-0.05
599.974	0.05
600.164	0.02
600.354	-0.03
600.544	-0.04
600.734	-0
600.924	0.03
601.114	-0.02
601.303	0.01
601.493	0.02
601.683	0.01
601.873	0.02
602.063	-0.05
602.252	0.05
602.442	-0.07
602.632	-0.03
602.821	-0.03
603.011	0.02
603.201	-0.02
603.39	-0.04
603.58	-0.02
603.77	0
603.959	0.02
604.149	-0
604.339	-0.01
604.528	0.02
604.718	0.02
604.907	-0.01
605.097	-0.04
605.286	-0.06
605.476	0.02
605.665	0.01
605.855	-0.01
606.044	0.04
606.234	0.02
606.423	-0.01
606.612	-0.03
606.802	-0
606.991	0.02
607.181	0.03
607.37	-0.05
607.559	-0.03
607.749	-0.06
607.938	-0.01
608.127	-0.01
608.316	-0.01
608.506	0.01
608.695	0.01
608.884	0.01
609.073	-0.03
609.263	0
609.452	-0
609.641	0.01
609.83	-0.03
610.019	-0.01
610.208	-0.04
610.397	-0.02
610.586	-0
610.775	-0.02
610.965	-0.03
611.154	-0.01
611.343	0
611.532	0
611.721	-0.02
611.91	-0.03
612.099	0.01
612.287	0
612.476	-0.06
612.665	-0
612.854	-0.01
613.043	0.02
613.232	-0.02
613.421	-0.07
613.61	0.01
613.798	-0.02
613.987	0.01
614.176	-0.01
614.365	0.02
614.554	0.02
614.742	0.03
614.931	-0.03
615.12	0.01
615.309	-0.03
615.497	0.01
615.686	-0.05
615.875	-0
616.063	-0.01
616.252	0
616.44	0
616.629	-0.01
616.818	0.03
617.006	-0.02
617.195	-0
617.383	0.01
617.572	-0.02
617.76	-0.02
617.949	-0.03
618.137	-0.02
618.326	0.01
618.514	-0.02
618.703	-0.02
618.891	0.06
619.079	-0.03
619.268	-0.01
619.456	-0.01
619.644	0.02
619.833	-0.03
620.021	-0.02
620.209	-0.05
620.398	0.01
620.586	-0.02
620.774	-0
620.962	0
621.151	0.06
621.339	0
621.527	-0.05
621.715	-0.03
621.903	-0.04
622.092	-0.02
622.28	0
622.468	-0.03
622.656	0.01
622.844	-0.02
623.032	-0.03
623.22	-0.05
623.408	0.01
623.596	0.01
623.784	0.05
623.972	-0
624.16	-0.02
624.348	0.03
624.536	-0.03
624.724	-0.01
624.912	0.01
625.1	0.02
625.288	-0.03
625.476	-0.04
625.664	0.01
625.851	-0.01
626.039	0.01
626.227	0.01
626.415	-0.03
626.603	-0.06
626.79	-0
626.978	-0.02
627.166	-0.02
627.354	0.02
627.541	0
627.729	-0.06
627.917	0.01
628.104	0.01
628.292	0
628.48	0.01
628.667	-0.01
628.855	0.01
629.042	0.01
629.23	-0.03
629.418	-0.04
629.605	-0
629.793	-0.01
629.98	-0.02
630.168	-0
630.355	-0.02
630.543	0.01
630.73	-0.01
630.917	0.03
631.105	0.06
631.292	-0.02
631.48	0.02
631.667	0.04
631.854	0.02
632.042	-0.02
632.229	-0.03
632.416	0
632.604	0.02
632.791	-0.03
632.978	0.03
633.165	0.02
633.353	0.05
633.54	0.02
633.727	-0.02
633.914	0.01
634.101	-0.07
634.289	0.03
634.476	-0.01
634.663	-0.03
634.85	0.01
635.037	-0.02
635.224	-0.03
635.411	0.06
635.598	0.04
635.785	0.01
635.972	0.01
636.159	0.07
636.346	-0.01
636.533	-0.02
636.72	-0
636.907	0
637.094	0.02
637.281	-0.03
637.468	0.06
637.655	-0
637.842	0.01
638.029	-0.03
638.215	0.02
638.402	-0
638.589	-0.03
638.776	-0.01
638.963	0.01
639.149	0.02
639.336	0.09
639.523	-0.01
639.709	0.01
639.896	0
640.083	0.06
640.27	0.03
640.456	-0.02
640.643	0.01
640.829	0.01
641.016	0.01
641.203	-0.06
641.389	0.04
641.576	0.01
641.762	0.02
641.949	-0.02
642.135	0.03
642.322	0.04
642.508	-0.05
642.695	0.03
642.881	-0.01
643.068	0
643.254	-0
643.441	0.06
643.627	0.02
643.813	0
644	0.04
644.186	0
644.372	0.05
644.559	0.06
644.745	0.04
644.931	0.02
645.118	0.01
645.304	0.01
645.49	0.02
645.676	0.01
645.862	0.05
646.049	0.08
646.235	0.03
646.421	0.1
646.607	0.1
646.793	0.01
646.979	-0
647.165	0.03
647.352	0.06
647.538	0.09
647.724	0.04
647.91	0.04
648.096	0.06
648.282	0.06
648.468	0.06
648.654	0.04
648.84	0.03
649.026	0.05
649.212	0.05
649.397	0.03
649.583	-0.01
649.769	0.07
649.955	0.09
650.141	0.05
650.327	0.12
650.513	0.04
650.698	0.08
650.884	-0.01
651.07	0.04
651.256	0.04
651.442	0.06
651.627	0.03
651.813	0.05
651.999	0.07
652.184	0.07
652.37	0.07
652.556	0.05
652.741	0.09
652.927	-0.01
653.113	0.06
653.298	0.13
653.484	0.01
653.669	0.05
653.855	0.05
654.04	0.08
654.226	0.07
654.412	0.06
654.597	0.04
654.782	0.09
654.968	0.08
655.153	0.11
655.339	0.07
655.524	0.07
655.71	0.08
655.895	0.08
656.08	0.07
656.266	0.14
656.451	0.11
656.636	0.06
656.822	0.06
657.007	0.08
657.192	0.05
657.378	0.04
657.563	0.09
657.748	0.09
657.933	0.12
658.118	0.06
658.304	0.09
658.489	0.09
658.674	0.09
658.859	0.04
659.044	0.11
659.229	0.09
659.414	0.08
659.599	0.06
659.785	0.05
659.97	0.11
660.155	0.1
660.34	0.12
660.525	0.11
660.71	0.06
660.895	0.13
661.08	0.08
661.264	0.05
661.449	0.12
661.634	0.15
661.819	0.12
662.004	0.08
662.189	0.03
662.374	0.06
662.559	0.05
662.743	0.04
662.928	0.07
663.113	0
663.298	0.03
663.483	0.05
663.667	0.06
663.852	0.06
664.037	0.09
664.221	0.02
664.406	0.11
664.591	0.08
664.775	0.02
664.96	0.06
665.145	0.05
665.329	0.03
665.514	0.01
665.698	0.04
665.883	0
666.068	0.08
666.252	0.04
666.437	0
666.621	0.06
666.806	0.05
666.99	0.01
667.174	-0.01
667.359	0.09
667.543	0.01
667.728	0.02
667.912	-0.01
668.096	0.02
668.281	0.02
668.465	0
668.649	0.01
668.834	-0.06
669.018	0
669.202	0.02
669.387	-0.03
669.571	0.02
669.755	-0.03
669.939	0.02
670.124	-0.02
670.308	0.11
670.492	0.06
670.676	-0
670.86	-0.01
671.044	-0.04
671.228	-0
671.413	-0.03
671.597	0.01
671.781	-0.03
671.965	0.04
672.149	0
672.333	-0.03
672.517	-0.03
672.701	0.02
672.885	0.03
673.069	-0.04
673.253	0.07
673.437	-0.01
673.621	-0.01
673.804	-0.01
673.988	-0.01
674.172	-0
674.356	-0.04
674.54	-0.03
674.724	0.03
674.908	-0.01
675.091	0.03
675.275	0.01
675.459	0.01
675.643	0.06
675.826	-0
676.01	-0.01
676.194	-0.02
676.377	0.06
676.561	0.05
676.745	-0
676.928	0.01
677.112	0.02
677.296	-0.04
677.479	-0.01
677.663	-0.08
677.846	0.02
678.03	-0.01
678.213	-0.05
678.397	0.05
678.58	-0.02
678.764	-0.02
678.947	-0.04
679.131	-0.03
679.314	0.04
679.498	0.02
679.681	0.01
679.865	0.06
680.048	0.04
680.231	-0
680.415	0.01
680.598	-0.03
680.781	-0.02
680.965	0
681.148	0.02
681.331	-0.07
681.514	0.01
681.698	-0.02
681.881	-0.03
682.064	0.03
682.247	-0.02
682.43	-0.03
682.614	0.04
682.797	0.02
682.98	0.02
683.163	-0.01
683.346	-0.01
683.529	-0.02
683.712	-0.05
683.895	0.01
684.078	-0.09
684.261	-0.04
684.444	-0.02
684.627	0.01
684.81	-0.04
684.993	-0.01
685.176	0.01
685.359	-0.02
685.542	-0.03
685.725	0.05
685.908	-0.02
686.091	-0.05
686.274	0
686.457	0.04
686.639	-0.05
686.822	0.04
687.005	-0.01
687.188	-0
687.371	0.09
687.553	0.01
687.736	0
687.919	0.02
688.102	0.09
688.284	-0.06
688.467	-0.05
688.65	0
688.832	-0.03
689.015	0.01
689.197	-0.06
689.38	0.07
689.563	0.1
689.745	-0.02
689.928	-0.02
690.11	0.01
690.293	-0.01
690.475	-0.05
690.658	0
690.84	-0.04
691.023	-0.02
691.205	-0.03
691.388	0.04
691.57	0
691.752	0.02
691.935	-0.06
692.117	-0.08
692.3	0.02
692.482	-0.01
692.664	-0.02
692.847	0
693.029	0.07
693.211	0.03
693.393	-0.01
693.576	-0.01
693.758	0.02
693.94	-0.06
694.122	-0.08
694.304	-0.03
694.487	0.01
694.669	0.04
694.851	-0.03
695.033	-0.03
695.215	-0.03
695.397	-0.06
695.579	-0
695.761	-0.04
695.943	-0.04
696.125	0
696.308	-0.01
696.49	-0.11
696.671	0.11
696.853	0.02
697.035	0.15
697.217	-0.04
697.399	0
697.581	-0.04
697.763	0.01
697.945	-0.02
698.127	-0.02
698.309	-0.02
698.491	0.02
698.672	0.04
698.854	0.01
699.036	0.03
699.218	-0.01
699.399	0.04
699.581	0.04
699.763	-0.02
699.945	-0.02
700.126	-0.05
700.308	-0.01
700.49	0
700.671	-0.02
700.853	0.02
701.035	-0.01
701.216	-0.01
701.398	-0.04
701.579	-0.02
701.761	0.06
701.943	-0.06
702.124	-0.02
702.306	-0.01
702.487	0.1
702.669	-0.03
702.85	-0.1
703.031	-0.04
703.213	0.04
703.394	-0
703.576	-0.07
703.757	0.04
703.938	0.03
704.12	0.12
704.301	-0.04
704.483	-0.02
704.664	0.01
704.845	0.03
705.026	0.02
705.208	-0.06
705.389	0.03
705.57	-0.03
705.751	-0.01
705.933	0.03
706.114	0.02
706.295	0.01
706.476	-0.09
706.657	0.05
706.838	0
707.02	0.04
707.201	-0.01
707.382	-0.05
707.563	0.02
707.744	-0.13
707.925	-0.06
708.106	-0.01
708.287	-0.01
708.468	0.01
708.649	-0.02
708.83	0.06
709.011	-0.02
709.192	0.02
709.373	-0.13
709.554	-0.02
709.734	0.01
709.915	0.01
710.096	-0.01
710.277	-0.03
710.458	-0.01
710.639	0.04
710.819	-0.06
711	0.04
711.181	0.06
711.362	0.07
711.542	-0.01
711.723	0.04
711.904	0.05
712.085	-0.02
712.265	0.09
712.446	-0.08
712.627	-0.01
712.807	0.01
712.988	0.03
713.168	-0.11
713.349	0
713.53	-0.11
713.71	-0.04
713.891	-0.07
714.071	0
714.252	-0.02
714.432	-0.04
714.613	-0.06
714.793	-0.02
714.974	0.06
715.154	0.09
715.334	0.04
715.515	0.08
715.695	-0.04
715.876	-0.01
716.056	-0.03
716.236	0.01
716.417	0.02
716.597	0.01
716.777	0.13
716.957	-0.01
717.138	0
717.318	0.05
717.498	-0.05
717.678	0
717.859	0.06
718.039	-0.09
718.219	0.13
718.399	0.02
718.579	-0.06
718.759	-0.04
718.939	0.04
719.12	-0.03
719.3	0.04
719.48	-0.11
719.66	-0.11
719.84	0.07
720.02	0.05
720.2	-0.05
720.38	-0.02
720.56	0.08
720.74	-0.05
720.92	-0.03
721.1	0.12
721.279	0.08
721.459	0.05
721.639	-0.08
721.819	0.09
721.999	0.06
722.179	0.04
722.359	-0.06
722.538	0.01
722.718	-0.01
722.898	0.03
723.078	0
723.257	-0.02
723.437	0.04
723.617	0.1
723.797	0.04
723.976	-0.01
724.156	0.13
724.336	0.12
724.515	0.16
724.695	-0.07
724.874	0.04
725.054	0.13
725.234	-0.01
725.413	0.03
725.593	-0.03
725.772	0
725.952	-0.02
726.131	0.05
726.311	0.05
726.49	0.07
726.67	-0.05
726.849	0.03
727.028	0.03
727.208	-0.03
727.387	0.06
727.567	-0.07
727.746	0.08
727.925	-0.05
728.105	-0.05
728.284	0.01
728.463	0.01
728.643	0.09
728.822	-0.03
729.001	-0.03
729.18	0.07
729.359	0.09
729.539	-0
729.718	-0.01
729.897	0.05
730.076	-0.01
730.255	-0.03
730.434	0.12
730.614	0.01
730.793	0.08
730.972	0.05
731.151	0.05
731.33	0.1
731.509	0.04
731.688	0.06
731.867	0.07
732.046	-0.13
732.225	0.28
732.404	0.01
732.583	-0
732.762	0.13
732.941	0.05
733.12	0.13
733.298	0.02
733.477	0.15
733.656	-0.02
733.835	-0.08
734.014	0.21
734.193	0.03
734.371	0.13
734.55	0.06
734.729	0.06
734.908	0.09
735.086	0.08
735.265	0.05
735.444	-0.01
735.623	-0.05
735.801	0.05
735.98	0.05
736.159	0.1
736.337	0.06
736.516	0.06
736.694	0.13
736.873	0.04
737.052	0.17
737.23	0.18
737.409	-0.01
737.587	0.17
737.766	-0.17
737.944	0.03
738.123	0.07
738.301	0.16
738.479	0.05
738.658	0.07
738.836	-0.13
739.015	0.15
739.193	0.31
739.371	-0.13
739.55	0.04
739.728	-0.08
739.906	0.22
740.085	0.13
740.263	0.07
740.441	-0.02
740.62	0.16
740.798	0.21
740.976	0.09
741.154	0.02
741.332	0.22
741.511	0.05
741.689	0.09
741.867	0.18
742.045	0.02
742.223	0.07
742.401	-0.11
742.579	-0.01
742.757	0.13
742.935	-0.07
743.114	-0.07
743.292	-0.02
743.47	0.09
743.648	-0.08
743.826	-0.16
744.004	0.03
744.181	-0.04
744.359	0.01
744.537	0.04
744.715	0.02
744.893	0.03
745.071	0.01
745.249	-0.06
745.427	-0.02
745.605	0.12
745.782	-0
745.96	0.06
746.138	-0.07
746.316	0.06
746.493	-0.06
746.671	0.09
746.849	-0.03
747.027	0.06
747.204	-0.05
747.382	-0
747.56	-0.16
747.737	0.12
747.915	-0.08
748.093	0.02
748.27	-0.04
748.448	-0.02
748.625	-0.1
748.803	-0.1
748.98	0.04
749.158	0.04
749.335	0.02
749.513	0.06
749.69	-0.03
749.868	-0.04
750.045	0.04
750.223	-0.07
750.4	-0.13
750.578	0.12
750.755	0.03
750.932	-0.11
751.11	0.11
751.287	-0.04
751.464	0.11
751.642	-0.17
751.819	0.05
751.996	-0.07
752.173	-0.07
752.351	-0.13
752.528	-0.04
752.705	-0.09
752.882	-0.04
753.06	0.1
753.237	0.04
753.414	0.11
753.591	0.09
753.768	0.11
753.945	-0.11
754.122	-0.04
754.299	0.04
754.476	-0.05
754.654	0.05
754.831	0.04
755.008	0.04
755.185	0.03
755.362	-0.18
755.539	-0.15
755.716	-0.16
755.892	-0.12
756.069	0.03
756.246	-0.06
756.423	-0.09
756.6	0.07
756.777	-0.11
756.954	0.21
757.131	-0.04
757.307	-0.11
757.484	-0.08
757.661	-0.08
757.838	-0.08
758.015	-0.07
758.191	0.04
758.368	0.07
758.545	0.12
758.721	0.01
758.898	-0.04
759.075	0.07
759.251	0.08
759.428	-0.04
759.605	-0.1
759.781	-0.07
759.958	-0.03
760.134	-0.01
760.311	-0.05
760.488	0.11
760.664	0.18
760.841	0.09
761.017	-0.19
761.194	0.06
761.37	0.03
761.547	-0.04
761.723	-0.02
761.899	0.11
762.076	-0.05
762.252	-0.14
762.429	-0.2
762.605	0.02
762.781	-0.02
762.958	-0.06
763.134	0.01
763.31	-0.09
763.486	-0.03
763.663	-0.15
763.839	-0.04
764.015	-0.15
764.191	-0.1
764.368	-0.09
764.544	-0.1
764.72	0.02
764.896	0.11
765.072	-0.01
765.248	-0.11
765.425	0.01
765.601	-0
765.777	-0.03
765.953	-0.32
766.129	-0.09
766.305	-0.12
766.481	0.12
766.657	0.03
766.833	0.16
767.009	-0.2
767.185	-0.22
767.361	-0.07
767.537	-0.12
767.713	0.07
767.889	0.01
768.065	-0.06
768.24	-0.14
768.416	0.17
768.592	-0.09
768.768	-0.11
768.944	-0.04
769.12	-0.19
769.295	-0.12
769.471	0.11
769.647	-0.12
769.823	0.21
769.998	0.05
770.174	-0.12
770.35	0.29
770.525	0.16
770.701	-0.11
770.877	-0.06
771.052	-0.06
771.228	0
771.403	-0
771.579	0.1
771.755	0.22
771.93	-0.15
772.106	-0.08
772.281	-0.17
772.457	-0.07
772.632	0.04
772.808	-0.16
772.983	-0.15
773.159	-0.29
773.334	0.09
773.509	-0.04
773.685	-0.1
773.86	0.32
774.036	0.13
774.211	-0.1
774.386	-0.04
774.562	-0.03
774.737	0.18
774.912	-0.2
775.087	-0.07
775.263	0.01
775.438	-0
775.613	-0.21
775.788	-0.11
775.964	0.14
776.139	0.23
776.314	-0.22
776.489	-0
776.664	0.06
776.839	-0.14
777.014	0.21
777.19	0.12
777.365	0.19
777.54	0.13
777.715	0.02
777.89	-0.09
778.065	-0.18
778.24	-0.14
778.415	0.2
778.59	-0.08
778.765	-0.07
778.94	0.05
779.115	-0.1
779.289	-0.16
779.464	-0.05
779.639	-0.18
779.814	-0.22
779.989	-0.1
780.164	0.31
780.339	-0.03
780.513	-0.23
780.688	-0.1
780.863	-0.02
781.038	0.14
781.212	-0.1
781.387	0.1
781.562	0.02
781.737	-0.08
781.911	0.08
782.086	-0.14
782.261	-0.09
782.435	0.27
782.61	-0.13
782.784	0
782.959	0.18
783.134	-0.15
783.308	-0.15
783.483	-0.12
783.657	0.33
783.832	0
784.006	-0.22
784.181	0.13
784.355	0.11
784.53	-0.01
784.704	-0.21
784.878	0.15
785.053	-0.12
785.227	-0.08
785.402	0.29
785.576	-0.15
785.75	-0.05
785.925	-0.02
786.099	-0.04
786.273	0.01
786.448	0.19
786.622	-0.07
786.796	-0.17
786.97	0.02
787.145	0.36
787.319	-0.19
787.493	-0.09
787.667	-0.35
787.841	-0.2
788.015	0.07
788.19	-0.13
788.364	-0.07
788.538	0.16
788.712	0.07
788.886	0.01
789.06	0.26
789.234	-0
789.408	0.02
789.582	-0.02
789.756	-0.06
789.93	-0.25
790.104	-0.09
790.278	-0.12
790.452	-0.22
790.626	0.17
790.8	-0.11
790.973	0.16
791.147	0.19
791.321	0.02
791.495	0.12
791.669	0.04
791.843	-0.07
792.016	-0.06
792.19	0.24
792.364	-0.28
792.538	0.42
792.711	0.37
792.885	-0.21
793.059	-0.2
793.233	-0.54
793.406	0.2
793.58	-0.08
793.754	0.18
793.927	-0.17
794.101	-0.04
794.274	0.12
794.448	0.15
794.622	-0.32
794.795	0.06
794.969	-0.17
795.142	0.06
795.316	-0.09
795.489	-0.35
795.663	0.06
795.836	-0.1
796.009	-0.26
796.183	0.13
796.356	0.12
796.53	0.14
796.703	-0.22
796.876	0.37
797.05	-0.14
797.223	-0.04
797.396	0.16
797.57	0.04
797.743	0.2
797.916	-0
798.09	-0.03
798.263	0.14
798.436	0.02
798.609	0.03
798.782	-0.04
798.956	0.15
799.129	0.18
799.302	-0.17
799.475	-0.19
799.648	-0.26
799.821	0.13
799.994	-0.15
800.167	-0.14
800.34	-0.15
800.514	0.17
800.687	-0.2
800.86	-0.11
801.033	-0.17
801.206	-0.06
801.379	-0.45
801.551	0.16
801.724	-0.03
801.897	0.1
802.07	-0.02
802.243	-0.57
802.416	-0.18
802.589	-0.32
802.762	-0.13
802.935	0.04
803.107	0.14
803.28	0.33
803.453	0.02
803.626	-0.46
803.798	-0.21
803.971	-0.05
804.144	0.1
804.317	0.35
804.489	-0.06
804.662	0.09
804.835	-0.19
805.007	-0.28
805.18	0.04
805.353	0.08
805.525	-0.28
805.698	0.07
805.87	0.24
806.043	0.3
806.215	-0.33
806.388	-0.32
806.56	0.39
806.733	0.07
806.905	0.13
807.078	-0.05
807.25	-0.15
807.423	0.01
807.595	0.21
807.768	-0.12
807.94	-0.05
808.112	-0.45
808.285	-0.13
808.457	-0.34
808.629	0.1
808.802	0.17
808.974	-0.05
809.146	-0.07
809.318	-0.66
809.491	-0.29
809.663	0.21
809.835	-0.39
810.007	0.12
810.18	-0.11
810.352	-0.55
810.524	0.06
810.696	-0.01
810.868	0.06
811.04	0.02
811.212	-0.01
811.384	0.15
811.556	-0.05
811.728	-0.19
811.901	0.25
812.073	0.04
812.245	0.19
812.417	-0.06
812.589	-0.54
812.76	0.15
812.932	0.15
813.104	0.14
813.276	0.01
813.448	0.34
813.62	-0.26
813.792	0
813.964	-0.29
814.136	-0.12
814.307	-0.25
814.479	-0.13
814.651	-0.21
814.823	0.81
814.995	0.11
815.166	-0.03
815.338	-0.27
815.51	-0.66
815.681	0.44
815.853	0.24
816.025	-0.32
816.196	0.34
816.368	-0.01
816.54	-0.43
816.711	-0.39
816.883	-0.29
817.054	0.68
817.226	-0.65
817.398	-0.04
817.569	-0.17
817.741	-0.18
817.912	-0.2
818.084	-0.44
818.255	0.52
818.426	-0.55
818.598	-0.03
818.769	-0.32
818.941	0.14
819.112	0.54
819.283	-0.2
819.455	-0.45
819.626	0.02
819.798	-0.05
819.969	0.21
820.14	-0.29
820.311	0.07
820.483	-0.04
820.654	0.07
820.825	-0.2
820.996	-0.27
821.168	-0.12
821.339	-0.04
821.51	-0.26
821.681	0.14
821.852	-0.09
822.023	-0.37
822.195	-0.63
822.366	0.66
822.537	0.2
822.708	-0.61
822.879	-0.21
823.05	0.74
823.221	-0.18
823.392	-0.1
823.563	-0.61
823.734	0.55
823.905	-0.38
824.076	-0.14
824.247	-0.08
824.418	-0.2
824.589	0.27
824.759	-0.13
824.93	-0.02
825.101	-0.87
825.272	0.47
825.443	0.59
825.614	0.49
825.784	-0.86
825.955	0.93
826.126	0.58
826.297	-0.06
826.467	0.54
826.638	0.45
826.809	-1.14
826.98	-0.16
827.15	0.13
827.321	-0.14
827.492	0.33
827.662	0.51
827.833	0.71
828.003	0.16
828.174	-0.27
828.345	-0.73
828.515	0.18
828.686	-0.21
828.856	-0.25
829.027	-0.05
829.197	-0.41
829.368	0.37
829.538	-0.48
829.709	-0.57
829.879	-0
830.049	0.34
830.22	0
830.39	-0.39
830.56	-0.14
830.731	0.04
830.901	-0.91
831.072	0
831.242	-0.28
831.412	-0.08
831.582	0.18
831.753	-0.27
831.923	0.44
832.093	-0.93
832.263	-0.28
832.434	-0.72
832.604	0.31
832.774	0.2
832.944	-0.12
833.114	-0.37
833.284	0.11
833.454	-0.83
833.624	-0.61
833.795	-0.68
833.965	-0.15
834.135	0.47
834.305	-0.73
834.475	-0.87
834.645	-0.2
834.815	-0.19
834.985	-0.66
835.155	-0.1
835.325	0.66
835.494	-0.22
835.664	-0.17
835.834	-0.97
836.004	-0.12
836.174	-0.09
836.344	-0.32
836.514	-1.35
836.684	0.11
836.853	-0.45
837.023	-0.46
837.193	-1.04
837.363	0.38
837.532	0.81
837.702	-0.07
837.872	-0.51
838.041	0.41
838.211	1.09
838.381	-0.44
838.55	-0.21
838.72	0.79
838.89	0.47
839.059	-0.24
839.229	-0.7
839.398	0.85
839.568	0.22
839.738	-0.04
839.907	0.23
840.077	0.23
840.246	0
840.416	-1.03
840.585	-0.53
840.755	0.73
840.924	1.07
841.093	-0.2
841.263	0.16
841.432	0.07
841.602	-0.51
841.771	-0.99
841.94	-0.09
842.11	1.3
842.279	1.65
842.448	0.24
842.617	-0.17
842.787	0.66
842.956	-1.38
843.125	0.1
843.294	0.05
843.464	0.89
843.633	-1.01
843.802	-1.66
843.971	-0.09
844.14	0.38
844.309	-0.06
844.479	-0.75
844.648	-0.71
844.817	-0.68
844.986	-0.2
845.155	0.46
845.324	-0.38
845.493	0.21
845.662	-0.47
845.831	0.17
846	0.11
846.169	-0.47
846.338	0.1
846.507	0.07
846.676	-0.15
846.844	-0.73
847.013	0.3
847.182	-0.18
847.351	-0.77
847.52	0.55
847.689	-0.12
847.858	-0.52
848.026	-0.68
848.195	0.04
848.364	-0.86
848.533	-0.63
848.701	-0.98
848.87	0.06
849.039	1.25
849.207	0.35
849.376	1.03
849.545	0.14
849.713	-0.66
849.882	-0.75
850.051	-0.52
850.219	-0.32
850.388	-0.34
850.556	-0.3
850.725	-0.72
850.893	-0.12
851.062	-0.68
851.23	0.8
851.399	-1.17
851.567	-0.67
851.736	-0.37
851.904	-0.54
852.073	0.8
852.241	0.29
852.41	-0.17
852.578	-0.25
852.746	-1.46
852.915	-0.03
853.083	-0.41
853.251	-1.18
853.42	0.08
853.588	0.3
853.756	-0.31
853.924	-0.15
854.093	-0.57
854.261	-0.49
854.429	-1.44
854.597	0.11
854.765	-1.18
854.934	0.44
855.102	-0.48
855.27	0.25
855.438	1.27
855.606	-0.28
855.774	1.06
855.942	-1.83
856.11	-1.71
856.278	-0.58
856.446	0.83
856.614	-0.22
856.782	-0.21
856.95	1.15
857.118	0.13
857.286	-0.1
857.454	-0.09
857.622	0.24
857.79	0.34
857.958	-0.82
858.126	-0.83
858.294	-2.72
858.462	-0.98
858.629	-0.14
858.797	-1.21
858.965	0.15
859.133	0.34
859.301	-0.2
859.468	0.18
859.636	-0.43
859.804	1.67
859.971	0.49
860.139	-0.65
860.307	1.46
860.474	0.35
860.642	-1.43
860.81	-0.28
860.977	-2.1
861.145	0.65
861.313	-0.67
861.48	-0.06
861.648	1.54
861.815	-0.02
861.983	-1.18
862.15	-0.65
862.318	0.71
862.485	1
862.653	-1.11
862.82	0.12
862.988	0.87
863.155	1.05
863.322	-0.2
863.49	-2.23
863.657	-0.28
863.824	0.25
863.992	-0.34
864.159	-0.22
864.326	1.32
864.494	-1.46
864.661	1.8
864.828	-2.62
864.996	0.27
865.163	0.72
865.33	-1.69
865.497	-2
865.664	-0.94
865.832	-2.08
865.999	-0.27
866.166	-1.44
866.333	-0.71
866.5	-1.85
866.667	-0.54
866.834	-1.18
867.001	0.12
867.168	-1.78
867.335	0.14
867.502	-1.34
867.669	0.51
867.836	0.91
868.003	0.34
868.17	1.33
868.337	-1.61
868.504	2.2
868.671	-2.04
868.838	-0.38
869.005	-0.46
869.172	0.55
869.339	-0.92
869.505	-0.71
869.672	-0.01
869.839	1.23
870.006	0.7
870.173	-1.12
870.339	0.98
870.506	2.32
870.673	-0.09
870.84	1.46
871.006	-0.92
871.173	-0.43
871.34	0.16
871.506	-1.06
871.673	-1.36
871.839	-1.51
872.006	0.22
872.173	-1.39
872.339	-0.62
872.506	1.48
872.672	-1.49
872.839	-2.09
873.005	-0.7
873.172	2.75
873.338	1.77
873.505	-0.98
873.671	-1.97
873.838	0.95
874.004	-1.7
874.171	-0.05
874.337	-0.6
874.503	0.07
874.67	-0.25
874.836	1.13
875.002	1.04
875.169	1.46
875.335	0.06
875.501	-0.71
875.668	2.31
875.834	-0.26
876	0.41
876.166	0.76
876.332	2
876.499	2.64
876.665	-1.03
876.831	0.57
876.997	2.53
877.163	-0.31
877.329	-0.73
877.495	2.49
877.662	1.45
877.828	0.55
877.994	0.17
878.16	-2.77
878.326	-1.18
878.492	-1.25
878.658	-1.11
878.824	-0.91
878.99	-0.37
879.156	-2.1
879.322	3.42
879.487	-0.59
879.653	-1.12
879.819	-0.68
879.985	-1.71
880.151	0.81
880.317	0.1
880.483	-2.83
880.648	1.54
880.814	-3.28
880.98	-1.1
881.146	-2.62
881.312	-1.72
881.477	-1.01
881.643	1.34
881.809	0.89
881.974	0.12
882.14	-3.43
882.306	-1.16
882.471	1.27
882.637	0.38
882.803	0.96
882.968	0.64
883.134	2.7
883.299	-0.5
883.465	0.86
883.63	0.9
883.796	0.43
883.961	0.12
884.127	1.72
884.292	-4.69
884.458	-2.64
884.623	-2.63
