Data from Apollo_Calib_20240827__AbsoluteIrradiance__452__06-41-02-931.txt Node

Date: Wed Aug 28 06:41:02 BST 2024
User: biology
Spectrometer: FLMT08252
Trigger mode: 0
Integration Time (sec): 5.000000E-1
Scans to average: 5
Electric dark correction enabled: true
Nonlinearity correction enabled: false
Boxcar width: 0
XAxis mode: Wavelengths
Number of Pixels in Spectrum: 3648
>>>>>Begin Spectral Data<<<<<
179.588	-0
179.809	-0
180.03	-0
180.251	-0
180.473	-0
180.694	0
180.915	0
181.136	-0
181.357	0
181.578	-0
181.799	-0
182.02	-0
182.241	0
182.462	-0
182.683	0
182.904	-0
183.125	-0
183.346	0
183.567	0
183.788	-0
184.009	-0
184.23	0
184.451	0
184.672	-0
184.892	-0
185.113	0
185.334	0
185.555	-0
185.776	-0
185.996	0
186.217	-0
186.438	0
186.659	-0
186.879	0
187.1	-0
187.321	-0
187.541	-0
187.762	0
187.983	-0
188.203	0
188.424	-0
188.644	-0
188.865	-0
189.086	-0
189.306	-0
189.527	0
189.747	-0
189.968	-0
190.188	-0
190.409	0
190.629	0
190.849	-0
191.07	-0
191.29	0
191.511	-0
191.731	-0
191.951	-0
192.172	0
192.392	-0
192.612	-0
192.833	-0
193.053	0
193.273	0
193.493	-0
193.714	-0
193.934	0
194.154	0
194.374	0
194.594	-0
194.815	-0
195.035	-0
195.255	-0
195.475	-0
195.695	0
195.915	0
196.135	-0
196.355	0
196.575	0
196.795	0
197.015	-0
197.235	-0
197.455	-0
197.675	0
197.895	-0
198.115	-0
198.335	0
198.555	-0
198.775	0
198.995	-0
199.214	0
199.434	-0
199.654	-0
199.874	-0
200.094	-1.62
200.313	-0.46
200.533	-0.43
200.753	-1.23
200.973	0.64
201.192	0.33
201.412	-1.05
201.632	-0.4
201.851	0.29
202.071	-0.5
202.291	-0.36
202.51	-1.21
202.73	0.22
202.95	0.1
203.169	-0.8
203.389	-0.24
203.608	-0.41
203.828	-0.44
204.047	-0.32
204.267	-0.3
204.486	0.07
204.706	0.1
204.925	-0.13
205.145	-0.6
205.364	0.16
205.583	0.17
205.803	-0.33
206.022	-0.56
206.242	-0.37
206.461	-0.39
206.68	-0.65
206.9	-0.2
207.119	0.02
207.338	0.58
207.557	-0.35
207.777	-0.43
207.996	-0.37
208.215	0.53
208.434	-0.42
208.654	-0.48
208.873	-0.06
209.092	0.08
209.311	-0.35
209.53	-0.18
209.749	-0.14
209.968	-0.33
210.187	-0.12
210.407	-0.45
210.626	-0.31
210.845	0.07
211.064	-0.21
211.283	-0.08
211.502	0.14
211.721	-0.17
211.94	-0.08
212.159	-0.11
212.377	0.03
212.596	0.13
212.815	0.02
213.034	0.08
213.253	0.15
213.472	0.11
213.691	-0.36
213.91	-0.25
214.128	-0.25
214.347	0.27
214.566	-0.49
214.785	-0.48
215.003	-0
215.222	-0.03
215.441	-0.2
215.66	-0.38
215.878	-0.17
216.097	0.16
216.316	-0.4
216.534	-0.28
216.753	-0.01
216.972	-0.11
217.19	-0.27
217.409	-0.1
217.627	-0.14
217.846	-0.2
218.064	-0.17
218.283	-0.3
218.501	0.27
218.72	0.02
218.938	-0.28
219.157	-0.15
219.375	0.08
219.594	-0.02
219.812	-0.4
220.031	-0.24
220.249	0.19
220.467	0.48
220.686	-0.09
220.904	-0.36
221.122	-0.2
221.341	0.27
221.559	-0.11
221.777	-0.13
221.995	-0.05
222.214	-0.05
222.432	-0.17
222.65	-0.03
222.868	-0.04
223.086	0.13
223.305	0.05
223.523	-0.06
223.741	0.21
223.959	-0.23
224.177	-0.35
224.395	-0.12
224.613	-0
224.831	0.18
225.049	-0.14
225.267	-0.06
225.485	-0.06
225.703	-0.24
225.921	0.08
226.139	-0.14
226.357	0.09
226.575	0.06
226.793	-0.12
227.011	0.46
227.229	-0.03
227.447	0.09
227.665	-0.09
227.883	-0.28
228.1	0.02
228.318	-0.05
228.536	-0.33
228.754	-0.12
228.972	-0.02
229.189	0.21
229.407	-0.17
229.625	-0.14
229.843	0.11
230.06	-0.01
230.278	-0.12
230.496	-0.1
230.713	0
230.931	0.03
231.149	-0.15
231.366	-0.2
231.584	-0.17
231.801	0.28
232.019	-0.08
232.236	-0.15
232.454	-0.22
232.671	-0.05
232.889	-0.01
233.106	-0.17
233.324	-0.11
233.541	-0
233.759	0.05
233.976	-0.12
234.194	-0.03
234.411	0.02
234.628	-0.2
234.846	-0.1
235.063	0.03
235.28	-0.09
235.498	0.05
235.715	-0.16
235.932	0.03
236.149	-0.04
236.367	-0.05
236.584	-0.08
236.801	-0.08
237.018	0.02
237.236	0.03
237.453	-0.23
237.67	0.01
237.887	0.06
238.104	-0.07
238.321	-0.06
238.538	-0.14
238.755	0.02
238.973	-0.16
239.19	-0.05
239.407	-0.01
239.624	-0.05
239.841	-0.21
240.058	-0.05
240.275	-0.07
240.492	-0.05
240.709	-0.04
240.925	-0.14
241.142	-0.05
241.359	-0.19
241.576	-0.11
241.793	0.06
242.01	-0.04
242.227	0.02
242.444	-0.09
242.66	0.05
242.877	0.02
243.094	-0.04
243.311	0.02
243.527	-0.07
243.744	0.02
243.961	0.06
244.178	-0.15
244.394	0.03
244.611	0.01
244.828	0.07
245.044	-0.09
245.261	-0.06
245.477	0.03
245.694	-0.05
245.911	-0.1
246.127	-0.01
246.344	0.08
246.56	0.05
246.777	-0.03
246.993	-0.08
247.21	0.04
247.426	-0.03
247.643	-0.17
247.859	-0.14
248.076	-0.09
248.292	0.18
248.508	-0.05
248.725	0
248.941	0.04
249.157	0.11
249.374	-0.13
249.59	-0.07
249.806	-0.02
250.023	0.03
250.239	-0.12
250.455	-0.13
250.671	-0.03
250.888	-0.03
251.104	0.02
251.32	-0.06
251.536	-0.01
251.752	-0.05
251.969	-0.15
252.185	-0.05
252.401	0.13
252.617	-0.04
252.833	-0.1
253.049	-0.06
253.265	-0.05
253.481	0.02
253.697	-0.1
253.913	-0.12
254.129	-0.01
254.345	0.02
254.561	-0.08
254.777	-0.07
254.993	0.01
255.209	0.03
255.425	-0.1
255.641	-0.1
255.857	0.06
256.073	0
256.288	-0.12
256.504	-0.09
256.72	-0.04
256.936	0.09
257.152	-0.13
257.367	-0.05
257.583	-0.06
257.799	0.07
258.015	-0.08
258.23	-0.12
258.446	0.13
258.662	-0.08
258.877	-0.14
259.093	-0.09
259.309	-0.01
259.524	0.01
259.74	-0.09
259.955	-0.12
260.171	-0.07
260.387	0.02
260.602	0
260.818	0.06
261.033	-0.1
261.249	-0.12
261.464	-0.09
261.68	-0.19
261.895	-0.05
262.11	0.14
262.326	-0.05
262.541	-0.11
262.757	-0.01
262.972	0.01
263.187	-0
263.403	-0.03
263.618	0.03
263.833	0
264.049	-0.08
264.264	-0.08
264.479	-0
264.694	0.06
264.91	-0.08
265.125	-0.09
265.34	-0.03
265.555	0.11
265.77	-0.01
265.986	-0.05
266.201	0.06
266.416	0.06
266.631	-0.05
266.846	-0.05
267.061	0.05
267.276	0.06
267.491	-0.15
267.706	-0.05
267.921	-0.04
268.136	0.01
268.351	-0.01
268.566	-0.16
268.781	0.08
268.996	0.06
269.211	-0.02
269.426	-0.05
269.641	-0.09
269.856	0.05
270.071	-0.09
270.285	-0.07
270.5	0.08
270.715	0.06
270.93	-0.05
271.145	-0.02
271.359	0.09
271.574	-0.07
271.789	-0.03
272.004	-0.06
272.218	-0.08
272.433	0
272.648	-0.05
272.862	0.04
273.077	-0.02
273.292	-0.08
273.506	-0.09
273.721	-0.06
273.936	0
274.15	0.06
274.365	-0.06
274.579	-0.04
274.794	0.03
275.008	0.02
275.223	-0.13
275.437	-0.05
275.652	0.03
275.866	0.03
276.081	-0.01
276.295	0.05
276.509	-0.04
276.724	-0.01
276.938	-0.02
277.153	0.05
277.367	0.01
277.581	-0.08
277.796	0.03
278.01	-0.11
278.224	0.03
278.438	0.1
278.653	-0.09
278.867	-0.06
279.081	-0.19
279.295	-0.03
279.51	-0.02
279.724	-0.07
279.938	0.05
280.152	0.01
280.366	-0.04
280.58	-0.04
280.794	0.04
281.008	-0.02
281.222	0.02
281.437	0.13
281.651	-0
281.865	0.02
282.079	-0.04
282.293	-0.16
282.507	-0.04
282.721	-0.05
282.935	-0.03
283.148	-0.1
283.362	-0.07
283.576	-0.05
283.79	-0.04
284.004	-0.05
284.218	0.05
284.432	-0.08
284.646	-0.03
284.859	-0.04
285.073	-0.08
285.287	-0.04
285.501	-0.05
285.714	-0.04
285.928	0.01
286.142	-0.02
286.356	-0.09
286.569	-0.06
286.783	0.09
286.997	0.03
287.21	-0.02
287.424	0
287.637	-0.03
287.851	-0.07
288.065	0.01
288.278	0.05
288.492	-0.01
288.705	-0.05
288.919	-0.02
289.132	-0.08
289.346	0.01
289.559	-0.1
289.773	-0.04
289.986	-0.02
290.2	-0
290.413	0.02
290.626	-0.07
290.84	-0.1
291.053	-0.02
291.267	0.05
291.48	0.01
291.693	-0.02
291.906	-0.05
292.12	-0.07
292.333	-0.07
292.546	-0.03
292.76	0.07
292.973	0
293.186	0.05
293.399	-0.02
293.612	0.08
293.826	-0
294.039	-0.05
294.252	0.01
294.465	0.03
294.678	0.01
294.891	-0
295.104	-0.08
295.317	0
295.53	-0.01
295.743	0
295.956	-0.01
296.169	0.06
296.382	0.06
296.595	-0.01
296.808	-0.07
297.021	0.04
297.234	0.07
297.447	0.02
297.66	0
297.873	0.03
298.086	0.05
298.299	-0.02
298.511	-0.09
298.724	-0.02
298.937	-0.02
299.15	-0.03
299.363	-0
299.575	0
299.788	0.03
300.001	-0.04
300.213	-0.06
300.426	-0.05
300.639	-0.04
300.852	-0.05
301.064	0.04
301.277	0.04
301.489	0.06
301.702	0.04
301.915	-0.01
302.127	-0.04
302.34	0.01
302.552	0.03
302.765	-0.06
302.977	0.03
303.19	-0.05
303.402	-0.03
303.615	-0.06
303.827	-0
304.04	0.01
304.252	0.03
304.464	-0
304.677	0.07
304.889	0.01
305.102	-0.02
305.314	-0.07
305.526	0.05
305.739	0.01
305.951	-0.04
306.163	0.02
306.375	0.04
306.588	-0.01
306.8	-0.03
307.012	-0.09
307.224	0.03
307.436	0.04
307.649	-0.11
307.861	-0.03
308.073	-0.02
308.285	-0.01
308.497	-0.06
308.709	-0.04
308.921	-0
309.133	0.08
309.346	0
309.558	-0.01
309.77	-0.01
309.982	0.06
310.194	0.03
310.406	-0.03
310.617	-0
310.829	-0
311.041	0
311.253	-0.02
311.465	-0.02
311.677	-0.04
311.889	-0
312.101	-0.03
312.313	0.03
312.524	0.06
312.736	-0.08
312.948	-0.03
313.16	0.06
313.372	-0
313.583	-0
313.795	-0.03
314.007	-0.02
314.218	0.01
314.43	-0.04
314.642	-0.05
314.853	-0.07
315.065	0.04
315.277	-0.04
315.488	-0.02
315.7	0.04
315.912	0.06
316.123	-0.03
316.335	0.01
316.546	0.03
316.758	-0
316.969	-0.06
317.181	0
317.392	-0.01
317.604	0.02
317.815	-0.05
318.026	-0.03
318.238	-0.04
318.449	0.01
318.661	-0.09
318.872	-0.07
319.083	-0.04
319.295	0.01
319.506	-0.04
319.717	-0.04
319.929	-0
320.14	-0.05
320.351	0.02
320.562	-0.04
320.774	0.03
320.985	0.02
321.196	-0.07
321.407	-0.06
321.618	0.04
321.829	0
322.041	0.02
322.252	-0.03
322.463	-0
322.674	0.01
322.885	-0.02
323.096	-0.04
323.307	-0
323.518	-0.03
323.729	-0.02
323.94	-0.04
324.151	-0.08
324.362	0.02
324.573	0.01
324.784	-0.04
324.995	-0.01
325.206	-0.01
325.417	-0
325.628	-0.04
325.838	0.03
326.049	-0.04
326.26	0.02
326.471	-0.06
326.682	0.01
326.892	0
327.103	-0.09
327.314	-0.09
327.525	0.04
327.735	-0.02
327.946	0.01
328.157	-0.07
328.368	0.01
328.578	-0.04
328.789	0.03
328.999	-0.01
329.21	-0.02
329.421	0.02
329.631	-0.06
329.842	-0.06
330.052	0.02
330.263	0.01
330.473	0.03
330.684	-0.01
330.894	-0.01
331.105	0.01
331.315	0
331.526	-0.1
331.736	0.04
331.947	0.02
332.157	0.02
332.367	-0.07
332.578	0.05
332.788	0.04
332.999	0.06
333.209	-0.03
333.419	-0.05
333.629	0.03
333.84	0.03
334.05	-0
334.26	0.07
334.47	-0.03
334.681	0.01
334.891	-0.03
335.101	-0.02
335.311	0.08
335.521	-0.03
335.732	-0.08
335.942	0.05
336.152	0.02
336.362	0.01
336.572	-0.01
336.782	0.02
336.992	-0.06
337.202	-0.02
337.412	-0.07
337.622	0.06
337.832	-0.03
338.042	-0.01
338.252	-0.05
338.462	-0.01
338.672	0.05
338.882	-0.02
339.092	0.01
339.302	0.04
339.511	0.01
339.721	-0.03
339.931	-0.08
340.141	0.07
340.351	0.03
340.561	0.02
340.77	-0.02
340.98	0
341.19	0.04
341.4	-0.04
341.609	-0.06
341.819	-0
342.029	-0.07
342.238	0.02
342.448	-0.07
342.658	0.02
342.867	-0.02
343.077	0
343.286	0.02
343.496	0.01
343.706	0.09
343.915	-0.03
344.125	0.02
344.334	0.01
344.544	-0.04
344.753	-0.05
344.963	-0.06
345.172	-0.04
345.381	-0.03
345.591	-0.05
345.8	-0.03
346.01	0.08
346.219	0.02
346.428	-0.14
346.638	-0.03
346.847	-0.01
347.056	0.05
347.266	-0.02
347.475	-0.05
347.684	-0
347.893	0.02
348.103	0.01
348.312	-0.03
348.521	-0.05
348.73	0.01
348.94	-0.02
349.149	-0
349.358	-0.03
349.567	-0.01
349.776	-0.06
349.985	-0.03
350.194	-0
350.403	0.03
350.612	-0.02
350.821	0
351.03	-0.04
351.239	-0.06
351.448	0.01
351.657	-0.02
351.866	0.03
352.075	-0.02
352.284	0.02
352.493	-0.04
352.702	0.04
352.911	0.03
353.12	0.03
353.329	-0.03
353.538	0.02
353.746	-0.03
353.955	-0.07
354.164	-0.03
354.373	-0.06
354.582	0.01
354.79	0.02
354.999	0.05
355.208	-0.03
355.416	0.07
355.625	-0.06
355.834	-0.04
356.042	0.03
356.251	-0.01
356.46	-0.06
356.668	0.01
356.877	0.06
357.085	-0.03
357.294	-0.09
357.503	-0.01
357.711	-0.01
357.92	0.11
358.128	-0.01
358.337	-0.07
358.545	0.01
358.754	0
358.962	0.03
359.17	0.01
359.379	0.02
359.587	0.03
359.796	-0.01
360.004	0.02
360.212	0.04
360.421	0.04
360.629	-0.05
360.837	-0.03
361.046	0.02
361.254	0.12
361.462	-0
361.67	-0.02
361.879	-0
362.087	0.05
362.295	0.04
362.503	-0.04
362.711	-0.05
362.92	-0.05
363.128	-0.03
363.336	-0.03
363.544	-0.07
363.752	-0.03
363.96	-0.03
364.168	0.01
364.376	-0.01
364.584	0.01
364.792	-0.01
365	0
365.208	0.01
365.416	0.02
365.624	0.04
365.832	-0.09
366.04	0.03
366.248	0.02
366.456	0.01
366.664	-0
366.872	-0
367.079	-0.04
367.287	0.02
367.495	-0.03
367.703	-0.01
367.911	-0.02
368.118	-0.01
368.326	-0.01
368.534	-0.04
368.742	0.08
368.949	-0.05
369.157	-0.02
369.365	-0.01
369.572	-0
369.78	-0.06
369.988	0.01
370.195	0.04
370.403	0
370.61	-0.02
370.818	-0.04
371.026	0.02
371.233	-0.05
371.441	0.03
371.648	-0.05
371.856	-0.01
372.063	-0
372.271	-0.03
372.478	-0.02
372.685	-0.04
372.893	0.02
373.1	-0.02
373.308	-0.05
373.515	0.05
373.722	0.01
373.93	-0.05
374.137	0.06
374.344	0.06
374.552	0.04
374.759	0.01
374.966	0.01
375.173	-0.02
375.381	0
375.588	0.01
375.795	-0.07
376.002	-0.03
376.209	-0.04
376.417	-0.01
376.624	-0.07
376.831	-0.01
377.038	-0.05
377.245	-0.08
377.452	-0.03
377.659	-0.02
377.866	-0.06
378.073	-0.02
378.28	-0.04
378.487	0.01
378.694	-0
378.901	-0.03
379.108	0
379.315	0.02
379.522	0.04
379.729	-0.02
379.936	-0.03
380.143	0
380.35	-0.03
380.557	-0.05
380.763	-0.01
380.97	0.03
381.177	-0.02
381.384	-0
381.591	0.01
381.797	-0.02
382.004	-0.02
382.211	0.02
382.418	-0.02
382.624	0.02
382.831	0.02
383.038	-0.01
383.244	0.02
383.451	0.03
383.658	0.03
383.864	-0.04
384.071	-0.08
384.277	0.05
384.484	-0.05
384.69	0.1
384.897	-0.04
385.103	-0.06
385.31	-0.06
385.516	-0.02
385.723	-0.03
385.929	0.01
386.136	-0.06
386.342	0.02
386.549	-0.05
386.755	0.05
386.961	-0.01
387.168	-0.01
387.374	0.01
387.58	0.01
387.787	0
387.993	0
388.199	-0.04
388.406	-0.06
388.612	-0.03
388.818	-0.04
389.024	-0.03
389.231	-0.01
389.437	0.04
389.643	0.02
389.849	-0.08
390.055	-0.03
390.261	-0.04
390.467	0.03
390.674	-0.07
390.88	-0.01
391.086	0.04
391.292	-0.06
391.498	0.01
391.704	0.03
391.91	-0.02
392.116	-0.03
392.322	-0.08
392.528	-0.06
392.734	-0.01
392.94	-0.01
393.146	-0.03
393.352	-0.01
393.557	-0.04
393.763	-0.07
393.969	-0.02
394.175	-0.04
394.381	-0.05
394.587	-0.04
394.792	-0.04
394.998	0.06
395.204	0.04
395.41	-0
395.615	0.02
395.821	-0
396.027	0.01
396.233	-0.06
396.438	-0
396.644	0.08
396.85	0.02
397.055	0
397.261	0.03
397.466	-0.02
397.672	-0.03
397.878	0.03
398.083	-0.03
398.289	-0.02
398.494	0.05
398.7	-0.05
398.905	-0.07
399.111	0.02
399.316	-0.04
399.522	-0.02
399.727	-0.03
399.932	0.02
400.138	-0.09
400.343	-0.03
400.549	0.01
400.754	-0.01
400.959	-0.01
401.165	-0.04
401.37	-0.02
401.575	0.07
401.78	-0.01
401.986	-0.04
402.191	-0.06
402.396	-0.04
402.601	-0.01
402.807	-0.01
403.012	0.03
403.217	0
403.422	-0.01
403.627	-0.03
403.832	-0.06
404.037	0.01
404.243	0.01
404.448	-0.07
404.653	-0.02
404.858	0
405.063	0.06
405.268	-0.05
405.473	-0.06
405.678	-0.06
405.883	0.14
406.088	0.02
406.293	-0
406.498	-0.02
406.703	0.05
406.907	0
407.112	-0.03
407.317	0.03
407.522	0.04
407.727	-0.06
407.932	-0.01
408.136	0.08
408.341	-0.03
408.546	-0.01
408.751	-0.02
408.956	-0.04
409.16	0.03
409.365	0.01
409.57	-0.02
409.774	0.02
409.979	0.02
410.184	-0.04
410.388	-0.07
410.593	-0.01
410.798	0.01
411.002	-0.03
411.207	-0.01
411.411	-0.02
411.616	0
411.82	-0.03
412.025	-0.01
412.229	-0.07
412.434	0.06
412.638	0.01
412.843	-0.04
413.047	-0.01
413.252	-0.07
413.456	-0.06
413.66	0.02
413.865	-0.08
414.069	0.02
414.273	0
414.478	-0.02
414.682	-0.01
414.886	-0.06
415.091	-0.07
415.295	-0.06
415.499	0.03
415.703	0.02
415.908	0.01
416.112	-0.08
416.316	0.02
416.52	-0.04
416.724	-0.08
416.929	-0.07
417.133	0.05
417.337	-0.01
417.541	-0.06
417.745	-0.04
417.949	0.04
418.153	0.07
418.357	-0.1
418.561	0.06
418.765	-0.02
418.969	0.07
419.173	-0.02
419.377	-0.09
419.581	0.07
419.785	-0
419.989	-0.11
420.193	-0.06
420.397	-0.01
420.601	0.04
420.804	-0
421.008	-0.02
421.212	-0.04
421.416	0.04
421.62	-0
421.823	0.01
422.027	0.08
422.231	-0.03
422.435	-0.02
422.638	0
422.842	-0
423.046	-0.04
423.249	0
423.453	-0.01
423.657	0.03
423.86	-0.03
424.064	0.01
424.268	-0.01
424.471	-0.01
424.675	0.07
424.878	0.05
425.082	-0
425.285	-0.04
425.489	0.01
425.692	-0.02
425.896	-0.03
426.099	0.06
426.303	0
426.506	-0.07
426.71	-0
426.913	-0
427.116	0.03
427.32	-0.01
427.523	-0.03
427.726	0.02
427.93	-0.07
428.133	-0.03
428.336	-0.02
428.54	-0.04
428.743	-0
428.946	-0
429.149	-0.02
429.353	-0.03
429.556	-0.05
429.759	-0.03
429.962	-0.04
430.165	-0.04
430.368	0.01
430.571	-0.03
430.775	0
430.978	-0.04
431.181	0.01
431.384	0.01
431.587	-0.04
431.79	-0.01
431.993	0.02
432.196	-0
432.399	-0.04
432.602	0.05
432.805	-0.02
433.008	-0.06
433.211	-0.11
433.414	-0.01
433.616	0.01
433.819	-0
434.022	-0.12
434.225	0.06
434.428	0.03
434.631	0.08
434.833	-0
435.036	-0.01
435.239	0.04
435.442	0.01
435.645	-0.04
435.847	-0
436.05	0.01
436.253	0
436.455	-0.07
436.658	0.03
436.861	0.1
437.063	-0.04
437.266	-0.05
437.468	-0.01
437.671	0.15
437.874	-0.02
438.076	-0.08
438.279	-0.08
438.481	0.01
438.684	-0.11
438.886	0.03
439.089	-0.11
439.291	-0.05
439.494	0
439.696	-0.06
439.899	-0.04
440.101	-0.01
440.303	-0.14
440.506	-0
440.708	0
440.91	0.03
441.113	-0.07
441.315	0.04
441.517	-0.15
441.72	0.04
441.922	-0.06
442.124	-0.04
442.326	0.01
442.529	0.07
442.731	-0.04
442.933	0.06
443.135	-0.06
443.337	-0.1
443.539	-0.04
443.742	-0.04
443.944	0.02
444.146	-0.07
444.348	-0.03
444.55	-0.06
444.752	-0.02
444.954	-0.02
445.156	-0.06
445.358	-0.03
445.56	0.01
445.762	-0.05
445.964	-0.01
446.166	-0.04
446.368	-0.05
446.57	0.01
446.772	-0.03
446.974	-0.01
447.175	-0.04
447.377	-0.08
447.579	-0.02
447.781	-0.11
447.983	0.07
448.184	-0.06
448.386	-0.05
448.588	-0.07
448.79	-0.01
448.991	-0.05
449.193	-0.02
449.395	-0.05
449.597	0.05
449.798	-0.03
450	-0.02
450.202	-0.07
450.403	-0.04
450.605	0.02
450.806	-0.06
451.008	-0.1
451.21	-0.04
451.411	0
451.613	-0.07
451.814	-0.02
452.016	-0.02
452.217	-0.03
452.419	0.07
452.62	0
452.821	0.04
453.023	0.04
453.224	-0.01
453.426	-0.03
453.627	-0.02
453.828	0
454.03	-0.04
454.231	-0.03
454.432	-0.07
454.634	0.03
454.835	-0.07
455.036	-0.11
455.238	0.04
455.439	0.06
455.64	-0.08
455.841	-0.04
456.042	0.06
456.244	0.04
456.445	-0.09
456.646	-0.07
456.847	-0.01
457.048	0.03
457.249	0.02
457.45	0.17
457.651	-0.07
457.852	0.06
458.054	-0.04
458.255	-0.04
458.456	-0
458.657	-0.02
458.858	-0.08
459.058	0.02
459.259	0.07
459.46	-0.03
459.661	-0.03
459.862	0.07
460.063	-0.04
460.264	0.07
460.465	-0.07
460.666	0.11
460.866	-0.07
461.067	-0
461.268	-0.04
461.469	-0.03
461.67	-0.01
461.87	-0.06
462.071	-0.08
462.272	-0.06
462.473	-0.03
462.673	-0.02
462.874	-0.06
463.075	-0.03
463.275	-0.02
463.476	-0.01
463.676	0.03
463.877	-0
464.078	-0.05
464.278	0.02
464.479	-0.02
464.679	0.02
464.88	-0.03
465.08	0.06
465.281	-0.05
465.481	-0.02
465.682	-0.05
465.882	0.03
466.083	-0.04
466.283	-0.02
466.483	0
466.684	-0.06
466.884	-0.05
467.085	0
467.285	0.06
467.485	-0.1
467.686	-0.01
467.886	-0.07
468.086	0
468.286	-0.02
468.487	0
468.687	-0.07
468.887	-0.03
469.087	0.02
469.287	-0.07
469.488	-0.05
469.688	0.01
469.888	-0.01
470.088	0.02
470.288	-0.01
470.488	0.02
470.688	-0.05
470.888	-0.04
471.088	-0.05
471.288	0.01
471.488	0.01
471.688	0.01
471.888	-0.03
472.088	0.04
472.288	0.01
472.488	-0.05
472.688	-0.05
472.888	-0.01
473.088	-0.01
473.288	-0.01
473.488	0
473.688	0.08
473.887	-0.02
474.087	-0.05
474.287	0.01
474.487	-0.04
474.687	0.01
474.886	-0.03
475.086	0.02
475.286	-0.03
475.486	0
475.685	0.01
475.885	-0
476.085	-0.01
476.284	-0.01
476.484	-0.02
476.684	0.01
476.883	0.03
477.083	0
477.282	-0.02
477.482	0.05
477.681	0.06
477.881	0.02
478.08	-0.04
478.28	-0.06
478.479	0.03
478.679	0.08
478.878	-0.03
479.078	-0.03
479.277	-0.01
479.477	-0.02
479.676	0.02
479.875	0.01
480.075	-0.06
480.274	0.01
480.473	0.01
480.673	-0.03
480.872	0.02
481.071	-0.02
481.271	-0.01
481.47	-0.06
481.669	-0.02
481.868	-0.03
482.067	-0.02
482.267	-0.01
482.466	-0.04
482.665	-0.04
482.864	-0.07
483.063	-0.06
483.262	0
483.461	0.04
483.661	0.02
483.86	0.01
484.059	0.02
484.258	-0.02
484.457	-0.02
484.656	-0.01
484.855	0
485.054	-0.05
485.253	-0.03
485.452	-0.05
485.651	-0.02
485.849	-0.02
486.048	-0.05
486.247	-0.04
486.446	-0.01
486.645	-0.05
486.844	-0.05
487.043	-0
487.241	-0.01
487.44	-0.01
487.639	-0.03
487.838	0.02
488.037	0.01
488.235	0.04
488.434	0.02
488.633	-0.03
488.831	0
489.03	0.03
489.229	-0
489.427	-0
489.626	0.04
489.825	0.06
490.023	-0.02
490.222	-0.03
490.42	0.02
490.619	0.02
490.817	-0.01
491.016	-0.01
491.214	0.01
491.413	-0.03
491.611	-0.04
491.81	0.01
492.008	0
492.207	0.02
492.405	-0
492.604	-0.02
492.802	-0.02
493	-0.02
493.199	-0.02
493.397	-0
493.595	-0.03
493.794	-0.03
493.992	0.02
494.19	-0.02
494.388	0.02
494.587	-0.03
494.785	-0.01
494.983	-0.03
495.181	0.02
495.379	-0
495.578	-0.03
495.776	0.01
495.974	0
496.172	-0.01
496.37	-0.01
496.568	-0.03
496.766	-0.01
496.964	0.02
497.162	-0.03
497.36	-0.03
497.558	-0
497.756	0.05
497.954	0.01
498.152	-0.01
498.35	-0.01
498.548	-0.01
498.746	-0.01
498.944	-0.03
499.142	-0.03
499.34	-0.04
499.538	-0.02
499.736	-0.01
499.933	0.02
500.131	0.05
500.329	0
500.527	0.02
500.725	0.02
500.922	0.01
501.12	-0.01
501.318	-0.01
501.516	-0.04
501.713	0
501.911	-0.01
502.109	-0.02
502.306	-0
502.504	0
502.701	-0.02
502.899	-0.02
503.097	0.04
503.294	0.01
503.492	-0.01
503.689	0.02
503.887	0
504.084	0.03
504.282	0.01
504.479	-0.04
504.677	0.01
504.874	-0.03
505.072	0.01
505.269	-0.02
505.466	0.02
505.664	-0.01
505.861	-0.04
506.059	-0.05
506.256	0.01
506.453	-0.02
506.651	0.01
506.848	0.01
507.045	-0.01
507.242	0
507.44	-0.03
507.637	-0.01
507.834	-0.01
508.031	0.03
508.229	-0.04
508.426	-0.02
508.623	0.04
508.82	-0.02
509.017	-0.04
509.214	-0.03
509.411	0.01
509.608	-0.04
509.805	-0.01
510.003	-0.01
510.2	0
510.397	0.01
510.594	-0.02
510.791	-0.03
510.988	-0.01
511.184	0.02
511.381	0.02
511.578	-0.04
511.775	0.01
511.972	-0.04
512.169	-0.01
512.366	-0.01
512.563	0
512.76	-0.01
512.956	0.01
513.153	-0.03
513.35	0.02
513.547	-0.01
513.744	-0.02
513.94	-0.04
514.137	0.02
514.334	-0
514.53	-0.02
514.727	-0.01
514.924	0.01
515.12	-0.04
515.317	-0.04
515.514	-0.02
515.71	-0.01
515.907	-0.02
516.103	-0
516.3	-0
516.497	0.02
516.693	0.03
516.89	0.01
517.086	-0.04
517.283	0
517.479	-0.02
517.676	-0.02
517.872	-0.03
518.068	-0.02
518.265	-0.01
518.461	-0.02
518.658	-0.03
518.854	-0.01
519.05	-0.01
519.247	-0.01
519.443	-0.01
519.639	0
519.836	-0.01
520.032	0.01
520.228	-0.01
520.424	0.03
520.621	0.01
520.817	0.01
521.013	-0
521.209	0.01
521.405	0.04
521.601	-0
521.798	-0.03
521.994	0.04
522.19	-0.03
522.386	-0.04
522.582	0.02
522.778	0
522.974	-0.01
523.17	-0
523.366	-0.02
523.562	0.03
523.758	-0.01
523.954	-0.04
524.15	-0.01
524.346	-0.01
524.542	-0.02
524.738	-0.02
524.934	-0.01
525.129	-0.02
525.325	0.01
525.521	0.01
525.717	0.02
525.913	-0.01
526.109	-0.01
526.304	-0.02
526.5	0
526.696	0.02
526.892	-0.01
527.087	0.01
527.283	-0.02
527.479	0.01
527.674	-0.02
527.87	-0.01
528.066	-0.01
528.261	-0.01
528.457	0.01
528.653	-0.02
528.848	-0.01
529.044	-0.01
529.239	0
529.435	0.01
529.63	0
529.826	0.04
530.021	-0.01
530.217	-0.02
530.412	-0.01
530.608	-0.03
530.803	-0.02
530.999	-0
531.194	-0.05
531.389	-0
531.585	-0.05
531.78	0
531.975	-0.03
532.171	0.02
532.366	-0.04
532.561	-0.01
532.757	-0.03
532.952	-0.02
533.147	-0.01
533.342	-0.02
533.538	-0.01
533.733	0.01
533.928	-0
534.123	-0
534.318	-0.02
534.513	0
534.709	-0.01
534.904	-0.01
535.099	-0.04
535.294	0.01
535.489	-0
535.684	-0.04
535.879	-0.01
536.074	0.01
536.269	-0.03
536.464	0.02
536.659	-0.03
536.854	-0.03
537.049	0
537.244	-0.02
537.439	-0.04
537.634	0.02
537.828	0
538.023	0
538.218	-0.05
538.413	-0
538.608	-0.03
538.803	0.01
538.997	-0.04
539.192	0.02
539.387	-0
539.582	-0.01
539.776	-0.01
539.971	-0.02
540.166	-0.01
540.36	-0.03
540.555	-0.02
540.75	-0.01
540.944	-0.01
541.139	-0.04
541.334	-0.01
541.528	0
541.723	0.01
541.917	-0
542.112	-0.05
542.306	-0.03
542.501	-0.03
542.695	-0
542.89	-0.02
543.084	0.01
543.279	-0.03
543.473	-0.02
543.668	-0.01
543.862	-0.02
544.056	-0.01
544.251	-0.01
544.445	0.01
544.64	-0.01
544.834	-0.03
545.028	-0.01
545.222	-0
545.417	0.01
545.611	-0
545.805	-0.01
546	-0.01
546.194	-0
546.388	-0.01
546.582	0
546.776	-0.01
546.97	-0.02
547.165	0.01
547.359	0.02
547.553	-0.02
547.747	-0.02
547.941	-0.01
548.135	-0.01
548.329	0.02
548.523	-0.01
548.717	-0.02
548.911	-0.05
549.105	0.01
549.299	-0
549.493	0
549.687	0.01
549.881	0.01
550.075	-0
550.269	-0.04
550.463	0.01
550.657	-0.02
550.85	-0.01
551.044	-0.03
551.238	-0.01
551.432	-0.02
551.626	-0.02
551.82	-0.02
552.013	-0.03
552.207	0
552.401	0.01
552.594	-0.02
552.788	-0.03
552.982	-0.01
553.176	-0.01
553.369	0
553.563	-0
553.756	-0.05
553.95	-0.02
554.144	-0.01
554.337	0.02
554.531	-0.03
554.724	0
554.918	-0.02
555.111	0.01
555.305	0.01
555.498	0.04
555.692	0.02
555.885	-0.03
556.079	-0.02
556.272	-0.02
556.466	0.02
556.659	-0.03
556.852	-0.02
557.046	-0
557.239	0
557.432	-0.03
557.626	-0.02
557.819	-0.02
558.012	0
558.206	-0
558.399	-0
558.592	0
558.785	-0.03
558.979	0.01
559.172	0
559.365	0
559.558	0.02
559.751	-0.01
559.944	0.01
560.138	0.01
560.331	-0
560.524	-0.03
560.717	-0.01
560.91	0
561.103	-0
561.296	0.02
561.489	-0
561.682	0.01
561.875	-0.01
562.068	0.02
562.261	-0.02
562.454	0
562.647	0.01
562.84	0.02
563.032	0.01
563.225	0.01
563.418	-0.02
563.611	-0.04
563.804	0.01
563.997	-0.02
564.19	-0.05
564.382	0.01
564.575	-0
564.768	-0.01
564.961	-0.03
565.153	-0.01
565.346	0.01
565.539	0.01
565.731	0
565.924	0.04
566.117	-0
566.309	0.01
566.502	-0.04
566.695	-0.01
566.887	0
567.08	-0.02
567.272	-0.02
567.465	-0.02
567.657	-0.01
567.85	-0.02
568.042	0
568.235	0.03
568.427	-0.01
568.62	-0
568.812	0.01
569.005	-0.02
569.197	-0.04
569.389	0.02
569.582	-0
569.774	0
569.966	-0.03
570.159	-0.02
570.351	-0.01
570.543	-0.02
570.736	0.01
570.928	-0.02
571.12	0.02
571.312	-0.02
571.505	-0.03
571.697	0
571.889	-0.04
572.081	-0.02
572.273	-0.03
572.465	0.02
572.658	-0
572.85	0.01
573.042	-0.02
573.234	-0.01
573.426	0.01
573.618	-0.04
573.81	0.01
574.002	0.02
574.194	0.03
574.386	-0.06
574.578	-0.09
574.77	-0
574.962	-0.02
575.154	-0.04
575.346	-0.05
575.538	-0.01
575.729	-0.03
575.921	-0.01
576.113	-0.02
576.305	0.01
576.497	-0.03
576.689	-0.03
576.88	-0.02
577.072	-0.01
577.264	-0
577.456	-0.03
577.647	-0.08
577.839	0
578.031	0.04
578.223	-0.04
578.414	-0.04
578.606	-0.01
578.798	-0
578.989	-0.04
579.181	-0.01
579.372	-0.02
579.564	-0.03
579.755	0.01
579.947	-0.02
580.139	0.02
580.33	-0.06
580.522	-0.04
580.713	-0.06
580.905	-0.03
581.096	0.01
581.287	-0.01
581.479	-0.04
581.67	-0
581.862	-0.02
582.053	-0.03
582.244	-0.05
582.436	-0.02
582.627	-0.02
582.818	-0.02
583.01	-0.06
583.201	0.03
583.392	0.02
583.583	-0.02
583.775	-0.04
583.966	-0.02
584.157	-0.03
584.348	-0.03
584.54	-0.06
584.731	-0
584.922	-0.01
585.113	-0.06
585.304	0.02
585.495	0.02
585.686	-0.01
585.877	0
586.068	0.01
586.259	0.01
586.45	-0.02
586.641	-0.03
586.832	-0.07
587.023	0.01
587.214	-0.02
587.405	0.01
587.596	-0.04
587.787	0.02
587.978	0
588.169	-0.05
588.36	-0.04
588.551	0.01
588.742	-0.04
588.932	-0.01
589.123	-0
589.314	-0
589.505	0.01
589.696	0.01
589.886	-0.03
590.077	-0.05
590.268	0
590.458	-0.06
590.649	-0.04
590.84	0.03
591.03	-0.05
591.221	-0.04
591.412	-0.06
591.602	0.02
591.793	0
591.984	-0.04
592.174	-0.04
592.365	0.05
592.555	-0.02
592.746	0.01
592.936	0.01
593.127	0.03
593.317	0.02
593.508	-0.02
593.698	-0.04
593.889	-0
594.079	0
594.269	-0.03
594.46	-0.01
594.65	-0.01
594.84	-0.04
595.031	-0.03
595.221	-0.04
595.411	-0.08
595.602	0.02
595.792	0.01
595.982	-0.04
596.172	0.05
596.363	-0.01
596.553	-0.01
596.743	-0.01
596.933	-0.01
597.123	0.04
597.314	-0.04
597.504	-0.02
597.694	0.02
597.884	0
598.074	-0.03
598.264	-0.04
598.454	0
598.644	-0.02
598.834	-0.02
599.024	-0.08
599.214	-0.03
599.404	-0
599.594	-0.02
599.784	-0.03
599.974	0.02
600.164	0.01
600.354	-0.05
600.544	-0.07
600.734	-0.01
600.924	0.01
601.114	-0.01
601.303	0.01
601.493	-0.01
601.683	-0.06
601.873	0.01
602.063	-0.05
602.252	0.01
602.442	-0.07
602.632	-0.02
602.821	-0.04
603.011	0.02
603.201	-0.03
603.39	-0.04
603.58	-0.04
603.77	-0.01
603.959	0.01
604.149	-0.01
604.339	-0.04
604.528	0.01
604.718	0.02
604.907	-0.02
605.097	-0.03
605.286	-0.06
605.476	0.03
605.665	-0
605.855	-0.01
606.044	0.02
606.234	-0.01
606.423	-0.02
606.612	-0.07
606.802	-0.03
606.991	-0.02
607.181	-0.02
607.37	-0.05
607.559	-0.02
607.749	-0.05
607.938	-0.01
608.127	-0.04
608.316	-0.01
608.506	0.01
608.695	-0.01
608.884	-0.03
609.073	-0.02
609.263	0
609.452	0.02
609.641	0.01
609.83	-0.05
610.019	0.01
610.208	-0.04
610.397	-0.03
610.586	0
610.775	-0.03
610.965	-0.04
611.154	-0.05
611.343	-0.03
611.532	-0.01
611.721	-0.05
611.91	-0.04
612.099	0.02
612.287	-0.01
612.476	-0.04
612.665	-0.01
612.854	-0.04
613.043	-0.01
613.232	-0.01
613.421	-0.06
613.61	0.02
613.798	-0.03
613.987	-0.01
614.176	-0.01
614.365	0.04
614.554	0.01
614.742	0.01
614.931	-0.05
615.12	0.02
615.309	-0.01
615.497	-0.02
615.686	-0.04
615.875	-0.03
616.063	0.01
616.252	-0.02
616.44	-0.05
616.629	-0
616.818	0.01
617.006	-0.01
617.195	-0.02
617.383	-0.02
617.572	-0.02
617.76	-0.03
617.949	-0
618.137	0
618.326	0.04
618.514	-0.06
618.703	-0.03
618.891	0.05
619.079	-0.05
619.268	0.01
619.456	-0.04
619.644	0.02
619.833	0
620.021	-0.04
620.209	-0.05
620.398	-0.02
620.586	-0.02
620.774	-0
620.962	-0.02
621.151	0.04
621.339	0.01
621.527	-0.03
621.715	-0.08
621.903	-0.04
622.092	-0.07
622.28	0.01
622.468	-0
622.656	-0.01
622.844	-0.01
623.032	-0.03
623.22	-0.09
623.408	0.01
623.596	-0
623.784	0
623.972	-0.05
624.16	-0.03
624.348	0.07
624.536	-0.03
624.724	-0.04
624.912	0.04
625.1	-0
625.288	-0.05
625.476	-0.06
625.664	0.01
625.851	-0.06
626.039	-0.02
626.227	0
626.415	-0.03
626.603	-0.07
626.79	-0.02
626.978	-0.06
627.166	0.03
627.354	-0.01
627.541	-0.06
627.729	-0.07
627.917	0.01
628.104	-0.01
628.292	0
628.48	-0.04
628.667	-0.02
628.855	-0.01
629.042	-0
629.23	-0.06
629.418	0
629.605	-0.04
629.793	-0.02
629.98	-0.04
630.168	-0.02
630.355	-0.01
630.543	-0.02
630.73	-0.06
630.917	0.01
631.105	0.05
631.292	-0.02
631.48	-0.04
631.667	0.02
631.854	-0.02
632.042	-0.05
632.229	-0.08
632.416	-0.01
632.604	-0.05
632.791	-0.05
632.978	0.01
633.165	0.02
633.353	0.03
633.54	0.01
633.727	-0.09
633.914	-0.04
634.101	-0.07
634.289	0.03
634.476	-0.04
634.663	-0.04
634.85	-0.02
635.037	-0.05
635.224	-0.04
635.411	0.02
635.598	0.03
635.785	-0.01
635.972	-0.01
636.159	0.01
636.346	-0.04
636.533	-0.01
636.72	-0.03
636.907	-0.04
637.094	0
637.281	-0.03
637.468	-0.01
637.655	-0.01
637.842	-0.01
638.029	-0.02
638.215	0.02
638.402	-0.01
638.589	-0.04
638.776	-0.04
638.963	-0.04
639.149	0.02
639.336	0.04
639.523	-0.05
639.709	-0.03
639.896	-0.03
640.083	0.03
640.27	0
640.456	-0.02
640.643	-0.02
640.829	-0.08
641.016	-0.01
641.203	-0.07
641.389	0.02
641.576	-0
641.762	-0.01
641.949	-0.07
642.135	-0
642.322	-0.03
642.508	-0.04
642.695	-0.02
642.881	-0.02
643.068	-0.03
643.254	-0
643.441	0.03
643.627	-0.03
643.813	-0.03
644	0.02
644.186	-0.02
644.372	-0.01
644.559	0.04
644.745	-0.02
644.931	-0.05
645.118	-0.06
645.304	0
645.49	-0.03
645.676	-0.05
645.862	-0.02
646.049	0.03
646.235	-0.01
646.421	0.05
646.607	0.04
646.793	-0.02
646.979	-0.09
647.165	0.02
647.352	0.01
647.538	0
647.724	-0
647.91	0.01
648.096	0.01
648.282	0.05
648.468	-0.03
648.654	0.02
648.84	-0.02
649.026	-0.02
649.212	-0.02
649.397	-0.04
649.583	-0.08
649.769	0.01
649.955	-0.01
650.141	-0.02
650.327	0.02
650.513	-0.05
650.698	0.03
650.884	-0.08
651.07	-0.01
651.256	0.01
651.442	-0.02
651.627	-0.03
651.813	0.01
651.999	-0.02
652.184	0.01
652.37	-0.01
652.556	-0.05
652.741	0.04
652.927	-0.09
653.113	-0.03
653.298	-0.03
653.484	-0
653.669	-0.05
653.855	0.01
654.04	0.02
654.226	-0.01
654.412	-0.04
654.597	-0.06
654.782	-0.01
654.968	0
655.153	-0
655.339	-0.02
655.524	-0.03
655.71	0.02
655.895	-0.02
656.08	-0.04
656.266	0.03
656.451	-0.02
656.636	-0.05
656.822	0
657.007	-0.06
657.192	-0.03
657.378	-0.05
657.563	-0.02
657.748	0.01
657.933	-0.01
658.118	-0.05
658.304	-0.03
658.489	-0
658.674	0.01
658.859	-0.05
659.044	0.02
659.229	-0.02
659.414	-0.01
659.599	-0.01
659.785	-0.09
659.97	-0.02
660.155	0.02
660.34	-0.01
660.525	-0.01
660.71	-0.06
660.895	0.03
661.08	-0.03
661.264	-0.05
661.449	0.03
661.634	0.05
661.819	0.02
662.004	0.02
662.189	-0.09
662.374	-0.02
662.559	-0.08
662.743	-0.08
662.928	-0.03
663.113	-0.07
663.298	-0.09
663.483	-0.01
663.667	-0.02
663.852	-0.09
664.037	0.04
664.221	-0.07
664.406	0
664.591	-0.02
664.775	-0.01
664.96	0.01
665.145	-0.01
665.329	0.02
665.514	-0.02
665.698	-0.03
665.883	-0.1
666.068	0.04
666.252	-0
666.437	-0.06
666.621	0.01
666.806	0.01
666.99	-0
667.174	-0.07
667.359	0.06
667.543	-0.02
667.728	-0.01
667.912	-0.05
668.096	0
668.281	-0.03
668.465	-0.05
668.649	-0
668.834	-0.02
669.018	-0.04
669.202	-0.03
669.387	-0.09
669.571	0.03
669.755	-0.07
669.939	-0.02
670.124	-0.02
670.308	0.03
670.492	0.03
670.676	0.01
670.86	-0.06
671.044	-0.04
671.228	0.05
671.413	-0.04
671.597	-0.03
671.781	-0.03
671.965	-0.01
672.149	-0.02
672.333	0.01
672.517	-0.02
672.701	0.02
672.885	-0.02
673.069	-0.09
673.253	0.06
673.437	-0.02
673.621	-0.05
673.804	0
673.988	-0
674.172	-0.02
674.356	-0.07
674.54	-0.05
674.724	0.06
674.908	-0.05
675.091	0.01
675.275	-0.03
675.459	0.04
675.643	-0.06
675.826	-0.04
676.01	0.01
676.194	-0.05
676.377	0.03
676.561	0.03
676.745	0
676.928	0
677.112	0.04
677.296	-0.06
677.479	-0.05
677.663	-0.05
677.846	0.02
678.03	-0
678.213	0
678.397	0.01
678.58	-0.03
678.764	-0.06
678.947	-0.04
679.131	-0.09
679.314	0.02
679.498	-0.06
679.681	0.03
679.865	0.04
680.048	-0.04
680.231	-0.04
680.415	-0.05
680.598	-0.09
680.781	-0.05
680.965	-0.03
681.148	0.02
681.331	-0.03
681.514	0.01
681.698	-0.06
681.881	0
682.064	-0
682.247	-0.01
682.43	-0.08
682.614	-0.03
682.797	0.02
682.98	0.01
683.163	-0.07
683.346	-0.02
683.529	-0.06
683.712	-0.06
683.895	0.03
684.078	-0.05
684.261	-0.06
684.444	-0.02
684.627	0.01
684.81	-0.08
684.993	0
685.176	0
685.359	-0.01
685.542	-0.05
685.725	0.03
685.908	-0.04
686.091	-0.01
686.274	0.03
686.457	0.03
686.639	-0.05
686.822	0.05
687.005	-0.01
687.188	0.05
687.371	0.03
687.553	0.01
687.736	0.02
687.919	0.05
688.102	0.06
688.284	-0.01
688.467	0
688.65	-0.04
688.832	-0.05
689.015	-0.06
689.197	-0.11
689.38	0.05
689.563	0.06
689.745	-0.08
689.928	-0.04
690.11	-0.06
690.293	-0.02
690.475	-0.05
690.658	-0.01
690.84	-0.04
691.023	0.01
691.205	-0.05
691.388	-0.06
691.57	0.07
691.752	0.02
691.935	-0.09
692.117	-0.04
692.3	0.01
692.482	-0.04
692.664	-0
692.847	0.04
693.029	0.02
693.211	0.02
693.393	-0.03
693.576	-0.08
693.758	-0.03
693.94	-0.07
694.122	-0.06
694.304	-0.1
694.487	-0.02
694.669	0.04
694.851	-0.11
695.033	-0.03
695.215	-0.01
695.397	-0.02
695.579	-0
695.761	-0.04
695.943	-0.13
696.125	0.07
696.308	0.02
696.49	-0.13
696.671	0.1
696.853	-0.03
697.035	0.14
697.217	0
697.399	-0.01
697.581	-0.09
697.763	0.01
697.945	-0.09
698.127	-0.01
698.309	0.06
698.491	0.02
698.672	0.01
698.854	0.03
699.036	0.1
699.218	-0.03
699.399	0.07
699.581	0.04
699.763	-0
699.945	-0.08
700.126	-0.05
700.308	0
700.49	-0.01
700.671	-0.1
700.853	-0.09
701.035	-0.03
701.216	-0.03
701.398	-0.04
701.579	-0.01
701.761	0.01
701.943	-0.02
702.124	-0.07
702.306	-0.04
702.487	0.11
702.669	-0.01
702.85	-0.04
703.031	-0.13
703.213	0.04
703.394	0
703.576	-0.11
703.757	0.02
703.938	0.09
704.12	0.14
704.301	0.02
704.483	-0.08
704.664	-0.02
704.845	0.04
705.026	-0.03
705.208	-0.05
705.389	-0.03
705.57	-0
705.751	0
705.933	-0.01
706.114	0.06
706.295	-0.07
706.476	-0.09
706.657	0.12
706.838	-0
707.02	-0.01
707.201	-0.07
707.382	-0.06
707.563	0.05
707.744	-0.03
707.925	-0.08
708.106	-0.11
708.287	0.04
708.468	0.05
708.649	-0.08
708.83	0.08
709.011	-0.04
709.192	-0.02
709.373	-0.09
709.554	-0.07
709.734	0.07
709.915	0.02
710.096	-0
710.277	-0.15
710.458	-0.06
710.639	0.02
710.819	-0.1
711	-0.03
711.181	0.01
711.362	-0.03
711.542	-0
711.723	-0.01
711.904	0.06
712.085	0.01
712.265	0.02
712.446	-0.11
712.627	0.03
712.807	0.08
712.988	0
713.168	-0.06
713.349	-0.01
713.53	-0.12
713.71	-0.11
713.891	-0.11
714.071	-0.03
714.252	-0.08
714.432	-0.06
714.613	-0.09
714.793	-0.04
714.974	0.07
715.154	0.04
715.334	0.09
715.515	0.11
715.695	-0.07
715.876	-0.04
716.056	-0.02
716.236	-0.03
716.417	-0.01
716.597	-0.08
716.777	0.18
716.957	-0
717.138	-0.05
717.318	-0
717.498	-0.1
717.678	0
717.859	0
718.039	-0.12
718.219	-0.04
718.399	0.09
718.579	-0.06
718.759	-0.12
718.939	-0
719.12	0.04
719.3	-0.03
719.48	-0.22
719.66	-0.11
719.84	0.01
720.02	0.04
720.2	-0.08
720.38	-0.02
720.56	0.03
720.74	-0.06
720.92	-0.01
721.1	0.06
721.279	0.04
721.459	-0
721.639	-0.16
721.819	0.03
721.999	-0.05
722.179	0.01
722.359	-0.07
722.538	-0.02
722.718	-0
722.898	-0.04
723.078	0.02
723.257	-0.05
723.437	-0.02
723.617	-0.06
723.797	-0.09
723.976	0.01
724.156	0.03
724.336	0.11
724.515	0.06
724.695	-0.13
724.874	-0.05
725.054	0.06
725.234	-0.05
725.413	0.07
725.593	-0.04
725.772	-0.04
725.952	-0.06
726.131	-0.05
726.311	-0.06
726.49	0
726.67	-0.09
726.849	-0.07
727.028	-0.04
727.208	-0.02
727.387	0.01
727.567	-0.18
727.746	-0.11
727.925	-0.11
728.105	-0.1
728.284	-0.01
728.463	-0.08
728.643	0.03
728.822	-0.09
729.001	-0.07
729.18	-0
729.359	0
729.539	-0.07
729.718	-0.04
729.897	-0.11
730.076	-0.08
730.255	-0.09
730.434	-0.03
730.614	-0.11
730.793	0.02
730.972	-0.11
731.151	-0.02
731.33	0.08
731.509	0.02
731.688	-0.06
731.867	0.02
732.046	-0.15
732.225	0.18
732.404	-0.11
732.583	-0.16
732.762	0.05
732.941	0.01
733.12	0
733.298	-0.11
733.477	-0.04
733.656	-0.01
733.835	-0.08
734.014	0.08
734.193	-0.03
734.371	-0.02
734.55	0.03
734.729	-0.13
734.908	0.02
735.086	0.03
735.265	0.09
735.444	-0.17
735.623	-0.12
735.801	-0.11
735.98	-0.02
736.159	-0.04
736.337	0.11
736.516	0.04
736.694	-0.01
736.873	-0.01
737.052	0.05
737.23	0.09
737.409	-0.07
737.587	0.13
737.766	-0.1
737.944	-0.08
738.123	-0.03
738.301	-0.01
738.479	-0.12
738.658	-0.01
738.836	-0.26
739.015	0.06
739.193	0.06
739.371	-0.11
739.55	-0.07
739.728	-0.13
739.906	0.01
740.085	0.11
740.263	-0.03
740.441	-0.24
740.62	0.17
740.798	-0.02
740.976	-0.14
741.154	-0.14
741.332	0.17
741.511	-0.11
741.689	0.04
741.867	-0.01
742.045	-0.01
742.223	-0.09
742.401	-0.13
742.579	-0.12
742.757	-0.02
742.935	-0.15
743.114	-0.13
743.292	-0.09
743.47	-0.05
743.648	-0.04
743.826	-0.21
744.004	0.07
744.181	0.01
744.359	-0.1
744.537	-0
744.715	-0.01
744.893	-0.03
745.071	-0
745.249	-0.04
745.427	-0
745.605	0.03
745.782	-0.01
745.96	-0.01
746.138	0.06
746.316	0.08
746.493	-0.09
746.671	-0.03
746.849	0.01
747.027	0.1
747.204	-0.13
747.382	0
747.56	-0.09
747.737	0
747.915	-0.23
748.093	0.06
748.27	-0.12
748.448	-0.09
748.625	-0.13
748.803	-0
748.98	-0.01
749.158	-0.04
749.335	0.09
749.513	-0.05
749.69	-0.14
749.868	-0
750.045	0.02
750.223	-0.01
750.4	-0.27
750.578	0.05
750.755	-0.11
750.932	-0.14
751.11	-0.01
751.287	-0.13
751.464	0.1
751.642	-0.04
751.819	-0.03
751.996	-0
752.173	-0.12
752.351	-0.18
752.528	-0.05
752.705	-0.09
752.882	-0.08
753.06	-0.01
753.237	0.08
753.414	0.08
753.591	-0.03
753.768	0.01
753.945	-0.04
754.122	-0.21
754.299	0.05
754.476	-0.03
754.654	0.06
754.831	0.08
755.008	0.02
755.185	-0.08
755.362	-0.16
755.539	-0.03
755.716	-0.19
755.892	-0.14
756.069	-0.04
756.246	-0.03
756.423	0.03
756.6	0.13
756.777	0.05
756.954	0.05
757.131	-0.08
757.307	-0.06
757.484	-0.18
757.661	-0.03
757.838	0.01
758.015	-0.19
758.191	0.06
758.368	0.03
758.545	0.17
758.721	0.07
758.898	-0.08
759.075	0.07
759.251	0.02
759.428	0.02
759.605	-0.17
759.781	-0.02
759.958	-0.01
760.134	0.03
760.311	0.01
760.488	0.07
760.664	0.18
760.841	0
761.017	-0.12
761.194	-0.09
761.37	-0.03
761.547	0.04
761.723	-0.03
761.899	0.07
762.076	-0.08
762.252	-0.19
762.429	-0.09
762.605	0.09
762.781	0.03
762.958	0.09
763.134	-0.07
763.31	-0.06
763.486	0.01
763.663	-0.16
763.839	0.06
764.015	-0.2
764.191	-0.09
764.368	-0.06
764.544	-0.1
764.72	-0.01
764.896	0.1
765.072	-0.03
765.248	-0.04
765.425	-0.01
765.601	0.02
765.777	-0.03
765.953	-0.25
766.129	-0.03
766.305	-0.05
766.481	0.08
766.657	-0.05
766.833	0.17
767.009	-0.26
767.185	-0.04
767.361	0.01
767.537	-0.18
767.713	0.1
767.889	-0.13
768.065	0.01
768.24	-0.04
768.416	0.02
768.592	-0.11
768.768	0.11
768.944	-0.04
769.12	-0.14
769.295	-0.09
769.471	0
769.647	-0.16
769.823	0.12
769.998	-0.09
770.174	-0.22
770.35	0.31
770.525	0.25
770.701	-0.03
770.877	-0.03
771.052	-0.06
771.228	-0.01
771.403	0.06
771.579	0.04
771.755	0.21
771.93	-0.22
772.106	-0.22
772.281	-0.15
772.457	-0.04
772.632	0.08
772.808	-0.19
772.983	-0.1
773.159	-0.33
773.334	0.24
773.509	-0.09
773.685	-0.17
773.86	0.1
774.036	0.08
774.211	0.03
774.386	-0.23
774.562	-0.1
774.737	-0.14
774.912	0.03
775.087	0.09
775.263	0.01
775.438	-0.03
775.613	-0.12
775.788	-0.05
775.964	0.22
776.139	0.21
776.314	-0.11
776.489	-0.13
776.664	-0.13
776.839	-0.09
777.014	0.13
777.19	0.1
777.365	0.17
777.54	0.18
777.715	-0.09
777.89	0.08
778.065	-0.25
778.24	-0.12
778.415	0.08
778.59	-0.22
778.765	-0.02
778.94	0.09
779.115	-0.13
779.289	0.04
779.464	0.1
779.639	-0.01
779.814	-0.31
779.989	-0.28
780.164	0.11
780.339	-0.01
780.513	-0.06
780.688	-0.03
780.863	-0.09
781.038	0.04
781.212	-0.23
781.387	0.02
781.562	0.21
781.737	-0.03
781.911	0.05
782.086	-0.2
782.261	-0
782.435	0.16
782.61	-0.1
782.784	-0.13
782.959	0.17
783.134	-0.06
783.308	-0.04
783.483	-0.04
783.657	0.38
783.832	0.14
784.006	-0.21
784.181	-0.07
784.355	0.22
784.53	-0.34
784.704	-0.28
784.878	0.15
785.053	0.08
785.227	0.28
785.402	0.16
785.576	-0.21
785.75	-0.06
785.925	-0.05
786.099	-0.06
786.273	-0
786.448	0.03
786.622	0.21
786.796	-0.23
786.97	-0.2
787.145	0.36
787.319	-0.21
787.493	-0.19
787.667	-0.31
787.841	-0.27
788.015	-0
788.19	-0.13
788.364	0.03
788.538	0.18
788.712	0.31
788.886	-0.03
789.06	0.09
789.234	0.02
789.408	-0.26
789.582	-0.11
789.756	-0.04
789.93	-0.18
790.104	-0.18
790.278	-0.13
790.452	-0.17
790.626	0.08
790.8	-0.09
790.973	0.01
791.147	0.3
791.321	0.22
791.495	-0.04
791.669	-0.25
791.843	-0.13
792.016	-0.13
792.19	0.35
792.364	-0.08
792.538	0.56
792.711	0.27
792.885	-0.14
793.059	-0.24
793.233	-0.4
793.406	0.19
793.58	0.06
793.754	0.17
793.927	-0.05
794.101	0.17
794.274	-0.13
794.448	0.06
794.622	-0.25
794.795	0.35
794.969	-0.09
795.142	0.3
795.316	-0.11
795.489	-0.05
795.663	0.39
795.836	-0.09
796.009	-0.13
796.183	0.4
796.356	0.06
796.53	0.02
796.703	-0.02
796.876	0.48
797.05	-0.26
797.223	-0.27
797.396	0.08
797.57	-0.11
797.743	0.19
797.916	0.07
798.09	-0.12
798.263	0.08
798.436	-0.18
798.609	-0.2
798.782	-0.19
798.956	0.04
799.129	-0.04
799.302	-0.02
799.475	-0.23
799.648	-0.12
799.821	-0.15
799.994	0.08
800.167	-0.52
800.34	-0.23
800.514	0.1
800.687	-0.24
800.86	-0.32
801.033	0.03
801.206	-0.06
801.379	-0.27
801.551	0.02
801.724	0.01
801.897	0.27
802.07	-0.1
802.243	-0.55
802.416	-0.24
802.589	-0.2
802.762	0.21
802.935	0.15
803.107	0.16
803.28	0.26
803.453	0.01
803.626	-0.04
803.798	-0.13
803.971	-0.33
804.144	0.05
804.317	0.42
804.489	-0.08
804.662	0.04
804.835	-0.01
805.007	-0.27
805.18	0.19
805.353	0.12
805.525	-0.5
805.698	-0.18
805.87	0.1
806.043	0.23
806.215	-0.23
806.388	-0.44
806.56	0.06
806.733	0.48
806.905	-0.16
807.078	-0.2
807.25	-0.49
807.423	0.14
807.595	-0.2
807.768	0
807.94	0.29
808.112	0.23
808.285	-0.08
808.457	-0.38
808.629	0.3
808.802	0.16
808.974	0.11
809.146	0.14
809.318	-0.71
809.491	-0
809.663	-0.13
809.835	-0.29
810.007	0.08
810.18	-0.31
810.352	-0.26
810.524	-0.16
810.696	0.32
810.868	0.07
811.04	-0.05
811.212	-0.25
811.384	0.22
811.556	-0.02
811.728	-0.08
811.901	0.38
812.073	-0.38
812.245	0.13
812.417	0.17
812.589	-0.77
812.76	0.11
812.932	-0.1
813.104	0.39
813.276	-0.1
813.448	0.4
813.62	0.05
813.792	0.18
813.964	-0.28
814.136	0.09
814.307	-0.21
814.479	-0.41
814.651	-0.58
814.823	0.71
814.995	-0.15
815.166	-0.2
815.338	-0.38
815.51	-0.89
815.681	0.91
815.853	0.13
816.025	0.05
816.196	-0.03
816.368	0.18
816.54	-0.48
816.711	-0.25
816.883	0.46
817.054	0.74
817.226	-0.95
817.398	-0.01
817.569	-0.44
817.741	0.01
817.912	-0.02
818.084	0.04
818.255	0.18
818.426	-0.39
818.598	-0.55
818.769	-0.41
818.941	0.08
819.112	0.6
819.283	0.19
819.455	-0.3
819.626	-0.23
819.798	0.53
819.969	-0.4
820.14	-0.07
820.311	-0.11
820.483	-0.19
820.654	-0.14
820.825	-0.23
820.996	-0.72
821.168	-0.67
821.339	-0.28
821.51	-0.42
821.681	0.11
821.852	-0.04
822.023	-0.81
822.195	-1.13
822.366	0.11
822.537	0.04
822.708	0.21
822.879	-0.7
823.05	0.62
823.221	-0.72
823.392	-0.11
823.563	-0.23
823.734	0.26
823.905	0.1
824.076	-0.46
824.247	-0.6
824.418	-0.5
824.589	0.25
824.759	-0.03
824.93	0.05
825.101	-0.7
825.272	0.76
825.443	-0.03
825.614	0.16
825.784	-0.65
825.955	1.06
826.126	-0.02
826.297	0.35
826.467	0.31
826.638	0.54
826.809	-0.71
826.98	-0.17
827.15	0.58
827.321	0.12
827.492	0.74
827.662	0.11
827.833	0.62
828.003	-0.06
828.174	-0.78
828.345	-0.28
828.515	0.65
828.686	-0.15
828.856	-0.21
829.027	-0.18
829.197	0.01
829.368	0.74
829.538	-0.33
829.709	-0.49
829.879	-0.02
830.049	-0.47
830.22	-0.44
830.39	-0.05
830.56	0.18
830.731	-0.73
830.901	-0.53
831.072	-0.49
831.242	0.13
831.412	0.05
831.582	0.41
831.753	-0.52
831.923	0.34
832.093	-0.04
832.263	0.01
832.434	-0.61
832.604	-0.29
832.774	0.16
832.944	-0.01
833.114	-0.91
833.284	0.07
833.454	-0.52
833.624	-0.45
833.795	-0.38
833.965	0.35
834.135	0.7
834.305	-1.16
834.475	-0.86
834.645	-0.47
834.815	-0.19
834.985	-0.52
835.155	-0.34
835.325	-0.06
835.494	-0.03
835.664	-0.66
835.834	-1.26
836.004	-0.2
836.174	0.03
836.344	0.27
836.514	-1.48
836.684	-0.33
836.853	0.12
837.023	0.84
837.193	-1.12
837.363	0.32
837.532	0.12
837.702	-0.32
837.872	-0.9
838.041	0.37
838.211	1.46
838.381	-0.92
838.55	0.28
838.72	1.31
838.89	0.76
839.059	0.09
839.229	-0.35
839.398	0.99
839.568	-0.38
839.738	-0.13
839.907	0.7
840.077	0.11
840.246	-0.94
840.416	-0.58
840.585	-0.52
840.755	0.86
840.924	0.72
841.093	-1
841.263	0.08
841.432	0.2
841.602	-0.99
841.771	-0.81
841.94	0.63
842.11	1.99
842.279	1.39
842.448	-0.84
842.617	-1.15
842.787	1.15
842.956	-1.35
843.125	-0.19
843.294	-0.37
843.464	0.97
843.633	-0.1
843.802	0.09
843.971	-0.67
844.14	0.67
844.309	-0.41
844.479	-0.77
844.648	-0.74
844.817	-0.13
844.986	-0.49
845.155	-0.46
845.324	-0.38
845.493	-0.22
845.662	-0.18
845.831	0.3
846	-0.03
846.169	-0.54
846.338	1.65
846.507	0.03
846.676	0.26
846.844	-1.27
847.013	0.68
847.182	-0.63
847.351	-1.54
847.52	-0.58
847.689	-0.38
847.858	0.28
848.026	-0.98
848.195	-1.1
848.364	-0.3
848.533	-0.63
848.701	-0.9
848.87	-0.12
849.039	0.95
849.207	0.3
849.376	0.09
849.545	1.61
849.713	-0.4
849.882	-0.95
850.051	-0.18
850.219	-1.09
850.388	0.3
850.556	-1.05
850.725	-0.95
850.893	-0.9
851.062	-0.24
851.23	0.55
851.399	-1.34
851.567	0.09
851.736	-0.45
851.904	-0.87
852.073	0.06
852.241	-0.12
852.41	-0.24
852.578	-0.86
852.746	-0.46
852.915	0.24
853.083	0.54
853.251	-1.23
853.42	-0.79
853.588	0.3
853.756	1.01
853.924	-0.05
854.093	-0.01
854.261	-0.13
854.429	-1.79
854.597	0.37
854.765	-1.42
854.934	0.31
855.102	1.03
855.27	-0.18
855.438	0.7
855.606	0.76
855.774	2.08
855.942	-0.58
856.11	-1.49
856.278	-0.22
856.446	0.74
856.614	-0.52
856.782	-1.37
856.95	-0.66
857.118	0.5
857.286	0.02
857.454	-0.77
857.622	0.18
857.79	-0.11
857.958	-0.48
858.126	-0.13
858.294	-1.74
858.462	-1.02
858.629	-0.72
858.797	-1.42
858.965	0.43
859.133	-0.57
859.301	-0.78
859.468	-0.73
859.636	-1.16
859.804	2.08
859.971	0.51
860.139	-0.95
860.307	0.6
860.474	-0.77
860.642	-0.25
860.81	-0.56
860.977	-0.17
861.145	1.7
861.313	-0.76
861.48	-0.03
861.648	-0.03
861.815	-0.06
861.983	-1.98
862.15	-0.91
862.318	1.04
862.485	0.18
862.653	-0.81
862.82	-1.66
862.988	1.86
863.155	0.94
863.322	-1.93
863.49	-2.11
863.657	-1.51
863.824	2.07
863.992	1.17
864.159	0.51
864.326	1.55
864.494	-1.19
864.661	0.65
864.828	-0.99
864.996	0.73
865.163	2.34
865.33	-1.52
865.497	-3.15
865.664	-0.2
865.832	-2.27
865.999	-0.44
866.166	-1.33
866.333	-0.88
866.5	-1.72
866.667	0.24
866.834	-0.06
867.001	0.94
867.168	-1.7
867.335	-0.58
867.502	-1.66
867.669	0.31
867.836	0.71
868.003	-1.17
868.17	0.43
868.337	2.39
868.504	2.24
868.671	-2.46
868.838	-0.75
869.005	1.3
869.172	1.37
869.339	0.09
869.505	0.22
869.672	-1.01
869.839	0.12
870.006	-1.86
870.173	-2.26
870.339	0.19
870.506	2.7
870.673	-1.83
870.84	-0.32
871.006	0.52
871.173	-0.53
871.34	0.37
871.506	-2.23
871.673	1.12
871.839	-3.2
872.006	-0.79
872.173	-1.09
872.339	0.11
872.506	1.84
872.672	-0.02
872.839	-1.77
873.005	1.51
873.172	4.17
873.338	1.4
873.505	-0.47
873.671	0.27
873.838	0.59
874.004	-2.04
874.171	-1.49
874.337	0.26
874.503	0.24
874.67	-0.21
874.836	-1.5
875.002	-0.47
875.169	0.8
875.335	-0.39
875.501	-1.18
875.668	0.79
875.834	0.55
876	-0.13
876.166	1.63
876.332	1.38
876.499	1.71
876.665	-0.87
876.831	0.56
876.997	1.72
877.163	0.64
877.329	-1.72
877.495	-0.64
877.662	0.91
877.828	0.75
877.994	-0.3
878.16	-1.85
878.326	-0.94
878.492	0.18
878.658	0.09
878.824	-1.38
878.99	0.69
879.156	-2.57
879.322	2.26
879.487	-0.69
879.653	0.26
879.819	-0.23
879.985	-1.45
880.151	0.15
880.317	0.02
880.483	-0.97
880.648	0.99
880.814	-2.11
880.98	1.07
881.146	-1.71
881.312	-1
881.477	-2.5
881.643	-0.43
881.809	1.09
881.974	0.45
882.14	-3.19
882.306	-1.3
882.471	2.24
882.637	-0.06
882.803	1.18
882.968	2.45
883.134	3.36
883.299	-0.11
883.465	-0.88
883.63	0.2
883.796	1.34
883.961	0.02
884.127	0.41
884.292	-5.48
884.458	-2.07
884.623	-2.07
