Data from Apollo_Calib_20240827__AbsoluteIrradiance__214__02-43-01-375.txt Node

Date: Wed Aug 28 02:43:01 BST 2024
User: biology
Spectrometer: FLMT08252
Trigger mode: 0
Integration Time (sec): 5.000000E-1
Scans to average: 5
Electric dark correction enabled: true
Nonlinearity correction enabled: false
Boxcar width: 0
XAxis mode: Wavelengths
Number of Pixels in Spectrum: 3648
>>>>>Begin Spectral Data<<<<<
179.588	-0
179.809	-0
180.03	-0
180.251	-0
180.473	-0
180.694	0
180.915	0
181.136	-0
181.357	0
181.578	-0
181.799	-0
182.02	0
182.241	-0
182.462	-0
182.683	0
182.904	-0
183.125	-0
183.346	0
183.567	0
183.788	-0
184.009	-0
184.23	0
184.451	0
184.672	-0
184.892	-0
185.113	0
185.334	0
185.555	-0
185.776	-0
185.996	0
186.217	0
186.438	0
186.659	-0
186.879	0
187.1	-0
187.321	-0
187.541	-0
187.762	-0
187.983	0
188.203	-0
188.424	-0
188.644	-0
188.865	-0
189.086	-0
189.306	-0
189.527	-0
189.747	0
189.968	-0
190.188	0
190.409	-0
190.629	0
190.849	-0
191.07	-0
191.29	0
191.511	0
191.731	-0
191.951	-0
192.172	-0
192.392	-0
192.612	0
192.833	0
193.053	0
193.273	-0
193.493	-0
193.714	-0
193.934	0
194.154	0
194.374	-0
194.594	-0
194.815	-0
195.035	-0
195.255	-0
195.475	-0
195.695	0
195.915	0
196.135	-0
196.355	0
196.575	0
196.795	-0
197.015	-0
197.235	-0
197.455	-0
197.675	0
197.895	-0
198.115	-0
198.335	-0
198.555	-0
198.775	0
198.995	-0
199.214	0
199.434	0
199.654	-0
199.874	-0
200.094	0.65
200.313	0.21
200.533	-0.5
200.753	-1.02
200.973	0.57
201.192	0.86
201.412	-0.7
201.632	-0.48
201.851	0.66
202.071	-0.86
202.291	-0.78
202.51	-0.76
202.73	0.34
202.95	0.11
203.169	-0.96
203.389	-0.31
203.608	-0.04
203.828	-0.17
204.047	-0.49
204.267	-0.06
204.486	-0.08
204.706	-0.06
204.925	-0.15
205.145	-0.56
205.364	0.47
205.583	0.48
205.803	-0.31
206.022	-0.75
206.242	0.16
206.461	-0.01
206.68	-0.59
206.9	-0.21
207.119	0.64
207.338	0.7
207.557	-0.11
207.777	-0.59
207.996	-0.5
208.215	0.08
208.434	-0.31
208.654	-0.43
208.873	0.09
209.092	0.44
209.311	-0.38
209.53	-0.03
209.749	-0.21
209.968	-0.46
210.187	-0.24
210.407	-0.73
210.626	-0.21
210.845	0.1
211.064	-0.2
211.283	-0.4
211.502	0.24
211.721	-0.1
211.94	-0.27
212.159	0.15
212.377	0.16
212.596	0.37
212.815	-0.3
213.034	0.1
213.253	0.11
213.472	0.12
213.691	-0.35
213.91	-0.43
214.128	-0.13
214.347	0.39
214.566	-0.47
214.785	-0.62
215.003	0.12
215.222	-0.03
215.441	0.03
215.66	-0.36
215.878	0.03
216.097	0.28
216.316	-0.19
216.534	-0.24
216.753	-0.01
216.972	-0.15
217.19	-0.19
217.409	-0.3
217.627	-0.23
217.846	-0.25
218.064	-0.1
218.283	-0.38
218.501	0.33
218.72	0.29
218.938	-0.31
219.157	-0.21
219.375	0.06
219.594	-0.31
219.812	-0.35
220.031	-0.38
220.249	0.21
220.467	0.16
220.686	-0.21
220.904	-0.31
221.122	0.04
221.341	0.22
221.559	0.01
221.777	-0.26
221.995	-0.11
222.214	0.28
222.432	-0.08
222.65	-0.03
222.868	-0.04
223.086	-0.1
223.305	0.16
223.523	-0.08
223.741	0.27
223.959	-0.14
224.177	-0.43
224.395	-0.1
224.613	0.06
224.831	0.13
225.049	-0.19
225.267	-0.14
225.485	-0.03
225.703	-0.19
225.921	-0.13
226.139	-0.1
226.357	0.1
226.575	-0.01
226.793	-0.2
227.011	0.57
227.229	-0.2
227.447	0.18
227.665	-0.1
227.883	-0.26
228.1	0.09
228.318	0.07
228.536	-0.3
228.754	-0.18
228.972	0
229.189	0.05
229.407	-0.1
229.625	-0.1
229.843	0.2
230.06	-0.01
230.278	-0.12
230.496	-0.05
230.713	0.05
230.931	0.08
231.149	-0.05
231.366	-0.36
231.584	-0.09
231.801	0.36
232.019	-0.08
232.236	-0.2
232.454	-0.14
232.671	-0.13
232.889	-0.03
233.106	-0.09
233.324	0.08
233.541	-0.2
233.759	-0.13
233.976	-0.04
234.194	-0.02
234.411	-0.11
234.628	-0.21
234.846	-0.13
235.063	-0.05
235.28	0
235.498	-0.04
235.715	-0.23
235.932	0.13
236.149	0.01
236.367	-0.11
236.584	0.03
236.801	-0.05
237.018	0.07
237.236	-0.16
237.453	-0.33
237.67	0.09
237.887	-0.08
238.104	-0.19
238.321	-0.2
238.538	-0.12
238.755	0.16
238.973	-0.25
239.19	-0.08
239.407	-0.06
239.624	0.02
239.841	-0.17
240.058	-0.24
240.275	0.03
240.492	-0.1
240.709	-0.16
240.925	-0.09
241.142	-0.03
241.359	-0.02
241.576	-0.16
241.793	-0.12
242.01	-0.03
242.227	0.08
242.444	-0.03
242.66	0.02
242.877	0.02
243.094	-0.11
243.311	0.01
243.527	-0.06
243.744	0.06
243.961	0.03
244.178	-0.08
244.394	-0.12
244.611	-0
244.828	0.19
245.044	-0.13
245.261	-0.06
245.477	-0.01
245.694	0.02
245.911	-0.16
246.127	-0
246.344	0.12
246.56	0.09
246.777	-0.15
246.993	-0.07
247.21	0.07
247.426	0.05
247.643	-0.06
247.859	-0.12
248.076	-0.15
248.292	0.15
248.508	-0.05
248.725	-0.06
248.941	0.03
249.157	0.14
249.374	-0.1
249.59	-0.02
249.806	0.02
250.023	0.15
250.239	-0.17
250.455	-0.07
250.671	0
250.888	0.02
251.104	0
251.32	-0
251.536	-0.07
251.752	-0.04
251.969	0.02
252.185	0.02
252.401	0.16
252.617	0.02
252.833	-0.1
253.049	-0.07
253.265	-0.03
253.481	-0
253.697	-0.12
253.913	-0.12
254.129	0.06
254.345	0.02
254.561	-0.07
254.777	-0.05
254.993	0.06
255.209	-0
255.425	-0.06
255.641	-0.11
255.857	0.16
256.073	-0.1
256.288	-0.09
256.504	-0.11
256.72	0.01
256.936	0.1
257.152	-0.06
257.367	-0.1
257.583	-0.04
257.799	0.04
258.015	-0.12
258.23	-0.04
258.446	0.2
258.662	0.01
258.877	-0.07
259.093	-0.1
259.309	-0.03
259.524	0
259.74	-0.1
259.955	-0.24
260.171	0.04
260.387	0.03
260.602	0.05
260.818	0.05
261.033	-0.09
261.249	-0.07
261.464	-0.08
261.68	-0.09
261.895	-0.01
262.11	0.05
262.326	-0.02
262.541	-0.11
262.757	-0.02
262.972	0.06
263.187	-0.04
263.403	-0.06
263.618	0.03
263.833	-0.01
264.049	-0.13
264.264	0.01
264.479	0.02
264.694	0.12
264.91	-0.13
265.125	-0.02
265.34	0.04
265.555	0.11
265.77	-0.01
265.986	-0.06
266.201	0.03
266.416	0.1
266.631	-0.05
266.846	-0.01
267.061	0.01
267.276	0.05
267.491	-0.13
267.706	0.01
267.921	0.03
268.136	-0.03
268.351	-0.01
268.566	-0.09
268.781	0.06
268.996	0.07
269.211	-0.04
269.426	-0.09
269.641	-0.02
269.856	0.03
270.071	-0.1
270.285	-0.09
270.5	0
270.715	0.09
270.93	-0.02
271.145	0.03
271.359	0.02
271.574	-0.05
271.789	-0.06
272.004	-0.14
272.218	-0.05
272.433	0.08
272.648	-0.15
272.862	0
273.077	-0.01
273.292	0.01
273.506	-0.08
273.721	-0.08
273.936	0.09
274.15	-0.01
274.365	-0.06
274.579	0.05
274.794	0.07
275.008	0.02
275.223	-0.08
275.437	-0.02
275.652	0.04
275.866	0.06
276.081	-0.04
276.295	0.05
276.509	-0
276.724	-0.02
276.938	-0.09
277.153	-0.01
277.367	-0.05
277.581	-0.04
277.796	-0.11
278.01	-0.13
278.224	0.03
278.438	0.12
278.653	-0.07
278.867	-0.06
279.081	0.02
279.295	-0.04
279.51	-0.01
279.724	-0.13
279.938	0.04
280.152	0.03
280.366	-0.08
280.58	-0.08
280.794	0.04
281.008	-0.02
281.222	-0.02
281.437	0.14
281.651	-0.02
281.865	0.1
282.079	-0.06
282.293	-0.14
282.507	-0.08
282.721	0.02
282.935	-0.04
283.148	-0.09
283.362	-0.08
283.576	-0.11
283.79	-0.04
284.004	-0.05
284.218	0.01
284.432	-0.04
284.646	-0.05
284.859	-0.02
285.073	-0.02
285.287	-0
285.501	0.01
285.714	-0.04
285.928	0.04
286.142	0
286.356	-0.08
286.569	-0.03
286.783	0.05
286.997	0.06
287.21	-0.02
287.424	-0.01
287.637	-0.02
287.851	-0.02
288.065	0.02
288.278	-0.05
288.492	0.01
288.705	0.01
288.919	0
289.132	-0.07
289.346	0.09
289.559	-0.09
289.773	-0.05
289.986	-0.01
290.2	0.01
290.413	0.07
290.626	-0.07
290.84	-0.07
291.053	-0.02
291.267	0.09
291.48	-0.02
291.693	-0.01
291.906	-0.04
292.12	-0.11
292.333	-0.11
292.546	-0.06
292.76	0.09
292.973	-0.03
293.186	-0.01
293.399	-0.05
293.612	0.05
293.826	-0
294.039	-0.05
294.252	-0.03
294.465	0.01
294.678	0.03
294.891	0.02
295.104	-0.04
295.317	-0.01
295.53	0.03
295.743	-0.07
295.956	-0.03
296.169	0.06
296.382	0.05
296.595	-0
296.808	-0.05
297.021	0.09
297.234	0.06
297.447	-0.02
297.66	-0.01
297.873	0.05
298.086	-0
298.299	-0.04
298.511	-0.09
298.724	0.02
298.937	-0.06
299.15	-0.02
299.363	0.02
299.575	0.05
299.788	0.04
300.001	-0
300.213	-0.08
300.426	-0.02
300.639	-0.03
300.852	-0.05
301.064	0.04
301.277	0.07
301.489	0.01
301.702	0.05
301.915	0.02
302.127	0.04
302.34	0.02
302.552	0
302.765	-0.07
302.977	0.01
303.19	-0.01
303.402	0.02
303.615	-0.09
303.827	-0.01
304.04	-0.01
304.252	-0.02
304.464	-0.01
304.677	0.09
304.889	-0.01
305.102	-0.04
305.314	0
305.526	0.01
305.739	0.01
305.951	-0.07
306.163	-0.04
306.375	0.09
306.588	-0.04
306.8	-0.03
307.012	-0.07
307.224	0.03
307.436	0.07
307.649	-0.07
307.861	-0.03
308.073	0.05
308.285	0
308.497	-0.02
308.709	-0.07
308.921	-0
309.133	0.06
309.346	0
309.558	-0.04
309.77	0.07
309.982	0.05
310.194	0
310.406	-0.03
310.617	0.07
310.829	0.02
311.041	-0.02
311.253	-0.06
311.465	-0.01
311.677	0.02
311.889	-0.02
312.101	-0.03
312.313	0.02
312.524	0.05
312.736	-0.08
312.948	0.02
313.16	0.08
313.372	0.05
313.583	-0.03
313.795	0.03
314.007	-0.04
314.218	0.04
314.43	-0.02
314.642	-0.02
314.853	-0.06
315.065	0.04
315.277	-0.04
315.488	0.01
315.7	0.04
315.912	0.07
316.123	-0.04
316.335	0.02
316.546	0.12
316.758	0.01
316.969	-0.05
317.181	-0.01
317.392	-0.01
317.604	0.06
317.815	-0.03
318.026	-0.05
318.238	0.01
318.449	0.05
318.661	-0.12
318.872	-0.07
319.083	-0.08
319.295	0.01
319.506	-0.03
319.717	0
319.929	-0.01
320.14	-0.02
320.351	-0.01
320.562	-0.05
320.774	0
320.985	0.03
321.196	-0.06
321.407	-0.09
321.618	0.01
321.829	0.04
322.041	0.03
322.252	0.01
322.463	0.04
322.674	-0
322.885	-0.05
323.096	-0.04
323.307	-0
323.518	-0.02
323.729	-0.05
323.94	-0.03
324.151	-0.01
324.362	0.03
324.573	0.01
324.784	-0.01
324.995	0.04
325.206	-0.01
325.417	-0.02
325.628	-0.04
325.838	-0.02
326.049	-0.01
326.26	0.01
326.471	-0.04
326.682	-0.02
326.892	-0.01
327.103	-0.06
327.314	-0.1
327.525	-0
327.735	0
327.946	-0.06
328.157	-0.04
328.368	0.03
328.578	-0.06
328.789	0.01
328.999	-0.02
329.21	-0.04
329.421	0.05
329.631	-0.08
329.842	-0.06
330.052	-0.02
330.263	0.03
330.473	0.04
330.684	-0.03
330.894	-0.01
331.105	0.02
331.315	-0.03
331.526	-0
331.736	0.05
331.947	0.03
332.157	0.01
332.367	-0.06
332.578	0.01
332.788	0.03
332.999	0
333.209	-0
333.419	-0.05
333.629	0
333.84	0.03
334.05	-0.05
334.26	0.04
334.47	-0.05
334.681	0.02
334.891	-0.03
335.101	0.05
335.311	0.05
335.521	-0.01
335.732	-0.06
335.942	0.07
336.152	0.03
336.362	-0.02
336.572	-0.01
336.782	0.04
336.992	-0.03
337.202	-0.01
337.412	-0.03
337.622	0.03
337.832	0.01
338.042	-0.02
338.252	-0.06
338.462	-0.01
338.672	-0.01
338.882	-0.05
339.092	0.02
339.302	0.07
339.511	0.01
339.721	-0.01
339.931	-0.06
340.141	0.07
340.351	0.05
340.561	0.03
340.77	-0.02
340.98	-0.01
341.19	0
341.4	-0.01
341.609	-0.06
341.819	-0.03
342.029	-0.05
342.238	0.01
342.448	0.01
342.658	0.04
342.867	-0.03
343.077	-0.02
343.286	-0.01
343.496	-0.01
343.706	0.06
343.915	-0.04
344.125	0
344.334	0.03
344.544	-0.07
344.753	0
344.963	-0.06
345.172	-0.03
345.381	-0
345.591	-0.05
345.8	-0.02
346.01	0.07
346.219	0.04
346.428	-0.15
346.638	-0.01
346.847	-0.02
347.056	0.08
347.266	-0.02
347.475	-0
347.684	0.01
347.893	-0.02
348.103	0.01
348.312	-0.03
348.521	-0.02
348.73	-0
348.94	0.02
349.149	-0.03
349.358	-0.02
349.567	-0.04
349.776	-0.09
349.985	-0.04
350.194	0.03
350.403	0.06
350.612	-0.1
350.821	-0.05
351.03	0.02
351.239	-0.03
351.448	-0.02
351.657	-0.06
351.866	0.12
352.075	-0.02
352.284	-0.01
352.493	-0.06
352.702	0.05
352.911	0.03
353.12	-0.02
353.329	-0.02
353.538	0.02
353.746	0
353.955	-0.05
354.164	0.01
354.373	-0.03
354.582	0.07
354.79	0.02
354.999	0.03
355.208	-0.02
355.416	0.05
355.625	-0.04
355.834	-0.04
356.042	0.02
356.251	-0.02
356.46	-0.08
356.668	-0
356.877	0.11
357.085	-0
357.294	-0.04
357.503	-0.01
357.711	-0.03
357.92	0.09
358.128	-0
358.337	-0.05
358.545	-0.01
358.754	-0.04
358.962	0.02
359.17	0.02
359.379	0.02
359.587	0.02
359.796	0.01
360.004	0.02
360.212	0.05
360.421	0.04
360.629	-0.01
360.837	-0.06
361.046	0.02
361.254	0.09
361.462	0.01
361.67	-0.07
361.879	-0.03
362.087	0.06
362.295	0.01
362.503	-0.02
362.711	-0.03
362.92	-0.02
363.128	-0.04
363.336	-0.07
363.544	-0.05
363.752	-0.03
363.96	-0.02
364.168	0.01
364.376	0
364.584	0
364.792	0.04
365	0.02
365.208	-0.03
365.416	0.02
365.624	0.01
365.832	-0.04
366.04	0.08
366.248	-0
366.456	0.02
366.664	-0.01
366.872	0.03
367.079	-0.03
367.287	0.02
367.495	0.03
367.703	-0.02
367.911	0.02
368.118	-0.01
368.326	-0.03
368.534	-0.02
368.742	0.01
368.949	-0.08
369.157	-0.01
369.365	0.02
369.572	0.02
369.78	-0.05
369.988	0
370.195	0.02
370.403	0.02
370.61	-0
370.818	-0.03
371.026	0.01
371.233	-0.02
371.441	0.02
371.648	-0.03
371.856	-0.01
372.063	0.02
372.271	0.02
372.478	-0.03
372.685	-0.03
372.893	0.03
373.1	-0.04
373.308	-0.05
373.515	0.06
373.722	0.03
373.93	-0.05
374.137	0.02
374.344	0.05
374.552	0.06
374.759	0.01
374.966	0.01
375.173	-0
375.381	0.03
375.588	-0.04
375.795	-0.07
376.002	-0.03
376.209	-0.03
376.417	-0
376.624	-0.01
376.831	0
377.038	0.04
377.245	-0.07
377.452	-0.03
377.659	0.03
377.866	-0.07
378.073	-0.02
378.28	0
378.487	0.03
378.694	0.04
378.901	-0.02
379.108	-0
379.315	0.02
379.522	0.11
379.729	0.01
379.936	-0.02
380.143	-0.01
380.35	0.04
380.557	-0.04
380.763	0.02
380.97	0.01
381.177	0.05
381.384	0.02
381.591	-0.04
381.797	0.01
382.004	0.02
382.211	0.03
382.418	0.01
382.624	0.02
382.831	0.05
383.038	-0.01
383.244	-0.04
383.451	0.02
383.658	0.01
383.864	-0.04
384.071	-0.05
384.277	0.04
384.484	-0.01
384.69	0.04
384.897	-0.04
385.103	-0.01
385.31	-0.05
385.516	-0.04
385.723	-0.05
385.929	-0.04
386.136	-0.03
386.342	0.02
386.549	-0.02
386.755	0.07
386.961	0
387.168	-0.03
387.374	0.03
387.58	-0.03
387.787	-0
387.993	-0.02
388.199	-0.05
388.406	-0.02
388.612	-0.05
388.818	-0.04
389.024	-0.03
389.231	-0.03
389.437	0.05
389.643	0.02
389.849	-0.02
390.055	-0.01
390.261	-0.04
390.467	0.02
390.674	-0.09
390.88	-0.03
391.086	-0
391.292	-0.1
391.498	0.03
391.704	0.01
391.91	-0.09
392.116	-0.01
392.322	-0.11
392.528	0.05
392.734	-0.04
392.94	0.03
393.146	-0.04
393.352	0.03
393.557	0
393.763	-0.01
393.969	-0.01
394.175	-0.01
394.381	-0
394.587	-0.05
394.792	-0.02
394.998	0.04
395.204	0.08
395.41	-0.05
395.615	-0.03
395.821	-0.04
396.027	0.01
396.233	-0.02
396.438	0.01
396.644	0.09
396.85	-0.03
397.055	0
397.261	-0.02
397.466	-0.03
397.672	-0.01
397.878	0.01
398.083	-0.03
398.289	-0.03
398.494	0.07
398.7	-0.01
398.905	-0.07
399.111	0.07
399.316	-0.05
399.522	0.01
399.727	-0.01
399.932	-0.03
400.138	0.01
400.343	0.03
400.549	0.01
400.754	-0.03
400.959	0.06
401.165	-0.07
401.37	0.03
401.575	0.11
401.78	-0
401.986	-0.05
402.191	-0.05
402.396	0.01
402.601	-0
402.807	-0
403.012	-0.03
403.217	0.02
403.422	0.01
403.627	-0.02
403.832	-0.06
404.037	-0.01
404.243	0.04
404.448	-0.05
404.653	-0.02
404.858	0.01
405.063	0.05
405.268	-0.04
405.473	-0.01
405.678	-0.06
405.883	0.1
406.088	0.04
406.293	-0.05
406.498	-0.04
406.703	0.02
406.907	0.01
407.112	-0.09
407.317	-0.01
407.522	-0.01
407.727	-0.11
407.932	0.03
408.136	0.03
408.341	-0.02
408.546	0.01
408.751	0.04
408.956	-0.05
409.16	0.01
409.365	-0.02
409.57	-0.05
409.774	-0.02
409.979	0.07
410.184	-0.03
410.388	-0.05
410.593	0.02
410.798	-0.01
411.002	-0.06
411.207	0.02
411.411	-0.01
411.616	-0.03
411.82	-0.05
412.025	-0.01
412.229	-0.05
412.434	0.06
412.638	-0.07
412.843	-0.04
413.047	0.05
413.252	-0.06
413.456	-0.04
413.66	0.04
413.865	-0.03
414.069	0.07
414.273	-0.02
414.478	-0.05
414.682	-0.07
414.886	-0.02
415.091	-0.06
415.295	-0.07
415.499	-0.01
415.703	-0.06
415.908	0.01
416.112	-0.11
416.316	0.01
416.52	-0.06
416.724	-0.04
416.929	-0.02
417.133	0.05
417.337	-0.03
417.541	-0.08
417.745	-0.01
417.949	-0.01
418.153	-0.02
418.357	-0.07
418.561	0.1
418.765	0.02
418.969	0.11
419.173	0.03
419.377	-0.06
419.581	0.1
419.785	-0.02
419.989	-0.08
420.193	-0.03
420.397	-0.05
420.601	0.05
420.804	-0.01
421.008	0.01
421.212	0.03
421.416	-0.01
421.62	-0.06
421.823	-0.05
422.027	0.03
422.231	-0.01
422.435	-0.02
422.638	-0.02
422.842	0.03
423.046	-0.06
423.249	0.05
423.453	0.02
423.657	0.04
423.86	-0.03
424.064	0
424.268	0.04
424.471	0
424.675	0.06
424.878	0.08
425.082	0.02
425.285	-0
425.489	0.01
425.692	0.01
425.896	-0.05
426.099	0
426.303	-0.07
426.506	-0.11
426.71	0.02
426.913	0.01
427.116	0.04
427.32	-0.03
427.523	-0.04
427.726	0.04
427.93	-0.07
428.133	-0.05
428.336	-0.09
428.54	-0.06
428.743	0.02
428.946	0.04
429.149	-0.09
429.353	-0.01
429.556	-0.03
429.759	-0.01
429.962	-0.09
430.165	0
430.368	0.02
430.571	-0.07
430.775	-0.02
430.978	-0.05
431.181	0.02
431.384	-0.02
431.587	-0.05
431.79	-0.04
431.993	-0.07
432.196	-0.01
432.399	-0.07
432.602	0.07
432.805	-0.03
433.008	-0.04
433.211	-0.07
433.414	0.03
433.616	-0.03
433.819	-0.06
434.022	-0.09
434.225	0.02
434.428	0
434.631	0.1
434.833	0
435.036	-0.02
435.239	0.04
435.442	-0.07
435.645	-0.04
435.847	0.02
436.05	0.03
436.253	0.01
436.455	-0.03
436.658	-0.02
436.861	0.08
437.063	-0.04
437.266	-0.01
437.468	-0
437.671	0.07
437.874	0
438.076	-0.08
438.279	-0.06
438.481	-0.03
438.684	-0.06
438.886	0.01
439.089	-0.08
439.291	0.03
439.494	-0
439.696	-0.07
439.899	-0.03
440.101	-0.05
440.303	-0.11
440.506	-0.04
440.708	-0.01
440.91	0.03
441.113	-0.07
441.315	0.02
441.517	-0.08
441.72	0.02
441.922	-0.07
442.124	-0.05
442.326	0
442.529	0.06
442.731	-0.02
442.933	0.1
443.135	-0.07
443.337	-0.05
443.539	-0.08
443.742	-0.05
443.944	0.01
444.146	-0.06
444.348	-0
444.55	-0.05
444.752	-0.02
444.954	-0.08
445.156	-0.07
445.358	-0.07
445.56	0.02
445.762	-0.01
445.964	0
446.166	-0.05
446.368	-0.01
446.57	0
446.772	0.03
446.974	-0.07
447.175	0.01
447.377	-0.04
447.579	-0.03
447.781	-0.06
447.983	0.08
448.184	0.04
448.386	0
448.588	-0.07
448.79	-0.03
448.991	-0.02
449.193	-0.02
449.395	0.01
449.597	0.01
449.798	0.04
450	0
450.202	-0.04
450.403	-0.04
450.605	0.01
450.806	-0.01
451.008	-0.07
451.21	-0.03
451.411	0
451.613	-0.05
451.814	-0.03
452.016	0.04
452.217	-0.01
452.419	0.04
452.62	-0.04
452.821	0.03
453.023	0.05
453.224	0.06
453.426	-0.06
453.627	-0.03
453.828	0.04
454.03	0.01
454.231	-0.01
454.432	-0.08
454.634	0.1
454.835	-0.05
455.036	-0.06
455.238	0.02
455.439	0.06
455.64	-0.05
455.841	-0.05
456.042	0.1
456.244	0
456.445	-0.09
456.646	-0.14
456.847	-0.02
457.048	-0.01
457.249	0.02
457.45	0.22
457.651	-0.07
457.852	0.02
458.054	-0.01
458.255	-0.05
458.456	0.03
458.657	-0.02
458.858	-0.09
459.058	0.03
459.259	0.03
459.46	-0.03
459.661	-0.06
459.862	0.12
460.063	-0.03
460.264	0.05
460.465	-0.06
460.666	0.12
460.866	-0.03
461.067	-0.03
461.268	-0.04
461.469	-0.02
461.67	0.02
461.87	-0.03
462.071	-0.04
462.272	-0.05
462.473	-0.01
462.673	0.04
462.874	-0.09
463.075	-0.02
463.275	-0.07
463.476	0.01
463.676	0.03
463.877	-0.02
464.078	0
464.278	0.05
464.479	-0.08
464.679	-0
464.88	-0.03
465.08	0.08
465.281	-0.05
465.481	-0.04
465.682	-0.02
465.882	0
466.083	0.01
466.283	-0.02
466.483	-0.02
466.684	-0.06
466.884	-0.06
467.085	-0.02
467.285	0.05
467.485	-0.08
467.686	-0.03
467.886	-0.06
468.086	-0.02
468.286	-0.03
468.487	0.01
468.687	-0.06
468.887	-0.03
469.087	-0.02
469.287	-0.01
469.488	-0.08
469.688	0.02
469.888	-0.01
470.088	0.05
470.288	0.03
470.488	0.06
470.688	-0.05
470.888	-0.06
471.088	-0.03
471.288	-0
471.488	0.03
471.688	0.04
471.888	-0.03
472.088	0.07
472.288	-0.02
472.488	-0.02
472.688	-0.03
472.888	-0.02
473.088	-0.01
473.288	-0.01
473.488	-0.01
473.688	0.06
473.887	-0
474.087	-0.03
474.287	0.04
474.487	-0.01
474.687	0.02
474.886	-0.04
475.086	-0.04
475.286	-0.02
475.486	-0
475.685	0
475.885	-0.03
476.085	-0.02
476.284	0.01
476.484	-0
476.684	0.01
476.883	0.06
477.083	0.02
477.282	-0.04
477.482	0.05
477.681	0.03
477.881	0.03
478.08	-0.05
478.28	-0.01
478.479	0.03
478.679	0.07
478.878	-0.03
479.078	-0.01
479.277	-0.01
479.477	-0.01
479.676	0.02
479.875	-0
480.075	-0.07
480.274	0.03
480.473	0.01
480.673	-0.03
480.872	0.03
481.071	0
481.271	-0
481.47	-0.02
481.669	0
481.868	-0.02
482.067	-0.03
482.267	-0.04
482.466	0.01
482.665	-0.04
482.864	-0.03
483.063	-0.03
483.262	0.05
483.461	0.08
483.661	0
483.86	-0.02
484.059	0.02
484.258	-0.02
484.457	-0
484.656	0.02
484.855	0.03
485.054	-0.04
485.253	-0.06
485.452	-0.05
485.651	0.01
485.849	0.02
486.048	-0.04
486.247	-0.04
486.446	0.01
486.645	-0.06
486.844	-0.05
487.043	-0.02
487.241	0.02
487.44	-0.04
487.639	-0.02
487.838	0.01
488.037	-0
488.235	0.03
488.434	-0
488.633	-0.02
488.831	-0.01
489.03	0.01
489.229	-0
489.427	-0.01
489.626	0.04
489.825	0.02
490.023	-0.02
490.222	-0.01
490.42	0.02
490.619	0.02
490.817	-0.01
491.016	-0.02
491.214	0.03
491.413	-0.02
491.611	-0.02
491.81	0.01
492.008	0.02
492.207	0
492.405	0
492.604	-0.04
492.802	-0.02
493	-0.01
493.199	-0.03
493.397	0.01
493.595	-0
493.794	-0.02
493.992	0.04
494.19	-0.04
494.388	0.02
494.587	-0.02
494.785	-0.01
494.983	-0.04
495.181	0
495.379	0.02
495.578	-0.03
495.776	0.02
495.974	0.01
496.172	-0.02
496.37	-0.04
496.568	-0.04
496.766	-0.03
496.964	0.03
497.162	-0
497.36	-0.06
497.558	-0
497.756	0.03
497.954	-0.02
498.152	-0.02
498.35	0.01
498.548	0
498.746	-0.01
498.944	-0.02
499.142	-0
499.34	-0.03
499.538	-0.02
499.736	-0.02
499.933	0.03
500.131	0.02
500.329	-0.02
500.527	0.01
500.725	0.01
500.922	0.02
501.12	-0.01
501.318	0.01
501.516	-0.02
501.713	0.01
501.911	-0.01
502.109	-0.04
502.306	0.02
502.504	0.01
502.701	-0.03
502.899	-0.01
503.097	0.05
503.294	0
503.492	-0.02
503.689	0
503.887	0.03
504.084	0.04
504.282	-0
504.479	-0.04
504.677	-0.01
504.874	-0.02
505.072	-0.01
505.269	0
505.466	0.01
505.664	0.03
505.861	-0.04
506.059	-0.02
506.256	0.01
506.453	-0.03
506.651	0.03
506.848	0.02
507.045	0.01
507.242	-0.01
507.44	-0.04
507.637	-0.01
507.834	-0.03
508.031	0.03
508.229	-0.04
508.426	0.02
508.623	0.01
508.82	-0.02
509.017	-0.04
509.214	-0.01
509.411	-0
509.608	-0.03
509.805	-0.01
510.003	-0.02
510.2	-0
510.397	0.02
510.594	-0.03
510.791	-0.03
510.988	-0.02
511.184	0.02
511.381	-0.01
511.578	-0.05
511.775	-0
511.972	0.01
512.169	-0.01
512.366	-0.01
512.563	-0
512.76	-0.02
512.956	0
513.153	-0.02
513.35	-0
513.547	-0.04
513.744	-0.02
513.94	-0.03
514.137	-0.01
514.334	-0
514.53	0.02
514.727	-0.02
514.924	0.06
515.12	-0.04
515.317	-0.06
515.514	-0.02
515.71	-0.02
515.907	-0
516.103	-0.02
516.3	0.01
516.497	0.02
516.693	0.03
516.89	-0.02
517.086	-0.03
517.283	0.03
517.479	0.01
517.676	-0.01
517.872	-0.02
518.068	-0.03
518.265	-0.02
518.461	-0.01
518.658	-0.05
518.854	-0
519.05	0.01
519.247	-0.03
519.443	0.01
519.639	-0
519.836	0.02
520.032	-0.01
520.228	0.01
520.424	0.04
520.621	0.02
520.817	-0.01
521.013	0.01
521.209	0.01
521.405	0.05
521.601	-0
521.798	-0.02
521.994	0.04
522.19	-0.03
522.386	-0.03
522.582	-0.01
522.778	-0.02
522.974	-0.01
523.17	-0.01
523.366	0.02
523.562	0.03
523.758	0
523.954	-0.04
524.15	-0.02
524.346	0.01
524.542	-0
524.738	-0.02
524.934	-0.01
525.129	-0.01
525.325	-0.01
525.521	-0.01
525.717	0.01
525.913	0
526.109	0.01
526.304	-0.01
526.5	0
526.696	0.02
526.892	-0.01
527.087	-0.02
527.283	-0.04
527.479	0.01
527.674	-0.02
527.87	-0
528.066	-0.02
528.261	-0
528.457	-0
528.653	-0.03
528.848	-0.03
529.044	-0
529.239	0.01
529.435	0.03
529.63	0.02
529.826	0.04
530.021	0.02
530.217	0.02
530.412	-0.02
530.608	-0.03
530.803	-0
530.999	-0.02
531.194	-0.06
531.389	-0.01
531.585	-0.05
531.78	-0.01
531.975	-0.01
532.171	0.02
532.366	0.03
532.561	-0
532.757	-0.04
532.952	0
533.147	0.02
533.342	-0
533.538	-0.02
533.733	0.02
533.928	0
534.123	-0.02
534.318	-0.04
534.513	-0.02
534.709	-0.02
534.904	-0.02
535.099	-0.01
535.294	-0.01
535.489	-0.01
535.684	-0.01
535.879	-0.03
536.074	0.01
536.269	-0.02
536.464	0.04
536.659	-0
536.854	-0.02
537.049	0.01
537.244	-0
537.439	-0.02
537.634	0.03
537.828	0
538.023	-0.02
538.218	-0.04
538.413	-0
538.608	-0.05
538.803	-0.01
538.997	-0.04
539.192	0.01
539.387	0.02
539.582	0
539.776	0.01
539.971	-0.02
540.166	-0.02
540.36	-0.04
540.555	-0.02
540.75	-0.02
540.944	0
541.139	-0.06
541.334	-0.01
541.528	0.01
541.723	0.03
541.917	-0.01
542.112	-0.05
542.306	-0.01
542.501	-0.03
542.695	0.01
542.89	-0.02
543.084	-0
543.279	-0.01
543.473	-0.03
543.668	-0.02
543.862	-0.01
544.056	0
544.251	-0.01
544.445	0.01
544.64	-0.01
544.834	-0.04
545.028	-0.01
545.222	0
545.417	0.03
545.611	-0
545.805	-0
546	-0.01
546.194	-0
546.388	-0.02
546.582	-0
546.776	0.01
546.97	-0.01
547.165	0
547.359	0
547.553	-0.03
547.747	0
547.941	0
548.135	-0.01
548.329	0.02
548.523	0.01
548.717	0
548.911	-0.03
549.105	-0.02
549.299	-0.01
549.493	-0.01
549.687	0.02
549.881	0.02
550.075	0
550.269	-0.03
550.463	0.01
550.657	-0.02
550.85	-0.02
551.044	-0.05
551.238	0
551.432	-0.03
551.626	-0.03
551.82	-0
552.013	-0.03
552.207	-0
552.401	0.02
552.594	-0.02
552.788	-0.03
552.982	-0
553.176	-0.02
553.369	0.01
553.563	0.03
553.756	-0.04
553.95	-0.03
554.144	-0.02
554.337	0.02
554.531	-0.01
554.724	-0.01
554.918	-0.01
555.111	0.02
555.305	-0.01
555.498	0.05
555.692	0.01
555.885	-0.03
556.079	-0
556.272	-0.03
556.466	0.02
556.659	0.01
556.852	-0.03
557.046	-0.02
557.239	0.02
557.432	-0.04
557.626	-0.01
557.819	-0.02
558.012	-0
558.206	0.01
558.399	-0.02
558.592	0.02
558.785	-0.02
558.979	0.01
559.172	0.01
559.365	0.02
559.558	0.02
559.751	0.01
559.944	-0.01
560.138	-0
560.331	-0.02
560.524	-0.02
560.717	0
560.91	-0
561.103	0.02
561.296	-0.01
561.489	0.02
561.682	-0
561.875	0.04
562.068	-0
562.261	0.02
562.454	0.03
562.647	0.01
562.84	0.01
563.032	-0.04
563.225	-0
563.418	-0.01
563.611	-0.02
563.804	-0.02
563.997	-0.03
564.19	-0.05
564.382	0
564.575	-0.03
564.768	-0.02
564.961	0
565.153	-0.03
565.346	-0
565.539	0.02
565.731	0.01
565.924	0.01
566.117	-0.01
566.309	-0
566.502	-0.02
566.695	-0.01
566.887	-0.01
567.08	-0.01
567.272	-0.03
567.465	-0.02
567.657	-0
567.85	0
568.042	-0.01
568.235	0.01
568.427	-0
568.62	0.02
568.812	-0
569.005	-0
569.197	-0.04
569.389	0.02
569.582	-0.01
569.774	-0.01
569.966	-0.02
570.159	-0.04
570.351	-0
570.543	-0.03
570.736	-0.01
570.928	-0.03
571.12	-0
571.312	-0.02
571.505	-0.07
571.697	0.03
571.889	-0.02
572.081	-0.03
572.273	-0.04
572.465	0.03
572.658	-0.01
572.85	0.01
573.042	-0.04
573.234	0.01
573.426	0.02
573.618	-0.05
573.81	-0.03
574.002	0.05
574.194	0.02
574.386	-0.05
574.578	-0.09
574.77	-0.05
574.962	0.02
575.154	-0.06
575.346	-0.01
575.538	0.02
575.729	-0.02
575.921	-0.03
576.113	-0.02
576.305	0.01
576.497	-0.03
576.689	-0.01
576.88	-0.01
577.072	0.01
577.264	-0.02
577.456	-0.03
577.647	-0.06
577.839	-0
578.031	0.04
578.223	-0.05
578.414	-0.04
578.606	0.02
578.798	-0.01
578.989	-0.05
579.181	-0.02
579.372	-0.01
579.564	-0.04
579.755	-0.02
579.947	-0.02
580.139	0
580.33	-0.07
580.522	-0.04
580.713	-0.09
580.905	-0.01
581.096	-0
581.287	-0
581.479	0
581.67	0.01
581.862	0.02
582.053	-0.03
582.244	-0.07
582.436	-0.01
582.627	-0.01
582.818	-0.04
583.01	-0.05
583.201	0.01
583.392	0.03
583.583	-0.02
583.775	-0.03
583.966	-0.03
584.157	-0.01
584.348	-0.02
584.54	-0.06
584.731	-0.01
584.922	0.01
585.113	-0.04
585.304	0.03
585.495	0.03
585.686	-0.02
585.877	-0.01
586.068	-0.03
586.259	0.02
586.45	0.01
586.641	-0.03
586.832	-0.06
587.023	0
587.214	-0.01
587.405	-0
587.596	-0.04
587.787	0.04
587.978	0.02
588.169	-0.02
588.36	-0.04
588.551	0.02
588.742	-0.03
588.932	0.01
589.123	-0.03
589.314	0
589.505	0.01
589.696	0.01
589.886	-0.04
590.077	-0.05
590.268	0.02
590.458	-0.06
590.649	-0.06
590.84	0.05
591.03	-0.03
591.221	-0.06
591.412	-0.05
591.602	0.01
591.793	0.04
591.984	-0.05
592.174	-0
592.365	0.03
592.555	-0.05
592.746	0
592.936	-0.02
593.127	0
593.317	0.03
593.508	-0.03
593.698	-0.05
593.889	-0.01
594.079	-0.01
594.269	-0.04
594.46	-0.02
594.65	-0.01
594.84	-0.03
595.031	-0.05
595.221	-0.02
595.411	-0.04
595.602	0
595.792	-0.02
595.982	-0.04
596.172	0.05
596.363	-0.04
596.553	-0.01
596.743	-0
596.933	0.01
597.123	0.03
597.314	-0.04
597.504	-0.02
597.694	0.04
597.884	0
598.074	-0.01
598.264	-0.03
598.454	0.01
598.644	0
598.834	-0.04
599.024	-0.07
599.214	-0.02
599.404	0.03
599.594	-0.01
599.784	-0.03
599.974	0.03
600.164	0.04
600.354	-0.04
600.544	-0.03
600.734	0.01
600.924	0.04
601.114	-0.02
601.303	-0.04
601.493	-0.03
601.683	-0.02
601.873	-0.02
602.063	-0.06
602.252	0.04
602.442	-0.05
602.632	-0.05
602.821	-0.06
603.011	0.02
603.201	-0.03
603.39	-0.05
603.58	-0.04
603.77	0.01
603.959	0.02
604.149	-0.01
604.339	-0.03
604.528	0.01
604.718	0.01
604.907	-0.04
605.097	-0.03
605.286	-0.04
605.476	0
605.665	0.01
605.855	-0.02
606.044	0.05
606.234	0.01
606.423	-0.02
606.612	-0.02
606.802	-0.03
606.991	0.01
607.181	-0
607.37	-0.05
607.559	-0.02
607.749	-0.05
607.938	-0.02
608.127	-0.03
608.316	-0.02
608.506	0
608.695	-0.03
608.884	-0.05
609.073	-0
609.263	0
609.452	0.01
609.641	-0.01
609.83	-0.04
610.019	0.02
610.208	-0.02
610.397	-0.02
610.586	0.03
610.775	-0.03
610.965	-0.05
611.154	-0.03
611.343	0.03
611.532	0.01
611.721	-0.05
611.91	-0.02
612.099	0.02
612.287	-0.03
612.476	-0.09
612.665	-0.02
612.854	-0.04
613.043	0.02
613.232	-0.01
613.421	-0.07
613.61	-0.02
613.798	-0.04
613.987	-0.01
614.176	-0.02
614.365	0.01
614.554	-0
614.742	0.04
614.931	-0.02
615.12	0.02
615.309	-0.01
615.497	-0.01
615.686	-0.05
615.875	-0.01
616.063	-0
616.252	-0.03
616.44	-0.02
616.629	-0.02
616.818	0.04
617.006	-0.03
617.195	-0.03
617.383	0.03
617.572	-0.02
617.76	-0.03
617.949	-0.02
618.137	-0.01
618.326	0.06
618.514	-0.05
618.703	-0.05
618.891	0.03
619.079	-0.08
619.268	0.03
619.456	-0.03
619.644	0.03
619.833	-0.02
620.021	-0.01
620.209	-0.07
620.398	0.03
620.586	0.01
620.774	-0.01
620.962	-0.04
621.151	0.06
621.339	0.01
621.527	-0.07
621.715	-0.05
621.903	-0.04
622.092	-0.06
622.28	-0.02
622.468	-0
622.656	-0.05
622.844	0.04
623.032	-0.02
623.22	-0.08
623.408	0.03
623.596	0.02
623.784	0.01
623.972	-0.05
624.16	-0.03
624.348	0.05
624.536	-0.05
624.724	-0.04
624.912	0.05
625.1	0.05
625.288	-0.03
625.476	-0.07
625.664	-0.01
625.851	-0.06
626.039	-0.06
626.227	-0
626.415	-0.03
626.603	-0.09
626.79	-0.01
626.978	-0
627.166	0.02
627.354	-0.03
627.541	-0.04
627.729	-0.08
627.917	0.02
628.104	0.01
628.292	-0.02
628.48	0
628.667	-0.01
628.855	-0.01
629.042	0.01
629.23	-0.03
629.418	0
629.605	-0.03
629.793	-0.04
629.98	-0.05
630.168	-0.02
630.355	-0.01
630.543	0.01
630.73	-0.04
630.917	-0.01
631.105	0.03
631.292	-0.02
631.48	-0.01
631.667	0.06
631.854	-0
632.042	-0.04
632.229	-0.07
632.416	-0.02
632.604	-0.04
632.791	-0.04
632.978	0.02
633.165	-0.01
633.353	0.07
633.54	0.01
633.727	-0.05
633.914	-0.07
634.101	-0.06
634.289	0.05
634.476	-0.06
634.663	-0.03
634.85	0.01
635.037	-0.05
635.224	-0.06
635.411	0.04
635.598	0.03
635.785	-0.03
635.972	-0.01
636.159	0.03
636.346	-0.04
636.533	-0.03
636.72	-0.04
636.907	-0.05
637.094	-0
637.281	-0
637.468	0.01
637.655	-0.04
637.842	-0.02
638.029	-0.02
638.215	0.01
638.402	0.02
638.589	-0.06
638.776	-0.01
638.963	-0.03
639.149	0.03
639.336	0.05
639.523	-0
639.709	-0.01
639.896	-0.05
640.083	0.05
640.27	-0.01
640.456	-0.05
640.643	0.01
640.829	-0.06
641.016	-0.03
641.203	-0.07
641.389	0.04
641.576	0
641.762	-0.02
641.949	-0.05
642.135	0.01
642.322	-0.05
642.508	-0.05
642.695	-0.01
642.881	-0.03
643.068	-0.04
643.254	0
643.441	0.02
643.627	-0
643.813	-0.05
644	0.02
644.186	-0.05
644.372	0.01
644.559	-0
644.745	-0.01
644.931	-0.03
645.118	-0.01
645.304	-0.03
645.49	-0.02
645.676	-0.04
645.862	-0.01
646.049	0.04
646.235	-0.02
646.421	0.06
646.607	0.06
646.793	-0.05
646.979	-0.02
647.165	-0.02
647.352	0
647.538	0.04
647.724	-0.01
647.91	-0.02
648.096	0.04
648.282	0.04
648.468	-0.02
648.654	-0.04
648.84	-0
649.026	0.02
649.212	-0.02
649.397	-0.06
649.583	-0.04
649.769	0.02
649.955	0.03
650.141	-0.01
650.327	0.04
650.513	-0.02
650.698	0.02
650.884	-0.09
651.07	0.01
651.256	0.03
651.442	-0.02
651.627	-0.04
651.813	-0.03
651.999	-0.01
652.184	-0.02
652.37	-0.02
652.556	-0.04
652.741	0.04
652.927	-0.09
653.113	-0.03
653.298	-0.03
653.484	-0.03
653.669	-0.06
653.855	0.01
654.04	0.01
654.226	0
654.412	-0.03
654.597	-0.07
654.782	0.03
654.968	0.04
655.153	-0.01
655.339	-0.06
655.524	-0.07
655.71	0.06
655.895	-0.03
656.08	-0.03
656.266	0.06
656.451	-0
656.636	-0.05
656.822	0.01
657.007	-0.06
657.192	-0.06
657.378	-0.07
657.563	-0.05
657.748	0
657.933	-0.02
658.118	-0.03
658.304	-0.02
658.489	0.02
658.674	0
658.859	-0.04
659.044	-0.01
659.229	-0.02
659.414	-0.05
659.599	-0.02
659.785	-0.06
659.97	-0
660.155	-0.01
660.34	-0.03
660.525	-0.03
660.71	-0.02
660.895	0.01
661.08	-0.03
661.264	-0.04
661.449	0.04
661.634	0.02
661.819	0.02
662.004	0
662.189	-0.05
662.374	-0.03
662.559	-0.07
662.743	-0.07
662.928	-0.01
663.113	0.01
663.298	-0.08
663.483	-0.05
663.667	0.02
663.852	-0.08
664.037	0
664.221	-0.07
664.406	0.03
664.591	0.02
664.775	-0
664.96	-0.09
665.145	-0
665.329	-0.01
665.514	-0.03
665.698	-0.03
665.883	-0.11
666.068	0.05
666.252	-0.04
666.437	-0.03
666.621	-0.02
666.806	0.02
666.99	-0
667.174	-0.07
667.359	0.04
667.543	-0.07
667.728	-0.03
667.912	-0.09
668.096	0.01
668.281	-0.03
668.465	-0.02
668.649	-0.03
668.834	-0.03
669.018	-0.05
669.202	-0
669.387	-0.04
669.571	0.03
669.755	-0.08
669.939	-0.03
670.124	-0.02
670.308	0.04
670.492	0.04
670.676	-0.01
670.86	-0.03
671.044	-0.06
671.228	-0.01
671.413	-0.06
671.597	-0.05
671.781	-0.08
671.965	0.02
672.149	-0.04
672.333	-0.06
672.517	-0.04
672.701	-0.01
672.885	-0.02
673.069	-0.08
673.253	0.06
673.437	-0
673.621	-0.05
673.804	-0.03
673.988	-0.05
674.172	-0.04
674.356	-0.07
674.54	-0.03
674.724	0.06
674.908	-0.04
675.091	0
675.275	-0.03
675.459	0.03
675.643	0.08
675.826	0.03
676.01	-0.05
676.194	0.01
676.377	0.02
676.561	-0.06
676.745	-0.01
676.928	0
677.112	0.01
677.296	-0.05
677.479	-0.03
677.663	-0.02
677.846	-0
678.03	-0.03
678.213	-0.01
678.397	-0.02
678.58	-0.04
678.764	-0.05
678.947	-0.05
679.131	-0.01
679.314	0.02
679.498	-0.02
679.681	-0.01
679.865	-0.01
680.048	-0
680.231	0.03
680.415	-0.06
680.598	-0.01
680.781	-0.04
680.965	-0.02
681.148	0.01
681.331	-0.06
681.514	-0.03
681.698	-0.03
681.881	-0.03
682.064	-0.03
682.247	0.02
682.43	-0.07
682.614	0.04
682.797	0.06
682.98	0.03
683.163	-0.04
683.346	-0
683.529	-0.04
683.712	-0.05
683.895	0.04
684.078	-0.09
684.261	-0.05
684.444	0
684.627	0.01
684.81	0.02
684.993	-0.06
685.176	0.03
685.359	-0.03
685.542	-0.07
685.725	0.07
685.908	-0.02
686.091	-0.02
686.274	0.01
686.457	0.01
686.639	-0.01
686.822	0.01
687.005	-0.02
687.188	-0.01
687.371	0.09
687.553	-0.03
687.736	0.02
687.919	0.09
688.102	0.03
688.284	-0.06
688.467	-0.03
688.65	-0.01
688.832	-0.03
689.015	-0.01
689.197	-0.05
689.38	0.06
689.563	0.1
689.745	-0.1
689.928	-0.02
690.11	-0.03
690.293	0.02
690.475	-0.07
690.658	0.02
690.84	0
691.023	0.01
691.205	-0.04
691.388	-0.02
691.57	-0.01
691.752	0.06
691.935	-0.08
692.117	-0.04
692.3	0.05
692.482	-0.07
692.664	0
692.847	-0.04
693.029	0.08
693.211	0.02
693.393	-0.08
693.576	-0.04
693.758	-0
693.94	-0.03
694.122	-0.01
694.304	-0.03
694.487	-0.05
694.669	0.07
694.851	-0.06
695.033	-0.02
695.215	-0.03
695.397	-0.07
695.579	-0.02
695.761	-0.08
695.943	-0.07
696.125	0.1
696.308	0
696.49	-0.1
696.671	0.09
696.853	-0.05
697.035	0.11
697.217	-0.02
697.399	0.03
697.581	-0.03
697.763	-0
697.945	-0.06
698.127	-0.02
698.309	0.06
698.491	0
698.672	0.02
698.854	0.03
699.036	0.06
699.218	-0.03
699.399	0.02
699.581	0
699.763	-0.01
699.945	-0.05
700.126	-0.08
700.308	-0.06
700.49	-0.06
700.671	-0.08
700.853	-0.06
701.035	-0.05
701.216	-0.01
701.398	-0.08
701.579	0.01
701.761	0.09
701.943	-0.02
702.124	-0.07
702.306	-0.07
702.487	0.13
702.669	-0.03
702.85	-0.07
703.031	-0.06
703.213	0.1
703.394	0.05
703.576	-0.08
703.757	0.08
703.938	0.08
704.12	0.14
704.301	-0.01
704.483	-0.09
704.664	0
704.845	0.11
705.026	0.03
705.208	-0.05
705.389	0.05
705.57	0.03
705.751	-0.02
705.933	-0.01
706.114	0.05
706.295	-0.02
706.476	-0.07
706.657	0.07
706.838	0.06
707.02	0.07
707.201	-0.1
707.382	0.01
707.563	0.06
707.744	-0.05
707.925	-0.05
708.106	-0.02
708.287	0.08
708.468	0.02
708.649	-0.05
708.83	0.04
709.011	-0.06
709.192	-0
709.373	-0.07
709.554	0
709.734	-0.01
709.915	0.04
710.096	-0.01
710.277	-0.13
710.458	0.02
710.639	0.02
710.819	-0.14
711	0
711.181	0.11
711.362	0.07
711.542	-0.02
711.723	-0.08
711.904	0.03
712.085	-0.01
712.265	0.01
712.446	-0.11
712.627	-0.03
712.807	-0.04
712.988	-0.01
713.168	-0.16
713.349	0.03
713.53	-0.12
713.71	-0.06
713.891	-0.1
714.071	0.01
714.252	-0.06
714.432	-0.04
714.613	-0.11
714.793	-0.03
714.974	0.11
715.154	0.06
715.334	0.04
715.515	0.11
715.695	-0.1
715.876	-0.02
716.056	-0.01
716.236	-0.03
716.417	-0.06
716.597	-0.07
716.777	0.1
716.957	-0.02
717.138	-0.04
717.318	-0.05
717.498	-0.08
717.678	-0.02
717.859	-0.01
718.039	-0.15
718.219	0.01
718.399	0.05
718.579	-0.13
718.759	-0.13
718.939	0.02
719.12	-0.06
719.3	-0.09
719.48	-0.13
719.66	-0.11
719.84	0.04
720.02	0.03
720.2	-0.04
720.38	-0.02
720.56	0.1
720.74	-0.05
720.92	-0.02
721.1	0.09
721.279	0.01
721.459	0
721.639	-0.09
721.819	-0.02
721.999	-0.04
722.179	0.07
722.359	-0.07
722.538	0.01
722.718	-0.04
722.898	0
723.078	0
723.257	-0.09
723.437	-0.01
723.617	0.02
723.797	-0.02
723.976	-0.09
724.156	0.06
724.336	0.1
724.515	0.16
724.695	-0.16
724.874	0.05
725.054	0.07
725.234	-0.05
725.413	0.06
725.593	-0.07
725.772	-0.06
725.952	-0.01
726.131	-0.05
726.311	-0.04
726.49	-0.05
726.67	-0.15
726.849	-0.02
727.028	0.06
727.208	-0.03
727.387	-0.02
727.567	-0.17
727.746	-0.06
727.925	0.06
728.105	-0.2
728.284	0.02
728.463	-0.28
728.643	-0.03
728.822	-0.06
729.001	-0.1
729.18	0.03
729.359	0.03
729.539	-0.1
729.718	-0.08
729.897	0.04
730.076	-0.05
730.255	-0.09
730.434	-0.08
730.614	0.02
730.793	0.09
730.972	-0.05
731.151	0
731.33	0.09
731.509	0.08
731.688	-0.01
731.867	-0.04
732.046	-0.16
732.225	0.1
732.404	-0.11
732.583	-0.16
732.762	0.06
732.941	0.07
733.12	0.04
733.298	-0.14
733.477	0.08
733.656	-0.02
733.835	-0.08
734.014	0.05
734.193	-0.04
734.371	-0.01
734.55	0
734.729	-0.12
734.908	-0.04
735.086	0.04
735.265	0.01
735.444	-0.08
735.623	-0.06
735.801	-0.13
735.98	0.02
736.159	-0.07
736.337	-0.04
736.516	0.05
736.694	0.07
736.873	-0.16
737.052	0.12
737.23	0.05
737.409	-0.1
737.587	0.13
737.766	-0.18
737.944	-0.06
738.123	-0.07
738.301	0.02
738.479	-0.1
738.658	-0.02
738.836	-0.23
739.015	-0.04
739.193	-0.01
739.371	-0.18
739.55	-0.05
739.728	-0.25
739.906	0.08
740.085	0.04
740.263	-0.11
740.441	-0.31
740.62	0.07
740.798	0.06
740.976	-0.13
741.154	-0.13
741.332	0.15
741.511	0.02
741.689	0.02
741.867	0.02
742.045	0.04
742.223	0
742.401	-0.04
742.579	-0.12
742.757	0.02
742.935	-0.03
743.114	-0.14
743.292	-0.11
743.47	-0.02
743.648	-0.02
743.826	-0.19
744.004	-0.05
744.181	0.15
744.359	0.01
744.537	-0.03
744.715	-0.08
744.893	0.08
745.071	-0
745.249	-0.07
745.427	-0.01
745.605	0.12
745.782	-0.08
745.96	0.1
746.138	0.07
746.316	0.06
746.493	-0.03
746.671	0.05
746.849	-0.01
747.027	0.17
747.204	-0.02
747.382	0.04
747.56	-0.15
747.737	0.03
747.915	-0.08
748.093	-0.09
748.27	-0.13
748.448	-0.04
748.625	-0.2
748.803	-0.07
748.98	-0.07
749.158	0.05
749.335	0.05
749.513	-0.03
749.69	0.03
749.868	0.02
750.045	0.03
750.223	-0.11
750.4	-0.2
750.578	0.2
750.755	-0.01
750.932	-0.21
751.11	0.12
751.287	-0.19
751.464	0.06
751.642	-0.16
751.819	-0.01
751.996	-0.07
752.173	-0.05
752.351	-0.17
752.528	-0.02
752.705	-0.07
752.882	-0.04
753.06	-0.04
753.237	0.08
753.414	0.15
753.591	0.14
753.768	0
753.945	-0.16
754.122	-0.08
754.299	0.05
754.476	-0.17
754.654	-0.04
754.831	-0.05
755.008	0.03
755.185	-0.07
755.362	-0.18
755.539	0.02
755.716	-0.05
755.892	-0.13
756.069	-0.13
756.246	-0.09
756.423	-0.09
756.6	0.1
756.777	-0.15
756.954	0.05
757.131	0.05
757.307	-0.15
757.484	-0.15
757.661	-0.02
757.838	0.1
758.015	-0.22
758.191	0.03
758.368	0.03
758.545	0.13
758.721	0.07
758.898	-0.07
759.075	-0.07
759.251	0.01
759.428	0.06
759.605	-0.24
759.781	-0.05
759.958	0.01
760.134	0.14
760.311	0
760.488	0.07
760.664	0.17
760.841	-0.06
761.017	-0.07
761.194	0.01
761.37	-0.03
761.547	-0
761.723	-0.09
761.899	0.04
762.076	-0.09
762.252	-0.22
762.429	-0.03
762.605	0.2
762.781	-0.06
762.958	0
763.134	-0.06
763.31	-0.18
763.486	0.04
763.663	-0.2
763.839	-0.01
764.015	-0.23
764.191	-0.11
764.368	-0.02
764.544	-0.03
764.72	0.08
764.896	0.03
765.072	-0.02
765.248	-0.06
765.425	-0.07
765.601	0.03
765.777	0.02
765.953	-0.3
766.129	-0.27
766.305	-0.18
766.481	0.04
766.657	0.07
766.833	0.14
767.009	-0.22
767.185	-0.12
767.361	-0.14
767.537	-0.15
767.713	0.1
767.889	-0.15
768.065	0.06
768.24	-0.09
768.416	0.11
768.592	-0.09
768.768	0.01
768.944	-0.05
769.12	-0.16
769.295	-0.07
769.471	-0.03
769.647	0.03
769.823	0.12
769.998	-0.1
770.174	-0.06
770.35	0.22
770.525	0.25
770.701	-0.02
770.877	-0.03
771.052	-0.11
771.228	0.15
771.403	0.16
771.579	-0.01
771.755	0.22
771.93	-0.05
772.106	-0.04
772.281	-0.23
772.457	-0.07
772.632	0.13
772.808	-0.28
772.983	-0.17
773.159	-0.12
773.334	0.14
773.509	0.13
773.685	-0.09
773.86	0.31
774.036	0.13
774.211	-0.05
774.386	-0.03
774.562	0.04
774.737	0.2
774.912	-0.03
775.087	-0.04
775.263	-0.02
775.438	-0.05
775.613	-0.11
775.788	-0.15
775.964	0.09
776.139	0.43
776.314	-0.19
776.489	-0.04
776.664	0.06
776.839	-0.14
777.014	0.12
777.19	0.09
777.365	0.31
777.54	0.19
777.715	-0.13
777.89	0
778.065	-0.21
778.24	-0.03
778.415	0.12
778.59	-0.17
778.765	-0.14
778.94	0.07
779.115	-0.07
779.289	-0.12
779.464	0.02
779.639	-0.05
779.814	-0.25
779.989	-0.26
780.164	0.2
780.339	-0
780.513	-0.15
780.688	-0.22
780.863	-0.03
781.038	0.12
781.212	-0.27
781.387	-0.02
781.562	0.19
781.737	0.1
781.911	0.12
782.086	-0.28
782.261	-0.06
782.435	0.27
782.61	-0.05
782.784	-0.16
782.959	0.15
783.134	-0.07
783.308	-0.25
783.483	0.09
783.657	0.37
783.832	0.07
784.006	-0.39
784.181	-0.13
784.355	0.11
784.53	0.15
784.704	-0.23
784.878	0.33
785.053	-0.03
785.227	0.2
785.402	0.39
785.576	-0.27
785.75	0.04
785.925	-0.15
786.099	0.24
786.273	0.12
786.448	0.08
786.622	0.33
786.796	-0.02
786.97	-0.09
787.145	0.47
787.319	-0.2
787.493	-0.14
787.667	-0.52
787.841	-0.01
788.015	0.23
788.19	-0.23
788.364	0
788.538	0.09
788.712	0.08
788.886	-0.19
789.06	0.29
789.234	0.21
789.408	-0.11
789.582	-0.09
789.756	-0.12
789.93	-0.25
790.104	-0.13
790.278	-0.2
790.452	-0.13
790.626	-0.13
790.8	-0.27
790.973	0.27
791.147	0.21
791.321	0.26
791.495	-0
791.669	0.16
791.843	-0.13
792.016	-0.07
792.19	0.34
792.364	-0.22
792.538	0.31
792.711	0.38
792.885	-0.03
793.059	-0.26
793.233	-0.47
793.406	0.12
793.58	-0.07
793.754	0.18
793.927	-0.27
794.101	0.14
794.274	0.16
794.448	-0
794.622	-0.13
794.795	0.52
794.969	-0.27
795.142	0.34
795.316	-0.12
795.489	-0.18
795.663	0.25
795.836	-0.14
796.009	-0.18
796.183	0
796.356	0.04
796.53	0.01
796.703	-0.13
796.876	0.56
797.05	-0.21
797.223	-0.28
797.396	-0.1
797.57	0.06
797.743	0.33
797.916	-0.03
798.09	0.06
798.263	0.13
798.436	-0.12
798.609	-0.18
798.782	-0.27
798.956	0.12
799.129	-0.17
799.302	-0.25
799.475	-0.28
799.648	-0.18
799.821	-0.34
799.994	-0.08
800.167	-0.35
800.34	-0.03
800.514	-0.02
800.687	-0.22
800.86	-0.41
801.033	0.29
801.206	0.04
801.379	-0.28
801.551	0.38
801.724	0.09
801.897	0.21
802.07	-0.16
802.243	-0.31
802.416	0.08
802.589	-0.11
802.762	0.15
802.935	-0.05
803.107	0.27
803.28	0.26
803.453	0.23
803.626	-0.34
803.798	0.13
803.971	-0.17
804.144	-0.04
804.317	0.4
804.489	0.22
804.662	0.06
804.835	0.06
805.007	-0.35
805.18	0.44
805.353	0.08
805.525	-0.29
805.698	-0.28
805.87	0.61
806.043	0.37
806.215	-0.5
806.388	-0.25
806.56	0.05
806.733	0.51
806.905	-0.17
807.078	-0.17
807.25	-0.32
807.423	0.32
807.595	0.05
807.768	-0.2
807.94	0.57
808.112	0.02
808.285	0.07
808.457	-0.17
808.629	0.06
808.802	0.29
808.974	0.05
809.146	-0.06
809.318	-0.55
809.491	0.37
809.663	0.15
809.835	-0.45
810.007	0.34
810.18	-0.06
810.352	-0.36
810.524	-0.15
810.696	0.12
810.868	0.37
811.04	-0.23
811.212	-0.18
811.384	0.4
811.556	0.37
811.728	-0.27
811.901	0.6
812.073	0.04
812.245	0.42
812.417	-0.08
812.589	-0.83
812.76	-0.1
812.932	0.11
813.104	0.04
813.276	-0.1
813.448	0.23
813.62	0.12
813.792	0.04
813.964	-0.34
814.136	-0.27
814.307	-0.16
814.479	-0.4
814.651	-0.38
814.823	0.6
814.995	0.08
815.166	0.05
815.338	0.14
815.51	-0.77
815.681	0.76
815.853	0.06
816.025	-0.19
816.196	0.67
816.368	0.68
816.54	-0.31
816.711	-0.15
816.883	0.38
817.054	0.94
817.226	-0.31
817.398	0.38
817.569	-0.28
817.741	0.39
817.912	0.37
818.084	0.22
818.255	0.14
818.426	-0.38
818.598	-0.31
818.769	-0.24
818.941	0.49
819.112	1
819.283	0.01
819.455	-0.3
819.626	-0.2
819.798	0.53
819.969	0.34
820.14	-0.43
820.311	-0.47
820.483	-0.03
820.654	0.37
820.825	-0.15
820.996	-0.05
821.168	-0.52
821.339	-0.21
821.51	-0.78
821.681	0.02
821.852	-0.2
822.023	-0.06
822.195	-0.43
822.366	0.17
822.537	-0.13
822.708	-0.12
822.879	-0.17
823.05	0.66
823.221	0.23
823.392	0.36
823.563	-0.1
823.734	0.13
823.905	-0.04
824.076	-0.41
824.247	-0.41
824.418	0.14
824.589	0.76
824.759	-0.31
824.93	-0.56
825.101	-0.96
825.272	0.25
825.443	0.54
825.614	0.69
825.784	-1.05
825.955	1.26
826.126	-0.07
826.297	0.02
826.467	0.71
826.638	1
826.809	-1
826.98	0.1
827.15	0.25
827.321	-0.11
827.492	0.05
827.662	0.04
827.833	0.71
828.003	0.01
828.174	-0.62
828.345	-0.63
828.515	0.23
828.686	0.1
828.856	-0.8
829.027	-0.06
829.197	0.6
829.368	0.18
829.538	-0.35
829.709	-0.53
829.879	-0.02
830.049	-0.28
830.22	-0.55
830.39	-0.16
830.56	0.52
830.731	-0.34
830.901	-0.77
831.072	-0.57
831.242	0.44
831.412	0.19
831.582	0.31
831.753	-1.18
831.923	0.01
832.093	-0.05
832.263	0.06
832.434	-0.54
832.604	-0.41
832.774	0.43
832.944	-0.15
833.114	-0.2
833.284	0.06
833.454	-0.42
833.624	-0.7
833.795	-0.83
833.965	0.51
834.135	0.42
834.305	-0.9
834.475	-0.89
834.645	0.17
834.815	-0.51
834.985	-0.46
835.155	-0.54
835.325	0.41
835.494	0.31
835.664	-0.13
835.834	-1.14
836.004	0.03
836.174	-0.01
836.344	0.29
836.514	-1.01
836.684	-0.68
836.853	0.03
837.023	0.37
837.193	-0.01
837.363	0.19
837.532	0.81
837.702	-0.89
837.872	-0.62
838.041	0.43
838.211	1.68
838.381	-1.28
838.55	-0.01
838.72	1.41
838.89	0.92
839.059	-0.04
839.229	-0.69
839.398	1.61
839.568	-0.14
839.738	-0.08
839.907	1.42
840.077	0.09
840.246	-0.49
840.416	-0.7
840.585	-0.53
840.755	1.21
840.924	0.99
841.093	-0.57
841.263	-0.91
841.432	-0.1
841.602	-0.58
841.771	-1
841.94	-0.37
842.11	2.64
842.279	0.8
842.448	-0.33
842.617	-0.53
842.787	1.46
842.956	-0.52
843.125	-0.42
843.294	0.18
843.464	0.92
843.633	0.26
843.802	-0.9
843.971	-0.02
844.14	0.72
844.309	1.12
844.479	-0.54
844.648	-1.25
844.817	-0.18
844.986	0.46
845.155	0.08
845.324	-0.51
845.493	-0.14
845.662	-0.88
845.831	0.77
846	0.77
846.169	-0.42
846.338	1.49
846.507	0.64
846.676	0.18
846.844	-1.05
847.013	0.25
847.182	-0.7
847.351	-1.02
847.52	-0.38
847.689	0.98
847.858	0.04
848.026	-0.07
848.195	-0.03
848.364	-0.41
848.533	-1.08
848.701	-0.26
848.87	0.25
849.039	0.32
849.207	0.67
849.376	1.26
849.545	1.78
849.713	-0.37
849.882	0.91
850.051	-0.12
850.219	0.63
850.388	1.16
850.556	-1.66
850.725	-0.09
850.893	-0.02
851.062	-0.68
851.23	0.49
851.399	-0.99
851.567	-0.35
851.736	-0.23
851.904	-1.48
852.073	0.21
852.241	1
852.41	-0.87
852.578	-0.49
852.746	0.06
852.915	1.43
853.083	-0.25
853.251	-0.91
853.42	-0.09
853.588	0.6
853.756	0.86
853.924	-1.07
854.093	-0.96
854.261	-1.06
854.429	-1.63
854.597	0.78
854.765	-1.66
854.934	2.09
855.102	0.61
855.27	-0.33
855.438	1.05
855.606	1.29
855.774	1.5
855.942	-1.69
856.11	-2.18
856.278	0.11
856.446	0.68
856.614	-0.89
856.782	-0.29
856.95	1.48
857.118	0.16
857.286	0.63
857.454	-1.34
857.622	1.23
857.79	0.35
857.958	-0.92
858.126	-1.4
858.294	-2.28
858.462	0.38
858.629	-0.39
858.797	-0.96
858.965	0.05
859.133	-0.07
859.301	0.17
859.468	0.39
859.636	-0.56
859.804	1.17
859.971	0.72
860.139	-1.22
860.307	0.49
860.474	0.01
860.642	-1.63
860.81	-1.4
860.977	0.88
861.145	1.12
861.313	-1.04
861.48	-1.02
861.648	1.62
861.815	-0.11
861.983	-2.36
862.15	-0.45
862.318	0.8
862.485	0.16
862.653	-1.49
862.82	-1.38
862.988	1.62
863.155	1.34
863.322	-1.34
863.49	-0.78
863.657	-0.58
863.824	3.27
863.992	0.25
864.159	1.23
864.326	1.61
864.494	-1.5
864.661	2.86
864.828	-2.25
864.996	2.03
865.163	1.5
865.33	0.03
865.497	-1.71
865.664	-0.76
865.832	-2.5
865.999	-0.09
866.166	-1.2
866.333	-0.6
866.5	-1.2
866.667	0.2
866.834	0.17
867.001	2.89
867.168	-3.02
867.335	-0.71
867.502	-1.97
867.669	-0.04
867.836	2.89
868.003	0.13
868.17	0.63
868.337	3.19
868.504	3.3
868.671	-1.59
868.838	-1.43
869.005	0.82
869.172	0.94
869.339	1.29
869.505	0.22
869.672	-1.28
869.839	3.45
870.006	-0.94
870.173	-1.43
870.339	-0.01
870.506	3.54
870.673	-0.84
870.84	0.9
871.006	0.83
871.173	0.07
871.34	-0.3
871.506	-1.83
871.673	0.21
871.839	-2.42
872.006	-0.83
872.173	-0.21
872.339	1.06
872.506	0.8
872.672	-1.15
872.839	-1.76
873.005	-0.25
873.172	2.9
873.338	1.5
873.505	-1.21
873.671	1.1
873.838	1.2
874.004	-3.25
874.171	-1.76
874.337	0.64
874.503	2.84
874.67	0.29
874.836	-0.45
875.002	0.64
875.169	1.17
875.335	1.08
875.501	-0.66
875.668	1.09
875.834	-0.12
876	-1.83
876.166	0.75
876.332	2.32
876.499	2.94
876.665	-0.22
876.831	-1.31
876.997	4.05
877.163	0.41
877.329	-0.84
877.495	0.95
877.662	1.03
877.828	0.24
877.994	-0.46
878.16	-4.34
878.326	-1.72
878.492	1.3
878.658	0.02
878.824	0.8
878.99	2.51
879.156	-0.3
879.322	0.94
879.487	0.15
879.653	0.26
879.819	-0.2
879.985	-2.43
880.151	1.21
880.317	-1.1
880.483	0.79
880.648	1.07
880.814	-2.74
880.98	-0.28
881.146	-3.83
881.312	-0.58
881.477	-0.71
881.643	0.68
881.809	0.94
881.974	0.55
882.14	-3.08
882.306	-0.69
882.471	3.22
882.637	-0.11
882.803	0.68
882.968	2.13
883.134	2.73
883.299	-1.29
883.465	-0.15
883.63	2.72
883.796	1.72
883.961	0.47
884.127	-0.67
884.292	-3.58
884.458	-1.2
884.623	-1.2
