Data from Apollo_Calib_20240827__AbsoluteIrradiance__577__08-46-00-246.txt Node

Date: Wed Aug 28 08:46:00 BST 2024
User: biology
Spectrometer: FLMT08252
Trigger mode: 0
Integration Time (sec): 5.000000E-1
Scans to average: 5
Electric dark correction enabled: true
Nonlinearity correction enabled: false
Boxcar width: 0
XAxis mode: Wavelengths
Number of Pixels in Spectrum: 3648
>>>>>Begin Spectral Data<<<<<
179.588	-0
179.809	-0
180.03	-0
180.251	-0
180.473	-0
180.694	0
180.915	0
181.136	-0
181.357	0
181.578	0
181.799	0
182.02	-0
182.241	-0
182.462	-0
182.683	0
182.904	-0
183.125	-0
183.346	0
183.567	0
183.788	0
184.009	-0
184.23	0
184.451	0
184.672	0
184.892	-0
185.113	0
185.334	0
185.555	0
185.776	-0
185.996	0
186.217	0
186.438	0
186.659	-0
186.879	0
187.1	0
187.321	-0
187.541	-0
187.762	0
187.983	0
188.203	0
188.424	0
188.644	0
188.865	0
189.086	0
189.306	-0
189.527	0
189.747	0
189.968	-0
190.188	0
190.409	0
190.629	0
190.849	-0
191.07	0
191.29	0
191.511	0
191.731	0
191.951	-0
192.172	0
192.392	-0
192.612	0
192.833	-0
193.053	0
193.273	0
193.493	0
193.714	0
193.934	0
194.154	0
194.374	0
194.594	0
194.815	0
195.035	0
195.255	0
195.475	-0
195.695	0
195.915	0
196.135	0
196.355	0
196.575	0
196.795	0
197.015	-0
197.235	0
197.455	-0
197.675	0
197.895	-0
198.115	0
198.335	0
198.555	0
198.775	-0
198.995	0
199.214	0
199.434	0
199.654	0
199.874	0
200.094	1.32
200.313	0.1
200.533	0.17
200.753	-0.61
200.973	0.96
201.192	0.59
201.412	-0.76
201.632	-0.03
201.851	0.96
202.071	0.02
202.291	-0.21
202.51	-0.52
202.73	0.7
202.95	0.03
203.169	-0.45
203.389	0.05
203.608	0.6
203.828	0.17
204.047	-0.03
204.267	0.8
204.486	0.12
204.706	0.3
204.925	0.35
205.145	0.08
205.364	0.62
205.583	1.03
205.803	0.11
206.022	-0.51
206.242	0.36
206.461	0.05
206.68	0.04
206.9	0.23
207.119	0.63
207.338	0.52
207.557	-0.13
207.777	0.17
207.996	0.28
208.215	0.67
208.434	0.26
208.654	-0.46
208.873	0.43
209.092	0.99
209.311	0.04
209.53	0.21
209.749	0.27
209.968	-0.1
210.187	0.21
210.407	-0.16
210.626	0.19
210.845	0.4
211.064	0.15
211.283	0.11
211.502	0.38
211.721	0.18
211.94	-0.01
212.159	0.31
212.377	0.57
212.596	0.7
212.815	0.27
213.034	0.11
213.253	0.34
213.472	0.32
213.691	-0.03
213.91	-0.11
214.128	-0.13
214.347	0.49
214.566	-0.04
214.785	-0.06
215.003	0.18
215.222	0.24
215.441	0.19
215.66	-0.18
215.878	-0.08
216.097	0.29
216.316	-0.13
216.534	-0.06
216.753	0.12
216.972	0.05
217.19	0.08
217.409	-0.1
217.627	-0.05
217.846	0.15
218.064	0.14
218.283	-0.08
218.501	0.72
218.72	0.38
218.938	-0.05
219.157	0.09
219.375	0.21
219.594	0.27
219.812	-0.05
220.031	-0.12
220.249	0.33
220.467	0.28
220.686	0.05
220.904	-0.04
221.122	-0
221.341	0.4
221.559	0.14
221.777	-0.06
221.995	0.09
222.214	0.23
222.432	-0.03
222.65	0.29
222.868	0.02
223.086	0.17
223.305	0.22
223.523	0.08
223.741	0.33
223.959	-0.16
224.177	-0.26
224.395	-0.01
224.613	0.17
224.831	0.23
225.049	-0.15
225.267	0.04
225.485	0.1
225.703	0.05
225.921	0.19
226.139	-0.13
226.357	0.29
226.575	0.1
226.793	-0.08
227.011	0.58
227.229	0.12
227.447	0.12
227.665	0.04
227.883	-0.1
228.1	0.09
228.318	0.15
228.536	-0.09
228.754	-0.06
228.972	0.06
229.189	0.14
229.407	0.02
229.625	0.07
229.843	0.21
230.06	0.13
230.278	0.04
230.496	0.07
230.713	0.07
230.931	0.21
231.149	-0
231.366	-0.13
231.584	0.02
231.801	0.49
232.019	0.11
232.236	-0.03
232.454	-0.04
232.671	0.17
232.889	0.03
233.106	-0.11
233.324	-0.01
233.541	0.08
233.759	0.08
233.976	-0.05
234.194	0.02
234.411	0.11
234.628	-0.04
234.846	0.07
235.063	0.02
235.28	0.03
235.498	0.06
235.715	-0.11
235.932	0.22
236.149	0.06
236.367	0.11
236.584	0.09
236.801	-0.04
237.018	0.16
237.236	0.05
237.453	-0.17
237.67	0.19
237.887	0.09
238.104	0.01
238.321	-0.08
238.538	-0.02
238.755	0.17
238.973	0.01
239.19	-0.03
239.407	0.16
239.624	0.07
239.841	-0.06
240.058	-0.03
240.275	0.12
240.492	0.01
240.709	0.05
240.925	0.03
241.142	0.01
241.359	0.01
241.576	-0.06
241.793	0.04
242.01	0.1
242.227	0.19
242.444	0.09
242.66	0.2
242.877	0.06
243.094	-0.07
243.311	0.12
243.527	0.05
243.744	-0.01
243.961	0.19
244.178	-0.03
244.394	-0.06
244.611	0.12
244.828	0.2
245.044	-0.05
245.261	0.05
245.477	0.09
245.694	0.14
245.911	-0.06
246.127	0.07
246.344	0.2
246.56	0.12
246.777	0.03
246.993	0.01
247.21	0.13
247.426	0.03
247.643	0.03
247.859	-0.14
248.076	0.02
248.292	0.22
248.508	-0.03
248.725	0.16
248.941	0.16
249.157	0.08
249.374	0.06
249.59	0.03
249.806	0.08
250.023	0.1
250.239	0
250.455	-0.02
250.671	0.14
250.888	0.11
251.104	0.1
251.32	-0.04
251.536	0.02
251.752	0.06
251.969	0.01
252.185	0.09
252.401	0.25
252.617	0.05
252.833	0.1
253.049	0.02
253.265	0.04
253.481	0.03
253.697	-0.04
253.913	-0.03
254.129	0.06
254.345	0.06
254.561	0.06
254.777	-0.07
254.993	0.08
255.209	0.09
255.425	0.1
255.641	-0.06
255.857	0.12
256.073	0.07
256.288	-0.08
256.504	0.01
256.72	0.04
256.936	0.1
257.152	0.08
257.367	0
257.583	0.03
257.799	0.17
258.015	-0.02
258.23	0
258.446	0.17
258.662	0.07
258.877	0
259.093	0.03
259.309	-0.01
259.524	-0.01
259.74	0.04
259.955	-0.05
260.171	0.07
260.387	0.04
260.602	0.15
260.818	0.12
261.033	-0.07
261.249	0.01
261.464	-0.01
261.68	-0.04
261.895	0.07
262.11	0.16
262.326	0.02
262.541	-0.06
262.757	0.04
262.972	0.06
263.187	-0.02
263.403	0.05
263.618	0.09
263.833	0.01
264.049	-0.01
264.264	0.02
264.479	0.11
264.694	0.09
264.91	-0.05
265.125	-0.04
265.34	0.08
265.555	0.21
265.77	0.04
265.986	0
266.201	0.09
266.416	0.15
266.631	0.05
266.846	0.07
267.061	0.06
267.276	0.13
267.491	-0.11
267.706	0.1
267.921	0.1
268.136	0.07
268.351	0.04
268.566	-0.06
268.781	0.09
268.996	0.02
269.211	-0.05
269.426	-0.03
269.641	0.02
269.856	0.04
270.071	-0.06
270.285	0.02
270.5	0.07
270.715	0.08
270.93	0.09
271.145	0.07
271.359	0.09
271.574	-0.01
271.789	0.02
272.004	-0.02
272.218	-0.02
272.433	0.06
272.648	-0.01
272.862	0.1
273.077	-0.02
273.292	0.08
273.506	-0.05
273.721	0.02
273.936	0.06
274.15	0.1
274.365	-0.04
274.579	0.06
274.794	0.08
275.008	0.09
275.223	-0.05
275.437	0.02
275.652	0.1
275.866	0.03
276.081	0.06
276.295	0.05
276.509	0.04
276.724	0.01
276.938	0.02
277.153	0.07
277.367	0.09
277.581	0.02
277.796	0.04
278.01	-0.03
278.224	0.12
278.438	0.1
278.653	0.02
278.867	0.01
279.081	-0.18
279.295	0
279.51	0.11
279.724	-0.08
279.938	0.11
280.152	0.07
280.366	0.04
280.58	0.03
280.794	0.13
281.008	0.06
281.222	0.1
281.437	0.19
281.651	0.11
281.865	0.09
282.079	0.03
282.293	-0.03
282.507	-0.03
282.721	0.04
282.935	0.07
283.148	-0
283.362	-0.03
283.576	-0.01
283.79	0.02
284.004	-0
284.218	0.1
284.432	0.05
284.646	0.02
284.859	0.05
285.073	0.03
285.287	0.02
285.501	0.04
285.714	0.03
285.928	0.02
286.142	0.03
286.356	-0.03
286.569	-0.01
286.783	0.05
286.997	0.04
287.21	0.01
287.424	0.04
287.637	-0.01
287.851	-0
288.065	0.08
288.278	0.03
288.492	0.05
288.705	0.03
288.919	0.07
289.132	-0.01
289.346	0.09
289.559	-0.01
289.773	0.01
289.986	-0.02
290.2	0.04
290.413	0.12
290.626	-0.02
290.84	0.02
291.053	0.05
291.267	0.12
291.48	0.06
291.693	0.04
291.906	0.02
292.12	0.05
292.333	-0.01
292.546	0.03
292.76	0.12
292.973	0.06
293.186	0.05
293.399	-0
293.612	0.06
293.826	0.04
294.039	0.05
294.252	0.04
294.465	0.06
294.678	0.05
294.891	0.07
295.104	0.01
295.317	0.04
295.53	0.05
295.743	0.04
295.956	0.05
296.169	0.08
296.382	0.13
296.595	0.01
296.808	-0.03
297.021	0.05
297.234	0.04
297.447	0.05
297.66	0.04
297.873	0.09
298.086	0.08
298.299	0.03
298.511	0.01
298.724	-0.03
298.937	0.01
299.15	0.04
299.363	0.01
299.575	0.05
299.788	0.07
300.001	0.05
300.213	0.01
300.426	0.04
300.639	0.02
300.852	0
301.064	0.04
301.277	0.12
301.489	0.06
301.702	0.08
301.915	0.01
302.127	0.03
302.34	0.03
302.552	0.02
302.765	0
302.977	0.06
303.19	0.02
303.402	0.02
303.615	-0
303.827	-0
304.04	-0
304.252	0.04
304.464	0.02
304.677	0.12
304.889	0.07
305.102	0.02
305.314	-0
305.526	0.09
305.739	0.07
305.951	0.02
306.163	0
306.375	0.1
306.588	-0.01
306.8	0.01
307.012	0.01
307.224	0
307.436	0.08
307.649	-0.06
307.861	0.08
308.073	0.05
308.285	0.02
308.497	-0.02
308.709	0.02
308.921	0.04
309.133	0.07
309.346	0.03
309.558	-0.01
309.77	0.11
309.982	0.08
310.194	0.06
310.406	-0.04
310.617	0.09
310.829	0.05
311.041	0.07
311.253	0
311.465	0.04
311.677	0.07
311.889	0.01
312.101	-0.04
312.313	0.09
312.524	0.08
312.736	-0.02
312.948	0.05
313.16	0.11
313.372	0.08
313.583	0.07
313.795	-0.01
314.007	-0
314.218	0.05
314.43	0.04
314.642	0.02
314.853	0.03
315.065	0.07
315.277	0.02
315.488	0.04
315.7	0.09
315.912	0.06
316.123	-0.01
316.335	0.03
316.546	0.16
316.758	0.07
316.969	0
317.181	0.02
317.392	-0.01
317.604	0.08
317.815	-0.03
318.026	0.02
318.238	0
318.449	0
318.661	-0.03
318.872	-0.04
319.083	0
319.295	0.09
319.506	0.02
319.717	0.07
319.929	0.06
320.14	0.04
320.351	0.06
320.562	0
320.774	-0.01
320.985	0.04
321.196	0.02
321.407	-0.02
321.618	0.03
321.829	0.06
322.041	0.08
322.252	0.04
322.463	0.03
322.674	0.05
322.885	0.05
323.096	0.02
323.307	0.02
323.518	0.04
323.729	0
323.94	0.05
324.151	0.02
324.362	0.02
324.573	0.02
324.784	0.02
324.995	0.1
325.206	0.1
325.417	-0.02
325.628	0.01
325.838	0.04
326.049	0.07
326.26	0.09
326.471	0.03
326.682	0.02
326.892	0.04
327.103	-0.01
327.314	-0.01
327.525	0.1
327.735	-0.01
327.946	0.05
328.157	-0.01
328.368	0.05
328.578	-0.01
328.789	0.1
328.999	0.05
329.21	-0.01
329.421	0.03
329.631	-0
329.842	-0.01
330.052	0.06
330.263	0.12
330.473	0.06
330.684	0.03
330.894	0.02
331.105	0.08
331.315	0.01
331.526	-0.05
331.736	0.09
331.947	0.03
332.157	0.06
332.367	-0.01
332.578	0.07
332.788	0.09
332.999	0.06
333.209	0.03
333.419	-0.03
333.629	0.07
333.84	0.08
334.05	0.03
334.26	0.09
334.47	0.01
334.681	0.09
334.891	0.02
335.101	0.05
335.311	0.13
335.521	0.04
335.732	-0.01
335.942	0.07
336.152	0.11
336.362	0.05
336.572	0.02
336.782	0.07
336.992	0.05
337.202	-0.01
337.412	0
337.622	0.06
337.832	0.03
338.042	0.05
338.252	0
338.462	0.05
338.672	0.05
338.882	0.02
339.092	0.04
339.302	0.14
339.511	0.02
339.721	-0.06
339.931	0.04
340.141	0.12
340.351	0.1
340.561	0.05
340.77	0.06
340.98	0.04
341.19	0.05
341.4	0.03
341.609	0.01
341.819	0.02
342.029	0.01
342.238	0.03
342.448	0
342.658	0.04
342.867	0.04
343.077	0.03
343.286	0.02
343.496	0.04
343.706	0.11
343.915	0.01
344.125	0.05
344.334	0.02
344.544	-0.04
344.753	0.05
344.963	-0.02
345.172	0.04
345.381	0.01
345.591	0.01
345.8	0.06
346.01	0.1
346.219	0.1
346.428	-0.12
346.638	0.01
346.847	0
347.056	0.09
347.266	0.01
347.475	0.04
347.684	0.05
347.893	0.02
348.103	0.01
348.312	-0
348.521	0.05
348.73	0
348.94	0.05
349.149	0.02
349.358	0.04
349.567	-0.02
349.776	-0.02
349.985	0.02
350.194	0.07
350.403	0.08
350.612	-0.02
350.821	0.01
351.03	0.05
351.239	-0.01
351.448	0.03
351.657	-0.01
351.866	0.11
352.075	0.02
352.284	0.07
352.493	0
352.702	0.05
352.911	0.03
353.12	0.06
353.329	0.02
353.538	0.03
353.746	0.01
353.955	0.02
354.164	0.02
354.373	0.01
354.582	0.02
354.79	0.03
354.999	0.05
355.208	-0
355.416	0.11
355.625	-0.05
355.834	-0.01
356.042	0.04
356.251	0.03
356.46	-0.03
356.668	0.05
356.877	0.11
357.085	0.09
357.294	-0.07
357.503	0.02
357.711	0.03
357.92	0.15
358.128	0.02
358.337	0
358.545	0.05
358.754	0.01
358.962	0.04
359.17	0.01
359.379	0.01
359.587	0.05
359.796	0.03
360.004	0.04
360.212	0.08
360.421	0.09
360.629	0.01
360.837	0.05
361.046	0.08
361.254	0.1
361.462	0.04
361.67	-0.03
361.879	0.04
362.087	0.06
362.295	0.05
362.503	0.03
362.711	-0.03
362.92	-0.01
363.128	-0
363.336	0.02
363.544	-0.03
363.752	0.01
363.96	0.01
364.168	-0
364.376	0
364.584	-0.01
364.792	0.07
365	0.06
365.208	0.06
365.416	0.07
365.624	0.05
365.832	0.02
366.04	0.04
366.248	0.02
366.456	0.04
366.664	0.01
366.872	0.02
367.079	0.01
367.287	0.06
367.495	0.05
367.703	-0.01
367.911	0.01
368.118	0.01
368.326	0.04
368.534	-0.05
368.742	0.12
368.949	-0.02
369.157	-0.01
369.365	0.05
369.572	0.02
369.78	0.01
369.988	0.06
370.195	0.04
370.403	0.06
370.61	0.01
370.818	0.04
371.026	0.06
371.233	-0.01
371.441	0.04
371.648	0.01
371.856	0.04
372.063	0.02
372.271	-0.02
372.478	0
372.685	0.02
372.893	0.05
373.1	0.04
373.308	-0.02
373.515	0.12
373.722	0.07
373.93	0.04
374.137	0.04
374.344	0.11
374.552	0.06
374.759	0.05
374.966	-0.01
375.173	-0.02
375.381	0.04
375.588	0.05
375.795	-0.02
376.002	-0
376.209	-0.04
376.417	-0.01
376.624	0.04
376.831	0.03
377.038	0.03
377.245	-0.05
377.452	0.04
377.659	-0
377.866	0.01
378.073	0
378.28	0.07
378.487	0.11
378.694	0.04
378.901	0.01
379.108	0.04
379.315	0.06
379.522	0.09
379.729	0.01
379.936	0.02
380.143	0.05
380.35	0.04
380.557	0.02
380.763	0.06
380.97	0.01
381.177	0.05
381.384	0.06
381.591	0.04
381.797	0.06
382.004	0.02
382.211	0.06
382.418	-0.03
382.624	0.09
382.831	0.05
383.038	0.01
383.244	0.03
383.451	0.04
383.658	0.04
383.864	-0.01
384.071	0.01
384.277	0.08
384.484	0
384.69	0.06
384.897	0.05
385.103	0.02
385.31	0.01
385.516	0.04
385.723	-0
385.929	-0.01
386.136	-0.02
386.342	0.01
386.549	0.02
386.755	0.05
386.961	0.05
387.168	0
387.374	0.01
387.58	0.07
387.787	0.04
387.993	0.02
388.199	0.02
388.406	0.01
388.612	0.02
388.818	0.03
389.024	0.01
389.231	0.02
389.437	0.06
389.643	0.04
389.849	0
390.055	-0.02
390.261	0
390.467	0.06
390.674	-0.02
390.88	0.03
391.086	0.02
391.292	0
391.498	0.03
391.704	0.02
391.91	0.01
392.116	0
392.322	-0.07
392.528	0.02
392.734	-0
392.94	-0
393.146	-0.03
393.352	0.01
393.557	-0.02
393.763	0.04
393.969	0.04
394.175	0.05
394.381	0.04
394.587	-0.01
394.792	-0.01
394.998	0.06
395.204	0.08
395.41	-0.01
395.615	0.06
395.821	0.03
396.027	0.04
396.233	-0.02
396.438	0.04
396.644	0.11
396.85	0.03
397.055	0.05
397.261	0.04
397.466	-0.03
397.672	0.01
397.878	0.08
398.083	0.01
398.289	-0.05
398.494	0.07
398.7	0.04
398.905	-0.02
399.111	0.07
399.316	0.02
399.522	0.05
399.727	0.04
399.932	0
400.138	0.03
400.343	0.02
400.549	0.04
400.754	0.09
400.959	0.07
401.165	0.01
401.37	0.07
401.575	0.02
401.78	0.04
401.986	0
402.191	-0.02
402.396	0.01
402.601	0.04
402.807	0.04
403.012	-0
403.217	0.06
403.422	0.01
403.627	-0.01
403.832	-0
404.037	0.06
404.243	0.06
404.448	-0.01
404.653	-0.04
404.858	0.04
405.063	0.03
405.268	-0.01
405.473	0.04
405.678	0.02
405.883	0.13
406.088	0.04
406.293	0.01
406.498	0.01
406.703	0.05
406.907	0.01
407.112	0.01
407.317	0
407.522	0.06
407.727	-0.03
407.932	0.06
408.136	0.08
408.341	0.03
408.546	0.03
408.751	0.02
408.956	-0
409.16	0.07
409.365	-0.02
409.57	-0.04
409.774	0.03
409.979	0.05
410.184	0.02
410.388	-0.03
410.593	0.13
410.798	0.06
411.002	0.01
411.207	0.03
411.411	0.01
411.616	-0.06
411.82	0.01
412.025	0.04
412.229	-0.02
412.434	0.07
412.638	0.04
412.843	-0.03
413.047	0.03
413.252	0.01
413.456	-0.01
413.66	0.03
413.865	0.02
414.069	0.07
414.273	0.04
414.478	-0.03
414.682	0.01
414.886	-0.01
415.091	-0.01
415.295	-0.06
415.499	0.05
415.703	0
415.908	0.02
416.112	-0.07
416.316	-0.01
416.52	0.02
416.724	-0
416.929	0
417.133	0.13
417.337	0.04
417.541	0.04
417.745	-0.06
417.949	0.05
418.153	0.01
418.357	-0.02
418.561	0.13
418.765	-0.01
418.969	0.1
419.173	0.06
419.377	0.01
419.581	0.07
419.785	-0.05
419.989	-0.03
420.193	-0
420.397	0.01
420.601	0.04
420.804	0.02
421.008	0.04
421.212	0
421.416	0.08
421.62	-0.01
421.823	0.02
422.027	0.1
422.231	0.04
422.435	-0.01
422.638	0.04
422.842	0.01
423.046	-0.04
423.249	0.12
423.453	0.08
423.657	0.03
423.86	0.01
424.064	0.01
424.268	0.05
424.471	-0.01
424.675	0.07
424.878	0.09
425.082	0.01
425.285	0.1
425.489	0.04
425.692	0.03
425.896	-0.04
426.099	0.01
426.303	-0.03
426.506	-0.04
426.71	0.07
426.913	0.08
427.116	0.11
427.32	-0.01
427.523	0.02
427.726	0.13
427.93	0
428.133	0.01
428.336	-0.01
428.54	-0.04
428.743	0.07
428.946	0.05
429.149	-0
429.353	0.02
429.556	0.02
429.759	0.01
429.962	-0.05
430.165	-0.01
430.368	-0.02
430.571	0
430.775	0.04
430.978	0.02
431.181	0.05
431.384	0.03
431.587	-0.01
431.79	0.03
431.993	-0.06
432.196	0
432.399	0.01
432.602	0.05
432.805	0.02
433.008	0.01
433.211	-0
433.414	0.05
433.616	0.05
433.819	0.05
434.022	-0.07
434.225	0.04
434.428	0.04
434.631	0.1
434.833	0.11
435.036	0.05
435.239	0.06
435.442	0.05
435.645	0
435.847	0.04
436.05	0.09
436.253	-0.03
436.455	-0.02
436.658	0.03
436.861	0.06
437.063	-0.02
437.266	0.04
437.468	0.02
437.671	0.16
437.874	0.04
438.076	0.02
438.279	-0.03
438.481	0.01
438.684	-0
438.886	0.04
439.089	-0.09
439.291	0.09
439.494	0.06
439.696	-0.02
439.899	-0.03
440.101	0.02
440.303	-0.07
440.506	0.08
440.708	-0.02
440.91	0.04
441.113	-0.05
441.315	0.04
441.517	-0.01
441.72	0.04
441.922	-0.02
442.124	0.01
442.326	0.06
442.529	0.09
442.731	-0.03
442.933	0.12
443.135	0.03
443.337	-0
443.539	0
443.742	0
443.944	0.07
444.146	0
444.348	0
444.55	-0.02
444.752	0.05
444.954	-0.02
445.156	0.03
445.358	-0
445.56	0.1
445.762	0.02
445.964	-0.02
446.166	0.01
446.368	0.02
446.57	0.1
446.772	-0.01
446.974	0
447.175	0.04
447.377	0.01
447.579	0.01
447.781	-0.05
447.983	0.12
448.184	-0
448.386	0.05
448.588	-0.07
448.79	0.04
448.991	-0.04
449.193	-0.05
449.395	0.01
449.597	0.07
449.798	0.03
450	0.04
450.202	0.06
450.403	0.04
450.605	0.07
450.806	0.03
451.008	-0.04
451.21	0.02
451.411	-0.01
451.613	0.01
451.814	0.03
452.016	0.06
452.217	0.06
452.419	0.07
452.62	0
452.821	0
453.023	0.07
453.224	0.07
453.426	0.02
453.627	0.04
453.828	0.05
454.03	-0.02
454.231	0.05
454.432	-0.03
454.634	0.09
454.835	0.04
455.036	-0.01
455.238	0.04
455.439	0.03
455.64	-0.04
455.841	-0.02
456.042	0.11
456.244	0.02
456.445	-0.02
456.646	-0.01
456.847	0
457.048	0.06
457.249	0.06
457.45	0.17
457.651	-0.01
457.852	0.07
458.054	0.03
458.255	0.01
458.456	0.08
458.657	0.08
458.858	0.02
459.058	0.04
459.259	0.07
459.46	0.02
459.661	-0.02
459.862	0.11
460.063	0
460.264	0.06
460.465	-0.02
460.666	0.12
460.866	0
461.067	0.02
461.268	0
461.469	0.02
461.67	0
461.87	-0.01
462.071	0.03
462.272	-0
462.473	0
462.673	0.11
462.874	-0.02
463.075	0.07
463.275	-0.02
463.476	0.06
463.676	0.02
463.877	0.04
464.078	-0
464.278	0.06
464.479	0.01
464.679	0.02
464.88	0.03
465.08	0.05
465.281	0.03
465.481	0.01
465.682	0.02
465.882	0.07
466.083	0.02
466.283	0.04
466.483	-0.01
466.684	0.01
466.884	0.02
467.085	0.01
467.285	0.06
467.485	0.02
467.686	0.03
467.886	-0.01
468.086	0.03
468.286	0.02
468.487	0.04
468.687	-0.03
468.887	0.03
469.087	0.02
469.287	0.02
469.488	-0.06
469.688	0.02
469.888	0.07
470.088	0.07
470.288	0.1
470.488	0.06
470.688	-0.03
470.888	0
471.088	0.02
471.288	0.05
471.488	0.07
471.688	0.04
471.888	-0
472.088	0.08
472.288	0.06
472.488	0
472.688	-0.02
472.888	0.03
473.088	0.03
473.288	0.04
473.488	0.01
473.688	0.1
473.887	0.06
474.087	0.05
474.287	0.06
474.487	-0.02
474.687	0.05
474.886	0.01
475.086	0.02
475.286	0.05
475.486	0.02
475.685	0.02
475.885	0
476.085	-0.02
476.284	0.03
476.484	0.02
476.684	0.01
476.883	0.07
477.083	0.05
477.282	0
477.482	0.07
477.681	0.06
477.881	0.03
478.08	-0.03
478.28	0
478.479	0.01
478.679	0.09
478.878	0.01
479.078	-0.01
479.277	-0
479.477	0.03
479.676	0.08
479.875	0.03
480.075	-0.03
480.274	0.04
480.473	0.04
480.673	-0.03
480.872	0.04
481.071	0.06
481.271	0.05
481.47	0
481.669	-0
481.868	-0.04
482.067	-0.01
482.267	-0
482.466	0
482.665	0.01
482.864	-0.03
483.063	-0.02
483.262	0.03
483.461	0.05
483.661	0.03
483.86	0.02
484.059	0
484.258	0.02
484.457	0.02
484.656	0
484.855	0.05
485.054	-0.03
485.253	-0.02
485.452	-0.01
485.651	0.01
485.849	-0.01
486.048	0.01
486.247	-0.01
486.446	0.02
486.645	-0.01
486.844	0.01
487.043	0.02
487.241	0.02
487.44	0
487.639	0.01
487.838	0.02
488.037	0.01
488.235	0.06
488.434	0.02
488.633	-0.01
488.831	0.02
489.03	0.04
489.229	0.02
489.427	0.01
489.626	0.03
489.825	0.08
490.023	0.01
490.222	-0
490.42	0.02
490.619	0.06
490.817	0.03
491.016	0
491.214	0.01
491.413	0.01
491.611	0.01
491.81	0.01
492.008	0.02
492.207	0.05
492.405	0.01
492.604	-0.04
492.802	0.02
493	0.03
493.199	-0.01
493.397	0.01
493.595	0.02
493.794	-0.02
493.992	0.05
494.19	0.02
494.388	0.02
494.587	-0.01
494.785	0.01
494.983	-0.04
495.181	-0
495.379	0.01
495.578	0.02
495.776	0.02
495.974	0.03
496.172	0.03
496.37	-0.01
496.568	-0.02
496.766	-0.01
496.964	0.04
497.162	-0
497.36	-0.01
497.558	0.02
497.756	0.01
497.954	0
498.152	-0.04
498.35	-0.01
498.548	-0
498.746	0.01
498.944	-0.02
499.142	-0
499.34	-0.03
499.538	0
499.736	-0
499.933	0.04
500.131	0.06
500.329	-0.01
500.527	0.04
500.725	0.05
500.922	0.02
501.12	0
501.318	0.02
501.516	-0.01
501.713	0.03
501.911	-0
502.109	-0.01
502.306	0.01
502.504	-0
502.701	-0.01
502.899	0.01
503.097	0.05
503.294	-0.01
503.492	-0
503.689	0.01
503.887	0.03
504.084	0.04
504.282	0.02
504.479	-0.01
504.677	0.01
504.874	-0.04
505.072	0.01
505.269	0.01
505.466	0.02
505.664	0.03
505.861	-0.02
506.059	-0.03
506.256	0.04
506.453	0.01
506.651	0.03
506.848	0.03
507.045	0.03
507.242	0.01
507.44	-0.01
507.637	0.02
507.834	0.01
508.031	0.01
508.229	-0.02
508.426	0.03
508.623	0.03
508.82	0
509.017	-0.02
509.214	-0.01
509.411	0.01
509.608	-0.02
509.805	0.02
510.003	0
510.2	0.02
510.397	0.01
510.594	0
510.791	-0.01
510.988	0.01
511.184	0.03
511.381	0.01
511.578	-0.02
511.775	0.03
511.972	0
512.169	0.02
512.366	0.01
512.563	0.04
512.76	-0
512.956	0.02
513.153	-0.01
513.35	0.02
513.547	0.01
513.744	-0
513.94	-0.02
514.137	0.03
514.334	-0
514.53	0
514.727	-0
514.924	0.06
515.12	-0.01
515.317	-0.02
515.514	0.01
515.71	-0.01
515.907	0.02
516.103	0.01
516.3	0.02
516.497	0.04
516.693	0.03
516.89	0.03
517.086	-0.01
517.283	0.05
517.479	0.01
517.676	0.01
517.872	0.01
518.068	-0.02
518.265	-0
518.461	-0.02
518.658	0.01
518.854	0.02
519.05	0.01
519.247	-0.01
519.443	0.02
519.639	0.03
519.836	0.01
520.032	0.02
520.228	0.01
520.424	0.05
520.621	0.02
520.817	0
521.013	0.04
521.209	0.03
521.405	0.05
521.601	0.03
521.798	0.02
521.994	0.04
522.19	0
522.386	-0.03
522.582	0.01
522.778	0.02
522.974	0.01
523.17	0.02
523.366	0
523.562	0.04
523.758	0.02
523.954	-0.01
524.15	0.01
524.346	0.02
524.542	-0
524.738	-0.01
524.934	0.01
525.129	0.01
525.325	0.01
525.521	-0.01
525.717	0.04
525.913	0
526.109	0.02
526.304	0
526.5	0.03
526.696	0.03
526.892	0.02
527.087	0.01
527.283	-0.01
527.479	0.03
527.674	-0.01
527.87	0.01
528.066	-0
528.261	0.03
528.457	0.01
528.653	0.01
528.848	0.01
529.044	0.01
529.239	0.01
529.435	0.04
529.63	0.02
529.826	0.06
530.021	0.01
530.217	0.03
530.412	-0
530.608	0.02
530.803	0
530.999	0.01
531.194	-0.04
531.389	0.01
531.585	-0.04
531.78	-0
531.975	0.03
532.171	0.04
532.366	0
532.561	0.02
532.757	-0
532.952	0.02
533.147	0.02
533.342	0.02
533.538	0.01
533.733	0.05
533.928	0.02
534.123	0.02
534.318	-0.02
534.513	0.01
534.709	0.02
534.904	-0.01
535.099	0
535.294	0.01
535.489	-0.01
535.684	-0
535.879	-0
536.074	0.02
536.269	-0
536.464	0.02
536.659	0.02
536.854	0.01
537.049	0.03
537.244	-0
537.439	0.01
537.634	0.04
537.828	0.03
538.023	-0.01
538.218	-0.01
538.413	-0
538.608	-0.01
538.803	0.03
538.997	-0.02
539.192	0.04
539.387	0.04
539.582	0.01
539.776	0.02
539.971	0
540.166	0.02
540.36	-0.01
540.555	0.04
540.75	-0
540.944	0
541.139	-0.01
541.334	0.01
541.528	0.03
541.723	0.05
541.917	-0
542.112	-0.04
542.306	-0
542.501	-0.02
542.695	0.01
542.89	-0
543.084	0.02
543.279	0.01
543.473	0.02
543.668	0.02
543.862	0.02
544.056	0.03
544.251	0.01
544.445	0.03
544.64	0.01
544.834	0
545.028	0.02
545.222	0.01
545.417	0.01
545.611	-0.01
545.805	0.02
546	-0.01
546.194	0.02
546.388	-0.02
546.582	0.05
546.776	0.02
546.97	0.01
547.165	0.02
547.359	0.06
547.553	0
547.747	0.01
547.941	0.02
548.135	0
548.329	0.03
548.523	0.04
548.717	0
548.911	0.01
549.105	0.02
549.299	0.01
549.493	0.04
549.687	0.04
549.881	0.02
550.075	0.01
550.269	-0.02
550.463	0.03
550.657	-0.01
550.85	0.02
551.044	0
551.238	0.04
551.432	0
551.626	-0.01
551.82	0.03
552.013	0.01
552.207	0.03
552.401	0.04
552.594	0.02
552.788	0.01
552.982	0.03
553.176	-0.01
553.369	0.02
553.563	0.02
553.756	-0.01
553.95	-0.01
554.144	0.01
554.337	0.05
554.531	0.03
554.724	0.04
554.918	0.01
555.111	0.04
555.305	0.01
555.498	0.06
555.692	0.06
555.885	0
556.079	0.03
556.272	0
556.466	0.04
556.659	0.01
556.852	0.03
557.046	0.01
557.239	0.03
557.432	-0.01
557.626	-0
557.819	0.03
558.012	0.03
558.206	0.04
558.399	0.02
558.592	0.02
558.785	0.02
558.979	0.04
559.172	0.03
559.365	0.02
559.558	0
559.751	0.02
559.944	-0.01
560.138	-0.01
560.331	0.01
560.524	-0
560.717	0.01
560.91	0.01
561.103	0.01
561.296	0.01
561.489	0.03
561.682	0.01
561.875	0.03
562.068	0.04
562.261	0.02
562.454	0.05
562.647	0.03
562.84	0.04
563.032	0.02
563.225	0.02
563.418	0.02
563.611	0
563.804	0.03
563.997	-0.01
564.19	-0.02
564.382	-0.03
564.575	0.03
564.768	-0
564.961	0.02
565.153	0
565.346	0.06
565.539	0.04
565.731	0.05
565.924	0.05
566.117	0.05
566.309	0.01
566.502	0.01
566.695	0.02
566.887	0.04
567.08	0.01
567.272	0.02
567.465	0.01
567.657	0.04
567.85	0.05
568.042	0.05
568.235	0.04
568.427	0.01
568.62	0.02
568.812	0.04
569.005	0.02
569.197	-0.01
569.389	0.04
569.582	0.03
569.774	0.02
569.966	-0.01
570.159	-0.02
570.351	0.03
570.543	0.01
570.736	0.03
570.928	0
571.12	0.02
571.312	0.03
571.505	0.01
571.697	0.05
571.889	0.02
572.081	0.02
572.273	-0
572.465	0.05
572.658	0.02
572.85	0.04
573.042	0.03
573.234	0.02
573.426	0.07
573.618	-0.02
573.81	0.03
574.002	0.06
574.194	0.05
574.386	-0.01
574.578	-0.03
574.77	0.02
574.962	0
575.154	-0.02
575.346	0.02
575.538	0.02
575.729	0.03
575.921	0.01
576.113	0.04
576.305	0.04
576.497	0
576.689	0.01
576.88	-0
577.072	0.05
577.264	0.03
577.456	0.04
577.647	-0.01
577.839	0.03
578.031	0.07
578.223	-0
578.414	-0.02
578.606	0.02
578.798	0.04
578.989	0.03
579.181	0.04
579.372	0.02
579.564	0.04
579.755	0.02
579.947	0.03
580.139	0.04
580.33	-0.02
580.522	0
580.713	-0.04
580.905	0.04
581.096	0.04
581.287	0.04
581.479	0.02
581.67	0.04
581.862	0.04
582.053	0.02
582.244	0
582.436	0
582.627	0.02
582.818	0.02
583.01	0.02
583.201	0.07
583.392	0.04
583.583	0.04
583.775	0.02
583.966	0.03
584.157	0.03
584.348	0.03
584.54	-0.02
584.731	0.05
584.922	0.02
585.113	-0
585.304	0.03
585.495	0.04
585.686	0.04
585.877	0.04
586.068	0.04
586.259	0.05
586.45	0.04
586.641	0.02
586.832	-0.01
587.023	0.04
587.214	0.03
587.405	0.04
587.596	0.01
587.787	0.07
587.978	0.06
588.169	0.03
588.36	-0
588.551	0.07
588.742	0.01
588.932	0.04
589.123	0.03
589.314	0.06
589.505	0.07
589.696	0.05
589.886	0.02
590.077	-0.02
590.268	0.05
590.458	0.01
590.649	0.02
590.84	0.04
591.03	0.01
591.221	0
591.412	0
591.602	0.07
591.793	0.07
591.984	0.01
592.174	0.05
592.365	0.08
592.555	0.02
592.746	0.05
592.936	0.06
593.127	0.06
593.317	0.09
593.508	0.04
593.698	0.04
593.889	0.05
594.079	0.06
594.269	0.02
594.46	0.06
594.65	0.05
594.84	0.04
595.031	0.04
595.221	0.02
595.411	0.01
595.602	0.1
595.792	0.03
595.982	0.06
596.172	0.09
596.363	0.08
596.553	0.06
596.743	0.08
596.933	0.08
597.123	0.09
597.314	0.05
597.504	0.05
597.694	0.1
597.884	0.07
598.074	0.08
598.264	0.06
598.454	0.09
598.644	0.08
598.834	0.06
599.024	0.05
599.214	0.07
599.404	0.1
599.594	0.06
599.784	0.03
599.974	0.11
600.164	0.12
600.354	0.06
600.544	0.03
600.734	0.06
600.924	0.11
601.114	0.07
601.303	0.1
601.493	0.09
601.683	0.08
601.873	0.09
602.063	0.06
602.252	0.13
602.442	0.06
602.632	0.08
602.821	0.08
603.011	0.12
603.201	0.09
603.39	0.08
603.58	0.09
603.77	0.11
603.959	0.13
604.149	0.12
604.339	0.11
604.528	0.14
604.718	0.13
604.907	0.09
605.097	0.11
605.286	0.07
605.476	0.14
605.665	0.16
605.855	0.14
606.044	0.18
606.234	0.13
606.423	0.12
606.612	0.13
606.802	0.14
606.991	0.15
607.181	0.15
607.37	0.13
607.559	0.15
607.749	0.14
607.938	0.14
608.127	0.15
608.316	0.13
608.506	0.17
608.695	0.16
608.884	0.14
609.073	0.18
609.263	0.21
609.452	0.19
609.641	0.22
609.83	0.18
610.019	0.15
610.208	0.16
610.397	0.19
610.586	0.24
610.775	0.2
610.965	0.18
611.154	0.18
611.343	0.21
611.532	0.21
611.721	0.2
611.91	0.23
612.099	0.26
612.287	0.22
612.476	0.2
612.665	0.25
612.854	0.21
613.043	0.25
613.232	0.25
613.421	0.22
613.61	0.28
613.798	0.26
613.987	0.31
614.176	0.28
614.365	0.29
614.554	0.32
614.742	0.33
614.931	0.28
615.12	0.35
615.309	0.3
615.497	0.33
615.686	0.31
615.875	0.33
616.063	0.31
616.252	0.33
616.44	0.34
616.629	0.37
616.818	0.38
617.006	0.4
617.195	0.39
617.383	0.41
617.572	0.39
617.76	0.39
617.949	0.41
618.137	0.43
618.326	0.43
618.514	0.39
618.703	0.44
618.891	0.54
619.079	0.42
619.268	0.51
619.456	0.48
619.644	0.53
619.833	0.48
620.021	0.49
620.209	0.51
620.398	0.56
620.586	0.54
620.774	0.61
620.962	0.55
621.151	0.63
621.339	0.59
621.527	0.54
621.715	0.57
621.903	0.61
622.092	0.62
622.28	0.68
622.468	0.63
622.656	0.68
622.844	0.67
623.032	0.7
623.22	0.66
623.408	0.75
623.596	0.69
623.784	0.8
623.972	0.75
624.16	0.77
624.348	0.83
624.536	0.82
624.724	0.8
624.912	0.91
625.1	0.89
625.288	0.85
625.476	0.85
625.664	0.96
625.851	0.91
626.039	0.98
626.227	1
626.415	1
626.603	0.97
626.79	1.06
626.978	1.07
627.166	1.09
627.354	1.09
627.541	1.08
627.729	1.05
627.917	1.19
628.104	1.21
628.292	1.19
628.48	1.25
628.667	1.24
628.855	1.3
629.042	1.35
629.23	1.33
629.418	1.37
629.605	1.38
629.793	1.36
629.98	1.42
630.168	1.44
630.355	1.45
630.543	1.52
630.73	1.49
630.917	1.59
631.105	1.65
631.292	1.62
631.48	1.64
631.667	1.77
631.854	1.68
632.042	1.74
632.229	1.7
632.416	1.79
632.604	1.82
632.791	1.77
632.978	1.91
633.165	1.95
633.353	1.99
633.54	2.06
633.727	1.96
633.914	2.02
634.101	1.99
634.289	2.2
634.476	2.17
634.663	2.18
634.85	2.19
635.037	2.21
635.224	2.22
635.411	2.4
635.598	2.38
635.785	2.4
635.972	2.4
636.159	2.53
636.346	2.54
636.533	2.57
636.72	2.62
636.907	2.64
637.094	2.65
637.281	2.65
637.468	2.82
637.655	2.8
637.842	2.89
638.029	2.92
638.215	3
638.402	3.04
638.589	3.02
638.776	3.06
638.963	3.13
639.149	3.22
639.336	3.33
639.523	3.28
639.709	3.35
639.896	3.42
640.083	3.5
640.27	3.63
640.456	3.57
640.643	3.66
640.829	3.68
641.016	3.79
641.203	3.74
641.389	3.92
641.576	3.95
641.762	4.02
641.949	4.03
642.135	4.16
642.322	4.18
642.508	4.24
642.695	4.42
642.881	4.38
643.068	4.43
643.254	4.64
643.441	4.66
643.627	4.78
643.813	4.77
644	4.94
644.186	4.94
644.372	5.11
644.559	5.1
644.745	5.25
644.931	5.31
645.118	5.47
645.304	5.58
645.49	5.64
645.676	5.7
645.862	5.9
646.049	6.05
646.235	6.04
646.421	6.38
646.607	6.42
646.793	6.4
646.979	6.4
647.165	6.62
647.352	6.79
647.538	6.84
647.724	6.99
647.91	7.04
648.096	7.22
648.282	7.37
648.468	7.45
648.654	7.71
648.84	7.72
649.026	7.9
649.212	7.87
649.397	8.06
649.583	8.3
649.769	8.35
649.955	8.44
650.141	8.7
650.327	8.67
650.513	8.92
650.698	9.03
650.884	9.07
651.07	9.32
651.256	9.45
651.442	9.66
651.627	9.59
651.813	9.93
651.999	9.98
652.184	10.13
652.37	10.39
652.556	10.51
652.741	10.56
652.927	10.46
653.113	10.92
653.298	10.96
653.484	11.27
653.669	11.3
653.855	11.49
654.04	11.59
654.226	11.69
654.412	11.85
654.597	11.88
654.782	12.15
654.968	12.23
655.153	12.34
655.339	12.51
655.524	12.69
655.71	12.91
655.895	13.06
656.08	13.2
656.266	13.45
656.451	13.28
656.636	13.36
656.822	13.56
657.007	13.78
657.192	13.77
657.378	13.83
657.563	13.8
657.748	13.9
657.933	14.19
658.118	13.86
658.304	14.05
658.489	14.29
658.674	14.15
658.859	14.12
659.044	14.15
659.229	13.98
659.414	14.04
659.599	13.96
659.785	13.86
659.97	13.79
660.155	13.64
660.34	13.65
660.525	13.35
660.71	13.08
660.895	13.04
661.08	12.84
661.264	12.48
661.449	12.46
661.634	11.92
661.819	11.87
662.004	11.45
662.189	11.27
662.374	11.13
662.559	10.67
662.743	10.37
662.928	10.25
663.113	9.79
663.298	9.52
663.483	9.21
663.667	9
663.852	8.69
664.037	8.51
664.221	8.34
664.406	7.97
664.591	7.6
664.775	7.39
664.96	7.21
665.145	6.84
665.329	6.68
665.514	6.34
665.698	6.07
665.883	5.81
666.068	5.79
666.252	5.48
666.437	5.19
666.621	5.13
666.806	4.97
666.99	4.72
667.174	4.57
667.359	4.46
667.543	4.25
667.728	4.15
667.912	3.87
668.096	3.85
668.281	3.67
668.465	3.56
668.649	3.43
668.834	3.21
669.018	3.21
669.202	3.15
669.387	2.95
669.571	2.95
669.755	2.78
669.939	2.67
670.124	2.6
670.308	2.57
670.492	2.45
670.676	2.36
670.86	2.24
671.044	2.12
671.228	2.16
671.413	1.93
671.597	1.95
671.781	1.83
671.965	1.84
672.149	1.74
672.333	1.74
672.517	1.58
672.701	1.64
672.885	1.57
673.069	1.41
673.253	1.44
673.437	1.4
673.621	1.38
673.804	1.3
673.988	1.27
674.172	1.18
674.356	1.12
674.54	1.11
674.724	1.21
674.908	1.06
675.091	1.07
675.275	1
675.459	1.03
675.643	0.97
675.826	0.94
676.01	0.88
676.194	0.87
676.377	0.86
676.561	0.82
676.745	0.77
676.928	0.75
677.112	0.8
677.296	0.7
677.479	0.66
677.663	0.68
677.846	0.68
678.03	0.63
678.213	0.59
678.397	0.61
678.58	0.56
678.764	0.55
678.947	0.48
679.131	0.46
679.314	0.5
679.498	0.48
679.681	0.52
679.865	0.49
680.048	0.44
680.231	0.43
680.415	0.39
680.598	0.38
680.781	0.39
680.965	0.36
681.148	0.38
681.331	0.35
681.514	0.37
681.698	0.3
681.881	0.34
682.064	0.33
682.247	0.31
682.43	0.27
682.614	0.33
682.797	0.35
682.98	0.33
683.163	0.25
683.346	0.35
683.529	0.24
683.712	0.19
683.895	0.3
684.078	0.22
684.261	0.2
684.444	0.24
684.627	0.23
684.81	0.21
684.993	0.21
685.176	0.26
685.359	0.17
685.542	0.23
685.725	0.26
685.908	0.21
686.091	0.18
686.274	0.29
686.457	0.21
686.639	0.16
686.822	0.21
687.005	0.18
687.188	0.19
687.371	0.28
687.553	0.2
687.736	0.21
687.919	0.23
688.102	0.25
688.284	0.14
688.467	0.18
688.65	0.15
688.832	0.14
689.015	0.17
689.197	0.11
689.38	0.24
689.563	0.28
689.745	0.1
689.928	0.11
690.11	0.17
690.293	0.14
690.475	0.13
690.658	0.15
690.84	0.08
691.023	0.06
691.205	0.1
691.388	0.11
691.57	0.16
691.752	0.15
691.935	0.04
692.117	0.11
692.3	0.13
692.482	0.16
692.664	0.11
692.847	0.18
693.029	0.13
693.211	0.17
693.393	0.14
693.576	0.12
693.758	0.13
693.94	0.07
694.122	0.1
694.304	0.14
694.487	0.11
694.669	0.15
694.851	0.04
695.033	0.12
695.215	0.08
695.397	0.06
695.579	0.08
695.761	0.08
695.943	0.01
696.125	0.15
696.308	0.11
696.49	-0.05
696.671	0.2
696.853	0.04
697.035	0.29
697.217	0.08
697.399	0.08
697.581	0.02
697.763	0.12
697.945	0.04
698.127	0.12
698.309	0.08
698.491	0.1
698.672	0.1
698.854	0.14
699.036	0.11
699.218	0.07
699.399	0.07
699.581	0.12
699.763	0.13
699.945	0.05
700.126	0.04
700.308	0.12
700.49	0.06
700.671	-0.02
700.853	0.08
701.035	0.11
701.216	0.11
701.398	-0.02
701.579	0.06
701.761	0.12
701.943	0.04
702.124	-0.01
702.306	0.04
702.487	0.21
702.669	0.08
702.85	0.04
703.031	-0.03
703.213	0.18
703.394	0.11
703.576	0.04
703.757	0.09
703.938	0.12
704.12	0.2
704.301	0.08
704.483	0.03
704.664	0.06
704.845	0.13
705.026	0.08
705.208	0.06
705.389	0.01
705.57	0.03
705.751	0.04
705.933	0.01
706.114	0.1
706.295	0.08
706.476	-0.01
706.657	0.15
706.838	0.1
707.02	0.11
707.201	0.02
707.382	0.03
707.563	0.09
707.744	-0
707.925	0
708.106	-0.03
708.287	0.1
708.468	0.11
708.649	0.05
708.83	0.08
709.011	0.09
709.192	0.11
709.373	-0.01
709.554	-0.01
709.734	0.06
709.915	0.12
710.096	0.11
710.277	-0.06
710.458	0.07
710.639	0.06
710.819	-0.02
711	0.03
711.181	0.1
711.362	0.1
711.542	0.02
711.723	0.08
711.904	0.1
712.085	0.05
712.265	0.09
712.446	-0.05
712.627	0.07
712.807	0.06
712.988	0.09
713.168	-0.03
713.349	0.11
713.53	-0.08
713.71	0.04
713.891	-0
714.071	0.05
714.252	0.06
714.432	0.03
714.613	-0.03
714.793	0.04
714.974	0.16
715.154	0.16
715.334	0.13
715.515	0.19
715.695	-0.02
715.876	0.04
716.056	0.03
716.236	0.01
716.417	0.07
716.597	0.01
716.777	0.18
716.957	0.09
717.138	0.07
717.318	0.05
717.498	-0.02
717.678	0.05
717.859	0.08
718.039	-0
718.219	0.07
718.399	0.13
718.579	-0.01
718.759	-0.02
718.939	0.13
719.12	0.05
719.3	0.05
719.48	-0.09
719.66	-0.11
719.84	0.11
720.02	0.07
720.2	-0
720.38	0.07
720.56	0.19
720.74	0.05
720.92	0.05
721.1	0.21
721.279	0.15
721.459	-0.01
721.639	-0.05
721.819	0.08
721.999	-0.04
722.179	0.08
722.359	-0.03
722.538	0.04
722.718	0.08
722.898	0.01
723.078	0.05
723.257	0.04
723.437	0.09
723.617	0.02
723.797	0.09
723.976	0.06
724.156	0.05
724.336	0.19
724.515	0.21
724.695	-0.01
724.874	0.01
725.054	0.07
725.234	-0.02
725.413	0.02
725.593	0.12
725.772	0.07
725.952	0.07
726.131	0.04
726.311	0.01
726.49	0.03
726.67	-0.04
726.849	0.07
727.028	0.05
727.208	-0.08
727.387	0.08
727.567	-0.02
727.746	0.07
727.925	0.04
728.105	-0.09
728.284	-0.02
728.463	-0.02
728.643	0.09
728.822	-0.01
729.001	0.05
729.18	0.03
729.359	0.11
729.539	0.01
729.718	0.04
729.897	0.08
730.076	-0.03
730.255	-0.01
730.434	0.03
730.614	0.13
730.793	0.16
730.972	0.03
731.151	0.03
731.33	0.11
731.509	0.15
731.688	0.1
731.867	0.09
732.046	-0.09
732.225	0.21
732.404	-0.01
732.583	-0.05
732.762	0.02
732.941	0.09
733.12	-0.01
733.298	0.03
733.477	0.15
733.656	-0.01
733.835	-0.02
734.014	0.07
734.193	0.09
734.371	0.11
734.55	0.07
734.729	-0.05
734.908	0.11
735.086	0.06
735.265	0.14
735.444	-0.12
735.623	-0.01
735.801	-0.06
735.98	0.05
736.159	-0.03
736.337	0.22
736.516	0.14
736.694	0.05
736.873	-0.02
737.052	0.15
737.23	0.22
737.409	0.03
737.587	0.27
737.766	-0.04
737.944	-0.06
738.123	0.11
738.301	0.2
738.479	-0.06
738.658	0.08
738.836	-0.09
739.015	0.07
739.193	0.2
739.371	-0.01
739.55	-0.07
739.728	-0.03
739.906	0.12
740.085	0.13
740.263	-0.04
740.441	-0.17
740.62	0.14
740.798	0.05
740.976	-0.03
741.154	-0.09
741.332	0.14
741.511	0.01
741.689	0.04
741.867	0.13
742.045	0.06
742.223	0.03
742.401	-0.1
742.579	-0.04
742.757	0.1
742.935	-0.08
743.114	0.02
743.292	-0.04
743.47	0.09
743.648	0.1
743.826	0.04
744.004	0.14
744.181	0.12
744.359	0.03
744.537	0.08
744.715	0.07
744.893	-0.07
745.071	-0.02
745.249	-0.01
745.427	-0
745.605	0.04
745.782	0.1
745.96	0.08
746.138	0.1
746.316	0.09
746.493	-0.05
746.671	0.02
746.849	-0.02
747.027	0.18
747.204	-0.07
747.382	0.16
747.56	-0.1
747.737	0.09
747.915	0.08
748.093	0.06
748.27	-0.12
748.448	-0.06
748.625	-0.07
748.803	-0.02
748.98	-0
749.158	0.06
749.335	0.09
749.513	0.1
749.69	-0.02
749.868	0.05
750.045	-0.03
750.223	0.04
750.4	-0.09
750.578	0.18
750.755	-0.01
750.932	-0.09
751.11	0.15
751.287	-0.09
751.464	0.18
751.642	-0.07
751.819	0.08
751.996	-0
752.173	0.04
752.351	-0.05
752.528	0.04
752.705	0.02
752.882	-0.04
753.06	0.03
753.237	0.08
753.414	0.24
753.591	0.18
753.768	0.05
753.945	-0.04
754.122	-0.03
754.299	0.1
754.476	-0.03
754.654	0.05
754.831	0.08
755.008	0.1
755.185	-0.08
755.362	-0.18
755.539	-0.06
755.716	-0.15
755.892	0.08
756.069	0.08
756.246	-0.05
756.423	0.05
756.6	0.16
756.777	0.1
756.954	0.14
757.131	0.07
757.307	-0.1
757.484	0
757.661	0.1
757.838	0.04
758.015	-0.03
758.191	0.06
758.368	0.14
758.545	0.12
758.721	0.14
758.898	-0.08
759.075	0.13
759.251	0.14
759.428	0.13
759.605	-0.06
759.781	-0.11
759.958	0.2
760.134	0.13
760.311	0.01
760.488	0.07
760.664	0.17
760.841	0.06
761.017	-0.01
761.194	0.19
761.37	0.1
761.547	0.06
761.723	0
761.899	0.14
762.076	-0.08
762.252	-0.13
762.429	0.04
762.605	0.16
762.781	-0.02
762.958	0.1
763.134	0.01
763.31	0.04
763.486	0.23
763.663	-0.11
763.839	0.12
764.015	-0.21
764.191	-0.1
764.368	-0
764.544	-0.03
764.72	0.14
764.896	0.09
765.072	0.22
765.248	-0.04
765.425	0.06
765.601	-0
765.777	-0.04
765.953	-0.13
766.129	-0.09
766.305	0
766.481	0.15
766.657	0.02
766.833	0.09
767.009	-0.19
767.185	0.03
767.361	0.12
767.537	-0.09
767.713	-0.01
767.889	-0.06
768.065	-0.03
768.24	0.15
768.416	0.16
768.592	0
768.768	0.04
768.944	0.17
769.12	-0.11
769.295	0.07
769.471	-0.04
769.647	0.04
769.823	0.18
769.998	0.07
770.174	-0.14
770.35	0.23
770.525	0.27
770.701	0.19
770.877	0.04
771.052	0
771.228	0.11
771.403	0.2
771.579	0.02
771.755	0.32
771.93	-0.03
772.106	-0.07
772.281	-0.17
772.457	0.15
772.632	0.15
772.808	-0.19
772.983	0.15
773.159	-0.11
773.334	0.22
773.509	0.04
773.685	-0.05
773.86	0.27
774.036	0.28
774.211	-0.11
774.386	-0.07
774.562	0.16
774.737	0.07
774.912	-0.02
775.087	0.15
775.263	0.13
775.438	0.04
775.613	-0.01
775.788	-0.04
775.964	0.12
776.139	0.35
776.314	-0.1
776.489	0.04
776.664	-0.09
776.839	-0.05
777.014	0.21
777.19	0.27
777.365	0.24
777.54	0.32
777.715	-0.11
777.89	-0.02
778.065	-0.11
778.24	-0.09
778.415	0.07
778.59	0.02
778.765	-0.01
778.94	0.14
779.115	-0.02
779.289	0.07
779.464	0.11
779.639	0
779.814	-0.24
779.989	-0.07
780.164	0.18
780.339	0.13
780.513	-0.07
780.688	0.01
780.863	-0.05
781.038	0.2
781.212	0.01
781.387	0.15
781.562	0.38
781.737	0.02
781.911	0.22
782.086	0.08
782.261	0.12
782.435	0.32
782.61	0.11
782.784	-0.07
782.959	0.31
783.134	-0.01
783.308	-0.18
783.483	-0.02
783.657	0.47
783.832	0.28
784.006	-0.19
784.181	0.04
784.355	0.29
784.53	-0.15
784.704	-0.05
784.878	0.36
785.053	0.28
785.227	0.22
785.402	0.32
785.576	-0.11
785.75	0.09
785.925	-0.01
786.099	0
786.273	0.16
786.448	0.22
786.622	0.18
786.796	0.17
786.97	-0.11
787.145	0.63
787.319	-0.19
787.493	-0.02
787.667	-0.25
787.841	0.17
788.015	0.35
788.19	-0.13
788.364	0.19
788.538	0.28
788.712	0.31
788.886	0
789.06	0.22
789.234	0.23
789.408	-0.34
789.582	-0.12
789.756	-0.1
789.93	-0.27
790.104	-0.12
790.278	0
790.452	-0.27
790.626	0.16
790.8	-0.22
790.973	0.37
791.147	0.32
791.321	0.19
791.495	0.06
791.669	0.02
791.843	0.14
792.016	0.12
792.19	0.51
792.364	-0.19
792.538	0.69
792.711	0.45
792.885	0.3
793.059	-0.23
793.233	-0.51
793.406	0.25
793.58	0.09
793.754	0.24
793.927	0.07
794.101	0.11
794.274	-0.09
794.448	0.16
794.622	-0.12
794.795	0.21
794.969	0.04
795.142	0.39
795.316	-0.11
795.489	-0.14
795.663	0.4
795.836	0.23
796.009	-0.12
796.183	0.44
796.356	0.26
796.53	0.16
796.703	0.04
796.876	0.64
797.05	-0.03
797.223	-0.06
797.396	0.18
797.57	0.35
797.743	0.31
797.916	-0.04
798.09	-0.14
798.263	0.26
798.436	0.21
798.609	-0
798.782	-0.03
798.956	0.01
799.129	-0.05
799.302	-0.1
799.475	0.06
799.648	-0.1
799.821	-0.1
799.994	0.06
800.167	-0.42
800.34	-0.03
800.514	0.07
800.687	-0.01
800.86	-0.17
801.033	-0.1
801.206	0.05
801.379	-0.16
801.551	0.42
801.724	0.03
801.897	0.11
802.07	0.11
802.243	-0.6
802.416	0.28
802.589	-0.5
802.762	0.15
802.935	-0.16
803.107	0.35
803.28	0.64
803.453	0.21
803.626	-0.11
803.798	0.15
803.971	-0.19
804.144	0.13
804.317	0.52
804.489	0.17
804.662	0.18
804.835	0.19
805.007	-0.16
805.18	0.6
805.353	0.13
805.525	-0.14
805.698	0.14
805.87	0.36
806.043	0.64
806.215	-0.25
806.388	-0.22
806.56	0.07
806.733	0.67
806.905	0.06
807.078	-0.18
807.25	0.01
807.423	0.07
807.595	0.14
807.768	-0.13
807.94	0.07
808.112	0.48
808.285	-0.16
808.457	-0.17
808.629	0.08
808.802	0.23
808.974	0.29
809.146	-0.06
809.318	-0.25
809.491	0.33
809.663	0.23
809.835	0
810.007	0.48
810.18	0.2
810.352	-0.2
810.524	-0.12
810.696	0.21
810.868	0.63
811.04	0.34
811.212	-0.05
811.384	0.11
811.556	0.02
811.728	0.2
811.901	0.57
812.073	-0.11
812.245	0.12
812.417	0.07
812.589	-0.41
812.76	-0.03
812.932	0.41
813.104	0.29
813.276	-0.24
813.448	0.56
813.62	0.11
813.792	0.1
813.964	-0.04
814.136	0.18
814.307	-0.19
814.479	0.07
814.651	0.34
814.823	0.53
814.995	0.07
815.166	0.32
815.338	-0.58
815.51	-0.66
815.681	1.14
815.853	0.14
816.025	0.17
816.196	0.86
816.368	0.36
816.54	-0.39
816.711	-0.45
816.883	0.22
817.054	0.45
817.226	-0.12
817.398	0.14
817.569	-0.41
817.741	0.1
817.912	0.19
818.084	0.11
818.255	0.01
818.426	-0.29
818.598	0.28
818.769	-0.5
818.941	0.21
819.112	0.51
819.283	0.45
819.455	-0.02
819.626	0.34
819.798	-0.12
819.969	0.24
820.14	-0.18
820.311	-0.07
820.483	0.24
820.654	-0.04
820.825	0.15
820.996	0.02
821.168	0.21
821.339	0.13
821.51	-0.33
821.681	-0.03
821.852	0.18
822.023	-0.22
822.195	-0.12
822.366	0.54
822.537	-0.01
822.708	0.35
822.879	-0.02
823.05	0.54
823.221	-0.09
823.392	0.76
823.563	0.43
823.734	0.3
823.905	0.55
824.076	-0.44
824.247	0.04
824.418	-0.36
824.589	0.6
824.759	-0.67
824.93	0.24
825.101	-0.03
825.272	0.3
825.443	0.48
825.614	1
825.784	-0.94
825.955	0.39
826.126	0.78
826.297	0.37
826.467	0.88
826.638	0.65
826.809	-0.72
826.98	0.23
827.15	0.3
827.321	0.35
827.492	1.13
827.662	0.33
827.833	0.84
828.003	0.07
828.174	-0.43
828.345	-0.17
828.515	1.35
828.686	-0.01
828.856	-0.26
829.027	-0.33
829.197	0.04
829.368	-0.03
829.538	0.37
829.709	-0.55
829.879	-0.05
830.049	-0.18
830.22	-0.54
830.39	0.1
830.56	0.82
830.731	-0.45
830.901	0.12
831.072	0.02
831.242	0.13
831.412	0.08
831.582	0
831.753	-0.18
831.923	0.83
832.093	0.4
832.263	-0.05
832.434	-0.41
832.604	-0.59
832.774	0.53
832.944	0.15
833.114	0.1
833.284	0.89
833.454	0.08
833.624	-0.05
833.795	-0.09
833.965	1.57
834.135	0.79
834.305	-0.71
834.475	-0.15
834.645	0.41
834.815	-0.63
834.985	0.12
835.155	-0.32
835.325	0.86
835.494	0.39
835.664	-0.21
835.834	-0.33
836.004	0.32
836.174	0.03
836.344	0.11
836.514	-0.28
836.684	0.46
836.853	0.41
837.023	0.31
837.193	0.18
837.363	0.54
837.532	1.21
837.702	-0.51
837.872	-0.62
838.041	0.59
838.211	1.6
838.381	-0.48
838.55	0.88
838.72	1.92
838.89	1.57
839.059	0.05
839.229	-0.24
839.398	0.95
839.568	-0.03
839.738	-0.19
839.907	0.69
840.077	0.71
840.246	-0.55
840.416	-0.57
840.585	-0.69
840.755	0.97
840.924	0.76
841.093	-0.34
841.263	-0.83
841.432	0.59
841.602	-0.96
841.771	-0.21
841.94	0.57
842.11	1.95
842.279	2.07
842.448	-0.6
842.617	0.58
842.787	1.69
842.956	-0.1
843.125	-0.19
843.294	0.65
843.464	0.09
843.633	0.77
843.802	-0.34
843.971	-0.33
844.14	0.34
844.309	0.65
844.479	0.91
844.648	0.23
844.817	0.11
844.986	0.62
845.155	-0.13
845.324	0.06
845.493	-0.22
845.662	-0.15
845.831	0.48
846	0.65
846.169	-0.67
846.338	1.03
846.507	0.32
846.676	0.37
846.844	-0.46
847.013	1.15
847.182	1.02
847.351	0.2
847.52	0.04
847.689	-0.15
847.858	0.03
848.026	-0.68
848.195	0.4
848.364	-0.55
848.533	0
848.701	0.07
848.87	0.44
849.039	0.57
849.207	1.55
849.376	1.92
849.545	2.14
849.713	0.01
849.882	0.38
850.051	-0.22
850.219	0.21
850.388	1.17
850.556	-0.35
850.725	-0.5
850.893	0.99
851.062	-0.09
851.23	1.48
851.399	-1.25
851.567	-0.53
851.736	-0.2
851.904	-1.23
852.073	0.25
852.241	0.64
852.41	1.57
852.578	-0.17
852.746	-0.45
852.915	1.2
853.083	0.85
853.251	-0.98
853.42	-0.09
853.588	0.46
853.756	0.34
853.924	0.82
854.093	0.6
854.261	-0.25
854.429	0.05
854.597	0.17
854.765	-1.39
854.934	0.41
855.102	1.88
855.27	0.3
855.438	0.25
855.606	0.57
855.774	1.11
855.942	-0.54
856.11	-1.27
856.278	1.24
856.446	0.86
856.614	-0.43
856.782	0.51
856.95	2.17
857.118	0.74
857.286	0.53
857.454	-1.51
857.622	1.7
857.79	0.67
857.958	0.25
858.126	-0.26
858.294	-1.55
858.462	0.4
858.629	-0.29
858.797	-0.22
858.965	0.98
859.133	-0.09
859.301	-0.55
859.468	-0.52
859.636	-0.85
859.804	1.03
859.971	1.55
860.139	-0.6
860.307	1.04
860.474	-0.04
860.642	-0.86
860.81	-0.43
860.977	0.16
861.145	1.19
861.313	-0.45
861.48	-0.11
861.648	0.34
861.815	0.8
861.983	-1.01
862.15	0.18
862.318	0.22
862.485	1.82
862.653	-0.13
862.82	-0.39
862.988	0.31
863.155	0.84
863.322	-1.26
863.49	-0.17
863.657	-1.51
863.824	1.58
863.992	0.24
864.159	1.27
864.326	1
864.494	0.32
864.661	2.5
864.828	-1.32
864.996	0.7
865.163	1.48
865.33	-0.54
865.497	-2.03
865.664	-0.06
865.832	-2.31
865.999	-1.33
866.166	-0.37
866.333	-0.22
866.5	-0.27
866.667	1.68
866.834	0.93
867.001	1.87
867.168	-0.97
867.335	-0.49
867.502	-0.98
867.669	0.13
867.836	2.17
868.003	0.59
868.17	1.12
868.337	1.86
868.504	1.99
868.671	-0.06
868.838	-0.78
869.005	1.52
869.172	0.17
869.339	-0.37
869.505	-0.39
869.672	-0.69
869.839	1.67
870.006	-0.12
870.173	-1.92
870.339	0.88
870.506	4.04
870.673	-1.58
870.84	2.62
871.006	-0.54
871.173	-0.19
871.34	-0.59
871.506	0.19
871.673	1.25
871.839	-1.81
872.006	1.03
872.173	-0.57
872.339	0.3
872.506	0.13
872.672	-0.25
872.839	-1.56
873.005	0.8
873.172	2.14
873.338	3.1
873.505	1.22
873.671	0.54
873.838	1.17
874.004	-2.06
874.171	0.39
874.337	0.77
874.503	1.29
874.67	-0.43
874.836	-0.64
875.002	2.04
875.169	1.72
875.335	1.19
875.501	-0.58
875.668	0.39
875.834	0.34
876	0.21
876.166	1.54
876.332	0.88
876.499	3.48
876.665	1.14
876.831	0.11
876.997	4.3
877.163	0.81
877.329	0.31
877.495	1.36
877.662	0.94
877.828	1.32
877.994	-1.64
878.16	-1.94
878.326	1.35
878.492	-0.31
878.658	-0.11
878.824	0.65
878.99	1.97
879.156	-0.52
879.322	3.14
879.487	-0.52
879.653	1.95
879.819	1.03
879.985	-0.02
880.151	0.64
880.317	-0.48
880.483	0.34
880.648	0.99
880.814	-2.42
880.98	1.13
881.146	-1.24
881.312	0
881.477	0.08
881.643	1.28
881.809	0.96
881.974	1.66
882.14	-1.9
882.306	-0.41
882.471	3.26
882.637	1.13
882.803	2.08
882.968	1.35
883.134	2.79
883.299	0.28
883.465	0.45
883.63	4.66
883.796	1.36
883.961	1.62
884.127	0.52
884.292	-3.3
884.458	-2.16
884.623	-2.16
