Data from Apollo_Calib_20240827__AbsoluteIrradiance__140__01-29-03-148.txt Node

Date: Wed Aug 28 01:29:03 BST 2024
User: biology
Spectrometer: FLMT08252
Trigger mode: 0
Integration Time (sec): 5.000000E-1
Scans to average: 5
Electric dark correction enabled: true
Nonlinearity correction enabled: false
Boxcar width: 0
XAxis mode: Wavelengths
Number of Pixels in Spectrum: 3648
>>>>>Begin Spectral Data<<<<<
179.588	-0
179.809	-0
180.03	-0
180.251	-0
180.473	-0
180.694	0
180.915	0
181.136	-0
181.357	0
181.578	-0
181.799	-0
182.02	-0
182.241	0
182.462	-0
182.683	0
182.904	0
183.125	-0
183.346	0
183.567	0
183.788	0
184.009	-0
184.23	0
184.451	0
184.672	-0
184.892	-0
185.113	0
185.334	0
185.555	-0
185.776	-0
185.996	0
186.217	0
186.438	0
186.659	-0
186.879	0
187.1	-0
187.321	-0
187.541	-0
187.762	-0
187.983	0
188.203	-0
188.424	-0
188.644	0
188.865	-0
189.086	-0
189.306	-0
189.527	-0
189.747	0
189.968	-0
190.188	0
190.409	-0
190.629	0
190.849	-0
191.07	-0
191.29	0
191.511	0
191.731	-0
191.951	-0
192.172	-0
192.392	-0
192.612	0
192.833	-0
193.053	0
193.273	0
193.493	-0
193.714	-0
193.934	0
194.154	0
194.374	-0
194.594	0
194.815	-0
195.035	-0
195.255	-0
195.475	-0
195.695	0
195.915	-0
196.135	-0
196.355	0
196.575	0
196.795	-0
197.015	-0
197.235	-0
197.455	-0
197.675	0
197.895	-0
198.115	-0
198.335	-0
198.555	-0
198.775	-0
198.995	-0
199.214	0
199.434	-0
199.654	-0
199.874	-0
200.094	0.36
200.313	-0.69
200.533	-0.44
200.753	-0.86
200.973	0.78
201.192	0.07
201.412	-1.36
201.632	-0.4
201.851	1.06
202.071	-0.79
202.291	-0.27
202.51	-0.76
202.73	0.09
202.95	-0.16
203.169	-0.69
203.389	-0.12
203.608	-0.26
203.828	-0.73
204.047	-0.45
204.267	0.15
204.486	0.14
204.706	0.14
204.925	-0.24
205.145	-0.39
205.364	0.2
205.583	0.51
205.803	-0.32
206.022	-0.17
206.242	-0.28
206.461	0.24
206.68	-0.66
206.9	-0.1
207.119	0.23
207.338	0.36
207.557	-0.15
207.777	-0.18
207.996	-0.33
208.215	0.44
208.434	-0.43
208.654	-0.43
208.873	-0.04
209.092	0.82
209.311	-0.19
209.53	-0.37
209.749	-0.29
209.968	-0.16
210.187	0.11
210.407	-0.62
210.626	-0.07
210.845	0.07
211.064	0.15
211.283	-0.27
211.502	0.13
211.721	0.05
211.94	-0.16
212.159	0.21
212.377	0.29
212.596	0.34
212.815	-0.11
213.034	-0.16
213.253	0.33
213.472	-0.09
213.691	-0.25
213.91	-0.29
214.128	-0.19
214.347	0.25
214.566	-0.49
214.785	-0.49
215.003	0.05
215.222	0.07
215.441	-0.12
215.66	-0.46
215.878	-0.17
216.097	0.13
216.316	-0.21
216.534	-0.13
216.753	0.07
216.972	-0.18
217.19	-0.08
217.409	-0.18
217.627	-0.12
217.846	-0.11
218.064	-0.09
218.283	-0.23
218.501	0.27
218.72	0.2
218.938	-0.34
219.157	-0.17
219.375	0.13
219.594	0.17
219.812	-0.21
220.031	-0.17
220.249	0.06
220.467	0.24
220.686	-0.16
220.904	-0.19
221.122	-0.13
221.341	0.3
221.559	0.06
221.777	-0.28
221.995	-0.06
222.214	0.09
222.432	-0.02
222.65	0.06
222.868	-0.2
223.086	0.02
223.305	0.09
223.523	0
223.741	0.09
223.959	-0.18
224.177	-0.23
224.395	-0.1
224.613	-0.08
224.831	0.26
225.049	-0.2
225.267	-0.1
225.485	0.04
225.703	-0.11
225.921	0.03
226.139	-0.1
226.357	0.2
226.575	-0.12
226.793	-0.16
227.011	0.57
227.229	0.04
227.447	0.18
227.665	-0.24
227.883	-0.23
228.1	-0.06
228.318	0.02
228.536	-0.18
228.754	-0.25
228.972	0.02
229.189	0.01
229.407	-0.16
229.625	-0.13
229.843	0.25
230.06	0.04
230.278	-0.14
230.496	-0.07
230.713	-0.09
230.931	0.2
231.149	-0.09
231.366	-0.33
231.584	-0.08
231.801	0.28
232.019	-0.1
232.236	-0.14
232.454	-0.27
232.671	0.08
232.889	-0.02
233.106	-0.17
233.324	0
233.541	-0.13
233.759	-0.01
233.976	-0.12
234.194	-0.13
234.411	-0.09
234.628	-0.23
234.846	-0.09
235.063	-0.07
235.28	-0.03
235.498	0.03
235.715	-0.09
235.932	0.09
236.149	-0.05
236.367	-0.17
236.584	0.02
236.801	0.04
237.018	0.07
237.236	0.01
237.453	-0.14
237.67	-0
237.887	-0.15
238.104	-0.05
238.321	-0.15
238.538	-0.06
238.755	0.1
238.973	-0.18
239.19	0.02
239.407	0.14
239.624	0.04
239.841	-0.18
240.058	-0.18
240.275	-0.03
240.492	-0.01
240.709	0.07
240.925	-0.07
241.142	-0.01
241.359	-0.13
241.576	-0.05
241.793	-0.04
242.01	-0.06
242.227	0.1
242.444	0.04
242.66	0.03
242.877	-0.05
243.094	-0.08
243.311	0
243.527	-0.04
243.744	-0.03
243.961	0.06
244.178	-0.18
244.394	-0.05
244.611	0.02
244.828	0.04
245.044	-0.13
245.261	-0.01
245.477	-0.03
245.694	0.02
245.911	-0.12
246.127	-0
246.344	0.11
246.56	-0.05
246.777	-0.03
246.993	0.01
247.21	0.05
247.426	-0.07
247.643	-0.12
247.859	-0.07
248.076	-0.02
248.292	0.2
248.508	-0.07
248.725	0.01
248.941	0.1
249.157	0.12
249.374	-0.09
249.59	0.01
249.806	-0.08
250.023	-0.01
250.239	-0.05
250.455	-0.06
250.671	-0.07
250.888	0.1
251.104	-0.03
251.32	-0.03
251.536	-0
251.752	-0.1
251.969	-0.04
252.185	-0
252.401	0.16
252.617	0.07
252.833	-0.02
253.049	0.01
253.265	-0.01
253.481	-0
253.697	-0.14
253.913	-0.02
254.129	-0.02
254.345	0.04
254.561	-0.01
254.777	-0.08
254.993	0.07
255.209	0.05
255.425	-0.04
255.641	-0.12
255.857	0.02
256.073	-0.03
256.288	-0.16
256.504	-0.09
256.72	-0.01
256.936	0.16
257.152	0.03
257.367	-0.01
257.583	-0.07
257.799	0.04
258.015	-0.05
258.23	-0.03
258.446	0.08
258.662	0.02
258.877	-0.11
259.093	-0.06
259.309	-0.06
259.524	0.02
259.74	-0.11
259.955	-0.11
260.171	-0
260.387	-0.01
260.602	0.03
260.818	0.06
261.033	-0.1
261.249	-0.01
261.464	-0.08
261.68	-0.08
261.895	0.04
262.11	0.06
262.326	-0.03
262.541	-0.15
262.757	0.04
262.972	-0.01
263.187	-0.01
263.403	-0.02
263.618	0.08
263.833	-0.02
264.049	-0.06
264.264	-0.03
264.479	0.04
264.694	0.09
264.91	-0.04
265.125	0.02
265.34	0.07
265.555	0.06
265.77	0.02
265.986	-0.03
266.201	0.08
266.416	0.06
266.631	-0.03
266.846	-0
267.061	-0.02
267.276	0.03
267.491	-0.16
267.706	-0.03
267.921	0.04
268.136	0.03
268.351	-0.09
268.566	-0.09
268.781	0.06
268.996	0.04
269.211	0.02
269.426	-0.06
269.641	-0.02
269.856	0.04
270.071	-0.06
270.285	-0.09
270.5	0.01
270.715	0.07
270.93	-0.06
271.145	0.03
271.359	0.04
271.574	-0.09
271.789	0.03
272.004	-0.02
272.218	-0.06
272.433	0.04
272.648	-0.09
272.862	0.08
273.077	0
273.292	0.04
273.506	-0.06
273.721	-0.07
273.936	0.01
274.15	-0.05
274.365	-0.02
274.579	0.05
274.794	0.03
275.008	0.06
275.223	-0.06
275.437	-0
275.652	0.07
275.866	-0.01
276.081	-0.03
276.295	0.04
276.509	0.01
276.724	-0.04
276.938	-0.02
277.153	-0.02
277.367	0.05
277.581	-0.05
277.796	-0.04
278.01	-0.1
278.224	0.05
278.438	0.12
278.653	-0.09
278.867	-0.06
279.081	0.07
279.295	-0.03
279.51	0.02
279.724	-0.11
279.938	0.03
280.152	0.02
280.366	-0.1
280.58	0
280.794	0.03
281.008	0.01
281.222	0.04
281.437	0.06
281.651	-0.03
281.865	0.06
282.079	-0.03
282.293	-0.12
282.507	-0.04
282.721	-0.08
282.935	0.03
283.148	-0.1
283.362	-0.05
283.576	-0.09
283.79	0.04
284.004	0.01
284.218	0.01
284.432	-0.04
284.646	0.02
284.859	-0.09
285.073	-0.08
285.287	-0.04
285.501	-0.01
285.714	-0.01
285.928	-0.07
286.142	-0
286.356	-0.07
286.569	-0.01
286.783	0.07
286.997	0.03
287.21	0.04
287.424	0
287.637	-0.01
287.851	-0.01
288.065	0.03
288.278	0.01
288.492	-0.01
288.705	-0.01
288.919	-0.03
289.132	-0.05
289.346	0.02
289.559	-0.11
289.773	-0.06
289.986	-0.02
290.2	-0.06
290.413	0.03
290.626	-0.06
290.84	0.01
291.053	-0.07
291.267	0.07
291.48	-0.02
291.693	-0.06
291.906	-0.01
292.12	-0.05
292.333	-0.07
292.546	-0.02
292.76	0.06
292.973	0.06
293.186	0.01
293.399	-0.05
293.612	0.04
293.826	0.01
294.039	0.02
294.252	-0.04
294.465	0.01
294.678	0.02
294.891	-0.03
295.104	-0.03
295.317	-0.03
295.53	-0
295.743	-0.06
295.956	0
296.169	0.06
296.382	0.08
296.595	-0
296.808	-0.03
297.021	0.03
297.234	0.04
297.447	-0.01
297.66	0.01
297.873	0.09
298.086	-0
298.299	-0.02
298.511	-0.05
298.724	0.05
298.937	-0.04
299.15	-0.03
299.363	-0.01
299.575	0.02
299.788	0.02
300.001	-0.05
300.213	-0.02
300.426	-0.06
300.639	-0.02
300.852	-0.04
301.064	-0
301.277	0.07
301.489	0.01
301.702	0.03
301.915	0
302.127	-0.01
302.34	-0.01
302.552	0.03
302.765	-0.06
302.977	0.02
303.19	-0.03
303.402	-0.03
303.615	-0.04
303.827	-0.02
304.04	-0.01
304.252	-0.02
304.464	-0.01
304.677	0.08
304.889	0.07
305.102	-0.07
305.314	-0.03
305.526	0.05
305.739	0.01
305.951	-0.03
306.163	-0.03
306.375	0.06
306.588	-0.03
306.8	-0.02
307.012	-0.06
307.224	-0
307.436	0.03
307.649	-0.09
307.861	-0.01
308.073	0.05
308.285	-0
308.497	-0.04
308.709	-0.03
308.921	0.01
309.133	0.01
309.346	-0.01
309.558	-0.02
309.77	0.05
309.982	0.06
310.194	0.03
310.406	-0.07
310.617	0.04
310.829	0.02
311.041	-0
311.253	-0.04
311.465	-0.02
311.677	0.01
311.889	-0.01
312.101	-0.06
312.313	-0.01
312.524	0.02
312.736	-0.07
312.948	-0.05
313.16	0.07
313.372	-0.04
313.583	0.03
313.795	-0.04
314.007	-0.03
314.218	0.04
314.43	-0.02
314.642	-0.05
314.853	-0.05
315.065	0.01
315.277	-0.03
315.488	0.01
315.7	0.07
315.912	0.03
316.123	0.01
316.335	-0.04
316.546	0.07
316.758	-0.03
316.969	-0.05
317.181	0.01
317.392	-0.01
317.604	-0.01
317.815	-0.06
318.026	-0
318.238	-0.02
318.449	-0.02
318.661	-0.04
318.872	-0.11
319.083	-0.07
319.295	0.03
319.506	-0.03
319.717	0.01
319.929	0
320.14	-0.02
320.351	0
320.562	-0.01
320.774	0.01
320.985	-0.02
321.196	-0.03
321.407	-0.07
321.618	0.03
321.829	0
322.041	0.01
322.252	0
322.463	0.01
322.674	0
322.885	-0.07
323.096	-0.01
323.307	-0.02
323.518	-0
323.729	-0.07
323.94	-0.03
324.151	-0.06
324.362	-0.01
324.573	-0.01
324.784	-0.04
324.995	0.03
325.206	0.01
325.417	-0.01
325.628	0.01
325.838	-0.01
326.049	0.03
326.26	-0
326.471	-0.02
326.682	0.02
326.892	-0.02
327.103	-0.07
327.314	-0.04
327.525	0.02
327.735	-0.01
327.946	-0.01
328.157	0.01
328.368	-0.02
328.578	-0.01
328.789	0
328.999	-0.04
329.21	-0.02
329.421	0.05
329.631	-0.03
329.842	-0.05
330.052	0
330.263	0.02
330.473	0.01
330.684	-0.01
330.894	-0.02
331.105	0.01
331.315	-0.02
331.526	-0.01
331.736	0.06
331.947	-0
332.157	0.01
332.367	-0.06
332.578	0.05
332.788	0.05
332.999	0.01
333.209	0.01
333.419	-0.06
333.629	0.02
333.84	0.01
334.05	0.02
334.26	0.04
334.47	0.01
334.681	0.06
334.891	-0.05
335.101	0.05
335.311	0.04
335.521	-0.03
335.732	-0.07
335.942	0.08
336.152	0.01
336.362	-0.02
336.572	0
336.782	0.03
336.992	-0.05
337.202	-0.02
337.412	-0.02
337.622	0.03
337.832	-0.02
338.042	0
338.252	0
338.462	-0.06
338.672	0.01
338.882	0.01
339.092	0.02
339.302	0.07
339.511	-0
339.721	-0.02
339.931	-0.03
340.141	0.02
340.351	0
340.561	0.04
340.77	-0.01
340.98	0.02
341.19	0.01
341.4	0
341.609	-0.06
341.819	-0.01
342.029	-0.01
342.238	0.01
342.448	-0.05
342.658	-0.01
342.867	-0.02
343.077	0.01
343.286	0.02
343.496	0
343.706	0.04
343.915	-0.03
344.125	-0.05
344.334	-0.02
344.544	-0.06
344.753	0.01
344.963	-0.02
345.172	-0.05
345.381	-0.05
345.591	-0.06
345.8	0.01
346.01	0.05
346.219	0.04
346.428	-0.14
346.638	-0.01
346.847	-0
347.056	0.06
347.266	-0.07
347.475	0
347.684	0.01
347.893	-0.04
348.103	0.02
348.312	-0.01
348.521	-0
348.73	0.01
348.94	0
349.149	-0.02
349.358	0
349.567	-0.02
349.776	-0.08
349.985	-0.02
350.194	0.02
350.403	0.08
350.612	-0.06
350.821	-0
351.03	-0.01
351.239	-0.07
351.448	-0.01
351.657	-0.02
351.866	0.08
352.075	-0
352.284	0.02
352.493	-0.06
352.702	0.02
352.911	-0.01
353.12	-0.01
353.329	-0.01
353.538	-0.01
353.746	0
353.955	0.02
354.164	0.01
354.373	0.02
354.582	0.02
354.79	0.03
354.999	0.06
355.208	-0.03
355.416	0.03
355.625	-0.04
355.834	-0.02
356.042	-0
356.251	0.01
356.46	-0.03
356.668	0.01
356.877	0.11
357.085	0.04
357.294	-0.1
357.503	-0.01
357.711	-0.02
357.92	0.11
358.128	0
358.337	-0.03
358.545	0.02
358.754	-0.02
358.962	-0.01
359.17	-0.08
359.379	-0.01
359.587	-0
359.796	0.04
360.004	0.03
360.212	-0
360.421	0.01
360.629	-0
360.837	0
361.046	0.02
361.254	0.07
361.462	-0.02
361.67	0
361.879	0.01
362.087	0.02
362.295	0.01
362.503	-0.02
362.711	-0.04
362.92	-0.02
363.128	-0.04
363.336	-0.04
363.544	-0.04
363.752	-0.03
363.96	-0
364.168	-0.05
364.376	-0.01
364.584	-0.02
364.792	0.04
365	0.04
365.208	-0.01
365.416	-0.02
365.624	0.05
365.832	-0.02
366.04	0.05
366.248	0
366.456	0.02
366.664	0
366.872	0.02
367.079	-0.03
367.287	0.02
367.495	-0.02
367.703	-0.04
367.911	-0.01
368.118	0.02
368.326	-0.01
368.534	-0.06
368.742	0.07
368.949	-0.05
369.157	-0.02
369.365	0.06
369.572	0
369.78	-0.06
369.988	0.02
370.195	0
370.403	0.05
370.61	-0.03
370.818	0.01
371.026	0.06
371.233	0.02
371.441	-0.03
371.648	-0.01
371.856	-0
372.063	-0.01
372.271	-0.04
372.478	-0.06
372.685	-0.05
372.893	0.01
373.1	-0.01
373.308	-0.03
373.515	0.03
373.722	0.02
373.93	-0
374.137	0.02
374.344	0.07
374.552	0.04
374.759	0
374.966	-0.01
375.173	-0.02
375.381	0.05
375.588	-0.02
375.795	-0.06
376.002	0.01
376.209	-0.09
376.417	-0.01
376.624	-0.01
376.831	0.01
377.038	0.01
377.245	-0.07
377.452	-0.01
377.659	0.02
377.866	-0.03
378.073	-0.02
378.28	-0.01
378.487	-0
378.694	-0.01
378.901	-0.02
379.108	-0.02
379.315	0.03
379.522	0.04
379.729	-0.02
379.936	0
380.143	0.05
380.35	0.01
380.557	-0.06
380.763	0.04
380.97	-0.01
381.177	0.06
381.384	0.03
381.591	-0.04
381.797	0.01
382.004	-0
382.211	-0.02
382.418	0
382.624	0.08
382.831	0.01
383.038	-0.05
383.244	0
383.451	-0.03
383.658	0.02
383.864	-0.01
384.071	-0.02
384.277	0.09
384.484	-0.03
384.69	0.03
384.897	-0.03
385.103	-0.03
385.31	-0.05
385.516	-0.03
385.723	-0.06
385.929	-0.02
386.136	-0.01
386.342	0.02
386.549	-0.02
386.755	0.02
386.961	0.07
387.168	-0.02
387.374	0.02
387.58	0.04
387.787	-0.01
387.993	-0.02
388.199	-0.05
388.406	-0.02
388.612	-0.01
388.818	-0.03
389.024	-0.04
389.231	0.01
389.437	0.07
389.643	0.06
389.849	0.01
390.055	0.01
390.261	0.07
390.467	0.01
390.674	-0.03
390.88	-0.03
391.086	0.06
391.292	-0.04
391.498	0.02
391.704	0.01
391.91	0.01
392.116	-0.04
392.322	-0.14
392.528	-0.03
392.734	-0.04
392.94	-0
393.146	-0.02
393.352	-0.02
393.557	-0.02
393.763	-0.05
393.969	0.03
394.175	0.01
394.381	-0.03
394.587	-0.07
394.792	-0.03
394.998	0.04
395.204	0.07
395.41	-0.03
395.615	0.01
395.821	-0.01
396.027	0.02
396.233	-0.01
396.438	-0
396.644	0.04
396.85	-0.01
397.055	-0
397.261	-0
397.466	0.01
397.672	-0.01
397.878	0.06
398.083	0.04
398.289	-0.02
398.494	0.05
398.7	0.03
398.905	-0.07
399.111	0.1
399.316	-0.03
399.522	0.04
399.727	0.02
399.932	-0.04
400.138	-0.05
400.343	0.04
400.549	0.02
400.754	0.02
400.959	0.03
401.165	-0.02
401.37	0.01
401.575	0.07
401.78	-0.02
401.986	-0.01
402.191	-0.02
402.396	-0.01
402.601	0.08
402.807	0.02
403.012	0.01
403.217	0.05
403.422	-0.01
403.627	0.01
403.832	-0.01
404.037	0.05
404.243	0.05
404.448	-0.02
404.653	0
404.858	0.06
405.063	0.06
405.268	-0.03
405.473	-0.02
405.678	0.02
405.883	0.14
406.088	0.06
406.293	-0.04
406.498	-0.01
406.703	0.05
406.907	-0.01
407.112	-0.03
407.317	0.04
407.522	0.05
407.727	-0.02
407.932	0.02
408.136	0.1
408.341	0.02
408.546	0.02
408.751	0.04
408.956	-0.01
409.16	-0.01
409.365	0.02
409.57	-0.02
409.774	0.03
409.979	0.08
410.184	0.01
410.388	-0.05
410.593	0.06
410.798	0.02
411.002	0.01
411.207	0.02
411.411	0.04
411.616	-0
411.82	-0.01
412.025	0.05
412.229	-0.04
412.434	0.06
412.638	-0.01
412.843	-0.01
413.047	0.02
413.252	-0.02
413.456	-0.02
413.66	0.01
413.865	-0.06
414.069	0.12
414.273	-0.03
414.478	-0.03
414.682	-0.01
414.886	0
415.091	-0.02
415.295	-0.09
415.499	-0.04
415.703	-0.03
415.908	0.06
416.112	-0.05
416.316	0.03
416.52	-0.03
416.724	-0.04
416.929	-0.03
417.133	0.08
417.337	-0.04
417.541	-0.04
417.745	-0.01
417.949	0.02
418.153	0
418.357	-0.05
418.561	0.03
418.765	0.02
418.969	0.13
419.173	-0
419.377	-0.07
419.581	0.07
419.785	-0.05
419.989	-0.07
420.193	-0.04
420.397	0.04
420.601	0.05
420.804	0.03
421.008	0.04
421.212	0.04
421.416	0
421.62	-0.02
421.823	-0.01
422.027	0.09
422.231	0.03
422.435	-0.02
422.638	0.02
422.842	-0.03
423.046	-0.03
423.249	0.05
423.453	0.05
423.657	0.04
423.86	-0
424.064	-0.01
424.268	0.05
424.471	0
424.675	0.07
424.878	0.08
425.082	-0.01
425.285	0.05
425.489	-0.04
425.692	0.02
425.896	-0.03
426.099	0.01
426.303	-0.03
426.506	-0.03
426.71	0.02
426.913	0.05
427.116	0.07
427.32	-0
427.523	0.01
427.726	0.06
427.93	-0.04
428.133	0.01
428.336	-0.07
428.54	-0.04
428.743	0.02
428.946	0.05
429.149	-0.01
429.353	0.04
429.556	0
429.759	0
429.962	-0.04
430.165	-0
430.368	-0.01
430.571	-0.05
430.775	-0.02
430.978	-0
431.181	0.03
431.384	0.01
431.587	-0.03
431.79	-0.05
431.993	0.03
432.196	0
432.399	-0.04
432.602	0.06
432.805	0.02
433.008	0.01
433.211	-0.05
433.414	0.01
433.616	-0.02
433.819	-0.01
434.022	-0.08
434.225	0.05
434.428	0.02
434.631	0.08
434.833	-0.01
435.036	-0
435.239	0.03
435.442	0
435.645	0
435.847	0.01
436.05	0.1
436.253	0.04
436.455	-0.02
436.658	-0.01
436.861	0.03
437.063	-0.01
437.266	-0.01
437.468	0.04
437.671	0.14
437.874	-0.01
438.076	-0.03
438.279	-0.06
438.481	0.03
438.684	-0.05
438.886	0
439.089	-0.05
439.291	0.03
439.494	0.05
439.696	-0.04
439.899	-0.03
440.101	0.06
440.303	-0.03
440.506	0.09
440.708	0.02
440.91	0.07
441.113	-0.05
441.315	0.08
441.517	-0.03
441.72	0.07
441.922	-0.01
442.124	-0.03
442.326	0.01
442.529	0.07
442.731	-0.04
442.933	0.1
443.135	0.04
443.337	-0.03
443.539	0.02
443.742	-0.03
443.944	0.02
444.146	0.03
444.348	0.01
444.55	0.03
444.752	0.07
444.954	-0.01
445.156	0.01
445.358	0.01
445.56	0.08
445.762	0.02
445.964	0.02
446.166	0.03
446.368	-0.01
446.57	0.08
446.772	0.05
446.974	0.01
447.175	0.07
447.377	-0
447.579	0.07
447.781	-0.02
447.983	0.09
448.184	0.04
448.386	0.02
448.588	0.01
448.79	0.06
448.991	0.01
449.193	0.03
449.395	0.03
449.597	0.06
449.798	0.07
450	0.09
450.202	0.04
450.403	0.06
450.605	0.07
450.806	0.08
451.008	-0.04
451.21	0.09
451.411	0.05
451.613	0.02
451.814	0.08
452.016	0.07
452.217	0.07
452.419	0.13
452.62	0.05
452.821	0.11
453.023	0.12
453.224	0.09
453.426	0.04
453.627	0.08
453.828	0.1
454.03	0.02
454.231	0.06
454.432	-0
454.634	0.12
454.835	0.05
455.036	-0.02
455.238	0.09
455.439	0.09
455.64	-0.04
455.841	-0.01
456.042	0.14
456.244	0.07
456.445	-0.04
456.646	-0.04
456.847	-0.02
457.048	0.07
457.249	0.07
457.45	0.19
457.651	-0.06
457.852	-0.02
458.054	0.04
458.255	-0.01
458.456	0.06
458.657	0.02
458.858	0
459.058	0.05
459.259	0.05
459.46	0.04
459.661	-0.02
459.862	0.15
460.063	0.01
460.264	0.04
460.465	0.01
460.666	0.12
460.866	-0.01
461.067	0
461.268	-0.02
461.469	0.01
461.67	0.01
461.87	-0
462.071	-0.02
462.272	-0.01
462.473	-0.04
462.673	0.02
462.874	-0.04
463.075	0.03
463.275	-0.03
463.476	0.04
463.676	0.01
463.877	0.02
464.078	-0.02
464.278	0.04
464.479	-0.05
464.679	0.01
464.88	-0.03
465.08	0.11
465.281	-0.03
465.481	-0
465.682	0.04
465.882	0.07
466.083	0.02
466.283	0.01
466.483	0.02
466.684	-0.05
466.884	0
467.085	-0.03
467.285	0.07
467.485	-0.02
467.686	-0.01
467.886	-0.03
468.086	0.02
468.286	0.03
468.487	0.01
468.687	-0.09
468.887	-0.02
469.087	0.01
469.287	-0.01
469.488	-0.08
469.688	0.02
469.888	0.02
470.088	0.02
470.288	0.03
470.488	0.03
470.688	-0.05
470.888	-0.01
471.088	0.01
471.288	0.04
471.488	0.04
471.688	0.03
471.888	-0.04
472.088	0.05
472.288	0.02
472.488	-0.06
472.688	-0.01
472.888	-0.02
473.088	-0.04
473.288	0.02
473.488	-0.01
473.688	0.09
473.887	-0.01
474.087	-0.01
474.287	0.01
474.487	-0.04
474.687	0.02
474.886	-0.04
475.086	-0.01
475.286	0
475.486	0.02
475.685	0.03
475.885	0
476.085	-0.02
476.284	0.01
476.484	0.01
476.684	0.04
476.883	0.02
477.083	0.02
477.282	0.03
477.482	0.06
477.681	0.03
477.881	0.02
478.08	-0.03
478.28	-0.03
478.479	0.04
478.679	0.06
478.878	-0.04
479.078	-0.02
479.277	-0.03
479.477	-0.02
479.676	0.05
479.875	-0.03
480.075	-0.05
480.274	0.02
480.473	0.02
480.673	-0.03
480.872	0.05
481.071	0.04
481.271	0.01
481.47	-0.04
481.669	-0.02
481.868	-0
482.067	-0.04
482.267	-0.02
482.466	-0.04
482.665	-0.02
482.864	-0.03
483.063	-0.03
483.262	0.02
483.461	0.03
483.661	0.04
483.86	-0.01
484.059	0.02
484.258	-0.02
484.457	-0.02
484.656	-0.01
484.855	-0
485.054	-0.07
485.253	-0.04
485.452	-0.03
485.651	0.01
485.849	0
486.048	-0.03
486.247	-0
486.446	-0.02
486.645	-0.04
486.844	-0.01
487.043	0.01
487.241	-0
487.44	-0.05
487.639	-0.02
487.838	-0.01
488.037	0.01
488.235	0.03
488.434	0
488.633	-0.01
488.831	0
489.03	0.01
489.229	-0.01
489.427	0.01
489.626	0.01
489.825	0.03
490.023	-0.03
490.222	-0.03
490.42	0.01
490.619	0.03
490.817	0.01
491.016	-0.02
491.214	0.04
491.413	-0.01
491.611	-0.02
491.81	-0.01
492.008	0
492.207	0.02
492.405	0.02
492.604	-0.02
492.802	-0.03
493	-0.01
493.199	-0.03
493.397	-0
493.595	0.01
493.794	-0.02
493.992	0.03
494.19	-0.01
494.388	-0
494.587	-0.03
494.785	0.01
494.983	-0.04
495.181	-0.02
495.379	0.01
495.578	-0.01
495.776	0.02
495.974	0.02
496.172	-0.01
496.37	-0.03
496.568	-0.04
496.766	-0.03
496.964	0.01
497.162	-0
497.36	-0.02
497.558	0.01
497.756	0.03
497.954	0.01
498.152	-0.05
498.35	-0.02
498.548	-0.02
498.746	-0.01
498.944	-0.02
499.142	-0.03
499.34	-0.02
499.538	-0.01
499.736	-0.03
499.933	0.03
500.131	0
500.329	0
500.527	0.02
500.725	0.03
500.922	0.01
501.12	0
501.318	-0
501.516	-0.01
501.713	-0
501.911	0.01
502.109	-0.03
502.306	0.02
502.504	-0.01
502.701	-0.01
502.899	-0.01
503.097	0.04
503.294	-0
503.492	-0.02
503.689	0
503.887	0
504.084	0.04
504.282	-0.01
504.479	-0.03
504.677	0.01
504.874	-0.01
505.072	-0.01
505.269	-0.03
505.466	0.04
505.664	0
505.861	-0.05
506.059	-0.03
506.256	0.02
506.453	-0.02
506.651	0.03
506.848	0
507.045	0.01
507.242	-0.01
507.44	-0.03
507.637	-0.04
507.834	-0.01
508.031	0.02
508.229	-0.01
508.426	-0.01
508.623	0.01
508.82	-0.02
509.017	-0.03
509.214	-0.03
509.411	0.02
509.608	-0.05
509.805	0
510.003	-0.02
510.2	-0.02
510.397	0.03
510.594	-0.02
510.791	-0.03
510.988	0
511.184	0.01
511.381	0.01
511.578	-0.04
511.775	0.01
511.972	-0.02
512.169	-0.02
512.366	-0.02
512.563	0.01
512.76	-0.03
512.956	-0.02
513.153	-0
513.35	-0
513.547	-0.02
513.744	-0.03
513.94	-0.04
514.137	0
514.334	-0.02
514.53	0.01
514.727	-0
514.924	0.03
515.12	-0.02
515.317	-0.03
515.514	-0.02
515.71	-0.03
515.907	-0.03
516.103	-0.01
516.3	0
516.497	0.01
516.693	0.01
516.89	-0.02
517.086	-0.02
517.283	0.03
517.479	-0.01
517.676	-0.01
517.872	-0
518.068	-0.02
518.265	-0.02
518.461	-0.03
518.658	-0.02
518.854	0.02
519.05	0
519.247	-0.02
519.443	0
519.639	0.02
519.836	-0.01
520.032	0.01
520.228	-0
520.424	0.04
520.621	0
520.817	-0.03
521.013	0.02
521.209	-0.01
521.405	0.03
521.601	0
521.798	-0.01
521.994	0.02
522.19	-0.04
522.386	-0.05
522.582	-0.01
522.778	-0.01
522.974	-0.03
523.17	-0.02
523.366	-0.01
523.562	0.03
523.758	-0.03
523.954	-0.01
524.15	-0.01
524.346	0.01
524.542	-0.01
524.738	-0.02
524.934	0
525.129	-0.1
525.325	0
525.521	-0.01
525.717	-0.01
525.913	-0.01
526.109	-0.02
526.304	-0.01
526.5	-0
526.696	0.01
526.892	-0
527.087	0.01
527.283	-0.02
527.479	0.01
527.674	-0.03
527.87	-0.02
528.066	0
528.261	0
528.457	-0
528.653	-0
528.848	-0.02
529.044	0.01
529.239	-0.01
529.435	-0.01
529.63	0.01
529.826	0.04
530.021	-0.02
530.217	0.03
530.412	-0
530.608	-0
530.803	-0
530.999	0
531.194	-0.05
531.389	0
531.585	-0.06
531.78	-0
531.975	-0
532.171	0.02
532.366	-0.01
532.561	-0.02
532.757	-0.02
532.952	-0.02
533.147	0.01
533.342	-0
533.538	-0.02
533.733	0.01
533.928	-0
534.123	-0.02
534.318	-0.03
534.513	-0.01
534.709	-0.01
534.904	-0.01
535.099	-0.01
535.294	0.01
535.489	-0
535.684	0.01
535.879	-0.02
536.074	-0.01
536.269	-0.03
536.464	-0.01
536.659	0.04
536.854	-0
537.049	-0
537.244	0
537.439	0
537.634	0.02
537.828	0.01
538.023	-0
538.218	-0.04
538.413	-0.02
538.608	-0.03
538.803	0.02
538.997	-0.05
539.192	0.03
539.387	-0.02
539.582	0.01
539.776	0.01
539.971	-0.01
540.166	-0.02
540.36	-0.03
540.555	0
540.75	0
540.944	-0
541.139	-0.07
541.334	-0
541.528	0.02
541.723	-0
541.917	-0.03
542.112	-0.05
542.306	-0.02
542.501	-0.02
542.695	-0.01
542.89	-0.02
543.084	-0.01
543.279	-0.02
543.473	-0.01
543.668	-0.01
543.862	0
544.056	0
544.251	-0.02
544.445	-0
544.64	-0.02
544.834	-0.04
545.028	-0
545.222	-0.01
545.417	0.02
545.611	-0.01
545.805	-0.01
546	-0
546.194	-0.01
546.388	-0.01
546.582	0
546.776	-0
546.97	0.01
547.165	-0
547.359	0.03
547.553	-0.03
547.747	0
547.941	-0.01
548.135	-0.01
548.329	0.01
548.523	0.01
548.717	-0.01
548.911	-0.04
549.105	-0.01
549.299	-0
549.493	0.02
549.687	0.02
549.881	0.01
550.075	-0
550.269	-0.03
550.463	0.02
550.657	-0.02
550.85	-0
551.044	-0.02
551.238	0.01
551.432	-0.02
551.626	-0.02
551.82	0.01
552.013	-0.04
552.207	-0.01
552.401	-0.02
552.594	0
552.788	0.02
552.982	0
553.176	-0.04
553.369	-0.01
553.563	0.02
553.756	-0.04
553.95	-0.01
554.144	-0.01
554.337	0.02
554.531	0.02
554.724	-0.02
554.918	-0.01
555.111	0.03
555.305	0
555.498	0.02
555.692	0
555.885	-0.02
556.079	-0.01
556.272	-0.04
556.466	0.02
556.659	-0.01
556.852	-0.03
557.046	-0.03
557.239	0.01
557.432	-0.03
557.626	-0.03
557.819	0
558.012	0.02
558.206	0.01
558.399	-0.02
558.592	0.01
558.785	-0.02
558.979	0.02
559.172	0
559.365	0
559.558	0.01
559.751	-0.01
559.944	0.02
560.138	-0.02
560.331	-0.01
560.524	-0.01
560.717	0
560.91	-0.03
561.103	-0
561.296	-0.01
561.489	0.02
561.682	-0
561.875	0.04
562.068	0.01
562.261	0.01
562.454	0.04
562.647	0
562.84	-0
563.032	-0.01
563.225	-0
563.418	-0.02
563.611	-0.01
563.804	-0.02
563.997	-0.04
564.19	-0.02
564.382	-0.01
564.575	-0
564.768	0
564.961	-0.02
565.153	-0.01
565.346	0
565.539	0.04
565.731	0.02
565.924	0.03
566.117	0.02
566.309	-0
566.502	0.01
566.695	-0.03
566.887	0.01
567.08	-0.04
567.272	-0.01
567.465	-0.03
567.657	-0.01
567.85	-0.01
568.042	0.02
568.235	-0.01
568.427	-0.01
568.62	0.02
568.812	0.02
569.005	0
569.197	-0.02
569.389	-0
569.582	0.01
569.774	0
569.966	-0.03
570.159	-0.03
570.351	0
570.543	-0.04
570.736	-0.02
570.928	-0.03
571.12	0.01
571.312	-0.01
571.505	-0.04
571.697	0.02
571.889	-0.06
572.081	-0.01
572.273	-0.04
572.465	0.03
572.658	-0.03
572.85	0
573.042	-0
573.234	-0.01
573.426	0.02
573.618	-0.05
573.81	0.01
574.002	0.03
574.194	0.02
574.386	-0.04
574.578	-0.07
574.77	-0.03
574.962	-0.01
575.154	-0.04
575.346	-0
575.538	-0.01
575.729	-0.02
575.921	-0.04
576.113	-0.02
576.305	0.02
576.497	-0.01
576.689	-0.03
576.88	-0.03
577.072	0.03
577.264	-0.03
577.456	-0.03
577.647	-0.09
577.839	-0.01
578.031	0.04
578.223	-0.02
578.414	-0.04
578.606	-0.02
578.798	0
578.989	-0.05
579.181	-0.01
579.372	-0
579.564	0
579.755	0
579.947	0.01
580.139	0
580.33	-0.06
580.522	-0.04
580.713	-0.06
580.905	-0.01
581.096	0.01
581.287	0.02
581.479	-0.01
581.67	0.01
581.862	-0.02
582.053	-0.04
582.244	-0.05
582.436	-0.03
582.627	0
582.818	-0.02
583.01	-0.04
583.201	0.03
583.392	0.01
583.583	-0
583.775	-0.05
583.966	-0.05
584.157	-0.02
584.348	-0.01
584.54	-0.05
584.731	-0
584.922	-0.02
585.113	-0.04
585.304	0.01
585.495	0.03
585.686	-0.01
585.877	-0.02
586.068	-0.01
586.259	0.01
586.45	0
586.641	-0.03
586.832	-0.06
587.023	-0
587.214	-0
587.405	-0.02
587.596	-0.03
587.787	0.01
587.978	0
588.169	-0.03
588.36	-0.04
588.551	-0
588.742	-0.03
588.932	0
589.123	-0
589.314	0.01
589.505	0
589.696	0.03
589.886	-0.03
590.077	-0.06
590.268	-0
590.458	-0.04
590.649	-0.05
590.84	0.02
591.03	-0.06
591.221	-0.04
591.412	-0.05
591.602	0.02
591.793	0.04
591.984	-0.05
592.174	-0.04
592.365	0.03
592.555	-0.03
592.746	0
592.936	-0.03
593.127	0.02
593.317	0.02
593.508	-0.02
593.698	-0.05
593.889	-0.03
594.079	-0
594.269	-0.03
594.46	-0.01
594.65	0
594.84	0.02
595.031	-0.03
595.221	-0.04
595.411	-0.07
595.602	0.01
595.792	-0.03
595.982	-0.06
596.172	0.02
596.363	0
596.553	-0.02
596.743	-0
596.933	-0.01
597.123	0.02
597.314	-0.05
597.504	-0.03
597.694	0.02
597.884	0.03
598.074	-0
598.264	-0.02
598.454	0
598.644	-0.01
598.834	-0.03
599.024	-0.07
599.214	-0.02
599.404	0.02
599.594	-0.01
599.784	-0.05
599.974	0.05
600.164	0.01
600.354	-0.06
600.544	-0.04
600.734	-0
600.924	0.01
601.114	-0.02
601.303	0.02
601.493	0
601.683	0.02
601.873	0.01
602.063	-0.04
602.252	0.01
602.442	-0.06
602.632	-0.05
602.821	-0.04
603.011	0.03
603.201	-0.01
603.39	-0.03
603.58	-0.03
603.77	0.01
603.959	0.02
604.149	0.01
604.339	-0.03
604.528	0
604.718	0.01
604.907	-0.01
605.097	-0.04
605.286	-0.05
605.476	0.02
605.665	0.01
605.855	-0.01
606.044	0.03
606.234	0.02
606.423	-0.01
606.612	-0.05
606.802	0.01
606.991	0.01
607.181	0.01
607.37	-0.01
607.559	0.01
607.749	-0.03
607.938	-0.01
608.127	-0.01
608.316	-0.02
608.506	0.01
608.695	-0.02
608.884	-0.04
609.073	0.01
609.263	-0
609.452	0.01
609.641	0.01
609.83	-0.05
610.019	-0.01
610.208	-0.03
610.397	-0.01
610.586	-0.02
610.775	-0.04
610.965	-0.03
611.154	-0.03
611.343	-0
611.532	-0.01
611.721	-0.04
611.91	-0.03
612.099	-0.01
612.287	-0.02
612.476	-0.04
612.665	0.01
612.854	0.01
613.043	0.04
613.232	-0.05
613.421	-0.05
613.61	0.02
613.798	-0.04
613.987	0.01
614.176	-0.01
614.365	0.01
614.554	0
614.742	0
614.931	-0.01
615.12	0.03
615.309	-0.02
615.497	0
615.686	-0.05
615.875	0
616.063	-0.02
616.252	-0.05
616.44	-0.03
616.629	-0.01
616.818	-0.02
617.006	-0.02
617.195	-0.03
617.383	0.03
617.572	0.03
617.76	-0.01
617.949	-0.02
618.137	0.01
618.326	0.02
618.514	-0.02
618.703	-0.02
618.891	0.05
619.079	-0.07
619.268	0
619.456	-0.02
619.644	0.04
619.833	-0
620.021	-0.04
620.209	-0.07
620.398	0.02
620.586	0.02
620.774	-0
620.962	-0.02
621.151	0.03
621.339	-0
621.527	-0.04
621.715	-0.05
621.903	-0.04
622.092	-0.05
622.28	0.01
622.468	-0.03
622.656	-0.03
622.844	0.02
623.032	-0.02
623.22	-0.08
623.408	-0
623.596	0.01
623.784	0
623.972	-0.03
624.16	-0.05
624.348	0.01
624.536	-0.02
624.724	-0.01
624.912	0.02
625.1	0.02
625.288	-0.05
625.476	-0.02
625.664	0.02
625.851	-0.05
626.039	-0.01
626.227	0.01
626.415	-0.01
626.603	-0.02
626.79	-0.02
626.978	0.02
627.166	-0.01
627.354	-0.02
627.541	-0.02
627.729	-0.06
627.917	0.02
628.104	0.04
628.292	0.02
628.48	-0
628.667	0.02
628.855	-0
629.042	-0.01
629.23	0.01
629.418	-0.01
629.605	-0.04
629.793	-0.03
629.98	-0.01
630.168	-0.03
630.355	0.03
630.543	-0
630.73	-0.04
630.917	0.05
631.105	0.05
631.292	-0.01
631.48	-0.05
631.667	0.06
631.854	0.02
632.042	0.01
632.229	-0.03
632.416	0.04
632.604	-0
632.791	-0
632.978	0.01
633.165	0.02
633.353	0.05
633.54	0.01
633.727	-0.05
633.914	-0.02
634.101	-0.06
634.289	0.07
634.476	0.01
634.663	-0.04
634.85	0.03
635.037	-0.05
635.224	-0.05
635.411	0.02
635.598	0.02
635.785	0.01
635.972	0.01
636.159	0.03
636.346	-0.03
636.533	0.01
636.72	0.01
636.907	0.01
637.094	0.03
637.281	0.01
637.468	0.01
637.655	0
637.842	-0
638.029	-0.02
638.215	0.04
638.402	-0.01
638.589	0
638.776	0
638.963	-0
639.149	0.06
639.336	0.05
639.523	0.01
639.709	0.01
639.896	0.02
640.083	0.06
640.27	0.03
640.456	-0
640.643	0.02
640.829	-0.04
641.016	-0
641.203	-0
641.389	0.06
641.576	0.06
641.762	0.01
641.949	0.01
642.135	-0
642.322	0.03
642.508	0.01
642.695	0.03
642.881	0.02
643.068	-0.01
643.254	0.01
643.441	0.05
643.627	0.02
643.813	-0.01
644	0.05
644.186	-0
644.372	0.07
644.559	0.07
644.745	0
644.931	-0
645.118	-0
645.304	0.03
645.49	0
645.676	0.01
645.862	0.03
646.049	0.09
646.235	0.03
646.421	0.08
646.607	0.11
646.793	0.02
646.979	-0
647.165	0.03
647.352	0.03
647.538	0.09
647.724	0.04
647.91	0.04
648.096	0.08
648.282	0.06
648.468	0.04
648.654	0.06
648.84	0.03
649.026	0.05
649.212	0.05
649.397	0.03
649.583	-0.02
649.769	0.04
649.955	0.09
650.141	0.09
650.327	0.11
650.513	0.02
650.698	0.04
650.884	-0.01
651.07	0.11
651.256	0.07
651.442	0.05
651.627	0.02
651.813	0.06
651.999	0.08
652.184	0.05
652.37	0.06
652.556	0.04
652.741	0.15
652.927	-0
653.113	0.05
653.298	0.07
653.484	0.05
653.669	0.06
653.855	0.07
654.04	0.08
654.226	0.12
654.412	0.05
654.597	0.08
654.782	0.08
654.968	0.08
655.153	0.09
655.339	0.03
655.524	0.03
655.71	0.12
655.895	0.07
656.08	0.09
656.266	0.1
656.451	0.1
656.636	0.06
656.822	0.1
657.007	0.09
657.192	0.08
657.378	0.02
657.563	0.09
657.748	0.11
657.933	0.12
658.118	0.05
658.304	0.08
658.489	0.13
658.674	0.13
658.859	0.08
659.044	0.1
659.229	0.1
659.414	0.08
659.599	0.13
659.785	0.03
659.97	0.08
660.155	0.1
660.34	0.12
660.525	0.08
660.71	0.07
660.895	0.16
661.08	0.08
661.264	0.08
661.449	0.13
661.634	0.11
661.819	0.1
662.004	0.1
662.189	0
662.374	0.08
662.559	0.04
662.743	0.02
662.928	0.07
663.113	0.04
663.298	0.01
663.483	0.06
663.667	0.04
663.852	0.03
664.037	0.09
664.221	0.04
664.406	0.11
664.591	0.04
664.775	0.03
664.96	0.05
665.145	0.04
665.329	0.05
665.514	0.02
665.698	0.03
665.883	-0.03
666.068	0.07
666.252	0.02
666.437	-0.01
666.621	0.03
666.806	0.07
666.99	0.02
667.174	-0.01
667.359	0.1
667.543	-0.02
667.728	-0
667.912	-0.01
668.096	0.06
668.281	0.03
668.465	0.01
668.649	0.01
668.834	-0.03
669.018	-0
669.202	0.02
669.387	-0.03
669.571	0.01
669.755	0.01
669.939	0.02
670.124	0
670.308	0.08
670.492	0.03
670.676	0.01
670.86	0.03
671.044	-0.05
671.228	0.03
671.413	0.01
671.597	-0.01
671.781	-0.04
671.965	0.02
672.149	-0.01
672.333	0.01
672.517	-0.02
672.701	0.03
672.885	-0.05
673.069	-0.05
673.253	0.02
673.437	-0.02
673.621	-0.03
673.804	-0.04
673.988	-0.01
674.172	-0.02
674.356	-0.05
674.54	-0.01
674.724	0.08
674.908	-0.05
675.091	0
675.275	-0.03
675.459	0.03
675.643	0.1
675.826	0.03
676.01	-0.01
676.194	-0.01
676.377	0.01
676.561	0.03
676.745	-0.01
676.928	-0
677.112	0.07
677.296	-0.05
677.479	-0.07
677.663	-0.03
677.846	-0
678.03	-0.02
678.213	-0.03
678.397	0.01
678.58	-0.08
678.764	-0.03
678.947	-0.05
679.131	-0.04
679.314	0.05
679.498	-0.01
679.681	0
679.865	0.03
680.048	-0.04
680.231	-0.01
680.415	-0.02
680.598	-0.02
680.781	-0.04
680.965	-0.02
681.148	0
681.331	-0.03
681.514	0.02
681.698	-0.05
681.881	0.01
682.064	0
682.247	-0.02
682.43	-0.05
682.614	0.02
682.797	0.05
682.98	0.03
683.163	-0.03
683.346	-0
683.529	0.02
683.712	-0.03
683.895	0.02
684.078	-0.07
684.261	-0.05
684.444	-0.01
684.627	0.01
684.81	-0.06
684.993	-0
685.176	0
685.359	-0.02
685.542	-0.03
685.725	0.04
685.908	0.02
686.091	-0.03
686.274	0.05
686.457	0.05
686.639	-0.05
686.822	-0
687.005	-0.05
687.188	0.03
687.371	0.06
687.553	-0.02
687.736	0
687.919	0.06
688.102	0.02
688.284	-0.02
688.467	-0.03
688.65	-0.05
688.832	0.01
689.015	-0.04
689.197	-0.05
689.38	0.05
689.563	0.04
689.745	-0.04
689.928	-0.03
690.11	0
690.293	-0.01
690.475	-0.07
690.658	0.01
690.84	-0.04
691.023	-0.05
691.205	-0.04
691.388	-0.03
691.57	0.09
691.752	0.01
691.935	-0.09
692.117	-0.01
692.3	-0.02
692.482	-0.02
692.664	0.01
692.847	-0
693.029	0.07
693.211	0.02
693.393	0.01
693.576	0.01
693.758	-0.02
693.94	-0.04
694.122	-0.02
694.304	-0.01
694.487	-0.03
694.669	0.01
694.851	-0.09
695.033	-0.01
695.215	-0.04
695.397	-0.03
695.579	0.02
695.761	-0.08
695.943	-0.04
696.125	0.01
696.308	-0.01
696.49	-0.07
696.671	0.09
696.853	-0.02
697.035	0.09
697.217	-0.02
697.399	0.04
697.581	-0.05
697.763	-0.01
697.945	-0.06
698.127	-0.04
698.309	0.03
698.491	0.03
698.672	0.07
698.854	0.06
699.036	0.06
699.218	0.01
699.399	0.03
699.581	0.02
699.763	-0.03
699.945	-0.04
700.126	-0.08
700.308	0
700.49	0.01
700.671	-0.07
700.853	-0.03
701.035	0.01
701.216	-0.01
701.398	-0.07
701.579	-0.04
701.761	0.02
701.943	-0.02
702.124	-0.07
702.306	0
702.487	0.07
702.669	0.02
702.85	0.01
703.031	-0
703.213	0.09
703.394	0.06
703.576	-0.06
703.757	0.04
703.938	0.06
704.12	0.11
704.301	-0.01
704.483	-0.02
704.664	0.01
704.845	0.11
705.026	0
705.208	-0.03
705.389	-0
705.57	0.01
705.751	0.01
705.933	-0.02
706.114	0.11
706.295	0.04
706.476	-0.13
706.657	0.07
706.838	-0.02
707.02	0.09
707.201	-0.03
707.382	-0.06
707.563	0.02
707.744	-0.06
707.925	-0.05
708.106	-0.07
708.287	0.01
708.468	0.04
708.649	0.01
708.83	0.08
709.011	0.01
709.192	0.09
709.373	-0.05
709.554	-0.03
709.734	0.07
709.915	0.05
710.096	0.03
710.277	-0.07
710.458	0.04
710.639	0.04
710.819	-0.11
711	0.01
711.181	0.07
711.362	0.07
711.542	-0.01
711.723	-0
711.904	0.07
712.085	0.07
712.265	0.01
712.446	-0.03
712.627	-0.03
712.807	-0.05
712.988	0.04
713.168	0.04
713.349	-0.01
713.53	-0.15
713.71	-0.02
713.891	-0.1
714.071	-0
714.252	0
714.432	0.03
714.613	-0.04
714.793	-0.02
714.974	0.12
715.154	0.11
715.334	0.06
715.515	0.12
715.695	-0.1
715.876	-0.03
716.056	0.04
716.236	-0.04
716.417	-0.02
716.597	-0
716.777	0.14
716.957	0.06
717.138	0.02
717.318	0.03
717.498	0.01
717.678	-0.05
717.859	0
718.039	-0.13
718.219	0
718.399	0.07
718.579	0.01
718.759	-0.08
718.939	0.08
719.12	-0
719.3	0.08
719.48	-0.16
719.66	-0.05
719.84	0.09
720.02	0.01
720.2	-0.02
720.38	0.04
720.56	0.06
720.74	0.02
720.92	0.08
721.1	0.15
721.279	0.1
721.459	0.05
721.639	-0.05
721.819	0.07
721.999	-0.02
722.179	0.07
722.359	-0.01
722.538	0.05
722.718	0.06
722.898	-0
723.078	-0.01
723.257	0.01
723.437	0.01
723.617	0.07
723.797	-0.02
723.976	-0.03
724.156	0.1
724.336	0.1
724.515	0.17
724.695	-0.09
724.874	-0.01
725.054	0.08
725.234	-0.07
725.413	0.06
725.593	0.07
725.772	0.1
725.952	0.06
726.131	0.01
726.311	0.04
726.49	-0
726.67	-0.03
726.849	0.02
727.028	0.02
727.208	-0
727.387	0.04
727.567	-0.06
727.746	0.07
727.925	-0.05
728.105	-0.04
728.284	0.01
728.463	0.04
728.643	0.08
728.822	-0.06
729.001	0.02
729.18	-0.01
729.359	0.14
729.539	0.08
729.718	0.13
729.897	0.07
730.076	0.03
730.255	-0.01
730.434	0.04
730.614	0.09
730.793	0.16
730.972	0.05
731.151	0.07
731.33	0.17
731.509	0.04
731.688	0.1
731.867	0.05
732.046	-0.01
732.225	0.3
732.404	-0
732.583	-0.03
732.762	0.06
732.941	0.09
733.12	0.13
733.298	0.1
733.477	0.18
733.656	0.07
733.835	0.01
734.014	0.16
734.193	0.04
734.371	0.05
734.55	0.05
734.729	-0.02
734.908	0.19
735.086	0.18
735.265	0.14
735.444	-0.02
735.623	-0.01
735.801	-0.03
735.98	-0.01
736.159	0.01
736.337	0.19
736.516	0.08
736.694	0.14
736.873	0.04
737.052	0.09
737.23	0.19
737.409	-0.01
737.587	0.25
737.766	-0.08
737.944	0.16
738.123	0.03
738.301	0.15
738.479	0.02
738.658	0.11
738.836	-0.14
739.015	0.13
739.193	0.09
739.371	-0.04
739.55	0
739.728	-0.04
739.906	0.27
740.085	0.2
740.263	0.06
740.441	-0.12
740.62	0.22
740.798	0.16
740.976	0.02
741.154	0.01
741.332	0.22
741.511	-0.06
741.689	0.11
741.867	-0.01
742.045	-0.02
742.223	0.09
742.401	0
742.579	0.08
742.757	0.09
742.935	-0.14
743.114	0.02
743.292	0.01
743.47	0.03
743.648	-0.06
743.826	0.14
744.004	0.09
744.181	0.09
744.359	0.01
744.537	0.06
744.715	0.1
744.893	-0.05
745.071	0.06
745.249	0.01
745.427	-0.04
745.605	0.09
745.782	0.04
745.96	0.06
746.138	0.03
746.316	0.11
746.493	-0.01
746.671	0.11
746.849	0.03
747.027	0.2
747.204	-0.03
747.382	0.06
747.56	-0.05
747.737	0.09
747.915	-0.07
748.093	0.03
748.27	-0.07
748.448	-0.04
748.625	-0.1
748.803	-0.01
748.98	-0.11
749.158	0.04
749.335	0.19
749.513	-0
749.69	-0.11
749.868	0.02
750.045	0.09
750.223	-0.01
750.4	-0.06
750.578	0.2
750.755	0.03
750.932	-0.15
751.11	0.16
751.287	-0.09
751.464	0.12
751.642	-0.11
751.819	-0.01
751.996	0.08
752.173	0.02
752.351	-0.08
752.528	0.04
752.705	-0.01
752.882	-0.02
753.06	-0.04
753.237	0.03
753.414	0.12
753.591	0.1
753.768	0.02
753.945	-0.03
754.122	-0.08
754.299	-0.05
754.476	-0.05
754.654	0
754.831	0.04
755.008	0.02
755.185	-0.07
755.362	-0.09
755.539	0.08
755.716	-0.23
755.892	-0.07
756.069	-0.04
756.246	0.02
756.423	-0.1
756.6	0.15
756.777	-0.07
756.954	0.08
757.131	-0.06
757.307	-0.15
757.484	-0.2
757.661	-0.03
757.838	0
758.015	-0.19
758.191	0.09
758.368	-0.04
758.545	0.1
758.721	-0.02
758.898	-0.16
759.075	0.03
759.251	0.11
759.428	0.1
759.605	-0.22
759.781	0.02
759.958	0.08
760.134	-0.03
760.311	-0.1
760.488	0.12
760.664	0.08
760.841	0.02
761.017	-0.09
761.194	0.02
761.37	0.1
761.547	0.02
761.723	0.11
761.899	0.02
762.076	-0.02
762.252	-0.14
762.429	0.01
762.605	0.08
762.781	-0.02
762.958	0
763.134	-0.08
763.31	-0.03
763.486	0.04
763.663	-0.15
763.839	0.04
764.015	-0.09
764.191	-0.16
764.368	-0.06
764.544	-0.2
764.72	0.13
764.896	0.03
765.072	-0.01
765.248	-0.05
765.425	-0.03
765.601	-0.06
765.777	0.01
765.953	-0.16
766.129	-0.05
766.305	-0.17
766.481	0.04
766.657	-0.1
766.833	0.09
767.009	-0.16
767.185	-0.01
767.361	-0.15
767.537	-0.1
767.713	0.12
767.889	-0.2
768.065	-0.01
768.24	-0.13
768.416	0.03
768.592	-0.14
768.768	-0.06
768.944	-0.07
769.12	-0.15
769.295	-0.12
769.471	-0.08
769.647	-0.01
769.823	0.13
769.998	-0.07
770.174	-0.13
770.35	0.39
770.525	0.21
770.701	0.06
770.877	-0.03
771.052	-0.1
771.228	0.12
771.403	0.07
771.579	0.12
771.755	0.2
771.93	-0
772.106	-0.14
772.281	-0.2
772.457	-0.04
772.632	0
772.808	0.02
772.983	-0.01
773.159	-0.15
773.334	0.09
773.509	-0.01
773.685	-0.06
773.86	0.37
774.036	0.23
774.211	0.05
774.386	-0.07
774.562	-0.03
774.737	0.13
774.912	-0.06
775.087	0.08
775.263	-0.01
775.438	0.03
775.613	-0.15
775.788	0.01
775.964	0.03
776.139	0.28
776.314	-0.13
776.489	0.02
776.664	-0.07
776.839	-0.15
777.014	0.08
777.19	0.09
777.365	0.08
777.54	0.21
777.715	-0.2
777.89	-0.08
778.065	-0.27
778.24	0.04
778.415	0.13
778.59	-0.21
778.765	-0.13
778.94	-0.06
779.115	0.04
779.289	-0.07
779.464	-0.21
779.639	-0.02
779.814	-0.17
779.989	-0.19
780.164	0.22
780.339	0.18
780.513	-0.21
780.688	-0.09
780.863	0.03
781.038	0
781.212	-0.19
781.387	0.01
781.562	0.12
781.737	-0.02
781.911	0.12
782.086	-0.14
782.261	-0.04
782.435	0.09
782.61	-0.2
782.784	0.03
782.959	-0
783.134	0.07
783.308	-0.1
783.483	-0.05
783.657	0.05
783.832	0.16
784.006	-0.25
784.181	-0.19
784.355	0.25
784.53	0.05
784.704	-0.42
784.878	0.2
785.053	-0.04
785.227	0.11
785.402	0.23
785.576	-0.28
785.75	0.05
785.925	-0.16
786.099	0.1
786.273	0.13
786.448	0.01
786.622	-0.07
786.796	-0.27
786.97	-0.05
787.145	0.5
787.319	-0.38
787.493	-0.17
787.667	-0.45
787.841	0.04
788.015	0.21
788.19	-0.08
788.364	-0.02
788.538	0.2
788.712	0.17
788.886	-0.09
789.06	0.15
789.234	0.29
789.408	-0.18
789.582	-0.08
789.756	-0.02
789.93	-0.35
790.104	-0.12
790.278	-0.12
790.452	-0.28
790.626	0.11
790.8	-0.3
790.973	0.05
791.147	0.14
791.321	0.17
791.495	-0.04
791.669	0.19
791.843	0.19
792.016	-0.08
792.19	0.28
792.364	-0.32
792.538	0.39
792.711	-0.01
792.885	-0.2
793.059	-0.4
793.233	-0.6
793.406	0.2
793.58	0.01
793.754	0.25
793.927	-0.17
794.101	0.24
794.274	0.04
794.448	0.24
794.622	-0.51
794.795	-0.03
794.969	-0.27
795.142	0.35
795.316	-0.11
795.489	0.12
795.663	0.25
795.836	-0.12
796.009	-0.43
796.183	0.3
796.356	0.12
796.53	-0.13
796.703	0.03
796.876	0.44
797.05	-0.12
797.223	0.01
797.396	-0
797.57	-0.09
797.743	0.24
797.916	-0
798.09	-0.06
798.263	0.15
798.436	-0.02
798.609	-0.23
798.782	-0.23
798.956	0.05
799.129	-0.08
799.302	-0.19
799.475	-0.19
799.648	-0.23
799.821	-0.19
799.994	-0.07
800.167	-0.47
800.34	-0.03
800.514	0.02
800.687	-0.1
800.86	-0.09
801.033	-0.02
801.206	-0.27
801.379	-0.22
801.551	0.18
801.724	0.22
801.897	0.43
802.07	-0.05
802.243	-0.49
802.416	-0.32
802.589	-0.33
802.762	-0.03
802.935	-0.02
803.107	0.19
803.28	0.19
803.453	0.32
803.626	-0.24
803.798	-0.1
803.971	-0.2
804.144	-0.07
804.317	-0.06
804.489	0.02
804.662	0.05
804.835	0.09
805.007	-0.11
805.18	0.33
805.353	-0
805.525	-0.03
805.698	-0.02
805.87	0.05
806.043	0.21
806.215	-0.32
806.388	-0.22
806.56	0.01
806.733	0.32
806.905	0.07
807.078	-0.29
807.25	-0.45
807.423	-0
807.595	0.15
807.768	0.03
807.94	0.31
808.112	0.3
808.285	0.13
808.457	-0.07
808.629	0.13
808.802	0.5
808.974	-0.01
809.146	-0.24
809.318	-0.54
809.491	-0.28
809.663	0.04
809.835	-0.32
810.007	-0.14
810.18	-0.29
810.352	-0.53
810.524	-0.44
810.696	-0.03
810.868	0.51
811.04	-0.27
811.212	-0.2
811.384	0.29
811.556	0.23
811.728	-0.11
811.901	0.36
812.073	-0.22
812.245	0.33
812.417	0.1
812.589	-0.64
812.76	0.1
812.932	0.21
813.104	0.43
813.276	-0.15
813.448	0.28
813.62	-0.14
813.792	0.17
813.964	-0.01
814.136	0.29
814.307	-0.14
814.479	-0.1
814.651	0.28
814.823	0.4
814.995	0.1
815.166	0.42
815.338	-0.15
815.51	-0.48
815.681	0.46
815.853	0.2
816.025	-0.2
816.196	0.48
816.368	-0.08
816.54	-0.05
816.711	-0.6
816.883	-0.21
817.054	1.03
817.226	-0.92
817.398	0.45
817.569	-0.29
817.741	-0.21
817.912	-0.21
818.084	0.15
818.255	-0.03
818.426	-0.23
818.598	0.02
818.769	-0.65
818.941	-0.11
819.112	0.4
819.283	0.3
819.455	-0.03
819.626	-0.23
819.798	0.44
819.969	0.26
820.14	0.03
820.311	-0.25
820.483	-0.03
820.654	0.23
820.825	-0.23
820.996	-0.32
821.168	-0.3
821.339	0.13
821.51	-0.5
821.681	-0.35
821.852	-0.28
822.023	-0.47
822.195	-1.15
822.366	-0.33
822.537	-0.26
822.708	0.21
822.879	-0.19
823.05	0.49
823.221	-0.02
823.392	0.01
823.563	0.04
823.734	0.14
823.905	-0.41
824.076	-0.29
824.247	-0.82
824.418	-0.27
824.589	0.81
824.759	-0.34
824.93	-0.36
825.101	-1.05
825.272	0.01
825.443	0.54
825.614	0.24
825.784	-1.3
825.955	0.71
826.126	0.23
826.297	0.06
826.467	0.32
826.638	0.87
826.809	-0.87
826.98	-0.4
827.15	-0.08
827.321	-0.17
827.492	0.64
827.662	-0.06
827.833	0.59
828.003	-0.1
828.174	-0.33
828.345	-0.8
828.515	0.47
828.686	0.23
828.856	-0.93
829.027	-0.4
829.197	-0.07
829.368	0.43
829.538	-0.16
829.709	-0.54
829.879	0.06
830.049	0.19
830.22	-0.23
830.39	-0.02
830.56	0.17
830.731	0.06
830.901	-0.62
831.072	0.16
831.242	-0.27
831.412	-0.08
831.582	-0.39
831.753	-0.82
831.923	0.69
832.093	-0
832.263	-0.73
832.434	-0.41
832.604	-0.32
832.774	0.38
832.944	0.11
833.114	-0.17
833.284	0.1
833.454	-0.56
833.624	-0.64
833.795	-0.75
833.965	0.3
834.135	0.71
834.305	-0.18
834.475	-0.6
834.645	-0.48
834.815	-0.64
834.985	-0.78
835.155	-0.67
835.325	0.23
835.494	0.08
835.664	-0.19
835.834	-0.87
836.004	0.72
836.174	0.53
836.344	-0
836.514	-0.42
836.684	-0.37
836.853	0.1
837.023	-0.12
837.193	-0.24
837.363	0.18
837.532	0.85
837.702	-0.31
837.872	-0.27
838.041	0.8
838.211	1.33
838.381	-0.88
838.55	0.25
838.72	1.36
838.89	0.56
839.059	-0.61
839.229	-0.75
839.398	1.39
839.568	-0.05
839.738	0.39
839.907	0.74
840.077	0.31
840.246	-0.88
840.416	-0.95
840.585	-0.54
840.755	1.29
840.924	-0.22
841.093	-0.95
841.263	-0.65
841.432	-0.3
841.602	-0.25
841.771	-0.25
841.94	-0.84
842.11	1.49
842.279	1.37
842.448	-0.64
842.617	-0.22
842.787	0.64
842.956	-0.6
843.125	-0.28
843.294	0.15
843.464	-0.1
843.633	-0.77
843.802	-1.07
843.971	-0.82
844.14	0.63
844.309	0.65
844.479	-0.37
844.648	-0.43
844.817	-0.64
844.986	0.63
845.155	-0.97
845.324	0.33
845.493	0.2
845.662	0.02
845.831	0.1
846	0.72
846.169	-0.37
846.338	1.03
846.507	1.51
846.676	0.02
846.844	-1.22
847.013	0.28
847.182	0.61
847.351	-0.38
847.52	0.02
847.689	0.33
847.858	0.43
848.026	-0.18
848.195	-0.04
848.364	-0.75
848.533	-0.35
848.701	0.27
848.87	0.31
849.039	0.34
849.207	0.4
849.376	0.74
849.545	0.38
849.713	-0.74
849.882	-0.9
850.051	-0.07
850.219	0.07
850.388	0.21
850.556	-1.12
850.725	0.13
850.893	-0.48
851.062	0.9
851.23	0.87
851.399	-1.03
851.567	-0.57
851.736	-0.52
851.904	-0.44
852.073	0.13
852.241	0.03
852.41	0.14
852.578	-0.45
852.746	-0.86
852.915	-0.33
853.083	-0.41
853.251	-2.21
853.42	-0.98
853.588	-0.84
853.756	1.31
853.924	0.15
854.093	0.51
854.261	-0.65
854.429	-0.6
854.597	0.7
854.765	-1.36
854.934	-0.22
855.102	0.97
855.27	-0.74
855.438	0.45
855.606	1.49
855.774	1.1
855.942	-1.72
856.11	-1.98
856.278	-0.04
856.446	1.38
856.614	0.02
856.782	0.43
856.95	1.92
857.118	0.19
857.286	-0.08
857.454	-1.25
857.622	1.96
857.79	0.59
857.958	-0.31
858.126	-1.04
858.294	-2.49
858.462	-0.61
858.629	0.02
858.797	-1.48
858.965	0.15
859.133	-0.05
859.301	-0.1
859.468	0.44
859.636	-0.93
859.804	-0.2
859.971	0.77
860.139	0.25
860.307	1.51
860.474	-0.48
860.642	-1.56
860.81	-0.04
860.977	-0.31
861.145	1.29
861.313	-0.74
861.48	0.16
861.648	1.3
861.815	-0.19
861.983	-2.11
862.15	0.48
862.318	-0.45
862.485	0.04
862.653	-0.55
862.82	-0.9
862.988	1.02
863.155	-1.18
863.322	-0.98
863.49	-2.17
863.657	-1.02
863.824	0.6
863.992	0.11
864.159	0.34
864.326	0.74
864.494	-0.26
864.661	1.93
864.828	-1.68
864.996	0.87
865.163	2.45
865.33	-1.54
865.497	-3.63
865.664	-0.96
865.832	-1.22
865.999	-1.08
866.166	-2.32
866.333	-0.48
866.5	-0.95
866.667	-0.09
866.834	-0.96
867.001	0.64
867.168	-1.27
867.335	-0.79
867.502	-2.98
867.669	0.98
867.836	1.01
868.003	-0.68
868.17	-0.05
868.337	2.14
868.504	1.88
868.671	-1.23
868.838	-1.44
869.005	0.63
869.172	-0.1
869.339	-0.11
869.505	-1.45
869.672	-0.35
869.839	1.82
870.006	-0.22
870.173	-1.94
870.339	0.71
870.506	2.33
870.673	-1.9
870.84	1.43
871.006	1.22
871.173	-0.54
871.34	-0.43
871.506	-1.46
871.673	-0.7
871.839	-2.34
872.006	0.24
872.173	-1.86
872.339	-1.26
872.506	1.6
872.672	-0.63
872.839	-1.25
873.005	0.71
873.172	4.25
873.338	1.3
873.505	1.46
873.671	2.42
873.838	0.69
874.004	-1.58
874.171	-2.02
874.337	-1.42
874.503	0.34
874.67	-0.88
874.836	-0.83
875.002	0.69
875.169	1.91
875.335	1.06
875.501	-0.21
875.668	2.32
875.834	-0.36
876	-0.98
876.166	1.93
876.332	0.45
876.499	2.54
876.665	-0.76
876.831	-1.63
876.997	3.2
877.163	0.36
877.329	-1.56
877.495	-0.02
877.662	-0.08
877.828	2.01
877.994	-0.85
878.16	-2.98
878.326	-2.76
878.492	-0.87
878.658	-0.3
878.824	-1.36
878.99	0.16
879.156	0.07
879.322	1.45
879.487	0.5
879.653	-0.17
879.819	-1.01
879.985	-2.1
880.151	0.74
880.317	-0.98
880.483	0.15
880.648	1.94
880.814	-2.47
880.98	0.3
881.146	-2.86
881.312	-2.82
881.477	-0.89
881.643	0.5
881.809	1.94
881.974	2.08
882.14	-1.04
882.306	0.28
882.471	2.29
882.637	-1.09
882.803	2.06
882.968	2.07
883.134	1.72
883.299	0.61
883.465	-0.38
883.63	1.41
883.796	-0.21
883.961	0.67
884.127	-0.24
884.292	-4.05
884.458	-2.81
884.623	-2.81
