Data from Apollo_Calib_20240827__AbsoluteIrradiance__134__01-23-01-562.txt Node

Date: Wed Aug 28 01:23:01 BST 2024
User: biology
Spectrometer: FLMT08252
Trigger mode: 0
Integration Time (sec): 5.000000E-1
Scans to average: 5
Electric dark correction enabled: true
Nonlinearity correction enabled: false
Boxcar width: 0
XAxis mode: Wavelengths
Number of Pixels in Spectrum: 3648
>>>>>Begin Spectral Data<<<<<
179.588	-0
179.809	-0
180.03	-0
180.251	-0
180.473	-0
180.694	0
180.915	0
181.136	-0
181.357	0
181.578	-0
181.799	-0
182.02	-0
182.241	-0
182.462	0
182.683	0
182.904	-0
183.125	-0
183.346	0
183.567	-0
183.788	-0
184.009	-0
184.23	0
184.451	0
184.672	-0
184.892	-0
185.113	0
185.334	0
185.555	0
185.776	-0
185.996	0
186.217	-0
186.438	-0
186.659	-0
186.879	0
187.1	-0
187.321	-0
187.541	-0
187.762	-0
187.983	0
188.203	0
188.424	-0
188.644	-0
188.865	-0
189.086	-0
189.306	-0
189.527	-0
189.747	0
189.968	-0
190.188	0
190.409	0
190.629	0
190.849	-0
191.07	-0
191.29	0
191.511	-0
191.731	-0
191.951	-0
192.172	-0
192.392	-0
192.612	-0
192.833	-0
193.053	0
193.273	-0
193.493	-0
193.714	-0
193.934	0
194.154	0
194.374	-0
194.594	0
194.815	0
195.035	0
195.255	-0
195.475	-0
195.695	0
195.915	0
196.135	0
196.355	0
196.575	0
196.795	-0
197.015	-0
197.235	-0
197.455	-0
197.675	0
197.895	-0
198.115	-0
198.335	0
198.555	-0
198.775	0
198.995	0
199.214	0
199.434	-0
199.654	-0
199.874	-0
200.094	1.02
200.313	-0.24
200.533	-0.37
200.753	-1.09
200.973	0.32
201.192	0.79
201.412	-1.15
201.632	0.05
201.851	0.85
202.071	-0.22
202.291	-0
202.51	-0.48
202.73	0.17
202.95	-0.13
203.169	-0.66
203.389	-0.32
203.608	0.18
203.828	-0.22
204.047	-0
204.267	0.32
204.486	-0.21
204.706	0.28
204.925	-0.01
205.145	-0.6
205.364	0.13
205.583	0.23
205.803	-0.25
206.022	-0.5
206.242	0.04
206.461	0.06
206.68	-0.21
206.9	0.21
207.119	0.47
207.338	0.45
207.557	-0.27
207.777	-0.01
207.996	-0.19
208.215	0.31
208.434	0.05
208.654	-0.42
208.873	-0.02
209.092	0.45
209.311	-0.08
209.53	-0.24
209.749	-0.06
209.968	-0.07
210.187	-0.16
210.407	-0.3
210.626	-0.09
210.845	0.32
211.064	0.02
211.283	-0.32
211.502	0.2
211.721	0.08
211.94	-0.31
212.159	0.19
212.377	0.11
212.596	0.28
212.815	-0.08
213.034	-0.12
213.253	0.28
213.472	0.19
213.691	-0.19
213.91	-0.32
214.128	-0.12
214.347	0.32
214.566	-0.55
214.785	-0.46
215.003	0.04
215.222	0.05
215.441	-0.07
215.66	-0.2
215.878	0.05
216.097	0.26
216.316	-0.15
216.534	-0.14
216.753	0.01
216.972	-0.02
217.19	-0.12
217.409	-0.14
217.627	-0.23
217.846	-0.05
218.064	-0.01
218.283	-0.2
218.501	0.43
218.72	0.08
218.938	-0.17
219.157	-0.16
219.375	0.18
219.594	-0.02
219.812	-0.24
220.031	-0.22
220.249	0.26
220.467	0.27
220.686	0.04
220.904	-0.22
221.122	-0.07
221.341	0.32
221.559	-0.01
221.777	-0.16
221.995	0.07
222.214	0.11
222.432	-0.07
222.65	0.18
222.868	0.08
223.086	0.05
223.305	-0.01
223.523	-0.02
223.741	0.19
223.959	-0.14
224.177	-0.28
224.395	-0.08
224.613	0.13
224.831	0.21
225.049	-0.23
225.267	0
225.485	0.08
225.703	-0.12
225.921	-0.01
226.139	-0.07
226.357	0.04
226.575	-0.05
226.793	-0.17
227.011	0.45
227.229	0.06
227.447	0.09
227.665	-0.08
227.883	-0.23
228.1	0.04
228.318	0.06
228.536	-0.31
228.754	-0.12
228.972	0.05
229.189	0.02
229.407	-0.1
229.625	-0.12
229.843	0.17
230.06	0.03
230.278	-0.1
230.496	-0
230.713	0.01
230.931	0.14
231.149	0.05
231.366	-0.12
231.584	-0.09
231.801	0.23
232.019	-0.08
232.236	-0.13
232.454	-0.08
232.671	-0.01
232.889	-0.01
233.106	-0.14
233.324	-0
233.541	-0.07
233.759	-0.02
233.976	-0.2
234.194	-0.02
234.411	0.04
234.628	-0.17
234.846	-0.09
235.063	0.09
235.28	0
235.498	-0.02
235.715	-0.07
235.932	0.04
236.149	-0.04
236.367	-0.03
236.584	0.02
236.801	-0.04
237.018	0.03
237.236	-0.04
237.453	-0.11
237.67	0.09
237.887	-0.01
238.104	-0.09
238.321	-0.1
238.538	-0.09
238.755	0.04
238.973	-0.2
239.19	0.03
239.407	0.03
239.624	0
239.841	-0.17
240.058	-0.11
240.275	0.02
240.492	-0.07
240.709	-0.02
240.925	-0
241.142	0.04
241.359	-0.08
241.576	-0.12
241.793	-0.11
242.01	-0.04
242.227	0.13
242.444	0.1
242.66	0.09
242.877	0.03
243.094	-0.12
243.311	-0.04
243.527	-0.1
243.744	-0.06
243.961	0.1
244.178	-0.07
244.394	-0.05
244.611	0.11
244.828	0.1
245.044	-0.15
245.261	0.01
245.477	0.06
245.694	0.03
245.911	-0.1
246.127	-0.02
246.344	0.15
246.56	0.06
246.777	0.01
246.993	-0.06
247.21	0.05
247.426	0.16
247.643	-0.07
247.859	-0.14
248.076	0.01
248.292	0.14
248.508	-0.05
248.725	0.07
248.941	0.05
249.157	0.05
249.374	-0.07
249.59	-0.02
249.806	-0.03
250.023	-0.03
250.239	-0.11
250.455	-0.1
250.671	-0.05
250.888	0.03
251.104	0.04
251.32	-0.09
251.536	-0.06
251.752	-0.01
251.969	0.06
252.185	0.08
252.401	0.22
252.617	0
252.833	-0.01
253.049	0.05
253.265	0.04
253.481	0.03
253.697	-0.03
253.913	-0.11
254.129	-0.04
254.345	-0
254.561	0.01
254.777	0.03
254.993	0.04
255.209	-0.02
255.425	-0.04
255.641	-0.07
255.857	0.05
256.073	-0.05
256.288	-0.12
256.504	-0.09
256.72	-0
256.936	0.14
257.152	-0.03
257.367	-0.15
257.583	0
257.799	0.04
258.015	-0.07
258.23	-0.02
258.446	0.15
258.662	-0.04
258.877	-0.01
259.093	-0.12
259.309	0.02
259.524	-0.07
259.74	-0.05
259.955	-0.13
260.171	0.01
260.387	-0.04
260.602	0.1
260.818	-0.05
261.033	-0.03
261.249	-0.08
261.464	-0.07
261.68	-0.09
261.895	0.07
262.11	0.02
262.326	-0.06
262.541	-0.14
262.757	0.02
262.972	0.05
263.187	-0.02
263.403	0.01
263.618	0.06
263.833	0.01
264.049	-0.04
264.264	-0.01
264.479	0.07
264.694	0.07
264.91	-0.09
265.125	0.01
265.34	0.04
265.555	0.11
265.77	-0.02
265.986	0
266.201	0.01
266.416	0.03
266.631	-0.1
266.846	-0.04
267.061	0.07
267.276	0.05
267.491	-0.18
267.706	-0.02
267.921	-0.03
268.136	-0.02
268.351	-0.01
268.566	-0.11
268.781	0.06
268.996	0.07
269.211	0
269.426	-0.05
269.641	-0.04
269.856	0.04
270.071	-0.07
270.285	-0.08
270.5	0.06
270.715	0
270.93	0
271.145	0.03
271.359	0.07
271.574	-0.11
271.789	-0.03
272.004	-0.06
272.218	-0.02
272.433	0.02
272.648	-0.07
272.862	0.07
273.077	0
273.292	0.01
273.506	-0.01
273.721	-0.02
273.936	0.03
274.15	-0.01
274.365	-0.06
274.579	0.05
274.794	0.03
275.008	0.1
275.223	-0.04
275.437	0.02
275.652	0.03
275.866	0.04
276.081	0.03
276.295	0.03
276.509	0.02
276.724	-0.01
276.938	0.01
277.153	0.01
277.367	0.08
277.581	0.01
277.796	-0.06
278.01	-0.03
278.224	0.06
278.438	0.11
278.653	-0
278.867	-0.01
279.081	-0.2
279.295	-0.04
279.51	-0
279.724	-0.1
279.938	0.06
280.152	0.06
280.366	-0.07
280.58	0.05
280.794	0.05
281.008	0.02
281.222	0.02
281.437	0.14
281.651	0
281.865	0.1
282.079	-0.02
282.293	-0.07
282.507	-0.05
282.721	-0
282.935	0.02
283.148	-0.08
283.362	-0.04
283.576	-0.09
283.79	-0.02
284.004	-0.04
284.218	0.09
284.432	0.04
284.646	-0.03
284.859	0.01
285.073	-0.02
285.287	0.06
285.501	-0.02
285.714	-0.02
285.928	0.02
286.142	-0.01
286.356	-0.02
286.569	-0.04
286.783	0.03
286.997	0.02
287.21	-0.01
287.424	0.03
287.637	0.02
287.851	-0.07
288.065	0.02
288.278	0.03
288.492	-0.01
288.705	-0.04
288.919	0.03
289.132	-0.07
289.346	0.01
289.559	-0.06
289.773	-0.05
289.986	-0.03
290.2	-0.02
290.413	0.03
290.626	-0
290.84	-0.05
291.053	0
291.267	0.11
291.48	0.01
291.693	0.02
291.906	-0.02
292.12	-0.05
292.333	-0.09
292.546	-0.01
292.76	0.07
292.973	0.02
293.186	0.05
293.399	-0.06
293.612	0.06
293.826	0
294.039	-0.02
294.252	-0.02
294.465	-0.01
294.678	0.04
294.891	0.01
295.104	0.01
295.317	-0.03
295.53	0.04
295.743	0.03
295.956	0
296.169	0.07
296.382	-0
296.595	0.01
296.808	-0.03
297.021	0.02
297.234	0.01
297.447	0.02
297.66	0.01
297.873	0.02
298.086	0.04
298.299	-0
298.511	-0.06
298.724	0.03
298.937	-0.05
299.15	-0.05
299.363	-0.02
299.575	0.05
299.788	0.07
300.001	0.01
300.213	0.01
300.426	-0.01
300.639	-0.04
300.852	-0.03
301.064	0.05
301.277	0.06
301.489	0.03
301.702	0.01
301.915	-0.02
302.127	0
302.34	0.04
302.552	0.09
302.765	-0.03
302.977	0.02
303.19	-0.05
303.402	-0.03
303.615	0.02
303.827	0
304.04	0.03
304.252	0.04
304.464	-0.03
304.677	0.08
304.889	0.04
305.102	-0.05
305.314	0.01
305.526	0.07
305.739	0.01
305.951	0.01
306.163	-0.01
306.375	0.1
306.588	-0.05
306.8	-0.03
307.012	-0.05
307.224	0
307.436	0.1
307.649	-0.08
307.861	-0
308.073	0.01
308.285	-0.04
308.497	-0.03
308.709	-0.02
308.921	0.03
309.133	0.03
309.346	-0.03
309.558	-0.05
309.77	0.05
309.982	0.05
310.194	0.08
310.406	-0.05
310.617	0.06
310.829	0.03
311.041	0.03
311.253	-0.03
311.465	-0.02
311.677	-0
311.889	0.01
312.101	-0.01
312.313	0.02
312.524	0.06
312.736	-0.01
312.948	-0.02
313.16	0.08
313.372	0.03
313.583	0
313.795	0.02
314.007	-0.02
314.218	0.05
314.43	0
314.642	-0.01
314.853	-0.04
315.065	0.07
315.277	0.02
315.488	-0
315.7	0.08
315.912	0.02
316.123	0.04
316.335	-0.01
316.546	0.08
316.758	0.01
316.969	-0.05
317.181	0.02
317.392	-0.02
317.604	0.04
317.815	-0.05
318.026	-0.04
318.238	-0.02
318.449	0
318.661	-0.07
318.872	-0.05
319.083	-0.09
319.295	-0.04
319.506	0
319.717	0.02
319.929	-0.02
320.14	0.02
320.351	0
320.562	-0.03
320.774	-0
320.985	0.02
321.196	-0.03
321.407	-0.06
321.618	0.11
321.829	-0.01
322.041	0.03
322.252	0.01
322.463	0.02
322.674	0.01
322.885	-0.08
323.096	-0
323.307	-0.02
323.518	0.01
323.729	-0.03
323.94	0.02
324.151	-0
324.362	0.04
324.573	0.01
324.784	-0.03
324.995	0.06
325.206	-0.01
325.417	-0.06
325.628	-0.01
325.838	-0.03
326.049	0.02
326.26	-0.01
326.471	-0.02
326.682	0.03
326.892	-0.02
327.103	-0.09
327.314	-0.04
327.525	0.03
327.735	-0.03
327.946	-0.05
328.157	-0.01
328.368	0.03
328.578	-0.01
328.789	0.04
328.999	0.01
329.21	-0.01
329.421	0.01
329.631	-0.04
329.842	-0.05
330.052	0.02
330.263	0.03
330.473	0.07
330.684	-0.02
330.894	-0
331.105	-0
331.315	0.02
331.526	-0.08
331.736	0.07
331.947	0.03
332.157	0.02
332.367	-0.05
332.578	0.02
332.788	0.04
332.999	-0
333.209	0
333.419	-0.03
333.629	0.02
333.84	0.01
334.05	-0.02
334.26	0.06
334.47	-0
334.681	0.06
334.891	-0.04
335.101	0.03
335.311	0.05
335.521	-0
335.732	-0.04
335.942	0.03
336.152	0.02
336.362	0.02
336.572	0.02
336.782	0.03
336.992	-0.02
337.202	-0.03
337.412	-0.03
337.622	0.02
337.832	0.02
338.042	0
338.252	-0.03
338.462	-0.03
338.672	0
338.882	0.01
339.092	0.01
339.302	0.06
339.511	0.01
339.721	-0.02
339.931	-0.06
340.141	0.07
340.351	0.06
340.561	0.02
340.77	0
340.98	-0.03
341.19	0
341.4	-0.01
341.609	-0.06
341.819	0.05
342.029	-0.04
342.238	0.02
342.448	-0.01
342.658	-0.01
342.867	0.01
343.077	-0
343.286	-0.01
343.496	-0
343.706	0.05
343.915	-0.06
344.125	-0.01
344.334	0.04
344.544	-0.05
344.753	-0.02
344.963	-0.04
345.172	-0.03
345.381	-0.06
345.591	-0.06
345.8	-0.01
346.01	0.05
346.219	0.02
346.428	-0.13
346.638	0.02
346.847	0
347.056	0.04
347.266	-0.03
347.475	0.04
347.684	0.01
347.893	0.03
348.103	0.01
348.312	-0.02
348.521	0.04
348.73	0.04
348.94	0.01
349.149	-0.01
349.358	-0.04
349.567	0.04
349.776	-0.06
349.985	-0.03
350.194	0.03
350.403	0.04
350.612	-0.06
350.821	-0.04
351.03	-0
351.239	-0.06
351.448	-0
351.657	-0.04
351.866	0.06
352.075	-0.03
352.284	0
352.493	-0.02
352.702	0.06
352.911	0.01
353.12	0.04
353.329	0
353.538	0.02
353.746	0.03
353.955	-0.04
354.164	0.05
354.373	-0.01
354.582	0.02
354.79	-0.03
354.999	0.01
355.208	0.01
355.416	0.02
355.625	-0.04
355.834	-0.04
356.042	0.01
356.251	0.02
356.46	-0.04
356.668	-0.01
356.877	0.1
357.085	0.06
357.294	-0.05
357.503	0
357.711	-0
357.92	0.12
358.128	0.02
358.337	-0.02
358.545	0
358.754	-0
358.962	0
359.17	-0.02
359.379	-0.01
359.587	-0.01
359.796	-0.03
360.004	0.06
360.212	0.03
360.421	0.08
360.629	-0
360.837	-0.01
361.046	0.01
361.254	0.07
361.462	0.01
361.67	-0.01
361.879	0.01
362.087	0.04
362.295	-0.04
362.503	-0.05
362.711	-0.03
362.92	-0.02
363.128	-0.02
363.336	-0.03
363.544	-0.07
363.752	-0.05
363.96	-0.02
364.168	-0.03
364.376	-0
364.584	0.01
364.792	0.04
365	0.01
365.208	-0.03
365.416	-0
365.624	0.04
365.832	-0.04
366.04	0.07
366.248	0.02
366.456	0.05
366.664	0.02
366.872	-0.03
367.079	-0.01
367.287	0.02
367.495	0.03
367.703	-0.04
367.911	-0.03
368.118	-0.01
368.326	-0.01
368.534	0
368.742	0.06
368.949	-0.03
369.157	-0.03
369.365	0.05
369.572	-0.02
369.78	-0.03
369.988	0.02
370.195	0.01
370.403	0.07
370.61	-0.02
370.818	0.01
371.026	0.1
371.233	-0.04
371.441	-0.01
371.648	-0.03
371.856	0
372.063	-0.03
372.271	-0.06
372.478	-0.01
372.685	-0.01
372.893	0.02
373.1	-0.01
373.308	-0.02
373.515	0.07
373.722	0
373.93	-0.02
374.137	0.04
374.344	0.09
374.552	0.04
374.759	0.02
374.966	0
375.173	-0.01
375.381	0.05
375.588	0.02
375.795	-0.05
376.002	0.01
376.209	-0.08
376.417	0.01
376.624	-0.04
376.831	0.03
377.038	0.02
377.245	-0.04
377.452	-0.02
377.659	0.01
377.866	-0.03
378.073	0.02
378.28	-0.03
378.487	0.03
378.694	0.04
378.901	-0.02
379.108	0.01
379.315	-0.03
379.522	0.05
379.729	-0.02
379.936	-0.01
380.143	-0.02
380.35	-0.02
380.557	0
380.763	-0.01
380.97	0
381.177	0.03
381.384	0.03
381.591	-0
381.797	-0.01
382.004	-0.02
382.211	-0.01
382.418	-0.03
382.624	0.02
382.831	0.02
383.038	-0.03
383.244	0.03
383.451	0.02
383.658	0.03
383.864	0.03
384.071	-0.01
384.277	0.06
384.484	-0.05
384.69	0.05
384.897	-0.03
385.103	0.01
385.31	-0.04
385.516	-0.04
385.723	-0.01
385.929	0
386.136	-0.04
386.342	0.02
386.549	0.05
386.755	0.03
386.961	0
387.168	-0.01
387.374	-0.01
387.58	0.01
387.787	-0.03
387.993	0
388.199	-0.03
388.406	-0.02
388.612	-0.01
388.818	-0.02
389.024	-0.01
389.231	0.03
389.437	0.06
389.643	0.04
389.849	-0.02
390.055	0.03
390.261	0
390.467	0.03
390.674	-0.08
390.88	0.04
391.086	0.01
391.292	-0.02
391.498	0.04
391.704	-0
391.91	-0
392.116	-0.03
392.322	-0.11
392.528	0.03
392.734	-0.04
392.94	0.04
393.146	-0.02
393.352	0
393.557	0.02
393.763	-0.01
393.969	0
394.175	-0.03
394.381	0.01
394.587	-0.03
394.792	-0.02
394.998	0.1
395.204	0.06
395.41	-0.03
395.615	-0.01
395.821	-0
396.027	0.04
396.233	-0.04
396.438	0.03
396.644	0.05
396.85	0
397.055	-0.02
397.261	0
397.466	0.09
397.672	-0.03
397.878	0.03
398.083	0.02
398.289	-0.03
398.494	0.08
398.7	-0.01
398.905	-0.06
399.111	0.08
399.316	-0.05
399.522	-0.03
399.727	0.02
399.932	-0.04
400.138	-0.02
400.343	0.04
400.549	-0
400.754	0.03
400.959	0.04
401.165	0.03
401.37	-0.05
401.575	0.05
401.78	0.01
401.986	-0
402.191	-0.02
402.396	0.03
402.601	0.04
402.807	-0.04
403.012	0.01
403.217	-0.01
403.422	-0.01
403.627	0.01
403.832	0.02
404.037	0.02
404.243	-0
404.448	-0.04
404.653	-0.04
404.858	0.01
405.063	0.05
405.268	-0.01
405.473	-0.02
405.678	-0.04
405.883	0.13
406.088	0.03
406.293	-0.05
406.498	0
406.703	0.03
406.907	-0.01
407.112	-0.04
407.317	0.02
407.522	0.05
407.727	-0.05
407.932	0.01
408.136	0.12
408.341	0.02
408.546	0.01
408.751	-0.01
408.956	-0.04
409.16	-0.02
409.365	0.02
409.57	-0.02
409.774	0.02
409.979	0.02
410.184	-0.01
410.388	-0.01
410.593	0.03
410.798	-0.01
411.002	-0.03
411.207	0.03
411.411	0
411.616	-0.05
411.82	-0.04
412.025	0.01
412.229	-0.04
412.434	0.04
412.638	0.02
412.843	0.01
413.047	-0.03
413.252	-0.08
413.456	-0.02
413.66	0.04
413.865	-0.06
414.069	0.13
414.273	-0.03
414.478	0
414.682	0.01
414.886	0.01
415.091	-0.03
415.295	-0.09
415.499	0.03
415.703	-0.04
415.908	0.03
416.112	-0.08
416.316	-0.01
416.52	0.02
416.724	-0.06
416.929	-0.05
417.133	0.06
417.337	0.01
417.541	-0.04
417.745	-0.02
417.949	0.03
418.153	-0
418.357	-0.02
418.561	0.07
418.765	0
418.969	0.09
419.173	0.05
419.377	-0.03
419.581	0.08
419.785	-0.02
419.989	-0.1
420.193	-0.04
420.397	-0
420.601	0.03
420.804	0.02
421.008	-0.04
421.212	0.03
421.416	0.05
421.62	-0.03
421.823	0.03
422.027	0.08
422.231	0.01
422.435	-0.03
422.638	0.04
422.842	-0.03
423.046	-0.06
423.249	0.01
423.453	0.04
423.657	0.05
423.86	-0.04
424.064	-0.02
424.268	0.04
424.471	0.01
424.675	0.03
424.878	0.02
425.082	-0.01
425.285	0.02
425.489	0.02
425.692	0.03
425.896	-0.08
426.099	0.07
426.303	-0.05
426.506	-0.03
426.71	0.04
426.913	0.06
427.116	0
427.32	0
427.523	-0.01
427.726	0.09
427.93	-0.04
428.133	0.01
428.336	-0.02
428.54	-0.03
428.743	-0.01
428.946	0.03
429.149	-0.04
429.353	0.01
429.556	0.01
429.759	0.01
429.962	-0.03
430.165	0.02
430.368	-0.01
430.571	-0.03
430.775	0
430.978	-0.03
431.181	-0.02
431.384	0.04
431.587	0.01
431.79	0.01
431.993	0.03
432.196	0.01
432.399	0.01
432.602	0.06
432.805	-0.02
433.008	-0.02
433.211	-0.06
433.414	0.05
433.616	0.03
433.819	0.02
434.022	-0.06
434.225	0.07
434.428	0.08
434.631	0.11
434.833	-0.01
435.036	-0.01
435.239	0.05
435.442	0.04
435.645	0
435.847	0.01
436.05	0.03
436.253	0.04
436.455	-0.02
436.658	0.02
436.861	0.14
437.063	0
437.266	0.02
437.468	0.02
437.671	0.14
437.874	0.01
438.076	-0.03
438.279	-0.06
438.481	0.03
438.684	-0.01
438.886	0.03
439.089	-0.05
439.291	0.01
439.494	0.04
439.696	-0.03
439.899	0.02
440.101	0.02
440.303	0.03
440.506	0.03
440.708	-0.01
440.91	0.05
441.113	-0.02
441.315	0.05
441.517	-0.05
441.72	0.09
441.922	0.03
442.124	-0.06
442.326	0.06
442.529	0.08
442.731	0.03
442.933	0.13
443.135	0.05
443.337	0.03
443.539	0.01
443.742	0.04
443.944	0.03
444.146	-0.02
444.348	0.03
444.55	0.03
444.752	0.03
444.954	-0
445.156	0.04
445.358	0.01
445.56	0.11
445.762	0.05
445.964	0.06
446.166	0.06
446.368	-0.01
446.57	0.09
446.772	0.02
446.974	0.08
447.175	0.07
447.377	0.03
447.579	0.09
447.781	0.02
447.983	0.12
448.184	0.06
448.386	0.07
448.588	0.01
448.79	0.08
448.991	0.01
449.193	0.05
449.395	0.07
449.597	0.12
449.798	0.04
450	0.07
450.202	0.07
450.403	0.07
450.605	0.08
450.806	0.03
451.008	0.01
451.21	0.07
451.411	0.08
451.613	0.04
451.814	0.07
452.016	0.07
452.217	0.09
452.419	0.08
452.62	0.05
452.821	0.07
453.023	0.14
453.224	0.08
453.426	0.05
453.627	0.08
453.828	0.08
454.03	0.05
454.231	0.11
454.432	0.03
454.634	0.08
454.835	0.03
455.036	-0.02
455.238	0.06
455.439	0.12
455.64	-0.04
455.841	-0.02
456.042	0.03
456.244	0.05
456.445	-0.03
456.646	0
456.847	0.02
457.048	0.08
457.249	0.1
457.45	0.22
457.651	-0.01
457.852	0.05
458.054	0.09
458.255	-0
458.456	0.05
458.657	0.07
458.858	0.02
459.058	0.07
459.259	0.01
459.46	0.02
459.661	-0.04
459.862	0.07
460.063	-0.02
460.264	0.1
460.465	-0.02
460.666	0.1
460.866	0.03
461.067	0.01
461.268	0
461.469	-0.03
461.67	-0
461.87	-0.02
462.071	0.01
462.272	-0.01
462.473	0.02
462.673	0.05
462.874	-0.03
463.075	0.02
463.275	-0.05
463.476	-0.02
463.676	0.06
463.877	0.03
464.078	0
464.278	0.04
464.479	0.02
464.679	0.03
464.88	0.01
465.08	0.09
465.281	0.01
465.481	-0.02
465.682	-0.05
465.882	0.07
466.083	-0.03
466.283	0.02
466.483	-0.01
466.684	-0
466.884	-0.03
467.085	0.01
467.285	0.05
467.485	-0.05
467.686	0.01
467.886	-0.04
468.086	0.02
468.286	-0
468.487	0.03
468.687	-0.02
468.887	0.01
469.087	0.04
469.287	-0.01
469.488	-0.05
469.688	-0.02
469.888	0.05
470.088	0.03
470.288	0.09
470.488	0.05
470.688	-0.01
470.888	-0.01
471.088	-0.03
471.288	-0.01
471.488	0.04
471.688	0.03
471.888	-0.03
472.088	0.08
472.288	0.05
472.488	0.01
472.688	-0.02
472.888	0.01
473.088	0.01
473.288	-0.02
473.488	-0
473.688	0.08
473.887	0.01
474.087	-0.04
474.287	-0.01
474.487	0.04
474.687	0.01
474.886	-0.03
475.086	0.02
475.286	0
475.486	0.03
475.685	0.02
475.885	-0.02
476.085	0.01
476.284	0.02
476.484	-0
476.684	0.03
476.883	0.06
477.083	-0
477.282	-0.02
477.482	0.03
477.681	0.04
477.881	0.03
478.08	-0.02
478.28	-0.03
478.479	0.04
478.679	0.09
478.878	-0.03
479.078	-0.01
479.277	-0.02
479.477	0.01
479.676	0.03
479.875	-0.01
480.075	-0.05
480.274	0.03
480.473	0.02
480.673	-0.01
480.872	0.04
481.071	0.01
481.271	0.02
481.47	-0.01
481.669	-0
481.868	-0.02
482.067	-0.03
482.267	-0.03
482.466	-0.03
482.665	-0.01
482.864	-0.03
483.063	-0.01
483.262	0.02
483.461	0.07
483.661	0.03
483.86	-0
484.059	0.04
484.258	-0.01
484.457	0.01
484.656	-0.03
484.855	0.04
485.054	-0.03
485.253	-0.01
485.452	-0.02
485.651	0.01
485.849	0.01
486.048	-0.02
486.247	-0.03
486.446	0.03
486.645	-0.04
486.844	-0.01
487.043	-0
487.241	0.04
487.44	-0.02
487.639	-0.04
487.838	0
488.037	0
488.235	0.05
488.434	0.01
488.633	-0.01
488.831	0
489.03	0.03
489.229	-0
489.427	-0.02
489.626	0.03
489.825	0.07
490.023	-0.02
490.222	-0.02
490.42	0.01
490.619	0.03
490.817	0.04
491.016	-0.02
491.214	0.02
491.413	-0.04
491.611	-0.01
491.81	0.01
492.008	0.02
492.207	0.01
492.405	0.01
492.604	-0.04
492.802	-0.01
493	0.02
493.199	-0.05
493.397	-0
493.595	-0.01
493.794	0
493.992	0.04
494.19	0.01
494.388	-0.01
494.587	-0.01
494.785	0.01
494.983	-0.03
495.181	0
495.379	0.01
495.578	-0
495.776	0.01
495.974	0.01
496.172	-0.01
496.37	-0.01
496.568	-0.02
496.766	-0.02
496.964	0.03
497.162	0.01
497.36	-0.03
497.558	-0
497.756	0.02
497.954	-0
498.152	-0.03
498.35	-0
498.548	-0.01
498.746	0
498.944	-0.03
499.142	-0.02
499.34	-0.04
499.538	-0
499.736	-0.02
499.933	0.03
500.131	0.03
500.329	0.01
500.527	0.04
500.725	0.03
500.922	0.03
501.12	-0
501.318	0
501.516	-0.01
501.713	0.01
501.911	-0.02
502.109	-0.03
502.306	0
502.504	-0.02
502.701	-0.02
502.899	-0
503.097	0.04
503.294	-0.01
503.492	-0.02
503.689	0.02
503.887	0
504.084	0.04
504.282	-0
504.479	-0.03
504.677	0
504.874	-0.03
505.072	0.01
505.269	-0.02
505.466	0.04
505.664	-0
505.861	-0.05
506.059	-0.03
506.256	0.01
506.453	-0.01
506.651	0.05
506.848	0.02
507.045	0.02
507.242	-0.02
507.44	0.01
507.637	-0.01
507.834	-0.02
508.031	0.03
508.229	-0.03
508.426	0
508.623	0.02
508.82	0.01
509.017	-0
509.214	-0.01
509.411	-0
509.608	-0.02
509.805	-0.01
510.003	-0.02
510.2	-0.02
510.397	0.03
510.594	-0.01
510.791	-0.02
510.988	-0.01
511.184	0.02
511.381	0.03
511.578	-0.04
511.775	0.02
511.972	-0.02
512.169	-0
512.366	-0.02
512.563	-0.01
512.76	-0.02
512.956	0.02
513.153	-0.04
513.35	0.02
513.547	-0.04
513.744	-0.03
513.94	-0.02
514.137	0.01
514.334	-0
514.53	0.01
514.727	-0
514.924	0.05
515.12	-0.03
515.317	-0.04
515.514	-0.03
515.71	-0.05
515.907	-0
516.103	0
516.3	0.01
516.497	0.03
516.693	0.02
516.89	-0
517.086	-0.04
517.283	0.02
517.479	-0
517.676	0.01
517.872	-0
518.068	-0.01
518.265	-0.01
518.461	-0.02
518.658	-0.03
518.854	-0
519.05	-0.02
519.247	-0.02
519.443	0
519.639	-0.01
519.836	0.01
520.032	0.01
520.228	-0.01
520.424	0.05
520.621	0.01
520.817	0
521.013	0.01
521.209	0.01
521.405	0.05
521.601	-0.02
521.798	-0.01
521.994	0.01
522.19	-0.04
522.386	-0.02
522.582	-0.01
522.778	-0.01
522.974	-0.01
523.17	-0.02
523.366	0.03
523.562	0.02
523.758	-0.02
523.954	-0.03
524.15	-0.01
524.346	0
524.542	-0.01
524.738	-0.01
524.934	0
525.129	-0.02
525.325	0.02
525.521	-0.01
525.717	0.02
525.913	0.01
526.109	0.01
526.304	-0.02
526.5	0.01
526.696	0.01
526.892	0.03
527.087	-0.02
527.283	-0.03
527.479	0
527.674	-0.03
527.87	-0
528.066	-0.01
528.261	0
528.457	0.01
528.653	0
528.848	-0
529.044	-0.01
529.239	-0
529.435	0.03
529.63	0.01
529.826	0.04
530.021	0.01
530.217	0.01
530.412	-0.01
530.608	-0.02
530.803	-0.02
530.999	0
531.194	-0.05
531.389	0.01
531.585	-0.06
531.78	0.01
531.975	0
532.171	0.03
532.366	-0.02
532.561	0.01
532.757	-0.02
532.952	0
533.147	0.01
533.342	-0.02
533.538	0.01
533.733	0.01
533.928	0
534.123	-0.02
534.318	-0.03
534.513	0.03
534.709	-0.02
534.904	-0.01
535.099	-0.02
535.294	-0.01
535.489	0
535.684	-0.01
535.879	-0.02
536.074	-0.01
536.269	-0.04
536.464	0.03
536.659	-0
536.854	0.01
537.049	0.01
537.244	0
537.439	-0.03
537.634	0.03
537.828	0
538.023	-0.01
538.218	-0.04
538.413	-0.02
538.608	-0.02
538.803	0
538.997	-0.02
539.192	0.03
539.387	0.02
539.582	0.01
539.776	-0
539.971	-0.03
540.166	-0.01
540.36	-0.02
540.555	0.02
540.75	-0.01
540.944	-0.01
541.139	-0.04
541.334	-0.02
541.528	0.02
541.723	0.03
541.917	-0.01
542.112	-0.04
542.306	-0.01
542.501	-0.02
542.695	-0.01
542.89	-0.01
543.084	-0.01
543.279	-0
543.473	-0.01
543.668	-0.02
543.862	-0.02
544.056	0.01
544.251	-0
544.445	0.02
544.64	0
544.834	-0.03
545.028	0.01
545.222	0.02
545.417	0.03
545.611	0.01
545.805	-0.01
546	-0.02
546.194	-0.01
546.388	-0.02
546.582	-0.01
546.776	-0.01
546.97	-0.01
547.165	-0.01
547.359	0.01
547.553	-0.02
547.747	0
547.941	-0
548.135	0
548.329	-0
548.523	0.01
548.717	-0.02
548.911	-0.03
549.105	0
549.299	-0
549.493	0.02
549.687	-0.01
549.881	0.01
550.075	-0.01
550.269	-0.03
550.463	0
550.657	0
550.85	0.01
551.044	-0.01
551.238	-0.01
551.432	0
551.626	-0.03
551.82	0.01
552.013	-0.02
552.207	0
552.401	0.02
552.594	-0.01
552.788	-0
552.982	-0.01
553.176	-0.01
553.369	-0.01
553.563	0
553.756	-0.02
553.95	-0.04
554.144	-0
554.337	0.01
554.531	0.01
554.724	0
554.918	-0.01
555.111	0.02
555.305	0.02
555.498	0.05
555.692	0.03
555.885	-0
556.079	0.01
556.272	-0
556.466	0.02
556.659	0.02
556.852	-0.02
557.046	-0.01
557.239	0.01
557.432	-0.04
557.626	-0.01
557.819	-0.01
558.012	0.01
558.206	0.02
558.399	-0
558.592	-0.01
558.785	-0.02
558.979	0.01
559.172	0
559.365	0
559.558	0
559.751	0.01
559.944	0.02
560.138	-0.01
560.331	-0.01
560.524	-0.01
560.717	-0.01
560.91	0.01
561.103	0.01
561.296	-0
561.489	0.02
561.682	-0
561.875	0.03
562.068	0.01
562.261	0.01
562.454	0.04
562.647	0
562.84	0
563.032	-0.02
563.225	0
563.418	-0
563.611	-0.01
563.804	0.01
563.997	-0.01
564.19	-0.05
564.382	-0.02
564.575	-0.01
564.768	-0.01
564.961	-0.02
565.153	-0.01
565.346	0.03
565.539	0.01
565.731	0.04
565.924	0
566.117	-0
566.309	0.01
566.502	-0.01
566.695	0.01
566.887	0.01
567.08	-0.01
567.272	0
567.465	-0.01
567.657	-0.02
567.85	0.01
568.042	0.01
568.235	0.04
568.427	-0.01
568.62	-0.02
568.812	0.03
569.005	0.01
569.197	-0.04
569.389	0
569.582	-0
569.774	0
569.966	-0.04
570.159	-0.02
570.351	0.01
570.543	-0.01
570.736	-0.01
570.928	-0.02
571.12	0
571.312	-0.02
571.505	-0.04
571.697	0.01
571.889	-0.02
572.081	0.01
572.273	-0.02
572.465	0.03
572.658	-0
572.85	-0.01
573.042	-0.02
573.234	0.01
573.426	0.02
573.618	-0.04
573.81	0.01
574.002	0.01
574.194	0.03
574.386	-0.04
574.578	-0.06
574.77	-0.02
574.962	-0.01
575.154	-0.03
575.346	-0.01
575.538	0.01
575.729	-0.01
575.921	-0.02
576.113	-0.01
576.305	0.03
576.497	0
576.689	0
576.88	0
577.072	0.02
577.264	0
577.456	0.01
577.647	-0.08
577.839	0
578.031	0.02
578.223	-0.04
578.414	-0.03
578.606	-0.01
578.798	0
578.989	-0.01
579.181	-0.03
579.372	0.01
579.564	-0.02
579.755	-0
579.947	-0.03
580.139	-0
580.33	-0.04
580.522	-0.01
580.713	-0.07
580.905	0.01
581.096	0.03
581.287	-0.02
581.479	0
581.67	0.01
581.862	-0.01
582.053	0
582.244	-0.04
582.436	0.01
582.627	0.01
582.818	-0.03
583.01	-0.03
583.201	-0.01
583.392	0
583.583	0
583.775	-0.02
583.966	-0.03
584.157	-0.01
584.348	-0.02
584.54	-0.06
584.731	0.01
584.922	-0.02
585.113	-0
585.304	0.03
585.495	0.03
585.686	0
585.877	0.03
586.068	0
586.259	0.01
586.45	0.03
586.641	-0.03
586.832	-0.06
587.023	-0.01
587.214	-0
587.405	0
587.596	-0.01
587.787	0.04
587.978	0.01
588.169	-0.03
588.36	-0.02
588.551	0.01
588.742	-0.01
588.932	0
589.123	-0
589.314	0.02
589.505	0.02
589.696	-0
589.886	-0.04
590.077	-0.03
590.268	0
590.458	-0.04
590.649	-0.04
590.84	0.02
591.03	-0.01
591.221	-0.05
591.412	-0.04
591.602	-0.01
591.793	0.02
591.984	-0.03
592.174	0.01
592.365	0.06
592.555	-0.05
592.746	0.01
592.936	0.03
593.127	0.01
593.317	0
593.508	-0.02
593.698	-0.03
593.889	-0.01
594.079	0
594.269	-0.04
594.46	-0.03
594.65	-0.03
594.84	-0
595.031	-0.03
595.221	-0.03
595.411	-0.07
595.602	0.02
595.792	-0.01
595.982	-0.02
596.172	0.02
596.363	0.01
596.553	-0
596.743	0.02
596.933	-0.01
597.123	0.01
597.314	-0.01
597.504	-0.03
597.694	0.06
597.884	-0.01
598.074	-0.01
598.264	-0.01
598.454	0.01
598.644	0
598.834	-0.01
599.024	-0.06
599.214	-0.01
599.404	0.06
599.594	-0.02
599.784	-0.03
599.974	-0.01
600.164	0.04
600.354	-0.02
600.544	-0.06
600.734	0
600.924	0.03
601.114	-0.02
601.303	0.01
601.493	-0
601.683	-0.03
601.873	0
602.063	-0.04
602.252	0.02
602.442	-0.05
602.632	-0.03
602.821	-0.04
603.011	0.03
603.201	-0.03
603.39	-0.05
603.58	-0.03
603.77	0.01
603.959	0.01
604.149	0.01
604.339	-0.03
604.528	0.05
604.718	0.02
604.907	-0.04
605.097	-0.04
605.286	-0.05
605.476	0.04
605.665	-0.02
605.855	-0
606.044	0.05
606.234	0.02
606.423	-0.03
606.612	-0.03
606.802	0.03
606.991	-0
607.181	-0.03
607.37	-0.03
607.559	-0
607.749	-0.03
607.938	-0.02
608.127	-0.03
608.316	-0.02
608.506	0.01
608.695	-0.01
608.884	-0.05
609.073	0
609.263	0.02
609.452	0.02
609.641	0
609.83	-0.03
610.019	-0
610.208	-0.07
610.397	0
610.586	0.01
610.775	-0.01
610.965	-0.03
611.154	-0.04
611.343	-0
611.532	0
611.721	-0.01
611.91	-0.03
612.099	0.01
612.287	-0.04
612.476	-0.05
612.665	0.01
612.854	-0.04
613.043	0.01
613.232	-0
613.421	-0.05
613.61	-0
613.798	0
613.987	0.01
614.176	-0.01
614.365	0.01
614.554	0.01
614.742	0
614.931	-0.02
615.12	0.03
615.309	-0
615.497	-0
615.686	-0.03
615.875	-0.03
616.063	-0.01
616.252	0
616.44	-0.05
616.629	-0
616.818	0.03
617.006	-0.01
617.195	-0.02
617.383	0.02
617.572	-0.03
617.76	-0.03
617.949	-0.01
618.137	0.03
618.326	0.07
618.514	0
618.703	-0
618.891	0.03
619.079	-0.07
619.268	0.05
619.456	-0.03
619.644	0.02
619.833	-0.01
620.021	-0.03
620.209	-0.03
620.398	0
620.586	-0.03
620.774	0.03
620.962	-0
621.151	0.03
621.339	0.01
621.527	-0.04
621.715	-0.03
621.903	-0.04
622.092	-0.05
622.28	0.03
622.468	-0.01
622.656	-0.03
622.844	-0.03
623.032	0.02
623.22	-0.05
623.408	0.01
623.596	0.01
623.784	0.01
623.972	-0.02
624.16	-0.02
624.348	0.04
624.536	-0.02
624.724	-0.04
624.912	0.05
625.1	0.04
625.288	-0.04
625.476	-0.02
625.664	0.01
625.851	-0.04
626.039	-0.01
626.227	0.02
626.415	-0
626.603	-0.04
626.79	-0.02
626.978	-0
627.166	0.03
627.354	-0.01
627.541	0.01
627.729	-0.04
627.917	0.02
628.104	0.03
628.292	0.01
628.48	0.01
628.667	-0.01
628.855	0.01
629.042	0.04
629.23	-0.03
629.418	-0.02
629.605	0.01
629.793	-0.03
629.98	-0.02
630.168	-0.02
630.355	0.02
630.543	0.02
630.73	0
630.917	0.04
631.105	0.04
631.292	-0.01
631.48	0.01
631.667	0.06
631.854	0.03
632.042	-0
632.229	-0.04
632.416	0.02
632.604	-0
632.791	-0.01
632.978	0.02
633.165	0.02
633.353	0.05
633.54	0.05
633.727	-0.04
633.914	-0.04
634.101	-0.03
634.289	0.06
634.476	-0.02
634.663	-0.04
634.85	0.03
635.037	-0.04
635.224	-0.06
635.411	0.03
635.598	0.05
635.785	0.02
635.972	0.03
636.159	0.04
636.346	-0.02
636.533	0
636.72	0.01
636.907	0
637.094	0.04
637.281	0.03
637.468	0.05
637.655	-0.01
637.842	0.02
638.029	-0.01
638.215	0.05
638.402	0.03
638.589	-0.01
638.776	-0.02
638.963	0.02
639.149	0.05
639.336	0.07
639.523	0.01
639.709	-0.02
639.896	-0.01
640.083	0.07
640.27	0.07
640.456	0.03
640.643	0.05
640.829	-0.01
641.016	0.02
641.203	-0.03
641.389	0.05
641.576	0.05
641.762	0.02
641.949	-0.03
642.135	0.05
642.322	0.03
642.508	-0.01
642.695	0.03
642.881	-0.02
643.068	0.03
643.254	0.03
643.441	0.07
643.627	0.03
643.813	-0.02
644	0.05
644.186	0.05
644.372	0.03
644.559	0.06
644.745	0.02
644.931	0.02
645.118	0.04
645.304	0.05
645.49	0.01
645.676	0.04
645.862	0.05
646.049	0.09
646.235	0.05
646.421	0.11
646.607	0.09
646.793	0.02
646.979	0.02
647.165	0.05
647.352	0.08
647.538	0.08
647.724	0.08
647.91	0.06
648.096	0.09
648.282	0.08
648.468	0.05
648.654	0.06
648.84	0.03
649.026	0.05
649.212	0.04
649.397	0.07
649.583	0.03
649.769	0.1
649.955	0.06
650.141	0.06
650.327	0.11
650.513	0.04
650.698	0.06
650.884	0.02
651.07	0.08
651.256	0.08
651.442	0.07
651.627	0.06
651.813	0.06
651.999	0.08
652.184	0.08
652.37	0.06
652.556	0.07
652.741	0.1
652.927	0.02
653.113	0.08
653.298	0.06
653.484	0.08
653.669	0.04
653.855	0.08
654.04	0.11
654.226	0.08
654.412	0.08
654.597	0.08
654.782	0.07
654.968	0.11
655.153	0.11
655.339	0.06
655.524	0.07
655.71	0.09
655.895	0.12
656.08	0.12
656.266	0.14
656.451	0.15
656.636	0.09
656.822	0.12
657.007	0.08
657.192	0.09
657.378	0.07
657.563	0.09
657.748	0.12
657.933	0.1
658.118	0.08
658.304	0.09
658.489	0.13
658.674	0.14
658.859	0.05
659.044	0.15
659.229	0.1
659.414	0.06
659.599	0.11
659.785	0.07
659.97	0.09
660.155	0.15
660.34	0.12
660.525	0.09
660.71	0.1
660.895	0.11
661.08	0.09
661.264	0.08
661.449	0.14
661.634	0.15
661.819	0.1
662.004	0.1
662.189	0
662.374	0.06
662.559	0.03
662.743	0.03
662.928	0.07
663.113	0.08
663.298	0
663.483	0.06
663.667	0.05
663.852	0.01
664.037	0.12
664.221	0.03
664.406	0.11
664.591	0.08
664.775	0.07
664.96	0.05
665.145	0.06
665.329	0.02
665.514	0.05
665.698	0.04
665.883	0.01
666.068	0.09
666.252	0.06
666.437	-0.02
666.621	0.05
666.806	0.04
666.99	0.01
667.174	-0
667.359	0.13
667.543	-0.01
667.728	0.03
667.912	-0.06
668.096	0.06
668.281	-0.03
668.465	0.02
668.649	0.03
668.834	-0.06
669.018	0.01
669.202	-0.01
669.387	0
669.571	0.01
669.755	-0.01
669.939	0
670.124	0.03
670.308	0.07
670.492	0.05
670.676	0.04
670.86	0.02
671.044	-0.05
671.228	0.08
671.413	-0.01
671.597	0
671.781	0
671.965	0.04
672.149	-0.02
672.333	-0.02
672.517	-0.03
672.701	0.02
672.885	-0.01
673.069	-0.05
673.253	0.05
673.437	-0.01
673.621	-0.02
673.804	0.01
673.988	0.03
674.172	-0.02
674.356	-0.05
674.54	-0.03
674.724	0.09
674.908	0.01
675.091	0.05
675.275	0
675.459	0.02
675.643	-0
675.826	0.02
676.01	0.01
676.194	-0
676.377	0.05
676.561	0
676.745	-0.02
676.928	0.04
677.112	0.05
677.296	-0.03
677.479	-0.02
677.663	-0.05
677.846	0.03
678.03	0.04
678.213	-0.02
678.397	0.03
678.58	0.01
678.764	-0.04
678.947	0.01
679.131	-0.07
679.314	-0.03
679.498	-0.01
679.681	0.01
679.865	0.02
680.048	0.01
680.231	0.03
680.415	0.01
680.598	-0
680.781	0.01
680.965	-0.03
681.148	0.01
681.331	-0.01
681.514	0.03
681.698	-0.03
681.881	0.05
682.064	-0.03
682.247	-0.01
682.43	-0.06
682.614	0.02
682.797	0.02
682.98	0.02
683.163	-0.03
683.346	0.02
683.529	0.01
683.712	-0.1
683.895	-0.01
684.078	-0.06
684.261	0.01
684.444	0.03
684.627	-0.01
684.81	-0
684.993	-0.03
685.176	0.01
685.359	-0.03
685.542	-0.04
685.725	0.03
685.908	0.03
686.091	0.01
686.274	0.05
686.457	0.04
686.639	-0.05
686.822	0.03
687.005	-0.03
687.188	0.04
687.371	0.08
687.553	0.02
687.736	0.03
687.919	0.08
688.102	0.04
688.284	-0.01
688.467	0
688.65	-0
688.832	-0.03
689.015	-0.07
689.197	-0.08
689.38	0.07
689.563	0.11
689.745	-0.02
689.928	-0.04
690.11	-0.04
690.293	-0.01
690.475	-0.06
690.658	-0.01
690.84	-0.01
691.023	0.01
691.205	-0.02
691.388	-0.01
691.57	0.03
691.752	0.05
691.935	-0.08
692.117	-0.01
692.3	0.03
692.482	-0.02
692.664	-0.03
692.847	-0.01
693.029	0.09
693.211	0.02
693.393	-0.03
693.576	-0.08
693.758	-0.04
693.94	-0.04
694.122	-0.04
694.304	0.01
694.487	-0.03
694.669	0.07
694.851	-0.06
695.033	0.01
695.215	-0.01
695.397	-0.03
695.579	-0
695.761	-0.03
695.943	-0.04
696.125	0.05
696.308	0.05
696.49	-0.08
696.671	0.11
696.853	-0.02
697.035	0.11
697.217	-0.02
697.399	0.01
697.581	-0.04
697.763	-0.04
697.945	-0.05
698.127	0.03
698.309	0
698.491	0.02
698.672	0.03
698.854	0.01
699.036	0.05
699.218	-0.07
699.399	0.03
699.581	0.04
699.763	0.01
699.945	0.01
700.126	-0.01
700.308	0.06
700.49	-0.04
700.671	-0.04
700.853	-0.02
701.035	-0.05
701.216	0
701.398	-0.08
701.579	0.01
701.761	-0.01
701.943	0.02
702.124	-0.08
702.306	-0.01
702.487	0.1
702.669	0.01
702.85	-0.1
703.031	-0.05
703.213	0.11
703.394	0.04
703.576	-0.02
703.757	0.09
703.938	0.04
704.12	0.2
704.301	0
704.483	-0.02
704.664	-0.03
704.845	0.11
705.026	0.04
705.208	-0.02
705.389	0.01
705.57	-0.01
705.751	0.04
705.933	0
706.114	0.08
706.295	0.04
706.476	-0.05
706.657	0.09
706.838	0.02
707.02	0.04
707.201	0.01
707.382	0
707.563	0.04
707.744	0.01
707.925	-0.02
708.106	-0.07
708.287	0.06
708.468	0.11
708.649	0
708.83	0.07
709.011	-0
709.192	0.1
709.373	-0.06
709.554	-0.04
709.734	0.08
709.915	0.02
710.096	0.02
710.277	-0.1
710.458	0.04
710.639	0.04
710.819	-0.05
711	0.01
711.181	0.1
711.362	0
711.542	0.03
711.723	-0.06
711.904	0.09
712.085	0.05
712.265	0.07
712.446	-0.14
712.627	-0.06
712.807	0.01
712.988	0.03
713.168	-0.1
713.349	0.02
713.53	-0.08
713.71	-0.02
713.891	-0.08
714.071	0.04
714.252	0.01
714.432	-0.01
714.613	-0.07
714.793	-0.01
714.974	0.09
715.154	0.03
715.334	0.11
715.515	0.06
715.695	-0.02
715.876	-0.02
716.056	-0.07
716.236	0
716.417	-0.03
716.597	-0.02
716.777	0.18
716.957	-0.01
717.138	0.02
717.318	-0.02
717.498	-0.02
717.678	0.03
717.859	0.08
718.039	-0.03
718.219	0.07
718.399	0.12
718.579	-0.03
718.759	-0.04
718.939	0.09
719.12	-0.03
719.3	0.03
719.48	-0.08
719.66	-0.12
719.84	0.14
720.02	0.06
720.2	-0.03
720.38	0.07
720.56	0.15
720.74	0.01
720.92	0.06
721.1	0.12
721.279	0.08
721.459	0.01
721.639	-0.09
721.819	0.01
721.999	-0.05
722.179	0.04
722.359	-0.05
722.538	0.04
722.718	0.05
722.898	-0.02
723.078	0.04
723.257	-0.03
723.437	0.01
723.617	0.04
723.797	0.01
723.976	0.13
724.156	0.08
724.336	0.07
724.515	0.19
724.695	0
724.874	0.08
725.054	0.1
725.234	0.01
725.413	0.16
725.593	-0.04
725.772	0.02
725.952	0.01
726.131	0.02
726.311	-0.05
726.49	0.06
726.67	0.02
726.849	0.03
727.028	0.05
727.208	-0.03
727.387	0.1
727.567	0.07
727.746	0.04
727.925	-0.02
728.105	0.01
728.284	0.04
728.463	0.03
728.643	0.17
728.822	-0.02
729.001	0.1
729.18	0.05
729.359	0.09
729.539	0.05
729.718	0.05
729.897	0.04
730.076	0.08
730.255	-0.02
730.434	0.14
730.614	0.12
730.793	0.2
730.972	-0.01
731.151	0.03
731.33	0.18
731.509	0.11
731.688	0.14
731.867	0.13
732.046	-0.03
732.225	0.26
732.404	0.04
732.583	0.06
732.762	0.08
732.941	0.2
733.12	0.13
733.298	0.02
733.477	0.14
733.656	0
733.835	-0.06
734.014	0.17
734.193	0.1
734.371	0.14
734.55	0.07
734.729	0.01
734.908	0.18
735.086	0.12
735.265	0.15
735.444	-0.06
735.623	-0.03
735.801	0.03
735.98	0.21
736.159	0.09
736.337	0.2
736.516	0.13
736.694	0.05
736.873	0.12
737.052	0.2
737.23	0.25
737.409	0.02
737.587	0.24
737.766	-0.11
737.944	0.01
738.123	0.18
738.301	0.09
738.479	0.01
738.658	0.12
738.836	-0.07
739.015	0.08
739.193	0.19
739.371	0.02
739.55	0.08
739.728	-0.01
739.906	0.11
740.085	0.2
740.263	0.03
740.441	-0.05
740.62	0.33
740.798	0.16
740.976	-0
741.154	-0.02
741.332	0.22
741.511	0.11
741.689	0.12
741.867	0.18
742.045	0.16
742.223	0.04
742.401	-0.02
742.579	0.06
742.757	0.16
742.935	-0.06
743.114	0.05
743.292	0.01
743.47	0.05
743.648	0
743.826	-0.05
744.004	0.18
744.181	0.19
744.359	0.01
744.537	-0.02
744.715	0.07
744.893	0.13
745.071	-0.02
745.249	0.01
745.427	0.07
745.605	0.11
745.782	0.07
745.96	0.1
746.138	0.13
746.316	0.05
746.493	0.06
746.671	0.08
746.849	-0.01
747.027	0.11
747.204	-0.08
747.382	-0.02
747.56	-0.14
747.737	-0.02
747.915	-0.02
748.093	0.04
748.27	-0.07
748.448	0
748.625	-0.09
748.803	-0.11
748.98	-0.01
749.158	-0
749.335	0.06
749.513	0.04
749.69	-0.01
749.868	-0.13
750.045	0.03
750.223	0.01
750.4	-0.18
750.578	0.09
750.755	0.03
750.932	-0.13
751.11	0.18
751.287	-0.16
751.464	0.14
751.642	0.09
751.819	0.11
751.996	-0.01
752.173	-0.03
752.351	-0.05
752.528	-0.01
752.705	-0.09
752.882	0.08
753.06	-0
753.237	0.11
753.414	0.09
753.591	0.05
753.768	-0.03
753.945	-0.02
754.122	-0.14
754.299	0.09
754.476	-0.03
754.654	0.05
754.831	-0
755.008	0.06
755.185	-0.04
755.362	-0.15
755.539	0.12
755.716	-0.15
755.892	-0.07
756.069	-0.01
756.246	0.11
756.423	-0.08
756.6	0.06
756.777	0.05
756.954	0.13
757.131	-0.04
757.307	-0.04
757.484	-0.09
757.661	0.08
757.838	0.07
758.015	-0.08
758.191	0
758.368	-0.09
758.545	0.25
758.721	0.04
758.898	-0.08
759.075	0.12
759.251	0.06
759.428	0
759.605	-0.15
759.781	0.02
759.958	-0.02
760.134	0.05
760.311	-0.06
760.488	0.08
760.664	0.12
760.841	-0.07
761.017	-0.09
761.194	-0.09
761.37	0.11
761.547	0
761.723	-0.07
761.899	0.11
762.076	-0.12
762.252	-0.15
762.429	-0.05
762.605	0.05
762.781	-0.01
762.958	-0.01
763.134	0.03
763.31	-0.08
763.486	0.16
763.663	-0.21
763.839	0.09
764.015	-0.18
764.191	-0.07
764.368	-0
764.544	-0.03
764.72	0.08
764.896	0.03
765.072	0.03
765.248	-0.01
765.425	-0.02
765.601	-0.09
765.777	0.09
765.953	-0.15
766.129	-0.13
766.305	-0.17
766.481	0.08
766.657	0.03
766.833	0.13
767.009	-0.07
767.185	0.07
767.361	-0.02
767.537	-0.17
767.713	0.1
767.889	-0.02
768.065	0
768.24	-0.17
768.416	0.17
768.592	0.02
768.768	-0.09
768.944	0.03
769.12	-0.12
769.295	-0.05
769.471	0.08
769.647	0.01
769.823	0.13
769.998	-0.07
770.174	-0.04
770.35	0.28
770.525	0.17
770.701	0.09
770.877	0.03
771.052	-0.08
771.228	0.04
771.403	0.01
771.579	0.08
771.755	0.21
771.93	-0.09
772.106	-0.21
772.281	-0.16
772.457	-0.08
772.632	-0.01
772.808	-0.14
772.983	-0.04
773.159	-0.18
773.334	0.21
773.509	-0.04
773.685	-0.04
773.86	0.22
774.036	0.2
774.211	0.03
774.386	-0.13
774.562	-0.07
774.737	0.25
774.912	-0.17
775.087	0.1
775.263	0.03
775.438	0.05
775.613	-0.28
775.788	-0.12
775.964	0.22
776.139	0.29
776.314	-0.01
776.489	-0.02
776.664	0.14
776.839	-0.14
777.014	0.16
777.19	0.04
777.365	0.12
777.54	0.33
777.715	-0.11
777.89	-0
778.065	0.11
778.24	-0.09
778.415	0.16
778.59	-0.16
778.765	0.03
778.94	-0.12
779.115	-0.09
779.289	-0.07
779.464	0.06
779.639	-0.03
779.814	-0.14
779.989	-0.16
780.164	0.26
780.339	0.13
780.513	-0.09
780.688	-0.02
780.863	0.04
781.038	0.13
781.212	-0.07
781.387	-0.01
781.562	0.39
781.737	0.15
781.911	0.16
782.086	-0.13
782.261	-0.04
782.435	0.21
782.61	-0.15
782.784	-0.03
782.959	0.17
783.134	-0.13
783.308	-0.03
783.483	-0.01
783.657	0.43
783.832	0.12
784.006	-0.29
784.181	0.01
784.355	0.22
784.53	0.04
784.704	-0.01
784.878	0.08
785.053	0.13
785.227	0.09
785.402	0.26
785.576	-0.14
785.75	0.04
785.925	0.23
786.099	0.07
786.273	0.01
786.448	0.11
786.622	0.34
786.796	0.04
786.97	0.06
787.145	0.5
787.319	-0.21
787.493	-0.11
787.667	-0.28
787.841	0.06
788.015	0.11
788.19	-0.13
788.364	0.07
788.538	0.08
788.712	0.32
788.886	-0.1
789.06	0.17
789.234	0.17
789.408	-0.16
789.582	-0.14
789.756	0.13
789.93	-0.17
790.104	-0.07
790.278	-0.16
790.452	-0.04
790.626	0.06
790.8	-0.22
790.973	0.07
791.147	0.15
791.321	0.2
791.495	0.28
791.669	0.13
791.843	0.06
792.016	0.3
792.19	0.44
792.364	-0.15
792.538	0.5
792.711	-0.07
792.885	-0.04
793.059	-0.31
793.233	-0.61
793.406	0.33
793.58	0.02
793.754	0.05
793.927	-0.04
794.101	0.28
794.274	0.34
794.448	0.09
794.622	-0.2
794.795	0.17
794.969	0.06
795.142	0.5
795.316	-0.26
795.489	-0.06
795.663	0.36
795.836	0.2
796.009	-0.13
796.183	0.57
796.356	0.21
796.53	-0.17
796.703	-0.35
796.876	0.31
797.05	-0.06
797.223	0.07
797.396	0.2
797.57	0.08
797.743	0.14
797.916	-0.1
798.09	-0.11
798.263	0.07
798.436	-0.06
798.609	-0.27
798.782	-0.06
798.956	0.05
799.129	-0
799.302	-0.04
799.475	0.12
799.648	-0.34
799.821	0.18
799.994	0.12
800.167	-0.22
800.34	0.11
800.514	0.27
800.687	0.02
800.86	-0.04
801.033	0.06
801.206	0.06
801.379	-0.22
801.551	0.11
801.724	0.07
801.897	0.29
802.07	0.07
802.243	-0.37
802.416	0.02
802.589	-0.2
802.762	-0.19
802.935	0.19
803.107	0.13
803.28	0.04
803.453	0.18
803.626	-0.27
803.798	0.01
803.971	-0.08
804.144	-0.06
804.317	0.41
804.489	0.19
804.662	-0.14
804.835	0.1
805.007	-0.19
805.18	0.39
805.353	0.21
805.525	-0.39
805.698	-0.66
805.87	0.26
806.043	0.16
806.215	-0.5
806.388	0.03
806.56	0.29
806.733	0.21
806.905	0
807.078	-0.17
807.25	-0.08
807.423	0.23
807.595	0.06
807.768	0.33
807.94	0.27
808.112	0.23
808.285	-0.14
808.457	-0.09
808.629	-0.26
808.802	0.32
808.974	0
809.146	-0.13
809.318	-0.43
809.491	-0.11
809.663	0.03
809.835	-0.39
810.007	0.28
810.18	-0.13
810.352	-0.22
810.524	0.05
810.696	0.13
810.868	0.31
811.04	-0.1
811.212	-0.15
811.384	0.13
811.556	0.28
811.728	-0.2
811.901	0.52
812.073	-0.27
812.245	0.35
812.417	0.06
812.589	-0.72
812.76	-0.08
812.932	-0.04
813.104	0.31
813.276	0.01
813.448	0.55
813.62	-0.08
813.792	0.01
813.964	-0.01
814.136	0.16
814.307	0
814.479	-0.13
814.651	-0.44
814.823	0.65
814.995	0.07
815.166	0.6
815.338	-0.52
815.51	-0.47
815.681	0.55
815.853	-0.13
816.025	-0.42
816.196	0.49
816.368	-0.19
816.54	-0.41
816.711	-0.12
816.883	0.33
817.054	0.76
817.226	-0.82
817.398	-0.2
817.569	0.01
817.741	0.2
817.912	0.13
818.084	-0.18
818.255	0.34
818.426	0.2
818.598	0.23
818.769	-0.78
818.941	0.24
819.112	0.64
819.283	-0.03
819.455	-0.37
819.626	-0.02
819.798	0.03
819.969	0.1
820.14	-0.43
820.311	-0.7
820.483	0.29
820.654	0.17
820.825	0.04
820.996	-0.25
821.168	-0.24
821.339	0.15
821.51	-0.28
821.681	-0.17
821.852	-0.01
822.023	-0.49
822.195	-0.23
822.366	0.06
822.537	0.22
822.708	0.05
822.879	-0.16
823.05	0.37
823.221	0.44
823.392	0.38
823.563	0.04
823.734	0.22
823.905	-0.79
824.076	-0.32
824.247	-0.52
824.418	-0.71
824.589	0.52
824.759	0.2
824.93	-0.25
825.101	-0.49
825.272	0.5
825.443	0.34
825.614	0.08
825.784	-0.91
825.955	0.71
826.126	0.81
826.297	-0.24
826.467	0.85
826.638	0.22
826.809	-0.75
826.98	0.46
827.15	0.27
827.321	-0.08
827.492	0.35
827.662	0.01
827.833	0.58
828.003	0.03
828.174	-0.18
828.345	-0.71
828.515	0.31
828.686	0.08
828.856	-0.29
829.027	-0.2
829.197	0.46
829.368	0.58
829.538	-0.18
829.709	-0.43
829.879	0.44
830.049	0.2
830.22	-0.29
830.39	0.11
830.56	0.43
830.731	0.03
830.901	-0.19
831.072	0.08
831.242	0.29
831.412	-0.2
831.582	0.09
831.753	-0.65
831.923	0.61
832.093	-0.39
832.263	-0.3
832.434	-0.05
832.604	-0.12
832.774	-0.11
832.944	-0.38
833.114	-0.03
833.284	0.5
833.454	-0.86
833.624	-0.01
833.795	-0.45
833.965	0.53
834.135	0.42
834.305	-0.5
834.475	-0.5
834.645	-0.04
834.815	-0.1
834.985	-0.04
835.155	-0.42
835.325	0.64
835.494	0.19
835.664	-0.28
835.834	-0.53
836.004	-0.22
836.174	0.33
836.344	-0.34
836.514	-0.64
836.684	-0.37
836.853	0
837.023	0.01
837.193	-0.54
837.363	0.93
837.532	0.19
837.702	-0.03
837.872	-0.35
838.041	0.31
838.211	1.38
838.381	-1
838.55	-0.13
838.72	1.2
838.89	1.16
839.059	-0.13
839.229	-0.4
839.398	1.43
839.568	-0.11
839.738	0.44
839.907	1.35
840.077	0.47
840.246	-0.78
840.416	-0.07
840.585	-0.57
840.755	1.2
840.924	0.62
841.093	-0.46
841.263	-0.49
841.432	-0.04
841.602	-0.45
841.771	-0.99
841.94	0.2
842.11	1.79
842.279	1.89
842.448	-1.18
842.617	-0.25
842.787	0.87
842.956	-0.93
843.125	-0.19
843.294	-0.1
843.464	1.03
843.633	-0.52
843.802	-0.67
843.971	0.27
844.14	0.77
844.309	1.01
844.479	-0.44
844.648	-0.2
844.817	-0.34
844.986	0.89
845.155	-0.7
845.324	-0.77
845.493	0.48
845.662	-0.7
845.831	1
846	0.43
846.169	-0.37
846.338	1.28
846.507	-0.42
846.676	0.89
846.844	-0.43
847.013	0
847.182	0.63
847.351	-0.21
847.52	-0.14
847.689	0.99
847.858	-0.64
848.026	-0.77
848.195	-0.58
848.364	-1.12
848.533	0.09
848.701	-0.6
848.87	-0.06
849.039	1.29
849.207	1.56
849.376	1.13
849.545	1.52
849.713	-0.4
849.882	0.17
850.051	-0.46
850.219	1.07
850.388	0.8
850.556	-0.54
850.725	-1.03
850.893	0.08
851.062	0.56
851.23	1.24
851.399	-0.52
851.567	-0.54
851.736	-0.06
851.904	-0.63
852.073	0.1
852.241	-0.27
852.41	-0.5
852.578	0.36
852.746	-0.19
852.915	0.84
853.083	0.28
853.251	0.47
853.42	0.04
853.588	0
853.756	1.29
853.924	0.95
854.093	0.59
854.261	0
854.429	-2.04
854.597	-0.99
854.765	-0.8
854.934	-0.06
855.102	1.95
855.27	0.24
855.438	-0.06
855.606	-0.12
855.774	1.6
855.942	-1.69
856.11	-1.51
856.278	0.6
856.446	1.38
856.614	-0.47
856.782	-1.24
856.95	0.64
857.118	1.19
857.286	0.98
857.454	-0.19
857.622	0.44
857.79	-0.25
857.958	-0.49
858.126	-0.72
858.294	-2.6
858.462	0.51
858.629	-0.11
858.797	-1.14
858.965	-0.06
859.133	-0.1
859.301	-0.2
859.468	0.48
859.636	-0.02
859.804	2.85
859.971	1.41
860.139	0.35
860.307	0.55
860.474	0.95
860.642	-1.48
860.81	0.12
860.977	0.06
861.145	1.34
861.313	-0.38
861.48	0.39
861.648	0.45
861.815	-0.1
861.983	0.05
862.15	-0.11
862.318	1.04
862.485	1.12
862.653	-1.19
862.82	-0.12
862.988	1.32
863.155	-1.86
863.322	-0.52
863.49	-0.85
863.657	-1.33
863.824	2.63
863.992	0.24
864.159	0.01
864.326	1.69
864.494	-1.14
864.661	2.71
864.828	-0.54
864.996	1.61
865.163	2.29
865.33	-0.62
865.497	-1.87
865.664	-0.67
865.832	-1.72
865.999	-1.89
866.166	-1.33
866.333	-0.51
866.5	0.48
866.667	-0.52
866.834	-0.27
867.001	1.31
867.168	-1.13
867.335	-0.49
867.502	-0.59
867.669	0.51
867.836	1.62
868.003	-1.64
868.17	0.24
868.337	2.71
868.504	2.75
868.671	-2.42
868.838	-2.26
869.005	0.39
869.172	0.25
869.339	0.46
869.505	-0.14
869.672	0.63
869.839	1.06
870.006	-0.33
870.173	-0.8
870.339	0.68
870.506	2.05
870.673	-1.55
870.84	1.44
871.006	0.56
871.173	-0.6
871.34	-0.13
871.506	-0.7
871.673	0.31
871.839	-1.86
872.006	-0.26
872.173	-0.29
872.339	-1.62
872.506	0.78
872.672	0.3
872.839	-0.76
873.005	1.28
873.172	3.2
873.338	0.6
873.505	0.71
873.671	2.63
873.838	-0.22
874.004	-1.67
874.171	-0.84
874.337	1.56
874.503	1.58
874.67	-0.98
874.836	-1.07
875.002	1.95
875.169	3.49
875.335	0.19
875.501	-0.03
875.668	-1.44
875.834	1.15
876	0
876.166	0.63
876.332	2.05
876.499	3
876.665	-0.47
876.831	-0.62
876.997	1.94
877.163	0.72
877.329	-0.14
877.495	0.68
877.662	0.81
877.828	0.46
877.994	-0.59
878.16	-1.59
878.326	-1.33
878.492	0.28
878.658	-0.94
878.824	0.67
878.99	1.69
879.156	0.73
879.322	2.37
879.487	-1.16
879.653	1.24
879.819	0.17
879.985	-1.54
880.151	-0.3
880.317	0.81
880.483	-0.41
880.648	2.5
880.814	-3.04
880.98	0.68
881.146	-2.27
881.312	-0.92
881.477	-0.39
881.643	-0.58
881.809	1.62
881.974	1.34
882.14	-1.41
882.306	-1.15
882.471	4.64
882.637	-0.07
882.803	2.4
882.968	3.5
883.134	2.86
883.299	-0.32
883.465	-0.56
883.63	2.89
883.796	2.09
883.961	0.27
884.127	1.69
884.292	-3.34
884.458	-1.84
884.623	-1.84
