Data from Apollo_Calib_20240827__AbsoluteIrradiance__599__09-08-01-796.txt Node

Date: Wed Aug 28 09:08:01 BST 2024
User: biology
Spectrometer: FLMT08252
Trigger mode: 0
Integration Time (sec): 5.000000E-1
Scans to average: 5
Electric dark correction enabled: true
Nonlinearity correction enabled: false
Boxcar width: 0
XAxis mode: Wavelengths
Number of Pixels in Spectrum: 3648
>>>>>Begin Spectral Data<<<<<
179.588	-0
179.809	-0
180.03	-0
180.251	-0
180.473	-0
180.694	0
180.915	0
181.136	-0
181.357	0
181.578	-0
181.799	-0
182.02	-0
182.241	0
182.462	-0
182.683	0
182.904	-0
183.125	-0
183.346	0
183.567	0
183.788	0
184.009	0
184.23	0
184.451	0
184.672	-0
184.892	0
185.113	0
185.334	0
185.555	-0
185.776	0
185.996	0
186.217	0
186.438	0
186.659	-0
186.879	0
187.1	-0
187.321	0
187.541	0
187.762	0
187.983	0
188.203	0
188.424	0
188.644	-0
188.865	0
189.086	0
189.306	0
189.527	0
189.747	0
189.968	0
190.188	0
190.409	0
190.629	0
190.849	0
191.07	0
191.29	0
191.511	0
191.731	0
191.951	0
192.172	0
192.392	0
192.612	0
192.833	0
193.053	0
193.273	0
193.493	0
193.714	0
193.934	0
194.154	0
194.374	0
194.594	0
194.815	0
195.035	0
195.255	0
195.475	0
195.695	0
195.915	0
196.135	0
196.355	0
196.575	0
196.795	0
197.015	0
197.235	0
197.455	0
197.675	0
197.895	0
198.115	0
198.335	0
198.555	0
198.775	0
198.995	0
199.214	0
199.434	0
199.654	0
199.874	0
200.094	1.89
200.313	0.59
200.533	0.2
200.753	-0.11
200.973	1.16
201.192	0.75
201.412	-0.33
201.632	0.12
201.851	1.25
202.071	0.08
202.291	0.67
202.51	0.22
202.73	1.27
202.95	0.8
203.169	0.01
203.389	0.66
203.608	0.91
203.828	0.22
204.047	0.25
204.267	0.64
204.486	0.89
204.706	0.53
204.925	0.4
205.145	0.38
205.364	0.98
205.583	1.19
205.803	0.27
206.022	-0.1
206.242	0.45
206.461	0.72
206.68	0.34
206.9	0.5
207.119	0.99
207.338	1.1
207.557	0.44
207.777	0.16
207.996	0.41
208.215	0.71
208.434	0.29
208.654	0.03
208.873	0.21
209.092	1.09
209.311	0.17
209.53	0.25
209.749	0.16
209.968	0.23
210.187	0.16
210.407	0.05
210.626	0.4
210.845	0.79
211.064	0.35
211.283	0.02
211.502	0.64
211.721	0.42
211.94	0.45
212.159	0.38
212.377	0.55
212.596	0.2
212.815	0.53
213.034	0.43
213.253	0.45
213.472	0.47
213.691	0.12
213.91	-0.03
214.128	0.08
214.347	0.6
214.566	-0.2
214.785	0.06
215.003	0.65
215.222	0.44
215.441	0.39
215.66	-0.05
215.878	0.29
216.097	0.49
216.316	0.07
216.534	0.08
216.753	0.43
216.972	0.13
217.19	0.26
217.409	-0.02
217.627	0.01
217.846	0.08
218.064	0.26
218.283	0.11
218.501	0.72
218.72	0.42
218.938	-0.05
219.157	0.02
219.375	0.4
219.594	0.38
219.812	-0.18
220.031	-0.01
220.249	0.57
220.467	0.42
220.686	0.33
220.904	0.15
221.122	0.27
221.341	0.53
221.559	0.35
221.777	0.05
221.995	0.29
222.214	0.45
222.432	0.09
222.65	0.36
222.868	0.25
223.086	0.22
223.305	0.3
223.523	0.12
223.741	0.41
223.959	0.13
224.177	-0
224.395	0.08
224.613	0.3
224.831	0.36
225.049	0.03
225.267	0.11
225.485	0.18
225.703	0.2
225.921	0.21
226.139	0.06
226.357	0.33
226.575	0.13
226.793	0.03
227.011	0.63
227.229	0.25
227.447	0.38
227.665	-0
227.883	-0.09
228.1	0.22
228.318	0.25
228.536	0.08
228.754	0.05
228.972	0.21
229.189	0.26
229.407	0.16
229.625	0.12
229.843	0.32
230.06	0.17
230.278	-0.01
230.496	0.15
230.713	0.21
230.931	0.31
231.149	0.11
231.366	-0.03
231.584	0.07
231.801	0.44
232.019	0.14
232.236	0.02
232.454	0.04
232.671	0.11
232.889	0.03
233.106	0.01
233.324	0.15
233.541	0.11
233.759	0.16
233.976	0.23
234.194	0.12
234.411	0.09
234.628	0.16
234.846	0.11
235.063	0.2
235.28	0.19
235.498	0.19
235.715	0.07
235.932	0.31
236.149	0.15
236.367	0.12
236.584	0.19
236.801	0.08
237.018	0.23
237.236	0.08
237.453	0.01
237.67	0.19
237.887	0.1
238.104	0.14
238.321	0.02
238.538	0.07
238.755	0.26
238.973	-0.05
239.19	0.17
239.407	0.14
239.624	0.22
239.841	0.04
240.058	0.06
240.275	0.15
240.492	0.12
240.709	0.05
240.925	0.11
241.142	0.13
241.359	0.07
241.576	-0.04
241.793	0.12
242.01	0.17
242.227	0.17
242.444	0.14
242.66	0.22
242.877	0.05
243.094	0.01
243.311	0.11
243.527	0.17
243.744	0.17
243.961	0.15
244.178	0.07
244.394	0.1
244.611	0.25
244.828	0.31
245.044	0.1
245.261	0.11
245.477	0.11
245.694	0.2
245.911	0.01
246.127	0.11
246.344	0.24
246.56	0.1
246.777	0.09
246.993	0.12
247.21	0.16
247.426	0.22
247.643	-0
247.859	0.09
248.076	0.09
248.292	0.35
248.508	0.1
248.725	0.2
248.941	0.18
249.157	0.26
249.374	0
249.59	0.08
249.806	0.06
250.023	0.18
250.239	0.05
250.455	0.04
250.671	0.05
250.888	0.22
251.104	0.19
251.32	0.16
251.536	0.08
251.752	0.1
251.969	0.11
252.185	0.11
252.401	0.31
252.617	0.09
252.833	0.09
253.049	0.11
253.265	0.07
253.481	0.13
253.697	0.08
253.913	-0
254.129	0.11
254.345	0.18
254.561	0.07
254.777	0.08
254.993	0.13
255.209	0.14
255.425	0.14
255.641	0.07
255.857	0.1
256.073	0.09
256.288	-0.03
256.504	0.13
256.72	0.1
256.936	0.18
257.152	0.03
257.367	0.02
257.583	0.05
257.799	0.15
258.015	0.08
258.23	0.02
258.446	0.26
258.662	0.14
258.877	0.05
259.093	0.05
259.309	0.16
259.524	0.13
259.74	0.03
259.955	-0.07
260.171	0.14
260.387	0.1
260.602	0.18
260.818	0.13
261.033	0.02
261.249	0.03
261.464	0.03
261.68	0.05
261.895	0.08
262.11	0.14
262.326	0.11
262.541	-0.01
262.757	0.14
262.972	0.2
263.187	0.11
263.403	0.1
263.618	0.11
263.833	0.1
264.049	0.06
264.264	0.11
264.479	0.13
264.694	0.17
264.91	0.02
265.125	0.09
265.34	0.14
265.555	0.28
265.77	0.06
265.986	0.01
266.201	0.17
266.416	0.15
266.631	0.1
266.846	0.07
267.061	0.13
267.276	0.15
267.491	-0.08
267.706	0.12
267.921	0.15
268.136	0.13
268.351	0.13
268.566	0.03
268.781	0.18
268.996	0.14
269.211	0.09
269.426	0.06
269.641	0.05
269.856	0.12
270.071	0.04
270.285	0.06
270.5	0.15
270.715	0.12
270.93	0.04
271.145	0.04
271.359	0.16
271.574	0.08
271.789	0.08
272.004	0.04
272.218	0.06
272.433	0.16
272.648	-0
272.862	0.12
273.077	0.07
273.292	0.13
273.506	-0.01
273.721	0.12
273.936	0.1
274.15	0.13
274.365	0.12
274.579	0.12
274.794	0.1
275.008	0.2
275.223	0.01
275.437	0.05
275.652	0.12
275.866	0.12
276.081	0.04
276.295	0.11
276.509	0.06
276.724	0.09
276.938	0.08
277.153	0.15
277.367	0.09
277.581	0.05
277.796	0.08
278.01	0.03
278.224	0.14
278.438	0.24
278.653	0
278.867	0.05
279.081	-0.04
279.295	0.11
279.51	0.09
279.724	0.03
279.938	0.13
280.152	0.07
280.366	0.04
280.58	0.08
280.794	0.17
281.008	0.11
281.222	0.12
281.437	0.18
281.651	0.06
281.865	0.18
282.079	0.08
282.293	0.02
282.507	0.03
282.721	0.08
282.935	0.11
283.148	-0.02
283.362	0.01
283.576	0.05
283.79	0.12
284.004	0.04
284.218	0.13
284.432	0.06
284.646	0.08
284.859	0.06
285.073	0.08
285.287	0.11
285.501	0.07
285.714	0.09
285.928	0.05
286.142	0.11
286.356	-0.01
286.569	-0.01
286.783	0.12
286.997	0.09
287.21	0.09
287.424	0.05
287.637	0.07
287.851	0.03
288.065	0.11
288.278	0.08
288.492	0.14
288.705	0.04
288.919	0.07
289.132	-0.03
289.346	0.15
289.559	-0
289.773	0.03
289.986	0.03
290.2	0.09
290.413	0.12
290.626	0.01
290.84	0.06
291.053	0.06
291.267	0.13
291.48	0.08
291.693	0.08
291.906	0.06
292.12	0.04
292.333	0.05
292.546	0.02
292.76	0.18
292.973	0.06
293.186	0.06
293.399	0.06
293.612	0.1
293.826	0.08
294.039	0.09
294.252	0.06
294.465	0.07
294.678	0.13
294.891	0.09
295.104	0.02
295.317	0.06
295.53	0.05
295.743	0.09
295.956	0.01
296.169	0.12
296.382	0.08
296.595	0.05
296.808	0.02
297.021	0.12
297.234	0.13
297.447	0.09
297.66	0.05
297.873	0.12
298.086	0.08
298.299	0.01
298.511	0.05
298.724	0.06
298.937	-0
299.15	0.03
299.363	0.06
299.575	0.09
299.788	0.08
300.001	0.04
300.213	0.04
300.426	0.01
300.639	0.02
300.852	0.02
301.064	0.09
301.277	0.1
301.489	0.1
301.702	0.12
301.915	0.07
302.127	0.07
302.34	0.07
302.552	0.07
302.765	0.06
302.977	0.12
303.19	0.11
303.402	0.04
303.615	0.03
303.827	0.01
304.04	0.03
304.252	0.1
304.464	0.04
304.677	0.19
304.889	0.1
305.102	0.05
305.314	0.03
305.526	0.09
305.739	0.1
305.951	0.01
306.163	0.05
306.375	0.13
306.588	0.03
306.8	0.07
307.012	0.03
307.224	0.03
307.436	0.08
307.649	0.01
307.861	0.08
308.073	0.12
308.285	0.06
308.497	0.02
308.709	0.03
308.921	0.06
309.133	0.1
309.346	0.08
309.558	0.04
309.77	0.11
309.982	0.11
310.194	0.1
310.406	0.03
310.617	0.16
310.829	0.07
311.041	0.09
311.253	0.07
311.465	0.06
311.677	0.03
311.889	0.02
312.101	0.01
312.313	0.08
312.524	0.11
312.736	-0.01
312.948	0.07
313.16	0.1
313.372	0.14
313.583	0.06
313.795	0.06
314.007	0.02
314.218	0.12
314.43	0.08
314.642	0.02
314.853	0.01
315.065	0.06
315.277	0.08
315.488	0.07
315.7	0.1
315.912	0.1
316.123	0.04
316.335	0.05
316.546	0.17
316.758	0
316.969	0.05
317.181	0.07
317.392	0.06
317.604	0.12
317.815	0.07
318.026	0.04
318.238	0.04
318.449	0.1
318.661	-0.02
318.872	0.03
319.083	0.02
319.295	0.08
319.506	0.06
319.717	0.06
319.929	0.07
320.14	0.06
320.351	0.06
320.562	0.03
320.774	0.08
320.985	0.05
321.196	0.03
321.407	0.02
321.618	0.09
321.829	0.09
322.041	0.11
322.252	0.06
322.463	0.12
322.674	0.1
322.885	0.03
323.096	0.02
323.307	0.03
323.518	0.03
323.729	0.03
323.94	0.09
324.151	0.04
324.362	0.05
324.573	0.03
324.784	0.05
324.995	0.11
325.206	0.09
325.417	0.04
325.628	0.02
325.838	0.08
326.049	0.09
326.26	0.08
326.471	0.06
326.682	0.12
326.892	0.06
327.103	0.01
327.314	0.01
327.525	0.14
327.735	0.03
327.946	0.06
328.157	0.04
328.368	0.06
328.578	0.09
328.789	0.09
328.999	0.07
329.21	0.06
329.421	0.11
329.631	0.01
329.842	0
330.052	0.06
330.263	0.08
330.473	0.06
330.684	0.07
330.894	0.06
331.105	0.09
331.315	0.06
331.526	-0.02
331.736	0.12
331.947	0.08
332.157	0.07
332.367	0.04
332.578	0.06
332.788	0.11
332.999	0.1
333.209	0.07
333.419	0.02
333.629	0.09
333.84	0.06
334.05	0.05
334.26	0.1
334.47	0.07
334.681	0.13
334.891	0.03
335.101	0.07
335.311	0.08
335.521	0.09
335.732	0.02
335.942	0.13
336.152	0.07
336.362	0.07
336.572	0.05
336.782	0.05
336.992	0.02
337.202	-0.01
337.412	-0
337.622	0.05
337.832	0.08
338.042	0.07
338.252	0.02
338.462	0.05
338.672	0.05
338.882	0.05
339.092	0.07
339.302	0.11
339.511	0.07
339.721	0.04
339.931	-0
340.141	0.06
340.351	0.11
340.561	0.07
340.77	0.05
340.98	0.04
341.19	0.07
341.4	0.03
341.609	-0.01
341.819	0.06
342.029	-0.01
342.238	0.06
342.448	0.02
342.658	0.1
342.867	0.04
343.077	0.08
343.286	0.06
343.496	0.06
343.706	0.11
343.915	0.01
344.125	0.06
344.334	0.13
344.544	0.01
344.753	0.05
344.963	0.06
345.172	0.02
345.381	0.05
345.591	-0
345.8	0.05
346.01	0.11
346.219	0.07
346.428	-0.1
346.638	0.07
346.847	0.04
347.056	0.17
347.266	0.03
347.475	0.06
347.684	0.09
347.893	0.08
348.103	0.07
348.312	0.04
348.521	0.03
348.73	0.05
348.94	0.08
349.149	0.02
349.358	0.08
349.567	0.03
349.776	-0
349.985	0.02
350.194	0.09
350.403	0.11
350.612	0
350.821	0.05
351.03	0.04
351.239	-0.02
351.448	0.07
351.657	0.02
351.866	0.12
352.075	0.01
352.284	0.11
352.493	0.01
352.702	0.09
352.911	0.03
353.12	0.04
353.329	0.05
353.538	0.04
353.746	0.01
353.955	0.04
354.164	0.07
354.373	0.04
354.582	0.08
354.79	0.04
354.999	0.09
355.208	0.08
355.416	0.1
355.625	0.04
355.834	0.05
356.042	0.03
356.251	0.03
356.46	0.01
356.668	0.07
356.877	0.11
357.085	0.09
357.294	-0
357.503	0.07
357.711	0.03
357.92	0.18
358.128	0.08
358.337	0.04
358.545	0.03
358.754	0.01
358.962	0.08
359.17	0.02
359.379	0.06
359.587	0.07
359.796	0.06
360.004	0.07
360.212	0.1
360.421	0.1
360.629	0.03
360.837	-0
361.046	0.1
361.254	0.14
361.462	0.05
361.67	0.03
361.879	0.07
362.087	0.12
362.295	0.08
362.503	0.01
362.711	-0.03
362.92	0.01
363.128	0.04
363.336	0.01
363.544	0
363.752	0.06
363.96	0.01
364.168	0.03
364.376	0.08
364.584	0.04
364.792	0.08
365	0.07
365.208	0.07
365.416	0.05
365.624	0.08
365.832	0.03
366.04	0.11
366.248	0.06
366.456	0.06
366.664	0.03
366.872	0.05
367.079	0.03
367.287	0.04
367.495	0.09
367.703	0.09
367.911	0.06
368.118	0.05
368.326	0.05
368.534	0.03
368.742	0.1
368.949	0.02
369.157	0.02
369.365	0.11
369.572	0.03
369.78	0.02
369.988	0.09
370.195	0.11
370.403	0.1
370.61	0.01
370.818	0.07
371.026	0.15
371.233	0.02
371.441	0.05
371.648	0.05
371.856	0.06
372.063	0.08
372.271	0.05
372.478	0.02
372.685	-0
372.893	0.1
373.1	0.04
373.308	0.03
373.515	0.12
373.722	0.1
373.93	0.04
374.137	0.06
374.344	0.13
374.552	0.09
374.759	0.1
374.966	0.07
375.173	0.02
375.381	0.08
375.588	0.08
375.795	-0
376.002	-0
376.209	0.01
376.417	0.03
376.624	-0.01
376.831	0.05
377.038	-0.01
377.245	-0.04
377.452	0.02
377.659	0.07
377.866	0.01
378.073	0.03
378.28	0.02
378.487	0.09
378.694	0.1
378.901	0.03
379.108	0.04
379.315	0.1
379.522	0.11
379.729	0.08
379.936	0.05
380.143	0.05
380.35	0.06
380.557	0.02
380.763	0.06
380.97	0.08
381.177	0.05
381.384	0.09
381.591	-0.01
381.797	0.08
382.004	0.07
382.211	0.11
382.418	0.01
382.624	0.11
382.831	0.07
383.038	0.06
383.244	0.04
383.451	0.07
383.658	0.09
383.864	0
384.071	0.02
384.277	0.11
384.484	0.04
384.69	0.09
384.897	-0.01
385.103	0.04
385.31	0.01
385.516	0.01
385.723	0.01
385.929	0.03
386.136	0.07
386.342	0.06
386.549	0.01
386.755	0.11
386.961	0.05
387.168	0.03
387.374	0
387.58	0.09
387.787	0.07
387.993	0.03
388.199	0.03
388.406	0.05
388.612	0.04
388.818	0.02
389.024	0.01
389.231	0.09
389.437	0.12
389.643	0.1
389.849	0.04
390.055	0.02
390.261	0.04
390.467	0.07
390.674	0.03
390.88	-0.01
391.086	0.08
391.292	-0.02
391.498	0.09
391.704	0.08
391.91	0.02
392.116	0.01
392.322	-0.05
392.528	0.05
392.734	0.05
392.94	0
393.146	0.01
393.352	0.04
393.557	0.02
393.763	0.08
393.969	0.05
394.175	0.01
394.381	0.07
394.587	-0.02
394.792	0.05
394.998	0.12
395.204	0.12
395.41	0.03
395.615	0.05
395.821	0.09
396.027	0.06
396.233	0.01
396.438	0.06
396.644	0.11
396.85	0.09
397.055	0
397.261	0.02
397.466	0.11
397.672	0.04
397.878	0.09
398.083	0.05
398.289	0.03
398.494	0.11
398.7	0.06
398.905	-0.03
399.111	0.12
399.316	0.02
399.522	0.07
399.727	-0
399.932	0.06
400.138	0.02
400.343	0.11
400.549	0.06
400.754	0.06
400.959	0.07
401.165	0.05
401.37	0.09
401.575	0.03
401.78	0.03
401.986	0.04
402.191	0.06
402.396	0.01
402.601	0.06
402.807	0.07
403.012	0.04
403.217	0.09
403.422	0.04
403.627	0.02
403.832	0.06
404.037	0.06
404.243	0.06
404.448	0
404.653	0.05
404.858	0.08
405.063	0.1
405.268	0.02
405.473	-0
405.678	-0.01
405.883	0.18
406.088	0.04
406.293	-0.01
406.498	0.01
406.703	0.03
406.907	0.02
407.112	0.01
407.317	0.09
407.522	0.1
407.727	0.01
407.932	0.08
408.136	0.12
408.341	0.07
408.546	0.09
408.751	0.09
408.956	0.04
409.16	0.1
409.365	0.08
409.57	0.06
409.774	0.07
409.979	0.11
410.184	0.08
410.388	-0.02
410.593	0.09
410.798	0.02
411.002	0.03
411.207	0.07
411.411	0.06
411.616	0.01
411.82	0.02
412.025	0.09
412.229	-0.01
412.434	0.11
412.638	0.06
412.843	0.04
413.047	0.12
413.252	0.05
413.456	0.02
413.66	0.12
413.865	0.04
414.069	0.12
414.273	0.02
414.478	0.02
414.682	0.02
414.886	0.01
415.091	-0
415.295	-0.02
415.499	0.07
415.703	0.02
415.908	0.05
416.112	-0.06
416.316	0.06
416.52	0.09
416.724	-0.02
416.929	0.03
417.133	0.16
417.337	0.09
417.541	-0.01
417.745	0.02
417.949	0.04
418.153	0.09
418.357	-0.01
418.561	0.08
418.765	0.05
418.969	0.14
419.173	0.08
419.377	0.03
419.581	0.15
419.785	0.03
419.989	-0.03
420.193	0.02
420.397	0.09
420.601	0.11
420.804	0.09
421.008	0.02
421.212	0.05
421.416	0.08
421.62	0.03
421.823	0.06
422.027	0.12
422.231	0.06
422.435	0.04
422.638	0.06
422.842	0.06
423.046	0.01
423.249	0.09
423.453	0.07
423.657	0.07
423.86	0.08
424.064	0.04
424.268	0.12
424.471	0.1
424.675	0.13
424.878	0.14
425.082	0.03
425.285	0.12
425.489	0.09
425.692	0.06
425.896	0.02
426.099	0.07
426.303	0.01
426.506	-0.03
426.71	0.08
426.913	0.13
427.116	0.1
427.32	0.07
427.523	0.03
427.726	0.17
427.93	0
428.133	0.02
428.336	0.01
428.54	0.08
428.743	0.06
428.946	0.11
429.149	0.05
429.353	0.07
429.556	0.06
429.759	0.02
429.962	-0.01
430.165	0.07
430.368	0.04
430.571	0.02
430.775	0.06
430.978	0.04
431.181	0.06
431.384	0.04
431.587	0.05
431.79	0.05
431.993	0.06
432.196	0.05
432.399	-0.01
432.602	0.12
432.805	-0
433.008	0.05
433.211	0.02
433.414	0.06
433.616	0.07
433.819	0.05
434.022	-0.05
434.225	0.12
434.428	0.07
434.631	0.16
434.833	0.03
435.036	0.06
435.239	0.11
435.442	0.06
435.645	0.05
435.847	0.05
436.05	0.07
436.253	0.08
436.455	0.04
436.658	0.04
436.861	0.09
437.063	0.02
437.266	0.02
437.468	0.06
437.671	0.16
437.874	0.1
438.076	0.01
438.279	0
438.481	0.04
438.684	-0.01
438.886	0.05
439.089	-0.01
439.291	0.05
439.494	0.05
439.696	0
439.899	0.08
440.101	0.1
440.303	-0.05
440.506	0.1
440.708	0.06
440.91	0.07
441.113	0
441.315	0.03
441.517	0
441.72	0.05
441.922	-0.01
442.124	0
442.326	0.07
442.529	0.12
442.731	-0.03
442.933	0.15
443.135	0.04
443.337	0
443.539	0.06
443.742	0.04
443.944	0.07
444.146	-0.01
444.348	0
444.55	0.03
444.752	0.05
444.954	-0.01
445.156	0.05
445.358	-0.01
445.56	0.14
445.762	0.02
445.964	0.06
446.166	0.04
446.368	0.07
446.57	0.1
446.772	0.03
446.974	0.02
447.175	0.08
447.377	0.03
447.579	0
447.781	-0.03
447.983	0.13
448.184	0.04
448.386	0.11
448.588	-0.04
448.79	0.01
448.991	0
449.193	-0
449.395	0.01
449.597	0.06
449.798	0.05
450	0.05
450.202	0.07
450.403	0.07
450.605	0.06
450.806	0.03
451.008	-0.01
451.21	0.04
451.411	0.05
451.613	0.03
451.814	0.09
452.016	0.09
452.217	0.03
452.419	0.07
452.62	0.04
452.821	0.09
453.023	0.13
453.224	0.11
453.426	0.06
453.627	0.09
453.828	0.11
454.03	0.04
454.231	0.06
454.432	0.02
454.634	0.16
454.835	0.03
455.036	-0.01
455.238	0.1
455.439	0.15
455.64	0.04
455.841	0
456.042	0.17
456.244	0.07
456.445	-0.01
456.646	-0.02
456.847	0.03
457.048	0.1
457.249	0.13
457.45	0.25
457.651	0.03
457.852	0.06
458.054	0.04
458.255	0.07
458.456	0.1
458.657	0.04
458.858	0.03
459.058	0.05
459.259	0.12
459.46	0
459.661	0.04
459.862	0.18
460.063	0.06
460.264	0.1
460.465	-0.02
460.666	0.11
460.866	0.06
461.067	0.02
461.268	0.03
461.469	0.07
461.67	0.08
461.87	0.02
462.071	0.03
462.272	0.04
462.473	0.03
462.673	0.1
462.874	-0.01
463.075	0.05
463.275	0.04
463.476	0.06
463.676	0.09
463.877	0.02
464.078	0.06
464.278	0.09
464.479	0.01
464.679	0.04
464.88	0.07
465.08	0.13
465.281	0
465.481	0.02
465.682	0.05
465.882	0.09
466.083	0.08
466.283	0.03
466.483	0.06
466.684	-0.02
466.884	0.06
467.085	0.01
467.285	0.07
467.485	-0.02
467.686	0.04
467.886	-0
468.086	0.07
468.286	0.07
468.487	0.05
468.687	-0.02
468.887	0.02
469.087	0.06
469.287	0.06
469.488	0.04
469.688	0.06
469.888	0.09
470.088	0.05
470.288	0.07
470.488	0.07
470.688	-0.03
470.888	0.04
471.088	0.04
471.288	0.09
471.488	0.07
471.688	0.08
471.888	0.02
472.088	0.09
472.288	0.04
472.488	0.01
472.688	0.01
472.888	0.04
473.088	-0.01
473.288	0.07
473.488	0.05
473.688	0.11
473.887	0.05
474.087	0.01
474.287	0.05
474.487	-0.01
474.687	0.06
474.886	0.04
475.086	0.02
475.286	0.05
475.486	0.07
475.685	0.05
475.885	0.02
476.085	0.03
476.284	0.09
476.484	0.02
476.684	0.06
476.883	0.1
477.083	0.06
477.282	0.01
477.482	0.11
477.681	0.08
477.881	0.06
478.08	-0
478.28	-0.03
478.479	0.07
478.679	0.11
478.878	0.03
479.078	0.03
479.277	0.01
479.477	0.04
479.676	0.07
479.875	0.03
480.075	-0
480.274	0.08
480.473	0.07
480.673	-0.01
480.872	0.07
481.071	0.04
481.271	0.05
481.47	0.03
481.669	0.03
481.868	0.01
482.067	0.02
482.267	0.01
482.466	0
482.665	0.01
482.864	0.01
483.063	0.01
483.262	0.06
483.461	0.06
483.661	0.07
483.86	0.02
484.059	0.04
484.258	0.03
484.457	0.02
484.656	0.04
484.855	0.07
485.054	-0.01
485.253	0
485.452	-0
485.651	0.02
485.849	0.04
486.048	-0.02
486.247	-0.01
486.446	0.04
486.645	0.01
486.844	0
487.043	-0.01
487.241	0.04
487.44	0.04
487.639	0.04
487.838	0.05
488.037	0.03
488.235	0.07
488.434	0.04
488.633	-0.01
488.831	0.04
489.03	0.05
489.229	0
489.427	0.03
489.626	0.07
489.825	0.07
490.023	0
490.222	-0.01
490.42	0.04
490.619	0.05
490.817	0.04
491.016	0.02
491.214	0.05
491.413	0.04
491.611	0.01
491.81	0.03
492.008	0.04
492.207	0.06
492.405	0.03
492.604	-0.04
492.802	0.04
493	0.03
493.199	-0
493.397	0.03
493.595	0.03
493.794	0.01
493.992	0.08
494.19	0.04
494.388	0.05
494.587	0
494.785	0.04
494.983	-0.01
495.181	0.03
495.379	0.01
495.578	0.02
495.776	0.03
495.974	0.02
496.172	0.01
496.37	0.01
496.568	-0.01
496.766	0
496.964	0.05
497.162	0.04
497.36	-0.02
497.558	0.04
497.756	0.05
497.954	0.04
498.152	0
498.35	0
498.548	0.01
498.746	0.02
498.944	0.01
499.142	0.03
499.34	0.02
499.538	0.02
499.736	0.01
499.933	0.06
500.131	0.07
500.329	0.01
500.527	0.07
500.725	0.05
500.922	0.05
501.12	0.04
501.318	0.04
501.516	0.01
501.713	0.03
501.911	0.01
502.109	0.01
502.306	0.05
502.504	0.02
502.701	0.01
502.899	0.02
503.097	0.05
503.294	0.02
503.492	0.03
503.689	0.02
503.887	0.03
504.084	0.07
504.282	0.03
504.479	-0
504.677	0.03
504.874	0
505.072	0.03
505.269	0.02
505.466	0.03
505.664	0.04
505.861	0
506.059	-0.02
506.256	0.07
506.453	0.01
506.651	0.07
506.848	0.06
507.045	0.04
507.242	0.03
507.44	-0
507.637	0.03
507.834	0.02
508.031	0.07
508.229	0.01
508.426	0.01
508.623	0.06
508.82	0.02
509.017	0.02
509.214	0.01
509.411	0.03
509.608	0
509.805	0.03
510.003	0.01
510.2	0
510.397	0.05
510.594	0.02
510.791	0
510.988	0.02
511.184	0.04
511.381	0.03
511.578	0.01
511.775	0.03
511.972	-0
512.169	0.01
512.366	0.02
512.563	0.03
512.76	0.03
512.956	0.02
513.153	0.02
513.35	0.03
513.547	-0.01
513.744	0.01
513.94	-0.01
514.137	0.04
514.334	0.02
514.53	0.01
514.727	0.06
514.924	0.09
515.12	-0.01
515.317	-0.02
515.514	0.02
515.71	-0.01
515.907	0.04
516.103	0.04
516.3	0.04
516.497	0.05
516.693	0.05
516.89	0.02
517.086	-0
517.283	0.05
517.479	0.04
517.676	0.01
517.872	0.02
518.068	0.01
518.265	0.01
518.461	0.02
518.658	0.02
518.854	0.05
519.05	0.03
519.247	0.01
519.443	0.04
519.639	0.04
519.836	0.02
520.032	0.02
520.228	0.02
520.424	0.05
520.621	0.05
520.817	0.03
521.013	0.02
521.209	0.03
521.405	0.07
521.601	0.01
521.798	0.04
521.994	0.06
522.19	-0.01
522.386	-0.01
522.582	0.04
522.778	0.03
522.974	0.01
523.17	0.03
523.366	0.02
523.562	0.05
523.758	0.04
523.954	0
524.15	0.02
524.346	0.04
524.542	-0
524.738	-0.02
524.934	0.03
525.129	-0.04
525.325	0.02
525.521	0.03
525.717	0.04
525.913	0.01
526.109	0.03
526.304	0.02
526.5	0.02
526.696	0.05
526.892	0.02
527.087	0.02
527.283	0.01
527.479	0.02
527.674	0.03
527.87	0.04
528.066	0.04
528.261	0.05
528.457	0.04
528.653	0.02
528.848	0.02
529.044	0.03
529.239	0.03
529.435	0.06
529.63	0.03
529.826	0.07
530.021	0.05
530.217	0.05
530.412	0.02
530.608	0.01
530.803	0.03
530.999	0.02
531.194	0
531.389	0.03
531.585	-0.01
531.78	0.02
531.975	0.03
532.171	0.03
532.366	0.01
532.561	0.03
532.757	0.01
532.952	0.02
533.147	0.02
533.342	0.03
533.538	0
533.733	0.05
533.928	0.03
534.123	-0
534.318	-0.01
534.513	0.04
534.709	0.03
534.904	0.01
535.099	0.02
535.294	0.03
535.489	0.05
535.684	0.02
535.879	-0
536.074	0.05
536.269	-0
536.464	0.04
536.659	0.02
536.854	0.02
537.049	0.03
537.244	0.03
537.439	0.02
537.634	0.04
537.828	0.03
538.023	0.03
538.218	-0
538.413	0.02
538.608	-0.03
538.803	0.04
538.997	-0.01
539.192	0.06
539.387	0.03
539.582	0.05
539.776	0.02
539.971	0.02
540.166	0.02
540.36	0.01
540.555	0.04
540.75	0.03
540.944	0.02
541.139	-0.01
541.334	0.01
541.528	0.03
541.723	0.03
541.917	0.04
542.112	-0.01
542.306	0.02
542.501	0.03
542.695	0.02
542.89	0.01
543.084	0.03
543.279	0.02
543.473	0.03
543.668	0.01
543.862	0.04
544.056	0.03
544.251	0.01
544.445	0.04
544.64	0.02
544.834	0.03
545.028	0.05
545.222	0.06
545.417	0.05
545.611	0.03
545.805	0.04
546	0.01
546.194	0.03
546.388	0.02
546.582	0.04
546.776	0.04
546.97	0.03
547.165	0.04
547.359	0.03
547.553	0.01
547.747	0.03
547.941	0.03
548.135	0.05
548.329	0.08
548.523	0.03
548.717	0.03
548.911	-0
549.105	0.04
549.299	0.03
549.493	0.06
549.687	0.02
549.881	0.03
550.075	0.03
550.269	0.01
550.463	0.05
550.657	0.02
550.85	0.03
551.044	0.01
551.238	0.02
551.432	0.01
551.626	0.01
551.82	0.03
552.013	0
552.207	0.02
552.401	0.07
552.594	0.04
552.788	0.04
552.982	0.06
553.176	0.02
553.369	0.04
553.563	0.06
553.756	-0.01
553.95	-0.01
554.144	0.03
554.337	0.05
554.531	0.04
554.724	0.04
554.918	0.02
555.111	0.08
555.305	0.06
555.498	0.08
555.692	0.05
555.885	0.02
556.079	0.03
556.272	0.02
556.466	0.05
556.659	0.04
556.852	0.03
557.046	0.03
557.239	0.06
557.432	-0.01
557.626	0.03
557.819	0.04
558.012	0.04
558.206	0.05
558.399	0.05
558.592	0.05
558.785	0.06
558.979	0.04
559.172	0.03
559.365	0.07
559.558	0.05
559.751	0.02
559.944	0.05
560.138	-0
560.331	0.04
560.524	0.03
560.717	0.03
560.91	0.04
561.103	0.05
561.296	0.01
561.489	0.05
561.682	0.03
561.875	0.07
562.068	0.08
562.261	0.04
562.454	0.09
562.647	0.03
562.84	0.07
563.032	0.03
563.225	0.03
563.418	0.04
563.611	0.02
563.804	0.05
563.997	0.02
564.19	0.01
564.382	-0.03
564.575	0.03
564.768	0.02
564.961	0.03
565.153	-0
565.346	0.06
565.539	0.07
565.731	0.07
565.924	0.06
566.117	0.05
566.309	0.04
566.502	0.03
566.695	0.05
566.887	0.04
567.08	0.03
567.272	0.05
567.465	0.04
567.657	0.05
567.85	0.07
568.042	0.05
568.235	0.08
568.427	0.04
568.62	0.02
568.812	0.07
569.005	0.05
569.197	-0.02
569.389	0.04
569.582	0.04
569.774	0.04
569.966	0.03
570.159	0.04
570.351	0.04
570.543	0.03
570.736	0.02
570.928	0.03
571.12	0.05
571.312	0.04
571.505	0.01
571.697	0.06
571.889	0.03
572.081	0.05
572.273	0.02
572.465	0.08
572.658	0.03
572.85	0.06
573.042	0.07
573.234	0.05
573.426	0.09
573.618	0.03
573.81	0.07
574.002	0.08
574.194	0.09
574.386	-0
574.578	-0.04
574.77	0.01
574.962	0.03
575.154	0
575.346	0.06
575.538	0.07
575.729	0.04
575.921	0.05
576.113	0.03
576.305	0.09
576.497	0.06
576.689	0.01
576.88	0.02
577.072	0.07
577.264	0.05
577.456	0.05
577.647	-0
577.839	0.05
578.031	0.09
578.223	0
578.414	0.02
578.606	0.07
578.798	0.07
578.989	0.05
579.181	0.03
579.372	0.04
579.564	0.05
579.755	0.06
579.947	0.06
580.139	0.09
580.33	0
580.522	0.03
580.713	-0
580.905	0.03
581.096	0.07
581.287	0.06
581.479	0.03
581.67	0.05
581.862	0.07
582.053	0.05
582.244	-0.01
582.436	0.07
582.627	0.06
582.818	0.02
583.01	0.05
583.201	0.06
583.392	0.07
583.583	0.06
583.775	0.05
583.966	0.04
584.157	0.05
584.348	0.05
584.54	0.06
584.731	0.06
584.922	0.03
585.113	0.04
585.304	0.07
585.495	0.11
585.686	0.07
585.877	0.06
586.068	0.08
586.259	0.07
586.45	0.06
586.641	0.03
586.832	0
587.023	0.07
587.214	0.04
587.405	0.06
587.596	0.05
587.787	0.1
587.978	0.07
588.169	0.03
588.36	0.05
588.551	0.08
588.742	0.04
588.932	0.07
589.123	0.06
589.314	0.1
589.505	0.1
589.696	0.08
589.886	0.06
590.077	0.04
590.268	0.08
590.458	0.03
590.649	0.04
590.84	0.1
591.03	0.07
591.221	0.04
591.412	0.04
591.602	0.09
591.793	0.13
591.984	0.08
592.174	0.1
592.365	0.17
592.555	0.05
592.746	0.12
592.936	0.08
593.127	0.13
593.317	0.12
593.508	0.08
593.698	0.1
593.889	0.12
594.079	0.09
594.269	0.07
594.46	0.11
594.65	0.09
594.84	0.11
595.031	0.09
595.221	0.09
595.411	0.06
595.602	0.12
595.792	0.11
595.982	0.1
596.172	0.18
596.363	0.11
596.553	0.11
596.743	0.11
596.933	0.16
597.123	0.13
597.314	0.12
597.504	0.09
597.694	0.16
597.884	0.12
598.074	0.14
598.264	0.12
598.454	0.15
598.644	0.14
598.834	0.16
599.024	0.11
599.214	0.14
599.404	0.17
599.594	0.13
599.784	0.11
599.974	0.19
600.164	0.18
600.354	0.12
600.544	0.12
600.734	0.17
600.924	0.17
601.114	0.14
601.303	0.17
601.493	0.16
601.683	0.13
601.873	0.18
602.063	0.13
602.252	0.21
602.442	0.12
602.632	0.14
602.821	0.18
603.011	0.18
603.201	0.19
603.39	0.15
603.58	0.17
603.77	0.19
603.959	0.24
604.149	0.24
604.339	0.19
604.528	0.22
604.718	0.23
604.907	0.19
605.097	0.2
605.286	0.2
605.476	0.24
605.665	0.25
605.855	0.21
606.044	0.31
606.234	0.25
606.423	0.23
606.612	0.24
606.802	0.25
606.991	0.28
607.181	0.3
607.37	0.24
607.559	0.23
607.749	0.24
607.938	0.26
608.127	0.26
608.316	0.28
608.506	0.3
608.695	0.3
608.884	0.27
609.073	0.27
609.263	0.34
609.452	0.33
609.641	0.33
609.83	0.28
610.019	0.33
610.208	0.34
610.397	0.36
610.586	0.38
610.775	0.31
610.965	0.35
611.154	0.32
611.343	0.36
611.532	0.36
611.721	0.39
611.91	0.4
612.099	0.41
612.287	0.41
612.476	0.39
612.665	0.45
612.854	0.43
613.043	0.52
613.232	0.44
613.421	0.48
613.61	0.49
613.798	0.44
613.987	0.52
614.176	0.51
614.365	0.52
614.554	0.53
614.742	0.52
614.931	0.53
615.12	0.58
615.309	0.51
615.497	0.56
615.686	0.53
615.875	0.58
616.063	0.59
616.252	0.59
616.44	0.63
616.629	0.62
616.818	0.67
617.006	0.67
617.195	0.67
617.383	0.69
617.572	0.68
617.76	0.73
617.949	0.72
618.137	0.79
618.326	0.79
618.514	0.71
618.703	0.74
618.891	0.82
619.079	0.76
619.268	0.92
619.456	0.81
619.644	0.91
619.833	0.83
620.021	0.85
620.209	0.86
620.398	0.95
620.586	0.93
620.774	1.01
620.962	1.01
621.151	1.03
621.339	0.98
621.527	1.02
621.715	1.03
621.903	1.11
622.092	1.03
622.28	1.12
622.468	1.11
622.656	1.18
622.844	1.15
623.032	1.21
623.22	1.16
623.408	1.28
623.596	1.29
623.784	1.28
623.972	1.29
624.16	1.32
624.348	1.44
624.536	1.44
624.724	1.4
624.912	1.47
625.1	1.47
625.288	1.48
625.476	1.46
625.664	1.58
625.851	1.53
626.039	1.64
626.227	1.62
626.415	1.67
626.603	1.62
626.79	1.77
626.978	1.74
627.166	1.82
627.354	1.78
627.541	1.8
627.729	1.79
627.917	2.01
628.104	1.97
628.292	1.98
628.48	2.03
628.667	2.08
628.855	2.19
629.042	2.19
629.23	2.2
629.418	2.24
629.605	2.31
629.793	2.29
629.98	2.32
630.168	2.4
630.355	2.44
630.543	2.52
630.73	2.48
630.917	2.56
631.105	2.67
631.292	2.7
631.48	2.78
631.667	2.88
631.854	2.83
632.042	2.85
632.229	2.89
632.416	2.97
632.604	3.03
632.791	2.98
632.978	3.18
633.165	3.13
633.353	3.24
633.54	3.34
633.727	3.26
633.914	3.37
634.101	3.38
634.289	3.51
634.476	3.57
634.663	3.48
634.85	3.65
635.037	3.67
635.224	3.71
635.411	3.84
635.598	3.87
635.785	3.89
635.972	4
636.159	4.02
636.346	4.12
636.533	4.17
636.72	4.27
636.907	4.31
637.094	4.39
637.281	4.32
637.468	4.52
637.655	4.55
637.842	4.63
638.029	4.77
638.215	4.78
638.402	4.82
638.589	4.86
638.776	4.96
638.963	5.01
639.149	5.19
639.336	5.31
639.523	5.36
639.709	5.36
639.896	5.42
640.083	5.5
640.27	5.68
640.456	5.73
640.643	5.75
640.829	5.8
641.016	5.91
641.203	5.97
641.389	6.17
641.576	6.24
641.762	6.25
641.949	6.37
642.135	6.49
642.322	6.58
642.508	6.69
642.695	6.87
642.881	6.87
643.068	6.98
643.254	7.09
643.441	7.22
643.627	7.54
643.813	7.36
644	7.65
644.186	7.66
644.372	7.87
644.559	7.98
644.745	8.11
644.931	8.18
645.118	8.33
645.304	8.48
645.49	8.67
645.676	8.77
645.862	8.93
646.049	9.13
646.235	9.13
646.421	9.56
646.607	9.65
646.793	9.75
646.979	9.73
647.165	10.18
647.352	10.18
647.538	10.29
647.724	10.47
647.91	10.65
648.096	10.82
648.282	10.97
648.468	11.22
648.654	11.47
648.84	11.54
649.026	11.77
649.212	11.83
649.397	12.04
649.583	12.4
649.769	12.44
649.955	12.64
650.141	13.07
650.327	12.96
650.513	13.36
650.698	13.5
650.884	13.59
651.07	13.94
651.256	13.98
651.442	14.38
651.627	14.32
651.813	14.83
651.999	14.77
652.184	15.05
652.37	15.41
652.556	15.71
652.741	15.7
652.927	15.63
653.113	16.2
653.298	16.21
653.484	16.55
653.669	16.75
653.855	16.95
654.04	17.3
654.226	17.32
654.412	17.62
654.597	17.56
654.782	18.06
654.968	18.14
655.153	18.43
655.339	18.55
655.524	18.75
655.71	19.04
655.895	19.32
656.08	19.49
656.266	19.77
656.451	19.67
656.636	19.81
656.822	20.08
657.007	20.32
657.192	20.47
657.378	20.62
657.563	20.51
657.748	20.87
657.933	21.28
658.118	20.65
658.304	21.49
658.489	21.5
658.674	21.41
658.859	21.41
659.044	21.53
659.229	21.69
659.414	21.87
659.599	21.72
659.785	21.69
659.97	21.68
660.155	21.63
660.34	21.69
660.525	21.58
660.71	21.39
660.895	21.52
661.08	21.16
661.264	20.9
661.449	20.83
661.634	20.4
661.819	20.58
662.004	19.88
662.189	19.95
662.374	19.67
662.559	19.19
662.743	18.75
662.928	18.61
663.113	18.12
663.298	17.9
663.483	17.5
663.667	17.13
663.852	16.71
664.037	16.44
664.221	16.15
664.406	15.6
664.591	15.15
664.775	14.71
664.96	14.44
665.145	13.77
665.329	13.74
665.514	13.18
665.698	12.59
665.883	12.22
666.068	12.03
666.252	11.65
666.437	11.23
666.621	10.76
666.806	10.4
666.99	10.12
667.174	9.69
667.359	9.44
667.543	9.09
667.728	8.86
667.912	8.4
668.096	8.12
668.281	7.84
668.465	7.74
668.649	7.51
668.834	7.08
669.018	7
669.202	6.7
669.387	6.43
669.571	6.31
669.755	6.01
669.939	5.74
670.124	5.65
670.308	5.43
670.492	5.29
670.676	5.01
670.86	4.86
671.044	4.63
671.228	4.64
671.413	4.41
671.597	4.27
671.781	4.16
671.965	4.11
672.149	3.85
672.333	3.88
672.517	3.64
672.701	3.51
672.885	3.41
673.069	3.23
673.253	3.24
673.437	3.14
673.621	3.04
673.804	2.88
673.988	2.81
674.172	2.69
674.356	2.55
674.54	2.56
674.724	2.53
674.908	2.42
675.091	2.4
675.275	2.3
675.459	2.22
675.643	2.15
675.826	2.08
676.01	1.99
676.194	1.95
676.377	1.92
676.561	1.85
676.745	1.75
676.928	1.7
677.112	1.66
677.296	1.59
677.479	1.51
677.663	1.51
677.846	1.46
678.03	1.45
678.213	1.37
678.397	1.35
678.58	1.29
678.764	1.27
678.947	1.17
679.131	1.16
679.314	1.21
679.498	1.1
679.681	1.12
679.865	1.19
680.048	1.05
680.231	0.99
680.415	0.97
680.598	0.94
680.781	0.89
680.965	0.89
681.148	0.87
681.331	0.82
681.514	0.84
681.698	0.77
681.881	0.76
682.064	0.73
682.247	0.72
682.43	0.68
682.614	0.73
682.797	0.66
682.98	0.66
683.163	0.6
683.346	0.69
683.529	0.59
683.712	0.55
683.895	0.61
684.078	0.55
684.261	0.54
684.444	0.56
684.627	0.54
684.81	0.48
684.993	0.48
685.176	0.5
685.359	0.44
685.542	0.48
685.725	0.55
685.908	0.42
686.091	0.44
686.274	0.48
686.457	0.42
686.639	0.43
686.822	0.46
687.005	0.43
687.188	0.39
687.371	0.47
687.553	0.44
687.736	0.4
687.919	0.46
688.102	0.44
688.284	0.34
688.467	0.38
688.65	0.36
688.832	0.28
689.015	0.34
689.197	0.28
689.38	0.43
689.563	0.34
689.745	0.27
689.928	0.28
690.11	0.31
690.293	0.25
690.475	0.27
690.658	0.3
690.84	0.25
691.023	0.34
691.205	0.23
691.388	0.31
691.57	0.34
691.752	0.29
691.935	0.21
692.117	0.28
692.3	0.25
692.482	0.24
692.664	0.2
692.847	0.25
693.029	0.33
693.211	0.23
693.393	0.21
693.576	0.18
693.758	0.21
693.94	0.2
694.122	0.2
694.304	0.22
694.487	0.23
694.669	0.25
694.851	0.18
695.033	0.24
695.215	0.15
695.397	0.14
695.579	0.24
695.761	0.19
695.943	0.09
696.125	0.3
696.308	0.2
696.49	0.09
696.671	0.27
696.853	0.17
697.035	0.33
697.217	0.14
697.399	0.17
697.581	0.13
697.763	0.22
697.945	0.14
698.127	0.13
698.309	0.25
698.491	0.17
698.672	0.22
698.854	0.16
699.036	0.23
699.218	0.13
699.399	0.2
699.581	0.23
699.763	0.15
699.945	0.09
700.126	0.1
700.308	0.17
700.49	0.13
700.671	0.06
700.853	0.13
701.035	0.13
701.216	0.11
701.398	0.1
701.579	0.09
701.761	0.22
701.943	0.11
702.124	0.11
702.306	0.13
702.487	0.3
702.669	0.14
702.85	0.09
703.031	0.1
703.213	0.24
703.394	0.18
703.576	0.11
703.757	0.19
703.938	0.24
704.12	0.21
704.301	0.16
704.483	0.11
704.664	0.19
704.845	0.17
705.026	0.16
705.208	0.15
705.389	0.14
705.57	0.16
705.751	0.13
705.933	0.15
706.114	0.17
706.295	0.13
706.476	0.05
706.657	0.21
706.838	0.18
707.02	0.17
707.201	0.11
707.382	0.1
707.563	0.16
707.744	0.07
707.925	0.08
708.106	0.09
708.287	0.19
708.468	0.2
708.649	0.15
708.83	0.17
709.011	0.08
709.192	0.17
709.373	0
709.554	0.12
709.734	0.14
709.915	0.17
710.096	0.17
710.277	0.03
710.458	0.12
710.639	0.13
710.819	-0.01
711	0.16
711.181	0.22
711.362	0.14
711.542	0.09
711.723	0.09
711.904	0.14
712.085	0.1
712.265	0.09
712.446	0.05
712.627	0.07
712.807	0.09
712.988	0.01
713.168	-0.01
713.349	0.15
713.53	-0.06
713.71	0.01
713.891	0.11
714.071	0.09
714.252	0.1
714.432	0.04
714.613	0.06
714.793	0.1
714.974	0.22
715.154	0.18
715.334	0.12
715.515	0.15
715.695	0.11
715.876	0.14
716.056	0.04
716.236	0.08
716.417	0.05
716.597	-0.01
716.777	0.25
716.957	0.06
717.138	0.13
717.318	0.13
717.498	0.07
717.678	0.14
717.859	0.16
718.039	0.01
718.219	0.14
718.399	0.18
718.579	0.03
718.759	0.05
718.939	0.16
719.12	0.03
719.3	0.12
719.48	-0.1
719.66	-0.03
719.84	0.17
720.02	0.03
720.2	0.11
720.38	0.11
720.56	0.2
720.74	0.05
720.92	0.11
721.1	0.22
721.279	0.16
721.459	0.06
721.639	-0
721.819	0.07
721.999	0.05
722.179	0.11
722.359	0
722.538	0.13
722.718	0.09
722.898	0.06
723.078	0.01
723.257	0.09
723.437	0.21
723.617	0.15
723.797	0.08
723.976	0.07
724.156	0.07
724.336	0.19
724.515	0.26
724.695	-0.06
724.874	0.12
725.054	0.14
725.234	0.01
725.413	0.08
725.593	0.09
725.772	0.06
725.952	0.13
726.131	0.12
726.311	0.08
726.49	0.05
726.67	0
726.849	0.05
727.028	0.11
727.208	-0.01
727.387	0.14
727.567	0.08
727.746	0.01
727.925	0.05
728.105	-0.03
728.284	0.13
728.463	-0.16
728.643	0.15
728.822	-0.03
729.001	0.02
729.18	0.1
729.359	0.11
729.539	0.01
729.718	0.07
729.897	0.18
730.076	0.01
730.255	0.04
730.434	0.09
730.614	0.14
730.793	0.18
730.972	0.08
731.151	0.11
731.33	0.2
731.509	0.06
731.688	0.16
731.867	0.11
732.046	-0.01
732.225	0.25
732.404	0.01
732.583	0.06
732.762	0.09
732.941	0.15
733.12	0.02
733.298	0.09
733.477	0.14
733.656	0.05
733.835	-0.07
734.014	0.06
734.193	0.1
734.371	0.17
734.55	0.16
734.729	-0.02
734.908	0.13
735.086	0.16
735.265	0.18
735.444	-0.01
735.623	0.01
735.801	0.02
735.98	0.14
736.159	0.05
736.337	0.11
736.516	0.11
736.694	0.11
736.873	0.13
737.052	0.23
737.23	0.28
737.409	0.03
737.587	0.33
737.766	-0.04
737.944	-0
738.123	0.26
738.301	0.1
738.479	0.16
738.658	0.1
738.836	-0.04
739.015	0.09
739.193	0.12
739.371	-0.06
739.55	0.11
739.728	-0.04
739.906	0.19
740.085	0.19
740.263	0.04
740.441	-0.16
740.62	0.21
740.798	0.17
740.976	0.06
741.154	0.01
741.332	0.29
741.511	0.07
741.689	0.2
741.867	0.18
742.045	0.09
742.223	0.08
742.401	0.03
742.579	0.08
742.757	0.06
742.935	-0.08
743.114	0
743.292	0.04
743.47	0.17
743.648	0.15
743.826	-0.03
744.004	0.11
744.181	0.08
744.359	0.03
744.537	0.05
744.715	0.11
744.893	0.06
745.071	0.04
745.249	0.04
745.427	0.05
745.605	0.06
745.782	0.12
745.96	0.23
746.138	0.12
746.316	0.18
746.493	0.05
746.671	0.07
746.849	-0.02
747.027	0.24
747.204	0.07
747.382	0.14
747.56	-0.01
747.737	-0.1
747.915	-0.03
748.093	0.17
748.27	-0.05
748.448	0.02
748.625	-0.06
748.803	0.03
748.98	0.02
749.158	0.12
749.335	0.16
749.513	-0.02
749.69	0.03
749.868	0.11
750.045	0.12
750.223	-0.03
750.4	-0.04
750.578	0.26
750.755	0.06
750.932	-0.03
751.11	0.2
751.287	0.01
751.464	0.17
751.642	0.02
751.819	0.08
751.996	0.13
752.173	-0
752.351	0.04
752.528	0.18
752.705	0.1
752.882	0
753.06	0.1
753.237	0.11
753.414	0.17
753.591	0.26
753.768	0.04
753.945	0.01
754.122	0.08
754.299	0.07
754.476	0.08
754.654	0.14
754.831	0.2
755.008	0.2
755.185	0.02
755.362	0
755.539	0.08
755.716	0.06
755.892	0.14
756.069	0.07
756.246	0.04
756.423	0.06
756.6	0.36
756.777	0.07
756.954	0.25
757.131	0.03
757.307	-0.08
757.484	0.08
757.661	0.1
757.838	0.07
758.015	-0.03
758.191	0.07
758.368	0.02
758.545	0.18
758.721	0.14
758.898	0.01
759.075	0.07
759.251	0.19
759.428	0.18
759.605	0
759.781	0.04
759.958	0.08
760.134	0.13
760.311	0.06
760.488	0.09
760.664	0.25
760.841	-0.03
761.017	-0.09
761.194	0.01
761.37	0.22
761.547	0.1
761.723	0.1
761.899	0.11
762.076	-0.05
762.252	0
762.429	-0.07
762.605	0.26
762.781	-0.02
762.958	0.1
763.134	0.07
763.31	0.02
763.486	0.15
763.663	-0.07
763.839	0.08
764.015	-0.03
764.191	-0.07
764.368	-0.04
764.544	0.02
764.72	0.01
764.896	0.16
765.072	0.03
765.248	0.1
765.425	0.04
765.601	0.09
765.777	0.02
765.953	-0.12
766.129	-0.02
766.305	-0.03
766.481	0.11
766.657	0.17
766.833	0.34
767.009	-0.11
767.185	-0
767.361	0.11
767.537	-0.08
767.713	0.22
767.889	0.05
768.065	0.12
768.24	-0.23
768.416	0.28
768.592	-0.04
768.768	0.05
768.944	0.11
769.12	-0.07
769.295	0.09
769.471	0.11
769.647	0.14
769.823	0.21
769.998	0.17
770.174	-0.05
770.35	0.34
770.525	0.37
770.701	0.14
770.877	0.08
771.052	0.01
771.228	0.29
771.403	0.07
771.579	0.18
771.755	0.36
771.93	0
772.106	-0.03
772.281	-0.13
772.457	0.13
772.632	0.15
772.808	-0.04
772.983	0.1
773.159	-0.07
773.334	0.3
773.509	0.03
773.685	0.01
773.86	0.41
774.036	0.31
774.211	0.06
774.386	0.09
774.562	0.11
774.737	0.34
774.912	0.14
775.087	0.18
775.263	0.14
775.438	0.16
775.613	-0.02
775.788	0.03
775.964	0.12
776.139	0.49
776.314	-0.06
776.489	0.19
776.664	0.1
776.839	-0.06
777.014	0.1
777.19	0.17
777.365	0.21
777.54	0.32
777.715	0.1
777.89	0.04
778.065	0.09
778.24	0.08
778.415	0.33
778.59	0.03
778.765	-0.08
778.94	0.17
779.115	-0.02
779.289	0.07
779.464	0.09
779.639	0.05
779.814	-0.01
779.989	0.07
780.164	0.26
780.339	0.14
780.513	-0.01
780.688	0.01
780.863	0.13
781.038	0.22
781.212	-0.11
781.387	0.08
781.562	0.33
781.737	0.01
781.911	0.15
782.086	-0.04
782.261	0.21
782.435	0.48
782.61	-0.1
782.784	0.13
782.959	0.2
783.134	0.01
783.308	-0.11
783.483	0.07
783.657	0.34
783.832	0.29
784.006	-0.21
784.181	0.06
784.355	0.17
784.53	-0.22
784.704	0.08
784.878	0.26
785.053	0.22
785.227	0.35
785.402	0.33
785.576	-0.1
785.75	0.08
785.925	-0.07
786.099	0.03
786.273	0.21
786.448	0.11
786.622	0.25
786.796	0.06
786.97	-0.11
787.145	0.63
787.319	-0.27
787.493	-0.02
787.667	-0.31
787.841	0.08
788.015	0.35
788.19	0.08
788.364	-0
788.538	0.2
788.712	0.23
788.886	0.13
789.06	0.43
789.234	0.32
789.408	-0.25
789.582	0.03
789.756	0.12
789.93	0.13
790.104	0.07
790.278	0.06
790.452	0.05
790.626	0.19
790.8	-0.12
790.973	0.14
791.147	0.33
791.321	0.34
791.495	0.42
791.669	0.12
791.843	0.03
792.016	0.21
792.19	0.47
792.364	-0
792.538	0.62
792.711	0.08
792.885	0.15
793.059	-0.06
793.233	-0.47
793.406	0.26
793.58	-0.01
793.754	0.44
793.927	0.06
794.101	0.38
794.274	0.14
794.448	0.29
794.622	0.15
794.795	0.34
794.969	-0.07
795.142	0.62
795.316	0.17
795.489	-0.14
795.663	0.48
795.836	-0.06
796.009	-0.01
796.183	0.36
796.356	0.4
796.53	0.08
796.703	0.17
796.876	0.51
797.05	0.16
797.223	0.23
797.396	0.36
797.57	0.32
797.743	0.34
797.916	0.14
798.09	0.34
798.263	0.4
798.436	0.37
798.609	0.01
798.782	0.41
798.956	0.34
799.129	0.21
799.302	0.02
799.475	0.09
799.648	0.06
799.821	-0.09
799.994	0.02
800.167	-0.32
800.34	0.04
800.514	0.14
800.687	0.17
800.86	-0.17
801.033	0.32
801.206	0.29
801.379	-0.11
801.551	0.35
801.724	0.33
801.897	0.43
802.07	0.12
802.243	-0.13
802.416	0.18
802.589	0.09
802.762	0.25
802.935	0.16
803.107	0.34
803.28	0.44
803.453	0.22
803.626	-0
803.798	0.44
803.971	0.2
804.144	0.42
804.317	0.37
804.489	0.16
804.662	0.22
804.835	0.37
805.007	-0.04
805.18	0.71
805.353	0.44
805.525	-0.32
805.698	-0.13
805.87	0.47
806.043	0.24
806.215	-0.28
806.388	-0.17
806.56	0.4
806.733	0.47
806.905	0.43
807.078	0.27
807.25	0.21
807.423	0.34
807.595	0.22
807.768	0.23
807.94	0.4
808.112	0.26
808.285	0.17
808.457	0.04
808.629	0.3
808.802	0.57
808.974	-0.05
809.146	-0.05
809.318	-0.18
809.491	0.37
809.663	0.5
809.835	0.07
810.007	0.04
810.18	-0.02
810.352	-0.38
810.524	0.03
810.696	0.43
810.868	0.38
811.04	0.04
811.212	0.09
811.384	0.22
811.556	0.07
811.728	0.46
811.901	0.82
812.073	0.03
812.245	0.33
812.417	0.17
812.589	-0.33
812.76	0.17
812.932	0.44
813.104	0.73
813.276	0.04
813.448	0.4
813.62	-0.02
813.792	0.05
813.964	0.37
814.136	0.27
814.307	-0.04
814.479	-0.09
814.651	0.05
814.823	1.14
814.995	0.01
815.166	0.12
815.338	0.2
815.51	-0.44
815.681	1.11
815.853	0.07
816.025	-0.27
816.196	1.01
816.368	0.68
816.54	-0.42
816.711	-0.24
816.883	0.25
817.054	0.71
817.226	-0.37
817.398	0.17
817.569	0.08
817.741	0.47
817.912	0.24
818.084	-0.11
818.255	0.29
818.426	-0.2
818.598	0.25
818.769	-0.31
818.941	0.3
819.112	0.93
819.283	0.49
819.455	-0.06
819.626	0.25
819.798	0.38
819.969	0.03
820.14	0.14
820.311	0.12
820.483	0.63
820.654	0.28
820.825	0.05
820.996	0.13
821.168	-0.5
821.339	0.04
821.51	0.19
821.681	0.12
821.852	0.5
822.023	-0.31
822.195	-0.19
822.366	0.75
822.537	0.11
822.708	0.43
822.879	0.23
823.05	0.84
823.221	0.38
823.392	0.48
823.563	0.31
823.734	-0.18
823.905	0.11
824.076	-0.12
824.247	0.08
824.418	0.07
824.589	0.98
824.759	0.49
824.93	0.02
825.101	-0.04
825.272	0.73
825.443	0.9
825.614	0.27
825.784	-0.34
825.955	1.16
826.126	1.19
826.297	0.81
826.467	1.06
826.638	0.39
826.809	-0.36
826.98	-0.07
827.15	0.25
827.321	0.06
827.492	0.94
827.662	0.51
827.833	0.87
828.003	0.41
828.174	-0.09
828.345	0.09
828.515	1.11
828.686	0.62
828.856	0.23
829.027	0.48
829.197	0.24
829.368	0.54
829.538	-0.31
829.709	0.16
829.879	0.24
830.049	0.49
830.22	0.57
830.39	0.08
830.56	0.69
830.731	0.24
830.901	-0.13
831.072	0.59
831.242	0.23
831.412	0.02
831.582	0.53
831.753	0.15
831.923	1.2
832.093	-0.05
832.263	0.12
832.434	-0.25
832.604	-0.17
832.774	0.91
832.944	0.09
833.114	0.19
833.284	0.17
833.454	-0.01
833.624	0.03
833.795	0.2
833.965	0.83
834.135	1.14
834.305	-0.23
834.475	-0.26
834.645	-0.01
834.815	0
834.985	-0.11
835.155	-0.27
835.325	-0.01
835.494	1.39
835.664	-0.1
835.834	-0.6
836.004	0.04
836.174	1.13
836.344	0.51
836.514	-0.87
836.684	0.1
836.853	0.4
837.023	0.27
837.193	0.12
837.363	0.92
837.532	0.78
837.702	0.49
837.872	-0.16
838.041	0.65
838.211	1.39
838.381	-0.81
838.55	0.96
838.72	2.03
838.89	2.08
839.059	0.12
839.229	-0.04
839.398	1.65
839.568	0.46
839.738	0.5
839.907	0.95
840.077	1.1
840.246	-0.08
840.416	-0.4
840.585	-0.36
840.755	1.37
840.924	1.79
841.093	-0.34
841.263	-0.27
841.432	0.71
841.602	0.26
841.771	0.16
841.94	0.94
842.11	2.21
842.279	2.21
842.448	0.02
842.617	-0.32
842.787	1.65
842.956	0.04
843.125	0.22
843.294	0.83
843.464	1.81
843.633	0.66
843.802	-0.25
843.971	0.6
844.14	1.29
844.309	0.99
844.479	-1.39
844.648	0.2
844.817	1.2
844.986	0.42
845.155	0.78
845.324	0.28
845.493	1.14
845.662	-0.31
845.831	0.52
846	1.09
846.169	-0.22
846.338	0.53
846.507	0.37
846.676	0.5
846.844	0.7
847.013	2.5
847.182	0.59
847.351	-0.04
847.52	0.53
847.689	0.72
847.858	0.98
848.026	0.36
848.195	0.23
848.364	-0.34
848.533	-0.39
848.701	-0.22
848.87	-1.22
849.039	1.03
849.207	1.22
849.376	1.24
849.545	1.92
849.713	0.35
849.882	0.07
850.051	0.52
850.219	1.04
850.388	0.84
850.556	-0.06
850.725	-0.35
850.893	1.27
851.062	1.25
851.23	1.44
851.399	0.23
851.567	0.35
851.736	0.22
851.904	-0.36
852.073	0.05
852.241	0.72
852.41	1.1
852.578	0.2
852.746	0.7
852.915	1.28
853.083	0.76
853.251	-1.25
853.42	0.69
853.588	0.32
853.756	1.05
853.924	-0.15
854.093	0.81
854.261	-0.64
854.429	-1.01
854.597	0.58
854.765	-0.53
854.934	1.46
855.102	2.08
855.27	0.39
855.438	2.27
855.606	0.99
855.774	1.35
855.942	-1.5
856.11	-1.58
856.278	1.05
856.446	1.28
856.614	0.14
856.782	0.44
856.95	0.39
857.118	1.69
857.286	0.67
857.454	0.58
857.622	1.75
857.79	0.64
857.958	-0.22
858.126	0.76
858.294	-2.1
858.462	0.43
858.629	-0.3
858.797	0.37
858.965	1.54
859.133	0.64
859.301	0.49
859.468	1.33
859.636	-0.24
859.804	2.23
859.971	1.43
860.139	-0.38
860.307	0.83
860.474	1.4
860.642	-0
860.81	-0.2
860.977	0.28
861.145	1.2
861.313	0.47
861.48	0.73
861.648	1.29
861.815	0.68
861.983	-0.65
862.15	-0.12
862.318	1.76
862.485	2.02
862.653	-0.19
862.82	0.06
862.988	2.12
863.155	1.74
863.322	-0.45
863.49	0.06
863.657	1.11
863.824	2.46
863.992	0.84
864.159	0.99
864.326	1.42
864.494	-0.36
864.661	3.52
864.828	-0.24
864.996	2.71
865.163	1.94
865.33	-0.57
865.497	-0.92
865.664	-0.38
865.832	-1.77
865.999	0.1
866.166	-0.2
866.333	0.04
866.5	0.3
866.667	0.54
866.834	-0.78
867.001	1.64
867.168	-0.85
867.335	1.27
867.502	-1.22
867.669	0.74
867.836	3.55
868.003	0.29
868.17	2.63
868.337	-0.26
868.504	3.04
868.671	-0.12
868.838	-0.75
869.005	0.57
869.172	1.87
869.339	2.1
869.505	-0.45
869.672	0.08
869.839	3
870.006	-0.02
870.173	0.07
870.339	1.08
870.506	4.46
870.673	-0.35
870.84	0.39
871.006	2.47
871.173	-0.1
871.34	1.39
871.506	-0.58
871.673	0.52
871.839	-0.61
872.006	0.37
872.173	0.29
872.339	1.46
872.506	3.67
872.672	-0.39
872.839	-1.77
873.005	1.41
873.172	4.85
873.338	0.98
873.505	2.53
873.671	2.03
873.838	2.1
874.004	-0.99
874.171	0.51
874.337	-0.64
874.503	-0.31
874.67	0.15
874.836	-0.28
875.002	3.31
875.169	0.48
875.335	2.3
875.501	-1.2
875.668	2.48
875.834	0.85
876	-0.43
876.166	1.3
876.332	1.81
876.499	4.45
876.665	-0.24
876.831	0.58
876.997	3.16
877.163	2.31
877.329	0.03
877.495	0.64
877.662	1
877.828	-0.98
877.994	-0.17
878.16	-1.96
878.326	-0.69
878.492	2.09
878.658	-0.26
878.824	1.09
878.99	2.08
879.156	0.67
879.322	3.3
879.487	-0.08
879.653	1.34
879.819	1.37
879.985	0.72
880.151	1.39
880.317	2.84
880.483	1.81
880.648	0.93
880.814	-1.67
880.98	2.02
881.146	-1.77
881.312	0.28
881.477	1.37
881.643	1.39
881.809	1.97
881.974	0.52
882.14	-1.88
882.306	-0.08
882.471	3.84
882.637	0.2
882.803	1.12
882.968	3.74
883.134	4.6
883.299	2.61
883.465	1.58
883.63	0.61
883.796	0.8
883.961	2.1
884.127	1.22
884.292	-2.14
884.458	0.35
884.623	0.35
