Data from Apollo_Calib_20240827__AbsoluteIrradiance__334__04-43-01-601.txt Node

Date: Wed Aug 28 04:43:01 BST 2024
User: biology
Spectrometer: FLMT08252
Trigger mode: 0
Integration Time (sec): 5.000000E-1
Scans to average: 5
Electric dark correction enabled: true
Nonlinearity correction enabled: false
Boxcar width: 0
XAxis mode: Wavelengths
Number of Pixels in Spectrum: 3648
>>>>>Begin Spectral Data<<<<<
179.588	-0
179.809	-0
180.03	-0
180.251	-0
180.473	-0
180.694	0
180.915	0
181.136	-0
181.357	0
181.578	-0
181.799	-0
182.02	-0
182.241	-0
182.462	0
182.683	0
182.904	-0
183.125	-0
183.346	0
183.567	0
183.788	0
184.009	-0
184.23	0
184.451	0
184.672	-0
184.892	-0
185.113	0
185.334	0
185.555	-0
185.776	-0
185.996	0
186.217	0
186.438	-0
186.659	-0
186.879	0
187.1	0
187.321	-0
187.541	-0
187.762	-0
187.983	0
188.203	0
188.424	0
188.644	0
188.865	0
189.086	-0
189.306	-0
189.527	0
189.747	0
189.968	-0
190.188	0
190.409	0
190.629	0
190.849	-0
191.07	-0
191.29	0
191.511	0
191.731	-0
191.951	-0
192.172	0
192.392	0
192.612	-0
192.833	0
193.053	0
193.273	0
193.493	-0
193.714	0
193.934	0
194.154	0
194.374	0
194.594	0
194.815	0
195.035	0
195.255	0
195.475	-0
195.695	0
195.915	0
196.135	-0
196.355	0
196.575	0
196.795	0
197.015	-0
197.235	-0
197.455	-0
197.675	0
197.895	-0
198.115	-0
198.335	0
198.555	0
198.775	0
198.995	0
199.214	0
199.434	0
199.654	-0
199.874	-0
200.094	0.83
200.313	0.21
200.533	0.03
200.753	-0.61
200.973	0.99
201.192	0.58
201.412	-1
201.632	-0.52
201.851	1.19
202.071	0.4
202.291	-0.32
202.51	-0.32
202.73	0.57
202.95	-0.08
203.169	-0.22
203.389	0.19
203.608	0.16
203.828	-0.14
204.047	-0.49
204.267	0.39
204.486	0.45
204.706	0.21
204.925	-0.15
205.145	-0.43
205.364	0.18
205.583	0.74
205.803	-0.07
206.022	-0.38
206.242	0.29
206.461	0.21
206.68	-0.08
206.9	0.14
207.119	0.59
207.338	0.94
207.557	-0.04
207.777	-0.08
207.996	-0.17
208.215	0.24
208.434	-0.07
208.654	-0.43
208.873	-0.08
209.092	0.42
209.311	-0.13
209.53	-0.09
209.749	-0.11
209.968	-0.03
210.187	-0.3
210.407	-0.27
210.626	0.03
210.845	0.52
211.064	0.16
211.283	-0.5
211.502	0.32
211.721	-0.07
211.94	0.13
212.159	0.15
212.377	0.37
212.596	0.47
212.815	0.04
213.034	0.19
213.253	0.41
213.472	0.39
213.691	0.12
213.91	0.04
214.128	0.01
214.347	0.23
214.566	-0.07
214.785	-0.21
215.003	0.26
215.222	0.17
215.441	0.23
215.66	-0.23
215.878	-0.02
216.097	0.21
216.316	-0.28
216.534	-0.12
216.753	0.18
216.972	-0.09
217.19	-0.13
217.409	-0.08
217.627	-0.09
217.846	-0.12
218.064	0.02
218.283	-0.25
218.501	0.5
218.72	0.46
218.938	0.02
219.157	-0.2
219.375	0.22
219.594	0.16
219.812	-0.1
220.031	-0.13
220.249	0.37
220.467	0.31
220.686	0.01
220.904	-0.11
221.122	-0
221.341	0.46
221.559	0.07
221.777	-0.23
221.995	0.02
222.214	0.16
222.432	-0.04
222.65	0.24
222.868	0.13
223.086	0.08
223.305	0.14
223.523	0.02
223.741	0.38
223.959	-0.16
224.177	-0.22
224.395	-0.1
224.613	0.12
224.831	0.3
225.049	-0.11
225.267	-0.11
225.485	0.08
225.703	0.05
225.921	0.04
226.139	-0.01
226.357	0.23
226.575	0.19
226.793	-0.08
227.011	0.73
227.229	-0.01
227.447	0.27
227.665	-0.01
227.883	-0.1
228.1	0.02
228.318	0.2
228.536	-0.26
228.754	-0.08
228.972	0.13
229.189	0.09
229.407	0.03
229.625	-0.08
229.843	0.2
230.06	0.09
230.278	-0.06
230.496	0.07
230.713	0.14
230.931	0.16
231.149	-0.11
231.366	-0.15
231.584	0.05
231.801	0.29
232.019	0.07
232.236	-0.16
232.454	0.02
232.671	0.14
232.889	-0.02
233.106	-0.08
233.324	0.07
233.541	-0.09
233.759	0.1
233.976	-0.16
234.194	-0.01
234.411	0.02
234.628	-0.04
234.846	-0
235.063	0.07
235.28	0.08
235.498	0.06
235.715	-0.16
235.932	0.31
236.149	0.13
236.367	-0.11
236.584	0.1
236.801	0.02
237.018	0.16
237.236	0.1
237.453	-0.2
237.67	0.13
237.887	-0.06
238.104	-0.01
238.321	-0.11
238.538	-0.03
238.755	0.07
238.973	-0.11
239.19	0.01
239.407	0.05
239.624	0.01
239.841	-0.12
240.058	-0.06
240.275	0.13
240.492	0.02
240.709	0.02
240.925	0.01
241.142	0
241.359	-0.12
241.576	-0.06
241.793	-0.04
242.01	-0.01
242.227	0.18
242.444	0.01
242.66	0.18
242.877	0.09
243.094	-0.1
243.311	0.07
243.527	0.01
243.744	0.13
243.961	0.13
244.178	-0.13
244.394	0
244.611	0.21
244.828	0.19
245.044	-0.05
245.261	0.01
245.477	0.07
245.694	0.15
245.911	-0.05
246.127	0.08
246.344	0.22
246.56	0.12
246.777	-0.01
246.993	-0.02
247.21	0.14
247.426	0.06
247.643	0.03
247.859	-0.05
248.076	-0.05
248.292	0.29
248.508	-0.07
248.725	-0.03
248.941	0.09
249.157	0.15
249.374	-0.01
249.59	-0.02
249.806	0.1
250.023	0.18
250.239	-0.05
250.455	-0
250.671	-0.03
250.888	-0.02
251.104	0.04
251.32	-0.02
251.536	0.03
251.752	0.14
251.969	0.08
252.185	0.05
252.401	0.19
252.617	0.12
252.833	0.04
253.049	-0.02
253.265	0.02
253.481	0.06
253.697	0.02
253.913	0.03
254.129	0.09
254.345	0.04
254.561	0.02
254.777	-0.03
254.993	0.08
255.209	0.03
255.425	-0.02
255.641	-0.02
255.857	0.16
256.073	0.12
256.288	-0.04
256.504	0.04
256.72	0.06
256.936	0.18
257.152	0.08
257.367	-0.03
257.583	0.05
257.799	0.04
258.015	0.03
258.23	-0.01
258.446	0.2
258.662	0.01
258.877	0.03
259.093	0.04
259.309	0.06
259.524	0.05
259.74	-0.01
259.955	-0.02
260.171	0.05
260.387	0.09
260.602	0.09
260.818	0.05
261.033	-0.04
261.249	0.04
261.464	0.05
261.68	-0.08
261.895	0.1
262.11	0.08
262.326	-0.01
262.541	-0.09
262.757	0.13
262.972	0.12
263.187	0.02
263.403	0
263.618	0.11
263.833	0.04
264.049	-0.03
264.264	0.06
264.479	0.1
264.694	0.19
264.91	-0.02
265.125	-0.05
265.34	0.16
265.555	0.23
265.77	0.04
265.986	-0.01
266.201	0.06
266.416	0.07
266.631	0.03
266.846	0.01
267.061	0.04
267.276	0.05
267.491	-0.12
267.706	0.05
267.921	0.05
268.136	0.03
268.351	0.06
268.566	-0
268.781	0.16
268.996	0.14
269.211	-0.02
269.426	-0.06
269.641	-0.01
269.856	0.11
270.071	-0.09
270.285	-0.08
270.5	0.16
270.715	0.1
270.93	0.01
271.145	0.01
271.359	0.1
271.574	-0
271.789	-0.01
272.004	-0.05
272.218	0.01
272.433	0.11
272.648	0
272.862	0.1
273.077	0.04
273.292	0.03
273.506	0.01
273.721	0.03
273.936	0.11
274.15	0.11
274.365	0.04
274.579	0.09
274.794	0.06
275.008	0.11
275.223	-0.01
275.437	0.02
275.652	0.15
275.866	0.1
276.081	0.04
276.295	0.1
276.509	0.05
276.724	0.04
276.938	0
277.153	0.09
277.367	0.07
277.581	-0
277.796	0.02
278.01	-0.01
278.224	0.12
278.438	0.15
278.653	-0.02
278.867	0
279.081	0.08
279.295	-0.01
279.51	0.05
279.724	-0.02
279.938	0.07
280.152	0.05
280.366	-0.02
280.58	0.1
280.794	0.15
281.008	0.12
281.222	0.06
281.437	0.2
281.651	0.04
281.865	0.08
282.079	-0.02
282.293	-0.08
282.507	-0.01
282.721	0.02
282.935	0.05
283.148	-0.06
283.362	0.01
283.576	-0.03
283.79	0.05
284.004	-0
284.218	0.1
284.432	0.01
284.646	0.01
284.859	0.01
285.073	-0.01
285.287	0.07
285.501	0.02
285.714	-0.01
285.928	0.02
286.142	0.05
286.356	-0.04
286.569	0.03
286.783	0.15
286.997	0.09
287.21	0.06
287.424	0.06
287.637	-0.04
287.851	0
288.065	0.04
288.278	0
288.492	0.04
288.705	0.03
288.919	0.11
289.132	-0.05
289.346	0.12
289.559	-0.01
289.773	-0.02
289.986	0.03
290.2	0.05
290.413	0.08
290.626	-0.02
290.84	0.02
291.053	0.05
291.267	0.12
291.48	0.06
291.693	-0.03
291.906	-0
292.12	0.01
292.333	-0
292.546	0.05
292.76	0.13
292.973	0.07
293.186	0.07
293.399	-0.03
293.612	0.09
293.826	0.05
294.039	0.05
294.252	0.03
294.465	0.1
294.678	0.03
294.891	0.06
295.104	0.01
295.317	0.03
295.53	0.04
295.743	0.04
295.956	0.04
296.169	0.13
296.382	0.08
296.595	-0.01
296.808	0.02
297.021	0.09
297.234	0.08
297.447	0.05
297.66	0.1
297.873	0.11
298.086	0.11
298.299	0.05
298.511	0
298.724	-0
298.937	0
299.15	-0.01
299.363	0.09
299.575	0.1
299.788	0.11
300.001	0.03
300.213	-0.04
300.426	0.03
300.639	-0.01
300.852	0.01
301.064	0.05
301.277	0.14
301.489	0.13
301.702	0.07
301.915	0.08
302.127	0.07
302.34	0.04
302.552	0.06
302.765	0
302.977	0.08
303.19	0.01
303.402	0.02
303.615	0
303.827	0.06
304.04	0.03
304.252	0.04
304.464	0.04
304.677	0.16
304.889	0.12
305.102	0.01
305.314	0.05
305.526	0.09
305.739	0.07
305.951	-0
306.163	0.02
306.375	0.14
306.588	0.05
306.8	0.03
307.012	-0.02
307.224	0.07
307.436	0.11
307.649	-0
307.861	0.04
308.073	0.06
308.285	0.01
308.497	0.01
308.709	0.01
308.921	0.07
309.133	0.1
309.346	0.05
309.558	0.04
309.77	0.07
309.982	0.14
310.194	0.07
310.406	0.03
310.617	0.16
310.829	0.08
311.041	0.05
311.253	0
311.465	0.02
311.677	0.03
311.889	0.03
312.101	-0.01
312.313	0.1
312.524	0.14
312.736	0
312.948	-0
313.16	0.12
313.372	0.07
313.583	0
313.795	0.04
314.007	-0
314.218	0.1
314.43	0.06
314.642	0.03
314.853	-0.01
315.065	0.08
315.277	0.03
315.488	0.06
315.7	0.1
315.912	0.1
316.123	0.05
316.335	0.04
316.546	0.14
316.758	0.03
316.969	-0.01
317.181	0.02
317.392	0.06
317.604	0.08
317.815	-0.02
318.026	0.01
318.238	0.04
318.449	0.06
318.661	-0.03
318.872	0.01
319.083	0.01
319.295	0.04
319.506	0.04
319.717	0.06
319.929	0.09
320.14	0.04
320.351	0.02
320.562	0.01
320.774	0.06
320.985	0.05
321.196	0.01
321.407	-0.02
321.618	0.07
321.829	0.04
322.041	0.07
322.252	0.06
322.463	0.06
322.674	0.07
322.885	0.04
323.096	0.05
323.307	0.02
323.518	0.07
323.729	0.02
323.94	0.05
324.151	0.05
324.362	0.09
324.573	0.05
324.784	0.03
324.995	0.09
325.206	0.07
325.417	0.05
325.628	0.03
325.838	0.05
326.049	0.09
326.26	0.1
326.471	0.04
326.682	0.07
326.892	0.05
327.103	-0.01
327.314	0.04
327.525	0.12
327.735	0.07
327.946	0.07
328.157	0.01
328.368	0.07
328.578	0.04
328.789	0.06
328.999	0.09
329.21	0.05
329.421	0.11
329.631	0.01
329.842	0.02
330.052	0.08
330.263	0.1
330.473	0.04
330.684	0.02
330.894	0.02
331.105	0.05
331.315	0.06
331.526	-0.01
331.736	0.14
331.947	0.03
332.157	0.08
332.367	0.02
332.578	0.1
332.788	0.14
332.999	0.06
333.209	0.01
333.419	-0.02
333.629	0.06
333.84	0.06
334.05	0.04
334.26	0.04
334.47	0.07
334.681	0.09
334.891	-0.04
335.101	0.1
335.311	0.1
335.521	0.04
335.732	-0.03
335.942	0.14
336.152	0.07
336.362	0.06
336.572	0.06
336.782	0.12
336.992	0.05
337.202	0.01
337.412	0.03
337.622	0.07
337.832	0.04
338.042	0.05
338.252	0.03
338.462	0.06
338.672	0.09
338.882	0.03
339.092	0.07
339.302	0.12
339.511	0.09
339.721	0.04
339.931	-0.03
340.141	0.1
340.351	0.14
340.561	0.07
340.77	0.04
340.98	0.08
341.19	0.1
341.4	-0.01
341.609	0
341.819	0.03
342.029	-0.01
342.238	0.01
342.448	0.04
342.658	0.08
342.867	0.07
343.077	0.08
343.286	0.06
343.496	0.07
343.706	0.13
343.915	0.02
344.125	0.03
344.334	0.05
344.544	0.04
344.753	0.04
344.963	0.01
345.172	0.01
345.381	0.01
345.591	-0
345.8	0.03
346.01	0.14
346.219	0.11
346.428	0.04
346.638	0.04
346.847	0.07
347.056	0.1
347.266	-0.01
347.475	0.05
347.684	0.1
347.893	0.07
348.103	0.08
348.312	0
348.521	0.03
348.73	0.08
348.94	0.02
349.149	0.05
349.358	0.03
349.567	0.04
349.776	-0.02
349.985	0.02
350.194	0.1
350.403	0.07
350.612	-0.03
350.821	0.05
351.03	0.08
351.239	-0.03
351.448	0.07
351.657	0
351.866	0.12
352.075	0.04
352.284	0.1
352.493	-0.02
352.702	0.09
352.911	0.03
353.12	0.05
353.329	0.03
353.538	0.07
353.746	0.08
353.955	0.05
354.164	0.06
354.373	0.02
354.582	0.06
354.79	0.05
354.999	0.11
355.208	0.09
355.416	0.15
355.625	0
355.834	0.03
356.042	0.05
356.251	0.05
356.46	-0.01
356.668	0.08
356.877	0.14
357.085	0.08
357.294	-0.04
357.503	0.08
357.711	0.04
357.92	0.17
358.128	0.09
358.337	0.03
358.545	0.06
358.754	0.03
358.962	0.04
359.17	0.01
359.379	0.1
359.587	0.06
359.796	0.06
360.004	0.08
360.212	0.06
360.421	0.09
360.629	0.03
360.837	0.03
361.046	0.08
361.254	0.18
361.462	0.03
361.67	0.02
361.879	0.05
362.087	0.14
362.295	0.03
362.503	0.03
362.711	-0.06
362.92	-0.01
363.128	0.07
363.336	0.01
363.544	0.01
363.752	0.02
363.96	0.01
364.168	0
364.376	0.07
364.584	0.06
364.792	0.07
365	0.09
365.208	0.08
365.416	0.07
365.624	0.1
365.832	0.04
366.04	0.08
366.248	0.08
366.456	0.05
366.664	0.06
366.872	0.05
367.079	0.04
367.287	0.05
367.495	0.07
367.703	0.04
367.911	0.04
368.118	0.01
368.326	0.07
368.534	0.01
368.742	0.06
368.949	0.01
369.157	-0.01
369.365	0.09
369.572	-0
369.78	0.02
369.988	0.09
370.195	0.07
370.403	0.09
370.61	0.02
370.818	0.05
371.026	0.12
371.233	0.02
371.441	0.07
371.648	-0.01
371.856	0.05
372.063	0.08
372.271	0.04
372.478	0.06
372.685	0.03
372.893	0.09
373.1	0.05
373.308	0
373.515	0.1
373.722	0.07
373.93	0.05
374.137	0.08
374.344	0.12
374.552	0.12
374.759	0.11
374.966	0.02
375.173	0.07
375.381	0.08
375.588	0.06
375.795	0.02
376.002	0
376.209	0.05
376.417	0.07
376.624	0.06
376.831	0.07
377.038	0.04
377.245	-0.02
377.452	0.04
377.659	0.07
377.866	-0.03
378.073	0.07
378.28	0.04
378.487	0.08
378.694	0.09
378.901	0.04
379.108	0.07
379.315	0.07
379.522	0.15
379.729	0.07
379.936	0.01
380.143	0.07
380.35	0.06
380.557	0.06
380.763	0.02
380.97	0.08
381.177	0.09
381.384	0.11
381.591	0.06
381.797	0.05
382.004	0.1
382.211	0.06
382.418	0.09
382.624	0.06
382.831	0.11
383.038	0.04
383.244	0.09
383.451	0.04
383.658	0.09
383.864	0.07
384.071	0
384.277	0.16
384.484	0.07
384.69	0.08
384.897	0.01
385.103	-0.01
385.31	0.03
385.516	0.06
385.723	0.04
385.929	0.05
386.136	0.03
386.342	0.1
386.549	0.05
386.755	0.09
386.961	0.11
387.168	0.03
387.374	0.07
387.58	0.07
387.787	0.06
387.993	0.07
388.199	0.05
388.406	0.02
388.612	0.02
388.818	0
389.024	0
389.231	0.09
389.437	0.13
389.643	0.05
389.849	0.06
390.055	0.11
390.261	0.09
390.467	0.1
390.674	0.02
390.88	0.06
391.086	0.07
391.292	0.01
391.498	0.09
391.704	0.11
391.91	0.05
392.116	0.06
392.322	-0.02
392.528	0.1
392.734	0.04
392.94	0.02
393.146	0.07
393.352	0.06
393.557	0.1
393.763	0.03
393.969	0.09
394.175	0.04
394.381	0.08
394.587	0.03
394.792	0.03
394.998	0.1
395.204	0.1
395.41	0.02
395.615	0.08
395.821	0.08
396.027	0.07
396.233	0.02
396.438	0.07
396.644	0.15
396.85	0.11
397.055	0.03
397.261	0.1
397.466	0.04
397.672	0.09
397.878	0.11
398.083	0.14
398.289	0.06
398.494	0.1
398.7	0.09
398.905	0.02
399.111	0.13
399.316	0.06
399.522	0.08
399.727	0.07
399.932	0.1
400.138	0.09
400.343	0.15
400.549	0.09
400.754	0.08
400.959	0.08
401.165	0.08
401.37	0.09
401.575	0.18
401.78	0.07
401.986	0.09
402.191	0.06
402.396	0.09
402.601	0.14
402.807	0.09
403.012	0.08
403.217	0.12
403.422	0.12
403.627	0.07
403.832	0.08
404.037	0.14
404.243	0.11
404.448	0.09
404.653	0.07
404.858	0.1
405.063	0.11
405.268	0.12
405.473	0.08
405.678	0.08
405.883	0.25
406.088	0.14
406.293	0.03
406.498	0.08
406.703	0.13
406.907	0.09
407.112	0.09
407.317	0.1
407.522	0.2
407.727	0.04
407.932	0.16
408.136	0.19
408.341	0.15
408.546	0.14
408.751	0.09
408.956	0.1
409.16	0.13
409.365	0.18
409.57	0.07
409.774	0.12
409.979	0.23
410.184	0.12
410.388	0.08
410.593	0.22
410.798	0.17
411.002	0.15
411.207	0.18
411.411	0.18
411.616	0.19
411.82	0.15
412.025	0.22
412.229	0.2
412.434	0.25
412.638	0.23
412.843	0.17
413.047	0.25
413.252	0.18
413.456	0.25
413.66	0.28
413.865	0.2
414.069	0.3
414.273	0.23
414.478	0.2
414.682	0.23
414.886	0.22
415.091	0.26
415.295	0.21
415.499	0.34
415.703	0.31
415.908	0.36
416.112	0.27
416.316	0.39
416.52	0.31
416.724	0.35
416.929	0.38
417.133	0.51
417.337	0.37
417.541	0.47
417.745	0.46
417.949	0.5
418.153	0.47
418.357	0.47
418.561	0.64
418.765	0.55
418.969	0.71
419.173	0.67
419.377	0.65
419.581	0.74
419.785	0.69
419.989	0.64
420.193	0.76
420.397	0.72
420.601	0.87
420.804	0.9
421.008	0.87
421.212	0.91
421.416	0.98
421.62	0.9
421.823	0.96
422.027	1.1
422.231	1.06
422.435	1.01
422.638	1.11
422.842	1.13
423.046	1.09
423.249	1.27
423.453	1.22
423.657	1.31
423.86	1.36
424.064	1.37
424.268	1.54
424.471	1.48
424.675	1.65
424.878	1.66
425.082	1.65
425.285	1.82
425.489	1.73
425.692	1.85
425.896	1.87
426.099	1.95
426.303	1.98
426.506	2.04
426.71	2.26
426.913	2.31
427.116	2.37
427.32	2.34
427.523	2.45
427.726	2.66
427.93	2.55
428.133	2.76
428.336	2.83
428.54	2.88
428.743	3.08
428.946	3.15
429.149	3.19
429.353	3.21
429.556	3.27
429.759	3.32
429.962	3.35
430.165	3.47
430.368	3.35
430.571	3.31
430.775	3.39
430.978	3.41
431.181	3.46
431.384	3.45
431.587	3.59
431.79	3.78
431.993	3.76
432.196	3.86
432.399	4.1
432.602	4.19
432.805	4.1
433.008	4.48
433.211	4.36
433.414	4.6
433.616	4.69
433.819	4.63
434.022	4.72
434.225	4.92
434.428	4.94
434.631	5.23
434.833	4.97
435.036	5.21
435.239	5.37
435.442	5.43
435.645	5.42
435.847	5.48
436.05	5.75
436.253	5.97
436.455	6
436.658	5.93
436.861	6.3
437.063	6.26
437.266	6.28
437.468	6.59
437.671	6.81
437.874	6.82
438.076	6.76
438.279	7.07
438.481	7.23
438.684	7.76
438.886	7.6
439.089	7.78
439.291	7.89
439.494	8.2
439.696	8.34
439.899	8.71
440.101	9.07
440.303	9.25
440.506	9.79
440.708	9.9
440.91	10.06
441.113	10.29
441.315	10.74
441.517	10.67
441.72	11.09
441.922	11.01
442.124	11.21
442.326	11.42
442.529	11.82
442.731	11.94
442.933	12.18
443.135	12.23
443.337	12.29
443.539	12.96
443.742	12.74
443.944	13.39
444.146	13.45
444.348	13.51
444.55	13.62
444.752	13.96
444.954	14.09
445.156	14.15
445.358	14.62
445.56	14.94
445.762	14.96
445.964	15.38
446.166	15.27
446.368	15.48
446.57	15.57
446.772	15.41
446.974	15.21
447.175	15.7
447.377	15.55
447.579	16.03
447.781	15.66
447.983	15.72
448.184	15.44
448.386	15.9
448.588	15.58
448.79	15.66
448.991	15.96
449.193	16.14
449.395	15.54
449.597	15.17
449.798	15.07
450	14.66
450.202	14.66
450.403	14.69
450.605	14.56
450.806	14.2
451.008	14.21
451.21	13.98
451.411	13.45
451.613	12.78
451.814	12.99
452.016	13.01
452.217	12.35
452.419	12.34
452.62	11.98
452.821	11.66
453.023	11.52
453.224	11.19
453.426	10.8
453.627	9.97
453.828	10.09
454.03	10.12
454.231	10.14
454.432	9.88
454.634	9.59
454.835	9.31
455.036	9.04
455.238	8.81
455.439	8.57
455.64	8.21
455.841	8.07
456.042	8.19
456.244	7.84
456.445	7.58
456.646	7.19
456.847	7.37
457.048	7.2
457.249	7.15
457.45	6.87
457.651	6.49
457.852	6.33
458.054	6.03
458.255	5.94
458.456	6.11
458.657	5.88
458.858	5.54
459.058	5.49
459.259	5.51
459.46	5.25
459.661	5.11
459.862	5.27
460.063	5.07
460.264	5.05
460.465	4.82
460.666	4.82
460.866	4.57
461.067	4.36
461.268	4.44
461.469	4.38
461.67	4.21
461.87	4.18
462.071	4.09
462.272	4.03
462.473	3.96
462.673	4.09
462.874	3.95
463.075	3.98
463.275	3.89
463.476	3.94
463.676	3.9
463.877	3.7
464.078	3.68
464.278	3.77
464.479	3.62
464.679	3.44
464.88	3.54
465.08	3.38
465.281	3.23
465.481	3.16
465.682	2.89
465.882	3
466.083	2.83
466.283	2.8
466.483	2.66
466.684	2.51
466.884	2.4
467.085	2.42
467.285	2.51
467.485	2.33
467.686	2.27
467.886	2.17
468.086	2.15
468.286	2.1
468.487	2.14
468.687	1.97
468.887	1.96
469.087	1.98
469.287	1.86
469.488	1.72
469.688	1.8
469.888	1.75
470.088	1.71
470.288	1.68
470.488	1.65
470.688	1.51
470.888	1.48
471.088	1.39
471.288	1.46
471.488	1.37
471.688	1.4
471.888	1.34
472.088	1.43
472.288	1.27
472.488	1.2
472.688	1.17
472.888	1.2
473.088	1.14
473.288	1.11
473.488	1.04
473.688	1.17
473.887	1.04
474.087	1.02
474.287	1.03
474.487	0.96
474.687	0.98
474.886	0.94
475.086	0.91
475.286	0.9
475.486	0.89
475.685	0.86
475.885	0.82
476.085	0.81
476.284	0.81
476.484	0.82
476.684	0.81
476.883	0.87
477.083	0.75
477.282	0.7
477.482	0.79
477.681	0.75
477.881	0.69
478.08	0.63
478.28	0.59
478.479	0.68
478.679	0.71
478.878	0.64
479.078	0.57
479.277	0.59
479.477	0.6
479.676	0.62
479.875	0.57
480.075	0.47
480.274	0.56
480.473	0.58
480.673	0.48
480.872	0.55
481.071	0.5
481.271	0.51
481.47	0.46
481.669	0.49
481.868	0.45
482.067	0.4
482.267	0.42
482.466	0.39
482.665	0.4
482.864	0.35
483.063	0.36
483.262	0.4
483.461	0.46
483.661	0.42
483.86	0.39
484.059	0.37
484.258	0.36
484.457	0.33
484.656	0.33
484.855	0.35
485.054	0.23
485.253	0.29
485.452	0.26
485.651	0.29
485.849	0.29
486.048	0.28
486.247	0.25
486.446	0.28
486.645	0.24
486.844	0.23
487.043	0.24
487.241	0.24
487.44	0.21
487.639	0.23
487.838	0.23
488.037	0.22
488.235	0.27
488.434	0.21
488.633	0.19
488.831	0.22
489.03	0.22
489.229	0.2
489.427	0.16
489.626	0.22
489.825	0.24
490.023	0.19
490.222	0.17
490.42	0.21
490.619	0.19
490.817	0.17
491.016	0.16
491.214	0.2
491.413	0.16
491.611	0.17
491.81	0.16
492.008	0.17
492.207	0.19
492.405	0.15
492.604	0.12
492.802	0.12
493	0.14
493.199	0.1
493.397	0.13
493.595	0.14
493.794	0.1
493.992	0.15
494.19	0.13
494.388	0.14
494.587	0.1
494.785	0.11
494.983	0.09
495.181	0.12
495.379	0.13
495.578	0.1
495.776	0.1
495.974	0.12
496.172	0.09
496.37	0.08
496.568	0.09
496.766	0.08
496.964	0.12
497.162	0.1
497.36	0.06
497.558	0.11
497.756	0.12
497.954	0.11
498.152	0.07
498.35	0.09
498.548	0.06
498.746	0.09
498.944	0.03
499.142	0.09
499.34	0.05
499.538	0.08
499.736	0.06
499.933	0.11
500.131	0.11
500.329	0.09
500.527	0.11
500.725	0.08
500.922	0.1
501.12	0.07
501.318	0.09
501.516	0.04
501.713	0.08
501.911	0.05
502.109	0.02
502.306	0.07
502.504	0.07
502.701	0.05
502.899	0.07
503.097	0.12
503.294	0.08
503.492	0.05
503.689	0.08
503.887	0.08
504.084	0.12
504.282	0.05
504.479	0.02
504.677	0.07
504.874	0.04
505.072	0.06
505.269	0.04
505.466	0.09
505.664	0.07
505.861	-0
506.059	0.04
506.256	0.07
506.453	0.05
506.651	0.1
506.848	0.08
507.045	0.07
507.242	0.06
507.44	0.04
507.637	0.05
507.834	0.03
508.031	0.08
508.229	0.03
508.426	0.05
508.623	0.08
508.82	0.05
509.017	0.03
509.214	0.02
509.411	0.05
509.608	0.01
509.805	0.03
510.003	0.05
510.2	0.03
510.397	0.08
510.594	0.01
510.791	0.04
510.988	0.04
511.184	0.09
511.381	0.04
511.578	0.01
511.775	0.07
511.972	0.02
512.169	0.02
512.366	0.04
512.563	0.07
512.76	0.02
512.956	0.03
513.153	0.02
513.35	0.05
513.547	0.02
513.744	0.02
513.94	0.01
514.137	0.04
514.334	0.05
514.53	0.03
514.727	0.06
514.924	0.1
515.12	0.02
515.317	-0.01
515.514	-0.01
515.71	0.02
515.907	0.03
516.103	0.03
516.3	0.06
516.497	0.06
516.693	0.04
516.89	0.01
517.086	0.01
517.283	0.08
517.479	0.03
517.676	0.05
517.872	0.04
518.068	0.02
518.265	0.02
518.461	0.02
518.658	-0.01
518.854	0.04
519.05	0.04
519.247	0.01
519.443	0.03
519.639	0.04
519.836	0.04
520.032	0.02
520.228	0.02
520.424	0.08
520.621	0.04
520.817	0.01
521.013	0.05
521.209	0.05
521.405	0.07
521.601	0.02
521.798	0.02
521.994	0.06
522.19	0.01
522.386	0
522.582	0.04
522.778	0.04
522.974	0
523.17	0.03
523.366	0.03
523.562	0.07
523.758	0.03
523.954	0.02
524.15	0.02
524.346	0.04
524.542	-0.02
524.738	-0
524.934	0.02
525.129	0.01
525.325	0.02
525.521	0.04
525.717	0.06
525.913	0.04
526.109	0.02
526.304	0.02
526.5	0.03
526.696	0.07
526.892	0.02
527.087	0.02
527.283	0.02
527.479	0.04
527.674	0.01
527.87	0.03
528.066	0.03
528.261	0.04
528.457	0.05
528.653	0.03
528.848	0.02
529.044	0.03
529.239	0.02
529.435	0.06
529.63	0.03
529.826	0.06
530.021	0.03
530.217	0.05
530.412	0.02
530.608	0.01
530.803	0.02
530.999	0.02
531.194	-0.02
531.389	0.03
531.585	-0.03
531.78	0.02
531.975	0.03
532.171	0.07
532.366	0.01
532.561	0.04
532.757	0.01
532.952	0.01
533.147	0.04
533.342	0.02
533.538	0.01
533.733	0.05
533.928	0.03
534.123	0.01
534.318	-0.01
534.513	0.01
534.709	0.02
534.904	0.02
535.099	0.02
535.294	0.03
535.489	0.01
535.684	0
535.879	-0.01
536.074	0.02
536.269	0.01
536.464	0.02
536.659	0.02
536.854	0.04
537.049	0.02
537.244	0.02
537.439	0
537.634	0.05
537.828	0.02
538.023	0
538.218	-0.01
538.413	0.03
538.608	-0.01
538.803	0.04
538.997	-0.04
539.192	0.05
539.387	0.04
539.582	0.03
539.776	0.04
539.971	-0
540.166	0.03
540.36	-0
540.555	0.03
540.75	0.02
540.944	-0
541.139	-0
541.334	0.02
541.528	0.05
541.723	0.03
541.917	-0.01
542.112	-0.03
542.306	0
542.501	0.03
542.695	0.03
542.89	0
543.084	0.01
543.279	0.02
543.473	0.01
543.668	0.02
543.862	0.01
544.056	0.05
544.251	0.02
544.445	0.03
544.64	-0
544.834	-0.02
545.028	0.01
545.222	0.01
545.417	0.03
545.611	0.02
545.805	0.03
546	0.02
546.194	0.01
546.388	-0.01
546.582	0.03
546.776	0.02
546.97	0.02
547.165	0.02
547.359	0.03
547.553	0.01
547.747	0.03
547.941	0.05
548.135	0.01
548.329	0.05
548.523	0.06
548.717	0.02
548.911	0
549.105	0.01
549.299	0.02
549.493	0.04
549.687	-0
549.881	0.03
550.075	0.02
550.269	-0
550.463	0.03
550.657	-0.02
550.85	0.03
551.044	-0
551.238	0.02
551.432	0
551.626	-0.02
551.82	0.03
552.013	0.02
552.207	0.01
552.401	0.02
552.594	0.04
552.788	0.02
552.982	0.01
553.176	0
553.369	0.03
553.563	0.05
553.756	-0.01
553.95	-0.02
554.144	0.02
554.337	0.03
554.531	0.01
554.724	0.03
554.918	0.02
555.111	0.06
555.305	0.02
555.498	0.07
555.692	0.04
555.885	0
556.079	0.02
556.272	-0.01
556.466	0.06
556.659	0.02
556.852	0.04
557.046	0
557.239	0.05
557.432	-0.01
557.626	0.02
557.819	0.03
558.012	0.04
558.206	0.05
558.399	0
558.592	0.02
558.785	0
558.979	0.04
559.172	0.02
559.365	0.03
559.558	0.02
559.751	0.02
559.944	-0
560.138	0
560.331	-0.01
560.524	0.02
560.717	0.01
560.91	0.02
561.103	0.03
561.296	0.02
561.489	0.02
561.682	0.03
561.875	0.05
562.068	0.04
562.261	0.03
562.454	0.06
562.647	0.04
562.84	0.03
563.032	0.01
563.225	0.03
563.418	0.03
563.611	-0.01
563.804	-0
563.997	-0.02
564.19	-0.03
564.382	0.02
564.575	-0.01
564.768	0.01
564.961	0
565.153	-0.01
565.346	0.02
565.539	0.05
565.731	0.03
565.924	0.02
566.117	0.03
566.309	0.01
566.502	-0.01
566.695	0.02
566.887	0.03
567.08	-0.01
567.272	0.01
567.465	0.01
567.657	0.01
567.85	0.01
568.042	0.03
568.235	0.05
568.427	0.02
568.62	0.03
568.812	0.03
569.005	0.01
569.197	-0.01
569.389	-0
569.582	0.02
569.774	0.02
569.966	-0.03
570.159	-0
570.351	0.01
570.543	-0.01
570.736	0.01
570.928	-0
571.12	0.01
571.312	0.02
571.505	-0.03
571.697	0.06
571.889	-0.01
572.081	-0
572.273	-0
572.465	0.06
572.658	-0.01
572.85	0.01
573.042	-0.01
573.234	0.01
573.426	0.04
573.618	-0.01
573.81	0.01
574.002	0.03
574.194	0.08
574.386	-0.01
574.578	-0.05
574.77	-0.02
574.962	0.02
575.154	-0.02
575.346	-0
575.538	0.02
575.729	-0.03
575.921	0.01
576.113	0
576.305	0.03
576.497	0.01
576.689	-0
576.88	-0.02
577.072	0.02
577.264	-0
577.456	0.02
577.647	-0.06
577.839	-0.01
578.031	0.06
578.223	-0.03
578.414	-0.01
578.606	0.03
578.798	0.03
578.989	-0.01
579.181	0.01
579.372	0.01
579.564	0.02
579.755	-0
579.947	0.01
580.139	0.05
580.33	-0.02
580.522	-0
580.713	-0.04
580.905	0.02
581.096	0.03
581.287	0.01
581.479	0.01
581.67	0.04
581.862	0
582.053	-0.01
582.244	-0.04
582.436	0
582.627	0.02
582.818	-0.01
583.01	-0.02
583.201	0.01
583.392	0.04
583.583	0.02
583.775	0.02
583.966	-0.02
584.157	0
584.348	-0.01
584.54	-0.02
584.731	0.04
584.922	0.02
585.113	-0.03
585.304	0.02
585.495	0.06
585.686	0.02
585.877	0.01
586.068	0.03
586.259	0.03
586.45	0
586.641	0.01
586.832	-0.07
587.023	-0.01
587.214	-0
587.405	0.02
587.596	-0.02
587.787	0.05
587.978	0.01
588.169	-0.01
588.36	-0.02
588.551	0.03
588.742	-0
588.932	0.01
589.123	-0
589.314	0.03
589.505	0.04
589.696	0.03
589.886	-0.02
590.077	-0.02
590.268	0.01
590.458	-0.03
590.649	-0.04
590.84	0.04
591.03	-0.02
591.221	-0.06
591.412	-0.03
591.602	0.03
591.793	0.04
591.984	-0.03
592.174	0.02
592.365	0.1
592.555	-0.02
592.746	0.02
592.936	0.02
593.127	0.04
593.317	0.04
593.508	-0.02
593.698	0.01
593.889	0
594.079	0.01
594.269	-0
594.46	-0.02
594.65	-0.01
594.84	0.02
595.031	-0.01
595.221	-0.03
595.411	-0.02
595.602	0.02
595.792	0
595.982	-0.03
596.172	0.07
596.363	0
596.553	0.03
596.743	-0.01
596.933	0
597.123	0.04
597.314	-0.02
597.504	-0.02
597.694	0.01
597.884	0.03
598.074	0
598.264	-0.03
598.454	0.02
598.644	0.02
598.834	-0
599.024	-0.03
599.214	0.01
599.404	0.03
599.594	0.01
599.784	-0.02
599.974	0.06
600.164	0.04
600.354	-0.02
600.544	-0.05
600.734	0.02
600.924	0.05
601.114	-0.01
601.303	0.02
601.493	0.04
601.683	-0.01
601.873	0.03
602.063	-0.05
602.252	0.03
602.442	-0.04
602.632	-0.04
602.821	-0.03
603.011	0.03
603.201	0
603.39	-0.05
603.58	-0.02
603.77	0.03
603.959	0.04
604.149	0.01
604.339	-0.02
604.528	0.06
604.718	0.01
604.907	-0.01
605.097	-0.02
605.286	-0.02
605.476	0.05
605.665	0.05
605.855	0.01
606.044	0.05
606.234	0.02
606.423	0
606.612	-0.03
606.802	0.01
606.991	0.04
607.181	0.01
607.37	-0.03
607.559	-0.01
607.749	-0.02
607.938	0.01
608.127	-0.02
608.316	-0.01
608.506	0.01
608.695	-0.02
608.884	-0.02
609.073	-0.01
609.263	0.01
609.452	0.04
609.641	0.02
609.83	0.01
610.019	-0.02
610.208	-0.01
610.397	0.01
610.586	0.03
610.775	0
610.965	-0.01
611.154	-0
611.343	0
611.532	-0
611.721	-0.03
611.91	-0.02
612.099	0.01
612.287	-0.02
612.476	-0.02
612.665	0.03
612.854	-0.02
613.043	0.02
613.232	-0
613.421	-0.03
613.61	0.01
613.798	-0.02
613.987	0.05
614.176	0.03
614.365	0.05
614.554	0.04
614.742	0.03
614.931	0.01
615.12	0.06
615.309	0.02
615.497	-0.02
615.686	-0.03
615.875	-0.01
616.063	0.03
616.252	-0.01
616.44	-0.01
616.629	0.01
616.818	0.04
617.006	0.02
617.195	0.02
617.383	0.05
617.572	0.03
617.76	-0.04
617.949	-0.02
618.137	0.03
618.326	0.03
618.514	-0.03
618.703	-0.02
618.891	0.05
619.079	-0.05
619.268	0.05
619.456	-0.03
619.644	0.06
619.833	-0
620.021	-0.02
620.209	-0.05
620.398	0.03
620.586	0.01
620.774	0.03
620.962	-0.01
621.151	0.04
621.339	-0.01
621.527	-0.04
621.715	-0.04
621.903	-0.01
622.092	-0.03
622.28	0.02
622.468	0.04
622.656	-0
622.844	0.03
623.032	-0.02
623.22	-0.05
623.408	0.02
623.596	0.02
623.784	0.03
623.972	-0.05
624.16	-0
624.348	0.11
624.536	-0.03
624.724	-0.04
624.912	0.06
625.1	0.03
625.288	-0.02
625.476	-0.04
625.664	0.03
625.851	-0.05
626.039	-0
626.227	0.02
626.415	-0.02
626.603	-0.05
626.79	0.01
626.978	-0.02
627.166	0.03
627.354	0
627.541	-0.02
627.729	-0.06
627.917	0.03
628.104	0.04
628.292	0
628.48	0.02
628.667	0.01
628.855	0.01
629.042	0
629.23	-0.03
629.418	-0
629.605	-0.02
629.793	-0.04
629.98	-0.03
630.168	-0.02
630.355	0.01
630.543	0
630.73	-0.03
630.917	0.04
631.105	0.08
631.292	-0.04
631.48	0.01
631.667	0.09
631.854	-0.02
632.042	-0.04
632.229	-0.06
632.416	0.02
632.604	-0.03
632.791	-0.04
632.978	0.03
633.165	0.02
633.353	0.1
633.54	0.09
633.727	-0.04
633.914	-0.03
634.101	-0.06
634.289	0.07
634.476	-0.02
634.663	-0.05
634.85	-0
635.037	-0.04
635.224	-0.05
635.411	0.04
635.598	0.04
635.785	-0.02
635.972	-0.01
636.159	0.04
636.346	-0.07
636.533	-0.01
636.72	-0
636.907	0
637.094	0.02
637.281	-0.01
637.468	0.02
637.655	0
637.842	-0.04
638.029	-0.04
638.215	0.03
638.402	0.03
638.589	-0.02
638.776	0
638.963	-0.04
639.149	0.06
639.336	0.08
639.523	0.01
639.709	0
639.896	0.02
640.083	0.05
640.27	0.01
640.456	-0.02
640.643	0.03
640.829	-0.04
641.016	-0.01
641.203	-0.03
641.389	0.03
641.576	0.03
641.762	0.01
641.949	-0.05
642.135	0.02
642.322	0.03
642.508	-0.05
642.695	-0.01
642.881	0.01
643.068	-0.03
643.254	-0
643.441	0.04
643.627	-0.02
643.813	-0.01
644	0.03
644.186	-0.02
644.372	0.01
644.559	0.05
644.745	0.01
644.931	-0.02
645.118	-0
645.304	0.03
645.49	-0.04
645.676	0.02
645.862	0.01
646.049	0.06
646.235	0.02
646.421	0.06
646.607	0.07
646.793	-0.04
646.979	-0.03
647.165	0.01
647.352	0.01
647.538	0.03
647.724	-0
647.91	0.01
648.096	0.04
648.282	0.05
648.468	0.01
648.654	0.01
648.84	-0.01
649.026	0.01
649.212	0.02
649.397	-0.01
649.583	-0.04
649.769	0.04
649.955	0.03
650.141	0.03
650.327	0.09
650.513	-0.02
650.698	0.05
650.884	-0.09
651.07	0.02
651.256	-0.01
651.442	-0
651.627	-0.02
651.813	0.01
651.999	0
652.184	0.03
652.37	-0.02
652.556	-0.02
652.741	0.07
652.927	-0.05
653.113	0.01
653.298	0.01
653.484	0.03
653.669	-0.07
653.855	-0.02
654.04	0.04
654.226	0.01
654.412	-0.01
654.597	-0.03
654.782	0.03
654.968	0.07
655.153	-0.01
655.339	-0.02
655.524	-0.02
655.71	0.06
655.895	0
656.08	0.01
656.266	0.07
656.451	0.01
656.636	-0.01
656.822	-0.02
657.007	-0.01
657.192	-0.02
657.378	-0.06
657.563	-0.01
657.748	0.05
657.933	0.02
658.118	-0
658.304	-0.02
658.489	0.02
658.674	0.02
658.859	-0.04
659.044	0.03
659.229	-0.01
659.414	-0.03
659.599	0
659.785	-0.05
659.97	-0.03
660.155	0.05
660.34	0.01
660.525	0.01
660.71	-0.04
660.895	0.03
661.08	-0.01
661.264	-0.03
661.449	0.09
661.634	0.07
661.819	0.05
662.004	0.01
662.189	-0.07
662.374	-0
662.559	-0.07
662.743	-0.04
662.928	0.01
663.113	-0.01
663.298	-0.06
663.483	-0.02
663.667	0
663.852	-0.05
664.037	0.03
664.221	-0.01
664.406	0.04
664.591	0.04
664.775	0.04
664.96	-0.06
665.145	-0.01
665.329	0.03
665.514	-0.01
665.698	-0.01
665.883	-0.08
666.068	0.08
666.252	0
666.437	-0.06
666.621	0
666.806	0.04
666.99	-0.01
667.174	-0.03
667.359	0.05
667.543	-0.08
667.728	-0.02
667.912	-0.06
668.096	-0
668.281	0
668.465	0
668.649	-0
668.834	-0.06
669.018	-0.03
669.202	-0.04
669.387	-0.05
669.571	0.07
669.755	-0.03
669.939	0.01
670.124	-0.01
670.308	0.09
670.492	0.06
670.676	-0.01
670.86	0.01
671.044	-0.06
671.228	0.06
671.413	-0.01
671.597	-0
671.781	-0.01
671.965	0.06
672.149	-0.01
672.333	-0.04
672.517	-0.04
672.701	0.04
672.885	-0.04
673.069	-0.05
673.253	0.07
673.437	-0.01
673.621	-0.04
673.804	-0.02
673.988	0.01
674.172	0.01
674.356	-0.02
674.54	-0.03
674.724	0.11
674.908	0.01
675.091	0.02
675.275	-0
675.459	0.06
675.643	0.05
675.826	-0.02
676.01	0.02
676.194	0.02
676.377	0.04
676.561	0.04
676.745	0.02
676.928	0.03
677.112	0.04
677.296	-0.03
677.479	-0.01
677.663	-0.02
677.846	0.05
678.03	0.01
678.213	-0.02
678.397	0.03
678.58	-0
678.764	-0.03
678.947	-0.04
679.131	-0.02
679.314	0.03
679.498	-0
679.681	0.04
679.865	0.03
680.048	-0.01
680.231	-0.01
680.415	0.01
680.598	-0.03
680.781	-0.01
680.965	0.02
681.148	0.01
681.331	-0.02
681.514	0.06
681.698	-0.02
681.881	0.01
682.064	0
682.247	-0.02
682.43	-0.08
682.614	0.01
682.797	0.05
682.98	0.05
683.163	-0.03
683.346	0.03
683.529	-0.03
683.712	-0.04
683.895	0.02
684.078	-0.05
684.261	-0.01
684.444	0.02
684.627	0.04
684.81	-0.05
684.993	-0.02
685.176	0.04
685.359	-0.07
685.542	-0.02
685.725	0.05
685.908	-0.03
686.091	-0.03
686.274	0.01
686.457	0.08
686.639	0.02
686.822	0
687.005	-0.01
687.188	0.01
687.371	0.09
687.553	0.03
687.736	0.02
687.919	0.09
688.102	0.08
688.284	-0.04
688.467	0.02
688.65	0.01
688.832	0.01
689.015	0.02
689.197	-0.08
689.38	0.11
689.563	0.11
689.745	-0.04
689.928	-0.01
690.11	-0
690.293	0.03
690.475	-0.07
690.658	0
690.84	0.05
691.023	0.01
691.205	-0.01
691.388	0
691.57	0.06
691.752	0.01
691.935	-0.09
692.117	0.04
692.3	0.02
692.482	0.06
692.664	0
692.847	0.02
693.029	0.04
693.211	0.04
693.393	-0.01
693.576	0.02
693.758	-0.01
693.94	-0.05
694.122	0.01
694.304	-0.01
694.487	0.01
694.669	0.08
694.851	-0.05
695.033	-0
695.215	-0.03
695.397	-0.03
695.579	0.01
695.761	-0.04
695.943	-0.09
696.125	0.07
696.308	0.04
696.49	-0.13
696.671	0.13
696.853	-0
697.035	0.12
697.217	0.01
697.399	0.04
697.581	-0.04
697.763	-0.04
697.945	-0.05
698.127	0.01
698.309	0.09
698.491	-0.06
698.672	0.05
698.854	0.08
699.036	0.11
699.218	0
699.399	0.01
699.581	0.04
699.763	0.04
699.945	-0.01
700.126	-0.03
700.308	0.01
700.49	-0.02
700.671	-0.08
700.853	-0.04
701.035	-0.05
701.216	0.02
701.398	-0.1
701.579	-0.04
701.761	0.01
701.943	-0.03
702.124	-0.05
702.306	0.01
702.487	0.14
702.669	0.01
702.85	-0.11
703.031	-0.05
703.213	0.11
703.394	0.15
703.576	-0.01
703.757	0.06
703.938	0.05
704.12	0.11
704.301	-0.02
704.483	-0.04
704.664	0.06
704.845	0.06
705.026	0.04
705.208	0.03
705.389	-0.01
705.57	-0.01
705.751	0.02
705.933	-0.04
706.114	0.05
706.295	0.02
706.476	-0.06
706.657	0.09
706.838	0.09
707.02	0.08
707.201	-0.03
707.382	-0.04
707.563	0.08
707.744	-0.05
707.925	-0.02
708.106	-0.04
708.287	-0.01
708.468	0.11
708.649	0.03
708.83	0.03
709.011	-0
709.192	0.06
709.373	-0.06
709.554	0.01
709.734	0.09
709.915	0.04
710.096	-0.01
710.277	-0.11
710.458	-0.04
710.639	0.09
710.819	-0.06
711	-0.01
711.181	0.07
711.362	0.06
711.542	0.05
711.723	-0.04
711.904	0.07
712.085	0.06
712.265	0
712.446	-0.09
712.627	0.03
712.807	-0.07
712.988	-0.01
713.168	-0.07
713.349	0.06
713.53	-0.14
713.71	-0.11
713.891	-0.04
714.071	0.05
714.252	-0.05
714.432	-0.01
714.613	-0.1
714.793	0.01
714.974	0.01
715.154	0.03
715.334	0.02
715.515	0.08
715.695	-0.09
715.876	-0.02
716.056	-0.02
716.236	-0.03
716.417	0.02
716.597	-0.06
716.777	0.09
716.957	0.03
717.138	-0.02
717.318	0.01
717.498	-0.09
717.678	0.01
717.859	0.05
718.039	-0.09
718.219	0.05
718.399	0.05
718.579	-0.05
718.759	-0.08
718.939	0.01
719.12	-0.01
719.3	0.02
719.48	-0.17
719.66	-0.12
719.84	0.13
720.02	0.1
720.2	-0.1
720.38	0
720.56	0.11
720.74	-0.11
720.92	-0.02
721.1	0.09
721.279	0.03
721.459	-0.07
721.639	-0.08
721.819	0.06
721.999	0.01
722.179	0.12
722.359	-0.08
722.538	-0.02
722.718	0.05
722.898	-0
723.078	0.03
723.257	-0.07
723.437	0
723.617	0.04
723.797	-0.04
723.976	0.03
724.156	0.06
724.336	0.06
724.515	0.12
724.695	-0.1
724.874	0.06
725.054	0.08
725.234	-0.07
725.413	0.02
725.593	0
725.772	-0
725.952	-0.02
726.131	0.01
726.311	-0.08
726.49	-0.02
726.67	-0.12
726.849	-0.03
727.028	0.01
727.208	-0.05
727.387	0.09
727.567	-0.07
727.746	0.04
727.925	-0.01
728.105	-0.14
728.284	0.05
728.463	0.06
728.643	0.13
728.822	-0.06
729.001	-0.04
729.18	0.05
729.359	0.1
729.539	-0.04
729.718	-0.04
729.897	0.1
730.076	-0.04
730.255	-0.12
730.434	0.03
730.614	0.04
730.793	0.13
730.972	-0.12
731.151	0.03
731.33	0.01
731.509	0.06
731.688	0.01
731.867	-0.03
732.046	-0.11
732.225	0.22
732.404	-0.08
732.583	-0.05
732.762	-0.01
732.941	0.06
733.12	-0.01
733.298	-0.08
733.477	-0.05
733.656	0.01
733.835	-0.13
734.014	0.09
734.193	-0.09
734.371	0.04
734.55	0.03
734.729	-0.06
734.908	0.11
735.086	0.02
735.265	0.08
735.444	-0.19
735.623	-0.07
735.801	-0.12
735.98	-0.06
736.159	0.01
736.337	0.05
736.516	0.05
736.694	-0.01
736.873	-0.04
737.052	0.16
737.23	0.18
737.409	-0.01
737.587	0.11
737.766	-0.14
737.944	-0.07
738.123	-0.05
738.301	0.13
738.479	-0.02
738.658	0.04
738.836	-0.05
739.015	0.01
739.193	0.11
739.371	-0.16
739.55	-0.03
739.728	-0.13
739.906	0.08
740.085	0.23
740.263	0.09
740.441	-0.22
740.62	0.14
740.798	0.11
740.976	-0.11
741.154	-0.13
741.332	0.19
741.511	0.03
741.689	0.13
741.867	0.01
742.045	0.06
742.223	-0.01
742.401	0.04
742.579	-0.04
742.757	0.1
742.935	-0.09
743.114	-0.02
743.292	-0.03
743.47	0.07
743.648	0.09
743.826	-0.11
744.004	0.04
744.181	0.09
744.359	-0.07
744.537	-0.04
744.715	0.01
744.893	0.04
745.071	-0
745.249	-0.13
745.427	0
745.605	0.1
745.782	0.13
745.96	0.07
746.138	0.13
746.316	0.06
746.493	0.01
746.671	0.04
746.849	0.02
747.027	0.11
747.204	-0.02
747.382	-0.05
747.56	-0.19
747.737	0.07
747.915	-0.04
748.093	0.04
748.27	-0.04
748.448	0
748.625	-0.12
748.803	-0.04
748.98	-0.03
749.158	0.02
749.335	0.08
749.513	-0.06
749.69	-0.09
749.868	-0.02
750.045	0.02
750.223	-0.03
750.4	-0.19
750.578	0.2
750.755	-0.02
750.932	-0.22
751.11	0.05
751.287	-0.06
751.464	0.13
751.642	-0.09
751.819	0.09
751.996	0.01
752.173	-0.01
752.351	-0.06
752.528	0.09
752.705	-0.04
752.882	-0.09
753.06	0.04
753.237	0.13
753.414	0.23
753.591	0.31
753.768	-0.05
753.945	-0.11
754.122	-0.09
754.299	0.03
754.476	-0.13
754.654	-0.06
754.831	0.15
755.008	0.09
755.185	-0.06
755.362	-0.01
755.539	0.01
755.716	-0.03
755.892	-0.06
756.069	-0.04
756.246	-0.03
756.423	0.04
756.6	0.11
756.777	0.03
756.954	0.12
757.131	-0.02
757.307	-0.12
757.484	-0.17
757.661	0.01
757.838	0.04
758.015	-0.13
758.191	0.11
758.368	0.01
758.545	0.24
758.721	0.16
758.898	-0.14
759.075	0.03
759.251	0.1
759.428	0.1
759.605	-0.17
759.781	-0.03
759.958	0.07
760.134	0
760.311	0.05
760.488	0.15
760.664	0.15
760.841	0.02
761.017	-0.1
761.194	0.02
761.37	0.06
761.547	0.02
761.723	0.05
761.899	0.22
762.076	-0.11
762.252	-0.06
762.429	-0.09
762.605	0.02
762.781	-0.04
762.958	0.15
763.134	0.01
763.31	-0.07
763.486	0.19
763.663	-0.14
763.839	0.02
764.015	-0.17
764.191	-0.19
764.368	-0.1
764.544	-0.02
764.72	0.09
764.896	0.07
765.072	0
765.248	-0.07
765.425	-0.03
765.601	-0.02
765.777	-0.07
765.953	-0.13
766.129	-0.09
766.305	-0.16
766.481	0.04
766.657	0.07
766.833	0.14
767.009	-0.15
767.185	-0.06
767.361	-0.05
767.537	-0.24
767.713	0.15
767.889	-0.2
768.065	0.03
768.24	0.1
768.416	0.22
768.592	0.03
768.768	-0.08
768.944	-0
769.12	-0.12
769.295	-0.07
769.471	-0.07
769.647	-0.03
769.823	0.22
769.998	-0.15
770.174	-0.09
770.35	0.29
770.525	0.28
770.701	-0.09
770.877	0.05
771.052	-0.08
771.228	0.13
771.403	0.05
771.579	0.15
771.755	0.38
771.93	0.03
772.106	-0.09
772.281	-0.1
772.457	-0.09
772.632	0.03
772.808	-0.18
772.983	-0.17
773.159	-0.2
773.334	0.15
773.509	0.06
773.685	-0.24
773.86	0.24
774.036	0.14
774.211	-0.01
774.386	-0.1
774.562	0.02
774.737	0.18
774.912	-0.19
775.087	-0.02
775.263	-0.07
775.438	0.03
775.613	-0.08
775.788	-0.09
775.964	0.2
776.139	0.47
776.314	-0.28
776.489	0.17
776.664	0.16
776.839	-0.28
777.014	0.15
777.19	0.05
777.365	0.1
777.54	0.14
777.715	-0.16
777.89	0
778.065	-0.09
778.24	-0.17
778.415	0.2
778.59	-0.23
778.765	-0.05
778.94	0.23
779.115	-0.18
779.289	0.03
779.464	0.08
779.639	-0.13
779.814	-0.34
779.989	-0.06
780.164	0.25
780.339	-0.04
780.513	-0.2
780.688	-0.21
780.863	-0.02
781.038	0.22
781.212	-0.14
781.387	-0.03
781.562	0.32
781.737	0.1
781.911	0.28
782.086	-0.16
782.261	-0.06
782.435	0.17
782.61	-0.14
782.784	0.15
782.959	0.06
783.134	-0.1
783.308	-0.28
783.483	-0.08
783.657	0.48
783.832	0.14
784.006	-0.33
784.181	0.15
784.355	0.08
784.53	-0.33
784.704	-0.18
784.878	0.18
785.053	0.12
785.227	0.14
785.402	0.46
785.576	-0.32
785.75	0
785.925	-0.12
786.099	0.15
786.273	-0.08
786.448	0.24
786.622	0.2
786.796	-0.01
786.97	-0.05
787.145	0.5
787.319	-0.32
787.493	-0.17
787.667	-0.38
787.841	-0.03
788.015	0.15
788.19	-0.08
788.364	0.1
788.538	0.22
788.712	0.05
788.886	0.07
789.06	0.22
789.234	0.16
789.408	-0.22
789.582	-0.2
789.756	-0.18
789.93	-0.25
790.104	0.06
790.278	-0.01
790.452	-0.11
790.626	0.12
790.8	-0.19
790.973	0.12
791.147	0.25
791.321	0.11
791.495	0.49
791.669	0.13
791.843	-0.02
792.016	-0.13
792.19	0.43
792.364	-0.21
792.538	0.63
792.711	0.14
792.885	-0.12
793.059	-0.34
793.233	-0.44
793.406	0.09
793.58	0.13
793.754	0.12
793.927	-0.2
794.101	0.4
794.274	-0.01
794.448	0.17
794.622	-0.42
794.795	0.27
794.969	-0.13
795.142	0.3
795.316	-0.04
795.489	-0.21
795.663	0.17
795.836	-0.08
796.009	-0.37
796.183	0.3
796.356	-0.04
796.53	-0.12
796.703	0.05
796.876	0.52
797.05	-0.33
797.223	-0.12
797.396	0.05
797.57	0.06
797.743	0.44
797.916	0.06
798.09	-0.1
798.263	0.24
798.436	0.23
798.609	-0.21
798.782	-0.16
798.956	0.02
799.129	-0.1
799.302	-0.14
799.475	-0.3
799.648	-0.3
799.821	-0.32
799.994	0.12
800.167	-0.32
800.34	-0.08
800.514	0.15
800.687	-0.07
800.86	-0.47
801.033	0.09
801.206	0.1
801.379	-0.2
801.551	0.26
801.724	0.07
801.897	0.44
802.07	-0.33
802.243	-0.57
802.416	-0.27
802.589	-0.12
802.762	0.07
802.935	-0.1
803.107	0.29
803.28	0.2
803.453	0.14
803.626	0.23
803.798	0.29
803.971	-0.07
804.144	-0.08
804.317	-0.09
804.489	0.26
804.662	-0.11
804.835	-0.23
805.007	-0.24
805.18	0.31
805.353	0.15
805.525	-0.36
805.698	0.1
805.87	0.32
806.043	0.26
806.215	-0.3
806.388	-0.08
806.56	-0.03
806.733	0.33
806.905	0.17
807.078	-0.29
807.25	-0.1
807.423	0.17
807.595	-0.08
807.768	-0.03
807.94	0.46
808.112	0.24
808.285	0.06
808.457	-0.29
808.629	-0
808.802	0.06
808.974	0.15
809.146	-0.3
809.318	-0.05
809.491	-0.01
809.663	0.31
809.835	0.14
810.007	0.01
810.18	-0.39
810.352	-0.35
810.524	-0.23
810.696	0.33
810.868	0.62
811.04	0.04
811.212	-0.24
811.384	0.56
811.556	-0.24
811.728	-0.19
811.901	0.51
812.073	-0.06
812.245	-0.02
812.417	0.08
812.589	-0.58
812.76	0.18
812.932	0.23
813.104	0.54
813.276	-0.36
813.448	0.31
813.62	0.17
813.792	0.31
813.964	-0.38
814.136	0.17
814.307	-0.38
814.479	-0.21
814.651	-0.16
814.823	0.37
814.995	0.19
815.166	0.16
815.338	-0.31
815.51	-0.53
815.681	1.29
815.853	0.27
816.025	0.09
816.196	0.6
816.368	0.3
816.54	-0.36
816.711	-0.64
816.883	0.33
817.054	0.84
817.226	-0.4
817.398	0.1
817.569	-0.51
817.741	0.05
817.912	0.05
818.084	-0.11
818.255	0.11
818.426	0.02
818.598	-0.27
818.769	-0.2
818.941	0.24
819.112	0.39
819.283	-0.13
819.455	-0.37
819.626	0.03
819.798	0.07
819.969	0.24
820.14	-0.22
820.311	0.09
820.483	0.29
820.654	-0.19
820.825	-0.08
820.996	-0.69
821.168	-0.24
821.339	-0.29
821.51	-0.26
821.681	-0.48
821.852	-0.18
822.023	-0.34
822.195	-1.05
822.366	0.34
822.537	-0.07
822.708	-0.16
822.879	-0.22
823.05	0.53
823.221	0.01
823.392	0.17
823.563	0.24
823.734	0.24
823.905	-0.12
824.076	0.19
824.247	-0.76
824.418	-0.32
824.589	0.71
824.759	-0.23
824.93	-0.07
825.101	-0.18
825.272	0.37
825.443	0.88
825.614	0.33
825.784	-0.42
825.955	0.95
826.126	0.76
826.297	-0.33
826.467	1.31
826.638	0.75
826.809	-0.76
826.98	-0.2
827.15	0.08
827.321	-0.11
827.492	0.58
827.662	0.35
827.833	0.84
828.003	0.41
828.174	-0.57
828.345	-1.02
828.515	0.75
828.686	-0.18
828.856	-0.24
829.027	-0.33
829.197	0.28
829.368	0.12
829.538	-0.06
829.709	-0.02
829.879	0.72
830.049	-0.11
830.22	-0.91
830.39	-0.33
830.56	0.75
830.731	-0.03
830.901	-0.31
831.072	-0.16
831.242	-0.41
831.412	0.39
831.582	0.25
831.753	-1.48
831.923	0.5
832.093	0.07
832.263	0.34
832.434	-0.65
832.604	-0.75
832.774	0.37
832.944	-0.11
833.114	-0.01
833.284	0.21
833.454	-0.39
833.624	0.14
833.795	0.18
833.965	0.82
834.135	0.55
834.305	-1.43
834.475	-0.99
834.645	-0.71
834.815	-0.34
834.985	-0.74
835.155	-0.63
835.325	0.41
835.494	0.56
835.664	-0.17
835.834	-1.1
836.004	0
836.174	-0.12
836.344	0.57
836.514	-1.02
836.684	-0.66
836.853	0.43
837.023	0.16
837.193	-0.55
837.363	0.62
837.532	0.48
837.702	-0.31
837.872	-1.11
838.041	0.37
838.211	0.89
838.381	-0.61
838.55	0.41
838.72	1.47
838.89	1.19
839.059	-0.32
839.229	-0.21
839.398	1.3
839.568	0.12
839.738	-0.23
839.907	0.39
840.077	0.55
840.246	-0.18
840.416	-0.31
840.585	-0.06
840.755	0.75
840.924	0.72
841.093	-0.81
841.263	-0.51
841.432	0.12
841.602	-0.77
841.771	-0.49
841.94	0.25
842.11	1.41
842.279	0.91
842.448	-0.55
842.617	-0.81
842.787	1.59
842.956	-1.2
843.125	-0.12
843.294	-0.1
843.464	1.13
843.633	0.35
843.802	-0.71
843.971	-0.17
844.14	0.12
844.309	0.8
844.479	-0.85
844.648	-1.07
844.817	-1.47
844.986	0.2
845.155	-0.44
845.324	-0.27
845.493	0.09
845.662	-0.34
845.831	0.18
846	0.79
846.169	0.05
846.338	0.71
846.507	-0.3
846.676	0.38
846.844	-0.51
847.013	0.81
847.182	0.23
847.351	0.05
847.52	0.5
847.689	0.47
847.858	-0.42
848.026	-0.58
848.195	-0.09
848.364	-0.04
848.533	-0.64
848.701	-0.68
848.87	0.73
849.039	0.63
849.207	0.89
849.376	1.32
849.545	0.91
849.713	0.02
849.882	-1.06
850.051	-0.03
850.219	-0.7
850.388	-0.06
850.556	-0.96
850.725	-1.18
850.893	0.55
851.062	0.04
851.23	1.2
851.399	-0.68
851.567	-0.83
851.736	-0.03
851.904	0.23
852.073	-1
852.241	1.37
852.41	0.18
852.578	-0.5
852.746	-1.17
852.915	1.53
853.083	0.66
853.251	-1.67
853.42	-0.01
853.588	-0.27
853.756	1.47
853.924	-1.23
854.093	-0.21
854.261	-0.08
854.429	-1.31
854.597	0.8
854.765	-1.57
854.934	0.11
855.102	0.83
855.27	-0.18
855.438	0.23
855.606	-0.18
855.774	2.07
855.942	-2
856.11	-1.84
856.278	0.46
856.446	1.65
856.614	0.17
856.782	-0.93
856.95	0.53
857.118	0.97
857.286	-0.29
857.454	-1.01
857.622	0.41
857.79	0.33
857.958	-0.89
858.126	-1.3
858.294	-2.57
858.462	-0.57
858.629	-0.88
858.797	-0.28
858.965	0.07
859.133	0.69
859.301	-0.68
859.468	-0.39
859.636	-0.92
859.804	2.46
859.971	1.01
860.139	-0.86
860.307	0.61
860.474	-0.71
860.642	-0.32
860.81	-0.66
860.977	0.32
861.145	0.85
861.313	-0.28
861.48	-0.3
861.648	1.45
861.815	-0.09
861.983	-1
862.15	-1.27
862.318	0.84
862.485	1.84
862.653	-0.85
862.82	-0.08
862.988	2.25
863.155	2.25
863.322	-1.25
863.49	-0.59
863.657	-1.29
863.824	1.55
863.992	0.17
864.159	-0.03
864.326	2.88
864.494	-0.92
864.661	2.72
864.828	-0.71
864.996	2.38
865.163	1.82
865.33	-2.34
865.497	-2.64
865.664	-0.08
865.832	-3.4
865.999	-0.13
866.166	0
866.333	-0.03
866.5	-0.78
866.667	-0.87
866.834	-0.54
867.001	1.64
867.168	-3.12
867.335	-0.41
867.502	-1.76
867.669	1.74
867.836	2.25
868.003	-0.77
868.17	0.92
868.337	1.95
868.504	1.6
868.671	-0.7
868.838	-2.4
869.005	0.36
869.172	-0.81
869.339	0.31
869.505	-1.15
869.672	-0.27
869.839	1.94
870.006	2.02
870.173	-2.49
870.339	1.78
870.506	3.11
870.673	-0.93
870.84	0.96
871.006	-0.01
871.173	-0.22
871.34	0.58
871.506	-0.88
871.673	-0.49
871.839	-2.09
872.006	-0.8
872.173	-2.02
872.339	0.41
872.506	1.43
872.672	-0.63
872.839	-1.68
873.005	0.57
873.172	3.52
873.338	1.27
873.505	-0.03
873.671	0.37
873.838	0.92
874.004	-1.72
874.171	-2.42
874.337	0.93
874.503	3.15
874.67	-0.08
874.836	1.17
875.002	0.49
875.169	2.03
875.335	0.86
875.501	0.86
875.668	1.78
875.834	1.28
876	-0.57
876.166	-0.28
876.332	0.79
876.499	3.05
876.665	-0.96
876.831	-0.18
876.997	3.33
877.163	1.27
877.329	0.59
877.495	0.61
877.662	0.48
877.828	2.07
877.994	1.38
878.16	-2.86
878.326	-0.96
878.492	0.17
878.658	0.48
878.824	0.61
878.99	1.41
879.156	-1.08
879.322	3.16
879.487	-1.94
879.653	1.87
879.819	0.3
879.985	-2.1
880.151	1.01
880.317	2.02
880.483	2.11
880.648	1.53
880.814	-2.63
880.98	1.75
881.146	-3.45
881.312	-1.12
881.477	0.38
881.643	0.66
881.809	-0.94
881.974	2.33
882.14	-2.98
882.306	-3.01
882.471	3.84
882.637	-2.37
882.803	1.44
882.968	2.15
883.134	4.62
883.299	-0.99
883.465	-0.6
883.63	2.09
883.796	1.4
883.961	1.64
884.127	0.91
884.292	-4.88
884.458	-1.07
884.623	-1.07
