Data from Apollo_Calib_20240827__AbsoluteIrradiance__314__04-23-01-648.txt Node

Date: Wed Aug 28 04:23:01 BST 2024
User: biology
Spectrometer: FLMT08252
Trigger mode: 0
Integration Time (sec): 5.000000E-1
Scans to average: 5
Electric dark correction enabled: true
Nonlinearity correction enabled: false
Boxcar width: 0
XAxis mode: Wavelengths
Number of Pixels in Spectrum: 3648
>>>>>Begin Spectral Data<<<<<
179.588	-0
179.809	-0
180.03	-0
180.251	-0
180.473	-0
180.694	0
180.915	0
181.136	-0
181.357	0
181.578	-0
181.799	-0
182.02	-0
182.241	-0
182.462	0
182.683	0
182.904	-0
183.125	-0
183.346	0
183.567	0
183.788	-0
184.009	-0
184.23	-0
184.451	0
184.672	-0
184.892	-0
185.113	0
185.334	0
185.555	-0
185.776	-0
185.996	0
186.217	0
186.438	-0
186.659	-0
186.879	0
187.1	-0
187.321	-0
187.541	-0
187.762	0
187.983	-0
188.203	-0
188.424	0
188.644	-0
188.865	-0
189.086	-0
189.306	-0
189.527	0
189.747	0
189.968	-0
190.188	0
190.409	-0
190.629	0
190.849	-0
191.07	-0
191.29	0
191.511	0
191.731	-0
191.951	-0
192.172	0
192.392	-0
192.612	-0
192.833	-0
193.053	0
193.273	0
193.493	-0
193.714	-0
193.934	0
194.154	0
194.374	0
194.594	-0
194.815	-0
195.035	-0
195.255	-0
195.475	-0
195.695	0
195.915	0
196.135	-0
196.355	0
196.575	0
196.795	0
197.015	-0
197.235	-0
197.455	-0
197.675	-0
197.895	-0
198.115	-0
198.335	0
198.555	-0
198.775	0
198.995	-0
199.214	0
199.434	-0
199.654	-0
199.874	-0
200.094	0.83
200.313	-0.38
200.533	-0.51
200.753	-0.93
200.973	0.81
201.192	0.38
201.412	-0.99
201.632	-0.73
201.851	0.91
202.071	-0.76
202.291	-0.65
202.51	-0.59
202.73	-0.06
202.95	-0.34
203.169	-0.49
203.389	-0.64
203.608	-0.19
203.828	-0.39
204.047	-0.38
204.267	0.07
204.486	-0.18
204.706	0.24
204.925	0.1
205.145	-0.22
205.364	0.44
205.583	0.66
205.803	-0.3
206.022	-0.98
206.242	-0.15
206.461	0.12
206.68	-0.26
206.9	-0
207.119	0.35
207.338	0.74
207.557	-0.58
207.777	-0.82
207.996	-0.33
208.215	0.54
208.434	-0.41
208.654	-0.48
208.873	-0.21
209.092	0.51
209.311	-0.46
209.53	-0.26
209.749	-0.31
209.968	-0.34
210.187	-0.3
210.407	-0.46
210.626	-0.38
210.845	0.15
211.064	-0.14
211.283	-0.31
211.502	0.18
211.721	0.04
211.94	-0.27
212.159	0.19
212.377	0.24
212.596	0.26
212.815	-0.11
213.034	-0.06
213.253	0.15
213.472	0.19
213.691	-0.2
213.91	-0.41
214.128	-0.12
214.347	0.26
214.566	-0.65
214.785	-0.55
215.003	0.23
215.222	-0.11
215.441	-0.11
215.66	-0.53
215.878	-0.06
216.097	0.02
216.316	-0.21
216.534	-0.19
216.753	0.03
216.972	-0.2
217.19	-0.21
217.409	-0.47
217.627	-0.16
217.846	-0.28
218.064	0.04
218.283	-0.35
218.501	0.43
218.72	0.04
218.938	-0.26
219.157	-0.3
219.375	0.18
219.594	-0
219.812	-0.41
220.031	-0.19
220.249	0.22
220.467	0.24
220.686	-0.28
220.904	-0.24
221.122	-0.23
221.341	0.38
221.559	-0.04
221.777	-0.27
221.995	-0.03
222.214	0.17
222.432	-0.2
222.65	0.02
222.868	-0.04
223.086	-0
223.305	-0.02
223.523	-0.05
223.741	0.31
223.959	-0.24
224.177	-0.31
224.395	-0.19
224.613	-0.15
224.831	0.06
225.049	-0.21
225.267	-0.1
225.485	-0.07
225.703	-0.27
225.921	-0.03
226.139	-0.1
226.357	-0.04
226.575	0.03
226.793	-0.21
227.011	0.54
227.229	0.1
227.447	0.08
227.665	-0.12
227.883	-0.31
228.1	-0.02
228.318	0.01
228.536	-0.27
228.754	-0.2
228.972	0
229.189	0.01
229.407	-0.13
229.625	-0.06
229.843	0.1
230.06	0.21
230.278	-0.21
230.496	-0.07
230.713	-0.11
230.931	0.11
231.149	-0.19
231.366	-0.23
231.584	-0
231.801	0.4
232.019	-0.09
232.236	-0.16
232.454	-0.16
232.671	-0.03
232.889	-0.18
233.106	-0.21
233.324	-0.08
233.541	-0.12
233.759	-0.09
233.976	-0.18
234.194	-0.09
234.411	-0.09
234.628	-0.19
234.846	-0.17
235.063	-0.03
235.28	0.01
235.498	-0.08
235.715	-0.2
235.932	0.09
236.149	-0.02
236.367	-0.16
236.584	-0.07
236.801	-0.09
237.018	0.01
237.236	-0.07
237.453	-0.2
237.67	-0.01
237.887	-0.15
238.104	-0.07
238.321	-0.16
238.538	-0.1
238.755	0.12
238.973	-0.19
239.19	-0.08
239.407	-0.04
239.624	-0.05
239.841	-0.12
240.058	-0.28
240.275	0.07
240.492	0.02
240.709	0.02
240.925	-0.06
241.142	-0
241.359	-0.11
241.576	-0.16
241.793	-0.1
242.01	-0.04
242.227	0.17
242.444	0.02
242.66	0.09
242.877	0.03
243.094	-0.03
243.311	-0.06
243.527	-0.07
243.744	-0.06
243.961	-0.01
244.178	-0.17
244.394	-0.13
244.611	0.06
244.828	0.1
245.044	-0.16
245.261	0.02
245.477	0.09
245.694	0.11
245.911	-0.11
246.127	-0.05
246.344	0.19
246.56	-0.04
246.777	-0.14
246.993	-0.06
247.21	0.03
247.426	-0.07
247.643	-0.04
247.859	-0.16
248.076	-0.11
248.292	0.23
248.508	-0.14
248.725	0.02
248.941	-0.03
249.157	0.12
249.374	-0.15
249.59	-0.03
249.806	0.06
250.023	0.12
250.239	-0.14
250.455	-0.13
250.671	-0.08
250.888	0.09
251.104	0.01
251.32	-0.13
251.536	-0.01
251.752	-0.08
251.969	0.03
252.185	-0.05
252.401	0.14
252.617	-0.03
252.833	-0.08
253.049	-0.08
253.265	-0.07
253.481	-0.01
253.697	-0.09
253.913	-0.14
254.129	0.01
254.345	0.04
254.561	-0.11
254.777	-0.05
254.993	0.06
255.209	0
255.425	-0.02
255.641	-0.03
255.857	0.01
256.073	0.03
256.288	-0.11
256.504	-0.04
256.72	-0.01
256.936	0.09
257.152	-0.09
257.367	-0.08
257.583	0.03
257.799	0.06
258.015	-0.07
258.23	0.02
258.446	0.14
258.662	0
258.877	-0.1
259.093	-0.11
259.309	-0.01
259.524	-0.02
259.74	-0.07
259.955	-0.11
260.171	-0.07
260.387	-0.01
260.602	0.08
260.818	0.01
261.033	-0.05
261.249	-0.01
261.464	-0.1
261.68	-0.12
261.895	0.05
262.11	0.11
262.326	0.01
262.541	-0.11
262.757	0
262.972	-0
263.187	0.01
263.403	-0.02
263.618	0.06
263.833	-0.06
264.049	-0.05
264.264	-0.03
264.479	0.05
264.694	0.1
264.91	-0.13
265.125	-0.03
265.34	0.04
265.555	0.14
265.77	-0.05
265.986	-0.04
266.201	0.01
266.416	0.1
266.631	-0.05
266.846	-0.05
267.061	0.09
267.276	0.05
267.491	-0.19
267.706	0.01
267.921	0
268.136	0
268.351	0.01
268.566	-0.07
268.781	0.14
268.996	0.04
269.211	-0.02
269.426	-0.1
269.641	-0.06
269.856	0.06
270.071	-0.04
270.285	-0.1
270.5	-0
270.715	0.06
270.93	-0.06
271.145	0.03
271.359	0.03
271.574	-0.07
271.789	-0.02
272.004	-0.04
272.218	-0.06
272.433	-0
272.648	-0.05
272.862	-0
273.077	0.06
273.292	-0.02
273.506	-0.1
273.721	-0.13
273.936	0.03
274.15	0.07
274.365	-0.07
274.579	-0.04
274.794	0.07
275.008	0.05
275.223	-0.11
275.437	-0.02
275.652	0.06
275.866	0.01
276.081	-0.04
276.295	0.01
276.509	0.02
276.724	-0.03
276.938	-0.02
277.153	0.01
277.367	-0.01
277.581	-0.03
277.796	-0.07
278.01	-0.11
278.224	0.02
278.438	0.09
278.653	-0.09
278.867	-0.11
279.081	-0.18
279.295	0.04
279.51	0.01
279.724	-0.11
279.938	0.02
280.152	0.02
280.366	-0.04
280.58	-0
280.794	0.07
281.008	-0.02
281.222	0.02
281.437	0.07
281.651	-0.01
281.865	0.13
282.079	0.02
282.293	-0.1
282.507	-0.08
282.721	0.02
282.935	-0.02
283.148	-0.13
283.362	-0.05
283.576	-0.06
283.79	-0.05
284.004	-0.12
284.218	0.03
284.432	-0.03
284.646	-0.08
284.859	-0.09
285.073	-0.08
285.287	-0.02
285.501	0.05
285.714	-0.06
285.928	-0.01
286.142	0.02
286.356	-0.05
286.569	-0.04
286.783	0.04
286.997	0.07
287.21	-0.08
287.424	-0.04
287.637	-0.04
287.851	-0.05
288.065	0.04
288.278	-0.03
288.492	0.03
288.705	-0.03
288.919	0.02
289.132	-0.13
289.346	0.06
289.559	-0.08
289.773	-0.06
289.986	0.01
290.2	-0.01
290.413	0.05
290.626	-0.09
290.84	-0.06
291.053	-0.01
291.267	0.1
291.48	-0.06
291.693	-0.05
291.906	-0.07
292.12	-0.05
292.333	-0.08
292.546	-0.04
292.76	0.08
292.973	0
293.186	0.02
293.399	-0.04
293.612	0.03
293.826	-0.06
294.039	-0.01
294.252	-0.03
294.465	0.07
294.678	0.03
294.891	-0.01
295.104	-0.02
295.317	-0.07
295.53	0.01
295.743	-0.03
295.956	0.01
296.169	0.07
296.382	0.04
296.595	-0.04
296.808	-0.04
297.021	0.06
297.234	0.06
297.447	-0.01
297.66	-0.03
297.873	0.05
298.086	0.06
298.299	-0.08
298.511	-0.07
298.724	-0.04
298.937	-0.04
299.15	-0.05
299.363	-0.02
299.575	0.02
299.788	0.03
300.001	-0.01
300.213	-0.05
300.426	-0.02
300.639	-0.04
300.852	-0.03
301.064	0.01
301.277	0.07
301.489	-0
301.702	0.03
301.915	0.02
302.127	0
302.34	-0.01
302.552	0.05
302.765	-0.06
302.977	0.05
303.19	-0.05
303.402	-0.01
303.615	-0.05
303.827	-0.08
304.04	0.01
304.252	0.02
304.464	-0.02
304.677	0.11
304.889	0.06
305.102	-0.07
305.314	-0.04
305.526	0.07
305.739	-0.02
305.951	-0.01
306.163	-0.04
306.375	0.08
306.588	-0.04
306.8	-0.07
307.012	-0.03
307.224	0.03
307.436	0.1
307.649	-0.08
307.861	0.02
308.073	0.06
308.285	-0.03
308.497	-0.08
308.709	-0.06
308.921	0.01
309.133	0.04
309.346	-0.02
309.558	-0.05
309.77	0.04
309.982	0.09
310.194	0.04
310.406	-0.04
310.617	0.07
310.829	0
311.041	0
311.253	-0.05
311.465	-0.02
311.677	0.03
311.889	-0.02
312.101	-0.03
312.313	0.04
312.524	0.08
312.736	-0.08
312.948	-0
313.16	0.06
313.372	0.04
313.583	-0.01
313.795	-0.04
314.007	-0.02
314.218	0.08
314.43	-0.02
314.642	-0.06
314.853	-0.03
315.065	0.03
315.277	-0.06
315.488	0
315.7	0.07
315.912	0.01
316.123	-0.03
316.335	-0.01
316.546	0.09
316.758	0.01
316.969	-0.02
317.181	-0
317.392	0.01
317.604	0.04
317.815	-0.05
318.026	-0.06
318.238	-0.03
318.449	0.06
318.661	-0.06
318.872	-0.06
319.083	-0.07
319.295	0.02
319.506	-0.02
319.717	-0.01
319.929	0.05
320.14	-0.03
320.351	-0
320.562	-0.06
320.774	0.03
320.985	-0.01
321.196	-0.02
321.407	-0.09
321.618	0.01
321.829	0.01
322.041	0.03
322.252	0.02
322.463	0.05
322.674	0.04
322.885	-0.07
323.096	-0.03
323.307	-0.01
323.518	-0.01
323.729	-0.06
323.94	-0.02
324.151	-0.02
324.362	0.06
324.573	-0.01
324.784	-0.01
324.995	0.05
325.206	-0.02
325.417	-0.02
325.628	-0
325.838	-0
326.049	0.01
326.26	0.03
326.471	-0.02
326.682	0.02
326.892	-0.03
327.103	-0.07
327.314	-0.02
327.525	0.02
327.735	0.02
327.946	-0.01
328.157	-0.06
328.368	0.05
328.578	-0.04
328.789	0.02
328.999	-0
329.21	-0
329.421	0.05
329.631	-0.06
329.842	-0.04
330.052	0.02
330.263	0.01
330.473	0.02
330.684	-0.01
330.894	-0.03
331.105	0
331.315	0.01
331.526	-0.04
331.736	0.04
331.947	-0.02
332.157	-0.03
332.367	-0.03
332.578	0.04
332.788	0.06
332.999	0.04
333.209	-0
333.419	-0.02
333.629	0.02
333.84	-0.02
334.05	-0.04
334.26	0.03
334.47	0.03
334.681	0.04
334.891	-0.03
335.101	0.01
335.311	0.1
335.521	0.01
335.732	-0.04
335.942	0.06
336.152	0.01
336.362	0.02
336.572	-0.01
336.782	0.04
336.992	-0.04
337.202	-0.05
337.412	-0.03
337.622	0.01
337.832	-0.01
338.042	-0.01
338.252	-0.06
338.462	-0.03
338.672	-0.02
338.882	0.02
339.092	-0.03
339.302	0.05
339.511	0.03
339.721	-0.05
339.931	-0.02
340.141	0.05
340.351	0.04
340.561	-0.02
340.77	0.01
340.98	-0.01
341.19	0.04
341.4	-0.06
341.609	-0.03
341.819	-0.03
342.029	-0.05
342.238	-0.01
342.448	-0.05
342.658	0
342.867	0
343.077	-0.01
343.286	-0.02
343.496	-0.03
343.706	0.09
343.915	-0.06
344.125	-0.04
344.334	0.01
344.544	-0.02
344.753	-0
344.963	-0.04
345.172	-0.02
345.381	-0.02
345.591	-0.05
345.8	0
346.01	0.09
346.219	0.06
346.428	-0.18
346.638	-0
346.847	-0.03
347.056	0.06
347.266	-0.03
347.475	-0.03
347.684	0.02
347.893	0.03
348.103	0
348.312	-0.04
348.521	-0.04
348.73	0.03
348.94	0
349.149	-0.05
349.358	-0.01
349.567	-0.02
349.776	-0.05
349.985	-0.05
350.194	0.03
350.403	0.03
350.612	-0.06
350.821	0
351.03	0.02
351.239	-0.05
351.448	0.02
351.657	-0.03
351.866	0.07
352.075	-0.02
352.284	-0.06
352.493	-0.06
352.702	0.09
352.911	0.01
353.12	-0.03
353.329	-0.02
353.538	-0.03
353.746	-0.01
353.955	-0.05
354.164	-0.03
354.373	-0.04
354.582	0.03
354.79	-0
354.999	0.01
355.208	-0.02
355.416	0.05
355.625	-0.03
355.834	-0.05
356.042	-0.01
356.251	-0.01
356.46	-0.07
356.668	0.01
356.877	0.09
357.085	0.01
357.294	-0.06
357.503	0.01
357.711	0.01
357.92	0.13
358.128	-0
358.337	-0.05
358.545	0.01
358.754	-0.02
358.962	0
359.17	-0.01
359.379	0.02
359.587	0.09
359.796	0.01
360.004	0.04
360.212	0.01
360.421	0.04
360.629	-0.05
360.837	-0.03
361.046	0.03
361.254	0.11
361.462	-0.01
361.67	-0.02
361.879	0.04
362.087	0.04
362.295	0.02
362.503	-0.04
362.711	-0.05
362.92	-0.03
363.128	-0.02
363.336	-0.01
363.544	-0.04
363.752	-0.01
363.96	-0.05
364.168	-0.02
364.376	0
364.584	0.01
364.792	-0.01
365	-0
365.208	0.02
365.416	0.03
365.624	0.03
365.832	-0.05
366.04	0.02
366.248	0.02
366.456	-0.03
366.664	0.03
366.872	0.01
367.079	-0.02
367.287	0.02
367.495	0.06
367.703	-0.02
367.911	-0.06
368.118	0
368.326	-0
368.534	-0.05
368.742	0.06
368.949	-0.07
369.157	-0.05
369.365	0.03
369.572	-0.06
369.78	-0.04
369.988	0.04
370.195	0.02
370.403	-0.02
370.61	-0.01
370.818	-0.02
371.026	0.04
371.233	-0.02
371.441	0
371.648	-0.04
371.856	0.01
372.063	0.06
372.271	-0.04
372.478	-0.01
372.685	-0.02
372.893	0.07
373.1	-0.05
373.308	-0.01
373.515	0.06
373.722	0.01
373.93	0
374.137	0.01
374.344	0.04
374.552	0.05
374.759	0.02
374.966	0.01
375.173	-0
375.381	0.03
375.588	0.01
375.795	-0.08
376.002	-0.05
376.209	-0.04
376.417	-0.03
376.624	0.02
376.831	0.01
377.038	-0.01
377.245	-0.09
377.452	-0
377.659	-0.02
377.866	-0.06
378.073	-0.02
378.28	-0.01
378.487	0.06
378.694	0.07
378.901	-0.02
379.108	-0.01
379.315	0.04
379.522	0.09
379.729	-0.03
379.936	-0.01
380.143	0
380.35	0.05
380.557	-0.02
380.763	-0
380.97	-0.02
381.177	0.01
381.384	-0
381.591	-0.05
381.797	0
382.004	0.03
382.211	0.02
382.418	0.01
382.624	0.03
382.831	0.05
383.038	0.01
383.244	0.01
383.451	-0.01
383.658	-0.04
383.864	-0.02
384.071	-0.05
384.277	0.08
384.484	-0.03
384.69	0.04
384.897	-0.04
385.103	-0.04
385.31	-0.07
385.516	-0.04
385.723	-0.08
385.929	0.01
386.136	-0.04
386.342	-0.01
386.549	-0.06
386.755	0.06
386.961	-0.01
387.168	-0.04
387.374	-0
387.58	0.04
387.787	0.03
387.993	0.01
388.199	-0.02
388.406	-0.05
388.612	-0.04
388.818	-0.05
389.024	-0.02
389.231	0
389.437	0.08
389.643	-0.02
389.849	-0.01
390.055	-0.01
390.261	-0.02
390.467	0.02
390.674	-0.05
390.88	-0.04
391.086	0.06
391.292	-0.03
391.498	0.04
391.704	-0.04
391.91	-0.01
392.116	-0.06
392.322	-0.09
392.528	0.05
392.734	-0.01
392.94	0
393.146	-0.03
393.352	0
393.557	-0.02
393.763	-0.01
393.969	0.04
394.175	0.01
394.381	0.02
394.587	-0.05
394.792	-0.03
394.998	0.07
395.204	0.05
395.41	-0.03
395.615	0.01
395.821	-0.01
396.027	0.01
396.233	-0.01
396.438	0.01
396.644	0.09
396.85	0.03
397.055	-0.01
397.261	0.01
397.466	0.02
397.672	0.01
397.878	0.03
398.083	0.04
398.289	-0.03
398.494	0.09
398.7	0.03
398.905	-0.08
399.111	0.02
399.316	-0.04
399.522	-0.03
399.727	-0.04
399.932	-0.02
400.138	-0.04
400.343	0.04
400.549	0.02
400.754	0.05
400.959	0.01
401.165	-0.01
401.37	0.03
401.575	-0.02
401.78	-0.03
401.986	0.02
402.191	0.04
402.396	-0.04
402.601	0.04
402.807	-0
403.012	-0.02
403.217	0
403.422	-0.01
403.627	-0.02
403.832	-0.03
404.037	-0
404.243	0.02
404.448	-0.02
404.653	0
404.858	0.01
405.063	0.03
405.268	-0.01
405.473	-0.05
405.678	-0.04
405.883	0.14
406.088	0.03
406.293	-0.07
406.498	-0.05
406.703	0.02
406.907	-0
407.112	-0.06
407.317	-0.01
407.522	0.03
407.727	-0.09
407.932	-0.04
408.136	0.08
408.341	-0.04
408.546	-0.01
408.751	-0.04
408.956	-0.03
409.16	0.06
409.365	-0.02
409.57	-0.04
409.774	0.01
409.979	0.06
410.184	0.04
410.388	-0.03
410.593	0.05
410.798	0.02
411.002	-0.03
411.207	0.03
411.411	0.02
411.616	-0.02
411.82	-0.02
412.025	0.04
412.229	-0.03
412.434	0.09
412.638	0.02
412.843	0
413.047	-0.01
413.252	-0.03
413.456	-0.02
413.66	0.07
413.865	-0.04
414.069	0.08
414.273	0.01
414.478	-0.02
414.682	-0.01
414.886	-0.02
415.091	-0.06
415.295	-0.05
415.499	0.02
415.703	-0.03
415.908	0.08
416.112	-0.08
416.316	0.04
416.52	0.08
416.724	-0.02
416.929	-0
417.133	0.11
417.337	0.01
417.541	0.01
417.745	0.01
417.949	0.08
418.153	0.08
418.357	-0.03
418.561	0.09
418.765	0.07
418.969	0.13
419.173	0.07
419.377	0.03
419.581	0.17
419.785	0.04
419.989	-0.06
420.193	0.06
420.397	0.04
420.601	0.16
420.804	0.13
421.008	0.06
421.212	0.16
421.416	0.11
421.62	0.03
421.823	0.08
422.027	0.18
422.231	0.09
422.435	0.09
422.638	0.12
422.842	0.08
423.046	0.1
423.249	0.14
423.453	0.12
423.657	0.13
423.86	0.14
424.064	0.1
424.268	0.2
424.471	0.13
424.675	0.19
424.878	0.21
425.082	0.16
425.285	0.22
425.489	0.17
425.692	0.19
425.896	0.13
426.099	0.23
426.303	0.15
426.506	0.13
426.71	0.2
426.913	0.27
427.116	0.29
427.32	0.19
427.523	0.24
427.726	0.3
427.93	0.21
428.133	0.28
428.336	0.22
428.54	0.23
428.743	0.33
428.946	0.37
429.149	0.31
429.353	0.38
429.556	0.33
429.759	0.3
429.962	0.3
430.165	0.36
430.368	0.34
430.571	0.34
430.775	0.33
430.978	0.31
431.181	0.33
431.384	0.39
431.587	0.32
431.79	0.36
431.993	0.4
432.196	0.31
432.399	0.38
432.602	0.53
432.805	0.42
433.008	0.46
433.211	0.33
433.414	0.48
433.616	0.53
433.819	0.42
434.022	0.39
434.225	0.6
434.428	0.51
434.631	0.65
434.833	0.56
435.036	0.52
435.239	0.59
435.442	0.56
435.645	0.57
435.847	0.59
436.05	0.7
436.253	0.71
436.455	0.59
436.658	0.64
436.861	0.72
437.063	0.67
437.266	0.69
437.468	0.69
437.671	0.88
437.874	0.75
438.076	0.65
438.279	0.68
438.481	0.78
438.684	0.81
438.886	0.87
439.089	0.77
439.291	0.92
439.494	0.92
439.696	0.91
439.899	0.95
440.101	1.06
440.303	1.01
440.506	1.2
440.708	1.12
440.91	1.18
441.113	1.16
441.315	1.24
441.517	1.21
441.72	1.33
441.922	1.24
442.124	1.25
442.326	1.37
442.529	1.44
442.731	1.36
442.933	1.54
443.135	1.43
443.337	1.44
443.539	1.51
443.742	1.58
443.944	1.64
444.146	1.6
444.348	1.59
444.55	1.63
444.752	1.76
444.954	1.68
445.156	1.71
445.358	1.79
445.56	1.9
445.762	1.84
445.964	1.92
446.166	1.94
446.368	1.91
446.57	2.01
446.772	1.99
446.974	1.91
447.175	2.05
447.377	2.01
447.579	2.1
447.781	2
447.983	2.1
448.184	2.02
448.386	2.1
448.588	1.91
448.79	2
448.991	2.08
449.193	2.03
449.395	2
449.597	2.08
449.798	2.04
450	1.94
450.202	1.96
450.403	1.94
450.605	1.97
450.806	1.87
451.008	1.75
451.21	1.84
451.411	1.85
451.613	1.69
451.814	1.76
452.016	1.67
452.217	1.58
452.419	1.68
452.62	1.59
452.821	1.5
453.023	1.59
453.224	1.48
453.426	1.4
453.627	1.28
453.828	1.29
454.03	1.26
454.231	1.35
454.432	1.17
454.634	1.36
454.835	1.15
455.036	1.13
455.238	1.18
455.439	1.18
455.64	0.96
455.841	1.02
456.042	1.15
456.244	1.03
456.445	0.88
456.646	0.82
456.847	0.84
457.048	0.95
457.249	0.93
457.45	1.16
457.651	0.78
457.852	0.85
458.054	0.75
458.255	0.71
458.456	0.74
458.657	0.74
458.858	0.62
459.058	0.66
459.259	0.69
459.46	0.62
459.661	0.59
459.862	0.76
460.063	0.62
460.264	0.64
460.465	0.56
460.666	0.69
460.866	0.52
461.067	0.51
461.268	0.51
461.469	0.5
461.67	0.51
461.87	0.44
462.071	0.45
462.272	0.45
462.473	0.51
462.673	0.55
462.874	0.43
463.075	0.47
463.275	0.42
463.476	0.46
463.676	0.51
463.877	0.45
464.078	0.45
464.278	0.45
464.479	0.37
464.679	0.42
464.88	0.37
465.08	0.54
465.281	0.35
465.481	0.31
465.682	0.35
465.882	0.41
466.083	0.38
466.283	0.34
466.483	0.3
466.684	0.27
466.884	0.23
467.085	0.28
467.285	0.39
467.485	0.26
467.686	0.23
467.886	0.22
468.086	0.25
468.286	0.26
468.487	0.28
468.687	0.19
468.887	0.22
469.087	0.25
469.287	0.21
469.488	0.16
469.688	0.22
469.888	0.24
470.088	0.25
470.288	0.21
470.488	0.19
470.688	0.16
470.888	0.17
471.088	0.1
471.288	0.23
471.488	0.15
471.688	0.2
471.888	0.1
472.088	0.22
472.288	0.19
472.488	0.07
472.688	0.14
472.888	0.15
473.088	0.12
473.288	0.14
473.488	0.09
473.688	0.17
473.887	0.15
474.087	0.1
474.287	0.11
474.487	0.1
474.687	0.13
474.886	0.07
475.086	0.12
475.286	0.12
475.486	0.1
475.685	0.08
475.885	0.05
476.085	0.13
476.284	0.08
476.484	0.08
476.684	0.1
476.883	0.12
477.083	0.11
477.282	0.06
477.482	0.14
477.681	0.14
477.881	0.07
478.08	0.05
478.28	0.03
478.479	0.1
478.679	0.11
478.878	0.08
479.078	0.02
479.277	0.03
479.477	0.07
479.676	0.14
479.875	0.06
480.075	-0.03
480.274	0.05
480.473	0.07
480.673	0.05
480.872	0.09
481.071	0.04
481.271	0.07
481.47	0.03
481.669	0.02
481.868	0.04
482.067	0
482.267	0.02
482.466	0.02
482.665	0.01
482.864	0.01
483.063	0.01
483.262	0.07
483.461	0.1
483.661	0.04
483.86	0.03
484.059	0.05
484.258	0.03
484.457	0.02
484.656	0.05
484.855	0.08
485.054	-0.01
485.253	0.02
485.452	-0.01
485.651	0.03
485.849	0.06
486.048	-0.02
486.247	-0
486.446	0.03
486.645	-0
486.844	0.01
487.043	0.01
487.241	0.04
487.44	0.01
487.639	0
487.838	0.04
488.037	0.02
488.235	0.06
488.434	0.03
488.633	-0.01
488.831	0.02
489.03	0.07
489.229	0.02
489.427	0
489.626	0.07
489.825	0.06
490.023	0.01
490.222	-0.01
490.42	0.04
490.619	0.05
490.817	0.04
491.016	-0.01
491.214	0.02
491.413	0
491.611	0
491.81	0.02
492.008	0.05
492.207	0.05
492.405	0.03
492.604	-0.02
492.802	0.02
493	0
493.199	-0.03
493.397	0.02
493.595	0.02
493.794	0
493.992	0.05
494.19	-0
494.388	0.03
494.587	-0
494.785	0.01
494.983	-0.04
495.181	0.02
495.379	-0.01
495.578	-0.01
495.776	0.03
495.974	0.03
496.172	0
496.37	-0.01
496.568	-0.03
496.766	-0.01
496.964	0.01
497.162	0
497.36	-0.03
497.558	0.03
497.756	0.02
497.954	-0
498.152	-0.01
498.35	0.01
498.548	-0.02
498.746	0.01
498.944	-0.03
499.142	-0.01
499.34	-0.05
499.538	-0.04
499.736	-0.03
499.933	0.04
500.131	0.02
500.329	0.01
500.527	0.02
500.725	0.01
500.922	0.01
501.12	-0
501.318	0.01
501.516	-0.02
501.713	0.01
501.911	-0
502.109	-0.03
502.306	0.03
502.504	-0.01
502.701	-0
502.899	0.01
503.097	0.05
503.294	0.02
503.492	-0.02
503.689	-0.01
503.887	0.05
504.084	0.05
504.282	0.01
504.479	-0.04
504.677	-0.01
504.874	-0.01
505.072	0.01
505.269	0
505.466	0
505.664	0.02
505.861	-0.05
506.059	-0.03
506.256	0.01
506.453	-0.01
506.651	0.05
506.848	0.02
507.045	0.01
507.242	-0.01
507.44	-0.01
507.637	0
507.834	-0
508.031	0.02
508.229	-0.04
508.426	-0
508.623	0
508.82	-0.01
509.017	-0.03
509.214	-0.02
509.411	-0.02
509.608	-0.03
509.805	-0.01
510.003	-0.03
510.2	-0.03
510.397	0.03
510.594	-0
510.791	-0.02
510.988	-0.02
511.184	0.01
511.381	-0.01
511.578	-0.03
511.775	0.02
511.972	0
512.169	-0.01
512.366	0
512.563	0.01
512.76	-0.03
512.956	0
513.153	-0.02
513.35	0.01
513.547	-0
513.744	-0.04
513.94	-0.03
514.137	0.01
514.334	0
514.53	0.01
514.727	0.01
514.924	0.04
515.12	-0.02
515.317	-0.05
515.514	-0.02
515.71	-0.02
515.907	-0.02
516.103	-0.02
516.3	0.01
516.497	0.01
516.693	0.02
516.89	-0.01
517.086	-0.03
517.283	0.02
517.479	0.01
517.676	-0.01
517.872	-0.02
518.068	-0.01
518.265	-0.02
518.461	-0.02
518.658	-0.03
518.854	-0
519.05	-0.03
519.247	-0.03
519.443	0
519.639	0.01
519.836	-0.01
520.032	0.01
520.228	-0.04
520.424	0.05
520.621	0.03
520.817	-0.02
521.013	0
521.209	-0
521.405	0.03
521.601	0
521.798	0.01
521.994	0.03
522.19	-0.03
522.386	-0.05
522.582	-0.01
522.778	0.02
522.974	0.01
523.17	-0.01
523.366	-0
523.562	0.03
523.758	-0.01
523.954	-0.02
524.15	0
524.346	-0.01
524.542	-0.02
524.738	-0.02
524.934	-0
525.129	-0
525.325	0
525.521	0
525.717	0.01
525.913	-0.03
526.109	0
526.304	-0.02
526.5	0.01
526.696	0.04
526.892	0.01
527.087	-0
527.283	-0.04
527.479	0.01
527.674	-0
527.87	-0
528.066	-0.02
528.261	0.02
528.457	-0
528.653	-0.03
528.848	-0
529.044	0.01
529.239	0
529.435	0.03
529.63	0.01
529.826	0.04
530.021	0.01
530.217	0
530.412	-0.01
530.608	-0.02
530.803	0.01
530.999	-0.01
531.194	-0.04
531.389	-0.01
531.585	-0.05
531.78	-0.02
531.975	-0.01
532.171	0.02
532.366	-0.03
532.561	-0.04
532.757	-0.03
532.952	-0.02
533.147	0.01
533.342	-0
533.538	-0.02
533.733	0.01
533.928	-0
534.123	0.01
534.318	-0.04
534.513	-0.02
534.709	0.03
534.904	-0.04
535.099	-0.02
535.294	-0.02
535.489	0
535.684	-0.02
535.879	-0.05
536.074	-0.01
536.269	-0.02
536.464	0.02
536.659	-0.02
536.854	-0.01
537.049	-0
537.244	0
537.439	-0
537.634	0.01
537.828	-0.01
538.023	-0.02
538.218	-0.03
538.413	0
538.608	-0.04
538.803	-0
538.997	-0.06
539.192	0.02
539.387	0.01
539.582	0.01
539.776	-0
539.971	-0.03
540.166	-0.01
540.36	-0.05
540.555	-0.01
540.75	-0.01
540.944	-0.01
541.139	-0.02
541.334	0.01
541.528	0.03
541.723	-0
541.917	-0.02
542.112	-0.07
542.306	-0.02
542.501	-0.03
542.695	-0.01
542.89	-0.01
543.084	0
543.279	-0.02
543.473	-0.01
543.668	0.01
543.862	-0.02
544.056	0
544.251	0
544.445	-0.01
544.64	-0.03
544.834	-0.04
545.028	0.01
545.222	-0
545.417	0.01
545.611	0.02
545.805	0
546	-0.02
546.194	-0.02
546.388	-0.03
546.582	0.01
546.776	0.01
546.97	0
547.165	0.01
547.359	0.01
547.553	-0.01
547.747	0.02
547.941	0
548.135	-0.02
548.329	0.03
548.523	-0
548.717	-0.02
548.911	-0.01
549.105	-0.01
549.299	0.01
549.493	0.02
549.687	0.02
549.881	-0
550.075	-0.02
550.269	-0.04
550.463	0
550.657	-0.02
550.85	-0.02
551.044	-0.02
551.238	-0.01
551.432	-0.03
551.626	-0.04
551.82	-0.01
552.013	-0.01
552.207	-0
552.401	-0.02
552.594	-0.01
552.788	-0.03
552.982	-0
553.176	-0.03
553.369	0.01
553.563	-0.01
553.756	-0.04
553.95	-0.02
554.144	-0.02
554.337	0.01
554.531	-0.02
554.724	0
554.918	-0.02
555.111	-0.02
555.305	-0.02
555.498	0.04
555.692	0.02
555.885	-0.03
556.079	-0.01
556.272	-0.04
556.466	0
556.659	0.02
556.852	-0.01
557.046	-0.04
557.239	0
557.432	-0.05
557.626	-0.01
557.819	0.02
558.012	0.03
558.206	0
558.399	0
558.592	0
558.785	-0
558.979	0
559.172	0.01
559.365	0.01
559.558	-0
559.751	-0.01
559.944	0.03
560.138	-0.02
560.331	-0.01
560.524	-0.02
560.717	-0.01
560.91	-0
561.103	0.01
561.296	0
561.489	-0
561.682	-0
561.875	0
562.068	0.02
562.261	-0.02
562.454	0.03
562.647	-0.02
562.84	0.01
563.032	-0.01
563.225	-0.01
563.418	-0.02
563.611	-0
563.804	-0.03
563.997	-0.03
564.19	-0.04
564.382	0.02
564.575	-0.01
564.768	-0.02
564.961	0.03
565.153	-0.03
565.346	-0
565.539	0.01
565.731	0.02
565.924	0.03
566.117	0.03
566.309	0.01
566.502	-0.03
566.695	-0.02
566.887	-0
567.08	-0.03
567.272	-0.01
567.465	-0
567.657	-0.01
567.85	0.03
568.042	0
568.235	0.02
568.427	-0.01
568.62	0
568.812	0
569.005	-0.01
569.197	-0.05
569.389	0
569.582	-0.01
569.774	-0.02
569.966	-0.04
570.159	-0.04
570.351	0.01
570.543	-0.03
570.736	0
570.928	-0.04
571.12	-0.02
571.312	-0.01
571.505	-0.05
571.697	0.04
571.889	-0.02
572.081	-0
572.273	-0.02
572.465	0.02
572.658	-0.01
572.85	0.01
573.042	-0.03
573.234	0
573.426	0.06
573.618	-0.02
573.81	-0.01
574.002	0.05
574.194	0.02
574.386	-0.07
574.578	-0.08
574.77	-0.03
574.962	-0.01
575.154	-0.04
575.346	-0.02
575.538	-0.02
575.729	-0.03
575.921	-0.02
576.113	-0.03
576.305	0.03
576.497	0.01
576.689	-0.02
576.88	-0.02
577.072	0.01
577.264	-0
577.456	-0.01
577.647	-0.09
577.839	-0
578.031	0.02
578.223	-0.06
578.414	-0.07
578.606	0.02
578.798	-0
578.989	-0.04
579.181	-0
579.372	-0.02
579.564	-0.02
579.755	-0
579.947	0.03
580.139	0.02
580.33	-0.05
580.522	-0.04
580.713	-0.09
580.905	-0.02
581.096	-0.01
581.287	-0.03
581.479	-0
581.67	0.01
581.862	-0
582.053	-0.02
582.244	-0.05
582.436	-0.02
582.627	0
582.818	-0.05
583.01	-0.04
583.201	0
583.392	0.03
583.583	-0
583.775	-0.03
583.966	-0.02
584.157	-0.01
584.348	-0.03
584.54	-0.07
584.731	-0
584.922	-0.02
585.113	-0.04
585.304	0.02
585.495	0.02
585.686	-0.01
585.877	-0
586.068	-0.01
586.259	-0.01
586.45	-0.01
586.641	-0.03
586.832	-0.07
587.023	-0.01
587.214	-0.01
587.405	-0.01
587.596	-0.04
587.787	0.02
587.978	0
588.169	-0.04
588.36	-0.02
588.551	0.03
588.742	-0.03
588.932	-0.01
589.123	-0.01
589.314	0.01
589.505	0.01
589.696	-0.02
589.886	-0.05
590.077	-0.04
590.268	-0.01
590.458	-0.05
590.649	-0.07
590.84	0.01
591.03	-0.03
591.221	-0.06
591.412	-0.05
591.602	0.01
591.793	0.03
591.984	-0.05
592.174	0
592.365	0.04
592.555	-0.03
592.746	0
592.936	-0.01
593.127	0
593.317	0.04
593.508	-0.04
593.698	-0.04
593.889	-0.02
594.079	0
594.269	-0.07
594.46	-0.01
594.65	-0.02
594.84	-0.02
595.031	-0.06
595.221	-0.03
595.411	-0.06
595.602	0.01
595.792	0
595.982	-0.02
596.172	0.07
596.363	-0.01
596.553	-0.02
596.743	-0.03
596.933	0
597.123	0.03
597.314	-0.03
597.504	-0.04
597.694	0.03
597.884	0
598.074	0
598.264	-0.03
598.454	-0.01
598.644	-0
598.834	-0.02
599.024	-0.04
599.214	-0.02
599.404	0.03
599.594	-0.02
599.784	-0.04
599.974	0.01
600.164	0.02
600.354	-0.06
600.544	-0.04
600.734	0
600.924	0.03
601.114	-0.05
601.303	-0.01
601.493	-0.02
601.683	-0.02
601.873	0.01
602.063	-0.06
602.252	0.01
602.442	-0.08
602.632	-0.03
602.821	-0.04
603.011	-0.01
603.201	-0.01
603.39	-0.03
603.58	-0.05
603.77	0
603.959	0.02
604.149	-0.01
604.339	-0.02
604.528	0.01
604.718	0.01
604.907	-0.03
605.097	-0.02
605.286	-0.03
605.476	-0.01
605.665	-0.02
605.855	-0.05
606.044	0.02
606.234	0.02
606.423	-0.03
606.612	-0.04
606.802	-0.03
606.991	0.04
607.181	-0.01
607.37	-0.06
607.559	-0.01
607.749	-0.06
607.938	-0.03
608.127	-0.01
608.316	-0.03
608.506	0.02
608.695	-0.02
608.884	-0.06
609.073	-0.01
609.263	0.01
609.452	-0
609.641	-0
609.83	-0.03
610.019	-0.02
610.208	-0.06
610.397	-0.02
610.586	0.03
610.775	-0.01
610.965	-0.03
611.154	-0.04
611.343	-0.01
611.532	-0.01
611.721	-0.04
611.91	-0.04
612.099	-0.02
612.287	-0.02
612.476	-0.05
612.665	-0
612.854	-0.05
613.043	0.02
613.232	-0.04
613.421	-0.03
613.61	0.01
613.798	-0.03
613.987	0
614.176	-0.03
614.365	-0
614.554	0.01
614.742	0
614.931	-0.05
615.12	0.03
615.309	-0.03
615.497	0.03
615.686	-0.03
615.875	-0.02
616.063	-0.02
616.252	-0.05
616.44	-0.02
616.629	-0
616.818	-0.01
617.006	-0
617.195	-0.05
617.383	0
617.572	-0.03
617.76	-0.05
617.949	-0.02
618.137	0.01
618.326	0.05
618.514	-0.02
618.703	-0.03
618.891	0.02
619.079	-0.11
619.268	0
619.456	-0.05
619.644	0.04
619.833	-0.01
620.021	-0.01
620.209	-0.1
620.398	-0
620.586	-0.02
620.774	-0.02
620.962	-0.04
621.151	0.02
621.339	-0.04
621.527	-0.08
621.715	-0.04
621.903	-0.04
622.092	-0.06
622.28	0
622.468	0
622.656	-0.04
622.844	0
623.032	-0.03
623.22	-0.07
623.408	0.02
623.596	0.02
623.784	0
623.972	-0.04
624.16	-0.06
624.348	0.05
624.536	-0.03
624.724	-0.04
624.912	0.02
625.1	0.02
625.288	-0.06
625.476	-0.01
625.664	0.01
625.851	-0.05
626.039	-0.01
626.227	0
626.415	-0.01
626.603	-0.07
626.79	-0.04
626.978	-0.04
627.166	0
627.354	-0
627.541	-0.05
627.729	-0.07
627.917	0.01
628.104	0.01
628.292	-0.05
628.48	-0.03
628.667	0.01
628.855	0.01
629.042	-0.03
629.23	-0.02
629.418	0
629.605	-0.05
629.793	-0.05
629.98	-0.04
630.168	-0.02
630.355	-0.04
630.543	-0.01
630.73	-0.06
630.917	-0.01
631.105	0.09
631.292	-0.02
631.48	-0.01
631.667	0.05
631.854	-0.02
632.042	-0.06
632.229	-0.09
632.416	-0.02
632.604	-0.01
632.791	-0.08
632.978	0.02
633.165	0.01
633.353	0.04
633.54	0.03
633.727	-0.09
633.914	-0.04
634.101	-0.06
634.289	0.02
634.476	-0.05
634.663	-0.05
634.85	-0
635.037	-0.09
635.224	-0.07
635.411	0.03
635.598	0.02
635.785	-0.04
635.972	-0.03
636.159	0.03
636.346	-0.06
636.533	0.04
636.72	-0.01
636.907	-0.04
637.094	0.01
637.281	-0
637.468	-0.01
637.655	-0.02
637.842	-0.01
638.029	-0.03
638.215	0.01
638.402	-0.01
638.589	-0.07
638.776	-0.04
638.963	-0.04
639.149	0.05
639.336	0.04
639.523	-0.02
639.709	-0.03
639.896	-0.03
640.083	0.07
640.27	-0.03
640.456	-0.05
640.643	0.01
640.829	-0.09
641.016	-0.03
641.203	-0.06
641.389	-0
641.576	-0
641.762	-0.02
641.949	-0.04
642.135	0.01
642.322	0.02
642.508	-0.06
642.695	-0.02
642.881	-0.03
643.068	-0.03
643.254	-0
643.441	0.03
643.627	-0.02
643.813	-0.05
644	0.01
644.186	-0.05
644.372	0.02
644.559	0.02
644.745	0.01
644.931	-0.04
645.118	-0.03
645.304	-0.02
645.49	-0.04
645.676	-0.04
645.862	0.01
646.049	0.03
646.235	-0.03
646.421	0.06
646.607	0.06
646.793	-0.03
646.979	-0.04
647.165	0.03
647.352	0
647.538	0.04
647.724	-0.03
647.91	0
648.096	0.01
648.282	0.01
648.468	-0.02
648.654	-0.03
648.84	0.02
649.026	-0.03
649.212	-0.03
649.397	-0.05
649.583	-0.04
649.769	-0
649.955	-0.03
650.141	0.03
650.327	0.01
650.513	-0.05
650.698	-0.01
650.884	-0.09
651.07	-0.02
651.256	0.01
651.442	-0.04
651.627	-0.06
651.813	0
651.999	-0.03
652.184	-0.02
652.37	-0.03
652.556	-0.04
652.741	0.04
652.927	-0.07
653.113	-0.05
653.298	-0.03
653.484	0.01
653.669	-0.07
653.855	-0.02
654.04	0
654.226	0
654.412	-0.04
654.597	-0.04
654.782	-0.04
654.968	0.03
655.153	-0.05
655.339	-0.04
655.524	-0.05
655.71	-0.01
655.895	-0.01
656.08	-0.03
656.266	0.02
656.451	-0
656.636	-0.05
656.822	0.01
657.007	-0.07
657.192	-0.03
657.378	-0.1
657.563	0.01
657.748	0
657.933	-0.01
658.118	-0.05
658.304	-0.05
658.489	-0
658.674	0.02
658.859	-0.05
659.044	0.01
659.229	-0.01
659.414	-0.04
659.599	-0.02
659.785	-0.05
659.97	-0.02
660.155	-0.02
660.34	0
660.525	-0.01
660.71	-0.05
660.895	0.03
661.08	-0.05
661.264	-0.03
661.449	0.03
661.634	0.03
661.819	0.01
662.004	-0.02
662.189	-0.04
662.374	-0.05
662.559	-0.07
662.743	-0.08
662.928	0
663.113	-0.03
663.298	-0.07
663.483	-0.06
663.667	0.02
663.852	-0.06
664.037	0.03
664.221	-0.1
664.406	0.05
664.591	-0.01
664.775	-0.01
664.96	-0.09
665.145	-0.03
665.329	0.01
665.514	-0.04
665.698	-0.02
665.883	-0.1
666.068	0.04
666.252	-0.04
666.437	-0.07
666.621	-0.03
666.806	-0
666.99	0.01
667.174	-0.07
667.359	0.07
667.543	-0.06
667.728	-0.06
667.912	-0.13
668.096	0.04
668.281	-0.05
668.465	-0.04
668.649	0
668.834	0.02
669.018	-0.05
669.202	-0.03
669.387	-0.04
669.571	0
669.755	-0.01
669.939	-0.07
670.124	-0.05
670.308	0.02
670.492	0.02
670.676	-0.02
670.86	-0.02
671.044	-0.03
671.228	0.01
671.413	-0.05
671.597	-0.02
671.781	-0.04
671.965	0
672.149	-0.01
672.333	-0.02
672.517	-0.02
672.701	0.02
672.885	-0.04
673.069	-0.11
673.253	0.05
673.437	-0.04
673.621	-0.08
673.804	-0.06
673.988	-0.02
674.172	-0.04
674.356	-0.07
674.54	-0.04
674.724	0.08
674.908	-0.01
675.091	0.03
675.275	-0.04
675.459	0.01
675.643	0.06
675.826	0.02
676.01	-0
676.194	-0.08
676.377	0.02
676.561	0.02
676.745	-0.03
676.928	-0.02
677.112	0.08
677.296	-0.05
677.479	-0.06
677.663	-0.03
677.846	-0.04
678.03	-0.03
678.213	-0.05
678.397	0.01
678.58	-0.05
678.764	-0.02
678.947	-0.07
679.131	-0.08
679.314	0.02
679.498	-0.02
679.681	0
679.865	0.07
680.048	-0.02
680.231	-0.07
680.415	-0.05
680.598	-0.04
680.781	-0.08
680.965	-0.05
681.148	0.01
681.331	-0
681.514	0.04
681.698	-0.04
681.881	-0.04
682.064	-0.01
682.247	0.01
682.43	-0.1
682.614	-0.01
682.797	0.01
682.98	0.01
683.163	-0.04
683.346	-0.04
683.529	-0.03
683.712	-0.04
683.895	0.02
684.078	-0.07
684.261	-0.05
684.444	0.06
684.627	0.02
684.81	-0.06
684.993	-0.02
685.176	-0.02
685.359	-0.06
685.542	-0.05
685.725	0.05
685.908	0.01
686.091	-0.06
686.274	0.06
686.457	0.03
686.639	-0.04
686.822	0
687.005	-0.04
687.188	0.02
687.371	0.03
687.553	-0.01
687.736	0.02
687.919	0.07
688.102	0.09
688.284	-0.06
688.467	-0.04
688.65	0
688.832	-0.07
689.015	-0.02
689.197	-0.06
689.38	0.04
689.563	0.11
689.745	-0.02
689.928	-0.01
690.11	-0.01
690.293	-0.03
690.475	-0.07
690.658	-0.03
690.84	-0.01
691.023	-0.01
691.205	-0.07
691.388	-0.03
691.57	0.04
691.752	0.01
691.935	-0.09
692.117	-0.02
692.3	-0.01
692.482	-0.01
692.664	-0.08
692.847	-0.02
693.029	0.02
693.211	-0.01
693.393	-0.03
693.576	-0.04
693.758	-0.02
693.94	-0.04
694.122	-0.02
694.304	-0.02
694.487	-0.05
694.669	0.09
694.851	-0.09
695.033	-0.02
695.215	-0.06
695.397	-0.08
695.579	0.01
695.761	-0.1
695.943	-0.11
696.125	0.06
696.308	0.05
696.49	-0.09
696.671	0.08
696.853	-0
697.035	0.09
697.217	0.03
697.399	0.02
697.581	-0.11
697.763	-0.01
697.945	-0.05
698.127	-0.02
698.309	0.06
698.491	-0.06
698.672	0
698.854	0.02
699.036	0.06
699.218	-0.08
699.399	0.03
699.581	0.02
699.763	-0.03
699.945	-0.06
700.126	-0.1
700.308	-0.02
700.49	-0.03
700.671	-0.13
700.853	-0.04
701.035	-0.03
701.216	-0
701.398	-0.06
701.579	-0.07
701.761	0.02
701.943	-0.01
702.124	-0.08
702.306	-0.05
702.487	0.1
702.669	-0.03
702.85	-0.03
703.031	-0.1
703.213	0.1
703.394	0.04
703.576	-0.07
703.757	0.07
703.938	-0.01
704.12	0.14
704.301	-0.02
704.483	-0.11
704.664	-0
704.845	0.03
705.026	-0.04
705.208	0.02
705.389	0.02
705.57	-0.02
705.751	-0.05
705.933	-0.08
706.114	0.04
706.295	-0.01
706.476	-0.12
706.657	0.09
706.838	0.01
707.02	0.03
707.201	-0.05
707.382	-0.06
707.563	0.03
707.744	-0.01
707.925	-0.05
708.106	-0.09
708.287	-0.06
708.468	0.09
708.649	-0.03
708.83	0.02
709.011	-0.03
709.192	0.01
709.373	-0.06
709.554	-0.03
709.734	0.03
709.915	0.03
710.096	-0.03
710.277	-0.12
710.458	0.01
710.639	0.03
710.819	-0.1
711	-0.03
711.181	0.03
711.362	0.07
711.542	0.01
711.723	-0.03
711.904	0.04
712.085	0
712.265	-0.01
712.446	-0.05
712.627	-0.01
712.807	-0.04
712.988	0.01
713.168	-0.19
713.349	-0.02
713.53	-0.14
713.71	-0.09
713.891	-0.05
714.071	-0.02
714.252	-0.14
714.432	-0.07
714.613	-0.15
714.793	0.03
714.974	0.01
715.154	0.02
715.334	0.02
715.515	0.09
715.695	-0.08
715.876	0.01
716.056	0.03
716.236	-0.03
716.417	-0.01
716.597	-0.12
716.777	0.12
716.957	0.05
717.138	-0.09
717.318	0.02
717.498	-0.1
717.678	-0.05
717.859	0.03
718.039	-0.13
718.219	-0.06
718.399	-0.04
718.579	-0.06
718.759	-0.06
718.939	0.02
719.12	0
719.3	-0.02
719.48	-0.16
719.66	-0.18
719.84	0.1
720.02	-0.03
720.2	-0.04
720.38	0
720.56	0.06
720.74	-0.06
720.92	0.02
721.1	0.06
721.279	0.08
721.459	-0.05
721.639	-0.1
721.819	-0.07
721.999	-0.08
722.179	-0
722.359	-0.14
722.538	-0.04
722.718	0
722.898	-0.06
723.078	0.01
723.257	-0.02
723.437	0.02
723.617	0.04
723.797	-0.11
723.976	-0
724.156	0.02
724.336	-0.02
724.515	0.1
724.695	-0.16
724.874	-0.02
725.054	0.03
725.234	-0.07
725.413	-0
725.593	-0.03
725.772	-0.01
725.952	-0.04
726.131	-0.05
726.311	-0.03
726.49	-0.03
726.67	-0.11
726.849	-0.05
727.028	0.03
727.208	0.04
727.387	-0.06
727.567	-0.11
727.746	-0.05
727.925	-0.09
728.105	-0.11
728.284	-0.11
728.463	-0.06
728.643	-0.01
728.822	-0.16
729.001	-0.11
729.18	0.11
729.359	0
729.539	-0.04
729.718	-0.04
729.897	0.03
730.076	-0.1
730.255	-0.21
730.434	-0.04
730.614	0.01
730.793	0.07
730.972	-0.01
731.151	0.04
731.33	0.1
731.509	0.05
731.688	-0.03
731.867	-0.06
732.046	-0.16
732.225	0.1
732.404	-0.08
732.583	-0.1
732.762	-0.07
732.941	0.03
733.12	-0.05
733.298	-0.06
733.477	0.05
733.656	-0.16
733.835	-0.22
734.014	-0.04
734.193	0.05
734.371	-0.02
734.55	0.04
734.729	-0.15
734.908	-0.03
735.086	0.06
735.265	0.05
735.444	-0.17
735.623	-0.19
735.801	-0.15
735.98	-0.07
736.159	-0.06
736.337	0.08
736.516	0.07
736.694	-0.06
736.873	-0.09
737.052	0.09
737.23	0.04
737.409	-0.04
737.587	0.2
737.766	-0.11
737.944	-0.11
738.123	-0.02
738.301	0.04
738.479	-0.17
738.658	-0.05
738.836	-0.24
739.015	-0.03
739.193	0.04
739.371	-0.16
739.55	-0.09
739.728	-0.24
739.906	-0.04
740.085	0.15
740.263	-0.1
740.441	-0.2
740.62	0.14
740.798	-0
740.976	-0.16
741.154	-0.15
741.332	0.07
741.511	-0.01
741.689	-0.02
741.867	0.05
742.045	-0.07
742.223	-0.04
742.401	-0.23
742.579	-0.09
742.757	0.08
742.935	-0.05
743.114	0.04
743.292	-0.13
743.47	0.05
743.648	0.04
743.826	-0.1
744.004	0.04
744.181	0.05
744.359	-0.1
744.537	-0.06
744.715	-0.12
744.893	0
745.071	-0.01
745.249	-0.07
745.427	-0.09
745.605	0.09
745.782	-0.02
745.96	0.05
746.138	-0.06
746.316	0.01
746.493	-0.07
746.671	-0.08
746.849	0
747.027	0.17
747.204	-0.07
747.382	0.03
747.56	-0.18
747.737	0.04
747.915	-0.08
748.093	0.05
748.27	-0.05
748.448	0.02
748.625	-0.12
748.803	-0.13
748.98	-0.16
749.158	0.09
749.335	0.02
749.513	-0.07
749.69	0.04
749.868	0.11
750.045	-0.01
750.223	-0.07
750.4	-0.33
750.578	0.16
750.755	-0.03
750.932	-0.17
751.11	0.08
751.287	-0.09
751.464	0.04
751.642	-0.1
751.819	0.01
751.996	0.01
752.173	-0.06
752.351	-0.04
752.528	-0.1
752.705	-0.1
752.882	-0.12
753.06	-0.07
753.237	-0.03
753.414	0.13
753.591	0.14
753.768	0.07
753.945	-0.04
754.122	-0.01
754.299	0.11
754.476	-0.13
754.654	0.01
754.831	0.03
755.008	0.04
755.185	-0.06
755.362	-0.17
755.539	0.04
755.716	-0.1
755.892	-0.08
756.069	-0.09
756.246	-0.07
756.423	0.05
756.6	0.06
756.777	-0.01
756.954	0.07
757.131	-0.02
757.307	-0.23
757.484	-0.17
757.661	0.02
757.838	-0.01
758.015	-0.22
758.191	0
758.368	-0.04
758.545	0.18
758.721	-0
758.898	-0.16
759.075	-0.04
759.251	0.02
759.428	0.03
759.605	-0.15
759.781	-0.1
759.958	0.12
760.134	0.08
760.311	-0.19
760.488	0.07
760.664	0.04
760.841	-0.04
761.017	-0.05
761.194	0.12
761.37	0.05
761.547	-0.05
761.723	-0.06
761.899	0.01
762.076	-0.14
762.252	-0.06
762.429	-0.09
762.605	0.02
762.781	-0.06
762.958	0.08
763.134	-0.16
763.31	-0.08
763.486	0.07
763.663	-0.12
763.839	0.04
764.015	-0.15
764.191	-0.07
764.368	0.01
764.544	-0.07
764.72	-0.08
764.896	0.03
765.072	0.05
765.248	-0.09
765.425	-0.1
765.601	-0.03
765.777	-0.15
765.953	-0.35
766.129	-0.08
766.305	-0.1
766.481	-0.06
766.657	0.07
766.833	0.18
767.009	-0.11
767.185	-0.19
767.361	-0.02
767.537	-0.11
767.713	0.05
767.889	-0.09
768.065	-0.09
768.24	-0.27
768.416	-0.02
768.592	-0
768.768	-0.11
768.944	-0.04
769.12	-0.12
769.295	-0.15
769.471	-0.23
769.647	-0.07
769.823	0.08
769.998	-0.17
770.174	-0.13
770.35	0.32
770.525	0.27
770.701	0.01
770.877	-0.04
771.052	-0.11
771.228	0.11
771.403	-0.01
771.579	0.1
771.755	0.22
771.93	-0
772.106	-0.12
772.281	-0.27
772.457	0.05
772.632	-0.02
772.808	-0.23
772.983	-0.1
773.159	-0.31
773.334	-0.02
773.509	-0.15
773.685	-0.17
773.86	0.22
774.036	0.18
774.211	-0.08
774.386	-0.05
774.562	-0.08
774.737	-0.18
774.912	-0.28
775.087	0.03
775.263	0
775.438	-0.05
775.613	-0.15
775.788	0.01
775.964	0.03
776.139	0.35
776.314	-0.36
776.489	0.06
776.664	-0.04
776.839	-0.17
777.014	0
777.19	0.08
777.365	0.2
777.54	0.21
777.715	-0.09
777.89	-0.13
778.065	-0.22
778.24	-0.1
778.415	0.13
778.59	-0.23
778.765	-0.2
778.94	0.05
779.115	-0.11
779.289	-0.11
779.464	-0.02
779.639	-0.14
779.814	-0.32
779.989	-0.22
780.164	0.22
780.339	-0.05
780.513	-0.02
780.688	-0.2
780.863	-0.17
781.038	0.16
781.212	-0.4
781.387	0.1
781.562	0.26
781.737	-0.11
781.911	0.11
782.086	-0.07
782.261	-0.14
782.435	0.2
782.61	0.02
782.784	0.06
782.959	0.19
783.134	-0.23
783.308	-0.39
783.483	-0.1
783.657	0.36
783.832	0.05
784.006	-0.36
784.181	0.19
784.355	0.21
784.53	-0.1
784.704	-0.36
784.878	0.22
785.053	-0.08
785.227	0.24
785.402	0.2
785.576	-0.3
785.75	-0.16
785.925	-0.08
786.099	0
786.273	-0.1
786.448	-0.08
786.622	0.1
786.796	-0.1
786.97	-0.03
787.145	0.49
787.319	-0.27
787.493	-0.13
787.667	-0.57
787.841	-0.1
788.015	0.08
788.19	-0.3
788.364	-0.04
788.538	0.03
788.712	0.08
788.886	-0.07
789.06	0.26
789.234	0.15
789.408	-0.34
789.582	-0.14
789.756	-0.21
789.93	-0.27
790.104	-0.19
790.278	-0.17
790.452	-0.28
790.626	0.15
790.8	-0.14
790.973	0.03
791.147	0.09
791.321	-0.06
791.495	0.28
791.669	-0.01
791.843	0.14
792.016	0.02
792.19	0.31
792.364	-0.47
792.538	0.39
792.711	0.3
792.885	-0.17
793.059	-0.45
793.233	-0.38
793.406	0.22
793.58	-0.04
793.754	0.06
793.927	0.04
794.101	0.34
794.274	-0
794.448	0.2
794.622	-0.19
794.795	0.4
794.969	-0.29
795.142	0.19
795.316	-0.22
795.489	-0.16
795.663	0.39
795.836	0.08
796.009	-0.34
796.183	0.2
796.356	0.03
796.53	0.01
796.703	-0.04
796.876	0.52
797.05	-0.12
797.223	-0.1
797.396	-0.07
797.57	-0.21
797.743	0.41
797.916	0.1
798.09	-0.13
798.263	0.2
798.436	0.06
798.609	-0.27
798.782	-0.19
798.956	-0.16
799.129	-0.12
799.302	-0.27
799.475	-0.51
799.648	-0.32
799.821	0
799.994	0.15
800.167	-0.44
800.34	-0.05
800.514	0.18
800.687	-0.29
800.86	-0.11
801.033	-0.3
801.206	-0.09
801.379	-0.18
801.551	0.31
801.724	0.42
801.897	0.27
802.07	-0.15
802.243	-0.49
802.416	-0.2
802.589	-0.17
802.762	0.21
802.935	-0.24
803.107	0.17
803.28	0.3
803.453	0.09
803.626	-0.39
803.798	-0.05
803.971	-0.41
804.144	-0.07
804.317	-0.09
804.489	0.18
804.662	-0.22
804.835	-0.23
805.007	-0.34
805.18	0.22
805.353	0.11
805.525	-0.19
805.698	-0.39
805.87	0.27
806.043	0.13
806.215	-0.51
806.388	-0.33
806.56	-0.06
806.733	0.1
806.905	0.08
807.078	-0.21
807.25	-0.56
807.423	0.17
807.595	-0.18
807.768	-0.19
807.94	0.37
808.112	0.05
808.285	-0.32
808.457	-0.13
808.629	-0.15
808.802	0.01
808.974	-0.1
809.146	-0.48
809.318	-0.4
809.491	-0.16
809.663	-0.13
809.835	-0.38
810.007	-0.05
810.18	-0.21
810.352	-0.33
810.524	-0.17
810.696	0.01
810.868	0.41
811.04	-0.17
811.212	-0.14
811.384	0.02
811.556	-0.26
811.728	-0.31
811.901	0.42
812.073	-0.43
812.245	0.22
812.417	-0.03
812.589	-0.71
812.76	-0.01
812.932	0.17
813.104	0.03
813.276	-0.33
813.448	0.36
813.62	-0.46
813.792	0.17
813.964	0.06
814.136	0.09
814.307	-0.2
814.479	-0.41
814.651	-0.5
814.823	0.85
814.995	-0.29
815.166	0.25
815.338	-0.57
815.51	-0.77
815.681	0.82
815.853	0.1
816.025	-0.37
816.196	0.4
816.368	0.18
816.54	-0.54
816.711	-0.09
816.883	0.4
817.054	0.45
817.226	-0.56
817.398	0.39
817.569	-0.43
817.741	-0.09
817.912	0.07
818.084	-0.04
818.255	-0.15
818.426	-0.21
818.598	-0.31
818.769	-0.69
818.941	0.39
819.112	0.13
819.283	-0.05
819.455	-0.6
819.626	-0.1
819.798	0.02
819.969	-0.06
820.14	-0.24
820.311	-0.04
820.483	-0.03
820.654	-0.24
820.825	-0
820.996	-0.67
821.168	-0.76
821.339	-0.37
821.51	-0.79
821.681	-0.34
821.852	-0.24
822.023	-0.88
822.195	-0.61
822.366	0.2
822.537	-0.24
822.708	0.12
822.879	-0.5
823.05	0.55
823.221	-0.42
823.392	0.26
823.563	0
823.734	-0.29
823.905	-0.36
824.076	-0.04
824.247	-0.28
824.418	-0.74
824.589	0.25
824.759	-0.46
824.93	0.04
825.101	-0.96
825.272	0.34
825.443	0.37
825.614	0.12
825.784	-1.52
825.955	0.71
826.126	0.36
826.297	0.35
826.467	1.05
826.638	1.19
826.809	-1.04
826.98	-0.82
827.15	0.02
827.321	-0.09
827.492	0.41
827.662	-0.1
827.833	0.3
828.003	0.42
828.174	-0.46
828.345	-0.74
828.515	0.83
828.686	0.1
828.856	-0.59
829.027	0.49
829.197	-0.58
829.368	0.52
829.538	-0.71
829.709	-0.75
829.879	-0.26
830.049	-0.1
830.22	-0.1
830.39	-0.24
830.56	0.36
830.731	-0.26
830.901	-0.88
831.072	0.07
831.242	-0.55
831.412	0.27
831.582	-0.32
831.753	-1.58
831.923	0.33
832.093	-0.11
832.263	-0.49
832.434	-0.97
832.604	-0.59
832.774	0.65
832.944	-0.62
833.114	-0.58
833.284	-0.34
833.454	-0.62
833.624	-0.46
833.795	-0.14
833.965	0.55
834.135	0.61
834.305	-1.38
834.475	-0.49
834.645	-0.37
834.815	-0.41
834.985	-0.34
835.155	-0.82
835.325	0.49
835.494	0.11
835.664	-0.37
835.834	-1.15
836.004	0.15
836.174	0.16
836.344	-0.49
836.514	-1.06
836.684	-0.38
836.853	0.12
837.023	-0.13
837.193	-0.56
837.363	-0.05
837.532	0.31
837.702	-0.8
837.872	-1.29
838.041	0.05
838.211	1.32
838.381	-1.17
838.55	-0.67
838.72	2.15
838.89	0.72
839.059	-0.32
839.229	-1.3
839.398	1.39
839.568	0.3
839.738	-0.35
839.907	0.03
840.077	0.1
840.246	-1.24
840.416	-1.04
840.585	-1.14
840.755	1.21
840.924	0.75
841.093	-1.16
841.263	-1.11
841.432	-0.08
841.602	-0.51
841.771	-1.54
841.94	-0.12
842.11	1.65
842.279	1.65
842.448	-0.64
842.617	-0.99
842.787	1.46
842.956	-1.09
843.125	-0.45
843.294	0.16
843.464	0.23
843.633	0.99
843.802	-1.16
843.971	-0.26
844.14	0.4
844.309	0.35
844.479	-1.07
844.648	-1.45
844.817	-0.15
844.986	0.61
845.155	-0.39
845.324	0.11
845.493	0.15
845.662	-0.55
845.831	0.34
846	-0.04
846.169	-0.72
846.338	0.9
846.507	0.19
846.676	0.25
846.844	-0
847.013	0.64
847.182	-0.97
847.351	-1.06
847.52	0.02
847.689	0.58
847.858	-0.33
848.026	-0.67
848.195	-0.13
848.364	-0.5
848.533	-1
848.701	-0.09
848.87	-0.61
849.039	0.79
849.207	-0.12
849.376	0.38
849.545	1.62
849.713	-0.45
849.882	-1.76
850.051	-0.29
850.219	0.83
850.388	0.81
850.556	-0.88
850.725	-1.15
850.893	-0.35
851.062	-0.6
851.23	-0.43
851.399	-0.94
851.567	-0.75
851.736	-1.84
851.904	-1.57
852.073	0.13
852.241	-0.08
852.41	-0.32
852.578	0.21
852.746	-1.19
852.915	0.27
853.083	-0.02
853.251	-1.64
853.42	-1.15
853.588	-0.17
853.756	1.74
853.924	0.15
854.093	-0.37
854.261	-0.72
854.429	-1.81
854.597	-0.28
854.765	-1.53
854.934	0.7
855.102	0.53
855.27	-0.85
855.438	-0.3
855.606	-0.09
855.774	1.19
855.942	-1.96
856.11	-2.66
856.278	0.43
856.446	0.76
856.614	-0.16
856.782	-0.51
856.95	0.79
857.118	0.19
857.286	-0.65
857.454	-0.64
857.622	0.55
857.79	0.94
857.958	-1.87
858.126	-0.22
858.294	-2.62
858.462	-0.34
858.629	-0.95
858.797	-2.93
858.965	0.36
859.133	-0.83
859.301	0.21
859.468	0.46
859.636	-1.3
859.804	1.86
859.971	0.08
860.139	-0.82
860.307	-0.13
860.474	-0.02
860.642	-1.28
860.81	-0.51
860.977	-0.71
861.145	0.49
861.313	0.3
861.48	0.13
861.648	1.02
861.815	-0.33
861.983	-1.65
862.15	-0.77
862.318	1.22
862.485	0.71
862.653	-0.95
862.82	-2.14
862.988	1.86
863.155	0.91
863.322	-1.11
863.49	-1.76
863.657	-1.28
863.824	1.85
863.992	0.49
864.159	-0.22
864.326	0.84
864.494	-0.57
864.661	2.18
864.828	-2
864.996	1.02
865.163	2.93
865.33	-1.76
865.497	-2.32
865.664	-1.97
865.832	-1.22
865.999	-1.25
866.166	-0.58
866.333	-1.49
866.5	-0.86
866.667	0.49
866.834	-0.42
867.001	0.8
867.168	-2.8
867.335	-1.1
867.502	-2.83
867.669	0.29
867.836	1.57
868.003	-1.45
868.17	-0.32
868.337	-1.5
868.504	1.4
868.671	-2.46
868.838	-1.41
869.005	1.7
869.172	1.16
869.339	-1.09
869.505	-0.85
869.672	-1.51
869.839	0.78
870.006	0.25
870.173	-2.87
870.339	0.82
870.506	1.8
870.673	-1.25
870.84	2.22
871.006	-0.32
871.173	-0.24
871.34	-2.11
871.506	-1.8
871.673	-0.86
871.839	-1.91
872.006	-0.95
872.173	-1.76
872.339	-0.61
872.506	3.01
872.672	-1.22
872.839	-1.32
873.005	0.45
873.172	2.63
873.338	0.63
873.505	-0.56
873.671	1.27
873.838	-0.36
874.004	-2.56
874.171	-0.65
874.337	0.7
874.503	-0.23
874.67	-1.52
874.836	-0.59
875.002	1.95
875.169	1.25
875.335	0.41
875.501	-2.13
875.668	1.69
875.834	-2.1
876	-0.86
876.166	-0.15
876.332	0.75
876.499	4.18
876.665	-1.69
876.831	0.82
876.997	2.39
877.163	1.02
877.329	-0.66
877.495	-0.35
877.662	0.01
877.828	0.36
877.994	0.95
878.16	-4.27
878.326	-0.37
878.492	0.94
878.658	-1.04
878.824	-0.04
878.99	1.33
879.156	-0.6
879.322	3.02
879.487	-1.16
879.653	-0.17
879.819	0.48
879.985	-2.57
880.151	-0.34
880.317	-0.96
880.483	0.65
880.648	0.28
880.814	-2.3
880.98	-0.14
881.146	-3.42
881.312	-1.26
881.477	-0.38
881.643	-0.51
881.809	3.08
881.974	1.39
882.14	-2.95
882.306	0.05
882.471	3.54
882.637	-0.51
882.803	0.89
882.968	2.95
883.134	2.39
883.299	0.43
883.465	0.14
883.63	0.74
883.796	0.35
883.961	1.26
884.127	-0.21
884.292	-4.18
884.458	-1.7
884.623	-1.7
