Data from Apollo_Calib_20240827__AbsoluteIrradiance__304__04-13-00-069.txt Node

Date: Wed Aug 28 04:13:00 BST 2024
User: biology
Spectrometer: FLMT08252
Trigger mode: 0
Integration Time (sec): 5.000000E-1
Scans to average: 5
Electric dark correction enabled: true
Nonlinearity correction enabled: false
Boxcar width: 0
XAxis mode: Wavelengths
Number of Pixels in Spectrum: 3648
>>>>>Begin Spectral Data<<<<<
179.588	-0
179.809	-0
180.03	-0
180.251	-0
180.473	-0
180.694	0
180.915	0
181.136	-0
181.357	0
181.578	-0
181.799	-0
182.02	-0
182.241	-0
182.462	-0
182.683	0
182.904	-0
183.125	0
183.346	-0
183.567	-0
183.788	-0
184.009	-0
184.23	-0
184.451	0
184.672	-0
184.892	-0
185.113	0
185.334	0
185.555	-0
185.776	-0
185.996	0
186.217	0
186.438	-0
186.659	-0
186.879	0
187.1	-0
187.321	-0
187.541	-0
187.762	0
187.983	-0
188.203	-0
188.424	-0
188.644	-0
188.865	-0
189.086	-0
189.306	-0
189.527	-0
189.747	-0
189.968	-0
190.188	-0
190.409	0
190.629	0
190.849	-0
191.07	-0
191.29	0
191.511	0
191.731	-0
191.951	-0
192.172	0
192.392	-0
192.612	-0
192.833	-0
193.053	-0
193.273	0
193.493	-0
193.714	-0
193.934	0
194.154	0
194.374	-0
194.594	-0
194.815	-0
195.035	0
195.255	-0
195.475	-0
195.695	0
195.915	-0
196.135	-0
196.355	0
196.575	0
196.795	0
197.015	-0
197.235	-0
197.455	-0
197.675	0
197.895	-0
198.115	-0
198.335	0
198.555	-0
198.775	0
198.995	-0
199.214	0
199.434	-0
199.654	-0
199.874	-0
200.094	0.64
200.313	-0.58
200.533	-1.56
200.753	-1.44
200.973	0.34
201.192	-0.1
201.412	-1.23
201.632	-1.07
201.851	0.25
202.071	-0.54
202.291	-0.82
202.51	-0.9
202.73	0.38
202.95	-0.04
203.169	-0.94
203.389	-0.6
203.608	-0.33
203.828	-0.89
204.047	-0.57
204.267	-0.06
204.486	-0.63
204.706	0.32
204.925	-0.56
205.145	-0.39
205.364	0.37
205.583	0.29
205.803	-0.58
206.022	-0.99
206.242	-0.16
206.461	0.06
206.68	-0.6
206.9	-0.13
207.119	0.27
207.338	0.14
207.557	-0.54
207.777	-0.29
207.996	-0.15
208.215	0.22
208.434	-0.51
208.654	-0.67
208.873	-0.33
209.092	0.13
209.311	-0.44
209.53	-0.1
209.749	-0.28
209.968	-0.28
210.187	-0.55
210.407	-0.68
210.626	-0.59
210.845	0.07
211.064	-0.35
211.283	-0.38
211.502	0.08
211.721	-0.07
211.94	-0.07
212.159	0.09
212.377	0.3
212.596	0.32
212.815	-0.06
213.034	0.08
213.253	0.26
213.472	0.18
213.691	-0.2
213.91	-0.43
214.128	-0.32
214.347	0.26
214.566	-0.43
214.785	-0.43
215.003	0.03
215.222	-0.02
215.441	-0.31
215.66	-0.54
215.878	-0.06
216.097	-0.01
216.316	-0.45
216.534	-0.23
216.753	0.01
216.972	-0.11
217.19	-0.14
217.409	-0.26
217.627	-0.19
217.846	-0.15
218.064	-0.26
218.283	-0.27
218.501	0.31
218.72	0.12
218.938	-0.36
219.157	-0.26
219.375	0.15
219.594	0.03
219.812	-0.3
220.031	-0.28
220.249	0.36
220.467	0.29
220.686	-0.17
220.904	-0.46
221.122	-0.24
221.341	0.14
221.559	-0.11
221.777	-0.33
221.995	-0.11
222.214	0.06
222.432	-0.19
222.65	-0.02
222.868	0.11
223.086	0.02
223.305	0.02
223.523	-0.13
223.741	0.32
223.959	-0.25
224.177	-0.32
224.395	-0.19
224.613	-0.04
224.831	0.12
225.049	-0.15
225.267	-0.33
225.485	-0.02
225.703	-0.19
225.921	-0.18
226.139	-0.17
226.357	0
226.575	0.02
226.793	-0.19
227.011	0.55
227.229	0.03
227.447	0.15
227.665	-0.12
227.883	-0.33
228.1	-0.14
228.318	-0.01
228.536	-0.36
228.754	-0.24
228.972	0.07
229.189	-0.05
229.407	-0.1
229.625	-0.12
229.843	0.13
230.06	-0.03
230.278	-0.22
230.496	-0.21
230.713	-0.07
230.931	0.19
231.149	-0.2
231.366	-0.31
231.584	-0.12
231.801	0.3
232.019	-0.09
232.236	-0.34
232.454	-0.26
232.671	-0.07
232.889	-0.11
233.106	-0.26
233.324	-0.13
233.541	-0.04
233.759	-0.05
233.976	-0.25
234.194	0.04
234.411	0.01
234.628	-0.17
234.846	-0.15
235.063	-0.07
235.28	-0.07
235.498	-0.12
235.715	-0.21
235.932	0.13
236.149	-0.03
236.367	-0.12
236.584	-0.11
236.801	-0.16
237.018	0.03
237.236	-0.12
237.453	-0.25
237.67	0.05
237.887	-0.05
238.104	-0.12
238.321	-0.22
238.538	-0.13
238.755	0.01
238.973	-0.19
239.19	-0.07
239.407	-0.02
239.624	0.02
239.841	-0.24
240.058	-0.22
240.275	0.04
240.492	-0.09
240.709	-0
240.925	-0.1
241.142	-0.03
241.359	-0.18
241.576	-0.17
241.793	-0.14
242.01	-0.09
242.227	0.03
242.444	-0.03
242.66	0.02
242.877	-0.02
243.094	-0.18
243.311	-0.06
243.527	-0.15
243.744	-0.07
243.961	0.04
244.178	-0.24
244.394	-0.02
244.611	0.05
244.828	0.04
245.044	-0.21
245.261	-0.12
245.477	-0.02
245.694	-0.05
245.911	-0.17
246.127	-0.06
246.344	0.16
246.56	0.01
246.777	-0.13
246.993	-0.08
247.21	-0.02
247.426	-0.07
247.643	-0.15
247.859	-0.08
248.076	-0.15
248.292	0.17
248.508	-0.14
248.725	-0.04
248.941	0.01
249.157	0.1
249.374	-0.18
249.59	-0.08
249.806	-0.01
250.023	-0.07
250.239	-0.13
250.455	-0.14
250.671	0.03
250.888	-0.03
251.104	-0
251.32	-0.12
251.536	0.02
251.752	-0.1
251.969	-0.11
252.185	-0.09
252.401	0.18
252.617	-0.02
252.833	-0.14
253.049	-0.08
253.265	-0
253.481	0.03
253.697	-0.05
253.913	-0.11
254.129	0.01
254.345	-0.04
254.561	-0.11
254.777	-0.05
254.993	-0.04
255.209	-0
255.425	-0.04
255.641	-0.19
255.857	0.07
256.073	-0.04
256.288	-0.09
256.504	-0.11
256.72	-0.04
256.936	0.1
257.152	-0.08
257.367	-0.12
257.583	-0.05
257.799	0.07
258.015	-0.14
258.23	-0.08
258.446	0.06
258.662	-0.02
258.877	-0.13
259.093	-0.1
259.309	-0.06
259.524	-0.01
259.74	-0.04
259.955	-0.2
260.171	0.03
260.387	-0.07
260.602	0.01
260.818	-0.07
261.033	-0.13
261.249	-0.01
261.464	-0.05
261.68	-0.12
261.895	-0.03
262.11	0.01
262.326	-0.15
262.541	-0.16
262.757	-0.04
262.972	0.02
263.187	-0.01
263.403	-0.01
263.618	0.04
263.833	0.02
264.049	-0.16
264.264	-0.12
264.479	0.03
264.694	0.09
264.91	-0.08
265.125	-0.1
265.34	0
265.555	0.07
265.77	-0.02
265.986	-0.07
266.201	0.04
266.416	0.03
266.631	-0.05
266.846	-0.06
267.061	-0.01
267.276	0.04
267.491	-0.15
267.706	-0.02
267.921	-0.05
268.136	-0.04
268.351	-0.02
268.566	-0.12
268.781	0.06
268.996	-0.03
269.211	-0.05
269.426	-0.12
269.641	-0.04
269.856	0
270.071	-0.09
270.285	-0.14
270.5	0.02
270.715	-0.05
270.93	-0.09
271.145	0.02
271.359	-0.01
271.574	-0.11
271.789	-0.06
272.004	-0.06
272.218	-0.05
272.433	0.01
272.648	-0.06
272.862	0.01
273.077	-0.07
273.292	-0.03
273.506	-0.14
273.721	-0.04
273.936	-0.04
274.15	0.04
274.365	-0.1
274.579	-0.03
274.794	-0.02
275.008	0.05
275.223	-0.19
275.437	-0.01
275.652	0.03
275.866	0.04
276.081	-0.02
276.295	0
276.509	0.02
276.724	-0.04
276.938	-0.02
277.153	-0.03
277.367	0.05
277.581	-0.08
277.796	-0.05
278.01	-0.11
278.224	0.02
278.438	0.1
278.653	-0.05
278.867	-0.08
279.081	0.05
279.295	-0.06
279.51	0.04
279.724	-0.11
279.938	0
280.152	0.06
280.366	-0.1
280.58	-0.02
280.794	0.07
281.008	0.08
281.222	0
281.437	0.11
281.651	0
281.865	-0.02
282.079	-0.05
282.293	-0.14
282.507	-0.09
282.721	-0.01
282.935	-0.07
283.148	-0.16
283.362	-0.04
283.576	-0.11
283.79	-0.02
284.004	-0.1
284.218	0.08
284.432	-0.04
284.646	-0.04
284.859	-0.05
285.073	-0.01
285.287	-0.05
285.501	-0.04
285.714	-0.02
285.928	-0.03
286.142	0.02
286.356	-0.07
286.569	-0.08
286.783	-0
286.997	0
287.21	0.01
287.424	-0.03
287.637	-0.05
287.851	-0.11
288.065	0.06
288.278	-0.07
288.492	-0.02
288.705	-0.02
288.919	0.01
289.132	-0.13
289.346	0.04
289.559	-0.11
289.773	-0.09
289.986	-0.05
290.2	0.02
290.413	0.11
290.626	-0.11
290.84	-0.04
291.053	-0.01
291.267	0.03
291.48	-0.02
291.693	-0.04
291.906	-0.07
292.12	0
292.333	-0.05
292.546	-0.05
292.76	0.01
292.973	-0.03
293.186	-0
293.399	-0.04
293.612	0.02
293.826	-0.03
294.039	-0.02
294.252	0.01
294.465	-0.01
294.678	-0.01
294.891	-0.03
295.104	-0.04
295.317	-0.03
295.53	-0.02
295.743	-0.06
295.956	-0.05
296.169	0.08
296.382	0.03
296.595	-0.02
296.808	-0.05
297.021	0.07
297.234	0.04
297.447	-0.06
297.66	-0.03
297.873	0.02
298.086	-0.03
298.299	-0.05
298.511	-0.08
298.724	-0
298.937	-0.06
299.15	-0.09
299.363	-0.05
299.575	0.02
299.788	0.01
300.001	0
300.213	-0.11
300.426	-0.06
300.639	-0.04
300.852	-0.04
301.064	0.03
301.277	0.06
301.489	0.04
301.702	-0.01
301.915	-0.03
302.127	-0.02
302.34	0
302.552	0.05
302.765	-0.07
302.977	0.07
303.19	-0.03
303.402	-0.01
303.615	-0.04
303.827	-0.04
304.04	-0.02
304.252	-0.01
304.464	-0.01
304.677	0.1
304.889	0.07
305.102	-0.08
305.314	-0.05
305.526	0.04
305.739	0.03
305.951	-0.04
306.163	-0.04
306.375	0.07
306.588	-0.04
306.8	-0.05
307.012	-0.02
307.224	-0.02
307.436	0.08
307.649	-0.1
307.861	-0.08
308.073	0.02
308.285	-0.04
308.497	-0.06
308.709	-0.07
308.921	-0.02
309.133	0.02
309.346	-0.02
309.558	-0.03
309.77	0
309.982	-0
310.194	0.06
310.406	-0.09
310.617	0.03
310.829	0.02
311.041	-0.01
311.253	-0.09
311.465	-0.05
311.677	-0.02
311.889	-0.02
312.101	-0.01
312.313	0.06
312.524	0.07
312.736	-0.1
312.948	-0.05
313.16	0.07
313.372	0.04
313.583	0
313.795	-0.02
314.007	-0.07
314.218	-0.02
314.43	-0.02
314.642	-0.05
314.853	-0.11
315.065	-0.02
315.277	-0.04
315.488	0.05
315.7	0.03
315.912	0.03
316.123	-0.02
316.335	-0.08
316.546	0.09
316.758	-0.03
316.969	-0.06
317.181	-0.01
317.392	-0.03
317.604	-0.01
317.815	-0.02
318.026	-0.04
318.238	-0.07
318.449	-0
318.661	-0.08
318.872	-0.12
319.083	-0.06
319.295	-0.02
319.506	-0.06
319.717	0
319.929	0
320.14	0
320.351	-0.02
320.562	-0.08
320.774	0
320.985	-0.04
321.196	-0.09
321.407	-0.09
321.618	0
321.829	0.05
322.041	0
322.252	-0.05
322.463	0.02
322.674	-0.06
322.885	-0.1
323.096	-0.05
323.307	-0.02
323.518	-0.04
323.729	-0.09
323.94	-0.07
324.151	-0.05
324.362	0.05
324.573	-0
324.784	-0.03
324.995	0.08
325.206	-0.01
325.417	-0.04
325.628	-0.05
325.838	0
326.049	0.04
326.26	0.01
326.471	-0.05
326.682	0.02
326.892	0
327.103	-0.07
327.314	-0.06
327.525	0.04
327.735	0.02
327.946	-0.07
328.157	-0.08
328.368	0.01
328.578	-0.03
328.789	-0.02
328.999	-0.02
329.21	-0.07
329.421	0.03
329.631	-0.04
329.842	-0.07
330.052	-0.02
330.263	0.02
330.473	0
330.684	-0.08
330.894	-0.01
331.105	0.01
331.315	-0.02
331.526	-0.1
331.736	0.05
331.947	-0.01
332.157	0
332.367	-0.06
332.578	0.01
332.788	0.04
332.999	-0.03
333.209	0
333.419	-0.08
333.629	0.01
333.84	-0.02
334.05	-0.02
334.26	0.08
334.47	0.01
334.681	0.05
334.891	-0.08
335.101	-0.01
335.311	0.1
335.521	-0
335.732	-0.09
335.942	0.04
336.152	0.02
336.362	-0.01
336.572	-0.01
336.782	0.03
336.992	-0.05
337.202	-0.05
337.412	-0.04
337.622	0
337.832	-0.01
338.042	-0.03
338.252	-0.08
338.462	-0.03
338.672	-0.01
338.882	-0.06
339.092	0.01
339.302	0.07
339.511	-0.04
339.721	-0.04
339.931	-0.06
340.141	0.03
340.351	0.06
340.561	-0.01
340.77	-0.03
340.98	-0
341.19	0.01
341.4	-0.04
341.609	-0.09
341.819	-0.01
342.029	-0.08
342.238	0.01
342.448	-0.05
342.658	0.03
342.867	-0.04
343.077	-0.01
343.286	0.03
343.496	-0.03
343.706	0.05
343.915	-0.06
344.125	-0.03
344.334	0.01
344.544	-0.06
344.753	-0.05
344.963	-0.08
345.172	-0.03
345.381	-0.09
345.591	-0.05
345.8	-0.01
346.01	0.06
346.219	0.02
346.428	-0.14
346.638	-0.03
346.847	-0.02
347.056	-0.01
347.266	-0.06
347.475	-0.04
347.684	-0.01
347.893	0.04
348.103	-0.04
348.312	-0.05
348.521	-0.02
348.73	0.02
348.94	0.01
349.149	-0.04
349.358	-0.02
349.567	-0.05
349.776	-0.09
349.985	-0.05
350.194	0.05
350.403	0.06
350.612	-0.07
350.821	-0.04
351.03	-0.02
351.239	-0.09
351.448	-0.03
351.657	-0.06
351.866	0.06
352.075	-0.01
352.284	-0.01
352.493	-0.04
352.702	0.03
352.911	0.02
353.12	-0.02
353.329	-0.02
353.538	-0
353.746	-0.01
353.955	-0.09
354.164	-0.02
354.373	-0.06
354.582	-0.02
354.79	-0.01
354.999	0.02
355.208	0.01
355.416	0.03
355.625	-0.07
355.834	-0.05
356.042	-0.04
356.251	-0.05
356.46	0.01
356.668	0
356.877	0.05
357.085	0.03
357.294	-0.09
357.503	0
357.711	0.01
357.92	0.14
358.128	-0.05
358.337	-0.01
358.545	0
358.754	-0.03
358.962	0.02
359.17	-0.04
359.379	-0.02
359.587	-0
359.796	-0.02
360.004	0.02
360.212	-0.03
360.421	0.05
360.629	-0.03
360.837	-0
361.046	-0.01
361.254	0.08
361.462	-0.01
361.67	-0.02
361.879	-0.03
362.087	0.01
362.295	-0.01
362.503	-0.05
362.711	-0.07
362.92	-0.03
363.128	-0.03
363.336	-0.04
363.544	-0.07
363.752	-0.03
363.96	-0.07
364.168	-0.05
364.376	-0.01
364.584	0.01
364.792	0.04
365	0
365.208	-0.03
365.416	-0
365.624	0.02
365.832	-0.05
366.04	0.03
366.248	0.04
366.456	-0.05
366.664	-0.01
366.872	-0.01
367.079	-0.01
367.287	-0.03
367.495	-0.02
367.703	-0.01
367.911	-0.04
368.118	0.01
368.326	-0.02
368.534	-0.04
368.742	0.02
368.949	-0.09
369.157	-0.06
369.365	-0.01
369.572	-0.06
369.78	-0.07
369.988	0.01
370.195	-0.01
370.403	0.02
370.61	-0.04
370.818	-0
371.026	0.05
371.233	-0.07
371.441	0.01
371.648	-0.05
371.856	-0.01
372.063	-0.04
372.271	-0.02
372.478	-0.05
372.685	-0.07
372.893	0.04
373.1	-0.03
373.308	-0.05
373.515	0.02
373.722	0.01
373.93	-0.03
374.137	0.01
374.344	0.04
374.552	0.05
374.759	-0
374.966	-0.08
375.173	-0.03
375.381	0.03
375.588	0.01
375.795	-0.08
376.002	-0.06
376.209	-0.03
376.417	-0.06
376.624	-0.06
376.831	0.02
377.038	-0
377.245	-0.11
377.452	-0.02
377.659	-0.03
377.866	-0.06
378.073	-0.03
378.28	-0.04
378.487	0.04
378.694	0.03
378.901	-0.03
379.108	0.02
379.315	0.01
379.522	0.06
379.729	-0.02
379.936	-0.01
380.143	0
380.35	-0.03
380.557	-0.02
380.763	-0.02
380.97	-0
381.177	-0.01
381.384	-0.03
381.591	-0.05
381.797	0
382.004	0.03
382.211	-0.03
382.418	-0.02
382.624	-0.01
382.831	0.03
383.038	-0.05
383.244	0.02
383.451	-0.03
383.658	0.01
383.864	-0.01
384.071	-0.07
384.277	0.02
384.484	-0.04
384.69	-0.01
384.897	-0.03
385.103	-0.03
385.31	-0.05
385.516	0
385.723	-0.05
385.929	-0.04
386.136	-0.01
386.342	-0
386.549	-0.08
386.755	0.01
386.961	-0
387.168	-0.08
387.374	0.02
387.58	0
387.787	0.02
387.993	-0.01
388.199	-0.03
388.406	-0.06
388.612	-0.02
388.818	-0.04
389.024	-0.03
389.231	-0.06
389.437	0.07
389.643	0.03
389.849	-0.03
390.055	0.02
390.261	-0.03
390.467	-0.04
390.674	-0.09
390.88	-0.04
391.086	-0.02
391.292	-0.07
391.498	-0.01
391.704	-0.03
391.91	-0.04
392.116	-0.09
392.322	-0.13
392.528	0.04
392.734	-0.02
392.94	0.01
393.146	-0.08
393.352	-0.01
393.557	-0
393.763	-0.02
393.969	0.01
394.175	-0.03
394.381	0.03
394.587	-0.07
394.792	-0.05
394.998	0.04
395.204	0.06
395.41	-0.05
395.615	0.01
395.821	0.01
396.027	0
396.233	-0.05
396.438	-0.01
396.644	0.04
396.85	-0.02
397.055	-0.06
397.261	-0.03
397.466	-0
397.672	-0
397.878	-0.04
398.083	-0.05
398.289	-0.05
398.494	0.02
398.7	-0
398.905	-0.14
399.111	0.05
399.316	-0.1
399.522	-0.02
399.727	-0
399.932	-0.02
400.138	-0.03
400.343	0.02
400.549	-0.02
400.754	-0.04
400.959	-0.01
401.165	-0.03
401.37	0.01
401.575	0.07
401.78	-0
401.986	-0.07
402.191	-0.07
402.396	-0.03
402.601	-0.02
402.807	0.01
403.012	-0.02
403.217	0.02
403.422	0.01
403.627	-0.02
403.832	-0.07
404.037	0.03
404.243	-0.01
404.448	-0.05
404.653	-0.02
404.858	-0
405.063	0.02
405.268	-0.08
405.473	-0.05
405.678	-0.08
405.883	0.11
406.088	0.02
406.293	-0.09
406.498	-0.02
406.703	0.02
406.907	-0.01
407.112	-0.07
407.317	-0.06
407.522	-0.01
407.727	-0.08
407.932	0.01
408.136	0.06
408.341	-0.03
408.546	-0.03
408.751	-0.02
408.956	-0.02
409.16	0
409.365	-0.05
409.57	-0.05
409.774	-0.02
409.979	0.03
410.184	0.01
410.388	-0.08
410.593	0.01
410.798	-0.04
411.002	-0.09
411.207	0.01
411.411	-0.02
411.616	-0.1
411.82	-0.03
412.025	0.03
412.229	-0.07
412.434	0.06
412.638	0.01
412.843	-0.05
413.047	0.01
413.252	-0.07
413.456	-0.05
413.66	0.01
413.865	-0.02
414.069	0
414.273	-0.05
414.478	-0.06
414.682	-0.05
414.886	-0.06
415.091	-0.13
415.295	-0.08
415.499	-0.02
415.703	-0.07
415.908	0.02
416.112	-0.13
416.316	-0
416.52	-0.05
416.724	-0.07
416.929	-0.07
417.133	0.1
417.337	0.01
417.541	-0.08
417.745	-0.07
417.949	0.01
418.153	-0
418.357	-0.07
418.561	0.06
418.765	-0.01
418.969	0.08
419.173	0.02
419.377	-0.02
419.581	0.05
419.785	-0.02
419.989	-0.05
420.193	-0.04
420.397	-0.04
420.601	0.04
420.804	0.03
421.008	-0.04
421.212	0.01
421.416	-0
421.62	-0.04
421.823	0.03
422.027	0.12
422.231	0.05
422.435	0
422.638	-0.01
422.842	-0.03
423.046	-0.07
423.249	-0.01
423.453	0.05
423.657	0
423.86	-0
424.064	-0.01
424.268	0.1
424.471	0.06
424.675	0.14
424.878	0.11
425.082	0.03
425.285	0.06
425.489	0.05
425.692	0.04
425.896	-0.05
426.099	0.04
426.303	-0
426.506	-0.05
426.71	0.03
426.913	0.11
427.116	0.07
427.32	0.05
427.523	0.01
427.726	0.12
427.93	0
428.133	0.03
428.336	-0.05
428.54	-0.02
428.743	0.03
428.946	0.07
429.149	-0.01
429.353	0.02
429.556	0.01
429.759	0.03
429.962	0.06
430.165	0.06
430.368	0.04
430.571	0.01
430.775	0.08
430.978	0.03
431.181	0.07
431.384	0.05
431.587	0.04
431.79	0.04
431.993	-0.04
432.196	0.07
432.399	0.05
432.602	0.17
432.805	0.05
433.008	0.09
433.211	0.02
433.414	0.11
433.616	0.13
433.819	0.06
434.022	-0.03
434.225	0.15
434.428	0.13
434.631	0.21
434.833	0.09
435.036	0.07
435.239	0.15
435.442	0.1
435.645	0.08
435.847	0.13
436.05	0.16
436.253	0.08
436.455	0.05
436.658	0.13
436.861	0.23
437.063	0.1
437.266	0.12
437.468	0.17
437.671	0.28
437.874	0.15
438.076	0.11
438.279	0.1
438.481	0.13
438.684	0.15
438.886	0.2
439.089	0.11
439.291	0.21
439.494	0.24
439.696	0.15
439.899	0.13
440.101	0.23
440.303	0.13
440.506	0.27
440.708	0.21
440.91	0.29
441.113	0.2
441.315	0.3
441.517	0.14
441.72	0.34
441.922	0.22
442.124	0.26
442.326	0.33
442.529	0.39
442.731	0.29
442.933	0.37
443.135	0.34
443.337	0.3
443.539	0.29
443.742	0.31
443.944	0.36
444.146	0.29
444.348	0.31
444.55	0.33
444.752	0.32
444.954	0.29
445.156	0.34
445.358	0.34
445.56	0.42
445.762	0.39
445.964	0.38
446.166	0.36
446.368	0.41
446.57	0.5
446.772	0.45
446.974	0.37
447.175	0.43
447.377	0.4
447.579	0.45
447.781	0.35
447.983	0.49
448.184	0.45
448.386	0.47
448.588	0.34
448.79	0.45
448.991	0.4
449.193	0.47
449.395	0.41
449.597	0.47
449.798	0.47
450	0.43
450.202	0.42
450.403	0.39
450.605	0.45
450.806	0.32
451.008	0.3
451.21	0.39
451.411	0.41
451.613	0.35
451.814	0.36
452.016	0.4
452.217	0.33
452.419	0.4
452.62	0.31
452.821	0.3
453.023	0.35
453.224	0.35
453.426	0.29
453.627	0.3
453.828	0.32
454.03	0.25
454.231	0.31
454.432	0.26
454.634	0.36
454.835	0.21
455.036	0.19
455.238	0.31
455.439	0.28
455.64	0.14
455.841	0.18
456.042	0.35
456.244	0.23
456.445	0.14
456.646	0.15
456.847	0.15
457.048	0.2
457.249	0.22
457.45	0.44
457.651	0.11
457.852	0.22
458.054	0.14
458.255	0.1
458.456	0.18
458.657	0.12
458.858	0.11
459.058	0.13
459.259	0.17
459.46	0.15
459.661	0.09
459.862	0.3
460.063	0.12
460.264	0.19
460.465	0.08
460.666	0.27
460.866	0.11
461.067	0.07
461.268	0.08
461.469	0.07
461.67	0.09
461.87	0.09
462.071	0.06
462.272	0.04
462.473	0.08
462.673	0.13
462.874	0.02
463.075	0.05
463.275	0.01
463.476	0.1
463.676	0.13
463.877	0.07
464.078	0.03
464.278	0.1
464.479	0.06
464.679	0.08
464.88	0.07
465.08	0.15
465.281	0.02
465.481	0.04
465.682	0.08
465.882	0.09
466.083	0.07
466.283	0.07
466.483	0.05
466.684	-0.02
466.884	0.05
467.085	0.06
467.285	0.09
467.485	0.03
467.686	0.06
467.886	-0.01
468.086	0.04
468.286	0.06
468.487	0.04
468.687	-0.01
468.887	0.05
469.087	0.05
469.287	0.06
469.488	0
469.688	0.07
469.888	0.03
470.088	0.04
470.288	0.05
470.488	0.07
470.688	-0
470.888	-0
471.088	-0.03
471.288	0.05
471.488	0.03
471.688	0
471.888	-0.02
472.088	0.03
472.288	0.06
472.488	-0.03
472.688	0.01
472.888	0.03
473.088	0.04
473.288	0.02
473.488	0
473.688	0.13
473.887	-0.01
474.087	-0.01
474.287	0
474.487	0.03
474.687	0.02
474.886	-0.01
475.086	0.02
475.286	0.02
475.486	0
475.685	0.03
475.885	0.01
476.085	0.03
476.284	0.03
476.484	-0.01
476.684	0.06
476.883	0.07
477.083	-0.04
477.282	-0.03
477.482	0.07
477.681	0.05
477.881	0.04
478.08	-0.05
478.28	-0.06
478.479	0.01
478.679	0.08
478.878	-0.01
479.078	-0.01
479.277	-0.02
479.477	-0.04
479.676	0.07
479.875	-0.01
480.075	-0.07
480.274	0.01
480.473	0
480.673	-0.04
480.872	0.02
481.071	0
481.271	0.02
481.47	-0
481.669	-0.01
481.868	0.01
482.067	-0.04
482.267	-0.02
482.466	-0.04
482.665	-0.02
482.864	-0.04
483.063	-0.06
483.262	0.04
483.461	0.05
483.661	0.01
483.86	-0.02
484.059	0
484.258	-0.01
484.457	0.01
484.656	-0
484.855	0.03
485.054	-0.08
485.253	-0.04
485.452	-0.03
485.651	-0
485.849	-0.03
486.048	-0.01
486.247	-0.04
486.446	-0.01
486.645	-0.04
486.844	-0.04
487.043	-0.03
487.241	0.02
487.44	-0.05
487.639	0.01
487.838	0.02
488.037	0
488.235	0.04
488.434	-0.03
488.633	-0.04
488.831	0.02
489.03	0.01
489.229	0
489.427	-0.02
489.626	0.04
489.825	0.06
490.023	-0.01
490.222	-0.02
490.42	0.01
490.619	0.04
490.817	0.02
491.016	-0.02
491.214	0.02
491.413	-0.03
491.611	0
491.81	-0.01
492.008	0.02
492.207	0
492.405	-0.01
492.604	-0.04
492.802	-0.03
493	0.01
493.199	-0.03
493.397	-0.01
493.595	-0.01
493.794	-0.03
493.992	0.03
494.19	-0.05
494.388	0
494.587	-0.03
494.785	-0
494.983	-0.05
495.181	-0
495.379	-0.01
495.578	-0.04
495.776	0.01
495.974	-0.01
496.172	0
496.37	-0.04
496.568	-0.06
496.766	-0.03
496.964	0.01
497.162	-0.02
497.36	-0.06
497.558	0.02
497.756	0.01
497.954	-0.01
498.152	-0.03
498.35	-0.02
498.548	-0.02
498.746	-0
498.944	-0.03
499.142	-0.04
499.34	-0.02
499.538	-0.01
499.736	-0.02
499.933	0.02
500.131	0.01
500.329	-0.01
500.527	0
500.725	0.05
500.922	-0
501.12	-0.03
501.318	0
501.516	-0.06
501.713	-0
501.911	-0.01
502.109	-0.04
502.306	-0.01
502.504	-0.02
502.701	-0.01
502.899	-0.01
503.097	0.03
503.294	0.01
503.492	-0.03
503.689	0.01
503.887	0.02
504.084	0.05
504.282	0
504.479	-0.05
504.677	0
504.874	-0.04
505.072	-0.03
505.269	-0.01
505.466	0.01
505.664	0.02
505.861	-0.07
506.059	-0.04
506.256	0.02
506.453	-0.04
506.651	0.01
506.848	0.02
507.045	-0.02
507.242	-0
507.44	-0
507.637	0.01
507.834	-0.01
508.031	0.03
508.229	-0.05
508.426	-0.01
508.623	0.01
508.82	-0.03
509.017	-0.03
509.214	-0.01
509.411	0.02
509.608	-0.03
509.805	-0.03
510.003	-0.02
510.2	-0.04
510.397	0.02
510.594	-0.03
510.791	-0.03
510.988	-0.02
511.184	0.02
511.381	-0.03
511.578	-0.04
511.775	0.04
511.972	-0.01
512.169	-0.03
512.366	-0.01
512.563	-0
512.76	-0.04
512.956	-0.03
513.153	-0.04
513.35	-0
513.547	-0.03
513.744	-0.03
513.94	-0.04
514.137	0.01
514.334	-0
514.53	-0.02
514.727	0.01
514.924	0.03
515.12	-0.03
515.317	-0.04
515.514	-0.03
515.71	-0.02
515.907	-0.04
516.103	-0.03
516.3	-0.01
516.497	0.03
516.693	0.02
516.89	-0.02
517.086	-0.03
517.283	0.03
517.479	-0.02
517.676	-0.02
517.872	0
518.068	-0.03
518.265	-0.01
518.461	-0.03
518.658	-0.05
518.854	-0.01
519.05	-0.02
519.247	-0.03
519.443	0.03
519.639	-0.01
519.836	-0
520.032	-0.02
520.228	0
520.424	0.04
520.621	-0
520.817	-0
521.013	-0
521.209	0.01
521.405	0.03
521.601	0.01
521.798	0
521.994	0.06
522.19	-0.05
522.386	-0.05
522.582	-0.02
522.778	-0.02
522.974	-0.04
523.17	0.01
523.366	0
523.562	0.04
523.758	-0.02
523.954	-0.02
524.15	-0.04
524.346	0
524.542	-0.03
524.738	-0.04
524.934	-0.01
525.129	-0.01
525.325	-0.01
525.521	-0.01
525.717	0.02
525.913	-0.03
526.109	-0
526.304	-0.01
526.5	-0.01
526.696	0.01
526.892	-0.01
527.087	0
527.283	-0.03
527.479	0
527.674	-0.04
527.87	-0.02
528.066	-0.03
528.261	0.01
528.457	-0
528.653	-0.04
528.848	-0.03
529.044	-0
529.239	-0
529.435	0.02
529.63	0.01
529.826	0.05
530.021	0
530.217	0
530.412	-0
530.608	-0.04
530.803	-0.02
530.999	-0.01
531.194	-0.05
531.389	-0
531.585	-0.08
531.78	-0.02
531.975	0
532.171	0.02
532.366	-0.01
532.561	-0.02
532.757	-0.02
532.952	-0
533.147	-0.02
533.342	-0.01
533.538	-0.03
533.733	0.04
533.928	0
534.123	-0.03
534.318	-0.04
534.513	-0
534.709	0
534.904	-0.03
535.099	-0.02
535.294	-0.03
535.489	0
535.684	-0.01
535.879	-0.05
536.074	-0.02
536.269	-0.03
536.464	0.01
536.659	-0.02
536.854	-0.02
537.049	-0.02
537.244	-0.02
537.439	-0.02
537.634	0.02
537.828	0
538.023	-0.01
538.218	-0.06
538.413	-0.01
538.608	-0.06
538.803	0
538.997	-0.06
539.192	0.02
539.387	-0
539.582	0.01
539.776	0
539.971	-0.02
540.166	-0.01
540.36	-0.04
540.555	-0.02
540.75	-0.02
540.944	0
541.139	-0.07
541.334	-0.03
541.528	0
541.723	-0.01
541.917	-0.02
542.112	-0.06
542.306	-0.03
542.501	-0.02
542.695	-0.02
542.89	-0.02
543.084	-0.02
543.279	-0.03
543.473	-0.05
543.668	-0
543.862	-0.01
544.056	0.01
544.251	-0.03
544.445	-0.01
544.64	-0.02
544.834	-0.04
545.028	-0.01
545.222	-0.02
545.417	0.01
545.611	-0.02
545.805	-0.02
546	-0.03
546.194	-0.04
546.388	-0.03
546.582	-0
546.776	-0.02
546.97	-0.02
547.165	0.01
547.359	-0.01
547.553	-0.04
547.747	-0.01
547.941	-0.02
548.135	-0.02
548.329	-0.01
548.523	0.01
548.717	-0.03
548.911	-0.03
549.105	-0.01
549.299	-0.04
549.493	-0
549.687	0
549.881	-0.01
550.075	0
550.269	-0.05
550.463	-0
550.657	-0.04
550.85	-0.01
551.044	-0.04
551.238	-0
551.432	-0.03
551.626	-0.06
551.82	-0
552.013	-0.03
552.207	-0.02
552.401	0.03
552.594	0
552.788	0
552.982	-0.01
553.176	-0.05
553.369	0.02
553.563	-0.01
553.756	-0.05
553.95	-0.04
554.144	-0
554.337	0.01
554.531	-0.03
554.724	-0.02
554.918	-0.02
555.111	0.01
555.305	-0.02
555.498	0.03
555.692	-0
555.885	-0.04
556.079	-0.01
556.272	-0.01
556.466	0.02
556.659	-0.02
556.852	-0.01
557.046	-0.03
557.239	0.02
557.432	-0.06
557.626	-0.04
557.819	-0.02
558.012	0.04
558.206	-0.01
558.399	-0.01
558.592	-0.01
558.785	0
558.979	0.02
559.172	-0.02
559.365	0.02
559.558	-0.01
559.751	-0.03
559.944	0
560.138	-0.02
560.331	-0.03
560.524	-0.04
560.717	-0.02
560.91	-0.01
561.103	0
561.296	0.01
561.489	-0.01
561.682	-0.02
561.875	0.03
562.068	-0.01
562.261	-0
562.454	0.04
562.647	0
562.84	0.01
563.032	-0.01
563.225	-0.02
563.418	-0.02
563.611	-0.03
563.804	-0.02
563.997	-0.04
564.19	-0.05
564.382	-0
564.575	-0.02
564.768	-0.02
564.961	-0.01
565.153	-0.04
565.346	0.02
565.539	-0.01
565.731	0.01
565.924	0.04
566.117	0.02
566.309	-0
566.502	-0.04
566.695	0
566.887	-0.03
567.08	-0.04
567.272	-0.02
567.465	-0.06
567.657	-0.02
567.85	0.02
568.042	-0
568.235	0.01
568.427	-0.01
568.62	-0.04
568.812	-0.02
569.005	-0.01
569.197	-0.05
569.389	-0.01
569.582	-0.01
569.774	-0.01
569.966	-0.06
570.159	-0.07
570.351	-0.02
570.543	-0.01
570.736	-0.03
570.928	-0.03
571.12	-0.02
571.312	-0.03
571.505	-0.04
571.697	0
571.889	-0.04
572.081	-0.01
572.273	-0.06
572.465	0.03
572.658	-0.02
572.85	0
573.042	-0.04
573.234	-0.02
573.426	0.04
573.618	-0.04
573.81	-0.01
574.002	0.04
574.194	0.04
574.386	-0.05
574.578	-0.08
574.77	-0.04
574.962	-0.01
575.154	-0.07
575.346	-0.02
575.538	-0.01
575.729	-0.03
575.921	-0.04
576.113	-0.04
576.305	0.03
576.497	-0.04
576.689	-0.03
576.88	-0.03
577.072	0.01
577.264	-0.02
577.456	-0.02
577.647	-0.11
577.839	-0.02
578.031	0.04
578.223	-0.04
578.414	-0.07
578.606	0.02
578.798	-0
578.989	-0.04
579.181	-0.03
579.372	0
579.564	-0.02
579.755	-0.02
579.947	0
580.139	0.01
580.33	-0.04
580.522	-0.02
580.713	-0.08
580.905	-0.02
581.096	-0
581.287	-0.04
581.479	-0.02
581.67	0.01
581.862	-0.01
582.053	-0.02
582.244	-0.06
582.436	-0.02
582.627	0
582.818	-0.03
583.01	-0.08
583.201	0.02
583.392	0.01
583.583	-0.04
583.775	-0.04
583.966	-0.05
584.157	-0.03
584.348	-0.04
584.54	-0.07
584.731	-0
584.922	-0.02
585.113	-0.05
585.304	-0
585.495	0.02
585.686	0.01
585.877	0.01
586.068	-0.02
586.259	0.01
586.45	0
586.641	-0.05
586.832	-0.08
587.023	-0.01
587.214	-0.03
587.405	-0.01
587.596	-0.05
587.787	-0
587.978	0.01
588.169	-0.06
588.36	-0.05
588.551	-0.02
588.742	-0.04
588.932	0
589.123	-0.03
589.314	0.01
589.505	0.01
589.696	-0.04
589.886	-0.04
590.077	-0.05
590.268	-0.01
590.458	-0.05
590.649	-0.08
590.84	0
591.03	-0.02
591.221	-0.06
591.412	-0.04
591.602	0.01
591.793	0.04
591.984	-0.06
592.174	-0
592.365	0.06
592.555	-0.04
592.746	0
592.936	-0.01
593.127	0.01
593.317	0.02
593.508	-0.02
593.698	-0.03
593.889	-0.01
594.079	-0.03
594.269	-0.04
594.46	-0.01
594.65	-0.03
594.84	-0.01
595.031	-0.04
595.221	-0.05
595.411	-0.04
595.602	0.01
595.792	-0.03
595.982	-0.04
596.172	0.05
596.363	0
596.553	-0.03
596.743	-0.04
596.933	0
597.123	0.02
597.314	-0.03
597.504	-0.04
597.694	0.03
597.884	0.01
598.074	-0.03
598.264	-0.03
598.454	-0
598.644	-0.03
598.834	-0.03
599.024	-0.1
599.214	-0.02
599.404	0
599.594	-0.03
599.784	-0.04
599.974	0.04
600.164	0.01
600.354	-0.07
600.544	-0.09
600.734	0
600.924	0.01
601.114	-0.04
601.303	-0.01
601.493	-0.01
601.683	-0.03
601.873	-0.01
602.063	-0.05
602.252	0.02
602.442	-0.08
602.632	-0.05
602.821	-0.06
603.011	0.03
603.201	-0.02
603.39	-0.05
603.58	-0.03
603.77	-0.01
603.959	0.03
604.149	-0.05
604.339	-0.05
604.528	-0.02
604.718	0.03
604.907	-0.03
605.097	-0.02
605.286	-0.09
605.476	-0
605.665	-0.02
605.855	-0.02
606.044	0.02
606.234	-0.01
606.423	-0.05
606.612	-0.05
606.802	0.01
606.991	0.02
607.181	-0.01
607.37	-0.06
607.559	0
607.749	-0.07
607.938	-0.02
608.127	-0.04
608.316	-0.05
608.506	-0.02
608.695	-0
608.884	-0.02
609.073	-0
609.263	-0.02
609.452	0.01
609.641	-0.04
609.83	-0.05
610.019	-0.01
610.208	-0.05
610.397	-0.02
610.586	-0
610.775	-0.03
610.965	-0.01
611.154	-0.05
611.343	0.02
611.532	-0
611.721	-0.04
611.91	-0.05
612.099	0.02
612.287	-0.04
612.476	-0.06
612.665	-0.01
612.854	-0.04
613.043	0.03
613.232	-0.06
613.421	-0.07
613.61	-0
613.798	-0.04
613.987	-0.01
614.176	-0.01
614.365	0
614.554	0.01
614.742	0
614.931	-0.04
615.12	0.02
615.309	-0.02
615.497	-0.03
615.686	-0.06
615.875	-0.02
616.063	0
616.252	-0.03
616.44	-0.04
616.629	-0.04
616.818	-0.01
617.006	-0.08
617.195	-0
617.383	0.03
617.572	-0.01
617.76	-0.05
617.949	-0.05
618.137	-0.02
618.326	0.03
618.514	-0.03
618.703	-0.06
618.891	0.03
619.079	-0.08
619.268	0
619.456	-0.05
619.644	0.01
619.833	-0
620.021	-0.05
620.209	-0.07
620.398	0
620.586	0
620.774	-0.01
620.962	-0.04
621.151	0.01
621.339	-0.04
621.527	-0.04
621.715	-0.06
621.903	-0.07
622.092	-0.05
622.28	-0.04
622.468	-0.02
622.656	-0.02
622.844	0.02
623.032	-0.06
623.22	-0.08
623.408	0.02
623.596	-0.03
623.784	-0.01
623.972	-0.06
624.16	-0.05
624.348	0.04
624.536	-0.02
624.724	-0.05
624.912	0.03
625.1	0
625.288	-0.05
625.476	-0.07
625.664	-0.01
625.851	-0.06
626.039	-0.04
626.227	-0.02
626.415	-0.04
626.603	-0.07
626.79	-0.01
626.978	-0.05
627.166	-0
627.354	-0.02
627.541	-0.05
627.729	-0.12
627.917	0.01
628.104	0.02
628.292	-0.04
628.48	-0.01
628.667	-0.03
628.855	-0.04
629.042	-0
629.23	-0.04
629.418	-0.03
629.605	-0.05
629.793	-0.02
629.98	-0.04
630.168	-0.03
630.355	-0.01
630.543	-0.03
630.73	-0.07
630.917	0
631.105	0.03
631.292	-0.04
631.48	-0.03
631.667	0.06
631.854	-0.03
632.042	-0.03
632.229	-0.07
632.416	-0.01
632.604	-0.04
632.791	-0.06
632.978	-0.02
633.165	-0
633.353	0.05
633.54	0.01
633.727	-0.08
633.914	-0.06
634.101	-0.07
634.289	0.01
634.476	-0.07
634.663	-0.09
634.85	-0.01
635.037	-0.06
635.224	-0.07
635.411	0.01
635.598	0.03
635.785	-0.03
635.972	-0.02
636.159	-0
636.346	-0.05
636.533	-0.04
636.72	-0.02
636.907	-0.06
637.094	0
637.281	-0.03
637.468	-0
637.655	-0.02
637.842	-0.05
638.029	-0.04
638.215	0.02
638.402	0.01
638.589	-0.07
638.776	-0.03
638.963	-0.06
639.149	0.02
639.336	0.05
639.523	-0.04
639.709	-0.03
639.896	-0.06
640.083	0.03
640.27	-0.03
640.456	-0.04
640.643	0
640.829	-0.07
641.016	-0.04
641.203	-0.07
641.389	0
641.576	0.01
641.762	-0.06
641.949	-0.04
642.135	0.01
642.322	0.02
642.508	-0.07
642.695	-0.01
642.881	-0.07
643.068	-0
643.254	-0.02
643.441	0
643.627	0.01
643.813	-0.02
644	0.02
644.186	-0.05
644.372	0
644.559	0.01
644.745	-0.05
644.931	-0.07
645.118	-0.02
645.304	0.01
645.49	-0.07
645.676	-0.05
645.862	-0.02
646.049	0.03
646.235	-0.05
646.421	0.05
646.607	0.04
646.793	-0.05
646.979	-0.07
647.165	-0.02
647.352	0
647.538	0
647.724	-0.05
647.91	0.01
648.096	0.02
648.282	0
648.468	-0.03
648.654	-0.02
648.84	-0.03
649.026	-0.06
649.212	-0.03
649.397	-0.06
649.583	-0.07
649.769	-0.02
649.955	-0.05
650.141	-0.01
650.327	0.04
650.513	-0.08
650.698	-0.01
650.884	-0.09
651.07	-0.03
651.256	-0.03
651.442	-0.03
651.627	-0.04
651.813	-0.01
651.999	-0.06
652.184	-0.01
652.37	-0.01
652.556	-0.07
652.741	0.07
652.927	-0.07
653.113	-0.04
653.298	-0.04
653.484	-0.01
653.669	-0.09
653.855	-0.01
654.04	-0
654.226	-0.02
654.412	-0.05
654.597	-0.07
654.782	-0.03
654.968	0.01
655.153	-0
655.339	-0.03
655.524	-0.08
655.71	0.01
655.895	-0.06
656.08	-0.05
656.266	0.01
656.451	-0.01
656.636	-0.06
656.822	-0.04
657.007	-0.07
657.192	-0.03
657.378	-0.11
657.563	-0.02
657.748	-0.01
657.933	-0.05
658.118	-0.02
658.304	-0.03
658.489	0.02
658.674	0
658.859	-0.08
659.044	-0.05
659.229	-0.01
659.414	-0.04
659.599	-0.05
659.785	-0.06
659.97	-0.01
660.155	-0.01
660.34	-0.03
660.525	-0.04
660.71	-0.03
660.895	0.01
661.08	-0.07
661.264	-0.07
661.449	0.04
661.634	0.05
661.819	-0.01
662.004	-0.05
662.189	-0.1
662.374	-0.05
662.559	-0.07
662.743	-0.09
662.928	-0.01
663.113	-0.05
663.298	-0.07
663.483	-0.06
663.667	-0.01
663.852	-0.11
664.037	0.01
664.221	-0.07
664.406	-0.03
664.591	-0.02
664.775	-0.01
664.96	-0.06
665.145	0.01
665.329	0.04
665.514	-0.05
665.698	-0.05
665.883	-0.09
666.068	0.06
666.252	-0.03
666.437	-0.08
666.621	-0.02
666.806	0.03
666.99	-0.01
667.174	-0.13
667.359	0.06
667.543	-0.05
667.728	-0.03
667.912	-0.1
668.096	0.01
668.281	-0.05
668.465	-0.07
668.649	-0.04
668.834	-0.11
669.018	-0.08
669.202	-0.05
669.387	-0.05
669.571	0.04
669.755	-0.03
669.939	-0.04
670.124	-0.04
670.308	0.04
670.492	0
670.676	-0.03
670.86	-0.04
671.044	-0.09
671.228	0.01
671.413	-0.06
671.597	-0.04
671.781	-0.06
671.965	-0.02
672.149	-0.04
672.333	-0.04
672.517	-0.07
672.701	-0
672.885	-0.04
673.069	-0.09
673.253	0.02
673.437	-0.04
673.621	-0.06
673.804	-0.04
673.988	0.01
674.172	-0.01
674.356	-0.09
674.54	-0.03
674.724	0.07
674.908	-0.05
675.091	-0.01
675.275	-0.05
675.459	-0.02
675.643	0.03
675.826	-0.05
676.01	-0.02
676.194	-0.06
676.377	-0
676.561	-0.02
676.745	-0.04
676.928	-0.04
677.112	0.03
677.296	-0.07
677.479	-0.02
677.663	-0.04
677.846	0.02
678.03	-0.08
678.213	-0.08
678.397	-0.04
678.58	-0.05
678.764	-0.07
678.947	-0.08
679.131	-0.04
679.314	0.01
679.498	-0.03
679.681	0.02
679.865	-0.03
680.048	-0.07
680.231	-0
680.415	-0.07
680.598	-0.07
680.781	-0.08
680.965	-0.05
681.148	0
681.331	-0.05
681.514	-0.01
681.698	-0.05
681.881	-0.02
682.064	-0.04
682.247	-0.03
682.43	-0.1
682.614	-0.03
682.797	0.05
682.98	0.01
683.163	-0.06
683.346	-0.03
683.529	-0.06
683.712	-0.05
683.895	-0.01
684.078	-0.12
684.261	-0.06
684.444	-0
684.627	0.01
684.81	-0.06
684.993	-0.02
685.176	0
685.359	-0.07
685.542	-0.04
685.725	0.02
685.908	0
686.091	-0.06
686.274	0.06
686.457	0.03
686.639	-0.01
686.822	-0.04
687.005	-0.05
687.188	0.02
687.371	0.04
687.553	-0.01
687.736	-0
687.919	0.02
688.102	0.04
688.284	-0.01
688.467	-0.02
688.65	-0.06
688.832	-0.09
689.015	-0.07
689.197	-0.11
689.38	0.02
689.563	0.02
689.745	-0.09
689.928	-0.08
690.11	-0.06
690.293	-0.03
690.475	-0.06
690.658	0
690.84	-0.05
691.023	-0.03
691.205	-0.07
691.388	-0.03
691.57	-0.04
691.752	-0.01
691.935	-0.11
692.117	-0.1
692.3	0
692.482	-0.04
692.664	0.01
692.847	0
693.029	0.03
693.211	0.09
693.393	-0.02
693.576	-0.05
693.758	0.02
693.94	-0.05
694.122	-0.02
694.304	-0.05
694.487	-0.02
694.669	0.05
694.851	-0.05
695.033	-0.04
695.215	-0.06
695.397	-0.08
695.579	-0.06
695.761	-0.06
695.943	-0.08
696.125	-0.01
696.308	-0
696.49	-0.11
696.671	0.14
696.853	-0.03
697.035	0.09
697.217	-0.04
697.399	-0.01
697.581	-0.06
697.763	-0.01
697.945	-0.09
698.127	-0.04
698.309	0.03
698.491	-0.01
698.672	0
698.854	0.02
699.036	0.06
699.218	-0.06
699.399	0.02
699.581	0.02
699.763	-0.03
699.945	-0.05
700.126	-0.14
700.308	-0.01
700.49	-0.02
700.671	-0.12
700.853	-0.04
701.035	-0.06
701.216	-0.06
701.398	-0.12
701.579	-0.07
701.761	0.06
701.943	-0.05
702.124	-0.09
702.306	-0.06
702.487	0.09
702.669	-0.06
702.85	-0.06
703.031	-0.06
703.213	0.08
703.394	0.03
703.576	-0.06
703.757	0.03
703.938	0.05
704.12	0.11
704.301	0.02
704.483	-0.04
704.664	-0.04
704.845	0.03
705.026	-0
705.208	-0.07
705.389	-0.05
705.57	0.02
705.751	-0.08
705.933	-0.03
706.114	0.04
706.295	-0.04
706.476	-0.14
706.657	0.03
706.838	-0.02
707.02	-0.03
707.201	-0.1
707.382	-0.09
707.563	-0.02
707.744	-0.03
707.925	-0.03
708.106	-0.06
708.287	0.01
708.468	0.06
708.649	-0.02
708.83	0.02
709.011	-0.02
709.192	0.05
709.373	-0.12
709.554	-0.03
709.734	0.08
709.915	-0
710.096	-0.02
710.277	-0.18
710.458	-0.02
710.639	-0.03
710.819	-0.09
711	-0.05
711.181	0
711.362	0.07
711.542	0.04
711.723	-0.03
711.904	0.07
712.085	-0.06
712.265	-0
712.446	-0.11
712.627	-0.08
712.807	0
712.988	-0.05
713.168	-0.11
713.349	-0.1
713.53	-0.1
713.71	-0.06
713.891	-0.15
714.071	0
714.252	0.01
714.432	-0.06
714.613	-0.16
714.793	-0.04
714.974	0.06
715.154	0.09
715.334	0.02
715.515	0.05
715.695	-0.11
715.876	0.02
716.056	-0.08
716.236	-0.1
716.417	-0.03
716.597	-0.06
716.777	0.11
716.957	-0.06
717.138	-0
717.318	-0.04
717.498	-0.13
717.678	-0.09
717.859	-0.06
718.039	-0.13
718.219	-0.05
718.399	-0
718.579	-0.15
718.759	-0.1
718.939	0.03
719.12	-0.05
719.3	-0.04
719.48	-0.14
719.66	-0.19
719.84	0.07
720.02	-0.03
720.2	-0.07
720.38	-0.06
720.56	0.07
720.74	-0.03
720.92	-0.03
721.1	0.07
721.279	0.02
721.459	-0.02
721.639	-0.1
721.819	0.01
721.999	-0.07
722.179	-0.07
722.359	-0.13
722.538	-0.07
722.718	-0.03
722.898	-0.09
723.078	-0.1
723.257	-0.02
723.437	-0.05
723.617	-0.02
723.797	-0.08
723.976	0.02
724.156	0.01
724.336	0.12
724.515	0.03
724.695	-0.14
724.874	-0.05
725.054	0
725.234	-0.13
725.413	-0.01
725.593	-0.06
725.772	-0.13
725.952	-0.05
726.131	-0.09
726.311	-0.07
726.49	-0.01
726.67	-0.1
726.849	-0.1
727.028	-0.02
727.208	-0.1
727.387	-0.08
727.567	-0.16
727.746	-0.08
727.925	-0.07
728.105	-0.17
728.284	-0.1
728.463	-0.07
728.643	-0.01
728.822	-0.16
729.001	-0.16
729.18	-0.09
729.359	0.03
729.539	-0.13
729.718	0
729.897	0.02
730.076	-0.05
730.255	-0.18
730.434	-0.02
730.614	-0
730.793	0.01
730.972	-0.15
731.151	0.02
731.33	0.12
731.509	-0.06
731.688	-0.07
731.867	-0.1
732.046	-0.25
732.225	0.12
732.404	-0.15
732.583	-0.08
732.762	-0.08
732.941	0.06
733.12	-0.08
733.298	-0.16
733.477	0.12
733.656	-0.08
733.835	-0.19
734.014	0.03
734.193	-0.05
734.371	-0.01
734.55	-0.03
734.729	-0.11
734.908	-0.02
735.086	-0.07
735.265	-0.05
735.444	-0.28
735.623	-0.17
735.801	-0.14
735.98	-0.07
736.159	-0.13
736.337	0
736.516	-0.05
736.694	-0.02
736.873	-0.15
737.052	0.15
737.23	0.11
737.409	-0.09
737.587	0.04
737.766	-0.14
737.944	-0.22
738.123	-0.05
738.301	-0.01
738.479	-0.14
738.658	-0.14
738.836	-0.28
739.015	-0.04
739.193	0
739.371	-0.23
739.55	-0.08
739.728	-0.17
739.906	-0.03
740.085	0.08
740.263	-0.11
740.441	-0.18
740.62	0.19
740.798	0.07
740.976	-0.2
741.154	-0.19
741.332	0.08
741.511	-0.04
741.689	0.01
741.867	-0.03
742.045	0.05
742.223	-0.1
742.401	-0.13
742.579	-0.17
742.757	0.11
742.935	-0.2
743.114	-0.06
743.292	-0.08
743.47	-0.03
743.648	-0.13
743.826	-0.16
744.004	0.03
744.181	0.09
744.359	-0.11
744.537	0.01
744.715	-0.1
744.893	-0.03
745.071	0.03
745.249	-0.06
745.427	-0.06
745.605	-0.06
745.782	-0.11
745.96	-0.07
746.138	-0.01
746.316	0.07
746.493	-0.04
746.671	-0.11
746.849	-0.06
747.027	0.03
747.204	-0.12
747.382	0.01
747.56	-0.16
747.737	-0.14
747.915	-0.16
748.093	-0.04
748.27	-0.07
748.448	-0
748.625	-0.21
748.803	-0.22
748.98	-0.08
749.158	-0.04
749.335	0.12
749.513	-0.14
749.69	-0.1
749.868	-0.09
750.045	0.03
750.223	-0.11
750.4	-0.22
750.578	0.06
750.755	-0.02
750.932	-0.23
751.11	0.08
751.287	-0.12
751.464	0.16
751.642	-0.12
751.819	0.04
751.996	-0.05
752.173	-0.21
752.351	-0.22
752.528	-0.01
752.705	-0.06
752.882	-0.2
753.06	-0.1
753.237	-0.03
753.414	0.05
753.591	0.17
753.768	-0.04
753.945	-0.16
754.122	-0.16
754.299	0.02
754.476	-0.09
754.654	-0.03
754.831	-0.1
755.008	0.03
755.185	-0.17
755.362	-0.14
755.539	0.05
755.716	-0.02
755.892	-0.13
756.069	-0.06
756.246	-0.07
756.423	-0.09
756.6	0.09
756.777	-0.11
756.954	0.21
757.131	-0.14
757.307	-0.16
757.484	-0.16
757.661	-0.08
757.838	-0.04
758.015	-0.15
758.191	-0.05
758.368	-0.01
758.545	0.18
758.721	0.08
758.898	-0.13
759.075	-0.02
759.251	0.1
759.428	0.03
759.605	-0.14
759.781	-0.11
759.958	-0.05
760.134	-0.02
760.311	-0.19
760.488	0.05
760.664	0.1
760.841	-0.08
761.017	-0.2
761.194	-0.02
761.37	0.07
761.547	0.05
761.723	-0.06
761.899	-0.01
762.076	-0.05
762.252	-0.17
762.429	-0.18
762.605	0.13
762.781	-0.03
762.958	0.04
763.134	-0.14
763.31	-0.1
763.486	0.04
763.663	-0.31
763.839	-0.04
764.015	-0.33
764.191	-0.06
764.368	-0.06
764.544	-0.16
764.72	-0.15
764.896	-0.02
765.072	-0.06
765.248	-0.1
765.425	-0.18
765.601	-0.01
765.777	0.04
765.953	-0.23
766.129	-0.22
766.305	-0.24
766.481	0.01
766.657	-0.06
766.833	0.01
767.009	-0.14
767.185	-0.08
767.361	-0.02
767.537	-0.1
767.713	0.08
767.889	-0.15
768.065	-0.13
768.24	0
768.416	-0.11
768.592	-0.22
768.768	-0.16
768.944	-0.12
769.12	-0.13
769.295	-0.11
769.471	-0.04
769.647	-0.28
769.823	0.17
769.998	-0.13
770.174	-0.24
770.35	0.2
770.525	0.18
770.701	0.01
770.877	-0.08
771.052	-0.19
771.228	0.02
771.403	0.02
771.579	-0.05
771.755	0.11
771.93	-0.08
772.106	-0.14
772.281	-0.21
772.457	-0.21
772.632	-0.05
772.808	-0.19
772.983	-0.16
773.159	-0.27
773.334	0.22
773.509	0
773.685	-0.09
773.86	0.36
774.036	0.03
774.211	-0.15
774.386	-0.02
774.562	-0.17
774.737	-0.02
774.912	-0.09
775.087	0.04
775.263	-0.04
775.438	-0.08
775.613	-0.17
775.788	-0.2
775.964	0.01
776.139	0.33
776.314	-0.23
776.489	-0.02
776.664	-0.08
776.839	-0.17
777.014	0.1
777.19	0.15
777.365	0.08
777.54	0.15
777.715	-0.25
777.89	-0.02
778.065	-0.2
778.24	-0.14
778.415	0.08
778.59	-0.2
778.765	-0.11
778.94	0.02
779.115	-0.15
779.289	-0.09
779.464	0.06
779.639	-0.1
779.814	-0.35
779.989	-0.26
780.164	0.17
780.339	-0.11
780.513	-0.26
780.688	-0.27
780.863	-0.15
781.038	0.04
781.212	-0.31
781.387	-0.07
781.562	0.26
781.737	-0.24
781.911	0.01
782.086	-0.32
782.261	-0.08
782.435	0.11
782.61	-0.3
782.784	-0.25
782.959	0.16
783.134	-0.29
783.308	-0.32
783.483	-0.28
783.657	0.18
783.832	0.14
784.006	-0.39
784.181	-0.14
784.355	0.09
784.53	-0.13
784.704	-0.41
784.878	0.12
785.053	-0.09
785.227	0.05
785.402	0.27
785.576	-0.27
785.75	-0.41
785.925	-0.42
786.099	-0.09
786.273	-0.13
786.448	-0.01
786.622	0.11
786.796	-0.27
786.97	-0.18
787.145	0.35
787.319	-0.29
787.493	-0.21
787.667	-0.48
787.841	-0.09
788.015	0.08
788.19	-0.24
788.364	-0.24
788.538	0.29
788.712	0.1
788.886	-0.1
789.06	0.17
789.234	-0.06
789.408	-0.37
789.582	-0.35
789.756	-0.1
789.93	-0.12
790.104	-0.22
790.278	-0.28
790.452	-0.33
790.626	-0.09
790.8	-0.29
790.973	0.09
791.147	0.02
791.321	0.38
791.495	0.27
791.669	-0.11
791.843	0.03
792.016	-0.11
792.19	0.36
792.364	-0.38
792.538	0.45
792.711	0.1
792.885	-0.16
793.059	-0.31
793.233	-0.76
793.406	0.12
793.58	-0.28
793.754	-0.08
793.927	0.08
794.101	0.09
794.274	-0.1
794.448	0.1
794.622	-0.41
794.795	0.25
794.969	-0.45
795.142	0.23
795.316	-0.19
795.489	-0.31
795.663	0.24
795.836	-0.33
796.009	-0.32
796.183	0.3
796.356	0.04
796.53	-0.13
796.703	-0.18
796.876	0.5
797.05	-0.12
797.223	-0.21
797.396	-0.17
797.57	-0.26
797.743	0.1
797.916	0.03
798.09	-0.31
798.263	0.21
798.436	-0.01
798.609	-0.21
798.782	-0.08
798.956	-0.03
799.129	0.15
799.302	-0.34
799.475	-0.2
799.648	-0.23
799.821	-0.41
799.994	-0.22
800.167	-0.64
800.34	0.05
800.514	-0.27
800.687	-0.31
800.86	-0.3
801.033	-0.16
801.206	-0.2
801.379	-0.32
801.551	-0.24
801.724	0.2
801.897	0.09
802.07	-0.29
802.243	-0.51
802.416	-0.27
802.589	-0.26
802.762	-0.34
802.935	-0.4
803.107	0.39
803.28	0.25
803.453	-0.07
803.626	-0.53
803.798	0.13
803.971	-0.44
804.144	0.03
804.317	-0.1
804.489	0.11
804.662	-0.36
804.835	-0.48
805.007	-0.67
805.18	0
805.353	-0.04
805.525	-0.28
805.698	-0.4
805.87	0.17
806.043	0.29
806.215	-0.51
806.388	-0.15
806.56	0.08
806.733	0.29
806.905	-0.11
807.078	-0.32
807.25	-0.27
807.423	0.09
807.595	-0.21
807.768	-0.26
807.94	0.03
808.112	0.18
808.285	-0.36
808.457	-0.34
808.629	-0.32
808.802	0.25
808.974	-0.16
809.146	-0.51
809.318	-0.38
809.491	-0.09
809.663	-0.05
809.835	-0.6
810.007	-0.38
810.18	-0.16
810.352	-0.77
810.524	-0.57
810.696	0.21
810.868	0.38
811.04	-0.33
811.212	-0.51
811.384	0.04
811.556	0.12
811.728	-0.27
811.901	0.9
812.073	-0.04
812.245	0.37
812.417	-0.3
812.589	-0.95
812.76	-0.06
812.932	-0.03
813.104	0.14
813.276	-0.37
813.448	0.26
813.62	-0.07
813.792	0.04
813.964	-0.66
814.136	0.18
814.307	-0.19
814.479	-0.21
814.651	-0.7
814.823	0.2
814.995	-0.34
815.166	0.38
815.338	-0.39
815.51	-0.78
815.681	0.48
815.853	-0.27
816.025	-0.34
816.196	0.25
816.368	-0.14
816.54	-0.8
816.711	-0.51
816.883	0.34
817.054	0.78
817.226	-1.2
817.398	0.06
817.569	-0.42
817.741	-0.41
817.912	-0.53
818.084	0.02
818.255	-0.19
818.426	-0.45
818.598	-0.4
818.769	-0.44
818.941	0.22
819.112	0.43
819.283	-0.07
819.455	-0.78
819.626	-0.26
819.798	0.08
819.969	-0.02
820.14	-0.75
820.311	-0.39
820.483	0.07
820.654	0.08
820.825	-0.12
820.996	-0.35
821.168	-0.49
821.339	-0.37
821.51	-0.99
821.681	-0.27
821.852	-0.18
822.023	-0.82
822.195	-1.05
822.366	-0.05
822.537	-0.08
822.708	-0.43
822.879	-0.45
823.05	0.39
823.221	0.33
823.392	-0.38
823.563	-0.3
823.734	-0.17
823.905	-0.65
824.076	-0.4
824.247	-0.93
824.418	-0.28
824.589	0.02
824.759	-0.42
824.93	-0.16
825.101	-0.93
825.272	0.82
825.443	0.04
825.614	0.25
825.784	-1.18
825.955	1.19
826.126	0.75
826.297	-0.81
826.467	0.97
826.638	0.49
826.809	-1.26
826.98	-0.17
827.15	-0.21
827.321	-0.82
827.492	0.22
827.662	-0.29
827.833	0.61
828.003	0.55
828.174	-0.62
828.345	-0.83
828.515	-0.25
828.686	0.22
828.856	-0.72
829.027	-0.59
829.197	0.38
829.368	0.21
829.538	-0.47
829.709	-0.91
829.879	0.41
830.049	-0.5
830.22	-0.85
830.39	-0.55
830.56	0.45
830.731	-0.13
830.901	-0.9
831.072	-0.17
831.242	-0.02
831.412	-0.09
831.582	-0.84
831.753	-0.78
831.923	0.19
832.093	-0.18
832.263	-0.28
832.434	-0.84
832.604	-0.35
832.774	0.27
832.944	-0.08
833.114	-0.45
833.284	-0.1
833.454	-0.57
833.624	-0.77
833.795	-0.16
833.965	0.14
834.135	0.93
834.305	-1.14
834.475	-0.72
834.645	0.2
834.815	-0.8
834.985	-0.68
835.155	-0.64
835.325	0.11
835.494	0.49
835.664	-0.88
835.834	-1.23
836.004	0.26
836.174	0.29
836.344	-0.78
836.514	-1.09
836.684	0.01
836.853	0.26
837.023	-0.01
837.193	-0.72
837.363	0.19
837.532	0.51
837.702	-0.37
837.872	-0.85
838.041	0.06
838.211	1.63
838.381	-0.61
838.55	-0.74
838.72	0.84
838.89	0.66
839.059	-0.93
839.229	-0.89
839.398	1.06
839.568	0.34
839.738	-0.35
839.907	-0.32
840.077	-0.29
840.246	-1.49
840.416	-0.36
840.585	-0.68
840.755	0.96
840.924	0.96
841.093	-1.12
841.263	-1.01
841.432	1.07
841.602	-1.11
841.771	-0.97
841.94	-0.04
842.11	1.97
842.279	1.42
842.448	-0.58
842.617	-0.4
842.787	0.84
842.956	-1.16
843.125	-0.85
843.294	-0.7
843.464	0.34
843.633	-0.78
843.802	-0.92
843.971	-0.53
844.14	-0.03
844.309	0.58
844.479	-1.54
844.648	-0.8
844.817	0.54
844.986	0.51
845.155	-1.2
845.324	-0.31
845.493	-0.94
845.662	-0.73
845.831	0.19
846	-0.28
846.169	-0.88
846.338	0.26
846.507	-0.05
846.676	-0.3
846.844	-0.48
847.013	-0.49
847.182	-0.63
847.351	-0.98
847.52	-1.14
847.689	0.02
847.858	0.03
848.026	-1.29
848.195	-0.66
848.364	-0.97
848.533	-0.92
848.701	-0.83
848.87	-0.03
849.039	0.79
849.207	0.22
849.376	-0.06
849.545	0.85
849.713	-1.15
849.882	-0.88
850.051	-0.18
850.219	-0.37
850.388	0.42
850.556	-1.87
850.725	-1.16
850.893	0.54
851.062	0.22
851.23	0.45
851.399	-1.21
851.567	-0.66
851.736	-1.09
851.904	-1.09
852.073	-0.15
852.241	-0.26
852.41	-0.13
852.578	-0.38
852.746	-0.53
852.915	0.91
853.083	0.07
853.251	-1.87
853.42	-0.55
853.588	-0.65
853.756	-0.63
853.924	-0.19
854.093	-0.61
854.261	-0.72
854.429	-1.92
854.597	-0.38
854.765	-1.45
854.934	0.77
855.102	-0.18
855.27	-0.83
855.438	0.08
855.606	0.26
855.774	1.99
855.942	-2.36
856.11	-3.26
856.278	-0.05
856.446	0.59
856.614	-0.36
856.782	-0.87
856.95	0.46
857.118	0.28
857.286	-0.49
857.454	-1.64
857.622	1.02
857.79	0.3
857.958	-2.74
858.126	-0.51
858.294	-2.73
858.462	-1.2
858.629	-0.42
858.797	-1.11
858.965	-0.43
859.133	-0.67
859.301	-1.99
859.468	-0.78
859.636	-0.85
859.804	1.26
859.971	-0.05
860.139	-0.8
860.307	-0.62
860.474	-1.08
860.642	-0.3
860.81	-0.9
860.977	-0.9
861.145	1.7
861.313	-0.78
861.48	-1.05
861.648	0.6
861.815	-0.01
861.983	-1.53
862.15	-1.11
862.318	-1
862.485	0.85
862.653	-0.42
862.82	-1.71
862.988	-0.2
863.155	0.44
863.322	-1.53
863.49	-0.88
863.657	-1.17
863.824	2.22
863.992	0.35
864.159	-1.55
864.326	0.85
864.494	-0.25
864.661	2.2
864.828	-2.08
864.996	-1.2
865.163	-0.01
865.33	-1.2
865.497	-3.2
865.664	-1.25
865.832	-3.51
865.999	-0.22
866.166	-1.8
866.333	-1.35
866.5	-0.54
866.667	-1.38
866.834	-0.85
867.001	1.79
867.168	-3.48
867.335	-1.41
867.502	-2.86
867.669	-1.01
867.836	2.55
868.003	-1.54
868.17	0.91
868.337	-1.75
868.504	1.97
868.671	-3.54
868.838	-2.14
869.005	0.33
869.172	-0.09
869.339	-0.84
869.505	-1.51
869.672	0.59
869.839	1.15
870.006	0.51
870.173	-3.51
870.339	1.45
870.506	3.03
870.673	-2.08
870.84	1.01
871.006	-0.89
871.173	-1.06
871.34	0.1
871.506	-3.25
871.673	-0.11
871.839	-3.21
872.006	-1.09
872.173	-0.93
872.339	1.31
872.506	0.42
872.672	-0.76
872.839	-2.49
873.005	-0.9
873.172	3.42
873.338	-0.41
873.505	-1.35
873.671	-0.1
873.838	0.44
874.004	-2.26
874.171	-1.4
874.337	0.74
874.503	1.48
874.67	-2.65
874.836	-0.26
875.002	1.97
875.169	1.03
875.335	-1.18
875.501	-1.24
875.668	1.94
875.834	-2.12
876	-0.57
876.166	0.83
876.332	0.92
876.499	1.68
876.665	-0.16
876.831	-1.66
876.997	2.62
877.163	-0.49
877.329	-1.81
877.495	0.39
877.662	0.7
877.828	-0.88
877.994	-1.3
878.16	-4.34
878.326	-2.4
878.492	-0.89
878.658	-2.74
878.824	-1.13
878.99	0.91
879.156	-1.88
879.322	1.52
879.487	-1.08
879.653	-1.44
879.819	-2.12
879.985	-3.44
880.151	-1.58
880.317	-1.29
880.483	1.35
880.648	0.9
880.814	-2.01
880.98	-0.3
881.146	-2.14
881.312	-1.25
881.477	-1.97
881.643	-0.64
881.809	1.3
881.974	1.06
882.14	-4.45
882.306	-1.6
882.471	1.19
882.637	-1.93
882.803	-1.06
882.968	1.2
883.134	4.73
883.299	-1.34
883.465	0.47
883.63	1.29
883.796	1.53
883.961	-1.03
884.127	-0.87
884.292	-6.73
884.458	-2.64
884.623	-2.63
