Data from Apollo_Calib_20240827__AbsoluteIrradiance__236__03-05-02-927.txt Node

Date: Wed Aug 28 03:05:02 BST 2024
User: biology
Spectrometer: FLMT08252
Trigger mode: 0
Integration Time (sec): 5.000000E-1
Scans to average: 5
Electric dark correction enabled: true
Nonlinearity correction enabled: false
Boxcar width: 0
XAxis mode: Wavelengths
Number of Pixels in Spectrum: 3648
>>>>>Begin Spectral Data<<<<<
179.588	-0
179.809	-0
180.03	-0
180.251	-0
180.473	-0
180.694	0
180.915	0
181.136	-0
181.357	0
181.578	0
181.799	-0
182.02	-0
182.241	0
182.462	-0
182.683	0
182.904	-0
183.125	0
183.346	0
183.567	0
183.788	-0
184.009	-0
184.23	-0
184.451	0
184.672	-0
184.892	-0
185.113	0
185.334	0
185.555	-0
185.776	-0
185.996	0
186.217	0
186.438	0
186.659	-0
186.879	-0
187.1	-0
187.321	-0
187.541	-0
187.762	0
187.983	0
188.203	-0
188.424	-0
188.644	-0
188.865	-0
189.086	-0
189.306	-0
189.527	0
189.747	0
189.968	-0
190.188	0
190.409	-0
190.629	0
190.849	-0
191.07	-0
191.29	0
191.511	-0
191.731	-0
191.951	-0
192.172	-0
192.392	-0
192.612	-0
192.833	-0
193.053	0
193.273	0
193.493	-0
193.714	-0
193.934	0
194.154	0
194.374	0
194.594	-0
194.815	-0
195.035	0
195.255	-0
195.475	-0
195.695	0
195.915	0
196.135	-0
196.355	0
196.575	0
196.795	0
197.015	-0
197.235	-0
197.455	-0
197.675	0
197.895	-0
198.115	-0
198.335	0
198.555	-0
198.775	-0
198.995	0
199.214	0
199.434	0
199.654	-0
199.874	-0
200.094	0.82
200.313	-0.26
200.533	-0.58
200.753	-0.66
200.973	0.62
201.192	0.36
201.412	-1.07
201.632	-0.22
201.851	0.41
202.071	-0.26
202.291	-0.11
202.51	-0.89
202.73	0.07
202.95	-0.26
203.169	-0.96
203.389	-0.48
203.608	0.17
203.828	-0.44
204.047	-0.83
204.267	0.06
204.486	-0.21
204.706	0.23
204.925	-0.25
205.145	-0.21
205.364	0.27
205.583	0.88
205.803	-0.12
206.022	-0.5
206.242	-0.36
206.461	0.24
206.68	-0.43
206.9	-0.11
207.119	0.26
207.338	0.26
207.557	-0.37
207.777	-0.11
207.996	-0.06
208.215	0.49
208.434	-0.52
208.654	-0.46
208.873	0.03
209.092	0.36
209.311	-0.47
209.53	-0.15
209.749	-0.31
209.968	-0.5
210.187	-0.27
210.407	-0.5
210.626	-0.34
210.845	0.14
211.064	-0.06
211.283	-0.29
211.502	0.25
211.721	-0.18
211.94	-0.1
212.159	0.35
212.377	0.1
212.596	0.31
212.815	-0.23
213.034	0.12
213.253	0.31
213.472	0.18
213.691	-0.33
213.91	-0.43
214.128	-0.14
214.347	0.26
214.566	-0.58
214.785	-0.37
215.003	-0.05
215.222	-0.13
215.441	-0.19
215.66	-0.26
215.878	-0.03
216.097	0.24
216.316	-0.39
216.534	-0.37
216.753	0.03
216.972	-0.16
217.19	-0.24
217.409	-0.25
217.627	-0.24
217.846	-0.09
218.064	0.03
218.283	-0.23
218.501	0.32
218.72	0.16
218.938	-0.25
219.157	-0.1
219.375	-0.04
219.594	0.09
219.812	-0.34
220.031	-0.25
220.249	0.16
220.467	0.34
220.686	-0.16
220.904	-0.22
221.122	-0.16
221.341	0.35
221.559	-0.12
221.777	-0.22
221.995	-0.06
222.214	0.23
222.432	-0.17
222.65	-0
222.868	0.11
223.086	0.1
223.305	0.02
223.523	-0.08
223.741	0.2
223.959	-0.07
224.177	-0.36
224.395	-0.2
224.613	-0.02
224.831	0.21
225.049	-0.16
225.267	-0.14
225.485	0.13
225.703	-0.06
225.921	-0.02
226.139	-0.15
226.357	0.14
226.575	-0.08
226.793	-0.06
227.011	0.72
227.229	0.06
227.447	0.13
227.665	0.01
227.883	-0.35
228.1	-0.07
228.318	-0.01
228.536	-0.27
228.754	-0.19
228.972	0.09
229.189	0.13
229.407	-0.12
229.625	-0.04
229.843	0.21
230.06	0.09
230.278	-0.18
230.496	-0.13
230.713	-0.08
230.931	0.05
231.149	-0.11
231.366	-0.19
231.584	0.06
231.801	0.29
232.019	-0.1
232.236	-0.22
232.454	-0.21
232.671	0
232.889	-0.18
233.106	-0.21
233.324	-0.16
233.541	-0.04
233.759	-0.13
233.976	-0.2
234.194	-0.11
234.411	-0.04
234.628	-0.11
234.846	-0.03
235.063	-0.1
235.28	0
235.498	-0.03
235.715	-0.23
235.932	0.01
236.149	-0.05
236.367	-0.03
236.584	-0.02
236.801	-0.1
237.018	0.07
237.236	-0.07
237.453	-0.27
237.67	0.16
237.887	-0.13
238.104	-0.02
238.321	-0.16
238.538	-0.14
238.755	0.08
238.973	-0.18
239.19	0.04
239.407	-0.04
239.624	-0.03
239.841	-0.26
240.058	-0.18
240.275	0.02
240.492	-0.06
240.709	-0.07
240.925	-0.01
241.142	-0.06
241.359	-0.07
241.576	-0.2
241.793	-0.11
242.01	-0.07
242.227	0.05
242.444	-0
242.66	0.08
242.877	-0.08
243.094	-0.05
243.311	0.02
243.527	-0.16
243.744	-0.04
243.961	0.04
244.178	-0.08
244.394	-0.05
244.611	0.17
244.828	0.08
245.044	-0.14
245.261	-0.05
245.477	0.06
245.694	-0.06
245.911	-0.15
246.127	-0.07
246.344	0.11
246.56	0.07
246.777	-0
246.993	-0.1
247.21	-0.08
247.426	0.03
247.643	-0.14
247.859	-0.1
248.076	-0.1
248.292	0.2
248.508	-0.08
248.725	-0.01
248.941	0.09
249.157	0.08
249.374	-0.1
249.59	-0
249.806	-0.09
250.023	0.02
250.239	-0.12
250.455	-0.08
250.671	0.01
250.888	-0
251.104	-0.03
251.32	-0.05
251.536	-0.02
251.752	-0.07
251.969	-0.01
252.185	-0.07
252.401	0.11
252.617	0.02
252.833	-0.1
253.049	-0.05
253.265	-0.02
253.481	-0.01
253.697	-0.05
253.913	-0.1
254.129	0.04
254.345	0.02
254.561	-0.12
254.777	-0.05
254.993	0.05
255.209	0.01
255.425	0.01
255.641	-0.1
255.857	0.07
256.073	-0.01
256.288	-0.18
256.504	-0.09
256.72	-0.03
256.936	0.08
257.152	-0.04
257.367	-0.09
257.583	0.02
257.799	-0.02
258.015	-0.05
258.23	-0.11
258.446	0.08
258.662	-0.04
258.877	-0.16
259.093	-0.08
259.309	-0.06
259.524	-0.07
259.74	-0.04
259.955	-0.09
260.171	-0.01
260.387	0.01
260.602	0.03
260.818	0.02
261.033	-0.14
261.249	-0.1
261.464	-0.01
261.68	-0.09
261.895	0.08
262.11	0.08
262.326	-0.1
262.541	-0.11
262.757	0.04
262.972	0.06
263.187	-0.07
263.403	-0.02
263.618	0.03
263.833	0.04
264.049	-0.08
264.264	-0.05
264.479	0
264.694	0.1
264.91	-0.12
265.125	-0.07
265.34	0.08
265.555	0.15
265.77	0.03
265.986	0
266.201	-0.01
266.416	0.09
266.631	-0.11
266.846	-0.04
267.061	-0
267.276	0.02
267.491	-0.16
267.706	0.02
267.921	0
268.136	-0.03
268.351	-0
268.566	-0.08
268.781	0.11
268.996	0
269.211	-0.01
269.426	-0.1
269.641	-0.03
269.856	0.12
270.071	-0
270.285	-0.12
270.5	0.1
270.715	0.04
270.93	-0.09
271.145	-0.01
271.359	0.06
271.574	-0.1
271.789	0.01
272.004	-0.02
272.218	-0
272.433	-0
272.648	-0.08
272.862	0.04
273.077	-0.02
273.292	-0.03
273.506	-0.05
273.721	-0.03
273.936	-0.01
274.15	0.05
274.365	-0.01
274.579	0.02
274.794	-0
275.008	0.07
275.223	-0.13
275.437	-0.02
275.652	0.08
275.866	0.02
276.081	-0
276.295	0.05
276.509	-0.05
276.724	-0.02
276.938	-0.01
277.153	0.02
277.367	-0.01
277.581	-0.04
277.796	-0.07
278.01	-0.09
278.224	0.02
278.438	0.09
278.653	-0.06
278.867	-0.07
279.081	-0.21
279.295	-0.02
279.51	-0.03
279.724	-0.12
279.938	0.02
280.152	0.01
280.366	-0.06
280.58	-0.04
280.794	0.09
281.008	0.03
281.222	0.03
281.437	0.11
281.651	-0.06
281.865	0.07
282.079	0.01
282.293	-0.12
282.507	-0.01
282.721	-0.05
282.935	-0.05
283.148	-0.06
283.362	-0.03
283.576	-0.07
283.79	-0.02
284.004	-0.05
284.218	0.03
284.432	-0.06
284.646	-0.05
284.859	-0.04
285.073	-0.02
285.287	-0.02
285.501	-0.06
285.714	-0.04
285.928	-0.01
286.142	-0.02
286.356	-0.11
286.569	-0.07
286.783	0.07
286.997	0.01
287.21	-0.03
287.424	0.01
287.637	0
287.851	0
288.065	0.02
288.278	0.01
288.492	-0.01
288.705	-0.02
288.919	0.05
289.132	-0.07
289.346	0.02
289.559	-0.03
289.773	-0.07
289.986	-0.05
290.2	-0.02
290.413	0.08
290.626	-0.06
290.84	-0.06
291.053	-0.01
291.267	0.07
291.48	-0.02
291.693	0.01
291.906	-0.08
292.12	0.02
292.333	-0.06
292.546	0
292.76	0.04
292.973	-0.02
293.186	0.01
293.399	-0.03
293.612	0.05
293.826	-0.02
294.039	-0.02
294.252	-0.06
294.465	0.03
294.678	0.04
294.891	0.01
295.104	-0.09
295.317	-0
295.53	-0
295.743	-0.01
295.956	-0.05
296.169	0.07
296.382	0.04
296.595	0.03
296.808	-0.06
297.021	0.08
297.234	0.06
297.447	-0.01
297.66	0
297.873	0.06
298.086	0.02
298.299	-0.04
298.511	-0.11
298.724	-0.01
298.937	-0.12
299.15	-0.04
299.363	-0.04
299.575	0.05
299.788	0
300.001	-0.03
300.213	-0.07
300.426	-0.05
300.639	-0.04
300.852	-0.08
301.064	0.05
301.277	0.08
301.489	0.04
301.702	0.05
301.915	0.03
302.127	-0.03
302.34	0.01
302.552	0
302.765	-0.02
302.977	0.03
303.19	-0.04
303.402	-0
303.615	-0.03
303.827	-0.02
304.04	-0.03
304.252	-0
304.464	-0.03
304.677	0.16
304.889	0.04
305.102	-0.04
305.314	-0.03
305.526	0.01
305.739	0.01
305.951	-0.07
306.163	-0.06
306.375	0.1
306.588	-0.04
306.8	-0.05
307.012	-0.1
307.224	-0.02
307.436	0.08
307.649	-0.09
307.861	0.01
308.073	0.02
308.285	-0.04
308.497	-0.06
308.709	-0.03
308.921	0.02
309.133	0.03
309.346	0.03
309.558	-0.03
309.77	0.02
309.982	0.04
310.194	0.05
310.406	-0.05
310.617	0.1
310.829	-0.01
311.041	0.04
311.253	-0.06
311.465	-0.04
311.677	-0.02
311.889	-0.01
312.101	-0.03
312.313	0.05
312.524	0.04
312.736	-0.06
312.948	-0.01
313.16	0.08
313.372	0
313.583	-0.01
313.795	0.01
314.007	-0.05
314.218	0.04
314.43	-0.06
314.642	-0.08
314.853	-0.05
315.065	0.04
315.277	0.01
315.488	-0.01
315.7	0.03
315.912	0.03
316.123	-0.04
316.335	0.05
316.546	0.1
316.758	-0
316.969	-0.06
317.181	0.03
317.392	0.03
317.604	0.04
317.815	-0.09
318.026	-0.06
318.238	-0.04
318.449	-0.02
318.661	-0.08
318.872	-0.09
319.083	-0.02
319.295	0.07
319.506	-0.02
319.717	0.01
319.929	0
320.14	0
320.351	-0.01
320.562	-0.05
320.774	-0.01
320.985	0.01
321.196	-0.05
321.407	-0.11
321.618	0.04
321.829	0.03
322.041	0.02
322.252	-0.02
322.463	0.05
322.674	0.01
322.885	-0.06
323.096	-0.01
323.307	0.02
323.518	-0
323.729	-0.04
323.94	-0
324.151	-0.04
324.362	0.01
324.573	-0.03
324.784	-0.09
324.995	0.05
325.206	0.02
325.417	-0.01
325.628	-0.03
325.838	-0.03
326.049	0.02
326.26	0.02
326.471	-0.02
326.682	0
326.892	0.01
327.103	-0.08
327.314	-0.06
327.525	0.07
327.735	-0
327.946	-0.02
328.157	-0.02
328.368	0.01
328.578	-0.07
328.789	0.02
328.999	-0
329.21	-0.01
329.421	0.04
329.631	-0.06
329.842	-0.06
330.052	-0.01
330.263	0.03
330.473	0.01
330.684	-0.02
330.894	0.02
331.105	0.02
331.315	-0.02
331.526	-0.07
331.736	0.06
331.947	0
332.157	0.01
332.367	-0.08
332.578	0
332.788	0.06
332.999	0.02
333.209	-0.02
333.419	-0.08
333.629	0.01
333.84	-0.01
334.05	0
334.26	0.05
334.47	-0.01
334.681	0.02
334.891	-0.04
335.101	0.04
335.311	0.04
335.521	0
335.732	-0.05
335.942	0.06
336.152	0.02
336.362	-0
336.572	0.01
336.782	0.07
336.992	-0.03
337.202	-0.01
337.412	-0.05
337.622	0.02
337.832	-0
338.042	-0.02
338.252	-0.05
338.462	-0
338.672	0.03
338.882	-0.03
339.092	0.04
339.302	0.07
339.511	0.02
339.721	-0.07
339.931	-0.06
340.141	0.03
340.351	0.03
340.561	0.04
340.77	0
340.98	0.02
341.19	0.02
341.4	-0.05
341.609	-0.06
341.819	-0.02
342.029	-0.07
342.238	-0.02
342.448	-0.04
342.658	0.02
342.867	0.01
343.077	-0.01
343.286	-0.01
343.496	0.03
343.706	0.01
343.915	-0.06
344.125	0.04
344.334	0.01
344.544	-0.04
344.753	-0.04
344.963	-0.03
345.172	-0.02
345.381	0
345.591	-0.02
345.8	-0.02
346.01	0.06
346.219	0.03
346.428	-0.17
346.638	0.02
346.847	-0.03
347.056	0.05
347.266	-0.01
347.475	0.02
347.684	0.03
347.893	0.04
348.103	0.03
348.312	-0.05
348.521	-0
348.73	0.02
348.94	0.03
349.149	-0.03
349.358	-0.05
349.567	-0.06
349.776	-0.05
349.985	0
350.194	0.05
350.403	0.06
350.612	-0.05
350.821	-0.06
351.03	-0.01
351.239	-0.06
351.448	-0.04
351.657	-0.04
351.866	0.07
352.075	0.02
352.284	0
352.493	-0.07
352.702	0.06
352.911	0.02
353.12	0
353.329	0
353.538	-0
353.746	-0.02
353.955	-0.05
354.164	-0.03
354.373	-0.02
354.582	0.02
354.79	-0
354.999	0.03
355.208	0
355.416	0.05
355.625	-0.06
355.834	-0.04
356.042	0.02
356.251	-0.04
356.46	-0.06
356.668	0
356.877	0.04
357.085	0.04
357.294	-0.11
357.503	0.03
357.711	-0.03
357.92	0.08
358.128	0.03
358.337	-0.01
358.545	-0
358.754	-0.04
358.962	0.03
359.17	-0.01
359.379	0.02
359.587	0.02
359.796	-0.02
360.004	0.06
360.212	0.02
360.421	0.08
360.629	0.03
360.837	0
361.046	0.03
361.254	0.1
361.462	-0.03
361.67	-0.04
361.879	0.01
362.087	0.03
362.295	-0.01
362.503	-0.01
362.711	-0.04
362.92	-0.01
363.128	-0.02
363.336	-0.05
363.544	-0.05
363.752	-0.01
363.96	-0.04
364.168	-0
364.376	-0.01
364.584	0.02
364.792	0.01
365	0.01
365.208	-0.01
365.416	0.03
365.624	-0
365.832	-0.03
366.04	0.04
366.248	0.02
366.456	0.04
366.664	0.01
366.872	-0.02
367.079	0.02
367.287	0.01
367.495	0
367.703	0.01
367.911	0.01
368.118	-0.04
368.326	0.01
368.534	-0.03
368.742	0.01
368.949	-0.06
369.157	-0.01
369.365	0.03
369.572	-0
369.78	-0.04
369.988	-0.01
370.195	0.01
370.403	0.02
370.61	-0.02
370.818	-0
371.026	0.08
371.233	-0.05
371.441	0.03
371.648	-0.05
371.856	-0.01
372.063	0.01
372.271	-0.03
372.478	-0.03
372.685	-0.04
372.893	0.03
373.1	-0.04
373.308	-0.01
373.515	0.04
373.722	0
373.93	-0.05
374.137	0.02
374.344	0.06
374.552	0.04
374.759	0.04
374.966	0.01
375.173	-0
375.381	0.03
375.588	0.02
375.795	-0.07
376.002	-0.03
376.209	-0.04
376.417	-0.03
376.624	-0.02
376.831	0.03
377.038	0.02
377.245	-0.09
377.452	-0.04
377.659	-0.03
377.866	-0.03
378.073	-0.02
378.28	0
378.487	0.02
378.694	-0
378.901	-0.05
379.108	-0.05
379.315	0.04
379.522	0.06
379.729	0.01
379.936	-0.04
380.143	-0.02
380.35	0.06
380.557	-0.04
380.763	0
380.97	0.02
381.177	0
381.384	-0.01
381.591	-0.06
381.797	-0
382.004	-0.02
382.211	0.01
382.418	-0.02
382.624	0.01
382.831	0.03
383.038	-0.05
383.244	-0.02
383.451	0
383.658	0.02
383.864	-0.03
384.071	-0
384.277	0.06
384.484	-0.08
384.69	0
384.897	-0.01
385.103	-0
385.31	-0.02
385.516	-0.02
385.723	-0.05
385.929	-0.04
386.136	-0.06
386.342	-0.01
386.549	-0.02
386.755	0.06
386.961	0.06
387.168	-0.08
387.374	-0.02
387.58	-0
387.787	0
387.993	0.02
388.199	0
388.406	-0.03
388.612	-0.02
388.818	-0
389.024	-0.02
389.231	0.03
389.437	0.08
389.643	0.01
389.849	-0.01
390.055	0.02
390.261	0.04
390.467	0.01
390.674	-0.03
390.88	-0.02
391.086	0.02
391.292	-0.03
391.498	0.02
391.704	0
391.91	-0.03
392.116	-0.03
392.322	-0.07
392.528	-0.03
392.734	0
392.94	-0.01
393.146	-0.05
393.352	0.04
393.557	0.01
393.763	-0.01
393.969	0.03
394.175	0.02
394.381	-0.02
394.587	-0.07
394.792	-0.02
394.998	0.06
395.204	0.05
395.41	-0.03
395.615	0.02
395.821	0.03
396.027	0.03
396.233	-0.04
396.438	0.01
396.644	0.06
396.85	0.01
397.055	0
397.261	0.03
397.466	0.12
397.672	0.02
397.878	0.1
398.083	0.04
398.289	-0.02
398.494	0.05
398.7	0.05
398.905	-0.09
399.111	0.1
399.316	-0.04
399.522	0.03
399.727	0.03
399.932	0.02
400.138	0.03
400.343	0.05
400.549	0.03
400.754	0.04
400.959	0.05
401.165	0
401.37	0.01
401.575	0.12
401.78	0.04
401.986	0.06
402.191	0.01
402.396	0
402.601	0.02
402.807	0.03
403.012	0.03
403.217	0.09
403.422	0.02
403.627	0.06
403.832	0.01
404.037	0.11
404.243	0.07
404.448	0.01
404.653	0.02
404.858	0.1
405.063	0.11
405.268	0
405.473	0.03
405.678	0.04
405.883	0.26
406.088	0.13
406.293	0.08
406.498	0.03
406.703	0.16
406.907	0.11
407.112	0.03
407.317	0.12
407.522	0.19
407.727	0.03
407.932	0.12
408.136	0.17
408.341	0.16
408.546	0.11
408.751	0.17
408.956	0.18
409.16	0.21
409.365	0.16
409.57	0.16
409.774	0.15
409.979	0.25
410.184	0.22
410.388	0.15
410.593	0.23
410.798	0.25
411.002	0.21
411.207	0.28
411.411	0.32
411.616	0.26
411.82	0.25
412.025	0.32
412.229	0.26
412.434	0.41
412.638	0.34
412.843	0.31
413.047	0.34
413.252	0.3
413.456	0.37
413.66	0.49
413.865	0.35
414.069	0.51
414.273	0.39
414.478	0.44
414.682	0.46
414.886	0.43
415.091	0.47
415.295	0.44
415.499	0.51
415.703	0.55
415.908	0.61
416.112	0.51
416.316	0.72
416.52	0.62
416.724	0.63
416.929	0.64
417.133	0.82
417.337	0.75
417.541	0.76
417.745	0.77
417.949	0.84
418.153	0.88
418.357	0.85
418.561	1
418.765	0.91
418.969	1.05
419.173	1.07
419.377	1.02
419.581	1.19
419.785	1.07
419.989	1.08
420.193	1.17
420.397	1.23
420.601	1.29
420.804	1.33
421.008	1.25
421.212	1.32
421.416	1.29
421.62	1.27
421.823	1.29
422.027	1.42
422.231	1.35
422.435	1.25
422.638	1.31
422.842	1.33
423.046	1.29
423.249	1.41
423.453	1.33
423.657	1.37
423.86	1.33
424.064	1.37
424.268	1.46
424.471	1.34
424.675	1.47
424.878	1.4
425.082	1.37
425.285	1.46
425.489	1.35
425.692	1.34
425.896	1.23
426.099	1.3
426.303	1.21
426.506	1.18
426.71	1.28
426.913	1.28
427.116	1.27
427.32	1.2
427.523	1.12
427.726	1.24
427.93	1.02
428.133	1.13
428.336	1.05
428.54	1.06
428.743	1.05
428.946	1.09
429.149	0.98
429.353	1
429.556	0.91
429.759	0.92
429.962	0.82
430.165	0.89
430.368	0.72
430.571	0.74
430.775	0.76
430.978	0.69
431.181	0.69
431.384	0.65
431.587	0.58
431.79	0.62
431.993	0.58
432.196	0.57
432.399	0.54
432.602	0.61
432.805	0.53
433.008	0.57
433.211	0.46
433.414	0.56
433.616	0.59
433.819	0.48
434.022	0.4
434.225	0.53
434.428	0.48
434.631	0.57
434.833	0.46
435.036	0.43
435.239	0.41
435.442	0.43
435.645	0.4
435.847	0.41
436.05	0.46
436.253	0.38
436.455	0.32
436.658	0.37
436.861	0.43
437.063	0.32
437.266	0.32
437.468	0.36
437.671	0.45
437.874	0.34
438.076	0.23
438.279	0.23
438.481	0.31
438.684	0.24
438.886	0.32
439.089	0.22
439.291	0.29
439.494	0.3
439.696	0.23
439.899	0.21
440.101	0.3
440.303	0.17
440.506	0.28
440.708	0.19
440.91	0.24
441.113	0.17
441.315	0.25
441.517	0.15
441.72	0.31
441.922	0.15
442.124	0.15
442.326	0.24
442.529	0.26
442.731	0.13
442.933	0.27
443.135	0.13
443.337	0.12
443.539	0.12
443.742	0.12
443.944	0.17
444.146	0.11
444.348	0.12
444.55	0.06
444.752	0.08
444.954	0.11
445.156	0.09
445.358	0.08
445.56	0.12
445.762	0.1
445.964	0.07
446.166	0.09
446.368	0.07
446.57	0.13
446.772	0.08
446.974	0.04
447.175	0.14
447.377	0.05
447.579	0.07
447.781	0.01
447.983	0.09
448.184	0.15
448.386	0.02
448.588	-0.02
448.79	0.05
448.991	0.02
449.193	0.03
449.395	0.07
449.597	0.09
449.798	0.05
450	0.08
450.202	0.02
450.403	0.05
450.605	0.07
450.806	0.02
451.008	0
451.21	0.02
451.411	0.07
451.613	0
451.814	0.07
452.016	0.07
452.217	0.03
452.419	0.07
452.62	0.06
452.821	0.05
453.023	0.09
453.224	0.09
453.426	0.05
453.627	0.03
453.828	0.07
454.03	0
454.231	0.08
454.432	0.01
454.634	0.12
454.835	-0.01
455.036	-0.03
455.238	0.06
455.439	0.12
455.64	-0.02
455.841	0.01
456.042	0.1
456.244	0.07
456.445	-0.04
456.646	-0.03
456.847	-0.03
457.048	0.05
457.249	0.05
457.45	0.24
457.651	-0.04
457.852	0.09
458.054	0.06
458.255	-0.01
458.456	0.09
458.657	0
458.858	0.01
459.058	0.02
459.259	0.07
459.46	0
459.661	-0.02
459.862	0.14
460.063	-0.02
460.264	0.08
460.465	-0.03
460.666	0.08
460.866	-0.02
461.067	0.01
461.268	-0.01
461.469	-0.03
461.67	0.01
461.87	-0.03
462.071	-0.02
462.272	-0
462.473	-0
462.673	0.03
462.874	-0.07
463.075	-0.03
463.275	-0.06
463.476	-0.01
463.676	-0.03
463.877	0
464.078	0.01
464.278	0.09
464.479	-0.01
464.679	0
464.88	-0.02
465.08	0.14
465.281	-0.06
465.481	-0
465.682	0.01
465.882	0.05
466.083	-0.04
466.283	0.04
466.483	-0.02
466.684	-0.05
466.884	-0.04
467.085	0.01
467.285	0.04
467.485	-0.05
467.686	-0.04
467.886	-0.03
468.086	-0.05
468.286	0.01
468.487	-0.01
468.687	-0.05
468.887	-0.01
469.087	0.03
469.287	0.03
469.488	-0.08
469.688	0.03
469.888	0.06
470.088	0.07
470.288	0.05
470.488	0.07
470.688	-0.04
470.888	-0.01
471.088	-0.09
471.288	0.05
471.488	0.04
471.688	0.02
471.888	-0.02
472.088	0.05
472.288	0.03
472.488	-0.05
472.688	-0.06
472.888	-0.03
473.088	0.01
473.288	0.02
473.488	-0.03
473.688	0.11
473.887	0
474.087	-0.02
474.287	-0.02
474.487	-0.03
474.687	0.02
474.886	-0.02
475.086	-0.02
475.286	0.01
475.486	0.01
475.685	0.01
475.885	0
476.085	0.01
476.284	0
476.484	-0.02
476.684	0.05
476.883	0.06
477.083	0.02
477.282	-0.01
477.482	0.07
477.681	0.05
477.881	0.04
478.08	-0.03
478.28	-0.02
478.479	0.03
478.679	0.06
478.878	-0.02
479.078	-0.05
479.277	-0.01
479.477	0.01
479.676	0.03
479.875	-0.02
480.075	-0.1
480.274	0.02
480.473	0.04
480.673	-0.04
480.872	0.04
481.071	0
481.271	0.01
481.47	-0.02
481.669	-0.01
481.868	-0.01
482.067	-0.03
482.267	-0.03
482.466	-0.04
482.665	-0.05
482.864	-0.03
483.063	-0.02
483.262	-0
483.461	0.07
483.661	0.01
483.86	0.01
484.059	0.03
484.258	0
484.457	-0.02
484.656	-0.01
484.855	0.02
485.054	-0.05
485.253	-0.04
485.452	-0.05
485.651	-0.03
485.849	-0.01
486.048	-0.03
486.247	-0.01
486.446	0.01
486.645	-0.04
486.844	-0.03
487.043	-0.02
487.241	0.01
487.44	-0.03
487.639	0
487.838	0.02
488.037	-0.01
488.235	0.07
488.434	0
488.633	-0.02
488.831	0.01
489.03	0.04
489.229	0
489.427	0.01
489.626	0.03
489.825	0.05
490.023	-0
490.222	-0.02
490.42	0.02
490.619	0.02
490.817	0.01
491.016	-0
491.214	0.03
491.413	-0.02
491.611	-0.01
491.81	-0.01
492.008	0.03
492.207	0.02
492.405	0
492.604	-0.05
492.802	-0.01
493	0.02
493.199	-0.04
493.397	-0.01
493.595	0.01
493.794	-0.02
493.992	0.05
494.19	0.01
494.388	-0.01
494.587	0
494.785	0.01
494.983	-0.05
495.181	0.02
495.379	0.01
495.578	0
495.776	0.01
495.974	-0
496.172	0.02
496.37	-0.02
496.568	-0.04
496.766	-0.02
496.964	0.02
497.162	0.01
497.36	-0.04
497.558	0.02
497.756	0.01
497.954	0
498.152	-0.04
498.35	-0.01
498.548	-0
498.746	0.01
498.944	-0.04
499.142	-0.01
499.34	-0.04
499.538	-0
499.736	-0.04
499.933	0.05
500.131	0.02
500.329	-0
500.527	0.03
500.725	0.03
500.922	-0
501.12	0.02
501.318	-0
501.516	0.01
501.713	0
501.911	-0.01
502.109	-0.03
502.306	0.01
502.504	-0.02
502.701	-0.01
502.899	-0.02
503.097	0.03
503.294	0.02
503.492	-0.01
503.689	-0.01
503.887	0.01
504.084	0.04
504.282	-0.01
504.479	-0.04
504.677	0.01
504.874	-0.03
505.072	-0
505.269	-0.01
505.466	-0.01
505.664	-0
505.861	-0.05
506.059	-0.04
506.256	0.02
506.453	-0.02
506.651	0.03
506.848	0.02
507.045	0.01
507.242	0
507.44	-0.02
507.637	-0.01
507.834	0.01
508.031	0.01
508.229	-0.03
508.426	-0
508.623	0.01
508.82	-0.03
509.017	-0.03
509.214	-0.02
509.411	-0
509.608	-0.03
509.805	-0.01
510.003	-0.02
510.2	-0.05
510.397	0.03
510.594	-0.03
510.791	-0.01
510.988	-0
511.184	0.01
511.381	0.02
511.578	-0.04
511.775	0.02
511.972	-0.02
512.169	-0.01
512.366	-0.01
512.563	0
512.76	-0.02
512.956	0.03
513.153	-0.02
513.35	0.02
513.547	-0.02
513.744	-0.03
513.94	-0.02
514.137	0
514.334	-0
514.53	0
514.727	-0
514.924	0.04
515.12	-0.03
515.317	-0.05
515.514	-0.03
515.71	-0.02
515.907	0.01
516.103	-0.02
516.3	-0
516.497	0.02
516.693	0.03
516.89	-0.03
517.086	-0.02
517.283	0.03
517.479	-0
517.676	-0.01
517.872	-0.01
518.068	-0.01
518.265	-0.03
518.461	-0.01
518.658	-0.03
518.854	-0
519.05	-0.01
519.247	-0.03
519.443	0.02
519.639	-0
519.836	-0.01
520.032	-0
520.228	-0.01
520.424	0.05
520.621	-0.01
520.817	0.01
521.013	0.02
521.209	0.02
521.405	0.05
521.601	0.02
521.798	0
521.994	0.05
522.19	-0.03
522.386	-0.04
522.582	-0
522.778	-0.01
522.974	-0.02
523.17	-0.02
523.366	0
523.562	0.04
523.758	-0
523.954	-0.01
524.15	-0.02
524.346	0.02
524.542	-0.03
524.738	-0.01
524.934	-0
525.129	-0.01
525.325	-0.01
525.521	-0.02
525.717	0.02
525.913	-0
526.109	-0.01
526.304	-0.03
526.5	-0.02
526.696	0.02
526.892	0
527.087	-0
527.283	-0.01
527.479	0.01
527.674	-0.03
527.87	-0.01
528.066	-0.02
528.261	0.02
528.457	0.02
528.653	-0.01
528.848	-0.01
529.044	-0.01
529.239	-0.01
529.435	0.03
529.63	0.01
529.826	0.04
530.021	0.02
530.217	0.02
530.412	-0.04
530.608	-0
530.803	0
530.999	-0.03
531.194	-0.04
531.389	0
531.585	-0.06
531.78	-0.02
531.975	0.01
532.171	0.02
532.366	0.01
532.561	-0
532.757	-0.02
532.952	-0.02
533.147	0.02
533.342	-0.01
533.538	-0.01
533.733	0.02
533.928	-0.01
534.123	-0.01
534.318	-0.05
534.513	-0.01
534.709	-0.01
534.904	-0.03
535.099	-0.02
535.294	-0
535.489	-0.01
535.684	-0.01
535.879	-0.04
536.074	0.02
536.269	-0.03
536.464	0.01
536.659	-0
536.854	-0.01
537.049	0.02
537.244	-0
537.439	-0.01
537.634	0.04
537.828	-0
538.023	0
538.218	-0.05
538.413	-0.01
538.608	-0.02
538.803	0.01
538.997	-0.02
539.192	0.01
539.387	0.01
539.582	-0.01
539.776	0
539.971	-0.02
540.166	-0.01
540.36	-0.01
540.555	-0.01
540.75	-0.01
540.944	-0.02
541.139	-0.05
541.334	-0.03
541.528	0.01
541.723	0.03
541.917	-0.02
542.112	-0.06
542.306	-0.01
542.501	-0.01
542.695	-0
542.89	-0.02
543.084	0
543.279	-0.03
543.473	-0.02
543.668	-0.01
543.862	-0.01
544.056	0.02
544.251	-0.01
544.445	0.01
544.64	0.01
544.834	-0.02
545.028	0.01
545.222	-0.01
545.417	0.03
545.611	0.01
545.805	-0.01
546	-0.01
546.194	-0.01
546.388	0.01
546.582	0.01
546.776	0.02
546.97	-0.01
547.165	0.01
547.359	-0
547.553	-0.02
547.747	-0.01
547.941	-0
548.135	-0.01
548.329	0
548.523	-0.01
548.717	-0.02
548.911	-0.02
549.105	0.01
549.299	-0.01
549.493	0
549.687	0.02
549.881	-0.01
550.075	-0.01
550.269	-0.06
550.463	0.02
550.657	-0.02
550.85	-0.02
551.044	-0.02
551.238	0
551.432	0
551.626	-0.04
551.82	0.01
552.013	-0.02
552.207	-0.01
552.401	-0.01
552.594	-0.01
552.788	-0.01
552.982	-0.01
553.176	-0.01
553.369	-0.01
553.563	0.01
553.756	-0.05
553.95	-0.02
554.144	-0
554.337	0
554.531	-0
554.724	0
554.918	-0
555.111	0.01
555.305	-0.03
555.498	0.03
555.692	0.01
555.885	-0.02
556.079	-0.01
556.272	-0.03
556.466	0.03
556.659	-0
556.852	-0.02
557.046	-0.04
557.239	0.05
557.432	-0.04
557.626	-0.02
557.819	0.01
558.012	0.03
558.206	0.02
558.399	0.01
558.592	0.02
558.785	-0.04
558.979	0.02
559.172	-0
559.365	0.02
559.558	0.01
559.751	-0.03
559.944	-0
560.138	-0.01
560.331	0
560.524	-0.03
560.717	0.01
560.91	-0.01
561.103	-0.01
561.296	0.01
561.489	-0.01
561.682	-0.01
561.875	0.01
562.068	0.01
562.261	-0.02
562.454	0.06
562.647	0.01
562.84	0.01
563.032	-0.01
563.225	0.01
563.418	-0.02
563.611	-0.03
563.804	-0.02
563.997	-0.03
564.19	-0.04
564.382	-0.01
564.575	-0.01
564.768	0.01
564.961	-0.03
565.153	-0.03
565.346	0.01
565.539	0
565.731	0.03
565.924	0.02
566.117	0.02
566.309	-0.01
566.502	-0.03
566.695	0.01
566.887	-0.01
567.08	-0.01
567.272	0.01
567.465	-0.01
567.657	-0
567.85	0.01
568.042	0.02
568.235	0.02
568.427	-0.01
568.62	-0.02
568.812	0.02
569.005	-0.02
569.197	-0.04
569.389	-0.01
569.582	0.01
569.774	-0.02
569.966	-0.03
570.159	-0.03
570.351	0.01
570.543	-0.02
570.736	-0.02
570.928	-0.06
571.12	-0.02
571.312	-0.03
571.505	-0.03
571.697	0.01
571.889	-0.03
572.081	-0.01
572.273	-0.02
572.465	0.04
572.658	-0.02
572.85	0
573.042	-0.05
573.234	-0.01
573.426	0.03
573.618	-0.04
573.81	0
574.002	0.03
574.194	0.02
574.386	-0.04
574.578	-0.07
574.77	-0.03
574.962	-0.02
575.154	-0.04
575.346	-0.02
575.538	-0
575.729	-0.03
575.921	-0.01
576.113	-0.01
576.305	0.01
576.497	-0.03
576.689	0.01
576.88	-0.02
577.072	0.03
577.264	-0.02
577.456	-0.01
577.647	-0.06
577.839	-0.03
578.031	0.02
578.223	-0.04
578.414	-0.02
578.606	-0
578.798	0.01
578.989	-0.03
579.181	0
579.372	-0.02
579.564	-0.01
579.755	0
579.947	0.01
580.139	0.02
580.33	-0.06
580.522	-0.03
580.713	-0.08
580.905	-0.02
581.096	0.02
581.287	-0.02
581.479	-0
581.67	0
581.862	0.01
582.053	-0.03
582.244	-0.02
582.436	-0.02
582.627	0.01
582.818	-0.01
583.01	-0.04
583.201	0.02
583.392	-0
583.583	-0.01
583.775	-0.03
583.966	-0.02
584.157	-0.02
584.348	-0.02
584.54	-0.04
584.731	0.01
584.922	-0.01
585.113	-0.03
585.304	0.01
585.495	0.03
585.686	-0
585.877	-0
586.068	0
586.259	0.01
586.45	0
586.641	-0.02
586.832	-0.08
587.023	0.01
587.214	-0.03
587.405	0.01
587.596	-0.03
587.787	0.03
587.978	0.02
588.169	-0.05
588.36	-0.02
588.551	0.01
588.742	-0.03
588.932	0.01
589.123	-0.02
589.314	-0.01
589.505	0
589.696	-0.01
589.886	-0.03
590.077	-0.04
590.268	-0.01
590.458	-0.05
590.649	-0.06
590.84	0.01
591.03	-0.04
591.221	-0.05
591.412	-0.06
591.602	0.02
591.793	0.02
591.984	-0.05
592.174	-0.01
592.365	0.05
592.555	-0.03
592.746	-0.01
592.936	-0.01
593.127	0
593.317	0.03
593.508	-0.04
593.698	-0.03
593.889	-0.01
594.079	0
594.269	-0.04
594.46	0.01
594.65	-0
594.84	-0.01
595.031	-0.05
595.221	-0.02
595.411	-0.06
595.602	0.02
595.792	-0.02
595.982	-0.02
596.172	0.04
596.363	-0.01
596.553	-0.03
596.743	-0.01
596.933	-0
597.123	0.04
597.314	-0.04
597.504	-0.01
597.694	0.03
597.884	0.01
598.074	-0.04
598.264	-0.02
598.454	0.01
598.644	0
598.834	-0.03
599.024	-0.07
599.214	-0.03
599.404	0.02
599.594	-0.04
599.784	-0.06
599.974	0.03
600.164	0
600.354	-0.05
600.544	-0.05
600.734	-0.01
600.924	0.05
601.114	-0.05
601.303	-0.01
601.493	-0.01
601.683	-0.04
601.873	0
602.063	-0.03
602.252	-0
602.442	-0.06
602.632	-0.03
602.821	-0.05
603.011	0.02
603.201	-0.04
603.39	-0.04
603.58	-0.01
603.77	0.01
603.959	0.03
604.149	-0.02
604.339	-0.02
604.528	0.02
604.718	0.01
604.907	-0.05
605.097	-0.05
605.286	-0.06
605.476	0.02
605.665	0
605.855	-0.03
606.044	0.04
606.234	0
606.423	-0.01
606.612	-0.04
606.802	-0.02
606.991	0.01
607.181	-0.01
607.37	-0.04
607.559	-0.01
607.749	-0.04
607.938	-0.02
608.127	-0.02
608.316	-0.03
608.506	0.01
608.695	-0.03
608.884	-0.02
609.073	-0.02
609.263	-0.03
609.452	-0
609.641	-0.02
609.83	-0.02
610.019	-0.02
610.208	-0.03
610.397	-0.02
610.586	0.03
610.775	-0.05
610.965	-0.02
611.154	-0.04
611.343	0.02
611.532	-0.02
611.721	-0.03
611.91	-0.05
612.099	0.01
612.287	-0.01
612.476	-0.05
612.665	-0.01
612.854	-0.04
613.043	0.04
613.232	-0.02
613.421	-0.06
613.61	-0
613.798	-0.03
613.987	0.01
614.176	-0
614.365	0.02
614.554	-0.02
614.742	0
614.931	-0.04
615.12	0.02
615.309	-0.01
615.497	0
615.686	-0.05
615.875	-0.04
616.063	0
616.252	-0.01
616.44	-0.02
616.629	0.01
616.818	0.05
617.006	-0.03
617.195	-0.05
617.383	0.02
617.572	-0.01
617.76	-0.04
617.949	-0.04
618.137	0.05
618.326	0.04
618.514	-0.05
618.703	-0.06
618.891	0.07
619.079	-0.08
619.268	0.01
619.456	-0.06
619.644	0.03
619.833	-0.01
620.021	-0.04
620.209	-0.06
620.398	0.01
620.586	-0
620.774	0.01
620.962	-0.03
621.151	0.04
621.339	-0
621.527	-0.05
621.715	-0.06
621.903	-0.02
622.092	-0.05
622.28	-0.02
622.468	-0.05
622.656	-0.02
622.844	-0.01
623.032	-0.07
623.22	-0.06
623.408	0.02
623.596	0
623.784	0.02
623.972	-0.04
624.16	-0.03
624.348	0.03
624.536	-0.06
624.724	-0.01
624.912	0.04
625.1	0.04
625.288	-0.08
625.476	-0.05
625.664	0.02
625.851	-0.04
626.039	-0.02
626.227	0
626.415	-0.04
626.603	-0.05
626.79	-0.02
626.978	-0.04
627.166	-0.01
627.354	-0.01
627.541	-0.06
627.729	-0.08
627.917	-0
628.104	0.02
628.292	-0.02
628.48	-0.01
628.667	0
628.855	0
629.042	-0.01
629.23	-0.02
629.418	-0.01
629.605	-0.03
629.793	-0.04
629.98	-0.03
630.168	-0.01
630.355	-0.01
630.543	-0.02
630.73	-0.04
630.917	-0.01
631.105	0.04
631.292	-0.06
631.48	-0.03
631.667	0.04
631.854	-0
632.042	-0.04
632.229	-0.09
632.416	-0.03
632.604	0.02
632.791	-0.03
632.978	-0.01
633.165	-0.03
633.353	0.07
633.54	0
633.727	-0.07
633.914	-0.05
634.101	-0.07
634.289	0.03
634.476	-0.06
634.663	-0.05
634.85	-0.02
635.037	-0.07
635.224	-0.06
635.411	0.04
635.598	0.03
635.785	-0.04
635.972	-0.03
636.159	0
636.346	-0.05
636.533	-0.02
636.72	-0.04
636.907	-0.03
637.094	0.03
637.281	-0.04
637.468	0.02
637.655	-0.01
637.842	-0.03
638.029	-0.07
638.215	0.04
638.402	-0
638.589	-0.05
638.776	-0.06
638.963	-0.01
639.149	0.03
639.336	0.04
639.523	-0.02
639.709	-0.03
639.896	-0.02
640.083	0.01
640.27	0.01
640.456	-0.04
640.643	0.02
640.829	-0.07
641.016	-0.04
641.203	-0.05
641.389	-0.05
641.576	-0
641.762	-0.03
641.949	-0.04
642.135	-0.03
642.322	0.01
642.508	-0.04
642.695	-0.01
642.881	-0.03
643.068	-0.04
643.254	-0.05
643.441	0.04
643.627	-0.02
643.813	-0.03
644	-0.03
644.186	-0.06
644.372	0.01
644.559	0.01
644.745	-0.02
644.931	-0.05
645.118	0
645.304	-0.03
645.49	-0.05
645.676	-0.02
645.862	-0.02
646.049	0.08
646.235	-0.01
646.421	0.07
646.607	0.05
646.793	-0.01
646.979	-0.05
647.165	-0.04
647.352	-0.03
647.538	0.03
647.724	-0.01
647.91	-0.02
648.096	0
648.282	0
648.468	-0.03
648.654	-0.02
648.84	-0.01
649.026	-0.04
649.212	-0.01
649.397	-0.02
649.583	-0.05
649.769	0.01
649.955	-0.02
650.141	0.01
650.327	0.07
650.513	-0.07
650.698	0
650.884	-0.11
651.07	0.01
651.256	0.02
651.442	-0.02
651.627	-0.03
651.813	0.01
651.999	-0.01
652.184	0.02
652.37	-0.02
652.556	-0.04
652.741	0.07
652.927	-0.07
653.113	-0.03
653.298	-0.02
653.484	-0.03
653.669	-0.06
653.855	-0.02
654.04	0.01
654.226	-0.01
654.412	-0.04
654.597	-0.03
654.782	-0.03
654.968	0.03
655.153	0.01
655.339	-0.04
655.524	-0.08
655.71	0.03
655.895	-0.02
656.08	-0.04
656.266	0.04
656.451	-0.01
656.636	-0.04
656.822	-0
657.007	-0.05
657.192	-0.02
657.378	-0.07
657.563	-0.01
657.748	-0.02
657.933	-0.01
658.118	-0.03
658.304	-0
658.489	0.02
658.674	0.02
658.859	-0.02
659.044	-0.02
659.229	0.01
659.414	-0.04
659.599	-0.05
659.785	-0.07
659.97	-0.05
660.155	0.01
660.34	0.01
660.525	-0.03
660.71	-0.02
660.895	0
661.08	-0.05
661.264	-0.03
661.449	0.04
661.634	0.06
661.819	0.01
662.004	0.01
662.189	-0.07
662.374	-0.05
662.559	-0.05
662.743	-0.09
662.928	-0.03
663.113	-0.03
663.298	-0.06
663.483	-0.04
663.667	-0.03
663.852	-0.09
664.037	0.04
664.221	-0.04
664.406	0.02
664.591	0.02
664.775	0
664.96	-0.08
665.145	-0.02
665.329	0.01
665.514	-0.04
665.698	-0.02
665.883	-0.1
666.068	0.04
666.252	-0.03
666.437	-0.06
666.621	-0.03
666.806	0.05
666.99	-0.03
667.174	-0.07
667.359	0.01
667.543	-0.01
667.728	-0.03
667.912	-0.09
668.096	0
668.281	-0.04
668.465	-0.02
668.649	-0.04
668.834	-0.03
669.018	-0.04
669.202	-0.05
669.387	-0.07
669.571	0.03
669.755	-0.04
669.939	-0.01
670.124	-0.02
670.308	0.03
670.492	0.04
670.676	0.01
670.86	-0.04
671.044	-0.08
671.228	0
671.413	-0.03
671.597	-0.04
671.781	-0.07
671.965	0
672.149	-0.04
672.333	-0.01
672.517	-0.06
672.701	-0.01
672.885	-0.03
673.069	-0.08
673.253	0.04
673.437	-0.03
673.621	-0.07
673.804	-0.01
673.988	-0.06
674.172	-0.01
674.356	-0.08
674.54	-0.03
674.724	0.09
674.908	-0.02
675.091	-0.01
675.275	0.04
675.459	0.02
675.643	-0.02
675.826	-0.02
676.01	-0.02
676.194	-0.05
676.377	0.01
676.561	0.02
676.745	-0.01
676.928	-0.05
677.112	0.02
677.296	-0.04
677.479	-0.03
677.663	-0.03
677.846	0.03
678.03	-0.01
678.213	-0.04
678.397	0.02
678.58	-0.04
678.764	-0.05
678.947	-0.07
679.131	-0.04
679.314	-0.01
679.498	-0.03
679.681	-0.03
679.865	-0.02
680.048	-0.04
680.231	-0
680.415	-0.06
680.598	-0.01
680.781	-0
680.965	-0.05
681.148	-0.07
681.331	0.01
681.514	-0.01
681.698	-0
681.881	-0.01
682.064	-0.01
682.247	0.02
682.43	-0.08
682.614	0
682.797	0.04
682.98	0.04
683.163	-0.04
683.346	-0.01
683.529	-0.07
683.712	-0.04
683.895	0.04
684.078	-0.07
684.261	-0.05
684.444	-0.02
684.627	-0.03
684.81	0
684.993	-0.08
685.176	-0.04
685.359	-0.05
685.542	-0.04
685.725	0.03
685.908	-0.01
686.091	-0.03
686.274	0.02
686.457	-0.02
686.639	-0.03
686.822	0.01
687.005	-0.01
687.188	0.02
687.371	0.05
687.553	-0.02
687.736	0.04
687.919	0.02
688.102	0.04
688.284	-0.07
688.467	0.01
688.65	-0.02
688.832	-0.03
689.015	-0.04
689.197	-0.09
689.38	0.09
689.563	0.13
689.745	-0.07
689.928	-0.06
690.11	0.01
690.293	0.02
690.475	-0.14
690.658	-0
690.84	0
691.023	-0.03
691.205	-0.01
691.388	-0
691.57	0.01
691.752	-0
691.935	-0.07
692.117	-0.06
692.3	-0.01
692.482	-0
692.664	-0.03
692.847	0.01
693.029	0.06
693.211	0.01
693.393	-0.03
693.576	-0.06
693.758	0
693.94	-0.07
694.122	-0.06
694.304	-0.03
694.487	-0
694.669	0.06
694.851	-0.07
695.033	0
695.215	-0.05
695.397	-0.03
695.579	-0.03
695.761	-0.05
695.943	-0.13
696.125	0.04
696.308	-0.02
696.49	-0.11
696.671	0.06
696.853	-0.02
697.035	0.14
697.217	-0.06
697.399	0.08
697.581	-0.03
697.763	-0.03
697.945	-0.08
698.127	-0.04
698.309	0.06
698.491	0.01
698.672	-0
698.854	0.05
699.036	0.07
699.218	-0.07
699.399	0
699.581	0.05
699.763	-0.02
699.945	-0.09
700.126	-0.06
700.308	-0.05
700.49	-0.07
700.671	-0.1
700.853	-0.01
701.035	-0.03
701.216	-0.01
701.398	-0.09
701.579	-0.04
701.761	0.03
701.943	-0.06
702.124	-0.11
702.306	-0.05
702.487	0.04
702.669	-0.01
702.85	-0.03
703.031	-0.06
703.213	0.07
703.394	0.07
703.576	-0.05
703.757	0.12
703.938	0.01
704.12	0.18
704.301	-0.02
704.483	-0.06
704.664	0.04
704.845	0.04
705.026	0.01
705.208	-0
705.389	0
705.57	-0.01
705.751	-0.04
705.933	-0
706.114	0.06
706.295	0.03
706.476	-0.07
706.657	0.1
706.838	-0
707.02	0.02
707.201	0.01
707.382	-0.06
707.563	0.01
707.744	-0.06
707.925	-0.08
708.106	-0.03
708.287	-0.01
708.468	0.1
708.649	-0.01
708.83	0.07
709.011	-0.05
709.192	-0.01
709.373	-0.12
709.554	-0.05
709.734	0.02
709.915	0.02
710.096	-0.04
710.277	-0.14
710.458	-0.05
710.639	0.03
710.819	-0.15
711	-0.06
711.181	0.01
711.362	0.01
711.542	0.01
711.723	-0.03
711.904	0.05
712.085	0
712.265	0.03
712.446	-0.07
712.627	-0.05
712.807	-0.03
712.988	-0.05
713.168	-0.11
713.349	0.05
713.53	-0.14
713.71	-0.08
713.891	-0.14
714.071	-0.01
714.252	-0.08
714.432	-0.06
714.613	-0.13
714.793	-0.12
714.974	0.15
715.154	0.12
715.334	0
715.515	0.12
715.695	-0.1
715.876	0.02
716.056	-0.03
716.236	-0.06
716.417	-0.09
716.597	-0.1
716.777	0.22
716.957	-0.04
717.138	0
717.318	-0.01
717.498	-0.12
717.678	0.03
717.859	0.05
718.039	-0.16
718.219	-0.01
718.399	0.06
718.579	0
718.759	-0.14
718.939	-0.07
719.12	-0.03
719.3	0.04
719.48	-0.15
719.66	-0.17
719.84	0.07
720.02	-0.02
720.2	-0.1
720.38	0.03
720.56	0.08
720.74	-0.02
720.92	-0.02
721.1	0.04
721.279	0.06
721.459	-0.04
721.639	-0.12
721.819	-0.01
721.999	-0.05
722.179	0.07
722.359	-0.19
722.538	-0.04
722.718	0.01
722.898	-0.06
723.078	-0.05
723.257	-0.02
723.437	-0.02
723.617	-0.04
723.797	-0.08
723.976	-0.03
724.156	0.14
724.336	0.07
724.515	0.08
724.695	-0.21
724.874	-0.06
725.054	0.08
725.234	-0.09
725.413	0.01
725.593	-0.04
725.772	-0.07
725.952	-0.09
726.131	-0.02
726.311	-0.05
726.49	0.03
726.67	-0.11
726.849	-0.11
727.028	-0.03
727.208	-0.07
727.387	0.03
727.567	-0.11
727.746	-0.07
727.925	-0.07
728.105	-0.13
728.284	-0.09
728.463	-0.16
728.643	0.04
728.822	-0.11
729.001	-0.17
729.18	-0
729.359	0.02
729.539	-0.05
729.718	-0.04
729.897	0.04
730.076	-0.13
730.255	-0.15
730.434	-0.01
730.614	0
730.793	0.05
730.972	0.05
731.151	-0.06
731.33	0.05
731.509	-0.05
731.688	-0.03
731.867	0
732.046	-0.16
732.225	0.1
732.404	-0.04
732.583	-0.14
732.762	-0.06
732.941	0.09
733.12	-0.01
733.298	-0.14
733.477	0.01
733.656	-0.04
733.835	-0.13
734.014	0.01
734.193	-0.05
734.371	0.02
734.55	0
734.729	-0.11
734.908	0.04
735.086	-0.01
735.265	0.02
735.444	-0.19
735.623	-0.08
735.801	-0.13
735.98	-0
736.159	0
736.337	0.1
736.516	-0.03
736.694	-0.01
736.873	-0.06
737.052	0.12
737.23	0.03
737.409	-0.05
737.587	0.11
737.766	-0.16
737.944	-0.01
738.123	0.07
738.301	0.06
738.479	0.02
738.658	0.05
738.836	-0.17
739.015	0.06
739.193	0.04
739.371	-0.13
739.55	-0.05
739.728	-0.14
739.906	0.11
740.085	0.17
740.263	-0.04
740.441	-0.15
740.62	0.18
740.798	-0
740.976	-0.13
741.154	-0.21
741.332	0.08
741.511	-0.05
741.689	-0.01
741.867	0.11
742.045	-0.04
742.223	-0.03
742.401	-0.09
742.579	-0.11
742.757	0.04
742.935	-0.23
743.114	-0.07
743.292	-0.06
743.47	-0.08
743.648	0.02
743.826	-0.07
744.004	-0.02
744.181	0.11
744.359	-0.11
744.537	-0.02
744.715	-0.03
744.893	-0.05
745.071	0.04
745.249	0.02
745.427	-0.04
745.605	-0.05
745.782	0.07
745.96	0.03
746.138	0.03
746.316	0.07
746.493	-0.07
746.671	0.01
746.849	-0.02
747.027	0.11
747.204	-0.11
747.382	-0.05
747.56	-0.21
747.737	-0.04
747.915	-0.13
748.093	0.02
748.27	-0.1
748.448	-0.08
748.625	-0.23
748.803	-0.11
748.98	-0.09
749.158	0.06
749.335	0.09
749.513	0.08
749.69	-0.08
749.868	-0.08
750.045	0.03
750.223	-0.23
750.4	-0.26
750.578	0.15
750.755	-0.05
750.932	-0.21
751.11	0.06
751.287	-0.2
751.464	0.04
751.642	-0.2
751.819	0.01
751.996	0
752.173	-0.03
752.351	-0.13
752.528	-0.15
752.705	0.01
752.882	-0.09
753.06	0.03
753.237	0.06
753.414	0.13
753.591	0.21
753.768	-0.02
753.945	-0.05
754.122	0.03
754.299	0.08
754.476	-0.17
754.654	0.06
754.831	0.04
755.008	0.03
755.185	-0.09
755.362	-0.08
755.539	0.05
755.716	-0.13
755.892	-0.02
756.069	-0.06
756.246	-0.05
756.423	-0.05
756.6	0.07
756.777	-0.01
756.954	0.11
757.131	-0.08
757.307	-0.08
757.484	-0.12
757.661	0.06
757.838	0.14
758.015	-0.27
758.191	-0.04
758.368	0.14
758.545	0.19
758.721	-0.04
758.898	-0.1
759.075	0.03
759.251	0.09
759.428	0.02
759.605	-0.09
759.781	0.01
759.958	0.07
760.134	0.05
760.311	-0.07
760.488	0.02
760.664	0.2
760.841	-0.13
761.017	-0.14
761.194	0.07
761.37	-0.03
761.547	0.01
761.723	0.03
761.899	0.06
762.076	-0.09
762.252	-0.21
762.429	-0.08
762.605	0.02
762.781	-0.03
762.958	-0.01
763.134	-0.08
763.31	-0.05
763.486	0.15
763.663	-0.18
763.839	0.08
764.015	-0.25
764.191	-0.12
764.368	-0.15
764.544	-0.08
764.72	0.02
764.896	0.13
765.072	-0.05
765.248	-0.01
765.425	-0.04
765.601	0.01
765.777	0.05
765.953	-0.22
766.129	-0.1
766.305	-0.15
766.481	0.04
766.657	-0
766.833	0.1
767.009	-0.15
767.185	-0.14
767.361	-0.08
767.537	-0.18
767.713	0.15
767.889	-0.08
768.065	-0
768.24	-0.3
768.416	0.06
768.592	-0.16
768.768	0.02
768.944	0.1
769.12	-0.07
769.295	-0.19
769.471	-0.08
769.647	-0.03
769.823	0.2
769.998	-0.16
770.174	-0.05
770.35	0.18
770.525	0.32
770.701	-0.06
770.877	-0.07
771.052	-0.05
771.228	-0.05
771.403	0.03
771.579	0.04
771.755	0.18
771.93	-0.04
772.106	-0.09
772.281	-0.14
772.457	-0.05
772.632	0.14
772.808	-0.23
772.983	-0.04
773.159	-0.29
773.334	0.12
773.509	0.03
773.685	-0.07
773.86	0.38
774.036	0.11
774.211	-0.08
774.386	-0.19
774.562	-0.04
774.737	0.03
774.912	-0.15
775.087	-0.05
775.263	-0.09
775.438	-0.04
775.613	-0.11
775.788	-0.01
775.964	0.23
776.139	0.41
776.314	-0.31
776.489	0.2
776.664	0.01
776.839	-0.13
777.014	0.13
777.19	0.11
777.365	0.04
777.54	0.29
777.715	-0.21
777.89	0.02
778.065	-0.08
778.24	0
778.415	0.07
778.59	-0.21
778.765	-0.11
778.94	0.08
779.115	0.01
779.289	0.02
779.464	0
779.639	-0.06
779.814	-0.26
779.989	-0.19
780.164	0.02
780.339	0.02
780.513	-0.22
780.688	-0.2
780.863	-0.08
781.038	0.17
781.212	-0.24
781.387	-0.14
781.562	0.28
781.737	0.05
781.911	0
782.086	-0.13
782.261	-0.13
782.435	0.27
782.61	-0.28
782.784	-0.12
782.959	0.13
783.134	-0.16
783.308	-0.43
783.483	-0.27
783.657	0.22
783.832	0.13
784.006	-0.56
784.181	-0.07
784.355	0.08
784.53	-0.06
784.704	-0.02
784.878	0.13
785.053	0.12
785.227	0.32
785.402	0.19
785.576	-0.32
785.75	0.05
785.925	0.05
786.099	0.06
786.273	0.1
786.448	0.18
786.622	0.09
786.796	-0.18
786.97	-0.17
787.145	0.54
787.319	-0.32
787.493	-0.08
787.667	-0.45
787.841	0.07
788.015	-0.06
788.19	-0.28
788.364	-0.04
788.538	0.16
788.712	0.13
788.886	-0.26
789.06	0.17
789.234	0.2
789.408	-0.1
789.582	-0.08
789.756	-0.07
789.93	-0.18
790.104	-0.32
790.278	-0.16
790.452	-0.18
790.626	0.16
790.8	-0.09
790.973	-0.11
791.147	0.2
791.321	0.22
791.495	-0.05
791.669	-0.1
791.843	0.05
792.016	0.01
792.19	0.51
792.364	-0.37
792.538	0.34
792.711	0.12
792.885	-0.21
793.059	-0.47
793.233	-0.63
793.406	0.28
793.58	0.05
793.754	-0.07
793.927	-0.06
794.101	0.19
794.274	0.18
794.448	0.04
794.622	-0.36
794.795	0.45
794.969	-0.28
795.142	0.34
795.316	-0.27
795.489	-0.19
795.663	0.4
795.836	-0.17
796.009	-0.26
796.183	0.12
796.356	-0.13
796.53	-0.1
796.703	-0.23
796.876	0.49
797.05	-0.07
797.223	0
797.396	0.12
797.57	0.1
797.743	0.37
797.916	0.14
798.09	-0.12
798.263	0.2
798.436	0.29
798.609	-0.37
798.782	-0.02
798.956	-0.06
799.129	0
799.302	-0.02
799.475	-0.14
799.648	-0.25
799.821	-0.16
799.994	0.01
800.167	-0.43
800.34	-0.12
800.514	0.18
800.687	0.04
800.86	-0.27
801.033	-0.07
801.206	0.12
801.379	-0.26
801.551	0.17
801.724	0.38
801.897	0.29
802.07	-0.23
802.243	-0.46
802.416	-0.26
802.589	0.08
802.762	-0.11
802.935	0.02
803.107	-0.12
803.28	0.4
803.453	0.01
803.626	-0.04
803.798	0.09
803.971	-0.21
804.144	0.27
804.317	-0.02
804.489	0.19
804.662	-0.01
804.835	-0
805.007	-0.46
805.18	0.56
805.353	0.22
805.525	-0.21
805.698	-0.44
805.87	0.08
806.043	0.11
806.215	-0.35
806.388	-0.56
806.56	0.05
806.733	0.11
806.905	0.2
807.078	-0.15
807.25	-0.28
807.423	0.35
807.595	-0.1
807.768	-0.23
807.94	0.51
808.112	0.17
808.285	0.28
808.457	-0.38
808.629	-0.36
808.802	0.03
808.974	-0.1
809.146	-0.4
809.318	-0.68
809.491	0.26
809.663	0.08
809.835	-0.57
810.007	0.01
810.18	-0.02
810.352	-0.51
810.524	-0.07
810.696	-0.15
810.868	0.24
811.04	0.01
811.212	-0.08
811.384	0.3
811.556	0.06
811.728	-0.28
811.901	0.42
812.073	0
812.245	0.41
812.417	-0.22
812.589	-0.57
812.76	0.22
812.932	0.11
813.104	0.49
813.276	-0.46
813.448	0.23
813.62	0.08
813.792	0.24
813.964	-0.32
814.136	0.28
814.307	-0.59
814.479	-0.42
814.651	-0.19
814.823	0.39
814.995	-0.52
815.166	0.17
815.338	-0.22
815.51	-0.55
815.681	0.93
815.853	0.09
816.025	0.12
816.196	0.5
816.368	0.36
816.54	-0.43
816.711	-0.4
816.883	0.13
817.054	0.5
817.226	-0.97
817.398	0.1
817.569	-0.46
817.741	-0.35
817.912	-0.12
818.084	-0.4
818.255	0.2
818.426	-0.57
818.598	-0.28
818.769	-0.31
818.941	0.39
819.112	0.37
819.283	0.37
819.455	-0.41
819.626	0.08
819.798	0.2
819.969	-0.08
820.14	-0.17
820.311	-0
820.483	0.26
820.654	0.27
820.825	-0.04
820.996	-0.22
821.168	-0.42
821.339	0.06
821.51	-0.11
821.681	-0.21
821.852	0.08
822.023	-0.35
822.195	-0.51
822.366	0.48
822.537	0.38
822.708	-0.05
822.879	-0.23
823.05	0.26
823.221	-0.39
823.392	0.05
823.563	-0.2
823.734	0.09
823.905	-0.59
824.076	-0.19
824.247	-0.46
824.418	0.18
824.589	0.54
824.759	-0.63
824.93	-0.06
825.101	-0.66
825.272	0.39
825.443	0.63
825.614	0.26
825.784	-0.75
825.955	0.93
826.126	0.55
826.297	-0.08
826.467	0.45
826.638	0.65
826.809	-1.06
826.98	-0.48
827.15	0.13
827.321	0.17
827.492	0.71
827.662	0.35
827.833	1.12
828.003	0.43
828.174	-0.82
828.345	-0.88
828.515	0.7
828.686	-0.02
828.856	-0.72
829.027	-0.2
829.197	-0.03
829.368	0.41
829.538	-0.35
829.709	-0.33
829.879	-0.04
830.049	-0.08
830.22	-0.63
830.39	-0.89
830.56	0.43
830.731	-0.5
830.901	-0.99
831.072	0.15
831.242	0.11
831.412	-0.2
831.582	0.23
831.753	-0.76
831.923	0.08
832.093	-0.04
832.263	0.2
832.434	-0.86
832.604	0
832.774	0.47
832.944	-0.53
833.114	-0.39
833.284	-0.24
833.454	-1.04
833.624	-0.15
833.795	-0.15
833.965	0.79
834.135	1.14
834.305	-1.02
834.475	-0.67
834.645	-0.15
834.815	-0.54
834.985	-0.8
835.155	-0.35
835.325	0.44
835.494	0.02
835.664	-0.58
835.834	-0.78
836.004	-0.03
836.174	-0.42
836.344	-0.52
836.514	-0.91
836.684	0.1
836.853	0.54
837.023	-0.08
837.193	-0.9
837.363	0.1
837.532	0.07
837.702	-0.76
837.872	-0.37
838.041	0.49
838.211	1.45
838.381	-0.98
838.55	-0.05
838.72	1.55
838.89	0.89
839.059	-0.22
839.229	-0.6
839.398	0.82
839.568	0.34
839.738	-0.02
839.907	0.31
840.077	-0.19
840.246	0.02
840.416	-1.01
840.585	-1.14
840.755	1.03
840.924	0.88
841.093	-0.65
841.263	-0.73
841.432	0.38
841.602	-0.63
841.771	-1.46
841.94	-0.21
842.11	1.46
842.279	1.3
842.448	-1.34
842.617	-0.43
842.787	0.55
842.956	-0.93
843.125	-0.66
843.294	0.41
843.464	0.68
843.633	-0.23
843.802	-1.07
843.971	-0.01
844.14	-0.22
844.309	0.44
844.479	-1.05
844.648	-0.81
844.817	-0.85
844.986	0.36
845.155	-0.57
845.324	-0.06
845.493	-0.17
845.662	-0.91
845.831	0.4
846	0.66
846.169	-0.08
846.338	1.13
846.507	-0.12
846.676	0.01
846.844	-0.94
847.013	0.53
847.182	-0.23
847.351	-0.76
847.52	-0.33
847.689	-0.21
847.858	-1.01
848.026	-0.19
848.195	-0.38
848.364	-0.66
848.533	-1.23
848.701	0
848.87	-0.02
849.039	0.33
849.207	1
849.376	0.6
849.545	0.97
849.713	-1.01
849.882	-0.94
850.051	0.02
850.219	0.48
850.388	-0.24
850.556	-0.73
850.725	-0.54
850.893	0.58
851.062	-0.25
851.23	0.38
851.399	-1.66
851.567	-0.67
851.736	-0.45
851.904	-2.14
852.073	0.29
852.241	0.65
852.41	0
852.578	-0.18
852.746	-0.53
852.915	0.34
853.083	-0.05
853.251	-0.81
853.42	-0.75
853.588	0.4
853.756	1.29
853.924	-0.74
854.093	-1.47
854.261	0.01
854.429	-1.55
854.597	0.26
854.765	-0.96
854.934	-0.19
855.102	1.14
855.27	0.16
855.438	0.95
855.606	1.3
855.774	1.51
855.942	-1.78
856.11	-2.16
856.278	0.14
856.446	0.26
856.614	-0.52
856.782	-1.51
856.95	1.01
857.118	-0.17
857.286	-0.37
857.454	-0.78
857.622	-0.21
857.79	0.76
857.958	-1.1
858.126	0.87
858.294	-2.03
858.462	-0.08
858.629	-1.24
858.797	-1.56
858.965	-0.61
859.133	0.54
859.301	-0.88
859.468	0.05
859.636	-0.6
859.804	1.57
859.971	0.41
860.139	-1.3
860.307	0.38
860.474	-0.67
860.642	-1.42
860.81	-1.77
860.977	-0.42
861.145	0.6
861.313	0.14
861.48	-1.01
861.648	0.11
861.815	0.2
861.983	-3.17
862.15	-1.16
862.318	-0.01
862.485	2.22
862.653	-1.2
862.82	-0.22
862.988	1.86
863.155	0.92
863.322	-0.71
863.49	-1.92
863.657	0.18
863.824	1.29
863.992	0.28
864.159	0
864.326	1.85
864.494	-0.44
864.661	1
864.828	-0.93
864.996	2.21
865.163	1.36
865.33	-0.48
865.497	-3
865.664	-1.52
865.832	-1.72
865.999	0.29
866.166	-0.59
866.333	-0.15
866.5	-2.35
866.667	-0.99
866.834	-0.75
867.001	1
867.168	-2.42
867.335	-0.78
867.502	-1.21
867.669	0.55
867.836	3.05
868.003	0.64
868.17	0.4
868.337	-1.09
868.504	1.17
868.671	-2.92
868.838	-1.76
869.005	0.68
869.172	0.17
869.339	-0.27
869.505	-0.69
869.672	-0.84
869.839	1.46
870.006	-0.03
870.173	-2.77
870.339	-0.52
870.506	2.04
870.673	-1.47
870.84	1.01
871.006	-1.14
871.173	-0.92
871.34	0.02
871.506	-1.99
871.673	0.78
871.839	-1.97
872.006	-0.13
872.173	-0.62
872.339	-0.61
872.506	1.64
872.672	-0.68
872.839	-2.78
873.005	-1.21
873.172	3.32
873.338	2.55
873.505	-0.82
873.671	0.02
873.838	-1.29
874.004	-2.5
874.171	-2.49
874.337	0.82
874.503	0.1
874.67	-0.86
874.836	-1.24
875.002	1
875.169	1.69
875.335	0.82
875.501	-0.51
875.668	0.16
875.834	-0.34
876	-2.33
876.166	0.93
876.332	1.98
876.499	3.05
876.665	-2.27
876.831	1.19
876.997	3.72
877.163	1.2
877.329	-2.36
877.495	0.29
877.662	1.45
877.828	-1.13
877.994	-0.75
878.16	-2.36
878.326	-0.87
878.492	-2.05
878.658	0.02
878.824	-0.41
878.99	-2.19
879.156	-2.72
879.322	1.36
879.487	1.07
879.653	-0.24
879.819	0.15
879.985	-2.38
880.151	-0.28
880.317	1.98
880.483	1.35
880.648	1.96
880.814	-1.85
880.98	-1.07
881.146	-1.05
881.312	-2.04
881.477	-1.73
881.643	-1.39
881.809	1.66
881.974	1.84
882.14	-2.46
882.306	-1.99
882.471	2.98
882.637	-2.1
882.803	0.56
882.968	3.03
883.134	4.45
883.299	1.01
883.465	0.45
883.63	2.05
883.796	1.03
883.961	1.49
884.127	-1.17
884.292	-4.81
884.458	-2.21
884.623	-2.21
