Data from Apollo_Calib_20240827__AbsoluteIrradiance__141__01-30-00-745.txt Node

Date: Wed Aug 28 01:30:00 BST 2024
User: biology
Spectrometer: FLMT08252
Trigger mode: 0
Integration Time (sec): 5.000000E-1
Scans to average: 5
Electric dark correction enabled: true
Nonlinearity correction enabled: false
Boxcar width: 0
XAxis mode: Wavelengths
Number of Pixels in Spectrum: 3648
>>>>>Begin Spectral Data<<<<<
179.588	-0
179.809	-0
180.03	-0
180.251	-0
180.473	-0
180.694	0
180.915	0
181.136	-0
181.357	-0
181.578	-0
181.799	-0
182.02	-0
182.241	0
182.462	-0
182.683	0
182.904	-0
183.125	0
183.346	0
183.567	-0
183.788	-0
184.009	-0
184.23	-0
184.451	-0
184.672	-0
184.892	-0
185.113	0
185.334	0
185.555	-0
185.776	-0
185.996	0
186.217	0
186.438	-0
186.659	-0
186.879	0
187.1	-0
187.321	-0
187.541	-0
187.762	-0
187.983	-0
188.203	-0
188.424	-0
188.644	-0
188.865	-0
189.086	-0
189.306	-0
189.527	-0
189.747	0
189.968	-0
190.188	0
190.409	-0
190.629	0
190.849	-0
191.07	-0
191.29	0
191.511	-0
191.731	-0
191.951	-0
192.172	-0
192.392	-0
192.612	-0
192.833	-0
193.053	-0
193.273	0
193.493	-0
193.714	-0
193.934	0
194.154	0
194.374	-0
194.594	0
194.815	0
195.035	0
195.255	-0
195.475	-0
195.695	0
195.915	0
196.135	-0
196.355	0
196.575	0
196.795	0
197.015	-0
197.235	-0
197.455	-0
197.675	0
197.895	-0
198.115	-0
198.335	0
198.555	-0
198.775	0
198.995	-0
199.214	0
199.434	-0
199.654	-0
199.874	-0
200.094	0.42
200.313	-0.45
200.533	-0.87
200.753	-1.24
200.973	0.72
201.192	0.51
201.412	-1.19
201.632	-0.55
201.851	0.68
202.071	-0.67
202.291	-0.52
202.51	-0.73
202.73	0.19
202.95	-0.53
203.169	-1.08
203.389	-0.27
203.608	-0.27
203.828	-0.54
204.047	-0.67
204.267	0.41
204.486	-0.01
204.706	0.15
204.925	-0.27
205.145	-0.32
205.364	0.17
205.583	0.64
205.803	-0.49
206.022	-0.49
206.242	-0.08
206.461	-0.26
206.68	-0.58
206.9	0.14
207.119	0.28
207.338	0.32
207.557	-0.26
207.777	-0.3
207.996	-0.28
208.215	0.51
208.434	-0.47
208.654	-0.6
208.873	0.04
209.092	-0.02
209.311	-0.33
209.53	-0.25
209.749	-0.16
209.968	-0.31
210.187	-0.27
210.407	-0.55
210.626	-0.14
210.845	0.08
211.064	-0.31
211.283	-0.38
211.502	0.21
211.721	-0.15
211.94	-0.14
212.159	-0.02
212.377	0.25
212.596	0.25
212.815	-0.13
213.034	-0.06
213.253	-0.01
213.472	0.12
213.691	-0.15
213.91	-0.4
214.128	-0.24
214.347	0.15
214.566	-0.71
214.785	-0.44
215.003	-0.01
215.222	-0
215.441	-0.02
215.66	-0.35
215.878	-0.16
216.097	0.14
216.316	-0.34
216.534	-0.19
216.753	-0.06
216.972	-0.13
217.19	-0.14
217.409	-0.21
217.627	-0.26
217.846	-0.12
218.064	-0.1
218.283	-0.16
218.501	0.23
218.72	0.09
218.938	-0.3
219.157	-0.14
219.375	0.07
219.594	0.13
219.812	-0.42
220.031	-0.15
220.249	0.22
220.467	0.28
220.686	-0.16
220.904	-0.34
221.122	-0.28
221.341	0.08
221.559	-0.04
221.777	-0.34
221.995	-0.07
222.214	0.03
222.432	-0.21
222.65	0.11
222.868	0.1
223.086	0.08
223.305	0.09
223.523	-0.14
223.741	0.07
223.959	-0.21
224.177	-0.28
224.395	-0.1
224.613	0.04
224.831	0.15
225.049	-0.15
225.267	0.06
225.485	0.01
225.703	-0.11
225.921	-0.19
226.139	-0.28
226.357	0.13
226.575	0.01
226.793	-0.27
227.011	0.39
227.229	-0.04
227.447	0.11
227.665	-0.17
227.883	-0.17
228.1	0.12
228.318	-0
228.536	-0.36
228.754	-0.25
228.972	-0.01
229.189	0.07
229.407	-0.06
229.625	0.02
229.843	0.09
230.06	0.04
230.278	-0.04
230.496	-0.05
230.713	-0.06
230.931	0.09
231.149	-0.09
231.366	-0.17
231.584	-0.11
231.801	0.19
232.019	-0.1
232.236	-0.24
232.454	-0.14
232.671	0.03
232.889	-0.11
233.106	-0.17
233.324	-0.08
233.541	-0.15
233.759	-0.07
233.976	-0.15
234.194	-0.06
234.411	-0.04
234.628	-0.26
234.846	-0.13
235.063	-0.11
235.28	-0.09
235.498	-0.2
235.715	-0.16
235.932	-0.02
236.149	-0.06
236.367	-0.15
236.584	-0.03
236.801	-0.16
237.018	-0.01
237.236	-0.06
237.453	-0.14
237.67	0.12
237.887	-0.06
238.104	-0.08
238.321	-0.08
238.538	-0.11
238.755	0.15
238.973	-0.16
239.19	-0.04
239.407	-0.01
239.624	-0.02
239.841	-0.16
240.058	-0.17
240.275	-0.03
240.492	-0.07
240.709	-0.02
240.925	-0.1
241.142	-0.02
241.359	-0.14
241.576	-0.2
241.793	-0.12
242.01	0.05
242.227	0.01
242.444	-0.03
242.66	0.02
242.877	0.01
243.094	-0.12
243.311	-0.05
243.527	-0.09
243.744	-0.02
243.961	0.03
244.178	-0.11
244.394	-0.07
244.611	0.08
244.828	0.14
245.044	-0.18
245.261	-0.13
245.477	-0.01
245.694	0.02
245.911	-0.07
246.127	-0.06
246.344	0.07
246.56	0.05
246.777	-0.04
246.993	-0.08
247.21	0
247.426	0.08
247.643	-0.06
247.859	-0.13
248.076	-0.07
248.292	0.16
248.508	-0.18
248.725	0.01
248.941	-0.03
249.157	0.12
249.374	-0.08
249.59	-0.02
249.806	-0.04
250.023	-0.03
250.239	-0.13
250.455	-0.07
250.671	0.04
250.888	0.09
251.104	-0.05
251.32	-0.1
251.536	-0.05
251.752	-0.08
251.969	-0.01
252.185	0.02
252.401	0.13
252.617	-0
252.833	-0.1
253.049	-0.01
253.265	0.01
253.481	0.03
253.697	-0.06
253.913	-0.09
254.129	-0.04
254.345	-0.02
254.561	-0.04
254.777	-0.04
254.993	0.02
255.209	-0.02
255.425	-0.06
255.641	-0.06
255.857	0.02
256.073	-0.05
256.288	-0.12
256.504	-0.07
256.72	-0.03
256.936	0.12
257.152	-0.01
257.367	-0.03
257.583	-0.03
257.799	0.05
258.015	-0.12
258.23	-0.03
258.446	0.12
258.662	-0
258.877	-0.08
259.093	-0.12
259.309	-0.02
259.524	-0.04
259.74	-0.09
259.955	-0.15
260.171	0.02
260.387	0.01
260.602	0.03
260.818	-0.05
261.033	-0.14
261.249	-0.14
261.464	-0.02
261.68	-0.13
261.895	-0.01
262.11	0.02
262.326	-0.06
262.541	-0.1
262.757	0.01
262.972	-0.05
263.187	-0.02
263.403	-0.04
263.618	0.06
263.833	-0.04
264.049	-0.13
264.264	-0.02
264.479	0.02
264.694	0.09
264.91	-0.11
265.125	-0.07
265.34	-0.01
265.555	0.09
265.77	-0.01
265.986	-0.1
266.201	0.05
266.416	0.04
266.631	-0.03
266.846	0
267.061	-0.03
267.276	0.02
267.491	-0.18
267.706	0.01
267.921	-0.05
268.136	-0
268.351	0
268.566	-0.13
268.781	0.08
268.996	0.03
269.211	-0.02
269.426	-0.14
269.641	-0.07
269.856	-0.01
270.071	-0.07
270.285	-0.13
270.5	0.07
270.715	0.05
270.93	-0.04
271.145	0
271.359	0.03
271.574	-0.11
271.789	-0.04
272.004	-0.14
272.218	-0.07
272.433	0.06
272.648	-0.1
272.862	0.02
273.077	0
273.292	-0.03
273.506	-0.07
273.721	-0.07
273.936	-0.02
274.15	-0.02
274.365	-0.07
274.579	-0.02
274.794	0.04
275.008	0.06
275.223	-0.1
275.437	-0.02
275.652	0.04
275.866	0
276.081	0.01
276.295	-0.01
276.509	0.02
276.724	-0.06
276.938	-0
277.153	0
277.367	0.02
277.581	-0.05
277.796	-0.03
278.01	-0.11
278.224	0.07
278.438	0.09
278.653	-0.02
278.867	-0.04
279.081	-0.16
279.295	-0.07
279.51	-0.03
279.724	-0.09
279.938	-0.01
280.152	-0.03
280.366	-0.04
280.58	0
280.794	0.01
281.008	0
281.222	0.01
281.437	0.09
281.651	-0.09
281.865	0.08
282.079	-0.05
282.293	-0.11
282.507	-0.06
282.721	-0.04
282.935	-0.03
283.148	-0.08
283.362	-0.08
283.576	-0.08
283.79	-0.02
284.004	-0.04
284.218	0.05
284.432	-0.07
284.646	-0.05
284.859	-0.02
285.073	-0.06
285.287	-0.03
285.501	-0.02
285.714	-0.03
285.928	-0.02
286.142	0.01
286.356	-0.03
286.569	-0.05
286.783	0.1
286.997	0.05
287.21	-0.04
287.424	-0
287.637	-0.02
287.851	-0.01
288.065	-0.04
288.278	-0
288.492	-0.03
288.705	0
288.919	0.02
289.132	-0.06
289.346	0.04
289.559	-0.11
289.773	-0.06
289.986	-0.03
290.2	-0.03
290.413	0.03
290.626	-0.05
290.84	-0.05
291.053	0.01
291.267	0.06
291.48	-0.06
291.693	-0.01
291.906	-0.06
292.12	-0.04
292.333	-0.07
292.546	-0.02
292.76	0.01
292.973	0.01
293.186	-0
293.399	-0.03
293.612	-0
293.826	-0.05
294.039	-0.03
294.252	-0.03
294.465	-0
294.678	0.03
294.891	-0.03
295.104	-0.08
295.317	-0.03
295.53	-0.02
295.743	-0.05
295.956	-0.01
296.169	0.06
296.382	-0
296.595	-0.05
296.808	-0.1
297.021	0.04
297.234	0.02
297.447	-0.04
297.66	0.01
297.873	0.05
298.086	-0.02
298.299	-0.04
298.511	-0.06
298.724	0.01
298.937	-0.08
299.15	-0.01
299.363	-0.01
299.575	0.01
299.788	-0
300.001	-0.03
300.213	-0.05
300.426	-0.02
300.639	-0.07
300.852	-0.04
301.064	0.04
301.277	0.06
301.489	-0
301.702	0.01
301.915	-0.01
302.127	-0.01
302.34	-0.03
302.552	0.01
302.765	-0.09
302.977	-0
303.19	-0.03
303.402	-0.05
303.615	-0.01
303.827	-0.03
304.04	0.01
304.252	0.02
304.464	-0.02
304.677	0.06
304.889	0.04
305.102	-0.06
305.314	-0.08
305.526	0.05
305.739	0.02
305.951	-0.06
306.163	-0.04
306.375	0.03
306.588	-0.03
306.8	-0.04
307.012	-0.07
307.224	-0.02
307.436	0.02
307.649	-0.07
307.861	-0
308.073	-0.02
308.285	-0
308.497	-0.01
308.709	-0.05
308.921	0.04
309.133	0.04
309.346	0
309.558	-0.02
309.77	0.03
309.982	0.02
310.194	0.01
310.406	-0.04
310.617	0.06
310.829	0.04
311.041	-0
311.253	-0.07
311.465	-0.04
311.677	-0.02
311.889	-0.01
312.101	-0.03
312.313	0.03
312.524	0.04
312.736	-0.04
312.948	0
313.16	0.05
313.372	-0.03
313.583	0.03
313.795	-0.02
314.007	-0.03
314.218	0.04
314.43	0.04
314.642	-0.06
314.853	-0.07
315.065	-0.02
315.277	-0.01
315.488	0.03
315.7	0.02
315.912	-0.01
316.123	-0.02
316.335	-0.01
316.546	0.11
316.758	-0.01
316.969	-0.08
317.181	-0.01
317.392	-0.01
317.604	0.06
317.815	-0.06
318.026	-0.06
318.238	-0.05
318.449	-0.01
318.661	-0.06
318.872	-0.08
319.083	-0.07
319.295	0.01
319.506	-0.04
319.717	-0.03
319.929	0.01
320.14	0.03
320.351	-0.04
320.562	-0.04
320.774	-0.06
320.985	-0.02
321.196	-0.06
321.407	-0.1
321.618	-0
321.829	-0.01
322.041	0.04
322.252	-0.03
322.463	-0.01
322.674	0.01
322.885	-0.08
323.096	-0
323.307	-0.04
323.518	-0.01
323.729	-0.04
323.94	-0.01
324.151	-0.03
324.362	-0.02
324.573	0.04
324.784	-0.02
324.995	-0
325.206	0
325.417	-0.06
325.628	-0.02
325.838	-0.02
326.049	-0.01
326.26	0.03
326.471	-0.04
326.682	0.01
326.892	-0.02
327.103	-0.09
327.314	-0.06
327.525	0.02
327.735	0
327.946	-0.04
328.157	-0.03
328.368	-0
328.578	-0.02
328.789	0.03
328.999	-0.02
329.21	-0.05
329.421	0.03
329.631	-0.06
329.842	-0.08
330.052	0
330.263	0.02
330.473	0.03
330.684	-0.03
330.894	-0.04
331.105	0.01
331.315	-0.01
331.526	-0.09
331.736	0.01
331.947	0
332.157	-0
332.367	-0.07
332.578	-0.02
332.788	0.05
332.999	0.04
333.209	-0.02
333.419	-0.05
333.629	-0.01
333.84	0.02
334.05	-0.03
334.26	0.07
334.47	-0.02
334.681	0.04
334.891	-0.02
335.101	0.03
335.311	0.11
335.521	-0.01
335.732	-0.02
335.942	0.02
336.152	0.02
336.362	0.01
336.572	-0.02
336.782	0.02
336.992	-0.04
337.202	0
337.412	-0.07
337.622	0.01
337.832	-0
338.042	-0.02
338.252	0
338.462	-0.04
338.672	-0.03
338.882	-0.03
339.092	-0.03
339.302	0.07
339.511	0.01
339.721	-0.05
339.931	-0.04
340.141	0.03
340.351	0.03
340.561	0.04
340.77	-0
340.98	-0.03
341.19	0.01
341.4	-0.06
341.609	-0.06
341.819	-0.06
342.029	-0.02
342.238	-0
342.448	-0.04
342.658	0.03
342.867	0.03
343.077	-0.01
343.286	0.01
343.496	0
343.706	0.05
343.915	-0.09
344.125	-0
344.334	-0.02
344.544	-0.06
344.753	-0.06
344.963	-0.02
345.172	-0.03
345.381	-0.1
345.591	-0.05
345.8	0.02
346.01	0
346.219	-0.01
346.428	-0.15
346.638	-0.03
346.847	-0.02
347.056	0
347.266	-0.05
347.475	-0.02
347.684	0.02
347.893	0.04
348.103	-0.06
348.312	-0
348.521	-0.05
348.73	-0.01
348.94	0
349.149	-0.06
349.358	-0.03
349.567	-0.02
349.776	-0.05
349.985	-0.03
350.194	0.05
350.403	0.06
350.612	-0.03
350.821	-0.06
351.03	-0.02
351.239	-0.06
351.448	0.02
351.657	-0.02
351.866	0.04
352.075	-0.05
352.284	0.01
352.493	-0.09
352.702	-0
352.911	0.03
353.12	-0.02
353.329	-0.03
353.538	0.02
353.746	-0.07
353.955	-0
354.164	-0.02
354.373	-0.03
354.582	0
354.79	-0
354.999	-0.01
355.208	-0.06
355.416	0.07
355.625	-0.05
355.834	-0.01
356.042	-0.03
356.251	-0
356.46	-0.06
356.668	-0
356.877	0.11
357.085	0.02
357.294	-0.1
357.503	0.01
357.711	-0.05
357.92	0.12
358.128	-0.01
358.337	-0.02
358.545	-0
358.754	-0.04
358.962	0.05
359.17	-0.04
359.379	-0.01
359.587	0.01
359.796	-0.02
360.004	0.03
360.212	-0.02
360.421	0.05
360.629	-0.03
360.837	-0.02
361.046	0.01
361.254	0.1
361.462	-0.02
361.67	-0.08
361.879	-0.03
362.087	0.05
362.295	0.02
362.503	-0.05
362.711	-0.06
362.92	-0.06
363.128	-0.06
363.336	-0.02
363.544	-0.1
363.752	-0.03
363.96	-0.04
364.168	-0.02
364.376	-0.02
364.584	0.01
364.792	0.04
365	-0
365.208	-0.02
365.416	-0.02
365.624	0.03
365.832	-0.03
366.04	0.03
366.248	-0.01
366.456	-0
366.664	0.02
366.872	-0.02
367.079	-0.02
367.287	-0.01
367.495	0.03
367.703	-0.01
367.911	-0.05
368.118	-0.03
368.326	0.02
368.534	-0.08
368.742	0.03
368.949	-0.06
369.157	-0.04
369.365	0.01
369.572	-0.01
369.78	-0.04
369.988	0.01
370.195	0.02
370.403	0.03
370.61	-0.02
370.818	0.02
371.026	0.02
371.233	-0.06
371.441	0.02
371.648	-0
371.856	0.01
372.063	0.02
372.271	-0
372.478	-0.03
372.685	-0.06
372.893	0.06
373.1	-0.06
373.308	-0.04
373.515	0
373.722	0.04
373.93	-0.03
374.137	-0.01
374.344	0.02
374.552	0.03
374.759	0.01
374.966	-0.03
375.173	-0.02
375.381	0.02
375.588	-0.02
375.795	-0.09
376.002	-0.01
376.209	-0.03
376.417	0
376.624	-0.05
376.831	-0.05
377.038	-0.04
377.245	-0.09
377.452	-0.06
377.659	-0.03
377.866	-0.05
378.073	-0.03
378.28	0
378.487	-0.01
378.694	0.02
378.901	-0.05
379.108	-0.02
379.315	-0
379.522	0.04
379.729	-0.01
379.936	-0
380.143	0.02
380.35	0.01
380.557	-0.02
380.763	-0.02
380.97	-0.03
381.177	0.01
381.384	0.04
381.591	-0.06
381.797	0
382.004	-0.01
382.211	0.01
382.418	-0.03
382.624	-0.03
382.831	0.02
383.038	-0.03
383.244	-0.03
383.451	-0.01
383.658	0
383.864	-0.01
384.071	-0.08
384.277	0.01
384.484	-0.02
384.69	-0.01
384.897	-0.03
385.103	-0.06
385.31	-0.06
385.516	-0.03
385.723	-0.05
385.929	-0
386.136	-0.05
386.342	-0.02
386.549	-0.09
386.755	0.04
386.961	0
387.168	-0.05
387.374	-0
387.58	0.04
387.787	-0.05
387.993	0.04
388.199	-0.03
388.406	-0.04
388.612	-0.01
388.818	-0.03
389.024	-0.02
389.231	-0.01
389.437	0.02
389.643	0.05
389.849	-0.03
390.055	-0.02
390.261	0.02
390.467	0
390.674	-0.09
390.88	-0.02
391.086	0.02
391.292	-0.08
391.498	0.01
391.704	-0.01
391.91	-0.03
392.116	-0.06
392.322	-0.15
392.528	-0.01
392.734	-0.04
392.94	-0.02
393.146	-0.02
393.352	0
393.557	-0.05
393.763	-0.04
393.969	-0.04
394.175	-0.02
394.381	-0.03
394.587	-0.08
394.792	-0.08
394.998	-0.01
395.204	0.02
395.41	-0.07
395.615	0.04
395.821	0.04
396.027	0.02
396.233	-0.06
396.438	0.01
396.644	0.06
396.85	-0.02
397.055	-0.02
397.261	-0.01
397.466	0.04
397.672	-0.02
397.878	0.01
398.083	0.01
398.289	-0.02
398.494	0.02
398.7	-0.01
398.905	-0.07
399.111	0.08
399.316	-0.07
399.522	-0.04
399.727	-0.02
399.932	-0.01
400.138	-0.01
400.343	0.04
400.549	-0.01
400.754	-0.04
400.959	0.01
401.165	0
401.37	0.03
401.575	0.11
401.78	-0.04
401.986	-0.03
402.191	-0.01
402.396	-0.02
402.601	0.01
402.807	0.01
403.012	-0.02
403.217	0.05
403.422	-0.01
403.627	0.02
403.832	-0.01
404.037	0.05
404.243	0.03
404.448	-0
404.653	0.01
404.858	0.03
405.063	0.08
405.268	-0.07
405.473	-0.06
405.678	-0.05
405.883	0.12
406.088	0.07
406.293	-0.06
406.498	0
406.703	0.05
406.907	-0.03
407.112	-0.06
407.317	0.02
407.522	0.04
407.727	0
407.932	-0.01
408.136	0.1
408.341	0
408.546	0
408.751	0.03
408.956	-0.02
409.16	0.09
409.365	0.02
409.57	-0.02
409.774	0.02
409.979	0.03
410.184	0.01
410.388	-0.05
410.593	0.04
410.798	0.04
411.002	-0.02
411.207	0.02
411.411	0.03
411.616	0
411.82	-0
412.025	0.01
412.229	-0.02
412.434	0.05
412.638	0.04
412.843	-0.04
413.047	0.04
413.252	-0.02
413.456	-0.01
413.66	0.01
413.865	-0.02
414.069	0.06
414.273	-0.02
414.478	-0.03
414.682	-0.02
414.886	-0.02
415.091	-0.04
415.295	-0.1
415.499	0.03
415.703	-0.03
415.908	0.03
416.112	-0.09
416.316	0.02
416.52	-0.02
416.724	-0.05
416.929	-0.01
417.133	0.1
417.337	-0.03
417.541	-0.08
417.745	-0.04
417.949	0.04
418.153	-0.01
418.357	-0.05
418.561	0.03
418.765	0.02
418.969	0.07
419.173	-0.01
419.377	-0.02
419.581	0.09
419.785	-0.01
419.989	-0.04
420.193	-0.07
420.397	-0.01
420.601	0.05
420.804	0.03
421.008	-0.01
421.212	-0
421.416	0.05
421.62	-0.04
421.823	0.01
422.027	0.09
422.231	-0.02
422.435	0
422.638	-0.03
422.842	-0.01
423.046	-0.05
423.249	0.04
423.453	0.05
423.657	-0
423.86	0.01
424.064	0.01
424.268	0.04
424.471	-0.02
424.675	0.09
424.878	0.01
425.082	-0.01
425.285	0.07
425.489	0.01
425.692	-0.04
425.896	-0.08
426.099	0.03
426.303	-0.06
426.506	-0.08
426.71	0.02
426.913	0.01
427.116	0.04
427.32	-0.05
427.523	0.01
427.726	0.15
427.93	-0.05
428.133	-0.01
428.336	-0.08
428.54	-0.08
428.743	0.03
428.946	0.02
429.149	-0.05
429.353	-0.03
429.556	-0.02
429.759	-0.01
429.962	-0.04
430.165	-0.02
430.368	0
430.571	-0.07
430.775	0.02
430.978	0.01
431.181	0.03
431.384	0.04
431.587	-0.01
431.79	0
431.993	0.02
432.196	-0.04
432.399	-0.01
432.602	0.08
432.805	0.02
433.008	-0.02
433.211	-0.09
433.414	0.05
433.616	0.03
433.819	0.02
434.022	-0.07
434.225	0.1
434.428	0.02
434.631	0.08
434.833	-0.02
435.036	-0.06
435.239	0.02
435.442	-0.02
435.645	-0.01
435.847	0
436.05	-0.03
436.253	-0.02
436.455	-0.07
436.658	0.02
436.861	0.04
437.063	-0
437.266	-0
437.468	0.03
437.671	0.15
437.874	-0.02
438.076	-0.09
438.279	-0.04
438.481	0.02
438.684	-0.03
438.886	0.03
439.089	-0.07
439.291	0.04
439.494	-0
439.696	-0.08
439.899	-0
440.101	-0
440.303	-0.04
440.506	0.02
440.708	0.05
440.91	0.02
441.113	-0.03
441.315	0.06
441.517	-0.06
441.72	0.04
441.922	-0.05
442.124	-0.03
442.326	0.03
442.529	0.08
442.731	-0.01
442.933	0.08
443.135	0.01
443.337	-0.03
443.539	-0.01
443.742	0
443.944	0.05
444.146	0.04
444.348	0.03
444.55	-0
444.752	-0.02
444.954	-0.01
445.156	0.03
445.358	-0.02
445.56	0.02
445.762	-0.02
445.964	0
446.166	0.01
446.368	0.01
446.57	0.12
446.772	0.04
446.974	0.07
447.175	0.05
447.377	-0.01
447.579	0.05
447.781	-0.06
447.983	0.13
448.184	0.09
448.386	0.06
448.588	-0.02
448.79	0.06
448.991	0
449.193	0.02
449.395	0.04
449.597	0.09
449.798	0.05
450	0.09
450.202	-0
450.403	0.03
450.605	0.07
450.806	0.05
451.008	-0
451.21	0.06
451.411	0.04
451.613	0.03
451.814	0.04
452.016	0.05
452.217	0.05
452.419	0.09
452.62	0.06
452.821	0.08
453.023	0.08
453.224	0.11
453.426	0.03
453.627	0.03
453.828	0.06
454.03	0.01
454.231	0.07
454.432	0.01
454.634	0.11
454.835	-0.03
455.036	-0.01
455.238	0.1
455.439	0.06
455.64	-0.02
455.841	-0.06
456.042	0.11
456.244	0.05
456.445	-0.02
456.646	-0.05
456.847	0.02
457.048	0.08
457.249	0.07
457.45	0.21
457.651	-0.05
457.852	0.02
458.054	0.02
458.255	-0
458.456	0.07
458.657	0.03
458.858	-0.03
459.058	0.01
459.259	0.02
459.46	0.04
459.661	-0.06
459.862	0.05
460.063	-0.03
460.264	0.06
460.465	-0.07
460.666	0.1
460.866	0.01
461.067	0.03
461.268	-0
461.469	-0.02
461.67	0.02
461.87	0.03
462.071	-0.01
462.272	-0.04
462.473	0.04
462.673	0.05
462.874	-0.05
463.075	0.06
463.275	-0.03
463.476	-0.02
463.676	0.02
463.877	-0.04
464.078	0.06
464.278	0.06
464.479	-0.03
464.679	-0.01
464.88	0.01
465.08	0.07
465.281	-0.01
465.481	-0.01
465.682	-0.03
465.882	0.04
466.083	-0.01
466.283	0
466.483	-0.01
466.684	-0.04
466.884	-0.05
467.085	-0.05
467.285	0.08
467.485	-0.06
467.686	0
467.886	-0.06
468.086	0.02
468.286	0.03
468.487	0
468.687	-0.03
468.887	-0.03
469.087	0.05
469.287	-0.01
469.488	-0.08
469.688	0.07
469.888	0.02
470.088	0.06
470.288	0.02
470.488	0.05
470.688	-0.05
470.888	-0.03
471.088	-0.05
471.288	0.04
471.488	0.03
471.688	0
471.888	-0.05
472.088	0.03
472.288	0.03
472.488	-0.04
472.688	-0.01
472.888	-0.03
473.088	-0.04
473.288	0.01
473.488	0
473.688	0.07
473.887	-0.02
474.087	-0.02
474.287	-0.01
474.487	-0.07
474.687	0.07
474.886	-0.03
475.086	0.01
475.286	-0.01
475.486	-0.05
475.685	-0.02
475.885	-0.03
476.085	0.03
476.284	0.02
476.484	-0.02
476.684	-0
476.883	0.05
477.083	-0.02
477.282	-0.04
477.482	0.02
477.681	0.06
477.881	0
478.08	-0.05
478.28	-0.01
478.479	0.01
478.679	0.05
478.878	-0.05
479.078	-0.04
479.277	-0.01
479.477	-0.03
479.676	0.02
479.875	-0.01
480.075	-0.07
480.274	-0
480.473	-0.04
480.673	-0.05
480.872	0.04
481.071	0.02
481.271	0.01
481.47	-0.01
481.669	-0.02
481.868	-0.03
482.067	-0.04
482.267	-0.02
482.466	-0.03
482.665	-0.02
482.864	-0.03
483.063	-0.05
483.262	-0
483.461	0.04
483.661	-0
483.86	-0.01
484.059	0
484.258	-0.01
484.457	-0.01
484.656	-0.01
484.855	0.03
485.054	-0.05
485.253	-0.02
485.452	-0.02
485.651	-0.02
485.849	0.01
486.048	-0.04
486.247	-0.02
486.446	0
486.645	-0.04
486.844	-0.02
487.043	-0.02
487.241	0.04
487.44	-0.05
487.639	0
487.838	0.02
488.037	-0.02
488.235	0.03
488.434	-0
488.633	-0.02
488.831	0.02
489.03	0
489.229	-0.01
489.427	-0.02
489.626	0.02
489.825	0.04
490.023	0.02
490.222	-0.03
490.42	0
490.619	0.01
490.817	0.01
491.016	-0.03
491.214	0.01
491.413	0
491.611	-0.02
491.81	-0
492.008	0.01
492.207	0.02
492.405	-0
492.604	-0.05
492.802	-0
493	-0.01
493.199	-0.02
493.397	0.01
493.595	-0.02
493.794	-0.01
493.992	0.03
494.19	-0.02
494.388	0
494.587	-0.01
494.785	0.01
494.983	-0.03
495.181	-0.01
495.379	-0.02
495.578	-0.02
495.776	0.01
495.974	-0.03
496.172	-0.01
496.37	-0.03
496.568	-0.03
496.766	-0.05
496.964	0.01
497.162	-0
497.36	-0.02
497.558	0
497.756	0.01
497.954	-0.01
498.152	-0.04
498.35	0.01
498.548	-0.01
498.746	-0.01
498.944	-0.05
499.142	-0.01
499.34	-0.05
499.538	-0.01
499.736	-0.05
499.933	0.05
500.131	0.02
500.329	-0.03
500.527	-0
500.725	0.01
500.922	0.02
501.12	-0.01
501.318	0
501.516	-0.02
501.713	0.01
501.911	-0.01
502.109	-0.04
502.306	-0.01
502.504	-0.01
502.701	-0.03
502.899	-0.02
503.097	0.02
503.294	-0.01
503.492	-0.03
503.689	0.01
503.887	0
504.084	0.02
504.282	-0.01
504.479	-0.05
504.677	-0.01
504.874	-0.04
505.072	0.01
505.269	-0.01
505.466	0
505.664	-0.01
505.861	-0.03
506.059	-0.04
506.256	0.01
506.453	-0.02
506.651	0.02
506.848	0
507.045	-0.02
507.242	0.02
507.44	-0.02
507.637	-0.03
507.834	-0.02
508.031	0
508.229	-0.02
508.426	-0
508.623	-0
508.82	0
509.017	-0.02
509.214	-0.01
509.411	-0
509.608	-0.04
509.805	-0.01
510.003	-0.03
510.2	-0.02
510.397	0.02
510.594	-0.04
510.791	-0.03
510.988	-0
511.184	0.02
511.381	-0.02
511.578	-0.06
511.775	0.02
511.972	-0.03
512.169	-0.01
512.366	-0
512.563	-0.01
512.76	-0.01
512.956	-0.01
513.153	-0.01
513.35	-0.01
513.547	-0.02
513.744	-0.03
513.94	-0.06
514.137	-0
514.334	0
514.53	-0.01
514.727	-0.01
514.924	0.02
515.12	-0.02
515.317	-0.03
515.514	-0.04
515.71	-0.04
515.907	-0.01
516.103	-0.02
516.3	0
516.497	0.01
516.693	0.03
516.89	-0.02
517.086	-0.02
517.283	0.02
517.479	-0
517.676	0
517.872	-0.01
518.068	-0.02
518.265	-0.01
518.461	-0.04
518.658	-0.04
518.854	0.01
519.05	-0.01
519.247	-0.04
519.443	0.01
519.639	0
519.836	-0.01
520.032	-0
520.228	-0.01
520.424	0.02
520.621	0.01
520.817	-0.01
521.013	-0
521.209	0.02
521.405	0.01
521.601	-0.01
521.798	-0.01
521.994	0.01
522.19	-0.03
522.386	-0.04
522.582	-0
522.778	0
522.974	-0.01
523.17	-0.02
523.366	-0.01
523.562	0.01
523.758	-0.01
523.954	-0.06
524.15	-0.02
524.346	-0
524.542	-0.01
524.738	-0.01
524.934	-0.03
525.129	-0.08
525.325	-0.01
525.521	-0
525.717	0.02
525.913	-0.02
526.109	-0.01
526.304	-0.02
526.5	-0.02
526.696	0.02
526.892	-0.02
527.087	-0
527.283	-0.03
527.479	0
527.674	-0.03
527.87	-0.02
528.066	-0.01
528.261	0.02
528.457	0
528.653	-0.01
528.848	-0.02
529.044	-0.01
529.239	-0.01
529.435	0.02
529.63	0.02
529.826	0.05
530.021	0.01
530.217	0.02
530.412	-0.03
530.608	-0.03
530.803	-0.01
530.999	-0.04
531.194	-0.06
531.389	-0.01
531.585	-0.03
531.78	-0.01
531.975	-0.01
532.171	0.01
532.366	-0.03
532.561	-0.01
532.757	-0.04
532.952	-0.02
533.147	-0
533.342	-0.01
533.538	-0.03
533.733	0.03
533.928	-0.01
534.123	-0.01
534.318	-0.05
534.513	-0.02
534.709	-0.01
534.904	-0.03
535.099	-0.03
535.294	-0
535.489	-0.02
535.684	-0.03
535.879	-0.03
536.074	0
536.269	-0.02
536.464	-0
536.659	-0.02
536.854	-0.02
537.049	-0.03
537.244	0
537.439	-0.02
537.634	0.01
537.828	-0.02
538.023	-0.01
538.218	-0.04
538.413	-0.02
538.608	-0.03
538.803	-0.01
538.997	-0.05
539.192	0.01
539.387	0.02
539.582	0
539.776	-0
539.971	-0.03
540.166	-0.03
540.36	-0.04
540.555	-0.01
540.75	-0.02
540.944	-0.01
541.139	-0.04
541.334	-0.03
541.528	0.01
541.723	-0.02
541.917	-0.04
542.112	-0.03
542.306	-0.01
542.501	-0.01
542.695	0
542.89	-0.04
543.084	-0
543.279	-0.01
543.473	0.01
543.668	-0.01
543.862	-0.02
544.056	0.01
544.251	-0
544.445	-0.02
544.64	-0
544.834	-0.02
545.028	-0.01
545.222	-0.02
545.417	0
545.611	-0.01
545.805	-0.01
546	-0.02
546.194	-0.01
546.388	-0.02
546.582	-0.01
546.776	-0.02
546.97	-0.02
547.165	-0.01
547.359	0.01
547.553	-0.02
547.747	0
547.941	-0.01
548.135	-0.01
548.329	-0
548.523	0.01
548.717	-0.02
548.911	-0.02
549.105	-0.03
549.299	0
549.493	0
549.687	0
549.881	-0
550.075	-0.02
550.269	-0.04
550.463	0.01
550.657	-0.02
550.85	-0.01
551.044	-0.03
551.238	-0
551.432	-0.03
551.626	-0.03
551.82	-0.01
552.013	-0.02
552.207	-0.02
552.401	0.01
552.594	-0.03
552.788	-0
552.982	-0.02
553.176	-0.03
553.369	0
553.563	0.02
553.756	-0.04
553.95	-0.04
554.144	-0.02
554.337	0.01
554.531	-0.01
554.724	-0
554.918	-0.04
555.111	0.01
555.305	-0.01
555.498	0.02
555.692	0.01
555.885	-0.03
556.079	0.01
556.272	-0.04
556.466	0.03
556.659	-0.01
556.852	-0.01
557.046	-0.02
557.239	0.01
557.432	-0.03
557.626	-0.03
557.819	0
558.012	0
558.206	0.01
558.399	-0.03
558.592	-0.01
558.785	-0.03
558.979	-0.01
559.172	-0.01
559.365	-0
559.558	0.01
559.751	-0.03
559.944	0.01
560.138	-0.02
560.331	-0.01
560.524	-0.01
560.717	-0.03
560.91	-0.01
561.103	-0.01
561.296	-0.02
561.489	0.02
561.682	-0.02
561.875	0.01
562.068	-0.01
562.261	-0.01
562.454	0.03
562.647	-0.01
562.84	0.02
563.032	-0.01
563.225	-0
563.418	-0.03
563.611	-0.03
563.804	-0.01
563.997	-0.01
564.19	-0.02
564.382	-0.01
564.575	-0.02
564.768	-0
564.961	-0.01
565.153	-0.02
565.346	0.02
565.539	0.02
565.731	0.02
565.924	0.01
566.117	-0.01
566.309	-0.01
566.502	-0.05
566.695	-0.02
566.887	-0.02
567.08	-0.01
567.272	0.01
567.465	-0.02
567.657	-0.01
567.85	-0.02
568.042	0
568.235	0.01
568.427	0
568.62	-0.02
568.812	-0.01
569.005	0
569.197	-0.04
569.389	-0
569.582	-0.02
569.774	-0.01
569.966	-0.04
570.159	-0.05
570.351	0.02
570.543	-0.02
570.736	-0.01
570.928	-0.03
571.12	-0.01
571.312	-0.03
571.505	-0.04
571.697	0
571.889	-0.05
572.081	-0.01
572.273	-0.02
572.465	0.02
572.658	-0.02
572.85	0
573.042	-0.01
573.234	-0.04
573.426	0.02
573.618	-0.06
573.81	0.01
574.002	0.02
574.194	0.03
574.386	-0.02
574.578	-0.08
574.77	-0.03
574.962	-0.02
575.154	-0.05
575.346	-0.03
575.538	-0.01
575.729	-0.03
575.921	-0.02
576.113	-0.03
576.305	0.03
576.497	-0.01
576.689	-0.03
576.88	-0.04
577.072	0.01
577.264	0
577.456	-0.02
577.647	-0.07
577.839	0.02
578.031	0.01
578.223	-0.05
578.414	-0.05
578.606	-0.02
578.798	-0.02
578.989	-0.03
579.181	-0.03
579.372	-0.01
579.564	-0.04
579.755	-0.01
579.947	-0.01
580.139	0
580.33	-0.06
580.522	-0.03
580.713	-0.07
580.905	-0.01
581.096	0.01
581.287	-0.03
581.479	-0.02
581.67	0.03
581.862	-0.01
582.053	-0.03
582.244	-0.05
582.436	0
582.627	-0.02
582.818	-0.05
583.01	-0.04
583.201	0.02
583.392	0.03
583.583	-0.02
583.775	-0.04
583.966	-0.04
584.157	-0.04
584.348	-0.03
584.54	-0.04
584.731	-0
584.922	-0.01
585.113	-0.03
585.304	0.02
585.495	0.02
585.686	-0
585.877	0.01
586.068	-0.02
586.259	0.01
586.45	-0.01
586.641	-0.04
586.832	-0.07
587.023	-0.01
587.214	-0.01
587.405	0.01
587.596	-0.04
587.787	0.01
587.978	-0
588.169	-0.03
588.36	-0.03
588.551	0.01
588.742	-0.02
588.932	-0.01
589.123	-0.02
589.314	-0
589.505	-0
589.696	-0.01
589.886	-0.03
590.077	-0.03
590.268	-0.01
590.458	-0.05
590.649	-0.03
590.84	-0.01
591.03	-0.05
591.221	-0.06
591.412	-0.05
591.602	0
591.793	0
591.984	-0.03
592.174	-0.04
592.365	0.06
592.555	-0.04
592.746	-0
592.936	-0
593.127	0
593.317	0.03
593.508	-0.06
593.698	-0.02
593.889	-0.01
594.079	-0.01
594.269	-0.05
594.46	-0.02
594.65	-0.01
594.84	-0.04
595.031	-0.04
595.221	-0
595.411	-0.07
595.602	0.04
595.792	-0.04
595.982	-0.04
596.172	0.03
596.363	0
596.553	0
596.743	-0.02
596.933	-0.01
597.123	0.01
597.314	-0.04
597.504	-0.02
597.694	0.03
597.884	-0.02
598.074	-0
598.264	-0.04
598.454	0.03
598.644	-0.03
598.834	-0.01
599.024	-0.08
599.214	-0.01
599.404	0.03
599.594	-0.02
599.784	-0.04
599.974	0.05
600.164	0.01
600.354	-0.05
600.544	-0.05
600.734	-0.01
600.924	0.06
601.114	-0.03
601.303	-0.01
601.493	0.03
601.683	0
601.873	-0.02
602.063	-0.05
602.252	0.03
602.442	-0.08
602.632	-0.03
602.821	-0.05
603.011	0.03
603.201	-0
603.39	-0.03
603.58	-0.04
603.77	-0
603.959	0.02
604.149	-0.02
604.339	-0.02
604.528	0.03
604.718	0.03
604.907	-0.04
605.097	-0.03
605.286	-0.05
605.476	-0.02
605.665	0.01
605.855	-0.02
606.044	0.01
606.234	0
606.423	-0.02
606.612	-0.05
606.802	-0.01
606.991	0.02
607.181	0.02
607.37	-0.05
607.559	-0.01
607.749	-0.07
607.938	-0.03
608.127	-0.04
608.316	-0.03
608.506	0.02
608.695	0
608.884	-0.06
609.073	-0.02
609.263	0
609.452	0.01
609.641	0
609.83	-0.06
610.019	-0.04
610.208	-0.02
610.397	-0.02
610.586	-0.01
610.775	-0.03
610.965	-0.03
611.154	-0.04
611.343	-0.02
611.532	-0.02
611.721	-0.06
611.91	-0.02
612.099	-0.01
612.287	-0.03
612.476	-0.04
612.665	-0.01
612.854	-0.04
613.043	0.02
613.232	-0.02
613.421	-0.04
613.61	-0
613.798	-0.05
613.987	0
614.176	-0.03
614.365	0
614.554	0
614.742	0
614.931	-0.01
615.12	0.02
615.309	-0.05
615.497	-0
615.686	-0.01
615.875	-0.02
616.063	-0.01
616.252	-0.05
616.44	-0.02
616.629	-0.05
616.818	-0
617.006	-0.03
617.195	-0.01
617.383	0.02
617.572	-0.02
617.76	-0.03
617.949	-0.03
618.137	0.01
618.326	-0.02
618.514	-0.04
618.703	-0.03
618.891	0.05
619.079	-0.06
619.268	0.02
619.456	-0.02
619.644	0.03
619.833	-0.04
620.021	-0.04
620.209	-0.06
620.398	-0.02
620.586	0
620.774	0
620.962	-0.03
621.151	0.04
621.339	-0
621.527	-0.06
621.715	-0.05
621.903	-0.03
622.092	-0.03
622.28	-0.02
622.468	-0
622.656	-0.02
622.844	0.01
623.032	-0.02
623.22	-0.07
623.408	-0.01
623.596	0.02
623.784	0.01
623.972	-0.05
624.16	-0.01
624.348	0.01
624.536	-0.03
624.724	-0.02
624.912	0.02
625.1	0.03
625.288	-0.03
625.476	-0.05
625.664	0.05
625.851	-0.03
626.039	-0.01
626.227	-0.01
626.415	0.02
626.603	-0.06
626.79	0
626.978	-0.04
627.166	0.02
627.354	-0.02
627.541	-0.04
627.729	-0.06
627.917	0.01
628.104	0.03
628.292	-0.03
628.48	-0.02
628.667	-0.03
628.855	-0
629.042	0.03
629.23	-0.01
629.418	-0.01
629.605	-0.03
629.793	-0.02
629.98	-0.04
630.168	-0.04
630.355	-0.01
630.543	0
630.73	-0.04
630.917	0.03
631.105	0.07
631.292	-0.02
631.48	-0.01
631.667	0.04
631.854	-0.01
632.042	0.01
632.229	-0.05
632.416	0.02
632.604	-0.02
632.791	-0.04
632.978	0.03
633.165	0.02
633.353	0.06
633.54	0.03
633.727	-0.09
633.914	0.01
634.101	-0.09
634.289	0.02
634.476	-0.05
634.663	-0.02
634.85	0.02
635.037	-0.05
635.224	-0.06
635.411	0.02
635.598	0.04
635.785	-0
635.972	0.01
636.159	0.06
636.346	-0.03
636.533	0.01
636.72	-0.05
636.907	0
637.094	0.05
637.281	-0.02
637.468	0
637.655	0.02
637.842	-0.02
638.029	-0.03
638.215	0.02
638.402	0.02
638.589	-0.03
638.776	-0.01
638.963	-0.02
639.149	0.03
639.336	0.07
639.523	-0.01
639.709	-0.01
639.896	-0
640.083	0.07
640.27	0.03
640.456	-0.01
640.643	0.01
640.829	-0.02
641.016	0.01
641.203	-0.04
641.389	0.04
641.576	0.03
641.762	0.03
641.949	-0.03
642.135	0.03
642.322	-0.01
642.508	-0.01
642.695	0.05
642.881	0.01
643.068	-0.01
643.254	0.01
643.441	0.09
643.627	0
643.813	-0.02
644	0.04
644.186	0.01
644.372	0.04
644.559	0.06
644.745	-0.01
644.931	-0.01
645.118	0.02
645.304	-0.01
645.49	0
645.676	0.02
645.862	0.05
646.049	0.08
646.235	0.03
646.421	0.09
646.607	0.09
646.793	-0.03
646.979	-0.03
647.165	0.05
647.352	0.03
647.538	0.08
647.724	0.02
647.91	0.07
648.096	0.06
648.282	0.05
648.468	0.02
648.654	0.03
648.84	0.05
649.026	0.05
649.212	0.04
649.397	0.04
649.583	-0.01
649.769	0.05
649.955	0.06
650.141	0.07
650.327	0.05
650.513	0.03
650.698	0.04
650.884	0.01
651.07	0.06
651.256	0.08
651.442	0.01
651.627	0.07
651.813	0.04
651.999	0.08
652.184	0.1
652.37	0.06
652.556	0.05
652.741	0.12
652.927	-0.03
653.113	0.04
653.298	0.06
653.484	0.02
653.669	0.01
653.855	0.05
654.04	0.07
654.226	0.07
654.412	0
654.597	0.02
654.782	0.08
654.968	0.12
655.153	0.08
655.339	0.06
655.524	0.02
655.71	0.1
655.895	0.06
656.08	0.07
656.266	0.12
656.451	0.09
656.636	0.03
656.822	0.09
657.007	0.02
657.192	0.06
657.378	0.04
657.563	0.11
657.748	0.14
657.933	0.11
658.118	0.07
658.304	0.07
658.489	0.13
658.674	0.1
658.859	0.06
659.044	0.1
659.229	0.08
659.414	0.07
659.599	0.09
659.785	0.05
659.97	0.06
660.155	0.12
660.34	0.09
660.525	0.09
660.71	0.12
660.895	0.12
661.08	0.07
661.264	0.02
661.449	0.12
661.634	0.11
661.819	0.1
662.004	0.08
662.189	0.02
662.374	0.07
662.559	0.03
662.743	0.01
662.928	0.06
663.113	0.03
663.298	0
663.483	0.05
663.667	0.06
663.852	0.02
664.037	0.1
664.221	0.04
664.406	0.07
664.591	0.07
664.775	0.07
664.96	0.05
665.145	0.07
665.329	0.04
665.514	0.01
665.698	0.03
665.883	-0.01
666.068	0.1
666.252	0.02
666.437	-0.02
666.621	0.03
666.806	0.01
666.99	-0
667.174	-0.02
667.359	0.01
667.543	0.02
667.728	0
667.912	-0.06
668.096	0.05
668.281	0
668.465	-0
668.649	0
668.834	-0.05
669.018	0.03
669.202	0.03
669.387	-0.01
669.571	0.01
669.755	-0.03
669.939	0
670.124	-0.01
670.308	0.03
670.492	0.03
670.676	0.02
670.86	-0.02
671.044	-0.06
671.228	0.01
671.413	-0.03
671.597	-0.03
671.781	-0
671.965	0
672.149	-0.03
672.333	-0.02
672.517	-0.01
672.701	0.03
672.885	-0.06
673.069	-0.05
673.253	0.01
673.437	-0.01
673.621	-0.03
673.804	-0.02
673.988	-0.03
674.172	0
674.356	-0.06
674.54	-0.02
674.724	0.09
674.908	-0.07
675.091	0
675.275	-0
675.459	0.02
675.643	0.06
675.826	0.02
676.01	-0.02
676.194	-0.03
676.377	-0
676.561	0.02
676.745	0.02
676.928	-0
677.112	0.04
677.296	-0.05
677.479	-0.04
677.663	-0.05
677.846	0
678.03	-0.04
678.213	-0.01
678.397	-0.02
678.58	-0.05
678.764	-0.03
678.947	-0.09
679.131	-0.03
679.314	0
679.498	0
679.681	0
679.865	0.02
680.048	-0.06
680.231	0
680.415	-0.07
680.598	-0.01
680.781	-0.03
680.965	-0.03
681.148	0
681.331	-0.05
681.514	-0
681.698	0.01
681.881	0.02
682.064	-0.04
682.247	0
682.43	-0.07
682.614	-0.03
682.797	0.01
682.98	0.02
683.163	-0.05
683.346	0.01
683.529	-0.02
683.712	-0.05
683.895	-0.01
684.078	-0.01
684.261	-0.03
684.444	0
684.627	0.01
684.81	-0.03
684.993	-0.07
685.176	0.02
685.359	-0.05
685.542	-0.01
685.725	0.02
685.908	0
686.091	0
686.274	0.02
686.457	-0.03
686.639	-0.04
686.822	0.02
687.005	-0.02
687.188	0.06
687.371	0.1
687.553	-0.04
687.736	-0.06
687.919	0.06
688.102	0.04
688.284	-0.02
688.467	-0.03
688.65	-0.05
688.832	-0.02
689.015	0.02
689.197	-0.09
689.38	0.03
689.563	0.07
689.745	-0.06
689.928	-0.02
690.11	-0.05
690.293	-0.05
690.475	-0.08
690.658	0
690.84	-0.06
691.023	-0.04
691.205	-0.08
691.388	0
691.57	-0
691.752	0.03
691.935	-0.14
692.117	-0
692.3	-0.05
692.482	-0.05
692.664	-0.02
692.847	0.02
693.029	0.08
693.211	0.06
693.393	-0.05
693.576	-0.03
693.758	-0.04
693.94	-0.02
694.122	-0.02
694.304	-0.01
694.487	-0.05
694.669	0.04
694.851	-0.07
695.033	-0.04
695.215	-0.01
695.397	-0.06
695.579	-0.05
695.761	-0.07
695.943	-0.08
696.125	0.05
696.308	0.02
696.49	-0.13
696.671	0.08
696.853	-0.02
697.035	0.1
697.217	-0.02
697.399	-0.01
697.581	-0.09
697.763	-0.02
697.945	-0.08
698.127	-0.01
698.309	0.05
698.491	-0.08
698.672	0.06
698.854	0.06
699.036	0.06
699.218	-0.08
699.399	0.06
699.581	0.03
699.763	-0.05
699.945	-0.09
700.126	-0.04
700.308	0.03
700.49	-0.02
700.671	-0.13
700.853	-0.05
701.035	-0.06
701.216	-0.07
701.398	-0.04
701.579	0.02
701.761	0.02
701.943	-0.05
702.124	-0.05
702.306	-0.07
702.487	0.14
702.669	0.02
702.85	-0.09
703.031	-0.08
703.213	0.11
703.394	0.05
703.576	0.03
703.757	0.05
703.938	0.03
704.12	0.16
704.301	-0.02
704.483	-0.05
704.664	0.01
704.845	0.05
705.026	0.04
705.208	0.04
705.389	-0.02
705.57	0
705.751	-0.03
705.933	-0.01
706.114	0.03
706.295	-0.06
706.476	-0.05
706.657	0.08
706.838	0
707.02	0.04
707.201	-0.04
707.382	-0.05
707.563	0.03
707.744	-0.05
707.925	-0.1
708.106	-0.01
708.287	0.04
708.468	0.03
708.649	-0.04
708.83	0.03
709.011	-0.03
709.192	0.02
709.373	-0.12
709.554	-0.03
709.734	0.02
709.915	-0.01
710.096	-0.01
710.277	-0.16
710.458	0.02
710.639	0.01
710.819	-0.09
711	-0.06
711.181	0.1
711.362	0.04
711.542	0.04
711.723	-0.04
711.904	0.02
712.085	0.02
712.265	0.05
712.446	-0.04
712.627	-0.01
712.807	-0.08
712.988	0.04
713.168	-0.05
713.349	-0
713.53	-0.15
713.71	-0.09
713.891	-0.08
714.071	-0.06
714.252	-0.02
714.432	-0.11
714.613	-0.1
714.793	0
714.974	0.08
715.154	0.07
715.334	0.06
715.515	0.03
715.695	-0.07
715.876	0.03
716.056	-0.03
716.236	-0.04
716.417	-0.04
716.597	-0.07
716.777	0.09
716.957	-0.04
717.138	0.01
717.318	0.01
717.498	-0.1
717.678	-0.02
717.859	0.11
718.039	-0.08
718.219	0.03
718.399	0.07
718.579	-0.1
718.759	-0.04
718.939	0.02
719.12	0.04
719.3	-0.01
719.48	-0.08
719.66	-0.08
719.84	0.1
720.02	0.04
720.2	0.04
720.38	0.01
720.56	0.06
720.74	-0.02
720.92	-0.01
721.1	0.06
721.279	0.07
721.459	0.04
721.639	-0.07
721.819	0.08
721.999	0.04
722.179	0.02
722.359	-0.06
722.538	0.07
722.718	0.05
722.898	-0.02
723.078	0
723.257	0.01
723.437	0.03
723.617	0.08
723.797	-0
723.976	0.02
724.156	0.07
724.336	0.12
724.515	0.12
724.695	-0.11
724.874	0.03
725.054	0.17
725.234	-0.08
725.413	0.07
725.593	0.02
725.772	0.03
725.952	0.04
726.131	-0.02
726.311	0.03
726.49	0.01
726.67	0.02
726.849	-0.08
727.028	0.07
727.208	-0.02
727.387	-0.01
727.567	-0.04
727.746	0.05
727.925	-0.1
728.105	-0.03
728.284	-0.02
728.463	-0.03
728.643	0.16
728.822	-0.08
729.001	0.05
729.18	0.01
729.359	0.15
729.539	-0.02
729.718	0.08
729.897	0.05
730.076	-0.02
730.255	-0.1
730.434	0.1
730.614	0.08
730.793	0.03
730.972	0.02
731.151	0.02
731.33	0.14
731.509	0.15
731.688	0.1
731.867	0.04
732.046	-0.06
732.225	0.22
732.404	-0.11
732.583	-0.08
732.762	0.16
732.941	0.04
733.12	0.03
733.298	-0.03
733.477	0.13
733.656	-0.02
733.835	-0.1
734.014	0.15
734.193	0.02
734.371	0.11
734.55	0.07
734.729	-0.01
734.908	0.06
735.086	0.17
735.265	0.14
735.444	-0.1
735.623	-0.03
735.801	-0.1
735.98	0.04
736.159	-0.01
736.337	0.18
736.516	0.14
736.694	0.12
736.873	0.07
737.052	0.2
737.23	0.25
737.409	-0
737.587	0.29
737.766	-0.07
737.944	0.04
738.123	0.05
738.301	0.15
738.479	0
738.658	0.12
738.836	-0.06
739.015	0.15
739.193	0.23
739.371	-0.01
739.55	-0.03
739.728	0.03
739.906	0.18
740.085	0.21
740.263	0.12
740.441	-0.09
740.62	0.28
740.798	0.15
740.976	-0.08
741.154	-0.1
741.332	0.13
741.511	0.05
741.689	0.12
741.867	0.19
742.045	0.04
742.223	0.03
742.401	-0.09
742.579	0.03
742.757	0.13
742.935	-0.06
743.114	0.01
743.292	-0.03
743.47	-0.02
743.648	0.09
743.826	0.04
744.004	0.05
744.181	0.06
744.359	0.11
744.537	0.04
744.715	0.06
744.893	-0.03
745.071	0.09
745.249	-0.12
745.427	-0.07
745.605	0.07
745.782	0.05
745.96	0.04
746.138	0.04
746.316	0.08
746.493	-0.01
746.671	-0.06
746.849	-0.03
747.027	0.17
747.204	-0.05
747.382	-0.02
747.56	-0.12
747.737	-0.07
747.915	-0.12
748.093	0.09
748.27	-0.09
748.448	0.05
748.625	-0.27
748.803	-0.11
748.98	-0.09
749.158	0.03
749.335	0.09
749.513	-0.15
749.69	0.02
749.868	0.06
750.045	-0.07
750.223	-0.02
750.4	-0.12
750.578	0.09
750.755	0.02
750.932	-0.13
751.11	0.01
751.287	-0.11
751.464	0.12
751.642	-0.11
751.819	-0.01
751.996	-0.08
752.173	-0.15
752.351	-0.02
752.528	-0.05
752.705	-0.08
752.882	-0.09
753.06	-0.09
753.237	0.03
753.414	0.08
753.591	0.04
753.768	-0.06
753.945	-0.04
754.122	0.03
754.299	-0.03
754.476	-0.09
754.654	0.02
754.831	0.03
755.008	0.01
755.185	-0.09
755.362	-0.2
755.539	-0.04
755.716	-0.09
755.892	-0.1
756.069	0.03
756.246	-0.02
756.423	-0.05
756.6	0.01
756.777	-0.08
756.954	0.11
757.131	0.03
757.307	-0.23
757.484	-0.1
757.661	0.07
757.838	-0.02
758.015	-0.28
758.191	0.07
758.368	-0.07
758.545	0.02
758.721	-0.05
758.898	-0.09
759.075	-0.01
759.251	-0.01
759.428	-0.06
759.605	-0.22
759.781	-0.02
759.958	0.08
760.134	-0.04
760.311	-0.13
760.488	0.13
760.664	0.09
760.841	-0.06
761.017	-0.08
761.194	0.08
761.37	0.03
761.547	0.02
761.723	-0.03
761.899	-0
762.076	0
762.252	-0.22
762.429	0.07
762.605	0.11
762.781	-0
762.958	0
763.134	-0.13
763.31	-0.14
763.486	-0.02
763.663	-0.18
763.839	0.06
764.015	-0.27
764.191	-0.08
764.368	0.01
764.544	-0.24
764.72	0.05
764.896	0.03
765.072	-0.03
765.248	0.03
765.425	0.01
765.601	0.01
765.777	-0.15
765.953	-0.25
766.129	-0.11
766.305	-0.22
766.481	0.09
766.657	-0.04
766.833	0.11
767.009	-0.22
767.185	-0.09
767.361	-0.05
767.537	-0.22
767.713	0.05
767.889	-0.09
768.065	-0.07
768.24	-0.26
768.416	0.01
768.592	-0.08
768.768	-0.12
768.944	0.02
769.12	-0.26
769.295	-0.18
769.471	-0.06
769.647	-0.08
769.823	0.14
769.998	-0.18
770.174	-0.19
770.35	0.3
770.525	0.11
770.701	0.02
770.877	-0.06
771.052	-0.19
771.228	0.11
771.403	0.02
771.579	-0.04
771.755	0.24
771.93	-0.16
772.106	-0.17
772.281	-0.2
772.457	-0.09
772.632	-0.04
772.808	-0.11
772.983	-0.07
773.159	-0.2
773.334	0.14
773.509	-0.15
773.685	-0.24
773.86	0.07
774.036	0.12
774.211	-0.09
774.386	-0.07
774.562	-0.22
774.737	0.06
774.912	-0.16
775.087	0.1
775.263	-0.08
775.438	0.05
775.613	0.04
775.788	0
775.964	-0.02
776.139	0.18
776.314	-0.28
776.489	-0.13
776.664	0.04
776.839	-0.13
777.014	0.13
777.19	0.03
777.365	0.07
777.54	0.04
777.715	-0.18
777.89	-0.03
778.065	-0.2
778.24	-0.19
778.415	-0.07
778.59	-0.27
778.765	-0.14
778.94	-0.17
779.115	-0.17
779.289	-0.1
779.464	-0.08
779.639	-0.09
779.814	-0.11
779.989	-0.22
780.164	0.16
780.339	-0.07
780.513	-0.09
780.688	-0.13
780.863	0.04
781.038	0.11
781.212	-0.13
781.387	-0.11
781.562	0.13
781.737	0.05
781.911	0.28
782.086	-0.03
782.261	-0.07
782.435	0.17
782.61	-0.12
782.784	-0.01
782.959	0.25
783.134	-0.18
783.308	-0.2
783.483	-0.15
783.657	0.35
783.832	-0.02
784.006	-0.29
784.181	0.04
784.355	0.27
784.53	0.09
784.704	-0.12
784.878	0.33
785.053	-0.02
785.227	0.21
785.402	0.09
785.576	-0.25
785.75	-0
785.925	-0.14
786.099	-0.08
786.273	-0.16
786.448	-0.16
786.622	-0.11
786.796	-0.15
786.97	-0.3
787.145	0.51
787.319	-0.18
787.493	-0.33
787.667	-0.24
787.841	-0.13
788.015	0.06
788.19	-0.22
788.364	-0.05
788.538	0.02
788.712	0.08
788.886	-0.05
789.06	0.22
789.234	0.01
789.408	-0.06
789.582	-0.09
789.756	0.07
789.93	-0.27
790.104	0.03
790.278	-0.3
790.452	-0.28
790.626	0.25
790.8	-0.13
790.973	0.16
791.147	0.19
791.321	0.4
791.495	0.13
791.669	-0.01
791.843	0.07
792.016	-0.08
792.19	0.44
792.364	-0.51
792.538	0.51
792.711	0.3
792.885	-0.32
793.059	-0.22
793.233	-0.52
793.406	0.12
793.58	0.09
793.754	0.01
793.927	-0.22
794.101	0.06
794.274	-0.06
794.448	0.19
794.622	-0.5
794.795	0.09
794.969	-0.13
795.142	0.3
795.316	0.02
795.489	-0.23
795.663	0.31
795.836	-0.31
796.009	-0.3
796.183	0.25
796.356	0.08
796.53	0.08
796.703	0.01
796.876	0.4
797.05	-0.06
797.223	-0.17
797.396	-0.01
797.57	-0.19
797.743	0.4
797.916	0.17
798.09	-0.03
798.263	0.23
798.436	0.06
798.609	-0.05
798.782	-0.09
798.956	-0.03
799.129	-0.23
799.302	-0.15
799.475	-0.22
799.648	-0.3
799.821	-0.19
799.994	-0.02
800.167	-0.39
800.34	-0.09
800.514	0.03
800.687	-0.27
800.86	-0.15
801.033	-0.28
801.206	0.11
801.379	-0.63
801.551	0.28
801.724	0.21
801.897	0.35
802.07	-0.13
802.243	-0.66
802.416	-0.14
802.589	-0.1
802.762	-0.28
802.935	-0.21
803.107	0.02
803.28	0.21
803.453	0.15
803.626	-0.3
803.798	-0.24
803.971	-0.46
804.144	-0.01
804.317	-0.13
804.489	0.22
804.662	-0.39
804.835	0.26
805.007	-0.27
805.18	0.44
805.353	0.21
805.525	-0.36
805.698	-0.17
805.87	0.11
806.043	-0.04
806.215	-0.39
806.388	-0.38
806.56	0.06
806.733	-0.11
806.905	-0.27
807.078	-0.24
807.25	-0.1
807.423	-0.24
807.595	-0.08
807.768	-0.04
807.94	0.12
808.112	-0.09
808.285	-0.12
808.457	-0.1
808.629	-0.12
808.802	0.29
808.974	-0.13
809.146	-0.15
809.318	-0.07
809.491	-0.11
809.663	0.05
809.835	-0.19
810.007	0.34
810.18	-0.12
810.352	-0.54
810.524	-0.32
810.696	0.16
810.868	0.09
811.04	-0.3
811.212	-0.17
811.384	-0.15
811.556	-0.06
811.728	-0.09
811.901	0.24
812.073	-0.35
812.245	0.06
812.417	-0.17
812.589	-0.93
812.76	-0.14
812.932	0.13
813.104	0.2
813.276	-0.4
813.448	0.06
813.62	0.03
813.792	0.29
813.964	-0.35
814.136	-0.27
814.307	-0.17
814.479	-0.53
814.651	-0.16
814.823	0.7
814.995	-0.17
815.166	0.09
815.338	-0.64
815.51	-0.95
815.681	0.84
815.853	0.04
816.025	-0.11
816.196	0.31
816.368	-0.01
816.54	-0.25
816.711	-0.32
816.883	0.17
817.054	0.86
817.226	-1
817.398	-0.2
817.569	-0.3
817.741	-0.13
817.912	-0.29
818.084	-0.03
818.255	0.25
818.426	-0.07
818.598	0.03
818.769	-0.43
818.941	0.37
819.112	0.84
819.283	0.39
819.455	-0.32
819.626	-0.18
819.798	-0.05
819.969	0.22
820.14	0.09
820.311	-0.48
820.483	-0.16
820.654	0.11
820.825	-0.08
820.996	-0.55
821.168	-0.68
821.339	-0.16
821.51	-0.77
821.681	-0.48
821.852	0.01
822.023	-0.89
822.195	-1.06
822.366	-0.14
822.537	-0.35
822.708	-0.33
822.879	-0.33
823.05	0.53
823.221	-0.43
823.392	-0.02
823.563	-0.38
823.734	0.16
823.905	-0.17
824.076	-0.55
824.247	-0.55
824.418	-0.41
824.589	0.5
824.759	-0.27
824.93	-0.23
825.101	-0.44
825.272	0.46
825.443	0.46
825.614	0.47
825.784	-0.4
825.955	0.81
826.126	0.83
826.297	-0.54
826.467	0.33
826.638	0.73
826.809	-1.18
826.98	0.06
827.15	0.11
827.321	-0.36
827.492	-0.06
827.662	-0.22
827.833	0.59
828.003	0.14
828.174	-0.12
828.345	-0.76
828.515	0.5
828.686	0.03
828.856	-0.57
829.027	-0.52
829.197	0.36
829.368	-0.21
829.538	-0.71
829.709	-0.83
829.879	0.07
830.049	-0.1
830.22	-0.78
830.39	-0.44
830.56	0.2
830.731	-0.12
830.901	-0.69
831.072	-0.22
831.242	-0.26
831.412	-0.09
831.582	-0.2
831.753	-0.82
831.923	0
832.093	0.14
832.263	-0.56
832.434	-0.47
832.604	0.02
832.774	-0.11
832.944	-0.51
833.114	-0.26
833.284	0.08
833.454	-0.22
833.624	-0.39
833.795	-0.45
833.965	0.25
834.135	0.72
834.305	-0.69
834.475	-0.66
834.645	-0.62
834.815	-0.41
834.985	-0.26
835.155	-0.56
835.325	-0.02
835.494	-0.08
835.664	-0.44
835.834	-0.99
836.004	-0.07
836.174	-0.13
836.344	0.12
836.514	-0.92
836.684	-0.71
836.853	0.16
837.023	-0.02
837.193	-0.74
837.363	0.09
837.532	0.02
837.702	-0.04
837.872	-0.32
838.041	0.71
838.211	0.88
838.381	-0.84
838.55	-0.16
838.72	1.12
838.89	0.33
839.059	-0.16
839.229	-0.6
839.398	0.8
839.568	-0.21
839.738	0.11
839.907	0.98
840.077	-0.28
840.246	-0.85
840.416	-1.01
840.585	-1.18
840.755	0.75
840.924	0.18
841.093	-0.05
841.263	-0.54
841.432	-0.12
841.602	-0.34
841.771	-0.23
841.94	0.02
842.11	0.63
842.279	1.16
842.448	-1.19
842.617	-0.73
842.787	0.96
842.956	-1.3
843.125	0.19
843.294	-0
843.464	0.16
843.633	0.42
843.802	-0.83
843.971	-0.28
844.14	0.27
844.309	0.31
844.479	-0.99
844.648	-1.17
844.817	-0.37
844.986	-0.31
845.155	-0.44
845.324	-0.08
845.493	0.25
845.662	0.07
845.831	0.29
846	0.38
846.169	0.22
846.338	1.06
846.507	-0.15
846.676	-0.32
846.844	-0.97
847.013	-0.4
847.182	-0.52
847.351	-0.32
847.52	-0.57
847.689	-0.32
847.858	-0.06
848.026	-1.03
848.195	-0.5
848.364	-1.03
848.533	-0.57
848.701	-0.35
848.87	-0.57
849.039	0.19
849.207	0.97
849.376	0.4
849.545	0.58
849.713	-0.14
849.882	-0.41
850.051	-0.14
850.219	-0.14
850.388	0.51
850.556	-1.19
850.725	-0.8
850.893	-0.13
851.062	-0.36
851.23	1.44
851.399	-1.45
851.567	-1.4
851.736	-1.46
851.904	-1
852.073	-1.02
852.241	0.46
852.41	-0.69
852.578	-0.58
852.746	-1.23
852.915	0.04
853.083	-0.55
853.251	-0.87
853.42	-0.5
853.588	-0.41
853.756	1.14
853.924	-0.04
854.093	-0.64
854.261	-0.84
854.429	-1.81
854.597	-0.36
854.765	-1.51
854.934	-0.17
855.102	1.01
855.27	0.14
855.438	-0.1
855.606	0.48
855.774	1.73
855.942	-0.95
856.11	-2.12
856.278	-0.13
856.446	0.98
856.614	-0.25
856.782	-1.39
856.95	0.25
857.118	1.17
857.286	-0.65
857.454	-0.99
857.622	1.01
857.79	-0.22
857.958	-1.3
858.126	0.04
858.294	-3.15
858.462	-0.13
858.629	-0.27
858.797	-1.07
858.965	0.51
859.133	-1.58
859.301	-0.14
859.468	1.14
859.636	-0.43
859.804	2.14
859.971	0.53
860.139	-1.32
860.307	1.07
860.474	-0
860.642	-0.85
860.81	-0.5
860.977	0.01
861.145	-0.47
861.313	-1.02
861.48	-0.14
861.648	-0.04
861.815	-0.56
861.983	-1.64
862.15	-0.82
862.318	1.65
862.485	0.52
862.653	-1.22
862.82	-1.52
862.988	0.64
863.155	-1.34
863.322	-1.54
863.49	-1.61
863.657	0.52
863.824	1.21
863.992	0.54
864.159	0.3
864.326	-0.04
864.494	-1.08
864.661	1.53
864.828	-1.91
864.996	0.56
865.163	2.06
865.33	-0.7
865.497	-2.58
865.664	0.6
865.832	-1.81
865.999	-1.04
866.166	-0.99
866.333	-0.26
866.5	1.11
866.667	-1.23
866.834	-0.77
867.001	1.03
867.168	-1.74
867.335	0.09
867.502	-1.87
867.669	-0.48
867.836	1.95
868.003	-1.26
868.17	0.64
868.337	2.41
868.504	2.5
868.671	-1.55
868.838	-1.91
869.005	-0.28
869.172	-0.41
869.339	-0.25
869.505	-1.2
869.672	-1.38
869.839	2.81
870.006	-0.47
870.173	-1.59
870.339	-0.14
870.506	2.02
870.673	-2.39
870.84	0.01
871.006	0.81
871.173	-0.46
871.34	-1.04
871.506	-1.19
871.673	0.83
871.839	-2.37
872.006	-1.07
872.173	-1.37
872.339	-0.09
872.506	1.02
872.672	-1.13
872.839	-2.17
873.005	0.75
873.172	1.63
873.338	0.65
873.505	-0.59
873.671	-0.27
873.838	1.62
874.004	-1.5
874.171	-0.34
874.337	0.17
874.503	1.13
874.67	-2.26
874.836	-0.93
875.002	1.41
875.169	-1.34
875.335	-0.46
875.501	-1.69
875.668	0.54
875.834	-0.11
876	-0.89
876.166	2.34
876.332	0.77
876.499	3.37
876.665	-0.67
876.831	-0.44
876.997	2.87
877.163	-0.11
877.329	-0.99
877.495	1.19
877.662	-1.16
877.828	0.58
877.994	-2.07
878.16	-3.44
878.326	-0.98
878.492	-0.85
878.658	-1.23
878.824	-1.3
878.99	1
879.156	-1.42
879.322	1.71
879.487	-2.25
879.653	0.67
879.819	-1.08
879.985	-1.58
880.151	0.5
880.317	0.18
880.483	0.8
880.648	-0.08
880.814	-2.67
880.98	0.78
881.146	-3.49
881.312	-2.5
881.477	-0.23
881.643	0.77
881.809	3.1
881.974	2.65
882.14	-1.73
882.306	-0.49
882.471	3.86
882.637	0.11
882.803	-0.49
882.968	2.35
883.134	2.39
883.299	0.11
883.465	0.74
883.63	1.88
883.796	0.65
883.961	0.07
884.127	0.18
884.292	-3.99
884.458	-2.35
884.623	-2.34
