Data from Apollo_Calib_20240827__AbsoluteIrradiance__671__10-20-01-633.txt Node

Date: Wed Aug 28 10:20:01 BST 2024
User: biology
Spectrometer: FLMT08252
Trigger mode: 0
Integration Time (sec): 5.000000E-1
Scans to average: 5
Electric dark correction enabled: true
Nonlinearity correction enabled: false
Boxcar width: 0
XAxis mode: Wavelengths
Number of Pixels in Spectrum: 3648
>>>>>Begin Spectral Data<<<<<
179.588	-0
179.809	-0
180.03	-0
180.251	-0
180.473	-0
180.694	0
180.915	0
181.136	-0
181.357	0
181.578	-0
181.799	-0
182.02	-0
182.241	0
182.462	-0
182.683	0
182.904	0
183.125	-0
183.346	0
183.567	0
183.788	-0
184.009	-0
184.23	0
184.451	0
184.672	-0
184.892	-0
185.113	0
185.334	0
185.555	-0
185.776	-0
185.996	0
186.217	0
186.438	0
186.659	-0
186.879	0
187.1	-0
187.321	0
187.541	-0
187.762	-0
187.983	0
188.203	0
188.424	0
188.644	-0
188.865	0
189.086	0
189.306	-0
189.527	0
189.747	0
189.968	-0
190.188	0
190.409	0
190.629	0
190.849	-0
191.07	-0
191.29	0
191.511	-0
191.731	-0
191.951	-0
192.172	0
192.392	0
192.612	0
192.833	0
193.053	0
193.273	0
193.493	0
193.714	-0
193.934	0
194.154	0
194.374	0
194.594	0
194.815	0
195.035	0
195.255	0
195.475	0
195.695	0
195.915	0
196.135	-0
196.355	0
196.575	0
196.795	0
197.015	-0
197.235	-0
197.455	-0
197.675	0
197.895	-0
198.115	-0
198.335	0
198.555	-0
198.775	0
198.995	0
199.214	0
199.434	-0
199.654	-0
199.874	0
200.094	0.96
200.313	-0.13
200.533	-0.16
200.753	0.05
200.973	1.32
201.192	1.15
201.412	-0.87
201.632	-0.16
201.851	0.98
202.071	-0.19
202.291	-0.55
202.51	-0.58
202.73	0.47
202.95	0.26
203.169	-0.47
203.389	0.04
203.608	0.47
203.828	-0.51
204.047	-0.27
204.267	0.32
204.486	0.23
204.706	0.17
204.925	0.57
205.145	-0.3
205.364	0.5
205.583	0.44
205.803	0.26
206.022	-0.1
206.242	0.45
206.461	-0.09
206.68	-0.29
206.9	0.25
207.119	0.57
207.338	0.67
207.557	0.26
207.777	-0.03
207.996	0.33
208.215	0.78
208.434	0.16
208.654	-0.41
208.873	0.2
209.092	0.36
209.311	0.01
209.53	0.19
209.749	-0.17
209.968	-0.27
210.187	0.05
210.407	-0.17
210.626	-0.02
210.845	0.13
211.064	-0.03
211.283	-0.2
211.502	0.42
211.721	-0
211.94	-0.09
212.159	0.24
212.377	0.39
212.596	0.49
212.815	0.09
213.034	0.03
213.253	0.09
213.472	0.15
213.691	-0.1
213.91	-0.11
214.128	-0.07
214.347	0.39
214.566	-0.32
214.785	-0.26
215.003	0.18
215.222	0.1
215.441	0.1
215.66	-0.17
215.878	0.01
216.097	0.32
216.316	-0.31
216.534	-0.11
216.753	0.16
216.972	0.01
217.19	0.19
217.409	-0.01
217.627	0.02
217.846	-0.12
218.064	0.15
218.283	-0.05
218.501	0.34
218.72	0.19
218.938	-0.06
219.157	-0.04
219.375	0.17
219.594	0.26
219.812	-0.27
220.031	0.05
220.249	0.33
220.467	0.28
220.686	-0.1
220.904	-0.31
221.122	-0.08
221.341	0.48
221.559	0.16
221.777	-0.14
221.995	0.05
222.214	0.15
222.432	-0.02
222.65	0.17
222.868	0.08
223.086	0.25
223.305	0.14
223.523	0.02
223.741	0.31
223.959	0.01
224.177	-0.33
224.395	-0.07
224.613	0.18
224.831	0.17
225.049	-0.06
225.267	-0.06
225.485	0.13
225.703	-0.02
225.921	0.05
226.139	-0.03
226.357	0.04
226.575	0.2
226.793	-0.01
227.011	0.69
227.229	0.22
227.447	0.16
227.665	0.02
227.883	-0.18
228.1	0.04
228.318	0.08
228.536	-0.2
228.754	-0.07
228.972	0.25
229.189	0.29
229.407	-0.07
229.625	0.01
229.843	0.17
230.06	0.05
230.278	-0.09
230.496	0.1
230.713	-0.02
230.931	0.14
231.149	0.02
231.366	-0.13
231.584	0.02
231.801	0.41
232.019	-0.02
232.236	-0
232.454	-0.05
232.671	0.14
232.889	0.02
233.106	-0.14
233.324	0.02
233.541	0.03
233.759	0.05
233.976	0.08
234.194	0.04
234.411	0.03
234.628	-0.07
234.846	0.05
235.063	0.07
235.28	0.06
235.498	0.02
235.715	-0.05
235.932	0.22
236.149	0.07
236.367	-0.05
236.584	0.11
236.801	-0.14
237.018	0.1
237.236	0.03
237.453	-0.02
237.67	0.1
237.887	0.09
238.104	0
238.321	-0.01
238.538	-0.11
238.755	0.12
238.973	-0.08
239.19	0.05
239.407	0.14
239.624	0.12
239.841	-0.16
240.058	-0.04
240.275	0.16
240.492	-0.09
240.709	0.03
240.925	-0.06
241.142	0.09
241.359	-0.09
241.576	-0.03
241.793	-0.02
242.01	0.06
242.227	0.09
242.444	0.07
242.66	0.2
242.877	0.06
243.094	-0.02
243.311	0.03
243.527	0
243.744	0.09
243.961	0.08
244.178	-0.06
244.394	-0.03
244.611	0.2
244.828	0.3
245.044	-0.07
245.261	0.02
245.477	0.06
245.694	0.03
245.911	0.02
246.127	0.05
246.344	0.15
246.56	0.15
246.777	-0.03
246.993	-0.02
247.21	0.12
247.426	0.1
247.643	-0
247.859	-0.01
248.076	0.01
248.292	0.14
248.508	0.05
248.725	0.07
248.941	0.1
249.157	0.14
249.374	0.01
249.59	-0.02
249.806	0.07
250.023	0.08
250.239	-0.08
250.455	-0.06
250.671	0.01
250.888	0.07
251.104	0.08
251.32	-0.03
251.536	0.06
251.752	0.04
251.969	0.04
252.185	0.05
252.401	0.16
252.617	0.01
252.833	0.02
253.049	0.03
253.265	0.1
253.481	0.03
253.697	0.05
253.913	0.02
254.129	0.07
254.345	0.05
254.561	-0.01
254.777	-0.02
254.993	0.11
255.209	0
255.425	0.03
255.641	-0.04
255.857	0.17
256.073	0.11
256.288	-0.04
256.504	-0.1
256.72	0.08
256.936	0.17
257.152	0
257.367	-0.03
257.583	0.03
257.799	0.12
258.015	-0.01
258.23	-0.01
258.446	0.17
258.662	-0.02
258.877	-0.05
259.093	-0.07
259.309	0.05
259.524	0.05
259.74	-0.01
259.955	-0.1
260.171	-0.01
260.387	-0.06
260.602	0.15
260.818	0.11
261.033	0.03
261.249	0.01
261.464	-0.03
261.68	-0.06
261.895	0.11
262.11	0.1
262.326	-0.02
262.541	-0.11
262.757	0.06
262.972	0.02
263.187	0.02
263.403	0.03
263.618	0.02
263.833	0.06
264.049	0.03
264.264	0.01
264.479	0.1
264.694	0.1
264.91	-0.08
265.125	-0.03
265.34	0.12
265.555	0.21
265.77	0.12
265.986	0.05
266.201	0.05
266.416	0.08
266.631	0.05
266.846	0.04
267.061	0.02
267.276	0.03
267.491	-0.04
267.706	0.05
267.921	-0.03
268.136	0.04
268.351	-0.01
268.566	0
268.781	0.08
268.996	0.11
269.211	0.04
269.426	-0.04
269.641	-0.05
269.856	0.1
270.071	-0.06
270.285	-0.06
270.5	0.12
270.715	0.08
270.93	0.08
271.145	0.1
271.359	0.06
271.574	-0
271.789	0.04
272.004	-0.03
272.218	-0.02
272.433	0.03
272.648	-0.01
272.862	0.07
273.077	0.04
273.292	0.05
273.506	0.05
273.721	-0.07
273.936	0.09
274.15	0.06
274.365	-0.06
274.579	0.06
274.794	0.01
275.008	0.06
275.223	-0.02
275.437	0.02
275.652	0.02
275.866	0.01
276.081	0.02
276.295	0.06
276.509	0.09
276.724	0.03
276.938	0.01
277.153	0.07
277.367	0.09
277.581	-0
277.796	0.04
278.01	-0.01
278.224	0.08
278.438	0.15
278.653	-0.01
278.867	-0.01
279.081	-0.13
279.295	0.06
279.51	0.05
279.724	-0.05
279.938	0.07
280.152	0.01
280.366	-0.04
280.58	0.02
280.794	0.07
281.008	0.02
281.222	0.09
281.437	0.12
281.651	0.02
281.865	0.13
282.079	-0.04
282.293	-0.04
282.507	-0.02
282.721	-0.01
282.935	0.03
283.148	-0.03
283.362	0.03
283.576	-0.01
283.79	0.02
284.004	0.01
284.218	0.1
284.432	-0.03
284.646	0.04
284.859	0.01
285.073	-0.02
285.287	0.04
285.501	0.02
285.714	-0.01
285.928	0.02
286.142	0.03
286.356	0.02
286.569	0.01
286.783	0.1
286.997	0.04
287.21	-0
287.424	0.03
287.637	0
287.851	-0
288.065	0.04
288.278	0.01
288.492	0.04
288.705	0.03
288.919	0.07
289.132	-0.06
289.346	0.06
289.559	-0.04
289.773	-0.05
289.986	0.01
290.2	-0.03
290.413	0.07
290.626	-0.02
290.84	0
291.053	0.03
291.267	0.11
291.48	-0.02
291.693	0.03
291.906	-0.01
292.12	0
292.333	-0.08
292.546	0.01
292.76	0.17
292.973	0.07
293.186	0.08
293.399	-0.03
293.612	0.1
293.826	0.05
294.039	0.02
294.252	0.01
294.465	0.09
294.678	0.04
294.891	0.04
295.104	0.01
295.317	-0
295.53	0.03
295.743	-0.04
295.956	-0.02
296.169	0.07
296.382	0.07
296.595	0
296.808	-0.02
297.021	0.08
297.234	0.06
297.447	-0.02
297.66	0.02
297.873	0.09
298.086	0.03
298.299	-0.03
298.511	-0.04
298.724	0.02
298.937	0.01
299.15	-0
299.363	-0
299.575	0.03
299.788	0.04
300.001	-0.02
300.213	-0.02
300.426	-0
300.639	-0.01
300.852	-0.01
301.064	0.08
301.277	0.07
301.489	0.08
301.702	0.06
301.915	0.05
302.127	0.01
302.34	0.06
302.552	0.06
302.765	0
302.977	0.04
303.19	-0.02
303.402	0.02
303.615	0.01
303.827	0.01
304.04	0.01
304.252	0.07
304.464	0.01
304.677	0.11
304.889	0.09
305.102	-0.02
305.314	0
305.526	0.05
305.739	0.03
305.951	0
306.163	-0
306.375	0.09
306.588	-0.04
306.8	0.01
307.012	-0.05
307.224	0.04
307.436	0.12
307.649	-0.08
307.861	0.05
308.073	-0
308.285	0.01
308.497	-0.04
308.709	-0.02
308.921	0.02
309.133	0.08
309.346	-0
309.558	0.01
309.77	0.05
309.982	0.06
310.194	0.05
310.406	-0.04
310.617	0.1
310.829	0.06
311.041	0.07
311.253	0.04
311.465	0.02
311.677	-0
311.889	-0
312.101	-0.02
312.313	0.06
312.524	0.06
312.736	-0.03
312.948	0.02
313.16	0.1
313.372	0.06
313.583	0.03
313.795	0.04
314.007	-0.01
314.218	0.03
314.43	0.02
314.642	-0.05
314.853	-0.01
315.065	0.04
315.277	-0.01
315.488	-0
315.7	0.04
315.912	0.01
316.123	-0
316.335	0.01
316.546	0.13
316.758	0.02
316.969	-0
317.181	0.03
317.392	-0.01
317.604	0.05
317.815	-0.03
318.026	-0.02
318.238	-0.03
318.449	0.02
318.661	-0.06
318.872	-0.04
319.083	-0.03
319.295	0.06
319.506	-0.02
319.717	0.03
319.929	0.05
320.14	-0.01
320.351	0.02
320.562	-0.02
320.774	0.04
320.985	0
321.196	-0.03
321.407	-0.03
321.618	0.03
321.829	0.07
322.041	0.01
322.252	-0
322.463	0.03
322.674	0.05
322.885	-0.02
323.096	-0
323.307	0.02
323.518	0.04
323.729	-0.05
323.94	0.03
324.151	-0.01
324.362	0.03
324.573	-0.01
324.784	-0.02
324.995	0.05
325.206	0.02
325.417	-0.01
325.628	0.02
325.838	-0.01
326.049	0.04
326.26	0.06
326.471	0.01
326.682	0.04
326.892	0.02
327.103	-0.04
327.314	-0.03
327.525	0.07
327.735	-0
327.946	0.06
328.157	-0.03
328.368	0.03
328.578	0.01
328.789	0.01
328.999	0.01
329.21	0.03
329.421	0.02
329.631	-0.02
329.842	-0.03
330.052	0.04
330.263	0.07
330.473	0.04
330.684	0.01
330.894	0.01
331.105	0.02
331.315	0.06
331.526	-0.01
331.736	0.12
331.947	0.04
332.157	0.02
332.367	0.01
332.578	0.05
332.788	0.05
332.999	0.06
333.209	0.04
333.419	-0.03
333.629	0.04
333.84	0.06
334.05	0.03
334.26	0.07
334.47	0.03
334.681	0.01
334.891	-0.03
335.101	0.05
335.311	0.11
335.521	-0.02
335.732	-0.04
335.942	0.08
336.152	0.04
336.362	0.03
336.572	0.02
336.782	0.07
336.992	-0.01
337.202	-0.02
337.412	-0.01
337.622	0.07
337.832	0.01
338.042	0.02
338.252	-0.01
338.462	0.01
338.672	0.05
338.882	-0.04
339.092	-0.03
339.302	0.03
339.511	0.07
339.721	-0.06
339.931	-0.03
340.141	0.08
340.351	0.05
340.561	0.02
340.77	0.03
340.98	0.02
341.19	0.02
341.4	-0.04
341.609	-0.04
341.819	0.05
342.029	-0.01
342.238	0.03
342.448	0.02
342.658	0.05
342.867	-0
343.077	0.03
343.286	0.04
343.496	0.05
343.706	0.09
343.915	-0.07
344.125	0.02
344.334	0.06
344.544	-0.03
344.753	-0.02
344.963	-0.01
345.172	-0
345.381	-0.02
345.591	-0.02
345.8	0.03
346.01	0.07
346.219	0.07
346.428	-0.13
346.638	0.02
346.847	0.02
347.056	0.02
347.266	-0.02
347.475	0.01
347.684	0.04
347.893	-0
348.103	0.04
348.312	-0.01
348.521	-0.03
348.73	0.04
348.94	0.05
349.149	0.01
349.358	0
349.567	0.03
349.776	-0.03
349.985	-0.02
350.194	0.04
350.403	0.07
350.612	-0.02
350.821	-0.03
351.03	-0.01
351.239	-0.04
351.448	0.01
351.657	-0.03
351.866	0.12
352.075	-0.01
352.284	0.04
352.493	-0.06
352.702	0.09
352.911	0.03
353.12	0.01
353.329	-0.01
353.538	0.03
353.746	0.02
353.955	0.03
354.164	0.02
354.373	-0
354.582	0.03
354.79	0.01
354.999	0.06
355.208	0.02
355.416	0.07
355.625	-0.04
355.834	-0.02
356.042	0.02
356.251	-0.03
356.46	-0
356.668	0.04
356.877	0.04
357.085	0.03
357.294	-0.09
357.503	0.04
357.711	0
357.92	0.1
358.128	0.03
358.337	0.02
358.545	0.01
358.754	0.04
358.962	0.03
359.17	0.01
359.379	0.05
359.587	0.06
359.796	-0.03
360.004	0.02
360.212	0.04
360.421	0.04
360.629	0.05
360.837	-0
361.046	0.03
361.254	0.09
361.462	0.05
361.67	-0.01
361.879	0.03
362.087	0.06
362.295	0.04
362.503	-0.03
362.711	0.01
362.92	-0.02
363.128	-0.02
363.336	-0.02
363.544	-0.04
363.752	0
363.96	0.01
364.168	-0.02
364.376	0.07
364.584	0.01
364.792	0.03
365	0.02
365.208	0.02
365.416	0.04
365.624	0.03
365.832	0
366.04	0.09
366.248	0.02
366.456	0.06
366.664	0.02
366.872	0.05
367.079	-0.02
367.287	0.05
367.495	0.02
367.703	0.02
367.911	-0
368.118	0.02
368.326	0.02
368.534	-0.01
368.742	0.07
368.949	-0.07
369.157	-0.01
369.365	0.05
369.572	0.01
369.78	-0.01
369.988	0.02
370.195	0.07
370.403	-0
370.61	0.02
370.818	0.04
371.026	0.02
371.233	-0.05
371.441	0.01
371.648	-0.01
371.856	0.01
372.063	0.03
372.271	-0.02
372.478	-0.03
372.685	0.01
372.893	0.02
373.1	-0.01
373.308	-0.04
373.515	0.05
373.722	0.04
373.93	-0.02
374.137	0.01
374.344	0.1
374.552	0.08
374.759	0.01
374.966	0.04
375.173	0.01
375.381	0.06
375.588	-0.04
375.795	-0.05
376.002	0.03
376.209	-0.02
376.417	-0.02
376.624	-0.01
376.831	0.03
377.038	0.02
377.245	-0.05
377.452	-0.01
377.659	0.03
377.866	-0.02
378.073	-0.03
378.28	0.03
378.487	0.04
378.694	0.04
378.901	-0
379.108	-0.02
379.315	0.04
379.522	0.09
379.729	0.02
379.936	0.01
380.143	0.01
380.35	0.02
380.557	-0.03
380.763	0.01
380.97	-0
381.177	0
381.384	0.06
381.591	-0.01
381.797	0.03
382.004	0.04
382.211	0.04
382.418	0.01
382.624	0.07
382.831	0.06
383.038	-0
383.244	-0
383.451	0
383.658	0.04
383.864	-0.01
384.071	-0
384.277	0.1
384.484	-0.06
384.69	0.06
384.897	-0.04
385.103	0.02
385.31	-0.05
385.516	0.01
385.723	-0.04
385.929	0.01
386.136	-0.03
386.342	0.06
386.549	-0
386.755	0.08
386.961	0.04
387.168	-0.02
387.374	0.01
387.58	0.05
387.787	0.03
387.993	0.04
388.199	0.04
388.406	-0.01
388.612	0.05
388.818	0
389.024	-0.02
389.231	-0.01
389.437	0.07
389.643	0.05
389.849	-0
390.055	0.04
390.261	0.01
390.467	0.03
390.674	0.01
390.88	0.02
391.086	0.05
391.292	-0.07
391.498	0.05
391.704	0.02
391.91	-0.01
392.116	0.01
392.322	-0.07
392.528	0.01
392.734	0.02
392.94	0.05
393.146	-0.01
393.352	0.04
393.557	-0.04
393.763	-0.01
393.969	0.04
394.175	0.01
394.381	0.03
394.587	-0.01
394.792	0.03
394.998	0.07
395.204	0.09
395.41	-0.04
395.615	0.06
395.821	0.02
396.027	0.06
396.233	-0.05
396.438	0.07
396.644	0.09
396.85	0.07
397.055	-0
397.261	0.02
397.466	-0.01
397.672	0.03
397.878	0.05
398.083	0.03
398.289	-0.03
398.494	0.08
398.7	0.03
398.905	-0.06
399.111	0.08
399.316	-0.01
399.522	0.04
399.727	-0.01
399.932	0.01
400.138	-0
400.343	0.04
400.549	0.03
400.754	0.01
400.959	0.05
401.165	0
401.37	0.03
401.575	-0
401.78	0.04
401.986	0.02
402.191	-0.01
402.396	0.02
402.601	0.03
402.807	0
403.012	0.02
403.217	0.09
403.422	0.03
403.627	0.04
403.832	0
404.037	0.05
404.243	0
404.448	0.02
404.653	0.05
404.858	0.03
405.063	0.03
405.268	-0
405.473	-0.02
405.678	-0
405.883	0.1
406.088	-0
406.293	-0.05
406.498	-0.02
406.703	0.02
406.907	0.01
407.112	-0.05
407.317	0.04
407.522	0.03
407.727	-0.06
407.932	0.02
408.136	0.08
408.341	-0.03
408.546	0.03
408.751	0.03
408.956	0
409.16	0.07
409.365	0.04
409.57	0.01
409.774	-0
409.979	0.07
410.184	0.02
410.388	-0.06
410.593	0.09
410.798	-0.02
411.002	-0.02
411.207	0
411.411	0.02
411.616	0
411.82	-0.02
412.025	0.07
412.229	-0.01
412.434	0.06
412.638	-0.02
412.843	0.01
413.047	0.03
413.252	0
413.456	0.02
413.66	0.02
413.865	-0.06
414.069	0.09
414.273	-0.05
414.478	0.01
414.682	0.01
414.886	-0.01
415.091	-0.04
415.295	-0.09
415.499	-0.01
415.703	0.01
415.908	0.02
416.112	-0.05
416.316	0.03
416.52	-0.01
416.724	-0.04
416.929	-0.03
417.133	0.07
417.337	0
417.541	-0.01
417.745	-0.06
417.949	0.04
418.153	0.01
418.357	-0.02
418.561	0.01
418.765	-0
418.969	0.1
419.173	0.04
419.377	-0.06
419.581	0.11
419.785	-0.03
419.989	-0.02
420.193	-0
420.397	-0.04
420.601	0.05
420.804	0.07
421.008	0.02
421.212	0.01
421.416	0.04
421.62	-0
421.823	0.02
422.027	0.08
422.231	0.05
422.435	-0
422.638	0.01
422.842	-0.01
423.046	-0.02
423.249	-0.01
423.453	0.03
423.657	-0.01
423.86	-0.07
424.064	0.04
424.268	0.06
424.471	-0
424.675	0.08
424.878	0.09
425.082	-0.02
425.285	0.02
425.489	-0.02
425.692	0.03
425.896	-0.01
426.099	0.09
426.303	-0.02
426.506	-0.07
426.71	0.04
426.913	0.04
427.116	0.05
427.32	-0.01
427.523	-0.01
427.726	0.1
427.93	-0.05
428.133	0.01
428.336	-0.01
428.54	-0.06
428.743	0.06
428.946	0.02
429.149	-0.02
429.353	0.02
429.556	0.01
429.759	0.01
429.962	-0.04
430.165	0.01
430.368	-0
430.571	-0.03
430.775	0.06
430.978	0.01
431.181	-0.01
431.384	-0
431.587	-0
431.79	-0.06
431.993	-0.07
432.196	0.02
432.399	-0.01
432.602	0.07
432.805	-0
433.008	-0.02
433.211	-0.07
433.414	-0.01
433.616	-0.01
433.819	-0.04
434.022	-0.12
434.225	0.06
434.428	0
434.631	0.08
434.833	0.01
435.036	-0.02
435.239	0.02
435.442	0.03
435.645	0.01
435.847	-0.02
436.05	0.07
436.253	0.03
436.455	-0.01
436.658	-0.01
436.861	0.11
437.063	-0.04
437.266	-0.01
437.468	0.02
437.671	0.1
437.874	0.03
438.076	-0.07
438.279	-0.06
438.481	-0.01
438.684	-0.01
438.886	-0.01
439.089	-0.04
439.291	-0.04
439.494	0.01
439.696	-0.01
439.899	-0.03
440.101	-0
440.303	-0.06
440.506	0.02
440.708	0.01
440.91	0.01
441.113	-0.05
441.315	0.05
441.517	-0.04
441.72	0.06
441.922	-0.01
442.124	-0.04
442.326	0.01
442.529	0.1
442.731	-0.01
442.933	0.07
443.135	0.03
443.337	-0.02
443.539	-0.02
443.742	-0.01
443.944	0.03
444.146	-0.03
444.348	-0.04
444.55	-0.08
444.752	-0.05
444.954	-0.01
445.156	0.02
445.358	-0.03
445.56	0.06
445.762	-0.02
445.964	0.05
446.166	0.01
446.368	-0.02
446.57	0.07
446.772	0.01
446.974	-0.03
447.175	0.02
447.377	-0.05
447.579	-0.02
447.781	-0.08
447.983	0.06
448.184	-0.01
448.386	0.02
448.588	-0.07
448.79	0.01
448.991	-0.03
449.193	-0
449.395	0.04
449.597	-0.02
449.798	-0
450	0.03
450.202	-0.01
450.403	0
450.605	0.02
450.806	-0.04
451.008	-0.09
451.21	0.01
451.411	0.02
451.613	-0.02
451.814	0.03
452.016	0.06
452.217	0.03
452.419	0.06
452.62	0.03
452.821	-0
453.023	0.1
453.224	0.03
453.426	-0.03
453.627	0.02
453.828	0.01
454.03	-0.01
454.231	0.01
454.432	-0.04
454.634	0.08
454.835	-0.05
455.036	-0.06
455.238	0.05
455.439	0.07
455.64	-0.04
455.841	-0.01
456.042	0.14
456.244	0.05
456.445	-0.06
456.646	-0.08
456.847	-0.07
457.048	0.02
457.249	0.05
457.45	0.22
457.651	-0.01
457.852	0.08
458.054	0
458.255	-0.02
458.456	0.01
458.657	-0.05
458.858	-0.07
459.058	-0
459.259	0.03
459.46	-0.01
459.661	-0.07
459.862	0.12
460.063	-0.02
460.264	0.03
460.465	-0.07
460.666	0.12
460.866	0.05
461.067	-0
461.268	-0.01
461.469	0
461.67	0.02
461.87	-0.02
462.071	-0.03
462.272	-0.03
462.473	0.03
462.673	0.01
462.874	-0.03
463.075	0
463.275	-0.09
463.476	0.03
463.676	0.02
463.877	0.05
464.078	-0
464.278	-0
464.479	0.03
464.679	0.01
464.88	-0.02
465.08	0.03
465.281	-0.02
465.481	-0.02
465.682	-0.01
465.882	0
466.083	-0.01
466.283	-0.03
466.483	0
466.684	-0.03
466.884	-0.02
467.085	-0.03
467.285	0.04
467.485	-0.01
467.686	-0.04
467.886	-0.07
468.086	0
468.286	0.04
468.487	-0.01
468.687	-0.05
468.887	0.01
469.087	0.03
469.287	-0.01
469.488	-0.08
469.688	0.01
469.888	0.04
470.088	0.05
470.288	0.06
470.488	0.07
470.688	-0.02
470.888	-0.02
471.088	-0.02
471.288	0.02
471.488	0.03
471.688	-0.01
471.888	-0.04
472.088	0.03
472.288	0.02
472.488	-0.07
472.688	-0.02
472.888	-0.01
473.088	0.02
473.288	-0.01
473.488	-0.01
473.688	0.06
473.887	-0.01
474.087	-0.01
474.287	0.03
474.487	-0.04
474.687	0.05
474.886	-0.01
475.086	0.01
475.286	0.01
475.486	-0.01
475.685	0.01
475.885	-0.02
476.085	-0.04
476.284	0.03
476.484	-0.02
476.684	0.05
476.883	0.04
477.083	0.05
477.282	0.01
477.482	0.07
477.681	0.05
477.881	0.01
478.08	0.01
478.28	-0.02
478.479	0.03
478.679	0.08
478.878	0.01
479.078	-0.01
479.277	0.01
479.477	-0.01
479.676	0.04
479.875	-0
480.075	-0.04
480.274	0.02
480.473	0.03
480.673	-0.02
480.872	0.02
481.071	0.02
481.271	0.03
481.47	-0.02
481.669	-0.01
481.868	-0.02
482.067	-0.01
482.267	-0.03
482.466	-0.04
482.665	-0.04
482.864	-0.02
483.063	-0.04
483.262	0.01
483.461	0.04
483.661	0.03
483.86	-0.01
484.059	0.04
484.258	-0
484.457	0
484.656	0
484.855	0.02
485.054	-0.03
485.253	-0.03
485.452	-0.02
485.651	-0
485.849	-0.02
486.048	-0.03
486.247	-0.04
486.446	0.03
486.645	-0.03
486.844	-0.01
487.043	-0.02
487.241	0.02
487.44	-0.02
487.639	-0.02
487.838	0.02
488.037	0.01
488.235	0.03
488.434	0.02
488.633	-0.03
488.831	0.02
489.03	0.01
489.229	0
489.427	0.01
489.626	0.03
489.825	0.08
490.023	0.01
490.222	-0.02
490.42	0.01
490.619	0.03
490.817	0.01
491.016	0
491.214	0.01
491.413	0
491.611	-0.01
491.81	0
492.008	0.05
492.207	0.03
492.405	-0.02
492.604	-0.02
492.802	-0.01
493	0.04
493.199	-0.01
493.397	-0
493.595	0.02
493.794	-0.01
493.992	0.03
494.19	0.02
494.388	0.02
494.587	-0.01
494.785	0.01
494.983	-0.03
495.181	0.02
495.379	0.01
495.578	0.01
495.776	0.02
495.974	0.02
496.172	-0.01
496.37	-0.01
496.568	-0.03
496.766	-0.03
496.964	0.02
497.162	0.01
497.36	-0.02
497.558	0.01
497.756	0.03
497.954	0.01
498.152	-0.03
498.35	0
498.548	-0.02
498.746	0.01
498.944	-0.01
499.142	-0.01
499.34	-0.03
499.538	-0.02
499.736	-0.03
499.933	0.04
500.131	0.04
500.329	-0.02
500.527	0.03
500.725	0.02
500.922	0.01
501.12	0.02
501.318	0
501.516	-0.01
501.713	0
501.911	-0.01
502.109	-0.03
502.306	0.01
502.504	0
502.701	-0.01
502.899	0
503.097	0.06
503.294	-0
503.492	0
503.689	0.01
503.887	0.02
504.084	0.04
504.282	-0.01
504.479	-0.02
504.677	-0
504.874	-0.05
505.072	0.02
505.269	-0.01
505.466	0.02
505.664	0.01
505.861	-0.04
506.059	-0.03
506.256	0.03
506.453	-0.01
506.651	0.03
506.848	0.02
507.045	0.03
507.242	0.02
507.44	-0.01
507.637	0.02
507.834	0
508.031	0.02
508.229	-0.04
508.426	0
508.623	0.03
508.82	-0
509.017	-0.01
509.214	-0.01
509.411	0.02
509.608	-0.02
509.805	-0.01
510.003	-0.02
510.2	-0.01
510.397	0.05
510.594	0
510.791	-0.01
510.988	0.02
511.184	0.01
511.381	-0
511.578	-0.03
511.775	0.01
511.972	-0.01
512.169	-0.01
512.366	-0
512.563	0.01
512.76	0.01
512.956	0.01
513.153	-0.01
513.35	0.04
513.547	-0
513.744	-0.03
513.94	-0.04
514.137	0.02
514.334	-0.01
514.53	-0
514.727	0.01
514.924	0.03
515.12	-0
515.317	-0.05
515.514	-0
515.71	-0.05
515.907	0
516.103	-0.02
516.3	-0
516.497	0.04
516.693	0.04
516.89	-0
517.086	-0.02
517.283	0.07
517.479	0.01
517.676	0
517.872	0
518.068	-0
518.265	-0.01
518.461	-0.02
518.658	-0.02
518.854	-0.01
519.05	-0.01
519.247	0.01
519.443	0.01
519.639	-0.01
519.836	0.02
520.032	-0
520.228	0
520.424	0.06
520.621	0.01
520.817	0
521.013	0.02
521.209	0.02
521.405	0.06
521.601	0
521.798	0.01
521.994	0.02
522.19	-0.02
522.386	-0.04
522.582	0
522.778	0.01
522.974	-0
523.17	-0.01
523.366	-0
523.562	0.02
523.758	-0
523.954	-0.03
524.15	-0.02
524.346	0.05
524.542	-0
524.738	-0.02
524.934	-0.02
525.129	-0.04
525.325	0.01
525.521	-0.01
525.717	0.03
525.913	-0.02
526.109	-0
526.304	0.02
526.5	-0.02
526.696	0.02
526.892	0
527.087	0
527.283	-0.02
527.479	-0
527.674	-0
527.87	-0
528.066	0.01
528.261	0.02
528.457	0.01
528.653	0
528.848	-0.01
529.044	0.01
529.239	0.01
529.435	0.04
529.63	0
529.826	0.04
530.021	0
530.217	0.01
530.412	-0
530.608	-0.03
530.803	0
530.999	0
531.194	-0.05
531.389	0.01
531.585	-0.04
531.78	0.02
531.975	0
532.171	0.03
532.366	-0
532.561	-0
532.757	-0.01
532.952	-0.02
533.147	0.01
533.342	0
533.538	-0.02
533.733	0.03
533.928	-0.02
534.123	-0
534.318	-0.02
534.513	0.01
534.709	0
534.904	-0.02
535.099	-0.01
535.294	0
535.489	-0.01
535.684	-0.02
535.879	-0.02
536.074	0
536.269	-0.04
536.464	0.02
536.659	0.01
536.854	-0.01
537.049	0.01
537.244	0.01
537.439	-0.01
537.634	0.03
537.828	0.02
538.023	-0.02
538.218	-0.04
538.413	-0.01
538.608	-0.03
538.803	0.02
538.997	-0.04
539.192	0.02
539.387	0.01
539.582	0.03
539.776	0.01
539.971	-0.02
540.166	0.01
540.36	-0.02
540.555	0
540.75	-0
540.944	0
541.139	-0.02
541.334	-0.02
541.528	0.01
541.723	0.02
541.917	-0.02
542.112	-0.06
542.306	-0.02
542.501	-0.02
542.695	0.01
542.89	-0.01
543.084	-0
543.279	-0
543.473	0
543.668	-0.01
543.862	-0
544.056	0.01
544.251	-0.02
544.445	-0.01
544.64	-0
544.834	-0.04
545.028	-0
545.222	0.01
545.417	0.03
545.611	0.01
545.805	0.01
546	-0.01
546.194	-0.01
546.388	-0.01
546.582	0.02
546.776	-0.01
546.97	0.01
547.165	0.02
547.359	0.02
547.553	-0.02
547.747	-0.01
547.941	0.02
548.135	-0
548.329	0.02
548.523	0.01
548.717	-0.02
548.911	-0.02
549.105	-0.01
549.299	-0.01
549.493	0
549.687	0.01
549.881	0.02
550.075	-0.01
550.269	-0.03
550.463	0
550.657	-0.03
550.85	-0.01
551.044	-0.02
551.238	0
551.432	0
551.626	-0.04
551.82	0.01
552.013	-0.04
552.207	0.01
552.401	0.01
552.594	0.01
552.788	-0.01
552.982	0.02
553.176	-0.01
553.369	0.02
553.563	-0
553.756	-0.03
553.95	-0.02
554.144	-0.01
554.337	0.01
554.531	-0
554.724	0
554.918	0.01
555.111	0.01
555.305	-0.02
555.498	0.05
555.692	0.01
555.885	-0.01
556.079	0.02
556.272	-0
556.466	0.05
556.659	0.01
556.852	-0.01
557.046	-0.02
557.239	0.04
557.432	-0.03
557.626	-0.01
557.819	-0.01
558.012	0.02
558.206	0.01
558.399	-0.01
558.592	-0.02
558.785	0
558.979	0.02
559.172	0
559.365	0
559.558	0.01
559.751	-0
559.944	0.03
560.138	0.01
560.331	-0
560.524	-0.02
560.717	0.01
560.91	-0
561.103	0.04
561.296	0
561.489	0.02
561.682	0
561.875	0.01
562.068	0.02
562.261	0.03
562.454	0.04
562.647	0
562.84	0.02
563.032	-0.01
563.225	0
563.418	-0.01
563.611	-0
563.804	-0
563.997	-0.02
564.19	-0.04
564.382	-0.06
564.575	0.01
564.768	-0.02
564.961	0
565.153	-0.02
565.346	0.03
565.539	0.02
565.731	0.05
565.924	0.05
566.117	0.01
566.309	-0.02
566.502	-0.02
566.695	-0.02
566.887	0
567.08	-0.01
567.272	-0.01
567.465	-0
567.657	0.03
567.85	0.01
568.042	0.02
568.235	0.05
568.427	0.01
568.62	-0.01
568.812	0
569.005	-0.02
569.197	-0.04
569.389	0
569.582	-0.01
569.774	0.02
569.966	-0.05
570.159	-0.01
570.351	0.02
570.543	0.01
570.736	-0.01
570.928	-0.01
571.12	0
571.312	-0.03
571.505	-0.04
571.697	0.04
571.889	-0.03
572.081	-0.02
572.273	-0.01
572.465	0.04
572.658	0.01
572.85	0.02
573.042	-0.01
573.234	-0.01
573.426	0.03
573.618	-0.03
573.81	0.01
574.002	0.02
574.194	0.04
574.386	-0.02
574.578	-0.05
574.77	-0.02
574.962	0.01
575.154	-0.05
575.346	-0.01
575.538	-0.01
575.729	-0.01
575.921	-0
576.113	-0.01
576.305	0.03
576.497	-0.03
576.689	-0.01
576.88	-0.01
577.072	0.01
577.264	-0.03
577.456	-0.02
577.647	-0.09
577.839	0.01
578.031	0.03
578.223	-0.03
578.414	-0.02
578.606	0.01
578.798	0.01
578.989	-0.02
579.181	-0.01
579.372	0.01
579.564	-0
579.755	0.02
579.947	-0.01
580.139	-0.01
580.33	-0.06
580.522	-0.02
580.713	-0.07
580.905	0.01
581.096	0.02
581.287	0
581.479	-0.02
581.67	0
581.862	0
582.053	-0.02
582.244	-0.03
582.436	-0.01
582.627	-0.02
582.818	-0.02
583.01	-0.03
583.201	0.02
583.392	0.03
583.583	-0.01
583.775	-0.02
583.966	-0.01
584.157	-0.01
584.348	-0
584.54	-0.04
584.731	0.03
584.922	-0.01
585.113	-0.03
585.304	0
585.495	0.02
585.686	-0
585.877	0.02
586.068	0
586.259	0.01
586.45	0
586.641	-0.03
586.832	-0.05
587.023	0
587.214	-0.02
587.405	0.01
587.596	-0.02
587.787	0.01
587.978	0
588.169	-0.01
588.36	-0.03
588.551	0.01
588.742	-0.02
588.932	0.01
589.123	-0.01
589.314	0.03
589.505	0.03
589.696	0.01
589.886	-0.03
590.077	-0.04
590.268	0.02
590.458	-0.04
590.649	-0.02
590.84	0.02
591.03	-0.03
591.221	-0.04
591.412	-0.04
591.602	0.02
591.793	0.04
591.984	-0.03
592.174	-0
592.365	0.03
592.555	-0.02
592.746	0.01
592.936	0.02
593.127	0
593.317	0.02
593.508	-0.02
593.698	-0.03
593.889	0.03
594.079	-0
594.269	-0.01
594.46	0
594.65	-0
594.84	0.03
595.031	-0.02
595.221	-0.01
595.411	-0.07
595.602	0.01
595.792	-0.01
595.982	-0.01
596.172	0.04
596.363	-0.01
596.553	0.01
596.743	0
596.933	-0.01
597.123	0.04
597.314	-0.03
597.504	-0.03
597.694	0.01
597.884	0
598.074	-0.01
598.264	-0.02
598.454	0.02
598.644	-0
598.834	0.01
599.024	-0.06
599.214	-0.01
599.404	0.05
599.594	-0.02
599.784	-0.04
599.974	0.02
600.164	0.03
600.354	-0.05
600.544	-0.06
600.734	-0
600.924	0.05
601.114	-0.01
601.303	-0.01
601.493	0.01
601.683	-0
601.873	-0.02
602.063	-0.05
602.252	0
602.442	-0.04
602.632	-0.03
602.821	-0.04
603.011	0.01
603.201	-0.02
603.39	-0.01
603.58	-0.05
603.77	-0.01
603.959	0.03
604.149	0.01
604.339	-0.02
604.528	0.05
604.718	0.01
604.907	-0
605.097	-0.03
605.286	-0.04
605.476	0.05
605.665	0.01
605.855	-0.01
606.044	0.07
606.234	0
606.423	-0.02
606.612	-0.03
606.802	0.03
606.991	-0
607.181	0.03
607.37	-0.04
607.559	-0.01
607.749	-0.04
607.938	-0.03
608.127	-0.04
608.316	-0.02
608.506	0.02
608.695	0.01
608.884	-0.02
609.073	-0
609.263	-0.01
609.452	0.02
609.641	0.02
609.83	-0.03
610.019	0
610.208	-0.04
610.397	-0
610.586	0
610.775	-0.03
610.965	0
611.154	-0.02
611.343	0.02
611.532	-0.02
611.721	-0.04
611.91	-0.03
612.099	0.02
612.287	-0.01
612.476	-0.04
612.665	0.02
612.854	-0.02
613.043	0.02
613.232	-0.02
613.421	-0.03
613.61	0
613.798	-0.02
613.987	0.02
614.176	-0.01
614.365	0.02
614.554	-0.01
614.742	0.01
614.931	0.01
615.12	0.03
615.309	-0.03
615.497	-0.01
615.686	-0.04
615.875	-0
616.063	-0.01
616.252	-0.02
616.44	0
616.629	-0.02
616.818	0.02
617.006	-0.01
617.195	-0.01
617.383	0.02
617.572	-0.01
617.76	0
617.949	0.01
618.137	-0.01
618.326	0.04
618.514	-0.05
618.703	-0.04
618.891	0.07
619.079	-0.03
619.268	0.01
619.456	-0.01
619.644	0.05
619.833	0.02
620.021	-0.01
620.209	-0.01
620.398	0.02
620.586	-0.01
620.774	0.02
620.962	-0.01
621.151	0.04
621.339	-0.01
621.527	-0.04
621.715	-0.05
621.903	-0.04
622.092	-0.05
622.28	-0
622.468	0
622.656	-0.03
622.844	0.02
623.032	-0.03
623.22	-0.03
623.408	0.02
623.596	-0.01
623.784	0.04
623.972	-0.04
624.16	-0.02
624.348	0.06
624.536	-0.05
624.724	0.01
624.912	0.03
625.1	0.03
625.288	0.02
625.476	-0.02
625.664	0.04
625.851	-0.04
626.039	-0.05
626.227	-0.01
626.415	-0
626.603	-0.07
626.79	0.01
626.978	0.01
627.166	0.01
627.354	0.03
627.541	-0.02
627.729	-0.08
627.917	-0
628.104	0.03
628.292	0
628.48	0.01
628.667	0.01
628.855	0.01
629.042	0.02
629.23	0.01
629.418	-0
629.605	-0.02
629.793	-0.02
629.98	-0.01
630.168	-0
630.355	0.01
630.543	0
630.73	-0.03
630.917	0.03
631.105	0.05
631.292	-0.01
631.48	-0.01
631.667	0.06
631.854	0.03
632.042	-0.04
632.229	-0.05
632.416	-0
632.604	-0.01
632.791	-0.02
632.978	0.01
633.165	0.03
633.353	0.06
633.54	0.01
633.727	-0.05
633.914	-0.03
634.101	-0.08
634.289	0.05
634.476	-0.02
634.663	-0
634.85	0.01
635.037	-0.05
635.224	-0.05
635.411	0.01
635.598	0.02
635.785	-0.01
635.972	-0
636.159	0.01
636.346	-0.01
636.533	-0
636.72	-0.02
636.907	-0
637.094	0.02
637.281	-0.02
637.468	0.02
637.655	0
637.842	0.01
638.029	-0.01
638.215	0.01
638.402	0.02
638.589	0
638.776	0.02
638.963	-0.05
639.149	0.03
639.336	0.07
639.523	-0.01
639.709	-0.01
639.896	-0.01
640.083	0.05
640.27	0.02
640.456	0.01
640.643	0.04
640.829	-0.01
641.016	-0.03
641.203	-0.04
641.389	0.04
641.576	0.02
641.762	0.01
641.949	-0.03
642.135	0.04
642.322	0
642.508	-0.02
642.695	0.02
642.881	-0.03
643.068	0
643.254	-0
643.441	0.05
643.627	-0.02
643.813	-0.03
644	0.03
644.186	-0.03
644.372	-0.06
644.559	0.05
644.745	-0.05
644.931	-0
645.118	-0.01
645.304	-0.02
645.49	-0.05
645.676	-0.03
645.862	0.01
646.049	0.05
646.235	0.02
646.421	0.08
646.607	0.05
646.793	-0.02
646.979	-0.01
647.165	0.03
647.352	-0
647.538	0.06
647.724	-0.01
647.91	0.02
648.096	0.02
648.282	0.03
648.468	0
648.654	0.02
648.84	0.04
649.026	-0.02
649.212	0.01
649.397	-0.03
649.583	-0.04
649.769	0.01
649.955	-0.01
650.141	0.02
650.327	0.05
650.513	-0.01
650.698	-0
650.884	-0.06
651.07	0.02
651.256	0.02
651.442	0.01
651.627	-0.01
651.813	-0.01
651.999	0.03
652.184	0.03
652.37	0.02
652.556	-0.02
652.741	0.04
652.927	-0.05
653.113	0.03
653.298	-0
653.484	-0.02
653.669	-0.02
653.855	0.01
654.04	0.03
654.226	0.02
654.412	0.01
654.597	-0.05
654.782	0.05
654.968	0.04
655.153	0.02
655.339	-0.01
655.524	-0.06
655.71	0.06
655.895	0.02
656.08	0.01
656.266	0.04
656.451	0.03
656.636	-0.01
656.822	0
657.007	-0.04
657.192	0
657.378	-0.02
657.563	0.04
657.748	0.04
657.933	0.01
658.118	0
658.304	0.01
658.489	0.06
658.674	0
658.859	-0.01
659.044	-0.01
659.229	0.01
659.414	0.02
659.599	0.04
659.785	-0.02
659.97	-0.01
660.155	0.04
660.34	0.04
660.525	0.01
660.71	0.01
660.895	0.07
661.08	0.02
661.264	0.01
661.449	0.08
661.634	0.09
661.819	0.05
662.004	0.06
662.189	-0.02
662.374	0.01
662.559	0.02
662.743	-0.02
662.928	0.02
663.113	0.01
663.298	-0.02
663.483	0.02
663.667	0.07
663.852	-0.04
664.037	0.08
664.221	0.01
664.406	0.08
664.591	0.04
664.775	0.02
664.96	0.01
665.145	0.04
665.329	0.07
665.514	-0
665.698	0.01
665.883	-0.02
666.068	0.08
666.252	0.02
666.437	0.02
666.621	0.06
666.806	0.08
666.99	0.05
667.174	-0.02
667.359	0.09
667.543	0.01
667.728	0.03
667.912	-0.01
668.096	0.07
668.281	0.03
668.465	0
668.649	0.04
668.834	0.01
669.018	0.04
669.202	0.06
669.387	0.04
669.571	0.12
669.755	0.01
669.939	0.06
670.124	0.05
670.308	0.16
670.492	0.1
670.676	0.08
670.86	0.06
671.044	0.05
671.228	0.11
671.413	0.03
671.597	0.04
671.781	0.02
671.965	0.12
672.149	0.06
672.333	0.07
672.517	0.04
672.701	0.1
672.885	0.01
673.069	0
673.253	0.08
673.437	0.06
673.621	0.02
673.804	0.04
673.988	0.09
674.172	0.06
674.356	0
674.54	0.03
674.724	0.16
674.908	0.03
675.091	0.06
675.275	0.06
675.459	0.1
675.643	0.12
675.826	0.12
676.01	0.05
676.194	0.08
676.377	0.11
676.561	0.1
676.745	0.09
676.928	0.14
677.112	0.18
677.296	0.09
677.479	0.06
677.663	0.08
677.846	0.11
678.03	0.06
678.213	0.11
678.397	0.13
678.58	0.04
678.764	0.07
678.947	0.05
679.131	0.04
679.314	0.18
679.498	0.1
679.681	0.2
679.865	0.18
680.048	0.15
680.231	0.1
680.415	0.13
680.598	0.12
680.781	0.13
680.965	0.11
681.148	0.14
681.331	0.09
681.514	0.18
681.698	0.1
681.881	0.17
682.064	0.15
682.247	0.19
682.43	0.09
682.614	0.17
682.797	0.15
682.98	0.12
683.163	0.11
683.346	0.17
683.529	0.13
683.712	0.12
683.895	0.22
684.078	0.11
684.261	0.17
684.444	0.19
684.627	0.19
684.81	0.18
684.993	0.22
685.176	0.2
685.359	0.15
685.542	0.2
685.725	0.23
685.908	0.21
686.091	0.17
686.274	0.24
686.457	0.26
686.639	0.21
686.822	0.27
687.005	0.22
687.188	0.3
687.371	0.35
687.553	0.34
687.736	0.23
687.919	0.33
688.102	0.32
688.284	0.23
688.467	0.32
688.65	0.19
688.832	0.24
689.015	0.27
689.197	0.21
689.38	0.39
689.563	0.38
689.745	0.24
689.928	0.29
690.11	0.27
690.293	0.28
690.475	0.23
690.658	0.35
690.84	0.28
691.023	0.32
691.205	0.3
691.388	0.34
691.57	0.39
691.752	0.38
691.935	0.32
692.117	0.32
692.3	0.34
692.482	0.38
692.664	0.35
692.847	0.39
693.029	0.44
693.211	0.46
693.393	0.42
693.576	0.4
693.758	0.46
693.94	0.44
694.122	0.35
694.304	0.38
694.487	0.43
694.669	0.54
694.851	0.46
695.033	0.48
695.215	0.47
695.397	0.43
695.579	0.51
695.761	0.46
695.943	0.39
696.125	0.53
696.308	0.55
696.49	0.47
696.671	0.65
696.853	0.53
697.035	0.69
697.217	0.54
697.399	0.66
697.581	0.55
697.763	0.62
697.945	0.54
698.127	0.64
698.309	0.61
698.491	0.65
698.672	0.65
698.854	0.7
699.036	0.75
699.218	0.66
699.399	0.75
699.581	0.75
699.763	0.76
699.945	0.67
700.126	0.66
700.308	0.75
700.49	0.71
700.671	0.74
700.853	0.76
701.035	0.83
701.216	0.79
701.398	0.77
701.579	0.77
701.761	0.92
701.943	0.83
702.124	0.86
702.306	0.85
702.487	1.09
702.669	0.88
702.85	0.99
703.031	0.89
703.213	1.08
703.394	1.01
703.576	0.94
703.757	1.14
703.938	1.05
704.12	1.24
704.301	1.05
704.483	1.03
704.664	1.19
704.845	1.28
705.026	1.16
705.208	1.13
705.389	1.15
705.57	1.19
705.751	1.26
705.933	1.28
706.114	1.34
706.295	1.32
706.476	1.28
706.657	1.41
706.838	1.36
707.02	1.44
707.201	1.38
707.382	1.44
707.563	1.49
707.744	1.41
707.925	1.4
708.106	1.46
708.287	1.53
708.468	1.65
708.649	1.68
708.83	1.67
709.011	1.62
709.192	1.69
709.373	1.64
709.554	1.68
709.734	1.83
709.915	1.78
710.096	1.77
710.277	1.72
710.458	1.89
710.639	1.96
710.819	1.79
711	1.86
711.181	1.99
711.362	1.94
711.542	2.13
711.723	2.13
711.904	2.17
712.085	2.18
712.265	2.13
712.446	2.15
712.627	2.29
712.807	2.28
712.988	2.33
713.168	2.3
713.349	2.41
713.53	2.28
713.71	2.39
713.891	2.42
714.071	2.51
714.252	2.58
714.432	2.65
714.613	2.58
714.793	2.71
714.974	2.8
715.154	2.85
715.334	2.9
715.515	2.98
715.695	2.8
715.876	3.01
716.056	2.98
716.236	3.01
716.417	3.2
716.597	3.17
716.777	3.38
716.957	3.23
717.138	3.3
717.318	3.35
717.498	3.26
717.678	3.53
717.859	3.6
718.039	3.46
718.219	3.67
718.399	3.63
718.579	3.72
718.759	3.85
718.939	3.97
719.12	3.9
719.3	4.01
719.48	3.95
719.66	4.04
719.84	4.23
720.02	4.27
720.2	4.22
720.38	4.43
720.56	4.6
720.74	4.56
720.92	4.7
721.1	4.85
721.279	4.8
721.459	4.79
721.639	4.79
721.819	5.01
721.999	5.11
722.179	5.17
722.359	4.96
722.538	5.33
722.718	5.35
722.898	5.46
723.078	5.58
723.257	5.54
723.437	5.7
723.617	5.82
723.797	5.76
723.976	5.91
724.156	6.22
724.336	6.14
724.515	6.44
724.695	6.21
724.874	6.4
725.054	6.58
725.234	6.48
725.413	6.61
725.593	6.58
725.772	6.59
725.952	6.83
726.131	6.88
726.311	7.08
726.49	7.04
726.67	7.1
726.849	7.27
727.028	7.31
727.208	7.32
727.387	7.6
727.567	7.62
727.746	7.65
727.925	7.77
728.105	7.85
728.284	7.99
728.463	7.72
728.643	8.12
728.822	8.14
729.001	8.24
729.18	8.53
729.359	8.75
729.539	8.82
729.718	8.72
729.897	8.71
730.076	8.78
730.255	8.86
730.434	9.1
730.614	9.07
730.793	9.26
730.972	9.5
731.151	9.59
731.33	9.63
731.509	9.79
731.688	9.78
731.867	9.87
732.046	9.83
732.225	10.25
732.404	10.17
732.583	10.26
732.762	10.43
732.941	10.61
733.12	10.67
733.298	10.71
733.477	10.9
733.656	10.84
733.835	10.97
734.014	11.23
734.193	11.1
734.371	11.23
734.55	11.55
734.729	11.38
734.908	11.4
735.086	11.51
735.265	11.84
735.444	11.5
735.623	11.76
735.801	11.87
735.98	12.08
736.159	11.93
736.337	11.98
736.516	12.06
736.694	11.86
736.873	12.09
737.052	12.52
737.23	12.1
737.409	11.83
737.587	12.33
737.766	11.82
737.944	12
738.123	12.28
738.301	12.12
738.479	12.04
738.658	12.01
738.836	11.86
739.015	11.89
739.193	11.74
739.371	11.49
739.55	11.31
739.728	11.07
739.906	11.39
740.085	11.33
740.263	10.98
740.441	10.54
740.62	10.97
740.798	10.41
740.976	10.06
741.154	9.79
741.332	10.14
741.511	9.69
741.689	9.3
741.867	9.65
742.045	9.16
742.223	8.68
742.401	8.48
742.579	8.36
742.757	8.46
742.935	7.88
743.114	7.87
743.292	7.67
743.47	7.41
743.648	7.29
743.826	6.85
744.004	6.99
744.181	6.72
744.359	6.4
744.537	6.33
744.715	5.96
744.893	5.98
745.071	5.62
745.249	5.47
745.427	5.36
745.605	5.13
745.782	4.95
745.96	4.95
746.138	4.87
746.316	4.65
746.493	4.35
746.671	4.44
746.849	4.12
747.027	4.2
747.204	3.76
747.382	3.99
747.56	3.36
747.737	3.48
747.915	3.27
748.093	3.37
748.27	3.1
748.448	3.08
748.625	2.8
748.803	2.88
748.98	2.67
749.158	2.69
749.335	2.71
749.513	2.52
749.69	2.53
749.868	2.42
750.045	2.44
750.223	2.28
750.4	2.07
750.578	2.31
750.755	2.14
750.932	1.87
751.11	2.08
751.287	1.85
751.464	2.05
751.642	1.8
751.819	1.84
751.996	1.68
752.173	1.59
752.351	1.29
752.528	1.58
752.705	1.44
752.882	1.39
753.06	1.46
753.237	1.5
753.414	1.45
753.591	1.34
753.768	1.34
753.945	1.22
754.122	1.07
754.299	1.18
754.476	1.02
754.654	1.01
754.831	1.06
755.008	0.97
755.185	1.01
755.362	0.81
755.539	0.98
755.716	0.74
755.892	0.78
756.069	0.8
756.246	0.75
756.423	0.78
756.6	0.85
756.777	0.73
756.954	0.8
757.131	0.66
757.307	0.73
757.484	0.53
757.661	0.58
757.838	0.65
758.015	0.48
758.191	0.71
758.368	0.67
758.545	0.73
758.721	0.63
758.898	0.48
759.075	0.62
759.251	0.65
759.428	0.47
759.605	0.37
759.781	0.49
759.958	0.53
760.134	0.5
760.311	0.32
760.488	0.7
760.664	0.5
760.841	0.41
761.017	0.24
761.194	0.56
761.37	0.48
761.547	0.4
761.723	0.28
761.899	0.45
762.076	0.24
762.252	0.21
762.429	0.27
762.605	0.4
762.781	0.31
762.958	0.41
763.134	0.29
763.31	0.18
763.486	0.43
763.663	0.1
763.839	0.4
764.015	0.07
764.191	0.29
764.368	0.15
764.544	0.22
764.72	0.24
764.896	0.4
765.072	0.24
765.248	0.21
765.425	0.22
765.601	0.23
765.777	0.3
765.953	0
766.129	0.19
766.305	0.17
766.481	0.26
766.657	0.3
766.833	0.32
767.009	0.1
767.185	0.08
767.361	0.05
767.537	0.08
767.713	0.33
767.889	0.2
768.065	0.11
768.24	-0.04
768.416	0.25
768.592	-0.02
768.768	0.12
768.944	0.25
769.12	-0
769.295	0.01
769.471	0.14
769.647	0.19
769.823	0.27
769.998	0.08
770.174	0.02
770.35	0.37
770.525	0.41
770.701	0.19
770.877	0.07
771.052	0.1
771.228	0.37
771.403	0.2
771.579	0.34
771.755	0.39
771.93	0
772.106	0.04
772.281	-0.15
772.457	0.1
772.632	0.13
772.808	0
772.983	0.09
773.159	-0.05
773.334	0.13
773.509	0.13
773.685	0.08
773.86	0.48
774.036	0.31
774.211	0.15
774.386	-0.05
774.562	0.15
774.737	0.32
774.912	-0.1
775.087	0.21
775.263	0.14
775.438	0.14
775.613	-0.11
775.788	-0.09
775.964	0.12
776.139	0.31
776.314	-0.06
776.489	0.15
776.664	0.1
776.839	-0.11
777.014	0.21
777.19	0.22
777.365	0.29
777.54	0.34
777.715	-0.03
777.89	0.01
778.065	0.05
778.24	0.14
778.415	0.27
778.59	-0.08
778.765	-0.02
778.94	0.16
779.115	0.09
779.289	-0.04
779.464	0.19
779.639	0.12
779.814	-0.18
779.989	-0.09
780.164	0.28
780.339	0.1
780.513	-0.1
780.688	-0.21
780.863	0.12
781.038	-0.03
781.212	0.03
781.387	0.07
781.562	0.36
781.737	-0
781.911	0.24
782.086	-0.03
782.261	0.04
782.435	0.24
782.61	-0.05
782.784	0.06
782.959	0.12
783.134	-0.03
783.308	-0.21
783.483	0.02
783.657	0.28
783.832	0.2
784.006	-0.02
784.181	0.19
784.355	0.2
784.53	-0.32
784.704	-0.19
784.878	0.56
785.053	0.1
785.227	0.03
785.402	0.45
785.576	-0.11
785.75	0.04
785.925	-0.04
786.099	0.18
786.273	0.03
786.448	0.07
786.622	0.21
786.796	0.08
786.97	-0.16
787.145	0.62
787.319	-0.42
787.493	-0.11
787.667	-0.35
787.841	-0.05
788.015	0.3
788.19	-0.21
788.364	0.15
788.538	0.2
788.712	0.28
788.886	0.08
789.06	0.34
789.234	0.21
789.408	-0.13
789.582	0.1
789.756	0.02
789.93	-0.14
790.104	0.09
790.278	0.03
790.452	-0.11
790.626	0.17
790.8	-0.13
790.973	0.16
791.147	0.45
791.321	0.25
791.495	0.26
791.669	0.23
791.843	-0.04
792.016	0.02
792.19	0.35
792.364	-0.39
792.538	0.73
792.711	0.35
792.885	-0.03
793.059	-0.06
793.233	-0.32
793.406	0.24
793.58	0.19
793.754	0.1
793.927	-0.03
794.101	0.13
794.274	-0.01
794.448	0.28
794.622	-0.1
794.795	0.18
794.969	-0.1
795.142	0.24
795.316	-0.23
795.489	-0.15
795.663	0.53
795.836	-0.07
796.009	-0.07
796.183	0.44
796.356	0.24
796.53	-0.02
796.703	-0.09
796.876	0.78
797.05	0.21
797.223	-0.01
797.396	0.18
797.57	-0.12
797.743	0.33
797.916	0.18
798.09	0.08
798.263	0.26
798.436	0.37
798.609	-0.02
798.782	0.02
798.956	0.08
799.129	0.13
799.302	0.01
799.475	-0.17
799.648	-0.2
799.821	-0.1
799.994	0.13
800.167	-0.29
800.34	-0.18
800.514	0.27
800.687	-0.18
800.86	-0.12
801.033	0.02
801.206	0.22
801.379	-0.07
801.551	0.33
801.724	0.09
801.897	0.59
802.07	-0.26
802.243	-0.36
802.416	-0.12
802.589	-0.29
802.762	0.09
802.935	-0.04
803.107	-0.01
803.28	0.19
803.453	0.34
803.626	0.02
803.798	0.09
803.971	-0.12
804.144	0.03
804.317	0.3
804.489	0.34
804.662	-0.03
804.835	-0.09
805.007	-0.28
805.18	0.35
805.353	0.26
805.525	-0.03
805.698	-0.12
805.87	0.4
806.043	0.32
806.215	-0.41
806.388	-0.18
806.56	0.23
806.733	0.21
806.905	0.32
807.078	-0.39
807.25	-0.1
807.423	0.03
807.595	0.33
807.768	0.39
807.94	0.53
808.112	0.39
808.285	-0.08
808.457	-0.03
808.629	-0.07
808.802	0.44
808.974	0.33
809.146	-0.23
809.318	-0.27
809.491	0.02
809.663	0.33
809.835	-0.14
810.007	0.56
810.18	-0.04
810.352	-0.43
810.524	-0.28
810.696	0.08
810.868	0.5
811.04	-0.31
811.212	-0.29
811.384	0.29
811.556	0.13
811.728	-0.07
811.901	0.85
812.073	-0.32
812.245	0.32
812.417	0.17
812.589	-0.6
812.76	0.2
812.932	0.3
813.104	0.4
813.276	0.12
813.448	0.72
813.62	-0.1
813.792	0.03
813.964	0.36
814.136	0.2
814.307	-0.18
814.479	0.19
814.651	0.16
814.823	0.91
814.995	-0.25
815.166	0.29
815.338	0.14
815.51	-0.43
815.681	0.63
815.853	-0.43
816.025	-0.06
816.196	0.05
816.368	0.32
816.54	-0.65
816.711	-0.09
816.883	0.5
817.054	0.82
817.226	-0.47
817.398	0.25
817.569	0.05
817.741	0.22
817.912	-0.02
818.084	0.24
818.255	0.27
818.426	-0.4
818.598	-0.24
818.769	-0.1
818.941	0.21
819.112	0.39
819.283	0.42
819.455	-0.13
819.626	0.07
819.798	0.34
819.969	0.15
820.14	0.08
820.311	-0.38
820.483	-0
820.654	0.14
820.825	-0.21
820.996	0.11
821.168	-0.47
821.339	0.31
821.51	-0.26
821.681	0.91
821.852	-0.05
822.023	-0.47
822.195	-0.28
822.366	0.66
822.537	0.05
822.708	0.18
822.879	-0.25
823.05	0.99
823.221	0.03
823.392	0.27
823.563	0.23
823.734	0.04
823.905	-0.4
824.076	0.01
824.247	0.19
824.418	-0.16
824.589	0.86
824.759	0.14
824.93	-0.03
825.101	-0.47
825.272	0.82
825.443	1.13
825.614	0.61
825.784	-1.03
825.955	1.4
826.126	0.37
826.297	-0.11
826.467	0.62
826.638	0.77
826.809	-0.53
826.98	-0.34
827.15	0.38
827.321	0.14
827.492	0.75
827.662	0.41
827.833	0.84
828.003	0.29
828.174	-0.49
828.345	-0.49
828.515	0.77
828.686	0.51
828.856	-0.24
829.027	0.28
829.197	-0.15
829.368	0.52
829.538	-0.16
829.709	-0.19
829.879	0.2
830.049	0.34
830.22	-0.05
830.39	-0.13
830.56	0.45
830.731	-0.3
830.901	-0.63
831.072	-0.19
831.242	0.82
831.412	0.22
831.582	0.17
831.753	-0.46
831.923	0.74
832.093	0.35
832.263	-0.22
832.434	-0.86
832.604	-0.56
832.774	0.11
832.944	-0.32
833.114	0.01
833.284	0.49
833.454	-0.06
833.624	-0.27
833.795	0.15
833.965	0.47
834.135	0.87
834.305	-0.83
834.475	-0.37
834.645	-0.1
834.815	-0.46
834.985	-0.64
835.155	0.05
835.325	0.51
835.494	0.42
835.664	-0.54
835.834	-0.49
836.004	0.48
836.174	0.35
836.344	-0.06
836.514	-0.43
836.684	-0.09
836.853	0.19
837.023	0.54
837.193	-0.56
837.363	0.51
837.532	0.52
837.702	-0.06
837.872	-0.39
838.041	0.72
838.211	1.13
838.381	-0.64
838.55	-0.34
838.72	1.82
838.89	1.31
839.059	-0.48
839.229	-0.41
839.398	0.83
839.568	0.44
839.738	0.14
839.907	0.74
840.077	-0.04
840.246	-0.52
840.416	0.08
840.585	-0.55
840.755	1.43
840.924	1.23
841.093	-0.55
841.263	-0.06
841.432	0.42
841.602	-0.86
841.771	-0.17
841.94	0.86
842.11	2.38
842.279	1.41
842.448	-0.91
842.617	-0.7
842.787	0.36
842.956	-0.93
843.125	0.79
843.294	0.3
843.464	0.16
843.633	0.11
843.802	-1.22
843.971	-0.04
844.14	-0.17
844.309	0.34
844.479	-0.59
844.648	-0.74
844.817	-0.51
844.986	0.1
845.155	-0.25
845.324	0.09
845.493	-0.32
845.662	-0.72
845.831	1.07
846	0.47
846.169	0.47
846.338	0.74
846.507	-0.11
846.676	0.08
846.844	-0.29
847.013	0.4
847.182	0.32
847.351	-0.48
847.52	0.14
847.689	0.04
847.858	-0.18
848.026	-1.22
848.195	0.42
848.364	-0.46
848.533	-1.41
848.701	-0.2
848.87	0.33
849.039	1.22
849.207	1.55
849.376	1.44
849.545	1.47
849.713	-0.66
849.882	-0.54
850.051	-0.02
850.219	0.13
850.388	1.07
850.556	-0.53
850.725	0.02
850.893	0.31
851.062	0.68
851.23	1.28
851.399	-1.08
851.567	-1.56
851.736	-1.32
851.904	-0.95
852.073	0.51
852.241	0.4
852.41	0.5
852.578	-0.48
852.746	-0.27
852.915	1.16
853.083	-0.21
853.251	-1.45
853.42	-0.46
853.588	0.16
853.756	1.44
853.924	-0.04
854.093	-0.55
854.261	-0.26
854.429	-1.02
854.597	-0.03
854.765	-1.3
854.934	1.11
855.102	1.29
855.27	0.58
855.438	1.54
855.606	0.52
855.774	1.14
855.942	-0.36
856.11	-2.2
856.278	0.48
856.446	1.12
856.614	-0.19
856.782	-1.01
856.95	1.02
857.118	1.52
857.286	1.1
857.454	-1.09
857.622	0.51
857.79	1.29
857.958	-1.24
858.126	-0.61
858.294	-2.78
858.462	1.41
858.629	-1.33
858.797	-0.29
858.965	-0.14
859.133	1.18
859.301	-0.24
859.468	1.48
859.636	-0.78
859.804	1.21
859.971	0.29
860.139	0.16
860.307	1.72
860.474	0.27
860.642	-0.88
860.81	0.08
860.977	2.06
861.145	1.84
861.313	-0.55
861.48	0.5
861.648	1.07
861.815	0.8
861.983	-0.53
862.15	0.55
862.318	1.58
862.485	0.59
862.653	0.15
862.82	-1.46
862.988	1
863.155	0.88
863.322	-0.25
863.49	-0.65
863.657	-0.73
863.824	1.82
863.992	1.59
864.159	-0.11
864.326	2.14
864.494	0.18
864.661	2.9
864.828	-0.36
864.996	1.96
865.163	2.26
865.33	-0.01
865.497	-1.07
865.664	-0.77
865.832	-2.11
865.999	-0.38
866.166	-1.67
866.333	0.27
866.5	-1.11
866.667	0.21
866.834	-0.04
867.001	2.98
867.168	-2.45
867.335	1.07
867.502	-1.94
867.669	0.82
867.836	2.14
868.003	-0.43
868.17	3.12
868.337	2.12
868.504	2.03
868.671	-1.47
868.838	-0.64
869.005	0.33
869.172	0.64
869.339	-0.53
869.505	-0.11
869.672	0.62
869.839	0.36
870.006	0.98
870.173	-0.66
870.339	1.66
870.506	2.95
870.673	-0.25
870.84	1.44
871.006	-0.14
871.173	-0.65
871.34	0.45
871.506	-0.38
871.673	0.65
871.839	-1.26
872.006	-0.03
872.173	-0.79
872.339	0.15
872.506	1.26
872.672	0.27
872.839	-0.9
873.005	1.03
873.172	3.17
873.338	2.3
873.505	1.53
873.671	1.53
873.838	2.9
874.004	-0.58
874.171	-0.97
874.337	-0.31
874.503	-0.17
874.67	-0.21
874.836	-0.57
875.002	1.89
875.169	2
875.335	0.82
875.501	-0.68
875.668	2.19
875.834	0.71
876	-0.21
876.166	1.86
876.332	-0.11
876.499	4.42
876.665	-0.54
876.831	0.84
876.997	4.39
877.163	2.81
877.329	-0.64
877.495	0.39
877.662	0.57
877.828	-0.47
877.994	0.5
878.16	-2.11
878.326	-0.28
878.492	0.58
878.658	0.21
878.824	0.76
878.99	-0.93
879.156	-0.07
879.322	3.57
879.487	0.54
879.653	0.36
879.819	0.04
879.985	0.15
880.151	1.06
880.317	1.68
880.483	0.9
880.648	2.49
880.814	-1.25
880.98	0.81
881.146	-0.13
881.312	-1.31
881.477	-0.24
881.643	1.92
881.809	1.19
881.974	2.01
882.14	-2.1
882.306	0.06
882.471	4.48
882.637	-0.47
882.803	1.18
882.968	4.64
883.134	3.09
883.299	-0.24
883.465	0.21
883.63	0.8
883.796	2.46
883.961	3.43
884.127	1.45
884.292	-3.45
884.458	-2.23
884.623	-2.23
