Data from Apollo_Calib_20240827__AbsoluteIrradiance__564__08-33-02-675.txt Node

Date: Wed Aug 28 08:33:02 BST 2024
User: biology
Spectrometer: FLMT08252
Trigger mode: 0
Integration Time (sec): 5.000000E-1
Scans to average: 5
Electric dark correction enabled: true
Nonlinearity correction enabled: false
Boxcar width: 0
XAxis mode: Wavelengths
Number of Pixels in Spectrum: 3648
>>>>>Begin Spectral Data<<<<<
179.588	-0
179.809	-0
180.03	-0
180.251	-0
180.473	-0
180.694	0
180.915	0
181.136	-0
181.357	0
181.578	-0
181.799	0
182.02	-0
182.241	0
182.462	-0
182.683	0
182.904	-0
183.125	-0
183.346	0
183.567	0
183.788	-0
184.009	-0
184.23	0
184.451	0
184.672	-0
184.892	-0
185.113	0
185.334	0
185.555	-0
185.776	-0
185.996	0
186.217	0
186.438	-0
186.659	-0
186.879	-0
187.1	-0
187.321	0
187.541	-0
187.762	0
187.983	0
188.203	0
188.424	-0
188.644	0
188.865	0
189.086	-0
189.306	0
189.527	0
189.747	0
189.968	-0
190.188	0
190.409	0
190.629	0
190.849	0
191.07	-0
191.29	0
191.511	0
191.731	0
191.951	-0
192.172	0
192.392	-0
192.612	-0
192.833	0
193.053	0
193.273	0
193.493	0
193.714	-0
193.934	0
194.154	0
194.374	0
194.594	0
194.815	0
195.035	0
195.255	0
195.475	-0
195.695	0
195.915	0
196.135	-0
196.355	0
196.575	0
196.795	0
197.015	-0
197.235	0
197.455	0
197.675	0
197.895	-0
198.115	-0
198.335	0
198.555	0
198.775	0
198.995	0
199.214	0
199.434	0
199.654	-0
199.874	0
200.094	1.33
200.313	-0.06
200.533	-0.19
200.753	-0.97
200.973	0.88
201.192	0.79
201.412	-0.64
201.632	-0.34
201.851	0.9
202.071	-0.1
202.291	-0.32
202.51	-0.49
202.73	0.54
202.95	0.02
203.169	-0.27
203.389	0.17
203.608	-0.1
203.828	-0.21
204.047	-0.11
204.267	0.26
204.486	0.05
204.706	0.26
204.925	-0
205.145	-0.14
205.364	0.45
205.583	0.72
205.803	-0.32
206.022	-0.16
206.242	0.12
206.461	0.24
206.68	-0.24
206.9	0.07
207.119	0.69
207.338	0.23
207.557	-0.07
207.777	-0.24
207.996	-0.02
208.215	0.31
208.434	-0.05
208.654	-0.35
208.873	0.35
209.092	0.13
209.311	0.07
209.53	-0.15
209.749	-0.19
209.968	-0.28
210.187	-0.03
210.407	-0.23
210.626	-0.2
210.845	0.42
211.064	0.04
211.283	-0.29
211.502	0.28
211.721	0.1
211.94	-0.13
212.159	0.27
212.377	0.36
212.596	0.44
212.815	-0.03
213.034	-0.03
213.253	0.24
213.472	0.37
213.691	-0.21
213.91	-0.11
214.128	-0.05
214.347	0.44
214.566	-0.42
214.785	-0.23
215.003	0.19
215.222	-0.02
215.441	-0.11
215.66	-0.1
215.878	0.08
216.097	0.09
216.316	-0.18
216.534	-0.19
216.753	0.21
216.972	-0.04
217.19	0
217.409	-0.14
217.627	-0.08
217.846	0.03
218.064	0.02
218.283	0.01
218.501	0.46
218.72	0.24
218.938	-0.14
219.157	0.12
219.375	0.12
219.594	0.15
219.812	-0.17
220.031	-0.1
220.249	0.45
220.467	0.52
220.686	-0.15
220.904	-0.26
221.122	-0.13
221.341	0.31
221.559	0.19
221.777	-0.13
221.995	0.13
222.214	0.05
222.432	-0.16
222.65	0.2
222.868	0.09
223.086	0.17
223.305	0.28
223.523	-0.02
223.741	0.09
223.959	-0.08
224.177	-0.12
224.395	-0.02
224.613	0.1
224.831	0.12
225.049	-0.05
225.267	0.11
225.485	0.11
225.703	0.01
225.921	0.07
226.139	-0.06
226.357	0.13
226.575	0.13
226.793	0.02
227.011	0.52
227.229	-0.03
227.447	0.27
227.665	-0.03
227.883	-0.19
228.1	0.05
228.318	0.05
228.536	-0.21
228.754	-0.17
228.972	0.14
229.189	0.14
229.407	-0.13
229.625	0.09
229.843	0.18
230.06	0.11
230.278	-0.06
230.496	0.09
230.713	0.12
230.931	0.23
231.149	-0.02
231.366	-0.12
231.584	0.01
231.801	0.34
232.019	-0.06
232.236	-0.23
232.454	-0.08
232.671	0.1
232.889	-0.01
233.106	-0.11
233.324	-0.03
233.541	0.12
233.759	0.1
233.976	-0.1
234.194	0.05
234.411	0.04
234.628	-0.05
234.846	-0.01
235.063	-0.11
235.28	-0.09
235.498	-0.01
235.715	0.01
235.932	0.05
236.149	0
236.367	-0.05
236.584	0.09
236.801	-0.04
237.018	0.07
237.236	0.04
237.453	-0.2
237.67	0.08
237.887	-0.01
238.104	0.05
238.321	-0.05
238.538	-0.09
238.755	0.04
238.973	-0.06
239.19	0.04
239.407	0.02
239.624	0.07
239.841	-0.12
240.058	-0.04
240.275	0.12
240.492	-0.05
240.709	0.04
240.925	0.01
241.142	0.04
241.359	-0.05
241.576	-0
241.793	0.05
242.01	0.06
242.227	0.05
242.444	0.12
242.66	0.12
242.877	0.09
243.094	0.02
243.311	0.07
243.527	0.02
243.744	-0.05
243.961	0.07
244.178	-0.04
244.394	-0.03
244.611	0.17
244.828	0.21
245.044	-0.11
245.261	-0.01
245.477	0.13
245.694	0.03
245.911	-0.01
246.127	0.06
246.344	0.1
246.56	0.06
246.777	0.05
246.993	0.08
247.21	0.08
247.426	-0.01
247.643	-0.02
247.859	0.04
248.076	0.02
248.292	0.14
248.508	-0.05
248.725	0.09
248.941	0.04
249.157	0.1
249.374	0.03
249.59	0
249.806	0.05
250.023	0.03
250.239	-0.11
250.455	-0.05
250.671	0.05
250.888	0.05
251.104	0.07
251.32	-0.03
251.536	0.04
251.752	0.04
251.969	0
252.185	-0.01
252.401	0.22
252.617	-0.01
252.833	-0.05
253.049	0.03
253.265	0.02
253.481	0.05
253.697	-0.04
253.913	-0.04
254.129	0.04
254.345	-0.01
254.561	-0.01
254.777	-0.02
254.993	0.06
255.209	0.06
255.425	-0.03
255.641	-0.02
255.857	0.13
256.073	0.04
256.288	-0.11
256.504	0.02
256.72	0.06
256.936	0.12
257.152	0.02
257.367	-0.02
257.583	-0.05
257.799	0.03
258.015	-0.04
258.23	-0.03
258.446	0.12
258.662	0.02
258.877	-0.05
259.093	0.03
259.309	0.03
259.524	0.03
259.74	-0.03
259.955	-0.04
260.171	0.08
260.387	-0.02
260.602	0.1
260.818	0.04
261.033	-0.06
261.249	-0.04
261.464	0.04
261.68	-0.07
261.895	0.08
262.11	0.07
262.326	-0.07
262.541	-0.1
262.757	0.09
262.972	0.08
263.187	-0
263.403	-0.01
263.618	0.04
263.833	0.01
264.049	-0.03
264.264	0.02
264.479	0.1
264.694	0.13
264.91	-0.02
265.125	-0.01
265.34	0.06
265.555	0.13
265.77	0
265.986	-0.04
266.201	0.07
266.416	0.17
266.631	-0.05
266.846	0.05
267.061	0.02
267.276	0.1
267.491	-0.15
267.706	0.13
267.921	0.04
268.136	0.09
268.351	0.02
268.566	-0.05
268.781	0.12
268.996	0.09
269.211	0.06
269.426	-0.04
269.641	0
269.856	0.11
270.071	-0.06
270.285	-0.1
270.5	0.07
270.715	0.08
270.93	0.03
271.145	0.03
271.359	0.03
271.574	0.02
271.789	0.03
272.004	-0.02
272.218	0.05
272.433	0.11
272.648	-0.02
272.862	0.04
273.077	-0.03
273.292	-0
273.506	-0.02
273.721	-0.03
273.936	0.03
274.15	0.11
274.365	0.03
274.579	0.08
274.794	0.06
275.008	0.09
275.223	-0.08
275.437	-0.04
275.652	0.06
275.866	0.04
276.081	-0.04
276.295	0.02
276.509	0.03
276.724	0.02
276.938	0.03
277.153	0.06
277.367	0.08
277.581	-0.05
277.796	0
278.01	-0.04
278.224	0.02
278.438	0.12
278.653	-0.05
278.867	0
279.081	-0.14
279.295	-0.07
279.51	0.02
279.724	-0.06
279.938	0.06
280.152	0.04
280.366	-0.04
280.58	0.05
280.794	0.06
281.008	0.05
281.222	0.09
281.437	0.13
281.651	0.03
281.865	0.13
282.079	-0.01
282.293	-0.04
282.507	0.01
282.721	0.06
282.935	0.01
283.148	-0.07
283.362	-0.05
283.576	-0.02
283.79	0.05
284.004	-0
284.218	0.06
284.432	0.01
284.646	0.03
284.859	-0.04
285.073	-0.03
285.287	-0.01
285.501	0.04
285.714	-0
285.928	-0.02
286.142	0.01
286.356	-0
286.569	-0.04
286.783	0.09
286.997	0.06
287.21	-0
287.424	0.05
287.637	-0.02
287.851	-0.01
288.065	0.06
288.278	0.03
288.492	0.01
288.705	0.02
288.919	0.02
289.132	-0.07
289.346	0.1
289.559	-0.04
289.773	-0.08
289.986	0.01
290.2	0
290.413	0.05
290.626	-0.02
290.84	0.05
291.053	0.01
291.267	0.1
291.48	0.04
291.693	0.05
291.906	-0.02
292.12	0.02
292.333	-0.05
292.546	-0.03
292.76	0.08
292.973	0.03
293.186	0.09
293.399	-0.01
293.612	0.06
293.826	0.04
294.039	0.04
294.252	0.04
294.465	0.08
294.678	0.01
294.891	0.06
295.104	-0.01
295.317	-0.03
295.53	0.03
295.743	0.02
295.956	0.03
296.169	0.06
296.382	0.07
296.595	0.02
296.808	-0.02
297.021	0.03
297.234	0.01
297.447	0.01
297.66	0.03
297.873	0.11
298.086	0.08
298.299	-0.01
298.511	-0.07
298.724	-0
298.937	-0.01
299.15	-0.02
299.363	0.03
299.575	0.04
299.788	0.07
300.001	-0.04
300.213	0.01
300.426	-0.03
300.639	-0.04
300.852	-0.01
301.064	0.07
301.277	0.04
301.489	0.05
301.702	0.05
301.915	0.01
302.127	-0.01
302.34	0.03
302.552	0.01
302.765	-0.04
302.977	0.06
303.19	-0.03
303.402	0.02
303.615	0.02
303.827	-0.04
304.04	0.02
304.252	0.07
304.464	0
304.677	0.11
304.889	0.07
305.102	0
305.314	0.01
305.526	0.05
305.739	0.07
305.951	-0.02
306.163	0.03
306.375	0.05
306.588	-0.03
306.8	-0.02
307.012	-0.06
307.224	0.03
307.436	0.1
307.649	-0.02
307.861	-0.01
308.073	-0
308.285	0
308.497	-0.02
308.709	-0.01
308.921	0.05
309.133	0.04
309.346	0.01
309.558	0.02
309.77	0.02
309.982	0.07
310.194	0.05
310.406	-0.02
310.617	0.11
310.829	0.03
311.041	0.06
311.253	0
311.465	0.02
311.677	0.06
311.889	-0.01
312.101	-0
312.313	0.07
312.524	0.11
312.736	-0.06
312.948	0.01
313.16	0.08
313.372	0.03
313.583	-0.02
313.795	0.02
314.007	-0.02
314.218	0.06
314.43	0.04
314.642	0
314.853	-0.05
315.065	0.06
315.277	-0.01
315.488	0.01
315.7	0.03
315.912	0.03
316.123	0.01
316.335	0.01
316.546	0.11
316.758	0.02
316.969	-0.02
317.181	0.04
317.392	0.03
317.604	0.07
317.815	-0.04
318.026	-0
318.238	0.02
318.449	0.01
318.661	-0.05
318.872	-0.01
319.083	-0.02
319.295	0.03
319.506	-0.01
319.717	0.05
319.929	0.04
320.14	0.01
320.351	0.02
320.562	0.02
320.774	0
320.985	0.03
321.196	-0.02
321.407	-0.04
321.618	0.06
321.829	0.02
322.041	0.04
322.252	0.01
322.463	-0.01
322.674	0.04
322.885	-0.01
323.096	0.03
323.307	0.01
323.518	-0.01
323.729	0.01
323.94	-0.03
324.151	-0.01
324.362	0.02
324.573	0.06
324.784	0.02
324.995	0.01
325.206	0.03
325.417	0.02
325.628	-0.01
325.838	0.02
326.049	-0
326.26	0.05
326.471	0.02
326.682	0.05
326.892	-0
327.103	-0.05
327.314	-0.02
327.525	0.07
327.735	0.03
327.946	0.06
328.157	-0.03
328.368	0.03
328.578	-0.05
328.789	0.1
328.999	0.03
329.21	0.02
329.421	0.02
329.631	-0.03
329.842	0.02
330.052	0.05
330.263	0.03
330.473	0.05
330.684	0.02
330.894	0
331.105	0.01
331.315	0.03
331.526	-0.03
331.736	0.1
331.947	0.04
332.157	-0
332.367	-0
332.578	0.03
332.788	0.06
332.999	0.05
333.209	0.02
333.419	-0.07
333.629	0.03
333.84	0.03
334.05	0.06
334.26	0.06
334.47	0.03
334.681	0.03
334.891	-0.05
335.101	0.06
335.311	0.05
335.521	0.02
335.732	-0.03
335.942	0.07
336.152	0.06
336.362	0
336.572	0.01
336.782	0.09
336.992	-0.02
337.202	0.03
337.412	-0.02
337.622	0.01
337.832	0.04
338.042	0.01
338.252	-0.02
338.462	0.01
338.672	-0.01
338.882	-0.02
339.092	0.02
339.302	0.09
339.511	0.03
339.721	-0
339.931	-0.05
340.141	0.03
340.351	0.1
340.561	0.05
340.77	0.03
340.98	-0
341.19	0.02
341.4	-0.03
341.609	-0.04
341.819	-0.01
342.029	-0
342.238	0.06
342.448	-0.02
342.658	0.06
342.867	0.04
343.077	0.02
343.286	0.02
343.496	-0
343.706	0.06
343.915	-0.03
344.125	-0
344.334	0.08
344.544	-0.03
344.753	0.02
344.963	0.03
345.172	0.01
345.381	-0
345.591	-0.01
345.8	-0.01
346.01	0.04
346.219	0.07
346.428	-0.15
346.638	0
346.847	0.03
347.056	0.03
347.266	-0.02
347.475	0.02
347.684	0.06
347.893	0.03
348.103	0.04
348.312	0.01
348.521	-0.02
348.73	0.04
348.94	0.03
349.149	-0.01
349.358	0
349.567	-0.03
349.776	-0.05
349.985	0
350.194	0.07
350.403	0.07
350.612	-0.04
350.821	0.02
351.03	-0.02
351.239	-0.02
351.448	0.01
351.657	-0.04
351.866	0.07
352.075	0.02
352.284	0.04
352.493	-0.04
352.702	0.08
352.911	0.01
353.12	0.01
353.329	-0.03
353.538	0.07
353.746	0.01
353.955	-0.02
354.164	0.05
354.373	0.01
354.582	0.03
354.79	0.03
354.999	0.08
355.208	0
355.416	0.07
355.625	-0.05
355.834	0.01
356.042	0.04
356.251	-0.02
356.46	-0.01
356.668	0.06
356.877	0.06
357.085	0.02
357.294	-0.09
357.503	0.06
357.711	0.04
357.92	0.1
358.128	0.03
358.337	0.03
358.545	0
358.754	0.01
358.962	0.04
359.17	-0.02
359.379	0.05
359.587	0.03
359.796	-0.03
360.004	-0
360.212	0.03
360.421	0.03
360.629	-0
360.837	-0
361.046	0.03
361.254	0.12
361.462	0.02
361.67	-0.01
361.879	0.02
362.087	0.07
362.295	0.01
362.503	0.02
362.711	-0.01
362.92	-0
363.128	-0.03
363.336	-0.01
363.544	-0.02
363.752	-0.01
363.96	0.02
364.168	0
364.376	0.01
364.584	0.04
364.792	0.06
365	0.02
365.208	0.04
365.416	0
365.624	0.05
365.832	0.02
366.04	0.03
366.248	0.01
366.456	0.03
366.664	0.03
366.872	-0.02
367.079	0
367.287	0.02
367.495	0.03
367.703	0.01
367.911	-0
368.118	0
368.326	0.01
368.534	-0.04
368.742	0.1
368.949	-0.03
369.157	-0.02
369.365	0.06
369.572	-0.02
369.78	-0.02
369.988	0.05
370.195	0.04
370.403	0.01
370.61	-0.03
370.818	0
371.026	0.09
371.233	-0.01
371.441	0.03
371.648	-0.01
371.856	0.02
372.063	0.02
372.271	0.01
372.478	-0.01
372.685	-0.01
372.893	0.03
373.1	-0.01
373.308	-0.02
373.515	0.07
373.722	0
373.93	0.02
374.137	0.03
374.344	0.1
374.552	0.01
374.759	0.02
374.966	0
375.173	0
375.381	0.04
375.588	0
375.795	-0.03
376.002	-0.01
376.209	0.01
376.417	0.02
376.624	0.02
376.831	0.03
377.038	-0
377.245	-0.07
377.452	0
377.659	0.03
377.866	-0.04
378.073	0.02
378.28	0.01
378.487	0.03
378.694	0.03
378.901	-0.01
379.108	0.04
379.315	0.09
379.522	0.08
379.729	0.06
379.936	0.02
380.143	0.01
380.35	0.02
380.557	0.01
380.763	-0.01
380.97	0.01
381.177	0.01
381.384	0.06
381.591	-0.01
381.797	0.02
382.004	0.03
382.211	0.04
382.418	-0.01
382.624	0.04
382.831	0.07
383.038	-0.02
383.244	0.04
383.451	0.01
383.658	-0.02
383.864	0
384.071	-0.03
384.277	0.08
384.484	-0.03
384.69	0.05
384.897	0.01
385.103	0.01
385.31	-0.02
385.516	0.02
385.723	-0.02
385.929	-0.02
386.136	-0.04
386.342	0.01
386.549	0.03
386.755	0.03
386.961	0.08
387.168	-0.04
387.374	0.04
387.58	-0.03
387.787	0.01
387.993	-0.01
388.199	0.02
388.406	0.01
388.612	0
388.818	-0.02
389.024	0.03
389.231	0.01
389.437	0.08
389.643	0.06
389.849	0.02
390.055	0.02
390.261	0.04
390.467	-0
390.674	-0.05
390.88	-0.01
391.086	0.02
391.292	-0.04
391.498	0.05
391.704	0.04
391.91	0.01
392.116	0.02
392.322	-0.07
392.528	0.09
392.734	0
392.94	-0.01
393.146	-0.04
393.352	0.02
393.557	0.01
393.763	0.02
393.969	0.02
394.175	0.02
394.381	0.02
394.587	-0.06
394.792	-0.04
394.998	0.04
395.204	0.06
395.41	0
395.615	0.03
395.821	-0.03
396.027	0.06
396.233	-0.02
396.438	0.04
396.644	0.04
396.85	0.06
397.055	0.03
397.261	0.07
397.466	0.05
397.672	-0
397.878	-0.01
398.083	0.06
398.289	-0.03
398.494	0.05
398.7	0.05
398.905	-0.04
399.111	0.08
399.316	-0.02
399.522	0.03
399.727	-0
399.932	0.01
400.138	0.03
400.343	0.03
400.549	0.01
400.754	0.02
400.959	0.03
401.165	0.04
401.37	0.01
401.575	0.1
401.78	0.04
401.986	-0.03
402.191	0.01
402.396	-0.02
402.601	0.06
402.807	-0.01
403.012	-0
403.217	0.06
403.422	0.01
403.627	0.01
403.832	-0.02
404.037	0.01
404.243	0.04
404.448	-0.07
404.653	-0
404.858	0.03
405.063	0.03
405.268	-0.05
405.473	-0.04
405.678	-0.01
405.883	0.13
406.088	0.06
406.293	-0.02
406.498	0.01
406.703	0.03
406.907	0.02
407.112	-0.06
407.317	0.02
407.522	0.04
407.727	-0.05
407.932	-0.02
408.136	0.08
408.341	-0.03
408.546	-0.04
408.751	0.01
408.956	-0.05
409.16	0.03
409.365	-0.01
409.57	-0.03
409.774	0.03
409.979	0.02
410.184	0.04
410.388	-0.06
410.593	0.07
410.798	-0.03
411.002	0
411.207	0
411.411	0.06
411.616	0.03
411.82	-0.03
412.025	0.06
412.229	-0.03
412.434	0.06
412.638	0.08
412.843	-0.02
413.047	0.02
413.252	-0.04
413.456	-0.02
413.66	0.07
413.865	-0.03
414.069	0.07
414.273	-0.02
414.478	-0.02
414.682	0
414.886	-0.03
415.091	-0.03
415.295	-0.07
415.499	-0.01
415.703	0
415.908	0.07
416.112	-0.02
416.316	0.06
416.52	-0.03
416.724	-0.03
416.929	-0.03
417.133	0.07
417.337	0.01
417.541	-0.03
417.745	0.02
417.949	0.02
418.153	0.03
418.357	-0.07
418.561	0.06
418.765	-0.01
418.969	0.09
419.173	0.05
419.377	0.06
419.581	0.09
419.785	0
419.989	-0.11
420.193	-0.03
420.397	0.03
420.601	0.03
420.804	0.06
421.008	-0
421.212	0.01
421.416	0.06
421.62	0.01
421.823	-0.02
422.027	0.1
422.231	-0.01
422.435	-0.03
422.638	0.02
422.842	0
423.046	-0.03
423.249	0.02
423.453	0.1
423.657	0.04
423.86	-0.02
424.064	-0.04
424.268	0.05
424.471	0.01
424.675	0.07
424.878	0.07
425.082	0.01
425.285	0.03
425.489	0.03
425.692	0.02
425.896	-0.02
426.099	0.04
426.303	-0.01
426.506	-0.06
426.71	0.04
426.913	0.04
427.116	0.07
427.32	0.02
427.523	0.01
427.726	0.08
427.93	-0.03
428.133	0.01
428.336	-0.01
428.54	-0.02
428.743	0.04
428.946	0.03
429.149	-0.02
429.353	0.08
429.556	-0.03
429.759	-0.01
429.962	-0.02
430.165	0.04
430.368	0.03
430.571	-0.04
430.775	0.07
430.978	-0.02
431.181	0.01
431.384	0.02
431.587	0.02
431.79	0.01
431.993	-0.02
432.196	0.02
432.399	-0
432.602	0.05
432.805	-0.04
433.008	-0.02
433.211	-0.08
433.414	0.01
433.616	0.01
433.819	0.01
434.022	-0.08
434.225	0.04
434.428	0.04
434.631	0.06
434.833	0.02
435.036	0.02
435.239	0.04
435.442	0.01
435.645	0.03
435.847	0.02
436.05	0.02
436.253	-0.01
436.455	-0.04
436.658	-0.01
436.861	0.1
437.063	-0.02
437.266	0.03
437.468	0
437.671	0.18
437.874	0.01
438.076	-0.05
438.279	-0.05
438.481	0
438.684	-0.05
438.886	0.03
439.089	-0.08
439.291	0.01
439.494	0.05
439.696	-0.07
439.899	-0.02
440.101	0.02
440.303	-0.08
440.506	0.05
440.708	0.02
440.91	0.02
441.113	-0.04
441.315	0.01
441.517	-0.07
441.72	0.06
441.922	-0.05
442.124	-0.03
442.326	0
442.529	0.07
442.731	-0
442.933	0.05
443.135	-0.01
443.337	-0.05
443.539	0.03
443.742	-0.02
443.944	0.02
444.146	0.02
444.348	-0
444.55	-0
444.752	-0
444.954	-0.01
445.156	0.04
445.358	-0.03
445.56	0.07
445.762	0.01
445.964	-0
446.166	-0.04
446.368	0.01
446.57	0.04
446.772	0.05
446.974	-0
447.175	0.04
447.377	0.01
447.579	-0.03
447.781	-0.05
447.983	0.03
448.184	0.01
448.386	0.01
448.588	-0.05
448.79	0.01
448.991	-0.05
449.193	0.05
449.395	0.01
449.597	0.04
449.798	0.02
450	0.02
450.202	0
450.403	-0
450.605	0.07
450.806	0
451.008	-0.11
451.21	-0.04
451.411	-0
451.613	0.01
451.814	0.03
452.016	-0
452.217	0.05
452.419	0.06
452.62	0.02
452.821	0.07
453.023	0.09
453.224	0.07
453.426	0.09
453.627	-0.01
453.828	0.06
454.03	0.03
454.231	-0.01
454.432	-0.03
454.634	0.08
454.835	-0
455.036	-0.05
455.238	0.04
455.439	0.09
455.64	-0.05
455.841	-0.03
456.042	0.08
456.244	0.07
456.445	-0.06
456.646	-0.04
456.847	-0.05
457.048	0.08
457.249	0.06
457.45	0.14
457.651	-0.03
457.852	0.07
458.054	0.04
458.255	0.02
458.456	0.07
458.657	0.04
458.858	-0.03
459.058	0.05
459.259	0.03
459.46	0.01
459.661	-0.04
459.862	0.1
460.063	-0.03
460.264	0.03
460.465	-0.04
460.666	0.15
460.866	-0.01
461.067	0.04
461.268	0.03
461.469	-0.02
461.67	-0.01
461.87	0.01
462.071	-0
462.272	-0.04
462.473	0.01
462.673	0.01
462.874	-0.02
463.075	0.05
463.275	-0.01
463.476	-0.02
463.676	0.01
463.877	0.03
464.078	-0.02
464.278	0.03
464.479	-0.01
464.679	0.01
464.88	0.01
465.08	0.05
465.281	-0.04
465.481	-0.04
465.682	0
465.882	0.05
466.083	0.03
466.283	0.02
466.483	0.03
466.684	-0.06
466.884	-0.02
467.085	0
467.285	0.03
467.485	0.02
467.686	-0.01
467.886	-0.04
468.086	0.02
468.286	-0
468.487	0
468.687	-0.07
468.887	0.02
469.087	0.02
469.287	0
469.488	-0.07
469.688	-0.02
469.888	0.01
470.088	0.04
470.288	0.05
470.488	0.06
470.688	-0.03
470.888	0.01
471.088	0.01
471.288	0.05
471.488	0.04
471.688	-0.01
471.888	-0.01
472.088	0.04
472.288	0.03
472.488	-0.06
472.688	-0.03
472.888	0.01
473.088	-0.02
473.288	0.05
473.488	0.05
473.688	0.09
473.887	0.01
474.087	-0.01
474.287	0.03
474.487	-0
474.687	0.04
474.886	0
475.086	0.03
475.286	-0.01
475.486	-0.03
475.685	0.04
475.885	-0.01
476.085	-0.03
476.284	0.02
476.484	0
476.684	0.06
476.883	0.07
477.083	0.01
477.282	-0.04
477.482	0.06
477.681	0.05
477.881	0.01
478.08	-0.03
478.28	-0.01
478.479	0.03
478.679	0.05
478.878	-0.03
479.078	-0.02
479.277	-0.02
479.477	0.03
479.676	0.04
479.875	0.01
480.075	-0.04
480.274	0.03
480.473	0.01
480.673	-0.02
480.872	0.06
481.071	-0.01
481.271	0.02
481.47	0.01
481.669	-0.03
481.868	0.01
482.067	-0.04
482.267	-0.01
482.466	-0.02
482.665	-0.03
482.864	-0.01
483.063	-0.03
483.262	0.01
483.461	0.04
483.661	0.03
483.86	0.03
484.059	0.01
484.258	-0
484.457	-0.02
484.656	-0.02
484.855	0.04
485.054	-0.02
485.253	-0.03
485.452	-0.03
485.651	0.01
485.849	-0.01
486.048	0.01
486.247	-0
486.446	0.01
486.645	-0.03
486.844	-0.01
487.043	-0.01
487.241	0.02
487.44	-0.04
487.639	-0.02
487.838	0.01
488.037	0.01
488.235	0.05
488.434	0.02
488.633	0
488.831	0.02
489.03	0.04
489.229	-0.01
489.427	-0
489.626	0.03
489.825	0.05
490.023	0.01
490.222	-0.01
490.42	0.03
490.619	0.03
490.817	-0
491.016	-0.01
491.214	0.04
491.413	-0.03
491.611	-0
491.81	-0
492.008	0.01
492.207	0.01
492.405	0.02
492.604	-0.04
492.802	-0
493	0.02
493.199	-0.03
493.397	0.02
493.595	-0.01
493.794	-0
493.992	0.06
494.19	0
494.388	0.01
494.587	0.01
494.785	0.01
494.983	-0.02
495.181	0.02
495.379	-0.01
495.578	-0.03
495.776	0.02
495.974	0.01
496.172	0
496.37	-0
496.568	-0.02
496.766	-0.02
496.964	0.02
497.162	-0
497.36	0.01
497.558	0.01
497.756	0.03
497.954	-0.01
498.152	-0.02
498.35	0.01
498.548	-0.02
498.746	0
498.944	-0.03
499.142	0
499.34	-0.01
499.538	0
499.736	-0.01
499.933	0.05
500.131	0.03
500.329	0.02
500.527	0.02
500.725	0.05
500.922	0
501.12	0.01
501.318	0.03
501.516	-0.01
501.713	0.01
501.911	0.01
502.109	-0.02
502.306	0.01
502.504	-0.02
502.701	-0.01
502.899	-0.01
503.097	0.04
503.294	0.01
503.492	-0.01
503.689	0.01
503.887	0.02
504.084	0.05
504.282	-0
504.479	-0.04
504.677	0.02
504.874	-0.03
505.072	0.01
505.269	-0
505.466	0.03
505.664	-0.01
505.861	-0.05
506.059	-0.04
506.256	0.02
506.453	-0.01
506.651	0.03
506.848	0.04
507.045	0.01
507.242	0.02
507.44	-0.02
507.637	-0
507.834	-0
508.031	0.03
508.229	-0.01
508.426	0
508.623	0.02
508.82	-0
509.017	-0.02
509.214	-0.02
509.411	0.01
509.608	-0.02
509.805	0.03
510.003	-0.04
510.2	-0.02
510.397	0.04
510.594	-0.01
510.791	-0.02
510.988	-0.02
511.184	0.02
511.381	0.02
511.578	-0.01
511.775	0.01
511.972	-0.02
512.169	0.01
512.366	0
512.563	0.03
512.76	-0.01
512.956	0.01
513.153	0.01
513.35	0.01
513.547	0.02
513.744	-0.01
513.94	-0.01
514.137	0.03
514.334	0.01
514.53	0
514.727	0.01
514.924	0.06
515.12	-0
515.317	-0.02
515.514	-0.01
515.71	-0.01
515.907	0.01
516.103	0.01
516.3	0.02
516.497	0.03
516.693	0.03
516.89	-0.02
517.086	-0.02
517.283	0.01
517.479	0.01
517.676	-0.01
517.872	0.01
518.068	-0.01
518.265	-0.01
518.461	-0.01
518.658	-0.02
518.854	0.03
519.05	-0.03
519.247	-0.02
519.443	0.03
519.639	0.01
519.836	-0.01
520.032	-0.01
520.228	0.02
520.424	0.05
520.621	0.02
520.817	0.02
521.013	0.05
521.209	0.01
521.405	0.03
521.601	0.02
521.798	0.02
521.994	0.04
522.19	-0.01
522.386	-0.03
522.582	-0.02
522.778	-0.01
522.974	0.01
523.17	0
523.366	-0.02
523.562	0.04
523.758	0
523.954	0
524.15	-0.04
524.346	0
524.542	-0.01
524.738	0.01
524.934	-0
525.129	-0.01
525.325	0.01
525.521	0.03
525.717	0.03
525.913	0.01
526.109	-0
526.304	0
526.5	0.02
526.696	0.01
526.892	0.01
527.087	0.01
527.283	-0.02
527.479	0.02
527.674	-0.02
527.87	0
528.066	-0.02
528.261	0.03
528.457	0.01
528.653	-0.02
528.848	-0.01
529.044	0.02
529.239	-0.01
529.435	0.04
529.63	0
529.826	0.04
530.021	0.02
530.217	0.02
530.412	-0.02
530.608	-0.03
530.803	0
530.999	-0
531.194	-0.03
531.389	0.02
531.585	-0.04
531.78	-0
531.975	0.02
532.171	0.02
532.366	-0.01
532.561	0
532.757	0
532.952	0
533.147	0.03
533.342	-0
533.538	0
533.733	0.03
533.928	-0.01
534.123	0.01
534.318	0
534.513	-0
534.709	0.01
534.904	-0.03
535.099	-0.01
535.294	0.01
535.489	0.01
535.684	-0
535.879	-0.01
536.074	0.01
536.269	-0.01
536.464	0.03
536.659	0.01
536.854	-0.02
537.049	0.02
537.244	-0.01
537.439	0
537.634	0.05
537.828	0.01
538.023	-0
538.218	-0.03
538.413	0
538.608	-0.03
538.803	0.03
538.997	-0.04
539.192	0.03
539.387	0.01
539.582	0.02
539.776	0.02
539.971	0.01
540.166	-0
540.36	-0.02
540.555	-0.01
540.75	0.01
540.944	0.02
541.139	-0.04
541.334	-0.01
541.528	0.01
541.723	0.02
541.917	-0
542.112	-0.04
542.306	0
542.501	-0.02
542.695	0
542.89	-0
543.084	0.01
543.279	0.01
543.473	0.01
543.668	0.02
543.862	0.01
544.056	0.02
544.251	-0
544.445	0.02
544.64	-0
544.834	-0.03
545.028	-0
545.222	-0
545.417	0.02
545.611	0.01
545.805	-0.01
546	-0
546.194	0.02
546.388	-0.03
546.582	0.02
546.776	0.01
546.97	-0.02
547.165	0.01
547.359	0.04
547.553	-0.01
547.747	-0.01
547.941	0.02
548.135	-0
548.329	0.02
548.523	0.03
548.717	-0
548.911	0.01
549.105	0.02
549.299	-0
549.493	0.04
549.687	0.02
549.881	0.02
550.075	0
550.269	-0.02
550.463	0.02
550.657	-0.04
550.85	-0.01
551.044	-0.02
551.238	0.03
551.432	0.01
551.626	-0.03
551.82	0.01
552.013	-0.02
552.207	0.01
552.401	0.02
552.594	0
552.788	0
552.982	0.01
553.176	-0.02
553.369	0.03
553.563	0.02
553.756	-0.03
553.95	-0.02
554.144	-0.01
554.337	0.03
554.531	0
554.724	0
554.918	-0
555.111	0.04
555.305	0.02
555.498	0.05
555.692	0.03
555.885	-0
556.079	0.01
556.272	-0.01
556.466	0.03
556.659	0.01
556.852	0.02
557.046	0.02
557.239	0.01
557.432	-0.04
557.626	-0.02
557.819	0.01
558.012	0.03
558.206	0
558.399	0.01
558.592	0.02
558.785	0.01
558.979	0.02
559.172	0.02
559.365	0
559.558	0.02
559.751	0.01
559.944	0.02
560.138	-0
560.331	0.01
560.524	-0.01
560.717	0.02
560.91	0.01
561.103	0
561.296	0.01
561.489	0.02
561.682	0.02
561.875	0.04
562.068	0.02
562.261	0
562.454	0.05
562.647	0.03
562.84	0.02
563.032	-0.01
563.225	0.02
563.418	-0.01
563.611	0.01
563.804	-0.02
563.997	-0.02
564.19	-0.03
564.382	-0.05
564.575	0
564.768	0
564.961	0.01
565.153	0
565.346	0.03
565.539	0.03
565.731	0.05
565.924	0.03
566.117	0.02
566.309	0.01
566.502	0.01
566.695	0.02
566.887	0.01
567.08	-0
567.272	0
567.465	-0.01
567.657	0
567.85	0.01
568.042	0.03
568.235	0.04
568.427	0.01
568.62	0.01
568.812	0.01
569.005	0.01
569.197	-0.02
569.389	0.01
569.582	0.02
569.774	0.01
569.966	-0.02
570.159	0.01
570.351	0.02
570.543	-0
570.736	0.02
570.928	-0.02
571.12	0.04
571.312	-0
571.505	-0
571.697	0.06
571.889	-0.02
572.081	-0.01
572.273	0.01
572.465	0.04
572.658	-0.01
572.85	0.03
573.042	0.02
573.234	0.02
573.426	0.05
573.618	-0.03
573.81	0.01
574.002	0.06
574.194	0.06
574.386	-0
574.578	-0.04
574.77	-0.02
574.962	0.01
575.154	-0.03
575.346	0.02
575.538	0.03
575.729	0
575.921	-0.02
576.113	0.01
576.305	0.05
576.497	-0
576.689	-0
576.88	-0
577.072	0.03
577.264	0.01
577.456	0
577.647	-0.04
577.839	0.02
578.031	0.06
578.223	-0.01
578.414	-0
578.606	0.04
578.798	0.01
578.989	-0.01
579.181	-0.01
579.372	0.02
579.564	0.03
579.755	0
579.947	0.04
580.139	0.04
580.33	-0.04
580.522	-0
580.713	-0.04
580.905	0
581.096	0
581.287	0.01
581.479	0.01
581.67	0.02
581.862	0.01
582.053	0
582.244	-0.02
582.436	-0
582.627	0.03
582.818	0.01
583.01	-0.02
583.201	0.05
583.392	0.02
583.583	0.01
583.775	0.01
583.966	0
584.157	0.02
584.348	-0.01
584.54	-0.03
584.731	0.04
584.922	0.02
585.113	-0
585.304	0.04
585.495	0.03
585.686	0.04
585.877	0.04
586.068	0.02
586.259	0.01
586.45	0.01
586.641	-0.01
586.832	-0.04
587.023	0.03
587.214	-0
587.405	-0
587.596	0.01
587.787	0.01
587.978	0.05
588.169	-0.01
588.36	0.03
588.551	0.03
588.742	-0.01
588.932	0.02
589.123	0.01
589.314	0.04
589.505	0.04
589.696	0.04
589.886	-0
590.077	-0.02
590.268	0.04
590.458	0
590.649	-0.02
590.84	0.06
591.03	0
591.221	-0.01
591.412	-0.03
591.602	0.06
591.793	0.06
591.984	-0.02
592.174	0.02
592.365	0.1
592.555	0.01
592.746	0.02
592.936	0.04
593.127	0.04
593.317	0.07
593.508	0.01
593.698	0.04
593.889	0.02
594.079	0.02
594.269	0
594.46	0.02
594.65	0.05
594.84	0
595.031	-0
595.221	0.01
595.411	0.02
595.602	0.03
595.792	0.01
595.982	0
596.172	0.07
596.363	0.03
596.553	0.04
596.743	0.01
596.933	0.03
597.123	0.06
597.314	0.02
597.504	0.03
597.694	0.05
597.884	0.02
598.074	0.03
598.264	0.03
598.454	0.05
598.644	0.04
598.834	0.01
599.024	-0.02
599.214	0.03
599.404	0.08
599.594	0.03
599.784	0.04
599.974	0.13
600.164	0.05
600.354	0.01
600.544	0.01
600.734	0.03
600.924	0.06
601.114	0.03
601.303	0.06
601.493	0.05
601.683	0.04
601.873	0.07
602.063	0.01
602.252	0.11
602.442	-0
602.632	0.01
602.821	0.03
603.011	0.07
603.201	0.06
603.39	0.04
603.58	0.03
603.77	0.05
603.959	0.08
604.149	0.04
604.339	0.02
604.528	0.11
604.718	0.08
604.907	0.06
605.097	0.05
605.286	0.04
605.476	0.07
605.665	0.09
605.855	0.07
606.044	0.13
606.234	0.08
606.423	0.09
606.612	0.03
606.802	0.09
606.991	0.09
607.181	0.07
607.37	0.05
607.559	0.08
607.749	0.08
607.938	0.08
608.127	0.08
608.316	0.08
608.506	0.09
608.695	0.09
608.884	0.07
609.073	0.1
609.263	0.13
609.452	0.11
609.641	0.12
609.83	0.07
610.019	0.11
610.208	0.08
610.397	0.12
610.586	0.13
610.775	0.11
610.965	0.07
611.154	0.1
611.343	0.11
611.532	0.12
611.721	0.1
611.91	0.12
612.099	0.14
612.287	0.09
612.476	0.12
612.665	0.17
612.854	0.11
613.043	0.15
613.232	0.15
613.421	0.08
613.61	0.17
613.798	0.14
613.987	0.18
614.176	0.16
614.365	0.2
614.554	0.17
614.742	0.19
614.931	0.17
615.12	0.21
615.309	0.2
615.497	0.2
615.686	0.14
615.875	0.19
616.063	0.19
616.252	0.2
616.44	0.19
616.629	0.23
616.818	0.23
617.006	0.2
617.195	0.2
617.383	0.23
617.572	0.19
617.76	0.22
617.949	0.22
618.137	0.25
618.326	0.29
618.514	0.21
618.703	0.22
618.891	0.29
619.079	0.2
619.268	0.33
619.456	0.28
619.644	0.29
619.833	0.28
620.021	0.28
620.209	0.22
620.398	0.32
620.586	0.29
620.774	0.35
620.962	0.31
621.151	0.4
621.339	0.32
621.527	0.3
621.715	0.3
621.903	0.32
622.092	0.31
622.28	0.39
622.468	0.39
622.656	0.36
622.844	0.38
623.032	0.37
623.22	0.36
623.408	0.44
623.596	0.43
623.784	0.45
623.972	0.38
624.16	0.45
624.348	0.49
624.536	0.43
624.724	0.46
624.912	0.52
625.1	0.52
625.288	0.47
625.476	0.47
625.664	0.53
625.851	0.52
626.039	0.56
626.227	0.57
626.415	0.56
626.603	0.52
626.79	0.56
626.978	0.61
627.166	0.63
627.354	0.6
627.541	0.61
627.729	0.56
627.917	0.7
628.104	0.72
628.292	0.68
628.48	0.75
628.667	0.72
628.855	0.76
629.042	0.75
629.23	0.71
629.418	0.77
629.605	0.78
629.793	0.76
629.98	0.78
630.168	0.79
630.355	0.85
630.543	0.86
630.73	0.85
630.917	0.91
631.105	0.95
631.292	0.87
631.48	0.93
631.667	1
631.854	0.96
632.042	0.98
632.229	0.96
632.416	1.05
632.604	1.04
632.791	1.02
632.978	1.08
633.165	1.14
633.353	1.16
633.54	1.23
633.727	1.11
633.914	1.17
634.101	1.09
634.289	1.27
634.476	1.17
634.663	1.19
634.85	1.25
635.037	1.28
635.224	1.19
635.411	1.36
635.598	1.37
635.785	1.41
635.972	1.37
636.159	1.46
636.346	1.42
636.533	1.47
636.72	1.5
636.907	1.55
637.094	1.54
637.281	1.53
637.468	1.62
637.655	1.62
637.842	1.65
638.029	1.66
638.215	1.75
638.402	1.77
638.589	1.72
638.776	1.76
638.963	1.78
639.149	1.88
639.336	1.97
639.523	1.96
639.709	1.95
639.896	1.98
640.083	2.07
640.27	2.13
640.456	2.15
640.643	2.17
640.829	2.13
641.016	2.19
641.203	2.22
641.389	2.3
641.576	2.35
641.762	2.36
641.949	2.4
642.135	2.47
642.322	2.52
642.508	2.5
642.695	2.61
642.881	2.62
643.068	2.64
643.254	2.72
643.441	2.81
643.627	2.85
643.813	2.85
644	2.95
644.186	2.87
644.372	3.1
644.559	3.08
644.745	3.14
644.931	3.16
645.118	3.27
645.304	3.29
645.49	3.35
645.676	3.46
645.862	3.46
646.049	3.6
646.235	3.65
646.421	3.84
646.607	3.92
646.793	3.85
646.979	3.88
647.165	4.05
647.352	4.12
647.538	4.19
647.724	4.26
647.91	4.33
648.096	4.42
648.282	4.6
648.468	4.5
648.654	4.61
648.84	4.74
649.026	4.77
649.212	4.9
649.397	4.96
649.583	5.09
649.769	5.14
649.955	5.19
650.141	5.38
650.327	5.38
650.513	5.47
650.698	5.6
650.884	5.51
651.07	5.79
651.256	5.87
651.442	5.95
651.627	5.89
651.813	6.19
651.999	6.14
652.184	6.3
652.37	6.34
652.556	6.52
652.741	6.62
652.927	6.51
653.113	6.78
653.298	6.86
653.484	6.84
653.669	6.97
653.855	7.12
654.04	7.28
654.226	7.33
654.412	7.34
654.597	7.36
654.782	7.59
654.968	7.64
655.153	7.76
655.339	7.89
655.524	7.89
655.71	8.04
655.895	8.1
656.08	8.28
656.266	8.37
656.451	8.26
656.636	8.3
656.822	8.49
657.007	8.57
657.192	8.62
657.378	8.58
657.563	8.48
657.748	8.65
657.933	8.71
658.118	8.49
658.304	8.74
658.489	8.79
658.674	8.59
658.859	8.58
659.044	8.57
659.229	8.46
659.414	8.43
659.599	8.4
659.785	8.22
659.97	8.16
660.155	7.99
660.34	7.92
660.525	7.72
660.71	7.6
660.895	7.47
661.08	7.22
661.264	6.94
661.449	6.85
661.634	6.63
661.819	6.53
662.004	6.31
662.189	6.15
662.374	5.93
662.559	5.73
662.743	5.44
662.928	5.37
663.113	5.12
663.298	4.99
663.483	4.75
663.667	4.59
663.852	4.46
664.037	4.38
664.221	4.14
664.406	4.02
664.591	3.91
664.775	3.72
664.96	3.59
665.145	3.4
665.329	3.26
665.514	3.11
665.698	3.03
665.883	2.86
666.068	2.86
666.252	2.68
666.437	2.56
666.621	2.48
666.806	2.43
666.99	2.31
667.174	2.21
667.359	2.21
667.543	2.08
667.728	1.94
667.912	1.83
668.096	1.81
668.281	1.71
668.465	1.69
668.649	1.65
668.834	1.59
669.018	1.56
669.202	1.49
669.387	1.4
669.571	1.38
669.755	1.28
669.939	1.31
670.124	1.21
670.308	1.21
670.492	1.17
670.676	1.1
670.86	1.07
671.044	0.97
671.228	1.02
671.413	0.94
671.597	0.94
671.781	0.85
671.965	0.87
672.149	0.81
672.333	0.84
672.517	0.74
672.701	0.79
672.885	0.71
673.069	0.6
673.253	0.74
673.437	0.62
673.621	0.61
673.804	0.62
673.988	0.61
674.172	0.58
674.356	0.49
674.54	0.55
674.724	0.59
674.908	0.46
675.091	0.55
675.275	0.43
675.459	0.45
675.643	0.44
675.826	0.38
676.01	0.43
676.194	0.35
676.377	0.4
676.561	0.42
676.745	0.38
676.928	0.4
677.112	0.36
677.296	0.28
677.479	0.32
677.663	0.28
677.846	0.31
678.03	0.29
678.213	0.26
678.397	0.27
678.58	0.25
678.764	0.25
678.947	0.21
679.131	0.18
679.314	0.23
679.498	0.19
679.681	0.24
679.865	0.26
680.048	0.24
680.231	0.22
680.415	0.2
680.598	0.17
680.781	0.17
680.965	0.17
681.148	0.19
681.331	0.19
681.514	0.17
681.698	0.13
681.881	0.17
682.064	0.16
682.247	0.13
682.43	0.06
682.614	0.18
682.797	0.19
682.98	0.13
683.163	0.1
683.346	0.17
683.529	0.15
683.712	0.13
683.895	0.14
684.078	0.08
684.261	0.05
684.444	0.15
684.627	0.12
684.81	0.12
684.993	0.1
685.176	0.15
685.359	0.05
685.542	0.08
685.725	0.15
685.908	0.05
686.091	0.08
686.274	0.15
686.457	0.07
686.639	0.08
686.822	0.12
687.005	0.07
687.188	0.13
687.371	0.16
687.553	0.14
687.736	0.1
687.919	0.11
688.102	0.13
688.284	0.06
688.467	0.06
688.65	0.04
688.832	0.05
689.015	0.07
689.197	-0.03
689.38	0.11
689.563	0.17
689.745	0.08
689.928	0.08
690.11	0.04
690.293	0.09
690.475	-0.04
690.658	0.08
690.84	0.1
691.023	0.03
691.205	0.02
691.388	0.01
691.57	0.1
691.752	0.08
691.935	0
692.117	0.04
692.3	0.07
692.482	0.04
692.664	0.01
692.847	0.1
693.029	0.15
693.211	0.06
693.393	0.08
693.576	0.03
693.758	0.05
693.94	0.03
694.122	0.02
694.304	0.02
694.487	-0
694.669	0.08
694.851	0
695.033	0.07
695.215	0.02
695.397	0.04
695.579	0.07
695.761	0.01
695.943	-0.04
696.125	0.14
696.308	0.07
696.49	-0.06
696.671	0.15
696.853	0.06
697.035	0.2
697.217	0.07
697.399	0.07
697.581	-0.04
697.763	0.04
697.945	-0.04
698.127	0.02
698.309	0.11
698.491	0.07
698.672	0.09
698.854	0.06
699.036	0.15
699.218	0.01
699.399	0.13
699.581	0.06
699.763	-0.02
699.945	0.07
700.126	-0
700.308	0.03
700.49	0.05
700.671	-0.07
700.853	0.03
701.035	0
701.216	0.02
701.398	-0.01
701.579	0.01
701.761	0.09
701.943	-0.02
702.124	-0.03
702.306	-0
702.487	0.17
702.669	0.06
702.85	-0.01
703.031	-0.02
703.213	0.12
703.394	0.11
703.576	0.02
703.757	0.13
703.938	0.13
704.12	0.18
704.301	0
704.483	-0.01
704.664	0.04
704.845	0.07
705.026	0.06
705.208	-0.02
705.389	0.07
705.57	0.08
705.751	-0.02
705.933	0.01
706.114	0.1
706.295	0.06
706.476	-0.04
706.657	0.1
706.838	0.04
707.02	0.1
707.201	0.02
707.382	0.02
707.563	0.04
707.744	0.03
707.925	0.02
708.106	-0.01
708.287	0.01
708.468	0.11
708.649	0.03
708.83	0.06
709.011	0.01
709.192	0.07
709.373	0.01
709.554	0.04
709.734	-0
709.915	0.06
710.096	0.07
710.277	-0.08
710.458	0.06
710.639	0.11
710.819	0.01
711	-0.03
711.181	0.12
711.362	0.06
711.542	0.02
711.723	-0.01
711.904	0.06
712.085	0.04
712.265	0.09
712.446	-0.03
712.627	0.01
712.807	0.05
712.988	0.02
713.168	-0.09
713.349	0.05
713.53	-0.09
713.71	0.01
713.891	-0.07
714.071	-0.01
714.252	0.04
714.432	-0.04
714.613	-0.04
714.793	0.02
714.974	0.17
715.154	0.18
715.334	0.08
715.515	0.1
715.695	-0.04
715.876	0.08
716.056	0.04
716.236	-0.01
716.417	-0.04
716.597	-0.01
716.777	0.15
716.957	-0.02
717.138	0.07
717.318	0.03
717.498	-0.05
717.678	0.04
717.859	0.06
718.039	-0.02
718.219	0.06
718.399	0.1
718.579	-0.05
718.759	-0.06
718.939	0.06
719.12	0.01
719.3	0.11
719.48	-0.13
719.66	-0.05
719.84	0.12
720.02	0.05
720.2	-0.05
720.38	-0.02
720.56	0.08
720.74	-0.03
720.92	0.07
721.1	0.11
721.279	0.09
721.459	0.01
721.639	-0.04
721.819	0.03
721.999	0.01
722.179	0.07
722.359	-0.02
722.538	0.04
722.718	0.02
722.898	-0.04
723.078	-0.05
723.257	-0.03
723.437	0.07
723.617	-0
723.797	0.07
723.976	0.02
724.156	0.08
724.336	0.11
724.515	0.22
724.695	-0.14
724.874	0.12
725.054	0.04
725.234	-0.14
725.413	0.06
725.593	-0.02
725.772	0.03
725.952	-0.07
726.131	0.03
726.311	0.06
726.49	-0
726.67	-0.03
726.849	0.05
727.028	0.1
727.208	-0.09
727.387	0.06
727.567	-0.06
727.746	-0.01
727.925	0
728.105	-0.08
728.284	-0.06
728.463	-0.07
728.643	0.06
728.822	-0.11
729.001	0.02
729.18	0.08
729.359	-0.05
729.539	0.04
729.718	0.01
729.897	0.06
730.076	0.02
730.255	-0.1
730.434	0.04
730.614	0.01
730.793	0.08
730.972	0.05
731.151	0.05
731.33	0.18
731.509	0.05
731.688	0.08
731.867	0.02
732.046	-0.07
732.225	0.21
732.404	0
732.583	-0.09
732.762	-0.02
732.941	0.08
733.12	0.03
733.298	-0.03
733.477	0.19
733.656	0.03
733.835	-0.03
734.014	0.05
734.193	0.05
734.371	0.05
734.55	0.09
734.729	-0.03
734.908	0.01
735.086	0.02
735.265	0.17
735.444	-0.1
735.623	-0.05
735.801	-0.06
735.98	0.02
736.159	0.06
736.337	0.08
736.516	0.01
736.694	0.02
736.873	-0.01
737.052	0.12
737.23	0.09
737.409	-0.04
737.587	0.1
737.766	-0.09
737.944	0.04
738.123	0.09
738.301	0.12
738.479	-0.04
738.658	0.16
738.836	-0.15
739.015	0.08
739.193	0.18
739.371	-0.04
739.55	-0.05
739.728	-0.04
739.906	0.06
740.085	0.17
740.263	-0.04
740.441	-0.17
740.62	0.17
740.798	0.11
740.976	-0.03
741.154	-0.04
741.332	0.13
741.511	0.08
741.689	0.15
741.867	0.12
742.045	-0.02
742.223	0.02
742.401	-0.05
742.579	0.07
742.757	0.06
742.935	-0.13
743.114	0.05
743.292	-0.05
743.47	0.06
743.648	0.06
743.826	0.07
744.004	0.19
744.181	0.05
744.359	-0.07
744.537	0.06
744.715	-0.1
744.893	0.01
745.071	-0.03
745.249	0.07
745.427	-0.02
745.605	0.16
745.782	-0.08
745.96	0.1
746.138	0.1
746.316	0.13
746.493	-0.03
746.671	0.04
746.849	0.01
747.027	0.18
747.204	-0.06
747.382	0.05
747.56	-0.12
747.737	-0.05
747.915	-0.1
748.093	0.09
748.27	-0.02
748.448	-0.04
748.625	-0.14
748.803	-0.06
748.98	0.02
749.158	0.13
749.335	0.08
749.513	-0.03
749.69	0.02
749.868	0.05
750.045	0.08
750.223	0.03
750.4	-0.13
750.578	0.21
750.755	0.12
750.932	-0.11
751.11	0.2
751.287	-0.17
751.464	0.15
751.642	-0.03
751.819	0.01
751.996	0.01
752.173	-0.02
752.351	-0.03
752.528	0.03
752.705	-0.03
752.882	-0.06
753.06	0.11
753.237	0.08
753.414	0.24
753.591	0.12
753.768	0.06
753.945	-0.03
754.122	0.03
754.299	0.14
754.476	-0
754.654	0.04
754.831	-0.12
755.008	0.11
755.185	0.01
755.362	-0.1
755.539	-0.06
755.716	-0.04
755.892	0.01
756.069	-0.04
756.246	0.07
756.423	-0.1
756.6	0.14
756.777	0.04
756.954	0.18
757.131	-0.03
757.307	-0.06
757.484	-0.04
757.661	-0.01
757.838	0.01
758.015	-0.06
758.191	0.02
758.368	0.01
758.545	0.17
758.721	0.09
758.898	-0.12
759.075	-0.01
759.251	0.1
759.428	0
759.605	-0.13
759.781	-0.1
759.958	0.17
760.134	0.06
760.311	-0.04
760.488	0.12
760.664	0.15
760.841	0
761.017	-0.03
761.194	0.04
761.37	0.08
761.547	0.06
761.723	-0.05
761.899	0.09
762.076	-0.13
762.252	-0.09
762.429	-0.02
762.605	0.12
762.781	-0.05
762.958	0.12
763.134	-0
763.31	0.02
763.486	0.11
763.663	-0.18
763.839	0.1
764.015	-0.08
764.191	-0.05
764.368	-0.02
764.544	-0.11
764.72	-0.02
764.896	0.07
765.072	0.06
765.248	-0.08
765.425	0.08
765.601	0.04
765.777	0.06
765.953	-0.2
766.129	-0
766.305	-0.03
766.481	-0.06
766.657	-0.05
766.833	0.16
767.009	-0
767.185	0.06
767.361	-0.01
767.537	-0.15
767.713	0.2
767.889	-0.07
768.065	-0.02
768.24	0.07
768.416	0.14
768.592	-0.02
768.768	0.01
768.944	-0.01
769.12	-0.13
769.295	0.06
769.471	0.05
769.647	0.08
769.823	0.13
769.998	-0.18
770.174	-0.01
770.35	0.32
770.525	0.21
770.701	0.03
770.877	-0.03
771.052	-0.07
771.228	0.19
771.403	0.06
771.579	0.11
771.755	0.33
771.93	-0.09
772.106	-0.19
772.281	-0.2
772.457	0.02
772.632	0.09
772.808	-0.16
772.983	-0.05
773.159	-0.12
773.334	0.15
773.509	0.15
773.685	-0.09
773.86	0.27
774.036	0.16
774.211	0.09
774.386	-0.09
774.562	-0.11
774.737	0.14
774.912	-0.07
775.087	0.1
775.263	-0.07
775.438	0.04
775.613	-0.08
775.788	-0.06
775.964	0.2
776.139	0.36
776.314	-0.12
776.489	0.05
776.664	-0.06
776.839	-0.08
777.014	0.2
777.19	0.15
777.365	0.16
777.54	0.23
777.715	-0.11
777.89	-0.06
778.065	-0.19
778.24	0.12
778.415	0.09
778.59	-0.02
778.765	-0.14
778.94	0.1
779.115	-0.01
779.289	-0.09
779.464	-0.09
779.639	0
779.814	-0.08
779.989	-0.17
780.164	0.17
780.339	0.16
780.513	-0.2
780.688	-0.02
780.863	0.18
781.038	0.15
781.212	-0.14
781.387	0.04
781.562	0.34
781.737	0.06
781.911	0.17
782.086	-0.1
782.261	0
782.435	0.38
782.61	-0.08
782.784	-0.09
782.959	0.05
783.134	-0.04
783.308	-0.35
783.483	-0.09
783.657	0.24
783.832	0.02
784.006	-0.26
784.181	0.07
784.355	0.27
784.53	-0.16
784.704	0.07
784.878	0.25
785.053	-0.02
785.227	0.07
785.402	0.3
785.576	-0.32
785.75	0.08
785.925	0.19
786.099	0.05
786.273	0.13
786.448	0.16
786.622	0.24
786.796	-0.05
786.97	0.19
787.145	0.48
787.319	-0.31
787.493	-0.01
787.667	-0.18
787.841	0.08
788.015	0.15
788.19	-0.13
788.364	0.14
788.538	-0.03
788.712	0.2
788.886	-0.12
789.06	0.11
789.234	0.23
789.408	-0.07
789.582	0.03
789.756	-0.05
789.93	-0.17
790.104	-0.01
790.278	-0
790.452	-0.18
790.626	0.26
790.8	-0.15
790.973	0.19
791.147	0.14
791.321	0.23
791.495	-0.06
791.669	0.07
791.843	0.07
792.016	0.04
792.19	0.25
792.364	-0.24
792.538	0.48
792.711	0.21
792.885	-0.14
793.059	-0.09
793.233	-0.52
793.406	-0.06
793.58	-0
793.754	0.39
793.927	-0.06
794.101	0.14
794.274	-0.24
794.448	0.39
794.622	-0.18
794.795	0.31
794.969	-0.27
795.142	0.4
795.316	-0.03
795.489	-0.27
795.663	0.34
795.836	-0.19
796.009	-0.13
796.183	0.29
796.356	0.13
796.53	0.08
796.703	0.06
796.876	0.57
797.05	0.05
797.223	-0.11
797.396	0.12
797.57	0.09
797.743	0.51
797.916	0.08
798.09	0.01
798.263	0.17
798.436	0.2
798.609	-0.14
798.782	0.11
798.956	-0.05
799.129	0.03
799.302	0.19
799.475	-0.02
799.648	-0.12
799.821	-0.22
799.994	-0.05
800.167	-0.32
800.34	0.04
800.514	0
800.687	-0.09
800.86	-0.15
801.033	0.07
801.206	0.27
801.379	-0.16
801.551	0.14
801.724	0.42
801.897	0.52
802.07	0.03
802.243	-0.22
802.416	0.05
802.589	-0.07
802.762	0.23
802.935	0.03
803.107	0.21
803.28	0.21
803.453	0.05
803.626	-0.4
803.798	0.04
803.971	-0.35
804.144	0.3
804.317	0.09
804.489	0.13
804.662	0.21
804.835	0.08
805.007	-0.17
805.18	0.15
805.353	0.35
805.525	-0.09
805.698	0
805.87	0.37
806.043	0.26
806.215	-0.46
806.388	-0.28
806.56	0.12
806.733	0.45
806.905	0.27
807.078	0.17
807.25	-0.21
807.423	0
807.595	0.02
807.768	-0.21
807.94	0.21
808.112	-0.15
808.285	-0.08
808.457	-0.05
808.629	0.03
808.802	-0.07
808.974	0.09
809.146	-0.18
809.318	-0.05
809.491	0.18
809.663	0.13
809.835	-0.13
810.007	0.08
810.18	-0.04
810.352	-0.18
810.524	-0.01
810.696	0.04
810.868	0.25
811.04	0.12
811.212	-0.21
811.384	0.3
811.556	0.13
811.728	0.16
811.901	0.51
812.073	-0.17
812.245	0.35
812.417	-0
812.589	-0.48
812.76	-0.05
812.932	0.31
813.104	0.23
813.276	0.03
813.448	0.29
813.62	-0.06
813.792	0.31
813.964	0.18
814.136	0.2
814.307	0.21
814.479	-0.19
814.651	-0.37
814.823	0.87
814.995	-0.2
815.166	0.08
815.338	-0.15
815.51	-0.25
815.681	0.43
815.853	0.08
816.025	-0.15
816.196	0.43
816.368	-0.02
816.54	-0.24
816.711	-0.48
816.883	0.32
817.054	0.78
817.226	-0.11
817.398	0.71
817.569	0.14
817.741	0.18
817.912	-0.16
818.084	0.42
818.255	0.3
818.426	0.19
818.598	0.04
818.769	0.05
818.941	-0.2
819.112	0.68
819.283	0.22
819.455	-0.25
819.626	-0.12
819.798	0.22
819.969	0.18
820.14	-0.2
820.311	-0.06
820.483	0.13
820.654	-0.19
820.825	0.16
820.996	-0.28
821.168	-0.07
821.339	-0.17
821.51	-0.57
821.681	0.11
821.852	-0.12
822.023	-0.23
822.195	-0.53
822.366	0.45
822.537	0.21
822.708	0.2
822.879	-0.35
823.05	0.35
823.221	-0.14
823.392	0.16
823.563	-0.36
823.734	0.21
823.905	-0.18
824.076	-0.61
824.247	0.02
824.418	-0.49
824.589	0.67
824.759	0.36
824.93	0.28
825.101	-0.41
825.272	0.22
825.443	0.56
825.614	-0.03
825.784	-0.88
825.955	0.77
826.126	0.59
826.297	0.24
826.467	0.49
826.638	0.69
826.809	-0.76
826.98	-0.19
827.15	-0.14
827.321	-0.08
827.492	0.44
827.662	0.26
827.833	0.72
828.003	-0.23
828.174	-0.09
828.345	-0.51
828.515	1.04
828.686	0.17
828.856	0
829.027	0.24
829.197	0.22
829.368	0.69
829.538	-0.29
829.709	-0.34
829.879	0.67
830.049	0.44
830.22	0.17
830.39	0.55
830.56	1.29
830.731	-0.21
830.901	-0.44
831.072	-0.27
831.242	-0.08
831.412	0.44
831.582	0.7
831.753	-0.24
831.923	0.31
832.093	-0.26
832.263	0.23
832.434	-0.62
832.604	0.02
832.774	-0.36
832.944	-0.14
833.114	-0.25
833.284	0.62
833.454	-0.72
833.624	-0.13
833.795	-0.51
833.965	0.57
834.135	0.61
834.305	-0.42
834.475	-1.11
834.645	-0.47
834.815	0.07
834.985	-0.25
835.155	-0.12
835.325	0.38
835.494	0.06
835.664	-0.04
835.834	-0.12
836.004	0.19
836.174	0.44
836.344	-0.33
836.514	-0.51
836.684	0.21
836.853	0.69
837.023	0.22
837.193	-0.56
837.363	0.27
837.532	0.36
837.702	-0.4
837.872	-0.59
838.041	0.7
838.211	1.13
838.381	-0.18
838.55	0.38
838.72	1.7
838.89	1.25
839.059	-0.34
839.229	-0.54
839.398	0.8
839.568	0.42
839.738	-0.31
839.907	0.56
840.077	0.3
840.246	0.11
840.416	-1.08
840.585	-1.1
840.755	0.94
840.924	1.21
841.093	-0.15
841.263	-0.41
841.432	0.36
841.602	-0.47
841.771	-0.31
841.94	-0.12
842.11	1.03
842.279	1.08
842.448	-0.01
842.617	-0.41
842.787	1.48
842.956	-0.93
843.125	0.51
843.294	0.9
843.464	1.18
843.633	-0.18
843.802	-1.1
843.971	0.05
844.14	0.03
844.309	0.94
844.479	-0.18
844.648	-0.42
844.817	0.08
844.986	-0.15
845.155	0.51
845.324	0.03
845.493	0.13
845.662	-0.23
845.831	0.71
846	0.49
846.169	-0.76
846.338	1.01
846.507	-0.02
846.676	0.53
846.844	-0.17
847.013	1.02
847.182	0.47
847.351	0.06
847.52	0.06
847.689	0.44
847.858	-0.19
848.026	0.06
848.195	-0.54
848.364	0.18
848.533	-0.48
848.701	-0.07
848.87	0.3
849.039	0.81
849.207	1.47
849.376	1.33
849.545	0.82
849.713	0.64
849.882	0.12
850.051	0.11
850.219	-0.14
850.388	0.3
850.556	-0.71
850.725	0.03
850.893	0.8
851.062	0.07
851.23	0.94
851.399	-1.09
851.567	-0.2
851.736	-0.53
851.904	-0.37
852.073	1.08
852.241	0.96
852.41	1.07
852.578	-0.25
852.746	-0.28
852.915	0.25
853.083	-0.72
853.251	-0.31
853.42	-0.55
853.588	-0.17
853.756	0.87
853.924	-0.32
854.093	-0.55
854.261	-0.23
854.429	-1.36
854.597	0.54
854.765	-1.29
854.934	0.92
855.102	1.49
855.27	0.05
855.438	0.91
855.606	1.71
855.774	0.74
855.942	-1.06
856.11	-1.31
856.278	0.4
856.446	1.46
856.614	1.02
856.782	-1.46
856.95	1.08
857.118	0.88
857.286	-0.11
857.454	-0.9
857.622	2.02
857.79	0.02
857.958	-1.33
858.126	0.29
858.294	-3.23
858.462	0.66
858.629	0.39
858.797	0.44
858.965	0.32
859.133	-1.28
859.301	0.34
859.468	-0.2
859.636	-0.02
859.804	1.26
859.971	0.17
860.139	0.68
860.307	0.82
860.474	0.73
860.642	-0.92
860.81	-0.27
860.977	0.47
861.145	0.47
861.313	-0.16
861.48	-1.47
861.648	1.03
861.815	0.38
861.983	-0.49
862.15	-0.75
862.318	1.32
862.485	0.4
862.653	-0.81
862.82	-0.57
862.988	0.92
863.155	0.38
863.322	-0.63
863.49	-1.28
863.657	-1.76
863.824	1.49
863.992	0.76
864.159	-0.23
864.326	1.34
864.494	-0.18
864.661	3.44
864.828	-1.15
864.996	1.53
865.163	2.94
865.33	-1.19
865.497	-2.39
865.664	-0.59
865.832	-1.17
865.999	-1.24
866.166	-0.68
866.333	-0.52
866.5	0.57
866.667	0.57
866.834	0.63
867.001	1.64
867.168	-3.15
867.335	0.31
867.502	-1.35
867.669	-0.12
867.836	1.37
868.003	-0.31
868.17	-0.35
868.337	-1.7
868.504	2.29
868.671	-2.27
868.838	-1.17
869.005	-0.45
869.172	-0.4
869.339	-0.04
869.505	1
869.672	-0.22
869.839	1.59
870.006	0.57
870.173	-2.06
870.339	0.44
870.506	2.86
870.673	-1.8
870.84	1.49
871.006	0.27
871.173	0.34
871.34	1.25
871.506	-1.55
871.673	0.3
871.839	-1.17
872.006	0.72
872.173	-0.8
872.339	0.46
872.506	-0.01
872.672	0.98
872.839	-0.36
873.005	-0.26
873.172	3.6
873.338	1
873.505	1.54
873.671	2.71
873.838	0.77
874.004	-1.75
874.171	0.02
874.337	1.22
874.503	1.21
874.67	-1.62
874.836	-1.29
875.002	1.87
875.169	0.28
875.335	0.47
875.501	-0.73
875.668	1.18
875.834	-1.57
876	0.11
876.166	-0.73
876.332	0.33
876.499	2.17
876.665	-1.43
876.831	1.41
876.997	3.44
877.163	0.92
877.329	-0.23
877.495	2.62
877.662	0.46
877.828	-0.18
877.994	-0.88
878.16	-2.38
878.326	-0.79
878.492	0.34
878.658	1.08
878.824	0.56
878.99	2.38
879.156	-0.07
879.322	2.75
879.487	0.75
879.653	-0.15
879.819	0.49
879.985	-1.13
880.151	0.53
880.317	1.01
880.483	0.36
880.648	1.61
880.814	-2.22
880.98	1.84
881.146	-1.29
881.312	0.36
881.477	-2.01
881.643	2.54
881.809	2.56
881.974	1.68
882.14	-1.65
882.306	0.66
882.471	2.51
882.637	0.75
882.803	1.13
882.968	1.82
883.134	2.25
883.299	-1.08
883.465	1.14
883.63	1.89
883.796	1.05
883.961	1.4
884.127	0.82
884.292	-2.56
884.458	-1.12
884.623	-1.12
