Data from Apollo_Calib_20240827__AbsoluteIrradiance__467__06-56-02-098.txt Node

Date: Wed Aug 28 06:56:02 BST 2024
User: biology
Spectrometer: FLMT08252
Trigger mode: 0
Integration Time (sec): 5.000000E-1
Scans to average: 5
Electric dark correction enabled: true
Nonlinearity correction enabled: false
Boxcar width: 0
XAxis mode: Wavelengths
Number of Pixels in Spectrum: 3648
>>>>>Begin Spectral Data<<<<<
179.588	-0
179.809	-0
180.03	-0
180.251	-0
180.473	-0
180.694	0
180.915	0
181.136	-0
181.357	-0
181.578	-0
181.799	0
182.02	-0
182.241	0
182.462	-0
182.683	0
182.904	-0
183.125	0
183.346	0
183.567	0
183.788	0
184.009	-0
184.23	-0
184.451	0
184.672	-0
184.892	-0
185.113	0
185.334	0
185.555	-0
185.776	-0
185.996	-0
186.217	-0
186.438	0
186.659	-0
186.879	-0
187.1	-0
187.321	-0
187.541	-0
187.762	-0
187.983	-0
188.203	0
188.424	-0
188.644	-0
188.865	0
189.086	-0
189.306	-0
189.527	-0
189.747	-0
189.968	-0
190.188	0
190.409	-0
190.629	0
190.849	-0
191.07	-0
191.29	0
191.511	-0
191.731	-0
191.951	-0
192.172	-0
192.392	-0
192.612	-0
192.833	-0
193.053	0
193.273	0
193.493	-0
193.714	-0
193.934	0
194.154	0
194.374	0
194.594	0
194.815	0
195.035	-0
195.255	-0
195.475	-0
195.695	0
195.915	0
196.135	-0
196.355	0
196.575	0
196.795	0
197.015	-0
197.235	-0
197.455	0
197.675	0
197.895	-0
198.115	-0
198.335	-0
198.555	-0
198.775	0
198.995	-0
199.214	0
199.434	-0
199.654	-0
199.874	-0
200.094	-1.38
200.313	-0.37
200.533	-0.36
200.753	-0.65
200.973	0.76
201.192	0.45
201.412	-0.93
201.632	-0.3
201.851	0.82
202.071	-0.65
202.291	-0.53
202.51	-0.48
202.73	0.61
202.95	-0.36
203.169	-0.65
203.389	0.17
203.608	-0.08
203.828	-0.59
204.047	-0.29
204.267	0.08
204.486	-0.06
204.706	-0.05
204.925	-0.02
205.145	-0.39
205.364	0.2
205.583	0.75
205.803	-0.73
206.022	-0.76
206.242	-0.08
206.461	-0.01
206.68	-0.39
206.9	-0.04
207.119	0.2
207.338	0.64
207.557	-0.01
207.777	-0.1
207.996	0.04
208.215	0.46
208.434	-0.03
208.654	-0.67
208.873	-0.19
209.092	0.35
209.311	-0.17
209.53	-0.17
209.749	-0.07
209.968	-0.36
210.187	-0.33
210.407	-0.58
210.626	-0.18
210.845	0.06
211.064	0
211.283	-0.33
211.502	0.3
211.721	0.09
211.94	-0.02
212.159	-0.12
212.377	0.23
212.596	0.37
212.815	-0.23
213.034	0.11
213.253	0.24
213.472	0.07
213.691	-0.22
213.91	-0.22
214.128	-0.01
214.347	0.09
214.566	-0.38
214.785	-0.44
215.003	0.03
215.222	-0.05
215.441	-0.04
215.66	-0.41
215.878	0.02
216.097	0.14
216.316	-0.33
216.534	-0.06
216.753	0.09
216.972	-0.2
217.19	-0.05
217.409	-0.29
217.627	-0.36
217.846	-0.17
218.064	0.01
218.283	-0.28
218.501	0.27
218.72	0.22
218.938	-0.42
219.157	-0.17
219.375	0.08
219.594	0.03
219.812	-0.26
220.031	-0.19
220.249	0.17
220.467	0.35
220.686	-0.08
220.904	-0.16
221.122	-0.23
221.341	0.46
221.559	0.04
221.777	-0.22
221.995	-0.06
222.214	0.13
222.432	-0.1
222.65	0.12
222.868	0.01
223.086	0.06
223.305	-0.06
223.523	-0.14
223.741	0.27
223.959	-0.07
224.177	-0.4
224.395	-0.06
224.613	0.03
224.831	0.14
225.049	-0.13
225.267	-0.06
225.485	0.02
225.703	-0.11
225.921	0.03
226.139	-0.11
226.357	0.08
226.575	0.07
226.793	-0.27
227.011	0.44
227.229	-0.05
227.447	0.18
227.665	-0.12
227.883	-0.19
228.1	0.01
228.318	-0.04
228.536	-0.28
228.754	-0.14
228.972	0.06
229.189	0.08
229.407	-0.19
229.625	-0.11
229.843	0.04
230.06	0.01
230.278	-0.2
230.496	0.07
230.713	-0
230.931	0.1
231.149	-0.08
231.366	-0.29
231.584	0.02
231.801	0.21
232.019	-0.09
232.236	-0.21
232.454	-0.14
232.671	0.13
232.889	0.02
233.106	-0.18
233.324	-0.06
233.541	-0.13
233.759	-0
233.976	-0.14
234.194	-0.03
234.411	-0.1
234.628	-0.15
234.846	-0.05
235.063	-0.04
235.28	-0.03
235.498	-0.04
235.715	-0.15
235.932	0.13
236.149	-0.07
236.367	-0.08
236.584	-0.03
236.801	-0.01
237.018	-0.01
237.236	0.05
237.453	-0.13
237.67	0.13
237.887	-0
238.104	-0.08
238.321	-0.15
238.538	-0.02
238.755	0.11
238.973	-0.18
239.19	0.05
239.407	0.12
239.624	-0.04
239.841	-0.13
240.058	-0.1
240.275	0.02
240.492	0.04
240.709	-0.08
240.925	-0.11
241.142	0.01
241.359	-0.11
241.576	-0.1
241.793	-0.09
242.01	-0.08
242.227	0.08
242.444	-0.03
242.66	0.02
242.877	-0.02
243.094	-0.16
243.311	0.01
243.527	-0.04
243.744	0.01
243.961	0.02
244.178	-0.11
244.394	0.03
244.611	0.03
244.828	0.15
245.044	-0.04
245.261	-0.02
245.477	-0.05
245.694	0.06
245.911	-0.12
246.127	0.08
246.344	0.13
246.56	0.04
246.777	-0.08
246.993	-0.04
247.21	0.02
247.426	0.03
247.643	-0.12
247.859	-0.12
248.076	-0.1
248.292	0.2
248.508	-0
248.725	-0.05
248.941	0
249.157	0.15
249.374	-0.07
249.59	-0.02
249.806	-0.01
250.023	0.03
250.239	-0.09
250.455	-0.03
250.671	0.01
250.888	-0
251.104	0.04
251.32	-0.05
251.536	-0.05
251.752	-0.04
251.969	-0.03
252.185	-0.03
252.401	0.16
252.617	0.08
252.833	-0.05
253.049	-0.01
253.265	-0.02
253.481	0.04
253.697	-0.06
253.913	-0.01
254.129	0.02
254.345	0.01
254.561	-0.02
254.777	-0.03
254.993	0.07
255.209	0.01
255.425	-0.08
255.641	-0.04
255.857	0.03
256.073	0.05
256.288	-0.09
256.504	-0.03
256.72	-0.02
256.936	0.08
257.152	-0.08
257.367	-0.07
257.583	-0.06
257.799	0.05
258.015	-0.02
258.23	-0.05
258.446	0.1
258.662	0.01
258.877	-0.17
259.093	-0.11
259.309	-0.02
259.524	0.06
259.74	-0.06
259.955	-0.13
260.171	-0.05
260.387	-0.02
260.602	0.04
260.818	-0.03
261.033	-0.03
261.249	-0.12
261.464	-0.08
261.68	-0.08
261.895	-0.01
262.11	-0
262.326	-0.01
262.541	-0.12
262.757	0.11
262.972	0.04
263.187	-0
263.403	-0.02
263.618	0.09
263.833	0.03
264.049	-0.05
264.264	-0.06
264.479	0.06
264.694	0.07
264.91	-0.07
265.125	-0.06
265.34	0.08
265.555	0.09
265.77	0.04
265.986	-0.09
266.201	0
266.416	0.12
266.631	-0.02
266.846	-0.05
267.061	0.03
267.276	0.07
267.491	-0.14
267.706	0
267.921	-0.01
268.136	-0.01
268.351	-0.02
268.566	-0.07
268.781	0.08
268.996	0.02
269.211	-0
269.426	-0.11
269.641	-0.08
269.856	0.04
270.071	-0.09
270.285	-0.13
270.5	-0
270.715	0.07
270.93	-0.02
271.145	0.01
271.359	0.07
271.574	-0.03
271.789	-0.04
272.004	-0.05
272.218	-0.08
272.433	0.03
272.648	0.01
272.862	0.02
273.077	-0.01
273.292	0.05
273.506	-0.04
273.721	-0.02
273.936	0.04
274.15	0.08
274.365	-0.02
274.579	0.06
274.794	0.04
275.008	0.09
275.223	-0.07
275.437	-0.03
275.652	-0.01
275.866	0.13
276.081	-0.01
276.295	-0.02
276.509	0.01
276.724	-0.01
276.938	-0
277.153	0.06
277.367	0.05
277.581	-0.02
277.796	-0.05
278.01	-0.08
278.224	0.05
278.438	0.09
278.653	-0.08
278.867	-0.07
279.081	-0.11
279.295	-0.01
279.51	0.04
279.724	-0.08
279.938	0.05
280.152	0.01
280.366	-0.06
280.58	0
280.794	0.05
281.008	0.02
281.222	0.08
281.437	0.08
281.651	0.02
281.865	0.07
282.079	0.03
282.293	-0.06
282.507	-0.05
282.721	0.01
282.935	-0.04
283.148	-0.11
283.362	-0.03
283.576	-0.09
283.79	-0.01
284.004	-0.05
284.218	0.04
284.432	-0.08
284.646	-0.01
284.859	-0.02
285.073	-0.02
285.287	0.01
285.501	-0.01
285.714	-0.04
285.928	-0
286.142	0.01
286.356	0.03
286.569	-0.04
286.783	0.04
286.997	0.01
287.21	-0.02
287.424	0.01
287.637	-0.07
287.851	-0.03
288.065	-0
288.278	-0.02
288.492	-0.01
288.705	-0.01
288.919	-0.05
289.132	-0.05
289.346	0.1
289.559	-0.03
289.773	-0.07
289.986	0.01
290.2	-0.02
290.413	0.05
290.626	-0.05
290.84	-0.07
291.053	-0.02
291.267	0.07
291.48	0.04
291.693	0
291.906	-0.05
292.12	-0.02
292.333	-0.03
292.546	-0.03
292.76	0.09
292.973	0.01
293.186	0.05
293.399	-0.04
293.612	0.05
293.826	0
294.039	0.03
294.252	-0.04
294.465	0.03
294.678	0.03
294.891	0.04
295.104	-0.07
295.317	-0.02
295.53	0
295.743	-0.03
295.956	-0.03
296.169	0.1
296.382	0.05
296.595	-0
296.808	-0.06
297.021	0.04
297.234	0.03
297.447	0.04
297.66	0.02
297.873	0.07
298.086	0.02
298.299	-0.05
298.511	-0.08
298.724	-0.01
298.937	-0.03
299.15	-0
299.363	-0
299.575	0.01
299.788	0.03
300.001	-0.03
300.213	-0.05
300.426	-0.02
300.639	-0.03
300.852	-0.04
301.064	0.05
301.277	0.05
301.489	0.03
301.702	0
301.915	-0.06
302.127	-0.03
302.34	0.03
302.552	0.02
302.765	-0.03
302.977	0.05
303.19	0
303.402	-0.03
303.615	-0.02
303.827	-0.03
304.04	-0.05
304.252	0.07
304.464	-0.02
304.677	0.08
304.889	0.03
305.102	-0.04
305.314	-0.03
305.526	0.06
305.739	0.03
305.951	-0.02
306.163	-0.02
306.375	0.02
306.588	-0.02
306.8	-0.02
307.012	-0.07
307.224	0.01
307.436	0.09
307.649	-0.07
307.861	0.09
308.073	0.01
308.285	-0.01
308.497	-0.03
308.709	-0.01
308.921	0.03
309.133	0.05
309.346	0.01
309.558	-0.05
309.77	0.03
309.982	0.06
310.194	0.02
310.406	-0.01
310.617	0.07
310.829	0.05
311.041	0.03
311.253	-0.02
311.465	-0.06
311.677	-0.01
311.889	-0.01
312.101	-0.02
312.313	0.02
312.524	0.07
312.736	0.02
312.948	-0.03
313.16	0.07
313.372	0.02
313.583	0.04
313.795	-0.04
314.007	-0.03
314.218	0.04
314.43	0.01
314.642	-0.01
314.853	-0.08
315.065	0.03
315.277	-0.04
315.488	-0.01
315.7	0.03
315.912	0.04
316.123	0
316.335	-0.02
316.546	0.07
316.758	0.02
316.969	-0.04
317.181	0.03
317.392	-0.04
317.604	0.03
317.815	-0.02
318.026	-0.02
318.238	-0.05
318.449	0.02
318.661	-0.05
318.872	-0.07
319.083	-0.07
319.295	0.02
319.506	0.01
319.717	0.02
319.929	0.04
320.14	0
320.351	0.01
320.562	-0.01
320.774	0.01
320.985	0.04
321.196	-0.01
321.407	-0.06
321.618	0.02
321.829	-0
322.041	0.03
322.252	0.02
322.463	0.01
322.674	0.02
322.885	-0.05
323.096	-0.04
323.307	0.01
323.518	-0.02
323.729	-0.07
323.94	-0.03
324.151	-0.01
324.362	0.01
324.573	0.02
324.784	-0.04
324.995	0.05
325.206	0.03
325.417	0.01
325.628	-0.03
325.838	0.03
326.049	0
326.26	0.04
326.471	-0.01
326.682	-0.01
326.892	0.07
327.103	-0.1
327.314	-0.07
327.525	0.05
327.735	-0.05
327.946	0
328.157	-0.04
328.368	-0.01
328.578	-0.08
328.789	-0.02
328.999	0.01
329.21	-0.04
329.421	0.01
329.631	-0.02
329.842	-0.07
330.052	0.01
330.263	0.02
330.473	0
330.684	-0.05
330.894	-0.04
331.105	-0.04
331.315	0.02
331.526	-0.06
331.736	0.07
331.947	0.02
332.157	-0
332.367	-0.06
332.578	0.02
332.788	0.06
332.999	0.03
333.209	-0.01
333.419	-0.07
333.629	0.01
333.84	0.04
334.05	-0.02
334.26	0.02
334.47	0.04
334.681	0.04
334.891	-0.03
335.101	0.05
335.311	0.08
335.521	-0.01
335.732	-0.05
335.942	0.09
336.152	0.02
336.362	0.01
336.572	0.02
336.782	0.04
336.992	-0.02
337.202	-0.04
337.412	-0.06
337.622	0
337.832	0.01
338.042	0.01
338.252	-0.03
338.462	-0.03
338.672	-0.01
338.882	0
339.092	-0
339.302	0.01
339.511	0.04
339.721	-0.02
339.931	-0.08
340.141	0.06
340.351	0.06
340.561	-0.01
340.77	-0.03
340.98	-0.01
341.19	0.04
341.4	-0.03
341.609	-0.01
341.819	0.03
342.029	-0.06
342.238	0.01
342.448	0.01
342.658	0.01
342.867	-0.03
343.077	-0.01
343.286	0.01
343.496	-0.02
343.706	0.06
343.915	-0.04
344.125	-0.02
344.334	0.03
344.544	-0.05
344.753	-0.03
344.963	-0.01
345.172	-0.05
345.381	-0.04
345.591	-0
345.8	-0.01
346.01	0.04
346.219	0.04
346.428	-0.15
346.638	-0.02
346.847	0
347.056	0.03
347.266	-0.05
347.475	-0.04
347.684	-0.01
347.893	0
348.103	0.03
348.312	-0
348.521	-0.04
348.73	-0.03
348.94	-0
349.149	-0.04
349.358	-0.01
349.567	-0.03
349.776	-0.07
349.985	-0.02
350.194	0.04
350.403	0.06
350.612	-0.03
350.821	-0.02
351.03	-0.02
351.239	-0.02
351.448	0.02
351.657	-0.06
351.866	0.01
352.075	-0.01
352.284	0.05
352.493	-0.04
352.702	0.04
352.911	0
353.12	0.02
353.329	-0.06
353.538	0.02
353.746	0
353.955	-0.05
354.164	-0.01
354.373	0.01
354.582	0.02
354.79	0.01
354.999	0.03
355.208	-0.02
355.416	0.06
355.625	-0.05
355.834	-0.02
356.042	-0.01
356.251	-0.03
356.46	-0.03
356.668	-0.03
356.877	0.08
357.085	0.03
357.294	-0.09
357.503	0.01
357.711	0.01
357.92	0.09
358.128	-0.02
358.337	0.01
358.545	0.01
358.754	-0
358.962	0.03
359.17	-0.01
359.379	-0.02
359.587	-0.02
359.796	-0.01
360.004	0.04
360.212	0
360.421	0.05
360.629	-0.01
360.837	-0.01
361.046	0.03
361.254	0.03
361.462	0.02
361.67	-0.05
361.879	0.01
362.087	0.04
362.295	0
362.503	-0.02
362.711	-0.04
362.92	-0.03
363.128	-0.02
363.336	-0.04
363.544	-0.06
363.752	-0.01
363.96	-0.01
364.168	-0.04
364.376	-0.02
364.584	-0
364.792	0.05
365	0
365.208	-0.02
365.416	0
365.624	0.04
365.832	-0.02
366.04	0.06
366.248	0
366.456	0.04
366.664	0.05
366.872	-0.01
367.079	-0.02
367.287	-0
367.495	0
367.703	-0
367.911	0.01
368.118	0.01
368.326	-0.02
368.534	-0.05
368.742	0.08
368.949	-0.05
369.157	-0.03
369.365	0.08
369.572	-0.02
369.78	-0.06
369.988	0.03
370.195	0.03
370.403	0.03
370.61	-0.02
370.818	-0.01
371.026	0.04
371.233	-0.04
371.441	-0.03
371.648	-0.01
371.856	0.01
372.063	0.02
372.271	-0.03
372.478	-0.03
372.685	-0.04
372.893	0.04
373.1	0.01
373.308	-0.03
373.515	0.06
373.722	0.03
373.93	-0.03
374.137	0.02
374.344	0.06
374.552	0.02
374.759	0.04
374.966	-0.02
375.173	-0.02
375.381	0.03
375.588	0.01
375.795	-0.06
376.002	-0.05
376.209	-0.02
376.417	-0.01
376.624	0.04
376.831	0.01
377.038	-0.01
377.245	-0.07
377.452	-0.01
377.659	-0.02
377.866	-0.02
378.073	-0.03
378.28	-0.03
378.487	-0.01
378.694	0.04
378.901	0.02
379.108	0.02
379.315	0.06
379.522	0.06
379.729	-0.01
379.936	0.01
380.143	0.01
380.35	-0.01
380.557	0
380.763	0.01
380.97	-0.04
381.177	0.01
381.384	0.01
381.591	0.02
381.797	-0.01
382.004	0.01
382.211	0.03
382.418	-0
382.624	0.06
382.831	0.02
383.038	-0.02
383.244	0
383.451	-0.02
383.658	0.04
383.864	-0
384.071	-0
384.277	0.04
384.484	-0.04
384.69	-0.02
384.897	-0.04
385.103	-0.05
385.31	-0.03
385.516	0.02
385.723	-0
385.929	-0.02
386.136	-0.05
386.342	0.02
386.549	-0.01
386.755	0.1
386.961	0.01
387.168	-0.01
387.374	-0
387.58	-0.02
387.787	0.03
387.993	0.04
388.199	-0.02
388.406	-0.05
388.612	0.01
388.818	0.02
389.024	-0.03
389.231	-0.02
389.437	0.1
389.643	0.01
389.849	0.01
390.055	-0.02
390.261	0.01
390.467	-0.04
390.674	-0.04
390.88	-0.04
391.086	0.03
391.292	-0.04
391.498	0.05
391.704	-0.03
391.91	-0.04
392.116	-0.02
392.322	-0.06
392.528	0.01
392.734	-0.07
392.94	0.02
393.146	-0.03
393.352	-0.03
393.557	-0.03
393.763	-0
393.969	0.04
394.175	-0.04
394.381	0
394.587	-0.06
394.792	-0.01
394.998	0.02
395.204	0.09
395.41	-0.04
395.615	0
395.821	-0.01
396.027	-0.03
396.233	-0.03
396.438	-0.01
396.644	0.05
396.85	0.01
397.055	-0.01
397.261	-0.04
397.466	0.01
397.672	0.03
397.878	0.03
398.083	0.04
398.289	-0.04
398.494	0.03
398.7	-0.02
398.905	-0.07
399.111	0.06
399.316	-0.04
399.522	0.04
399.727	-0.01
399.932	-0
400.138	-0.03
400.343	0.01
400.549	0
400.754	-0.01
400.959	-0
401.165	-0.03
401.37	0
401.575	-0.04
401.78	-0.04
401.986	-0.01
402.191	-0.02
402.396	-0.02
402.601	0.03
402.807	-0.01
403.012	0.02
403.217	0.03
403.422	-0.01
403.627	-0.04
403.832	-0.03
404.037	0.01
404.243	0.04
404.448	-0.05
404.653	-0.05
404.858	0.02
405.063	0.04
405.268	-0.04
405.473	-0.04
405.678	-0.03
405.883	0.13
406.088	0.04
406.293	-0.04
406.498	-0.01
406.703	-0.01
406.907	-0
407.112	-0.04
407.317	-0
407.522	0.05
407.727	-0.08
407.932	0.02
408.136	0.05
408.341	0
408.546	0
408.751	-0.02
408.956	-0.06
409.16	0.06
409.365	-0.05
409.57	-0.03
409.774	0.03
409.979	0.04
410.184	0.02
410.388	-0.02
410.593	0.04
410.798	0.04
411.002	-0.06
411.207	-0.01
411.411	0
411.616	-0.04
411.82	0
412.025	0.02
412.229	0
412.434	0.02
412.638	0.01
412.843	0.01
413.047	-0
413.252	-0.05
413.456	-0.01
413.66	0.05
413.865	-0.03
414.069	0.07
414.273	-0.04
414.478	-0.04
414.682	-0.08
414.886	-0.07
415.091	-0.07
415.295	-0.06
415.499	0
415.703	-0.05
415.908	0.01
416.112	-0.07
416.316	0.07
416.52	0.03
416.724	-0.03
416.929	-0.02
417.133	0.03
417.337	0.01
417.541	-0.03
417.745	-0.01
417.949	0.03
418.153	0.01
418.357	-0.07
418.561	0.05
418.765	0.01
418.969	0.08
419.173	-0.04
419.377	-0.01
419.581	0.07
419.785	-0.07
419.989	-0.09
420.193	-0.05
420.397	-0.04
420.601	0.02
420.804	-0
421.008	0.01
421.212	0
421.416	0.05
421.62	-0.02
421.823	-0.01
422.027	0.05
422.231	0
422.435	-0.05
422.638	0
422.842	-0.06
423.046	-0.04
423.249	0.01
423.453	0.06
423.657	0.06
423.86	-0.05
424.064	-0
424.268	0.02
424.471	-0.04
424.675	0.1
424.878	0.07
425.082	0.03
425.285	0.02
425.489	-0.06
425.692	-0.01
425.896	-0.04
426.099	-0.03
426.303	-0.05
426.506	-0.09
426.71	0.01
426.913	0.02
427.116	0.08
427.32	-0
427.523	-0.04
427.726	0.09
427.93	-0.08
428.133	-0.01
428.336	-0.09
428.54	-0.06
428.743	0.02
428.946	0.04
429.149	-0.02
429.353	-0.01
429.556	-0
429.759	0
429.962	-0.07
430.165	-0.02
430.368	-0.02
430.571	-0.05
430.775	0.02
430.978	-0.05
431.181	-0.01
431.384	0.03
431.587	-0.05
431.79	-0
431.993	-0.07
432.196	-0.06
432.399	-0.01
432.602	0.04
432.805	-0.01
433.008	0
433.211	-0.09
433.414	0.03
433.616	-0.01
433.819	0.01
434.022	-0.07
434.225	0.05
434.428	0.01
434.631	0.07
434.833	-0
435.036	-0.01
435.239	0.02
435.442	0
435.645	-0.07
435.847	-0.03
436.05	0.02
436.253	-0.01
436.455	-0.05
436.658	-0.02
436.861	0.05
437.063	0.03
437.266	-0.01
437.468	0.04
437.671	0.09
437.874	0.03
438.076	-0.04
438.279	-0.09
438.481	-0.04
438.684	-0.07
438.886	0.01
439.089	-0.1
439.291	-0.01
439.494	0.02
439.696	-0.05
439.899	-0.05
440.101	0.05
440.303	-0.07
440.506	0.03
440.708	0.01
440.91	0.02
441.113	-0.06
441.315	0.02
441.517	-0.01
441.72	0.03
441.922	-0.05
442.124	-0.07
442.326	0.04
442.529	0.08
442.731	0.01
442.933	0.08
443.135	-0
443.337	-0.05
443.539	-0.05
443.742	-0.05
443.944	-0.02
444.146	-0.07
444.348	-0.01
444.55	-0.01
444.752	-0.01
444.954	-0.05
445.156	-0.03
445.358	-0.04
445.56	0.01
445.762	-0.02
445.964	0.01
446.166	-0.05
446.368	-0.03
446.57	0.05
446.772	0.02
446.974	0.01
447.175	-0.03
447.377	-0.09
447.579	-0.03
447.781	-0.07
447.983	0.06
448.184	-0.03
448.386	0.01
448.588	-0.08
448.79	0.01
448.991	0
449.193	-0.07
449.395	0.01
449.597	0.01
449.798	0.02
450	0.01
450.202	-0.02
450.403	-0.02
450.605	0
450.806	-0.03
451.008	-0.09
451.21	0.01
451.411	-0.02
451.613	0.01
451.814	-0.04
452.016	0.03
452.217	0
452.419	0.02
452.62	-0.02
452.821	0.02
453.023	0.11
453.224	0.03
453.426	-0.01
453.627	0.04
453.828	0.01
454.03	-0.01
454.231	0.04
454.432	-0.05
454.634	0.07
454.835	-0.04
455.036	-0.08
455.238	0.05
455.439	0.04
455.64	-0.06
455.841	-0.05
456.042	0.03
456.244	0.03
456.445	-0.02
456.646	-0.1
456.847	-0.04
457.048	0.04
457.249	0.09
457.45	0.2
457.651	-0.05
457.852	-0.01
458.054	-0.01
458.255	0
458.456	0.05
458.657	0.03
458.858	-0.04
459.058	-0.02
459.259	0.02
459.46	-0.04
459.661	-0.03
459.862	0.05
460.063	-0.03
460.264	0.07
460.465	-0.03
460.666	0.09
460.866	-0.01
461.067	-0.04
461.268	-0.03
461.469	-0.02
461.67	-0.01
461.87	-0.05
462.071	-0.03
462.272	-0.04
462.473	0
462.673	0.04
462.874	-0.03
463.075	0.01
463.275	-0.04
463.476	-0
463.676	0
463.877	0.01
464.078	-0.05
464.278	0.08
464.479	-0.02
464.679	0.02
464.88	-0.04
465.08	0.08
465.281	-0.05
465.481	-0.05
465.682	-0.01
465.882	0.04
466.083	-0.01
466.283	-0.03
466.483	-0.02
466.684	-0.06
466.884	-0.02
467.085	-0.01
467.285	0.06
467.485	-0.06
467.686	-0.02
467.886	0.01
468.086	-0.02
468.286	-0.03
468.487	0.03
468.687	-0.04
468.887	-0.02
469.087	-0.01
469.287	-0.01
469.488	-0.04
469.688	-0.01
469.888	0.02
470.088	0.05
470.288	0.04
470.488	0.06
470.688	-0.05
470.888	-0.05
471.088	-0.03
471.288	0.01
471.488	0.02
471.688	-0.02
471.888	-0.02
472.088	0.02
472.288	0.02
472.488	-0.04
472.688	-0.03
472.888	0.03
473.088	0
473.288	-0
473.488	-0.03
473.688	0.08
473.887	0.01
474.087	-0.04
474.287	0.03
474.487	-0.08
474.687	0.01
474.886	-0.03
475.086	-0.03
475.286	0
475.486	0.03
475.685	-0.01
475.885	-0.02
476.085	-0
476.284	0.05
476.484	-0.02
476.684	0.05
476.883	0.04
477.083	0.02
477.282	-0.01
477.482	0.08
477.681	0.04
477.881	-0.01
478.08	-0.03
478.28	-0.02
478.479	0.02
478.679	0.08
478.878	-0.01
479.078	-0.04
479.277	-0
479.477	-0.03
479.676	0.04
479.875	0
480.075	-0.04
480.274	0.01
480.473	0.01
480.673	-0.04
480.872	0.02
481.071	0
481.271	-0.03
481.47	-0.01
481.669	-0.01
481.868	-0.02
482.067	-0.02
482.267	-0.04
482.466	-0.03
482.665	-0.02
482.864	-0.03
483.063	-0.04
483.262	-0.02
483.461	0.05
483.661	0.02
483.86	-0
484.059	0.02
484.258	0
484.457	-0.02
484.656	0.02
484.855	0.03
485.054	-0.04
485.253	-0.03
485.452	-0.05
485.651	-0.01
485.849	-0.01
486.048	-0.03
486.247	-0.05
486.446	0
486.645	-0.03
486.844	-0.03
487.043	-0.01
487.241	-0
487.44	-0.01
487.639	-0.01
487.838	0.01
488.037	-0.01
488.235	0.03
488.434	-0.01
488.633	-0.02
488.831	0.03
489.03	0.01
489.229	0.01
489.427	-0
489.626	0.02
489.825	0.07
490.023	-0.01
490.222	-0.01
490.42	0.02
490.619	0.04
490.817	0.03
491.016	-0
491.214	0.04
491.413	-0.01
491.611	0
491.81	-0.01
492.008	0.02
492.207	-0
492.405	0.01
492.604	-0.04
492.802	0.02
493	0.01
493.199	-0.04
493.397	-0.02
493.595	-0.01
493.794	-0.03
493.992	0.04
494.19	-0.01
494.388	0.02
494.587	-0
494.785	0.01
494.983	-0.04
495.181	-0
495.379	-0
495.578	-0.03
495.776	0.02
495.974	0
496.172	-0.01
496.37	-0.01
496.568	-0.05
496.766	-0.05
496.964	0.05
497.162	0.01
497.36	-0.03
497.558	-0
497.756	0.03
497.954	0.01
498.152	-0.04
498.35	-0.01
498.548	-0.02
498.746	-0.01
498.944	-0.03
499.142	0
499.34	-0.05
499.538	-0.01
499.736	-0.04
499.933	0.04
500.131	0.03
500.329	-0.01
500.527	0.03
500.725	0.03
500.922	0.01
501.12	-0.01
501.318	-0
501.516	-0.02
501.713	0.02
501.911	-0.01
502.109	-0.03
502.306	0
502.504	-0.02
502.701	-0.04
502.899	-0.02
503.097	0.06
503.294	-0.01
503.492	-0.03
503.689	0
503.887	0.03
504.084	0.04
504.282	0
504.479	-0.04
504.677	-0.01
504.874	-0.04
505.072	-0
505.269	-0.02
505.466	0.02
505.664	0.02
505.861	-0.05
506.059	-0.02
506.256	0.01
506.453	0.01
506.651	0.02
506.848	0
507.045	0.01
507.242	0
507.44	-0.02
507.637	-0.01
507.834	-0.04
508.031	0.02
508.229	-0.02
508.426	-0.02
508.623	0.01
508.82	-0.02
509.017	-0.02
509.214	-0.01
509.411	-0.01
509.608	-0.04
509.805	0.01
510.003	-0.02
510.2	-0.01
510.397	0.01
510.594	-0.02
510.791	-0.05
510.988	-0.02
511.184	0.03
511.381	-0
511.578	-0.01
511.775	0.04
511.972	-0.01
512.169	-0.01
512.366	0
512.563	0
512.76	-0.02
512.956	0.01
513.153	-0
513.35	0.01
513.547	-0.01
513.744	-0.04
513.94	-0.02
514.137	0
514.334	0.01
514.53	0.03
514.727	0
514.924	0.05
515.12	0
515.317	-0.06
515.514	-0.02
515.71	-0.03
515.907	0.01
516.103	-0
516.3	0
516.497	0.01
516.693	0.05
516.89	-0.01
517.086	-0.01
517.283	0.03
517.479	0.01
517.676	0
517.872	-0
518.068	-0.02
518.265	-0.01
518.461	-0.02
518.658	-0.01
518.854	-0.01
519.05	-0.01
519.247	-0.01
519.443	0.01
519.639	0.01
519.836	0.01
520.032	0
520.228	-0
520.424	0.04
520.621	0
520.817	0
521.013	0
521.209	-0
521.405	0.03
521.601	-0
521.798	-0.02
521.994	0.03
522.19	-0.02
522.386	-0.03
522.582	-0.01
522.778	0.01
522.974	-0.01
523.17	0
523.366	-0.03
523.562	0.03
523.758	-0.01
523.954	-0.03
524.15	-0.01
524.346	0.02
524.542	-0.02
524.738	-0.02
524.934	-0.01
525.129	-0.01
525.325	0.01
525.521	-0.03
525.717	-0.01
525.913	0
526.109	-0
526.304	-0
526.5	0
526.696	0.02
526.892	-0.01
527.087	0.01
527.283	-0.03
527.479	0.02
527.674	-0.02
527.87	0
528.066	-0
528.261	0.02
528.457	-0
528.653	-0
528.848	-0
529.044	-0.01
529.239	0
529.435	-0
529.63	0.01
529.826	0.05
530.021	0.02
530.217	-0.01
530.412	-0.01
530.608	-0.01
530.803	0.01
530.999	-0
531.194	-0.04
531.389	-0
531.585	-0.05
531.78	-0
531.975	-0.01
532.171	0.03
532.366	-0.02
532.561	-0.01
532.757	-0.02
532.952	0
533.147	0.02
533.342	-0.01
533.538	-0.04
533.733	0.02
533.928	0.01
534.123	-0.01
534.318	-0.02
534.513	-0.02
534.709	-0.02
534.904	-0.04
535.099	-0.03
535.294	0.01
535.489	0
535.684	-0.01
535.879	-0.03
536.074	0
536.269	-0.04
536.464	0
536.659	-0
536.854	0
537.049	0.01
537.244	-0.01
537.439	-0.01
537.634	0.02
537.828	-0
538.023	-0
538.218	-0.03
538.413	0.02
538.608	-0.02
538.803	0.02
538.997	-0.04
539.192	0.02
539.387	0.01
539.582	0.01
539.776	0.01
539.971	-0
540.166	0.01
540.36	-0.03
540.555	-0.01
540.75	-0
540.944	0
541.139	-0.03
541.334	0
541.528	0.01
541.723	0.02
541.917	-0.01
542.112	-0.05
542.306	-0.02
542.501	-0.02
542.695	-0.01
542.89	0.01
543.084	-0
543.279	0
543.473	-0
543.668	-0.01
543.862	0.01
544.056	0.02
544.251	0.01
544.445	0.02
544.64	-0.01
544.834	-0.02
545.028	0.01
545.222	-0.01
545.417	0.02
545.611	0.01
545.805	-0.01
546	-0
546.194	-0.03
546.388	-0.03
546.582	0.02
546.776	-0.01
546.97	-0
547.165	0.02
547.359	0.02
547.553	-0.01
547.747	0
547.941	-0.02
548.135	-0.02
548.329	0.02
548.523	0.03
548.717	-0.03
548.911	-0.03
549.105	-0.01
549.299	-0.01
549.493	0.03
549.687	0.02
549.881	0.01
550.075	-0.01
550.269	-0.02
550.463	0.01
550.657	-0.02
550.85	-0.02
551.044	-0.02
551.238	0
551.432	-0.03
551.626	-0.04
551.82	-0.01
552.013	-0.01
552.207	0.02
552.401	-0
552.594	-0.01
552.788	-0.01
552.982	-0.01
553.176	-0.03
553.369	0.03
553.563	0
553.756	-0.03
553.95	-0.02
554.144	-0
554.337	0.02
554.531	0.01
554.724	0.01
554.918	-0.02
555.111	0.02
555.305	0
555.498	0.05
555.692	0
555.885	-0.02
556.079	0.01
556.272	-0.01
556.466	0
556.659	-0
556.852	-0.01
557.046	-0.01
557.239	0.02
557.432	-0.02
557.626	-0.02
557.819	0.02
558.012	0.04
558.206	0.01
558.399	-0.01
558.592	-0
558.785	-0.02
558.979	0
559.172	0.01
559.365	0.03
559.558	0.03
559.751	-0.01
559.944	0.01
560.138	-0.02
560.331	-0.02
560.524	0
560.717	0.03
560.91	0.01
561.103	0.01
561.296	-0.02
561.489	0.02
561.682	-0.01
561.875	0.04
562.068	-0.01
562.261	-0
562.454	0.02
562.647	-0
562.84	0.02
563.032	-0
563.225	0.02
563.418	-0.01
563.611	-0.02
563.804	0.01
563.997	-0.04
564.19	-0.02
564.382	0
564.575	0
564.768	-0.01
564.961	-0.02
565.153	-0.02
565.346	0.03
565.539	0.01
565.731	0.02
565.924	0.01
566.117	0.02
566.309	0.01
566.502	-0
566.695	-0.02
566.887	-0.01
567.08	-0.03
567.272	-0.01
567.465	0.02
567.657	-0.01
567.85	0
568.042	0.01
568.235	0.04
568.427	0
568.62	0
568.812	0
569.005	0
569.197	-0.03
569.389	-0.02
569.582	0.01
569.774	0.02
569.966	-0.02
570.159	-0.04
570.351	0.02
570.543	-0.01
570.736	-0.02
570.928	-0.04
571.12	-0
571.312	-0.01
571.505	-0.04
571.697	0.02
571.889	-0.04
572.081	-0.01
572.273	-0.02
572.465	0.04
572.658	-0.02
572.85	0.01
573.042	-0.01
573.234	-0.03
573.426	0.02
573.618	-0.02
573.81	0.03
574.002	0.04
574.194	0.03
574.386	-0.03
574.578	-0.06
574.77	-0.03
574.962	0.02
575.154	-0.02
575.346	-0.03
575.538	0.02
575.729	-0.01
575.921	-0.02
576.113	0
576.305	0.01
576.497	-0.01
576.689	-0.04
576.88	-0.03
577.072	0.03
577.264	-0.01
577.456	-0.01
577.647	-0.04
577.839	0.02
578.031	0.04
578.223	-0.03
578.414	-0.04
578.606	0.01
578.798	-0.01
578.989	-0.03
579.181	-0.01
579.372	-0.01
579.564	0
579.755	0.03
579.947	0
580.139	0.02
580.33	-0.04
580.522	-0.03
580.713	-0.07
580.905	-0.02
581.096	0.02
581.287	0.01
581.479	0.02
581.67	0.01
581.862	-0
582.053	-0.02
582.244	-0.02
582.436	-0.02
582.627	0.01
582.818	-0.03
583.01	-0.04
583.201	0.04
583.392	0
583.583	0
583.775	-0.02
583.966	-0.03
584.157	-0.02
584.348	-0.01
584.54	-0.03
584.731	0.01
584.922	-0
585.113	-0.04
585.304	0.02
585.495	0.06
585.686	-0
585.877	0.01
586.068	-0.04
586.259	0.02
586.45	0.02
586.641	-0.01
586.832	-0.06
587.023	0.02
587.214	-0
587.405	0.01
587.596	-0.01
587.787	0.04
587.978	-0.01
588.169	-0.03
588.36	0.01
588.551	0.01
588.742	-0.02
588.932	-0.01
589.123	0.01
589.314	0.04
589.505	-0.02
589.696	0.02
589.886	-0.03
590.077	-0.05
590.268	0.01
590.458	-0.01
590.649	-0.05
590.84	0.02
591.03	-0.04
591.221	-0.05
591.412	-0
591.602	0.04
591.793	0.06
591.984	-0.01
592.174	0
592.365	0.05
592.555	-0.01
592.746	0.02
592.936	0.05
593.127	0.02
593.317	0.04
593.508	-0.01
593.698	0
593.889	0.01
594.079	0
594.269	-0.02
594.46	0.02
594.65	0.04
594.84	0.03
595.031	-0.02
595.221	0.01
595.411	-0.04
595.602	0.05
595.792	0.01
595.982	-0
596.172	0.07
596.363	0.05
596.553	0.05
596.743	0
596.933	0.03
597.123	0.06
597.314	0.01
597.504	-0.01
597.694	0.06
597.884	0.04
598.074	0.01
598.264	-0.01
598.454	0.04
598.644	0
598.834	0.02
599.024	-0.03
599.214	-0
599.404	0.06
599.594	0.01
599.784	0
599.974	0.06
600.164	0.06
600.354	-0.01
600.544	-0.03
600.734	0.04
600.924	0.08
601.114	-0
601.303	0.02
601.493	0.02
601.683	0.02
601.873	0.06
602.063	-0.01
602.252	0.07
602.442	-0.01
602.632	0.01
602.821	-0.01
603.011	0.07
603.201	0.03
603.39	0
603.58	0
603.77	0.05
603.959	0.04
604.149	0.04
604.339	0.03
604.528	0.05
604.718	0.06
604.907	0.04
605.097	0.02
605.286	0.02
605.476	0.06
605.665	0.07
605.855	0.04
606.044	0.1
606.234	0.06
606.423	0.04
606.612	0.02
606.802	0.06
606.991	0.07
607.181	0.08
607.37	0.04
607.559	0.06
607.749	0.03
607.938	0.08
608.127	0.06
608.316	0.07
608.506	0.07
608.695	0.04
608.884	0.03
609.073	0.06
609.263	0.1
609.452	0.09
609.641	0.11
609.83	0.05
610.019	0.09
610.208	0.06
610.397	0.09
610.586	0.12
610.775	0.06
610.965	0.09
611.154	0.09
611.343	0.11
611.532	0.13
611.721	0.07
611.91	0.11
612.099	0.09
612.287	0.09
612.476	0.08
612.665	0.14
612.854	0.08
613.043	0.15
613.232	0.11
613.421	0.09
613.61	0.13
613.798	0.08
613.987	0.14
614.176	0.15
614.365	0.18
614.554	0.18
614.742	0.16
614.931	0.13
615.12	0.17
615.309	0.15
615.497	0.19
615.686	0.13
615.875	0.16
616.063	0.17
616.252	0.17
616.44	0.14
616.629	0.16
616.818	0.22
617.006	0.19
617.195	0.22
617.383	0.23
617.572	0.21
617.76	0.18
617.949	0.18
618.137	0.2
618.326	0.23
618.514	0.18
618.703	0.19
618.891	0.27
619.079	0.2
619.268	0.24
619.456	0.22
619.644	0.27
619.833	0.21
620.021	0.23
620.209	0.22
620.398	0.23
620.586	0.25
620.774	0.28
620.962	0.24
621.151	0.3
621.339	0.22
621.527	0.2
621.715	0.23
621.903	0.22
622.092	0.22
622.28	0.28
622.468	0.23
622.656	0.24
622.844	0.26
623.032	0.23
623.22	0.22
623.408	0.33
623.596	0.26
623.784	0.28
623.972	0.23
624.16	0.21
624.348	0.29
624.536	0.23
624.724	0.23
624.912	0.3
625.1	0.25
625.288	0.21
625.476	0.21
625.664	0.23
625.851	0.19
626.039	0.23
626.227	0.24
626.415	0.18
626.603	0.15
626.79	0.22
626.978	0.2
627.166	0.21
627.354	0.16
627.541	0.12
627.729	0.14
627.917	0.19
628.104	0.17
628.292	0.18
628.48	0.15
628.667	0.15
628.855	0.15
629.042	0.16
629.23	0.12
629.418	0.1
629.605	0.11
629.793	0.08
629.98	0.09
630.168	0.08
630.355	0.09
630.543	0.1
630.73	0.07
630.917	0.09
631.105	0.14
631.292	0.09
631.48	0.07
631.667	0.14
631.854	0.07
632.042	0.04
632.229	-0.01
632.416	0.07
632.604	0.04
632.791	0.02
632.978	0.08
633.165	0.08
633.353	0.12
633.54	0.06
633.727	-0
633.914	0.04
634.101	-0.04
634.289	0.08
634.476	-0.02
634.663	0.01
634.85	0.04
635.037	-0
635.224	-0.04
635.411	0.07
635.598	0.07
635.785	0.04
635.972	0.01
636.159	0.05
636.346	0.01
636.533	0.05
636.72	-0.04
636.907	0.02
637.094	0.03
637.281	0
637.468	0.04
637.655	-0.01
637.842	0.02
638.029	-0
638.215	0.01
638.402	0.01
638.589	-0.03
638.776	0.01
638.963	-0.02
639.149	0.02
639.336	0.09
639.523	-0
639.709	0.03
639.896	-0.01
640.083	0.03
640.27	0.05
640.456	-0.01
640.643	0.01
640.829	-0.04
641.016	0
641.203	-0.03
641.389	0.03
641.576	-0.02
641.762	0
641.949	0
642.135	0.02
642.322	0.01
642.508	-0.05
642.695	0.03
642.881	-0.01
643.068	-0.02
643.254	0.01
643.441	0.03
643.627	-0.02
643.813	-0.07
644	0.01
644.186	-0.03
644.372	0.02
644.559	0.04
644.745	-0.02
644.931	-0.01
645.118	-0.02
645.304	-0.01
645.49	-0.01
645.676	-0.05
645.862	0.03
646.049	0.08
646.235	-0.04
646.421	0.06
646.607	0.04
646.793	0.02
646.979	-0.04
647.165	0.01
647.352	-0.03
647.538	0.07
647.724	-0
647.91	0.01
648.096	0.02
648.282	0.04
648.468	-0
648.654	-0.03
648.84	0.01
649.026	-0.05
649.212	0.01
649.397	-0.03
649.583	-0.03
649.769	-0.01
649.955	-0.04
650.141	0
650.327	0.03
650.513	-0.05
650.698	-0
650.884	-0.05
651.07	0
651.256	-0.02
651.442	-0.03
651.627	-0
651.813	-0.03
651.999	0.02
652.184	0.01
652.37	-0.03
652.556	-0.06
652.741	0.06
652.927	-0.05
653.113	-0.02
653.298	-0.01
653.484	-0.03
653.669	-0.06
653.855	-0.03
654.04	0.01
654.226	-0.04
654.412	-0.02
654.597	-0.05
654.782	-0.02
654.968	0.03
655.153	-0.02
655.339	-0.04
655.524	-0.05
655.71	0.01
655.895	-0
656.08	-0.04
656.266	0.05
656.451	0.01
656.636	-0.03
656.822	-0
657.007	-0.04
657.192	-0.03
657.378	-0.06
657.563	0.01
657.748	-0.01
657.933	-0
658.118	-0.01
658.304	-0
658.489	0.02
658.674	0.01
658.859	-0.03
659.044	0.01
659.229	0.01
659.414	-0.04
659.599	-0.03
659.785	-0.06
659.97	-0.02
660.155	0.04
660.34	-0.01
660.525	0
660.71	-0.04
660.895	0.02
661.08	-0.03
661.264	-0.04
661.449	0.03
661.634	0.06
661.819	0.02
662.004	0.01
662.189	-0.08
662.374	-0.07
662.559	-0.05
662.743	-0.07
662.928	-0.01
663.113	-0
663.298	-0.07
663.483	-0.04
663.667	-0.02
663.852	-0.04
664.037	0.02
664.221	-0.03
664.406	0.01
664.591	-0.03
664.775	0
664.96	-0.08
665.145	0.02
665.329	-0.05
665.514	0.01
665.698	-0.04
665.883	-0.1
666.068	0.06
666.252	-0.01
666.437	-0.07
666.621	-0.03
666.806	0.02
666.99	-0.05
667.174	-0.03
667.359	0.04
667.543	-0.03
667.728	-0.03
667.912	-0.09
668.096	-0.03
668.281	-0
668.465	-0.01
668.649	-0.03
668.834	-0.04
669.018	-0.03
669.202	-0.01
669.387	-0.02
669.571	0.03
669.755	-0.03
669.939	-0.03
670.124	-0.02
670.308	0.02
670.492	0.03
670.676	-0.02
670.86	-0.01
671.044	-0.02
671.228	0.01
671.413	-0.05
671.597	-0.04
671.781	-0.06
671.965	0.02
672.149	0.01
672.333	-0.04
672.517	-0.03
672.701	-0.01
672.885	-0.03
673.069	-0.1
673.253	0.03
673.437	-0.05
673.621	-0.05
673.804	0.02
673.988	-0.04
674.172	-0.03
674.356	-0.06
674.54	-0.01
674.724	0.06
674.908	-0.02
675.091	-0.01
675.275	0.03
675.459	0.02
675.643	-0.02
675.826	-0
676.01	0.01
676.194	0
676.377	0.04
676.561	0.01
676.745	0.02
676.928	0.01
677.112	0.02
677.296	-0.02
677.479	-0.05
677.663	-0.06
677.846	0.01
678.03	-0.03
678.213	-0.02
678.397	-0.02
678.58	-0.02
678.764	-0.05
678.947	-0.03
679.131	-0
679.314	0.01
679.498	0.01
679.681	0.03
679.865	0.06
680.048	-0.01
680.231	-0.02
680.415	-0.02
680.598	0.02
680.781	-0.03
680.965	-0.05
681.148	0.02
681.331	0.01
681.514	-0.01
681.698	-0
681.881	-0.01
682.064	0.01
682.247	-0.03
682.43	-0.11
682.614	0.04
682.797	0.03
682.98	0.02
683.163	-0
683.346	0.02
683.529	-0.03
683.712	-0.08
683.895	0
684.078	-0.06
684.261	-0.01
684.444	0
684.627	-0.03
684.81	-0.04
684.993	-0.03
685.176	0.03
685.359	-0.03
685.542	-0.01
685.725	0.03
685.908	-0.01
686.091	-0.01
686.274	0.01
686.457	0.03
686.639	-0.01
686.822	0.02
687.005	0.01
687.188	0.02
687.371	0.06
687.553	0.04
687.736	0
687.919	0.08
688.102	0.08
688.284	-0.03
688.467	-0.03
688.65	-0.06
688.832	-0.02
689.015	-0.02
689.197	-0.11
689.38	0.06
689.563	0.08
689.745	-0.06
689.928	-0.02
690.11	-0.03
690.293	-0.03
690.475	-0.04
690.658	0.01
690.84	-0.08
691.023	-0.05
691.205	-0.07
691.388	-0
691.57	0.02
691.752	-0
691.935	-0.07
692.117	-0.02
692.3	-0.02
692.482	0.01
692.664	-0
692.847	0.01
693.029	0.07
693.211	-0
693.393	-0.03
693.576	-0.04
693.758	0
693.94	-0.04
694.122	-0.04
694.304	-0.04
694.487	0.01
694.669	0.05
694.851	-0.07
695.033	0.03
695.215	-0.02
695.397	-0.03
695.579	0.02
695.761	-0.1
695.943	-0.05
696.125	0.04
696.308	0.01
696.49	-0.1
696.671	0.09
696.853	0.01
697.035	0.09
697.217	-0
697.399	0
697.581	-0.07
697.763	-0.01
697.945	-0.05
698.127	-0.03
698.309	0.03
698.491	0.02
698.672	0.01
698.854	0.03
699.036	0.1
699.218	-0.05
699.399	0.03
699.581	0.03
699.763	0.03
699.945	-0.03
700.126	-0.07
700.308	0.01
700.49	0.05
700.671	-0.1
700.853	-0
701.035	-0.05
701.216	0.01
701.398	-0.04
701.579	-0.04
701.761	0.02
701.943	-0.1
702.124	-0.07
702.306	-0.04
702.487	0.08
702.669	0.02
702.85	-0.09
703.031	-0.03
703.213	0.07
703.394	0.06
703.576	-0.06
703.757	0.05
703.938	0.05
704.12	0.16
704.301	0.06
704.483	-0.05
704.664	-0.05
704.845	0.06
705.026	0.02
705.208	-0.03
705.389	-0.02
705.57	0.01
705.751	0.01
705.933	-0.11
706.114	-0.03
706.295	-0.01
706.476	-0.08
706.657	0.1
706.838	0.09
707.02	0.07
707.201	-0.06
707.382	-0.05
707.563	0.04
707.744	-0.04
707.925	-0.05
708.106	-0.03
708.287	0.06
708.468	0.1
708.649	-0.01
708.83	0.03
709.011	-0.06
709.192	0.08
709.373	-0.08
709.554	-0.01
709.734	-0.01
709.915	0.05
710.096	-0.04
710.277	-0.1
710.458	-0.05
710.639	0.02
710.819	-0.11
711	-0.04
711.181	0.09
711.362	0.03
711.542	-0.01
711.723	-0
711.904	0.03
712.085	0.06
712.265	0.02
712.446	-0.12
712.627	-0.04
712.807	0.01
712.988	-0.06
713.168	-0.03
713.349	0.04
713.53	-0.11
713.71	-0.05
713.891	-0.07
714.071	-0.08
714.252	-0.06
714.432	-0.02
714.613	-0.11
714.793	-0.01
714.974	0.07
715.154	0.11
715.334	0.03
715.515	0.03
715.695	-0.02
715.876	-0.01
716.056	-0.01
716.236	0.01
716.417	0.01
716.597	-0.05
716.777	0.16
716.957	0.02
717.138	0
717.318	0.01
717.498	-0.07
717.678	0.01
717.859	-0.02
718.039	-0.08
718.219	-0.01
718.399	0.06
718.579	-0.05
718.759	-0.04
718.939	-0.04
719.12	-0.02
719.3	0.04
719.48	-0.18
719.66	-0.13
719.84	0.09
720.02	-0.07
720.2	-0
720.38	-0.03
720.56	0.07
720.74	-0.07
720.92	0.04
721.1	0.05
721.279	0.08
721.459	0.02
721.639	-0.13
721.819	0.04
721.999	-0.07
722.179	-0.01
722.359	-0.19
722.538	0.02
722.718	0.04
722.898	-0.09
723.078	-0.04
723.257	-0.05
723.437	-0.05
723.617	0.01
723.797	-0.04
723.976	-0.04
724.156	-0.01
724.336	0.11
724.515	0.14
724.695	-0.14
724.874	-0.02
725.054	0
725.234	-0.04
725.413	0.05
725.593	-0.02
725.772	-0.04
725.952	-0.03
726.131	-0.01
726.311	-0.03
726.49	0
726.67	-0.14
726.849	-0.1
727.028	-0.01
727.208	-0.05
727.387	0.11
727.567	-0.07
727.746	0.01
727.925	-0.07
728.105	-0.07
728.284	-0.07
728.463	-0.02
728.643	-0.01
728.822	-0.08
729.001	-0.09
729.18	-0.03
729.359	0.05
729.539	-0.04
729.718	0.01
729.897	0.02
730.076	0.02
730.255	-0.08
730.434	-0.01
730.614	-0.02
730.793	0.04
730.972	-0.12
731.151	0.02
731.33	0.01
731.509	-0.02
731.688	0.02
731.867	-0.04
732.046	-0.05
732.225	0.2
732.404	-0.12
732.583	-0.12
732.762	-0.03
732.941	0.04
733.12	-0.02
733.298	-0.01
733.477	0.09
733.656	-0.09
733.835	-0.06
734.014	0.06
734.193	-0.05
734.371	0.04
734.55	0.02
734.729	-0.13
734.908	0.09
735.086	0.04
735.265	0.07
735.444	-0.16
735.623	-0.11
735.801	-0.12
735.98	-0.05
736.159	0.05
736.337	0.08
736.516	0.08
736.694	-0.04
736.873	0.03
737.052	0.09
737.23	0.05
737.409	-0.01
737.587	0.11
737.766	-0.16
737.944	-0.14
738.123	-0.12
738.301	0.12
738.479	-0.12
738.658	-0
738.836	-0.21
739.015	0
739.193	0.05
739.371	-0.19
739.55	-0.05
739.728	-0.11
739.906	0.11
740.085	0.04
740.263	0.02
740.441	-0.2
740.62	0.06
740.798	0.11
740.976	-0.09
741.154	-0.07
741.332	0.12
741.511	-0.12
741.689	0.02
741.867	-0.02
742.045	-0.08
742.223	-0.03
742.401	-0.1
742.579	-0.05
742.757	0.1
742.935	-0.17
743.114	-0.06
743.292	-0.03
743.47	-0.03
743.648	0.01
743.826	-0.06
744.004	0.06
744.181	0.13
744.359	-0.1
744.537	-0.1
744.715	-0.04
744.893	-0.08
745.071	-0.05
745.249	-0.06
745.427	-0.04
745.605	0.06
745.782	-0.04
745.96	0.14
746.138	0.1
746.316	0.06
746.493	0.04
746.671	-0.05
746.849	-0.06
747.027	0.1
747.204	-0.04
747.382	0.12
747.56	-0.15
747.737	0.08
747.915	-0.05
748.093	0.11
748.27	-0.1
748.448	0.03
748.625	-0.22
748.803	-0.08
748.98	-0.05
749.158	0.04
749.335	-0
749.513	-0.09
749.69	-0.06
749.868	0.01
750.045	-0.03
750.223	-0.04
750.4	-0.15
750.578	0.21
750.755	-0.02
750.932	-0.1
751.11	0.11
751.287	-0.1
751.464	0.04
751.642	-0.05
751.819	0.11
751.996	0.1
752.173	-0.12
752.351	-0.14
752.528	-0.04
752.705	-0.11
752.882	-0.07
753.06	-0.01
753.237	0.06
753.414	0.32
753.591	0.13
753.768	0.02
753.945	-0.04
754.122	-0.07
754.299	0.13
754.476	-0.16
754.654	0.01
754.831	-0.02
755.008	-0.02
755.185	-0.08
755.362	-0.02
755.539	-0.07
755.716	-0.07
755.892	-0.09
756.069	-0.06
756.246	-0.07
756.423	-0.02
756.6	0.14
756.777	-0.02
756.954	0.07
757.131	-0.15
757.307	-0.17
757.484	-0.01
757.661	0.05
757.838	0.05
758.015	-0.08
758.191	-0.06
758.368	0.14
758.545	0.12
758.721	0.01
758.898	-0.1
759.075	0.01
759.251	-0
759.428	0.15
759.605	-0.17
759.781	-0.08
759.958	-0.03
760.134	0.08
760.311	-0.03
760.488	0.14
760.664	0.09
760.841	-0.06
761.017	-0.21
761.194	-0.03
761.37	0.07
761.547	0.04
761.723	-0
761.899	0.1
762.076	-0.14
762.252	0.01
762.429	-0.02
762.605	0.09
762.781	-0.06
762.958	-0.03
763.134	-0.12
763.31	-0.11
763.486	0.07
763.663	-0.19
763.839	-0.07
764.015	-0.12
764.191	-0.1
764.368	-0.05
764.544	-0.13
764.72	0.04
764.896	0.14
765.072	-0.02
765.248	-0.09
765.425	-0.09
765.601	0
765.777	0.06
765.953	-0.22
766.129	-0.08
766.305	-0.04
766.481	0.09
766.657	0.05
766.833	0.26
767.009	-0.08
767.185	-0.06
767.361	-0.11
767.537	-0.15
767.713	0.19
767.889	-0.06
768.065	0.02
768.24	0.01
768.416	0.08
768.592	-0.02
768.768	-0.02
768.944	0.03
769.12	-0.14
769.295	-0.04
769.471	-0.01
769.647	-0.05
769.823	0.17
769.998	0.03
770.174	-0.11
770.35	0.25
770.525	0.23
770.701	0.09
770.877	-0.04
771.052	-0.14
771.228	0.2
771.403	0.08
771.579	0.12
771.755	0.41
771.93	-0.07
772.106	-0.2
772.281	-0.13
772.457	0.08
772.632	0.05
772.808	-0.25
772.983	-0.08
773.159	-0.16
773.334	-0.06
773.509	-0.17
773.685	-0.12
773.86	0.31
774.036	0.25
774.211	0.02
774.386	0
774.562	-0.15
774.737	-0.03
774.912	-0.09
775.087	0.07
775.263	0.02
775.438	-0.04
775.613	-0.06
775.788	-0.09
775.964	0.13
776.139	0.35
776.314	-0.11
776.489	0.07
776.664	-0.07
776.839	-0.21
777.014	0.08
777.19	0.26
777.365	-0
777.54	0.23
777.715	-0.03
777.89	-0.06
778.065	-0.1
778.24	0.07
778.415	0.06
778.59	-0.12
778.765	-0.07
778.94	0.12
779.115	-0.04
779.289	-0.02
779.464	0.07
779.639	0.04
779.814	-0.17
779.989	-0.25
780.164	0.06
780.339	0.06
780.513	-0.2
780.688	-0.14
780.863	-0.08
781.038	0.09
781.212	-0.22
781.387	-0.05
781.562	0.2
781.737	0.02
781.911	0.19
782.086	-0.12
782.261	0.06
782.435	0.2
782.61	0.03
782.784	-0.13
782.959	0.28
783.134	-0.14
783.308	-0.3
783.483	-0.1
783.657	0.45
783.832	-0.13
784.006	-0.31
784.181	0.05
784.355	0.02
784.53	-0.21
784.704	-0.13
784.878	0.02
785.053	-0.03
785.227	0.36
785.402	0.28
785.576	-0.19
785.75	-0.01
785.925	0.04
786.099	-0.07
786.273	0.01
786.448	0.09
786.622	0.17
786.796	-0.08
786.97	-0.1
787.145	0.45
787.319	-0.33
787.493	-0.12
787.667	-0.22
787.841	-0.21
788.015	0.09
788.19	-0.06
788.364	0.01
788.538	0.13
788.712	0.15
788.886	-0.12
789.06	0.16
789.234	0.24
789.408	-0.28
789.582	0.01
789.756	0
789.93	-0.12
790.104	-0.08
790.278	-0.38
790.452	-0.08
790.626	0.16
790.8	-0.14
790.973	0.3
791.147	0.17
791.321	0.16
791.495	0.15
791.669	0.13
791.843	0.16
792.016	0.06
792.19	0.35
792.364	-0.11
792.538	0.24
792.711	0.21
792.885	-0.01
793.059	-0.31
793.233	-0.65
793.406	-0.01
793.58	-0.07
793.754	-0.19
793.927	-0.02
794.101	0.11
794.274	-0.07
794.448	0.28
794.622	-0.01
794.795	0.43
794.969	-0.13
795.142	0.37
795.316	-0.09
795.489	-0.07
795.663	0.37
795.836	-0.1
796.009	-0.33
796.183	0.2
796.356	0.06
796.53	0.08
796.703	-0.05
796.876	0.45
797.05	-0.1
797.223	-0
797.396	0.3
797.57	-0.15
797.743	0.34
797.916	-0.14
798.09	-0.11
798.263	0.26
798.436	0.14
798.609	-0.04
798.782	0.18
798.956	0.21
799.129	-0.18
799.302	-0.1
799.475	-0.22
799.648	-0.24
799.821	0.08
799.994	0.1
800.167	-0.46
800.34	0.23
800.514	0.02
800.687	-0.15
800.86	-0.1
801.033	-0.16
801.206	0.18
801.379	-0.05
801.551	0.07
801.724	0.04
801.897	0.25
802.07	-0.09
802.243	-0.34
802.416	-0.15
802.589	-0.18
802.762	0.17
802.935	-0.13
803.107	0.21
803.28	0.37
803.453	0.32
803.626	-0.07
803.798	0.15
803.971	0.25
804.144	0.08
804.317	0.11
804.489	0.35
804.662	-0.11
804.835	0.2
805.007	-0.18
805.18	0.11
805.353	0.43
805.525	-0.1
805.698	-0.27
805.87	0.18
806.043	0.45
806.215	-0.03
806.388	-0.13
806.56	0.17
806.733	0.32
806.905	0.22
807.078	-0.52
807.25	-0.4
807.423	0.26
807.595	0.02
807.768	0.03
807.94	0.13
808.112	0.25
808.285	-0
808.457	-0.01
808.629	0.11
808.802	0.13
808.974	0.04
809.146	0.03
809.318	-0.36
809.491	0.25
809.663	0.48
809.835	0.05
810.007	0.21
810.18	0.14
810.352	-0.2
810.524	0.1
810.696	0.42
810.868	0.21
811.04	0.06
811.212	-0.09
811.384	0.39
811.556	-0.21
811.728	-0.28
811.901	0.49
812.073	-0.1
812.245	0.29
812.417	-0.14
812.589	-0.65
812.76	0.29
812.932	-0.13
813.104	0.09
813.276	-0.14
813.448	0.41
813.62	0.07
813.792	0.09
813.964	-0.16
814.136	-0.05
814.307	-0.16
814.479	-0.42
814.651	-0.26
814.823	0.7
814.995	-0.36
815.166	0.1
815.338	-0.1
815.51	-0.76
815.681	0.38
815.853	-0.53
816.025	-0.07
816.196	0.71
816.368	0.07
816.54	-0.16
816.711	-0.45
816.883	0.44
817.054	1.22
817.226	-0.54
817.398	0.4
817.569	0.08
817.741	-0.05
817.912	0.48
818.084	0.13
818.255	0.22
818.426	-0
818.598	-0.05
818.769	-0.11
818.941	0.22
819.112	0.36
819.283	0.05
819.455	-0.35
819.626	-0.4
819.798	0.36
819.969	0.12
820.14	-0.06
820.311	0.01
820.483	0.22
820.654	0.15
820.825	0.1
820.996	-0.09
821.168	-0.36
821.339	0.02
821.51	-0.31
821.681	-0.69
821.852	0
822.023	-0.26
822.195	-0.61
822.366	0.43
822.537	0.18
822.708	-0.1
822.879	-0.43
823.05	0.6
823.221	-0.33
823.392	0.06
823.563	0.28
823.734	0.01
823.905	-0.25
824.076	-0.68
824.247	-0.32
824.418	-0.28
824.589	0.33
824.759	-0.03
824.93	0.08
825.101	0.06
825.272	0.43
825.443	0.51
825.614	0.31
825.784	-0.91
825.955	1.05
826.126	0.59
826.297	0.12
826.467	1.31
826.638	0.27
826.809	-0.93
826.98	0.13
827.15	0.41
827.321	-0.16
827.492	0.94
827.662	0.41
827.833	1.22
828.003	-0.15
828.174	-0.46
828.345	-0.81
828.515	0.39
828.686	0.2
828.856	-0.06
829.027	-0.43
829.197	-0.56
829.368	-0.05
829.538	-0.46
829.709	-0.72
829.879	0.18
830.049	-0.23
830.22	-0.07
830.39	0.22
830.56	0.2
830.731	-0.54
830.901	-0.79
831.072	-0.3
831.242	0.39
831.412	0.17
831.582	-0.07
831.753	-0.52
831.923	0.25
832.093	-0.03
832.263	0.04
832.434	-1.03
832.604	-0.1
832.774	0.73
832.944	-0.07
833.114	0.02
833.284	0.37
833.454	-0.58
833.624	-0.02
833.795	-0.15
833.965	0.56
834.135	0.66
834.305	-1.16
834.475	-0.9
834.645	0.2
834.815	-0.74
834.985	-0.91
835.155	-0.59
835.325	0.32
835.494	0.22
835.664	-0.17
835.834	-1.16
836.004	0.13
836.174	0.03
836.344	0.31
836.514	-1.02
836.684	-0.33
836.853	0.65
837.023	0.36
837.193	-0.14
837.363	0.98
837.532	0.04
837.702	-0.23
837.872	-0.51
838.041	0.83
838.211	0.88
838.381	-1.04
838.55	-0.72
838.72	0.96
838.89	0.12
839.059	-0.11
839.229	-0.7
839.398	0.9
839.568	0.12
839.738	0.12
839.907	0.54
840.077	0.49
840.246	-0.81
840.416	-0.84
840.585	-1.29
840.755	0.41
840.924	0.84
841.093	-0.89
841.263	-0.44
841.432	0.31
841.602	-0.81
841.771	-0.28
841.94	0.34
842.11	2.22
842.279	1.6
842.448	-0.78
842.617	-1
842.787	1.46
842.956	-0.77
843.125	0.99
843.294	0.76
843.464	0.92
843.633	0.02
843.802	-1.32
843.971	0.12
844.14	0.92
844.309	1.04
844.479	-1.04
844.648	-0.6
844.817	-0.52
844.986	0.02
845.155	-0.29
845.324	0.03
845.493	-0.57
845.662	-0.14
845.831	0.3
846	-0.4
846.169	0.46
846.338	1.57
846.507	0.16
846.676	0.62
846.844	-0.12
847.013	1.09
847.182	0.62
847.351	-0.14
847.52	-0
847.689	-0.09
847.858	0.22
848.026	-1.19
848.195	0.1
848.364	-0.88
848.533	-0.59
848.701	-0.52
848.87	0.07
849.039	0.86
849.207	0.59
849.376	0.87
849.545	1.2
849.713	-0.8
849.882	0.25
850.051	0.3
850.219	0.07
850.388	0.71
850.556	-1.16
850.725	0.25
850.893	0.03
851.062	-0.23
851.23	0.69
851.399	-1.72
851.567	-0.99
851.736	0.13
851.904	-1.4
852.073	-0.25
852.241	-0.26
852.41	0.62
852.578	-0
852.746	-0.87
852.915	0.15
853.083	1
853.251	-0.63
853.42	-0.71
853.588	0.32
853.756	1.24
853.924	-0.81
854.093	-0.85
854.261	-0.31
854.429	-1.75
854.597	-0.35
854.765	0.74
854.934	0.89
855.102	0.51
855.27	-0.52
855.438	0.39
855.606	0.43
855.774	1.29
855.942	-1.69
856.11	-2.05
856.278	-0.17
856.446	0.97
856.614	-0.14
856.782	-0.2
856.95	0.52
857.118	1.12
857.286	0.1
857.454	-1.17
857.622	0.87
857.79	0.95
857.958	-0.71
858.126	0.53
858.294	-1.87
858.462	-0.06
858.629	-0.35
858.797	-0.69
858.965	0.11
859.133	-0.71
859.301	-0.26
859.468	0.04
859.636	-1.46
859.804	1.91
859.971	0.79
860.139	-0.96
860.307	1.05
860.474	1.07
860.642	-0.61
860.81	-0.81
860.977	-0.16
861.145	1.42
861.313	-0.58
861.48	-0.66
861.648	1.27
861.815	-0.35
861.983	-0.58
862.15	0.61
862.318	1.12
862.485	0.82
862.653	-1.05
862.82	-1.58
862.988	1.42
863.155	0.35
863.322	-0.19
863.49	-2.33
863.657	-1.93
863.824	0.87
863.992	0.97
864.159	0.97
864.326	0.32
864.494	-0.36
864.661	2.79
864.828	-1.58
864.996	1.69
865.163	2.74
865.33	0.24
865.497	-2.1
865.664	-0.76
865.832	-2.82
865.999	-0.34
866.166	-2.05
866.333	0.6
866.5	-0.4
866.667	-0.87
866.834	-0.06
867.001	0.84
867.168	-0.34
867.335	0.15
867.502	-2.24
867.669	0.12
867.836	1.57
868.003	-1.01
868.17	1.67
868.337	-1.94
868.504	3.05
868.671	-2.8
868.838	-1.65
869.005	-0.39
869.172	0.4
869.339	-0.89
869.505	0.22
869.672	-0.35
869.839	2.05
870.006	-0.11
870.173	-2.55
870.339	0.08
870.506	2.68
870.673	-0.27
870.84	-0.11
871.006	0.54
871.173	0.84
871.34	0.46
871.506	-1.96
871.673	0.24
871.839	-2.45
872.006	1.15
872.173	-1.33
872.339	-0.18
872.506	2.35
872.672	0.47
872.839	-2.55
873.005	-0.18
873.172	3.05
873.338	1.97
873.505	-0.18
873.671	-0.56
873.838	2.3
874.004	-1.21
874.171	-0.8
874.337	-1.15
874.503	0.89
874.67	-2.2
874.836	-1.41
875.002	1.45
875.169	0.35
875.335	0.45
875.501	-0.68
875.668	0.49
875.834	1.49
876	-1.37
876.166	1.61
876.332	1.63
876.499	2.74
876.665	-0.45
876.831	-0.53
876.997	4.05
877.163	0.48
877.329	-0.77
877.495	1.35
877.662	0.95
877.828	0.11
877.994	1.01
878.16	-1.68
878.326	-1.53
878.492	-0.54
878.658	-1.59
878.824	0.52
878.99	1.82
879.156	1.36
879.322	2.2
879.487	-0.67
879.653	-0.86
879.819	-0.26
879.985	-2.06
880.151	0.73
880.317	1.1
880.483	0.86
880.648	-0.43
880.814	-2.56
880.98	1.22
881.146	-0.92
881.312	-1.01
881.477	-2.1
881.643	2.16
881.809	4.12
881.974	1.33
882.14	-0.64
882.306	0.06
882.471	3.15
882.637	-0.13
882.803	0.36
882.968	2.77
883.134	1.76
883.299	-0.77
883.465	2.17
883.63	1.06
883.796	0.69
883.961	1.19
884.127	0.32
884.292	-4.49
884.458	-1.99
884.623	-1.99
