Data from Apollo_Calib_20240827__AbsoluteIrradiance__447__06-36-02-143.txt Node

Date: Wed Aug 28 06:36:02 BST 2024
User: biology
Spectrometer: FLMT08252
Trigger mode: 0
Integration Time (sec): 5.000000E-1
Scans to average: 5
Electric dark correction enabled: true
Nonlinearity correction enabled: false
Boxcar width: 0
XAxis mode: Wavelengths
Number of Pixels in Spectrum: 3648
>>>>>Begin Spectral Data<<<<<
179.588	-0
179.809	-0
180.03	-0
180.251	-0
180.473	-0
180.694	0
180.915	0
181.136	-0
181.357	0
181.578	-0
181.799	-0
182.02	-0
182.241	0
182.462	-0
182.683	0
182.904	-0
183.125	0
183.346	0
183.567	0
183.788	0
184.009	0
184.23	0
184.451	0
184.672	0
184.892	0
185.113	0
185.334	0
185.555	0
185.776	0
185.996	0
186.217	0
186.438	0
186.659	0
186.879	0
187.1	0
187.321	0
187.541	0
187.762	0
187.983	0
188.203	0
188.424	0
188.644	0
188.865	0
189.086	0
189.306	0
189.527	0
189.747	0
189.968	0
190.188	0
190.409	0
190.629	0
190.849	0
191.07	0
191.29	0
191.511	0
191.731	0
191.951	0
192.172	0
192.392	0
192.612	0
192.833	0
193.053	0
193.273	0
193.493	0
193.714	0
193.934	0
194.154	0
194.374	0
194.594	0
194.815	0
195.035	0
195.255	0
195.475	0
195.695	0
195.915	0
196.135	0
196.355	0
196.575	0
196.795	0
197.015	0
197.235	0
197.455	0
197.675	0
197.895	0
198.115	0
198.335	0
198.555	0
198.775	0
198.995	0
199.214	0
199.434	0
199.654	0
199.874	0
200.094	-0.13
200.313	1.92
200.533	1.15
200.753	0.62
200.973	2.19
201.192	2.4
201.412	1
201.632	1.32
201.851	2.3
202.071	0.94
202.291	1.18
202.51	0.57
202.73	1.42
202.95	0.95
203.169	0.54
203.389	0.94
203.608	1.29
203.828	0.58
204.047	0.72
204.267	1.36
204.486	1.38
204.706	1.32
204.925	1.21
205.145	0.65
205.364	1.19
205.583	1.73
205.803	0.48
206.022	0.58
206.242	0.96
206.461	1.4
206.68	0.66
206.9	1.27
207.119	1.4
207.338	1.48
207.557	0.35
207.777	0.8
207.996	0.99
208.215	1.36
208.434	0.33
208.654	0.43
208.873	0.78
209.092	1.25
209.311	0.66
209.53	0.38
209.749	0.72
209.968	0.47
210.187	0.56
210.407	0.3
210.626	0.47
210.845	0.7
211.064	0.51
211.283	0.44
211.502	1.05
211.721	0.66
211.94	0.46
212.159	0.87
212.377	1.09
212.596	0.77
212.815	1.03
213.034	0.75
213.253	0.72
213.472	0.8
213.691	0.7
213.91	0.33
214.128	0.55
214.347	0.87
214.566	0.19
214.785	0.32
215.003	0.65
215.222	0.53
215.441	0.49
215.66	0.48
215.878	0.51
216.097	0.87
216.316	0.36
216.534	0.36
216.753	0.62
216.972	0.53
217.19	0.53
217.409	0.45
217.627	0.32
217.846	0.5
218.064	0.42
218.283	0.24
218.501	1.05
218.72	0.63
218.938	0.2
219.157	0.37
219.375	0.67
219.594	0.64
219.812	0.28
220.031	0.11
220.249	0.66
220.467	0.56
220.686	0.38
220.904	0.12
221.122	0.32
221.341	0.73
221.559	0.47
221.777	0.29
221.995	0.46
222.214	0.54
222.432	0.26
222.65	0.58
222.868	0.4
223.086	0.44
223.305	0.54
223.523	0.22
223.741	0.92
223.959	0.18
224.177	0.07
224.395	0.31
224.613	0.48
224.831	0.61
225.049	0.28
225.267	0.31
225.485	0.42
225.703	0.36
225.921	0.29
226.139	0.28
226.357	0.53
226.575	0.32
226.793	0.37
227.011	0.93
227.229	0.31
227.447	0.55
227.665	0.37
227.883	0.12
228.1	0.45
228.318	0.44
228.536	0.12
228.754	0.21
228.972	0.47
229.189	0.59
229.407	0.27
229.625	0.23
229.843	0.54
230.06	0.52
230.278	0.34
230.496	0.32
230.713	0.4
230.931	0.49
231.149	0.3
231.366	0.09
231.584	0.29
231.801	0.69
232.019	0.24
232.236	0.2
232.454	0.26
232.671	0.41
232.889	0.26
233.106	0.22
233.324	0.23
233.541	0.35
233.759	0.23
233.976	0.21
234.194	0.29
234.411	0.26
234.628	0.27
234.846	0.27
235.063	0.28
235.28	0.23
235.498	0.33
235.715	0.18
235.932	0.5
236.149	0.24
236.367	0.13
236.584	0.32
236.801	0.25
237.018	0.46
237.236	0.35
237.453	0.15
237.67	0.48
237.887	0.26
238.104	0.23
238.321	0.1
238.538	0.2
238.755	0.47
238.973	0.12
239.19	0.31
239.407	0.35
239.624	0.3
239.841	0.17
240.058	0.21
240.275	0.38
240.492	0.3
240.709	0.31
240.925	0.15
241.142	0.31
241.359	0.16
241.576	0.22
241.793	0.16
242.01	0.36
242.227	0.34
242.444	0.37
242.66	0.41
242.877	0.24
243.094	0.29
243.311	0.22
243.527	0.22
243.744	0.31
243.961	0.3
244.178	0.23
244.394	0.17
244.611	0.31
244.828	0.4
245.044	0.07
245.261	0.23
245.477	0.28
245.694	0.32
245.911	0.21
246.127	0.19
246.344	0.36
246.56	0.31
246.777	0.24
246.993	0.22
247.21	0.29
247.426	0.39
247.643	0.2
247.859	0.16
248.076	0.28
248.292	0.42
248.508	0.22
248.725	0.3
248.941	0.32
249.157	0.28
249.374	0.19
249.59	0.12
249.806	0.22
250.023	0.25
250.239	0.17
250.455	0.16
250.671	0.31
250.888	0.28
251.104	0.31
251.32	0.23
251.536	0.16
251.752	0.2
251.969	0.21
252.185	0.29
252.401	0.34
252.617	0.3
252.833	0.19
253.049	0.33
253.265	0.21
253.481	0.24
253.697	0.24
253.913	0.19
254.129	0.29
254.345	0.28
254.561	0.22
254.777	0.16
254.993	0.31
255.209	0.2
255.425	0.16
255.641	0.12
255.857	0.27
256.073	0.18
256.288	0.16
256.504	0.18
256.72	0.21
256.936	0.34
257.152	0.2
257.367	0.17
257.583	0.23
257.799	0.33
258.015	0.16
258.23	0.19
258.446	0.35
258.662	0.22
258.877	0.2
259.093	0.18
259.309	0.17
259.524	0.27
259.74	0.19
259.955	0.14
260.171	0.2
260.387	0.22
260.602	0.25
260.818	0.24
261.033	0.13
261.249	0.18
261.464	0.15
261.68	0.06
261.895	0.27
262.11	0.25
262.326	0.15
262.541	0.12
262.757	0.27
262.972	0.19
263.187	0.21
263.403	0.17
263.618	0.27
263.833	0.25
264.049	0.21
264.264	0.26
264.479	0.19
264.694	0.33
264.91	0.1
265.125	0.2
265.34	0.25
265.555	0.33
265.77	0.23
265.986	0.17
266.201	0.22
266.416	0.37
266.631	0.14
266.846	0.18
267.061	0.22
267.276	0.26
267.491	0.05
267.706	0.23
267.921	0.16
268.136	0.19
268.351	0.18
268.566	0.12
268.781	0.31
268.996	0.27
269.211	0.19
269.426	0.16
269.641	0.18
269.856	0.24
270.071	0.14
270.285	0.2
270.5	0.27
270.715	0.27
270.93	0.21
271.145	0.21
271.359	0.26
271.574	0.12
271.789	0.2
272.004	0.19
272.218	0.14
272.433	0.22
272.648	0.1
272.862	0.23
273.077	0.24
273.292	0.26
273.506	0.1
273.721	0.19
273.936	0.2
274.15	0.2
274.365	0.14
274.579	0.22
274.794	0.23
275.008	0.23
275.223	0.13
275.437	0.19
275.652	0.25
275.866	0.19
276.081	0.21
276.295	0.25
276.509	0.2
276.724	0.15
276.938	0.21
277.153	0.2
277.367	0.23
277.581	0.11
277.796	0.11
278.01	0.14
278.224	0.27
278.438	0.36
278.653	0.14
278.867	0.17
279.081	0.16
279.295	0.14
279.51	0.21
279.724	0.11
279.938	0.25
280.152	0.21
280.366	0.15
280.58	0.18
280.794	0.26
281.008	0.14
281.222	0.22
281.437	0.32
281.651	0.18
281.865	0.22
282.079	0.19
282.293	0.1
282.507	0.14
282.721	0.2
282.935	0.17
283.148	0.1
283.362	0.11
283.576	0.1
283.79	0.17
284.004	0.1
284.218	0.21
284.432	0.14
284.646	0.21
284.859	0.15
285.073	0.17
285.287	0.13
285.501	0.17
285.714	0.13
285.928	0.2
286.142	0.19
286.356	0.11
286.569	0.11
286.783	0.25
286.997	0.25
287.21	0.17
287.424	0.14
287.637	0.13
287.851	0.17
288.065	0.2
288.278	0.18
288.492	0.16
288.705	0.15
288.919	0.21
289.132	0.07
289.346	0.23
289.559	0.07
289.773	0.12
289.986	0.12
290.2	0.24
290.413	0.27
290.626	0.17
290.84	0.13
291.053	0.16
291.267	0.23
291.48	0.12
291.693	0.19
291.906	0.13
292.12	0.13
292.333	0.13
292.546	0.12
292.76	0.26
292.973	0.16
293.186	0.15
293.399	0.14
293.612	0.2
293.826	0.18
294.039	0.16
294.252	0.16
294.465	0.19
294.678	0.18
294.891	0.19
295.104	0.11
295.317	0.16
295.53	0.17
295.743	0.12
295.956	0.17
296.169	0.21
296.382	0.2
296.595	0.17
296.808	0.12
297.021	0.25
297.234	0.18
297.447	0.14
297.66	0.19
297.873	0.26
298.086	0.19
298.299	0.1
298.511	0.12
298.724	0.11
298.937	0.13
299.15	0.09
299.363	0.14
299.575	0.21
299.788	0.19
300.001	0.15
300.213	0.11
300.426	0.14
300.639	0.16
300.852	0.13
301.064	0.18
301.277	0.19
301.489	0.18
301.702	0.19
301.915	0.13
302.127	0.15
302.34	0.15
302.552	0.16
302.765	0.15
302.977	0.17
303.19	0.11
303.402	0.13
303.615	0.1
303.827	0.15
304.04	0.12
304.252	0.18
304.464	0.17
304.677	0.24
304.889	0.23
305.102	0.1
305.314	0.12
305.526	0.19
305.739	0.15
305.951	0.1
306.163	0.14
306.375	0.25
306.588	0.11
306.8	0.12
307.012	0.09
307.224	0.13
307.436	0.2
307.649	0.07
307.861	0.16
308.073	0.17
308.285	0.13
308.497	0.06
308.709	0.14
308.921	0.12
309.133	0.2
309.346	0.14
309.558	0.14
309.77	0.16
309.982	0.18
310.194	0.19
310.406	0.13
310.617	0.21
310.829	0.17
311.041	0.19
311.253	0.07
311.465	0.12
311.677	0.14
311.889	0.15
312.101	0.11
312.313	0.18
312.524	0.21
312.736	0.08
312.948	0.06
313.16	0.23
313.372	0.16
313.583	0.17
313.795	0.11
314.007	0.1
314.218	0.2
314.43	0.15
314.642	0.11
314.853	0.09
315.065	0.19
315.277	0.14
315.488	0.15
315.7	0.15
315.912	0.19
316.123	0.16
316.335	0.15
316.546	0.24
316.758	0.1
316.969	0.14
317.181	0.14
317.392	0.16
317.604	0.19
317.815	0.08
318.026	0.08
318.238	0.12
318.449	0.15
318.661	0.05
318.872	0.09
319.083	0.09
319.295	0.16
319.506	0.11
319.717	0.15
319.929	0.16
320.14	0.12
320.351	0.14
320.562	0.1
320.774	0.15
320.985	0.1
321.196	0.07
321.407	0.08
321.618	0.22
321.829	0.13
322.041	0.22
322.252	0.16
322.463	0.15
322.674	0.14
322.885	0.08
323.096	0.11
323.307	0.13
323.518	0.13
323.729	0.13
323.94	0.13
324.151	0.13
324.362	0.17
324.573	0.17
324.784	0.13
324.995	0.2
325.206	0.15
325.417	0.09
325.628	0.1
325.838	0.12
326.049	0.15
326.26	0.14
326.471	0.11
326.682	0.17
326.892	0.16
327.103	0.08
327.314	0.11
327.525	0.18
327.735	0.12
327.946	0.13
328.157	0.14
328.368	0.13
328.578	0.1
328.789	0.16
328.999	0.13
329.21	0.16
329.421	0.18
329.631	0.11
329.842	0.08
330.052	0.11
330.263	0.21
330.473	0.17
330.684	0.09
330.894	0.16
331.105	0.14
331.315	0.15
331.526	0.11
331.736	0.23
331.947	0.15
332.157	0.14
332.367	0.09
332.578	0.17
332.788	0.2
332.999	0.16
333.209	0.08
333.419	0.09
333.629	0.13
333.84	0.16
334.05	0.09
334.26	0.2
334.47	0.16
334.681	0.2
334.891	0.1
335.101	0.17
335.311	0.26
335.521	0.14
335.732	0.06
335.942	0.24
336.152	0.18
336.362	0.15
336.572	0.17
336.782	0.19
336.992	0.09
337.202	0.14
337.412	0.1
337.622	0.15
337.832	0.16
338.042	0.17
338.252	0.11
338.462	0.13
338.672	0.11
338.882	0.13
339.092	0.15
339.302	0.21
339.511	0.17
339.721	0.1
339.931	0.11
340.141	0.14
340.351	0.16
340.561	0.14
340.77	0.15
340.98	0.13
341.19	0.16
341.4	0.1
341.609	0.09
341.819	0.13
342.029	0.1
342.238	0.11
342.448	0.13
342.658	0.19
342.867	0.15
343.077	0.15
343.286	0.15
343.496	0.16
343.706	0.19
343.915	0.12
344.125	0.11
344.334	0.17
344.544	0.06
344.753	0.12
344.963	0.13
345.172	0.12
345.381	0.12
345.591	0.08
345.8	0.12
346.01	0.17
346.219	0.15
346.428	0
346.638	0.08
346.847	0.14
347.056	0.24
347.266	0.08
347.475	0.11
347.684	0.17
347.893	0.14
348.103	0.17
348.312	0.11
348.521	0.15
348.73	0.15
348.94	0.14
349.149	0.12
349.358	0.11
349.567	0.11
349.776	0.05
349.985	0.12
350.194	0.18
350.403	0.15
350.612	0.08
350.821	0.1
351.03	0.09
351.239	0.1
351.448	0.11
351.657	0.09
351.866	0.21
352.075	0.12
352.284	0.19
352.493	0.09
352.702	0.19
352.911	0.13
353.12	0.13
353.329	0.18
353.538	0.17
353.746	0.16
353.955	0.13
354.164	0.17
354.373	0.11
354.582	0.16
354.79	0.12
354.999	0.16
355.208	0.11
355.416	0.19
355.625	0.14
355.834	0.14
356.042	0.16
356.251	0.13
356.46	0.13
356.668	0.16
356.877	0.22
357.085	0.15
357.294	0.04
357.503	0.14
357.711	0.12
357.92	0.22
358.128	0.15
358.337	0.13
358.545	0.15
358.754	0.11
358.962	0.16
359.17	0.11
359.379	0.15
359.587	0.12
359.796	0.1
360.004	0.19
360.212	0.17
360.421	0.18
360.629	0.11
360.837	0.15
361.046	0.14
361.254	0.22
361.462	0.12
361.67	0.1
361.879	0.18
362.087	0.19
362.295	0.13
362.503	0.13
362.711	0.09
362.92	0.09
363.128	0.1
363.336	0.1
363.544	0.09
363.752	0.14
363.96	0.12
364.168	0.13
364.376	0.1
364.584	0.14
364.792	0.18
365	0.16
365.208	0.14
365.416	0.15
365.624	0.16
365.832	0.11
366.04	0.21
366.248	0.15
366.456	0.19
366.664	0.12
366.872	0.14
367.079	0.12
367.287	0.14
367.495	0.15
367.703	0.12
367.911	0.12
368.118	0.12
368.326	0.12
368.534	0.06
368.742	0.19
368.949	0.08
369.157	0.12
369.365	0.16
369.572	0.13
369.78	0.13
369.988	0.16
370.195	0.18
370.403	0.19
370.61	0.14
370.818	0.13
371.026	0.21
371.233	0.12
371.441	0.16
371.648	0.1
371.856	0.17
372.063	0.15
372.271	0.14
372.478	0.13
372.685	0.11
372.893	0.19
373.1	0.1
373.308	0.14
373.515	0.19
373.722	0.17
373.93	0.14
374.137	0.19
374.344	0.23
374.552	0.16
374.759	0.15
374.966	0.11
375.173	0.12
375.381	0.21
375.588	0.14
375.795	0.07
376.002	0.15
376.209	0.12
376.417	0.14
376.624	0.11
376.831	0.18
377.038	0.15
377.245	0.09
377.452	0.12
377.659	0.14
377.866	0.14
378.073	0.13
378.28	0.11
378.487	0.18
378.694	0.17
378.901	0.14
379.108	0.14
379.315	0.22
379.522	0.21
379.729	0.18
379.936	0.14
380.143	0.15
380.35	0.16
380.557	0.14
380.763	0.13
380.97	0.1
381.177	0.18
381.384	0.11
381.591	0.13
381.797	0.17
382.004	0.18
382.211	0.17
382.418	0.16
382.624	0.16
382.831	0.2
383.038	0.15
383.244	0.14
383.451	0.16
383.658	0.17
383.864	0.17
384.071	0.11
384.277	0.22
384.484	0.15
384.69	0.16
384.897	0.12
385.103	0.21
385.31	0.09
385.516	0.15
385.723	0.11
385.929	0.13
386.136	0.14
386.342	0.14
386.549	0.15
386.755	0.24
386.961	0.18
387.168	0.14
387.374	0.17
387.58	0.19
387.787	0.16
387.993	0.2
388.199	0.11
388.406	0.16
388.612	0.14
388.818	0.12
389.024	0.17
389.231	0.19
389.437	0.24
389.643	0.22
389.849	0.16
390.055	0.17
390.261	0.16
390.467	0.16
390.674	0.13
390.88	0.15
391.086	0.2
391.292	0.16
391.498	0.19
391.704	0.16
391.91	0.17
392.116	0.1
392.322	0.07
392.528	0.15
392.734	0.16
392.94	0.12
393.146	0.17
393.352	0.14
393.557	0.14
393.763	0.16
393.969	0.17
394.175	0.16
394.381	0.23
394.587	0.11
394.792	0.16
394.998	0.22
395.204	0.22
395.41	0.16
395.615	0.19
395.821	0.14
396.027	0.17
396.233	0.15
396.438	0.21
396.644	0.21
396.85	0.19
397.055	0.17
397.261	0.15
397.466	0.24
397.672	0.16
397.878	0.23
398.083	0.2
398.289	0.12
398.494	0.18
398.7	0.12
398.905	0.09
399.111	0.24
399.316	0.08
399.522	0.16
399.727	0.16
399.932	0.15
400.138	0.13
400.343	0.23
400.549	0.17
400.754	0.17
400.959	0.2
401.165	0.17
401.37	0.2
401.575	0.24
401.78	0.21
401.986	0.14
402.191	0.13
402.396	0.21
402.601	0.27
402.807	0.18
403.012	0.19
403.217	0.21
403.422	0.19
403.627	0.17
403.832	0.18
404.037	0.19
404.243	0.19
404.448	0.11
404.653	0.16
404.858	0.22
405.063	0.24
405.268	0.12
405.473	0.17
405.678	0.13
405.883	0.32
406.088	0.2
406.293	0.15
406.498	0.16
406.703	0.17
406.907	0.2
407.112	0.1
407.317	0.25
407.522	0.24
407.727	0.17
407.932	0.2
408.136	0.26
408.341	0.19
408.546	0.2
408.751	0.17
408.956	0.19
409.16	0.29
409.365	0.14
409.57	0.18
409.774	0.19
409.979	0.26
410.184	0.16
410.388	0.15
410.593	0.27
410.798	0.22
411.002	0.22
411.207	0.22
411.411	0.23
411.616	0.14
411.82	0.18
412.025	0.24
412.229	0.14
412.434	0.3
412.638	0.2
412.843	0.14
413.047	0.24
413.252	0.09
413.456	0.14
413.66	0.21
413.865	0.13
414.069	0.25
414.273	0.15
414.478	0.21
414.682	0.18
414.886	0.14
415.091	0.16
415.295	0.12
415.499	0.29
415.703	0.16
415.908	0.22
416.112	0.11
416.316	0.22
416.52	0.21
416.724	0.17
416.929	0.17
417.133	0.29
417.337	0.19
417.541	0.22
417.745	0.21
417.949	0.23
418.153	0.2
418.357	0.15
418.561	0.26
418.765	0.23
418.969	0.33
419.173	0.26
419.377	0.19
419.581	0.3
419.785	0.2
419.989	0.2
420.193	0.18
420.397	0.23
420.601	0.3
420.804	0.28
421.008	0.19
421.212	0.21
421.416	0.26
421.62	0.21
421.823	0.21
422.027	0.29
422.231	0.28
422.435	0.19
422.638	0.21
422.842	0.26
423.046	0.17
423.249	0.25
423.453	0.22
423.657	0.22
423.86	0.25
424.064	0.19
424.268	0.32
424.471	0.27
424.675	0.32
424.878	0.34
425.082	0.23
425.285	0.28
425.489	0.25
425.692	0.27
425.896	0.14
426.099	0.26
426.303	0.21
426.506	0.13
426.71	0.24
426.913	0.3
427.116	0.27
427.32	0.26
427.523	0.24
427.726	0.34
427.93	0.21
428.133	0.25
428.336	0.15
428.54	0.22
428.743	0.26
428.946	0.31
429.149	0.28
429.353	0.25
429.556	0.22
429.759	0.23
429.962	0.21
430.165	0.21
430.368	0.17
430.571	0.24
430.775	0.23
430.978	0.23
431.181	0.24
431.384	0.21
431.587	0.24
431.79	0.27
431.993	0.24
432.196	0.18
432.399	0.22
432.602	0.27
432.805	0.22
433.008	0.25
433.211	0.21
433.414	0.28
433.616	0.31
433.819	0.28
434.022	0.18
434.225	0.27
434.428	0.25
434.631	0.39
434.833	0.24
435.036	0.29
435.239	0.28
435.442	0.24
435.645	0.24
435.847	0.23
436.05	0.29
436.253	0.28
436.455	0.2
436.658	0.23
436.861	0.31
437.063	0.2
437.266	0.17
437.468	0.24
437.671	0.37
437.874	0.28
438.076	0.2
438.279	0.19
438.481	0.23
438.684	0.24
438.886	0.28
439.089	0.19
439.291	0.31
439.494	0.31
439.696	0.25
439.899	0.29
440.101	0.3
440.303	0.24
440.506	0.36
440.708	0.3
440.91	0.29
441.113	0.24
441.315	0.31
441.517	0.22
441.72	0.3
441.922	0.19
442.124	0.2
442.326	0.31
442.529	0.37
442.731	0.22
442.933	0.38
443.135	0.26
443.337	0.27
443.539	0.26
443.742	0.3
443.944	0.3
444.146	0.26
444.348	0.31
444.55	0.26
444.752	0.31
444.954	0.22
445.156	0.32
445.358	0.23
445.56	0.34
445.762	0.29
445.964	0.26
446.166	0.21
446.368	0.27
446.57	0.37
446.772	0.34
446.974	0.27
447.175	0.3
447.377	0.27
447.579	0.26
447.781	0.26
447.983	0.29
448.184	0.31
448.386	0.32
448.588	0.23
448.79	0.28
448.991	0.27
449.193	0.29
449.395	0.28
449.597	0.42
449.798	0.33
450	0.33
450.202	0.3
450.403	0.32
450.605	0.34
450.806	0.31
451.008	0.24
451.21	0.31
451.411	0.3
451.613	0.28
451.814	0.32
452.016	0.35
452.217	0.29
452.419	0.35
452.62	0.3
452.821	0.36
453.023	0.33
453.224	0.36
453.426	0.32
453.627	0.32
453.828	0.31
454.03	0.35
454.231	0.34
454.432	0.34
454.634	0.42
454.835	0.33
455.036	0.25
455.238	0.43
455.439	0.45
455.64	0.32
455.841	0.3
456.042	0.52
456.244	0.35
456.445	0.38
456.646	0.27
456.847	0.32
457.048	0.45
457.249	0.46
457.45	0.62
457.651	0.31
457.852	0.39
458.054	0.39
458.255	0.38
458.456	0.42
458.657	0.36
458.858	0.4
459.058	0.43
459.259	0.44
459.46	0.45
459.661	0.38
459.862	0.56
460.063	0.39
460.264	0.52
460.465	0.35
460.666	0.52
460.866	0.41
461.067	0.44
461.268	0.39
461.469	0.41
461.67	0.42
461.87	0.37
462.071	0.43
462.272	0.38
462.473	0.42
462.673	0.51
462.874	0.42
463.075	0.5
463.275	0.45
463.476	0.54
463.676	0.44
463.877	0.46
464.078	0.52
464.278	0.56
464.479	0.49
464.679	0.54
464.88	0.54
465.08	0.55
465.281	0.51
465.481	0.47
465.682	0.52
465.882	0.51
466.083	0.55
466.283	0.52
466.483	0.54
466.684	0.48
466.884	0.51
467.085	0.51
467.285	0.61
467.485	0.53
467.686	0.56
467.886	0.55
468.086	0.56
468.286	0.53
468.487	0.64
468.687	0.54
468.887	0.6
469.087	0.65
469.287	0.61
469.488	0.57
469.688	0.67
469.888	0.69
470.088	0.73
470.288	0.74
470.488	0.76
470.688	0.64
470.888	0.69
471.088	0.69
471.288	0.77
471.488	0.78
471.688	0.78
471.888	0.74
472.088	0.85
472.288	0.83
472.488	0.77
472.688	0.77
472.888	0.88
473.088	0.84
473.288	0.85
473.488	0.87
473.688	0.99
473.887	0.9
474.087	0.91
474.287	0.98
474.487	0.95
474.687	0.99
474.886	0.99
475.086	1.03
475.286	0.98
475.486	1.04
475.685	1.06
475.885	1.07
476.085	1.11
476.284	1.08
476.484	1.14
476.684	1.15
476.883	1.26
477.083	1.16
477.282	1.16
477.482	1.26
477.681	1.24
477.881	1.22
478.08	1.27
478.28	1.24
478.479	1.32
478.679	1.37
478.878	1.32
479.078	1.32
479.277	1.42
479.477	1.41
479.676	1.44
479.875	1.44
480.075	1.44
480.274	1.52
480.473	1.6
480.673	1.53
480.872	1.68
481.071	1.65
481.271	1.7
481.47	1.69
481.669	1.71
481.868	1.68
482.067	1.75
482.267	1.73
482.466	1.78
482.665	1.82
482.864	1.86
483.063	1.89
483.262	2.01
483.461	2.01
483.661	2.12
483.86	2.09
484.059	2.17
484.258	2.19
484.457	2.17
484.656	2.25
484.855	2.37
485.054	2.18
485.253	2.32
485.452	2.3
485.651	2.44
485.849	2.44
486.048	2.48
486.247	2.53
486.446	2.6
486.645	2.61
486.844	2.7
487.043	2.67
487.241	2.75
487.44	2.81
487.639	2.89
487.838	2.92
488.037	2.95
488.235	3.08
488.434	3.16
488.633	2.96
488.831	3.26
489.03	3.27
489.229	3.27
489.427	3.36
489.626	3.39
489.825	3.46
490.023	3.58
490.222	3.53
490.42	3.6
490.619	3.7
490.817	3.78
491.016	3.8
491.214	3.92
491.413	3.96
491.611	3.91
491.81	4
492.008	4.12
492.207	4.28
492.405	4.27
492.604	4.25
492.802	4.38
493	4.49
493.199	4.59
493.397	4.72
493.595	4.77
493.794	4.76
493.992	4.93
494.19	5.02
494.388	5.09
494.587	5.05
494.785	5.22
494.983	5.13
495.181	5.31
495.379	5.5
495.578	5.6
495.776	5.61
495.974	5.51
496.172	5.81
496.37	6.02
496.568	6.1
496.766	6.08
496.964	6.27
497.162	6.3
497.36	6.5
497.558	6.5
497.756	6.69
497.954	6.74
498.152	6.94
498.35	7.13
498.548	6.98
498.746	7.09
498.944	7.19
499.142	7.22
499.34	7.57
499.538	7.77
499.736	7.66
499.933	7.84
500.131	7.89
500.329	8.39
500.527	8.31
500.725	8.6
500.922	8.62
501.12	8.69
501.318	8.98
501.516	8.99
501.713	9.21
501.911	9.14
502.109	9.23
502.306	9.57
502.504	9.47
502.701	9.7
502.899	9.87
503.097	10.28
503.294	10.09
503.492	10.56
503.689	10.63
503.887	10.6
504.084	10.83
504.282	10.84
504.479	10.97
504.677	11.44
504.874	11.53
505.072	11.2
505.269	11.92
505.466	12.05
505.664	12.14
505.861	12.03
506.059	12.4
506.256	12.42
506.453	12.69
506.651	12.98
506.848	13.13
507.045	13.13
507.242	13.27
507.44	13.48
507.637	13.7
507.834	13.73
508.031	14.11
508.229	14.19
508.426	13.97
508.623	14.48
508.82	14.69
509.017	14.65
509.214	14.7
509.411	15.06
509.608	15.03
509.805	15.47
510.003	15.49
510.2	15.66
510.397	16.01
510.594	15.93
510.791	16.2
510.988	16.25
511.184	16.16
511.381	15.94
511.578	16.52
511.775	16.9
511.972	16.7
512.169	16.93
512.366	17.11
512.563	17.35
512.76	17.54
512.956	17.62
513.153	17.5
513.35	17.47
513.547	17.52
513.744	17.91
513.94	18.01
514.137	18.28
514.334	18.2
514.53	18.21
514.727	18.88
514.924	18.42
515.12	18.49
515.317	18.71
515.514	18.57
515.71	18.49
515.907	19.16
516.103	19.07
516.3	18.72
516.497	19.09
516.693	19.01
516.89	19.17
517.086	19.23
517.283	19.15
517.479	18.78
517.676	19.41
517.872	19.47
518.068	19.36
518.265	19.32
518.461	19.12
518.658	19.45
518.854	19.35
519.05	19.52
519.247	19.55
519.443	19.19
519.639	19.58
519.836	19.24
520.032	19.06
520.228	19.47
520.424	19.04
520.621	19.19
520.817	19.35
521.013	19.04
521.209	19.47
521.405	19.15
521.601	19.02
521.798	18.84
521.994	18.66
522.19	18.6
522.386	18.7
522.582	18.86
522.778	19.02
522.974	18.52
523.17	18.49
523.366	18.25
523.562	18.31
523.758	18.25
523.954	17.88
524.15	18.15
524.346	17.96
524.542	17.97
524.738	17.67
524.934	17.86
525.129	17.72
525.325	17.18
525.521	17.29
525.717	17.48
525.913	17
526.109	16.86
526.304	17.09
526.5	16.8
526.696	16.72
526.892	16.41
527.087	16.85
527.283	16.48
527.479	16.26
527.674	15.69
527.87	15.92
528.066	15.8
528.261	15.77
528.457	15.31
528.653	15.57
528.848	15.38
529.044	15.43
529.239	14.85
529.435	14.81
529.63	14.6
529.826	14.45
530.021	14.35
530.217	14.29
530.412	14.13
530.608	14.06
530.803	13.85
530.999	13.57
531.194	13.66
531.389	13.66
531.585	13.35
531.78	13.52
531.975	13.15
532.171	13.04
532.366	13.02
532.561	12.75
532.757	12.62
532.952	12.82
533.147	12.23
533.342	12.31
533.538	12.05
533.733	12.2
533.928	11.51
534.123	11.83
534.318	11.82
534.513	11.49
534.709	11.56
534.904	11.41
535.099	11.29
535.294	11.26
535.489	11.13
535.684	10.83
535.879	10.74
536.074	10.77
536.269	10.61
536.464	10.6
536.659	10.32
536.854	10.22
537.049	10.21
537.244	10.02
537.439	9.89
537.634	9.83
537.828	9.78
538.023	9.65
538.218	9.58
538.413	9.29
538.608	9.32
538.803	9.17
538.997	9.03
539.192	9
539.387	8.84
539.582	8.8
539.776	8.59
539.971	8.69
540.166	8.64
540.36	8.41
540.555	8.44
540.75	8.35
540.944	8.26
541.139	8.15
541.334	7.99
541.528	7.9
541.723	7.92
541.917	7.8
542.112	7.6
542.306	7.44
542.501	7.43
542.695	7.36
542.89	7.27
543.084	7.22
543.279	7.09
543.473	7.14
543.668	7.02
543.862	6.87
544.056	6.75
544.251	6.84
544.445	6.73
544.64	6.68
544.834	6.39
545.028	6.17
545.222	6.34
545.417	6.44
545.611	6.27
545.805	6.19
546	5.94
546.194	6.02
546.388	6.01
546.582	5.8
546.776	5.74
546.97	5.73
547.165	5.7
547.359	5.59
547.553	5.45
547.747	5.46
547.941	5.48
548.135	5.3
548.329	5.3
548.523	5.23
548.717	5.13
548.911	5.07
549.105	4.98
549.299	4.98
549.493	4.94
549.687	4.75
549.881	4.78
550.075	4.75
550.269	4.6
550.463	4.63
550.657	4.54
550.85	4.47
551.044	4.44
551.238	4.43
551.432	4.36
551.626	4.28
551.82	4.25
552.013	4.13
552.207	4.18
552.401	4.09
552.594	4.01
552.788	3.89
552.982	3.9
553.176	3.85
553.369	3.87
553.563	3.82
553.756	3.71
553.95	3.71
554.144	3.64
554.337	3.58
554.531	3.47
554.724	3.52
554.918	3.42
555.111	3.42
555.305	3.37
555.498	3.31
555.692	3.31
555.885	3.2
556.079	3.16
556.272	3.14
556.466	3.13
556.659	3.07
556.852	2.99
557.046	2.95
557.239	2.9
557.432	2.86
557.626	2.85
557.819	2.89
558.012	2.82
558.206	2.82
558.399	2.72
558.592	2.7
558.785	2.64
558.979	2.62
559.172	2.61
559.365	2.57
559.558	2.48
559.751	2.5
559.944	2.51
560.138	2.43
560.331	2.4
560.524	2.38
560.717	2.35
560.91	2.32
561.103	2.33
561.296	2.23
561.489	2.29
561.682	2.27
561.875	2.22
562.068	2.2
562.261	2.13
562.454	2.15
562.647	2.08
562.84	2.04
563.032	2.03
563.225	1.96
563.418	1.95
563.611	1.97
563.804	1.92
563.997	1.85
564.19	1.82
564.382	1.9
564.575	1.86
564.768	1.82
564.961	1.82
565.153	1.75
565.346	1.73
565.539	1.78
565.731	1.74
565.924	1.75
566.117	1.73
566.309	1.64
566.502	1.61
566.695	1.57
566.887	1.61
567.08	1.55
567.272	1.55
567.465	1.51
567.657	1.56
567.85	1.51
568.042	1.49
568.235	1.51
568.427	1.44
568.62	1.43
568.812	1.41
569.005	1.44
569.197	1.31
569.389	1.39
569.582	1.35
569.774	1.35
569.966	1.23
570.159	1.24
570.351	1.27
570.543	1.25
570.736	1.21
570.928	1.19
571.12	1.21
571.312	1.15
571.505	1.13
571.697	1.19
571.889	1.12
572.081	1.15
572.273	1.11
572.465	1.16
572.658	1.1
572.85	1.08
573.042	1.05
573.234	1.04
573.426	1.06
573.618	1.01
573.81	1.03
574.002	1.04
574.194	1.04
574.386	0.93
574.578	0.91
574.77	0.95
574.962	0.94
575.154	0.92
575.346	0.93
575.538	0.9
575.729	0.89
575.921	0.93
576.113	0.87
576.305	0.9
576.497	0.84
576.689	0.86
576.88	0.81
577.072	0.83
577.264	0.79
577.456	0.83
577.647	0.74
577.839	0.79
578.031	0.8
578.223	0.77
578.414	0.76
578.606	0.77
578.798	0.73
578.989	0.73
579.181	0.72
579.372	0.73
579.564	0.7
579.755	0.71
579.947	0.7
580.139	0.71
580.33	0.61
580.522	0.65
580.713	0.6
580.905	0.66
581.096	0.66
581.287	0.68
581.479	0.65
581.67	0.66
581.862	0.64
582.053	0.61
582.244	0.55
582.436	0.65
582.627	0.59
582.818	0.56
583.01	0.52
583.201	0.61
583.392	0.59
583.583	0.57
583.775	0.52
583.966	0.56
584.157	0.54
584.348	0.53
584.54	0.47
584.731	0.54
584.922	0.53
585.113	0.48
585.304	0.55
585.495	0.53
585.686	0.54
585.877	0.55
586.068	0.51
586.259	0.5
586.45	0.5
586.641	0.45
586.832	0.44
587.023	0.48
587.214	0.44
587.405	0.5
587.596	0.43
587.787	0.5
587.978	0.49
588.169	0.4
588.36	0.42
588.551	0.45
588.742	0.41
588.932	0.44
589.123	0.41
589.314	0.46
589.505	0.41
589.696	0.42
589.886	0.38
590.077	0.38
590.268	0.43
590.458	0.38
590.649	0.34
590.84	0.4
591.03	0.35
591.221	0.34
591.412	0.32
591.602	0.41
591.793	0.4
591.984	0.37
592.174	0.34
592.365	0.43
592.555	0.33
592.746	0.37
592.936	0.36
593.127	0.34
593.317	0.36
593.508	0.34
593.698	0.33
593.889	0.32
594.079	0.34
594.269	0.3
594.46	0.29
594.65	0.32
594.84	0.35
595.031	0.31
595.221	0.33
595.411	0.26
595.602	0.34
595.792	0.3
595.982	0.31
596.172	0.36
596.363	0.31
596.553	0.32
596.743	0.31
596.933	0.31
597.123	0.34
597.314	0.23
597.504	0.25
597.694	0.33
597.884	0.26
598.074	0.3
598.264	0.26
598.454	0.3
598.644	0.26
598.834	0.28
599.024	0.21
599.214	0.26
599.404	0.3
599.594	0.26
599.784	0.23
599.974	0.34
600.164	0.29
600.354	0.22
600.544	0.21
600.734	0.26
600.924	0.27
601.114	0.23
601.303	0.25
601.493	0.25
601.683	0.23
601.873	0.26
602.063	0.23
602.252	0.27
602.442	0.17
602.632	0.21
602.821	0.22
603.011	0.26
603.201	0.23
603.39	0.2
603.58	0.2
603.77	0.22
603.959	0.24
604.149	0.22
604.339	0.23
604.528	0.25
604.718	0.27
604.907	0.21
605.097	0.21
605.286	0.16
605.476	0.26
605.665	0.25
605.855	0.18
606.044	0.28
606.234	0.21
606.423	0.19
606.612	0.17
606.802	0.19
606.991	0.25
607.181	0.23
607.37	0.18
607.559	0.19
607.749	0.17
607.938	0.21
608.127	0.21
608.316	0.19
608.506	0.21
608.695	0.18
608.884	0.17
609.073	0.22
609.263	0.2
609.452	0.25
609.641	0.19
609.83	0.16
610.019	0.19
610.208	0.16
610.397	0.2
610.586	0.2
610.775	0.15
610.965	0.17
611.154	0.16
611.343	0.19
611.532	0.18
611.721	0.15
611.91	0.18
612.099	0.21
612.287	0.18
612.476	0.14
612.665	0.22
612.854	0.13
613.043	0.18
613.232	0.16
613.421	0.13
613.61	0.21
613.798	0.16
613.987	0.22
614.176	0.17
614.365	0.22
614.554	0.18
614.742	0.19
614.931	0.13
615.12	0.21
615.309	0.17
615.497	0.17
615.686	0.16
615.875	0.16
616.063	0.18
616.252	0.15
616.44	0.15
616.629	0.14
616.818	0.17
617.006	0.18
617.195	0.16
617.383	0.2
617.572	0.15
617.76	0.15
617.949	0.14
618.137	0.16
618.326	0.21
618.514	0.12
618.703	0.11
618.891	0.24
619.079	0.13
619.268	0.18
619.456	0.13
619.644	0.2
619.833	0.17
620.021	0.14
620.209	0.11
620.398	0.16
620.586	0.17
620.774	0.2
620.962	0.13
621.151	0.18
621.339	0.13
621.527	0.12
621.715	0.13
621.903	0.11
622.092	0.13
622.28	0.15
622.468	0.12
622.656	0.17
622.844	0.16
623.032	0.13
623.22	0.1
623.408	0.18
623.596	0.18
623.784	0.17
623.972	0.11
624.16	0.16
624.348	0.22
624.536	0.13
624.724	0.12
624.912	0.17
625.1	0.19
625.288	0.12
625.476	0.15
625.664	0.17
625.851	0.15
626.039	0.14
626.227	0.15
626.415	0.12
626.603	0.12
626.79	0.16
626.978	0.11
627.166	0.17
627.354	0.13
627.541	0.12
627.729	0.05
627.917	0.17
628.104	0.17
628.292	0.14
628.48	0.15
628.667	0.17
628.855	0.15
629.042	0.16
629.23	0.12
629.418	0.11
629.605	0.12
629.793	0.15
629.98	0.12
630.168	0.09
630.355	0.16
630.543	0.15
630.73	0.14
630.917	0.12
631.105	0.21
631.292	0.12
631.48	0.14
631.667	0.21
631.854	0.14
632.042	0.12
632.229	0.07
632.416	0.14
632.604	0.14
632.791	0.09
632.978	0.15
633.165	0.14
633.353	0.19
633.54	0.18
633.727	0.04
633.914	0.08
634.101	0.08
634.289	0.16
634.476	0.12
634.663	0.07
634.85	0.16
635.037	0.09
635.224	0.07
635.411	0.14
635.598	0.15
635.785	0.12
635.972	0.1
636.159	0.18
636.346	0.1
636.533	0.14
636.72	0.09
636.907	0.11
637.094	0.13
637.281	0.1
637.468	0.16
637.655	0.1
637.842	0.14
638.029	0.11
638.215	0.14
638.402	0.15
638.589	0.09
638.776	0.09
638.963	0.12
639.149	0.13
639.336	0.17
639.523	0.12
639.709	0.1
639.896	0.11
640.083	0.2
640.27	0.16
640.456	0.12
640.643	0.13
640.829	0.08
641.016	0.14
641.203	0.07
641.389	0.17
641.576	0.16
641.762	0.1
641.949	0.08
642.135	0.16
642.322	0.12
642.508	0.09
642.695	0.11
642.881	0.12
643.068	0.1
643.254	0.13
643.441	0.15
643.627	0.16
643.813	0.11
644	0.17
644.186	0.1
644.372	0.06
644.559	0.15
644.745	0.1
644.931	0.1
645.118	0.09
645.304	0.13
645.49	0.07
645.676	0.09
645.862	0.1
646.049	0.17
646.235	0.08
646.421	0.17
646.607	0.2
646.793	0.07
646.979	0.09
647.165	0.12
647.352	0.14
647.538	0.15
647.724	0.1
647.91	0.14
648.096	0.14
648.282	0.17
648.468	0.12
648.654	0.15
648.84	0.14
649.026	0.11
649.212	0.13
649.397	0.11
649.583	0.07
649.769	0.16
649.955	0.13
650.141	0.17
650.327	0.15
650.513	0.09
650.698	0.13
650.884	0.06
651.07	0.11
651.256	0.11
651.442	0.13
651.627	0.13
651.813	0.15
651.999	0.12
652.184	0.16
652.37	0.1
652.556	0.12
652.741	0.18
652.927	0.06
653.113	0.12
653.298	0.12
653.484	0.13
653.669	0.09
653.855	0.1
654.04	0.18
654.226	0.17
654.412	0.12
654.597	0.09
654.782	0.11
654.968	0.15
655.153	0.13
655.339	0.1
655.524	0.09
655.71	0.11
655.895	0.09
656.08	0.1
656.266	0.13
656.451	0.13
656.636	0.09
656.822	0.16
657.007	0.11
657.192	0.1
657.378	0.08
657.563	0.12
657.748	0.14
657.933	0.18
658.118	0.08
658.304	0.09
658.489	0.17
658.674	0.1
658.859	0.09
659.044	0.11
659.229	0.14
659.414	0.07
659.599	0.12
659.785	0.1
659.97	0.09
660.155	0.15
660.34	0.11
660.525	0.12
660.71	0.11
660.895	0.16
661.08	0.1
661.264	0.12
661.449	0.2
661.634	0.18
661.819	0.14
662.004	0.16
662.189	0.07
662.374	0.11
662.559	0.09
662.743	0.07
662.928	0.17
663.113	0.13
663.298	0.08
663.483	0.1
663.667	0.14
663.852	0.1
664.037	0.16
664.221	0.05
664.406	0.15
664.591	0.15
664.775	0.1
664.96	0.14
665.145	0.14
665.329	0.12
665.514	0.15
665.698	0.14
665.883	0.07
666.068	0.19
666.252	0.13
666.437	0.13
666.621	0.13
666.806	0.16
666.99	0.1
667.174	0.1
667.359	0.16
667.543	0.13
667.728	0.12
667.912	0.07
668.096	0.15
668.281	0.11
668.465	0.16
668.649	0.16
668.834	0.1
669.018	0.12
669.202	0.11
669.387	0.11
669.571	0.19
669.755	0.12
669.939	0.15
670.124	0.13
670.308	0.19
670.492	0.16
670.676	0.12
670.86	0.13
671.044	0.1
671.228	0.19
671.413	0.07
671.597	0.1
671.781	0.11
671.965	0.18
672.149	0.18
672.333	0.15
672.517	0.15
672.701	0.18
672.885	0.16
673.069	0.09
673.253	0.19
673.437	0.13
673.621	0.11
673.804	0.14
673.988	0.15
674.172	0.18
674.356	0.1
674.54	0.17
674.724	0.26
674.908	0.16
675.091	0.16
675.275	0.16
675.459	0.19
675.643	0.15
675.826	0.14
676.01	0.17
676.194	0.21
676.377	0.21
676.561	0.21
676.745	0.18
676.928	0.18
677.112	0.26
677.296	0.13
677.479	0.15
677.663	0.16
677.846	0.16
678.03	0.1
678.213	0.15
678.397	0.2
678.58	0.12
678.764	0.16
678.947	0.13
679.131	0.11
679.314	0.23
679.498	0.15
679.681	0.2
679.865	0.24
680.048	0.12
680.231	0.17
680.415	0.17
680.598	0.15
680.781	0.13
680.965	0.15
681.148	0.17
681.331	0.16
681.514	0.19
681.698	0.17
681.881	0.16
682.064	0.17
682.247	0.17
682.43	0.11
682.614	0.21
682.797	0.23
682.98	0.18
683.163	0.12
683.346	0.21
683.529	0.15
683.712	0.12
683.895	0.2
684.078	0.1
684.261	0.16
684.444	0.19
684.627	0.2
684.81	0.1
684.993	0.15
685.176	0.24
685.359	0.12
685.542	0.16
685.725	0.22
685.908	0.15
686.091	0.12
686.274	0.18
686.457	0.19
686.639	0.14
686.822	0.15
687.005	0.15
687.188	0.11
687.371	0.21
687.553	0.19
687.736	0.13
687.919	0.23
688.102	0.2
688.284	0.12
688.467	0.18
688.65	0.16
688.832	0.1
689.015	0.18
689.197	0.07
689.38	0.28
689.563	0.26
689.745	0.12
689.928	0.11
690.11	0.19
690.293	0.16
690.475	0.13
690.658	0.18
690.84	0.13
691.023	0.15
691.205	0.1
691.388	0.13
691.57	0.21
691.752	0.17
691.935	0.12
692.117	0.1
692.3	0.18
692.482	0.11
692.664	0.1
692.847	0.18
693.029	0.19
693.211	0.19
693.393	0.13
693.576	0.16
693.758	0.17
693.94	0.11
694.122	0.1
694.304	0.08
694.487	0.15
694.669	0.23
694.851	0.12
695.033	0.17
695.215	0.13
695.397	0.11
695.579	0.18
695.761	0.11
695.943	0.18
696.125	0.23
696.308	0.14
696.49	0.05
696.671	0.35
696.853	0.16
697.035	0.32
697.217	0.11
697.399	0.21
697.581	0.13
697.763	0.11
697.945	0.1
698.127	0.15
698.309	0.23
698.491	0.17
698.672	0.18
698.854	0.19
699.036	0.22
699.218	0.09
699.399	0.2
699.581	0.17
699.763	0.17
699.945	0.09
700.126	0.13
700.308	0.21
700.49	0.18
700.671	0.04
700.853	0.11
701.035	0.1
701.216	0.12
701.398	0.08
701.579	0.17
701.761	0.17
701.943	0.13
702.124	0.17
702.306	0.15
702.487	0.25
702.669	0.24
702.85	0.12
703.031	0.14
703.213	0.25
703.394	0.2
703.576	0.15
703.757	0.26
703.938	0.22
704.12	0.29
704.301	0.22
704.483	0.16
704.664	0.17
704.845	0.23
705.026	0.26
705.208	0.21
705.389	0.19
705.57	0.22
705.751	0.19
705.933	0.2
706.114	0.24
706.295	0.22
706.476	0.08
706.657	0.24
706.838	0.19
707.02	0.2
707.201	0.06
707.382	0.15
707.563	0.23
707.744	0.17
707.925	0.12
708.106	0.17
708.287	0.22
708.468	0.22
708.649	0.21
708.83	0.19
709.011	0.1
709.192	0.18
709.373	0.09
709.554	0.17
709.734	0.21
709.915	0.24
710.096	0.16
710.277	0.08
710.458	0.14
710.639	0.14
710.819	0.1
711	0.13
711.181	0.17
711.362	0.24
711.542	0.16
711.723	0.15
711.904	0.21
712.085	0.25
712.265	0.2
712.446	0.08
712.627	0.14
712.807	0.15
712.988	0.22
713.168	0.08
713.349	0.24
713.53	0.06
713.71	0.17
713.891	0.12
714.071	0.16
714.252	0.13
714.432	0.16
714.613	0.06
714.793	0.16
714.974	0.24
715.154	0.19
715.334	0.19
715.515	0.21
715.695	0.1
715.876	0.15
716.056	0.1
716.236	0.15
716.417	0.18
716.597	0.07
716.777	0.34
716.957	0.16
717.138	0.21
717.318	0.16
717.498	0.03
717.678	0.14
717.859	0.22
718.039	0.11
718.219	0.17
718.399	0.18
718.579	0.11
718.759	0.06
718.939	0.2
719.12	0.15
719.3	0.16
719.48	0.03
719.66	0.09
719.84	0.19
720.02	0.13
720.2	0.14
720.38	0.15
720.56	0.22
720.74	0.08
720.92	0.18
721.1	0.25
721.279	0.29
721.459	0.2
721.639	0.06
721.819	0.21
721.999	0.09
722.179	0.18
722.359	0.03
722.538	0.22
722.718	0.16
722.898	0.16
723.078	0.09
723.257	0.08
723.437	0.17
723.617	0.11
723.797	0.18
723.976	0.16
724.156	0.21
724.336	0.23
724.515	0.31
724.695	-0.03
724.874	0.13
725.054	0.24
725.234	0.09
725.413	0.23
725.593	0.16
725.772	0.13
725.952	0.18
726.131	0.22
726.311	0.21
726.49	0.17
726.67	0.09
726.849	0.11
727.028	0.22
727.208	0.14
727.387	0.23
727.567	0.08
727.746	0.14
727.925	0.13
728.105	0.02
728.284	0.14
728.463	0.11
728.643	0.15
728.822	0.1
729.001	0.23
729.18	0.18
729.359	0.23
729.539	0.1
729.718	0.19
729.897	0.16
730.076	0.12
730.255	0.14
730.434	0.26
730.614	0.21
730.793	0.24
730.972	0.17
731.151	0.14
731.33	0.25
731.509	0.28
731.688	0.2
731.867	0.18
732.046	-0.01
732.225	0.34
732.404	0.08
732.583	0.03
732.762	0.12
732.941	0.19
733.12	0.2
733.298	0.09
733.477	0.33
733.656	0.18
733.835	0.06
734.014	0.28
734.193	0.2
734.371	0.24
734.55	0.23
734.729	0.15
734.908	0.18
735.086	0.19
735.265	0.26
735.444	0.06
735.623	0.13
735.801	0.2
735.98	0.27
736.159	0.26
736.337	0.3
736.516	0.21
736.694	0.19
736.873	0.18
737.052	0.34
737.23	0.32
737.409	0.07
737.587	0.37
737.766	0
737.944	0.27
738.123	0.23
738.301	0.19
738.479	0.15
738.658	0.33
738.836	-0
739.015	0.26
739.193	0.29
739.371	0.16
739.55	0.11
739.728	0.09
739.906	0.21
740.085	0.36
740.263	0.34
740.441	0.07
740.62	0.36
740.798	0.26
740.976	0.12
741.154	0.18
741.332	0.33
741.511	0.13
741.689	0.28
741.867	0.28
742.045	0.21
742.223	0.14
742.401	0.11
742.579	0.18
742.757	0.34
742.935	0.04
743.114	0.17
743.292	0.19
743.47	0.15
743.648	0.27
743.826	0.07
744.004	0.27
744.181	0.28
744.359	0.13
744.537	0.17
744.715	0.21
744.893	0.22
745.071	0.2
745.249	0.12
745.427	0.12
745.605	0.26
745.782	0.2
745.96	0.18
746.138	0.27
746.316	0.28
746.493	0.22
746.671	0.16
746.849	0.15
747.027	0.31
747.204	0.05
747.382	0.31
747.56	0.17
747.737	0.07
747.915	0.14
748.093	0.23
748.27	0.09
748.448	0.08
748.625	0.07
748.803	0.07
748.98	0.1
749.158	0.26
749.335	0.25
749.513	0.13
749.69	0.1
749.868	0.07
750.045	0.17
750.223	0.18
750.4	-0.07
750.578	0.38
750.755	0.08
750.932	0.01
751.11	0.36
751.287	0.08
751.464	0.31
751.642	0.13
751.819	0.3
751.996	0.11
752.173	0.22
752.351	0.11
752.528	0.2
752.705	0.2
752.882	0.09
753.06	0.12
753.237	0.36
753.414	0.44
753.591	0.32
753.768	0.22
753.945	0.13
754.122	0.02
754.299	0.27
754.476	0.07
754.654	0.27
754.831	0.3
755.008	0.23
755.185	0.18
755.362	0.06
755.539	0.2
755.716	0.07
755.892	0.16
756.069	0.26
756.246	0.19
756.423	0.28
756.6	0.31
756.777	0.15
756.954	0.26
757.131	0.1
757.307	-0.03
757.484	0.06
757.661	0.25
757.838	0.17
758.015	0.06
758.191	0.33
758.368	0.26
758.545	0.38
758.721	0.26
758.898	0.11
759.075	0.16
759.251	0.36
759.428	0.23
759.605	0.07
759.781	0.02
759.958	0.2
760.134	0.29
760.311	0.19
760.488	0.39
760.664	0.41
760.841	0.15
761.017	0.07
761.194	0.18
761.37	0.32
761.547	0.15
761.723	0.2
761.899	0.36
762.076	0.1
762.252	-0.05
762.429	0.1
762.605	0.32
762.781	0.2
762.958	0.25
763.134	0.19
763.31	0.14
763.486	0.39
763.663	-0.01
763.839	0.27
764.015	-0.08
764.191	0.15
764.368	0.2
764.544	0
764.72	0.16
764.896	0.21
765.072	0.19
765.248	0.19
765.425	0.19
765.601	0.17
765.777	0.19
765.953	-0.01
766.129	0.1
766.305	0.11
766.481	0.33
766.657	0.2
766.833	0.32
767.009	-0.01
767.185	0.09
767.361	0.22
767.537	0.04
767.713	0.28
767.889	0.15
768.065	0.27
768.24	0.22
768.416	0.41
768.592	0.07
768.768	0.2
768.944	0.18
769.12	0.03
769.295	0.19
769.471	0.18
769.647	0.15
769.823	0.31
769.998	0.16
770.174	0.07
770.35	0.54
770.525	0.54
770.701	0.27
770.877	0.19
771.052	0.08
771.228	0.4
771.403	0.32
771.579	0.31
771.755	0.51
771.93	0.16
772.106	0.1
772.281	-0.04
772.457	0.27
772.632	0.3
772.808	0.2
772.983	0.09
773.159	0.07
773.334	0.29
773.509	0.29
773.685	0.04
773.86	0.57
774.036	0.42
774.211	0.3
774.386	0.15
774.562	0.12
774.737	0.21
774.912	0.09
775.087	0.22
775.263	0.15
775.438	0.26
775.613	0.23
775.788	0.03
775.964	0.36
776.139	0.52
776.314	0.07
776.489	0.28
776.664	0.17
776.839	0.07
777.014	0.24
777.19	0.22
777.365	0.37
777.54	0.31
777.715	0.07
777.89	0.23
778.065	0.12
778.24	0.25
778.415	0.3
778.59	0.03
778.765	0.22
778.94	0.33
779.115	0.21
779.289	0.12
779.464	0.21
779.639	0.33
779.814	-0.18
779.989	-0.09
780.164	0.53
780.339	0.32
780.513	0.19
780.688	-0.11
780.863	0.12
781.038	0.42
781.212	0.05
781.387	0.18
781.562	0.41
781.737	0.03
781.911	0.42
782.086	0.05
782.261	0.21
782.435	0.42
782.61	0.24
782.784	0.32
782.959	0.28
783.134	0.23
783.308	-0.1
783.483	0.1
783.657	0.74
783.832	0.4
784.006	-0.06
784.181	0.13
784.355	0.47
784.53	0.03
784.704	0.16
784.878	0.36
785.053	0.48
785.227	0.47
785.402	0.74
785.576	-0.01
785.75	0.38
785.925	0.31
786.099	0.2
786.273	0.21
786.448	0.53
786.622	0.51
786.796	0.08
786.97	0.16
787.145	0.76
787.319	-0.14
787.493	0.34
787.667	-0
787.841	0.21
788.015	0.25
788.19	0.12
788.364	0.36
788.538	0.55
788.712	0.34
788.886	0.19
789.06	0.44
789.234	0.48
789.408	0.14
789.582	0.08
789.756	0.44
789.93	0.01
790.104	0.18
790.278	0.19
790.452	-0.02
790.626	0.61
790.8	0.16
790.973	0.12
791.147	0.31
791.321	0.45
791.495	0.23
791.669	0.36
791.843	0.39
792.016	0.22
792.19	0.6
792.364	0.21
792.538	0.61
792.711	0.43
792.885	0.3
793.059	0.04
793.233	-0.34
793.406	0.29
793.58	0.32
793.754	0.22
793.927	0.16
794.101	0.46
794.274	0.16
794.448	0.49
794.622	-0.09
794.795	0.54
794.969	0.1
795.142	0.85
795.316	0.05
795.489	0.16
795.663	0.81
795.836	0.33
796.009	0.05
796.183	0.46
796.356	0.27
796.53	0.5
796.703	0.06
796.876	0.7
797.05	0.29
797.223	0.23
797.396	0.41
797.57	0.19
797.743	0.77
797.916	0.3
798.09	0.23
798.263	0.53
798.436	0.45
798.609	0.14
798.782	-0.05
798.956	0.28
799.129	0.46
799.302	0.16
799.475	0.31
799.648	0.13
799.821	0.34
799.994	0.34
800.167	0.03
800.34	0.35
800.514	0.39
800.687	0.27
800.86	0.27
801.033	0.29
801.206	0.27
801.379	-0.08
801.551	0.4
801.724	0.4
801.897	0.69
802.07	0.18
802.243	-0.01
802.416	0.09
802.589	0
802.762	0.37
802.935	0.25
803.107	0.68
803.28	0.85
803.453	0.81
803.626	-0.11
803.798	0.29
803.971	0.12
804.144	0.43
804.317	0.68
804.489	0.59
804.662	0.06
804.835	0.12
805.007	0.23
805.18	0.66
805.353	0.66
805.525	-0.07
805.698	0.07
805.87	0.37
806.043	0.58
806.215	0.03
806.388	0.24
806.56	0.6
806.733	0.58
806.905	0.6
807.078	0.21
807.25	0.05
807.423	0.32
807.595	0.23
807.768	0.12
807.94	0.55
808.112	0.42
808.285	0.46
808.457	0.32
808.629	0.26
808.802	0.41
808.974	0.64
809.146	0.08
809.318	-0.16
809.491	0.49
809.663	0.5
809.835	0.34
810.007	0.51
810.18	0.44
810.352	0.18
810.524	0.1
810.696	0.33
810.868	0.72
811.04	0.14
811.212	0.26
811.384	0.7
811.556	0.46
811.728	0.26
811.901	0.97
812.073	0.11
812.245	0.6
812.417	0.31
812.589	0.13
812.76	0.33
812.932	0.51
813.104	0.79
813.276	0.48
813.448	0.72
813.62	0.21
813.792	0.68
813.964	0.59
814.136	0.57
814.307	0.22
814.479	0.4
814.651	0.18
814.823	1.24
814.995	0.29
815.166	0.68
815.338	0.36
815.51	-0.11
815.681	1
815.853	0.47
816.025	0.56
816.196	0.84
816.368	0.74
816.54	0.22
816.711	-0.11
816.883	0.48
817.054	1.41
817.226	-0.21
817.398	0.37
817.569	0.36
817.741	0.54
817.912	0.42
818.084	0.22
818.255	0.61
818.426	0.22
818.598	0.25
818.769	0.06
818.941	0.42
819.112	1.22
819.283	0.51
819.455	-0.04
819.626	0.32
819.798	0.52
819.969	0.41
820.14	0.65
820.311	0.09
820.483	0.52
820.654	0.66
820.825	-0.05
820.996	0.4
821.168	0.23
821.339	0.28
821.51	-0.07
821.681	0.1
821.852	0.77
822.023	-0.11
822.195	0.06
822.366	1.12
822.537	-0
822.708	-0.05
822.879	0.06
823.05	0.65
823.221	0.07
823.392	0.86
823.563	0.22
823.734	1.07
823.905	0.56
824.076	-0.01
824.247	0.38
824.418	-0.12
824.589	0.95
824.759	0.56
824.93	0.55
825.101	0.45
825.272	0.68
825.443	0.93
825.614	0.79
825.784	-0.37
825.955	1.76
826.126	1.45
826.297	1.12
826.467	1.34
826.638	1.77
826.809	0.05
826.98	0.34
827.15	1
827.321	0.16
827.492	0.91
827.662	0.71
827.833	1.93
828.003	0.81
828.174	-0.25
828.345	0.27
828.515	1.29
828.686	0.74
828.856	0.52
829.027	0.56
829.197	0.54
829.368	0.69
829.538	0.19
829.709	-0.02
829.879	0.87
830.049	0.85
830.22	0.28
830.39	0.74
830.56	0.92
830.731	0.15
830.901	0.42
831.072	0.25
831.242	0.82
831.412	1.02
831.582	0.32
831.753	-0.25
831.923	0.77
832.093	0.57
832.263	0.7
832.434	0
832.604	0.15
832.774	1.14
832.944	0.45
833.114	0.23
833.284	0.43
833.454	0.19
833.624	0.22
833.795	-0.28
833.965	0.7
834.135	0.68
834.305	-0.36
834.475	-0.31
834.645	0.44
834.815	0.72
834.985	-0.15
835.155	0.06
835.325	0.87
835.494	1
835.664	0.41
835.834	-0.18
836.004	0.31
836.174	0.42
836.344	0.34
836.514	0.02
836.684	0.13
836.853	1.06
837.023	0.78
837.193	0.16
837.363	1.46
837.532	0.79
837.702	0.45
837.872	0.22
838.041	1.12
838.211	1.39
838.381	-0.43
838.55	1.35
838.72	1.94
838.89	1.67
839.059	1.22
839.229	-0.1
839.398	1.95
839.568	0.59
839.738	0.62
839.907	1.65
840.077	1
840.246	0.12
840.416	0.29
840.585	0.42
840.755	1.74
840.924	1.79
841.093	0.23
841.263	0.11
841.432	0.72
841.602	0.08
841.771	0.3
841.94	0.13
842.11	1.85
842.279	1.77
842.448	-0.09
842.617	-0.19
842.787	1.88
842.956	-0.53
843.125	-0.17
843.294	0.15
843.464	2.09
843.633	0.01
843.802	0.37
843.971	0.8
844.14	2.05
844.309	2.01
844.479	0.03
844.648	0.84
844.817	1.15
844.986	0.72
845.155	-0.47
845.324	0.86
845.493	0.55
845.662	0.15
845.831	1.31
846	1.25
846.169	0.48
846.338	1.77
846.507	1.86
846.676	0.43
846.844	-0.32
847.013	2.01
847.182	0.38
847.351	0.75
847.52	0.31
847.689	1.69
847.858	0.02
848.026	-0.27
848.195	0.92
848.364	0.9
848.533	0.12
848.701	-0.28
848.87	0.97
849.039	1.31
849.207	1.16
849.376	1.49
849.545	2.14
849.713	0.8
849.882	0.36
850.051	0.58
850.219	1.37
850.388	0.92
850.556	0.19
850.725	0.26
850.893	1.33
851.062	0.14
851.23	1.6
851.399	-0.2
851.567	0.28
851.736	0.03
851.904	0.14
852.073	1.49
852.241	1.69
852.41	0.57
852.578	1.11
852.746	0.05
852.915	1.79
853.083	0.98
853.251	0.31
853.42	1.51
853.588	1.01
853.756	1.54
853.924	1.05
854.093	0.76
854.261	-0.36
854.429	-0.42
854.597	1.37
854.765	0.26
854.934	1.57
855.102	1.52
855.27	1.26
855.438	1.75
855.606	2.07
855.774	1.67
855.942	0.25
856.11	0.63
856.278	1.66
856.446	1.65
856.614	0.61
856.782	0.44
856.95	1.61
857.118	1.84
857.286	0.17
857.454	0.2
857.622	1.86
857.79	1.47
857.958	-0.23
858.126	0.42
858.294	-1.35
858.462	1.23
858.629	-0.52
858.797	-0.91
858.965	1.42
859.133	0.37
859.301	-0.06
859.468	1.34
859.636	0.37
859.804	3.58
859.971	2.64
860.139	-0.09
860.307	1.43
860.474	1.96
860.642	-0.38
860.81	0.31
860.977	0.21
861.145	0.95
861.313	0.97
861.48	0.32
861.648	1.44
861.815	0.19
861.983	-0.7
862.15	0.66
862.318	1.89
862.485	1.31
862.653	-0.24
862.82	0.31
862.988	2.07
863.155	1.5
863.322	0.4
863.49	0.59
863.657	0.79
863.824	2.51
863.992	0.8
864.159	1.26
864.326	2.31
864.494	-0.37
864.661	3.76
864.828	0.4
864.996	2.85
865.163	2.87
865.33	-0.13
865.497	-1.26
865.664	0.54
865.832	-1.91
865.999	0.6
866.166	-0.58
866.333	0.7
866.5	0.63
866.667	1.44
866.834	0.1
867.001	3
867.168	-1.18
867.335	1.23
867.502	-0.39
867.669	2.35
867.836	4.12
868.003	0.31
868.17	0.35
868.337	3.83
868.504	4.77
868.671	-1.4
868.838	0.47
869.005	1.31
869.172	2.35
869.339	1.77
869.505	1.51
869.672	1.86
869.839	2.77
870.006	1.35
870.173	-0.54
870.339	2.96
870.506	4.18
870.673	2.05
870.84	2.33
871.006	2.55
871.173	1.69
871.34	1.32
871.506	-0.45
871.673	2.92
871.839	-0.53
872.006	0.21
872.173	0.51
872.339	2.52
872.506	3.41
872.672	0.65
872.839	0.53
873.005	1.21
873.172	5.03
873.338	1.77
873.505	1.07
873.671	1.46
873.838	1.44
874.004	0.12
874.171	1.91
874.337	2.1
874.503	3.21
874.67	1.91
874.836	-0.3
875.002	2.97
875.169	2.78
875.335	2.35
875.501	0.21
875.668	-0.78
875.834	2.02
876	0.49
876.166	2.29
876.332	1.7
876.499	4.08
876.665	3.01
876.831	0.98
876.997	3.46
877.163	1.91
877.329	1.35
877.495	1.53
877.662	3.7
877.828	1.39
877.994	1.41
878.16	0.02
878.326	1.7
878.492	0.5
878.658	0.29
878.824	3.12
878.99	1.8
879.156	-0.17
879.322	1.92
879.487	0.86
879.653	2.15
879.819	0.39
879.985	0.81
880.151	1.69
880.317	0.76
880.483	0.15
880.648	2.54
880.814	-2.67
880.98	2.27
881.146	-1.13
881.312	-1.71
881.477	1.86
881.643	1.84
881.809	2.67
881.974	3.21
882.14	-1.79
882.306	2.14
882.471	5.4
882.637	1.29
882.803	1.05
882.968	3.85
883.134	4.75
883.299	0.76
883.465	1.02
883.63	2.18
883.796	2.81
883.961	1.67
884.127	2.1
884.292	-2.34
884.458	0.46
884.623	0.46
