Data from Apollo_Calib_20240827__AbsoluteIrradiance__633__09-42-00-118.txt Node

Date: Wed Aug 28 09:42:00 BST 2024
User: biology
Spectrometer: FLMT08252
Trigger mode: 0
Integration Time (sec): 5.000000E-1
Scans to average: 5
Electric dark correction enabled: true
Nonlinearity correction enabled: false
Boxcar width: 0
XAxis mode: Wavelengths
Number of Pixels in Spectrum: 3648
>>>>>Begin Spectral Data<<<<<
179.588	-0
179.809	-0
180.03	-0
180.251	-0
180.473	-0
180.694	0
180.915	0
181.136	-0
181.357	0
181.578	-0
181.799	-0
182.02	-0
182.241	-0
182.462	-0
182.683	0
182.904	-0
183.125	-0
183.346	-0
183.567	0
183.788	-0
184.009	-0
184.23	0
184.451	0
184.672	-0
184.892	-0
185.113	0
185.334	0
185.555	-0
185.776	-0
185.996	0
186.217	0
186.438	-0
186.659	-0
186.879	-0
187.1	-0
187.321	-0
187.541	-0
187.762	-0
187.983	-0
188.203	-0
188.424	0
188.644	-0
188.865	-0
189.086	-0
189.306	-0
189.527	-0
189.747	-0
189.968	-0
190.188	0
190.409	-0
190.629	0
190.849	-0
191.07	-0
191.29	0
191.511	0
191.731	-0
191.951	-0
192.172	0
192.392	-0
192.612	-0
192.833	-0
193.053	-0
193.273	0
193.493	0
193.714	-0
193.934	0
194.154	0
194.374	0
194.594	-0
194.815	0
195.035	0
195.255	-0
195.475	-0
195.695	0
195.915	-0
196.135	-0
196.355	0
196.575	0
196.795	-0
197.015	-0
197.235	-0
197.455	-0
197.675	-0
197.895	-0
198.115	-0
198.335	0
198.555	-0
198.775	-0
198.995	-0
199.214	0
199.434	-0
199.654	-0
199.874	-0
200.094	1.02
200.313	-0.25
200.533	-1.01
200.753	-1.35
200.973	0.63
201.192	0.46
201.412	-1.27
201.632	-0.39
201.851	0.71
202.071	-0.86
202.291	-0.56
202.51	-1.16
202.73	0.05
202.95	-0.38
203.169	-0.52
203.389	-0.19
203.608	-0.42
203.828	-0.63
204.047	-0.23
204.267	0.52
204.486	-0.15
204.706	0.03
204.925	0.05
205.145	-0.48
205.364	0.18
205.583	0.58
205.803	-0.09
206.022	-0.59
206.242	-0.41
206.461	-0.11
206.68	-0.41
206.9	0.02
207.119	0.11
207.338	0.39
207.557	-0.22
207.777	-0.28
207.996	-0.15
208.215	0.42
208.434	-0.24
208.654	-0.45
208.873	0.07
209.092	0.16
209.311	-0.41
209.53	-0.16
209.749	-0.24
209.968	-0.2
210.187	-0.25
210.407	-0.38
210.626	-0.38
210.845	0.26
211.064	-0.29
211.283	-0.27
211.502	0.12
211.721	-0.24
211.94	-0.32
212.159	-0.05
212.377	0.21
212.596	0.31
212.815	-0.15
213.034	-0.21
213.253	0.08
213.472	0.19
213.691	-0.43
213.91	-0.23
214.128	-0.12
214.347	0.1
214.566	-0.25
214.785	-0.59
215.003	-0.06
215.222	-0.05
215.441	-0.12
215.66	-0.38
215.878	-0.12
216.097	0.09
216.316	-0.32
216.534	-0.24
216.753	-0.17
216.972	-0.07
217.19	-0.21
217.409	-0.33
217.627	-0.25
217.846	0
218.064	-0.07
218.283	-0.25
218.501	0.24
218.72	0
218.938	-0.3
219.157	-0.2
219.375	0.08
219.594	0.07
219.812	-0.23
220.031	-0.28
220.249	0.36
220.467	0.2
220.686	-0.01
220.904	-0.27
221.122	-0.1
221.341	0.29
221.559	0.03
221.777	-0.31
221.995	-0.04
222.214	0.17
222.432	-0.19
222.65	-0.08
222.868	0.06
223.086	0.09
223.305	0.03
223.523	-0.02
223.741	0.27
223.959	-0.08
224.177	-0.26
224.395	-0.15
224.613	-0.14
224.831	0.18
225.049	-0.24
225.267	-0.08
225.485	0.04
225.703	0
225.921	0.02
226.139	-0.14
226.357	-0.02
226.575	0.07
226.793	0
227.011	0.49
227.229	0.07
227.447	0.18
227.665	-0.1
227.883	-0.37
228.1	-0.12
228.318	-0.11
228.536	-0.34
228.754	-0.1
228.972	0.07
229.189	0.02
229.407	-0.04
229.625	-0.21
229.843	0.16
230.06	0.07
230.278	-0.21
230.496	-0.07
230.713	-0.06
230.931	0.17
231.149	-0.1
231.366	-0.12
231.584	-0.04
231.801	0.42
232.019	-0.17
232.236	-0.18
232.454	-0.2
232.671	0.03
232.889	0.03
233.106	-0.25
233.324	-0.12
233.541	-0.14
233.759	0
233.976	-0.14
234.194	-0.07
234.411	0.06
234.628	-0.01
234.846	-0.08
235.063	-0.08
235.28	-0.13
235.498	-0.07
235.715	0.03
235.932	0.08
236.149	-0.04
236.367	-0.06
236.584	-0
236.801	-0.1
237.018	0.05
237.236	0.05
237.453	-0.23
237.67	0.04
237.887	0.03
238.104	-0.04
238.321	-0.17
238.538	-0.11
238.755	0.14
238.973	-0.19
239.19	-0.1
239.407	0.04
239.624	-0.05
239.841	-0.2
240.058	-0.11
240.275	-0.06
240.492	-0.06
240.709	-0.03
240.925	-0.03
241.142	0.01
241.359	-0.18
241.576	-0.13
241.793	-0.1
242.01	-0.08
242.227	0.04
242.444	0.07
242.66	0.05
242.877	-0.01
243.094	-0.06
243.311	-0.01
243.527	-0
243.744	0.01
243.961	0.05
244.178	-0.19
244.394	-0.1
244.611	0.03
244.828	0.15
245.044	-0.09
245.261	-0.06
245.477	-0.02
245.694	0.02
245.911	-0.12
246.127	0.01
246.344	0.12
246.56	-0.02
246.777	-0.1
246.993	-0.06
247.21	0.03
247.426	0.02
247.643	-0.1
247.859	-0.15
248.076	-0.08
248.292	0.12
248.508	-0.09
248.725	0.03
248.941	0.05
249.157	0.06
249.374	-0.08
249.59	-0.06
249.806	-0.01
250.023	0.1
250.239	-0.09
250.455	-0.12
250.671	-0.01
250.888	0.02
251.104	-0.02
251.32	-0.05
251.536	-0.1
251.752	-0.06
251.969	-0.06
252.185	-0.05
252.401	0.11
252.617	-0.09
252.833	-0.09
253.049	-0.03
253.265	-0.05
253.481	-0.03
253.697	-0.01
253.913	-0.13
254.129	0
254.345	-0.01
254.561	-0.02
254.777	-0.04
254.993	0.1
255.209	-0.01
255.425	-0.03
255.641	-0.06
255.857	0.01
256.073	0.06
256.288	-0.12
256.504	-0.14
256.72	0.01
256.936	0.08
257.152	-0.03
257.367	-0.1
257.583	0.01
257.799	0.06
258.015	-0.11
258.23	-0.1
258.446	0.07
258.662	-0.01
258.877	-0.11
259.093	-0.11
259.309	-0.02
259.524	0.04
259.74	-0.05
259.955	-0.19
260.171	-0.02
260.387	-0.03
260.602	0.02
260.818	0
261.033	-0.08
261.249	-0.05
261.464	-0.05
261.68	-0.13
261.895	0.01
262.11	0.01
262.326	-0.06
262.541	-0.13
262.757	0.05
262.972	-0.05
263.187	0.04
263.403	-0.04
263.618	-0.03
263.833	-0.06
264.049	-0.09
264.264	-0.02
264.479	-0.02
264.694	0.07
264.91	-0.05
265.125	-0.1
265.34	0.07
265.555	0.08
265.77	0.03
265.986	-0.05
266.201	0.03
266.416	0.1
266.631	-0.01
266.846	-0.04
267.061	-0.01
267.276	0.01
267.491	-0.15
267.706	-0.05
267.921	0.01
268.136	0.01
268.351	-0.01
268.566	-0.08
268.781	0.1
268.996	0.07
269.211	0
269.426	-0.05
269.641	-0.07
269.856	0.02
270.071	-0.05
270.285	-0.08
270.5	0.03
270.715	0.08
270.93	-0.03
271.145	-0.04
271.359	0.04
271.574	0
271.789	0
272.004	-0.03
272.218	0
272.433	0.03
272.648	-0.11
272.862	0.02
273.077	-0.07
273.292	-0.01
273.506	-0.08
273.721	-0.05
273.936	0.05
274.15	0.04
274.365	-0.07
274.579	0.02
274.794	0.08
275.008	0.01
275.223	-0.07
275.437	-0.02
275.652	0.06
275.866	0.02
276.081	0.02
276.295	0.06
276.509	-0.05
276.724	-0.01
276.938	-0.06
277.153	0.01
277.367	0.06
277.581	-0.05
277.796	-0.04
278.01	-0.06
278.224	0.04
278.438	0.1
278.653	-0.08
278.867	-0.08
279.081	-0.16
279.295	-0.04
279.51	0.02
279.724	-0.11
279.938	-0.02
280.152	-0.01
280.366	-0.02
280.58	-0.02
280.794	0.06
281.008	-0.04
281.222	0.04
281.437	0.09
281.651	-0.02
281.865	0.09
282.079	-0.06
282.293	-0.11
282.507	-0.03
282.721	0.02
282.935	0.01
283.148	-0.1
283.362	-0.08
283.576	-0.08
283.79	-0.01
284.004	-0.06
284.218	0.1
284.432	-0.01
284.646	-0.03
284.859	-0.04
285.073	-0.01
285.287	-0.02
285.501	-0.04
285.714	-0.04
285.928	-0.02
286.142	-0.02
286.356	-0.07
286.569	-0.04
286.783	0.02
286.997	0
287.21	-0.01
287.424	0.01
287.637	-0.02
287.851	-0.02
288.065	0.01
288.278	-0.03
288.492	-0
288.705	-0
288.919	0.04
289.132	-0.07
289.346	0.03
289.559	-0.08
289.773	-0.09
289.986	-0.05
290.2	-0
290.413	0.03
290.626	-0.03
290.84	-0.03
291.053	-0.06
291.267	0.09
291.48	0.02
291.693	-0.04
291.906	-0.03
292.12	0.03
292.333	-0.05
292.546	-0.03
292.76	0.07
292.973	0.01
293.186	0
293.399	-0.03
293.612	0.04
293.826	0.01
294.039	-0.06
294.252	-0.03
294.465	0
294.678	0.03
294.891	-0.02
295.104	-0.02
295.317	-0.05
295.53	-0.01
295.743	-0.05
295.956	-0.02
296.169	0.05
296.382	0.02
296.595	-0
296.808	-0.07
297.021	0.03
297.234	0.01
297.447	-0.04
297.66	0.02
297.873	0.05
298.086	-0.01
298.299	-0.06
298.511	-0.05
298.724	-0.01
298.937	-0.06
299.15	-0.04
299.363	-0
299.575	0.05
299.788	0.01
300.001	-0.02
300.213	-0.04
300.426	-0.05
300.639	-0
300.852	-0.02
301.064	0.06
301.277	0.02
301.489	0.05
301.702	0.05
301.915	-0.01
302.127	0.02
302.34	-0.01
302.552	-0.03
302.765	-0.07
302.977	-0
303.19	-0.05
303.402	-0.02
303.615	0
303.827	-0.03
304.04	-0.03
304.252	0.02
304.464	0.02
304.677	0.07
304.889	0.03
305.102	-0.06
305.314	-0.02
305.526	-0.01
305.739	-0.01
305.951	-0.04
306.163	-0.05
306.375	0.05
306.588	-0.04
306.8	-0.01
307.012	-0.09
307.224	-0.01
307.436	0.07
307.649	-0.04
307.861	0.01
308.073	0.01
308.285	-0.04
308.497	-0.02
308.709	-0.02
308.921	-0.01
309.133	0.04
309.346	-0.01
309.558	0.01
309.77	0.02
309.982	0.01
310.194	0.06
310.406	-0.04
310.617	0.07
310.829	0.05
311.041	0.01
311.253	-0.04
311.465	-0.03
311.677	0.02
311.889	-0.04
312.101	-0.04
312.313	0.03
312.524	-0.02
312.736	-0.07
312.948	-0.01
313.16	0.04
313.372	0.01
313.583	-0.02
313.795	-0.02
314.007	-0.08
314.218	0
314.43	-0.02
314.642	-0.03
314.853	-0.04
315.065	0.06
315.277	-0.04
315.488	-0.01
315.7	0.05
315.912	0.01
316.123	-0.02
316.335	0.02
316.546	0.07
316.758	0.03
316.969	-0.04
317.181	-0.02
317.392	-0
317.604	0.01
317.815	-0.07
318.026	-0.05
318.238	0
318.449	0.04
318.661	-0.07
318.872	-0.05
319.083	-0.04
319.295	0.03
319.506	-0.05
319.717	0.02
319.929	0.04
320.14	0.04
320.351	-0.04
320.562	-0.08
320.774	0.01
320.985	-0.01
321.196	-0.04
321.407	-0.01
321.618	0.04
321.829	0.06
322.041	0.01
322.252	-0.01
322.463	0.04
322.674	-0
322.885	-0.04
323.096	-0.05
323.307	-0.02
323.518	-0.01
323.729	-0.06
323.94	-0.02
324.151	-0.03
324.362	0.01
324.573	-0
324.784	-0.03
324.995	-0.02
325.206	-0.01
325.417	0
325.628	-0
325.838	-0.04
326.049	-0.04
326.26	-0.01
326.471	-0.01
326.682	0.04
326.892	-0
327.103	-0.05
327.314	-0.07
327.525	0.02
327.735	0
327.946	-0
328.157	-0.09
328.368	0.03
328.578	-0.05
328.789	0.02
328.999	-0
329.21	-0.04
329.421	0.02
329.631	-0.07
329.842	-0.06
330.052	0
330.263	0.06
330.473	0
330.684	0
330.894	-0.07
331.105	-0.03
331.315	-0.02
331.526	-0.07
331.736	0.08
331.947	0.01
332.157	0.03
332.367	-0.07
332.578	0.01
332.788	-0
332.999	-0.02
333.209	-0.03
333.419	-0.06
333.629	-0.01
333.84	0.03
334.05	0.03
334.26	0.02
334.47	-0
334.681	0.02
334.891	-0.07
335.101	0.05
335.311	0.05
335.521	-0
335.732	-0.04
335.942	0.06
336.152	0
336.362	0.03
336.572	-0.02
336.782	0
336.992	-0.03
337.202	0.01
337.412	-0.01
337.622	0.02
337.832	0.01
338.042	-0.03
338.252	-0
338.462	-0.02
338.672	0.01
338.882	-0.02
339.092	-0.02
339.302	0.05
339.511	-0.03
339.721	-0
339.931	-0.06
340.141	0.01
340.351	0.05
340.561	0.02
340.77	-0.02
340.98	0
341.19	-0.03
341.4	-0.02
341.609	-0.05
341.819	-0.01
342.029	-0.07
342.238	-0.01
342.448	-0.02
342.658	0.04
342.867	-0.01
343.077	-0.02
343.286	0.01
343.496	0.01
343.706	0.04
343.915	-0.09
344.125	0.01
344.334	0.01
344.544	-0.07
344.753	-0.04
344.963	0.01
345.172	-0.01
345.381	-0.06
345.591	-0.01
345.8	-0
346.01	0.07
346.219	0.01
346.428	-0.13
346.638	-0.01
346.847	-0.05
347.056	0.06
347.266	0.01
347.475	-0.01
347.684	0.02
347.893	0.01
348.103	-0
348.312	-0.02
348.521	0.01
348.73	-0.03
348.94	0.02
349.149	-0.04
349.358	-0.05
349.567	-0.04
349.776	-0.06
349.985	-0.03
350.194	0.05
350.403	-0.01
350.612	-0.05
350.821	-0
351.03	-0.06
351.239	-0.02
351.448	0
351.657	-0.02
351.866	0.05
352.075	-0.02
352.284	-0
352.493	-0.06
352.702	0.03
352.911	-0.01
353.12	0.02
353.329	-0.01
353.538	-0.02
353.746	-0.04
353.955	-0.03
354.164	-0
354.373	-0.01
354.582	0.04
354.79	0.02
354.999	0
355.208	-0.01
355.416	0.03
355.625	-0.05
355.834	-0.02
356.042	-0.01
356.251	-0.04
356.46	-0.04
356.668	0.05
356.877	0.03
357.085	0.04
357.294	-0.1
357.503	0.02
357.711	-0.01
357.92	0.14
358.128	-0.03
358.337	-0.04
358.545	0
358.754	-0.05
358.962	0.02
359.17	-0.02
359.379	0.01
359.587	0.04
359.796	-0.01
360.004	0.02
360.212	0
360.421	0.04
360.629	-0.06
360.837	-0.06
361.046	0.03
361.254	0.08
361.462	-0.01
361.67	-0.02
361.879	-0.03
362.087	0.06
362.295	-0.03
362.503	-0.02
362.711	-0.07
362.92	-0.03
363.128	-0.03
363.336	-0.09
363.544	-0.07
363.752	-0.02
363.96	-0.06
364.168	-0.04
364.376	-0.06
364.584	0
364.792	-0
365	0.01
365.208	0.02
365.416	0.03
365.624	-0.02
365.832	-0.04
366.04	0.05
366.248	-0.03
366.456	-0
366.664	-0
366.872	-0.05
367.079	-0.02
367.287	0.01
367.495	-0.01
367.703	0.03
367.911	-0.01
368.118	-0.03
368.326	-0.02
368.534	-0.07
368.742	0.03
368.949	-0.06
369.157	-0.01
369.365	0
369.572	-0
369.78	-0.04
369.988	0.04
370.195	0.02
370.403	0.02
370.61	-0.03
370.818	0.02
371.026	0.05
371.233	-0.04
371.441	-0
371.648	-0.03
371.856	-0.02
372.063	0
372.271	-0.06
372.478	-0.01
372.685	-0.01
372.893	0.02
373.1	-0.03
373.308	0.01
373.515	0.05
373.722	-0.02
373.93	-0
374.137	0.03
374.344	0.03
374.552	0.06
374.759	0.04
374.966	-0.01
375.173	-0.04
375.381	0.06
375.588	-0.02
375.795	-0.07
376.002	-0.02
376.209	-0.07
376.417	-0
376.624	0.02
376.831	0
377.038	-0.07
377.245	-0.06
377.452	-0.04
377.659	-0.03
377.866	-0.05
378.073	-0.02
378.28	-0.02
378.487	-0.01
378.694	0.02
378.901	-0.02
379.108	-0.02
379.315	0.01
379.522	0.06
379.729	-0
379.936	-0
380.143	-0.01
380.35	-0.01
380.557	-0.03
380.763	-0.01
380.97	-0.01
381.177	0.01
381.384	0.01
381.591	-0.05
381.797	-0
382.004	-0
382.211	0.01
382.418	-0.03
382.624	0.05
382.831	0.02
383.038	-0
383.244	0.04
383.451	-0.03
383.658	0.01
383.864	0.01
384.071	-0.05
384.277	0.04
384.484	-0.06
384.69	-0
384.897	-0.06
385.103	0.01
385.31	-0.06
385.516	-0.02
385.723	-0.03
385.929	-0.01
386.136	-0
386.342	0.02
386.549	-0.04
386.755	0.02
386.961	0.02
387.168	-0.06
387.374	-0.03
387.58	0.06
387.787	-0.05
387.993	0.01
388.199	-0.03
388.406	-0.03
388.612	-0.03
388.818	-0.03
389.024	-0.03
389.231	-0.01
389.437	0.04
389.643	0.02
389.849	-0
390.055	0.02
390.261	0.03
390.467	0
390.674	-0.07
390.88	-0.05
391.086	0.02
391.292	-0.03
391.498	0.01
391.704	-0.03
391.91	-0.03
392.116	-0.03
392.322	-0.07
392.528	0.02
392.734	-0.03
392.94	-0.01
393.146	-0.06
393.352	0.01
393.557	-0.02
393.763	-0.04
393.969	-0.02
394.175	-0.01
394.381	-0.03
394.587	-0.03
394.792	-0.03
394.998	0.05
395.204	0.01
395.41	-0.06
395.615	0.02
395.821	0.02
396.027	-0.02
396.233	-0.04
396.438	0.01
396.644	0.07
396.85	0.02
397.055	0.01
397.261	-0.02
397.466	-0.01
397.672	-0.01
397.878	0
398.083	0.02
398.289	-0.09
398.494	0.04
398.7	0.02
398.905	-0.07
399.111	0.05
399.316	-0.04
399.522	-0.03
399.727	-0.01
399.932	-0.01
400.138	-0.02
400.343	0.08
400.549	-0.01
400.754	-0.02
400.959	0.01
401.165	0
401.37	0.02
401.575	0.08
401.78	-0.04
401.986	-0.07
402.191	-0.02
402.396	-0.07
402.601	0.02
402.807	-0.01
403.012	-0.04
403.217	-0.01
403.422	0
403.627	-0.03
403.832	-0.02
404.037	0
404.243	0.02
404.448	-0.04
404.653	-0.04
404.858	-0
405.063	0.05
405.268	-0.06
405.473	-0.08
405.678	-0.03
405.883	0.13
406.088	0.02
406.293	-0.03
406.498	-0.04
406.703	0.03
406.907	0.03
407.112	-0.03
407.317	-0.02
407.522	0.02
407.727	-0.06
407.932	-0.03
408.136	0.07
408.341	0.01
408.546	-0.02
408.751	0.02
408.956	-0.04
409.16	0.04
409.365	-0
409.57	-0.01
409.774	0
409.979	0.07
410.184	-0.03
410.388	-0.06
410.593	0.01
410.798	-0.01
411.002	-0.05
411.207	-0.04
411.411	0.02
411.616	-0.05
411.82	-0.06
412.025	-0
412.229	-0.04
412.434	-0.01
412.638	0.01
412.843	0
413.047	-0
413.252	-0.08
413.456	-0.02
413.66	0.02
413.865	-0.05
414.069	0.02
414.273	-0.06
414.478	-0.04
414.682	-0.04
414.886	-0.02
415.091	-0.07
415.295	-0.06
415.499	-0
415.703	-0.06
415.908	0.02
416.112	-0.11
416.316	0.02
416.52	-0.02
416.724	-0.06
416.929	-0.01
417.133	0.06
417.337	-0.03
417.541	-0.03
417.745	-0.06
417.949	-0.01
418.153	0
418.357	-0.08
418.561	0.04
418.765	-0.01
418.969	0.07
419.173	-0.04
419.377	-0.07
419.581	0.07
419.785	-0.05
419.989	-0.08
420.193	-0.04
420.397	-0.07
420.601	0.04
420.804	0.04
421.008	0
421.212	-0.02
421.416	0.02
421.62	-0.04
421.823	-0.04
422.027	0.06
422.231	-0
422.435	-0.04
422.638	0
422.842	-0.02
423.046	-0.04
423.249	-0
423.453	0.05
423.657	0
423.86	-0.07
424.064	0.02
424.268	0.05
424.471	-0.03
424.675	0.02
424.878	0.06
425.082	0.01
425.285	-0.03
425.489	-0.02
425.692	0.01
425.896	-0.08
426.099	0.02
426.303	-0.04
426.506	-0.1
426.71	0.02
426.913	0.01
427.116	0.04
427.32	-0.03
427.523	-0.01
427.726	0.05
427.93	-0.07
428.133	0.02
428.336	-0.1
428.54	-0.1
428.743	-0.06
428.946	0.01
429.149	-0.03
429.353	0.03
429.556	-0
429.759	-0.04
429.962	-0.08
430.165	0.02
430.368	-0.02
430.571	-0.05
430.775	0
430.978	-0.03
431.181	0.01
431.384	-0.01
431.587	-0.01
431.79	-0.02
431.993	-0
432.196	-0.02
432.399	-0.04
432.602	0.03
432.805	-0.01
433.008	-0.03
433.211	-0.11
433.414	-0.04
433.616	0.02
433.819	-0.03
434.022	-0.09
434.225	0.1
434.428	0.01
434.631	0.07
434.833	-0.03
435.036	0.01
435.239	-0
435.442	0.03
435.645	-0.03
435.847	-0.02
436.05	0.04
436.253	0.01
436.455	-0.03
436.658	-0.04
436.861	0.03
437.063	-0.01
437.266	-0.04
437.468	-0.01
437.671	0.13
437.874	-0
438.076	-0.09
438.279	-0.05
438.481	0.04
438.684	-0.04
438.886	0.04
439.089	-0.12
439.291	-0.03
439.494	-0
439.696	-0.09
439.899	-0.03
440.101	-0.01
440.303	-0.12
440.506	0.04
440.708	-0.06
440.91	0.06
441.113	-0.08
441.315	0
441.517	-0.06
441.72	0.01
441.922	-0.03
442.124	-0.04
442.326	-0.01
442.529	0.06
442.731	-0.02
442.933	0.04
443.135	-0.05
443.337	-0.03
443.539	-0.05
443.742	0.01
443.944	0.01
444.146	-0.05
444.348	-0.02
444.55	-0.07
444.752	-0.04
444.954	-0.07
445.156	0.01
445.358	-0.03
445.56	0.04
445.762	-0.05
445.964	-0.03
446.166	-0.06
446.368	-0.05
446.57	0.01
446.772	0
446.974	-0.05
447.175	0.02
447.377	-0.05
447.579	-0.04
447.781	-0.11
447.983	0.05
448.184	-0.02
448.386	-0
448.588	-0.08
448.79	-0.05
448.991	-0.04
449.193	-0.03
449.395	-0.02
449.597	0.03
449.798	0.02
450	0.03
450.202	-0.02
450.403	-0.01
450.605	-0.08
450.806	-0
451.008	-0.12
451.21	-0.01
451.411	0.03
451.613	-0.01
451.814	-0
452.016	-0
452.217	0.01
452.419	0.02
452.62	-0.01
452.821	0.07
453.023	0.02
453.224	0.05
453.426	-0.06
453.627	-0
453.828	0.04
454.03	0.02
454.231	0.01
454.432	-0.06
454.634	0.04
454.835	-0.04
455.036	-0.07
455.238	0.02
455.439	0.05
455.64	-0.08
455.841	0.01
456.042	0.08
456.244	-0.02
456.445	-0.05
456.646	-0.05
456.847	-0.05
457.048	0.04
457.249	0.03
457.45	0.17
457.651	-0.08
457.852	-0.01
458.054	-0
458.255	-0.02
458.456	-0.01
458.657	0.02
458.858	-0.02
459.058	0.03
459.259	0.02
459.46	-0.06
459.661	-0.07
459.862	0.05
460.063	0.04
460.264	-0
460.465	-0.06
460.666	0.07
460.866	-0.02
461.067	0.01
461.268	-0.02
461.469	-0.01
461.67	-0.01
461.87	-0.03
462.071	-0.04
462.272	-0
462.473	-0.02
462.673	0
462.874	-0.01
463.075	0.01
463.275	-0.04
463.476	0.01
463.676	-0.01
463.877	-0.03
464.078	-0.07
464.278	-0.01
464.479	-0.07
464.679	0
464.88	-0.03
465.08	0.03
465.281	-0.07
465.481	-0.02
465.682	-0.05
465.882	0.02
466.083	0.03
466.283	-0.01
466.483	-0.04
466.684	-0.09
466.884	-0.1
467.085	-0.05
467.285	0.04
467.485	-0.03
467.686	0.01
467.886	-0.08
468.086	-0.03
468.286	-0.03
468.487	0.02
468.687	-0.05
468.887	-0.04
469.087	-0.01
469.287	-0.03
469.488	-0.06
469.688	0.01
469.888	-0.01
470.088	-0.01
470.288	0.05
470.488	0.02
470.688	-0.08
470.888	-0.02
471.088	-0.07
471.288	0.04
471.488	-0.01
471.688	-0.01
471.888	-0.07
472.088	0.04
472.288	0.05
472.488	-0.03
472.688	-0.05
472.888	-0.03
473.088	-0.02
473.288	-0.03
473.488	-0.02
473.688	0.06
473.887	-0.02
474.087	-0.02
474.287	0
474.487	-0.03
474.687	-0.01
474.886	-0
475.086	-0.01
475.286	0.03
475.486	-0.03
475.685	-0.02
475.885	-0.04
476.085	-0.05
476.284	0.01
476.484	-0.02
476.684	-0.02
476.883	0.02
477.083	-0.01
477.282	-0.03
477.482	0.04
477.681	0.05
477.881	-0.01
478.08	-0.04
478.28	-0.02
478.479	0.01
478.679	0.06
478.878	-0.04
479.078	-0.04
479.277	-0.02
479.477	0
479.676	0.02
479.875	-0.02
480.075	-0.07
480.274	-0.01
480.473	0.02
480.673	-0.03
480.872	0.02
481.071	-0.01
481.271	0.01
481.47	-0.02
481.669	-0.01
481.868	-0.04
482.067	-0.02
482.267	-0
482.466	-0.04
482.665	-0.05
482.864	-0.04
483.063	-0.03
483.262	0.01
483.461	0.02
483.661	0.01
483.86	-0
484.059	-0.01
484.258	-0.01
484.457	0.01
484.656	-0.02
484.855	0.01
485.054	-0.07
485.253	-0.04
485.452	-0.03
485.651	-0.03
485.849	-0.01
486.048	-0.03
486.247	-0.03
486.446	-0.02
486.645	-0.02
486.844	-0.03
487.043	-0.02
487.241	-0
487.44	-0.02
487.639	0
487.838	0.01
488.037	-0.01
488.235	0.05
488.434	-0.03
488.633	-0.05
488.831	0.01
489.03	0.05
489.229	-0
489.427	-0.02
489.626	0.03
489.825	0.05
490.023	-0.01
490.222	0
490.42	-0
490.619	0.03
490.817	0.02
491.016	-0.02
491.214	0.02
491.413	-0.01
491.611	0.01
491.81	0
492.008	0.02
492.207	0
492.405	0
492.604	-0.06
492.802	-0.01
493	-0.03
493.199	-0.01
493.397	-0.01
493.595	-0.02
493.794	-0.03
493.992	0.05
494.19	-0.02
494.388	0.02
494.587	-0.03
494.785	-0.01
494.983	-0.02
495.181	-0.01
495.379	0.01
495.578	-0.03
495.776	0.01
495.974	0.01
496.172	0.01
496.37	-0
496.568	-0.04
496.766	-0.05
496.964	0.03
497.162	-0.02
497.36	-0.02
497.558	0.01
497.756	0
497.954	-0.04
498.152	-0.03
498.35	-0.02
498.548	-0.02
498.746	-0.01
498.944	-0.01
499.142	-0.03
499.34	-0.02
499.538	-0.02
499.736	-0.03
499.933	0.02
500.131	0.04
500.329	0
500.527	0.03
500.725	0.03
500.922	0
501.12	-0.01
501.318	0.02
501.516	-0.05
501.713	0.01
501.911	-0.03
502.109	-0.03
502.306	-0
502.504	-0.02
502.701	-0.03
502.899	-0.02
503.097	0.05
503.294	0.01
503.492	-0.03
503.689	-0.02
503.887	0.01
504.084	0.06
504.282	-0
504.479	-0.04
504.677	-0
504.874	-0.04
505.072	-0.01
505.269	-0.01
505.466	0.02
505.664	0.02
505.861	-0.05
506.059	-0.06
506.256	0.01
506.453	-0.04
506.651	0.03
506.848	-0.01
507.045	0.01
507.242	-0.01
507.44	0.01
507.637	-0.01
507.834	-0
508.031	0.01
508.229	-0.04
508.426	-0
508.623	0.01
508.82	-0.02
509.017	-0.02
509.214	-0.01
509.411	-0.01
509.608	-0.02
509.805	-0.01
510.003	-0.01
510.2	-0.03
510.397	0.01
510.594	-0.02
510.791	-0.02
510.988	-0.01
511.184	0.02
511.381	-0.03
511.578	-0.03
511.775	0.01
511.972	-0.02
512.169	-0.03
512.366	-0.01
512.563	0
512.76	-0.04
512.956	0.02
513.153	-0.02
513.35	-0.02
513.547	-0.02
513.744	-0.03
513.94	-0.03
514.137	0
514.334	-0
514.53	-0.01
514.727	-0.02
514.924	0
515.12	-0.04
515.317	-0.04
515.514	-0.01
515.71	-0.01
515.907	-0.02
516.103	-0.01
516.3	0.03
516.497	-0.01
516.693	0.02
516.89	-0.01
517.086	-0.02
517.283	0.01
517.479	-0.02
517.676	-0.01
517.872	-0.01
518.068	-0.02
518.265	-0
518.461	-0.03
518.658	-0.01
518.854	-0.01
519.05	-0.01
519.247	-0.04
519.443	0
519.639	0
519.836	-0.01
520.032	-0
520.228	-0.01
520.424	0.03
520.621	0.01
520.817	0
521.013	-0.01
521.209	-0
521.405	0.04
521.601	0.01
521.798	-0.01
521.994	0.02
522.19	-0.01
522.386	-0.02
522.582	0
522.778	-0.02
522.974	-0.02
523.17	-0.01
523.366	-0
523.562	0.02
523.758	-0.02
523.954	-0.03
524.15	-0.02
524.346	0.01
524.542	-0.03
524.738	-0.03
524.934	0.01
525.129	0.01
525.325	-0.03
525.521	-0.02
525.717	0.03
525.913	-0.02
526.109	-0.01
526.304	-0.03
526.5	-0.01
526.696	0.02
526.892	-0.02
527.087	-0.01
527.283	-0.02
527.479	-0
527.674	-0.02
527.87	-0.02
528.066	-0.01
528.261	0.01
528.457	-0.01
528.653	-0.02
528.848	-0.01
529.044	0.01
529.239	-0.01
529.435	0
529.63	-0
529.826	0.04
530.021	0
530.217	0.02
530.412	-0.03
530.608	-0.02
530.803	0.01
530.999	-0
531.194	-0.06
531.389	-0.01
531.585	-0.04
531.78	-0.01
531.975	-0.01
532.171	0.01
532.366	0.01
532.561	-0.02
532.757	-0.04
532.952	-0.01
533.147	0.01
533.342	-0.01
533.538	-0.03
533.733	0.02
533.928	-0.01
534.123	-0.02
534.318	-0.03
534.513	-0.01
534.709	-0
534.904	-0.02
535.099	0
535.294	-0.01
535.489	-0.01
535.684	-0.03
535.879	-0.02
536.074	-0.01
536.269	-0.03
536.464	-0.01
536.659	-0.01
536.854	-0.02
537.049	-0.01
537.244	-0
537.439	-0.04
537.634	-0
537.828	0
538.023	-0.01
538.218	-0.04
538.413	-0.03
538.608	-0.04
538.803	0.01
538.997	-0.04
539.192	0.02
539.387	-0
539.582	0
539.776	0
539.971	-0.02
540.166	-0.03
540.36	-0.03
540.555	-0.01
540.75	-0.02
540.944	-0.02
541.139	-0.04
541.334	-0
541.528	-0.01
541.723	-0
541.917	-0.02
542.112	-0.05
542.306	-0.01
542.501	-0.01
542.695	0
542.89	-0.02
543.084	0.01
543.279	-0.02
543.473	-0.02
543.668	-0.02
543.862	-0.01
544.056	0.02
544.251	-0.01
544.445	-0.01
544.64	-0.03
544.834	-0.02
545.028	0.01
545.222	0.02
545.417	0.02
545.611	0
545.805	-0
546	-0.03
546.194	-0.02
546.388	-0.02
546.582	0.01
546.776	-0
546.97	0.01
547.165	-0.01
547.359	0.03
547.553	-0.03
547.747	-0
547.941	-0.01
548.135	-0.01
548.329	0.01
548.523	0.01
548.717	0
548.911	-0.04
549.105	-0
549.299	-0.02
549.493	0.01
549.687	0.03
549.881	-0.01
550.075	-0.01
550.269	-0.05
550.463	0.02
550.657	-0.03
550.85	-0.01
551.044	-0.01
551.238	0.01
551.432	-0.02
551.626	-0.04
551.82	-0
552.013	-0.02
552.207	-0.01
552.401	0
552.594	0.01
552.788	-0.02
552.982	0
553.176	-0.04
553.369	0.02
553.563	-0
553.756	-0.04
553.95	-0.05
554.144	0.01
554.337	0.02
554.531	0.02
554.724	-0
554.918	-0.01
555.111	0.02
555.305	-0.01
555.498	0.03
555.692	0.01
555.885	-0.06
556.079	-0
556.272	-0.03
556.466	0
556.659	0.01
556.852	-0
557.046	-0
557.239	0.01
557.432	-0.04
557.626	-0.02
557.819	-0.01
558.012	-0
558.206	-0.01
558.399	-0.01
558.592	-0.02
558.785	-0.02
558.979	0
559.172	-0.02
559.365	-0.01
559.558	-0
559.751	-0.02
559.944	-0
560.138	-0.05
560.331	-0.03
560.524	-0.03
560.717	0
560.91	-0.01
561.103	0
561.296	0
561.489	0.01
561.682	0.01
561.875	0.03
562.068	0.01
562.261	-0.01
562.454	0.04
562.647	0.02
562.84	0
563.032	-0.05
563.225	0.01
563.418	-0.02
563.611	-0.01
563.804	-0.01
563.997	-0.03
564.19	-0.03
564.382	-0.07
564.575	-0.02
564.768	-0.01
564.961	-0.01
565.153	-0.03
565.346	0.03
565.539	0.05
565.731	0.01
565.924	0.02
566.117	0.02
566.309	0.01
566.502	-0
566.695	-0.02
566.887	0.01
567.08	-0.03
567.272	-0.01
567.465	-0.04
567.657	-0.01
567.85	-0.01
568.042	0.01
568.235	0.03
568.427	-0.03
568.62	-0
568.812	-0.01
569.005	-0.02
569.197	-0.04
569.389	0
569.582	-0.01
569.774	0.01
569.966	-0.05
570.159	-0.02
570.351	-0
570.543	-0.05
570.736	-0.01
570.928	-0.02
571.12	0
571.312	-0.03
571.505	-0.05
571.697	-0
571.889	-0.03
572.081	-0
572.273	-0.03
572.465	0.03
572.658	-0.02
572.85	0.03
573.042	-0.01
573.234	0.01
573.426	0.03
573.618	-0.06
573.81	-0.01
574.002	0.01
574.194	0.02
574.386	-0.06
574.578	-0.08
574.77	-0.04
574.962	-0.03
575.154	-0.05
575.346	-0.02
575.538	0.02
575.729	-0.03
575.921	-0.03
576.113	-0.03
576.305	0.03
576.497	-0.04
576.689	-0.02
576.88	-0.04
577.072	0
577.264	-0.02
577.456	0.02
577.647	-0.09
577.839	-0.02
578.031	0.03
578.223	-0.03
578.414	-0.04
578.606	0.01
578.798	-0.02
578.989	-0.02
579.181	-0.03
579.372	-0
579.564	-0.02
579.755	0
579.947	0.01
580.139	0.01
580.33	-0.06
580.522	-0.02
580.713	-0.08
580.905	-0.03
581.096	0.02
581.287	-0.01
581.479	-0.02
581.67	0.02
581.862	-0.01
582.053	-0.04
582.244	-0.06
582.436	-0.03
582.627	-0.02
582.818	-0.03
583.01	-0.04
583.201	0.01
583.392	0.01
583.583	-0.01
583.775	-0.04
583.966	-0.04
584.157	-0.05
584.348	-0.03
584.54	-0.06
584.731	-0.01
584.922	-0.02
585.113	-0.03
585.304	-0
585.495	0.02
585.686	-0
585.877	0.02
586.068	0.02
586.259	-0.01
586.45	0.01
586.641	-0.04
586.832	-0.05
587.023	-0
587.214	-0.04
587.405	0
587.596	-0.05
587.787	0.03
587.978	-0.01
588.169	-0.02
588.36	-0.03
588.551	0
588.742	-0.03
588.932	-0.01
589.123	-0.04
589.314	-0
589.505	0.02
589.696	-0.03
589.886	-0.03
590.077	-0.04
590.268	0.02
590.458	-0.03
590.649	-0.04
590.84	0.02
591.03	-0.05
591.221	-0.03
591.412	-0.07
591.602	-0
591.793	0.01
591.984	-0.05
592.174	-0.04
592.365	0.05
592.555	-0.02
592.746	0.01
592.936	0
593.127	0.01
593.317	0.04
593.508	-0.01
593.698	-0.04
593.889	0.01
594.079	-0.02
594.269	-0.03
594.46	-0.03
594.65	-0.02
594.84	0.01
595.031	-0.03
595.221	-0.03
595.411	-0.04
595.602	0.01
595.792	-0.01
595.982	-0.03
596.172	0.06
596.363	0.01
596.553	-0
596.743	-0.01
596.933	-0.02
597.123	0.02
597.314	-0.02
597.504	-0.05
597.694	0.01
597.884	-0.02
598.074	-0.03
598.264	-0.04
598.454	-0.02
598.644	-0.02
598.834	-0.03
599.024	-0.05
599.214	-0.03
599.404	0.02
599.594	-0.02
599.784	-0.03
599.974	0.03
600.164	0.02
600.354	-0.04
600.544	-0.04
600.734	0
600.924	0.02
601.114	-0.03
601.303	-0.01
601.493	-0.03
601.683	-0.02
601.873	-0.02
602.063	-0.04
602.252	0.01
602.442	-0.05
602.632	-0.03
602.821	-0.04
603.011	-0.01
603.201	-0.03
603.39	-0.07
603.58	-0.04
603.77	-0.04
603.959	0.02
604.149	-0.03
604.339	-0.02
604.528	0.03
604.718	0
604.907	-0.01
605.097	-0.04
605.286	-0.06
605.476	-0.02
605.665	-0
605.855	-0.01
606.044	0.01
606.234	0.01
606.423	-0.04
606.612	-0.04
606.802	-0.01
606.991	0
607.181	0.01
607.37	-0.05
607.559	-0.03
607.749	-0.04
607.938	-0.02
608.127	-0.05
608.316	-0.04
608.506	-0.01
608.695	-0
608.884	-0.04
609.073	-0
609.263	0
609.452	0
609.641	0
609.83	-0.05
610.019	-0.01
610.208	-0.06
610.397	-0.05
610.586	0.01
610.775	-0.03
610.965	-0.02
611.154	-0.04
611.343	-0.02
611.532	-0.01
611.721	-0.07
611.91	-0.04
612.099	0.03
612.287	-0.01
612.476	-0.05
612.665	-0.01
612.854	-0.06
613.043	0.04
613.232	-0.03
613.421	-0.05
613.61	0.04
613.798	-0.03
613.987	0.01
614.176	-0.01
614.365	-0
614.554	-0.02
614.742	0
614.931	-0.05
615.12	0.03
615.309	-0.03
615.497	-0
615.686	-0.03
615.875	-0.02
616.063	-0
616.252	-0.02
616.44	-0.04
616.629	-0.01
616.818	0.02
617.006	-0.04
617.195	-0.02
617.383	-0.03
617.572	-0.01
617.76	-0.03
617.949	-0.02
618.137	-0
618.326	0.01
618.514	-0.06
618.703	-0.04
618.891	0.05
619.079	-0.06
619.268	-0.01
619.456	-0.01
619.644	0.03
619.833	-0.01
620.021	-0.03
620.209	-0.04
620.398	0.01
620.586	-0.03
620.774	-0.01
620.962	0.01
621.151	0.02
621.339	-0.01
621.527	-0.07
621.715	-0.07
621.903	-0.04
622.092	-0.05
622.28	-0.02
622.468	-0.01
622.656	-0
622.844	-0.02
623.032	-0.03
623.22	-0.07
623.408	0.02
623.596	0.02
623.784	0.02
623.972	-0.04
624.16	-0.04
624.348	0.06
624.536	-0.07
624.724	-0.03
624.912	-0
625.1	0.04
625.288	-0.04
625.476	-0.03
625.664	0.03
625.851	-0.03
626.039	-0.03
626.227	0
626.415	0.01
626.603	-0.07
626.79	0.01
626.978	-0.03
627.166	0
627.354	-0.03
627.541	-0.03
627.729	-0.08
627.917	-0
628.104	0.05
628.292	0
628.48	-0.02
628.667	-0.01
628.855	-0
629.042	-0.02
629.23	-0.04
629.418	-0.01
629.605	-0.03
629.793	-0.01
629.98	-0
630.168	0.01
630.355	-0.03
630.543	-0
630.73	-0.04
630.917	-0
631.105	0.02
631.292	-0.05
631.48	-0.02
631.667	0.04
631.854	0
632.042	-0.03
632.229	-0.04
632.416	-0.01
632.604	0
632.791	-0.02
632.978	0.01
633.165	-0.03
633.353	0.04
633.54	0.02
633.727	-0.05
633.914	-0.05
634.101	-0.1
634.289	0.03
634.476	-0.05
634.663	-0.05
634.85	-0.02
635.037	-0.04
635.224	-0.09
635.411	0
635.598	0.03
635.785	-0.02
635.972	-0.04
636.159	0.02
636.346	-0.07
636.533	-0.01
636.72	-0.01
636.907	-0.04
637.094	0.03
637.281	-0.02
637.468	0.01
637.655	-0.05
637.842	-0.03
638.029	-0.05
638.215	0.01
638.402	0.01
638.589	-0.05
638.776	-0.05
638.963	-0.01
639.149	0.03
639.336	0.06
639.523	-0.03
639.709	-0.02
639.896	0
640.083	0.06
640.27	0
640.456	-0.03
640.643	-0.03
640.829	-0.07
641.016	-0.03
641.203	-0.06
641.389	0.04
641.576	0.03
641.762	-0.04
641.949	-0.04
642.135	0.02
642.322	-0
642.508	-0.04
642.695	-0.05
642.881	-0.01
643.068	-0.02
643.254	-0.02
643.441	0.01
643.627	-0.02
643.813	-0.03
644	0.02
644.186	-0.04
644.372	0.02
644.559	0
644.745	-0.04
644.931	-0.04
645.118	-0.03
645.304	-0.03
645.49	-0.05
645.676	-0.04
645.862	-0.02
646.049	0.04
646.235	-0.01
646.421	0.03
646.607	0.04
646.793	-0.02
646.979	-0.03
647.165	-0.02
647.352	-0.03
647.538	0.01
647.724	-0.01
647.91	0
648.096	0.01
648.282	-0.01
648.468	-0.04
648.654	-0.02
648.84	-0.03
649.026	-0.02
649.212	-0.02
649.397	-0.04
649.583	-0.05
649.769	0
649.955	-0.01
650.141	-0.02
650.327	-0
650.513	-0.03
650.698	-0.02
650.884	-0.09
651.07	-0.03
651.256	-0.02
651.442	0.01
651.627	0
651.813	0.03
651.999	-0.02
652.184	-0.02
652.37	-0
652.556	-0.04
652.741	0
652.927	-0.09
653.113	-0.01
653.298	0.01
653.484	-0.03
653.669	-0.05
653.855	-0.04
654.04	-0.02
654.226	-0.02
654.412	-0.02
654.597	-0.03
654.782	-0.01
654.968	-0
655.153	0.01
655.339	-0.06
655.524	-0.04
655.71	0.03
655.895	-0
656.08	-0.03
656.266	0.05
656.451	-0.01
656.636	-0.05
656.822	0
657.007	-0.03
657.192	-0.02
657.378	-0.05
657.563	-0.02
657.748	-0
657.933	0
658.118	-0.01
658.304	-0.02
658.489	0.03
658.674	0.01
658.859	-0.05
659.044	-0.02
659.229	-0
659.414	-0.02
659.599	-0.05
659.785	-0.07
659.97	0.01
660.155	-0.01
660.34	-0.05
660.525	-0.04
660.71	-0.04
660.895	-0.01
661.08	-0.02
661.264	-0
661.449	0.02
661.634	0.07
661.819	0.01
662.004	-0.03
662.189	-0.05
662.374	-0.02
662.559	-0.06
662.743	-0.07
662.928	-0
663.113	-0.03
663.298	-0.09
663.483	-0.08
663.667	-0.03
663.852	-0.03
664.037	0.03
664.221	-0.06
664.406	0.06
664.591	0.02
664.775	0.01
664.96	-0.01
665.145	-0.03
665.329	-0.01
665.514	-0.03
665.698	-0.01
665.883	-0.08
666.068	0.04
666.252	-0
666.437	-0.06
666.621	-0.04
666.806	0.01
666.99	-0.03
667.174	-0.05
667.359	0.03
667.543	-0.04
667.728	0
667.912	-0.07
668.096	0.03
668.281	-0.03
668.465	0
668.649	-0.03
668.834	-0.02
669.018	-0.01
669.202	-0.02
669.387	-0.05
669.571	0
669.755	-0.04
669.939	-0.02
670.124	0.01
670.308	0.04
670.492	0.01
670.676	0
670.86	-0.06
671.044	-0.07
671.228	0.03
671.413	-0.04
671.597	-0.03
671.781	-0.07
671.965	-0.01
672.149	0.01
672.333	-0.02
672.517	-0.06
672.701	-0.02
672.885	-0.04
673.069	-0.06
673.253	0.03
673.437	-0.02
673.621	-0.06
673.804	-0.03
673.988	0
674.172	-0.04
674.356	-0.07
674.54	-0.02
674.724	0.06
674.908	-0.02
675.091	0.01
675.275	-0.03
675.459	0.05
675.643	0.05
675.826	-0.02
676.01	0.01
676.194	-0.02
676.377	0
676.561	-0
676.745	0.02
676.928	0
677.112	0.01
677.296	-0.05
677.479	-0.08
677.663	0.01
677.846	0.01
678.03	-0.01
678.213	-0
678.397	0.03
678.58	-0.05
678.764	-0.04
678.947	-0.03
679.131	-0.04
679.314	0.06
679.498	-0.03
679.681	0.01
679.865	0.05
680.048	-0
680.231	-0.04
680.415	-0.03
680.598	-0.02
680.781	-0.05
680.965	0.01
681.148	0.02
681.331	-0.07
681.514	-0
681.698	-0.03
681.881	-0
682.064	-0.02
682.247	-0.02
682.43	-0.11
682.614	-0.01
682.797	0.02
682.98	0.01
683.163	-0.06
683.346	0
683.529	-0.05
683.712	-0.02
683.895	0.02
684.078	-0.09
684.261	-0.02
684.444	-0.01
684.627	0.05
684.81	-0.01
684.993	-0.02
685.176	0.03
685.359	-0.02
685.542	0
685.725	0.02
685.908	-0.02
686.091	-0.02
686.274	0.07
686.457	0.04
686.639	0.01
686.822	0.06
687.005	-0
687.188	0.03
687.371	0.05
687.553	0.04
687.736	-0
687.919	0.07
688.102	0.05
688.284	-0
688.467	0.06
688.65	-0.04
688.832	-0.07
689.015	0.02
689.197	-0.06
689.38	0.14
689.563	0.09
689.745	-0.02
689.928	-0.06
690.11	-0.01
690.293	0.03
690.475	-0.04
690.658	0.01
690.84	-0.03
691.023	-0
691.205	-0
691.388	-0.02
691.57	0.03
691.752	0.01
691.935	-0.09
692.117	-0.01
692.3	0.03
692.482	-0.01
692.664	0.06
692.847	-0
693.029	0.12
693.211	0.05
693.393	-0.01
693.576	-0.02
693.758	0.02
693.94	-0
694.122	-0.01
694.304	0.01
694.487	-0.01
694.669	0.09
694.851	-0.03
695.033	0.02
695.215	-0.03
695.397	-0.01
695.579	0.03
695.761	0
695.943	-0.08
696.125	0.06
696.308	0.02
696.49	-0.07
696.671	0.14
696.853	0.06
697.035	0.14
697.217	0
697.399	0.1
697.581	0.02
697.763	0
697.945	-0.01
698.127	0.06
698.309	0.07
698.491	0.08
698.672	0.04
698.854	0.07
699.036	0.15
699.218	0.01
699.399	0.1
699.581	0.11
699.763	0.06
699.945	0.01
700.126	-0.01
700.308	0.09
700.49	0.05
700.671	-0.04
700.853	0.02
701.035	0.05
701.216	0.03
701.398	0.03
701.579	-0.01
701.761	0.08
701.943	-0
702.124	-0.02
702.306	-0.02
702.487	0.18
702.669	0.04
702.85	0.04
703.031	0.01
703.213	0.17
703.394	0.17
703.576	0.03
703.757	0.11
703.938	0.08
704.12	0.2
704.301	0.03
704.483	0.04
704.664	0.05
704.845	0.16
705.026	0.12
705.208	0.08
705.389	0.12
705.57	0.12
705.751	0.04
705.933	0.06
706.114	0.17
706.295	0.07
706.476	0.03
706.657	0.2
706.838	0.14
707.02	0.15
707.201	0.04
707.382	0.06
707.563	0.12
707.744	0.05
707.925	0.01
708.106	0.02
708.287	0.14
708.468	0.14
708.649	0.11
708.83	0.17
709.011	0.09
709.192	0.14
709.373	0.06
709.554	0.1
709.734	0.13
709.915	0.19
710.096	0.1
710.277	0.02
710.458	0.12
710.639	0.15
710.819	0.07
711	0.08
711.181	0.19
711.362	0.25
711.542	0.12
711.723	0.16
711.904	0.14
712.085	0.13
712.265	0.11
712.446	0.12
712.627	0.1
712.807	0.13
712.988	0.15
713.168	0.1
713.349	0.23
713.53	0.01
713.71	0.17
713.891	0.16
714.071	0.21
714.252	0.1
714.432	0.13
714.613	0.12
714.793	0.22
714.974	0.28
715.154	0.26
715.334	0.28
715.515	0.34
715.695	0.13
715.876	0.2
716.056	0.18
716.236	0.14
716.417	0.25
716.597	0.14
716.777	0.36
716.957	0.17
717.138	0.25
717.318	0.27
717.498	0.18
717.678	0.24
717.859	0.24
718.039	0.24
718.219	0.31
718.399	0.33
718.579	0.2
718.759	0.2
718.939	0.39
719.12	0.25
719.3	0.27
719.48	0.22
719.66	0.18
719.84	0.37
720.02	0.32
720.2	0.26
720.38	0.31
720.56	0.38
720.74	0.27
720.92	0.3
721.1	0.48
721.279	0.47
721.459	0.37
721.639	0.31
721.819	0.39
721.999	0.32
722.179	0.39
722.359	0.27
722.538	0.45
722.718	0.4
722.898	0.35
723.078	0.35
723.257	0.37
723.437	0.46
723.617	0.48
723.797	0.35
723.976	0.43
724.156	0.45
724.336	0.55
724.515	0.66
724.695	0.35
724.874	0.46
725.054	0.6
725.234	0.45
725.413	0.59
725.593	0.49
725.772	0.51
725.952	0.47
726.131	0.49
726.311	0.5
726.49	0.51
726.67	0.44
726.849	0.45
727.028	0.58
727.208	0.48
727.387	0.69
727.567	0.45
727.746	0.61
727.925	0.57
728.105	0.52
728.284	0.58
728.463	0.48
728.643	0.65
728.822	0.51
729.001	0.52
729.18	0.64
729.359	0.68
729.539	0.69
729.718	0.73
729.897	0.78
730.076	0.63
730.255	0.64
730.434	0.78
730.614	0.85
730.793	0.79
730.972	0.7
731.151	0.78
731.33	0.78
731.509	0.8
731.688	0.73
731.867	0.74
732.046	0.69
732.225	0.94
732.404	0.75
732.583	0.72
732.762	0.92
732.941	0.98
733.12	0.93
733.298	0.89
733.477	0.96
733.656	0.75
733.835	0.75
734.014	1.02
734.193	0.91
734.371	0.99
734.55	1.01
734.729	0.77
734.908	0.96
735.086	1.01
735.265	0.9
735.444	0.78
735.623	0.81
735.801	0.83
735.98	0.91
736.159	0.88
736.337	0.96
736.516	0.89
736.694	1
736.873	0.85
737.052	1.13
737.23	0.98
737.409	0.79
737.587	1.07
737.766	0.7
737.944	0.81
738.123	0.94
738.301	0.82
738.479	0.78
738.658	0.86
738.836	0.63
739.015	0.78
739.193	0.73
739.371	0.56
739.55	0.65
739.728	0.64
739.906	0.74
740.085	0.8
740.263	0.7
740.441	0.45
740.62	0.83
740.798	0.76
740.976	0.49
741.154	0.49
741.332	0.7
741.511	0.44
741.689	0.59
741.867	0.57
742.045	0.49
742.223	0.42
742.401	0.41
742.579	0.46
742.757	0.38
742.935	0.27
743.114	0.38
743.292	0.36
743.47	0.32
743.648	0.3
743.826	0.19
744.004	0.46
744.181	0.42
744.359	0.22
744.537	0.26
744.715	0.3
744.893	0.29
745.071	0.25
745.249	0.27
745.427	0.25
745.605	0.38
745.782	0.19
745.96	0.25
746.138	0.18
746.316	0.36
746.493	0.2
746.671	0.18
746.849	0.14
747.027	0.25
747.204	0.03
747.382	0.23
747.56	0.02
747.737	0.03
747.915	0.06
748.093	0.14
748.27	0.05
748.448	0.08
748.625	-0.05
748.803	-0.02
748.98	0.09
749.158	0.15
749.335	0.23
749.513	0.05
749.69	0.03
749.868	0.1
750.045	0.13
750.223	0.03
750.4	-0.07
750.578	0.18
750.755	-0.05
750.932	-0.05
751.11	0.11
751.287	-0.04
751.464	0.17
751.642	0.01
751.819	0.07
751.996	0.06
752.173	0.03
752.351	-0.01
752.528	0.12
752.705	0.06
752.882	-0.06
753.06	0.1
753.237	0.16
753.414	0.17
753.591	0.22
753.768	0.1
753.945	-0.06
754.122	-0.13
754.299	0.01
754.476	-0.12
754.654	0.06
754.831	0.1
755.008	0.06
755.185	0.03
755.362	-0.06
755.539	-0.06
755.716	-0.03
755.892	-0.02
756.069	0.01
756.246	-0.06
756.423	-0.04
756.6	0.07
756.777	-0.07
756.954	0.08
757.131	-0.03
757.307	-0.06
757.484	-0.11
757.661	0.02
757.838	-0.08
758.015	-0.11
758.191	0.03
758.368	0.14
758.545	0.16
758.721	0.07
758.898	-0.14
759.075	-0
759.251	0.15
759.428	-0.01
759.605	-0.17
759.781	0.03
759.958	0.01
760.134	0.02
760.311	-0.06
760.488	0.02
760.664	0.05
760.841	0
761.017	-0.09
761.194	0.03
761.37	0.03
761.547	-0.07
761.723	-0.11
761.899	0.07
762.076	-0.04
762.252	-0.12
762.429	0.02
762.605	-0.01
762.781	-0.01
762.958	0.01
763.134	0.01
763.31	-0.09
763.486	0.05
763.663	-0.19
763.839	0.07
764.015	-0.19
764.191	-0.15
764.368	-0.08
764.544	0.03
764.72	-0.05
764.896	-0.1
765.072	-0.05
765.248	-0.02
765.425	-0.03
765.601	-0.12
765.777	-0.01
765.953	-0.26
766.129	-0.04
766.305	-0.06
766.481	0.08
766.657	-0.04
766.833	0.13
767.009	-0.18
767.185	-0.03
767.361	-0.08
767.537	-0.04
767.713	0.07
767.889	-0.12
768.065	-0.04
768.24	-0.02
768.416	0.07
768.592	-0.1
768.768	-0.2
768.944	-0.05
769.12	-0.08
769.295	0.06
769.471	-0.03
769.647	-0.03
769.823	0.16
769.998	-0.05
770.174	-0.17
770.35	0.37
770.525	0.32
770.701	-0.03
770.877	0.08
771.052	0
771.228	0.11
771.403	0.02
771.579	-0.06
771.755	0.16
771.93	-0.22
772.106	-0.15
772.281	-0.08
772.457	-0.05
772.632	-0.03
772.808	-0.29
772.983	-0.1
773.159	-0.08
773.334	0.01
773.509	-0.11
773.685	-0.12
773.86	0.26
774.036	0.11
774.211	0
774.386	-0.11
774.562	0.13
774.737	0.08
774.912	-0.06
775.087	0.05
775.263	-0.06
775.438	-0.07
775.613	-0.08
775.788	0.01
775.964	0.21
776.139	0.22
776.314	-0.09
776.489	-0.01
776.664	-0.05
776.839	-0.15
777.014	0.12
777.19	0.12
777.365	0.1
777.54	0.13
777.715	-0.19
777.89	-0.14
778.065	-0.14
778.24	-0.05
778.415	0.03
778.59	-0.18
778.765	-0.02
778.94	0.06
779.115	-0.01
779.289	-0.14
779.464	-0.08
779.639	0.02
779.814	-0.18
779.989	-0.19
780.164	0.05
780.339	-0.05
780.513	-0.04
780.688	-0.21
780.863	0.1
781.038	0.14
781.212	-0.03
781.387	-0.09
781.562	0.44
781.737	-0.13
781.911	-0.02
782.086	-0.1
782.261	-0.04
782.435	0.34
782.61	-0.09
782.784	-0.18
782.959	0.09
783.134	-0.03
783.308	-0.12
783.483	-0.03
783.657	0.29
783.832	0.13
784.006	-0.24
784.181	-0.09
784.355	-0.01
784.53	-0.3
784.704	-0.19
784.878	0.14
785.053	-0.08
785.227	0.15
785.402	0.23
785.576	-0.18
785.75	-0.11
785.925	-0.05
786.099	-0.08
786.273	0.17
786.448	0.04
786.622	0.14
786.796	-0.17
786.97	-0.14
787.145	0.24
787.319	-0.35
787.493	-0.34
787.667	-0.35
787.841	-0.06
788.015	0.18
788.19	-0.27
788.364	-0.03
788.538	0.12
788.712	0.09
788.886	-0.11
789.06	0.21
789.234	0.02
789.408	-0.35
789.582	-0.31
789.756	-0.1
789.93	-0.27
790.104	-0.08
790.278	-0.18
790.452	-0.27
790.626	0.25
790.8	-0.1
790.973	0.05
791.147	0.28
791.321	0.1
791.495	0.21
791.669	0
791.843	-0.04
792.016	-0.16
792.19	0.47
792.364	-0.26
792.538	0.31
792.711	-0.03
792.885	-0.1
793.059	-0.31
793.233	-0.55
793.406	0.08
793.58	0.05
793.754	0.09
793.927	-0.01
794.101	0.24
794.274	0.06
794.448	0.16
794.622	-0.32
794.795	0.03
794.969	-0.24
795.142	0.15
795.316	-0.14
795.489	-0.01
795.663	0.39
795.836	-0.2
796.009	-0.22
796.183	0.29
796.356	0.14
796.53	-0.02
796.703	-0.1
796.876	0.35
797.05	0.05
797.223	-0.27
797.396	0.12
797.57	0.01
797.743	0.18
797.916	0.08
798.09	-0.19
798.263	0.11
798.436	-0.11
798.609	-0.14
798.782	-0.13
798.956	0.12
799.129	-0.13
799.302	0.03
799.475	-0.26
799.648	-0.27
799.821	-0.2
799.994	-0.03
800.167	-0.52
800.34	-0.01
800.514	-0.23
800.687	-0.09
800.86	-0.17
801.033	0.24
801.206	0.01
801.379	-0.43
801.551	0.12
801.724	0.11
801.897	0.12
802.07	-0.42
802.243	-0.43
802.416	-0.26
802.589	-0.12
802.762	0.02
802.935	-0.1
803.107	-0.1
803.28	0.31
803.453	0.17
803.626	-0.05
803.798	-0.21
803.971	-0.26
804.144	0.06
804.317	0.07
804.489	0.27
804.662	-0.46
804.835	0.22
805.007	-0.18
805.18	0.48
805.353	0.05
805.525	-0.02
805.698	-0.45
805.87	-0.15
806.043	0.35
806.215	-0.26
806.388	-0.37
806.56	-0.03
806.733	0.27
806.905	0.02
807.078	-0.41
807.25	-0.24
807.423	-0.17
807.595	0.07
807.768	-0.02
807.94	0.07
808.112	0.29
808.285	-0.25
808.457	-0.17
808.629	-0.29
808.802	0.22
808.974	0.26
809.146	-0.14
809.318	-0.74
809.491	-0.16
809.663	0.1
809.835	-0.36
810.007	-0.11
810.18	-0.08
810.352	-0.64
810.524	-0.27
810.696	0.14
810.868	0.43
811.04	-0.32
811.212	-0.14
811.384	0.3
811.556	0.17
811.728	-0.07
811.901	0.75
812.073	-0.33
812.245	0.39
812.417	-0.08
812.589	-0.62
812.76	-0.16
812.932	0.01
813.104	0.29
813.276	-0.2
813.448	0.27
813.62	-0.29
813.792	0.22
813.964	-0.02
814.136	0.3
814.307	-0.31
814.479	-0.34
814.651	-0.19
814.823	0.67
814.995	-0.41
815.166	-0.09
815.338	-0.55
815.51	-0.78
815.681	0.83
815.853	-0.16
816.025	-0.28
816.196	-0.17
816.368	0.32
816.54	-0.85
816.711	-0.26
816.883	0.11
817.054	0.63
817.226	-0.9
817.398	-0.31
817.569	-0.2
817.741	-0.19
817.912	0.02
818.084	-0.2
818.255	0.34
818.426	-0.51
818.598	-0.21
818.769	-0.39
818.941	-0.12
819.112	0.45
819.283	0.2
819.455	-0.36
819.626	0.13
819.798	-0.05
819.969	0.19
820.14	-0.34
820.311	-0.15
820.483	0.13
820.654	0.29
820.825	-0
820.996	-0.06
821.168	-0.37
821.339	-0.3
821.51	-0.38
821.681	-0.48
821.852	-0.2
822.023	-0.42
822.195	-0.38
822.366	0.54
822.537	-0.34
822.708	-0.45
822.879	-0.49
823.05	0.14
823.221	-0.05
823.392	0.09
823.563	0.32
823.734	-0.15
823.905	0.24
824.076	-0.3
824.247	-0.59
824.418	-0.31
824.589	0.76
824.759	-0.22
824.93	0.16
825.101	-0.06
825.272	0.56
825.443	0.81
825.614	0.26
825.784	-0.9
825.955	0.57
826.126	0.39
826.297	-0.32
826.467	0.38
826.638	0.34
826.809	-0.87
826.98	-0.28
827.15	0.27
827.321	-0.13
827.492	0.51
827.662	0.1
827.833	1.21
828.003	0.19
828.174	-0.74
828.345	-0.85
828.515	0.51
828.686	0.07
828.856	-0.33
829.027	0.06
829.197	0.17
829.368	0.12
829.538	-0.23
829.709	0.24
829.879	-0.08
830.049	-0.28
830.22	-0.6
830.39	-0.07
830.56	0.51
830.731	-0.17
830.901	-0.49
831.072	0.29
831.242	0.26
831.412	-0.15
831.582	0.3
831.753	-0.65
831.923	0.63
832.093	0.28
832.263	0.03
832.434	-0.49
832.604	-0.17
832.774	0.3
832.944	-0.68
833.114	0.05
833.284	0.55
833.454	-0.17
833.624	-1
833.795	-0.85
833.965	0.55
834.135	0.56
834.305	-0.89
834.475	-0.58
834.645	-0.24
834.815	-0.29
834.985	-0.67
835.155	-0.11
835.325	-0.1
835.494	0.11
835.664	-0.21
835.834	-0.87
836.004	-0.05
836.174	0.07
836.344	-0.04
836.514	-1.17
836.684	-0.29
836.853	-0.58
837.023	-0.19
837.193	-0.65
837.363	0.59
837.532	0.2
837.702	0.07
837.872	-0.88
838.041	0.4
838.211	1.43
838.381	-1.39
838.55	0.29
838.72	2.05
838.89	0.19
839.059	0.16
839.229	-0.84
839.398	0.85
839.568	-0.43
839.738	-0.1
839.907	0.63
840.077	0.24
840.246	-0.56
840.416	-0.73
840.585	-0.21
840.755	0.39
840.924	0.37
841.093	-0.01
841.263	-0.57
841.432	-0.2
841.602	-0.94
841.771	-0.64
841.94	0.01
842.11	1.42
842.279	0.6
842.448	-1.1
842.617	-0.4
842.787	0.98
842.956	-1.17
843.125	0.33
843.294	-0.08
843.464	0.59
843.633	-0.36
843.802	-1.52
843.971	-0.26
844.14	-0.06
844.309	0.21
844.479	-0.36
844.648	-0.53
844.817	-0.94
844.986	-0.45
845.155	0.28
845.324	-0.59
845.493	-0.07
845.662	-1.14
845.831	1.12
846	0.53
846.169	-0.36
846.338	0.63
846.507	-0.13
846.676	0.46
846.844	-0.88
847.013	1.41
847.182	0.46
847.351	0.12
847.52	-0.01
847.689	-0.03
847.858	-0.54
848.026	-0.81
848.195	-0.61
848.364	-0.97
848.533	-0.71
848.701	-0.17
848.87	-0.01
849.039	-0.25
849.207	0.24
849.376	0.8
849.545	0.6
849.713	-0.6
849.882	-1.08
850.051	-0.74
850.219	0.29
850.388	0.96
850.556	-0.73
850.725	-0.65
850.893	0.01
851.062	-0.11
851.23	-0.36
851.399	-0.94
851.567	-0.47
851.736	-0.08
851.904	-1.91
852.073	0.48
852.241	-0.01
852.41	-0.04
852.578	-0.2
852.746	-0.89
852.915	-0.35
853.083	-0.07
853.251	-1.1
853.42	-0.13
853.588	0.56
853.756	1.22
853.924	-0.16
854.093	-0.71
854.261	-0.09
854.429	-1.16
854.597	0.83
854.765	-0.71
854.934	0.11
855.102	1.32
855.27	-0.5
855.438	-0.1
855.606	-0.16
855.774	0.97
855.942	-1.74
856.11	-1.8
856.278	0.24
856.446	0.72
856.614	-0.34
856.782	-0.52
856.95	0.18
857.118	0.92
857.286	-0.12
857.454	-1.3
857.622	0.91
857.79	-0.1
857.958	-0.8
858.126	-1.37
858.294	-2.81
858.462	-0.2
858.629	-1.58
858.797	-1.76
858.965	0.89
859.133	-0.48
859.301	0.1
859.468	0.13
859.636	-0.55
859.804	0.58
859.971	0.32
860.139	-1.72
860.307	1.02
860.474	-0.73
860.642	-0.81
860.81	-0.79
860.977	-1.29
861.145	1.55
861.313	0.03
861.48	-1.16
861.648	1.14
861.815	-0.62
861.983	-0.35
862.15	-0.73
862.318	0.19
862.485	-0.09
862.653	-0.3
862.82	-1.59
862.988	0.82
863.155	-0.02
863.322	-2.22
863.49	-0.56
863.657	-1.01
863.824	2.13
863.992	0.44
864.159	-1.14
864.326	1.26
864.494	-0.58
864.661	2
864.828	-1.66
864.996	0.82
865.163	1.62
865.33	-1
865.497	-2.41
865.664	-1.21
865.832	-2.09
865.999	-0.59
866.166	-2.46
866.333	-1.52
866.5	-0.14
866.667	-0.23
866.834	-0.51
867.001	1
867.168	-0.94
867.335	-1.06
867.502	-1.96
867.669	0.28
867.836	1
868.003	-0.74
868.17	0.53
868.337	2.49
868.504	2.01
868.671	-1.93
868.838	-1.16
869.005	0.17
869.172	-1.02
869.339	-0.05
869.505	2.39
869.672	-1.14
869.839	1.92
870.006	-0.48
870.173	-1.79
870.339	-0.52
870.506	2.46
870.673	-2.12
870.84	-0.13
871.006	1.76
871.173	-0.53
871.34	0.51
871.506	-3.77
871.673	0.35
871.839	-0.97
872.006	0.14
872.173	-0.93
872.339	-0.61
872.506	1.44
872.672	0.05
872.839	-4.17
873.005	-1.65
873.172	2.25
873.338	-0.19
873.505	0.35
873.671	0.43
873.838	0.35
874.004	-2.84
874.171	-2.4
874.337	-0.12
874.503	0.7
874.67	0.43
874.836	-0.44
875.002	3.07
875.169	0.59
875.335	-0.96
875.501	-1.28
875.668	1.9
875.834	-0.96
876	0.56
876.166	1.39
876.332	1.77
876.499	2.29
876.665	-0.91
876.831	-0.73
876.997	3.27
877.163	0.58
877.329	-1.67
877.495	2.15
877.662	0.29
877.828	0.8
877.994	0.07
878.16	-3
878.326	-1.94
878.492	-1.34
878.658	-0.99
878.824	-0.43
878.99	0.4
879.156	-1.81
879.322	1.45
879.487	-0.02
879.653	-0.73
879.819	1.11
879.985	-0.32
880.151	-0.36
880.317	-0.9
880.483	-0.21
880.648	1.34
880.814	-5.23
880.98	0.46
881.146	-2.16
881.312	-0.12
881.477	-2.13
881.643	-1.4
881.809	0.52
881.974	0.95
882.14	-2.71
882.306	0.69
882.471	0.94
882.637	-1.73
882.803	1.87
882.968	1.96
883.134	3.9
883.299	-0.98
883.465	0.41
883.63	-0.12
883.796	1.6
883.961	0.9
884.127	-0.67
884.292	-3.44
884.458	-0.26
884.623	-0.26
