Data from Apollo_Calib_20240827__AbsoluteIrradiance__164__01-53-03-100.txt Node

Date: Wed Aug 28 01:53:03 BST 2024
User: biology
Spectrometer: FLMT08252
Trigger mode: 0
Integration Time (sec): 5.000000E-1
Scans to average: 5
Electric dark correction enabled: true
Nonlinearity correction enabled: false
Boxcar width: 0
XAxis mode: Wavelengths
Number of Pixels in Spectrum: 3648
>>>>>Begin Spectral Data<<<<<
179.588	-0
179.809	-0
180.03	-0
180.251	-0
180.473	-0
180.694	0
180.915	0
181.136	-0
181.357	0
181.578	-0
181.799	-0
182.02	-0
182.241	-0
182.462	0
182.683	0
182.904	-0
183.125	-0
183.346	-0
183.567	0
183.788	-0
184.009	-0
184.23	0
184.451	0
184.672	-0
184.892	-0
185.113	0
185.334	0
185.555	-0
185.776	-0
185.996	0
186.217	0
186.438	-0
186.659	-0
186.879	0
187.1	-0
187.321	-0
187.541	-0
187.762	0
187.983	-0
188.203	-0
188.424	-0
188.644	-0
188.865	-0
189.086	-0
189.306	-0
189.527	0
189.747	0
189.968	-0
190.188	0
190.409	0
190.629	0
190.849	-0
191.07	-0
191.29	0
191.511	0
191.731	-0
191.951	-0
192.172	-0
192.392	-0
192.612	-0
192.833	-0
193.053	0
193.273	0
193.493	-0
193.714	-0
193.934	0
194.154	0
194.374	0
194.594	0
194.815	0
195.035	0
195.255	0
195.475	-0
195.695	0
195.915	0
196.135	-0
196.355	0
196.575	0
196.795	0
197.015	-0
197.235	-0
197.455	-0
197.675	0
197.895	-0
198.115	-0
198.335	0
198.555	-0
198.775	0
198.995	0
199.214	0
199.434	-0
199.654	-0
199.874	-0
200.094	0.97
200.313	0.58
200.533	-0.18
200.753	-0.74
200.973	0.71
201.192	0.43
201.412	-0.81
201.632	-0.08
201.851	1.24
202.071	-0.25
202.291	-0.36
202.51	-0.48
202.73	0.73
202.95	-0.26
203.169	-0.64
203.389	-0.4
203.608	0.2
203.828	-0.51
204.047	-0.39
204.267	0.08
204.486	-0.24
204.706	0.36
204.925	-0.05
205.145	-0.26
205.364	0.63
205.583	0.37
205.803	-0.08
206.022	-0.53
206.242	-0.05
206.461	0.08
206.68	-0.62
206.9	0.3
207.119	0.51
207.338	1.04
207.557	-0.25
207.777	-0.03
207.996	-0.14
208.215	0.58
208.434	-0.01
208.654	-0.47
208.873	0.12
209.092	0.61
209.311	-0.11
209.53	-0.01
209.749	0.36
209.968	-0.15
210.187	-0.17
210.407	-0.68
210.626	-0.11
210.845	0.41
211.064	-0.11
211.283	-0.19
211.502	0.4
211.721	-0.09
211.94	-0.15
212.159	0.04
212.377	0.52
212.596	0.24
212.815	0.1
213.034	0.02
213.253	0.13
213.472	0.09
213.691	-0.15
213.91	-0.33
214.128	-0.26
214.347	0.24
214.566	-0.39
214.785	-0.36
215.003	0.05
215.222	0.22
215.441	-0.16
215.66	-0.31
215.878	0.28
216.097	0.24
216.316	-0.14
216.534	-0.29
216.753	-0.03
216.972	-0.01
217.19	-0.05
217.409	-0.23
217.627	-0.2
217.846	0.07
218.064	0.02
218.283	-0.1
218.501	0.32
218.72	0.18
218.938	-0.13
219.157	-0.17
219.375	0.1
219.594	0.07
219.812	-0.2
220.031	-0.2
220.249	0.3
220.467	0.23
220.686	-0.07
220.904	-0
221.122	-0.08
221.341	0.3
221.559	0.04
221.777	-0.29
221.995	0.08
222.214	0.15
222.432	-0.07
222.65	0.22
222.868	0.02
223.086	0.12
223.305	0.01
223.523	0.08
223.741	0.27
223.959	-0.11
224.177	-0.36
224.395	-0.14
224.613	0.09
224.831	0.25
225.049	-0.07
225.267	-0.04
225.485	-0.02
225.703	-0.11
225.921	0.01
226.139	-0.11
226.357	0.13
226.575	0.13
226.793	-0.11
227.011	0.52
227.229	0.09
227.447	0.17
227.665	-0.13
227.883	-0.3
228.1	0.09
228.318	0.09
228.536	-0.37
228.754	-0.16
228.972	0.06
229.189	0.02
229.407	-0.18
229.625	-0
229.843	0.1
230.06	0.11
230.278	-0.1
230.496	0.06
230.713	0.13
230.931	0.12
231.149	-0.14
231.366	-0.2
231.584	-0.05
231.801	0.39
232.019	-0.02
232.236	-0.2
232.454	-0.07
232.671	0.09
232.889	-0.07
233.106	-0.05
233.324	0.03
233.541	-0.11
233.759	-0.02
233.976	-0.07
234.194	0.01
234.411	-0.03
234.628	-0.05
234.846	-0.1
235.063	0.03
235.28	0.03
235.498	-0.01
235.715	-0.19
235.932	0.19
236.149	-0.02
236.367	-0.06
236.584	0.07
236.801	-0.02
237.018	0.11
237.236	0.01
237.453	-0.19
237.67	0.12
237.887	-0.03
238.104	-0.06
238.321	-0.15
238.538	-0.06
238.755	0.11
238.973	-0.21
239.19	0.06
239.407	0.07
239.624	0.02
239.841	-0.13
240.058	-0.09
240.275	0.08
240.492	-0.13
240.709	-0.04
240.925	-0.06
241.142	0.03
241.359	-0.13
241.576	-0.19
241.793	-0.17
242.01	-0.05
242.227	0.15
242.444	0.05
242.66	0.08
242.877	0.03
243.094	-0.1
243.311	-0.02
243.527	-0.04
243.744	0.01
243.961	0.1
244.178	-0.12
244.394	0
244.611	0.09
244.828	0.19
245.044	-0.03
245.261	-0.02
245.477	0.04
245.694	0.02
245.911	-0.07
246.127	0.14
246.344	0.1
246.56	0.02
246.777	-0.12
246.993	-0.07
247.21	0.12
247.426	0.09
247.643	-0.06
247.859	-0.11
248.076	-0.06
248.292	0.19
248.508	0.01
248.725	0.05
248.941	0.03
249.157	0.17
249.374	-0.08
249.59	-0.02
249.806	0.08
250.023	0.18
250.239	-0.12
250.455	-0.05
250.671	-0.06
250.888	0.04
251.104	0.04
251.32	-0.03
251.536	0.05
251.752	0.02
251.969	0.01
252.185	0.01
252.401	0.18
252.617	0.07
252.833	0.02
253.049	-0.02
253.265	-0.04
253.481	-0.01
253.697	-0.01
253.913	-0.08
254.129	-0.03
254.345	0.03
254.561	0.01
254.777	-0
254.993	0.1
255.209	-0.02
255.425	-0.02
255.641	-0.12
255.857	0.13
256.073	0.04
256.288	-0.01
256.504	-0.03
256.72	0.01
256.936	0.15
257.152	-0.02
257.367	-0.01
257.583	0.07
257.799	0.07
258.015	-0.1
258.23	-0.05
258.446	0.11
258.662	0.01
258.877	-0.08
259.093	-0.07
259.309	-0.01
259.524	0.02
259.74	-0.03
259.955	-0.14
260.171	0.02
260.387	-0.01
260.602	0.07
260.818	0
261.033	-0.02
261.249	-0.02
261.464	-0.01
261.68	-0.12
261.895	0.04
262.11	0.07
262.326	-0.04
262.541	-0.09
262.757	0.03
262.972	0.08
263.187	0.1
263.403	0.05
263.618	0.05
263.833	-0.01
264.049	-0.04
264.264	-0
264.479	0.02
264.694	0.12
264.91	-0.05
265.125	-0.01
265.34	0.09
265.555	0.14
265.77	0.07
265.986	-0.06
266.201	0.07
266.416	0.09
266.631	-0.02
266.846	-0.02
267.061	0.02
267.276	0.05
267.491	-0.11
267.706	0.07
267.921	0.07
268.136	0.05
268.351	-0.04
268.566	-0.08
268.781	0.14
268.996	0.07
269.211	-0.05
269.426	-0.04
269.641	-0.05
269.856	0.08
270.071	-0.01
270.285	-0.1
270.5	0.08
270.715	0.04
270.93	-0.02
271.145	0.05
271.359	0.09
271.574	-0
271.789	-0
272.004	-0.05
272.218	0.01
272.433	0.06
272.648	-0.01
272.862	0.06
273.077	0.01
273.292	0.02
273.506	-0.08
273.721	0.08
273.936	0.09
274.15	0.08
274.365	0.01
274.579	0.04
274.794	0.07
275.008	-0
275.223	-0.08
275.437	0.03
275.652	0.11
275.866	0.04
276.081	-0.01
276.295	0.08
276.509	0.04
276.724	0
276.938	0.02
277.153	0.03
277.367	0.05
277.581	-0.01
277.796	0.01
278.01	-0.03
278.224	0.07
278.438	0.16
278.653	-0.05
278.867	-0
279.081	0.06
279.295	0.03
279.51	0.03
279.724	-0.09
279.938	0.1
280.152	0.03
280.366	-0.07
280.58	0.05
280.794	0.08
281.008	0.08
281.222	0.09
281.437	0.11
281.651	0.02
281.865	0.06
282.079	-0.02
282.293	-0.08
282.507	-0.04
282.721	0.03
282.935	-0.01
283.148	-0.02
283.362	0.02
283.576	-0.05
283.79	0.05
284.004	-0.02
284.218	0.1
284.432	-0.06
284.646	0.02
284.859	-0.01
285.073	0.02
285.287	0.02
285.501	0.04
285.714	-0.02
285.928	0.02
286.142	0.04
286.356	-0.02
286.569	-0.03
286.783	0.07
286.997	0.05
287.21	0.04
287.424	0.05
287.637	0.03
287.851	-0.04
288.065	0.01
288.278	0.02
288.492	0.01
288.705	-0.02
288.919	0.03
289.132	-0.01
289.346	0.08
289.559	-0.07
289.773	-0.05
289.986	-0
290.2	-0.02
290.413	0.11
290.626	-0.03
290.84	-0.03
291.053	0.07
291.267	0.07
291.48	0.05
291.693	0.02
291.906	-0.07
292.12	0.01
292.333	-0.04
292.546	-0.04
292.76	0.11
292.973	0.04
293.186	0.03
293.399	-0.05
293.612	0.05
293.826	-0.02
294.039	-0.01
294.252	0.01
294.465	0.06
294.678	0.02
294.891	0.06
295.104	-0.07
295.317	0.02
295.53	0.03
295.743	0
295.956	0
296.169	0.07
296.382	0.03
296.595	0.06
296.808	-0.03
297.021	0.06
297.234	0.06
297.447	0.02
297.66	0.06
297.873	0.05
298.086	0.06
298.299	-0.01
298.511	-0.08
298.724	0.06
298.937	-0.01
299.15	-0.03
299.363	0.03
299.575	0.04
299.788	0.03
300.001	-0
300.213	-0.05
300.426	0.03
300.639	-0
300.852	-0.03
301.064	0.04
301.277	0.08
301.489	0.06
301.702	0.02
301.915	-0.02
302.127	0.02
302.34	0.01
302.552	0.01
302.765	-0.06
302.977	0.01
303.19	-0.02
303.402	0
303.615	0
303.827	-0.01
304.04	-0.02
304.252	0.02
304.464	-0.02
304.677	0.11
304.889	0.06
305.102	-0.01
305.314	-0.02
305.526	0.02
305.739	0.05
305.951	-0.02
306.163	0
306.375	0.12
306.588	-0.01
306.8	-0.02
307.012	-0.04
307.224	0.04
307.436	0.14
307.649	-0.06
307.861	0.05
308.073	0.06
308.285	-0.02
308.497	-0.01
308.709	-0.01
308.921	-0.01
309.133	0.06
309.346	0.01
309.558	0
309.77	0.06
309.982	0.09
310.194	0.06
310.406	0.01
310.617	0.1
310.829	-0.03
311.041	0.02
311.253	-0.07
311.465	-0
311.677	-0.01
311.889	0.01
312.101	-0.01
312.313	0.04
312.524	0.03
312.736	-0.04
312.948	-0.03
313.16	0.07
313.372	0.05
313.583	0.08
313.795	0.01
314.007	-0
314.218	0.05
314.43	-0.02
314.642	-0.02
314.853	-0.07
315.065	0.05
315.277	-0.02
315.488	0.01
315.7	0.06
315.912	0.06
316.123	0.01
316.335	0.03
316.546	0.11
316.758	0.01
316.969	-0.01
317.181	0.02
317.392	0.01
317.604	0.04
317.815	-0.02
318.026	-0.04
318.238	0.03
318.449	-0.02
318.661	-0.09
318.872	-0.02
319.083	-0.04
319.295	0.02
319.506	-0.01
319.717	0.02
319.929	-0.01
320.14	0.04
320.351	0.05
320.562	-0.02
320.774	0.03
320.985	0.03
321.196	-0.01
321.407	-0.02
321.618	0.07
321.829	0.03
322.041	0.05
322.252	0.02
322.463	0.04
322.674	0.03
322.885	-0.02
323.096	-0.03
323.307	0.03
323.518	-0.02
323.729	-0.01
323.94	-0.01
324.151	-0.01
324.362	0.04
324.573	0.04
324.784	-0.05
324.995	0.12
325.206	-0.01
325.417	0.04
325.628	-0.05
325.838	-0.01
326.049	0.02
326.26	0.01
326.471	-0.02
326.682	0.04
326.892	0
327.103	-0.03
327.314	-0.05
327.525	0.06
327.735	-0.01
327.946	-0.04
328.157	-0.04
328.368	0.06
328.578	-0.01
328.789	0.05
328.999	0
329.21	0.01
329.421	0.06
329.631	-0.05
329.842	-0.03
330.052	0.08
330.263	0.04
330.473	0.04
330.684	0.01
330.894	0.03
331.105	0.07
331.315	0.01
331.526	-0.05
331.736	0.08
331.947	0.02
332.157	0.03
332.367	-0.01
332.578	0.03
332.788	0.09
332.999	0.04
333.209	0.03
333.419	-0.01
333.629	0.05
333.84	0.03
334.05	0.01
334.26	0.08
334.47	0.04
334.681	0.06
334.891	0.02
335.101	0.08
335.311	0.07
335.521	0.01
335.732	-0.06
335.942	0.07
336.152	0.03
336.362	0.06
336.572	0.03
336.782	0.04
336.992	-0.03
337.202	-0.06
337.412	0
337.622	0.04
337.832	0.02
338.042	0.02
338.252	-0.02
338.462	0.03
338.672	0.04
338.882	-0
339.092	0.01
339.302	0.06
339.511	0.06
339.721	0.02
339.931	-0.01
340.141	0.06
340.351	0.07
340.561	0.04
340.77	0.01
340.98	0.06
341.19	0.06
341.4	-0.04
341.609	-0.02
341.819	0.02
342.029	-0.04
342.238	0.02
342.448	-0.02
342.658	0.06
342.867	0.03
343.077	0.03
343.286	0.04
343.496	0.02
343.706	0.1
343.915	-0.03
344.125	0.02
344.334	0.02
344.544	-0.03
344.753	0.02
344.963	0.02
345.172	-0.02
345.381	-0
345.591	-0.02
345.8	0.05
346.01	0.05
346.219	0.05
346.428	-0.13
346.638	0.02
346.847	0.02
347.056	0.05
347.266	0.01
347.475	0.03
347.684	0.03
347.893	0.04
348.103	0.01
348.312	-0.01
348.521	-0
348.73	0.02
348.94	0.03
349.149	0.02
349.358	-0
349.567	-0.03
349.776	-0.04
349.985	0.01
350.194	0.03
350.403	0.09
350.612	-0.06
350.821	0.01
351.03	0
351.239	-0.05
351.448	0.04
351.657	-0.03
351.866	0.12
352.075	0.02
352.284	-0.02
352.493	-0.05
352.702	0.08
352.911	0.02
353.12	0.01
353.329	-0.03
353.538	0.03
353.746	0.01
353.955	-0.01
354.164	0.02
354.373	0.02
354.582	0.07
354.79	0.03
354.999	0.01
355.208	0.02
355.416	0.08
355.625	0.01
355.834	-0.02
356.042	0.03
356.251	-0.01
356.46	-0.04
356.668	0.04
356.877	0.09
357.085	0.06
357.294	-0.07
357.503	0.03
357.711	0.01
357.92	0.14
358.128	0.02
358.337	-0.03
358.545	0.02
358.754	0.04
358.962	0.03
359.17	0.01
359.379	0.02
359.587	0.04
359.796	-0.01
360.004	0.07
360.212	-0
360.421	0.05
360.629	0.04
360.837	0.01
361.046	0.1
361.254	0.11
361.462	0
361.67	0
361.879	-0
362.087	0.04
362.295	0.03
362.503	-0.01
362.711	-0.04
362.92	-0.01
363.128	-0.03
363.336	0.02
363.544	-0.03
363.752	0.01
363.96	0
364.168	-0
364.376	0.01
364.584	0.02
364.792	0.03
365	0.05
365.208	0.05
365.416	-0
365.624	0.03
365.832	-0
366.04	0.06
366.248	0.07
366.456	0.01
366.664	0.04
366.872	0.02
367.079	0
367.287	0.03
367.495	0.04
367.703	0.02
367.911	0.04
368.118	0.01
368.326	0.01
368.534	-0.01
368.742	0.08
368.949	-0.04
369.157	-0.02
369.365	0.04
369.572	0.04
369.78	-0
369.988	0.05
370.195	0.02
370.403	0.07
370.61	-0.01
370.818	0.01
371.026	0.09
371.233	-0.01
371.441	0.02
371.648	-0.01
371.856	0.03
372.063	0.04
372.271	-0.01
372.478	-0.01
372.685	-0
372.893	0.06
373.1	0.02
373.308	0.03
373.515	0.07
373.722	0.1
373.93	0.03
374.137	0.06
374.344	0.1
374.552	0.1
374.759	0.05
374.966	0.06
375.173	-0.03
375.381	0.08
375.588	0.01
375.795	-0.01
376.002	0.02
376.209	0.02
376.417	0.02
376.624	0.03
376.831	0.05
377.038	0
377.245	-0.03
377.452	-0
377.659	0.05
377.866	0.01
378.073	0.02
378.28	-0.01
378.487	0.05
378.694	0.04
378.901	-0.01
379.108	0.02
379.315	0.07
379.522	0.16
379.729	0.04
379.936	0.03
380.143	0.03
380.35	0.05
380.557	0.03
380.763	0.04
380.97	0.08
381.177	0.07
381.384	0.07
381.591	-0.01
381.797	0.07
382.004	0.06
382.211	0.05
382.418	0.11
382.624	0.03
382.831	0.1
383.038	0.01
383.244	0.05
383.451	0.01
383.658	0.07
383.864	0.07
384.071	0.02
384.277	0.14
384.484	0.04
384.69	0.13
384.897	0.03
385.103	0.09
385.31	0.05
385.516	0.05
385.723	0.05
385.929	0.09
386.136	0.06
386.342	0.1
386.549	0.06
386.755	0.14
386.961	0.09
387.168	0.06
387.374	0.13
387.58	0.12
387.787	0.13
387.993	0.13
388.199	0.12
388.406	0.08
388.612	0.1
388.818	0.09
389.024	0.13
389.231	0.15
389.437	0.2
389.643	0.17
389.849	0.18
390.055	0.19
390.261	0.22
390.467	0.22
390.674	0.11
390.88	0.22
391.086	0.26
391.292	0.22
391.498	0.26
391.704	0.28
391.91	0.27
392.116	0.29
392.322	0.16
392.528	0.33
392.734	0.28
392.94	0.34
393.146	0.33
393.352	0.39
393.557	0.39
393.763	0.4
393.969	0.49
394.175	0.47
394.381	0.51
394.587	0.46
394.792	0.54
394.998	0.6
395.204	0.64
395.41	0.57
395.615	0.76
395.821	0.69
396.027	0.78
396.233	0.75
396.438	0.88
396.644	0.97
396.85	0.96
397.055	0.96
397.261	1.09
397.466	1.17
397.672	1.13
397.878	1.27
398.083	1.28
398.289	1.3
398.494	1.38
398.7	1.42
398.905	1.39
399.111	1.66
399.316	1.5
399.522	1.65
399.727	1.68
399.932	1.84
400.138	1.93
400.343	1.99
400.549	2.01
400.754	2.16
400.959	2.28
401.165	2.41
401.37	2.53
401.575	2.63
401.78	2.68
401.986	2.82
402.191	2.91
402.396	3.13
402.601	3.17
402.807	3.36
403.012	3.42
403.217	3.79
403.422	3.72
403.627	3.91
403.832	4.03
404.037	4.2
404.243	4.25
404.448	4.37
404.653	4.5
404.858	4.6
405.063	4.54
405.268	4.78
405.473	4.83
405.678	4.97
405.883	5.24
406.088	5.15
406.293	5.13
406.498	5.37
406.703	5.33
406.907	5.47
407.112	5.54
407.317	5.72
407.522	5.82
407.727	5.82
407.932	5.83
408.136	6.17
408.341	5.78
408.546	5.87
408.751	5.87
408.956	5.73
409.16	5.92
409.365	5.78
409.57	5.59
409.774	5.56
409.979	5.46
410.184	5.42
410.388	5.27
410.593	5.21
410.798	5.19
411.002	5.13
411.207	5.09
411.411	4.92
411.616	4.66
411.82	4.74
412.025	4.56
412.229	4.45
412.434	4.34
412.638	4.24
412.843	4.05
413.047	3.98
413.252	3.73
413.456	3.83
413.66	3.66
413.865	3.49
414.069	3.44
414.273	3.34
414.478	3.24
414.682	3.07
414.886	3.04
415.091	2.88
415.295	2.78
415.499	2.83
415.703	2.61
415.908	2.62
416.112	2.49
416.316	2.49
416.52	2.41
416.724	2.28
416.929	2.23
417.133	2.38
417.337	2.19
417.541	2.16
417.745	2.07
417.949	2.08
418.153	2.12
418.357	1.91
418.561	2.11
418.765	1.88
418.969	1.97
419.173	1.95
419.377	1.75
419.581	1.91
419.785	1.78
419.989	1.69
420.193	1.67
420.397	1.65
420.601	1.69
420.804	1.61
421.008	1.51
421.212	1.53
421.416	1.46
421.62	1.43
421.823	1.32
422.027	1.41
422.231	1.29
422.435	1.13
422.638	1.16
422.842	1.1
423.046	1.03
423.249	1.11
423.453	1.05
423.657	0.94
423.86	0.95
424.064	0.91
424.268	0.94
424.471	0.85
424.675	0.94
424.878	0.91
425.082	0.78
425.285	0.84
425.489	0.76
425.692	0.75
425.896	0.68
426.099	0.73
426.303	0.64
426.506	0.62
426.71	0.68
426.913	0.69
427.116	0.7
427.32	0.56
427.523	0.56
427.726	0.68
427.93	0.54
428.133	0.61
428.336	0.54
428.54	0.51
428.743	0.52
428.946	0.56
429.149	0.47
429.353	0.55
429.556	0.45
429.759	0.49
429.962	0.41
430.165	0.43
430.368	0.41
430.571	0.43
430.775	0.4
430.978	0.42
431.181	0.44
431.384	0.4
431.587	0.4
431.79	0.33
431.993	0.39
432.196	0.36
432.399	0.32
432.602	0.45
432.805	0.34
433.008	0.34
433.211	0.25
433.414	0.41
433.616	0.43
433.819	0.37
434.022	0.27
434.225	0.36
434.428	0.29
434.631	0.42
434.833	0.36
435.036	0.23
435.239	0.39
435.442	0.36
435.645	0.29
435.847	0.31
436.05	0.34
436.253	0.25
436.455	0.24
436.658	0.25
436.861	0.33
437.063	0.23
437.266	0.22
437.468	0.28
437.671	0.37
437.874	0.26
438.076	0.17
438.279	0.16
438.481	0.26
438.684	0.19
438.886	0.26
439.089	0.14
439.291	0.19
439.494	0.23
439.696	0.15
439.899	0.2
440.101	0.23
440.303	0.13
440.506	0.24
440.708	0.21
440.91	0.22
441.113	0.13
441.315	0.2
441.517	0.14
441.72	0.25
441.922	0.16
442.124	0.1
442.326	0.22
442.529	0.23
442.731	0.13
442.933	0.26
443.135	0.2
443.337	0.14
443.539	0.08
443.742	0.15
443.944	0.19
444.146	0.1
444.348	0.14
444.55	0.13
444.752	0.12
444.954	0.08
445.156	0.16
445.358	0.13
445.56	0.15
445.762	0.12
445.964	0.11
446.166	0.1
446.368	0.08
446.57	0.14
446.772	0.16
446.974	0.11
447.175	0.18
447.377	0.05
447.579	0.09
447.781	0.02
447.983	0.14
448.184	0.08
448.386	0.13
448.588	0.03
448.79	0.09
448.991	0.06
449.193	0.08
449.395	0.05
449.597	0.09
449.798	0.05
450	0.12
450.202	0.07
450.403	0.09
450.605	0.1
450.806	0.08
451.008	0.01
451.21	0.06
451.411	0.1
451.613	0.05
451.814	0.05
452.016	0.1
452.217	0.07
452.419	0.11
452.62	0.08
452.821	0.11
453.023	0.15
453.224	0.12
453.426	0.08
453.627	0.09
453.828	0.14
454.03	0.06
454.231	0.1
454.432	0.05
454.634	0.2
454.835	0.09
455.036	0.03
455.238	0.09
455.439	0.17
455.64	0.01
455.841	0.08
456.042	0.17
456.244	0.07
456.445	0.02
456.646	0.01
456.847	0.06
457.048	0.1
457.249	0.15
457.45	0.31
457.651	0.07
457.852	0.14
458.054	0.1
458.255	0.05
458.456	0.1
458.657	0.08
458.858	0.03
459.058	0.06
459.259	0.14
459.46	0.1
459.661	0.06
459.862	0.18
460.063	0.03
460.264	0.13
460.465	0.03
460.666	0.18
460.866	0.05
461.067	0.06
461.268	0.05
461.469	0.08
461.67	0.1
461.87	0.03
462.071	0.1
462.272	0.03
462.473	0.11
462.673	0.14
462.874	0.02
463.075	0.09
463.275	0.02
463.476	0.09
463.676	0.12
463.877	0.1
464.078	0.1
464.278	0.11
464.479	0.03
464.679	0.03
464.88	0.06
465.08	0.15
465.281	0.04
465.481	0.11
465.682	0.02
465.882	0.11
466.083	0.1
466.283	0.09
466.483	0.06
466.684	-0.01
466.884	0.04
467.085	0.09
467.285	0.09
467.485	0.04
467.686	0.06
467.886	0
468.086	0.05
468.286	0.06
468.487	0.09
468.687	0.01
468.887	0.06
469.087	0.1
469.287	0.04
469.488	-0.01
469.688	0.07
469.888	0.11
470.088	0.1
470.288	0.11
470.488	0.14
470.688	0.01
470.888	0.02
471.088	0.03
471.288	0.08
471.488	0.08
471.688	0.11
471.888	0.04
472.088	0.1
472.288	0.09
472.488	0.04
472.688	0.03
472.888	0.05
473.088	0.08
473.288	0.05
473.488	0.06
473.688	0.12
473.887	0.07
474.087	0.02
474.287	0.07
474.487	0.02
474.687	0.12
474.886	0.04
475.086	0.03
475.286	0.05
475.486	0.04
475.685	0.06
475.885	0.06
476.085	0.07
476.284	0.11
476.484	0.03
476.684	0.07
476.883	0.11
477.083	0.04
477.282	0.01
477.482	0.1
477.681	0.1
477.881	0.01
478.08	-0.02
478.28	0.01
478.479	0.07
478.679	0.12
478.878	0.04
479.078	0.05
479.277	0.05
479.477	0.03
479.676	0.04
479.875	0.04
480.075	0
480.274	0.07
480.473	0.05
480.673	-0
480.872	0.08
481.071	0.03
481.271	0.04
481.47	0.02
481.669	0.02
481.868	0.01
482.067	-0.01
482.267	0.01
482.466	-0.02
482.665	0
482.864	0.02
483.063	-0.02
483.262	0.05
483.461	0.08
483.661	0.05
483.86	0.03
484.059	0.05
484.258	0.04
484.457	0.02
484.656	0.03
484.855	0.07
485.054	-0.03
485.253	-0.01
485.452	0.01
485.651	0.04
485.849	0.04
486.048	0.01
486.247	0.01
486.446	0.03
486.645	-0.02
486.844	0.01
487.043	0
487.241	0.06
487.44	0.01
487.639	0.03
487.838	0.05
488.037	0.02
488.235	0.09
488.434	0.04
488.633	0.01
488.831	0.02
489.03	0.07
489.229	0.03
489.427	-0
489.626	0.05
489.825	0.06
490.023	0.01
490.222	0.01
490.42	0.05
490.619	0.06
490.817	0.05
491.016	0.01
491.214	0.06
491.413	0.03
491.611	0
491.81	0.02
492.008	0.06
492.207	0.07
492.405	0.03
492.604	-0.04
492.802	0.02
493	0.03
493.199	0.02
493.397	0.01
493.595	0.03
493.794	0.02
493.992	0.08
494.19	0.03
494.388	0.02
494.587	0.01
494.785	0.03
494.983	-0.02
495.181	0.02
495.379	0.03
495.578	0.03
495.776	0.03
495.974	0.04
496.172	0.01
496.37	-0
496.568	0.01
496.766	0.01
496.964	0.03
497.162	0.03
497.36	0.01
497.558	0.06
497.756	0.03
497.954	0.04
498.152	0.02
498.35	0.02
498.548	0.01
498.746	0.02
498.944	-0
499.142	0.02
499.34	-0.01
499.538	-0
499.736	-0
499.933	0.06
500.131	0.07
500.329	0.01
500.527	0.03
500.725	0.04
500.922	0.04
501.12	0.03
501.318	0.04
501.516	-0
501.713	0.04
501.911	0.01
502.109	-0.02
502.306	0.05
502.504	0.02
502.701	-0.01
502.899	0.01
503.097	0.07
503.294	0.01
503.492	0.02
503.689	0.03
503.887	0.04
504.084	0.07
504.282	-0
504.479	-0.01
504.677	0.02
504.874	0
505.072	0.02
505.269	0.01
505.466	0.06
505.664	0.03
505.861	-0.03
506.059	0
506.256	0.04
506.453	0.02
506.651	0.05
506.848	0.02
507.045	0.03
507.242	0.04
507.44	0.01
507.637	0
507.834	-0
508.031	0.05
508.229	-0.01
508.426	0.02
508.623	0.02
508.82	0
509.017	0
509.214	0.02
509.411	0
509.608	0
509.805	0.02
510.003	0.01
510.2	-0.01
510.397	0.02
510.594	0.01
510.791	-0.01
510.988	0.01
511.184	0.04
511.381	0.03
511.578	-0.01
511.775	0.04
511.972	0
512.169	0.01
512.366	-0
512.563	0.06
512.76	0.01
512.956	0.04
513.153	-0
513.35	0.01
513.547	-0.01
513.744	-0.02
513.94	-0.01
514.137	0.02
514.334	0.01
514.53	0.01
514.727	0.03
514.924	0.04
515.12	0
515.317	-0.03
515.514	-0.01
515.71	-0.01
515.907	0
516.103	0.01
516.3	0.04
516.497	0.03
516.693	0.04
516.89	0.02
517.086	-0
517.283	0.02
517.479	0.02
517.676	0.01
517.872	-0
518.068	-0.01
518.265	-0.02
518.461	-0.01
518.658	-0.01
518.854	0.03
519.05	-0
519.247	-0
519.443	0.04
519.639	0.01
519.836	0.01
520.032	0.02
520.228	0.02
520.424	0.04
520.621	0.02
520.817	0.02
521.013	0.02
521.209	0.03
521.405	0.06
521.601	0.01
521.798	0.03
521.994	0.02
522.19	0.01
522.386	-0.03
522.582	0.02
522.778	0.01
522.974	0
523.17	0.01
523.366	0.03
523.562	0.03
523.758	0.01
523.954	-0.02
524.15	0.01
524.346	0.03
524.542	0.01
524.738	-0.01
524.934	0.01
525.129	-0.06
525.325	0.03
525.521	0
525.717	0.04
525.913	0
526.109	0.01
526.304	0
526.5	0.01
526.696	0.03
526.892	0
527.087	0.01
527.283	-0.01
527.479	0.02
527.674	-0.02
527.87	-0.01
528.066	-0.01
528.261	0.04
528.457	0.03
528.653	0.01
528.848	-0.01
529.044	0.01
529.239	0
529.435	0.02
529.63	0.01
529.826	0.06
530.021	0.02
530.217	0.02
530.412	-0.01
530.608	-0.01
530.803	0.01
530.999	-0.02
531.194	-0.03
531.389	0.02
531.585	-0.03
531.78	-0.02
531.975	0.02
532.171	0.02
532.366	0.01
532.561	0.01
532.757	-0.02
532.952	0.01
533.147	0.02
533.342	0
533.538	-0.01
533.733	0.03
533.928	-0
534.123	-0
534.318	-0.03
534.513	-0
534.709	0.02
534.904	-0.01
535.099	-0.01
535.294	0.01
535.489	0.02
535.684	0.01
535.879	-0
536.074	0.02
536.269	-0.03
536.464	0.01
536.659	0.02
536.854	0.01
537.049	0.01
537.244	0
537.439	0
537.634	0.04
537.828	0.01
538.023	0.02
538.218	-0.05
538.413	0
538.608	-0.02
538.803	0.02
538.997	-0.03
539.192	0.04
539.387	0.04
539.582	0.02
539.776	0.02
539.971	-0
540.166	-0.02
540.36	-0.03
540.555	0.01
540.75	-0
540.944	0
541.139	-0.03
541.334	-0.02
541.528	0.03
541.723	0.02
541.917	0.01
542.112	-0.03
542.306	-0
542.501	0
542.695	0.01
542.89	0
543.084	0
543.279	0.01
543.473	-0.01
543.668	-0
543.862	0.02
544.056	0.03
544.251	0.01
544.445	0.02
544.64	0
544.834	-0.01
545.028	0.02
545.222	0.02
545.417	0.04
545.611	0
545.805	0.02
546	0.02
546.194	0.01
546.388	0.01
546.582	0.01
546.776	-0.01
546.97	-0
547.165	0.02
547.359	0.02
547.553	-0.01
547.747	0.01
547.941	-0.01
548.135	-0
548.329	0.01
548.523	0.02
548.717	0.01
548.911	-0.01
549.105	0.01
549.299	0.02
549.493	0.03
549.687	0.01
549.881	0.02
550.075	-0.01
550.269	-0.02
550.463	0.01
550.657	-0.01
550.85	0.02
551.044	-0.04
551.238	0
551.432	-0.02
551.626	-0.04
551.82	0.02
552.013	-0.02
552.207	0
552.401	0.01
552.594	0.03
552.788	-0
552.982	0
553.176	-0.03
553.369	0.03
553.563	0.02
553.756	-0.03
553.95	-0.04
554.144	0
554.337	0.03
554.531	0.03
554.724	0.01
554.918	-0
555.111	0.02
555.305	-0
555.498	0.06
555.692	0
555.885	-0.02
556.079	-0
556.272	-0.02
556.466	0.04
556.659	0.01
556.852	-0.02
557.046	-0.02
557.239	0.05
557.432	-0.02
557.626	-0.02
557.819	0.02
558.012	0.03
558.206	0.01
558.399	-0.01
558.592	0.03
558.785	0
558.979	0.04
559.172	0.01
559.365	0.03
559.558	-0
559.751	0
559.944	0.03
560.138	-0.01
560.331	0.01
560.524	0.01
560.717	-0.01
560.91	-0
561.103	0.02
561.296	0
561.489	0.01
561.682	-0
561.875	0.04
562.068	0.03
562.261	0.02
562.454	0.04
562.647	0.01
562.84	0.03
563.032	-0.01
563.225	-0.01
563.418	0
563.611	-0
563.804	-0
563.997	-0.03
564.19	-0.01
564.382	0.03
564.575	0.02
564.768	-0.03
564.961	-0.01
565.153	-0.02
565.346	0
565.539	0.03
565.731	0.03
565.924	0.04
566.117	0.01
566.309	0.01
566.502	-0.02
566.695	0.02
566.887	-0.01
567.08	-0.01
567.272	0.02
567.465	0.01
567.657	0.02
567.85	0.02
568.042	0.03
568.235	0.02
568.427	0.01
568.62	-0
568.812	0.01
569.005	0
569.197	-0.04
569.389	0.01
569.582	0.03
569.774	-0
569.966	-0.03
570.159	0
570.351	0.01
570.543	-0.02
570.736	0.01
570.928	0.01
571.12	0.01
571.312	-0.03
571.505	-0.04
571.697	0.02
571.889	-0.03
572.081	0.01
572.273	-0
572.465	0.03
572.658	-0.02
572.85	0.03
573.042	0.02
573.234	-0.02
573.426	0.04
573.618	-0.05
573.81	0.03
574.002	0.04
574.194	0.03
574.386	-0.05
574.578	-0.07
574.77	-0.04
574.962	-0.01
575.154	-0.05
575.346	-0.01
575.538	0.03
575.729	-0.02
575.921	-0.03
576.113	-0.01
576.305	0.02
576.497	-0.02
576.689	-0.01
576.88	-0.02
577.072	0.05
577.264	-0
577.456	0.01
577.647	-0.07
577.839	-0.02
578.031	0.03
578.223	-0.05
578.414	-0.04
578.606	0.04
578.798	0.02
578.989	0
579.181	0.01
579.372	0.01
579.564	-0.02
579.755	0.01
579.947	0.03
580.139	0.01
580.33	-0.05
580.522	-0.01
580.713	-0.06
580.905	-0.02
581.096	0.01
581.287	0.01
581.479	0.01
581.67	0.05
581.862	-0.01
582.053	0
582.244	-0.04
582.436	-0
582.627	0.01
582.818	-0.02
583.01	-0.03
583.201	0
583.392	0.02
583.583	0.01
583.775	-0.03
583.966	-0.01
584.157	-0
584.348	-0
584.54	-0.03
584.731	0.02
584.922	-0.01
585.113	-0.04
585.304	0.04
585.495	0.03
585.686	-0
585.877	0.01
586.068	0
586.259	0.02
586.45	0.02
586.641	-0.04
586.832	-0.06
587.023	0.02
587.214	-0
587.405	0.01
587.596	-0.02
587.787	0.04
587.978	0.03
588.169	-0.05
588.36	-0.02
588.551	0.01
588.742	-0.02
588.932	0.03
589.123	-0.01
589.314	0
589.505	-0
589.696	0.03
589.886	-0.01
590.077	-0.03
590.268	0
590.458	-0.03
590.649	-0.05
590.84	0.02
591.03	-0.01
591.221	-0.04
591.412	-0.04
591.602	0
591.793	0.02
591.984	-0
592.174	-0
592.365	0.04
592.555	-0.06
592.746	0.02
592.936	0
593.127	0.02
593.317	0.04
593.508	-0.03
593.698	-0
593.889	0.02
594.079	0.01
594.269	-0.04
594.46	-0.02
594.65	0.01
594.84	-0.01
595.031	-0.01
595.221	-0.01
595.411	-0.02
595.602	0.03
595.792	-0.03
595.982	-0.01
596.172	0.03
596.363	-0.01
596.553	0.02
596.743	-0
596.933	0.02
597.123	0.03
597.314	-0.03
597.504	-0.02
597.694	0.06
597.884	0
598.074	-0.01
598.264	-0.01
598.454	0.02
598.644	0.03
598.834	-0.02
599.024	-0.05
599.214	-0.01
599.404	0
599.594	-0.02
599.784	-0.03
599.974	0.09
600.164	0.04
600.354	-0.05
600.544	-0.04
600.734	-0.02
600.924	0.05
601.114	-0.03
601.303	-0
601.493	0
601.683	-0
601.873	0
602.063	-0.05
602.252	0.04
602.442	-0.07
602.632	-0.03
602.821	-0.01
603.011	0.01
603.201	-0.02
603.39	-0.01
603.58	-0.02
603.77	-0
603.959	0.01
604.149	0
604.339	-0.03
604.528	0.04
604.718	0.01
604.907	0
605.097	-0.01
605.286	-0.01
605.476	0.03
605.665	0.02
605.855	-0.03
606.044	0.03
606.234	0.04
606.423	0.01
606.612	-0.03
606.802	0.01
606.991	0.03
607.181	-0
607.37	-0.05
607.559	-0.01
607.749	-0.05
607.938	-0.01
608.127	-0.03
608.316	-0.01
608.506	0
608.695	-0
608.884	-0.04
609.073	0.02
609.263	0.02
609.452	0.01
609.641	0.02
609.83	-0.03
610.019	0.01
610.208	-0.04
610.397	-0.02
610.586	0.03
610.775	-0.03
610.965	-0.03
611.154	-0.03
611.343	-0.02
611.532	0
611.721	-0.02
611.91	-0.03
612.099	0.02
612.287	-0.03
612.476	-0.04
612.665	0.01
612.854	-0.05
613.043	0.05
613.232	-0.02
613.421	-0.06
613.61	0.02
613.798	-0.03
613.987	0.03
614.176	0.01
614.365	0.02
614.554	0
614.742	0.03
614.931	-0.05
615.12	0.01
615.309	0.01
615.497	0.02
615.686	-0.04
615.875	-0.02
616.063	0
616.252	-0.01
616.44	-0.01
616.629	-0.03
616.818	0.02
617.006	0.02
617.195	-0.01
617.383	0.01
617.572	0
617.76	-0.03
617.949	-0.01
618.137	0.02
618.326	0.08
618.514	-0.04
618.703	-0.02
618.891	0.05
619.079	-0.06
619.268	0.01
619.456	-0.01
619.644	0.02
619.833	-0.02
620.021	-0.02
620.209	-0.06
620.398	0.02
620.586	-0.03
620.774	0.03
620.962	0
621.151	0.04
621.339	0.01
621.527	-0.02
621.715	-0.03
621.903	-0.03
622.092	-0.05
622.28	-0.03
622.468	-0.03
622.656	-0.02
622.844	0.02
623.032	-0.01
623.22	-0.04
623.408	0.03
623.596	-0.02
623.784	0.02
623.972	-0.04
624.16	0
624.348	0.04
624.536	-0.01
624.724	-0.03
624.912	0.05
625.1	0
625.288	-0.03
625.476	-0.05
625.664	0
625.851	0
626.039	-0.02
626.227	0
626.415	-0
626.603	-0.09
626.79	0.02
626.978	0.01
627.166	0.01
627.354	0
627.541	-0.04
627.729	-0.06
627.917	0.03
628.104	-0
628.292	-0.03
628.48	-0.04
628.667	-0.02
628.855	0
629.042	0.02
629.23	-0.03
629.418	-0.02
629.605	0
629.793	-0
629.98	-0.03
630.168	-0.01
630.355	0
630.543	0.02
630.73	-0.04
630.917	0.02
631.105	0.05
631.292	-0.01
631.48	-0.01
631.667	0.06
631.854	-0.01
632.042	-0.02
632.229	-0.07
632.416	-0.01
632.604	0
632.791	-0.04
632.978	0.02
633.165	0.01
633.353	0.04
633.54	0.02
633.727	-0.07
633.914	-0.02
634.101	-0.1
634.289	0.02
634.476	-0.03
634.663	-0.04
634.85	-0
635.037	-0.04
635.224	-0.07
635.411	0.02
635.598	-0
635.785	-0.01
635.972	-0
636.159	0.05
636.346	-0.05
636.533	0
636.72	-0
636.907	-0.01
637.094	0.01
637.281	-0.02
637.468	0.01
637.655	-0.02
637.842	-0
638.029	-0.05
638.215	0.01
638.402	-0
638.589	-0.03
638.776	-0.01
638.963	-0.02
639.149	0.04
639.336	0.04
639.523	-0.03
639.709	0.02
639.896	0
640.083	0.05
640.27	0.01
640.456	0
640.643	0
640.829	-0.07
641.016	-0.01
641.203	-0.06
641.389	0.05
641.576	0.01
641.762	-0.02
641.949	-0.03
642.135	0.01
642.322	-0.02
642.508	-0.06
642.695	-0.02
642.881	-0.05
643.068	-0.01
643.254	-0.02
643.441	0.03
643.627	-0.03
643.813	-0.01
644	0.02
644.186	-0.05
644.372	-0.09
644.559	0.01
644.745	-0.01
644.931	-0.04
645.118	-0.05
645.304	-0.02
645.49	-0.03
645.676	-0.01
645.862	0
646.049	0.04
646.235	-0
646.421	0.05
646.607	0.06
646.793	-0.01
646.979	-0.04
647.165	0
647.352	-0.02
647.538	0.07
647.724	-0.04
647.91	-0.01
648.096	0.04
648.282	0.01
648.468	0.01
648.654	0.02
648.84	-0.02
649.026	0.03
649.212	-0.01
649.397	-0.02
649.583	-0.05
649.769	-0.02
649.955	-0.03
650.141	0.02
650.327	0.05
650.513	-0.04
650.698	0.02
650.884	-0.07
651.07	0.01
651.256	-0
651.442	0.01
651.627	-0.01
651.813	0.01
651.999	-0.01
652.184	0.02
652.37	-0.02
652.556	-0.01
652.741	0.05
652.927	-0.08
653.113	-0
653.298	-0
653.484	-0.02
653.669	-0.07
653.855	-0.01
654.04	0.02
654.226	-0.01
654.412	-0.02
654.597	-0.05
654.782	-0.01
654.968	0.01
655.153	0.01
655.339	-0.02
655.524	-0.06
655.71	0.02
655.895	-0.05
656.08	-0.03
656.266	0.02
656.451	0.01
656.636	-0.02
656.822	0.01
657.007	-0.02
657.192	-0.03
657.378	-0.07
657.563	-0.01
657.748	0.03
657.933	-0.01
658.118	-0.04
658.304	-0.02
658.489	0.02
658.674	-0.01
658.859	-0.04
659.044	0.03
659.229	0.03
659.414	-0.04
659.599	-0.01
659.785	-0.03
659.97	-0.06
660.155	0.03
660.34	-0.02
660.525	-0.03
660.71	-0.03
660.895	0.03
661.08	-0.05
661.264	-0.02
661.449	0.03
661.634	0.04
661.819	-0.02
662.004	0.01
662.189	-0.09
662.374	-0.04
662.559	-0.05
662.743	-0.07
662.928	0
663.113	-0.04
663.298	-0.08
663.483	-0.02
663.667	0.02
663.852	-0.1
664.037	0.02
664.221	-0.01
664.406	0.04
664.591	-0
664.775	-0
664.96	-0
665.145	-0.03
665.329	-0.01
665.514	-0.02
665.698	-0.02
665.883	-0.01
666.068	0.07
666.252	-0.02
666.437	-0.05
666.621	-0.01
666.806	0.03
666.99	-0.01
667.174	-0.06
667.359	0.03
667.543	-0.03
667.728	-0.01
667.912	-0.05
668.096	0.03
668.281	-0.01
668.465	-0.02
668.649	-0.02
668.834	-0.02
669.018	-0.01
669.202	-0
669.387	-0.02
669.571	0.05
669.755	-0.08
669.939	0.02
670.124	-0.01
670.308	0.04
670.492	0.01
670.676	-0.03
670.86	0
671.044	-0
671.228	-0.01
671.413	-0.04
671.597	-0.04
671.781	-0.05
671.965	0.02
672.149	0.01
672.333	-0.02
672.517	-0.03
672.701	0.04
672.885	-0.03
673.069	-0.07
673.253	0.03
673.437	-0.07
673.621	-0.06
673.804	-0.02
673.988	-0.02
674.172	-0.02
674.356	-0.01
674.54	-0.02
674.724	0.09
674.908	-0.01
675.091	0.01
675.275	-0.02
675.459	0.06
675.643	0.04
675.826	-0.02
676.01	-0.03
676.194	-0.05
676.377	0.03
676.561	0.05
676.745	0.02
676.928	0.05
677.112	0.04
677.296	-0.05
677.479	-0.02
677.663	0.01
677.846	0.07
678.03	-0.03
678.213	-0.05
678.397	-0
678.58	0.01
678.764	-0.03
678.947	-0.04
679.131	-0.05
679.314	0.03
679.498	-0.01
679.681	0
679.865	0.07
680.048	0.01
680.231	-0.02
680.415	0
680.598	-0.01
680.781	-0.01
680.965	-0
681.148	-0.01
681.331	-0.07
681.514	0.03
681.698	-0.03
681.881	0.07
682.064	-0
682.247	-0.01
682.43	-0.05
682.614	0.02
682.797	0.03
682.98	0.02
683.163	-0.04
683.346	0.02
683.529	-0.09
683.712	-0.03
683.895	0.04
684.078	-0.08
684.261	-0.02
684.444	0.07
684.627	0.05
684.81	-0.01
684.993	-0.05
685.176	0
685.359	-0.04
685.542	-0.01
685.725	0.06
685.908	0.01
686.091	-0.03
686.274	0.03
686.457	0.01
686.639	0.01
686.822	0.03
687.005	0.02
687.188	0.02
687.371	0.09
687.553	-0.01
687.736	-0.01
687.919	0.08
688.102	0.08
688.284	-0.02
688.467	-0.03
688.65	-0.02
688.832	-0.02
689.015	-0
689.197	-0.05
689.38	0.11
689.563	0.07
689.745	-0.06
689.928	-0.02
690.11	0.02
690.293	-0
690.475	-0.04
690.658	0.02
690.84	-0.03
691.023	-0
691.205	-0.03
691.388	-0.01
691.57	0.06
691.752	0.03
691.935	-0.09
692.117	-0.08
692.3	0.02
692.482	-0.02
692.664	0.02
692.847	-0.02
693.029	0.1
693.211	-0.04
693.393	0.04
693.576	-0.05
693.758	0.02
693.94	-0.04
694.122	-0.02
694.304	-0.04
694.487	-0.02
694.669	0.1
694.851	-0.09
695.033	0
695.215	-0.06
695.397	-0.07
695.579	0.01
695.761	-0.03
695.943	-0.08
696.125	0.07
696.308	0.05
696.49	-0.1
696.671	0.1
696.853	-0
697.035	0.08
697.217	0.04
697.399	-0.01
697.581	-0.04
697.763	-0.04
697.945	-0.05
698.127	-0.03
698.309	0.09
698.491	0.03
698.672	0.01
698.854	0.03
699.036	0.04
699.218	-0.04
699.399	0.02
699.581	0.05
699.763	0.02
699.945	-0.03
700.126	-0.08
700.308	0.03
700.49	-0.04
700.671	-0.12
700.853	-0.06
701.035	-0.03
701.216	-0.01
701.398	-0.08
701.579	-0.04
701.761	0.08
701.943	-0.08
702.124	-0.11
702.306	-0.01
702.487	0.1
702.669	0
702.85	-0.05
703.031	-0.1
703.213	0.11
703.394	0.02
703.576	-0.07
703.757	0.07
703.938	0.09
704.12	0.2
704.301	0.01
704.483	-0.03
704.664	0.03
704.845	0.12
705.026	-0.01
705.208	-0.04
705.389	-0.04
705.57	0.03
705.751	0.01
705.933	0.01
706.114	0.09
706.295	-0
706.476	-0.09
706.657	0.07
706.838	0.01
707.02	0.06
707.201	-0.06
707.382	-0.03
707.563	0.06
707.744	-0.08
707.925	-0.06
708.106	-0.07
708.287	0.03
708.468	0.11
708.649	-0.08
708.83	0.02
709.011	-0.04
709.192	0.02
709.373	-0.07
709.554	-0.03
709.734	-0.04
709.915	-0.01
710.096	-0.01
710.277	-0.06
710.458	0.02
710.639	0.03
710.819	-0.17
711	0.02
711.181	0.05
711.362	0.08
711.542	-0.03
711.723	-0.03
711.904	0.06
712.085	-0.01
712.265	0.03
712.446	-0.04
712.627	-0.04
712.807	-0.02
712.988	-0
713.168	-0.11
713.349	0.11
713.53	-0.15
713.71	-0.06
713.891	-0.1
714.071	-0.04
714.252	-0.04
714.432	-0.04
714.613	-0.09
714.793	0
714.974	-0
715.154	0.06
715.334	0.01
715.515	0.12
715.695	-0.03
715.876	0.03
716.056	-0.08
716.236	-0.02
716.417	-0.03
716.597	-0.09
716.777	0.18
716.957	-0.08
717.138	0.02
717.318	-0.05
717.498	-0.08
717.678	0
717.859	0.03
718.039	0.01
718.219	-0.03
718.399	-0.04
718.579	-0.08
718.759	-0.14
718.939	0.01
719.12	0.01
719.3	0.02
719.48	-0.14
719.66	-0.17
719.84	0.16
720.02	0.02
720.2	-0.08
720.38	-0.02
720.56	0.1
720.74	-0.03
720.92	-0.02
721.1	0.03
721.279	0.17
721.459	0.05
721.639	-0.02
721.819	0.01
721.999	-0.03
722.179	0.09
722.359	-0.14
722.538	-0.02
722.718	-0.04
722.898	-0.02
723.078	-0.03
723.257	-0.01
723.437	-0.02
723.617	0.04
723.797	-0.08
723.976	-0.07
724.156	0.06
724.336	0.04
724.515	0.14
724.695	-0.17
724.874	-0
725.054	0.07
725.234	-0.06
725.413	0.14
725.593	-0.04
725.772	0.03
725.952	-0.03
726.131	-0.03
726.311	-0.01
726.49	-0.03
726.67	-0.14
726.849	-0.05
727.028	0.04
727.208	-0.05
727.387	-0
727.567	-0.13
727.746	0.04
727.925	-0.05
728.105	-0.13
728.284	-0
728.463	-0.08
728.643	-0.01
728.822	-0.09
729.001	-0.06
729.18	0.06
729.359	0.02
729.539	-0.02
729.718	-0.04
729.897	0.02
730.076	-0.03
730.255	-0.13
730.434	-0.03
730.614	-0
730.793	0.07
730.972	-0.07
731.151	-0.11
731.33	0.1
731.509	0.05
731.688	0.04
731.867	-0.02
732.046	-0.22
732.225	0.2
732.404	-0.13
732.583	-0.06
732.762	-0.09
732.941	0.05
733.12	0.12
733.298	-0.06
733.477	-0.01
733.656	-0.04
733.835	-0.07
734.014	0.01
734.193	-0.1
734.371	-0.07
734.55	0.07
734.729	-0.15
734.908	0.04
735.086	0.02
735.265	0.11
735.444	-0.12
735.623	-0.14
735.801	-0.11
735.98	-0.05
736.159	-0.04
736.337	0.1
736.516	0.01
736.694	0.05
736.873	-0.07
737.052	0.14
737.23	0.15
737.409	-0.16
737.587	0.15
737.766	-0.17
737.944	-0.12
738.123	0.08
738.301	0.06
738.479	-0.02
738.658	0
738.836	-0.15
739.015	0.06
739.193	0.04
739.371	-0.09
739.55	-0.13
739.728	-0.08
739.906	0.09
740.085	0.12
740.263	0.04
740.441	-0.16
740.62	0.12
740.798	0.1
740.976	-0.1
741.154	-0
741.332	0.15
741.511	-0.02
741.689	0.01
741.867	0.05
742.045	-0.03
742.223	-0
742.401	-0.18
742.579	-0.03
742.757	0.08
742.935	-0.12
743.114	-0.09
743.292	-0.03
743.47	-0.02
743.648	-0.08
743.826	-0.13
744.004	0.08
744.181	0.06
744.359	-0.03
744.537	0.01
744.715	-0.05
744.893	0.03
745.071	-0.11
745.249	-0.08
745.427	-0.04
745.605	0.04
745.782	0.1
745.96	-0.04
746.138	-0.04
746.316	0.12
746.493	-0.08
746.671	-0.04
746.849	-0.07
747.027	0.17
747.204	-0.15
747.382	0.02
747.56	-0.13
747.737	0.01
747.915	-0.05
748.093	0.04
748.27	-0.03
748.448	-0.03
748.625	-0.15
748.803	-0.08
748.98	-0.15
749.158	0.04
749.335	0.11
749.513	-0.04
749.69	-0.12
749.868	0.01
750.045	0.03
750.223	-0.11
750.4	-0.24
750.578	0.14
750.755	-0.06
750.932	-0.12
751.11	0.15
751.287	-0.07
751.464	0.15
751.642	-0.09
751.819	-0.05
751.996	0
752.173	-0.11
752.351	-0.19
752.528	-0.02
752.705	-0.01
752.882	0.02
753.06	-0.03
753.237	0.03
753.414	0.22
753.591	0.06
753.768	-0.04
753.945	-0.05
754.122	0
754.299	0.05
754.476	-0.05
754.654	0.02
754.831	0.09
755.008	0.08
755.185	-0.09
755.362	-0.08
755.539	0.08
755.716	-0.09
755.892	0.06
756.069	-0.08
756.246	0
756.423	-0.07
756.6	0.17
756.777	-0.12
756.954	0.06
757.131	-0
757.307	-0.13
757.484	-0.08
757.661	0.14
757.838	0.02
758.015	-0.12
758.191	0.01
758.368	-0.03
758.545	0.15
758.721	0.02
758.898	-0.16
759.075	0.05
759.251	0.1
759.428	-0.01
759.605	-0.16
759.781	-0.07
759.958	-0.05
760.134	-0.03
760.311	-0.04
760.488	0.14
760.664	-0.01
760.841	-0.07
761.017	-0.11
761.194	-0.06
761.37	0.11
761.547	-0.04
761.723	-0.06
761.899	0.13
762.076	-0.1
762.252	-0.12
762.429	-0.11
762.605	-0.02
762.781	0.01
762.958	0.14
763.134	-0.12
763.31	-0.08
763.486	0.21
763.663	-0.24
763.839	-0
764.015	-0.26
764.191	-0.13
764.368	0.01
764.544	-0.15
764.72	0.08
764.896	0.12
765.072	-0.01
765.248	-0.16
765.425	-0.02
765.601	-0.07
765.777	-0.01
765.953	-0.1
766.129	-0.05
766.305	-0.05
766.481	-0.02
766.657	0
766.833	0.24
767.009	-0.22
767.185	-0.01
767.361	0.04
767.537	-0.11
767.713	0.13
767.889	-0.11
768.065	-0.02
768.24	0.05
768.416	0.15
768.592	-0.01
768.768	0.05
768.944	0.09
769.12	-0.23
769.295	0.03
769.471	-0.12
769.647	0.01
769.823	0.19
769.998	-0.01
770.174	-0.08
770.35	0.32
770.525	0.16
770.701	-0.09
770.877	0.1
771.052	0.01
771.228	0.15
771.403	0.11
771.579	0.1
771.755	0.37
771.93	-0.02
772.106	-0.15
772.281	-0.29
772.457	0
772.632	-0.08
772.808	-0.2
772.983	-0.15
773.159	-0.27
773.334	0.15
773.509	-0.13
773.685	-0.15
773.86	0.22
774.036	0.13
774.211	-0.04
774.386	-0.03
774.562	-0.09
774.737	0.13
774.912	-0.16
775.087	0.04
775.263	0.07
775.438	0.1
775.613	-0.09
775.788	-0.06
775.964	-0.04
776.139	0.25
776.314	-0.05
776.489	-0.05
776.664	0.01
776.839	-0.21
777.014	0.22
777.19	0.1
777.365	0.08
777.54	0.23
777.715	-0.06
777.89	0.1
778.065	-0.08
778.24	-0.04
778.415	0.14
778.59	-0.24
778.765	0.06
778.94	-0.02
779.115	-0.04
779.289	-0.19
779.464	-0.17
779.639	-0.18
779.814	-0.26
779.989	-0.24
780.164	0.08
780.339	-0.05
780.513	-0.08
780.688	-0.15
780.863	-0.08
781.038	0.03
781.212	-0.07
781.387	0.05
781.562	0.11
781.737	0.04
781.911	0.31
782.086	-0.21
782.261	-0.01
782.435	0.17
782.61	0
782.784	-0.04
782.959	0.17
783.134	-0.16
783.308	-0.16
783.483	0.06
783.657	0.47
783.832	0.13
784.006	-0.35
784.181	0.14
784.355	0.25
784.53	0.21
784.704	-0.16
784.878	0.25
785.053	0.2
785.227	0.33
785.402	0.33
785.576	-0.2
785.75	0.05
785.925	-0.05
786.099	-0.04
786.273	0.04
786.448	0.11
786.622	0.22
786.796	-0.29
786.97	0.02
787.145	0.26
787.319	-0.13
787.493	-0.14
787.667	-0.09
787.841	0.21
788.015	0.19
788.19	-0.09
788.364	-0.04
788.538	0.24
788.712	0.22
788.886	0.03
789.06	0.22
789.234	0.16
789.408	-0.3
789.582	0.02
789.756	-0.17
789.93	-0.23
790.104	-0.01
790.278	-0.19
790.452	-0.14
790.626	0.05
790.8	-0
790.973	0.07
791.147	0.16
791.321	0.14
791.495	0.4
791.669	-0.04
791.843	0.13
792.016	0.23
792.19	0.29
792.364	-0.02
792.538	0.39
792.711	0.39
792.885	-0.1
793.059	-0.22
793.233	-0.44
793.406	0.22
793.58	-0.08
793.754	-0.07
793.927	-0.04
794.101	0.12
794.274	0.31
794.448	0.1
794.622	-0.1
794.795	0.39
794.969	-0.13
795.142	0.26
795.316	-0.13
795.489	-0.21
795.663	0.19
795.836	0.06
796.009	-0.03
796.183	0.5
796.356	0.16
796.53	-0.11
796.703	0.13
796.876	0.44
797.05	-0.08
797.223	-0.14
797.396	0.14
797.57	0.2
797.743	0.44
797.916	0.02
798.09	-0.2
798.263	0.12
798.436	0.04
798.609	-0.01
798.782	-0.05
798.956	-0.02
799.129	0.03
799.302	0.01
799.475	-0.37
799.648	-0.29
799.821	-0.16
799.994	0.04
800.167	-0.28
800.34	0.08
800.514	0.01
800.687	0.04
800.86	-0.12
801.033	0.14
801.206	0.06
801.379	-0.25
801.551	0.06
801.724	0.06
801.897	0.2
802.07	0.15
802.243	-0.68
802.416	-0.03
802.589	-0.03
802.762	0.14
802.935	-0.21
803.107	0.16
803.28	0.45
803.453	0.33
803.626	-0.3
803.798	-0.06
803.971	-0.05
804.144	0.14
804.317	0.21
804.489	0.43
804.662	0.15
804.835	-0.27
805.007	-0.1
805.18	0.59
805.353	-0.12
805.525	-0.19
805.698	-0.22
805.87	0.1
806.043	-0.11
806.215	-0.4
806.388	-0.26
806.56	0.03
806.733	0.37
806.905	0.08
807.078	-0.36
807.25	-0.13
807.423	0.17
807.595	-0.01
807.768	0.13
807.94	0.36
808.112	-0.21
808.285	-0.08
808.457	-0.24
808.629	0.09
808.802	0.28
808.974	-0.19
809.146	-0.01
809.318	-0.2
809.491	-0.01
809.663	0.44
809.835	-0.06
810.007	0.33
810.18	0
810.352	-0.63
810.524	-0.2
810.696	0.15
810.868	0.39
811.04	-0.12
811.212	0.12
811.384	0.61
811.556	-0.16
811.728	0.15
811.901	0.39
812.073	0.24
812.245	0.48
812.417	0.12
812.589	-0.3
812.76	-0.07
812.932	0.48
813.104	0.25
813.276	0.04
813.448	0.58
813.62	-0.07
813.792	0.09
813.964	-0.31
814.136	0.04
814.307	-0.22
814.479	-0.18
814.651	-0.22
814.823	0.35
814.995	0.16
815.166	-0.1
815.338	-0.16
815.51	-0.22
815.681	0.8
815.853	0.01
816.025	-0.21
816.196	0.27
816.368	-0.1
816.54	-0.38
816.711	0.03
816.883	0.38
817.054	0.97
817.226	-0.78
817.398	0.08
817.569	-0.21
817.741	0.02
817.912	-0.1
818.084	-0.18
818.255	0.08
818.426	-0.43
818.598	0.29
818.769	-0.33
818.941	0.47
819.112	0.38
819.283	0.06
819.455	-0.07
819.626	0.13
819.798	0.22
819.969	0.2
820.14	-0.01
820.311	-0.13
820.483	-0.13
820.654	-0.05
820.825	0.1
820.996	0.06
821.168	-0.45
821.339	-0.02
821.51	-0.72
821.681	0.15
821.852	0.11
822.023	-0.29
822.195	-0.57
822.366	0.58
822.537	-0.01
822.708	-0.13
822.879	-0.2
823.05	0.53
823.221	0.28
823.392	-0.06
823.563	0.5
823.734	-0.1
823.905	0.09
824.076	-0.64
824.247	-0.12
824.418	-0.16
824.589	0.2
824.759	0.11
824.93	-0.16
825.101	-0.43
825.272	0.14
825.443	0.53
825.614	-0.22
825.784	-0.94
825.955	0.95
826.126	0.52
826.297	0.23
826.467	0.76
826.638	0.13
826.809	-0.81
826.98	-0.33
827.15	0.2
827.321	-0.14
827.492	0.39
827.662	-0.07
827.833	1.09
828.003	0.9
828.174	-0.25
828.345	-0.61
828.515	0.61
828.686	-0.14
828.856	-0.14
829.027	-0.05
829.197	0.16
829.368	0.41
829.538	-0.58
829.709	0.3
829.879	-0.15
830.049	-0.34
830.22	-0.29
830.39	0.19
830.56	0.7
830.731	0.27
830.901	-0.3
831.072	0.19
831.242	0.1
831.412	-0.37
831.582	-0.3
831.753	-0.82
831.923	0.19
832.093	-0.63
832.263	-0.11
832.434	-0.66
832.604	0.12
832.774	0.24
832.944	0.1
833.114	-0.43
833.284	-0.01
833.454	-0.7
833.624	-0.16
833.795	0.15
833.965	0.67
834.135	0.39
834.305	-0.87
834.475	-0.5
834.645	-0.15
834.815	-0.14
834.985	-0.54
835.155	-0.43
835.325	-0.02
835.494	0.43
835.664	-0.2
835.834	-0.78
836.004	0.26
836.174	1.08
836.344	0.24
836.514	-1.03
836.684	-0.24
836.853	-0.27
837.023	0.36
837.193	-0.71
837.363	0.69
837.532	0.17
837.702	-0.62
837.872	-0.91
838.041	0.27
838.211	1.63
838.381	-0.56
838.55	-0.29
838.72	1.27
838.89	1.02
839.059	0.39
839.229	-1.1
839.398	1.8
839.568	0.07
839.738	0.16
839.907	0.39
840.077	0.85
840.246	-0.3
840.416	-0.84
840.585	-0.48
840.755	1.22
840.924	0.54
841.093	0.05
841.263	-0.67
841.432	0.73
841.602	-0.83
841.771	-0.16
841.94	-0.13
842.11	1.92
842.279	1.49
842.448	-0.77
842.617	-0.57
842.787	1.31
842.956	-0.59
843.125	0.31
843.294	0.45
843.464	0.92
843.633	0.36
843.802	-1.07
843.971	0.22
844.14	0.5
844.309	0.52
844.479	-0.01
844.648	-0.89
844.817	-1.05
844.986	0.26
845.155	-0.76
845.324	-0.19
845.493	0.12
845.662	-0.88
845.831	0.46
846	0.52
846.169	0
846.338	1.16
846.507	0.66
846.676	-0
846.844	-0.05
847.013	0.76
847.182	-0.27
847.351	-0.95
847.52	-0.05
847.689	0.44
847.858	-0.36
848.026	-0.48
848.195	-0.68
848.364	-1.02
848.533	-0.24
848.701	0.16
848.87	0.72
849.039	0.63
849.207	0.76
849.376	0.65
849.545	1.36
849.713	-0.56
849.882	-0.8
850.051	-0.36
850.219	0.33
850.388	1.01
850.556	-0.25
850.725	-0.24
850.893	0.58
851.062	-0.29
851.23	1
851.399	-0.86
851.567	0.09
851.736	-0.1
851.904	-1.43
852.073	-0.04
852.241	0.87
852.41	-0.83
852.578	-0.56
852.746	-0.63
852.915	0.52
853.083	0.11
853.251	-1.1
853.42	-0.15
853.588	0.37
853.756	1.66
853.924	-0.39
854.093	-0.24
854.261	-0.75
854.429	-1.14
854.597	0.58
854.765	-0.57
854.934	0.86
855.102	1.19
855.27	-0.27
855.438	0.31
855.606	1.07
855.774	1.5
855.942	-1.66
856.11	-2.16
856.278	0.4
856.446	0.74
856.614	0.24
856.782	-1.43
856.95	0.55
857.118	1.34
857.286	-0.61
857.454	-0.64
857.622	1.16
857.79	0.91
857.958	-0.91
858.126	-0.14
858.294	-2
858.462	-0.09
858.629	-0.61
858.797	-0.62
858.965	0.04
859.133	0.17
859.301	-0.61
859.468	-0.33
859.636	-0.26
859.804	1.61
859.971	0.68
860.139	-1.16
860.307	-0.04
860.474	-0.55
860.642	-1.14
860.81	-0.82
860.977	0.22
861.145	0.81
861.313	-0.09
861.48	-0.49
861.648	1.42
861.815	0.41
861.983	-1.68
862.15	-1.14
862.318	1.61
862.485	1.34
862.653	-0.02
862.82	-0.58
862.988	2.01
863.155	1.1
863.322	-1.84
863.49	-1.19
863.657	-0.58
863.824	0.95
863.992	1.47
864.159	1.28
864.326	1.72
864.494	-0.24
864.661	2.59
864.828	-0.95
864.996	1.71
865.163	1.16
865.33	-1.34
865.497	-2.87
865.664	-0.77
865.832	-1.79
865.999	-0.81
866.166	-1.16
866.333	-1.11
866.5	-2.69
866.667	-0.13
866.834	-1.21
867.001	2.39
867.168	-3.21
867.335	-0.76
867.502	-0.6
867.669	0.58
867.836	3.15
868.003	-0.02
868.17	1.45
868.337	-1.1
868.504	2.93
868.671	-2.22
868.838	-1.37
869.005	0.89
869.172	1.28
869.339	1.09
869.505	0.83
869.672	-0.91
869.839	1.83
870.006	1.58
870.173	-1.87
870.339	0.59
870.506	2.55
870.673	-1.84
870.84	1.84
871.006	-0.06
871.173	-1.59
871.34	0.81
871.506	-1.77
871.673	0.62
871.839	-0.53
872.006	-0.89
872.173	-1.23
872.339	0.52
872.506	0.85
872.672	-1.42
872.839	-2.06
873.005	1.31
873.172	5.34
873.338	-0.01
873.505	0.44
873.671	1.1
873.838	1.97
874.004	-2.1
874.171	-1.39
874.337	3
874.503	0.8
874.67	0.49
874.836	-1.17
875.002	2.79
875.169	1.15
875.335	-0.5
875.501	-1.15
875.668	1.26
875.834	-0.63
876	-0.54
876.166	0.99
876.332	3.17
876.499	2.25
876.665	-0.43
876.831	0.17
876.997	4.18
877.163	1.75
877.329	-1.6
877.495	1.14
877.662	2.92
877.828	0.92
877.994	-0.14
878.16	-3.08
878.326	-2.6
878.492	1.19
878.658	-2.99
878.824	0.99
878.99	-0.51
879.156	-0.03
879.322	1.17
879.487	-0.74
879.653	2.29
879.819	0.1
879.985	-2.58
880.151	1.5
880.317	1.69
880.483	-0.25
880.648	2.08
880.814	-2.6
880.98	1.66
881.146	-3.2
881.312	-1.47
881.477	-0.76
881.643	1.27
881.809	3
881.974	1.44
882.14	-1.96
882.306	0.8
882.471	4.62
882.637	-0.8
882.803	1.6
882.968	2.7
883.134	5.26
883.299	0.44
883.465	0.38
883.63	2.4
883.796	2.08
883.961	2.08
884.127	0.75
884.292	-3.07
884.458	-1.93
884.623	-1.93
