Data from Apollo_Calib_20240827__AbsoluteIrradiance__308__04-17-00-060.txt Node

Date: Wed Aug 28 04:17:00 BST 2024
User: biology
Spectrometer: FLMT08252
Trigger mode: 0
Integration Time (sec): 5.000000E-1
Scans to average: 5
Electric dark correction enabled: true
Nonlinearity correction enabled: false
Boxcar width: 0
XAxis mode: Wavelengths
Number of Pixels in Spectrum: 3648
>>>>>Begin Spectral Data<<<<<
179.588	-0
179.809	-0
180.03	-0
180.251	-0
180.473	-0
180.694	0
180.915	0
181.136	-0
181.357	0
181.578	-0
181.799	0
182.02	-0
182.241	0
182.462	-0
182.683	0
182.904	-0
183.125	-0
183.346	-0
183.567	0
183.788	-0
184.009	-0
184.23	0
184.451	0
184.672	-0
184.892	-0
185.113	0
185.334	0
185.555	-0
185.776	-0
185.996	0
186.217	0
186.438	-0
186.659	-0
186.879	0
187.1	-0
187.321	-0
187.541	-0
187.762	-0
187.983	-0
188.203	0
188.424	-0
188.644	-0
188.865	-0
189.086	-0
189.306	-0
189.527	-0
189.747	0
189.968	-0
190.188	0
190.409	-0
190.629	0
190.849	-0
191.07	-0
191.29	0
191.511	-0
191.731	-0
191.951	-0
192.172	-0
192.392	-0
192.612	-0
192.833	-0
193.053	-0
193.273	0
193.493	-0
193.714	-0
193.934	0
194.154	0
194.374	-0
194.594	-0
194.815	0
195.035	-0
195.255	0
195.475	-0
195.695	0
195.915	0
196.135	-0
196.355	0
196.575	0
196.795	0
197.015	-0
197.235	-0
197.455	-0
197.675	-0
197.895	-0
198.115	-0
198.335	0
198.555	-0
198.775	-0
198.995	-0
199.214	0
199.434	-0
199.654	-0
199.874	-0
200.094	0.46
200.313	-1.14
200.533	-0.65
200.753	-0.84
200.973	0.75
201.192	0.4
201.412	-1.42
201.632	-0.65
201.851	0.35
202.071	-0.91
202.291	-0.77
202.51	-1
202.73	-0.15
202.95	-0.54
203.169	-1.19
203.389	-0.52
203.608	-0.2
203.828	-0.64
204.047	-0.7
204.267	0.16
204.486	-0.22
204.706	-0.34
204.925	-0.3
205.145	-0.71
205.364	0.17
205.583	0.19
205.803	-0.4
206.022	-0.66
206.242	-0.24
206.461	0.07
206.68	-0.56
206.9	-0.2
207.119	0.3
207.338	0.56
207.557	-0.57
207.777	-0.54
207.996	-0.14
208.215	0.13
208.434	-0.36
208.654	-0.61
208.873	-0.1
209.092	0.31
209.311	-0.39
209.53	-0.29
209.749	-0.33
209.968	-0.29
210.187	-0.25
210.407	-0.46
210.626	0.02
210.845	0.16
211.064	-0.15
211.283	-0.59
211.502	-0
211.721	-0.31
211.94	-0.18
212.159	-0.01
212.377	-0.02
212.596	0.24
212.815	0.04
213.034	-0
213.253	0.04
213.472	0.15
213.691	-0.41
213.91	-0.5
214.128	-0.34
214.347	0.25
214.566	-0.65
214.785	-0.43
215.003	0.16
215.222	-0.01
215.441	-0.14
215.66	-0.51
215.878	-0.19
216.097	0.18
216.316	-0.35
216.534	-0.23
216.753	-0.07
216.972	-0.21
217.19	-0.08
217.409	-0.27
217.627	-0.24
217.846	-0.17
218.064	-0.02
218.283	-0.29
218.501	0.32
218.72	0.18
218.938	-0.27
219.157	-0.25
219.375	-0
219.594	-0.11
219.812	-0.32
220.031	-0.31
220.249	0.18
220.467	0.22
220.686	-0.4
220.904	-0.26
221.122	-0.5
221.341	0.13
221.559	-0.02
221.777	-0.2
221.995	-0.17
222.214	0.09
222.432	-0.18
222.65	-0.04
222.868	-0.04
223.086	0.11
223.305	0.24
223.523	-0.13
223.741	0.22
223.959	-0.39
224.177	-0.25
224.395	-0.17
224.613	0.01
224.831	0.13
225.049	-0.24
225.267	-0.21
225.485	0.02
225.703	-0.22
225.921	-0.16
226.139	-0.21
226.357	0.19
226.575	-0.01
226.793	-0.21
227.011	0.48
227.229	-0.12
227.447	0.13
227.665	-0.2
227.883	-0.37
228.1	-0.02
228.318	0
228.536	-0.22
228.754	-0.35
228.972	0.01
229.189	0.01
229.407	-0.23
229.625	-0.21
229.843	0.09
230.06	0.03
230.278	-0.28
230.496	-0.06
230.713	0.01
230.931	0.16
231.149	-0.17
231.366	-0.24
231.584	-0.08
231.801	0.09
232.019	-0.11
232.236	-0.21
232.454	-0.16
232.671	-0.1
232.889	-0.16
233.106	-0.15
233.324	-0.05
233.541	-0.18
233.759	-0.14
233.976	-0.11
234.194	-0.14
234.411	-0.03
234.628	-0.15
234.846	-0.1
235.063	-0.07
235.28	-0.06
235.498	-0.15
235.715	-0.21
235.932	0.11
236.149	-0.03
236.367	-0.18
236.584	-0.02
236.801	-0.12
237.018	-0.08
237.236	-0.03
237.453	-0.2
237.67	0
237.887	-0.11
238.104	-0.14
238.321	-0.21
238.538	-0.23
238.755	0.09
238.973	-0.22
239.19	-0.1
239.407	-0.01
239.624	-0.05
239.841	-0.13
240.058	-0.17
240.275	-0.01
240.492	-0.08
240.709	-0.11
240.925	-0.12
241.142	-0.07
241.359	-0.15
241.576	-0.17
241.793	-0.11
242.01	-0.09
242.227	0.06
242.444	0.02
242.66	-0.04
242.877	0.04
243.094	-0.11
243.311	-0
243.527	-0.02
243.744	0.03
243.961	0.02
244.178	-0.08
244.394	-0.07
244.611	-0.01
244.828	0.15
245.044	-0.23
245.261	-0.12
245.477	-0.06
245.694	0.04
245.911	-0.15
246.127	-0.05
246.344	0.08
246.56	-0.02
246.777	-0.1
246.993	-0.08
247.21	0.07
247.426	0.01
247.643	-0.12
247.859	-0.05
248.076	-0.08
248.292	0.14
248.508	-0.15
248.725	0.05
248.941	-0.05
249.157	0.1
249.374	-0.12
249.59	-0.02
249.806	-0.06
250.023	-0.02
250.239	-0.12
250.455	-0.17
250.671	-0.1
250.888	0.04
251.104	0.03
251.32	-0.11
251.536	-0.06
251.752	-0.18
251.969	-0.07
252.185	-0.01
252.401	0.18
252.617	0.02
252.833	-0.1
253.049	0.03
253.265	-0.07
253.481	-0.05
253.697	-0.12
253.913	-0.14
254.129	0
254.345	-0.03
254.561	-0.03
254.777	-0.11
254.993	-0.02
255.209	0.03
255.425	-0.07
255.641	-0.11
255.857	0.05
256.073	-0.05
256.288	-0.11
256.504	-0.13
256.72	0.01
256.936	0.11
257.152	-0.11
257.367	-0.08
257.583	-0.07
257.799	0
258.015	-0.07
258.23	-0.05
258.446	0.07
258.662	-0.07
258.877	-0.14
259.093	-0.11
259.309	0.02
259.524	-0.02
259.74	-0.01
259.955	-0.08
260.171	-0.05
260.387	-0.05
260.602	0.02
260.818	-0.02
261.033	-0.12
261.249	-0.07
261.464	-0.13
261.68	-0.11
261.895	0.06
262.11	0.03
262.326	-0.08
262.541	-0.16
262.757	-0.01
262.972	-0.01
263.187	-0.03
263.403	-0.04
263.618	0.07
263.833	-0.05
264.049	-0.1
264.264	-0.07
264.479	-0.02
264.694	0.1
264.91	-0.18
265.125	-0.05
265.34	0.08
265.555	0.09
265.77	0.01
265.986	-0.14
266.201	0.01
266.416	0.06
266.631	-0.09
266.846	-0.05
267.061	-0.01
267.276	0.03
267.491	-0.23
267.706	-0
267.921	0.01
268.136	-0.08
268.351	-0.04
268.566	-0.09
268.781	0.08
268.996	-0.04
269.211	-0.06
269.426	-0.09
269.641	-0.07
269.856	0.1
270.071	-0.07
270.285	-0.05
270.5	0.08
270.715	0.04
270.93	-0.05
271.145	0.05
271.359	0.09
271.574	-0.07
271.789	-0.03
272.004	-0.02
272.218	-0.05
272.433	0.02
272.648	-0.09
272.862	0.01
273.077	-0.06
273.292	-0.04
273.506	-0.1
273.721	-0.09
273.936	0.03
274.15	0.01
274.365	-0.04
274.579	0.03
274.794	0.04
275.008	0.06
275.223	-0.14
275.437	-0.03
275.652	0.06
275.866	0.03
276.081	-0.07
276.295	0.05
276.509	-0.01
276.724	-0.05
276.938	-0.03
277.153	0.01
277.367	-0
277.581	-0.07
277.796	-0.07
278.01	-0.12
278.224	0.08
278.438	0.1
278.653	-0.16
278.867	-0.06
279.081	-0.23
279.295	-0.09
279.51	-0
279.724	-0.1
279.938	0.01
280.152	0.03
280.366	-0.07
280.58	-0.03
280.794	0.05
281.008	0.01
281.222	-0
281.437	0.06
281.651	0.02
281.865	0.06
282.079	-0.01
282.293	-0.19
282.507	-0.09
282.721	-0.03
282.935	-0.07
283.148	-0.16
283.362	-0.07
283.576	-0.12
283.79	-0.04
284.004	-0.08
284.218	0.02
284.432	-0.09
284.646	-0.02
284.859	-0.04
285.073	-0.11
285.287	-0.02
285.501	-0.09
285.714	-0.1
285.928	-0.02
286.142	-0.03
286.356	-0.1
286.569	-0.04
286.783	0.08
286.997	0.02
287.21	-0.02
287.424	-0.01
287.637	-0.04
287.851	-0.07
288.065	-0.02
288.278	-0.02
288.492	-0.05
288.705	0.03
288.919	0.03
289.132	-0.1
289.346	0.03
289.559	-0.1
289.773	-0.12
289.986	-0.08
290.2	-0.01
290.413	0.04
290.626	-0.07
290.84	-0.05
291.053	0.01
291.267	0.04
291.48	-0.01
291.693	-0.04
291.906	-0.07
292.12	-0.05
292.333	-0.09
292.546	-0.03
292.76	0.05
292.973	-0.01
293.186	0.03
293.399	-0.05
293.612	0.02
293.826	-0
294.039	-0.02
294.252	-0.04
294.465	0.04
294.678	0.02
294.891	-0.02
295.104	-0.11
295.317	-0.04
295.53	-0.05
295.743	0.02
295.956	-0.01
296.169	0.07
296.382	0.02
296.595	-0.01
296.808	-0.09
297.021	0.03
297.234	0.03
297.447	-0.01
297.66	0.01
297.873	0.1
298.086	0.03
298.299	-0.02
298.511	-0.09
298.724	-0.04
298.937	-0.07
299.15	-0.09
299.363	-0.04
299.575	0.02
299.788	-0.01
300.001	-0.01
300.213	-0.04
300.426	-0.01
300.639	-0.06
300.852	-0.07
301.064	0.04
301.277	0.1
301.489	0.04
301.702	0.04
301.915	-0.03
302.127	0.01
302.34	-0.03
302.552	0.05
302.765	-0.05
302.977	0.04
303.19	0.01
303.402	-0.02
303.615	-0.05
303.827	-0.03
304.04	-0.05
304.252	0.03
304.464	-0.04
304.677	0.07
304.889	-0
305.102	-0.06
305.314	-0.05
305.526	0.04
305.739	0.02
305.951	-0.07
306.163	-0.02
306.375	0.09
306.588	-0.03
306.8	-0.04
307.012	-0.09
307.224	0.03
307.436	0.05
307.649	-0.11
307.861	-0
308.073	0.04
308.285	-0.03
308.497	-0.06
308.709	-0.04
308.921	-0.01
309.133	0.07
309.346	-0.03
309.558	-0.02
309.77	0.08
309.982	0.03
310.194	0.02
310.406	-0.04
310.617	0.02
310.829	-0.01
311.041	-0.03
311.253	-0.07
311.465	0.01
311.677	0.01
311.889	-0.03
312.101	-0.04
312.313	0.03
312.524	0.02
312.736	-0.03
312.948	-0.04
313.16	0.03
313.372	-0.01
313.583	-0.01
313.795	-0.01
314.007	-0.09
314.218	0.04
314.43	-0.04
314.642	-0.05
314.853	-0.07
315.065	0.04
315.277	-0.01
315.488	-0.02
315.7	0.04
315.912	0.04
316.123	-0.06
316.335	-0.02
316.546	0.1
316.758	0.02
316.969	-0.07
317.181	-0.01
317.392	-0
317.604	0.04
317.815	-0.03
318.026	-0.02
318.238	-0.04
318.449	0.04
318.661	-0.08
318.872	-0.08
319.083	-0.11
319.295	0.04
319.506	-0.06
319.717	-0.02
319.929	0.01
320.14	0.01
320.351	-0.02
320.562	-0.1
320.774	-0.03
320.985	-0.01
321.196	-0.07
321.407	-0.08
321.618	-0.02
321.829	-0.01
322.041	0.02
322.252	-0.02
322.463	0.04
322.674	0.03
322.885	-0.05
323.096	-0.06
323.307	-0.02
323.518	-0.01
323.729	-0.04
323.94	-0.06
324.151	-0.04
324.362	0.02
324.573	-0.01
324.784	-0.06
324.995	0.05
325.206	0.01
325.417	-0.04
325.628	-0.04
325.838	-0.02
326.049	-0.04
326.26	0.01
326.471	-0.09
326.682	0.03
326.892	-0.03
327.103	-0.07
327.314	-0.06
327.525	0.02
327.735	0.03
327.946	-0.02
328.157	-0.07
328.368	0.05
328.578	0.01
328.789	-0.01
328.999	-0.03
329.21	-0.07
329.421	0.03
329.631	-0.05
329.842	-0.07
330.052	-0.01
330.263	-0
330.473	0.01
330.684	-0
330.894	-0.05
331.105	-0.03
331.315	-0.05
331.526	-0.09
331.736	0.05
331.947	0.02
332.157	-0.01
332.367	-0.07
332.578	0.03
332.788	0.05
332.999	-0.01
333.209	-0.04
333.419	-0.03
333.629	0.04
333.84	-0.02
334.05	-0.05
334.26	0.06
334.47	0.02
334.681	0.05
334.891	-0.05
335.101	-0
335.311	0.07
335.521	-0.02
335.732	-0.06
335.942	0.06
336.152	-0
336.362	-0
336.572	-0.03
336.782	0.03
336.992	-0.05
337.202	-0.05
337.412	-0.05
337.622	0.01
337.832	-0.01
338.042	0
338.252	-0.08
338.462	-0.02
338.672	-0.02
338.882	-0.02
339.092	0
339.302	0.11
339.511	0.04
339.721	-0.08
339.931	-0.1
340.141	0.07
340.351	0.04
340.561	0.01
340.77	0
340.98	-0.04
341.19	-0.01
341.4	-0.05
341.609	-0.12
341.819	-0.02
342.029	-0.1
342.238	0.01
342.448	-0
342.658	0.01
342.867	0.01
343.077	-0.01
343.286	-0.03
343.496	0
343.706	0.01
343.915	-0.06
344.125	-0.02
344.334	-0.03
344.544	-0.06
344.753	-0.02
344.963	-0.07
345.172	-0.03
345.381	-0.04
345.591	-0.05
345.8	-0.05
346.01	0.04
346.219	0.03
346.428	-0.17
346.638	-0.05
346.847	-0.02
347.056	-0.01
347.266	-0.08
347.475	-0.02
347.684	0.02
347.893	0.03
348.103	0
348.312	-0.04
348.521	-0.02
348.73	-0.02
348.94	-0.02
349.149	-0.04
349.358	-0.05
349.567	-0.06
349.776	-0.05
349.985	-0.05
350.194	0.01
350.403	0.06
350.612	-0.06
350.821	-0.05
351.03	-0.01
351.239	-0.11
351.448	-0.02
351.657	-0.04
351.866	0.05
352.075	-0.04
352.284	0.05
352.493	-0.08
352.702	0.02
352.911	-0.01
353.12	-0
353.329	-0.04
353.538	0.04
353.746	-0
353.955	-0.03
354.164	-0.01
354.373	-0.01
354.582	0.05
354.79	-0.01
354.999	0.03
355.208	-0.02
355.416	0.06
355.625	-0.08
355.834	-0.1
356.042	-0.01
356.251	-0.09
356.46	-0.06
356.668	0
356.877	0.07
357.085	0.05
357.294	-0.11
357.503	-0.01
357.711	-0
357.92	0.11
358.128	-0.03
358.337	-0.04
358.545	0
358.754	0.02
358.962	0.04
359.17	-0.07
359.379	-0.02
359.587	-0.03
359.796	-0.03
360.004	0.04
360.212	-0.01
360.421	0.03
360.629	-0.02
360.837	-0.06
361.046	0.03
361.254	0.07
361.462	-0.02
361.67	-0.04
361.879	-0.01
362.087	0.07
362.295	-0.02
362.503	-0.05
362.711	-0.06
362.92	-0.06
363.128	-0.04
363.336	-0.06
363.544	-0.07
363.752	-0.04
363.96	-0.06
364.168	-0.05
364.376	0.02
364.584	-0.01
364.792	0.03
365	0.01
365.208	-0.03
365.416	0.05
365.624	0.04
365.832	-0.05
366.04	0.03
366.248	0.01
366.456	-0.03
366.664	-0.01
366.872	-0.03
367.079	0.01
367.287	-0.03
367.495	-0.03
367.703	0
367.911	-0.04
368.118	0.01
368.326	-0.01
368.534	-0.06
368.742	0.05
368.949	-0.1
369.157	-0.08
369.365	0.03
369.572	0
369.78	-0.07
369.988	0.01
370.195	0.02
370.403	0.04
370.61	-0.04
370.818	-0.02
371.026	0.06
371.233	-0.05
371.441	-0.04
371.648	-0.07
371.856	-0.01
372.063	-0
372.271	-0.04
372.478	-0.05
372.685	-0.02
372.893	0.03
373.1	-0.03
373.308	-0.02
373.515	0.06
373.722	0
373.93	-0.06
374.137	0.04
374.344	0.08
374.552	0.05
374.759	0.03
374.966	-0.02
375.173	-0.02
375.381	0.01
375.588	-0.07
375.795	-0.14
376.002	-0.06
376.209	-0.05
376.417	0.02
376.624	0.03
376.831	0.03
377.038	-0
377.245	-0.05
377.452	-0.06
377.659	-0.04
377.866	-0.03
378.073	-0.08
378.28	-0.02
378.487	0.01
378.694	-0
378.901	-0.03
379.108	-0.06
379.315	0.02
379.522	0.08
379.729	-0.03
379.936	-0.02
380.143	-0.03
380.35	-0.01
380.557	-0.02
380.763	0.01
380.97	-0.01
381.177	-0.03
381.384	0.03
381.591	-0.04
381.797	-0.03
382.004	0
382.211	0.03
382.418	-0.03
382.624	0.03
382.831	0
383.038	-0.04
383.244	-0.03
383.451	-0.02
383.658	0.01
383.864	-0.02
384.071	-0.05
384.277	0.04
384.484	-0.03
384.69	0.07
384.897	-0.09
385.103	-0.04
385.31	-0.04
385.516	-0.03
385.723	-0.03
385.929	0.01
386.136	-0.06
386.342	-0.01
386.549	-0.01
386.755	0.02
386.961	0.02
387.168	-0.09
387.374	-0.05
387.58	0
387.787	-0
387.993	-0.01
388.199	-0.07
388.406	-0.04
388.612	-0.02
388.818	-0.06
389.024	-0.03
389.231	-0.01
389.437	0.03
389.643	0.03
389.849	-0.02
390.055	-0.01
390.261	0.04
390.467	-0.04
390.674	-0.06
390.88	-0.02
391.086	0.02
391.292	-0.08
391.498	-0
391.704	-0
391.91	-0.02
392.116	-0.01
392.322	-0.13
392.528	0.01
392.734	-0.03
392.94	-0.01
393.146	-0.04
393.352	-0.01
393.557	-0.05
393.763	-0.06
393.969	0.03
394.175	-0.05
394.381	-0.01
394.587	-0.05
394.792	-0.06
394.998	0.02
395.204	0.06
395.41	-0.04
395.615	0.01
395.821	0.02
396.027	0.01
396.233	-0.07
396.438	0.03
396.644	0.08
396.85	-0
397.055	-0.03
397.261	-0.02
397.466	0.01
397.672	-0.03
397.878	0.06
398.083	-0.04
398.289	-0.05
398.494	0.04
398.7	0.01
398.905	-0.07
399.111	0.05
399.316	-0.09
399.522	-0.05
399.727	-0.01
399.932	-0.01
400.138	-0.02
400.343	0.04
400.549	0.02
400.754	0
400.959	-0.01
401.165	-0.05
401.37	-0.02
401.575	0.06
401.78	-0.01
401.986	-0.05
402.191	0.01
402.396	-0.02
402.601	-0.04
402.807	-0.02
403.012	-0.03
403.217	0.02
403.422	-0.01
403.627	-0.06
403.832	-0.06
404.037	0.01
404.243	0.03
404.448	-0.06
404.653	-0.04
404.858	-0.01
405.063	0.03
405.268	-0.04
405.473	-0.06
405.678	-0.05
405.883	0.12
406.088	0.08
406.293	-0.03
406.498	-0.03
406.703	0.01
406.907	-0.01
407.112	-0.06
407.317	-0.02
407.522	0.01
407.727	-0.06
407.932	-0.05
408.136	0.05
408.341	-0.03
408.546	-0.02
408.751	0
408.956	-0.04
409.16	0.02
409.365	-0.01
409.57	-0.03
409.774	-0.01
409.979	0.05
410.184	0.02
410.388	-0.08
410.593	-0
410.798	-0
411.002	-0.04
411.207	-0.01
411.411	0.01
411.616	-0.02
411.82	-0.02
412.025	0.04
412.229	-0.05
412.434	0.06
412.638	-0.04
412.843	-0.01
413.047	0.01
413.252	-0.03
413.456	-0.01
413.66	0.01
413.865	-0.05
414.069	0.02
414.273	-0.02
414.478	-0
414.682	0.01
414.886	-0.03
415.091	-0.09
415.295	-0.1
415.499	0.03
415.703	-0
415.908	0.03
416.112	-0.07
416.316	-0.01
416.52	-0.04
416.724	-0.09
416.929	-0.03
417.133	0.1
417.337	-0.02
417.541	-0.04
417.745	-0
417.949	0.03
418.153	-0.02
418.357	-0.03
418.561	0.12
418.765	-0
418.969	0.11
419.173	0.09
419.377	-0.02
419.581	0.09
419.785	0.02
419.989	-0.03
420.193	-0.02
420.397	-0
420.601	0.07
420.804	0.05
421.008	0.05
421.212	0.01
421.416	0.08
421.62	-0.01
421.823	-0.05
422.027	0.1
422.231	0.01
422.435	0.08
422.638	0.05
422.842	0.06
423.046	-0.05
423.249	0.06
423.453	0.09
423.657	0.08
423.86	0.04
424.064	0.05
424.268	0.13
424.471	0.05
424.675	0.09
424.878	0.07
425.082	0.06
425.285	0.12
425.489	0.09
425.692	0.05
425.896	0.01
426.099	0.09
426.303	0.04
426.506	0.07
426.71	0.1
426.913	0.14
427.116	0.15
427.32	0.04
427.523	0.09
427.726	0.23
427.93	0.04
428.133	0.11
428.336	0.1
428.54	0.07
428.743	0.14
428.946	0.15
429.149	0.11
429.353	0.14
429.556	0.06
429.759	0.14
429.962	0.1
430.165	0.17
430.368	0.18
430.571	0.06
430.775	0.16
430.978	0.13
431.181	0.19
431.384	0.15
431.587	0.18
431.79	0.13
431.993	0.16
432.196	0.16
432.399	0.13
432.602	0.21
432.805	0.16
433.008	0.16
433.211	0.11
433.414	0.22
433.616	0.2
433.819	0.2
434.022	0.11
434.225	0.26
434.428	0.25
434.631	0.32
434.833	0.19
435.036	0.2
435.239	0.26
435.442	0.27
435.645	0.19
435.847	0.26
436.05	0.3
436.253	0.26
436.455	0.19
436.658	0.31
436.861	0.34
437.063	0.25
437.266	0.24
437.468	0.3
437.671	0.44
437.874	0.35
438.076	0.25
438.279	0.26
438.481	0.31
438.684	0.35
438.886	0.41
439.089	0.24
439.291	0.42
439.494	0.39
439.696	0.34
439.899	0.41
440.101	0.43
440.303	0.34
440.506	0.53
440.708	0.47
440.91	0.51
441.113	0.42
441.315	0.53
441.517	0.44
441.72	0.65
441.922	0.5
442.124	0.56
442.326	0.63
442.529	0.68
442.731	0.51
442.933	0.75
443.135	0.62
443.337	0.64
443.539	0.67
443.742	0.64
443.944	0.73
444.146	0.68
444.348	0.69
444.55	0.67
444.752	0.78
444.954	0.73
445.156	0.75
445.358	0.77
445.56	0.85
445.762	0.82
445.964	0.87
446.166	0.77
446.368	0.8
446.57	0.91
446.772	0.76
446.974	0.84
447.175	0.89
447.377	0.81
447.579	0.91
447.781	0.81
447.983	0.96
448.184	0.87
448.386	0.96
448.588	0.82
448.79	0.93
448.991	0.84
449.193	0.87
449.395	0.84
449.597	0.93
449.798	0.89
450	0.87
450.202	0.86
450.403	0.86
450.605	0.89
450.806	0.8
451.008	0.67
451.21	0.81
451.411	0.74
451.613	0.72
451.814	0.75
452.016	0.75
452.217	0.72
452.419	0.76
452.62	0.68
452.821	0.67
453.023	0.74
453.224	0.72
453.426	0.65
453.627	0.55
453.828	0.61
454.03	0.54
454.231	0.6
454.432	0.51
454.634	0.68
454.835	0.45
455.036	0.46
455.238	0.56
455.439	0.51
455.64	0.37
455.841	0.38
456.042	0.52
456.244	0.46
456.445	0.34
456.646	0.33
456.847	0.36
457.048	0.39
457.249	0.46
457.45	0.58
457.651	0.31
457.852	0.35
458.054	0.33
458.255	0.26
458.456	0.33
458.657	0.3
458.858	0.23
459.058	0.27
459.259	0.35
459.46	0.26
459.661	0.24
459.862	0.41
460.063	0.3
460.264	0.31
460.465	0.16
460.666	0.35
460.866	0.19
461.067	0.19
461.268	0.21
461.469	0.19
461.67	0.19
461.87	0.19
462.071	0.19
462.272	0.15
462.473	0.17
462.673	0.26
462.874	0.1
463.075	0.21
463.275	0.15
463.476	0.2
463.676	0.25
463.877	0.17
464.078	0.15
464.278	0.26
464.479	0.14
464.679	0.19
464.88	0.13
465.08	0.23
465.281	0.08
465.481	0.12
465.682	0.14
465.882	0.21
466.083	0.15
466.283	0.15
466.483	0.12
466.684	0.04
466.884	0.06
467.085	0.09
467.285	0.2
467.485	0.08
467.686	0.13
467.886	0.05
468.086	0.09
468.286	0.11
468.487	0.14
468.687	0.02
468.887	0.08
469.087	0.12
469.287	0.09
469.488	0
469.688	0.12
469.888	0.12
470.088	0.09
470.288	0.11
470.488	0.11
470.688	0.05
470.888	0.04
471.088	0.02
471.288	0.11
471.488	0.11
471.688	0.06
471.888	0.02
472.088	0.14
472.288	0.07
472.488	0
472.688	0.02
472.888	0.07
473.088	0.01
473.288	0.09
473.488	-0.01
473.688	0.14
473.887	0.02
474.087	0.01
474.287	0.02
474.487	0.01
474.687	0.05
474.886	-0.01
475.086	0.02
475.286	0.06
475.486	0.06
475.685	-0.01
475.885	0.03
476.085	0.01
476.284	0.07
476.484	-0.01
476.684	0.04
476.883	0.1
477.083	0.04
477.282	0
477.482	0.07
477.681	0.09
477.881	0.02
478.08	-0.02
478.28	-0.02
478.479	0.02
478.679	0.14
478.878	-0.01
479.078	0
479.277	0.02
479.477	0.02
479.676	0.06
479.875	0.02
480.075	-0.06
480.274	0.05
480.473	0.04
480.673	-0.01
480.872	0.07
481.071	0.02
481.271	0.01
481.47	0.01
481.669	-0.01
481.868	0
482.067	-0.04
482.267	-0.03
482.466	-0.01
482.665	-0.04
482.864	-0.07
483.063	-0.04
483.262	0.04
483.461	0.08
483.661	0.02
483.86	0.03
484.059	0.04
484.258	0.02
484.457	-0
484.656	-0
484.855	0.05
485.054	-0.04
485.253	-0.03
485.452	-0.04
485.651	-0
485.849	0.01
486.048	-0.01
486.247	-0.04
486.446	-0
486.645	-0.03
486.844	-0.02
487.043	0
487.241	0.04
487.44	-0.04
487.639	-0.02
487.838	0.05
488.037	0.02
488.235	0.04
488.434	0.01
488.633	-0.01
488.831	-0.02
489.03	0.03
489.229	0.03
489.427	-0.02
489.626	0.04
489.825	0.04
490.023	-0
490.222	-0.04
490.42	0.01
490.619	0.02
490.817	0.01
491.016	-0.02
491.214	0.01
491.413	-0.01
491.611	-0.02
491.81	-0
492.008	0.04
492.207	0.03
492.405	0
492.604	-0.06
492.802	-0.01
493	-0
493.199	-0.05
493.397	-0
493.595	-0.02
493.794	-0.03
493.992	0.04
494.19	-0.03
494.388	0
494.587	-0.02
494.785	0
494.983	-0.03
495.181	0.01
495.379	-0.01
495.578	-0.02
495.776	0.02
495.974	0
496.172	-0.03
496.37	-0.03
496.568	-0.04
496.766	-0.03
496.964	0.03
497.162	-0.02
497.36	-0.02
497.558	0.01
497.756	0.01
497.954	-0.02
498.152	-0.05
498.35	-0.01
498.548	-0.02
498.746	0.01
498.944	-0.04
499.142	-0.03
499.34	-0.04
499.538	-0.03
499.736	-0.03
499.933	0.04
500.131	0.02
500.329	0
500.527	0.03
500.725	0.02
500.922	0.02
501.12	0
501.318	0.01
501.516	-0
501.713	0
501.911	-0
502.109	-0.03
502.306	-0.02
502.504	-0.03
502.701	-0.04
502.899	0
503.097	0.03
503.294	-0.01
503.492	-0.01
503.689	0
503.887	0.01
504.084	0.04
504.282	-0.02
504.479	-0.03
504.677	-0.01
504.874	-0.04
505.072	-0.01
505.269	-0.03
505.466	0
505.664	0.01
505.861	-0.07
506.059	-0.02
506.256	-0
506.453	-0.01
506.651	0.02
506.848	0.01
507.045	0.02
507.242	0.02
507.44	-0.04
507.637	-0.01
507.834	-0.02
508.031	0.02
508.229	-0.04
508.426	-0
508.623	-0.01
508.82	-0
509.017	-0.02
509.214	-0.01
509.411	-0.01
509.608	-0.01
509.805	-0
510.003	-0.02
510.2	-0.03
510.397	0.03
510.594	-0.03
510.791	-0.05
510.988	-0.02
511.184	0
511.381	-0
511.578	-0
511.775	0.03
511.972	-0.03
512.169	-0.02
512.366	-0.01
512.563	-0
512.76	-0.03
512.956	0.01
513.153	-0.01
513.35	-0.02
513.547	-0.06
513.744	-0.04
513.94	-0.02
514.137	0
514.334	-0
514.53	-0.01
514.727	-0.03
514.924	0.06
515.12	-0.02
515.317	-0.02
515.514	-0.04
515.71	-0.03
515.907	-0.02
516.103	-0.02
516.3	0.01
516.497	0.01
516.693	0.03
516.89	-0.01
517.086	-0.03
517.283	0.02
517.479	-0.01
517.676	-0.02
517.872	-0.02
518.068	-0.02
518.265	-0.02
518.461	-0.02
518.658	-0.05
518.854	-0.01
519.05	-0.01
519.247	-0.03
519.443	0
519.639	0.01
519.836	0
520.032	-0.02
520.228	-0.01
520.424	0.04
520.621	-0
520.817	-0.02
521.013	0.02
521.209	-0.01
521.405	0.04
521.601	0.01
521.798	-0.02
521.994	0.04
522.19	-0.01
522.386	-0.03
522.582	0.01
522.778	-0.01
522.974	-0.02
523.17	0
523.366	-0
523.562	0.02
523.758	-0.01
523.954	-0.05
524.15	-0.01
524.346	0.01
524.542	-0.02
524.738	-0.03
524.934	-0.01
525.129	-0.08
525.325	0.01
525.521	-0.01
525.717	0.02
525.913	-0
526.109	-0.01
526.304	-0
526.5	0
526.696	0.02
526.892	-0.02
527.087	-0.01
527.283	-0.04
527.479	0.03
527.674	-0.03
527.87	0
528.066	-0.02
528.261	0.02
528.457	-0.02
528.653	-0.03
528.848	-0.02
529.044	-0
529.239	-0.02
529.435	0.04
529.63	0.02
529.826	0.04
530.021	-0.01
530.217	0.01
530.412	-0.01
530.608	-0.02
530.803	-0.01
530.999	-0.03
531.194	-0.04
531.389	-0.01
531.585	-0.07
531.78	-0.02
531.975	-0.02
532.171	0
532.366	-0.01
532.561	-0.01
532.757	-0.03
532.952	-0.05
533.147	0.01
533.342	0.02
533.538	-0.02
533.733	0.03
533.928	-0.02
534.123	-0.03
534.318	-0.05
534.513	-0.03
534.709	-0
534.904	-0
535.099	-0.04
535.294	0.01
535.489	-0
535.684	-0.01
535.879	-0.02
536.074	-0.02
536.269	-0.03
536.464	0.01
536.659	-0.02
536.854	-0.02
537.049	-0.01
537.244	0.01
537.439	-0.03
537.634	0.01
537.828	0
538.023	-0.02
538.218	-0.05
538.413	-0.02
538.608	-0.02
538.803	-0.01
538.997	-0.05
539.192	0.01
539.387	0.01
539.582	0.01
539.776	-0
539.971	-0.04
540.166	-0.01
540.36	-0.04
540.555	-0.01
540.75	-0.03
540.944	0.01
541.139	-0.04
541.334	-0.05
541.528	0.02
541.723	0.02
541.917	-0.03
542.112	-0.04
542.306	-0.01
542.501	-0.01
542.695	0.01
542.89	-0.05
543.084	0.01
543.279	-0.03
543.473	-0.02
543.668	-0.02
543.862	-0.02
544.056	0.03
544.251	-0.01
544.445	-0.03
544.64	-0
544.834	-0.02
545.028	-0
545.222	0.01
545.417	0.02
545.611	-0.01
545.805	-0.01
546	-0.02
546.194	-0
546.388	-0.03
546.582	-0
546.776	-0.01
546.97	-0.02
547.165	-0.01
547.359	0
547.553	-0.04
547.747	-0
547.941	0.02
548.135	0
548.329	0.02
548.523	0.02
548.717	-0.02
548.911	-0.03
549.105	-0
549.299	0
549.493	-0.01
549.687	-0
549.881	-0
550.075	-0.01
550.269	-0.05
550.463	0
550.657	-0.03
550.85	-0.03
551.044	-0.03
551.238	-0
551.432	-0.03
551.626	-0.02
551.82	0.01
552.013	-0.03
552.207	-0.02
552.401	-0
552.594	0
552.788	-0.02
552.982	-0.02
553.176	-0.02
553.369	0
553.563	0.01
553.756	-0.04
553.95	-0.05
554.144	-0.01
554.337	0.01
554.531	0.01
554.724	-0.01
554.918	-0.01
555.111	0
555.305	-0.02
555.498	0.03
555.692	0.01
555.885	-0.01
556.079	0.01
556.272	-0.03
556.466	0.02
556.659	-0.01
556.852	-0.02
557.046	-0.02
557.239	0.03
557.432	-0.04
557.626	-0.04
557.819	-0
558.012	0.02
558.206	0.01
558.399	-0.01
558.592	-0
558.785	-0.04
558.979	0.01
559.172	-0
559.365	0.01
559.558	-0.02
559.751	-0.02
559.944	-0.03
560.138	-0.02
560.331	-0
560.524	-0.03
560.717	-0.02
560.91	-0.03
561.103	0.01
561.296	-0.01
561.489	-0.02
561.682	-0.01
561.875	0.01
562.068	0.01
562.261	0.01
562.454	0.03
562.647	0.02
562.84	-0
563.032	-0.01
563.225	-0
563.418	-0.03
563.611	-0.04
563.804	-0
563.997	-0.05
564.19	-0.03
564.382	-0
564.575	-0.03
564.768	0
564.961	-0.01
565.153	-0.02
565.346	-0.03
565.539	0.01
565.731	0.02
565.924	0.03
566.117	0
566.309	0
566.502	-0.02
566.695	-0.01
566.887	-0.01
567.08	-0.03
567.272	-0.02
567.465	-0.03
567.657	-0.02
567.85	0.02
568.042	0.03
568.235	0.01
568.427	-0.03
568.62	-0.03
568.812	-0
569.005	-0
569.197	-0.06
569.389	-0.01
569.582	0
569.774	-0
569.966	-0.03
570.159	-0.05
570.351	-0
570.543	-0.05
570.736	-0.03
570.928	-0.02
571.12	-0
571.312	-0.04
571.505	-0.06
571.697	0.02
571.889	-0.03
572.081	-0.02
572.273	-0.07
572.465	0.02
572.658	-0.02
572.85	-0
573.042	-0.04
573.234	-0.01
573.426	0.04
573.618	-0.03
573.81	-0.02
574.002	0.02
574.194	0.03
574.386	-0.06
574.578	-0.1
574.77	-0.05
574.962	-0.03
575.154	-0.04
575.346	-0.02
575.538	-0.01
575.729	-0.05
575.921	-0.05
576.113	-0.02
576.305	0.02
576.497	-0.02
576.689	-0.05
576.88	-0.03
577.072	0.02
577.264	-0.03
577.456	-0.01
577.647	-0.09
577.839	-0.02
578.031	0.01
578.223	-0.04
578.414	-0.03
578.606	-0
578.798	0.01
578.989	-0.05
579.181	-0.02
579.372	-0.03
579.564	-0.04
579.755	-0.02
579.947	-0.01
580.139	0.01
580.33	-0.05
580.522	-0.04
580.713	-0.08
580.905	-0.01
581.096	-0
581.287	-0.02
581.479	-0.01
581.67	0
581.862	-0.01
582.053	-0.04
582.244	-0.08
582.436	0
582.627	-0.03
582.818	-0.01
583.01	-0.05
583.201	0.02
583.392	0.01
583.583	-0.01
583.775	-0.06
583.966	-0.02
584.157	-0.04
584.348	-0.03
584.54	-0.06
584.731	0.01
584.922	-0.03
585.113	-0.03
585.304	-0.01
585.495	0.03
585.686	-0
585.877	-0.01
586.068	0
586.259	-0.01
586.45	-0.02
586.641	-0.04
586.832	-0.07
587.023	-0.01
587.214	-0.03
587.405	-0.01
587.596	-0.03
587.787	0.03
587.978	-0.01
588.169	-0.04
588.36	-0.04
588.551	-0.01
588.742	-0.04
588.932	0.02
589.123	-0.01
589.314	0.02
589.505	0
589.696	0
589.886	-0.05
590.077	-0.06
590.268	-0
590.458	-0.07
590.649	-0.06
590.84	0.04
591.03	-0.04
591.221	-0.07
591.412	-0.05
591.602	0.01
591.793	0.01
591.984	-0.02
592.174	-0.02
592.365	0.06
592.555	-0.04
592.746	0.01
592.936	-0.02
593.127	0
593.317	0.01
593.508	-0.03
593.698	-0
593.889	-0.01
594.079	-0.02
594.269	-0.04
594.46	0
594.65	-0.03
594.84	-0.02
595.031	-0.05
595.221	-0.05
595.411	-0.07
595.602	0.01
595.792	-0.01
595.982	-0.06
596.172	0.03
596.363	0.02
596.553	-0.01
596.743	-0.02
596.933	-0.04
597.123	0.04
597.314	-0.04
597.504	-0.08
597.694	0.02
597.884	-0.02
598.074	-0.04
598.264	-0.05
598.454	0.01
598.644	-0.03
598.834	-0.01
599.024	-0.06
599.214	-0.01
599.404	0.01
599.594	-0.02
599.784	-0.05
599.974	0.06
600.164	0.01
600.354	-0.06
600.544	-0.06
600.734	-0
600.924	0.03
601.114	-0.05
601.303	-0
601.493	-0.03
601.683	-0.04
601.873	-0.01
602.063	-0.08
602.252	0.02
602.442	-0.07
602.632	-0.05
602.821	-0.06
603.011	0.02
603.201	-0.03
603.39	-0.03
603.58	-0.06
603.77	-0.02
603.959	0.04
604.149	0
604.339	-0.03
604.528	0.03
604.718	0.01
604.907	-0.02
605.097	-0.03
605.286	-0.05
605.476	0.02
605.665	0.01
605.855	-0.01
606.044	0.02
606.234	-0.01
606.423	-0.01
606.612	-0.06
606.802	-0.01
606.991	-0.01
607.181	-0.03
607.37	-0.07
607.559	-0.03
607.749	-0.06
607.938	-0.01
608.127	-0.02
608.316	-0.04
608.506	0
608.695	-0.02
608.884	-0.03
609.073	-0.02
609.263	0.02
609.452	0
609.641	-0.02
609.83	-0.04
610.019	-0
610.208	-0.03
610.397	-0.01
610.586	0
610.775	-0.05
610.965	-0.02
611.154	-0.04
611.343	-0.02
611.532	-0.05
611.721	-0.04
611.91	-0.03
612.099	0.01
612.287	-0.03
612.476	-0.06
612.665	-0.02
612.854	-0.05
613.043	0.01
613.232	-0.02
613.421	-0.08
613.61	-0.03
613.798	-0.05
613.987	0.03
614.176	-0.03
614.365	-0.01
614.554	-0.03
614.742	0.02
614.931	-0.03
615.12	0
615.309	-0.01
615.497	0.01
615.686	-0.03
615.875	-0.01
616.063	0.01
616.252	-0.01
616.44	-0.03
616.629	-0.02
616.818	0.01
617.006	-0.04
617.195	-0.05
617.383	0
617.572	-0.01
617.76	-0.02
617.949	-0.04
618.137	-0.05
618.326	0.02
618.514	-0.02
618.703	-0.05
618.891	0.04
619.079	-0.07
619.268	0.01
619.456	-0.06
619.644	0.02
619.833	-0.06
620.021	-0.03
620.209	-0.08
620.398	-0.01
620.586	-0.03
620.774	0
620.962	-0.02
621.151	0.03
621.339	-0.04
621.527	-0.07
621.715	-0.07
621.903	-0.06
622.092	-0.07
622.28	0.01
622.468	-0.05
622.656	-0.03
622.844	-0
623.032	-0.04
623.22	-0.11
623.408	0.03
623.596	-0.01
623.784	-0
623.972	-0.06
624.16	-0.06
624.348	0.05
624.536	-0.03
624.724	-0.03
624.912	0.01
625.1	0.01
625.288	-0.06
625.476	-0.06
625.664	-0.01
625.851	-0.05
626.039	-0.01
626.227	0.01
626.415	-0.01
626.603	-0.06
626.79	-0.02
626.978	-0.05
627.166	0.02
627.354	-0.03
627.541	-0.08
627.729	-0.07
627.917	0.02
628.104	0.02
628.292	-0
628.48	-0.02
628.667	-0.03
628.855	-0.01
629.042	0.01
629.23	-0.02
629.418	-0.01
629.605	-0.04
629.793	-0.05
629.98	-0.02
630.168	-0.02
630.355	-0.02
630.543	-0.02
630.73	-0.05
630.917	-0.02
631.105	0.04
631.292	-0.05
631.48	-0
631.667	0.08
631.854	0
632.042	-0.05
632.229	-0.05
632.416	-0.01
632.604	-0.04
632.791	-0.06
632.978	-0.02
633.165	-0.01
633.353	0.06
633.54	0.01
633.727	-0.1
633.914	-0.04
634.101	-0.09
634.289	-0.01
634.476	-0.06
634.663	-0
634.85	0.02
635.037	-0.05
635.224	-0.1
635.411	0.03
635.598	0.01
635.785	-0.04
635.972	-0.01
636.159	0.01
636.346	-0.08
636.533	-0
636.72	-0.05
636.907	-0.04
637.094	0.02
637.281	-0.03
637.468	0.01
637.655	-0.03
637.842	0.01
638.029	-0.02
638.215	-0
638.402	-0
638.589	-0.05
638.776	-0.08
638.963	-0.05
639.149	-0
639.336	0.04
639.523	-0.06
639.709	-0.03
639.896	-0.03
640.083	0.03
640.27	-0.01
640.456	-0.02
640.643	-0
640.829	-0.05
641.016	-0.04
641.203	-0.08
641.389	0.01
641.576	-0.01
641.762	-0.06
641.949	-0.05
642.135	0.02
642.322	-0.03
642.508	-0.09
642.695	-0.04
642.881	-0.03
643.068	-0.05
643.254	-0.02
643.441	0.01
643.627	-0.01
643.813	-0.08
644	0.01
644.186	-0.06
644.372	0.01
644.559	0.01
644.745	-0.03
644.931	-0.02
645.118	-0.02
645.304	-0.01
645.49	-0.04
645.676	-0.03
645.862	-0.05
646.049	0.03
646.235	-0.04
646.421	0.08
646.607	0.05
646.793	-0.05
646.979	-0.08
647.165	-0.05
647.352	0
647.538	0.04
647.724	-0.01
647.91	-0
648.096	-0
648.282	0
648.468	-0.04
648.654	-0.03
648.84	-0.02
649.026	-0
649.212	-0.03
649.397	-0.07
649.583	-0.05
649.769	-0
649.955	0.03
650.141	-0
650.327	0.02
650.513	-0.05
650.698	-0.02
650.884	-0.08
651.07	-0.01
651.256	-0.02
651.442	-0.04
651.627	-0.03
651.813	0.01
651.999	0.02
652.184	0.01
652.37	-0.02
652.556	-0.04
652.741	0.04
652.927	-0.07
653.113	-0.02
653.298	-0.03
653.484	-0.02
653.669	-0.07
653.855	-0
654.04	-0.02
654.226	-0.02
654.412	-0.04
654.597	-0.08
654.782	-0.02
654.968	0.03
655.153	-0.02
655.339	-0.07
655.524	-0.06
655.71	0.02
655.895	-0.03
656.08	-0
656.266	0.01
656.451	-0.05
656.636	-0.06
656.822	-0
657.007	-0.04
657.192	-0.04
657.378	-0.09
657.563	0.01
657.748	0.03
657.933	-0.03
658.118	-0.03
658.304	-0.06
658.489	0.01
658.674	0
658.859	-0.02
659.044	-0.01
659.229	-0.01
659.414	-0.05
659.599	-0.01
659.785	-0.05
659.97	-0.04
660.155	0.01
660.34	-0.02
660.525	-0.02
660.71	-0.04
660.895	0.01
661.08	-0.05
661.264	-0.01
661.449	0.07
661.634	0.01
661.819	-0.01
662.004	-0.05
662.189	-0.11
662.374	-0.05
662.559	-0.05
662.743	-0.09
662.928	-0.01
663.113	-0.08
663.298	-0.08
663.483	-0.03
663.667	-0.02
663.852	-0.04
664.037	0.03
664.221	-0.04
664.406	0
664.591	-0.02
664.775	-0.03
664.96	-0.05
665.145	-0
665.329	-0.01
665.514	-0.07
665.698	-0.04
665.883	-0.1
666.068	0.03
666.252	-0.02
666.437	-0.08
666.621	-0.05
666.806	0.03
666.99	-0.01
667.174	-0.06
667.359	0.01
667.543	-0.04
667.728	-0.02
667.912	-0.13
668.096	0.01
668.281	-0.04
668.465	-0.06
668.649	-0.04
668.834	-0.05
669.018	-0.02
669.202	-0.05
669.387	-0.07
669.571	-0.01
669.755	-0.04
669.939	0
670.124	-0.02
670.308	0.04
670.492	0
670.676	-0.01
670.86	-0.04
671.044	-0.03
671.228	-0.02
671.413	-0.04
671.597	-0.03
671.781	-0.05
671.965	0.03
672.149	-0.05
672.333	-0.08
672.517	-0.09
672.701	0.03
672.885	-0.06
673.069	-0.09
673.253	0.07
673.437	-0.03
673.621	-0.07
673.804	-0.04
673.988	-0.02
674.172	-0.03
674.356	-0.08
674.54	-0.02
674.724	0.06
674.908	-0.02
675.091	0.02
675.275	-0.02
675.459	0.02
675.643	-0.05
675.826	-0.03
676.01	-0.06
676.194	-0.06
676.377	0.01
676.561	0.02
676.745	-0.01
676.928	-0.02
677.112	0.01
677.296	-0.08
677.479	-0.06
677.663	-0.05
677.846	-0.01
678.03	-0.06
678.213	-0.05
678.397	0.04
678.58	-0.05
678.764	-0.05
678.947	-0.08
679.131	-0.02
679.314	0.02
679.498	-0.01
679.681	0
679.865	-0
680.048	-0.05
680.231	-0.05
680.415	-0.04
680.598	-0
680.781	-0.03
680.965	-0.07
681.148	-0
681.331	-0.05
681.514	0.01
681.698	-0.04
681.881	0.02
682.064	-0.01
682.247	-0
682.43	-0.12
682.614	-0.04
682.797	0.03
682.98	0.02
683.163	-0.07
683.346	-0.06
683.529	-0.05
683.712	-0.07
683.895	0.03
684.078	-0.11
684.261	-0.03
684.444	-0
684.627	-0.03
684.81	-0.06
684.993	-0.03
685.176	-0.01
685.359	-0.1
685.542	-0.06
685.725	0.06
685.908	-0.03
686.091	-0.05
686.274	-0.01
686.457	0.02
686.639	-0.07
686.822	0.02
687.005	-0.04
687.188	0
687.371	0.02
687.553	-0.03
687.736	0.02
687.919	0.03
688.102	-0
688.284	-0.04
688.467	0.02
688.65	-0.04
688.832	-0.06
689.015	-0.04
689.197	-0.12
689.38	0.09
689.563	0.09
689.745	-0.1
689.928	-0.09
690.11	-0.03
690.293	0.02
690.475	-0.13
690.658	0.01
690.84	-0.02
691.023	-0.03
691.205	-0.04
691.388	-0.04
691.57	0.07
691.752	-0
691.935	-0.07
692.117	-0.04
692.3	0
692.482	-0.02
692.664	-0.01
692.847	-0.01
693.029	0.03
693.211	0.03
693.393	-0.01
693.576	-0.06
693.758	-0.01
693.94	-0.06
694.122	-0.04
694.304	-0.07
694.487	-0.07
694.669	0.04
694.851	-0.05
695.033	-0.05
695.215	-0.05
695.397	-0.09
695.579	0.01
695.761	-0.05
695.943	-0.07
696.125	0.06
696.308	-0.04
696.49	-0.14
696.671	0.08
696.853	-0.04
697.035	0.14
697.217	-0.04
697.399	-0
697.581	-0.08
697.763	0
697.945	-0.1
698.127	-0.06
698.309	0.07
698.491	-0.03
698.672	0
698.854	-0
699.036	0.06
699.218	-0.1
699.399	-0.02
699.581	-0
699.763	-0.02
699.945	-0.06
700.126	-0.11
700.308	-0.03
700.49	-0.01
700.671	-0.11
700.853	-0.05
701.035	-0.06
701.216	-0.01
701.398	-0.05
701.579	-0.05
701.761	0.04
701.943	-0.06
702.124	-0.1
702.306	-0.09
702.487	0.1
702.669	0.01
702.85	-0.1
703.031	-0.07
703.213	0.06
703.394	0.04
703.576	-0.09
703.757	0.05
703.938	0.02
704.12	0.16
704.301	-0.04
704.483	-0.11
704.664	-0.02
704.845	0.08
705.026	0.02
705.208	-0.03
705.389	-0.06
705.57	-0.01
705.751	-0.09
705.933	-0.03
706.114	0.05
706.295	-0.03
706.476	-0.11
706.657	0.05
706.838	0.05
707.02	0
707.201	-0.06
707.382	-0.06
707.563	-0.04
707.744	-0.08
707.925	-0.11
708.106	-0.05
708.287	-0.03
708.468	0.02
708.649	-0.04
708.83	-0.02
709.011	-0.09
709.192	-0.08
709.373	-0.13
709.554	-0.06
709.734	-0
709.915	-0
710.096	-0.08
710.277	-0.14
710.458	0.01
710.639	-0.01
710.819	-0.12
711	-0.05
711.181	0.07
711.362	0.09
711.542	-0.06
711.723	-0.01
711.904	0.01
712.085	0
712.265	-0.04
712.446	-0.1
712.627	-0.08
712.807	-0.03
712.988	-0.09
713.168	-0.13
713.349	-0.02
713.53	-0.16
713.71	-0.09
713.891	-0.15
714.071	-0.04
714.252	-0.01
714.432	-0.06
714.613	-0.12
714.793	-0.03
714.974	0.06
715.154	-0.01
715.334	0.03
715.515	0.18
715.695	-0
715.876	-0.07
716.056	-0.14
716.236	-0.08
716.417	-0.02
716.597	-0.08
716.777	0.11
716.957	-0
717.138	-0.09
717.318	-0.03
717.498	-0.06
717.678	-0.02
717.859	-0.06
718.039	-0.07
718.219	-0.06
718.399	0.02
718.579	-0.09
718.759	-0.07
718.939	0.01
719.12	-0.01
719.3	-0.05
719.48	-0.17
719.66	-0.08
719.84	0.06
720.02	0.01
720.2	-0.1
720.38	-0.05
720.56	0.12
720.74	-0.08
720.92	-0.05
721.1	0.01
721.279	0.07
721.459	-0
721.639	-0.17
721.819	-0.04
721.999	-0.11
722.179	0.06
722.359	-0.16
722.538	-0
722.718	-0.08
722.898	-0.05
723.078	-0.09
723.257	-0.14
723.437	-0.08
723.617	0.03
723.797	-0.04
723.976	0.03
724.156	0.02
724.336	0.06
724.515	0.05
724.695	-0.14
724.874	-0.04
725.054	-0.05
725.234	-0.04
725.413	-0.02
725.593	-0.04
725.772	-0.1
725.952	0
726.131	-0.05
726.311	-0.09
726.49	-0.08
726.67	-0.08
726.849	-0.06
727.028	0.06
727.208	-0.07
727.387	0.06
727.567	-0.08
727.746	-0.07
727.925	-0.08
728.105	-0.09
728.284	-0.09
728.463	-0.04
728.643	-0.02
728.822	-0.12
729.001	-0.1
729.18	-0.06
729.359	0.05
729.539	-0.02
729.718	-0.03
729.897	0.01
730.076	-0.04
730.255	-0.18
730.434	-0.02
730.614	0.03
730.793	0.02
730.972	-0.11
731.151	-0
731.33	-0
731.509	0.01
731.688	-0.05
731.867	-0.12
732.046	-0.11
732.225	0.15
732.404	-0.13
732.583	-0.16
732.762	-0.06
732.941	0.1
733.12	-0.03
733.298	-0.05
733.477	0.13
733.656	-0.08
733.835	-0.08
734.014	0
734.193	-0.14
734.371	0
734.55	-0.03
734.729	-0.15
734.908	0
735.086	-0.01
735.265	-0
735.444	-0.16
735.623	-0.11
735.801	-0.08
735.98	-0.03
736.159	-0.05
736.337	0.03
736.516	0
736.694	-0.03
736.873	-0.1
737.052	0.16
737.23	0.08
737.409	-0.15
737.587	0.19
737.766	-0.15
737.944	-0.1
738.123	-0.1
738.301	0.16
738.479	-0.12
738.658	0.01
738.836	-0.35
739.015	-0.06
739.193	0.12
739.371	-0.25
739.55	0.08
739.728	-0.19
739.906	0.14
740.085	0.12
740.263	-0.09
740.441	-0.23
740.62	0.22
740.798	0.09
740.976	-0.15
741.154	-0.11
741.332	0.15
741.511	-0.1
741.689	-0.03
741.867	0.05
742.045	0.07
742.223	-0.14
742.401	-0.07
742.579	-0.16
742.757	0.01
742.935	-0.14
743.114	-0.09
743.292	-0.11
743.47	-0.01
743.648	0
743.826	-0.02
744.004	-0.1
744.181	0.04
744.359	-0.14
744.537	-0.01
744.715	-0.06
744.893	0.05
745.071	-0.07
745.249	-0.06
745.427	-0.03
745.605	-0.05
745.782	-0.02
745.96	0.11
746.138	-0.05
746.316	-0.01
746.493	-0.07
746.671	0
746.849	-0.07
747.027	0.14
747.204	-0.08
747.382	0.04
747.56	-0.25
747.737	-0.09
747.915	-0.11
748.093	-0.06
748.27	-0.13
748.448	-0.09
748.625	-0.24
748.803	-0.09
748.98	-0.12
749.158	0
749.335	-0.02
749.513	-0.13
749.69	-0.15
749.868	-0.07
750.045	-0.03
750.223	-0.12
750.4	-0.26
750.578	0.06
750.755	-0.07
750.932	-0.14
751.11	-0.01
751.287	-0.3
751.464	0.04
751.642	-0.21
751.819	-0.04
751.996	0
752.173	-0.1
752.351	-0.21
752.528	-0.08
752.705	-0.08
752.882	-0.11
753.06	-0.1
753.237	-0.03
753.414	0.19
753.591	0.25
753.768	-0.11
753.945	-0.13
754.122	-0.05
754.299	-0.04
754.476	-0.19
754.654	-0.06
754.831	-0.03
755.008	-0.03
755.185	-0.14
755.362	-0.09
755.539	-0.09
755.716	-0.11
755.892	-0.08
756.069	-0.11
756.246	-0.02
756.423	-0.05
756.6	0.06
756.777	-0.2
756.954	0.03
757.131	-0.13
757.307	-0.1
757.484	-0.2
757.661	-0.07
757.838	-0.03
758.015	-0.25
758.191	-0.06
758.368	-0.07
758.545	0.06
758.721	-0.02
758.898	-0.18
759.075	0.04
759.251	0.01
759.428	-0.08
759.605	-0.2
759.781	-0.04
759.958	0.01
760.134	-0.11
760.311	-0.17
760.488	0.02
760.664	0.11
760.841	0.02
761.017	-0.21
761.194	0.04
761.37	-0.01
761.547	0.01
761.723	0.01
761.899	0.22
762.076	-0.2
762.252	-0.08
762.429	-0.08
762.605	0.01
762.781	-0.07
762.958	-0.01
763.134	-0.08
763.31	-0.11
763.486	0.12
763.663	-0.23
763.839	0.07
764.015	-0.22
764.191	-0.08
764.368	-0.09
764.544	-0.08
764.72	-0.02
764.896	0.08
765.072	-0.04
765.248	-0.08
765.425	-0.2
765.601	0.03
765.777	-0.09
765.953	-0.36
766.129	-0.08
766.305	-0.13
766.481	0.07
766.657	-0.02
766.833	0.09
767.009	-0.13
767.185	-0.11
767.361	-0.1
767.537	-0.09
767.713	0.1
767.889	-0.09
768.065	-0.11
768.24	-0.27
768.416	0.08
768.592	-0.09
768.768	-0.06
768.944	-0.03
769.12	-0.09
769.295	-0.04
769.471	-0.05
769.647	-0.17
769.823	0.12
769.998	-0.05
770.174	-0.25
770.35	0.28
770.525	0.25
770.701	-0.02
770.877	-0.15
771.052	-0.16
771.228	0.01
771.403	-0.06
771.579	-0.06
771.755	0.21
771.93	-0.14
772.106	-0.29
772.281	-0.22
772.457	-0.07
772.632	-0.02
772.808	-0.3
772.983	-0.18
773.159	-0.37
773.334	0.1
773.509	-0.1
773.685	-0.17
773.86	0.18
774.036	0.24
774.211	-0.1
774.386	-0.17
774.562	-0.07
774.737	-0.05
774.912	-0.21
775.087	0.07
775.263	-0.05
775.438	-0.1
775.613	-0.26
775.788	0
775.964	-0.02
776.139	0.37
776.314	-0.18
776.489	0.06
776.664	0.12
776.839	-0.2
777.014	0.03
777.19	0.01
777.365	0.16
777.54	0.1
777.715	-0.23
777.89	-0.1
778.065	-0.3
778.24	-0.07
778.415	-0.05
778.59	-0.32
778.765	-0.19
778.94	0
779.115	0.03
779.289	-0.17
779.464	-0.17
779.639	-0.21
779.814	-0.24
779.989	-0.25
780.164	0.13
780.339	0.03
780.513	-0.04
780.688	-0.37
780.863	0.03
781.038	-0.09
781.212	-0.28
781.387	-0.03
781.562	0.24
781.737	-0.11
781.911	-0.03
782.086	-0.21
782.261	-0.21
782.435	0.04
782.61	-0.2
782.784	-0.22
782.959	0.18
783.134	-0.09
783.308	-0.11
783.483	-0.35
783.657	0.24
783.832	0.19
784.006	-0.42
784.181	-0.24
784.355	0.19
784.53	-0.33
784.704	-0.28
784.878	0.05
785.053	-0.02
785.227	0.14
785.402	0.3
785.576	-0.45
785.75	-0.02
785.925	-0.2
786.099	-0.09
786.273	0.07
786.448	0.12
786.622	0.2
786.796	-0.11
786.97	-0.08
787.145	0.46
787.319	-0.33
787.493	-0.38
787.667	-0.48
787.841	0
788.015	-0.14
788.19	-0.21
788.364	-0.04
788.538	0.13
788.712	0.18
788.886	-0.28
789.06	-0.08
789.234	0.15
789.408	-0.27
789.582	-0.23
789.756	-0.13
789.93	-0.1
790.104	-0.08
790.278	-0.11
790.452	-0.22
790.626	-0.01
790.8	-0.19
790.973	0.12
791.147	0.12
791.321	0.35
791.495	0.08
791.669	-0.11
791.843	-0.07
792.016	0.03
792.19	0.29
792.364	-0.37
792.538	0.22
792.711	0.06
792.885	-0.15
793.059	-0.32
793.233	-0.63
793.406	0.17
793.58	0
793.754	0.1
793.927	-0.12
794.101	0.46
794.274	-0.4
794.448	-0.13
794.622	-0.29
794.795	0.07
794.969	-0.08
795.142	0.26
795.316	-0.13
795.489	-0.46
795.663	0.29
795.836	-0.07
796.009	-0.39
796.183	0.07
796.356	-0.19
796.53	-0.07
796.703	-0.28
796.876	0.49
797.05	-0.28
797.223	-0.1
797.396	0.06
797.57	0.01
797.743	0.35
797.916	0.03
798.09	-0
798.263	-0.12
798.436	0.03
798.609	-0.26
798.782	-0.01
798.956	0.03
799.129	-0.05
799.302	-0.18
799.475	-0.09
799.648	-0.15
799.821	-0.2
799.994	-0.25
800.167	-0.51
800.34	-0.04
800.514	0.08
800.687	-0.19
800.86	-0.49
801.033	-0.15
801.206	0.02
801.379	-0.51
801.551	0.07
801.724	0.03
801.897	0.23
802.07	-0.34
802.243	-0.6
802.416	-0.02
802.589	-0.23
802.762	-0.05
802.935	-0.06
803.107	-0.04
803.28	0.22
803.453	-0.06
803.626	-0.42
803.798	-0.23
803.971	-0.21
804.144	-0.21
804.317	-0.1
804.489	0.02
804.662	0.03
804.835	-0.06
805.007	-0.3
805.18	0.44
805.353	-0.26
805.525	0.01
805.698	-0.48
805.87	0.45
806.043	0.06
806.215	-0.31
806.388	-0.3
806.56	0.19
806.733	0.33
806.905	-0.17
807.078	-0.56
807.25	-0.49
807.423	-0
807.595	-0.11
807.768	0.2
807.94	0.43
808.112	-0.07
808.285	-0.11
808.457	-0.13
808.629	0.24
808.802	0.16
808.974	-0.17
809.146	-0.13
809.318	-0.63
809.491	-0
809.663	0.35
809.835	-0.19
810.007	-0.08
810.18	-0.04
810.352	-0.73
810.524	-0.26
810.696	-0.19
810.868	0.46
811.04	-0.28
811.212	-0.29
811.384	0.1
811.556	-0.21
811.728	-0.19
811.901	0.48
812.073	-0.45
812.245	0.33
812.417	-0.2
812.589	-0.74
812.76	-0.23
812.932	0.07
813.104	0.24
813.276	-0.48
813.448	0.24
813.62	-0.09
813.792	-0.29
813.964	-0.37
814.136	-0.1
814.307	-0.34
814.479	-0.65
814.651	-0.47
814.823	0.47
814.995	0.01
815.166	-0.11
815.338	-0.29
815.51	-1
815.681	0.75
815.853	-0.36
816.025	-0.37
816.196	0.57
816.368	0.03
816.54	-0.48
816.711	-0.43
816.883	0.04
817.054	0.85
817.226	-1.06
817.398	0.56
817.569	-0.63
817.741	-0.07
817.912	-0.21
818.084	-0.3
818.255	0.44
818.426	-0.54
818.598	-0.27
818.769	-0.26
818.941	0.19
819.112	0.27
819.283	-0.09
819.455	-0.81
819.626	-0.24
819.798	0.15
819.969	-0.35
820.14	-0.27
820.311	-0.03
820.483	0.18
820.654	0.04
820.825	-0.21
820.996	-0.38
821.168	-0.61
821.339	-0.12
821.51	-0.58
821.681	-0.32
821.852	-0.18
822.023	-0.5
822.195	-1.21
822.366	0.29
822.537	-0.07
822.708	-0.27
822.879	-0.6
823.05	0.45
823.221	-0.39
823.392	0.4
823.563	-0.03
823.734	0.08
823.905	-0.68
824.076	-0.5
824.247	-0.56
824.418	-0.26
824.589	0.12
824.759	-0.61
824.93	-0.55
825.101	-0.9
825.272	-0.11
825.443	-0.31
825.614	0.14
825.784	-1.11
825.955	0.56
826.126	0.49
826.297	-0.51
826.467	0.11
826.638	0.53
826.809	-1.14
826.98	-0.59
827.15	0
827.321	-0.24
827.492	0.77
827.662	-0.45
827.833	0.94
828.003	0.48
828.174	-0.34
828.345	-0.66
828.515	0.44
828.686	0.12
828.856	-0.41
829.027	-0.38
829.197	-0.21
829.368	0.12
829.538	-0.61
829.709	-0.22
829.879	-0.06
830.049	-0.29
830.22	-0.31
830.39	-0.47
830.56	-0.01
830.731	0.34
830.901	-0.7
831.072	-0.24
831.242	-0.49
831.412	-0.39
831.582	-0.38
831.753	-1.42
831.923	0.44
832.093	-0.06
832.263	-0.22
832.434	-1.09
832.604	-1.04
832.774	0.43
832.944	-0.22
833.114	-0.68
833.284	-0.11
833.454	-0.55
833.624	-0.84
833.795	-0.56
833.965	0.43
834.135	0.23
834.305	-1.26
834.475	-0.75
834.645	-0.05
834.815	-0.65
834.985	-0.89
835.155	-0.64
835.325	-0.05
835.494	0.22
835.664	-0.65
835.834	-1.19
836.004	0.36
836.174	0.02
836.344	-0.4
836.514	-0.81
836.684	-0.82
836.853	-0.32
837.023	-0.38
837.193	-0.84
837.363	0.34
837.532	-0.08
837.702	-0.58
837.872	-0.89
838.041	-0.12
838.211	1.4
838.381	-0.57
838.55	-0.1
838.72	1.5
838.89	1.79
839.059	-0.51
839.229	-0.83
839.398	1.24
839.568	0.61
839.738	-0.7
839.907	0.78
840.077	0.02
840.246	-0.74
840.416	-0.63
840.585	-1.07
840.755	0.73
840.924	1.29
841.093	-0.9
841.263	-0.44
841.432	-0.46
841.602	-1.1
841.771	-0.32
841.94	-0.99
842.11	1.87
842.279	0.66
842.448	-1
842.617	-1.15
842.787	0.56
842.956	-0.71
843.125	-1.02
843.294	0.06
843.464	1.31
843.633	0.06
843.802	-1.3
843.971	-0.31
844.14	0.41
844.309	0.59
844.479	-0.55
844.648	-1.11
844.817	-0.91
844.986	-0.48
845.155	-0.32
845.324	-0.64
845.493	-0.2
845.662	-0.7
845.831	-0.25
846	-0.05
846.169	0.05
846.338	1.41
846.507	-0.64
846.676	-0.44
846.844	-0.72
847.013	-0.03
847.182	-0.6
847.351	-0.95
847.52	-0.76
847.689	-0.29
847.858	-0.41
848.026	-0.83
848.195	-0.56
848.364	-1.28
848.533	-0.62
848.701	-1.26
848.87	-0.09
849.039	0.12
849.207	0.16
849.376	1.23
849.545	0.95
849.713	-1.19
849.882	-0.77
850.051	-0.58
850.219	0.13
850.388	0.35
850.556	-1.53
850.725	-1.27
850.893	0.12
851.062	-0.19
851.23	0.41
851.399	-1.58
851.567	0.07
851.736	-0.53
851.904	-1.51
852.073	-0.08
852.241	-0.16
852.41	-1.49
852.578	-1.1
852.746	-1
852.915	0.07
853.083	0.29
853.251	-1.8
853.42	-2.08
853.588	-0.61
853.756	1.1
853.924	-0.18
854.093	-1.31
854.261	-0.41
854.429	-1.8
854.597	0.24
854.765	-1.92
854.934	-0.04
855.102	0.96
855.27	-0.37
855.438	-0.28
855.606	1.59
855.774	1.24
855.942	-2.48
856.11	-1.85
856.278	-0.21
856.446	0.66
856.614	-0.3
856.782	-1.75
856.95	0.41
857.118	0.7
857.286	0.04
857.454	-1.72
857.622	0.61
857.79	-0.68
857.958	-0.88
858.126	-0.89
858.294	-2.31
858.462	-0.48
858.629	-1.16
858.797	-1.17
858.965	-0.36
859.133	0.22
859.301	-1.37
859.468	0.17
859.636	-1.18
859.804	1.67
859.971	1.91
860.139	-1.77
860.307	1.46
860.474	0.35
860.642	-2.19
860.81	-0.88
860.977	0.25
861.145	0.45
861.313	-0.58
861.48	-0.76
861.648	2.01
861.815	-0.98
861.983	-2.75
862.15	-1.23
862.318	0.79
862.485	0.82
862.653	-0.81
862.82	-1.13
862.988	1.22
863.155	-0.18
863.322	-1.28
863.49	-1.43
863.657	-1.38
863.824	2.81
863.992	0.01
864.159	-0.88
864.326	1.2
864.494	-2.04
864.661	1.85
864.828	-2.8
864.996	0.76
865.163	2.35
865.33	0.11
865.497	-3.11
865.664	-0.61
865.832	-2.05
865.999	-1.07
866.166	-0.75
866.333	-0.92
866.5	-1.07
866.667	-0.31
866.834	-0.73
867.001	0.68
867.168	-2.61
867.335	-0.45
867.502	-1.46
867.669	-0.04
867.836	1.77
868.003	-1.49
868.17	0.97
868.337	2.76
868.504	1.11
868.671	-1.76
868.838	-2.16
869.005	-0.8
869.172	-0.1
869.339	-1.25
869.505	-1.13
869.672	-0.93
869.839	-0.23
870.006	0.09
870.173	-2.85
870.339	-0.7
870.506	2.25
870.673	-2.74
870.84	0.51
871.006	-0.45
871.173	-0.74
871.34	-0.63
871.506	-3.31
871.673	0.28
871.839	-3.44
872.006	-0.38
872.173	-1.42
872.339	-0.07
872.506	1.78
872.672	-1.06
872.839	-3.4
873.005	-1.11
873.172	3.49
873.338	-0.24
873.505	0.85
873.671	-1.81
873.838	0.19
874.004	-1.68
874.171	-0.57
874.337	-1.22
874.503	0.87
874.67	-0.85
874.836	-1.37
875.002	1.58
875.169	0.72
875.335	1.11
875.501	-0.34
875.668	-3.94
875.834	-0.82
876	-1.5
876.166	-0.31
876.332	0.44
876.499	2.81
876.665	-1.5
876.831	-1.05
876.997	3.76
877.163	-1.79
877.329	-2.19
877.495	-0.74
877.662	1.18
877.828	0.94
877.994	-0.14
878.16	-2.02
878.326	-0.12
878.492	-1.45
878.658	-2.62
878.824	1.01
878.99	1.2
879.156	-0.7
879.322	2.14
879.487	-0.5
879.653	-0.29
879.819	-2.43
879.985	-3.26
880.151	-0.49
880.317	0.64
880.483	0.92
880.648	0.21
880.814	-4.47
880.98	0.67
881.146	-2.52
881.312	-2
881.477	-0.52
881.643	-0.74
881.809	1.27
881.974	1.31
882.14	-2.28
882.306	0.74
882.471	1.1
882.637	-1.72
882.803	-1.13
882.968	2.53
883.134	3.9
883.299	-1.13
883.465	-1.3
883.63	0.98
883.796	0.98
883.961	0.54
884.127	0.34
884.292	-5.43
884.458	-4.14
884.623	-4.14
