Data from Apollo_Calib_20240827__AbsoluteIrradiance__225__02-54-00-552.txt Node

Date: Wed Aug 28 02:54:00 BST 2024
User: biology
Spectrometer: FLMT08252
Trigger mode: 0
Integration Time (sec): 5.000000E-1
Scans to average: 5
Electric dark correction enabled: true
Nonlinearity correction enabled: false
Boxcar width: 0
XAxis mode: Wavelengths
Number of Pixels in Spectrum: 3648
>>>>>Begin Spectral Data<<<<<
179.588	-0
179.809	-0
180.03	-0
180.251	-0
180.473	-0
180.694	0
180.915	0
181.136	-0
181.357	0
181.578	-0
181.799	-0
182.02	-0
182.241	-0
182.462	-0
182.683	0
182.904	-0
183.125	-0
183.346	0
183.567	0
183.788	-0
184.009	-0
184.23	0
184.451	0
184.672	-0
184.892	-0
185.113	0
185.334	0
185.555	-0
185.776	-0
185.996	0
186.217	0
186.438	-0
186.659	-0
186.879	0
187.1	-0
187.321	-0
187.541	-0
187.762	0
187.983	-0
188.203	-0
188.424	-0
188.644	-0
188.865	-0
189.086	-0
189.306	-0
189.527	-0
189.747	-0
189.968	-0
190.188	0
190.409	-0
190.629	-0
190.849	-0
191.07	-0
191.29	0
191.511	-0
191.731	-0
191.951	-0
192.172	0
192.392	-0
192.612	-0
192.833	-0
193.053	0
193.273	0
193.493	-0
193.714	-0
193.934	0
194.154	0
194.374	-0
194.594	-0
194.815	0
195.035	0
195.255	-0
195.475	-0
195.695	0
195.915	0
196.135	-0
196.355	0
196.575	0
196.795	0
197.015	-0
197.235	-0
197.455	-0
197.675	0
197.895	-0
198.115	-0
198.335	0
198.555	-0
198.775	0
198.995	-0
199.214	0
199.434	-0
199.654	-0
199.874	-0
200.094	0.63
200.313	-0.49
200.533	-0.73
200.753	-1.11
200.973	1.2
201.192	0.2
201.412	-1.19
201.632	-0.51
201.851	0.64
202.071	-0.55
202.291	-0.81
202.51	-0.77
202.73	-0.22
202.95	-0.5
203.169	-0.8
203.389	-0.37
203.608	-0.36
203.828	-0.58
204.047	-0.92
204.267	0.14
204.486	0.12
204.706	0.1
204.925	-0.14
205.145	-0.62
205.364	0.22
205.583	-0.04
205.803	-0.39
206.022	-0.58
206.242	-0.34
206.461	0.13
206.68	-0.51
206.9	-0.21
207.119	0.31
207.338	0.47
207.557	-0.34
207.777	-0.59
207.996	-0.3
208.215	0.37
208.434	-0.42
208.654	-0.86
208.873	0.16
209.092	0.44
209.311	-0.08
209.53	-0.21
209.749	-0.46
209.968	-0.21
210.187	-0.24
210.407	-0.61
210.626	-0.41
210.845	0.16
211.064	0.05
211.283	-0.18
211.502	0.34
211.721	-0.19
211.94	-0.17
212.159	0.23
212.377	0.19
212.596	0.26
212.815	-0.17
213.034	-0.21
213.253	0.19
213.472	0.14
213.691	-0.18
213.91	-0.3
214.128	-0.27
214.347	0.19
214.566	-0.32
214.785	-0.41
215.003	0.2
215.222	-0.09
215.441	-0.24
215.66	-0.38
215.878	-0.04
216.097	0.18
216.316	-0.43
216.534	-0.18
216.753	0.04
216.972	-0.05
217.19	-0.04
217.409	-0.25
217.627	-0.28
217.846	-0.2
218.064	0.07
218.283	-0.36
218.501	0.55
218.72	0.07
218.938	-0.3
219.157	-0.24
219.375	0.1
219.594	-0.01
219.812	-0.34
220.031	-0.29
220.249	0.22
220.467	0.16
220.686	-0.11
220.904	-0.31
221.122	-0.24
221.341	0.4
221.559	-0.08
221.777	-0.3
221.995	-0.09
222.214	0.06
222.432	-0.1
222.65	0.05
222.868	-0.1
223.086	0.05
223.305	0.04
223.523	0
223.741	0.18
223.959	-0.08
224.177	-0.28
224.395	-0.23
224.613	0.04
224.831	0.07
225.049	-0.17
225.267	-0.15
225.485	-0.08
225.703	-0.12
225.921	-0.13
226.139	-0.23
226.357	0.17
226.575	0.01
226.793	-0.19
227.011	0.46
227.229	0.02
227.447	0.16
227.665	-0.08
227.883	-0.32
228.1	0.02
228.318	0.06
228.536	-0.37
228.754	-0.26
228.972	0.04
229.189	0.04
229.407	-0.14
229.625	-0.17
229.843	0.1
230.06	0.06
230.278	-0.19
230.496	-0.13
230.713	0.08
230.931	-0.04
231.149	-0.18
231.366	-0.28
231.584	-0.12
231.801	0.31
232.019	-0.09
232.236	-0.23
232.454	-0.17
232.671	0.08
232.889	-0.12
233.106	-0.25
233.324	-0.06
233.541	-0.07
233.759	-0.09
233.976	-0.19
234.194	-0.12
234.411	-0.04
234.628	-0.14
234.846	-0.11
235.063	-0.02
235.28	0.02
235.498	-0.06
235.715	-0.25
235.932	0.02
236.149	0.02
236.367	-0.22
236.584	-0.03
236.801	-0.08
237.018	0.05
237.236	-0.12
237.453	-0.26
237.67	0.06
237.887	-0.13
238.104	-0.11
238.321	-0.11
238.538	-0.13
238.755	0.15
238.973	-0.2
239.19	-0.05
239.407	-0.02
239.624	0
239.841	-0.2
240.058	-0.12
240.275	0.06
240.492	-0.14
240.709	-0.09
240.925	-0.12
241.142	-0.14
241.359	-0.18
241.576	-0.12
241.793	-0.11
242.01	-0.01
242.227	0.02
242.444	-0.02
242.66	0.13
242.877	-0.01
243.094	-0.09
243.311	-0.03
243.527	-0.09
243.744	0.03
243.961	0.05
244.178	-0.09
244.394	-0.08
244.611	0.09
244.828	0.14
245.044	-0.18
245.261	-0.1
245.477	0.03
245.694	-0.07
245.911	-0.14
246.127	0.06
246.344	0.15
246.56	0.01
246.777	-0.01
246.993	-0.06
247.21	0.05
247.426	0.03
247.643	-0.12
247.859	-0.14
248.076	-0.13
248.292	0.12
248.508	-0.07
248.725	-0.01
248.941	0.05
249.157	0.12
249.374	-0.1
249.59	-0.05
249.806	-0.07
250.023	0.2
250.239	-0.14
250.455	-0.02
250.671	-0
250.888	-0.01
251.104	-0.03
251.32	-0.15
251.536	-0.05
251.752	-0.04
251.969	-0.08
252.185	-0
252.401	0.14
252.617	0.01
252.833	-0.01
253.049	-0.01
253.265	-0.08
253.481	0.01
253.697	-0.09
253.913	-0.11
254.129	-0.03
254.345	-0.07
254.561	-0.16
254.777	-0.02
254.993	0.03
255.209	-0.06
255.425	-0.06
255.641	-0.1
255.857	0.07
256.073	0.06
256.288	-0.11
256.504	-0.06
256.72	-0.02
256.936	0.12
257.152	-0.08
257.367	-0.07
257.583	-0.01
257.799	-0.02
258.015	-0.11
258.23	-0.08
258.446	0.1
258.662	-0.04
258.877	-0.06
259.093	-0.11
259.309	0.04
259.524	0.03
259.74	-0.05
259.955	-0.14
260.171	0.05
260.387	-0.02
260.602	-0.01
260.818	-0.05
261.033	-0.1
261.249	-0.12
261.464	-0.1
261.68	-0.13
261.895	-0.06
262.11	0.03
262.326	-0.09
262.541	-0.12
262.757	0.07
262.972	0
263.187	0.03
263.403	-0.03
263.618	0.07
263.833	-0.04
264.049	-0.11
264.264	0.01
264.479	0.03
264.694	0.1
264.91	-0.15
265.125	-0.06
265.34	0.02
265.555	0.11
265.77	-0
265.986	-0.07
266.201	0
266.416	0.07
266.631	-0.07
266.846	-0.06
267.061	0.02
267.276	0.06
267.491	-0.17
267.706	-0
267.921	0.03
268.136	-0.05
268.351	-0.05
268.566	-0.14
268.781	0.05
268.996	0.07
269.211	-0.03
269.426	-0.12
269.641	-0.01
269.856	0.04
270.071	-0.12
270.285	-0.15
270.5	0.06
270.715	0.07
270.93	-0.05
271.145	0.03
271.359	0.06
271.574	-0.09
271.789	-0.05
272.004	-0.08
272.218	-0
272.433	0.07
272.648	-0.11
272.862	0.12
273.077	-0.02
273.292	-0.04
273.506	0
273.721	-0.03
273.936	0.01
274.15	0.06
274.365	-0.12
274.579	0.01
274.794	0.04
275.008	0.07
275.223	-0.13
275.437	0.02
275.652	0.02
275.866	0.08
276.081	-0.03
276.295	0.06
276.509	0.03
276.724	-0.05
276.938	-0.02
277.153	0.03
277.367	0.04
277.581	-0.07
277.796	-0.1
278.01	-0.11
278.224	0.04
278.438	0.13
278.653	-0.04
278.867	-0.08
279.081	-0.22
279.295	-0.02
279.51	-0.03
279.724	-0.14
279.938	-0.02
280.152	0.07
280.366	-0.11
280.58	-0.02
280.794	0.05
281.008	0.06
281.222	0.05
281.437	0.1
281.651	-0.03
281.865	0.04
282.079	-0.05
282.293	-0.11
282.507	-0.03
282.721	-0.03
282.935	-0.02
283.148	-0.13
283.362	-0.04
283.576	-0.11
283.79	-0.05
284.004	-0.08
284.218	0.07
284.432	-0.07
284.646	-0.01
284.859	0.02
285.073	-0.06
285.287	-0.03
285.501	0.01
285.714	-0.01
285.928	0.03
286.142	-0.04
286.356	-0.02
286.569	-0.05
286.783	0.06
286.997	0.04
287.21	-0.01
287.424	0.03
287.637	-0.05
287.851	-0.04
288.065	-0.03
288.278	-0.03
288.492	0.02
288.705	-0.02
288.919	0.03
289.132	-0.11
289.346	-0.02
289.559	-0.07
289.773	-0.08
289.986	-0.02
290.2	-0.04
290.413	0.01
290.626	-0.07
290.84	-0.05
291.053	0.01
291.267	0.06
291.48	-0.01
291.693	0.01
291.906	-0.06
292.12	-0.06
292.333	-0
292.546	-0.05
292.76	0.04
292.973	0.03
293.186	0
293.399	-0.05
293.612	0.07
293.826	0.03
294.039	-0.05
294.252	-0.03
294.465	0.01
294.678	-0
294.891	0
295.104	-0.06
295.317	-0.05
295.53	0.01
295.743	-0.02
295.956	-0.03
296.169	0.04
296.382	0.03
296.595	-0
296.808	-0.06
297.021	0.05
297.234	0.06
297.447	-0.05
297.66	-0
297.873	0.07
298.086	0.05
298.299	-0.08
298.511	-0.08
298.724	-0.06
298.937	-0.08
299.15	-0.04
299.363	-0
299.575	0.06
299.788	0.04
300.001	-0.03
300.213	-0.07
300.426	-0.05
300.639	-0.01
300.852	-0.05
301.064	0.02
301.277	0.06
301.489	0.06
301.702	0.06
301.915	-0.03
302.127	-0.02
302.34	-0.02
302.552	0.01
302.765	-0.03
302.977	0.03
303.19	-0.08
303.402	0.01
303.615	-0.07
303.827	-0.02
304.04	-0.03
304.252	0.04
304.464	-0.02
304.677	0.13
304.889	-0.03
305.102	-0.06
305.314	-0.06
305.526	0.07
305.739	0.03
305.951	-0.04
306.163	0
306.375	0.08
306.588	-0.04
306.8	-0.08
307.012	-0.02
307.224	-0.01
307.436	0.07
307.649	-0.08
307.861	0.03
308.073	0
308.285	-0.08
308.497	-0.06
308.709	-0.05
308.921	-0.01
309.133	0.07
309.346	0.01
309.558	-0.02
309.77	0.01
309.982	0.04
310.194	0.01
310.406	-0.03
310.617	0.07
310.829	-0.02
311.041	-0.01
311.253	-0.07
311.465	-0.02
311.677	0
311.889	-0.02
312.101	-0.03
312.313	0.06
312.524	0.08
312.736	-0.05
312.948	-0.02
313.16	0.1
313.372	0.01
313.583	-0.01
313.795	-0.03
314.007	-0.06
314.218	0.04
314.43	-0.03
314.642	-0.05
314.853	-0.06
315.065	0.01
315.277	-0
315.488	-0.02
315.7	-0.01
315.912	-0.03
316.123	0
316.335	-0.01
316.546	0.1
316.758	-0.02
316.969	-0.02
317.181	0.01
317.392	-0.03
317.604	0.1
317.815	-0.04
318.026	-0.07
318.238	-0.06
318.449	0.01
318.661	-0.09
318.872	-0.05
319.083	-0.04
319.295	0.02
319.506	-0.04
319.717	-0.05
319.929	0
320.14	0.02
320.351	0.01
320.562	-0.01
320.774	-0.03
320.985	0.01
321.196	-0.07
321.407	-0.05
321.618	0.04
321.829	-0
322.041	0.03
322.252	-0.03
322.463	0.04
322.674	0.02
322.885	-0.06
323.096	-0.02
323.307	0.03
323.518	0.02
323.729	-0.03
323.94	-0.01
324.151	-0.03
324.362	-0
324.573	-0
324.784	-0.07
324.995	0.03
325.206	-0.01
325.417	-0.03
325.628	-0.03
325.838	-0.02
326.049	-0.02
326.26	0.02
326.471	-0.02
326.682	0.05
326.892	-0
327.103	-0.05
327.314	-0.05
327.525	0.03
327.735	-0.02
327.946	-0.06
328.157	-0.06
328.368	0.02
328.578	-0.04
328.789	-0
328.999	-0.01
329.21	-0.05
329.421	-0.01
329.631	-0.04
329.842	-0.03
330.052	0
330.263	0
330.473	0.03
330.684	-0.02
330.894	-0.01
331.105	0.03
331.315	0
331.526	-0.1
331.736	0.09
331.947	-0
332.157	0.01
332.367	-0.07
332.578	0.07
332.788	0.06
332.999	-0.02
333.209	0
333.419	-0.07
333.629	0.01
333.84	0.02
334.05	-0.03
334.26	0.08
334.47	0.02
334.681	-0.02
334.891	-0.03
335.101	0.03
335.311	0.06
335.521	-0.01
335.732	-0.04
335.942	0.04
336.152	0.06
336.362	0.01
336.572	-0.03
336.782	0.04
336.992	-0.05
337.202	-0.04
337.412	-0.05
337.622	0
337.832	-0.01
338.042	-0.01
338.252	-0.04
338.462	-0.05
338.672	0.01
338.882	-0.03
339.092	-0.03
339.302	0.04
339.511	-0.03
339.721	-0.04
339.931	-0.04
340.141	0.07
340.351	0
340.561	0.02
340.77	0.02
340.98	0
341.19	0.02
341.4	-0.05
341.609	-0.04
341.819	-0.04
342.029	-0.06
342.238	0.02
342.448	-0.03
342.658	0.03
342.867	0.01
343.077	-0.01
343.286	0.03
343.496	-0.02
343.706	0.05
343.915	-0.06
344.125	-0.03
344.334	0.02
344.544	-0.07
344.753	-0.03
344.963	-0.03
345.172	-0.05
345.381	-0.03
345.591	-0.06
345.8	0.02
346.01	0.04
346.219	0.01
346.428	-0.19
346.638	0.01
346.847	-0.04
347.056	0.1
347.266	-0.05
347.475	-0.02
347.684	0.01
347.893	0.05
348.103	0.01
348.312	-0.03
348.521	-0.02
348.73	-0.03
348.94	-0.01
349.149	-0.04
349.358	-0.04
349.567	-0.02
349.776	-0.08
349.985	-0.02
350.194	0.04
350.403	0.02
350.612	-0.03
350.821	-0.06
351.03	-0.03
351.239	-0.07
351.448	0.03
351.657	-0.07
351.866	0.05
352.075	0
352.284	-0.06
352.493	-0.09
352.702	0.06
352.911	-0.01
353.12	0.02
353.329	-0.05
353.538	0.01
353.746	0
353.955	-0.04
354.164	0.03
354.373	0
354.582	0.02
354.79	-0.01
354.999	0.03
355.208	-0.03
355.416	0.09
355.625	-0.04
355.834	-0.02
356.042	-0.01
356.251	-0.04
356.46	-0.07
356.668	-0.01
356.877	0.1
357.085	0.03
357.294	-0.02
357.503	0.03
357.711	-0.03
357.92	0.09
358.128	0
358.337	-0.06
358.545	-0.01
358.754	-0.02
358.962	0
359.17	-0.01
359.379	0.02
359.587	0
359.796	-0
360.004	0.06
360.212	0.02
360.421	0.04
360.629	-0.05
360.837	0.02
361.046	-0.01
361.254	0.11
361.462	-0.02
361.67	-0.05
361.879	-0.02
362.087	0.06
362.295	-0.03
362.503	-0.04
362.711	-0.05
362.92	-0.03
363.128	-0.02
363.336	-0.04
363.544	-0.08
363.752	-0.01
363.96	-0.04
364.168	-0.04
364.376	-0.02
364.584	0.02
364.792	0.04
365	0.01
365.208	-0.01
365.416	0.03
365.624	0.02
365.832	-0.02
366.04	0.03
366.248	-0
366.456	0
366.664	0.01
366.872	0.01
367.079	-0.03
367.287	-0.01
367.495	0.03
367.703	-0.02
367.911	0.02
368.118	-0.03
368.326	0.01
368.534	-0.05
368.742	0.04
368.949	-0.05
369.157	-0.05
369.365	0.02
369.572	-0.04
369.78	-0.04
369.988	0.02
370.195	0.01
370.403	0.03
370.61	-0.03
370.818	-0.01
371.026	0.03
371.233	-0.04
371.441	0.01
371.648	-0.03
371.856	0.03
372.063	0.05
372.271	-0.03
372.478	-0.03
372.685	-0.03
372.893	0.05
373.1	-0.03
373.308	-0.04
373.515	0.08
373.722	0.05
373.93	-0.02
374.137	0.02
374.344	0.11
374.552	0.03
374.759	-0.02
374.966	-0.02
375.173	-0.03
375.381	0.05
375.588	0
375.795	-0.07
376.002	-0.03
376.209	-0.02
376.417	-0
376.624	-0.02
376.831	-0
377.038	-0
377.245	-0.09
377.452	-0.04
377.659	-0
377.866	-0.07
378.073	-0.01
378.28	0.02
378.487	0.05
378.694	-0.01
378.901	-0.05
379.108	-0.03
379.315	0.03
379.522	0.07
379.729	0.01
379.936	-0.01
380.143	-0.01
380.35	0.03
380.557	-0.02
380.763	-0.03
380.97	0.02
381.177	0.04
381.384	0.04
381.591	-0.05
381.797	0.02
382.004	0.01
382.211	-0.01
382.418	0
382.624	0.02
382.831	0.03
383.038	-0.05
383.244	-0.02
383.451	-0.01
383.658	-0.01
383.864	-0.04
384.071	-0.04
384.277	0.06
384.484	-0.08
384.69	0.03
384.897	-0.01
385.103	-0.06
385.31	-0.07
385.516	-0.02
385.723	-0.07
385.929	0
386.136	-0.06
386.342	0.01
386.549	0
386.755	0.06
386.961	0.02
387.168	-0.05
387.374	-0.03
387.58	0.02
387.787	-0.02
387.993	0.03
388.199	-0.02
388.406	-0.05
388.612	-0.02
388.818	-0.05
389.024	-0.04
389.231	-0.02
389.437	0.05
389.643	0.01
389.849	-0.05
390.055	0.02
390.261	-0.03
390.467	-0
390.674	-0.06
390.88	-0.09
391.086	0.02
391.292	-0.04
391.498	0.01
391.704	0
391.91	-0.02
392.116	-0.02
392.322	-0.1
392.528	-0
392.734	-0.05
392.94	-0.03
393.146	-0.04
393.352	0.01
393.557	-0.04
393.763	-0.01
393.969	0.01
394.175	-0.01
394.381	-0.01
394.587	-0.06
394.792	-0.01
394.998	0.02
395.204	0.06
395.41	-0.05
395.615	0.03
395.821	0.02
396.027	0.01
396.233	-0.02
396.438	-0.01
396.644	0.07
396.85	0.03
397.055	0.01
397.261	-0.02
397.466	-0.07
397.672	-0.01
397.878	0.02
398.083	-0.03
398.289	-0.06
398.494	0.04
398.7	0.01
398.905	-0.06
399.111	0.07
399.316	-0.06
399.522	0.01
399.727	-0.03
399.932	-0.03
400.138	-0.02
400.343	0.05
400.549	0
400.754	-0
400.959	0
401.165	-0.03
401.37	-0.01
401.575	0.02
401.78	0
401.986	-0.03
402.191	-0.02
402.396	-0.03
402.601	0.01
402.807	0.05
403.012	0.01
403.217	0.07
403.422	0.07
403.627	-0
403.832	0.01
404.037	0.03
404.243	0.05
404.448	0.01
404.653	-0.01
404.858	0.03
405.063	0.03
405.268	-0.01
405.473	-0.02
405.678	-0.06
405.883	0.13
406.088	0.07
406.293	-0.06
406.498	-0.01
406.703	0.04
406.907	-0
407.112	-0.05
407.317	-0.01
407.522	0.03
407.727	-0
407.932	0.02
408.136	0.09
408.341	0.06
408.546	0.02
408.751	0.02
408.956	-0.01
409.16	0.07
409.365	0
409.57	0.01
409.774	0.04
409.979	0.09
410.184	0.07
410.388	0.02
410.593	0.09
410.798	0.09
411.002	-0.01
411.207	0.06
411.411	0.07
411.616	0.02
411.82	0.06
412.025	0.09
412.229	-0.01
412.434	0.11
412.638	0.06
412.843	-0
413.047	0.09
413.252	0.03
413.456	0.08
413.66	0.15
413.865	0.03
414.069	0.16
414.273	0.05
414.478	0.07
414.682	0.05
414.886	0.14
415.091	0.09
415.295	0.02
415.499	0.12
415.703	0.05
415.908	0.19
416.112	0.05
416.316	0.19
416.52	0.09
416.724	0.09
416.929	0.11
417.133	0.29
417.337	0.15
417.541	0.11
417.745	0.16
417.949	0.24
418.153	0.19
418.357	0.12
418.561	0.31
418.765	0.18
418.969	0.31
419.173	0.25
419.377	0.22
419.581	0.3
419.785	0.23
419.989	0.19
420.193	0.24
420.397	0.26
420.601	0.36
420.804	0.38
421.008	0.29
421.212	0.34
421.416	0.32
421.62	0.27
421.823	0.24
422.027	0.37
422.231	0.31
422.435	0.3
422.638	0.29
422.842	0.24
423.046	0.21
423.249	0.3
423.453	0.37
423.657	0.39
423.86	0.3
424.064	0.29
424.268	0.36
424.471	0.31
424.675	0.41
424.878	0.37
425.082	0.34
425.285	0.39
425.489	0.3
425.692	0.3
425.896	0.25
426.099	0.36
426.303	0.24
426.506	0.22
426.71	0.34
426.913	0.32
427.116	0.35
427.32	0.26
427.523	0.27
427.726	0.34
427.93	0.21
428.133	0.26
428.336	0.25
428.54	0.21
428.743	0.22
428.946	0.3
429.149	0.22
429.353	0.19
429.556	0.19
429.759	0.2
429.962	0.12
430.165	0.19
430.368	0.17
430.571	0.12
430.775	0.17
430.978	0.15
431.181	0.15
431.384	0.17
431.587	0.17
431.79	0.11
431.993	0.13
432.196	0.14
432.399	0.14
432.602	0.22
432.805	0.15
433.008	0.14
433.211	0.08
433.414	0.16
433.616	0.16
433.819	0.07
434.022	0.01
434.225	0.2
434.428	0.11
434.631	0.2
434.833	0.07
435.036	0.07
435.239	0.17
435.442	0.09
435.645	0.05
435.847	0.13
436.05	0.12
436.253	0.08
436.455	0.04
436.658	0.09
436.861	0.19
437.063	0.04
437.266	0.07
437.468	0.07
437.671	0.23
437.874	0.11
438.076	0.01
438.279	-0.04
438.481	0.07
438.684	-0.03
438.886	0.06
439.089	-0.05
439.291	0.08
439.494	0.08
439.696	0.06
439.899	0.02
440.101	0.09
440.303	-0.06
440.506	0.07
440.708	0.01
440.91	0.05
441.113	-0.03
441.315	0.05
441.517	-0.04
441.72	0.14
441.922	-0.01
442.124	-0.03
442.326	0.02
442.529	0.11
442.731	0.01
442.933	0.12
443.135	-0.02
443.337	-0.04
443.539	0.01
443.742	-0.02
443.944	0.05
444.146	-0.04
444.348	-0.01
444.55	-0.01
444.752	0.02
444.954	-0.02
445.156	0.02
445.358	-0.03
445.56	0.09
445.762	-0.01
445.964	0.04
446.166	-0.01
446.368	-0.01
446.57	0.07
446.772	-0.02
446.974	-0.01
447.175	0.01
447.377	-0.01
447.579	0.01
447.781	-0.07
447.983	0.05
448.184	0
448.386	-0.03
448.588	-0.09
448.79	0
448.991	-0.04
449.193	-0.04
449.395	0.01
449.597	0.01
449.798	0.03
450	0.02
450.202	0.01
450.403	-0
450.605	0.06
450.806	0.01
451.008	-0.05
451.21	0
451.411	0.01
451.613	-0.02
451.814	-0.02
452.016	0.03
452.217	-0.01
452.419	0.07
452.62	-0.03
452.821	0.02
453.023	0.06
453.224	0.05
453.426	-0.05
453.627	0.01
453.828	0.05
454.03	0.03
454.231	0.05
454.432	-0.04
454.634	0.11
454.835	0
455.036	-0.06
455.238	0.03
455.439	0.11
455.64	-0.06
455.841	-0.08
456.042	0.11
456.244	-0.01
456.445	-0.08
456.646	-0.11
456.847	-0.02
457.048	0.05
457.249	0.04
457.45	0.24
457.651	-0.08
457.852	0.04
458.054	0.04
458.255	-0.03
458.456	0.01
458.657	0.04
458.858	-0.05
459.058	0.01
459.259	0.06
459.46	-0.03
459.661	-0.03
459.862	0.13
460.063	-0.03
460.264	0.06
460.465	-0.1
460.666	0.07
460.866	-0.06
461.067	-0.01
461.268	-0.04
461.469	-0.02
461.67	-0.01
461.87	-0.06
462.071	-0.05
462.272	-0.05
462.473	0.03
462.673	0.03
462.874	-0.07
463.075	0.02
463.275	-0.04
463.476	-0.04
463.676	-0.03
463.877	0.01
464.078	-0.04
464.278	0.06
464.479	-0.04
464.679	-0.01
464.88	-0.05
465.08	0.07
465.281	0
465.481	-0.04
465.682	-0.03
465.882	0.02
466.083	0
466.283	0.02
466.483	-0
466.684	-0.07
466.884	-0.06
467.085	-0.04
467.285	0.01
467.485	-0.04
467.686	-0
467.886	-0.03
468.086	-0.04
468.286	-0.01
468.487	-0
468.687	-0.05
468.887	-0.02
469.087	-0
469.287	-0.02
469.488	-0.1
469.688	-0
469.888	0.03
470.088	0.02
470.288	0.03
470.488	0.06
470.688	-0.05
470.888	-0.04
471.088	-0.02
471.288	0.01
471.488	-0.01
471.688	0.01
471.888	-0.06
472.088	0.04
472.288	0.05
472.488	-0.03
472.688	-0.04
472.888	0
473.088	0.01
473.288	0.03
473.488	-0.01
473.688	0.05
473.887	-0.03
474.087	-0.06
474.287	-0.01
474.487	-0.05
474.687	-0
474.886	-0.03
475.086	-0.02
475.286	0.01
475.486	-0
475.685	-0
475.885	-0.05
476.085	-0.03
476.284	0.02
476.484	-0.04
476.684	0.02
476.883	0.03
477.083	0
477.282	-0.02
477.482	0.05
477.681	0.03
477.881	0.01
478.08	-0.05
478.28	-0.03
478.479	0.01
478.679	0.07
478.878	-0.02
479.078	-0.03
479.277	0
479.477	-0.01
479.676	0.01
479.875	-0.03
480.075	-0.08
480.274	0.01
480.473	0.03
480.673	-0.04
480.872	0
481.071	0.02
481.271	0.02
481.47	-0.03
481.669	-0.02
481.868	-0.04
482.067	-0.04
482.267	-0.03
482.466	-0.02
482.665	-0.04
482.864	-0.06
483.063	-0.05
483.262	0.01
483.461	0.06
483.661	0.01
483.86	-0.03
484.059	0.03
484.258	-0
484.457	0.01
484.656	-0.01
484.855	0.03
485.054	-0.06
485.253	-0.04
485.452	-0.05
485.651	-0
485.849	-0.03
486.048	-0.02
486.247	-0.07
486.446	-0.01
486.645	-0.06
486.844	-0.03
487.043	-0.01
487.241	0
487.44	-0.04
487.639	-0
487.838	0.01
488.037	-0.02
488.235	0.05
488.434	-0.03
488.633	-0.05
488.831	0.01
489.03	0.01
489.229	0.03
489.427	0.02
489.626	0.04
489.825	0.03
490.023	0.01
490.222	-0.03
490.42	0.02
490.619	0.02
490.817	0
491.016	-0.03
491.214	0.03
491.413	-0.01
491.611	-0.01
491.81	-0.02
492.008	0.02
492.207	0.01
492.405	0.02
492.604	-0.06
492.802	-0.01
493	-0.01
493.199	-0.02
493.397	-0.02
493.595	-0.02
493.794	-0.03
493.992	0.05
494.19	-0.02
494.388	0.01
494.587	-0.01
494.785	-0
494.983	-0.04
495.181	-0.02
495.379	-0.02
495.578	-0.04
495.776	0
495.974	0.01
496.172	-0.01
496.37	-0.03
496.568	-0.02
496.766	-0.03
496.964	0.01
497.162	-0.01
497.36	-0.04
497.558	0
497.756	0.01
497.954	-0.02
498.152	-0.03
498.35	-0.01
498.548	-0.01
498.746	-0.01
498.944	-0.03
499.142	-0.02
499.34	-0.03
499.538	-0.03
499.736	-0.03
499.933	0.02
500.131	0.03
500.329	0
500.527	0.02
500.725	0.03
500.922	0.04
501.12	0
501.318	0.01
501.516	-0.04
501.713	0.01
501.911	-0.01
502.109	-0.04
502.306	-0.01
502.504	-0
502.701	-0.03
502.899	-0.01
503.097	0.03
503.294	-0.01
503.492	-0.01
503.689	-0
503.887	0.02
504.084	0.05
504.282	0
504.479	-0.03
504.677	-0
504.874	-0.03
505.072	-0.01
505.269	-0.04
505.466	0.02
505.664	0.01
505.861	-0.03
506.059	-0.03
506.256	0.03
506.453	-0.01
506.651	0.03
506.848	0.02
507.045	0
507.242	0.01
507.44	-0.03
507.637	-0.01
507.834	-0.01
508.031	0.02
508.229	-0.02
508.426	-0.02
508.623	0.01
508.82	-0.02
509.017	-0.05
509.214	-0.02
509.411	-0
509.608	-0.01
509.805	-0.03
510.003	-0.02
510.2	-0.04
510.397	0.01
510.594	-0.04
510.791	-0.03
510.988	-0.03
511.184	0.04
511.381	0
511.578	-0.03
511.775	0.01
511.972	-0.02
512.169	-0.02
512.366	0
512.563	0.02
512.76	-0.02
512.956	0.01
513.153	-0.03
513.35	0.01
513.547	-0.03
513.744	-0.02
513.94	-0.04
514.137	-0.01
514.334	-0
514.53	0
514.727	-0.03
514.924	0.06
515.12	-0.03
515.317	-0.03
515.514	-0.01
515.71	-0.02
515.907	-0.02
516.103	0.01
516.3	-0
516.497	0.03
516.693	0.02
516.89	0.01
517.086	-0.01
517.283	0.04
517.479	0.01
517.676	0.01
517.872	-0.02
518.068	-0.01
518.265	-0.02
518.461	-0.02
518.658	-0.03
518.854	-0
519.05	-0.02
519.247	-0.02
519.443	0
519.639	0
519.836	0.01
520.032	-0.01
520.228	-0
520.424	0.04
520.621	0.02
520.817	-0.02
521.013	0
521.209	0
521.405	0.02
521.601	-0.02
521.798	-0.01
521.994	0.03
522.19	-0.02
522.386	-0.05
522.582	-0.01
522.778	0
522.974	-0.01
523.17	-0.01
523.366	-0.02
523.562	0.03
523.758	0.01
523.954	-0.03
524.15	-0.02
524.346	0
524.542	-0.04
524.738	-0.04
524.934	-0.02
525.129	0
525.325	-0.01
525.521	-0.01
525.717	0.01
525.913	0
526.109	-0.01
526.304	-0.03
526.5	0.02
526.696	0.03
526.892	0
527.087	-0
527.283	-0.04
527.479	0
527.674	-0.02
527.87	-0.02
528.066	-0.02
528.261	0.01
528.457	-0
528.653	-0.02
528.848	-0.03
529.044	0.02
529.239	-0.01
529.435	0.04
529.63	0.01
529.826	0.05
530.021	-0.01
530.217	-0
530.412	-0.02
530.608	-0.04
530.803	-0.02
530.999	-0.01
531.194	-0.05
531.389	0.01
531.585	-0.05
531.78	-0.02
531.975	0
532.171	0.03
532.366	0
532.561	0.01
532.757	-0.02
532.952	0
533.147	0.02
533.342	-0.03
533.538	-0.03
533.733	0.02
533.928	0.01
534.123	-0.02
534.318	-0.03
534.513	-0
534.709	0
534.904	-0.02
535.099	-0.01
535.294	-0
535.489	-0
535.684	-0.03
535.879	-0.03
536.074	0.01
536.269	-0.03
536.464	-0
536.659	-0.03
536.854	-0.01
537.049	-0
537.244	0.02
537.439	-0.02
537.634	0.04
537.828	0
538.023	-0.01
538.218	-0.05
538.413	0
538.608	-0.04
538.803	-0
538.997	-0.04
539.192	0.02
539.387	-0
539.582	-0.01
539.776	-0
539.971	-0.02
540.166	-0.01
540.36	-0.06
540.555	0.01
540.75	-0.02
540.944	0.01
541.139	-0.04
541.334	-0.02
541.528	0.02
541.723	0.01
541.917	-0.03
542.112	-0.05
542.306	-0.02
542.501	-0.02
542.695	-0.02
542.89	-0.03
543.084	-0.01
543.279	-0.02
543.473	-0
543.668	-0.01
543.862	-0.04
544.056	-0
544.251	-0.02
544.445	-0.02
544.64	0.01
544.834	-0.02
545.028	-0.02
545.222	-0
545.417	-0
545.611	-0.02
545.805	-0
546	0
546.194	-0.01
546.388	-0.01
546.582	0.01
546.776	-0.01
546.97	-0.02
547.165	-0
547.359	0.02
547.553	-0
547.747	0.01
547.941	0
548.135	-0.01
548.329	0.01
548.523	0.01
548.717	-0.01
548.911	-0.02
549.105	0
549.299	-0.01
549.493	0.01
549.687	0.02
549.881	-0.01
550.075	-0.02
550.269	-0.05
550.463	0
550.657	-0.04
550.85	-0.01
551.044	-0.02
551.238	0.02
551.432	-0.02
551.626	-0.03
551.82	0.02
552.013	-0.02
552.207	-0.03
552.401	0
552.594	0
552.788	-0.01
552.982	-0
553.176	-0.03
553.369	-0.01
553.563	0.01
553.756	-0.05
553.95	-0.01
554.144	0.01
554.337	0.01
554.531	-0.01
554.724	0
554.918	-0
555.111	-0
555.305	0.01
555.498	0.05
555.692	0.01
555.885	-0.01
556.079	-0
556.272	-0.01
556.466	0.03
556.659	-0
556.852	-0.03
557.046	-0.02
557.239	0.01
557.432	-0.03
557.626	-0.03
557.819	-0
558.012	0.01
558.206	-0
558.399	-0
558.592	0.02
558.785	-0.02
558.979	-0
559.172	0.01
559.365	-0.02
559.558	0.01
559.751	-0.02
559.944	-0.02
560.138	-0.02
560.331	-0.02
560.524	-0.02
560.717	0
560.91	-0.01
561.103	0.02
561.296	0.02
561.489	0
561.682	-0.01
561.875	0.02
562.068	0.03
562.261	0.02
562.454	0.02
562.647	-0.01
562.84	0
563.032	-0.02
563.225	-0.01
563.418	-0.02
563.611	-0.02
563.804	-0
563.997	-0.05
564.19	-0.06
564.382	0
564.575	-0.02
564.768	-0
564.961	0
565.153	-0.02
565.346	0.02
565.539	0.02
565.731	0
565.924	0.03
566.117	0.02
566.309	-0.01
566.502	0
566.695	0.01
566.887	-0.02
567.08	-0.05
567.272	-0.02
567.465	-0.04
567.657	-0.02
567.85	-0
568.042	0.02
568.235	0.03
568.427	-0.02
568.62	0.01
568.812	0
569.005	-0.01
569.197	-0.06
569.389	0.01
569.582	-0.02
569.774	-0.01
569.966	-0.05
570.159	-0.03
570.351	0.01
570.543	-0.03
570.736	-0.03
570.928	-0.04
571.12	-0
571.312	-0.03
571.505	-0.03
571.697	0.02
571.889	-0.03
572.081	-0.02
572.273	-0.02
572.465	0.03
572.658	-0
572.85	0
573.042	-0.01
573.234	-0.01
573.426	0.02
573.618	-0.07
573.81	0.01
574.002	0.03
574.194	0.04
574.386	-0.04
574.578	-0.08
574.77	-0.03
574.962	-0
575.154	-0.05
575.346	-0.03
575.538	0.03
575.729	-0.03
575.921	-0.02
576.113	-0.05
576.305	0.03
576.497	-0.02
576.689	-0.01
576.88	-0.03
577.072	0.01
577.264	-0.01
577.456	-0.02
577.647	-0.07
577.839	-0.01
578.031	0.03
578.223	-0.05
578.414	-0.05
578.606	0.01
578.798	-0.02
578.989	-0.03
579.181	-0.03
579.372	-0.01
579.564	-0.03
579.755	-0.01
579.947	-0
580.139	0.02
580.33	-0.06
580.522	-0.03
580.713	-0.09
580.905	-0.03
581.096	0.03
581.287	-0.01
581.479	-0.02
581.67	0
581.862	-0.01
582.053	-0.04
582.244	-0.06
582.436	-0.01
582.627	-0.02
582.818	-0.04
583.01	-0.04
583.201	0.02
583.392	0.02
583.583	-0
583.775	-0.02
583.966	-0.03
584.157	-0.02
584.348	-0.04
584.54	-0.04
584.731	0
584.922	0
585.113	-0.02
585.304	0.01
585.495	0.01
585.686	-0.02
585.877	0
586.068	0
586.259	0
586.45	0.01
586.641	-0.04
586.832	-0.06
587.023	0.01
587.214	-0.02
587.405	-0.02
587.596	-0.03
587.787	0.02
587.978	-0.02
588.169	-0.03
588.36	-0.04
588.551	0.01
588.742	-0.04
588.932	-0.01
589.123	-0.01
589.314	0.01
589.505	0
589.696	-0.02
589.886	-0.05
590.077	-0.06
590.268	0.01
590.458	-0.04
590.649	-0.06
590.84	0
591.03	-0.03
591.221	-0.05
591.412	-0.04
591.602	-0
591.793	0.03
591.984	-0.02
592.174	-0.02
592.365	0.07
592.555	-0.05
592.746	0.02
592.936	-0.01
593.127	-0
593.317	0.03
593.508	-0.02
593.698	-0.01
593.889	-0.02
594.079	-0.01
594.269	-0.02
594.46	-0.01
594.65	-0.01
594.84	-0.03
595.031	-0.06
595.221	-0.04
595.411	-0.02
595.602	0.03
595.792	0
595.982	-0.04
596.172	0.03
596.363	0.01
596.553	0
596.743	-0.02
596.933	-0.01
597.123	0.02
597.314	-0.03
597.504	-0.05
597.694	0.03
597.884	0.02
598.074	0
598.264	-0.03
598.454	0.01
598.644	-0.01
598.834	-0.03
599.024	-0.06
599.214	-0.02
599.404	0.04
599.594	-0.04
599.784	-0.04
599.974	0.08
600.164	0.01
600.354	-0.04
600.544	-0.07
600.734	-0
600.924	0.05
601.114	-0.04
601.303	-0.03
601.493	-0
601.683	-0.01
601.873	0.01
602.063	-0.07
602.252	0.02
602.442	-0.05
602.632	-0.04
602.821	-0.04
603.011	0.02
603.201	-0.04
603.39	-0.05
603.58	-0.06
603.77	0.01
603.959	0.01
604.149	0.01
604.339	-0.03
604.528	0.01
604.718	0.02
604.907	-0.03
605.097	-0.03
605.286	-0.02
605.476	0.04
605.665	0
605.855	-0.02
606.044	-0
606.234	0.01
606.423	-0.04
606.612	-0.06
606.802	0.02
606.991	0.03
607.181	0.01
607.37	-0.09
607.559	-0.02
607.749	-0.03
607.938	-0.04
608.127	-0.04
608.316	-0.04
608.506	0.03
608.695	-0.02
608.884	-0.05
609.073	-0.03
609.263	0.02
609.452	0.01
609.641	0
609.83	-0.05
610.019	-0.03
610.208	-0.05
610.397	0
610.586	0.02
610.775	-0.04
610.965	-0.04
611.154	-0.04
611.343	-0
611.532	-0.01
611.721	-0.04
611.91	-0.05
612.099	-0.01
612.287	-0.04
612.476	-0.05
612.665	-0
612.854	-0.05
613.043	0.01
613.232	-0.04
613.421	-0.06
613.61	-0
613.798	-0.06
613.987	0.01
614.176	-0.01
614.365	0.01
614.554	-0.02
614.742	0
614.931	-0.06
615.12	-0.01
615.309	-0.02
615.497	-0.02
615.686	-0.04
615.875	-0.03
616.063	-0.02
616.252	-0.03
616.44	-0.02
616.629	-0
616.818	0.03
617.006	-0.03
617.195	-0.04
617.383	-0
617.572	-0.05
617.76	-0.02
617.949	-0.03
618.137	0.01
618.326	0.08
618.514	-0.02
618.703	-0.04
618.891	0.03
619.079	-0.1
619.268	0
619.456	-0.03
619.644	0.06
619.833	-0
620.021	-0.03
620.209	-0.07
620.398	-0.02
620.586	0
620.774	0.01
620.962	-0.02
621.151	0.03
621.339	-0.01
621.527	-0.05
621.715	-0.08
621.903	-0.02
622.092	-0.04
622.28	-0.01
622.468	-0.02
622.656	-0.04
622.844	-0
623.032	-0.05
623.22	-0.07
623.408	0.01
623.596	-0.01
623.784	-0.01
623.972	-0.03
624.16	-0.02
624.348	0.02
624.536	-0.01
624.724	-0.05
624.912	0.03
625.1	0.02
625.288	-0.04
625.476	-0.03
625.664	0.04
625.851	-0.06
626.039	0
626.227	0
626.415	-0.03
626.603	-0.09
626.79	-0.03
626.978	-0.01
627.166	0.01
627.354	-0.03
627.541	-0.06
627.729	-0.07
627.917	0.03
628.104	0.02
628.292	-0.01
628.48	-0.04
628.667	-0.02
628.855	-0.02
629.042	-0
629.23	-0.01
629.418	-0.05
629.605	-0.04
629.793	-0.01
629.98	-0.02
630.168	-0.02
630.355	-0.03
630.543	0.01
630.73	-0.07
630.917	0.01
631.105	0.04
631.292	-0.05
631.48	-0.03
631.667	0.05
631.854	-0.01
632.042	0
632.229	-0.09
632.416	-0.04
632.604	-0.01
632.791	-0.06
632.978	0.03
633.165	0.01
633.353	0.05
633.54	-0.01
633.727	-0.07
633.914	-0.04
634.101	0.01
634.289	0.01
634.476	-0.03
634.663	-0.05
634.85	0.01
635.037	-0.07
635.224	-0.08
635.411	0.04
635.598	0.03
635.785	-0.05
635.972	-0
636.159	-0
636.346	-0.05
636.533	-0.05
636.72	-0.02
636.907	-0.02
637.094	0.03
637.281	-0.03
637.468	-0.01
637.655	-0.02
637.842	0.02
638.029	-0.03
638.215	0.02
638.402	-0.01
638.589	-0.03
638.776	-0
638.963	-0.02
639.149	-0
639.336	0.06
639.523	-0.04
639.709	-0.02
639.896	-0.04
640.083	0.05
640.27	-0.02
640.456	-0.02
640.643	-0.01
640.829	-0.07
641.016	0.02
641.203	-0.05
641.389	-0
641.576	0
641.762	-0
641.949	-0.06
642.135	0.01
642.322	-0
642.508	-0.05
642.695	-0.04
642.881	-0.02
643.068	-0.01
643.254	-0.01
643.441	0.02
643.627	-0.03
643.813	-0.05
644	0
644.186	-0.03
644.372	-0.01
644.559	0.01
644.745	-0.06
644.931	-0.04
645.118	-0.03
645.304	-0.01
645.49	-0.08
645.676	-0.03
645.862	-0
646.049	0.07
646.235	-0.01
646.421	0.03
646.607	0.09
646.793	-0.04
646.979	-0.05
647.165	-0.03
647.352	0.01
647.538	0.03
647.724	-0.03
647.91	-0.03
648.096	0.03
648.282	0.01
648.468	-0.02
648.654	-0.04
648.84	0
649.026	0
649.212	-0.01
649.397	-0.08
649.583	-0.06
649.769	0.03
649.955	-0.01
650.141	-0.01
650.327	0.02
650.513	-0.03
650.698	-0.01
650.884	-0.09
651.07	-0.01
651.256	-0
651.442	-0.06
651.627	-0.05
651.813	0.01
651.999	0.03
652.184	-0
652.37	-0.05
652.556	-0.05
652.741	0.03
652.927	-0.07
653.113	-0.04
653.298	-0.01
653.484	0
653.669	-0.09
653.855	-0.01
654.04	-0
654.226	0.04
654.412	-0.03
654.597	-0.03
654.782	-0.01
654.968	0.03
655.153	-0.02
655.339	-0.06
655.524	-0.04
655.71	-0.01
655.895	-0.03
656.08	-0.03
656.266	0.02
656.451	-0
656.636	-0.06
656.822	-0.03
657.007	-0.06
657.192	0.01
657.378	-0.06
657.563	-0.01
657.748	0.01
657.933	-0.01
658.118	-0.03
658.304	-0.07
658.489	0.01
658.674	0.02
658.859	-0.04
659.044	-0.01
659.229	0.02
659.414	-0.05
659.599	-0.04
659.785	-0.07
659.97	-0.04
660.155	0.03
660.34	-0
660.525	-0.04
660.71	-0.04
660.895	0.02
661.08	-0.03
661.264	-0.06
661.449	0.03
661.634	0.05
661.819	-0.01
662.004	0.02
662.189	-0.08
662.374	-0.04
662.559	-0.04
662.743	-0.08
662.928	-0.01
663.113	-0.03
663.298	-0.07
663.483	-0.07
663.667	-0.02
663.852	-0.06
664.037	0.05
664.221	-0.04
664.406	-0.01
664.591	-0.01
664.775	0
664.96	-0.06
665.145	0.01
665.329	-0.02
665.514	-0.03
665.698	-0.04
665.883	-0.12
666.068	0.04
666.252	-0.01
666.437	-0.06
666.621	-0.04
666.806	-0.01
666.99	-0.01
667.174	-0.07
667.359	0.03
667.543	-0.09
667.728	-0.02
667.912	-0.12
668.096	0.03
668.281	-0.03
668.465	-0.03
668.649	-0.02
668.834	-0.05
669.018	-0.04
669.202	-0.03
669.387	-0.06
669.571	0.04
669.755	-0.07
669.939	-0.07
670.124	0.02
670.308	0.05
670.492	0.02
670.676	-0.01
670.86	-0.04
671.044	-0.06
671.228	0.02
671.413	-0.05
671.597	-0.06
671.781	-0.04
671.965	-0.01
672.149	-0.03
672.333	-0.06
672.517	-0.05
672.701	0.03
672.885	-0.04
673.069	-0.08
673.253	0.04
673.437	-0.02
673.621	-0.07
673.804	-0.04
673.988	-0.01
674.172	-0.05
674.356	-0.07
674.54	-0.05
674.724	0.1
674.908	-0.02
675.091	-0.01
675.275	0.02
675.459	0.03
675.643	0.03
675.826	-0.01
676.01	-0.02
676.194	-0.05
676.377	-0.02
676.561	0.02
676.745	0.01
676.928	0.01
677.112	0.05
677.296	-0.05
677.479	-0.05
677.663	-0.02
677.846	-0.02
678.03	-0.06
678.213	-0.03
678.397	0
678.58	-0.05
678.764	-0.02
678.947	-0.06
679.131	-0.08
679.314	-0.02
679.498	-0.06
679.681	0.01
679.865	0.02
680.048	-0.04
680.231	-0.05
680.415	-0.04
680.598	-0.04
680.781	-0.06
680.965	-0.04
681.148	-0.04
681.331	-0.07
681.514	0.02
681.698	-0.05
681.881	-0
682.064	-0.03
682.247	-0.03
682.43	-0.11
682.614	-0.06
682.797	0.05
682.98	0.01
683.163	-0.11
683.346	0.04
683.529	-0.03
683.712	-0.07
683.895	-0
684.078	-0.04
684.261	-0.05
684.444	0.01
684.627	-0.01
684.81	-0.07
684.993	-0.03
685.176	0.03
685.359	-0.07
685.542	-0.01
685.725	0.03
685.908	0.02
686.091	-0.02
686.274	0.02
686.457	-0.01
686.639	-0.04
686.822	0.02
687.005	-0.03
687.188	0.05
687.371	0.11
687.553	-0.01
687.736	-0.06
687.919	0.05
688.102	0.07
688.284	-0.03
688.467	-0.02
688.65	-0.01
688.832	-0.06
689.015	-0.03
689.197	-0.1
689.38	0.07
689.563	0.12
689.745	-0.05
689.928	-0.05
690.11	-0.02
690.293	0
690.475	-0.08
690.658	-0.02
690.84	0.01
691.023	-0.03
691.205	-0.05
691.388	-0.02
691.57	0.01
691.752	0.01
691.935	-0.13
692.117	-0.03
692.3	-0.02
692.482	-0.01
692.664	0.04
692.847	0.01
693.029	0.05
693.211	0.07
693.393	-0.06
693.576	-0.06
693.758	-0.03
693.94	-0.04
694.122	-0.08
694.304	-0.03
694.487	-0.03
694.669	0.09
694.851	-0.08
695.033	-0.05
695.215	-0.05
695.397	-0.07
695.579	0.02
695.761	-0.05
695.943	-0.07
696.125	0.02
696.308	-0.02
696.49	-0.12
696.671	0.12
696.853	-0.02
697.035	0.17
697.217	-0.04
697.399	0.04
697.581	-0.04
697.763	-0.08
697.945	-0.05
698.127	-0.03
698.309	0.05
698.491	0.01
698.672	0.04
698.854	0.12
699.036	0.08
699.218	0.01
699.399	-0.02
699.581	0.04
699.763	-0
699.945	-0.11
700.126	-0.09
700.308	-0.01
700.49	-0.04
700.671	-0.1
700.853	-0.05
701.035	-0.05
701.216	0.04
701.398	-0.08
701.579	-0.04
701.761	0.03
701.943	-0.04
702.124	-0.09
702.306	-0.01
702.487	0.1
702.669	-0.03
702.85	-0.04
703.031	-0.04
703.213	0.07
703.394	0.01
703.576	-0.08
703.757	0.1
703.938	0.05
704.12	0.1
704.301	-0.06
704.483	-0.11
704.664	0.06
704.845	0.05
705.026	0.04
705.208	-0
705.389	-0.03
705.57	0.03
705.751	-0.04
705.933	-0.04
706.114	0.02
706.295	-0.04
706.476	-0.08
706.657	0.06
706.838	-0.02
707.02	0.03
707.201	-0.01
707.382	-0.06
707.563	0.07
707.744	-0
707.925	-0.09
708.106	-0.11
708.287	0.05
708.468	0.07
708.649	-0.07
708.83	0.06
709.011	-0.01
709.192	-0.03
709.373	-0.09
709.554	-0
709.734	-0.04
709.915	0.08
710.096	-0.02
710.277	-0.14
710.458	-0.09
710.639	0.03
710.819	-0.15
711	-0.03
711.181	0.03
711.362	0.04
711.542	-0.03
711.723	-0.02
711.904	0.03
712.085	0.03
712.265	-0.06
712.446	-0.09
712.627	-0.02
712.807	-0.04
712.988	-0.02
713.168	-0.14
713.349	0.08
713.53	-0.11
713.71	-0.12
713.891	-0.1
714.071	0.06
714.252	-0.12
714.432	-0.07
714.613	-0.08
714.793	-0
714.974	0.07
715.154	0.12
715.334	0.01
715.515	0.09
715.695	-0.02
715.876	-0.02
716.056	-0.07
716.236	-0.02
716.417	-0.05
716.597	-0.01
716.777	0.12
716.957	-0.04
717.138	-0.02
717.318	-0.03
717.498	-0.11
717.678	0.02
717.859	0.01
718.039	-0.11
718.219	-0
718.399	0.05
718.579	-0.04
718.759	-0.12
718.939	-0.06
719.12	-0.01
719.3	0
719.48	-0.17
719.66	-0.13
719.84	0.07
720.02	-0.03
720.2	-0.1
720.38	0
720.56	0.03
720.74	-0.09
720.92	0.02
721.1	0.11
721.279	0.07
721.459	0.03
721.639	-0.12
721.819	-0.05
721.999	-0.04
722.179	0.04
722.359	-0.11
722.538	-0.07
722.718	-0.01
722.898	-0.1
723.078	-0.13
723.257	-0.04
723.437	-0.01
723.617	-0.05
723.797	-0.07
723.976	-0.07
724.156	0.01
724.336	0.07
724.515	0.14
724.695	-0.1
724.874	0
725.054	0.02
725.234	-0.09
725.413	-0.03
725.593	-0.12
725.772	-0.03
725.952	-0.09
726.131	0.04
726.311	-0.05
726.49	-0.03
726.67	-0.1
726.849	-0.08
727.028	-0.04
727.208	-0.03
727.387	-0.08
727.567	-0.05
727.746	-0.01
727.925	-0.06
728.105	-0.14
728.284	-0.1
728.463	-0.29
728.643	0.03
728.822	-0.12
729.001	-0.08
729.18	-0.1
729.359	0.13
729.539	0.04
729.718	-0.07
729.897	0.02
730.076	-0.03
730.255	-0.16
730.434	0.02
730.614	0
730.793	0.09
730.972	-0.1
731.151	-0.02
731.33	0.04
731.509	0.02
731.688	0
731.867	0.04
732.046	-0.09
732.225	0.22
732.404	-0.09
732.583	-0.14
732.762	-0.12
732.941	0.12
733.12	0.07
733.298	-0.13
733.477	0.03
733.656	-0.08
733.835	-0.13
734.014	0.07
734.193	-0.07
734.371	-0
734.55	-0.03
734.729	-0.15
734.908	-0
735.086	0.05
735.265	-0.02
735.444	-0.18
735.623	-0.12
735.801	-0.16
735.98	-0.04
736.159	-0.07
736.337	0.15
736.516	-0.08
736.694	-0.01
736.873	-0.1
737.052	0.08
737.23	0.07
737.409	-0.13
737.587	0.1
737.766	-0.22
737.944	-0.12
738.123	-0.07
738.301	0.13
738.479	-0.19
738.658	0.02
738.836	-0.18
739.015	-0.03
739.193	-0.03
739.371	-0.2
739.55	0
739.728	-0.21
739.906	0.02
740.085	0.11
740.263	-0.08
740.441	-0.25
740.62	0.16
740.798	0.04
740.976	-0.03
741.154	-0.13
741.332	0.11
741.511	-0.05
741.689	0.02
741.867	-0.02
742.045	-0.11
742.223	-0.09
742.401	-0.07
742.579	-0.07
742.757	0.04
742.935	-0.15
743.114	0.02
743.292	-0.09
743.47	-0.04
743.648	0.11
743.826	-0.21
744.004	0.01
744.181	0.09
744.359	-0.09
744.537	-0.06
744.715	-0.15
744.893	0.01
745.071	-0.01
745.249	-0.1
745.427	-0.02
745.605	0.06
745.782	0.11
745.96	0.07
746.138	0.08
746.316	0.11
746.493	-0.09
746.671	-0.1
746.849	-0.07
747.027	0.2
747.204	-0.14
747.382	0.01
747.56	-0.22
747.737	-0.16
747.915	-0.16
748.093	0.05
748.27	-0.09
748.448	-0.06
748.625	-0.16
748.803	-0.07
748.98	-0.07
749.158	-0.03
749.335	-0.05
749.513	-0.1
749.69	-0.05
749.868	-0.08
750.045	0
750.223	-0.03
750.4	-0.26
750.578	0.17
750.755	-0.01
750.932	-0.11
751.11	0.04
751.287	-0.11
751.464	0.15
751.642	-0.18
751.819	0
751.996	-0.04
752.173	-0.05
752.351	-0.24
752.528	-0.03
752.705	-0.17
752.882	-0.1
753.06	0.02
753.237	-0.02
753.414	0.12
753.591	0.23
753.768	-0.04
753.945	-0.02
754.122	-0.06
754.299	0.04
754.476	-0.08
754.654	-0.15
754.831	0.02
755.008	0.05
755.185	-0.15
755.362	-0.11
755.539	0.11
755.716	-0.06
755.892	-0.06
756.069	-0.05
756.246	0.03
756.423	-0.06
756.6	0.05
756.777	-0.07
756.954	0.05
757.131	-0.06
757.307	-0.06
757.484	-0.12
757.661	-0.01
757.838	-0.02
758.015	-0.13
758.191	0.02
758.368	0.03
758.545	0.16
758.721	0.12
758.898	-0.18
759.075	0.05
759.251	0.18
759.428	-0.02
759.605	-0.16
759.781	-0.01
759.958	-0.06
760.134	-0.18
760.311	-0.12
760.488	0.09
760.664	0.14
760.841	0.01
761.017	-0.04
761.194	0.18
761.37	0.08
761.547	0
761.723	-0.11
761.899	0.16
762.076	-0.2
762.252	-0.15
762.429	-0.06
762.605	0.04
762.781	-0.08
762.958	0.05
763.134	-0.08
763.31	-0.03
763.486	0.15
763.663	-0.14
763.839	0.04
764.015	-0.34
764.191	0.01
764.368	0.01
764.544	-0.11
764.72	-0.04
764.896	0.05
765.072	-0.01
765.248	-0.13
765.425	-0.07
765.601	-0.03
765.777	-0.07
765.953	-0.22
766.129	-0.11
766.305	-0.14
766.481	-0.01
766.657	-0.06
766.833	0.09
767.009	-0.14
767.185	-0.12
767.361	0
767.537	-0.17
767.713	0.21
767.889	-0.18
768.065	-0.04
768.24	-0.04
768.416	0.2
768.592	-0.15
768.768	-0.12
768.944	0.09
769.12	-0.12
769.295	-0.14
769.471	-0.2
769.647	-0.08
769.823	0.17
769.998	-0.19
770.174	-0.08
770.35	0.29
770.525	0.31
770.701	0.07
770.877	-0.07
771.052	-0.19
771.228	0.16
771.403	-0.01
771.579	0.19
771.755	0.26
771.93	-0.15
772.106	-0.28
772.281	-0.32
772.457	0.02
772.632	-0.08
772.808	-0.28
772.983	-0.09
773.159	-0.2
773.334	0.19
773.509	-0.13
773.685	-0.1
773.86	0.26
774.036	0.17
774.211	0.03
774.386	-0.17
774.562	-0.07
774.737	-0.16
774.912	-0.27
775.087	0.01
775.263	-0.09
775.438	-0.15
775.613	-0.01
775.788	-0.07
775.964	0.05
776.139	0.46
776.314	-0.32
776.489	0.03
776.664	0.05
776.839	-0.21
777.014	-0.02
777.19	0.13
777.365	0.21
777.54	0.07
777.715	-0.15
777.89	-0.04
778.065	-0.35
778.24	-0.01
778.415	0.13
778.59	-0.21
778.765	-0.14
778.94	0.06
779.115	-0.2
779.289	-0.07
779.464	-0.08
779.639	-0.09
779.814	-0.24
779.989	-0.18
780.164	0.21
780.339	0.01
780.513	-0.22
780.688	-0.18
780.863	-0.04
781.038	0.15
781.212	-0.25
781.387	-0.24
781.562	0.43
781.737	0
781.911	0.15
782.086	-0.19
782.261	-0.05
782.435	0.11
782.61	-0.1
782.784	-0.05
782.959	0.33
783.134	-0.09
783.308	-0.22
783.483	-0.15
783.657	0.4
783.832	0.06
784.006	-0.34
784.181	-0.04
784.355	0.13
784.53	-0.28
784.704	-0.28
784.878	0.2
785.053	0.01
785.227	0.18
785.402	0.31
785.576	-0.39
785.75	0.04
785.925	-0.06
786.099	-0
786.273	0.03
786.448	0.11
786.622	0.01
786.796	-0.17
786.97	-0.19
787.145	0.43
787.319	-0.17
787.493	-0.07
787.667	-0.43
787.841	0.01
788.015	0.18
788.19	-0.13
788.364	-0.09
788.538	-0.01
788.712	0.19
788.886	-0.13
789.06	0.05
789.234	0.13
789.408	-0.2
789.582	-0.11
789.756	-0.03
789.93	-0.26
790.104	-0.18
790.278	-0.27
790.452	-0.4
790.626	0.06
790.8	-0.17
790.973	0.21
791.147	0.08
791.321	0.2
791.495	0.08
791.669	-0.04
791.843	-0.2
792.016	0.02
792.19	0.26
792.364	-0.45
792.538	0.49
792.711	0.1
792.885	-0.03
793.059	-0.24
793.233	-0.66
793.406	0.33
793.58	0.03
793.754	-0.03
793.927	-0.13
794.101	0.24
794.274	0.06
794.448	0.07
794.622	-0.35
794.795	0.38
794.969	-0.06
795.142	0.18
795.316	-0.13
795.489	-0.08
795.663	0.41
795.836	-0.12
796.009	-0.42
796.183	0.55
796.356	0.17
796.53	0.12
796.703	0.03
796.876	0.61
797.05	-0.29
797.223	-0.22
797.396	0.01
797.57	0.12
797.743	0.48
797.916	-0.11
798.09	0.04
798.263	0.18
798.436	0.02
798.609	0.04
798.782	-0.16
798.956	0.18
799.129	-0.08
799.302	0.03
799.475	-0.19
799.648	-0.22
799.821	-0.37
799.994	0.06
800.167	-0.53
800.34	-0.06
800.514	0.22
800.687	-0.34
800.86	-0.25
801.033	-0.03
801.206	-0.05
801.379	-0.59
801.551	0.34
801.724	0.24
801.897	0.34
802.07	-0.11
802.243	-0.36
802.416	-0.05
802.589	-0.24
802.762	-0.06
802.935	-0.1
803.107	0.04
803.28	0.2
803.453	0.07
803.626	-0.19
803.798	-0.1
803.971	-0.02
804.144	0.21
804.317	0.21
804.489	0.42
804.662	0.1
804.835	-0.13
805.007	-0.2
805.18	0.45
805.353	-0.01
805.525	-0.3
805.698	-0.45
805.87	0.35
806.043	0.15
806.215	-0.78
806.388	-0.37
806.56	0.06
806.733	0.14
806.905	-0.02
807.078	-0.24
807.25	-0.3
807.423	0.13
807.595	-0.03
807.768	0
807.94	0.34
808.112	0.36
808.285	-0.03
808.457	-0.48
808.629	-0.09
808.802	0.06
808.974	-0.13
809.146	-0.19
809.318	-0.34
809.491	0.06
809.663	-0.07
809.835	-0.33
810.007	0.41
810.18	-0.28
810.352	-0.59
810.524	-0.19
810.696	0.26
810.868	0.42
811.04	-0.09
811.212	-0.05
811.384	0.24
811.556	0.2
811.728	0.14
811.901	0.65
812.073	0.16
812.245	0.18
812.417	-0.06
812.589	-0.39
812.76	0.04
812.932	0.13
813.104	0.2
813.276	0
813.448	0.04
813.62	-0.11
813.792	0.09
813.964	-0.32
814.136	0.28
814.307	-0.27
814.479	-0.48
814.651	-0.05
814.823	0.55
814.995	-0.26
815.166	0.05
815.338	-0.34
815.51	-0.93
815.681	0.73
815.853	-0.03
816.025	-0.13
816.196	0.45
816.368	0.55
816.54	-0.31
816.711	-0.71
816.883	0.18
817.054	0.94
817.226	-0.74
817.398	0.04
817.569	-0.35
817.741	0.1
817.912	-0.64
818.084	0.14
818.255	0.19
818.426	-0.45
818.598	-0.21
818.769	-0.68
818.941	0.27
819.112	0.64
819.283	0.46
819.455	-0.54
819.626	0.14
819.798	0.49
819.969	0.13
820.14	0.11
820.311	-0.13
820.483	0.19
820.654	-0.42
820.825	0.01
820.996	-0.28
821.168	-0.24
821.339	-0.43
821.51	-0.92
821.681	-0.26
821.852	0.09
822.023	-0.5
822.195	-0.43
822.366	0.51
822.537	0.36
822.708	0.08
822.879	-0.39
823.05	0.27
823.221	0.03
823.392	0.39
823.563	-0.21
823.734	0.06
823.905	-0.1
824.076	0.21
824.247	-0.33
824.418	-0.21
824.589	0.52
824.759	-0.45
824.93	-0.19
825.101	-0.47
825.272	0.01
825.443	-0.1
825.614	0.46
825.784	-0.41
825.955	0.5
826.126	-0.1
826.297	-0.29
826.467	0.99
826.638	0.8
826.809	-0.96
826.98	-0.23
827.15	0.42
827.321	-0.53
827.492	0.78
827.662	0.29
827.833	0.9
828.003	0.74
828.174	-0.56
828.345	-0.84
828.515	0.34
828.686	0.35
828.856	-0.95
829.027	-0.16
829.197	-0.28
829.368	0.07
829.538	-0.22
829.709	-0.38
829.879	0.13
830.049	-0.3
830.22	-0.56
830.39	-0.43
830.56	0.59
830.731	-0.68
830.901	-0.26
831.072	-0.21
831.242	-0
831.412	0.47
831.582	-0.48
831.753	-0.83
831.923	0.62
832.093	-0.41
832.263	-0.18
832.434	-0.62
832.604	-0.34
832.774	1.02
832.944	-0.55
833.114	-0.59
833.284	-0.22
833.454	-0.9
833.624	-0.94
833.795	-0.77
833.965	0.78
834.135	0.12
834.305	-0.84
834.475	-0.74
834.645	-0.53
834.815	0.23
834.985	-0.58
835.155	-0.2
835.325	0.48
835.494	-0.27
835.664	-0.75
835.834	-0.67
836.004	-0.4
836.174	-0.18
836.344	-0.59
836.514	-1.6
836.684	-0.69
836.853	-0.17
837.023	0.47
837.193	-0.89
837.363	0.12
837.532	0.66
837.702	-0.51
837.872	-1.32
838.041	0.85
838.211	0.94
838.381	-0.2
838.55	-0.6
838.72	1.8
838.89	0.76
839.059	-0.43
839.229	-0.46
839.398	1.35
839.568	-0.27
839.738	-0.05
839.907	0.2
840.077	0.3
840.246	-0.92
840.416	-0.39
840.585	-0.79
840.755	1.68
840.924	1.07
841.093	-0.98
841.263	-0.76
841.432	-0.18
841.602	-0.73
841.771	-1.02
841.94	0.01
842.11	1.33
842.279	0.69
842.448	-0.94
842.617	-0.98
842.787	0.97
842.956	-1.11
843.125	-0.18
843.294	-0.21
843.464	1.07
843.633	-0.07
843.802	-0.95
843.971	-0.06
844.14	0.74
844.309	0.92
844.479	-0.53
844.648	-0.86
844.817	-0.66
844.986	0.68
845.155	0.03
845.324	-0.16
845.493	-0.41
845.662	-0.47
845.831	0.4
846	-0.1
846.169	0.06
846.338	1.77
846.507	-0.2
846.676	0.17
846.844	-0.33
847.013	-0.38
847.182	-0.03
847.351	0.44
847.52	-0.67
847.689	0.16
847.858	-0.06
848.026	-1.13
848.195	-0.81
848.364	-0.61
848.533	-0.36
848.701	-0.55
848.87	-0.56
849.039	0.89
849.207	0.9
849.376	0.81
849.545	1.38
849.713	-0.18
849.882	-0.66
850.051	-0.43
850.219	-0.52
850.388	0.44
850.556	-1.26
850.725	-0.18
850.893	-0.17
851.062	0.25
851.23	0.35
851.399	-1.94
851.567	-1.07
851.736	-0.8
851.904	-0.98
852.073	-0.18
852.241	1
852.41	-0.25
852.578	-0.38
852.746	-0.93
852.915	0.42
853.083	-0.2
853.251	-1.21
853.42	-0.34
853.588	-0.09
853.756	1.28
853.924	-0.06
854.093	-0.01
854.261	-0.66
854.429	-1.39
854.597	-1
854.765	-1.15
854.934	0.74
855.102	0.93
855.27	-0.7
855.438	0.55
855.606	1.67
855.774	1.85
855.942	-1.57
856.11	-1.25
856.278	-0.47
856.446	0.38
856.614	-0.68
856.782	-0.47
856.95	1.1
857.118	0.77
857.286	-0.28
857.454	-1.21
857.622	0.64
857.79	1.18
857.958	-1.1
858.126	-0.21
858.294	-2.3
858.462	-0.86
858.629	-0.3
858.797	-0.34
858.965	-0.71
859.133	0.97
859.301	0.49
859.468	-0.47
859.636	-0.87
859.804	1.2
859.971	0.4
860.139	-1.47
860.307	0.27
860.474	1.35
860.642	-0.94
860.81	-1.75
860.977	-1.5
861.145	2.26
861.313	0.24
861.48	0.01
861.648	1.02
861.815	0.46
861.983	-1.82
862.15	-1.27
862.318	0.58
862.485	1.08
862.653	-0.34
862.82	-1.69
862.988	3.43
863.155	0.12
863.322	0.04
863.49	-1.78
863.657	-0.45
863.824	2.17
863.992	-0.59
864.159	-1.23
864.326	1.88
864.494	-0.83
864.661	1.62
864.828	-1.37
864.996	0.1
865.163	1.38
865.33	-1.18
865.497	-1.04
865.664	-1.13
865.832	-2.21
865.999	-1.04
866.166	-1.28
866.333	0.21
866.5	-1.72
866.667	-0.31
866.834	-0.82
867.001	-0.01
867.168	-3.69
867.335	-0.35
867.502	-1.7
867.669	-0.07
867.836	2.23
868.003	-1.42
868.17	1.5
868.337	-2.12
868.504	3.06
868.671	-1.25
868.838	-0.38
869.005	1.95
869.172	0.59
869.339	0.39
869.505	-0.19
869.672	-1.42
869.839	1.83
870.006	0.77
870.173	-2.33
870.339	-0.69
870.506	1.63
870.673	-0.09
870.84	-0.33
871.006	1.22
871.173	-0.16
871.34	-1.45
871.506	-1.92
871.673	-0.31
871.839	-1.99
872.006	-0.59
872.173	-0.84
872.339	-0.76
872.506	0.48
872.672	-0.81
872.839	-2.44
873.005	-0.56
873.172	1.8
873.338	2.87
873.505	-0.08
873.671	1.23
873.838	1.26
874.004	-2.75
874.171	-2.05
874.337	0.72
874.503	1.84
874.67	1.14
874.836	-1.86
875.002	1.35
875.169	0.68
875.335	-0.92
875.501	-1.17
875.668	0.04
875.834	-1.34
876	-2.24
876.166	1.38
876.332	-0.28
876.499	2.15
876.665	-1.1
876.831	-0.49
876.997	2.91
877.163	1.56
877.329	-0.86
877.495	0
877.662	0.83
877.828	-1.77
877.994	-0.33
878.16	-1.83
878.326	-2.73
878.492	-0.03
878.658	-0.72
878.824	0.43
878.99	0.95
879.156	0.17
879.322	1.7
879.487	-1.7
879.653	1.33
879.819	0.21
879.985	-1.82
880.151	0.06
880.317	-0.37
880.483	-1.21
880.648	1.01
880.814	-0.03
880.98	1.84
881.146	-2.19
881.312	-2.81
881.477	-0.37
881.643	0.68
881.809	0.3
881.974	0.51
882.14	-3.04
882.306	-0.9
882.471	3.86
882.637	-1.11
882.803	0.15
882.968	2.28
883.134	4.23
883.299	0
883.465	-1.57
883.63	1.48
883.796	0.45
883.961	0.13
884.127	-0.8
884.292	-4.21
884.458	-2.1
884.623	-2.1
