Data from Apollo_Calib_20240827__AbsoluteIrradiance__178__02-07-01-459.txt Node

Date: Wed Aug 28 02:07:01 BST 2024
User: biology
Spectrometer: FLMT08252
Trigger mode: 0
Integration Time (sec): 5.000000E-1
Scans to average: 5
Electric dark correction enabled: true
Nonlinearity correction enabled: false
Boxcar width: 0
XAxis mode: Wavelengths
Number of Pixels in Spectrum: 3648
>>>>>Begin Spectral Data<<<<<
179.588	-0
179.809	-0
180.03	-0
180.251	-0
180.473	-0
180.694	0
180.915	0
181.136	-0
181.357	0
181.578	-0
181.799	-0
182.02	-0
182.241	-0
182.462	-0
182.683	0
182.904	-0
183.125	-0
183.346	0
183.567	0
183.788	-0
184.009	-0
184.23	0
184.451	0
184.672	-0
184.892	-0
185.113	0
185.334	0
185.555	-0
185.776	0
185.996	0
186.217	0
186.438	0
186.659	-0
186.879	0
187.1	-0
187.321	-0
187.541	-0
187.762	-0
187.983	-0
188.203	0
188.424	0
188.644	0
188.865	0
189.086	-0
189.306	0
189.527	-0
189.747	0
189.968	-0
190.188	0
190.409	-0
190.629	0
190.849	-0
191.07	-0
191.29	0
191.511	0
191.731	-0
191.951	-0
192.172	0
192.392	-0
192.612	-0
192.833	-0
193.053	0
193.273	0
193.493	0
193.714	0
193.934	0
194.154	0
194.374	0
194.594	0
194.815	-0
195.035	0
195.255	-0
195.475	-0
195.695	0
195.915	0
196.135	-0
196.355	0
196.575	0
196.795	0
197.015	-0
197.235	-0
197.455	-0
197.675	0
197.895	-0
198.115	-0
198.335	0
198.555	-0
198.775	0
198.995	-0
199.214	0
199.434	-0
199.654	-0
199.874	-0
200.094	1.34
200.313	-0.26
200.533	-0.25
200.753	-0.64
200.973	0.75
201.192	0.26
201.412	-0.85
201.632	-0.35
201.851	0.63
202.071	-0.4
202.291	-0.16
202.51	-1.12
202.73	0.61
202.95	-0.28
203.169	-0.7
203.389	-0.07
203.608	0.03
203.828	-0.49
204.047	-0.27
204.267	0.16
204.486	0.48
204.706	0.4
204.925	-0.16
205.145	-0.29
205.364	-0.02
205.583	0.61
205.803	-0.21
206.022	-0.39
206.242	-0.01
206.461	0.36
206.68	-0.23
206.9	-0.18
207.119	0.68
207.338	0.58
207.557	-0.25
207.777	-0.19
207.996	0.16
208.215	0.44
208.434	-0.24
208.654	-0.41
208.873	0.07
209.092	0.63
209.311	-0.2
209.53	-0.25
209.749	0.27
209.968	-0.08
210.187	-0.35
210.407	-0.57
210.626	-0.25
210.845	0.22
211.064	0.07
211.283	-0.25
211.502	0.17
211.721	-0.01
211.94	0.09
212.159	0.1
212.377	0.11
212.596	0.16
212.815	0.16
213.034	-0.01
213.253	0.27
213.472	0.3
213.691	0.03
213.91	-0.23
214.128	-0.23
214.347	0.17
214.566	-0.42
214.785	-0.27
215.003	0.16
215.222	0.17
215.441	-0.13
215.66	-0.22
215.878	0.11
216.097	0.14
216.316	-0.14
216.534	-0.03
216.753	0.07
216.972	-0.17
217.19	-0.04
217.409	-0.19
217.627	-0.22
217.846	0.17
218.064	0.11
218.283	-0.09
218.501	0.36
218.72	0.23
218.938	-0.2
219.157	-0.11
219.375	0.14
219.594	0.14
219.812	-0.11
220.031	-0.13
220.249	0.28
220.467	0.39
220.686	-0.09
220.904	-0.16
221.122	-0.22
221.341	0.48
221.559	-0.01
221.777	-0.23
221.995	0.06
222.214	0.07
222.432	-0.05
222.65	0.06
222.868	0.06
223.086	0.17
223.305	0.1
223.523	-0.12
223.741	0.15
223.959	-0.13
224.177	-0.27
224.395	-0.07
224.613	0.05
224.831	0.22
225.049	-0.23
225.267	0.01
225.485	-0.09
225.703	0.1
225.921	-0.05
226.139	-0.07
226.357	0.06
226.575	0.07
226.793	-0.04
227.011	0.66
227.229	0.04
227.447	0.17
227.665	-0.11
227.883	-0.32
228.1	-0.01
228.318	0.07
228.536	-0.35
228.754	-0.1
228.972	0.07
229.189	0.12
229.407	-0.02
229.625	-0.1
229.843	0.28
230.06	0.16
230.278	-0.08
230.496	-0.07
230.713	-0.12
230.931	0.19
231.149	-0.06
231.366	-0.25
231.584	0.02
231.801	0.42
232.019	-0.02
232.236	-0.14
232.454	-0.13
232.671	0.07
232.889	0
233.106	-0.08
233.324	-0.07
233.541	-0.04
233.759	0.05
233.976	-0.1
234.194	-0.05
234.411	-0
234.628	-0.14
234.846	0.01
235.063	0.1
235.28	-0.02
235.498	-0.09
235.715	-0.14
235.932	0.18
236.149	-0.01
236.367	-0.12
236.584	0.02
236.801	0.03
237.018	0.13
237.236	-0.01
237.453	-0.16
237.67	0.1
237.887	-0.04
238.104	-0.04
238.321	-0.1
238.538	-0.11
238.755	0.12
238.973	-0.13
239.19	-0.05
239.407	0.02
239.624	0
239.841	-0.17
240.058	-0.04
240.275	0.11
240.492	-0.04
240.709	0.06
240.925	-0.08
241.142	-0.05
241.359	-0.1
241.576	-0.07
241.793	-0.04
242.01	0.01
242.227	0.09
242.444	0.1
242.66	0.1
242.877	0.05
243.094	-0.06
243.311	-0.09
243.527	-0.06
243.744	0.05
243.961	0.05
244.178	-0.09
244.394	0
244.611	0.17
244.828	0.22
245.044	-0.09
245.261	-0.03
245.477	0.02
245.694	0.01
245.911	-0.13
246.127	0
246.344	0.12
246.56	0.13
246.777	0.01
246.993	0.01
247.21	0.09
247.426	0.11
247.643	-0.05
247.859	-0.15
248.076	-0.05
248.292	0.16
248.508	-0.03
248.725	-0.02
248.941	0.05
249.157	0.12
249.374	-0.06
249.59	-0.02
249.806	0.04
250.023	0.1
250.239	-0.07
250.455	-0.09
250.671	0.01
250.888	0.03
251.104	0.03
251.32	-0.01
251.536	-0.06
251.752	-0.12
251.969	-0.02
252.185	-0.03
252.401	0.2
252.617	0.06
252.833	-0.02
253.049	-0.02
253.265	-0
253.481	-0
253.697	-0.05
253.913	-0.09
254.129	0.03
254.345	-0.02
254.561	-0.01
254.777	-0.03
254.993	0.11
255.209	0
255.425	0.03
255.641	-0.07
255.857	0.1
256.073	0
256.288	-0.11
256.504	-0.08
256.72	-0
256.936	0.12
257.152	0.02
257.367	-0.02
257.583	0.02
257.799	0.07
258.015	-0
258.23	-0.05
258.446	0.18
258.662	0.04
258.877	-0.04
259.093	-0.07
259.309	0.02
259.524	0.07
259.74	-0.02
259.955	-0.11
260.171	0.05
260.387	-0.03
260.602	0.04
260.818	0.09
261.033	-0.06
261.249	-0.03
261.464	-0.09
261.68	-0.01
261.895	0.06
262.11	0.07
262.326	-0.01
262.541	-0.15
262.757	0.07
262.972	0.02
263.187	0.01
263.403	-0.04
263.618	0.04
263.833	-0.03
264.049	-0.03
264.264	0.03
264.479	0.09
264.694	0.1
264.91	-0.1
265.125	-0.03
265.34	0.07
265.555	0.15
265.77	0.03
265.986	-0
266.201	0.04
266.416	0.13
266.631	-0.02
266.846	-0.05
267.061	0.05
267.276	0
267.491	-0.09
267.706	0.04
267.921	0.1
268.136	0.03
268.351	-0.04
268.566	-0.08
268.781	0.16
268.996	0.07
269.211	-0.05
269.426	-0.05
269.641	-0.03
269.856	0.06
270.071	0.02
270.285	-0.13
270.5	0.02
270.715	0.07
270.93	0
271.145	0.04
271.359	0.08
271.574	-0.01
271.789	-0.02
272.004	-0.06
272.218	-0.01
272.433	0.07
272.648	-0.01
272.862	0.06
273.077	0.06
273.292	0.05
273.506	-0.02
273.721	-0
273.936	0.12
274.15	0.08
274.365	0.01
274.579	0.06
274.794	0.05
275.008	0.08
275.223	-0.06
275.437	-0.01
275.652	0.07
275.866	-0.01
276.081	0.01
276.295	0.07
276.509	0.02
276.724	0.02
276.938	0.02
277.153	0.03
277.367	0.11
277.581	0.06
277.796	-0.06
278.01	-0.06
278.224	0.05
278.438	0.16
278.653	-0.03
278.867	-0.05
279.081	0.04
279.295	-0.02
279.51	0.07
279.724	-0.09
279.938	0.12
280.152	0.05
280.366	-0.07
280.58	0.04
280.794	0.07
281.008	0.04
281.222	0.02
281.437	0.18
281.651	0.04
281.865	0.07
282.079	0.01
282.293	-0.09
282.507	-0.02
282.721	0.03
282.935	0.05
283.148	-0.05
283.362	-0.03
283.576	-0.03
283.79	0.02
284.004	-0.01
284.218	0.09
284.432	-0.05
284.646	0.03
284.859	-0.01
285.073	-0
285.287	0.08
285.501	0.05
285.714	0.02
285.928	-0.01
286.142	0.08
286.356	-0.01
286.569	-0.02
286.783	0.12
286.997	0.03
287.21	0.03
287.424	0.03
287.637	0.02
287.851	-0.01
288.065	0.05
288.278	0.01
288.492	0.03
288.705	0.03
288.919	0.07
289.132	-0.06
289.346	0.08
289.559	-0.03
289.773	-0.06
289.986	0.03
290.2	-0
290.413	0.11
290.626	-0.05
290.84	-0.03
291.053	0.04
291.267	0.06
291.48	-0.03
291.693	0
291.906	-0.01
292.12	-0.02
292.333	-0.02
292.546	-0.01
292.76	0.14
292.973	0.03
293.186	0.05
293.399	-0.05
293.612	0.08
293.826	0.05
294.039	-0.03
294.252	0.02
294.465	0.06
294.678	0.06
294.891	0.03
295.104	-0.01
295.317	-0
295.53	0.04
295.743	-0.03
295.956	-0
296.169	0.09
296.382	0.03
296.595	0.01
296.808	0.01
297.021	0.08
297.234	0.06
297.447	0.04
297.66	0.01
297.873	0.11
298.086	0.08
298.299	-0.02
298.511	-0.05
298.724	0.06
298.937	-0.04
299.15	-0.03
299.363	-0.01
299.575	0.09
299.788	0.07
300.001	-0.01
300.213	-0.04
300.426	-0.02
300.639	0.02
300.852	0.02
301.064	0.06
301.277	0.09
301.489	0.08
301.702	0.07
301.915	0.03
302.127	0.01
302.34	0.02
302.552	0.04
302.765	0.02
302.977	0.08
303.19	0
303.402	-0.03
303.615	-0.04
303.827	0.04
304.04	-0.03
304.252	0.05
304.464	-0.04
304.677	0.11
304.889	0.05
305.102	0
305.314	-0
305.526	0.05
305.739	0.08
305.951	0
306.163	-0.03
306.375	0.08
306.588	0
306.8	-0.01
307.012	-0.03
307.224	0
307.436	0.1
307.649	-0.03
307.861	0.03
308.073	0.06
308.285	0.03
308.497	-0.02
308.709	-0.03
308.921	0.05
309.133	0.07
309.346	-0.03
309.558	-0.01
309.77	0.06
309.982	0.1
310.194	0.06
310.406	-0.02
310.617	0.13
310.829	0.02
311.041	0.08
311.253	-0.04
311.465	-0
311.677	0.03
311.889	0.02
312.101	0
312.313	0.04
312.524	0.06
312.736	-0.01
312.948	-0.01
313.16	0.11
313.372	0.07
313.583	0.03
313.795	-0.02
314.007	-0.01
314.218	0.06
314.43	0.06
314.642	-0.01
314.853	-0.03
315.065	0.05
315.277	-0
315.488	0.07
315.7	0.05
315.912	0.02
316.123	0.02
316.335	-0.02
316.546	0.11
316.758	0.03
316.969	0.02
317.181	0.07
317.392	0.02
317.604	0.06
317.815	0.01
318.026	-0.02
318.238	0.01
318.449	0.05
318.661	-0.05
318.872	-0.07
319.083	-0.05
319.295	0.03
319.506	0.01
319.717	0.03
319.929	0.07
320.14	-0.01
320.351	0.01
320.562	0.01
320.774	0.04
320.985	0.04
321.196	-0.01
321.407	-0.05
321.618	0.08
321.829	0.03
322.041	0.06
322.252	-0.01
322.463	0.04
322.674	0.03
322.885	-0.05
323.096	-0.04
323.307	-0.01
323.518	0.03
323.729	-0.06
323.94	0.02
324.151	0.05
324.362	-0
324.573	0.05
324.784	-0.04
324.995	0.04
325.206	0.03
325.417	-0.02
325.628	-0.01
325.838	0.01
326.049	-0.01
326.26	0.08
326.471	0.03
326.682	0.05
326.892	0.03
327.103	-0.05
327.314	0.01
327.525	0.07
327.735	0.03
327.946	-0.04
328.157	0.01
328.368	0.02
328.578	0.01
328.789	0.04
328.999	0.03
329.21	0.03
329.421	0.07
329.631	-0.03
329.842	-0.02
330.052	0.04
330.263	0.05
330.473	0.07
330.684	0.02
330.894	-0.01
331.105	0.05
331.315	0.02
331.526	-0.02
331.736	0.09
331.947	0.06
332.157	0.01
332.367	-0.05
332.578	0.04
332.788	0.08
332.999	0.06
333.209	-0.03
333.419	-0.04
333.629	0
333.84	0.04
334.05	-0.01
334.26	0.11
334.47	0.01
334.681	0.07
334.891	-0
335.101	0.09
335.311	0.13
335.521	0.04
335.732	-0.05
335.942	0.08
336.152	0.1
336.362	0.07
336.572	0.04
336.782	0.04
336.992	0.02
337.202	-0.04
337.412	0.01
337.622	0
337.832	0.04
338.042	0.04
338.252	0
338.462	0.03
338.672	0.04
338.882	0.01
339.092	0.02
339.302	0.08
339.511	0.04
339.721	0.01
339.931	-0.02
340.141	0.09
340.351	0.06
340.561	0.04
340.77	0
340.98	0.04
341.19	0.05
341.4	-0.01
341.609	-0
341.819	0.04
342.029	-0.08
342.238	0.02
342.448	-0.02
342.658	0.08
342.867	0.05
343.077	0.06
343.286	0.05
343.496	0.07
343.706	0.08
343.915	-0.04
344.125	0.08
344.334	0.04
344.544	-0.07
344.753	0.01
344.963	-0.03
345.172	0.04
345.381	0.02
345.591	0.02
345.8	-0.01
346.01	0.11
346.219	0.07
346.428	-0.09
346.638	0.02
346.847	0.01
347.056	0.07
347.266	0.02
347.475	-0
347.684	0.06
347.893	0.05
348.103	0.04
348.312	0
348.521	-0
348.73	0.03
348.94	0.01
349.149	0.04
349.358	0
349.567	0.01
349.776	-0.05
349.985	0.02
350.194	0.08
350.403	0.05
350.612	-0.06
350.821	0.02
351.03	0.02
351.239	-0.01
351.448	0.03
351.657	-0.06
351.866	0.08
352.075	0.03
352.284	0.06
352.493	-0.01
352.702	0.05
352.911	0.06
353.12	0.05
353.329	0.02
353.538	0.06
353.746	-0.01
353.955	-0.01
354.164	0.07
354.373	0.07
354.582	0.07
354.79	0.05
354.999	0.06
355.208	0.02
355.416	0.09
355.625	-0.04
355.834	0.02
356.042	0.05
356.251	0.01
356.46	-0.03
356.668	0.06
356.877	0.12
357.085	0.11
357.294	-0.04
357.503	0.04
357.711	0.03
357.92	0.15
358.128	-0
358.337	0.02
358.545	0.06
358.754	0.04
358.962	0.07
359.17	0.03
359.379	0.06
359.587	0.03
359.796	0.06
360.004	0.09
360.212	0.06
360.421	0.09
360.629	0
360.837	-0
361.046	0.08
361.254	0.13
361.462	0.05
361.67	-0
361.879	0.01
362.087	0.06
362.295	0.06
362.503	0.01
362.711	0
362.92	-0.02
363.128	0.02
363.336	-0
363.544	-0.03
363.752	0.01
363.96	0.05
364.168	0.01
364.376	0.01
364.584	0.06
364.792	0.06
365	0.07
365.208	0.02
365.416	0.06
365.624	0.07
365.832	-0.02
366.04	0.11
366.248	0.06
366.456	0.06
366.664	0.07
366.872	0.07
367.079	0.03
367.287	-0
367.495	0.03
367.703	0.04
367.911	0.05
368.118	0.02
368.326	0.02
368.534	-0.01
368.742	0.1
368.949	-0.03
369.157	0.05
369.365	0.05
369.572	0.01
369.78	0.03
369.988	0.05
370.195	0.06
370.403	0.08
370.61	0.03
370.818	0.03
371.026	0.1
371.233	0.01
371.441	0.05
371.648	-0.01
371.856	0.05
372.063	0.06
372.271	-0.03
372.478	0.03
372.685	0.01
372.893	0.09
373.1	0.02
373.308	0.03
373.515	0.13
373.722	0.1
373.93	0.05
374.137	0.08
374.344	0.11
374.552	0.06
374.759	0.06
374.966	0.03
375.173	0.04
375.381	0.11
375.588	0.04
375.795	0.01
376.002	0.01
376.209	0.01
376.417	0.05
376.624	0.03
376.831	0.08
377.038	0.07
377.245	-0.02
377.452	0.02
377.659	0.03
377.866	0.01
378.073	0.04
378.28	0.04
378.487	0.1
378.694	0.12
378.901	0.02
379.108	0.03
379.315	0.1
379.522	0.14
379.729	0.11
379.936	0.07
380.143	0.09
380.35	0.04
380.557	0.08
380.763	0.08
380.97	0.08
381.177	0.14
381.384	0.09
381.591	0.02
381.797	0.1
382.004	0.09
382.211	0.14
382.418	0.1
382.624	0.1
382.831	0.12
383.038	0.07
383.244	0.12
383.451	0.09
383.658	0.1
383.864	0.09
384.071	0.07
384.277	0.19
384.484	0.08
384.69	0.13
384.897	0.1
385.103	0.12
385.31	0.07
385.516	0.07
385.723	0.1
385.929	0.18
386.136	0.12
386.342	0.17
386.549	0.16
386.755	0.26
386.961	0.21
387.168	0.19
387.374	0.18
387.58	0.26
387.787	0.2
387.993	0.29
388.199	0.23
388.406	0.24
388.612	0.25
388.818	0.21
389.024	0.28
389.231	0.3
389.437	0.39
389.643	0.33
389.849	0.3
390.055	0.36
390.261	0.33
390.467	0.46
390.674	0.41
390.88	0.45
391.086	0.53
391.292	0.46
391.498	0.54
391.704	0.51
391.91	0.54
392.116	0.55
392.322	0.47
392.528	0.7
392.734	0.67
392.94	0.77
393.146	0.79
393.352	0.86
393.557	0.79
393.763	0.82
393.969	0.99
394.175	0.96
394.381	1.04
394.587	1.02
394.792	1.15
394.998	1.23
395.204	1.31
395.41	1.33
395.615	1.4
395.821	1.47
396.027	1.57
396.233	1.65
396.438	1.78
396.644	1.96
396.85	1.98
397.055	2.03
397.261	2.11
397.466	2.39
397.672	2.38
397.878	2.48
398.083	2.55
398.289	2.57
398.494	2.7
398.7	2.87
398.905	2.89
399.111	3.22
399.316	3.18
399.522	3.28
399.727	3.45
399.932	3.61
400.138	3.71
400.343	4.08
400.549	4
400.754	4.39
400.959	4.5
401.165	4.74
401.37	4.84
401.575	5.38
401.78	5.27
401.986	5.49
402.191	5.75
402.396	6.07
402.601	6.28
402.807	6.59
403.012	6.7
403.217	7.18
403.422	7.29
403.627	7.47
403.832	7.94
404.037	7.94
404.243	8.13
404.448	8.44
404.653	8.66
404.858	8.82
405.063	8.73
405.268	9.17
405.473	9.31
405.678	9.52
405.883	9.98
406.088	9.85
406.293	9.97
406.498	10.09
406.703	10.09
406.907	10.42
407.112	10.61
407.317	10.95
407.522	11.14
407.727	11.21
407.932	11.26
408.136	11.49
408.341	11.26
408.546	11.2
408.751	11.17
408.956	11.02
409.16	11.35
409.365	11.14
409.57	10.74
409.774	10.71
409.979	10.58
410.184	10.49
410.388	10.21
410.593	10.31
410.798	10.17
411.002	10.08
411.207	9.87
411.411	9.8
411.616	9.37
411.82	9.34
412.025	9.07
412.229	8.89
412.434	8.64
412.638	8.43
412.843	8.18
413.047	7.95
413.252	7.66
413.456	7.79
413.66	7.31
413.865	7.11
414.069	6.83
414.273	6.69
414.478	6.55
414.682	6.28
414.886	6.15
415.091	5.83
415.295	5.76
415.499	5.71
415.703	5.38
415.908	5.38
416.112	5.09
416.316	5.16
416.52	4.96
416.724	4.71
416.929	4.65
417.133	4.82
417.337	4.54
417.541	4.44
417.745	4.35
417.949	4.26
418.153	4.19
418.357	4.05
418.561	4.17
418.765	3.93
418.969	3.89
419.173	3.87
419.377	3.71
419.581	3.78
419.785	3.55
419.989	3.41
420.193	3.43
420.397	3.33
420.601	3.36
420.804	3.29
421.008	3.1
421.212	3.08
421.416	2.99
421.62	2.84
421.823	2.71
422.027	2.72
422.231	2.51
422.435	2.48
422.638	2.35
422.842	2.34
423.046	2.21
423.249	2.22
423.453	2.11
423.657	2.09
423.86	1.98
424.064	1.96
424.268	1.96
424.471	1.84
424.675	1.9
424.878	1.84
425.082	1.73
425.285	1.81
425.489	1.61
425.692	1.63
425.896	1.52
426.099	1.57
426.303	1.42
426.506	1.41
426.71	1.46
426.913	1.44
427.116	1.33
427.32	1.29
427.523	1.28
427.726	1.29
427.93	1.16
428.133	1.21
428.336	1.16
428.54	1.13
428.743	1.2
428.946	1.18
429.149	1.12
429.353	1.06
429.556	1.02
429.759	0.97
429.962	0.95
430.165	0.95
430.368	0.9
430.571	0.86
430.775	0.83
430.978	0.79
431.181	0.84
431.384	0.82
431.587	0.75
431.79	0.78
431.993	0.7
432.196	0.74
432.399	0.76
432.602	0.84
432.805	0.79
433.008	0.76
433.211	0.7
433.414	0.76
433.616	0.76
433.819	0.72
434.022	0.54
434.225	0.74
434.428	0.72
434.631	0.76
434.833	0.63
435.036	0.62
435.239	0.68
435.442	0.61
435.645	0.57
435.847	0.61
436.05	0.64
436.253	0.59
436.455	0.53
436.658	0.51
436.861	0.61
437.063	0.47
437.266	0.53
437.468	0.49
437.671	0.65
437.874	0.54
438.076	0.43
438.279	0.38
438.481	0.47
438.684	0.44
438.886	0.49
439.089	0.35
439.291	0.47
439.494	0.46
439.696	0.4
439.899	0.4
440.101	0.45
440.303	0.35
440.506	0.47
440.708	0.38
440.91	0.45
441.113	0.38
441.315	0.4
441.517	0.33
441.72	0.45
441.922	0.32
442.124	0.29
442.326	0.34
442.529	0.49
442.731	0.29
442.933	0.43
443.135	0.29
443.337	0.27
443.539	0.3
443.742	0.33
443.944	0.3
444.146	0.24
444.348	0.23
444.55	0.31
444.752	0.25
444.954	0.28
445.156	0.23
445.358	0.22
445.56	0.34
445.762	0.24
445.964	0.22
446.166	0.23
446.368	0.23
446.57	0.31
446.772	0.21
446.974	0.18
447.175	0.23
447.377	0.21
447.579	0.25
447.781	0.09
447.983	0.26
448.184	0.24
448.386	0.21
448.588	0.12
448.79	0.17
448.991	0.16
449.193	0.19
449.395	0.19
449.597	0.26
449.798	0.22
450	0.22
450.202	0.2
450.403	0.21
450.605	0.21
450.806	0.16
451.008	0.12
451.21	0.15
451.411	0.19
451.613	0.16
451.814	0.19
452.016	0.25
452.217	0.18
452.419	0.2
452.62	0.19
452.821	0.2
453.023	0.25
453.224	0.23
453.426	0.13
453.627	0.17
453.828	0.21
454.03	0.15
454.231	0.22
454.432	0.1
454.634	0.28
454.835	0.15
455.036	0.14
455.238	0.21
455.439	0.27
455.64	0.1
455.841	0.13
456.042	0.29
456.244	0.19
456.445	0.11
456.646	0.12
456.847	0.16
457.048	0.19
457.249	0.17
457.45	0.41
457.651	0.08
457.852	0.2
458.054	0.15
458.255	0.13
458.456	0.17
458.657	0.17
458.858	0.09
459.058	0.15
459.259	0.19
459.46	0.13
459.661	0.14
459.862	0.26
460.063	0.12
460.264	0.25
460.465	0.11
460.666	0.24
460.866	0.14
461.067	0.13
461.268	0.14
461.469	0.12
461.67	0.11
461.87	0.12
462.071	0.16
462.272	0.08
462.473	0.11
462.673	0.19
462.874	0.07
463.075	0.11
463.275	0.07
463.476	0.13
463.676	0.14
463.877	0.12
464.078	0.11
464.278	0.21
464.479	0.14
464.679	0.17
464.88	0.14
465.08	0.23
465.281	0.15
465.481	0.11
465.682	0.18
465.882	0.18
466.083	0.12
466.283	0.1
466.483	0.13
466.684	0.13
466.884	0.07
467.085	0.12
467.285	0.15
467.485	0.1
467.686	0.1
467.886	0.09
468.086	0.1
468.286	0.11
468.487	0.13
468.687	0.04
468.887	0.07
469.087	0.18
469.287	0.09
469.488	0.05
469.688	0.14
469.888	0.16
470.088	0.16
470.288	0.18
470.488	0.18
470.688	0.05
470.888	0.07
471.088	0.05
471.288	0.14
471.488	0.15
471.688	0.13
471.888	0.08
472.088	0.15
472.288	0.15
472.488	0.09
472.688	0.05
472.888	0.14
473.088	0.1
473.288	0.14
473.488	0.09
473.688	0.16
473.887	0.12
474.087	0.05
474.287	0.12
474.487	0.07
474.687	0.11
474.886	0.08
475.086	0.09
475.286	0.12
475.486	0.1
475.685	0.08
475.885	0.09
476.085	0.09
476.284	0.13
476.484	0.06
476.684	0.14
476.883	0.12
477.083	0.09
477.282	0.05
477.482	0.12
477.681	0.11
477.881	0.12
478.08	0.03
478.28	0.06
478.479	0.12
478.679	0.12
478.878	0.05
479.078	0.05
479.277	0.07
479.477	0.11
479.676	0.16
479.875	0.05
480.075	0.02
480.274	0.1
480.473	0.07
480.673	0.03
480.872	0.1
481.071	0.1
481.271	0.08
481.47	0.06
481.669	0.06
481.868	0.04
482.067	0.04
482.267	0.05
482.466	0.04
482.665	0.01
482.864	0.01
483.063	0.02
483.262	0.05
483.461	0.11
483.661	0.08
483.86	0.04
484.059	0.06
484.258	0.07
484.457	0.06
484.656	0.07
484.855	0.09
485.054	0.02
485.253	0.03
485.452	0.03
485.651	0.06
485.849	0.08
486.048	0.03
486.247	0.03
486.446	0.09
486.645	0.02
486.844	0.03
487.043	0.03
487.241	0.03
487.44	0.01
487.639	0.04
487.838	0.09
488.037	0.05
488.235	0.13
488.434	0.03
488.633	0.04
488.831	0.05
489.03	0.08
489.229	0.06
489.427	0.05
489.626	0.07
489.825	0.1
490.023	0.03
490.222	0.01
490.42	0.05
490.619	0.08
490.817	0.05
491.016	0.04
491.214	0.08
491.413	0.05
491.611	0.03
491.81	0.04
492.008	0.07
492.207	0.06
492.405	0.07
492.604	0.03
492.802	0.02
493	0.05
493.199	0.01
493.397	0.04
493.595	0.05
493.794	0.03
493.992	0.1
494.19	0.04
494.388	0.1
494.587	0.03
494.785	0.06
494.983	0.01
495.181	0.07
495.379	0.04
495.578	0.04
495.776	0.07
495.974	0.05
496.172	0.05
496.37	0.04
496.568	0.01
496.766	0.02
496.964	0.05
497.162	0.06
497.36	0.01
497.558	0.05
497.756	0.06
497.954	0.03
498.152	0.01
498.35	0.04
498.548	0.05
498.746	0.03
498.944	0.03
499.142	0.02
499.34	0
499.538	0.04
499.736	0.02
499.933	0.09
500.131	0.07
500.329	0.04
500.527	0.08
500.725	0.07
500.922	0.07
501.12	0.05
501.318	0.05
501.516	0.04
501.713	0.05
501.911	0
502.109	0.01
502.306	0.06
502.504	0.04
502.701	0.03
502.899	0.04
503.097	0.07
503.294	0.04
503.492	0.02
503.689	0.05
503.887	0.05
504.084	0.1
504.282	0.04
504.479	0.01
504.677	0.06
504.874	-0.01
505.072	0.03
505.269	0.02
505.466	0.04
505.664	0.05
505.861	0.01
506.059	0.02
506.256	0.04
506.453	0.03
506.651	0.07
506.848	0.07
507.045	0.05
507.242	0.05
507.44	0.01
507.637	0.04
507.834	0.03
508.031	0.06
508.229	0
508.426	0.04
508.623	0.06
508.82	0.02
509.017	-0.01
509.214	0.02
509.411	0.04
509.608	-0
509.805	0.04
510.003	0.02
510.2	0.03
510.397	0.07
510.594	-0
510.791	0
510.988	0.04
511.184	0.03
511.381	0.04
511.578	-0
511.775	0.05
511.972	0.02
512.169	0.03
512.366	0.04
512.563	0.04
512.76	0.01
512.956	0.02
513.153	0.02
513.35	0.03
513.547	0.02
513.744	-0
513.94	0
514.137	0.05
514.334	0.03
514.53	0.03
514.727	0.04
514.924	0.06
515.12	0.01
515.317	-0.01
515.514	0.01
515.71	-0.03
515.907	0.01
516.103	0.03
516.3	0.02
516.497	0.04
516.693	0.04
516.89	0.02
517.086	-0
517.283	0.07
517.479	0.02
517.676	0.02
517.872	0.03
518.068	0.03
518.265	0.02
518.461	-0.01
518.658	0
518.854	0.03
519.05	0.02
519.247	-0
519.443	0.05
519.639	0.04
519.836	0.02
520.032	0.03
520.228	0.04
520.424	0.08
520.621	0.02
520.817	0.02
521.013	0.02
521.209	0.05
521.405	0.08
521.601	0.03
521.798	0.04
521.994	0.05
522.19	0.01
522.386	-0.03
522.582	0.01
522.778	0.02
522.974	0
523.17	0.03
523.366	0.03
523.562	0.04
523.758	0.03
523.954	0
524.15	0.02
524.346	0.05
524.542	-0.01
524.738	0
524.934	0
525.129	0.01
525.325	0.04
525.521	0.02
525.717	0.04
525.913	0.01
526.109	0.02
526.304	0.01
526.5	0.07
526.696	0.06
526.892	0.01
527.087	0.02
527.283	-0.02
527.479	0.04
527.674	-0
527.87	0.02
528.066	0.02
528.261	0.04
528.457	0.03
528.653	0.01
528.848	0.02
529.044	0.03
529.239	-0.01
529.435	0.02
529.63	0.03
529.826	0.06
530.021	0.02
530.217	0.06
530.412	-0
530.608	-0.01
530.803	0.01
530.999	0.02
531.194	-0.02
531.389	0.03
531.585	-0.03
531.78	0
531.975	0.03
532.171	0.04
532.366	0.01
532.561	-0
532.757	-0.02
532.952	0.01
533.147	0.02
533.342	0.03
533.538	-0
533.733	0.05
533.928	0.02
534.123	-0
534.318	-0.02
534.513	0.01
534.709	-0.01
534.904	0
535.099	0.01
535.294	0.01
535.489	0.01
535.684	-0.01
535.879	0
536.074	0.01
536.269	-0.01
536.464	0.02
536.659	0.02
536.854	0.01
537.049	0.04
537.244	0.04
537.439	-0.01
537.634	0.04
537.828	0.02
538.023	0.01
538.218	-0.02
538.413	0.01
538.608	0.01
538.803	0.04
538.997	-0.02
539.192	0.04
539.387	0.02
539.582	0.03
539.776	0.03
539.971	-0.01
540.166	-0
540.36	-0.01
540.555	0.01
540.75	-0.01
540.944	0.01
541.139	-0.04
541.334	0.01
541.528	0.03
541.723	0.01
541.917	0.01
542.112	-0.04
542.306	0.02
542.501	0.02
542.695	0
542.89	-0.01
543.084	0.02
543.279	-0
543.473	-0
543.668	0.03
543.862	0.01
544.056	0.03
544.251	-0
544.445	0.01
544.64	0
544.834	-0.01
545.028	0.02
545.222	0.02
545.417	0.02
545.611	0.02
545.805	0.01
546	-0.01
546.194	0.01
546.388	0.01
546.582	0.01
546.776	0.01
546.97	0.01
547.165	0.03
547.359	0.04
547.553	-0.01
547.747	0.03
547.941	0.01
548.135	0.01
548.329	0.02
548.523	0.03
548.717	-0
548.911	-0.01
549.105	0.02
549.299	0.02
549.493	0.03
549.687	0.03
549.881	0.02
550.075	0.01
550.269	-0.02
550.463	0.04
550.657	-0.02
550.85	-0
551.044	-0.01
551.238	0.01
551.432	-0.02
551.626	-0.04
551.82	0.01
552.013	0.01
552.207	0.01
552.401	0.03
552.594	0.04
552.788	0.01
552.982	0.01
553.176	-0.02
553.369	0.02
553.563	0.01
553.756	-0.03
553.95	-0.02
554.144	0.03
554.337	0.04
554.531	-0.01
554.724	0.01
554.918	-0
555.111	0.02
555.305	-0.01
555.498	0.06
555.692	0.01
555.885	-0
556.079	0.03
556.272	-0.01
556.466	0.03
556.659	-0.01
556.852	-0
557.046	0.01
557.239	0.04
557.432	-0.02
557.626	-0.01
557.819	0.02
558.012	0.04
558.206	0.03
558.399	0.01
558.592	0.02
558.785	0
558.979	0.03
559.172	0.02
559.365	0.01
559.558	0.03
559.751	0
559.944	-0.01
560.138	0.01
560.331	-0.01
560.524	-0
560.717	0.03
560.91	0.02
561.103	0.03
561.296	0.03
561.489	0.02
561.682	-0
561.875	0.05
562.068	0.03
562.261	0.02
562.454	0.03
562.647	0.05
562.84	0.03
563.032	0.03
563.225	0.02
563.418	0
563.611	0
563.804	-0.01
563.997	0.01
564.19	-0.02
564.382	0.01
564.575	0.01
564.768	0.01
564.961	0
565.153	0.01
565.346	0.01
565.539	0.03
565.731	0.03
565.924	0.04
566.117	0.04
566.309	0.01
566.502	0.01
566.695	0.01
566.887	-0
567.08	-0.01
567.272	-0
567.465	0.01
567.657	0.01
567.85	0.02
568.042	0.02
568.235	0.06
568.427	-0
568.62	0.02
568.812	0.02
569.005	0
569.197	-0.04
569.389	0.02
569.582	0.02
569.774	0
569.966	-0.03
570.159	-0.04
570.351	0.04
570.543	-0.01
570.736	-0.01
570.928	-0.02
571.12	0.03
571.312	-0.01
571.505	-0.05
571.697	0.06
571.889	-0.01
572.081	-0.02
572.273	-0.01
572.465	0.03
572.658	0.02
572.85	0.02
573.042	0
573.234	-0.02
573.426	0.04
573.618	-0.05
573.81	0.02
574.002	0.06
574.194	0.04
574.386	-0.05
574.578	-0.05
574.77	-0.02
574.962	0
575.154	-0.03
575.346	-0.02
575.538	0.04
575.729	-0.02
575.921	-0.01
576.113	0
576.305	0.06
576.497	-0.01
576.689	-0.01
576.88	-0.01
577.072	0.02
577.264	0.01
577.456	-0.01
577.647	-0.05
577.839	0.01
578.031	0.05
578.223	-0.05
578.414	0
578.606	0.03
578.798	-0
578.989	-0.01
579.181	0.01
579.372	-0.01
579.564	-0
579.755	0.01
579.947	0.01
580.139	0.03
580.33	-0.04
580.522	-0.02
580.713	-0.06
580.905	0
581.096	0.01
581.287	0.01
581.479	-0.01
581.67	0.01
581.862	-0.01
582.053	-0
582.244	-0.02
582.436	-0
582.627	0.01
582.818	-0.04
583.01	-0.03
583.201	0.03
583.392	0.04
583.583	0
583.775	-0.02
583.966	-0.04
584.157	-0.01
584.348	-0.03
584.54	-0.04
584.731	0.03
584.922	0.02
585.113	-0.05
585.304	0.02
585.495	0.04
585.686	-0.01
585.877	0.02
586.068	0.02
586.259	0.05
586.45	-0.02
586.641	-0.01
586.832	-0.05
587.023	0.01
587.214	0
587.405	-0
587.596	-0.03
587.787	0.01
587.978	0.01
588.169	-0.04
588.36	-0.02
588.551	-0
588.742	-0.01
588.932	0.01
589.123	0.01
589.314	0.03
589.505	0.04
589.696	0.01
589.886	-0.04
590.077	-0.03
590.268	0.02
590.458	-0.04
590.649	-0.03
590.84	0.03
591.03	-0.02
591.221	-0.05
591.412	-0.04
591.602	-0.01
591.793	0.02
591.984	-0.04
592.174	0
592.365	0.07
592.555	0
592.746	0.03
592.936	0.02
593.127	0.03
593.317	0.06
593.508	-0.04
593.698	-0.02
593.889	0
594.079	0
594.269	-0
594.46	-0
594.65	-0.01
594.84	0.01
595.031	-0.01
595.221	-0.01
595.411	-0.03
595.602	0.02
595.792	-0.01
595.982	-0.03
596.172	0.07
596.363	-0
596.553	0.01
596.743	0.01
596.933	0.01
597.123	0.02
597.314	-0.02
597.504	-0.03
597.694	0.05
597.884	0.03
598.074	-0
598.264	-0.01
598.454	0.03
598.644	0
598.834	-0.01
599.024	-0.07
599.214	0.01
599.404	0.01
599.594	0.01
599.784	-0.02
599.974	0.04
600.164	0.04
600.354	-0.04
600.544	-0.05
600.734	0.02
600.924	0.03
601.114	-0.03
601.303	-0.04
601.493	0.02
601.683	0.01
601.873	-0.01
602.063	-0.04
602.252	0.06
602.442	-0.07
602.632	-0.03
602.821	-0.03
603.011	0.01
603.201	0.01
603.39	-0.04
603.58	-0.01
603.77	0
603.959	0.03
604.149	-0.01
604.339	-0.03
604.528	0.02
604.718	0.02
604.907	-0.02
605.097	-0.01
605.286	-0.04
605.476	-0.01
605.665	0.01
605.855	-0.01
606.044	0.05
606.234	0.03
606.423	-0.01
606.612	-0.04
606.802	0.01
606.991	0.01
607.181	0
607.37	-0.04
607.559	0.01
607.749	-0.05
607.938	-0.01
608.127	-0.02
608.316	-0.01
608.506	0.02
608.695	-0
608.884	-0.02
609.073	0
609.263	0.01
609.452	0.03
609.641	0
609.83	-0.04
610.019	0.01
610.208	-0.03
610.397	-0
610.586	0.02
610.775	-0.03
610.965	-0.01
611.154	-0.03
611.343	0.02
611.532	0.02
611.721	-0.02
611.91	0
612.099	0.03
612.287	-0.04
612.476	-0.02
612.665	0.03
612.854	-0.03
613.043	0.04
613.232	-0.01
613.421	-0.04
613.61	0.03
613.798	-0.03
613.987	0.04
614.176	-0.01
614.365	0.02
614.554	0.02
614.742	0.03
614.931	-0.04
615.12	0.04
615.309	-0
615.497	0.02
615.686	-0.06
615.875	-0
616.063	0.03
616.252	-0.02
616.44	-0.02
616.629	0.02
616.818	0.03
617.006	-0.04
617.195	0
617.383	0.02
617.572	0
617.76	-0.02
617.949	-0
618.137	0.01
618.326	0
618.514	-0.03
618.703	-0.03
618.891	0.09
619.079	-0.04
619.268	0.02
619.456	-0.05
619.644	0.06
619.833	-0.01
620.021	-0.04
620.209	-0.04
620.398	-0
620.586	0.02
620.774	-0.02
620.962	0.01
621.151	0.03
621.339	0
621.527	-0.04
621.715	-0.07
621.903	-0.02
622.092	-0.06
622.28	0
622.468	-0.02
622.656	-0.01
622.844	0.04
623.032	-0.04
623.22	-0.06
623.408	0.02
623.596	0
623.784	-0
623.972	-0.03
624.16	-0
624.348	0.05
624.536	-0.02
624.724	-0.05
624.912	0.03
625.1	0.03
625.288	-0.02
625.476	-0.01
625.664	0.03
625.851	-0.04
626.039	-0.01
626.227	0.03
626.415	0.02
626.603	-0.09
626.79	0.02
626.978	-0.03
627.166	-0
627.354	0.01
627.541	-0.02
627.729	-0.07
627.917	0.04
628.104	0.04
628.292	-0.03
628.48	0.03
628.667	-0.01
628.855	-0.01
629.042	0.02
629.23	-0.02
629.418	-0
629.605	-0.04
629.793	-0.02
629.98	-0.03
630.168	0.02
630.355	-0.01
630.543	-0.01
630.73	-0.03
630.917	-0.01
631.105	0.07
631.292	-0.04
631.48	0
631.667	0.08
631.854	0
632.042	0.02
632.229	-0.07
632.416	-0.03
632.604	-0.02
632.791	-0.06
632.978	0.02
633.165	0.01
633.353	0.07
633.54	-0
633.727	-0.06
633.914	-0.04
634.101	-0.07
634.289	0.03
634.476	-0.05
634.663	-0.04
634.85	0
635.037	-0.06
635.224	-0.07
635.411	0.03
635.598	0.03
635.785	-0.01
635.972	-0.02
636.159	0.04
636.346	-0.03
636.533	0.01
636.72	-0.03
636.907	-0.01
637.094	-0.01
637.281	-0.02
637.468	-0.01
637.655	-0.02
637.842	-0.01
638.029	-0.02
638.215	0.06
638.402	-0.01
638.589	-0.04
638.776	-0.04
638.963	-0.03
639.149	0.05
639.336	0.07
639.523	-0.02
639.709	0.01
639.896	-0.02
640.083	0.08
640.27	0.02
640.456	-0.04
640.643	-0.01
640.829	-0.05
641.016	-0.04
641.203	-0.05
641.389	0.04
641.576	0.01
641.762	-0.03
641.949	-0.04
642.135	0.01
642.322	0.04
642.508	-0.1
642.695	-0.02
642.881	-0.02
643.068	-0.01
643.254	0.01
643.441	0.04
643.627	0.01
643.813	-0.05
644	0.03
644.186	-0.05
644.372	-0.04
644.559	0.01
644.745	-0.01
644.931	-0.05
645.118	-0
645.304	0.01
645.49	-0.01
645.676	-0.04
645.862	-0.03
646.049	0.05
646.235	-0.01
646.421	0.06
646.607	0.05
646.793	-0.01
646.979	-0.03
647.165	0.02
647.352	0
647.538	0.01
647.724	-0
647.91	-0.02
648.096	0.04
648.282	0
648.468	-0.02
648.654	0
648.84	0.02
649.026	-0.04
649.212	0
649.397	-0.04
649.583	-0.05
649.769	0.01
649.955	0.01
650.141	0
650.327	0.05
650.513	-0.04
650.698	-0.01
650.884	-0.07
651.07	-0.02
651.256	0.01
651.442	-0
651.627	-0.02
651.813	0.01
651.999	-0.01
652.184	0.01
652.37	0.01
652.556	-0.02
652.741	0.03
652.927	-0.05
653.113	0
653.298	0.02
653.484	-0
653.669	-0.06
653.855	0.03
654.04	0.03
654.226	-0.02
654.412	-0.03
654.597	-0.05
654.782	0.01
654.968	0.05
655.153	-0.01
655.339	-0.04
655.524	-0.05
655.71	0.02
655.895	-0.01
656.08	-0.02
656.266	0.03
656.451	-0
656.636	-0.05
656.822	0.01
657.007	-0.01
657.192	-0
657.378	-0.08
657.563	-0.02
657.748	0.04
657.933	-0
658.118	-0.05
658.304	-0.02
658.489	0.03
658.674	0.03
658.859	-0.03
659.044	-0.02
659.229	0.03
659.414	-0.01
659.599	-0.01
659.785	-0.06
659.97	-0.05
660.155	0.01
660.34	-0
660.525	-0.04
660.71	0.01
660.895	0.03
661.08	-0.04
661.264	-0.02
661.449	0.03
661.634	0.06
661.819	-0.01
662.004	0.03
662.189	-0.07
662.374	-0.03
662.559	-0
662.743	-0.08
662.928	-0.01
663.113	-0.01
663.298	-0.04
663.483	-0.02
663.667	0.02
663.852	-0.06
664.037	0
664.221	-0.04
664.406	-0
664.591	0.01
664.775	-0.02
664.96	-0.06
665.145	0
665.329	0
665.514	-0.04
665.698	-0.04
665.883	-0.06
666.068	0.06
666.252	-0.01
666.437	-0.05
666.621	0.01
666.806	0.05
666.99	-0
667.174	-0.04
667.359	0.05
667.543	-0.02
667.728	-0.04
667.912	-0.1
668.096	0
668.281	-0.01
668.465	-0.04
668.649	0.01
668.834	-0.03
669.018	-0.01
669.202	0
669.387	-0.04
669.571	0.01
669.755	-0.03
669.939	-0.02
670.124	-0.01
670.308	0.06
670.492	-0.01
670.676	-0.01
670.86	-0.02
671.044	-0.05
671.228	0
671.413	-0.06
671.597	-0.08
671.781	-0.06
671.965	-0.02
672.149	-0.05
672.333	-0.01
672.517	-0.02
672.701	0.01
672.885	-0.03
673.069	-0.08
673.253	0.04
673.437	-0.04
673.621	-0.04
673.804	-0.05
673.988	-0.04
674.172	0
674.356	-0.06
674.54	-0.03
674.724	0.08
674.908	-0.02
675.091	-0.01
675.275	-0.03
675.459	0.02
675.643	-0.05
675.826	0.03
676.01	-0
676.194	-0.06
676.377	0.02
676.561	0.02
676.745	-0.03
676.928	0.02
677.112	0.09
677.296	-0.06
677.479	-0.03
677.663	-0.02
677.846	0.04
678.03	-0.02
678.213	-0.04
678.397	0
678.58	-0.02
678.764	-0.03
678.947	-0.06
679.131	-0.01
679.314	-0.04
679.498	-0.04
679.681	-0.01
679.865	0.09
680.048	-0.02
680.231	0.02
680.415	-0.01
680.598	-0.03
680.781	-0.01
680.965	-0.01
681.148	-0.01
681.331	0
681.514	0.01
681.698	-0.04
681.881	-0.01
682.064	0.01
682.247	-0.01
682.43	-0.08
682.614	-0.01
682.797	0.06
682.98	0.02
683.163	-0.08
683.346	0.02
683.529	-0.02
683.712	-0.05
683.895	-0.01
684.078	-0.07
684.261	-0.03
684.444	-0.05
684.627	0
684.81	-0.05
684.993	-0
685.176	-0
685.359	-0.05
685.542	-0.03
685.725	0.04
685.908	-0.03
686.091	-0.06
686.274	-0
686.457	0.06
686.639	-0.05
686.822	0.06
687.005	-0.03
687.188	0.03
687.371	0.1
687.553	-0
687.736	-0.03
687.919	0.07
688.102	0.13
688.284	-0.01
688.467	-0.01
688.65	-0.03
688.832	-0.02
689.015	-0.03
689.197	-0.07
689.38	0.06
689.563	0.08
689.745	-0
689.928	0.01
690.11	-0.02
690.293	-0
690.475	-0.03
690.658	0.02
690.84	0.03
691.023	-0
691.205	-0.04
691.388	-0.05
691.57	-0.03
691.752	0.01
691.935	-0.11
692.117	-0.06
692.3	0
692.482	-0
692.664	-0.05
692.847	0
693.029	0.07
693.211	0.01
693.393	-0.01
693.576	-0.04
693.758	0.02
693.94	-0.04
694.122	-0.05
694.304	-0.02
694.487	-0.02
694.669	0.05
694.851	-0.06
695.033	-0.03
695.215	-0.02
695.397	-0.05
695.579	0
695.761	-0.04
695.943	-0.11
696.125	-0
696.308	0.04
696.49	-0.06
696.671	0.08
696.853	-0.09
697.035	0.13
697.217	-0.03
697.399	0.09
697.581	-0.05
697.763	-0.05
697.945	-0.02
698.127	0.02
698.309	0.08
698.491	-0.02
698.672	0.03
698.854	0.01
699.036	0.08
699.218	-0.03
699.399	0.06
699.581	-0.01
699.763	-0
699.945	-0.08
700.126	-0.09
700.308	0.04
700.49	-0.02
700.671	-0.07
700.853	-0.02
701.035	-0.04
701.216	0.01
701.398	-0.07
701.579	-0.04
701.761	0.03
701.943	-0.04
702.124	-0.05
702.306	-0.08
702.487	0.11
702.669	-0.03
702.85	-0.02
703.031	-0.1
703.213	0.15
703.394	0.02
703.576	-0.05
703.757	0.07
703.938	0.02
704.12	0.16
704.301	-0
704.483	-0.03
704.664	-0.01
704.845	0.09
705.026	-0.03
705.208	-0.03
705.389	-0.05
705.57	-0.03
705.751	-0.03
705.933	-0
706.114	0.03
706.295	0.01
706.476	-0.07
706.657	0.05
706.838	-0
707.02	0.03
707.201	-0.07
707.382	-0.08
707.563	0.04
707.744	-0.02
707.925	-0.06
708.106	-0.06
708.287	0.04
708.468	0.08
708.649	-0.04
708.83	0.04
709.011	-0.01
709.192	0.11
709.373	-0.1
709.554	-0.07
709.734	0.02
709.915	0.03
710.096	0.01
710.277	-0.16
710.458	0.01
710.639	0.06
710.819	-0.05
711	-0.06
711.181	0.04
711.362	0.11
711.542	-0.01
711.723	-0.06
711.904	0.12
712.085	0.04
712.265	-0.03
712.446	-0.07
712.627	-0.01
712.807	0.03
712.988	-0.06
713.168	-0.14
713.349	0.02
713.53	-0.13
713.71	-0.07
713.891	-0.08
714.071	-0.04
714.252	-0.07
714.432	-0.14
714.613	-0.09
714.793	-0.01
714.974	0.09
715.154	0.08
715.334	0.01
715.515	0.06
715.695	-0.08
715.876	-0.03
716.056	0.01
716.236	-0.01
716.417	-0.03
716.597	-0.04
716.777	0.17
716.957	-0.04
717.138	-0.04
717.318	-0.01
717.498	-0.07
717.678	-0.03
717.859	-0.06
718.039	-0.06
718.219	0.03
718.399	0.03
718.579	-0.03
718.759	-0.07
718.939	-0.04
719.12	-0.03
719.3	0.07
719.48	-0.15
719.66	-0.04
719.84	0.06
720.02	-0.01
720.2	-0.04
720.38	0.07
720.56	0.1
720.74	0
720.92	0.06
721.1	0.06
721.279	0.09
721.459	-0.02
721.639	-0.12
721.819	-0.01
721.999	-0.04
722.179	0.05
722.359	-0.11
722.538	0
722.718	0.01
722.898	-0.11
723.078	-0.03
723.257	-0.15
723.437	0.03
723.617	0.03
723.797	-0.11
723.976	-0.02
724.156	0.03
724.336	0.06
724.515	0.1
724.695	-0.1
724.874	0.01
725.054	0.05
725.234	-0.03
725.413	-0.02
725.593	-0.07
725.772	-0.05
725.952	0.02
726.131	-0.04
726.311	-0.03
726.49	0.01
726.67	-0.16
726.849	-0.05
727.028	0.04
727.208	-0.05
727.387	0.06
727.567	-0.14
727.746	-0.1
727.925	-0.02
728.105	-0.11
728.284	-0.04
728.463	-0.04
728.643	0.03
728.822	-0.1
729.001	-0.12
729.18	-0.01
729.359	0.07
729.539	-0.06
729.718	-0.1
729.897	0.03
730.076	-0.06
730.255	-0.12
730.434	-0.05
730.614	0.02
730.793	0.01
730.972	-0.07
731.151	-0.03
731.33	-0.05
731.509	0.01
731.688	-0.05
731.867	0.02
732.046	-0.14
732.225	0.07
732.404	-0.11
732.583	-0.17
732.762	0.05
732.941	0.03
733.12	-0.06
733.298	-0.03
733.477	0.08
733.656	-0.03
733.835	-0.1
734.014	0.05
734.193	-0
734.371	0.04
734.55	0.03
734.729	0.04
734.908	-0
735.086	0.05
735.265	0.12
735.444	-0.14
735.623	-0.09
735.801	-0.05
735.98	-0.09
736.159	-0.05
736.337	-0.01
736.516	-0.04
736.694	0.01
736.873	-0.02
737.052	0.05
737.23	0.12
737.409	-0.05
737.587	0.13
737.766	-0.18
737.944	-0.11
738.123	0.01
738.301	-0.05
738.479	-0.11
738.658	-0.05
738.836	-0.19
739.015	-0.05
739.193	0.16
739.371	-0.16
739.55	0.04
739.728	-0.17
739.906	0.05
740.085	0.23
740.263	0.02
740.441	-0.25
740.62	0.25
740.798	0.11
740.976	-0.16
741.154	-0.17
741.332	0.12
741.511	-0.13
741.689	0.06
741.867	0.1
742.045	-0.02
742.223	0
742.401	-0.07
742.579	-0.13
742.757	0.04
742.935	-0.14
743.114	-0.03
743.292	0.06
743.47	-0
743.648	-0
743.826	-0.03
744.004	-0.02
744.181	0.04
744.359	-0.18
744.537	-0.04
744.715	-0.12
744.893	0.03
745.071	0.04
745.249	-0.16
745.427	-0.07
745.605	-0.01
745.782	-0.04
745.96	0.11
746.138	0.02
746.316	0.05
746.493	-0.14
746.671	0.09
746.849	-0.1
747.027	0.04
747.204	-0.05
747.382	0.03
747.56	-0.13
747.737	0.05
747.915	-0.16
748.093	0.01
748.27	-0.03
748.448	-0.02
748.625	-0.15
748.803	-0
748.98	-0.09
749.158	-0.05
749.335	0.04
749.513	-0.07
749.69	-0.07
749.868	-0.1
750.045	-0.02
750.223	-0.09
750.4	-0.18
750.578	0.2
750.755	0.02
750.932	-0.23
751.11	0.15
751.287	-0.09
751.464	0.04
751.642	-0.09
751.819	0.07
751.996	0.13
752.173	-0.09
752.351	-0.06
752.528	-0.05
752.705	-0.16
752.882	-0.09
753.06	0.07
753.237	0.13
753.414	0.04
753.591	0.07
753.768	0.03
753.945	-0.03
754.122	0
754.299	0.08
754.476	-0.22
754.654	0.09
754.831	-0
755.008	0.03
755.185	-0.19
755.362	-0.15
755.539	-0.03
755.716	-0.11
755.892	-0.01
756.069	-0.03
756.246	-0.13
756.423	-0.06
756.6	0.12
756.777	-0.03
756.954	0.04
757.131	-0.08
757.307	-0.07
757.484	-0.12
757.661	0.03
757.838	0.01
758.015	-0.21
758.191	0.03
758.368	0.04
758.545	0.1
758.721	-0.02
758.898	-0.2
759.075	0.1
759.251	0.04
759.428	0.01
759.605	-0.22
759.781	-0.03
759.958	-0
760.134	0.04
760.311	-0.2
760.488	0.09
760.664	0.08
760.841	-0.05
761.017	-0.2
761.194	0.02
761.37	0.03
761.547	0.05
761.723	-0.07
761.899	0.12
762.076	-0.08
762.252	-0.11
762.429	-0.08
762.605	0.01
762.781	-0.01
762.958	0.05
763.134	-0.01
763.31	-0.05
763.486	0.03
763.663	-0.22
763.839	0.05
764.015	-0.24
764.191	-0.09
764.368	-0.11
764.544	-0.06
764.72	-0.06
764.896	0.03
765.072	-0.02
765.248	0
765.425	-0.06
765.601	-0.08
765.777	-0.01
765.953	-0.15
766.129	-0.01
766.305	-0.09
766.481	0.07
766.657	-0.14
766.833	0.08
767.009	-0.17
767.185	-0.03
767.361	0.01
767.537	-0.25
767.713	0.08
767.889	-0.12
768.065	-0.08
768.24	-0.07
768.416	0.16
768.592	0.05
768.768	-0.13
768.944	0.02
769.12	-0.23
769.295	-0.08
769.471	-0.06
769.647	-0.03
769.823	0.13
769.998	-0.04
770.174	-0.26
770.35	0.22
770.525	0.31
770.701	0
770.877	-0.09
771.052	-0.22
771.228	0.12
771.403	0.01
771.579	0.04
771.755	0.24
771.93	-0.06
772.106	-0.06
772.281	-0.11
772.457	-0.06
772.632	0.2
772.808	-0.17
772.983	-0.01
773.159	-0.17
773.334	0.16
773.509	-0.08
773.685	-0.19
773.86	0.3
774.036	0.21
774.211	-0.07
774.386	-0.09
774.562	0.04
774.737	0.21
774.912	-0.24
775.087	-0.02
775.263	-0.09
775.438	0.01
775.613	-0.08
775.788	-0.07
775.964	0.17
776.139	0.26
776.314	-0.22
776.489	-0.02
776.664	-0.03
776.839	-0.2
777.014	0.13
777.19	0.03
777.365	0.07
777.54	0.32
777.715	-0.07
777.89	0.06
778.065	-0.21
778.24	-0.08
778.415	0.2
778.59	-0.15
778.765	-0.08
778.94	0.02
779.115	-0.05
779.289	-0.07
779.464	-0.02
779.639	-0.08
779.814	-0.27
779.989	-0.08
780.164	0.19
780.339	0.08
780.513	-0.21
780.688	-0.24
780.863	0
781.038	0.19
781.212	-0.04
781.387	-0.03
781.562	0.1
781.737	-0
781.911	0.1
782.086	-0.16
782.261	-0.05
782.435	0.32
782.61	-0.09
782.784	0.01
782.959	0.07
783.134	-0.24
783.308	-0.23
783.483	-0.2
783.657	0.39
783.832	0.07
784.006	-0.3
784.181	-0.14
784.355	-0.01
784.53	0.02
784.704	-0.04
784.878	0.29
785.053	-0.04
785.227	0.17
785.402	0.23
785.576	-0.23
785.75	-0.2
785.925	-0.16
786.099	-0.01
786.273	0.01
786.448	0.06
786.622	0.23
786.796	-0.08
786.97	-0.14
787.145	0.42
787.319	-0.2
787.493	-0.2
787.667	-0.43
787.841	-0.1
788.015	0.2
788.19	-0.12
788.364	0.02
788.538	-0.02
788.712	0.09
788.886	-0.04
789.06	0.37
789.234	0.04
789.408	-0.1
789.582	-0.1
789.756	-0.04
789.93	-0.21
790.104	-0.18
790.278	-0.09
790.452	-0.2
790.626	-0.21
790.8	-0.1
790.973	0.2
791.147	0.21
791.321	0.12
791.495	0.16
791.669	-0.03
791.843	0.12
792.016	-0.04
792.19	0.35
792.364	-0.42
792.538	0.57
792.711	0.43
792.885	-0.14
793.059	-0.34
793.233	-0.68
793.406	0.06
793.58	0.07
793.754	0.23
793.927	-0.11
794.101	0.37
794.274	0.16
794.448	0.13
794.622	-0.37
794.795	0.33
794.969	0.02
795.142	0.45
795.316	-0.06
795.489	-0.09
795.663	0.32
795.836	0.11
796.009	-0.12
796.183	0.24
796.356	0.26
796.53	-0
796.703	-0.27
796.876	0.52
797.05	-0.04
797.223	-0.28
797.396	0.18
797.57	-0.17
797.743	0.56
797.916	-0.15
798.09	-0.17
798.263	0.33
798.436	0.21
798.609	-0.25
798.782	-0.22
798.956	0.12
799.129	-0.04
799.302	-0.26
799.475	-0.07
799.648	-0.06
799.821	-0.3
799.994	0.04
800.167	-0.55
800.34	0.19
800.514	-0.12
800.687	-0.11
800.86	-0.23
801.033	-0.13
801.206	0.29
801.379	-0.49
801.551	0.16
801.724	0.02
801.897	0.49
802.07	-0.05
802.243	-0.58
802.416	-0.22
802.589	-0.17
802.762	0.16
802.935	-0.01
803.107	0.09
803.28	0.42
803.453	0.01
803.626	0.02
803.798	-0.07
803.971	-0.2
804.144	0.05
804.317	0.05
804.489	0.46
804.662	-0.21
804.835	-0.06
805.007	-0.43
805.18	0.67
805.353	0.26
805.525	-0.05
805.698	-0.47
805.87	0.23
806.043	0.58
806.215	-0.33
806.388	-0.37
806.56	0.09
806.733	0.34
806.905	-0.1
807.078	-0.04
807.25	-0.27
807.423	0.2
807.595	0.14
807.768	-0.29
807.94	0.17
808.112	-0.21
808.285	0.13
808.457	-0.31
808.629	-0.19
808.802	-0.14
808.974	-0.14
809.146	-0.52
809.318	-0.2
809.491	0.07
809.663	-0.03
809.835	-0.08
810.007	0.27
810.18	-0.49
810.352	-0.53
810.524	-0.04
810.696	0.22
810.868	0.02
811.04	-0.4
811.212	-0.22
811.384	0.6
811.556	-0.15
811.728	-0.11
811.901	0.38
812.073	-0.08
812.245	0.48
812.417	-0.08
812.589	-0.59
812.76	0.14
812.932	0.37
813.104	0.09
813.276	-0.12
813.448	0.48
813.62	0.41
813.792	-0.12
813.964	-0.17
814.136	-0.31
814.307	-0.34
814.479	-0.25
814.651	-0.07
814.823	0.76
814.995	-0.54
815.166	0.22
815.338	-0.25
815.51	-0.36
815.681	0.67
815.853	-0.26
816.025	-0.32
816.196	0.6
816.368	0.29
816.54	-0.74
816.711	-0.59
816.883	0.13
817.054	0.79
817.226	-0.9
817.398	-0.13
817.569	-0.2
817.741	-0.16
817.912	-0.1
818.084	-0.32
818.255	0.36
818.426	-0.63
818.598	-0.07
818.769	-0.37
818.941	0.14
819.112	0.74
819.283	0.13
819.455	-0.44
819.626	-0.23
819.798	0.21
819.969	-0.04
820.14	0.05
820.311	-0
820.483	0.11
820.654	0.42
820.825	-0
820.996	0.09
821.168	-0.69
821.339	0.08
821.51	-0.46
821.681	0.07
821.852	-0.14
822.023	-0.48
822.195	-0.46
822.366	0.64
822.537	-0.01
822.708	-0.21
822.879	-0.13
823.05	0.64
823.221	-0.31
823.392	0.29
823.563	-0.1
823.734	0.21
823.905	-0.27
824.076	-0.1
824.247	-0.13
824.418	-0.13
824.589	0.84
824.759	-0.26
824.93	-0.74
825.101	-0.76
825.272	0.37
825.443	0.52
825.614	0.32
825.784	-0.13
825.955	1.14
826.126	0.05
826.297	-0.11
826.467	0.88
826.638	0.58
826.809	-1.44
826.98	-0.19
827.15	-0.05
827.321	-0.27
827.492	0.45
827.662	-0.34
827.833	0.96
828.003	-0.03
828.174	-0.72
828.345	-0.13
828.515	0.66
828.686	0.09
828.856	-0.11
829.027	-0.38
829.197	0.35
829.368	-0.02
829.538	-0.61
829.709	-0.79
829.879	0.25
830.049	-0.07
830.22	-0.02
830.39	0.15
830.56	0.58
830.731	-0.46
830.901	-0.32
831.072	0.17
831.242	0.07
831.412	0.02
831.582	-0.06
831.753	-0.76
831.923	0.84
832.093	0.07
832.263	-0.12
832.434	-0.29
832.604	-0.26
832.774	-0.02
832.944	-0.22
833.114	-0.22
833.284	-0
833.454	-0.95
833.624	-0.56
833.795	-0.93
833.965	1.62
834.135	0.91
834.305	-1.1
834.475	-0.69
834.645	0.06
834.815	-0.06
834.985	-0.43
835.155	-0.34
835.325	0.26
835.494	0.18
835.664	-0.05
835.834	-1.14
836.004	-0.03
836.174	-0.28
836.344	-0.26
836.514	-1.22
836.684	-0.38
836.853	-0.38
837.023	-0.03
837.193	0.08
837.363	0.82
837.532	0.29
837.702	-0.14
837.872	-0.73
838.041	0.61
838.211	1.33
838.381	-0.8
838.55	-0.8
838.72	1.02
838.89	0.96
839.059	-0.28
839.229	-0.35
839.398	1.17
839.568	0.15
839.738	-0.74
839.907	1.04
840.077	0.1
840.246	-0.51
840.416	-0.21
840.585	-1.33
840.755	1.25
840.924	0.82
841.093	-0.6
841.263	-0.55
841.432	-0.3
841.602	-0.84
841.771	-0.56
841.94	0.2
842.11	0.93
842.279	1.5
842.448	-0.6
842.617	-0.39
842.787	0.79
842.956	-1.51
843.125	0.15
843.294	-0.17
843.464	1.23
843.633	-0.27
843.802	-1.26
843.971	-0.41
844.14	0.09
844.309	0.56
844.479	-0.38
844.648	-0.79
844.817	-0.11
844.986	0.09
845.155	-0.72
845.324	-0.15
845.493	-0.95
845.662	-0.37
845.831	-0
846	0.11
846.169	-0.18
846.338	0.99
846.507	-0.35
846.676	-0.03
846.844	-0.57
847.013	1.21
847.182	0.01
847.351	-0.04
847.52	-0.05
847.689	0.16
847.858	-0.19
848.026	-0.45
848.195	0.48
848.364	-0.31
848.533	-1.12
848.701	-0.31
848.87	-0.64
849.039	0.5
849.207	0.08
849.376	0.95
849.545	0.9
849.713	-0.79
849.882	-0.17
850.051	0.28
850.219	0.08
850.388	1.15
850.556	-0.37
850.725	-0.28
850.893	0.89
851.062	-0.08
851.23	1.34
851.399	-1.08
851.567	-0.9
851.736	-0.65
851.904	-0.67
852.073	-0.36
852.241	0.71
852.41	-1.37
852.578	-0.82
852.746	-0.98
852.915	0.33
853.083	-0.07
853.251	-1.15
853.42	-1.01
853.588	-0.04
853.756	1.14
853.924	-0.58
854.093	0.29
854.261	0.01
854.429	-0.63
854.597	-0.3
854.765	-0.15
854.934	0.93
855.102	-0.13
855.27	-0.64
855.438	-0.36
855.606	0.48
855.774	1.03
855.942	-1.94
856.11	-2.17
856.278	-0.73
856.446	0.54
856.614	-0.71
856.782	-0.73
856.95	0.46
857.118	0.07
857.286	0.6
857.454	-0.29
857.622	0.71
857.79	0.21
857.958	-0.99
858.126	-2.07
858.294	-3.28
858.462	0.39
858.629	-0.43
858.797	-0.64
858.965	0.28
859.133	-0.03
859.301	-0.97
859.468	0.34
859.636	-0.83
859.804	0.32
859.971	0.41
860.139	-1.04
860.307	0.11
860.474	0.54
860.642	0.02
860.81	-1.38
860.977	0.2
861.145	0.12
861.313	-1.44
861.48	0.27
861.648	1.2
861.815	-0.66
861.983	-1.97
862.15	-0.03
862.318	-0.16
862.485	2.24
862.653	-0.64
862.82	-0.71
862.988	2.28
863.155	2.22
863.322	-0.89
863.49	-2.14
863.657	-0.85
863.824	1.58
863.992	1.28
864.159	0.09
864.326	1.82
864.494	-0.58
864.661	2.53
864.828	-2.74
864.996	0.04
865.163	1.42
865.33	-0.24
865.497	-2.3
865.664	-0.63
865.832	-2.8
865.999	0.1
866.166	-1.7
866.333	-1.02
866.5	0.97
866.667	-0.9
866.834	-0.21
867.001	1.21
867.168	-2.49
867.335	-1.32
867.502	-0.98
867.669	1.04
867.836	2.34
868.003	-0.77
868.17	-0.15
868.337	-1.84
868.504	1.98
868.671	-2.21
868.838	-2.83
869.005	0.69
869.172	1.17
869.339	-0.6
869.505	-0.93
869.672	0.3
869.839	0.37
870.006	0.38
870.173	-1.69
870.339	0.88
870.506	2.92
870.673	-2.1
870.84	0.63
871.006	0.03
871.173	1.53
871.34	0.51
871.506	-0.84
871.673	0.83
871.839	-2.6
872.006	0.59
872.173	-0.94
872.339	0.51
872.506	2.4
872.672	-0.27
872.839	-2
873.005	-0.1
873.172	2.11
873.338	0.25
873.505	-1.33
873.671	-2.06
873.838	0.69
874.004	-1.89
874.171	-1.51
874.337	0.01
874.503	1.32
874.67	-0.14
874.836	-1.14
875.002	2.78
875.169	2.34
875.335	1.67
875.501	-1.16
875.668	1.56
875.834	0.12
876	-1.34
876.166	1.32
876.332	1.33
876.499	3.06
876.665	0.9
876.831	-0.48
876.997	1.94
877.163	-0.33
877.329	-1.65
877.495	-0.31
877.662	0.93
877.828	1.88
877.994	-1.31
878.16	-1.57
878.326	-1.24
878.492	1.18
878.658	-1.98
878.824	0.67
878.99	0.68
879.156	-2.91
879.322	0.69
879.487	-0.23
879.653	0.33
879.819	2.46
879.985	-1.9
880.151	0.18
880.317	0.2
880.483	1.7
880.648	2.07
880.814	-2.19
880.98	1.37
881.146	-3.79
881.312	-1.77
881.477	-0.9
881.643	0.24
881.809	3.25
881.974	2.76
882.14	-1.54
882.306	-0.1
882.471	3.27
882.637	0.56
882.803	-0
882.968	1.94
883.134	4.37
883.299	-0.43
883.465	-0.6
883.63	1.43
883.796	-0.32
883.961	2.11
884.127	0.78
884.292	-3.46
884.458	-2.46
884.623	-2.46
