Data from Apollo_Calib_20240827__AbsoluteIrradiance__210__02-39-01-386.txt Node

Date: Wed Aug 28 02:39:01 BST 2024
User: biology
Spectrometer: FLMT08252
Trigger mode: 0
Integration Time (sec): 5.000000E-1
Scans to average: 5
Electric dark correction enabled: true
Nonlinearity correction enabled: false
Boxcar width: 0
XAxis mode: Wavelengths
Number of Pixels in Spectrum: 3648
>>>>>Begin Spectral Data<<<<<
179.588	-0
179.809	-0
180.03	-0
180.251	-0
180.473	-0
180.694	0
180.915	0
181.136	-0
181.357	0
181.578	0
181.799	0
182.02	-0
182.241	0
182.462	-0
182.683	0
182.904	-0
183.125	-0
183.346	0
183.567	0
183.788	-0
184.009	-0
184.23	0
184.451	0
184.672	-0
184.892	-0
185.113	0
185.334	0
185.555	-0
185.776	-0
185.996	0
186.217	0
186.438	0
186.659	-0
186.879	0
187.1	0
187.321	-0
187.541	0
187.762	0
187.983	0
188.203	0
188.424	0
188.644	0
188.865	0
189.086	0
189.306	0
189.527	0
189.747	0
189.968	0
190.188	0
190.409	0
190.629	0
190.849	-0
191.07	-0
191.29	0
191.511	0
191.731	-0
191.951	-0
192.172	0
192.392	0
192.612	0
192.833	0
193.053	0
193.273	0
193.493	0
193.714	0
193.934	0
194.154	0
194.374	0
194.594	0
194.815	0
195.035	0
195.255	0
195.475	-0
195.695	0
195.915	0
196.135	-0
196.355	0
196.575	0
196.795	0
197.015	-0
197.235	0
197.455	0
197.675	0
197.895	0
198.115	0
198.335	0
198.555	0
198.775	0
198.995	0
199.214	0
199.434	-0
199.654	0
199.874	0
200.094	1.64
200.313	0.11
200.533	-0.4
200.753	-0.55
200.973	1.21
201.192	1.08
201.412	-0.17
201.632	-0.32
201.851	0.86
202.071	0.5
202.291	0.04
202.51	-0.24
202.73	1.22
202.95	0.22
203.169	-0.61
203.389	0.13
203.608	0.51
203.828	-0.41
204.047	-0.1
204.267	0.54
204.486	0.35
204.706	0.61
204.925	0.41
205.145	0.21
205.364	0.72
205.583	0.95
205.803	0.05
206.022	-0.19
206.242	0.22
206.461	0.43
206.68	-0.14
206.9	0.16
207.119	0.92
207.338	0.9
207.557	-0.09
207.777	-0.16
207.996	0.13
208.215	0.8
208.434	-0.06
208.654	-0.19
208.873	0.29
209.092	1.02
209.311	0.08
209.53	0.18
209.749	0.26
209.968	0.13
210.187	0.15
210.407	-0.47
210.626	0.11
210.845	0.4
211.064	0.09
211.283	0.06
211.502	0.47
211.721	0.12
211.94	0.04
212.159	0.18
212.377	0.52
212.596	0.6
212.815	0.27
213.034	0.53
213.253	0.33
213.472	0.49
213.691	0.03
213.91	-0.08
214.128	0.03
214.347	0.54
214.566	-0.16
214.785	-0.31
215.003	0.51
215.222	0.2
215.441	-0.07
215.66	-0.04
215.878	0.08
216.097	0.37
216.316	-0.13
216.534	-0.04
216.753	0.36
216.972	0.1
217.19	0.03
217.409	-0.04
217.627	0.06
217.846	-0
218.064	0.1
218.283	0.13
218.501	0.62
218.72	0.21
218.938	0.01
219.157	-0.03
219.375	0.33
219.594	0.04
219.812	-0.23
220.031	-0.12
220.249	0.44
220.467	0.53
220.686	-0
220.904	-0.15
221.122	0.02
221.341	0.36
221.559	0.2
221.777	0.04
221.995	0.04
222.214	0.16
222.432	-0.06
222.65	0.19
222.868	0.13
223.086	0.17
223.305	0.18
223.523	0.15
223.741	0.48
223.959	-0.04
224.177	-0
224.395	-0.05
224.613	0.2
224.831	0.36
225.049	-0.13
225.267	0.03
225.485	0.15
225.703	0.13
225.921	0.08
226.139	0.01
226.357	0.27
226.575	0.18
226.793	-0.07
227.011	0.81
227.229	0.27
227.447	0.36
227.665	0.03
227.883	-0.2
228.1	0.15
228.318	0.19
228.536	-0.23
228.754	-0.04
228.972	0.25
229.189	0.23
229.407	-0.07
229.625	0.07
229.843	0.43
230.06	0.19
230.278	0.07
230.496	0.12
230.713	0.14
230.931	0.24
231.149	0.11
231.366	-0.07
231.584	0.09
231.801	0.43
232.019	0.08
232.236	-0.14
232.454	0
232.671	0.16
232.889	0.09
233.106	-0.01
233.324	0.15
233.541	0.06
233.759	0.07
233.976	-0.03
234.194	0.16
234.411	0.12
234.628	-0.09
234.846	0.06
235.063	0.13
235.28	0.06
235.498	-0.02
235.715	-0.03
235.932	0.1
236.149	0.09
236.367	-0.07
236.584	0.2
236.801	0
237.018	0.1
237.236	0.02
237.453	-0.09
237.67	0.21
237.887	0.09
238.104	0.04
238.321	0.02
238.538	-0
238.755	0.21
238.973	-0.14
239.19	0.07
239.407	0.09
239.624	0.1
239.841	-0.12
240.058	-0.12
240.275	0.2
240.492	0.14
240.709	0.09
240.925	0
241.142	0.03
241.359	0.03
241.576	0.03
241.793	0.05
242.01	0.06
242.227	0.23
242.444	0.1
242.66	0.17
242.877	0.05
243.094	-0
243.311	0.11
243.527	0.04
243.744	0.15
243.961	0.09
244.178	0.04
244.394	0.02
244.611	0.34
244.828	0.17
245.044	0.01
245.261	0.05
245.477	0.06
245.694	0.1
245.911	-0.04
246.127	0.02
246.344	0.27
246.56	0.22
246.777	0.06
246.993	0.08
247.21	0.07
247.426	0.19
247.643	0.1
247.859	0.01
248.076	0.05
248.292	0.23
248.508	0.1
248.725	0.13
248.941	0.05
249.157	0.23
249.374	-0.01
249.59	0.01
249.806	0.08
250.023	0.21
250.239	-0.01
250.455	-0.02
250.671	0.19
250.888	0.08
251.104	0.11
251.32	0.01
251.536	0.11
251.752	0.02
251.969	0.07
252.185	0.13
252.401	0.26
252.617	0.08
252.833	0.02
253.049	0.14
253.265	0.06
253.481	0.08
253.697	0.03
253.913	0.01
254.129	0.14
254.345	0.17
254.561	-0.02
254.777	0.06
254.993	0.17
255.209	0.11
255.425	0.01
255.641	-0.03
255.857	0.19
256.073	0.11
256.288	-0
256.504	0.02
256.72	0.1
256.936	0.17
257.152	0.05
257.367	0
257.583	0.12
257.799	0.18
258.015	-0.06
258.23	0.08
258.446	0.23
258.662	0.06
258.877	-0.03
259.093	-0
259.309	0.06
259.524	0.09
259.74	0.04
259.955	-0.13
260.171	0.06
260.387	0.01
260.602	0.17
260.818	0.09
261.033	-0.02
261.249	0.02
261.464	0.04
261.68	-0.08
261.895	0.16
262.11	0.1
262.326	-0.03
262.541	-0.05
262.757	0.1
262.972	0.1
263.187	0.06
263.403	0.08
263.618	0.07
263.833	0.05
264.049	0.02
264.264	0.07
264.479	0.05
264.694	0.28
264.91	-0.03
265.125	-0.03
265.34	0.11
265.555	0.17
265.77	0.04
265.986	0.04
266.201	0.11
266.416	0.16
266.631	0.04
266.846	0.03
267.061	0.11
267.276	0.1
267.491	-0.09
267.706	0.07
267.921	0.11
268.136	0.08
268.351	0.01
268.566	-0.02
268.781	0.15
268.996	0.08
269.211	0.07
269.426	0.02
269.641	0.09
269.856	0.1
270.071	0.01
270.285	-0.04
270.5	0.16
270.715	0.14
270.93	0.02
271.145	0.06
271.359	0.09
271.574	0.03
271.789	0.01
272.004	-0.02
272.218	0.07
272.433	0.11
272.648	0.04
272.862	0.08
273.077	0.07
273.292	0.12
273.506	-0.01
273.721	0.02
273.936	0.08
274.15	0.14
274.365	0.04
274.579	0.15
274.794	0.24
275.008	0.15
275.223	-0.05
275.437	0.04
275.652	0.14
275.866	0.09
276.081	0.12
276.295	0.11
276.509	0.1
276.724	0.03
276.938	0.01
277.153	0.05
277.367	0.13
277.581	-0.02
277.796	0.07
278.01	-0.03
278.224	0.09
278.438	0.18
278.653	-0.01
278.867	0
279.081	-0.12
279.295	0.1
279.51	0.11
279.724	-0.02
279.938	0.11
280.152	0.07
280.366	-0.02
280.58	0.04
280.794	0.11
281.008	0.11
281.222	0.11
281.437	0.22
281.651	0.08
281.865	0.12
282.079	0.01
282.293	-0.06
282.507	-0.01
282.721	0.05
282.935	0.01
283.148	-0.04
283.362	0.04
283.576	0
283.79	0.01
284.004	0.06
284.218	0.14
284.432	0.04
284.646	0.05
284.859	0.01
285.073	0.07
285.287	0.08
285.501	0.03
285.714	0.09
285.928	0.07
286.142	0.07
286.356	0.06
286.569	0.02
286.783	0.13
286.997	0.08
287.21	0.04
287.424	0.05
287.637	0.07
287.851	0
288.065	0.11
288.278	0.02
288.492	0.05
288.705	0.05
288.919	0.03
289.132	-0
289.346	0.17
289.559	-0.02
289.773	0.01
289.986	0.06
290.2	0.03
290.413	0.11
290.626	0.02
290.84	-0.01
291.053	0.05
291.267	0.16
291.48	0.05
291.693	0.06
291.906	0.04
292.12	0.03
292.333	-0.03
292.546	0.02
292.76	0.12
292.973	0.11
293.186	0.09
293.399	0
293.612	0.11
293.826	0.04
294.039	-0
294.252	0.06
294.465	0.08
294.678	0.07
294.891	0.03
295.104	-0.02
295.317	0.02
295.53	0.05
295.743	0.03
295.956	0.04
296.169	0.13
296.382	0.08
296.595	0.04
296.808	0.02
297.021	0.15
297.234	0.1
297.447	0.07
297.66	0.07
297.873	0.1
298.086	0.04
298.299	0.03
298.511	-0.06
298.724	0.07
298.937	0.02
299.15	-0.01
299.363	0.06
299.575	0.09
299.788	0.09
300.001	0.06
300.213	-0.01
300.426	0.05
300.639	0
300.852	-0
301.064	0.09
301.277	0.16
301.489	0.12
301.702	0.11
301.915	0.05
302.127	0.04
302.34	0.07
302.552	0.07
302.765	0.02
302.977	0.1
303.19	-0.03
303.402	0.04
303.615	0.03
303.827	0.05
304.04	0.06
304.252	0.09
304.464	0.03
304.677	0.19
304.889	0.05
305.102	0.04
305.314	0.05
305.526	0.09
305.739	0.07
305.951	0.01
306.163	0.05
306.375	0.12
306.588	0.03
306.8	0.02
307.012	0.01
307.224	0.05
307.436	0.11
307.649	-0.05
307.861	0.08
308.073	0.12
308.285	0.06
308.497	-0.02
308.709	0.01
308.921	0.08
309.133	0.12
309.346	0.04
309.558	0.06
309.77	0.14
309.982	0.1
310.194	0.09
310.406	0.02
310.617	0.12
310.829	0.09
311.041	0.09
311.253	0
311.465	0.02
311.677	0.04
311.889	0.03
312.101	0.05
312.313	0.1
312.524	0.12
312.736	-0.01
312.948	0.03
313.16	0.14
313.372	0.12
313.583	0.07
313.795	0.03
314.007	0.02
314.218	0.12
314.43	0.07
314.642	0.06
314.853	0.02
315.065	0.12
315.277	0.06
315.488	0.08
315.7	0.07
315.912	0.08
316.123	0.03
316.335	0.05
316.546	0.17
316.758	0.03
316.969	0.03
317.181	0.06
317.392	0.06
317.604	0.1
317.815	0.05
318.026	-0.01
318.238	0.06
318.449	0.09
318.661	-0
318.872	-0.01
319.083	0
319.295	0.05
319.506	0.07
319.717	0.04
319.929	0.1
320.14	0.05
320.351	0.05
320.562	0.03
320.774	0.06
320.985	0.09
321.196	0.01
321.407	-0.01
321.618	0.12
321.829	0.05
322.041	0.06
322.252	0.07
322.463	0.1
322.674	0.09
322.885	0.01
323.096	0
323.307	0.01
323.518	0.04
323.729	0.05
323.94	0.05
324.151	0.04
324.362	0.09
324.573	0.09
324.784	0.05
324.995	0.09
325.206	0.07
325.417	0.03
325.628	0.02
325.838	0.06
326.049	0.13
326.26	0.12
326.471	0.05
326.682	0.13
326.892	0.08
327.103	-0.01
327.314	-0.01
327.525	0.1
327.735	0.1
327.946	0.04
328.157	0.04
328.368	0.08
328.578	0.05
328.789	0.08
328.999	0.05
329.21	0.04
329.421	0.09
329.631	0.04
329.842	0.06
330.052	0.07
330.263	0.06
330.473	0.06
330.684	0.01
330.894	0
331.105	0.08
331.315	0.1
331.526	0.01
331.736	0.16
331.947	0.09
332.157	0.12
332.367	0.01
332.578	0.09
332.788	0.13
332.999	0.11
333.209	0.05
333.419	0.01
333.629	0.07
333.84	0.06
334.05	0.04
334.26	0.14
334.47	0.07
334.681	0.12
334.891	0.04
335.101	0.11
335.311	0.14
335.521	0.06
335.732	0.05
335.942	0.1
336.152	0.11
336.362	0.09
336.572	0.05
336.782	0.1
336.992	0.06
337.202	0.07
337.412	0.04
337.622	0.11
337.832	0.08
338.042	0.04
338.252	0.03
338.462	0.04
338.672	0.06
338.882	0
339.092	0.05
339.302	0.12
339.511	0.09
339.721	0.04
339.931	0
340.141	0.12
340.351	0.14
340.561	0.12
340.77	0.09
340.98	0.08
341.19	0.08
341.4	0.02
341.609	0.03
341.819	0.06
342.029	0.04
342.238	0.09
342.448	0.02
342.658	0.12
342.867	0.08
343.077	0.11
343.286	0.08
343.496	0.03
343.706	0.15
343.915	0.01
344.125	0.05
344.334	0.09
344.544	-0.01
344.753	0.02
344.963	0
345.172	0.08
345.381	0.04
345.591	0.08
345.8	0.04
346.01	0.15
346.219	0.11
346.428	-0.07
346.638	0.06
346.847	0.06
347.056	0.12
347.266	0.03
347.475	0.1
347.684	0.14
347.893	0.07
348.103	0.06
348.312	0.05
348.521	0.05
348.73	0.06
348.94	0.09
349.149	0.05
349.358	0.04
349.567	0.08
349.776	0.03
349.985	0.04
350.194	0.12
350.403	0.12
350.612	-0.01
350.821	0.03
351.03	0.04
351.239	0
351.448	0.08
351.657	0.02
351.866	0.15
352.075	0.08
352.284	0.05
352.493	0.03
352.702	0.13
352.911	0.08
353.12	0.12
353.329	0.06
353.538	0.09
353.746	0.08
353.955	0.01
354.164	0.12
354.373	0.1
354.582	0.11
354.79	0.09
354.999	0.11
355.208	0.09
355.416	0.11
355.625	0.04
355.834	0.03
356.042	0.09
356.251	0.08
356.46	0.06
356.668	0.11
356.877	0.18
357.085	0.13
357.294	0.03
357.503	0.09
357.711	0.1
357.92	0.23
358.128	0.02
358.337	0.06
358.545	0.09
358.754	0.08
358.962	0.11
359.17	0.05
359.379	0.12
359.587	0.14
359.796	0.07
360.004	0.15
360.212	0.16
360.421	0.12
360.629	0.06
360.837	0.07
361.046	0.13
361.254	0.19
361.462	0.1
361.67	0.05
361.879	0.07
362.087	0.12
362.295	0.11
362.503	0.04
362.711	0.02
362.92	0.1
363.128	0.07
363.336	0.05
363.544	0.03
363.752	0.05
363.96	0.06
364.168	0.05
364.376	0.06
364.584	0.1
364.792	0.13
365	0.1
365.208	0.12
365.416	0.1
365.624	0.13
365.832	0.07
366.04	0.15
366.248	0.09
366.456	0.11
366.664	0.1
366.872	0.07
367.079	0.05
367.287	0.11
367.495	0.11
367.703	0.06
367.911	0.04
368.118	0.09
368.326	0.14
368.534	0.09
368.742	0.14
368.949	0.06
369.157	0.06
369.365	0.13
369.572	0.08
369.78	0.05
369.988	0.14
370.195	0.12
370.403	0.15
370.61	0.07
370.818	0.11
371.026	0.16
371.233	0.08
371.441	0.11
371.648	0.07
371.856	0.12
372.063	0.12
372.271	0.05
372.478	0.09
372.685	0.07
372.893	0.15
373.1	0.07
373.308	0.12
373.515	0.18
373.722	0.13
373.93	0.1
374.137	0.15
374.344	0.2
374.552	0.11
374.759	0.12
374.966	0.12
375.173	0.16
375.381	0.18
375.588	0.17
375.795	0.08
376.002	0.08
376.209	0.09
376.417	0.11
376.624	0.14
376.831	0.15
377.038	0.15
377.245	0.04
377.452	0.12
377.659	0.08
377.866	0.11
378.073	0.11
378.28	0.1
378.487	0.18
378.694	0.21
378.901	0.09
379.108	0.14
379.315	0.2
379.522	0.23
379.729	0.13
379.936	0.15
380.143	0.2
380.35	0.18
380.557	0.17
380.763	0.15
380.97	0.19
381.177	0.17
381.384	0.19
381.591	0.17
381.797	0.2
382.004	0.21
382.211	0.23
382.418	0.23
382.624	0.26
382.831	0.26
383.038	0.2
383.244	0.24
383.451	0.23
383.658	0.23
383.864	0.21
384.071	0.18
384.277	0.34
384.484	0.24
384.69	0.32
384.897	0.24
385.103	0.26
385.31	0.29
385.516	0.28
385.723	0.28
385.929	0.34
386.136	0.31
386.342	0.37
386.549	0.37
386.755	0.42
386.961	0.4
387.168	0.41
387.374	0.46
387.58	0.47
387.787	0.51
387.993	0.54
388.199	0.51
388.406	0.55
388.612	0.57
388.818	0.59
389.024	0.55
389.231	0.65
389.437	0.74
389.643	0.71
389.849	0.75
390.055	0.79
390.261	0.81
390.467	0.89
390.674	0.85
390.88	0.93
391.086	1
391.292	0.98
391.498	1.1
391.704	1.13
391.91	1.23
392.116	1.21
392.322	1.19
392.528	1.45
392.734	1.42
392.94	1.48
393.146	1.6
393.352	1.64
393.557	1.66
393.763	1.78
393.969	1.86
394.175	1.94
394.381	2.07
394.587	2.14
394.792	2.26
394.998	2.47
395.204	2.54
395.41	2.53
395.615	2.79
395.821	2.89
396.027	3.04
396.233	3.22
396.438	3.39
396.644	3.57
396.85	3.75
397.055	3.91
397.261	4.11
397.466	4.24
397.672	4.32
397.878	4.68
398.083	4.65
398.289	4.87
398.494	5.09
398.7	5.36
398.905	5.34
399.111	5.79
399.316	5.68
399.522	6.17
399.727	6.32
399.932	6.51
400.138	6.86
400.343	7.1
400.549	7.21
400.754	7.71
400.959	7.96
401.165	8.52
401.37	8.7
401.575	9.22
401.78	9.32
401.986	9.64
402.191	10.09
402.396	10.58
402.601	10.94
402.807	11.27
403.012	11.57
403.217	12.44
403.422	12.6
403.627	12.96
403.832	13.68
404.037	13.86
404.243	13.99
404.448	14.63
404.653	15.08
404.858	15.31
405.063	15.07
405.268	15.86
405.473	16.07
405.678	16.25
405.883	17.01
406.088	17.05
406.293	17.23
406.498	17.71
406.703	17.51
406.907	18.06
407.112	18.78
407.317	19.26
407.522	19.51
407.727	19.69
407.932	19.96
408.136	20.3
408.341	20.15
408.546	20.13
408.751	20.11
408.956	20.05
409.16	20.46
409.365	20.31
409.57	19.62
409.774	19.86
409.979	19.81
410.184	19.57
410.388	19.34
410.593	19.45
410.798	19.48
411.002	19.33
411.207	19.03
411.411	18.84
411.616	18.44
411.82	18.39
412.025	17.95
412.229	17.69
412.434	17.28
412.638	16.87
412.843	16.44
413.047	15.98
413.252	15.57
413.456	15.67
413.66	15.14
413.865	14.69
414.069	14.14
414.273	14.2
414.478	13.65
414.682	13.22
414.886	13.03
415.091	12.43
415.295	12.25
415.499	11.93
415.703	11.33
415.908	11.35
416.112	10.84
416.316	10.95
416.52	10.57
416.724	10.12
416.929	10.02
417.133	9.99
417.337	9.52
417.541	9.41
417.745	9.24
417.949	8.95
418.153	8.85
418.357	8.57
418.561	8.57
418.765	8.28
418.969	8.02
419.173	8.15
419.377	7.73
419.581	7.76
419.785	7.54
419.989	7.37
420.193	7.27
420.397	7.13
420.601	6.96
420.804	6.88
421.008	6.51
421.212	6.57
421.416	6.13
421.62	5.97
421.823	5.76
422.027	5.72
422.231	5.46
422.435	5.27
422.638	5.01
422.842	4.96
423.046	4.82
423.249	4.81
423.453	4.58
423.657	4.52
423.86	4.41
424.064	4.28
424.268	4.25
424.471	4
424.675	4.04
424.878	3.91
425.082	3.83
425.285	3.87
425.489	3.55
425.692	3.57
425.896	3.36
426.099	3.39
426.303	3.24
426.506	3.13
426.71	3.17
426.913	3.19
427.116	3.15
427.32	2.92
427.523	2.87
427.726	2.91
427.93	2.71
428.133	2.72
428.336	2.69
428.54	2.62
428.743	2.61
428.946	2.59
429.149	2.58
429.353	2.45
429.556	2.44
429.759	2.28
429.962	2.2
430.165	2.28
430.368	2.07
430.571	1.96
430.775	1.89
430.978	1.89
431.181	1.85
431.384	1.83
431.587	1.73
431.79	1.78
431.993	1.72
432.196	1.66
432.399	1.69
432.602	1.75
432.805	1.63
433.008	1.72
433.211	1.54
433.414	1.68
433.616	1.58
433.819	1.48
434.022	1.44
434.225	1.56
434.428	1.45
434.631	1.67
434.833	1.36
435.036	1.37
435.239	1.44
435.442	1.33
435.645	1.34
435.847	1.31
436.05	1.33
436.253	1.27
436.455	1.21
436.658	1.25
436.861	1.25
437.063	1.19
437.266	1.11
437.468	1.17
437.671	1.26
437.874	1.1
438.076	1.06
438.279	1
438.481	1.05
438.684	1.07
438.886	1.06
439.089	0.91
439.291	0.99
439.494	0.99
439.696	0.92
439.899	0.89
440.101	0.99
440.303	0.84
440.506	1.02
440.708	0.95
440.91	0.9
441.113	0.85
441.315	0.92
441.517	0.8
441.72	0.92
441.922	0.77
442.124	0.7
442.326	0.78
442.529	0.85
442.731	0.69
442.933	0.86
443.135	0.7
443.337	0.7
443.539	0.7
443.742	0.66
443.944	0.7
444.146	0.54
444.348	0.65
444.55	0.58
444.752	0.62
444.954	0.56
445.156	0.61
445.358	0.53
445.56	0.64
445.762	0.56
445.964	0.59
446.166	0.5
446.368	0.54
446.57	0.53
446.772	0.52
446.974	0.49
447.175	0.53
447.377	0.46
447.579	0.48
447.781	0.36
447.983	0.55
448.184	0.44
448.386	0.49
448.588	0.37
448.79	0.45
448.991	0.44
449.193	0.45
449.395	0.43
449.597	0.48
449.798	0.45
450	0.42
450.202	0.47
450.403	0.38
450.605	0.49
450.806	0.37
451.008	0.33
451.21	0.4
451.411	0.42
451.613	0.36
451.814	0.35
452.016	0.41
452.217	0.4
452.419	0.37
452.62	0.37
452.821	0.36
453.023	0.45
453.224	0.39
453.426	0.34
453.627	0.34
453.828	0.39
454.03	0.35
454.231	0.4
454.432	0.28
454.634	0.44
454.835	0.35
455.036	0.27
455.238	0.42
455.439	0.42
455.64	0.28
455.841	0.33
456.042	0.46
456.244	0.39
456.445	0.27
456.646	0.28
456.847	0.3
457.048	0.36
457.249	0.36
457.45	0.61
457.651	0.3
457.852	0.45
458.054	0.31
458.255	0.27
458.456	0.34
458.657	0.33
458.858	0.24
459.058	0.34
459.259	0.39
459.46	0.3
459.661	0.33
459.862	0.47
460.063	0.3
460.264	0.41
460.465	0.27
460.666	0.46
460.866	0.3
461.067	0.31
461.268	0.25
461.469	0.28
461.67	0.32
461.87	0.28
462.071	0.25
462.272	0.28
462.473	0.32
462.673	0.34
462.874	0.3
463.075	0.33
463.275	0.25
463.476	0.32
463.676	0.34
463.877	0.25
464.078	0.33
464.278	0.42
464.479	0.27
464.679	0.3
464.88	0.3
465.08	0.4
465.281	0.3
465.481	0.31
465.682	0.28
465.882	0.34
466.083	0.29
466.283	0.27
466.483	0.25
466.684	0.24
466.884	0.27
467.085	0.28
467.285	0.3
467.485	0.22
467.686	0.27
467.886	0.23
468.086	0.28
468.286	0.27
468.487	0.31
468.687	0.24
468.887	0.28
469.087	0.33
469.287	0.27
469.488	0.21
469.688	0.28
469.888	0.28
470.088	0.27
470.288	0.3
470.488	0.32
470.688	0.21
470.888	0.21
471.088	0.18
471.288	0.28
471.488	0.27
471.688	0.26
471.888	0.22
472.088	0.32
472.288	0.3
472.488	0.21
472.688	0.2
472.888	0.22
473.088	0.25
473.288	0.2
473.488	0.19
473.688	0.3
473.887	0.21
474.087	0.19
474.287	0.21
474.487	0.19
474.687	0.21
474.886	0.21
475.086	0.16
475.286	0.23
475.486	0.19
475.685	0.19
475.885	0.19
476.085	0.19
476.284	0.25
476.484	0.22
476.684	0.18
476.883	0.22
477.083	0.25
477.282	0.12
477.482	0.26
477.681	0.25
477.881	0.2
478.08	0.16
478.28	0.14
478.479	0.18
478.679	0.24
478.878	0.17
479.078	0.16
479.277	0.17
479.477	0.13
479.676	0.21
479.875	0.15
480.075	0.11
480.274	0.14
480.473	0.15
480.673	0.12
480.872	0.21
481.071	0.16
481.271	0.18
481.47	0.13
481.669	0.16
481.868	0.14
482.067	0.13
482.267	0.12
482.466	0.11
482.665	0.15
482.864	0.1
483.063	0.06
483.262	0.12
483.461	0.17
483.661	0.15
483.86	0.14
484.059	0.14
484.258	0.15
484.457	0.13
484.656	0.12
484.855	0.13
485.054	0.07
485.253	0.1
485.452	0.1
485.651	0.15
485.849	0.11
486.048	0.07
486.247	0.09
486.446	0.13
486.645	0.09
486.844	0.1
487.043	0.11
487.241	0.15
487.44	0.09
487.639	0.12
487.838	0.14
488.037	0.11
488.235	0.2
488.434	0.13
488.633	0.07
488.831	0.12
489.03	0.14
489.229	0.11
489.427	0.11
489.626	0.14
489.825	0.15
490.023	0.1
490.222	0.08
490.42	0.15
490.619	0.17
490.817	0.11
491.016	0.09
491.214	0.14
491.413	0.1
491.611	0.09
491.81	0.1
492.008	0.13
492.207	0.12
492.405	0.11
492.604	0.07
492.802	0.09
493	0.12
493.199	0.1
493.397	0.1
493.595	0.11
493.794	0.11
493.992	0.13
494.19	0.09
494.388	0.13
494.587	0.08
494.785	0.11
494.983	0.06
495.181	0.11
495.379	0.11
495.578	0.1
495.776	0.1
495.974	0.11
496.172	0.11
496.37	0.08
496.568	0.06
496.766	0.09
496.964	0.14
497.162	0.1
497.36	0.08
497.558	0.09
497.756	0.1
497.954	0.09
498.152	0.06
498.35	0.1
498.548	0.1
498.746	0.08
498.944	0.07
499.142	0.07
499.34	0.05
499.538	0.08
499.736	0.06
499.933	0.11
500.131	0.13
500.329	0.09
500.527	0.13
500.725	0.12
500.922	0.09
501.12	0.1
501.318	0.09
501.516	0.06
501.713	0.09
501.911	0.08
502.109	0.05
502.306	0.1
502.504	0.08
502.701	0.06
502.899	0.06
503.097	0.12
503.294	0.06
503.492	0.09
503.689	0.09
503.887	0.13
504.084	0.14
504.282	0.09
504.479	0.04
504.677	0.07
504.874	0.05
505.072	0.06
505.269	0.07
505.466	0.09
505.664	0.1
505.861	0.06
506.059	0.07
506.256	0.1
506.453	0.05
506.651	0.14
506.848	0.1
507.045	0.1
507.242	0.08
507.44	0.08
507.637	0.05
507.834	0.06
508.031	0.09
508.229	0.06
508.426	0.07
508.623	0.11
508.82	0.06
509.017	0.03
509.214	0.06
509.411	0.09
509.608	0.04
509.805	0.06
510.003	0.07
510.2	0.05
510.397	0.11
510.594	0.06
510.791	0.04
510.988	0.07
511.184	0.1
511.381	0.06
511.578	0.04
511.775	0.09
511.972	0.06
512.169	0.06
512.366	0.06
512.563	0.08
512.76	0.04
512.956	0.08
513.153	0.06
513.35	0.06
513.547	0.03
513.744	0.03
513.94	0.04
514.137	0.07
514.334	0.06
514.53	0.05
514.727	0.06
514.924	0.12
515.12	0.06
515.317	0.03
515.514	0.03
515.71	0.03
515.907	0.05
516.103	0.06
516.3	0.06
516.497	0.1
516.693	0.09
516.89	0.04
517.086	0.03
517.283	0.09
517.479	0.04
517.676	0.05
517.872	0.05
518.068	0.04
518.265	0.04
518.461	0.03
518.658	0.02
518.854	0.06
519.05	0.03
519.247	0.04
519.443	0.07
519.639	0.06
519.836	0.06
520.032	0.05
520.228	0.05
520.424	0.09
520.621	0.09
520.817	0.06
521.013	0.09
521.209	0.05
521.405	0.1
521.601	0.05
521.798	0.05
521.994	0.1
522.19	0.02
522.386	0.01
522.582	0.04
522.778	0.05
522.974	0.05
523.17	0.05
523.366	0.06
523.562	0.08
523.758	0.04
523.954	0.04
524.15	0.02
524.346	0.09
524.542	0.05
524.738	0.02
524.934	0.05
525.129	0.05
525.325	0.03
525.521	0.05
525.717	0.07
525.913	0.06
526.109	0.04
526.304	0.04
526.5	0.05
526.696	0.08
526.892	0.03
527.087	0.03
527.283	0.02
527.479	0.04
527.674	0.01
527.87	0.05
528.066	0.04
528.261	0.07
528.457	0.06
528.653	0.02
528.848	0.03
529.044	0.06
529.239	0.05
529.435	0.07
529.63	0.06
529.826	0.09
530.021	0.06
530.217	0.06
530.412	0.03
530.608	0.02
530.803	0.04
530.999	0.05
531.194	-0
531.389	0.03
531.585	-0.02
531.78	0.05
531.975	0.04
532.171	0.07
532.366	0.04
532.561	0.06
532.757	0.02
532.952	0.04
533.147	0.04
533.342	0.03
533.538	0.03
533.733	0.08
533.928	0.05
534.123	0.04
534.318	0.02
534.513	0.05
534.709	0.05
534.904	0.02
535.099	0.03
535.294	0.05
535.489	0.04
535.684	0.04
535.879	0.01
536.074	0.06
536.269	0.01
536.464	0.05
536.659	0.05
536.854	0.04
537.049	0.06
537.244	0.03
537.439	0.02
537.634	0.07
537.828	0.05
538.023	0.05
538.218	0.01
538.413	0.03
538.608	0.01
538.803	0.06
538.997	-0
539.192	0.08
539.387	0.05
539.582	0.04
539.776	0.05
539.971	0.02
540.166	0.03
540.36	0.02
540.555	0.02
540.75	0.04
540.944	0.04
541.139	0
541.334	0.03
541.528	0.06
541.723	0.06
541.917	-0
542.112	-0
542.306	0.01
542.501	0.01
542.695	0.03
542.89	0.03
543.084	0.05
543.279	0.04
543.473	0.02
543.668	0.03
543.862	0.04
544.056	0.04
544.251	0.05
544.445	0.04
544.64	0.02
544.834	0.01
545.028	0.03
545.222	0.06
545.417	0.07
545.611	0.06
545.805	0.03
546	0.04
546.194	0.05
546.388	0.03
546.582	0.05
546.776	0.02
546.97	0.04
547.165	0.04
547.359	0.05
547.553	0.01
547.747	0.04
547.941	0.03
548.135	0.03
548.329	0.06
548.523	0.04
548.717	0.03
548.911	0.04
549.105	0.03
549.299	0.04
549.493	0.05
549.687	0.06
549.881	0.06
550.075	0.04
550.269	0.01
550.463	0.04
550.657	0
550.85	0.02
551.044	-0.01
551.238	0.03
551.432	0.02
551.626	0.01
551.82	0.04
552.013	0
552.207	0.02
552.401	0.06
552.594	0.03
552.788	0.02
552.982	0.03
553.176	0.02
553.369	0.04
553.563	0.06
553.756	-0.01
553.95	-0.01
554.144	0.03
554.337	0.07
554.531	0.04
554.724	0.04
554.918	0.02
555.111	0.07
555.305	0.03
555.498	0.08
555.692	0.04
555.885	0.01
556.079	0.04
556.272	0.04
556.466	0.07
556.659	0.04
556.852	0.02
557.046	0.01
557.239	0.06
557.432	-0.03
557.626	0.01
557.819	0.03
558.012	0.05
558.206	0.04
558.399	0.03
558.592	0.05
558.785	0.02
558.979	0.04
559.172	0.01
559.365	0.05
559.558	0.04
559.751	0.03
559.944	0.06
560.138	0.01
560.331	0.03
560.524	0.02
560.717	0.03
560.91	0.03
561.103	0.06
561.296	0.05
561.489	0.03
561.682	0.03
561.875	0.05
562.068	0.03
562.261	0.05
562.454	0.07
562.647	0.03
562.84	0.04
563.032	0.03
563.225	0.03
563.418	0.01
563.611	0.02
563.804	0.03
563.997	-0.02
564.19	0.01
564.382	0.04
564.575	0.01
564.768	0.03
564.961	0.01
565.153	0.01
565.346	0.04
565.539	0.03
565.731	0.03
565.924	0.03
566.117	0.04
566.309	0.04
566.502	0.02
566.695	0.03
566.887	0.04
567.08	-0.01
567.272	0.01
567.465	0.02
567.657	0.01
567.85	0.05
568.042	0.04
568.235	0.05
568.427	0.02
568.62	0.03
568.812	0.03
569.005	0.02
569.197	-0.01
569.389	0.05
569.582	0.01
569.774	0.03
569.966	0.01
570.159	-0
570.351	0.04
570.543	0.01
570.736	0.04
570.928	-0
571.12	0.03
571.312	-0
571.505	-0.02
571.697	0.06
571.889	0
572.081	0.01
572.273	0
572.465	0.06
572.658	0
572.85	0.05
573.042	0.03
573.234	0.02
573.426	0.05
573.618	-0.01
573.81	0.05
574.002	0.07
574.194	0.08
574.386	-0.01
574.578	-0.05
574.77	0.01
574.962	0.02
575.154	-0.02
575.346	0
575.538	0.05
575.729	0.01
575.921	0.01
576.113	0.01
576.305	0.05
576.497	0.01
576.689	0.02
576.88	-0
577.072	0.07
577.264	0.01
577.456	0.02
577.647	-0.04
577.839	0.02
578.031	0.06
578.223	-0.02
578.414	-0.01
578.606	0.05
578.798	0.03
578.989	-0
579.181	0.06
579.372	0.02
579.564	0.01
579.755	0.06
579.947	0.05
580.139	0.03
580.33	-0.02
580.522	-0.01
580.713	-0.04
580.905	0.01
581.096	0.05
581.287	0.01
581.479	0.01
581.67	0.04
581.862	0.02
582.053	-0.01
582.244	-0.02
582.436	0.03
582.627	0.03
582.818	-0.03
583.01	-0.02
583.201	0.05
583.392	0.06
583.583	0.03
583.775	0.02
583.966	-0
584.157	-0
584.348	0.01
584.54	-0.02
584.731	0.03
584.922	0.01
585.113	0
585.304	0.06
585.495	0.04
585.686	0.03
585.877	0.03
586.068	0.04
586.259	0.03
586.45	0.04
586.641	-0.02
586.832	-0.05
587.023	0.02
587.214	0.02
587.405	0.01
587.596	-0.01
587.787	0.07
587.978	0.04
588.169	-0.02
588.36	0.01
588.551	0.03
588.742	-0.01
588.932	0.04
589.123	0.02
589.314	0.03
589.505	0.03
589.696	0.02
589.886	-0.01
590.077	0
590.268	0.03
590.458	0
590.649	-0.01
590.84	0.07
591.03	0
591.221	-0.03
591.412	-0.01
591.602	0.03
591.793	0.07
591.984	-0.03
592.174	-0
592.365	0.09
592.555	-0.03
592.746	0.02
592.936	0.02
593.127	0.04
593.317	0.04
593.508	0.01
593.698	-0
593.889	0.02
594.079	0.02
594.269	-0.02
594.46	0.02
594.65	-0
594.84	0.04
595.031	-0.01
595.221	-0.02
595.411	-0.01
595.602	0.06
595.792	0.01
595.982	-0.01
596.172	0.06
596.363	0.03
596.553	0.02
596.743	0.02
596.933	0.02
597.123	0.07
597.314	0.01
597.504	-0
597.694	0.05
597.884	0.04
598.074	-0
598.264	-0.01
598.454	0.01
598.644	0
598.834	0.01
599.024	-0.05
599.214	-0
599.404	0.05
599.594	-0.01
599.784	-0
599.974	0.08
600.164	0.05
600.354	-0.02
600.544	-0.03
600.734	0.05
600.924	0.05
601.114	-0
601.303	0.01
601.493	0.02
601.683	0
601.873	0.03
602.063	-0.03
602.252	0.06
602.442	-0.06
602.632	-0.01
602.821	-0
603.011	0.04
603.201	0.01
603.39	-0.03
603.58	-0
603.77	0.03
603.959	0.07
604.149	0.01
604.339	0.02
604.528	0.03
604.718	0.05
604.907	0.01
605.097	-0.01
605.286	-0.03
605.476	0.04
605.665	0.05
605.855	-0.02
606.044	0.06
606.234	0.04
606.423	0.01
606.612	-0.04
606.802	0.03
606.991	0.04
607.181	0.01
607.37	-0.02
607.559	0.03
607.749	-0.01
607.938	0.01
608.127	-0.01
608.316	0
608.506	0.06
608.695	-0.01
608.884	-0.02
609.073	0.03
609.263	0.04
609.452	0.04
609.641	0.01
609.83	-0.01
610.019	0.02
610.208	-0.02
610.397	0.03
610.586	0.04
610.775	-0.02
610.965	0
611.154	0.01
611.343	0.01
611.532	0.05
611.721	0
611.91	-0.02
612.099	0.05
612.287	-0
612.476	0.01
612.665	0.02
612.854	-0.01
613.043	0.06
613.232	0
613.421	-0.03
613.61	0.04
613.798	-0.01
613.987	0.05
614.176	0.01
614.365	0.05
614.554	0.03
614.742	0.05
614.931	-0.01
615.12	0.02
615.309	-0.01
615.497	0.02
615.686	-0.03
615.875	-0.01
616.063	0.03
616.252	-0.01
616.44	-0.02
616.629	0.01
616.818	0.04
617.006	0.02
617.195	-0
617.383	0.02
617.572	-0.01
617.76	-0.03
617.949	-0.01
618.137	0.05
618.326	0.04
618.514	0
618.703	0.01
618.891	0.06
619.079	-0.02
619.268	0.02
619.456	-0
619.644	0.06
619.833	-0
620.021	0.02
620.209	-0.03
620.398	0.03
620.586	0.05
620.774	0.03
620.962	0.02
621.151	0.08
621.339	0.01
621.527	-0.03
621.715	-0.05
621.903	-0.04
622.092	-0.02
622.28	0.05
622.468	0.01
622.656	0.01
622.844	0.04
623.032	-0.02
623.22	-0.03
623.408	0.05
623.596	0.01
623.784	0.04
623.972	0.01
624.16	0.03
624.348	0.09
624.536	-0.01
624.724	0
624.912	0.05
625.1	0.07
625.288	-0.03
625.476	-0
625.664	0.05
625.851	-0.04
626.039	-0.01
626.227	0.01
626.415	0.03
626.603	-0.06
626.79	0
626.978	0.03
627.166	0.03
627.354	0.01
627.541	-0.04
627.729	-0.08
627.917	0.06
628.104	0.05
628.292	0.03
628.48	0.01
628.667	0.05
628.855	0.03
629.042	0.05
629.23	-0
629.418	0.02
629.605	0.03
629.793	-0
629.98	-0.02
630.168	0.01
630.355	0.02
630.543	0.02
630.73	-0.02
630.917	0.03
631.105	0.11
631.292	-0.03
631.48	0.02
631.667	0.11
631.854	0.04
632.042	-0
632.229	-0.03
632.416	0.01
632.604	0.02
632.791	-0.04
632.978	0.04
633.165	0.04
633.353	0.1
633.54	0.06
633.727	-0.04
633.914	-0
634.101	-0.05
634.289	0.04
634.476	-0.02
634.663	-0.03
634.85	0.04
635.037	-0.04
635.224	-0.05
635.411	0.03
635.598	0.04
635.785	-0
635.972	-0.02
636.159	0.06
636.346	-0.02
636.533	0.01
636.72	0.01
636.907	0.02
637.094	0.04
637.281	0.01
637.468	0.05
637.655	-0.01
637.842	-0
638.029	0.01
638.215	0.04
638.402	0.01
638.589	-0.04
638.776	0.03
638.963	-0.04
639.149	0.05
639.336	0.07
639.523	0.02
639.709	0.04
639.896	-0.01
640.083	0.09
640.27	0.02
640.456	-0.03
640.643	0.04
640.829	-0.04
641.016	-0.02
641.203	-0.03
641.389	0.03
641.576	0.06
641.762	-0
641.949	0.01
642.135	0.03
642.322	0.04
642.508	-0.03
642.695	-0
642.881	0.01
643.068	0.02
643.254	0.01
643.441	0.05
643.627	-0.01
643.813	-0.01
644	0.04
644.186	-0.02
644.372	0.03
644.559	0.03
644.745	-0.01
644.931	-0.02
645.118	0.01
645.304	-0.01
645.49	0
645.676	-0.01
645.862	0.02
646.049	0.06
646.235	0.03
646.421	0.07
646.607	0.07
646.793	-0.01
646.979	-0.03
647.165	-0
647.352	-0
647.538	0.03
647.724	0.01
647.91	0.03
648.096	0.06
648.282	0.07
648.468	-0.01
648.654	0.02
648.84	0.01
649.026	0.03
649.212	0.01
649.397	-0.03
649.583	-0.03
649.769	0.04
649.955	0.01
650.141	0.02
650.327	0.07
650.513	0
650.698	0.06
650.884	-0.08
651.07	0.04
651.256	0.03
651.442	0
651.627	-0.01
651.813	0.02
651.999	0
652.184	0.03
652.37	0
652.556	-0.02
652.741	0.11
652.927	-0.06
653.113	0.01
653.298	0.04
653.484	-0.01
653.669	-0.03
653.855	0
654.04	0.04
654.226	0.04
654.412	0.02
654.597	-0.04
654.782	0.01
654.968	0.03
655.153	0.02
655.339	-0.03
655.524	-0.04
655.71	0.05
655.895	-0.03
656.08	-0.01
656.266	0.08
656.451	0.03
656.636	-0.03
656.822	-0.01
657.007	-0.02
657.192	0
657.378	-0.05
657.563	0.01
657.748	0.03
657.933	0.01
658.118	0.02
658.304	0
658.489	0.04
658.674	0.03
658.859	-0.01
659.044	0.02
659.229	0.04
659.414	-0.02
659.599	0.02
659.785	-0.06
659.97	-0.02
660.155	0.04
660.34	0.01
660.525	0.04
660.71	-0.02
660.895	0.04
661.08	-0.01
661.264	-0.03
661.449	0.06
661.634	0.03
661.819	0.02
662.004	0.04
662.189	-0.08
662.374	-0.05
662.559	-0.03
662.743	-0.05
662.928	0.04
663.113	0.01
663.298	-0.05
663.483	-0
663.667	0.02
663.852	-0.03
664.037	0.04
664.221	-0.03
664.406	0.05
664.591	0.01
664.775	0.02
664.96	-0.01
665.145	0.02
665.329	0.06
665.514	-0.03
665.698	-0.03
665.883	-0.06
666.068	0.07
666.252	0.02
666.437	-0.02
666.621	-0
666.806	0.06
666.99	0.02
667.174	-0.01
667.359	0.1
667.543	0.02
667.728	0.01
667.912	-0.04
668.096	0.06
668.281	0.02
668.465	0.03
668.649	-0.02
668.834	0.01
669.018	-0.03
669.202	-0.01
669.387	-0.02
669.571	0.08
669.755	-0.02
669.939	-0.01
670.124	0.02
670.308	0.09
670.492	0.06
670.676	0.04
670.86	-0.02
671.044	-0.05
671.228	0.06
671.413	-0.04
671.597	-0.04
671.781	-0.02
671.965	0.03
672.149	-0.01
672.333	-0.01
672.517	-0.02
672.701	0.02
672.885	-0.02
673.069	-0.07
673.253	0.07
673.437	-0.02
673.621	-0.05
673.804	-0.02
673.988	0.03
674.172	0.02
674.356	-0.08
674.54	-0.03
674.724	0.15
674.908	0.01
675.091	0.02
675.275	-0.01
675.459	0.01
675.643	0.08
675.826	0.01
676.01	-0
676.194	0
676.377	0.09
676.561	0.07
676.745	0.01
676.928	0.02
677.112	0.03
677.296	-0.05
677.479	0.02
677.663	-0.03
677.846	0.02
678.03	-0.02
678.213	-0.04
678.397	0.05
678.58	0
678.764	-0.03
678.947	-0.06
679.131	-0.01
679.314	0.03
679.498	0.01
679.681	-0.02
679.865	0.03
680.048	-0
680.231	-0.02
680.415	-0.02
680.598	-0.01
680.781	-0.02
680.965	-0.03
681.148	0.06
681.331	-0.01
681.514	0.05
681.698	-0.02
681.881	-0
682.064	0.02
682.247	0
682.43	-0.06
682.614	0.05
682.797	0.09
682.98	0.04
683.163	-0.04
683.346	-0.02
683.529	0.04
683.712	0
683.895	0.02
684.078	-0.03
684.261	0.01
684.444	0.04
684.627	0.02
684.81	0.02
684.993	-0.02
685.176	0.03
685.359	0.01
685.542	-0.03
685.725	0.08
685.908	0.03
686.091	0.01
686.274	0.03
686.457	0.07
686.639	-0.02
686.822	0.06
687.005	-0
687.188	0.07
687.371	0.08
687.553	0.02
687.736	-0.01
687.919	0.11
688.102	0.14
688.284	-0.06
688.467	0.01
688.65	0.01
688.832	0.01
689.015	0.04
689.197	-0.07
689.38	0.13
689.563	0.09
689.745	-0.08
689.928	-0
690.11	-0.02
690.293	0.04
690.475	-0.07
690.658	0.03
690.84	0
691.023	-0.01
691.205	-0.06
691.388	-0.01
691.57	0.07
691.752	0.07
691.935	-0.07
692.117	-0.01
692.3	0.06
692.482	0.01
692.664	0.01
692.847	0.05
693.029	0.08
693.211	0.03
693.393	0.01
693.576	0.03
693.758	0.01
693.94	0.04
694.122	-0.01
694.304	-0.02
694.487	-0
694.669	0.07
694.851	-0.07
695.033	0.04
695.215	-0.01
695.397	-0.04
695.579	0.03
695.761	0
695.943	-0.07
696.125	0.08
696.308	0.01
696.49	-0.08
696.671	0.15
696.853	0.02
697.035	0.11
697.217	0.02
697.399	0.02
697.581	-0.02
697.763	-0.01
697.945	0.01
698.127	-0
698.309	0.06
698.491	-0.01
698.672	0.08
698.854	0.02
699.036	0.05
699.218	-0.05
699.399	0.01
699.581	0.03
699.763	0.01
699.945	-0.07
700.126	-0.01
700.308	0.04
700.49	0.01
700.671	-0.05
700.853	-0.04
701.035	0
701.216	0.02
701.398	-0.02
701.579	-0.04
701.761	0.07
701.943	-0.03
702.124	-0.02
702.306	-0.03
702.487	0.12
702.669	0.03
702.85	-0.02
703.031	-0.08
703.213	0.12
703.394	0.01
703.576	0
703.757	0.12
703.938	0.03
704.12	0.15
704.301	-0
704.483	-0.06
704.664	0.01
704.845	0.08
705.026	0.1
705.208	-0.02
705.389	-0.03
705.57	0.08
705.751	0.04
705.933	0.01
706.114	0.06
706.295	-0.06
706.476	-0.11
706.657	0.12
706.838	0.08
707.02	0.1
707.201	-0.03
707.382	-0.02
707.563	0.02
707.744	-0.03
707.925	-0.07
708.106	-0.01
708.287	0.09
708.468	0.1
708.649	-0.01
708.83	0.02
709.011	-0.05
709.192	0.04
709.373	-0.11
709.554	-0.02
709.734	0.07
709.915	0.09
710.096	0.04
710.277	-0.09
710.458	-0
710.639	0.07
710.819	-0.09
711	-0
711.181	0.08
711.362	0.06
711.542	0.01
711.723	0.04
711.904	0.07
712.085	0.04
712.265	-0.01
712.446	-0.09
712.627	0.01
712.807	0.05
712.988	0.02
713.168	-0.06
713.349	0.11
713.53	-0.16
713.71	-0.03
713.891	-0.03
714.071	-0.01
714.252	0
714.432	-0.01
714.613	-0.09
714.793	-0.03
714.974	0.06
715.154	0.1
715.334	0.07
715.515	0.08
715.695	-0.02
715.876	-0.03
716.056	-0.03
716.236	0
716.417	0.05
716.597	-0.07
716.777	0.19
716.957	0.07
717.138	0
717.318	-0.05
717.498	-0.12
717.678	-0.02
717.859	0.06
718.039	-0.06
718.219	0
718.399	0.02
718.579	-0.05
718.759	-0
718.939	0.01
719.12	0.08
719.3	-0
719.48	-0.11
719.66	-0.17
719.84	0.07
720.02	-0
720.2	-0.05
720.38	-0.03
720.56	0.06
720.74	-0.04
720.92	0.1
721.1	0.06
721.279	0.09
721.459	-0
721.639	-0.1
721.819	0.06
721.999	-0.01
722.179	0.07
722.359	-0.06
722.538	-0.02
722.718	0.08
722.898	-0.06
723.078	0.03
723.257	-0
723.437	0.03
723.617	-0.02
723.797	-0.02
723.976	-0.03
724.156	0.05
724.336	0.13
724.515	0.14
724.695	-0.12
724.874	-0.04
725.054	0.08
725.234	-0.17
725.413	0.06
725.593	0.05
725.772	0.02
725.952	0.02
726.131	-0.03
726.311	0.01
726.49	0.07
726.67	-0.05
726.849	-0.01
727.028	0.01
727.208	-0.06
727.387	0.02
727.567	-0.05
727.746	-0.01
727.925	0.02
728.105	-0.1
728.284	0
728.463	-0.08
728.643	0
728.822	-0.01
729.001	-0.07
729.18	0.04
729.359	0
729.539	-0.03
729.718	-0.03
729.897	0.05
730.076	-0.01
730.255	-0.09
730.434	0
730.614	0.08
730.793	0.09
730.972	-0.05
731.151	-0.01
731.33	0.08
731.509	0.02
731.688	0
731.867	-0.02
732.046	-0.1
732.225	0.15
732.404	-0.06
732.583	-0.13
732.762	0
732.941	0.06
733.12	0.02
733.298	0.08
733.477	0.14
733.656	0.04
733.835	-0.06
734.014	0.13
734.193	-0.03
734.371	0.02
734.55	-0.05
734.729	-0.11
734.908	0.14
735.086	0.12
735.265	0.06
735.444	-0.04
735.623	-0.05
735.801	-0.1
735.98	-0
736.159	-0.05
736.337	-0.01
736.516	0.01
736.694	0.03
736.873	-0.12
737.052	0.24
737.23	0.11
737.409	-0.04
737.587	0.19
737.766	-0.23
737.944	-0.05
738.123	0.05
738.301	0.08
738.479	-0.02
738.658	0.1
738.836	-0.25
739.015	-0.03
739.193	0.13
739.371	-0.12
739.55	-0.09
739.728	-0.14
739.906	0.04
740.085	0.12
740.263	-0
740.441	-0.21
740.62	0.15
740.798	0.1
740.976	-0.11
741.154	-0.11
741.332	0.11
741.511	-0.03
741.689	0.04
741.867	0.16
742.045	0.05
742.223	0.02
742.401	-0.13
742.579	-0.04
742.757	0.04
742.935	-0.14
743.114	-0.03
743.292	-0.02
743.47	0.04
743.648	0.07
743.826	-0.13
744.004	0.05
744.181	0.06
744.359	-0.07
744.537	0.04
744.715	-0.03
744.893	0.08
745.071	-0.02
745.249	-0.03
745.427	-0.01
745.605	0.02
745.782	0.01
745.96	0.13
746.138	0.09
746.316	0.13
746.493	-0
746.671	-0.1
746.849	-0.01
747.027	0.07
747.204	0.05
747.382	0.08
747.56	-0.13
747.737	-0.13
747.915	0.01
748.093	0.1
748.27	-0.15
748.448	-0.01
748.625	-0.06
748.803	-0.08
748.98	-0.01
749.158	0
749.335	0.09
749.513	0.04
749.69	-0.05
749.868	-0.05
750.045	0.09
750.223	-0.07
750.4	-0.17
750.578	0.19
750.755	0.08
750.932	-0.19
751.11	0.11
751.287	-0.04
751.464	0.23
751.642	-0.12
751.819	0.16
751.996	0.08
752.173	-0.03
752.351	-0.07
752.528	0.03
752.705	-0.02
752.882	-0.04
753.06	0.1
753.237	0.12
753.414	0.22
753.591	0.23
753.768	0.08
753.945	-0.03
754.122	-0.04
754.299	-0.01
754.476	-0.07
754.654	0.01
754.831	0.13
755.008	0.05
755.185	-0.02
755.362	-0.09
755.539	0.05
755.716	-0.06
755.892	0.01
756.069	-0.09
756.246	0.11
756.423	0.02
756.6	0.22
756.777	-0.04
756.954	0.11
757.131	-0.03
757.307	-0.06
757.484	-0.09
757.661	0.02
757.838	0.05
758.015	-0.15
758.191	0.09
758.368	-0
758.545	0.22
758.721	0.12
758.898	-0.08
759.075	-0
759.251	0.05
759.428	-0.02
759.605	-0.06
759.781	-0.01
759.958	0.2
760.134	0.05
760.311	-0.02
760.488	0.08
760.664	0.16
760.841	-0.02
761.017	-0.11
761.194	0.13
761.37	0.12
761.547	-0.06
761.723	-0.08
761.899	0.19
762.076	0.03
762.252	-0.11
762.429	-0.12
762.605	0.07
762.781	0.01
762.958	0.12
763.134	-0.07
763.31	0.03
763.486	0.06
763.663	-0.13
763.839	0.07
764.015	-0.19
764.191	-0.01
764.368	0.02
764.544	-0.08
764.72	-0.01
764.896	0.15
765.072	-0.04
765.248	-0.06
765.425	-0.02
765.601	0.04
765.777	-0.02
765.953	-0.16
766.129	-0.05
766.305	-0.06
766.481	0.02
766.657	0.11
766.833	0.2
767.009	-0.09
767.185	-0.13
767.361	0.03
767.537	-0.04
767.713	0.15
767.889	-0.06
768.065	0.08
768.24	-0.08
768.416	0.09
768.592	-0.13
768.768	-0.06
768.944	0.1
769.12	-0.07
769.295	-0.18
769.471	-0.02
769.647	0.18
769.823	0.33
769.998	-0.04
770.174	-0.07
770.35	0.47
770.525	0.3
770.701	0.03
770.877	-0.03
771.052	-0.08
771.228	0.12
771.403	0.12
771.579	0.07
771.755	0.29
771.93	0.02
772.106	-0.04
772.281	-0.15
772.457	0.13
772.632	0
772.808	-0.04
772.983	0.07
773.159	-0.26
773.334	0.15
773.509	0.11
773.685	-0.11
773.86	0.42
774.036	0.18
774.211	-0.04
774.386	0.04
774.562	-0.03
774.737	0
774.912	-0.15
775.087	0.09
775.263	0.05
775.438	0.02
775.613	-0.02
775.788	-0.02
775.964	0.28
776.139	0.4
776.314	-0.18
776.489	0.07
776.664	0.04
776.839	-0.03
777.014	0.14
777.19	0.15
777.365	0.17
777.54	0.23
777.715	-0.02
777.89	0.06
778.065	-0.02
778.24	-0.06
778.415	0.07
778.59	-0.14
778.765	-0.13
778.94	0.17
779.115	-0.14
779.289	-0.09
779.464	0.04
779.639	-0.13
779.814	-0.11
779.989	-0.35
780.164	0.2
780.339	0.13
780.513	-0.11
780.688	-0.11
780.863	0.19
781.038	0.17
781.212	-0.17
781.387	0.01
781.562	0.14
781.737	0.12
781.911	0.18
782.086	-0.18
782.261	0.01
782.435	0.26
782.61	-0.17
782.784	-0.02
782.959	0.44
783.134	-0.07
783.308	-0.29
783.483	-0.04
783.657	0.38
783.832	0.17
784.006	-0.31
784.181	0.09
784.355	0.31
784.53	0.17
784.704	-0.23
784.878	0.33
785.053	0.2
785.227	0.02
785.402	0.48
785.576	0.01
785.75	-0
785.925	-0.01
786.099	0.03
786.273	0.05
786.448	0.12
786.622	0.39
786.796	-0.02
786.97	-0.11
787.145	0.5
787.319	-0.05
787.493	-0.19
787.667	-0.25
787.841	0.1
788.015	0.37
788.19	-0.17
788.364	0.07
788.538	0.23
788.712	0.2
788.886	-0.04
789.06	0.42
789.234	0.1
789.408	0.01
789.582	-0.01
789.756	0.02
789.93	-0.12
790.104	-0.25
790.278	0.01
790.452	0.02
790.626	-0.03
790.8	-0.08
790.973	0.04
791.147	0.45
791.321	0.3
791.495	0.3
791.669	0.16
791.843	0.19
792.016	0.11
792.19	0.47
792.364	-0.32
792.538	0.59
792.711	0.33
792.885	0.03
793.059	-0.31
793.233	-0.52
793.406	0.18
793.58	0.1
793.754	0.17
793.927	0.02
794.101	0.32
794.274	0.35
794.448	0.12
794.622	-0.19
794.795	0.49
794.969	-0.3
795.142	0.5
795.316	-0.08
795.489	0.01
795.663	0.36
795.836	0.03
796.009	-0.16
796.183	0.64
796.356	0.11
796.53	0.06
796.703	0.01
796.876	0.53
797.05	0
797.223	0.15
797.396	-0.03
797.57	0.17
797.743	0.46
797.916	0.11
798.09	0.1
798.263	0.35
798.436	0.09
798.609	-0.13
798.782	0.14
798.956	0.06
799.129	0.2
799.302	-0.13
799.475	-0.05
799.648	-0.21
799.821	0.06
799.994	-0.01
800.167	-0.6
800.34	0.14
800.514	0.07
800.687	0.25
800.86	-0.01
801.033	0.07
801.206	-0.07
801.379	-0.18
801.551	0.06
801.724	-0.01
801.897	0.3
802.07	-0.26
802.243	-0.4
802.416	0.28
802.589	0.06
802.762	0.13
802.935	-0.13
803.107	0.24
803.28	0.15
803.453	0.25
803.626	-0.24
803.798	-0.01
803.971	-0.2
804.144	0.25
804.317	0.23
804.489	0.36
804.662	0.12
804.835	0.07
805.007	-0.14
805.18	0.83
805.353	0.23
805.525	-0.2
805.698	0.06
805.87	0.42
806.043	0.42
806.215	-0.2
806.388	-0.26
806.56	0.26
806.733	0.28
806.905	0.19
807.078	-0.29
807.25	-0.22
807.423	0.14
807.595	0.45
807.768	-0.21
807.94	0.45
808.112	0.38
808.285	0.27
808.457	-0.16
808.629	0.18
808.802	-0.1
808.974	0.06
809.146	-0.31
809.318	-0.25
809.491	0.3
809.663	0.44
809.835	-0.23
810.007	0.05
810.18	-0.07
810.352	-0.17
810.524	0.02
810.696	0.06
810.868	0.6
811.04	-0.11
811.212	-0.05
811.384	0.35
811.556	0.03
811.728	-0.18
811.901	0.91
812.073	-0.36
812.245	0.33
812.417	0.15
812.589	-0.52
812.76	0.23
812.932	0.04
813.104	0.23
813.276	0.05
813.448	0.34
813.62	0.23
813.792	0.29
813.964	-0.13
814.136	0.22
814.307	-0.29
814.479	-0.01
814.651	0.17
814.823	0.74
814.995	-0.15
815.166	-0.12
815.338	-0.19
815.51	-0.66
815.681	1.07
815.853	-0.05
816.025	0.16
816.196	0.78
816.368	0.21
816.54	-0.09
816.711	-0.24
816.883	0.48
817.054	0.69
817.226	-0.81
817.398	0.24
817.569	-0.22
817.741	0.18
817.912	-0.3
818.084	-0.35
818.255	0.4
818.426	-0
818.598	-0.19
818.769	0.01
818.941	0.79
819.112	0.44
819.283	0.1
819.455	-0.14
819.626	-0.09
819.798	0.43
819.969	-0.04
820.14	-0.05
820.311	0.16
820.483	0.54
820.654	0.54
820.825	-0.27
820.996	-0.19
821.168	-0.18
821.339	-0.28
821.51	-0.27
821.681	-0.17
821.852	0.25
822.023	-0.47
822.195	-0.45
822.366	0.72
822.537	0.24
822.708	0.32
822.879	-0.54
823.05	0.58
823.221	0.09
823.392	0.2
823.563	0.44
823.734	0.59
823.905	-0.19
824.076	-0.2
824.247	-0.65
824.418	-0.35
824.589	0.58
824.759	-0.12
824.93	0.33
825.101	0.22
825.272	0.85
825.443	0.64
825.614	0.74
825.784	-0.79
825.955	0.71
826.126	0.8
826.297	0.67
826.467	1.18
826.638	1.13
826.809	-0.38
826.98	0.55
827.15	0.32
827.321	0.38
827.492	0.51
827.662	-0.19
827.833	1
828.003	0.86
828.174	-0.15
828.345	-0.71
828.515	0.81
828.686	0.1
828.856	-0.02
829.027	0.26
829.197	-0.09
829.368	0.41
829.538	-0.48
829.709	-0.6
829.879	0.54
830.049	0.11
830.22	-0.18
830.39	0.08
830.56	0.83
830.731	-0.3
830.901	0.3
831.072	0.15
831.242	0.5
831.412	0.34
831.582	-0.46
831.753	-1.19
831.923	0.57
832.093	0.04
832.263	-0.01
832.434	0.16
832.604	0.16
832.774	0.79
832.944	-0.23
833.114	-0.41
833.284	0.08
833.454	-0.62
833.624	-0.1
833.795	-0.54
833.965	0.98
834.135	0.93
834.305	-1.69
834.475	-0.71
834.645	0.19
834.815	0.17
834.985	-0.34
835.155	-0.33
835.325	0.42
835.494	0.49
835.664	-0.32
835.834	-0.88
836.004	0.34
836.174	0.33
836.344	0.17
836.514	-0.46
836.684	0.06
836.853	-0.41
837.023	-0.42
837.193	-0.7
837.363	0.56
837.532	0.32
837.702	0.11
837.872	-0.45
838.041	0.82
838.211	1.64
838.381	-1.09
838.55	-0.2
838.72	1.62
838.89	0.67
839.059	-0.33
839.229	-0.68
839.398	1.46
839.568	0.5
839.738	0.04
839.907	0.85
840.077	-0.04
840.246	-0.27
840.416	-0.63
840.585	-0.13
840.755	1.39
840.924	0.95
841.093	-0.48
841.263	0.21
841.432	0.28
841.602	-0.59
841.771	-0.81
841.94	-0.03
842.11	2.17
842.279	1.84
842.448	-0.98
842.617	-1.08
842.787	2.07
842.956	-0.6
843.125	0.11
843.294	0.07
843.464	1.34
843.633	0.24
843.802	-1.07
843.971	0.37
844.14	0.9
844.309	0.72
844.479	-1.02
844.648	-0.69
844.817	0.02
844.986	0.35
845.155	-1.24
845.324	0.3
845.493	0.28
845.662	-0.58
845.831	0.97
846	0.11
846.169	-0.15
846.338	1.22
846.507	0.78
846.676	-0.37
846.844	-0.18
847.013	1
847.182	0.19
847.351	-0.7
847.52	0.15
847.689	0.92
847.858	0.13
848.026	-0.48
848.195	0.56
848.364	1.01
848.533	-0.4
848.701	-0.48
848.87	1.18
849.039	0.91
849.207	1.06
849.376	1.36
849.545	2.57
849.713	-1.07
849.882	-0.54
850.051	0
850.219	0.38
850.388	1.34
850.556	-1.16
850.725	-0.6
850.893	0.19
851.062	0.16
851.23	0.01
851.399	-1.05
851.567	0.03
851.736	-0.67
851.904	-0.43
852.073	1.12
852.241	1.55
852.41	-0.05
852.578	-0.5
852.746	-0.87
852.915	0.44
853.083	-0.5
853.251	-1.68
853.42	-0.74
853.588	-0.09
853.756	0.87
853.924	-0.3
854.093	-0.86
854.261	-0.26
854.429	-1.66
854.597	-0.42
854.765	-0.42
854.934	0.6
855.102	1.8
855.27	-0.8
855.438	0.57
855.606	1.75
855.774	1.64
855.942	-1.7
856.11	-1.9
856.278	0.52
856.446	1.37
856.614	0.6
856.782	-0.65
856.95	1.11
857.118	-0.62
857.286	0.4
857.454	0.25
857.622	1.11
857.79	1.31
857.958	-1.04
858.126	-1.37
858.294	-2
858.462	-0.42
858.629	-0.41
858.797	-0.26
858.965	0.22
859.133	0.51
859.301	-0.5
859.468	0.38
859.636	-0.37
859.804	1.57
859.971	0.76
860.139	-0.93
860.307	0.4
860.474	-0.85
860.642	-0.1
860.81	-1.03
860.977	-0.19
861.145	0.74
861.313	-1.2
861.48	-0.61
861.648	0.97
861.815	-0.4
861.983	-2.28
862.15	-0.2
862.318	0.37
862.485	2.08
862.653	-0.52
862.82	-1.47
862.988	2.84
863.155	0.49
863.322	-2.32
863.49	-0.49
863.657	-0.32
863.824	2.63
863.992	0.14
864.159	-0.67
864.326	2.51
864.494	-0.48
864.661	2.81
864.828	-1.51
864.996	2.41
865.163	2.18
865.33	-0.92
865.497	-1.45
865.664	-0.97
865.832	-1.53
865.999	1.13
866.166	-2.46
866.333	-0.99
866.5	-0.58
866.667	0.91
866.834	-1.33
867.001	2.99
867.168	-1.91
867.335	0.59
867.502	-0.93
867.669	1.79
867.836	4.01
868.003	-0.16
868.17	2.21
868.337	3.7
868.504	3
868.671	-2.36
868.838	-0.36
869.005	1.38
869.172	0.71
869.339	-0.85
869.505	-0.06
869.672	-0.85
869.839	1.93
870.006	-0.62
870.173	-2.09
870.339	2.47
870.506	2.55
870.673	-0.31
870.84	0.42
871.006	0.47
871.173	-0.57
871.34	0.9
871.506	-0.92
871.673	-0.89
871.839	-0.2
872.006	1.02
872.173	-1.52
872.339	2.04
872.506	1.83
872.672	0.69
872.839	-1.89
873.005	-0.59
873.172	4.01
873.338	2.11
873.505	-0.8
873.671	0.8
873.838	0.35
874.004	-1.1
874.171	-1.29
874.337	0.28
874.503	2.64
874.67	-0.22
874.836	-1.04
875.002	2.38
875.169	1.33
875.335	-0.76
875.501	0.01
875.668	1.4
875.834	-0.51
876	-0.29
876.166	1.6
876.332	2.9
876.499	3.65
876.665	0.21
876.831	0.52
876.997	3.4
877.163	1.75
877.329	-2.41
877.495	0.83
877.662	1.33
877.828	2.72
877.994	0.54
878.16	-2.34
878.326	-2.58
878.492	-0.1
878.658	-0.53
878.824	0.6
878.99	-0.47
879.156	-1.74
879.322	3.18
879.487	-0.78
879.653	0.53
879.819	0.1
879.985	-1.24
880.151	1.39
880.317	-0.79
880.483	0.61
880.648	1.43
880.814	-1.54
880.98	1.6
881.146	-2.04
881.312	-0.7
881.477	1.08
881.643	-0.31
881.809	1.44
881.974	1.83
882.14	-1.23
882.306	0.44
882.471	2.63
882.637	-1.32
882.803	0.65
882.968	4.63
883.134	2.98
883.299	0.85
883.465	0.23
883.63	1.43
883.796	0.96
883.961	2.14
884.127	1.53
884.292	-4.35
884.458	-0.9
884.623	-0.89
