Data from Apollo_Calib_20240827__AbsoluteIrradiance__480__07-09-02-868.txt Node

Date: Wed Aug 28 07:09:02 BST 2024
User: biology
Spectrometer: FLMT08252
Trigger mode: 0
Integration Time (sec): 5.000000E-1
Scans to average: 5
Electric dark correction enabled: true
Nonlinearity correction enabled: false
Boxcar width: 0
XAxis mode: Wavelengths
Number of Pixels in Spectrum: 3648
>>>>>Begin Spectral Data<<<<<
179.588	-0
179.809	-0
180.03	-0
180.251	-0
180.473	-0
180.694	0
180.915	0
181.136	-0
181.357	0
181.578	-0
181.799	-0
182.02	-0
182.241	0
182.462	-0
182.683	0
182.904	-0
183.125	-0
183.346	0
183.567	0
183.788	0
184.009	-0
184.23	0
184.451	0
184.672	-0
184.892	-0
185.113	0
185.334	0
185.555	-0
185.776	-0
185.996	0
186.217	0
186.438	-0
186.659	-0
186.879	-0
187.1	-0
187.321	-0
187.541	-0
187.762	0
187.983	0
188.203	-0
188.424	-0
188.644	0
188.865	-0
189.086	-0
189.306	-0
189.527	0
189.747	-0
189.968	-0
190.188	0
190.409	0
190.629	0
190.849	-0
191.07	-0
191.29	-0
191.511	-0
191.731	-0
191.951	-0
192.172	-0
192.392	0
192.612	-0
192.833	-0
193.053	0
193.273	0
193.493	-0
193.714	0
193.934	0
194.154	0
194.374	0
194.594	0
194.815	-0
195.035	-0
195.255	0
195.475	-0
195.695	0
195.915	0
196.135	-0
196.355	0
196.575	0
196.795	-0
197.015	-0
197.235	-0
197.455	-0
197.675	0
197.895	-0
198.115	-0
198.335	-0
198.555	-0
198.775	0
198.995	0
199.214	0
199.434	-0
199.654	-0
199.874	-0
200.094	-1.84
200.313	-0.24
200.533	-0.85
200.753	-1
200.973	0.24
201.192	-0.05
201.412	-0.75
201.632	-0.43
201.851	0.34
202.071	-0.06
202.291	-0.2
202.51	-1.07
202.73	0.23
202.95	-0.11
203.169	-0.99
203.389	-0.12
203.608	-0.4
203.828	-0.74
204.047	-0.42
204.267	0.35
204.486	-0.18
204.706	0.09
204.925	-0.34
205.145	-0.64
205.364	0.25
205.583	0.39
205.803	-0.69
206.022	-0.64
206.242	-0.07
206.461	0.13
206.68	-0.68
206.9	-0.07
207.119	0.44
207.338	0.51
207.557	-0.6
207.777	-0.24
207.996	-0.15
208.215	0.17
208.434	-0.32
208.654	-0.61
208.873	-0.24
209.092	0.37
209.311	0.02
209.53	-0.21
209.749	-0.17
209.968	-0.52
210.187	0.05
210.407	-0.64
210.626	-0.18
210.845	0.16
211.064	-0.06
211.283	-0.25
211.502	0.32
211.721	-0.04
211.94	-0.05
212.159	-0.09
212.377	0.09
212.596	0.54
212.815	-0.12
213.034	-0.06
213.253	0.21
213.472	0.14
213.691	-0.21
213.91	-0.31
214.128	-0.17
214.347	0.32
214.566	-0.47
214.785	-0.36
215.003	0.03
215.222	0.01
215.441	0.07
215.66	-0.41
215.878	-0.2
216.097	0.17
216.316	-0.4
216.534	-0.28
216.753	0.02
216.972	-0.17
217.19	-0.09
217.409	-0.12
217.627	-0.19
217.846	-0.01
218.064	-0.15
218.283	-0.16
218.501	0.25
218.72	0.08
218.938	-0.19
219.157	-0.13
219.375	-0
219.594	-0.02
219.812	-0.3
220.031	-0.14
220.249	0.02
220.467	0.28
220.686	-0.06
220.904	-0.25
221.122	-0.25
221.341	0.35
221.559	-0.04
221.777	-0.24
221.995	0.01
222.214	0.04
222.432	-0.04
222.65	0.18
222.868	-0.11
223.086	0.01
223.305	0.18
223.523	-0.09
223.741	0.06
223.959	-0.22
224.177	-0.29
224.395	-0.11
224.613	0.09
224.831	0.1
225.049	-0.16
225.267	-0.01
225.485	-0.07
225.703	-0.17
225.921	-0.03
226.139	-0.23
226.357	0.01
226.575	-0.04
226.793	-0.26
227.011	0.38
227.229	-0.07
227.447	0.11
227.665	-0.13
227.883	-0.28
228.1	-0.02
228.318	-0
228.536	-0.18
228.754	-0.23
228.972	-0.04
229.189	-0
229.407	-0.21
229.625	-0.09
229.843	0.01
230.06	0.03
230.278	-0.2
230.496	-0.05
230.713	-0.11
230.931	0.03
231.149	-0.1
231.366	-0.19
231.584	0
231.801	0.29
232.019	-0.13
232.236	-0.18
232.454	-0.19
232.671	0.06
232.889	0.02
233.106	-0.18
233.324	-0.13
233.541	-0.15
233.759	-0.05
233.976	-0.09
234.194	-0.11
234.411	0
234.628	-0.16
234.846	-0.04
235.063	-0.08
235.28	-0.01
235.498	-0.21
235.715	-0.16
235.932	0.18
236.149	-0.03
236.367	-0.14
236.584	-0.11
236.801	-0.09
237.018	0
237.236	-0.05
237.453	-0.21
237.67	0.11
237.887	-0.05
238.104	-0.08
238.321	-0.08
238.538	-0.11
238.755	0.07
238.973	-0.17
239.19	-0.1
239.407	0.01
239.624	0.08
239.841	-0.14
240.058	-0.1
240.275	0.04
240.492	-0.1
240.709	-0.06
240.925	-0.07
241.142	0.04
241.359	-0.17
241.576	-0.1
241.793	-0.08
242.01	-0.06
242.227	0.08
242.444	0.01
242.66	0.08
242.877	-0.03
243.094	-0.13
243.311	-0.08
243.527	-0.07
243.744	-0.02
243.961	-0
244.178	-0.1
244.394	-0.01
244.611	0.04
244.828	0.13
245.044	-0.12
245.261	-0.02
245.477	0.03
245.694	-0.01
245.911	-0.05
246.127	-0
246.344	0.14
246.56	0.04
246.777	0
246.993	-0.06
247.21	-0.03
247.426	0.02
247.643	-0.08
247.859	-0.11
248.076	0
248.292	0.11
248.508	-0.06
248.725	0.02
248.941	0.01
249.157	0.12
249.374	-0.05
249.59	-0.03
249.806	-0.03
250.023	0.03
250.239	-0.09
250.455	-0.21
250.671	-0.03
250.888	-0.01
251.104	0.04
251.32	-0.05
251.536	-0.03
251.752	-0.04
251.969	-0.03
252.185	0.08
252.401	0.15
252.617	0
252.833	-0.06
253.049	0
253.265	-0.04
253.481	-0.02
253.697	-0.02
253.913	-0.03
254.129	-0.02
254.345	0.02
254.561	0.02
254.777	0.01
254.993	-0.04
255.209	0.02
255.425	0.04
255.641	-0.14
255.857	0.03
256.073	-0.03
256.288	-0.08
256.504	-0.03
256.72	-0.05
256.936	0.12
257.152	-0.05
257.367	-0.1
257.583	-0.05
257.799	0.01
258.015	-0.01
258.23	-0.09
258.446	0.1
258.662	0.01
258.877	-0.11
259.093	-0.07
259.309	-0.02
259.524	0
259.74	-0.08
259.955	-0.11
260.171	-0.08
260.387	-0.03
260.602	0.02
260.818	0
261.033	-0.13
261.249	-0.04
261.464	-0.06
261.68	-0.09
261.895	-0
262.11	-0.01
262.326	-0.08
262.541	-0.09
262.757	0.03
262.972	0.02
263.187	-0.02
263.403	-0.07
263.618	0.03
263.833	-0.03
264.049	-0.13
264.264	-0.06
264.479	0.02
264.694	0.09
264.91	-0.09
265.125	-0.04
265.34	0.08
265.555	0.09
265.77	-0.02
265.986	-0.05
266.201	-0.03
266.416	0.06
266.631	-0.03
266.846	-0
267.061	-0.01
267.276	-0.03
267.491	-0.16
267.706	0.01
267.921	0.03
268.136	0
268.351	0.01
268.566	-0.07
268.781	0.04
268.996	0.07
269.211	-0.04
269.426	-0.08
269.641	-0.11
269.856	0.07
270.071	-0.04
270.285	-0.11
270.5	0.03
270.715	0.02
270.93	-0.05
271.145	0.01
271.359	0.04
271.574	-0.02
271.789	-0.04
272.004	-0.04
272.218	-0.03
272.433	0.03
272.648	-0.12
272.862	0.05
273.077	-0.09
273.292	-0.01
273.506	-0.07
273.721	-0.06
273.936	0
274.15	0.07
274.365	-0.04
274.579	0.02
274.794	0.03
275.008	0.02
275.223	-0.11
275.437	-0.02
275.652	0.12
275.866	-0.01
276.081	-0.03
276.295	0.04
276.509	0
276.724	0.01
276.938	-0.08
277.153	0.03
277.367	-0.01
277.581	-0.06
277.796	-0.05
278.01	-0.09
278.224	0.03
278.438	0.11
278.653	-0.05
278.867	-0.07
279.081	-0.22
279.295	-0
279.51	0.02
279.724	-0.11
279.938	0.01
280.152	-0
280.366	-0.04
280.58	-0
280.794	0.07
281.008	0.01
281.222	0.04
281.437	0.07
281.651	0.04
281.865	0.06
282.079	-0.01
282.293	-0.12
282.507	-0.09
282.721	-0.02
282.935	0
283.148	-0.18
283.362	-0.06
283.576	-0.1
283.79	-0.02
284.004	-0.06
284.218	0.02
284.432	-0.04
284.646	-0.05
284.859	-0.08
285.073	-0.03
285.287	0.02
285.501	-0.06
285.714	-0.03
285.928	-0.05
286.142	-0.05
286.356	0.01
286.569	-0.03
286.783	-0.01
286.997	0.04
287.21	-0.04
287.424	-0.04
287.637	-0.02
287.851	-0.03
288.065	0.04
288.278	-0.03
288.492	-0.04
288.705	-0.06
288.919	-0
289.132	-0.12
289.346	-0
289.559	-0.07
289.773	-0.08
289.986	-0.01
290.2	0.01
290.413	0.01
290.626	-0.01
290.84	-0.03
291.053	0.01
291.267	0.01
291.48	-0.01
291.693	0
291.906	-0.03
292.12	-0.03
292.333	-0.06
292.546	-0
292.76	0.07
292.973	0.02
293.186	0.03
293.399	-0.05
293.612	0.04
293.826	-0.05
294.039	0.03
294.252	0
294.465	0.02
294.678	0.05
294.891	0.01
295.104	-0.05
295.317	0.01
295.53	0
295.743	-0.02
295.956	-0
296.169	0.03
296.382	0.03
296.595	-0.02
296.808	-0.02
297.021	0.02
297.234	0.04
297.447	-0.07
297.66	-0
297.873	0.06
298.086	0
298.299	-0.07
298.511	-0.06
298.724	-0.05
298.937	-0.03
299.15	-0.06
299.363	0
299.575	0.02
299.788	0.01
300.001	-0.02
300.213	-0.09
300.426	-0.05
300.639	-0.01
300.852	-0.04
301.064	0.04
301.277	0.05
301.489	0.06
301.702	0.04
301.915	-0.01
302.127	0.02
302.34	-0.04
302.552	0.02
302.765	-0.03
302.977	0.04
303.19	-0.02
303.402	0.01
303.615	-0.03
303.827	-0.01
304.04	-0.01
304.252	-0.01
304.464	-0.02
304.677	0.04
304.889	0.01
305.102	-0.06
305.314	-0.04
305.526	0.03
305.739	0.04
305.951	-0.02
306.163	-0.01
306.375	0.07
306.588	-0.02
306.8	-0.05
307.012	-0.05
307.224	-0
307.436	0.02
307.649	-0.12
307.861	0.03
308.073	0.03
308.285	0.02
308.497	-0.03
308.709	-0.06
308.921	0.03
309.133	0
309.346	-0.02
309.558	-0.04
309.77	0.03
309.982	-0
310.194	0.01
310.406	-0.05
310.617	0.06
310.829	-0.01
311.041	-0.03
311.253	-0.05
311.465	0.02
311.677	-0
311.889	0.01
312.101	-0.08
312.313	0.01
312.524	0.03
312.736	-0.07
312.948	-0.02
313.16	0.05
313.372	0.06
313.583	0.01
313.795	-0.04
314.007	-0.02
314.218	0.02
314.43	-0.01
314.642	-0.08
314.853	-0.02
315.065	-0.02
315.277	0.01
315.488	-0.01
315.7	0.04
315.912	0.03
316.123	-0.03
316.335	0.03
316.546	0.07
316.758	-0
316.969	-0.04
317.181	-0.03
317.392	-0.03
317.604	0.03
317.815	-0.01
318.026	0.01
318.238	-0.06
318.449	0.03
318.661	-0.08
318.872	-0.04
319.083	-0.02
319.295	0
319.506	-0.03
319.717	-0
319.929	0.01
320.14	-0.01
320.351	-0
320.562	-0.01
320.774	0.02
320.985	-0.01
321.196	-0.03
321.407	-0.04
321.618	0.02
321.829	-0.02
322.041	0.01
322.252	0.01
322.463	-0.01
322.674	0.03
322.885	-0.03
323.096	-0.02
323.307	0.02
323.518	-0.01
323.729	-0.04
323.94	-0.03
324.151	-0.03
324.362	-0
324.573	0.01
324.784	-0.07
324.995	0.06
325.206	-0.02
325.417	-0.01
325.628	-0.02
325.838	-0
326.049	0.01
326.26	0.01
326.471	0
326.682	-0.03
326.892	0.01
327.103	-0.06
327.314	-0.04
327.525	0.06
327.735	-0.05
327.946	0.01
328.157	-0.03
328.368	0.01
328.578	-0.01
328.789	0
328.999	0.01
329.21	-0.03
329.421	-0.01
329.631	-0.02
329.842	-0.06
330.052	0
330.263	0.01
330.473	0.03
330.684	-0.01
330.894	-0.04
331.105	-0.01
331.315	-0.03
331.526	-0.06
331.736	0.05
331.947	0.02
332.157	0.01
332.367	-0.06
332.578	0.03
332.788	0.04
332.999	0.03
333.209	0
333.419	-0.05
333.629	0
333.84	0.02
334.05	0
334.26	0.02
334.47	0.01
334.681	0.03
334.891	-0.05
335.101	0.05
335.311	0.07
335.521	0.01
335.732	-0.03
335.942	0.05
336.152	0.02
336.362	0.02
336.572	0.01
336.782	0.06
336.992	-0.01
337.202	-0.04
337.412	-0.04
337.622	-0.01
337.832	-0.03
338.042	0.03
338.252	-0.06
338.462	-0.04
338.672	0.02
338.882	-0.04
339.092	0.01
339.302	0.05
339.511	-0.01
339.721	-0.04
339.931	-0.06
340.141	0.04
340.351	0.06
340.561	0.02
340.77	0.04
340.98	-0.01
341.19	0.07
341.4	-0.03
341.609	-0.07
341.819	-0.01
342.029	-0.04
342.238	-0.01
342.448	-0.06
342.658	0.01
342.867	-0.01
343.077	-0.07
343.286	0.03
343.496	0.03
343.706	0.06
343.915	-0.08
344.125	-0
344.334	0.01
344.544	-0.04
344.753	-0
344.963	-0.01
345.172	-0.03
345.381	-0.01
345.591	-0.04
345.8	0.04
346.01	0.09
346.219	0.05
346.428	-0.16
346.638	-0.01
346.847	-0.02
347.056	0.05
347.266	-0.04
347.475	-0.01
347.684	-0.01
347.893	0.04
348.103	-0.01
348.312	-0.03
348.521	-0.02
348.73	0.04
348.94	0.02
349.149	-0
349.358	-0.05
349.567	-0.04
349.776	-0.04
349.985	-0.04
350.194	0.08
350.403	-0.01
350.612	-0.08
350.821	-0
351.03	-0
351.239	-0.06
351.448	-0.04
351.657	-0.05
351.866	0.06
352.075	-0.02
352.284	0.02
352.493	-0.06
352.702	0.04
352.911	0.02
353.12	-0.02
353.329	-0.01
353.538	0.03
353.746	-0.02
353.955	-0.01
354.164	0.03
354.373	-0.02
354.582	0.03
354.79	-0.02
354.999	0.04
355.208	-0
355.416	0.06
355.625	-0.08
355.834	-0.02
356.042	0.01
356.251	-0.01
356.46	-0
356.668	0.01
356.877	0.09
357.085	0.02
357.294	-0.13
357.503	-0.01
357.711	0
357.92	0.09
358.128	0.02
358.337	-0.01
358.545	0.03
358.754	-0.04
358.962	0.01
359.17	-0.05
359.379	0.01
359.587	0.04
359.796	0
360.004	0.04
360.212	-0.01
360.421	-0.01
360.629	-0.04
360.837	-0.02
361.046	0.03
361.254	0.08
361.462	0.01
361.67	-0.04
361.879	0.02
362.087	0.03
362.295	0.01
362.503	-0.03
362.711	-0.08
362.92	-0.04
363.128	0.01
363.336	-0.07
363.544	-0.05
363.752	-0.01
363.96	-0.07
364.168	-0.03
364.376	-0
364.584	0.02
364.792	0.04
365	0
365.208	-0.02
365.416	0
365.624	-0
365.832	-0.01
366.04	0.04
366.248	0.01
366.456	-0.01
366.664	-0.03
366.872	-0.01
367.079	-0.03
367.287	-0.01
367.495	-0
367.703	-0.03
367.911	-0.02
368.118	-0
368.326	-0.03
368.534	-0.06
368.742	0.02
368.949	-0.09
369.157	-0.03
369.365	0.06
369.572	-0.04
369.78	-0.02
369.988	0.02
370.195	-0.01
370.403	0.01
370.61	-0.03
370.818	0.02
371.026	0.03
371.233	-0.08
371.441	0.01
371.648	-0.03
371.856	0.01
372.063	-0.03
372.271	-0.02
372.478	0.01
372.685	-0.03
372.893	0
373.1	-0.02
373.308	-0.04
373.515	0.05
373.722	0.03
373.93	-0.01
374.137	0.03
374.344	0.09
374.552	0.03
374.759	0.03
374.966	0
375.173	-0
375.381	0.03
375.588	-0
375.795	-0.09
376.002	-0.03
376.209	-0.04
376.417	-0.02
376.624	-0.01
376.831	0.03
377.038	-0.05
377.245	-0.08
377.452	-0
377.659	-0.02
377.866	-0.05
378.073	-0.05
378.28	-0.04
378.487	0.02
378.694	0.04
378.901	-0.01
379.108	-0.01
379.315	0.02
379.522	0.06
379.729	-0.01
379.936	-0.04
380.143	-0.05
380.35	0
380.557	-0.03
380.763	0.03
380.97	-0.03
381.177	0.03
381.384	0.01
381.591	-0.02
381.797	-0.03
382.004	0.02
382.211	-0.01
382.418	0.03
382.624	0
382.831	0.04
383.038	-0.02
383.244	-0.01
383.451	-0.01
383.658	-0
383.864	-0
384.071	-0.05
384.277	0.02
384.484	-0.01
384.69	0.04
384.897	-0.02
385.103	-0.02
385.31	-0.02
385.516	-0.05
385.723	-0.03
385.929	-0.03
386.136	-0.04
386.342	0.02
386.549	0
386.755	0.04
386.961	0.02
387.168	-0.03
387.374	-0.03
387.58	0.05
387.787	-0.03
387.993	-0.01
388.199	-0.01
388.406	-0
388.612	0.01
388.818	-0.02
389.024	-0.04
389.231	-0.01
389.437	0.07
389.643	0.02
389.849	0
390.055	0.01
390.261	0
390.467	-0.02
390.674	-0.06
390.88	-0.02
391.086	-0.01
391.292	-0.03
391.498	0
391.704	0
391.91	-0.06
392.116	-0.01
392.322	-0.09
392.528	0
392.734	0
392.94	0
393.146	-0.02
393.352	0.01
393.557	0
393.763	0.02
393.969	-0.01
394.175	-0.01
394.381	-0.01
394.587	-0.03
394.792	-0.02
394.998	0.04
395.204	0.05
395.41	-0.05
395.615	0.05
395.821	0.03
396.027	-0.01
396.233	-0.07
396.438	0.01
396.644	0.03
396.85	0.02
397.055	0.01
397.261	0
397.466	0.08
397.672	-0.01
397.878	0.04
398.083	-0.01
398.289	-0.02
398.494	0.04
398.7	0
398.905	-0.09
399.111	0.1
399.316	-0.03
399.522	-0.02
399.727	0.01
399.932	-0.01
400.138	-0.04
400.343	0.03
400.549	0.04
400.754	-0.03
400.959	-0.02
401.165	-0.05
401.37	-0.03
401.575	-0.07
401.78	-0.02
401.986	-0.06
402.191	-0.01
402.396	0
402.601	0.03
402.807	-0.01
403.012	0
403.217	0.05
403.422	0.01
403.627	-0
403.832	0
404.037	0.03
404.243	0.04
404.448	-0.03
404.653	-0.05
404.858	-0.03
405.063	-0
405.268	-0.09
405.473	-0.03
405.678	-0.05
405.883	0.1
406.088	0
406.293	-0.08
406.498	-0.01
406.703	0.02
406.907	-0.01
407.112	-0.06
407.317	0.02
407.522	0.03
407.727	-0.03
407.932	0.02
408.136	0.03
408.341	-0.03
408.546	-0.01
408.751	0.04
408.956	-0.01
409.16	0.05
409.365	-0.03
409.57	-0.04
409.774	-0.04
409.979	-0.05
410.184	-0.06
410.388	-0.04
410.593	0.02
410.798	0
411.002	-0.01
411.207	0.02
411.411	-0.02
411.616	-0.1
411.82	0
412.025	-0.08
412.229	-0.05
412.434	0.05
412.638	-0.02
412.843	0.02
413.047	0
413.252	-0.06
413.456	-0.06
413.66	0.03
413.865	-0.04
414.069	0.1
414.273	-0.03
414.478	-0.05
414.682	-0.02
414.886	-0.05
415.091	-0.08
415.295	-0.1
415.499	0.05
415.703	0.02
415.908	-0.04
416.112	-0.09
416.316	0.04
416.52	-0.05
416.724	-0.1
416.929	-0.06
417.133	0.08
417.337	-0.04
417.541	-0.03
417.745	-0.05
417.949	0.03
418.153	-0
418.357	-0.05
418.561	0.02
418.765	-0.01
418.969	0.05
419.173	-0.02
419.377	-0.03
419.581	0.07
419.785	-0.07
419.989	-0.05
420.193	-0.05
420.397	-0.04
420.601	-0
420.804	0.05
421.008	0.03
421.212	0.03
421.416	0.04
421.62	-0.08
421.823	-0.02
422.027	0.05
422.231	-0.01
422.435	-0.07
422.638	0.02
422.842	0.01
423.046	-0.05
423.249	0.01
423.453	0.04
423.657	0.03
423.86	-0.06
424.064	0.02
424.268	0.06
424.471	-0
424.675	0.07
424.878	-0.02
425.082	-0.01
425.285	-0.02
425.489	0.03
425.692	0.03
425.896	-0.05
426.099	0.01
426.303	-0.08
426.506	-0.11
426.71	0.01
426.913	0.05
427.116	0
427.32	0
427.523	-0.04
427.726	0.07
427.93	-0.02
428.133	-0.02
428.336	-0.06
428.54	-0.06
428.743	0.01
428.946	0.05
429.149	-0.07
429.353	0.01
429.556	-0.06
429.759	-0.03
429.962	0.01
430.165	-0.02
430.368	-0.05
430.571	0.01
430.775	-0
430.978	-0.01
431.181	0.01
431.384	0.02
431.587	0.02
431.79	-0.01
431.993	-0.05
432.196	-0.04
432.399	-0.05
432.602	0.02
432.805	-0.03
433.008	-0.07
433.211	-0.08
433.414	-0.01
433.616	0.01
433.819	-0.01
434.022	-0.12
434.225	0.04
434.428	-0.02
434.631	0.06
434.833	-0.03
435.036	-0.04
435.239	0.01
435.442	-0
435.645	-0.05
435.847	-0.02
436.05	0.04
436.253	-0.02
436.455	-0.04
436.658	-0.02
436.861	0.07
437.063	-0.05
437.266	-0.05
437.468	0.04
437.671	0.09
437.874	-0.02
438.076	-0.1
438.279	-0.1
438.481	0.04
438.684	-0.06
438.886	0.03
439.089	-0.1
439.291	-0.04
439.494	-0.03
439.696	-0.09
439.899	0.01
440.101	0
440.303	-0.15
440.506	0
440.708	-0.02
440.91	0.01
441.113	-0.07
441.315	0.05
441.517	-0.04
441.72	0.01
441.922	-0.09
442.124	-0.03
442.326	0.01
442.529	0.06
442.731	-0.06
442.933	0.06
443.135	-0.04
443.337	-0.01
443.539	-0.01
443.742	-0.08
443.944	-0.02
444.146	-0.08
444.348	-0.04
444.55	-0.06
444.752	-0.02
444.954	0.03
445.156	-0.04
445.358	-0.08
445.56	0.05
445.762	-0.02
445.964	-0.03
446.166	-0.08
446.368	-0.06
446.57	0.04
446.772	-0.03
446.974	-0.05
447.175	-0.06
447.377	0.01
447.579	0
447.781	-0.08
447.983	-0.02
448.184	-0.04
448.386	0.01
448.588	-0.08
448.79	0.01
448.991	-0.08
449.193	-0.08
449.395	-0.03
449.597	-0
449.798	-0.02
450	0.01
450.202	-0.04
450.403	0.02
450.605	0.05
450.806	-0
451.008	-0.08
451.21	-0.01
451.411	-0.03
451.613	-0.01
451.814	-0.02
452.016	-0.02
452.217	0
452.419	0.06
452.62	-0
452.821	-0
453.023	0.07
453.224	0.05
453.426	-0.04
453.627	0.02
453.828	0.01
454.03	-0.07
454.231	0.01
454.432	-0.04
454.634	0.03
454.835	-0.03
455.036	-0.11
455.238	0.04
455.439	0.05
455.64	-0.04
455.841	-0.05
456.042	0.07
456.244	0.05
456.445	-0.07
456.646	-0.05
456.847	-0.05
457.048	0.03
457.249	0.01
457.45	0.17
457.651	-0.02
457.852	0.04
458.054	-0.01
458.255	-0.03
458.456	-0.01
458.657	-0.01
458.858	-0.05
459.058	-0.04
459.259	0.03
459.46	-0.01
459.661	-0.05
459.862	0.09
460.063	-0.02
460.264	0.03
460.465	-0.07
460.666	0.08
460.866	-0.01
461.067	-0.04
461.268	-0.01
461.469	-0.03
461.67	-0.01
461.87	-0.04
462.071	-0.05
462.272	-0.07
462.473	-0.02
462.673	0.01
462.874	-0.06
463.075	-0.04
463.275	-0.04
463.476	0.01
463.676	0.03
463.877	-0.06
464.078	-0.04
464.278	0.02
464.479	0.02
464.679	-0.02
464.88	-0.03
465.08	0.05
465.281	-0.05
465.481	-0.02
465.682	0.04
465.882	0.05
466.083	-0.02
466.283	-0.05
466.483	-0
466.684	-0.03
466.884	-0.02
467.085	-0.03
467.285	0.02
467.485	-0.04
467.686	-0.03
467.886	-0.06
468.086	-0.01
468.286	-0.02
468.487	-0
468.687	-0.08
468.887	-0.02
469.087	-0.01
469.287	-0.04
469.488	-0.05
469.688	0.01
469.888	0.04
470.088	0.04
470.288	0.02
470.488	-0.01
470.688	-0.07
470.888	-0.02
471.088	-0.03
471.288	0.03
471.488	-0
471.688	0.02
471.888	-0.04
472.088	0.05
472.288	0
472.488	-0.02
472.688	-0.06
472.888	0
473.088	-0.01
473.288	-0.03
473.488	-0.01
473.688	0.06
473.887	0
474.087	-0
474.287	0.03
474.487	-0.07
474.687	-0.01
474.886	-0.03
475.086	-0.01
475.286	-0.02
475.486	0.02
475.685	-0.03
475.885	-0.01
476.085	0.04
476.284	0.03
476.484	-0.01
476.684	-0.02
476.883	0.05
477.083	-0.01
477.282	-0.05
477.482	0.03
477.681	0.05
477.881	0.01
478.08	-0.03
478.28	-0.04
478.479	0.01
478.679	0.06
478.878	-0.02
479.078	-0.04
479.277	0
479.477	-0.01
479.676	0.05
479.875	-0
480.075	-0.02
480.274	0.01
480.473	0.04
480.673	-0.04
480.872	0.02
481.071	0.04
481.271	-0
481.47	-0.04
481.669	-0.01
481.868	-0.01
482.067	-0.03
482.267	-0.03
482.466	-0.02
482.665	-0.05
482.864	-0.08
483.063	-0.05
483.262	-0.01
483.461	0.03
483.661	0
483.86	-0.02
484.059	-0.01
484.258	-0.01
484.457	-0.01
484.656	0
484.855	0.04
485.054	-0.03
485.253	-0.05
485.452	-0.05
485.651	-0.04
485.849	-0
486.048	-0.02
486.247	-0.06
486.446	-0.01
486.645	-0.04
486.844	-0.02
487.043	-0.04
487.241	-0.01
487.44	-0.03
487.639	-0.02
487.838	0.01
488.037	-0.01
488.235	0.05
488.434	0
488.633	-0.01
488.831	-0.02
489.03	0.02
489.229	-0.01
489.427	-0.03
489.626	0.04
489.825	0.04
490.023	-0
490.222	-0.05
490.42	0.03
490.619	0.03
490.817	-0.01
491.016	-0.03
491.214	0.02
491.413	-0.01
491.611	-0.02
491.81	0.01
492.008	-0.01
492.207	0
492.405	-0.01
492.604	-0.06
492.802	-0.02
493	-0
493.199	-0.04
493.397	-0.01
493.595	-0.02
493.794	-0.03
493.992	0.06
494.19	0.01
494.388	0
494.587	-0.01
494.785	-0
494.983	-0.05
495.181	-0.01
495.379	-0.02
495.578	-0.01
495.776	0.01
495.974	-0.01
496.172	-0.02
496.37	-0
496.568	-0.04
496.766	-0.02
496.964	0.02
497.162	-0
497.36	-0.03
497.558	0.01
497.756	0.01
497.954	0.01
498.152	-0.05
498.35	-0
498.548	-0.02
498.746	-0.02
498.944	-0.01
499.142	0
499.34	-0.04
499.538	-0
499.736	-0.02
499.933	0.01
500.131	0.01
500.329	-0.01
500.527	0.03
500.725	0.01
500.922	0.01
501.12	-0
501.318	0.01
501.516	-0.02
501.713	-0.02
501.911	-0
502.109	-0.04
502.306	-0.01
502.504	-0.02
502.701	-0.03
502.899	-0.03
503.097	0.01
503.294	-0.01
503.492	-0.04
503.689	-0.02
503.887	0.02
504.084	0.04
504.282	-0
504.479	-0.05
504.677	-0.01
504.874	-0.05
505.072	-0.01
505.269	-0.01
505.466	0
505.664	0
505.861	-0.03
506.059	-0.04
506.256	0.01
506.453	-0.01
506.651	0.03
506.848	0.01
507.045	0.01
507.242	-0.02
507.44	-0.03
507.637	0
507.834	-0.01
508.031	0.01
508.229	-0.02
508.426	0
508.623	0
508.82	-0.03
509.017	-0.03
509.214	-0.02
509.411	0
509.608	-0.04
509.805	-0.03
510.003	-0.02
510.2	-0.02
510.397	0
510.594	-0.02
510.791	-0.04
510.988	-0.01
511.184	0.02
511.381	-0.01
511.578	0
511.775	0.01
511.972	-0.02
512.169	-0.01
512.366	-0.02
512.563	-0.01
512.76	-0.01
512.956	-0.02
513.153	-0.01
513.35	0
513.547	-0.02
513.744	-0.05
513.94	-0.02
514.137	0.02
514.334	-0.01
514.53	0.01
514.727	0.01
514.924	0.04
515.12	-0.03
515.317	-0.04
515.514	-0.02
515.71	-0.04
515.907	-0.01
516.103	0
516.3	-0
516.497	0.01
516.693	0
516.89	-0.01
517.086	-0.02
517.283	0.05
517.479	0.01
517.676	-0.01
517.872	0
518.068	-0.02
518.265	-0.01
518.461	-0.01
518.658	-0.04
518.854	-0
519.05	-0
519.247	-0.04
519.443	-0.02
519.639	0.01
519.836	-0
520.032	-0.01
520.228	-0.02
520.424	0.03
520.621	-0
520.817	-0.01
521.013	0.04
521.209	0
521.405	0.03
521.601	0.01
521.798	-0.01
521.994	0.01
522.19	-0.01
522.386	-0.04
522.582	0
522.778	-0.03
522.974	-0.02
523.17	-0
523.366	-0.03
523.562	0.03
523.758	-0
523.954	-0.03
524.15	-0
524.346	0.02
524.542	-0
524.738	-0.01
524.934	-0
525.129	-0.01
525.325	-0.02
525.521	-0.02
525.717	-0.01
525.913	-0
526.109	-0.01
526.304	-0
526.5	0
526.696	0.01
526.892	-0.01
527.087	-0.01
527.283	-0.03
527.479	0.02
527.674	-0.04
527.87	-0.01
528.066	-0.02
528.261	0.01
528.457	0.01
528.653	-0
528.848	0
529.044	-0
529.239	0
529.435	0.01
529.63	0.01
529.826	0.05
530.021	0
530.217	0.01
530.412	-0.01
530.608	-0.03
530.803	0
530.999	-0
531.194	-0.05
531.389	0.01
531.585	-0.05
531.78	-0.01
531.975	-0
532.171	0.02
532.366	-0.03
532.561	-0
532.757	-0.02
532.952	-0.01
533.147	0.03
533.342	-0.01
533.538	-0.02
533.733	0.02
533.928	0.01
534.123	-0.02
534.318	-0.04
534.513	0.01
534.709	-0
534.904	-0.04
535.099	-0.02
535.294	-0.02
535.489	-0.01
535.684	-0.02
535.879	-0.04
536.074	-0
536.269	-0.04
536.464	0
536.659	-0.02
536.854	-0.02
537.049	-0.01
537.244	0
537.439	-0.02
537.634	0.02
537.828	0.01
538.023	0.01
538.218	-0.04
538.413	-0.01
538.608	-0.03
538.803	0.04
538.997	-0.03
539.192	0.02
539.387	0.01
539.582	0.01
539.776	0
539.971	-0.01
540.166	-0.01
540.36	-0.02
540.555	0.01
540.75	-0.03
540.944	-0.01
541.139	-0.05
541.334	-0.03
541.528	0.02
541.723	0.02
541.917	-0
542.112	-0.05
542.306	-0
542.501	-0.01
542.695	0
542.89	-0.02
543.084	0.01
543.279	-0.01
543.473	-0
543.668	-0.01
543.862	-0
544.056	0.01
544.251	-0.01
544.445	-0.01
544.64	-0
544.834	-0.02
545.028	-0.02
545.222	0.01
545.417	0.01
545.611	-0
545.805	-0.01
546	-0.02
546.194	-0.02
546.388	-0.01
546.582	-0.01
546.776	0
546.97	-0.01
547.165	-0.01
547.359	0.02
547.553	-0.04
547.747	0
547.941	0
548.135	-0.02
548.329	0.03
548.523	0
548.717	-0.01
548.911	-0.05
549.105	-0.01
549.299	0.02
549.493	0.01
549.687	0.02
549.881	0.02
550.075	-0.01
550.269	-0.02
550.463	-0
550.657	-0.02
550.85	-0
551.044	-0.01
551.238	-0.01
551.432	-0.01
551.626	-0.04
551.82	0.02
552.013	-0.03
552.207	-0.01
552.401	-0.01
552.594	-0.01
552.788	-0
552.982	-0
553.176	-0.03
553.369	-0.01
553.563	0
553.756	-0.03
553.95	-0.01
554.144	0.01
554.337	-0
554.531	0
554.724	0.01
554.918	-0.01
555.111	0.02
555.305	-0.01
555.498	0.03
555.692	0.01
555.885	-0.03
556.079	-0.02
556.272	-0.01
556.466	0.01
556.659	0.01
556.852	-0.02
557.046	-0.02
557.239	0.01
557.432	-0.02
557.626	-0
557.819	0.01
558.012	-0
558.206	0.03
558.399	-0
558.592	0
558.785	-0.01
558.979	0
559.172	0.01
559.365	0.02
559.558	0.01
559.751	0
559.944	0.02
560.138	-0.02
560.331	-0
560.524	-0.02
560.717	-0.02
560.91	-0.01
561.103	0.01
561.296	0.01
561.489	0.02
561.682	-0.01
561.875	0.03
562.068	0.02
562.261	-0.01
562.454	0.03
562.647	0.02
562.84	0.03
563.032	-0.03
563.225	0.01
563.418	-0.01
563.611	-0
563.804	-0
563.997	-0.02
564.19	-0.03
564.382	-0.01
564.575	-0.02
564.768	0.01
564.961	-0.02
565.153	-0
565.346	0.02
565.539	0.02
565.731	0
565.924	0.01
566.117	0.02
566.309	0.01
566.502	-0.02
566.695	-0.01
566.887	-0
567.08	-0.04
567.272	-0.02
567.465	-0.01
567.657	-0
567.85	-0
568.042	0.01
568.235	0.03
568.427	0.01
568.62	-0.01
568.812	0.01
569.005	-0
569.197	-0.04
569.389	0
569.582	0.01
569.774	0.04
569.966	-0.02
570.159	-0.05
570.351	0.01
570.543	-0.02
570.736	-0
570.928	-0.02
571.12	-0
571.312	-0.01
571.505	-0.04
571.697	0.04
571.889	-0.03
572.081	-0.01
572.273	-0.01
572.465	0.04
572.658	-0.01
572.85	0.02
573.042	-0.02
573.234	-0.01
573.426	0.04
573.618	-0.02
573.81	0.01
574.002	0.03
574.194	0.05
574.386	-0.04
574.578	-0.07
574.77	-0.01
574.962	-0.02
575.154	-0.03
575.346	-0
575.538	-0.01
575.729	-0.01
575.921	-0.01
576.113	0.02
576.305	0.04
576.497	-0.01
576.689	-0.01
576.88	-0.03
577.072	0.03
577.264	-0.02
577.456	0.02
577.647	-0.05
577.839	0.01
578.031	0.05
578.223	-0.03
578.414	-0.04
578.606	0.02
578.798	0.03
578.989	-0.01
579.181	-0.01
579.372	-0.01
579.564	0
579.755	0.01
579.947	0.02
580.139	-0
580.33	-0.03
580.522	-0.02
580.713	-0.07
580.905	0.01
581.096	0.02
581.287	0.01
581.479	0
581.67	0.03
581.862	0.03
582.053	0.01
582.244	-0.03
582.436	0.01
582.627	0.03
582.818	-0
583.01	-0.02
583.201	0.03
583.392	0.03
583.583	0.03
583.775	0.02
583.966	-0.01
584.157	0.01
584.348	0.02
584.54	-0.02
584.731	0.03
584.922	0.02
585.113	-0.01
585.304	0.05
585.495	0.05
585.686	0.02
585.877	0.05
586.068	0.04
586.259	0.05
586.45	0.02
586.641	0.03
586.832	-0
587.023	0.02
587.214	0.01
587.405	0.02
587.596	0.01
587.787	0.08
587.978	0.04
588.169	0.01
588.36	0.02
588.551	0.03
588.742	0.04
588.932	0.07
589.123	0.04
589.314	0.06
589.505	0.06
589.696	0.06
589.886	0.03
590.077	0.02
590.268	0.03
590.458	0.02
590.649	0
590.84	0.08
591.03	0.05
591.221	0.03
591.412	0.02
591.602	0.08
591.793	0.1
591.984	0.04
592.174	0.06
592.365	0.12
592.555	0.04
592.746	0.09
592.936	0.07
593.127	0.07
593.317	0.11
593.508	0.05
593.698	0.08
593.889	0.08
594.079	0.07
594.269	0.1
594.46	0.07
594.65	0.08
594.84	0.09
595.031	0.06
595.221	0.08
595.411	0.06
595.602	0.13
595.792	0.08
595.982	0.07
596.172	0.16
596.363	0.12
596.553	0.12
596.743	0.11
596.933	0.1
597.123	0.13
597.314	0.11
597.504	0.08
597.694	0.16
597.884	0.13
598.074	0.1
598.264	0.1
598.454	0.16
598.644	0.15
598.834	0.12
599.024	0.1
599.214	0.11
599.404	0.19
599.594	0.17
599.784	0.12
599.974	0.18
600.164	0.21
600.354	0.14
600.544	0.14
600.734	0.19
600.924	0.21
601.114	0.15
601.303	0.17
601.493	0.23
601.683	0.17
601.873	0.18
602.063	0.13
602.252	0.24
602.442	0.17
602.632	0.21
602.821	0.2
603.011	0.22
603.201	0.24
603.39	0.2
603.58	0.22
603.77	0.25
603.959	0.27
604.149	0.27
604.339	0.22
604.528	0.29
604.718	0.26
604.907	0.27
605.097	0.26
605.286	0.26
605.476	0.31
605.665	0.31
605.855	0.27
606.044	0.35
606.234	0.34
606.423	0.32
606.612	0.3
606.802	0.33
606.991	0.35
607.181	0.37
607.37	0.34
607.559	0.34
607.749	0.34
607.938	0.35
608.127	0.36
608.316	0.38
608.506	0.41
608.695	0.44
608.884	0.39
609.073	0.43
609.263	0.46
609.452	0.48
609.641	0.47
609.83	0.44
610.019	0.52
610.208	0.48
610.397	0.52
610.586	0.53
610.775	0.49
610.965	0.52
611.154	0.52
611.343	0.57
611.532	0.58
611.721	0.57
611.91	0.62
612.099	0.62
612.287	0.62
612.476	0.6
612.665	0.69
612.854	0.68
613.043	0.71
613.232	0.7
613.421	0.67
613.61	0.73
613.798	0.74
613.987	0.81
614.176	0.82
614.365	0.84
614.554	0.83
614.742	0.87
614.931	0.87
615.12	0.93
615.309	0.89
615.497	0.94
615.686	0.91
615.875	0.95
616.063	0.95
616.252	0.97
616.44	1.06
616.629	1.05
616.818	1.07
617.006	1.07
617.195	1.11
617.383	1.14
617.572	1.13
617.76	1.15
617.949	1.14
618.137	1.22
618.326	1.2
618.514	1.18
618.703	1.21
618.891	1.31
619.079	1.2
619.268	1.37
619.456	1.31
619.644	1.35
619.833	1.32
620.021	1.33
620.209	1.31
620.398	1.4
620.586	1.36
620.774	1.45
620.962	1.43
621.151	1.53
621.339	1.48
621.527	1.41
621.715	1.48
621.903	1.47
622.092	1.44
622.28	1.55
622.468	1.47
622.656	1.52
622.844	1.53
623.032	1.51
623.22	1.47
623.408	1.6
623.596	1.55
623.784	1.55
623.972	1.51
624.16	1.49
624.348	1.54
624.536	1.48
624.724	1.47
624.912	1.48
625.1	1.48
625.288	1.42
625.476	1.36
625.664	1.42
625.851	1.33
626.039	1.32
626.227	1.3
626.415	1.27
626.603	1.18
626.79	1.23
626.978	1.22
627.166	1.16
627.354	1.13
627.541	1.04
627.729	1
627.917	1.11
628.104	1.02
628.292	0.97
628.48	0.94
628.667	0.91
628.855	0.88
629.042	0.88
629.23	0.81
629.418	0.76
629.605	0.76
629.793	0.72
629.98	0.65
630.168	0.64
630.355	0.62
630.543	0.63
630.73	0.58
630.917	0.58
631.105	0.61
631.292	0.54
631.48	0.49
631.667	0.52
631.854	0.47
632.042	0.46
632.229	0.38
632.416	0.4
632.604	0.38
632.791	0.35
632.978	0.39
633.165	0.35
633.353	0.38
633.54	0.36
633.727	0.22
633.914	0.26
634.101	0.22
634.289	0.32
634.476	0.25
634.663	0.23
634.85	0.25
635.037	0.19
635.224	0.16
635.411	0.24
635.598	0.22
635.785	0.18
635.972	0.18
636.159	0.25
636.346	0.16
636.533	0.21
636.72	0.19
636.907	0.15
637.094	0.17
637.281	0.11
637.468	0.17
637.655	0.12
637.842	0.14
638.029	0.11
638.215	0.16
638.402	0.13
638.589	0.12
638.776	0.07
638.963	0.08
639.149	0.14
639.336	0.13
639.523	0.11
639.709	0.12
639.896	0.1
640.083	0.13
640.27	0.11
640.456	0.04
640.643	0.12
640.829	0.05
641.016	0.03
641.203	0.03
641.389	0.08
641.576	0.09
641.762	0.05
641.949	0.02
642.135	0.04
642.322	0.05
642.508	0.01
642.695	0.07
642.881	0.05
643.068	0.04
643.254	0.02
643.441	0.09
643.627	0.06
643.813	0.02
644	0.06
644.186	0
644.372	0.05
644.559	0.08
644.745	-0.01
644.931	0
645.118	0.05
645.304	0.01
645.49	-0.02
645.676	0.01
645.862	0.04
646.049	0.06
646.235	-0
646.421	0.08
646.607	0.09
646.793	-0.01
646.979	0
647.165	0.06
647.352	-0
647.538	0.05
647.724	0.01
647.91	0.02
648.096	0.03
648.282	0.02
648.468	-0
648.654	0.04
648.84	0.05
649.026	0.03
649.212	0.03
649.397	-0.02
649.583	0
649.769	0.04
649.955	0.01
650.141	0.04
650.327	0.07
650.513	-0.03
650.698	0.03
650.884	-0.03
651.07	0.01
651.256	-0.01
651.442	0.01
651.627	-0
651.813	0.02
651.999	-0.01
652.184	0.02
652.37	0
652.556	-0.02
652.741	0.03
652.927	-0.09
653.113	0.01
653.298	0
653.484	-0.02
653.669	-0.04
653.855	-0.03
654.04	0.03
654.226	-0.01
654.412	-0.01
654.597	-0.04
654.782	0.02
654.968	0
655.153	0.02
655.339	0.01
655.524	-0.04
655.71	-0.02
655.895	-0.03
656.08	-0
656.266	0.03
656.451	0.02
656.636	-0.03
656.822	0
657.007	-0.06
657.192	-0.03
657.378	-0.07
657.563	-0.02
657.748	0.03
657.933	-0.01
658.118	-0
658.304	-0.04
658.489	0.02
658.674	0
658.859	-0.09
659.044	0.02
659.229	0.03
659.414	-0.03
659.599	-0
659.785	-0.08
659.97	0.01
660.155	-0.01
660.34	-0.01
660.525	-0.02
660.71	-0
660.895	0.04
661.08	-0.03
661.264	-0.03
661.449	0.04
661.634	0.05
661.819	0.01
662.004	-0.01
662.189	-0.05
662.374	-0.06
662.559	-0.07
662.743	-0.06
662.928	-0.05
663.113	-0
663.298	-0.02
663.483	-0.02
663.667	-0.01
663.852	-0.05
664.037	0.06
664.221	-0.04
664.406	0.03
664.591	0.02
664.775	-0.01
664.96	-0.01
665.145	0.02
665.329	-0
665.514	-0.01
665.698	-0.01
665.883	-0.06
666.068	0.05
666.252	0
666.437	-0.04
666.621	-0.01
666.806	0.01
666.99	-0.02
667.174	-0.05
667.359	0.05
667.543	-0.05
667.728	-0.03
667.912	-0.09
668.096	0.04
668.281	-0.04
668.465	-0.01
668.649	-0.03
668.834	-0.02
669.018	-0.04
669.202	-0.02
669.387	-0.03
669.571	0.01
669.755	-0.08
669.939	0
670.124	-0.02
670.308	0.04
670.492	0.03
670.676	-0.02
670.86	-0.01
671.044	-0.05
671.228	0.02
671.413	-0.04
671.597	-0.06
671.781	-0.06
671.965	0
672.149	-0.02
672.333	-0.03
672.517	-0.04
672.701	-0
672.885	-0.02
673.069	-0.06
673.253	0.03
673.437	-0.02
673.621	-0.04
673.804	0
673.988	-0.01
674.172	0
674.356	-0.05
674.54	-0.01
674.724	0.06
674.908	-0.05
675.091	0.01
675.275	-0.05
675.459	0.02
675.643	0.03
675.826	0.04
676.01	0.01
676.194	-0.08
676.377	0
676.561	0.03
676.745	0.01
676.928	0.03
677.112	0.05
677.296	-0.03
677.479	0.03
677.663	-0.06
677.846	0.02
678.03	0
678.213	-0.02
678.397	0
678.58	-0.04
678.764	-0.03
678.947	-0.04
679.131	-0.09
679.314	-0.03
679.498	-0.03
679.681	-0.02
679.865	0.04
680.048	-0.05
680.231	-0.03
680.415	-0.05
680.598	-0.06
680.781	-0.05
680.965	-0.01
681.148	0
681.331	-0.06
681.514	0.03
681.698	-0.02
681.881	0.03
682.064	-0.03
682.247	-0.01
682.43	-0.12
682.614	0.03
682.797	0.07
682.98	0.05
683.163	-0.03
683.346	-0
683.529	-0.06
683.712	-0.07
683.895	0.01
684.078	-0.06
684.261	0.01
684.444	-0
684.627	-0.02
684.81	-0
684.993	-0
685.176	-0
685.359	-0.04
685.542	-0.08
685.725	0.06
685.908	-0.06
686.091	-0.04
686.274	0.02
686.457	0.01
686.639	-0.03
686.822	0.02
687.005	-0.01
687.188	-0.03
687.371	0.11
687.553	-0
687.736	-0.03
687.919	0.03
688.102	0.09
688.284	-0.02
688.467	-0
688.65	-0.05
688.832	-0.06
689.015	-0.03
689.197	-0.1
689.38	0.13
689.563	0.07
689.745	-0.06
689.928	-0.03
690.11	-0.04
690.293	-0.01
690.475	-0.07
690.658	0.01
690.84	-0.04
691.023	-0.04
691.205	-0.04
691.388	-0.03
691.57	0.01
691.752	0.07
691.935	-0.09
692.117	-0.05
692.3	-0.02
692.482	-0.03
692.664	-0.01
692.847	-0.01
693.029	0.03
693.211	0.05
693.393	-0.02
693.576	-0.02
693.758	0.01
693.94	-0.05
694.122	-0.05
694.304	-0.03
694.487	-0.03
694.669	0.07
694.851	-0.03
695.033	0.01
695.215	-0
695.397	-0.04
695.579	0.03
695.761	-0.04
695.943	-0.08
696.125	0.07
696.308	-0.01
696.49	-0.13
696.671	0.12
696.853	-0.04
697.035	0.09
697.217	-0.07
697.399	0
697.581	-0.08
697.763	-0.01
697.945	-0.04
698.127	-0.06
698.309	0.07
698.491	-0.02
698.672	0.02
698.854	0.06
699.036	0.08
699.218	-0.05
699.399	0.01
699.581	0.01
699.763	-0.04
699.945	-0.06
700.126	-0.04
700.308	0.02
700.49	0.04
700.671	-0.09
700.853	-0.04
701.035	-0.04
701.216	0.01
701.398	-0.05
701.579	-0.01
701.761	0.02
701.943	-0.05
702.124	-0.07
702.306	-0.05
702.487	0.09
702.669	0.01
702.85	-0.03
703.031	-0.12
703.213	0.08
703.394	0.08
703.576	-0.02
703.757	0.07
703.938	0.05
704.12	0.15
704.301	-0.01
704.483	-0
704.664	0.01
704.845	0.05
705.026	0.04
705.208	-0.03
705.389	-0.05
705.57	-0.04
705.751	-0.01
705.933	0
706.114	0.07
706.295	-0.01
706.476	-0.05
706.657	0.09
706.838	0.03
707.02	0.09
707.201	-0.1
707.382	-0.12
707.563	0.03
707.744	-0.04
707.925	-0.07
708.106	-0.05
708.287	-0.02
708.468	0.09
708.649	-0.02
708.83	0
709.011	-0.07
709.192	-0.01
709.373	-0.05
709.554	-0.01
709.734	-0.01
709.915	0.01
710.096	0.01
710.277	-0.08
710.458	-0.05
710.639	0.05
710.819	-0.13
711	-0.02
711.181	0.05
711.362	0.06
711.542	0.04
711.723	-0
711.904	0.05
712.085	0.03
712.265	0.02
712.446	-0.11
712.627	-0.06
712.807	-0.03
712.988	-0.04
713.168	-0.06
713.349	-0.01
713.53	-0.19
713.71	-0.04
713.891	-0.11
714.071	-0.04
714.252	-0.09
714.432	-0.05
714.613	-0.09
714.793	0.03
714.974	0.01
715.154	0.03
715.334	0.04
715.515	0.05
715.695	-0.05
715.876	-0.1
716.056	-0.04
716.236	0.02
716.417	-0.03
716.597	-0.08
716.777	0.11
716.957	-0.02
717.138	-0.01
717.318	-0.02
717.498	-0.06
717.678	0.01
717.859	-0.01
718.039	-0.08
718.219	0.01
718.399	0.08
718.579	-0.02
718.759	-0.05
718.939	0.02
719.12	-0.04
719.3	-0.05
719.48	-0.15
719.66	-0.11
719.84	-0.02
720.02	0.01
720.2	-0.05
720.38	-0.02
720.56	0.11
720.74	-0.1
720.92	-0.04
721.1	0.03
721.279	0.05
721.459	-0.04
721.639	-0.1
721.819	0.03
721.999	-0.07
722.179	0.04
722.359	-0.1
722.538	-0.07
722.718	-0.03
722.898	-0.1
723.078	-0.07
723.257	-0.01
723.437	0
723.617	0.02
723.797	-0.02
723.976	-0.08
724.156	0.03
724.336	0.05
724.515	0.08
724.695	-0.09
724.874	-0.03
725.054	0.04
725.234	-0.04
725.413	0.04
725.593	0.01
725.772	-0.01
725.952	-0.1
726.131	-0.08
726.311	-0.01
726.49	-0.09
726.67	-0.1
726.849	-0.1
727.028	-0.1
727.208	-0.01
727.387	-0.02
727.567	-0.11
727.746	-0.03
727.925	-0.11
728.105	-0.12
728.284	0.02
728.463	-0.13
728.643	0.04
728.822	-0.11
729.001	-0.11
729.18	0
729.359	0.06
729.539	-0
729.718	-0.02
729.897	0.01
730.076	-0.14
730.255	-0.13
730.434	-0.09
730.614	0.03
730.793	0.03
730.972	0
731.151	-0.03
731.33	0.08
731.509	0.04
731.688	0.03
731.867	-0.08
732.046	-0.12
732.225	0.21
732.404	-0.12
732.583	-0.02
732.762	-0.07
732.941	0
733.12	-0.02
733.298	-0.07
733.477	0.07
733.656	-0.07
733.835	-0.11
734.014	0.04
734.193	-0.09
734.371	0.08
734.55	-0.04
734.729	-0.12
734.908	-0
735.086	0.05
735.265	0.09
735.444	-0.17
735.623	-0.13
735.801	-0.02
735.98	0.01
736.159	-0.13
736.337	0.01
736.516	0.06
736.694	-0
736.873	-0.07
737.052	0.07
737.23	0.04
737.409	-0.1
737.587	0.11
737.766	-0.17
737.944	-0.07
738.123	0.02
738.301	0.01
738.479	0
738.658	0.05
738.836	-0.24
739.015	-0.02
739.193	0.06
739.371	-0.06
739.55	-0
739.728	-0.11
739.906	0.15
740.085	0.09
740.263	0.06
740.441	-0.19
740.62	0.12
740.798	0.09
740.976	-0.01
741.154	-0.07
741.332	0.1
741.511	-0.05
741.689	0.02
741.867	0.02
742.045	0.03
742.223	-0
742.401	-0.01
742.579	-0.08
742.757	0
742.935	-0.14
743.114	-0.15
743.292	-0.09
743.47	0.06
743.648	-0.09
743.826	-0.01
744.004	-0.01
744.181	0.02
744.359	-0.06
744.537	-0.06
744.715	-0
744.893	-0.1
745.071	-0.06
745.249	0.04
745.427	-0.08
745.605	-0
745.782	0.01
745.96	0.05
746.138	0.02
746.316	0.14
746.493	-0.1
746.671	-0.03
746.849	-0.09
747.027	0.08
747.204	-0.2
747.382	0.08
747.56	-0.1
747.737	-0.1
747.915	-0.1
748.093	0.06
748.27	-0.06
748.448	-0.01
748.625	-0.2
748.803	-0.17
748.98	-0.13
749.158	-0.01
749.335	0.02
749.513	-0.05
749.69	-0.05
749.868	-0.06
750.045	0.1
750.223	0.01
750.4	-0.28
750.578	0.15
750.755	-0.04
750.932	-0.17
751.11	0.07
751.287	-0.18
751.464	0
751.642	-0.11
751.819	0.04
751.996	-0.11
752.173	-0.15
752.351	-0.17
752.528	-0.06
752.705	0.01
752.882	-0.04
753.06	-0.09
753.237	0.04
753.414	0.14
753.591	0.06
753.768	-0.08
753.945	-0.07
754.122	-0.03
754.299	0.04
754.476	-0.16
754.654	0.04
754.831	-0.07
755.008	-0.11
755.185	-0.14
755.362	-0.13
755.539	-0.05
755.716	-0.2
755.892	-0.04
756.069	-0.02
756.246	-0.16
756.423	-0.01
756.6	0.17
756.777	0.02
756.954	-0.01
757.131	-0.01
757.307	-0.1
757.484	-0.03
757.661	-0.03
757.838	0.03
758.015	-0.15
758.191	0.12
758.368	-0.05
758.545	0.14
758.721	0.01
758.898	-0.11
759.075	-0.05
759.251	0.06
759.428	0.05
759.605	-0.19
759.781	-0.11
759.958	-0.03
760.134	-0.02
760.311	-0.05
760.488	0.09
760.664	0.01
760.841	-0.04
761.017	-0.04
761.194	0.07
761.37	0.07
761.547	0.02
761.723	0.03
761.899	0.11
762.076	-0.13
762.252	-0.09
762.429	-0.09
762.605	0.07
762.781	-0.08
762.958	0.05
763.134	-0.09
763.31	-0.12
763.486	0.09
763.663	-0.06
763.839	-0.01
764.015	-0.25
764.191	-0.16
764.368	-0.04
764.544	0
764.72	-0.04
764.896	0.09
765.072	-0.14
765.248	0.01
765.425	-0.14
765.601	0.02
765.777	0.01
765.953	-0.24
766.129	-0.05
766.305	-0.05
766.481	0.04
766.657	-0.11
766.833	0.13
767.009	-0.07
767.185	-0.1
767.361	-0.03
767.537	-0.17
767.713	-0.09
767.889	-0.12
768.065	-0.01
768.24	-0.26
768.416	0.05
768.592	-0.16
768.768	0.11
768.944	0.03
769.12	-0.21
769.295	-0.23
769.471	-0.09
769.647	-0.07
769.823	0.01
769.998	0.09
770.174	-0.15
770.35	0.26
770.525	0.17
770.701	-0.09
770.877	0.12
771.052	-0.15
771.228	-0.02
771.403	-0.02
771.579	0.1
771.755	0.11
771.93	-0.16
772.106	-0.11
772.281	-0.25
772.457	-0.02
772.632	0.02
772.808	-0.17
772.983	0.04
773.159	-0.21
773.334	0.06
773.509	-0.04
773.685	-0.17
773.86	0.3
774.036	0.14
774.211	-0.11
774.386	0.08
774.562	-0.11
774.737	0.16
774.912	-0.08
775.087	0.02
775.263	-0.01
775.438	0.11
775.613	-0.09
775.788	-0.11
775.964	-0.09
776.139	0.21
776.314	-0.2
776.489	-0.05
776.664	-0.06
776.839	-0.22
777.014	0.16
777.19	0.09
777.365	0.36
777.54	0.2
777.715	-0.08
777.89	-0.17
778.065	-0.11
778.24	-0.21
778.415	0.17
778.59	-0.08
778.765	-0.16
778.94	0.04
779.115	-0.15
779.289	0.03
779.464	-0.04
779.639	-0.03
779.814	-0.17
779.989	-0.18
780.164	0.16
780.339	0.06
780.513	-0.12
780.688	0.01
780.863	-0.2
781.038	-0.04
781.212	-0.29
781.387	0
781.562	0.17
781.737	-0.08
781.911	0.09
782.086	-0.02
782.261	0.04
782.435	0.09
782.61	-0.08
782.784	-0.28
782.959	0.05
783.134	-0.18
783.308	-0.26
783.483	0.02
783.657	0.26
783.832	-0.01
784.006	-0.31
784.181	-0.01
784.355	-0.01
784.53	-0.22
784.704	-0.24
784.878	0.34
785.053	0.13
785.227	0.1
785.402	0.18
785.576	-0.14
785.75	0.14
785.925	-0.25
786.099	0
786.273	0.18
786.448	0.03
786.622	0.11
786.796	-0.06
786.97	-0.02
787.145	0.43
787.319	-0.52
787.493	-0.3
787.667	-0.42
787.841	-0.18
788.015	0.17
788.19	-0.08
788.364	-0.05
788.538	0.11
788.712	0.03
788.886	-0.02
789.06	0.07
789.234	0.14
789.408	-0.26
789.582	-0.27
789.756	-0.03
789.93	-0.16
790.104	-0.21
790.278	-0.02
790.452	-0.38
790.626	0.1
790.8	-0.17
790.973	-0.06
791.147	0.04
791.321	0.22
791.495	0.05
791.669	0.05
791.843	-0.01
792.016	-0.11
792.19	0.36
792.364	-0.09
792.538	0.45
792.711	0.16
792.885	-0.24
793.059	-0.3
793.233	-0.7
793.406	0.05
793.58	0.08
793.754	0.11
793.927	-0.21
794.101	-0.05
794.274	-0.22
794.448	0.16
794.622	-0.16
794.795	0.29
794.969	-0.11
795.142	0.3
795.316	-0.19
795.489	-0.11
795.663	0.3
795.836	-0.3
796.009	-0.47
796.183	0.26
796.356	0.08
796.53	0.16
796.703	-0.15
796.876	-0.03
797.05	-0.26
797.223	-0.11
797.396	0.01
797.57	0.04
797.743	0.17
797.916	-0.05
798.09	-0.09
798.263	0.24
798.436	0.07
798.609	-0.24
798.782	-0.11
798.956	0.08
799.129	-0.21
799.302	0.21
799.475	-0.22
799.648	-0.09
799.821	-0.3
799.994	-0.02
800.167	-0.3
800.34	-0.06
800.514	0.22
800.687	-0.09
800.86	-0.13
801.033	0
801.206	-0.1
801.379	-0.36
801.551	0.14
801.724	-0.02
801.897	0.14
802.07	0.13
802.243	-0.6
802.416	-0.12
802.589	-0.31
802.762	-0.03
802.935	-0.29
803.107	0.05
803.28	0.02
803.453	0.04
803.626	-0.13
803.798	0.08
803.971	-0.39
804.144	-0.2
804.317	0.19
804.489	0.05
804.662	-0.11
804.835	-0.06
805.007	-0.43
805.18	0.1
805.353	-0.08
805.525	-0.22
805.698	-0.37
805.87	0.2
806.043	0.57
806.215	-0.37
806.388	-0.37
806.56	0.02
806.733	0.18
806.905	0.21
807.078	-0.09
807.25	-0.2
807.423	-0.06
807.595	-0.13
807.768	0.12
807.94	0.3
808.112	0.07
808.285	-0.33
808.457	-0.45
808.629	-0.39
808.802	0.1
808.974	-0.18
809.146	-0.2
809.318	-0.27
809.491	0.27
809.663	0.28
809.835	-0.36
810.007	-0.1
810.18	-0.29
810.352	-0.19
810.524	-0.47
810.696	0.13
810.868	0.51
811.04	-0.24
811.212	-0.24
811.384	0.29
811.556	-0.16
811.728	0.18
811.901	0.27
812.073	-0.33
812.245	0.28
812.417	-0.18
812.589	-0.14
812.76	-0.33
812.932	0.02
813.104	0.43
813.276	0.05
813.448	0.28
813.62	-0.21
813.792	0.16
813.964	0.15
814.136	0.08
814.307	-0.43
814.479	-0.4
814.651	-0.26
814.823	0.63
814.995	-0.22
815.166	0.1
815.338	-0.53
815.51	-0.11
815.681	0.7
815.853	-0.09
816.025	-0.12
816.196	0.12
816.368	0.19
816.54	-0.06
816.711	-0.33
816.883	-0.13
817.054	0.9
817.226	-0.75
817.398	0.15
817.569	-0.04
817.741	-0.04
817.912	-0.52
818.084	-0.32
818.255	0.05
818.426	-0.16
818.598	-0.34
818.769	-0.22
818.941	0.03
819.112	0.59
819.283	0.35
819.455	-0.55
819.626	-0.34
819.798	0.1
819.969	-0.04
820.14	0.14
820.311	-0.16
820.483	-0.31
820.654	-0.25
820.825	-0.12
820.996	-0.12
821.168	-0.64
821.339	-0.09
821.51	-0.38
821.681	-0.22
821.852	-0.34
822.023	0.17
822.195	-0.43
822.366	0.26
822.537	-0.09
822.708	-0.04
822.879	-0.24
823.05	0.57
823.221	-0.05
823.392	0
823.563	0.19
823.734	-0.51
823.905	-0.21
824.076	-0.59
824.247	-0.37
824.418	-0.48
824.589	0.15
824.759	-0.45
824.93	-0.16
825.101	-0.36
825.272	0.66
825.443	0.43
825.614	0.24
825.784	-1.24
825.955	0.75
826.126	0.1
826.297	-0.35
826.467	0.68
826.638	0.68
826.809	-0.82
826.98	0.34
827.15	0.16
827.321	-0.03
827.492	1.02
827.662	0.22
827.833	0.5
828.003	0.49
828.174	-0.48
828.345	-0.32
828.515	0.69
828.686	-0.16
828.856	0.18
829.027	-0.08
829.197	-0.04
829.368	0.03
829.538	-0.27
829.709	-0.22
829.879	0.57
830.049	0.04
830.22	-0.75
830.39	0.3
830.56	0.27
830.731	0
830.901	-0.51
831.072	-0.08
831.242	0.23
831.412	-0.56
831.582	-0.2
831.753	-1
831.923	0.2
832.093	-0.25
832.263	-0.16
832.434	-0.42
832.604	-0.04
832.774	-0.16
832.944	-0.13
833.114	-0.08
833.284	0.04
833.454	-0.68
833.624	-0.29
833.795	-0.44
833.965	0.67
834.135	0.49
834.305	-0.5
834.475	-0.8
834.645	-0.09
834.815	-0.74
834.985	-0.72
835.155	-0.54
835.325	0.11
835.494	0.55
835.664	-0.24
835.834	-1.19
836.004	-0.01
836.174	0.86
836.344	0.07
836.514	-0.91
836.684	-0.52
836.853	-0.07
837.023	0.2
837.193	-0.55
837.363	0.73
837.532	0.42
837.702	0.07
837.872	-0.09
838.041	0.9
838.211	0.75
838.381	-0.53
838.55	0.09
838.72	1.39
838.89	0.79
839.059	-0.54
839.229	-0.68
839.398	0.72
839.568	0.07
839.738	-0.16
839.907	0.45
840.077	0.11
840.246	-0.51
840.416	-1.08
840.585	-1.01
840.755	0.65
840.924	1.38
841.093	-0.64
841.263	-0.45
841.432	0.34
841.602	-0.7
841.771	-0.67
841.94	-0.18
842.11	0.91
842.279	1.02
842.448	-0.89
842.617	-0.18
842.787	0.83
842.956	-1.08
843.125	0.02
843.294	0.52
843.464	0.62
843.633	0.21
843.802	-0.84
843.971	-0.32
844.14	0.48
844.309	0.55
844.479	-1.1
844.648	-0.73
844.817	0.19
844.986	-1.16
845.155	-0.22
845.324	-0.16
845.493	-0.88
845.662	-1.1
845.831	0.12
846	-0.61
846.169	-0.14
846.338	0.77
846.507	0.03
846.676	0.49
846.844	-1.14
847.013	-0.6
847.182	-0.34
847.351	-0.68
847.52	-0.46
847.689	-0.12
847.858	-0.51
848.026	-0.76
848.195	-0.71
848.364	-0.99
848.533	-0.72
848.701	-1.18
848.87	0.98
849.039	0.47
849.207	1.07
849.376	1.37
849.545	0.89
849.713	-0.75
849.882	-0.26
850.051	-0.7
850.219	-0.58
850.388	0.35
850.556	-0.82
850.725	0.58
850.893	-0.04
851.062	-0.78
851.23	0.17
851.399	-1.15
851.567	-1.74
851.736	-1.34
851.904	-1.83
852.073	-0.65
852.241	0.49
852.41	-0.03
852.578	-0.35
852.746	-0.64
852.915	-0.18
853.083	-0.22
853.251	-1.1
853.42	-1.08
853.588	0.14
853.756	0.5
853.924	-0.71
854.093	-0.58
854.261	-0.76
854.429	-1.99
854.597	-0.79
854.765	-0.91
854.934	0.5
855.102	0.36
855.27	-0.88
855.438	-0.02
855.606	0.64
855.774	1.27
855.942	-2.26
856.11	-1.61
856.278	-0.4
856.446	0.07
856.614	-0.56
856.782	-1.69
856.95	0.32
857.118	0.23
857.286	0.27
857.454	-1.41
857.622	-0.07
857.79	1.02
857.958	-2.34
858.126	-0.79
858.294	-2.18
858.462	0.13
858.629	-0.72
858.797	-1.68
858.965	0.21
859.133	-0.44
859.301	1.03
859.468	0.07
859.636	-0.05
859.804	0.43
859.971	0.05
860.139	-1.02
860.307	-0.43
860.474	-0.34
860.642	-0.01
860.81	-1.14
860.977	-0.18
861.145	0
861.313	-0.36
861.48	1.44
861.648	0.04
861.815	-0.26
861.983	-1.24
862.15	-0.29
862.318	1.21
862.485	-0.43
862.653	-0.5
862.82	-1.03
862.988	0.6
863.155	0.85
863.322	-1.65
863.49	-1.42
863.657	-1.21
863.824	0.84
863.992	1.42
864.159	0.27
864.326	1.27
864.494	-0.84
864.661	1.22
864.828	-0.83
864.996	1.44
865.163	2.22
865.33	-1.42
865.497	-3.53
865.664	-0.46
865.832	-1.81
865.999	-1.61
866.166	-0.85
866.333	-1.88
866.5	-0.4
866.667	1.04
866.834	-1.08
867.001	1.4
867.168	-1.35
867.335	-0.84
867.502	-0.99
867.669	-0.72
867.836	1.74
868.003	-0.26
868.17	0.94
868.337	-0.18
868.504	0.32
868.671	-2.56
868.838	-0.76
869.005	-1.37
869.172	-0.36
869.339	-0.44
869.505	-1.07
869.672	0.19
869.839	0.8
870.006	0.32
870.173	-1.42
870.339	0.38
870.506	2.2
870.673	-2.05
870.84	1.12
871.006	-0.57
871.173	-0.7
871.34	0.02
871.506	-0.72
871.673	0.26
871.839	-1.03
872.006	-0.95
872.173	-0.13
872.339	0.15
872.506	-0.44
872.672	0.62
872.839	-2.58
873.005	-0.38
873.172	1.44
873.338	2.6
873.505	-0.03
873.671	0.59
873.838	1.34
874.004	-1.05
874.171	-0.92
874.337	-0.66
874.503	1.1
874.67	-0.17
874.836	-1.26
875.002	1.89
875.169	-0.45
875.335	0.02
875.501	-0.96
875.668	0.53
875.834	-0.87
876	-0.55
876.166	1.04
876.332	-0.14
876.499	3.92
876.665	-1.32
876.831	-0.54
876.997	2.02
877.163	0.88
877.329	-0.88
877.495	-0.29
877.662	2.51
877.828	-0.25
877.994	-1.3
878.16	-2.31
878.326	-1.53
878.492	-0.05
878.658	-0.18
878.824	-0.28
878.99	0.24
879.156	-1.36
879.322	2.37
879.487	-0.54
879.653	0.84
879.819	1.81
879.985	-2.49
880.151	0.95
880.317	1.16
880.483	0.21
880.648	0.86
880.814	-2.31
880.98	1.41
881.146	-2.34
881.312	-1.46
881.477	-2.12
881.643	0.34
881.809	1.64
881.974	0.34
882.14	-3.4
882.306	0.98
882.471	2.85
882.637	-1.56
882.803	-1.27
882.968	2.38
883.134	1.74
883.299	-0.43
883.465	0.21
883.63	1.61
883.796	1.36
883.961	1.36
884.127	0.71
884.292	-4.67
884.458	-1.79
884.623	-1.79
