Data from Apollo_Calib_20240827__AbsoluteIrradiance__131__01-20-02-369.txt Node

Date: Wed Aug 28 01:20:02 BST 2024
User: biology
Spectrometer: FLMT08252
Trigger mode: 0
Integration Time (sec): 5.000000E-1
Scans to average: 5
Electric dark correction enabled: true
Nonlinearity correction enabled: false
Boxcar width: 0
XAxis mode: Wavelengths
Number of Pixels in Spectrum: 3648
>>>>>Begin Spectral Data<<<<<
179.588	-0
179.809	-0
180.03	-0
180.251	-0
180.473	-0
180.694	0
180.915	0
181.136	-0
181.357	0
181.578	-0
181.799	-0
182.02	0
182.241	0
182.462	-0
182.683	0
182.904	-0
183.125	-0
183.346	0
183.567	0
183.788	-0
184.009	-0
184.23	0
184.451	0
184.672	-0
184.892	-0
185.113	0
185.334	0
185.555	-0
185.776	-0
185.996	0
186.217	0
186.438	0
186.659	-0
186.879	0
187.1	-0
187.321	-0
187.541	0
187.762	0
187.983	-0
188.203	-0
188.424	0
188.644	-0
188.865	0
189.086	-0
189.306	-0
189.527	-0
189.747	0
189.968	-0
190.188	0
190.409	0
190.629	0
190.849	-0
191.07	-0
191.29	0
191.511	-0
191.731	-0
191.951	-0
192.172	-0
192.392	-0
192.612	0
192.833	0
193.053	0
193.273	0
193.493	-0
193.714	0
193.934	0
194.154	0
194.374	0
194.594	0
194.815	-0
195.035	0
195.255	0
195.475	-0
195.695	0
195.915	0
196.135	-0
196.355	0
196.575	0
196.795	0
197.015	-0
197.235	0
197.455	-0
197.675	0
197.895	-0
198.115	-0
198.335	0
198.555	-0
198.775	0
198.995	0
199.214	0
199.434	0
199.654	-0
199.874	0
200.094	1.12
200.313	-0.27
200.533	-0.67
200.753	-0.81
200.973	0.95
201.192	0.64
201.412	-0.72
201.632	-0.36
201.851	0.96
202.071	-0.38
202.291	-0.23
202.51	-0.26
202.73	0.12
202.95	-0.06
203.169	-0.67
203.389	-0.1
203.608	0.11
203.828	-0.7
204.047	-0.21
204.267	0.29
204.486	0.12
204.706	0.65
204.925	-0.06
205.145	-0.33
205.364	0.27
205.583	0.45
205.803	-0.18
206.022	-0.77
206.242	-0.19
206.461	0.07
206.68	-0.4
206.9	-0.06
207.119	0.69
207.338	0.47
207.557	-0.46
207.777	-0.07
207.996	-0.11
208.215	0.28
208.434	-0.35
208.654	-0.64
208.873	0.05
209.092	0.72
209.311	0.18
209.53	-0.12
209.749	-0.26
209.968	-0.33
210.187	-0.08
210.407	-0.39
210.626	0.12
210.845	0.3
211.064	-0.04
211.283	-0.17
211.502	0.01
211.721	-0.08
211.94	-0.16
212.159	0.22
212.377	-0.11
212.596	0.3
212.815	-0.02
213.034	0.25
213.253	0.25
213.472	0.29
213.691	-0.02
213.91	-0.25
214.128	-0.11
214.347	0.18
214.566	-0.44
214.785	-0.23
215.003	0.34
215.222	0.08
215.441	-0.17
215.66	-0.31
215.878	0.01
216.097	0.12
216.316	-0.28
216.534	-0.2
216.753	0.11
216.972	0.08
217.19	0.09
217.409	-0.28
217.627	-0.2
217.846	-0.09
218.064	-0
218.283	0.04
218.501	0.37
218.72	0.3
218.938	-0.19
219.157	-0.12
219.375	0.25
219.594	0.15
219.812	-0.1
220.031	-0.04
220.249	0.29
220.467	0.24
220.686	0.02
220.904	-0.18
221.122	-0.24
221.341	0.26
221.559	0.01
221.777	-0.11
221.995	-0
222.214	0.09
222.432	0.06
222.65	0.16
222.868	-0.04
223.086	0.08
223.305	0.1
223.523	-0.14
223.741	0.28
223.959	-0.1
224.177	-0.15
224.395	-0.1
224.613	0.02
224.831	0.12
225.049	-0.21
225.267	-0.02
225.485	0.04
225.703	-0.05
225.921	-0.06
226.139	0.03
226.357	0.14
226.575	0.07
226.793	-0.06
227.011	0.42
227.229	0.12
227.447	0.14
227.665	-0.15
227.883	-0.2
228.1	0.05
228.318	0.08
228.536	-0.33
228.754	-0.19
228.972	0.05
229.189	0.11
229.407	-0.02
229.625	-0.04
229.843	0.17
230.06	0.14
230.278	-0.07
230.496	0.07
230.713	-0.04
230.931	0.2
231.149	-0.04
231.366	-0.2
231.584	0.04
231.801	0.21
232.019	-0.06
232.236	-0.03
232.454	-0.13
232.671	0.24
232.889	0.06
233.106	-0.07
233.324	0.03
233.541	-0
233.759	-0.02
233.976	-0.08
234.194	-0.13
234.411	-0.02
234.628	-0.13
234.846	0.08
235.063	0.01
235.28	-0.11
235.498	0.02
235.715	-0.11
235.932	0.11
236.149	-0.02
236.367	-0.05
236.584	0.02
236.801	-0.08
237.018	0.09
237.236	0.02
237.453	-0.15
237.67	0.08
237.887	0.03
238.104	-0.05
238.321	-0.12
238.538	-0.02
238.755	0.11
238.973	-0.14
239.19	0.06
239.407	0.15
239.624	0.06
239.841	-0.06
240.058	-0.13
240.275	0.09
240.492	-0.05
240.709	-0.02
240.925	-0.03
241.142	-0.04
241.359	-0.08
241.576	-0.07
241.793	0.01
242.01	-0.02
242.227	0.15
242.444	0.03
242.66	0.13
242.877	-0
243.094	-0.1
243.311	0.07
243.527	-0.03
243.744	0.12
243.961	0.03
244.178	0.01
244.394	0.01
244.611	0.18
244.828	0.19
245.044	-0.13
245.261	0.01
245.477	0.07
245.694	0.02
245.911	-0.03
246.127	0.02
246.344	0.13
246.56	0.09
246.777	-0.04
246.993	-0.07
247.21	0
247.426	0.12
247.643	-0.02
247.859	-0.07
248.076	0
248.292	0.15
248.508	-0.07
248.725	0.02
248.941	0.01
249.157	0.1
249.374	-0.02
249.59	-0
249.806	0.07
250.023	0.1
250.239	-0.09
250.455	-0.09
250.671	-0.01
250.888	0.01
251.104	-0
251.32	-0.01
251.536	-0.02
251.752	-0.04
251.969	-0.02
252.185	-0.01
252.401	0.17
252.617	0.06
252.833	-0.02
253.049	-0
253.265	0.01
253.481	0.03
253.697	-0.01
253.913	-0.05
254.129	-0.04
254.345	0.03
254.561	-0.02
254.777	0.06
254.993	0.07
255.209	0.13
255.425	-0.09
255.641	-0.06
255.857	0.12
256.073	0.02
256.288	-0.09
256.504	-0.04
256.72	0.05
256.936	0.13
257.152	-0.03
257.367	-0.01
257.583	0.04
257.799	0.03
258.015	-0.01
258.23	0.01
258.446	0.19
258.662	-0.02
258.877	-0.12
259.093	-0.04
259.309	0.01
259.524	0.01
259.74	-0.01
259.955	-0.15
260.171	0.06
260.387	-0.03
260.602	0.03
260.818	0.02
261.033	-0.09
261.249	-0.05
261.464	-0.08
261.68	-0.07
261.895	0.04
262.11	0.05
262.326	-0.03
262.541	-0.07
262.757	0.04
262.972	0.06
263.187	0.03
263.403	-0.02
263.618	0.13
263.833	-0.03
264.049	0.01
264.264	0.03
264.479	0.06
264.694	0.1
264.91	-0.04
265.125	0.01
265.34	0.09
265.555	0.14
265.77	0.01
265.986	-0.01
266.201	-0
266.416	0.07
266.631	-0.02
266.846	-0.03
267.061	0.1
267.276	0.07
267.491	-0.11
267.706	0.03
267.921	0.02
268.136	0.04
268.351	-0.02
268.566	-0.05
268.781	0.07
268.996	0.11
269.211	-0.02
269.426	-0.04
269.641	-0.03
269.856	0.09
270.071	0.04
270.285	-0.07
270.5	0.08
270.715	0.08
270.93	-0.04
271.145	0.05
271.359	0.05
271.574	-0.05
271.789	0.01
272.004	-0.05
272.218	0.05
272.433	0.03
272.648	-0.04
272.862	0.03
273.077	0.01
273.292	0.05
273.506	-0.07
273.721	0
273.936	0.06
274.15	0.13
274.365	-0.01
274.579	0
274.794	0.04
275.008	0.03
275.223	-0.03
275.437	-0.02
275.652	0.04
275.866	0.03
276.081	0.02
276.295	0.09
276.509	-0.06
276.724	-0.01
276.938	0.04
277.153	-0.01
277.367	0.01
277.581	-0.03
277.796	-0.01
278.01	-0.08
278.224	0.09
278.438	0.17
278.653	-0.02
278.867	-0.01
279.081	-0.17
279.295	-0.03
279.51	0.04
279.724	-0.07
279.938	0.04
280.152	0.01
280.366	-0.05
280.58	0.04
280.794	0.08
281.008	0.03
281.222	0.08
281.437	0.09
281.651	0.04
281.865	0.06
282.079	-0
282.293	-0.07
282.507	0.01
282.721	-0.01
282.935	0.03
283.148	-0.04
283.362	-0.01
283.576	-0.05
283.79	0.01
284.004	-0.03
284.218	0.06
284.432	-0
284.646	0
284.859	-0.03
285.073	0
285.287	0.02
285.501	0
285.714	-0.03
285.928	0.03
286.142	0.03
286.356	0
286.569	-0
286.783	0.1
286.997	0.04
287.21	0.05
287.424	0.06
287.637	-0
287.851	0
288.065	-0.01
288.278	-0
288.492	0.02
288.705	-0.02
288.919	0
289.132	-0.04
289.346	0.1
289.559	-0.08
289.773	-0.08
289.986	0.01
290.2	-0.01
290.413	0.04
290.626	-0.02
290.84	-0.01
291.053	0.02
291.267	0.09
291.48	-0
291.693	0.05
291.906	-0.06
292.12	0.04
292.333	-0.01
292.546	-0
292.76	0.06
292.973	0.05
293.186	0.02
293.399	-0.01
293.612	0.02
293.826	0.02
294.039	0.01
294.252	-0.01
294.465	0.05
294.678	0.05
294.891	-0.03
295.104	-0.01
295.317	0.01
295.53	0.03
295.743	-0
295.956	0.02
296.169	0.08
296.382	0.04
296.595	-0
296.808	-0.05
297.021	0.04
297.234	0.07
297.447	0.01
297.66	0.03
297.873	0.08
298.086	0.03
298.299	-0.04
298.511	-0.02
298.724	0.02
298.937	-0.04
299.15	0
299.363	0.03
299.575	0.04
299.788	0.06
300.001	-0
300.213	-0.01
300.426	-0.02
300.639	-0.03
300.852	0.01
301.064	0.05
301.277	0.08
301.489	0.06
301.702	0.04
301.915	0.04
302.127	0.03
302.34	0.02
302.552	0.04
302.765	0.01
302.977	0.05
303.19	-0.02
303.402	0.01
303.615	-0.01
303.827	-0.03
304.04	0.02
304.252	-0
304.464	-0.01
304.677	0.12
304.889	0.1
305.102	0
305.314	-0.01
305.526	0.06
305.739	0.03
305.951	-0.02
306.163	-0.02
306.375	0.07
306.588	-0.05
306.8	-0.03
307.012	-0.01
307.224	0.03
307.436	0.12
307.649	-0.06
307.861	0.02
308.073	0.05
308.285	-0.01
308.497	-0.04
308.709	0
308.921	0.01
309.133	0.02
309.346	0
309.558	-0.02
309.77	0.03
309.982	0.06
310.194	0.05
310.406	-0.02
310.617	0.11
310.829	0.03
311.041	0.03
311.253	0.03
311.465	-0.01
311.677	-0
311.889	0.04
312.101	0.04
312.313	0.03
312.524	0.04
312.736	0.01
312.948	0.05
313.16	0.08
313.372	0.01
313.583	0.06
313.795	-0
314.007	-0.01
314.218	0.03
314.43	0.01
314.642	-0.03
314.853	-0.04
315.065	0.04
315.277	-0.02
315.488	0.05
315.7	0.07
315.912	0.05
316.123	0.02
316.335	-0.01
316.546	0.08
316.758	-0.02
316.969	-0.02
317.181	0.05
317.392	-0
317.604	0.05
317.815	-0.01
318.026	-0.02
318.238	-0.03
318.449	0.07
318.661	-0.06
318.872	-0.03
319.083	-0.02
319.295	0.02
319.506	0
319.717	0.04
319.929	0.02
320.14	0.05
320.351	0.01
320.562	0
320.774	0.03
320.985	0.03
321.196	-0.01
321.407	-0.04
321.618	0.06
321.829	0.06
322.041	0.06
322.252	0.02
322.463	0.04
322.674	0.02
322.885	-0.02
323.096	0.02
323.307	-0.01
323.518	0.01
323.729	-0
323.94	0.01
324.151	0.01
324.362	0.06
324.573	0.03
324.784	-0.05
324.995	0.1
325.206	0.02
325.417	-0.01
325.628	-0.01
325.838	0
326.049	0
326.26	0.06
326.471	0.01
326.682	0.05
326.892	0.02
327.103	-0.04
327.314	-0.03
327.525	0.06
327.735	-0.02
327.946	-0.02
328.157	0.02
328.368	0.03
328.578	-0.04
328.789	0.05
328.999	-0.01
329.21	-0.01
329.421	-0.02
329.631	-0.04
329.842	-0.01
330.052	0.03
330.263	0.05
330.473	0.05
330.684	-0
330.894	-0.01
331.105	0.07
331.315	-0.01
331.526	-0.06
331.736	0.08
331.947	-0.02
332.157	0.02
332.367	-0.05
332.578	0.04
332.788	0.06
332.999	0.03
333.209	0.06
333.419	-0.05
333.629	0.05
333.84	0.03
334.05	0.02
334.26	0.09
334.47	-0.03
334.681	0.03
334.891	-0.01
335.101	0.02
335.311	0.11
335.521	-0
335.732	0
335.942	0.1
336.152	0.04
336.362	0.06
336.572	0.03
336.782	0.02
336.992	0.03
337.202	0.03
337.412	-0.02
337.622	0.04
337.832	-0.01
338.042	0.01
338.252	-0.02
338.462	-0.01
338.672	0
338.882	-0.05
339.092	0.02
339.302	0.1
339.511	0.05
339.721	0.03
339.931	-0.04
340.141	0.06
340.351	0.09
340.561	0.01
340.77	0.01
340.98	-0.02
341.19	0.06
341.4	0.01
341.609	-0.03
341.819	0.04
342.029	-0.02
342.238	0.02
342.448	0.03
342.658	0.08
342.867	0.03
343.077	0.01
343.286	0.05
343.496	0.03
343.706	0.07
343.915	-0.03
344.125	0.04
344.334	0.04
344.544	-0.08
344.753	0
344.963	-0.01
345.172	-0
345.381	0
345.591	0
345.8	-0.02
346.01	0.09
346.219	0.03
346.428	-0.14
346.638	0.03
346.847	-0
347.056	0.07
347.266	-0.01
347.475	0.03
347.684	0.04
347.893	0.07
348.103	0.03
348.312	0.03
348.521	-0.03
348.73	-0.02
348.94	0.03
349.149	0.01
349.358	0.02
349.567	-0.01
349.776	0.01
349.985	0.03
350.194	0.07
350.403	0.06
350.612	0
350.821	0.01
351.03	0.01
351.239	-0.07
351.448	0.03
351.657	0
351.866	0.07
352.075	-0.02
352.284	0.06
352.493	-0.03
352.702	0.07
352.911	0.07
353.12	0.01
353.329	0
353.538	0.05
353.746	0.02
353.955	-0.03
354.164	0.01
354.373	0.02
354.582	0.01
354.79	0.02
354.999	0.08
355.208	0.02
355.416	0.07
355.625	0.01
355.834	0.01
356.042	0.03
356.251	0.03
356.46	-0.04
356.668	0.04
356.877	0.1
357.085	0.08
357.294	-0.06
357.503	0.05
357.711	-0
357.92	0.14
358.128	0.02
358.337	0.02
358.545	0.05
358.754	0.05
358.962	0.07
359.17	-0.02
359.379	0.03
359.587	0.04
359.796	0.01
360.004	0.03
360.212	0.05
360.421	0.07
360.629	0.01
360.837	0
361.046	0.08
361.254	0.11
361.462	0.02
361.67	0.05
361.879	0.02
362.087	0.09
362.295	0.03
362.503	0.01
362.711	0
362.92	-0
363.128	0.04
363.336	-0.01
363.544	-0.04
363.752	0.04
363.96	0.01
364.168	0.01
364.376	0.03
364.584	0.04
364.792	0.08
365	0.05
365.208	0.04
365.416	0.07
365.624	0.06
365.832	0.02
366.04	0.07
366.248	0.04
366.456	0.05
366.664	0.03
366.872	0.05
367.079	0.06
367.287	0.08
367.495	0.05
367.703	0.07
367.911	0.04
368.118	0.07
368.326	0.04
368.534	0.07
368.742	0.13
368.949	0.04
369.157	0.1
369.365	0.14
369.572	0.09
369.78	0.14
369.988	0.2
370.195	0.21
370.403	0.21
370.61	0.18
370.818	0.27
371.026	0.3
371.233	0.25
371.441	0.25
371.648	0.29
371.856	0.34
372.063	0.39
372.271	0.39
372.478	0.4
372.685	0.44
372.893	0.55
373.1	0.57
373.308	0.56
373.515	0.69
373.722	0.62
373.93	0.7
374.137	0.75
374.344	0.89
374.552	0.85
374.759	0.88
374.966	0.89
375.173	0.97
375.381	1.18
375.588	1.08
375.795	1.06
376.002	1.2
376.209	1.27
376.417	1.37
376.624	1.37
376.831	1.48
377.038	1.51
377.245	1.51
377.452	1.69
377.659	1.8
377.866	1.83
378.073	1.88
378.28	2.04
378.487	2.17
378.694	2.22
378.901	2.29
379.108	2.35
379.315	2.53
379.522	2.63
379.729	2.71
379.936	2.73
380.143	2.89
380.35	3.08
380.557	3.25
380.763	3.28
380.97	3.39
381.177	3.48
381.384	3.74
381.591	3.82
381.797	3.9
382.004	4.05
382.211	4.21
382.418	4.31
382.624	4.44
382.831	4.47
383.038	4.6
383.244	4.66
383.451	4.6
383.658	4.64
383.864	4.77
384.071	4.7
384.277	4.87
384.484	4.78
384.69	4.74
384.897	4.66
385.103	4.66
385.31	4.6
385.516	4.53
385.723	4.43
385.929	4.42
386.136	4.16
386.342	4.15
386.549	4.09
386.755	3.99
386.961	3.93
387.168	3.71
387.374	3.61
387.58	3.59
387.787	3.27
387.993	3.24
388.199	3
388.406	2.95
388.612	2.79
388.818	2.65
389.024	2.47
389.231	2.51
389.437	2.48
389.643	2.38
389.849	2.33
390.055	2.16
390.261	2.07
390.467	2.13
390.674	1.95
390.88	1.92
391.086	1.93
391.292	1.78
391.498	1.8
391.704	1.82
391.91	1.7
392.116	1.55
392.322	1.45
392.528	1.53
392.734	1.42
392.94	1.44
393.146	1.35
393.352	1.37
393.557	1.26
393.763	1.26
393.969	1.23
394.175	1.09
394.381	1.16
394.587	1.05
394.792	1.05
394.998	1.06
395.204	1.11
395.41	0.91
395.615	0.97
395.821	0.97
396.027	0.95
396.233	0.84
396.438	0.86
396.644	0.82
396.85	0.81
397.055	0.74
397.261	0.77
397.466	0.66
397.672	0.68
397.878	0.69
398.083	0.63
398.289	0.62
398.494	0.64
398.7	0.57
398.905	0.46
399.111	0.61
399.316	0.44
399.522	0.5
399.727	0.47
399.932	0.45
400.138	0.44
400.343	0.44
400.549	0.42
400.754	0.42
400.959	0.42
401.165	0.39
401.37	0.38
401.575	0.34
401.78	0.37
401.986	0.35
402.191	0.36
402.396	0.32
402.601	0.32
402.807	0.39
403.012	0.32
403.217	0.36
403.422	0.32
403.627	0.29
403.832	0.29
404.037	0.3
404.243	0.3
404.448	0.23
404.653	0.25
404.858	0.29
405.063	0.26
405.268	0.22
405.473	0.22
405.678	0.23
405.883	0.39
406.088	0.26
406.293	0.21
406.498	0.22
406.703	0.29
406.907	0.27
407.112	0.14
407.317	0.23
407.522	0.28
407.727	0.13
407.932	0.24
408.136	0.32
408.341	0.2
408.546	0.21
408.751	0.19
408.956	0.16
409.16	0.22
409.365	0.18
409.57	0.17
409.774	0.18
409.979	0.21
410.184	0.14
410.388	0.09
410.593	0.18
410.798	0.17
411.002	0.16
411.207	0.17
411.411	0.17
411.616	0.08
411.82	0.14
412.025	0.15
412.229	0.1
412.434	0.2
412.638	0.12
412.843	0.08
413.047	0.12
413.252	0.05
413.456	0.09
413.66	0.16
413.865	0.1
414.069	0.19
414.273	0.06
414.478	0.11
414.682	0.11
414.886	0.1
415.091	0.06
415.295	0.01
415.499	0.12
415.703	0.11
415.908	0.14
416.112	-0.01
416.316	0.11
416.52	0.09
416.724	0.04
416.929	0
417.133	0.21
417.337	0.09
417.541	0.05
417.745	0.1
417.949	0.08
418.153	0.13
418.357	0.08
418.561	0.14
418.765	0.07
418.969	0.16
419.173	0.11
419.377	0.08
419.581	0.19
419.785	0.07
419.989	0.05
420.193	0.04
420.397	0.06
420.601	0.12
420.804	0.12
421.008	0.11
421.212	0.1
421.416	0.12
421.62	0.08
421.823	0.05
422.027	0.15
422.231	0.05
422.435	0
422.638	0.06
422.842	0.12
423.046	0.08
423.249	0.12
423.453	0.09
423.657	0.06
423.86	0.12
424.064	0.05
424.268	0.13
424.471	0.07
424.675	0.15
424.878	0.14
425.082	0.09
425.285	0.09
425.489	0.07
425.692	0.05
425.896	0.02
426.099	0.1
426.303	-0.02
426.506	-0.01
426.71	0.07
426.913	0.1
427.116	0.08
427.32	0.08
427.523	0.1
427.726	0.13
427.93	0.04
428.133	0.06
428.336	0.02
428.54	0.01
428.743	0.09
428.946	0.18
429.149	0.05
429.353	0.11
429.556	0.11
429.759	0.1
429.962	0.09
430.165	0.06
430.368	0.06
430.571	0.02
430.775	0.05
430.978	0.04
431.181	0.15
431.384	0.09
431.587	0.06
431.79	0.07
431.993	0.06
432.196	0.09
432.399	0.05
432.602	0.15
432.805	0.08
433.008	0.09
433.211	0.01
433.414	0.14
433.616	0.1
433.819	0.09
434.022	-0.01
434.225	0.12
434.428	0.11
434.631	0.16
434.833	0.1
435.036	0.08
435.239	0.11
435.442	0.08
435.645	0.11
435.847	0.15
436.05	0.16
436.253	0.11
436.455	-0
436.658	0.05
436.861	0.13
437.063	0.04
437.266	0.09
437.468	0.07
437.671	0.2
437.874	0.07
438.076	0.02
438.279	0.04
438.481	0.08
438.684	0.06
438.886	0.09
439.089	-0.04
439.291	0.07
439.494	0.13
439.696	0.03
439.899	0.08
440.101	0.12
440.303	0.02
440.506	0.15
440.708	0.09
440.91	0.09
441.113	0.06
441.315	0.17
441.517	0.02
441.72	0.11
441.922	0.07
442.124	0.07
442.326	0.1
442.529	0.14
442.731	0
442.933	0.18
443.135	0.11
443.337	0.04
443.539	0.08
443.742	0.12
443.944	0.12
444.146	0.09
444.348	0.12
444.55	0.12
444.752	0.12
444.954	0.04
445.156	0.11
445.358	0.04
445.56	0.1
445.762	0.04
445.964	0.12
446.166	0.08
446.368	0.02
446.57	0.17
446.772	0.12
446.974	0.05
447.175	0.08
447.377	0.1
447.579	0.09
447.781	0.06
447.983	0.21
448.184	0.12
448.386	0.13
448.588	0.04
448.79	0.12
448.991	0.1
449.193	0.11
449.395	0.09
449.597	0.17
449.798	0.12
450	0.1
450.202	0.11
450.403	0.09
450.605	0.16
450.806	0.1
451.008	0.04
451.21	0.08
451.411	0.09
451.613	0.1
451.814	0.14
452.016	0.11
452.217	0.09
452.419	0.16
452.62	0.11
452.821	0.11
453.023	0.16
453.224	0.11
453.426	0.09
453.627	0.13
453.828	0.19
454.03	0.12
454.231	0.15
454.432	0.04
454.634	0.19
454.835	0.09
455.036	0.04
455.238	0.15
455.439	0.17
455.64	0.02
455.841	0.06
456.042	0.15
456.244	0.06
456.445	0
456.646	-0
456.847	0.05
457.048	0.11
457.249	0.11
457.45	0.22
457.651	0.04
457.852	0.11
458.054	0.06
458.255	0.05
458.456	0.1
458.657	0.09
458.858	0.07
459.058	0.09
459.259	0.12
459.46	0.03
459.661	0.02
459.862	0.16
460.063	-0
460.264	0.15
460.465	0.01
460.666	0.14
460.866	0.07
461.067	0.05
461.268	0.07
461.469	0.05
461.67	0.09
461.87	0.07
462.071	0.05
462.272	0.07
462.473	0.01
462.673	0.08
462.874	-0.02
463.075	0.13
463.275	0.04
463.476	0.07
463.676	0.06
463.877	0.07
464.078	0.05
464.278	0.11
464.479	0.09
464.679	0.08
464.88	0.07
465.08	0.12
465.281	0.04
465.481	0.01
465.682	0.07
465.882	0.11
466.083	0.07
466.283	0.07
466.483	0.04
466.684	-0.02
466.884	0.02
467.085	0.03
467.285	0.11
467.485	0.01
467.686	-0.01
467.886	0
468.086	0.03
468.286	0.07
468.487	0.04
468.687	0.02
468.887	0.07
469.087	0.05
469.287	0.05
469.488	-0
469.688	0.05
469.888	0.07
470.088	0.08
470.288	0.09
470.488	0.09
470.688	0
470.888	0.03
471.088	0.01
471.288	0.08
471.488	0.08
471.688	0.08
471.888	0.03
472.088	0.09
472.288	0.09
472.488	-0
472.688	0.04
472.888	0.05
473.088	0.04
473.288	0.06
473.488	0.02
473.688	0.1
473.887	0.05
474.087	0.01
474.287	0.06
474.487	-0.01
474.687	0.06
474.886	0.01
475.086	0.02
475.286	0.06
475.486	0.03
475.685	0.01
475.885	0.04
476.085	0
476.284	0.07
476.484	0.03
476.684	0.06
476.883	0.08
477.083	0.02
477.282	0.01
477.482	0.05
477.681	0.1
477.881	0.04
478.08	0.01
478.28	-0.01
478.479	0.05
478.679	0.11
478.878	0
479.078	-0.01
479.277	0
479.477	0.03
479.676	0.07
479.875	0.03
480.075	-0.03
480.274	0.05
480.473	0.05
480.673	0.01
480.872	0.08
481.071	0.03
481.271	0.01
481.47	0.01
481.669	0.01
481.868	0
482.067	0.02
482.267	0.01
482.466	-0
482.665	-0
482.864	-0.01
483.063	-0
483.262	0.02
483.461	0.06
483.661	0.04
483.86	0
484.059	0.05
484.258	0.03
484.457	0.01
484.656	0
484.855	0.03
485.054	-0.03
485.253	-0.01
485.452	0
485.651	0.02
485.849	0.02
486.048	0
486.247	-0.01
486.446	0.04
486.645	0
486.844	-0.01
487.043	-0
487.241	0.03
487.44	0.01
487.639	0
487.838	0.02
488.037	-0.01
488.235	0.04
488.434	0.04
488.633	-0.01
488.831	0.02
489.03	0.05
489.229	0.04
489.427	0.02
489.626	0.05
489.825	0.08
490.023	0.03
490.222	-0.01
490.42	0.03
490.619	0.02
490.817	0.05
491.016	0.02
491.214	0.05
491.413	0.02
491.611	0.03
491.81	-0.01
492.008	0.04
492.207	0.03
492.405	0.04
492.604	-0.01
492.802	-0.01
493	0.01
493.199	-0
493.397	0.01
493.595	-0
493.794	-0.02
493.992	0.08
494.19	-0
494.388	0.04
494.587	0.01
494.785	0.03
494.983	-0
495.181	0.01
495.379	0.03
495.578	0.01
495.776	0.02
495.974	0.01
496.172	0.02
496.37	0.01
496.568	-0.02
496.766	-0.01
496.964	0.04
497.162	0.01
497.36	-0.01
497.558	0.02
497.756	0.03
497.954	0.02
498.152	0
498.35	0
498.548	-0.01
498.746	0.03
498.944	0.02
499.142	0.03
499.34	-0.01
499.538	-0
499.736	-0.01
499.933	0.05
500.131	0.02
500.329	0.02
500.527	0.05
500.725	0.05
500.922	0.05
501.12	0.03
501.318	0.03
501.516	-0
501.713	0.02
501.911	-0.01
502.109	0.01
502.306	0.02
502.504	0
502.701	-0.02
502.899	0.01
503.097	0.05
503.294	0.02
503.492	0.01
503.689	0.02
503.887	0.04
504.084	0.07
504.282	0.02
504.479	-0.01
504.677	0.03
504.874	-0.02
505.072	0.01
505.269	-0.01
505.466	0.05
505.664	0.03
505.861	-0.02
506.059	-0.01
506.256	0.04
506.453	0
506.651	0.03
506.848	0.06
507.045	0.01
507.242	0.01
507.44	0.01
507.637	0
507.834	-0.01
508.031	0.05
508.229	0
508.426	-0.01
508.623	0.03
508.82	0.01
509.017	-0.02
509.214	0.02
509.411	0.02
509.608	-0.02
509.805	-0
510.003	0.01
510.2	0.01
510.397	0.04
510.594	0.02
510.791	-0.01
510.988	-0.01
511.184	0.03
511.381	0.03
511.578	-0.01
511.775	0.05
511.972	0
512.169	0.02
512.366	0
512.563	0.03
512.76	-0.01
512.956	-0.01
513.153	0.01
513.35	0.03
513.547	0.01
513.744	-0.02
513.94	-0.01
514.137	0.03
514.334	0.01
514.53	0.01
514.727	0.02
514.924	0.05
515.12	-0.02
515.317	-0.01
515.514	-0.01
515.71	-0.02
515.907	-0.01
516.103	0.02
516.3	0.01
516.497	0.04
516.693	0.02
516.89	0
517.086	0
517.283	0.06
517.479	0.01
517.676	0
517.872	0.02
518.068	-0.02
518.265	-0.01
518.461	-0.01
518.658	-0.02
518.854	0.02
519.05	-0.01
519.247	-0.03
519.443	0.02
519.639	0.03
519.836	0.01
520.032	0
520.228	0.01
520.424	0.05
520.621	0.03
520.817	0.01
521.013	0.02
521.209	-0
521.405	0.04
521.601	0
521.798	0.01
521.994	0.04
522.19	0.01
522.386	-0.04
522.582	-0.01
522.778	0.01
522.974	0.01
523.17	0.01
523.366	0.03
523.562	0.04
523.758	0.02
523.954	-0.02
524.15	0
524.346	0.02
524.542	0.02
524.738	-0.01
524.934	0
525.129	-0.01
525.325	0.02
525.521	-0
525.717	0.02
525.913	0.01
526.109	0.01
526.304	0.01
526.5	0.03
526.696	0.03
526.892	-0.01
527.087	-0
527.283	0.01
527.479	0.02
527.674	-0.01
527.87	0.01
528.066	0.01
528.261	0.04
528.457	-0.01
528.653	0
528.848	-0.02
529.044	0.02
529.239	-0
529.435	0.02
529.63	0.02
529.826	0.04
530.021	0.02
530.217	0.02
530.412	0
530.608	0.02
530.803	0.01
530.999	0.01
531.194	-0.02
531.389	0.03
531.585	-0.03
531.78	-0.01
531.975	-0
532.171	0.01
532.366	0
532.561	0.01
532.757	-0.01
532.952	0
533.147	0.03
533.342	0
533.538	-0.01
533.733	0.05
533.928	0.02
534.123	-0
534.318	-0
534.513	0
534.709	0
534.904	-0.02
535.099	0
535.294	0
535.489	0.01
535.684	0.01
535.879	-0.02
536.074	0.01
536.269	-0.02
536.464	0
536.659	0.02
536.854	0.01
537.049	0.01
537.244	0
537.439	0.02
537.634	0.05
537.828	0.02
538.023	0.01
538.218	-0.03
538.413	0.01
538.608	-0.03
538.803	0.03
538.997	-0.02
539.192	0.01
539.387	0.04
539.582	0.05
539.776	0.02
539.971	0.02
540.166	-0.03
540.36	-0.04
540.555	0.02
540.75	0
540.944	0.02
541.139	-0.03
541.334	0.01
541.528	0.03
541.723	0.04
541.917	0.01
542.112	-0.02
542.306	-0.01
542.501	-0.01
542.695	0.02
542.89	-0.02
543.084	0.01
543.279	-0
543.473	-0
543.668	0.02
543.862	0
544.056	0.02
544.251	-0
544.445	0.01
544.64	0.01
544.834	-0.02
545.028	0.01
545.222	0.02
545.417	0.03
545.611	-0
545.805	0.01
546	0
546.194	-0
546.388	0
546.582	0.02
546.776	0.02
546.97	0.02
547.165	-0
547.359	0.03
547.553	0
547.747	0.01
547.941	0.01
548.135	0.02
548.329	0.01
548.523	0.03
548.717	0.01
548.911	-0
549.105	0.02
549.299	0.01
549.493	0.02
549.687	0.02
549.881	0.03
550.075	0
550.269	0.01
550.463	0.02
550.657	-0.01
550.85	-0.01
551.044	-0.01
551.238	0.04
551.432	-0.02
551.626	-0.03
551.82	0.03
552.013	-0
552.207	0.03
552.401	0.02
552.594	0.03
552.788	0.01
552.982	0
553.176	-0
553.369	0.03
553.563	0.05
553.756	-0.02
553.95	-0
554.144	0
554.337	0.02
554.531	0
554.724	0.01
554.918	-0
555.111	0.01
555.305	-0
555.498	0.08
555.692	0.03
555.885	0.01
556.079	0.02
556.272	-0.01
556.466	0.04
556.659	0.02
556.852	-0
557.046	0.03
557.239	0.04
557.432	-0.01
557.626	0
557.819	0.03
558.012	0.03
558.206	0.04
558.399	0.03
558.592	-0.01
558.785	-0
558.979	0.04
559.172	0.03
559.365	0.01
559.558	0.03
559.751	0.01
559.944	-0
560.138	0.01
560.331	0.01
560.524	0
560.717	-0
560.91	-0.01
561.103	0.02
561.296	0.01
561.489	0.01
561.682	0.02
561.875	0.04
562.068	0.03
562.261	0.01
562.454	0.03
562.647	0.01
562.84	0.01
563.032	-0.01
563.225	0.02
563.418	0.01
563.611	-0.01
563.804	0.01
563.997	-0
564.19	-0
564.382	0.01
564.575	0.02
564.768	0.03
564.961	0.02
565.153	0
565.346	0.02
565.539	0.05
565.731	0.04
565.924	0.02
566.117	0.02
566.309	0
566.502	-0.01
566.695	0
566.887	0.01
567.08	-0.01
567.272	0
567.465	-0.01
567.657	-0.01
567.85	0
568.042	0
568.235	0.03
568.427	0.01
568.62	0.01
568.812	0.01
569.005	0.01
569.197	-0.02
569.389	0.01
569.582	-0
569.774	0.01
569.966	-0.02
570.159	-0.04
570.351	0.03
570.543	-0
570.736	0.02
570.928	-0.03
571.12	0.02
571.312	-0.01
571.505	-0.04
571.697	0.05
571.889	-0.01
572.081	0.02
572.273	-0.04
572.465	0.03
572.658	0.01
572.85	0.04
573.042	-0
573.234	0
573.426	0.03
573.618	-0.02
573.81	0.01
574.002	0.04
574.194	0.05
574.386	-0.02
574.578	-0.03
574.77	-0.02
574.962	0.02
575.154	-0.01
575.346	0.01
575.538	0.03
575.729	-0.03
575.921	-0.01
576.113	0
576.305	0.02
576.497	0.01
576.689	0.01
576.88	-0.01
577.072	0.02
577.264	-0.01
577.456	0.02
577.647	-0.05
577.839	0.02
578.031	0.05
578.223	-0.03
578.414	-0.03
578.606	0.04
578.798	0.01
578.989	-0
579.181	0.02
579.372	0.02
579.564	-0.01
579.755	0.01
579.947	0.01
580.139	0.03
580.33	-0.04
580.522	-0.02
580.713	-0.05
580.905	0.01
581.096	0.03
581.287	0.02
581.479	-0
581.67	0.01
581.862	-0.01
582.053	-0.02
582.244	-0.04
582.436	0.01
582.627	-0.02
582.818	0
583.01	-0.02
583.201	0.04
583.392	0.03
583.583	-0.01
583.775	-0.01
583.966	-0
584.157	-0.01
584.348	0.01
584.54	-0.03
584.731	0.02
584.922	0.02
585.113	-0.02
585.304	0.02
585.495	0.04
585.686	0.03
585.877	-0
586.068	0.02
586.259	0.03
586.45	0.01
586.641	-0.01
586.832	-0.05
587.023	-0.01
587.214	0.01
587.405	0.01
587.596	-0.01
587.787	0.04
587.978	0.01
588.169	-0.01
588.36	-0.01
588.551	0.03
588.742	-0.02
588.932	-0
589.123	0.01
589.314	0.03
589.505	0.03
589.696	0.02
589.886	0.01
590.077	-0.04
590.268	-0
590.458	-0.01
590.649	-0.03
590.84	0.04
591.03	-0
591.221	-0.03
591.412	-0.04
591.602	0.03
591.793	0.03
591.984	-0.04
592.174	0
592.365	0.07
592.555	-0.01
592.746	0.02
592.936	0
593.127	0.02
593.317	0.04
593.508	-0.01
593.698	-0.01
593.889	0.02
594.079	-0.01
594.269	0.01
594.46	0.02
594.65	0.01
594.84	0.03
595.031	-0.02
595.221	-0.02
595.411	-0.03
595.602	0.01
595.792	0.01
595.982	0.01
596.172	0.05
596.363	0.02
596.553	-0
596.743	-0
596.933	0.01
597.123	0.03
597.314	-0.01
597.504	-0.03
597.694	0.03
597.884	-0
598.074	0.02
598.264	-0.03
598.454	0.02
598.644	0.01
598.834	-0.01
599.024	-0.06
599.214	-0
599.404	0.03
599.594	0.01
599.784	-0
599.974	0.05
600.164	0.03
600.354	-0.06
600.544	-0.03
600.734	0.02
600.924	0.04
601.114	0
601.303	0.02
601.493	0.02
601.683	-0
601.873	0.01
602.063	-0.05
602.252	0.03
602.442	-0.09
602.632	-0.01
602.821	-0.02
603.011	0.02
603.201	0
603.39	-0.01
603.58	0.01
603.77	0.01
603.959	0.04
604.149	0.01
604.339	0
604.528	0.04
604.718	0.03
604.907	-0.01
605.097	-0.01
605.286	-0.02
605.476	0.01
605.665	0.04
605.855	-0.01
606.044	0.05
606.234	0.03
606.423	-0
606.612	-0.02
606.802	0.01
606.991	0.04
607.181	0.03
607.37	-0.03
607.559	-0.01
607.749	-0.03
607.938	0.02
608.127	-0.02
608.316	-0.01
608.506	-0.01
608.695	0
608.884	0
609.073	0
609.263	0.02
609.452	0.05
609.641	0.05
609.83	-0.01
610.019	0
610.208	0
610.397	0.02
610.586	0
610.775	-0.01
610.965	-0.01
611.154	-0.02
611.343	0
611.532	-0.03
611.721	-0.02
611.91	-0.01
612.099	0.03
612.287	0.01
612.476	-0.06
612.665	0.02
612.854	-0.02
613.043	0.03
613.232	0.01
613.421	-0.01
613.61	0
613.798	-0.03
613.987	0.04
614.176	-0.01
614.365	0.05
614.554	0.01
614.742	0.03
614.931	-0.04
615.12	0.03
615.309	-0.02
615.497	0
615.686	-0.01
615.875	-0.01
616.063	0.01
616.252	0.02
616.44	-0
616.629	-0.02
616.818	0.03
617.006	0.02
617.195	0
617.383	0.04
617.572	0
617.76	-0.04
617.949	-0.01
618.137	0.01
618.326	0.02
618.514	-0.03
618.703	0.01
618.891	0.06
619.079	-0.01
619.268	0.01
619.456	-0.02
619.644	0.05
619.833	0.01
620.021	0.02
620.209	-0.04
620.398	-0.01
620.586	0.03
620.774	0.04
620.962	0.02
621.151	0.06
621.339	0.01
621.527	-0.05
621.715	-0.03
621.903	-0.01
622.092	-0.04
622.28	0.03
622.468	0
622.656	0
622.844	-0
623.032	-0.01
623.22	-0.08
623.408	0.07
623.596	0.02
623.784	0.03
623.972	-0.01
624.16	0.01
624.348	0.04
624.536	0
624.724	-0.02
624.912	0.05
625.1	0.06
625.288	-0.02
625.476	-0.01
625.664	0.02
625.851	-0.02
626.039	-0.01
626.227	0.01
626.415	0
626.603	-0.05
626.79	0.01
626.978	-0.02
627.166	0.03
627.354	-0.01
627.541	0.02
627.729	-0.06
627.917	0
628.104	0.06
628.292	0.04
628.48	0.01
628.667	-0.01
628.855	0.01
629.042	0.02
629.23	-0
629.418	0.03
629.605	0.01
629.793	0.02
629.98	-0
630.168	0.01
630.355	-0
630.543	0.04
630.73	-0.01
630.917	0.04
631.105	0.09
631.292	0
631.48	0.02
631.667	0.07
631.854	0.01
632.042	0
632.229	-0
632.416	-0
632.604	-0.02
632.791	-0.01
632.978	0.06
633.165	0.05
633.353	0.07
633.54	0.03
633.727	-0.04
633.914	0
634.101	-0.02
634.289	0.05
634.476	0.02
634.663	-0.03
634.85	0.02
635.037	-0.04
635.224	-0.02
635.411	0.03
635.598	0.06
635.785	0.02
635.972	0
636.159	0.07
636.346	-0.01
636.533	0.05
636.72	0.01
636.907	0.02
637.094	0.04
637.281	0.01
637.468	0.02
637.655	0.01
637.842	0.03
638.029	0
638.215	0.09
638.402	0.03
638.589	0.02
638.776	0.01
638.963	-0.02
639.149	0.07
639.336	0.1
639.523	0.02
639.709	0.02
639.896	0.02
640.083	0.05
640.27	0.05
640.456	0
640.643	0.06
640.829	-0.01
641.016	-0.01
641.203	0
641.389	0.04
641.576	0.06
641.762	0.02
641.949	-0.06
642.135	0.04
642.322	0.06
642.508	-0.02
642.695	0.04
642.881	0.03
643.068	0.03
643.254	0.05
643.441	0.08
643.627	0.04
643.813	-0
644	0.09
644.186	-0.01
644.372	0.04
644.559	0.07
644.745	0.04
644.931	0.02
645.118	0.04
645.304	0.05
645.49	-0.01
645.676	0.03
645.862	0.01
646.049	0.08
646.235	0.05
646.421	0.1
646.607	0.09
646.793	0.02
646.979	0.02
647.165	0.05
647.352	0.06
647.538	0.1
647.724	0.05
647.91	0.07
648.096	0.08
648.282	0.1
648.468	0.08
648.654	0.05
648.84	0.06
649.026	0.05
649.212	0.06
649.397	0.03
649.583	0.02
649.769	0.1
649.955	0.08
650.141	0.09
650.327	0.12
650.513	0.05
650.698	0.06
650.884	-0
651.07	0.1
651.256	0.08
651.442	0.09
651.627	0.09
651.813	0.09
651.999	0.06
652.184	0.1
652.37	0.04
652.556	0.07
652.741	0.11
652.927	0.02
653.113	0.06
653.298	0.11
653.484	0.09
653.669	0.06
653.855	0.1
654.04	0.09
654.226	0.12
654.412	0.08
654.597	0.02
654.782	0.11
654.968	0.15
655.153	0.12
655.339	0.09
655.524	0.06
655.71	0.12
655.895	0.07
656.08	0.09
656.266	0.14
656.451	0.14
656.636	0.09
656.822	0.13
657.007	0.08
657.192	0.07
657.378	0.06
657.563	0.09
657.748	0.13
657.933	0.11
658.118	0.07
658.304	0.09
658.489	0.13
658.674	0.14
658.859	0.13
659.044	0.14
659.229	0.14
659.414	0.11
659.599	0.12
659.785	0.06
659.97	0.13
660.155	0.14
660.34	0.11
660.525	0.1
660.71	0.11
660.895	0.13
661.08	0.1
661.264	0.05
661.449	0.13
661.634	0.13
661.819	0.1
662.004	0.12
662.189	0.02
662.374	0.06
662.559	0.02
662.743	0.05
662.928	0.07
663.113	0.03
663.298	0.01
663.483	0.08
663.667	0.09
663.852	0.03
664.037	0.11
664.221	0.02
664.406	0.11
664.591	0.1
664.775	0.07
664.96	0.02
665.145	0.06
665.329	0.04
665.514	0.03
665.698	0.04
665.883	-0.01
666.068	0.13
666.252	0.04
666.437	0.01
666.621	0.04
666.806	0.04
666.99	-0
667.174	0.01
667.359	0.07
667.543	0.01
667.728	0.03
667.912	-0.05
668.096	0.04
668.281	0
668.465	0.02
668.649	0.03
668.834	-0.04
669.018	0.03
669.202	-0
669.387	-0
669.571	0.05
669.755	-0.02
669.939	0.01
670.124	-0.01
670.308	0.07
670.492	0.09
670.676	0.04
670.86	0.03
671.044	0.01
671.228	0.05
671.413	-0.04
671.597	-0
671.781	-0
671.965	0
672.149	0.03
672.333	-0
672.517	-0.02
672.701	0.04
672.885	0.01
673.069	-0.04
673.253	0.04
673.437	-0.04
673.621	-0.03
673.804	-0
673.988	0.03
674.172	-0.01
674.356	-0.05
674.54	-0
674.724	0.09
674.908	-0.01
675.091	0.07
675.275	-0.01
675.459	0.02
675.643	0.04
675.826	0.04
676.01	0.02
676.194	-0.06
676.377	0.06
676.561	0.03
676.745	0.02
676.928	0.01
677.112	0.08
677.296	0.02
677.479	0.01
677.663	-0
677.846	0.01
678.03	-0.02
678.213	0.01
678.397	0.03
678.58	-0
678.764	-0.02
678.947	-0.03
679.131	-0.05
679.314	0.05
679.498	-0.02
679.681	0.03
679.865	0.06
680.048	0.02
680.231	0.05
680.415	0.01
680.598	-0.02
680.781	-0.03
680.965	-0.02
681.148	0.06
681.331	0.02
681.514	0.06
681.698	-0.04
681.881	0.06
682.064	0.01
682.247	-0.01
682.43	-0.07
682.614	0.06
682.797	0.08
682.98	0.04
683.163	-0.03
683.346	0.01
683.529	-0.03
683.712	-0.02
683.895	0.02
684.078	-0.08
684.261	-0.02
684.444	0.01
684.627	0.04
684.81	-0.03
684.993	-0.01
685.176	0.03
685.359	-0.02
685.542	0.03
685.725	0.04
685.908	-0.03
686.091	-0.02
686.274	0.01
686.457	0.01
686.639	-0.01
686.822	0.01
687.005	0.01
687.188	0.03
687.371	0.08
687.553	0.04
687.736	0.06
687.919	0.06
688.102	0.05
688.284	-0.03
688.467	0.02
688.65	-0.04
688.832	-0.01
689.015	0.03
689.197	-0.07
689.38	0.13
689.563	0.06
689.745	-0.02
689.928	0.01
690.11	-0.01
690.293	0.06
690.475	-0.06
690.658	-0.02
690.84	-0.02
691.023	-0.03
691.205	-0.02
691.388	-0
691.57	-0
691.752	0.05
691.935	-0.08
692.117	-0.02
692.3	0.05
692.482	-0.01
692.664	0.02
692.847	-0.02
693.029	0.05
693.211	0.05
693.393	-0.01
693.576	-0.02
693.758	-0.02
693.94	-0.05
694.122	-0.01
694.304	-0.02
694.487	0.01
694.669	0.01
694.851	-0.08
695.033	-0.01
695.215	-0.04
695.397	-0.04
695.579	-0.01
695.761	-0.03
695.943	-0.02
696.125	0.11
696.308	-0
696.49	-0.09
696.671	0.09
696.853	-0.02
697.035	0.13
697.217	-0.03
697.399	-0
697.581	-0.09
697.763	0.03
697.945	-0.06
698.127	-0.01
698.309	-0.11
698.491	0
698.672	0.03
698.854	0.04
699.036	0.08
699.218	-0.04
699.399	0.04
699.581	-0.02
699.763	0.02
699.945	-0.08
700.126	-0.06
700.308	0.04
700.49	-0
700.671	-0.1
700.853	-0.03
701.035	-0.02
701.216	-0.01
701.398	-0.06
701.579	0.05
701.761	0.03
701.943	-0.05
702.124	-0.04
702.306	0.04
702.487	0.1
702.669	0.03
702.85	0.02
703.031	-0.04
703.213	0.07
703.394	0.02
703.576	0.01
703.757	0.09
703.938	0.09
704.12	0.11
704.301	-0
704.483	-0.07
704.664	-0
704.845	0.11
705.026	0.06
705.208	-0.01
705.389	-0.03
705.57	0.03
705.751	0.04
705.933	0.02
706.114	0.05
706.295	0.04
706.476	-0.05
706.657	0.11
706.838	0.03
707.02	0.08
707.201	0.02
707.382	-0.04
707.563	0.05
707.744	0.01
707.925	-0.04
708.106	-0.06
708.287	0
708.468	0.1
708.649	0
708.83	0.1
709.011	-0.04
709.192	0.11
709.373	-0.02
709.554	0.03
709.734	0.04
709.915	0.08
710.096	0.01
710.277	-0.08
710.458	-0.01
710.639	0.08
710.819	-0.07
711	-0
711.181	0.12
711.362	0.06
711.542	0.01
711.723	-0.02
711.904	0.06
712.085	-0.02
712.265	0.1
712.446	-0.06
712.627	-0.01
712.807	0.02
712.988	0.02
713.168	-0.09
713.349	0.08
713.53	-0.14
713.71	-0.06
713.891	-0.04
714.071	0.04
714.252	0.04
714.432	-0.05
714.613	-0.04
714.793	0.02
714.974	0.16
715.154	0.08
715.334	0.06
715.515	0.16
715.695	-0.02
715.876	0.01
716.056	0.03
716.236	0
716.417	0.04
716.597	-0.03
716.777	0.15
716.957	-0
717.138	0.06
717.318	0.08
717.498	-0.02
717.678	0.03
717.859	0.08
718.039	-0.01
718.219	0.05
718.399	0.09
718.579	-0.03
718.759	0.01
718.939	0.05
719.12	0.04
719.3	0.07
719.48	-0.08
719.66	-0.07
719.84	0.12
720.02	0
720.2	-0.01
720.38	-0.02
720.56	0.16
720.74	0.01
720.92	0.05
721.1	0.2
721.279	0.03
721.459	0.05
721.639	-0.04
721.819	0.02
721.999	0.02
722.179	0.11
722.359	-0.09
722.538	0.09
722.718	0.07
722.898	0.06
723.078	-0
723.257	-0.03
723.437	0.06
723.617	0.08
723.797	0.03
723.976	0.09
724.156	0.12
724.336	0.08
724.515	0.15
724.695	-0.07
724.874	0.08
725.054	0.14
725.234	-0.03
725.413	0.05
725.593	0.07
725.772	0.13
725.952	0.12
726.131	0.11
726.311	0.04
726.49	0.03
726.67	-0
726.849	-0.02
727.028	0.13
727.208	0.08
727.387	0.08
727.567	-0.06
727.746	-0.07
727.925	0.01
728.105	0.03
728.284	-0.02
728.463	0
728.643	0.13
728.822	0.01
729.001	0.08
729.18	0.12
729.359	0.11
729.539	0.1
729.718	0.05
729.897	0.09
730.076	0.13
730.255	-0.01
730.434	0.1
730.614	0.11
730.793	0.16
730.972	0.07
731.151	0.1
731.33	0.15
731.509	0.11
731.688	0.23
731.867	0.06
732.046	-0.07
732.225	0.26
732.404	-0.02
732.583	0.07
732.762	0.11
732.941	0.18
733.12	0.1
733.298	0.05
733.477	0.12
733.656	0.01
733.835	0.03
734.014	0.19
734.193	0.1
734.371	0.09
734.55	0.17
734.729	0.05
734.908	0.16
735.086	0.11
735.265	0.18
735.444	-0.11
735.623	-0.05
735.801	-0.02
735.98	0
736.159	0.14
736.337	0.22
736.516	0.16
736.694	0.09
736.873	0.07
737.052	0.19
737.23	0.19
737.409	0.04
737.587	0.24
737.766	-0.09
737.944	0.06
738.123	0.2
738.301	0.18
738.479	0.18
738.658	0.26
738.836	-0.05
739.015	0.21
739.193	0.29
739.371	0.03
739.55	0.06
739.728	-0.02
739.906	0.16
740.085	0.25
740.263	0.11
740.441	-0.06
740.62	0.21
740.798	0.23
740.976	0.03
741.154	-0.13
741.332	0.23
741.511	0.08
741.689	0.06
741.867	0.11
742.045	0.03
742.223	0.03
742.401	-0.03
742.579	0.04
742.757	0.18
742.935	-0.05
743.114	0.03
743.292	0.06
743.47	0.03
743.648	0.01
743.826	-0.09
744.004	0.07
744.181	0.12
744.359	-0.02
744.537	-0.03
744.715	-0.02
744.893	0.02
745.071	0.06
745.249	0.04
745.427	0.03
745.605	0.1
745.782	0.12
745.96	0.13
746.138	0.05
746.316	0.12
746.493	0.03
746.671	-0.04
746.849	0.07
747.027	0.21
747.204	0.01
747.382	0.1
747.56	-0.08
747.737	-0.08
747.915	-0.08
748.093	0.05
748.27	-0.07
748.448	-0
748.625	-0.08
748.803	-0.01
748.98	-0.06
749.158	-0.01
749.335	0.02
749.513	-0.01
749.69	-0
749.868	0.1
750.045	0.06
750.223	-0.04
750.4	-0.1
750.578	0.16
750.755	0.05
750.932	-0.14
751.11	0.13
751.287	-0.12
751.464	0.06
751.642	-0.09
751.819	-0.01
751.996	0.16
752.173	-0.04
752.351	-0.16
752.528	0.11
752.705	0.02
752.882	-0.05
753.06	0.08
753.237	0.16
753.414	0.21
753.591	0
753.768	0.05
753.945	-0.05
754.122	-0.14
754.299	0.06
754.476	-0.01
754.654	-0.01
754.831	0.07
755.008	-0.06
755.185	-0.04
755.362	-0.06
755.539	0.08
755.716	-0.1
755.892	0.02
756.069	-0.02
756.246	-0.07
756.423	0.04
756.6	0.01
756.777	0.04
756.954	0.21
757.131	0.04
757.307	0.03
757.484	-0.08
757.661	-0.03
757.838	0.05
758.015	-0.17
758.191	0.1
758.368	0.07
758.545	0.08
758.721	0.09
758.898	-0.03
759.075	0.03
759.251	0.08
759.428	0.1
759.605	-0.11
759.781	-0.06
759.958	0.08
760.134	0.06
760.311	-0.03
760.488	0.08
760.664	0.11
760.841	-0.08
761.017	0.04
761.194	0.08
761.37	0.19
761.547	0.05
761.723	0.04
761.899	0.15
762.076	-0.1
762.252	-0.09
762.429	-0.02
762.605	0.01
762.781	-0.02
762.958	0.1
763.134	0
763.31	-0.09
763.486	0.16
763.663	-0.17
763.839	-0.02
764.015	-0.07
764.191	-0.01
764.368	0.02
764.544	-0.06
764.72	0.12
764.896	0.11
765.072	-0.01
765.248	-0.03
765.425	-0.05
765.601	-0.05
765.777	-0.03
765.953	-0.19
766.129	0.02
766.305	-0.1
766.481	0.09
766.657	0.08
766.833	0.22
767.009	-0.01
767.185	-0.01
767.361	-0.12
767.537	-0.05
767.713	0.25
767.889	0.06
768.065	0.04
768.24	-0.09
768.416	0.06
768.592	-0
768.768	0.2
768.944	-0
769.12	-0.11
769.295	-0.07
769.471	0.01
769.647	0.03
769.823	0.1
769.998	0.01
770.174	-0.06
770.35	0.21
770.525	0.41
770.701	0.12
770.877	-0.01
771.052	-0.03
771.228	0.08
771.403	0.08
771.579	0.08
771.755	0.21
771.93	-0.17
772.106	-0.15
772.281	-0.3
772.457	-0.01
772.632	0.1
772.808	-0.25
772.983	-0.06
773.159	-0.21
773.334	0.21
773.509	0.05
773.685	-0.12
773.86	0.26
774.036	0.18
774.211	0.05
774.386	-0.08
774.562	0.02
774.737	-0.15
774.912	-0.05
775.087	0.15
775.263	-0.02
775.438	0.04
775.613	-0.07
775.788	-0.05
775.964	0.22
776.139	0.32
776.314	-0.06
776.489	0
776.664	0.21
776.839	-0.07
777.014	0.12
777.19	0.09
777.365	0.34
777.54	0.15
777.715	0.07
777.89	0.08
778.065	-0.15
778.24	0.07
778.415	0.13
778.59	-0.15
778.765	-0.01
778.94	0.04
779.115	0.03
779.289	-0.09
779.464	0.06
779.639	0.02
779.814	-0.24
779.989	-0.07
780.164	0.22
780.339	0.01
780.513	-0.08
780.688	-0.12
780.863	0.05
781.038	0.22
781.212	-0.19
781.387	-0.07
781.562	0.18
781.737	-0
781.911	0.12
782.086	-0.04
782.261	-0.03
782.435	0.33
782.61	0.01
782.784	-0.06
782.959	0.27
783.134	-0.02
783.308	-0.25
783.483	0.03
783.657	0.15
783.832	0.19
784.006	-0.28
784.181	0.04
784.355	0.16
784.53	-0.07
784.704	-0.26
784.878	0.27
785.053	0.15
785.227	0.12
785.402	0.17
785.576	-0.26
785.75	-0.14
785.925	-0.07
786.099	-0.2
786.273	0.07
786.448	0.17
786.622	0.26
786.796	0.03
786.97	-0.11
787.145	0.36
787.319	-0.09
787.493	-0.24
787.667	-0.42
787.841	-0.02
788.015	0.12
788.19	-0.07
788.364	0.04
788.538	0.21
788.712	0.23
788.886	-0.01
789.06	0.22
789.234	0.11
789.408	-0.14
789.582	-0.22
789.756	-0.11
789.93	-0.15
790.104	-0.05
790.278	-0.03
790.452	-0.16
790.626	0.18
790.8	0.05
790.973	-0.09
791.147	0.46
791.321	0.24
791.495	0.13
791.669	0.07
791.843	-0.02
792.016	-0.02
792.19	0.26
792.364	-0.25
792.538	0.45
792.711	0.16
792.885	-0.05
793.059	-0.14
793.233	-0.48
793.406	0.04
793.58	-0.08
793.754	0.27
793.927	-0.04
794.101	0.29
794.274	0.11
794.448	0.18
794.622	-0.1
794.795	0.29
794.969	-0.12
795.142	0.35
795.316	-0.24
795.489	0.03
795.663	0.22
795.836	0
796.009	-0.04
796.183	0.31
796.356	0.18
796.53	0.06
796.703	0.11
796.876	0.44
797.05	0.08
797.223	-0.04
797.396	-0.12
797.57	0.08
797.743	0.3
797.916	0.26
798.09	-0.07
798.263	0.07
798.436	-0.09
798.609	-0.04
798.782	-0.02
798.956	-0.01
799.129	0.17
799.302	-0.15
799.475	-0.16
799.648	-0.08
799.821	-0.04
799.994	0.23
800.167	-0.5
800.34	-0.06
800.514	-0.05
800.687	-0.17
800.86	-0.18
801.033	0.11
801.206	0.12
801.379	-0.32
801.551	0.2
801.724	0.43
801.897	0.17
802.07	-0
802.243	-0.43
802.416	0.17
802.589	-0.26
802.762	-0.04
802.935	0.24
803.107	0.27
803.28	0.47
803.453	0.04
803.626	-0.3
803.798	-0.04
803.971	-0.07
804.144	0.27
804.317	0.22
804.489	0.31
804.662	-0.07
804.835	0.2
805.007	-0.27
805.18	0.46
805.353	0.07
805.525	-0.35
805.698	0.12
805.87	-0.05
806.043	0.16
806.215	-0.11
806.388	-0.12
806.56	0.23
806.733	0.53
806.905	0.13
807.078	-0.01
807.25	-0.2
807.423	-0.12
807.595	-0.03
807.768	0.22
807.94	0.55
808.112	0.02
808.285	-0.13
808.457	0.27
808.629	0.16
808.802	-0
808.974	0.25
809.146	-0.15
809.318	-0.41
809.491	0.14
809.663	0.22
809.835	-0.26
810.007	0.46
810.18	-0.05
810.352	-0.28
810.524	-0.39
810.696	-0.01
810.868	0.61
811.04	0.08
811.212	-0.45
811.384	0.34
811.556	0.2
811.728	0.32
811.901	1.02
812.073	-0.11
812.245	0.03
812.417	-0.03
812.589	-0.62
812.76	0.15
812.932	0.38
813.104	0.33
813.276	0.33
813.448	0.45
813.62	-0.12
813.792	0.07
813.964	-0.17
814.136	0.14
814.307	-0.2
814.479	-0.32
814.651	0.25
814.823	0.73
814.995	0.16
815.166	0.03
815.338	-0.52
815.51	-0.33
815.681	0.89
815.853	0.22
816.025	0.01
816.196	0.33
816.368	0.32
816.54	-0.2
816.711	-0.2
816.883	0.31
817.054	1.41
817.226	-0.84
817.398	0.36
817.569	-0.38
817.741	0.28
817.912	-0.04
818.084	-0.05
818.255	0.22
818.426	-0.26
818.598	-0.05
818.769	-0.33
818.941	0.24
819.112	0.28
819.283	0.09
819.455	-0.06
819.626	0
819.798	-0.16
819.969	-0.06
820.14	0.36
820.311	-0.29
820.483	0.11
820.654	0.51
820.825	-0.07
820.996	0.16
821.168	-0.37
821.339	-0.29
821.51	-0.22
821.681	-0.32
821.852	0.15
822.023	-0.25
822.195	-0.34
822.366	-0.23
822.537	0.3
822.708	-0.02
822.879	-0.11
823.05	1.03
823.221	0.04
823.392	-0.36
823.563	0.24
823.734	0.17
823.905	-0.02
824.076	0.12
824.247	-0.08
824.418	-0.78
824.589	0.87
824.759	0.4
824.93	-0.06
825.101	-0.05
825.272	0.16
825.443	0.61
825.614	0.78
825.784	-0.83
825.955	1.14
826.126	0.89
826.297	0.18
826.467	1.07
826.638	0.88
826.809	-0.57
826.98	-0.37
827.15	0.52
827.321	-0.34
827.492	0.58
827.662	0.07
827.833	1.04
828.003	1.04
828.174	-0.79
828.345	-0.6
828.515	0.93
828.686	0.58
828.856	-0.35
829.027	0.23
829.197	0.11
829.368	0.4
829.538	-0.28
829.709	-0.47
829.879	-0.01
830.049	0.09
830.22	0.42
830.39	-0.22
830.56	0.66
830.731	0.13
830.901	-0.2
831.072	0.13
831.242	-0.28
831.412	0.25
831.582	-0.42
831.753	-0.25
831.923	0.82
832.093	0.33
832.263	0.03
832.434	-0.14
832.604	-0.14
832.774	0.32
832.944	0.26
833.114	-0.45
833.284	0.35
833.454	-0.64
833.624	-0.2
833.795	-0.85
833.965	0.26
834.135	0.29
834.305	-0.68
834.475	-0.4
834.645	-0
834.815	0.33
834.985	-0.57
835.155	-0.11
835.325	0.43
835.494	0.85
835.664	-0.22
835.834	-0.72
836.004	0.03
836.174	0.53
836.344	0.1
836.514	-0.59
836.684	0.08
836.853	0.35
837.023	0.13
837.193	-0.52
837.363	0.76
837.532	0.66
837.702	-0.41
837.872	-0.99
838.041	0.97
838.211	0.87
838.381	-0.98
838.55	0.08
838.72	1.67
838.89	1.06
839.059	0.37
839.229	-0.72
839.398	1.68
839.568	0.26
839.738	0.31
839.907	1.01
840.077	0.3
840.246	0.47
840.416	-0.52
840.585	-0.68
840.755	1.2
840.924	1.02
841.093	-0.38
841.263	-0.25
841.432	0.24
841.602	-0.69
841.771	0.06
841.94	0.68
842.11	1.5
842.279	0.96
842.448	-0.63
842.617	-0.75
842.787	1.07
842.956	-1.16
843.125	0.1
843.294	0.18
843.464	1.09
843.633	-0.02
843.802	-0.93
843.971	-0.81
844.14	1.1
844.309	1.23
844.479	-0.08
844.648	0.13
844.817	0.45
844.986	0.61
845.155	-0.13
845.324	-0.88
845.493	0.16
845.662	-0.49
845.831	0.45
846	0.16
846.169	-0.06
846.338	1.75
846.507	0.06
846.676	0.71
846.844	-0.17
847.013	0.51
847.182	-1.15
847.351	-1.25
847.52	-0.32
847.689	0.4
847.858	-0.03
848.026	-0.37
848.195	-0.22
848.364	-0.01
848.533	-0.27
848.701	-1.16
848.87	-0.63
849.039	1.64
849.207	0.47
849.376	0.89
849.545	1.25
849.713	-0.7
849.882	-0.34
850.051	0.38
850.219	0.46
850.388	-0.31
850.556	-0.6
850.725	-0.98
850.893	-0.25
851.062	-0.03
851.23	1.05
851.399	-0.62
851.567	0.31
851.736	-0.75
851.904	-0.51
852.073	-0.18
852.241	1.12
852.41	0.38
852.578	0.14
852.746	0.07
852.915	0.51
853.083	0.87
853.251	-0.37
853.42	0.09
853.588	-0.38
853.756	1.31
853.924	-0.57
854.093	-0.35
854.261	-0.33
854.429	-0.83
854.597	0.48
854.765	-1.59
854.934	1.39
855.102	0.8
855.27	0.21
855.438	0.95
855.606	0.45
855.774	1
855.942	-1.25
856.11	-1.06
856.278	0.5
856.446	1.59
856.614	0.14
856.782	0.2
856.95	0.34
857.118	0.69
857.286	-0.79
857.454	-1.01
857.622	1
857.79	0.23
857.958	-0.8
858.126	0.1
858.294	-2.13
858.462	-0.2
858.629	-0.58
858.797	-0.87
858.965	1.27
859.133	0.16
859.301	0.12
859.468	1.23
859.636	-1.09
859.804	1.75
859.971	0.7
860.139	-0.83
860.307	1.24
860.474	-0.93
860.642	-0.62
860.81	0.13
860.977	-0.25
861.145	0.91
861.313	0.03
861.48	-1.49
861.648	0.48
861.815	0.12
861.983	-1.64
862.15	-0.71
862.318	0.6
862.485	1.89
862.653	0.54
862.82	0.57
862.988	1.79
863.155	0.59
863.322	-0.63
863.49	-1.31
863.657	-1.13
863.824	1.94
863.992	1.05
864.159	0.67
864.326	1.51
864.494	-0.13
864.661	2.33
864.828	-1.15
864.996	1
865.163	1.13
865.33	-0.22
865.497	-3.17
865.664	-0.01
865.832	-0.38
865.999	-2.07
866.166	-1.59
866.333	-1.16
866.5	0.01
866.667	-0.08
866.834	-1.07
867.001	1.99
867.168	-2.23
867.335	0.18
867.502	-1.96
867.669	-0.08
867.836	2.97
868.003	-0.87
868.17	2.04
868.337	-1.5
868.504	2.07
868.671	-1.57
868.838	-0.44
869.005	0.84
869.172	-0.02
869.339	0.45
869.505	0.01
869.672	-0.52
869.839	0.95
870.006	-0.37
870.173	-1.96
870.339	1.44
870.506	1.22
870.673	-1.13
870.84	0.65
871.006	-0.07
871.173	-0.87
871.34	-0.49
871.506	-0.75
871.673	0.15
871.839	-0.32
872.006	1.02
872.173	0.65
872.339	0.4
872.506	1.38
872.672	0.04
872.839	-1.51
873.005	0.71
873.172	2.56
873.338	0.97
873.505	-0.45
873.671	-0.75
873.838	0.97
874.004	-1.15
874.171	-0.03
874.337	0.73
874.503	1.74
874.67	0.71
874.836	0.28
875.002	1.34
875.169	1.52
875.335	0.65
875.501	0.04
875.668	1.91
875.834	-0.4
876	0.31
876.166	1.87
876.332	0.15
876.499	3.18
876.665	0.33
876.831	1.76
876.997	3.34
877.163	0.49
877.329	-1.11
877.495	0.63
877.662	0.23
877.828	-1.2
877.994	0.41
878.16	-2.36
878.326	-0.77
878.492	1.73
878.658	-1.71
878.824	-0.86
878.99	3.13
879.156	-1.89
879.322	2.1
879.487	0.47
879.653	1.02
879.819	-1.13
879.985	-1.37
880.151	1.46
880.317	0.74
880.483	-0.24
880.648	1.74
880.814	-1.73
880.98	0.08
881.146	-3.39
881.312	-1.02
881.477	-0.03
881.643	1
881.809	2.14
881.974	2.21
882.14	-0.97
882.306	0.01
882.471	4.72
882.637	-0.14
882.803	-0.03
882.968	3.07
883.134	3.19
883.299	1.49
883.465	0.53
883.63	3.07
883.796	0.81
883.961	1.95
884.127	0.53
884.292	-2.66
884.458	-1.6
884.623	-1.6
