Data from Apollo_Calib_20240827__AbsoluteIrradiance__513__07-42-00-391.txt Node

Date: Wed Aug 28 07:42:00 BST 2024
User: biology
Spectrometer: FLMT08252
Trigger mode: 0
Integration Time (sec): 5.000000E-1
Scans to average: 5
Electric dark correction enabled: true
Nonlinearity correction enabled: false
Boxcar width: 0
XAxis mode: Wavelengths
Number of Pixels in Spectrum: 3648
>>>>>Begin Spectral Data<<<<<
179.588	-0
179.809	-0
180.03	-0
180.251	-0
180.473	-0
180.694	0
180.915	0
181.136	-0
181.357	0
181.578	0
181.799	-0
182.02	-0
182.241	0
182.462	-0
182.683	0
182.904	0
183.125	-0
183.346	-0
183.567	-0
183.788	-0
184.009	-0
184.23	0
184.451	0
184.672	-0
184.892	-0
185.113	0
185.334	0
185.555	-0
185.776	-0
185.996	0
186.217	0
186.438	-0
186.659	-0
186.879	0
187.1	-0
187.321	-0
187.541	-0
187.762	0
187.983	0
188.203	0
188.424	0
188.644	-0
188.865	0
189.086	-0
189.306	0
189.527	0
189.747	0
189.968	-0
190.188	0
190.409	0
190.629	0
190.849	-0
191.07	-0
191.29	0
191.511	0
191.731	-0
191.951	-0
192.172	-0
192.392	-0
192.612	0
192.833	0
193.053	0
193.273	0
193.493	0
193.714	0
193.934	0
194.154	0
194.374	0
194.594	0
194.815	0
195.035	0
195.255	0
195.475	-0
195.695	0
195.915	0
196.135	0
196.355	0
196.575	0
196.795	0
197.015	-0
197.235	-0
197.455	-0
197.675	-0
197.895	-0
198.115	-0
198.335	0
198.555	-0
198.775	0
198.995	0
199.214	0
199.434	0
199.654	-0
199.874	-0
200.094	0.53
200.313	-0.03
200.533	-0.28
200.753	-0.32
200.973	0.52
201.192	0.49
201.412	-0.48
201.632	-0.21
201.851	0.65
202.071	-0.24
202.291	0.04
202.51	-0.18
202.73	0.32
202.95	0.36
203.169	-0.18
203.389	-0.25
203.608	0.23
203.828	-0.43
204.047	0.08
204.267	0.32
204.486	0.37
204.706	0.2
204.925	-0.04
205.145	-0.04
205.364	0.75
205.583	0.55
205.803	0.16
206.022	-0.31
206.242	0.05
206.461	-0.08
206.68	-0.31
206.9	0.4
207.119	0.48
207.338	0.77
207.557	-0.08
207.777	-0.07
207.996	-0.26
208.215	0.74
208.434	-0.17
208.654	-0.17
208.873	0.16
209.092	0.55
209.311	-0.27
209.53	-0.06
209.749	0.05
209.968	0.03
210.187	-0.22
210.407	-0.51
210.626	-0.18
210.845	0.36
211.064	0.32
211.283	-0.26
211.502	0.08
211.721	0.08
211.94	0.19
212.159	0.3
212.377	0.06
212.596	0.32
212.815	0.19
213.034	0.43
213.253	0.07
213.472	0.05
213.691	-0.15
213.91	0.05
214.128	-0.07
214.347	0.33
214.566	-0.31
214.785	-0.17
215.003	0.12
215.222	0.29
215.441	-0.01
215.66	-0.25
215.878	0.16
216.097	0.35
216.316	-0.48
216.534	0.02
216.753	0.2
216.972	-0.01
217.19	-0.06
217.409	0.1
217.627	-0.11
217.846	0.1
218.064	0.27
218.283	-0.13
218.501	0.45
218.72	0.37
218.938	-0.28
219.157	-0.02
219.375	0.21
219.594	0.14
219.812	0.02
220.031	-0.12
220.249	0.25
220.467	0.31
220.686	0.13
220.904	-0.05
221.122	-0.01
221.341	0.36
221.559	0.03
221.777	-0.07
221.995	0.02
222.214	0.2
222.432	-0.06
222.65	0.12
222.868	0.02
223.086	0.08
223.305	0.1
223.523	0.17
223.741	0.3
223.959	-0.13
224.177	-0.17
224.395	0.06
224.613	0.07
224.831	0.21
225.049	-0.03
225.267	-0.07
225.485	0.03
225.703	0.05
225.921	-0.13
226.139	0.05
226.357	0.17
226.575	0.03
226.793	-0.03
227.011	0.48
227.229	0.03
227.447	0.21
227.665	-0.04
227.883	-0.24
228.1	0.1
228.318	0.01
228.536	-0.1
228.754	-0.1
228.972	0.06
229.189	0.09
229.407	-0.06
229.625	-0.02
229.843	0.16
230.06	0.12
230.278	-0.1
230.496	0.02
230.713	0.12
230.931	0.16
231.149	0.06
231.366	-0.2
231.584	-0.13
231.801	0.4
232.019	-0
232.236	-0.05
232.454	-0
232.671	0.17
232.889	0
233.106	-0.09
233.324	-0.01
233.541	-0.03
233.759	0.06
233.976	-0.03
234.194	-0.05
234.411	-0.02
234.628	-0.14
234.846	0.01
235.063	-0.01
235.28	-0.09
235.498	0.01
235.715	-0.13
235.932	0.15
236.149	0.06
236.367	-0.06
236.584	-0.01
236.801	-0.14
237.018	0.12
237.236	-0.02
237.453	-0.06
237.67	0.22
237.887	-0.01
238.104	-0.04
238.321	-0.08
238.538	0.01
238.755	0.11
238.973	-0.17
239.19	0.02
239.407	0.08
239.624	-0.02
239.841	-0.11
240.058	-0.02
240.275	0.05
240.492	-0.05
240.709	0
240.925	0.03
241.142	0.07
241.359	-0.02
241.576	0.02
241.793	-0.07
242.01	0
242.227	0.08
242.444	0.08
242.66	0.01
242.877	0.14
243.094	-0.08
243.311	0.05
243.527	0.03
243.744	0.08
243.961	-0.01
244.178	-0.04
244.394	0.01
244.611	0.17
244.828	0.15
245.044	-0.17
245.261	-0.04
245.477	-0.02
245.694	0
245.911	-0.09
246.127	-0
246.344	0.17
246.56	0.13
246.777	-0.08
246.993	0
247.21	-0
247.426	0.12
247.643	-0.05
247.859	-0.07
248.076	0.02
248.292	0.18
248.508	0.04
248.725	0.03
248.941	0.02
249.157	0.13
249.374	-0.03
249.59	-0.03
249.806	0.03
250.023	0.15
250.239	0.04
250.455	-0.08
250.671	0.02
250.888	0.06
251.104	0.04
251.32	0.08
251.536	0.08
251.752	-0.02
251.969	-0.02
252.185	0.03
252.401	0.19
252.617	-0.12
252.833	0.05
253.049	0.07
253.265	0.06
253.481	-0
253.697	0.02
253.913	-0.02
254.129	0.01
254.345	-0
254.561	0.02
254.777	-0.01
254.993	0.03
255.209	0.05
255.425	-0.01
255.641	0.03
255.857	0.08
256.073	0.03
256.288	-0.05
256.504	0.01
256.72	-0.06
256.936	0.15
257.152	0.01
257.367	-0.01
257.583	0.08
257.799	0.04
258.015	0.05
258.23	-0.02
258.446	0.06
258.662	0.02
258.877	-0.03
259.093	-0.04
259.309	0.03
259.524	0.07
259.74	0.01
259.955	-0.14
260.171	-0
260.387	0.02
260.602	0.08
260.818	0.11
261.033	0.01
261.249	-0
261.464	-0.05
261.68	-0.03
261.895	0.09
262.11	0.09
262.326	0.01
262.541	-0.14
262.757	0.14
262.972	0.04
263.187	0.03
263.403	-0
263.618	0.06
263.833	0.02
264.049	-0.03
264.264	0.02
264.479	0.09
264.694	0.13
264.91	-0.04
265.125	0.03
265.34	0.11
265.555	0.17
265.77	-0.02
265.986	-0.02
266.201	0.09
266.416	0.12
266.631	-0
266.846	0.05
267.061	0.08
267.276	0.09
267.491	-0.1
267.706	0.03
267.921	0.09
268.136	0.05
268.351	0.07
268.566	-0.01
268.781	0.12
268.996	0.04
269.211	0.03
269.426	-0.1
269.641	-0.02
269.856	0.04
270.071	-0.05
270.285	-0.1
270.5	0.11
270.715	0.07
270.93	0.01
271.145	0.04
271.359	0.04
271.574	-0.02
271.789	0.01
272.004	-0.03
272.218	0.01
272.433	0.1
272.648	-0.08
272.862	0.07
273.077	-0.02
273.292	0.02
273.506	-0.06
273.721	-0.03
273.936	0.05
274.15	0.09
274.365	0.01
274.579	0.04
274.794	-0.01
275.008	0.05
275.223	-0.01
275.437	0
275.652	0.08
275.866	0.09
276.081	-0
276.295	0.08
276.509	0.04
276.724	0.01
276.938	0.03
277.153	0.06
277.367	0.06
277.581	-0
277.796	-0.01
278.01	-0.01
278.224	0.09
278.438	0.11
278.653	-0.08
278.867	-0.05
279.081	-0.14
279.295	0.03
279.51	0.05
279.724	-0.02
279.938	0.02
280.152	0.04
280.366	-0.01
280.58	0.11
280.794	0.11
281.008	0.05
281.222	0.09
281.437	0.12
281.651	0.04
281.865	0.08
282.079	0.01
282.293	-0.07
282.507	-0.05
282.721	0.03
282.935	0.02
283.148	-0.09
283.362	0
283.576	0.01
283.79	0.06
284.004	-0.02
284.218	0.09
284.432	0.01
284.646	0.04
284.859	-0.06
285.073	0.02
285.287	0.02
285.501	-0.03
285.714	0.01
285.928	0.07
286.142	0.01
286.356	0.02
286.569	-0.01
286.783	0.11
286.997	0.05
287.21	0
287.424	0.02
287.637	0.01
287.851	-0
288.065	0.08
288.278	0.03
288.492	0
288.705	-0
288.919	0.04
289.132	-0.06
289.346	0.08
289.559	-0.05
289.773	-0.07
289.986	-0.01
290.2	0.03
290.413	0.08
290.626	-0.04
290.84	0.03
291.053	-0.03
291.267	0.02
291.48	-0.01
291.693	0.07
291.906	-0.06
292.12	0.03
292.333	-0.03
292.546	-0.02
292.76	0.12
292.973	0.05
293.186	0.07
293.399	-0.03
293.612	0.06
293.826	-0.01
294.039	-0.04
294.252	0.03
294.465	0.08
294.678	0.03
294.891	0.03
295.104	-0.08
295.317	-0.01
295.53	-0
295.743	0.01
295.956	-0.01
296.169	0.09
296.382	0.05
296.595	-0
296.808	-0.01
297.021	0.1
297.234	0.06
297.447	-0.02
297.66	0.02
297.873	0.06
298.086	0.06
298.299	0.01
298.511	0.01
298.724	0
298.937	-0.03
299.15	-0.02
299.363	0.03
299.575	0.02
299.788	0.04
300.001	0
300.213	-0.04
300.426	0.06
300.639	0.04
300.852	-0.03
301.064	0.09
301.277	0.1
301.489	0.05
301.702	0.05
301.915	-0.03
302.127	0.01
302.34	0.02
302.552	0.04
302.765	-0.04
302.977	0.05
303.19	-0.02
303.402	0.02
303.615	0.01
303.827	-0
304.04	0.04
304.252	0.07
304.464	0.01
304.677	0.14
304.889	0.07
305.102	-0.02
305.314	0.01
305.526	0.07
305.739	0.05
305.951	-0.03
306.163	-0.01
306.375	0.09
306.588	0.02
306.8	-0.02
307.012	0.01
307.224	0.03
307.436	0.07
307.649	-0.06
307.861	0.01
308.073	-0
308.285	-0.04
308.497	-0
308.709	-0.04
308.921	0.02
309.133	0.05
309.346	-0.01
309.558	0.03
309.77	0.06
309.982	0.1
310.194	0.07
310.406	0
310.617	0.11
310.829	0.05
311.041	0.03
311.253	-0.03
311.465	0.03
311.677	0.08
311.889	-0.01
312.101	-0.01
312.313	0.07
312.524	0.03
312.736	-0.03
312.948	0.04
313.16	0.13
313.372	0.04
313.583	0.03
313.795	0.01
314.007	0.01
314.218	0.05
314.43	0.02
314.642	0.01
314.853	-0.06
315.065	0.08
315.277	0.02
315.488	0.04
315.7	0.04
315.912	0.04
316.123	0.02
316.335	0.01
316.546	0.16
316.758	-0.01
316.969	0.01
317.181	0.03
317.392	0.01
317.604	0.1
317.815	0.02
318.026	-0.02
318.238	-0.01
318.449	0.05
318.661	-0.05
318.872	-0.03
319.083	-0.01
319.295	0.03
319.506	0.01
319.717	0
319.929	0.02
320.14	0.02
320.351	0.07
320.562	-0.02
320.774	0.03
320.985	0.03
321.196	-0.04
321.407	-0.06
321.618	0.03
321.829	0.03
322.041	-0
322.252	0.01
322.463	0.02
322.674	0.03
322.885	-0.02
323.096	-0.02
323.307	-0.03
323.518	0.05
323.729	0.02
323.94	-0.01
324.151	-0.04
324.362	0.02
324.573	-0
324.784	-0.01
324.995	0.07
325.206	0.03
325.417	0
325.628	0.04
325.838	-0.04
326.049	-0.01
326.26	0.04
326.471	-0.03
326.682	0.05
326.892	0.05
327.103	-0.03
327.314	-0.05
327.525	0.06
327.735	-0.02
327.946	-0.01
328.157	-0
328.368	0.05
328.578	-0.02
328.789	0.06
328.999	0.02
329.21	-0.05
329.421	0.02
329.631	0.01
329.842	-0
330.052	0.01
330.263	0.03
330.473	0.04
330.684	0.03
330.894	0.02
331.105	0.01
331.315	0.06
331.526	-0.01
331.736	0.11
331.947	0.01
332.157	0.06
332.367	-0.01
332.578	0.09
332.788	0.08
332.999	-0.01
333.209	0.03
333.419	-0.01
333.629	0.05
333.84	0.02
334.05	0.04
334.26	0.08
334.47	0.07
334.681	0.09
334.891	0.01
335.101	0.06
335.311	0.13
335.521	0.04
335.732	-0.02
335.942	0.05
336.152	0.09
336.362	0.04
336.572	0.03
336.782	0.05
336.992	0.01
337.202	-0
337.412	-0.01
337.622	0.02
337.832	0.01
338.042	-0
338.252	-0.01
338.462	-0.01
338.672	0.02
338.882	-0.02
339.092	-0.03
339.302	0.09
339.511	0.01
339.721	-0.01
339.931	-0.02
340.141	0.06
340.351	0.06
340.561	-0
340.77	0.02
340.98	0.03
341.19	0.02
341.4	-0.01
341.609	-0.03
341.819	0.01
342.029	-0.04
342.238	0
342.448	-0.01
342.658	0.06
342.867	0.01
343.077	0.07
343.286	0.05
343.496	0.08
343.706	0.08
343.915	-0.01
344.125	0
344.334	-0.01
344.544	-0.04
344.753	0.01
344.963	-0.01
345.172	-0.01
345.381	-0.01
345.591	-0
345.8	0.05
346.01	0.1
346.219	0.08
346.428	-0.13
346.638	0.03
346.847	-0.01
347.056	0.05
347.266	-0.02
347.475	0.02
347.684	0.04
347.893	0.06
348.103	0.08
348.312	0
348.521	0
348.73	0.03
348.94	0.02
349.149	0.02
349.358	0.02
349.567	-0.01
349.776	-0.05
349.985	0.01
350.194	0.05
350.403	0.08
350.612	-0.02
350.821	-0.02
351.03	0
351.239	-0.06
351.448	0.02
351.657	0.02
351.866	0.09
352.075	0.01
352.284	0.06
352.493	0
352.702	0.1
352.911	0.01
353.12	0.04
353.329	-0.02
353.538	0.01
353.746	0.01
353.955	-0.02
354.164	0.04
354.373	0.01
354.582	0.03
354.79	0.04
354.999	0.03
355.208	-0.02
355.416	0.07
355.625	-0.02
355.834	0.01
356.042	0.02
356.251	0.01
356.46	0.01
356.668	-0.02
356.877	0.08
357.085	0.06
357.294	-0.07
357.503	0.02
357.711	-0
357.92	0.16
358.128	0.01
358.337	0.01
358.545	0.03
358.754	-0
358.962	0.06
359.17	0.04
359.379	0.06
359.587	0.03
359.796	0.01
360.004	0.03
360.212	0.03
360.421	0.07
360.629	0.04
360.837	0.04
361.046	0.06
361.254	0.12
361.462	-0.02
361.67	0.03
361.879	-0.02
362.087	0.04
362.295	0.02
362.503	0.02
362.711	-0.04
362.92	-0.03
363.128	-0.03
363.336	-0.03
363.544	-0.06
363.752	-0.02
363.96	-0.04
364.168	-0.01
364.376	0.02
364.584	0.03
364.792	0.03
365	0.04
365.208	0.02
365.416	0.02
365.624	0.02
365.832	0.03
366.04	0.07
366.248	-0
366.456	0.03
366.664	0.04
366.872	-0.01
367.079	-0.01
367.287	0.02
367.495	0.04
367.703	0.01
367.911	-0.01
368.118	0.01
368.326	0.01
368.534	-0.06
368.742	0.06
368.949	-0.01
369.157	-0.02
369.365	0.03
369.572	0.01
369.78	-0.02
369.988	0.04
370.195	0.04
370.403	0.04
370.61	-0.01
370.818	0.02
371.026	0.05
371.233	-0.02
371.441	0.06
371.648	-0.02
371.856	0.03
372.063	0.04
372.271	-0.04
372.478	-0.01
372.685	-0.02
372.893	0.03
373.1	-0.02
373.308	-0.02
373.515	0.07
373.722	0.01
373.93	-0
374.137	0.05
374.344	0.08
374.552	0.06
374.759	0.02
374.966	0.04
375.173	0.03
375.381	0.03
375.588	0.01
375.795	-0.05
376.002	0.01
376.209	-0
376.417	-0.02
376.624	-0.01
376.831	0.03
377.038	0.01
377.245	-0.06
377.452	0.03
377.659	-0
377.866	-0.02
378.073	0.02
378.28	0.02
378.487	0.03
378.694	0.01
378.901	-0.02
379.108	-0.01
379.315	0.08
379.522	0.12
379.729	0.03
379.936	0.01
380.143	0.03
380.35	0.04
380.557	-0.02
380.763	0.03
380.97	0
381.177	0.07
381.384	0.03
381.591	-0
381.797	0.06
382.004	0.02
382.211	0.02
382.418	0.02
382.624	0.05
382.831	0.05
383.038	-0.02
383.244	0.04
383.451	0.01
383.658	0.02
383.864	-0.01
384.071	-0.04
384.277	0.08
384.484	0.01
384.69	0.03
384.897	-0.05
385.103	-0.04
385.31	-0.02
385.516	0.01
385.723	-0.03
385.929	0.01
386.136	0
386.342	0.04
386.549	-0.04
386.755	0.05
386.961	0.02
387.168	0
387.374	0.03
387.58	0.07
387.787	0.04
387.993	0.02
388.199	-0.01
388.406	0.02
388.612	-0
388.818	-0.03
389.024	-0.03
389.231	0.03
389.437	0.11
389.643	0.06
389.849	0.05
390.055	0.02
390.261	0.03
390.467	0.03
390.674	-0.03
390.88	-0.02
391.086	0.05
391.292	-0.02
391.498	0.06
391.704	0.03
391.91	0
392.116	-0.06
392.322	-0.06
392.528	0.03
392.734	-0.01
392.94	0
393.146	-0.03
393.352	0.03
393.557	0.03
393.763	0
393.969	0.03
394.175	-0.01
394.381	0.03
394.587	-0.03
394.792	-0.03
394.998	0.02
395.204	0.06
395.41	-0.02
395.615	0.06
395.821	0.03
396.027	0.02
396.233	-0.05
396.438	-0.01
396.644	0.06
396.85	0.06
397.055	-0.03
397.261	0
397.466	0.07
397.672	0.01
397.878	0.04
398.083	0
398.289	0.01
398.494	0.07
398.7	0.03
398.905	-0.08
399.111	0.05
399.316	-0.05
399.522	0.04
399.727	0.03
399.932	-0
400.138	0.01
400.343	0.05
400.549	0.01
400.754	0.03
400.959	0.07
401.165	-0.01
401.37	0.01
401.575	-0.02
401.78	0.04
401.986	-0.03
402.191	0.02
402.396	0.03
402.601	0.04
402.807	0.07
403.012	-0.03
403.217	0.03
403.422	0.06
403.627	0.01
403.832	-0.02
404.037	0.05
404.243	0.05
404.448	-0.02
404.653	-0.04
404.858	0.06
405.063	0.07
405.268	-0.01
405.473	-0.02
405.678	-0.01
405.883	0.12
406.088	0.04
406.293	0.03
406.498	-0
406.703	0.08
406.907	0.02
407.112	-0.01
407.317	0.05
407.522	0.05
407.727	-0.05
407.932	0.01
408.136	0.09
408.341	-0
408.546	-0.05
408.751	0.01
408.956	0.01
409.16	0.02
409.365	-0.02
409.57	0.03
409.774	0.03
409.979	0.06
410.184	0.05
410.388	-0.04
410.593	0.09
410.798	-0.02
411.002	0
411.207	0.01
411.411	-0.01
411.616	-0.05
411.82	-0.02
412.025	0.03
412.229	-0.01
412.434	0.09
412.638	0.05
412.843	-0.01
413.047	0.02
413.252	-0.04
413.456	0.01
413.66	0.03
413.865	0
414.069	0.1
414.273	0.01
414.478	0
414.682	0
414.886	-0.05
415.091	-0.03
415.295	-0.06
415.499	0.04
415.703	-0
415.908	0.07
416.112	-0.07
416.316	0.06
416.52	0.01
416.724	-0.09
416.929	-0.04
417.133	0.1
417.337	0.01
417.541	-0.05
417.745	0.01
417.949	0.05
418.153	0.03
418.357	-0.06
418.561	0.08
418.765	-0.01
418.969	0.1
419.173	0.06
419.377	-0.03
419.581	0.08
419.785	-0.04
419.989	-0.07
420.193	-0.03
420.397	-0.03
420.601	0.02
420.804	0.04
421.008	0.02
421.212	0.03
421.416	0.07
421.62	-0
421.823	0.02
422.027	0.13
422.231	0.04
422.435	0.03
422.638	0
422.842	0.03
423.046	-0.01
423.249	0.06
423.453	0.07
423.657	0.06
423.86	-0.01
424.064	-0.01
424.268	0.02
424.471	-0.01
424.675	0.12
424.878	0.08
425.082	0.03
425.285	0.05
425.489	0.03
425.692	0.01
425.896	0
426.099	0.02
426.303	-0.05
426.506	-0.03
426.71	0.02
426.913	0.09
427.116	0.07
427.32	-0
427.523	0.06
427.726	0.1
427.93	-0.04
428.133	0.03
428.336	-0.04
428.54	-0.04
428.743	-0.03
428.946	0.05
429.149	-0
429.353	0.02
429.556	0.02
429.759	0.01
429.962	-0.03
430.165	0.05
430.368	-0.01
430.571	-0.01
430.775	-0
430.978	-0
431.181	-0
431.384	-0
431.587	0.01
431.79	0.01
431.993	-0.01
432.196	0
432.399	0.02
432.602	0.08
432.805	0
433.008	0.02
433.211	-0.07
433.414	0.06
433.616	0.03
433.819	0.05
434.022	-0.09
434.225	0.07
434.428	0.01
434.631	0.15
434.833	-0
435.036	0
435.239	0.06
435.442	0
435.645	0.02
435.847	0.02
436.05	0.05
436.253	0.04
436.455	-0.02
436.658	0.01
436.861	0.1
437.063	-0
437.266	0.03
437.468	-0.02
437.671	0.11
437.874	0.04
438.076	-0.06
438.279	0
438.481	0.02
438.684	-0.02
438.886	0.04
439.089	-0.07
439.291	-0
439.494	-0.02
439.696	-0.02
439.899	0.02
440.101	0.05
440.303	-0.1
440.506	0.02
440.708	0.05
440.91	0.08
441.113	-0.05
441.315	0.08
441.517	-0.07
441.72	0.06
441.922	-0.04
442.124	-0.01
442.326	0.05
442.529	0.1
442.731	-0.01
442.933	0.08
443.135	0.02
443.337	-0.01
443.539	-0.01
443.742	0.02
443.944	0.01
444.146	0
444.348	-0.01
444.55	0.02
444.752	-0.01
444.954	-0.03
445.156	0.05
445.358	-0.05
445.56	0.06
445.762	0.01
445.964	-0.04
446.166	0.02
446.368	-0.03
446.57	0.01
446.772	-0.04
446.974	0.01
447.175	0.01
447.377	-0.05
447.579	0.01
447.781	-0.08
447.983	0.07
448.184	-0.02
448.386	0.06
448.588	-0.07
448.79	0.02
448.991	-0.07
449.193	0.02
449.395	-0
449.597	0.04
449.798	0.02
450	0.07
450.202	-0.02
450.403	0.01
450.605	0.03
450.806	0.02
451.008	-0.09
451.21	-0
451.411	0.01
451.613	-0.02
451.814	0.02
452.016	0.07
452.217	0.02
452.419	0.07
452.62	0.02
452.821	0.06
453.023	0.09
453.224	0.05
453.426	-0
453.627	0.06
453.828	0.06
454.03	0.01
454.231	-0
454.432	-0.01
454.634	0.06
454.835	-0.02
455.036	-0.06
455.238	0.09
455.439	0.02
455.64	-0
455.841	-0.01
456.042	0.1
456.244	0.06
456.445	-0.02
456.646	-0.06
456.847	-0
457.048	0.01
457.249	0.1
457.45	0.23
457.651	-0.06
457.852	0.06
458.054	0.01
458.255	0.04
458.456	0.04
458.657	0.06
458.858	0.01
459.058	0.01
459.259	0.06
459.46	-0.01
459.661	-0.02
459.862	0.15
460.063	-0.01
460.264	0.06
460.465	-0.05
460.666	0.06
460.866	-0.01
461.067	-0.01
461.268	0.02
461.469	-0.03
461.67	-0.03
461.87	0
462.071	-0
462.272	-0.04
462.473	0.01
462.673	0.06
462.874	-0.03
463.075	-0
463.275	-0.04
463.476	0.02
463.676	0.02
463.877	0.02
464.078	0.04
464.278	0.07
464.479	-0.02
464.679	-0.02
464.88	-0.04
465.08	0.06
465.281	-0.02
465.481	-0.01
465.682	0.01
465.882	0.07
466.083	0.03
466.283	0
466.483	0.02
466.684	-0.04
466.884	-0.02
467.085	0.02
467.285	0
467.485	-0.07
467.686	-0.03
467.886	-0.04
468.086	-0
468.286	0
468.487	0.03
468.687	-0.08
468.887	0
469.087	0.04
469.287	0.01
469.488	-0.04
469.688	0
469.888	0.06
470.088	0.03
470.288	0.08
470.488	0.05
470.688	-0.05
470.888	0.01
471.088	0.01
471.288	0.09
471.488	0.05
471.688	0.04
471.888	-0.03
472.088	0.03
472.288	0.03
472.488	-0.01
472.688	-0.02
472.888	-0
473.088	0.03
473.288	0.01
473.488	0.03
473.688	0.1
473.887	0
474.087	-0.01
474.287	0.02
474.487	0
474.687	0.02
474.886	0.01
475.086	0.01
475.286	0.05
475.486	0.09
475.685	0.02
475.885	0.01
476.085	0.02
476.284	0.04
476.484	-0.04
476.684	0.02
476.883	0.05
477.083	0.02
477.282	-0.01
477.482	0.06
477.681	0.06
477.881	0.04
478.08	-0.02
478.28	-0.02
478.479	0.05
478.679	0.06
478.878	-0.02
479.078	-0.03
479.277	-0
479.477	-0
479.676	0.07
479.875	0
480.075	-0.06
480.274	0.02
480.473	0.03
480.673	-0.02
480.872	0.02
481.071	0.02
481.271	0.02
481.47	-0.02
481.669	-0.01
481.868	-0.01
482.067	-0.01
482.267	0
482.466	-0.02
482.665	-0.01
482.864	-0.02
483.063	-0.02
483.262	0.03
483.461	0.05
483.661	0.03
483.86	0.01
484.059	0.02
484.258	-0.01
484.457	0.02
484.656	0.01
484.855	0.04
485.054	-0.05
485.253	-0.03
485.452	-0.03
485.651	-0.01
485.849	-0
486.048	-0.01
486.247	-0.01
486.446	0
486.645	0
486.844	-0.03
487.043	-0
487.241	0.02
487.44	-0.03
487.639	0.01
487.838	0.04
488.037	0.02
488.235	0.03
488.434	0.02
488.633	-0.02
488.831	0.03
489.03	0.03
489.229	0.02
489.427	-0.01
489.626	0.05
489.825	0.05
490.023	0.01
490.222	-0.01
490.42	0.04
490.619	0.04
490.817	0.02
491.016	-0.03
491.214	0.04
491.413	-0
491.611	-0.01
491.81	-0.01
492.008	0.02
492.207	0.03
492.405	0.01
492.604	-0.07
492.802	0
493	0.02
493.199	-0.01
493.397	-0.01
493.595	-0.01
493.794	-0
493.992	0.04
494.19	0
494.388	0.02
494.587	-0.01
494.785	0.02
494.983	-0.05
495.181	0
495.379	0.02
495.578	0.01
495.776	0.01
495.974	0.02
496.172	-0.01
496.37	-0.02
496.568	-0.05
496.766	-0.01
496.964	0.05
497.162	0.01
497.36	-0.03
497.558	0.02
497.756	0.02
497.954	0.01
498.152	-0.01
498.35	-0.01
498.548	0.01
498.746	0
498.944	-0.04
499.142	-0
499.34	-0.03
499.538	-0.01
499.736	-0.02
499.933	0.02
500.131	0.01
500.329	0.01
500.527	0.04
500.725	0.04
500.922	0.01
501.12	0.01
501.318	0.03
501.516	-0.02
501.713	0.02
501.911	0.01
502.109	-0.04
502.306	0.02
502.504	0.01
502.701	0.01
502.899	-0.01
503.097	0.07
503.294	0.01
503.492	-0
503.689	0.02
503.887	0.02
504.084	0.03
504.282	-0
504.479	-0.02
504.677	0.01
504.874	-0.01
505.072	0.01
505.269	-0
505.466	0.04
505.664	0.04
505.861	-0.03
506.059	-0.04
506.256	0.02
506.453	-0.01
506.651	0.02
506.848	0.02
507.045	0.01
507.242	0.02
507.44	-0.01
507.637	0.01
507.834	0.01
508.031	0.04
508.229	-0.02
508.426	0.03
508.623	0.03
508.82	0.01
509.017	-0.01
509.214	0.01
509.411	0
509.608	-0.02
509.805	0.01
510.003	-0.01
510.2	-0.03
510.397	0.01
510.594	-0.01
510.791	-0
510.988	-0.01
511.184	0.03
511.381	-0.01
511.578	-0.02
511.775	0.02
511.972	-0.01
512.169	-0
512.366	-0
512.563	0.01
512.76	0.02
512.956	0.03
513.153	0
513.35	0.01
513.547	-0.01
513.744	-0.02
513.94	-0.03
514.137	0.02
514.334	0.02
514.53	0.01
514.727	0.01
514.924	0.06
515.12	-0
515.317	-0.02
515.514	-0.02
515.71	-0.01
515.907	0.01
516.103	0.01
516.3	0
516.497	0.02
516.693	0.02
516.89	0.01
517.086	-0.01
517.283	0.03
517.479	0.01
517.676	0
517.872	-0.01
518.068	-0.01
518.265	-0.01
518.461	-0
518.658	-0.03
518.854	0.01
519.05	-0.02
519.247	-0.02
519.443	-0
519.639	0.02
519.836	0.02
520.032	-0
520.228	0
520.424	0.03
520.621	0.02
520.817	-0.01
521.013	0.02
521.209	0.02
521.405	0.03
521.601	-0.01
521.798	0.03
521.994	0.03
522.19	0.01
522.386	-0.02
522.582	0
522.778	0.03
522.974	-0.01
523.17	0.02
523.366	0.01
523.562	0.04
523.758	0.01
523.954	-0.01
524.15	0.01
524.346	0.01
524.542	-0
524.738	-0.01
524.934	0
525.129	0.01
525.325	0.01
525.521	0.02
525.717	0.02
525.913	0.01
526.109	0.02
526.304	0
526.5	0
526.696	0.04
526.892	-0.01
527.087	-0
527.283	-0
527.479	0.02
527.674	-0.02
527.87	0
528.066	0.01
528.261	0.02
528.457	0.02
528.653	0.01
528.848	-0.01
529.044	0.02
529.239	0
529.435	0.02
529.63	0.01
529.826	0.05
530.021	0
530.217	0.04
530.412	-0.01
530.608	-0.01
530.803	0.03
530.999	0.02
531.194	-0.03
531.389	0.02
531.585	-0.03
531.78	0
531.975	0
532.171	0.05
532.366	-0.01
532.561	0
532.757	-0.02
532.952	-0
533.147	0.03
533.342	0
533.538	-0.02
533.733	0.04
533.928	0
534.123	-0.01
534.318	-0.02
534.513	-0.02
534.709	0.01
534.904	0
535.099	0
535.294	0
535.489	0.01
535.684	-0.02
535.879	-0.01
536.074	0.02
536.269	0.01
536.464	0.02
536.659	0.01
536.854	0.01
537.049	0.02
537.244	0.01
537.439	0.01
537.634	0.04
537.828	0.02
538.023	0
538.218	-0.02
538.413	0.02
538.608	-0.01
538.803	0.05
538.997	-0.01
539.192	0.04
539.387	0.01
539.582	0.01
539.776	0.01
539.971	-0.01
540.166	0.02
540.36	-0.02
540.555	-0.01
540.75	-0.01
540.944	0
541.139	-0.02
541.334	0.02
541.528	0.02
541.723	0.03
541.917	0.02
542.112	-0.02
542.306	0.02
542.501	-0.03
542.695	0.02
542.89	-0.01
543.084	0.02
543.279	-0.01
543.473	0
543.668	-0
543.862	0.02
544.056	0.02
544.251	-0
544.445	0
544.64	0.01
544.834	-0.03
545.028	0.03
545.222	0.02
545.417	0.01
545.611	0.02
545.805	0.02
546	-0.01
546.194	0
546.388	0
546.582	0.02
546.776	0
546.97	0
547.165	0.03
547.359	0.03
547.553	0.01
547.747	0.03
547.941	-0
548.135	0.02
548.329	0.04
548.523	0.02
548.717	0
548.911	-0.02
549.105	0.01
549.299	0.02
549.493	0.02
549.687	0.01
549.881	0.03
550.075	0.01
550.269	-0.01
550.463	0.01
550.657	-0.01
550.85	0.03
551.044	0.01
551.238	0.01
551.432	-0
551.626	-0
551.82	0.01
552.013	-0.01
552.207	0.03
552.401	0.03
552.594	0.01
552.788	0.01
552.982	0.02
553.176	-0
553.369	0.02
553.563	0.02
553.756	-0.03
553.95	-0.01
554.144	0
554.337	0.03
554.531	0.01
554.724	0.02
554.918	0.02
555.111	0.03
555.305	0.01
555.498	0.07
555.692	0.02
555.885	0.01
556.079	0.01
556.272	-0.01
556.466	0.03
556.659	0
556.852	0.01
557.046	0.02
557.239	0.06
557.432	-0.01
557.626	-0
557.819	0.02
558.012	0.02
558.206	0.04
558.399	0.02
558.592	0.03
558.785	0.01
558.979	0.03
559.172	0.03
559.365	0.04
559.558	0.03
559.751	0.03
559.944	0.01
560.138	0.01
560.331	0.01
560.524	0.01
560.717	0.01
560.91	0.01
561.103	0.03
561.296	0.02
561.489	0.02
561.682	-0
561.875	0.04
562.068	0.03
562.261	0.01
562.454	0.04
562.647	0.03
562.84	0.04
563.032	0
563.225	0.02
563.418	0.02
563.611	0
563.804	0.01
563.997	-0.01
564.19	-0.02
564.382	-0.03
564.575	0.02
564.768	-0.02
564.961	0.02
565.153	0.01
565.346	0.04
565.539	0.03
565.731	0.05
565.924	0.04
566.117	0.02
566.309	0.02
566.502	0.02
566.695	0.01
566.887	0.04
567.08	0.01
567.272	0.01
567.465	-0
567.657	0.01
567.85	0.03
568.042	0.06
568.235	0.04
568.427	0.04
568.62	-0.01
568.812	0.03
569.005	0.05
569.197	-0.02
569.389	0.05
569.582	0.07
569.774	0.02
569.966	0.02
570.159	-0
570.351	0.03
570.543	0.01
570.736	0.03
570.928	0.01
571.12	0.02
571.312	0.03
571.505	-0.01
571.697	0.07
571.889	0
572.081	-0
572.273	0.01
572.465	0.05
572.658	0.02
572.85	0.05
573.042	0.05
573.234	0.02
573.426	0.06
573.618	0.01
573.81	0.04
574.002	0.06
574.194	0.08
574.386	0.01
574.578	-0.03
574.77	0.02
574.962	0.05
575.154	0.02
575.346	0.02
575.538	0.07
575.729	0.02
575.921	0.05
576.113	0.05
576.305	0.07
576.497	0.05
576.689	0.04
576.88	0.03
577.072	0.07
577.264	0.06
577.456	0.05
577.647	0.01
577.839	0.05
578.031	0.09
578.223	0.04
578.414	0.04
578.606	0.07
578.798	0.04
578.989	0.06
579.181	0.05
579.372	0.07
579.564	0.05
579.755	0.07
579.947	0.08
580.139	0.1
580.33	0.02
580.522	0.04
580.713	0
580.905	0.08
581.096	0.09
581.287	0.07
581.479	0.08
581.67	0.1
581.862	0.1
582.053	0.08
582.244	0.06
582.436	0.06
582.627	0.09
582.818	0.09
583.01	0.07
583.201	0.11
583.392	0.11
583.583	0.11
583.775	0.08
583.966	0.08
584.157	0.11
584.348	0.09
584.54	0.08
584.731	0.13
584.922	0.12
585.113	0.08
585.304	0.16
585.495	0.15
585.686	0.15
585.877	0.18
586.068	0.13
586.259	0.15
586.45	0.14
586.641	0.15
586.832	0.11
587.023	0.15
587.214	0.16
587.405	0.16
587.596	0.14
587.787	0.22
587.978	0.18
588.169	0.15
588.36	0.17
588.551	0.17
588.742	0.17
588.932	0.21
589.123	0.17
589.314	0.21
589.505	0.23
589.696	0.21
589.886	0.2
590.077	0.18
590.268	0.22
590.458	0.18
590.649	0.18
590.84	0.25
591.03	0.18
591.221	0.24
591.412	0.21
591.602	0.27
591.793	0.3
591.984	0.21
592.174	0.22
592.365	0.36
592.555	0.24
592.746	0.3
592.936	0.32
593.127	0.33
593.317	0.36
593.508	0.3
593.698	0.32
593.889	0.32
594.079	0.33
594.269	0.3
594.46	0.34
594.65	0.33
594.84	0.33
595.031	0.33
595.221	0.34
595.411	0.33
595.602	0.38
595.792	0.41
595.982	0.37
596.172	0.47
596.363	0.44
596.553	0.42
596.743	0.42
596.933	0.42
597.123	0.48
597.314	0.4
597.504	0.42
597.694	0.49
597.884	0.48
598.074	0.45
598.264	0.46
598.454	0.54
598.644	0.51
598.834	0.53
599.024	0.47
599.214	0.56
599.404	0.57
599.594	0.56
599.784	0.54
599.974	0.63
600.164	0.61
600.354	0.58
600.544	0.6
600.734	0.64
600.924	0.67
601.114	0.66
601.303	0.64
601.493	0.69
601.683	0.71
601.873	0.72
602.063	0.65
602.252	0.74
602.442	0.66
602.632	0.74
602.821	0.76
603.011	0.8
603.201	0.78
603.39	0.79
603.58	0.78
603.77	0.82
603.959	0.88
604.149	0.89
604.339	0.83
604.528	0.91
604.718	0.94
604.907	0.93
605.097	0.91
605.286	0.94
605.476	0.97
605.665	1.03
605.855	0.96
606.044	1.05
606.234	1.01
606.423	1.05
606.612	1.04
606.802	1.1
606.991	1.12
607.181	1.16
607.37	1.14
607.559	1.15
607.749	1.15
607.938	1.18
608.127	1.22
608.316	1.24
608.506	1.24
608.695	1.29
608.884	1.29
609.073	1.32
609.263	1.39
609.452	1.42
609.641	1.37
609.83	1.37
610.019	1.44
610.208	1.43
610.397	1.45
610.586	1.54
610.775	1.5
610.965	1.56
611.154	1.56
611.343	1.65
611.532	1.6
611.721	1.71
611.91	1.71
612.099	1.75
612.287	1.71
612.476	1.7
612.665	1.84
612.854	1.83
613.043	1.88
613.232	1.9
613.421	1.93
613.61	1.97
613.798	2.01
613.987	2.07
614.176	2.06
614.365	2.14
614.554	2.18
614.742	2.24
614.931	2.18
615.12	2.35
615.309	2.31
615.497	2.35
615.686	2.33
615.875	2.43
616.063	2.45
616.252	2.51
616.44	2.56
616.629	2.61
616.818	2.63
617.006	2.67
617.195	2.73
617.383	2.81
617.572	2.79
617.76	2.91
617.949	2.9
618.137	3.07
618.326	3.11
618.514	3.06
618.703	3.06
618.891	3.19
619.079	3.2
619.268	3.35
619.456	3.3
619.644	3.41
619.833	3.35
620.021	3.46
620.209	3.48
620.398	3.67
620.586	3.64
620.774	3.79
620.962	3.77
621.151	3.87
621.339	3.88
621.527	3.89
621.715	3.93
621.903	4.06
622.092	4.01
622.28	4.27
622.468	4.09
622.656	4.32
622.844	4.24
623.032	4.37
623.22	4.34
623.408	4.5
623.596	4.51
623.784	4.62
623.972	4.59
624.16	4.64
624.348	4.75
624.536	4.79
624.724	4.76
624.912	4.83
625.1	4.88
625.288	4.88
625.476	4.91
625.664	4.99
625.851	4.94
626.039	5.01
626.227	4.98
626.415	5.03
626.603	5.02
626.79	5.09
626.978	5.14
627.166	5.15
627.354	5.07
627.541	5.13
627.729	5.02
627.917	5.29
628.104	5.15
628.292	5.08
628.48	5.09
628.667	5.08
628.855	5.18
629.042	5.17
629.23	5.05
629.418	4.99
629.605	4.99
629.793	4.88
629.98	4.96
630.168	4.82
630.355	4.82
630.543	4.68
630.73	4.53
630.917	4.56
631.105	4.62
631.292	4.52
631.48	4.41
631.667	4.43
631.854	4.25
632.042	4.18
632.229	4.09
632.416	4.1
632.604	3.92
632.791	3.79
632.978	3.78
633.165	3.67
633.353	3.56
633.54	3.51
633.727	3.32
633.914	3.29
634.101	3.16
634.289	3.23
634.476	3.02
634.663	2.94
634.85	2.87
635.037	2.76
635.224	2.64
635.411	2.64
635.598	2.49
635.785	2.41
635.972	2.32
636.159	2.32
636.346	2.19
636.533	2.1
636.72	2.05
636.907	2
637.094	1.94
637.281	1.8
637.468	1.81
637.655	1.73
637.842	1.68
638.029	1.65
638.215	1.56
638.402	1.5
638.589	1.43
638.776	1.38
638.963	1.34
639.149	1.36
639.336	1.36
639.523	1.23
639.709	1.18
639.896	1.19
640.083	1.15
640.27	1.1
640.456	1.03
640.643	1.01
640.829	0.94
641.016	0.93
641.203	0.87
641.389	0.91
641.576	0.84
641.762	0.79
641.949	0.76
642.135	0.84
642.322	0.74
642.508	0.68
642.695	0.7
642.881	0.66
643.068	0.62
643.254	0.66
643.441	0.61
643.627	0.56
643.813	0.55
644	0.62
644.186	0.47
644.372	0.52
644.559	0.54
644.745	0.5
644.931	0.44
645.118	0.47
645.304	0.48
645.49	0.4
645.676	0.42
645.862	0.4
646.049	0.45
646.235	0.4
646.421	0.48
646.607	0.41
646.793	0.35
646.979	0.29
647.165	0.37
647.352	0.33
647.538	0.3
647.724	0.26
647.91	0.27
648.096	0.29
648.282	0.32
648.468	0.25
648.654	0.23
648.84	0.24
649.026	0.22
649.212	0.23
649.397	0.17
649.583	0.19
649.769	0.25
649.955	0.18
650.141	0.2
650.327	0.23
650.513	0.14
650.698	0.22
650.884	0.1
651.07	0.2
651.256	0.19
651.442	0.17
651.627	0.2
651.813	0.19
651.999	0.13
652.184	0.16
652.37	0.15
652.556	0.12
652.741	0.19
652.927	0.08
653.113	0.12
653.298	0.14
653.484	0.12
653.669	0.1
653.855	0.1
654.04	0.12
654.226	0.12
654.412	0.1
654.597	0.05
654.782	0.13
654.968	0.12
655.153	0.14
655.339	0.09
655.524	0.05
655.71	0.12
655.895	0.06
656.08	0.08
656.266	0.12
656.451	0.09
656.636	0.07
656.822	0.1
657.007	0.02
657.192	0.07
657.378	-0
657.563	0.09
657.748	0.12
657.933	0.05
658.118	0.07
658.304	0.05
658.489	0.09
658.674	0.08
658.859	0.02
659.044	0.05
659.229	0.09
659.414	0.03
659.599	0.05
659.785	0.02
659.97	0.06
660.155	0.09
660.34	0.06
660.525	0.03
660.71	0.01
660.895	0.08
661.08	0.04
661.264	0.06
661.449	0.11
661.634	0.1
661.819	0.06
662.004	0.09
662.189	0.01
662.374	-0
662.559	0.02
662.743	-0.01
662.928	0.04
663.113	0.05
663.298	-0.01
663.483	0.02
663.667	0.06
663.852	0
664.037	0.08
664.221	0.02
664.406	0.04
664.591	0.08
664.775	0.04
664.96	0.07
665.145	0.01
665.329	0.05
665.514	0.03
665.698	0.07
665.883	-0.04
666.068	0.07
666.252	0.05
666.437	0.03
666.621	0.04
666.806	0.05
666.99	0.02
667.174	-0.04
667.359	0.12
667.543	0.01
667.728	0.04
667.912	-0.04
668.096	0.05
668.281	0.02
668.465	0.03
668.649	0.07
668.834	-0
669.018	0.03
669.202	-0.01
669.387	0.03
669.571	0.07
669.755	-0
669.939	0.04
670.124	0.05
670.308	0.09
670.492	0.07
670.676	0.07
670.86	0.01
671.044	-0.04
671.228	0.05
671.413	-0
671.597	0.03
671.781	-0.02
671.965	0.07
672.149	0.02
672.333	-0
672.517	-0.01
672.701	0.05
672.885	0
673.069	-0.04
673.253	0.06
673.437	-0.01
673.621	-0.02
673.804	0.02
673.988	0.06
674.172	0.05
674.356	-0.02
674.54	0.01
674.724	0.11
674.908	0.02
675.091	0.1
675.275	0.05
675.459	0.09
675.643	0.08
675.826	0.05
676.01	0.05
676.194	0.02
676.377	0.05
676.561	0.04
676.745	0.03
676.928	0.01
677.112	0.06
677.296	0.01
677.479	0
677.663	-0.04
677.846	0.07
678.03	0.02
678.213	0.02
678.397	0.02
678.58	-0.02
678.764	-0.01
678.947	0.01
679.131	-0.03
679.314	0.02
679.498	0.02
679.681	0.02
679.865	0.07
680.048	0.07
680.231	-0.02
680.415	0.02
680.598	0.01
680.781	0.02
680.965	0.02
681.148	0.04
681.331	-0.01
681.514	0.04
681.698	0.01
681.881	0.03
682.064	0.05
682.247	0.02
682.43	-0.02
682.614	0.02
682.797	0.08
682.98	0.06
683.163	-0.03
683.346	0.06
683.529	-0.02
683.712	-0.04
683.895	0.05
684.078	-0.01
684.261	-0.03
684.444	0.02
684.627	0.05
684.81	-0
684.993	-0.01
685.176	0.06
685.359	-0
685.542	0.01
685.725	0.07
685.908	0.03
686.091	-0
686.274	0.05
686.457	0.03
686.639	-0
686.822	0.08
687.005	-0.01
687.188	0
687.371	0.1
687.553	0.02
687.736	0.06
687.919	0.08
688.102	0.09
688.284	0.03
688.467	-0.03
688.65	-0.04
688.832	-0
689.015	0.06
689.197	-0.02
689.38	0.09
689.563	0.08
689.745	-0.03
689.928	-0.03
690.11	0.04
690.293	0.04
690.475	-0.06
690.658	0.04
690.84	-0.03
691.023	0.03
691.205	0.01
691.388	0.02
691.57	0.09
691.752	0.05
691.935	-0.06
692.117	-0
692.3	0.05
692.482	-0.01
692.664	-0.06
692.847	0.02
693.029	0.06
693.211	0.05
693.393	0.04
693.576	-0.05
693.758	0.02
693.94	0.02
694.122	0
694.304	0.05
694.487	-0.02
694.669	0.1
694.851	-0.03
695.033	0.05
695.215	-0.02
695.397	-0.04
695.579	0.03
695.761	-0.01
695.943	-0.06
696.125	0.07
696.308	0.04
696.49	-0.06
696.671	0.15
696.853	0.02
697.035	0.08
697.217	0.02
697.399	0.06
697.581	-0.01
697.763	0.04
697.945	-0
698.127	0.06
698.309	0.04
698.491	0.04
698.672	0.05
698.854	0.06
699.036	0.07
699.218	0.03
699.399	0.04
699.581	0.06
699.763	0.06
699.945	-0.01
700.126	-0.02
700.308	0.01
700.49	0.01
700.671	-0.04
700.853	-0.02
701.035	0.01
701.216	0.02
701.398	0
701.579	0.04
701.761	0.05
701.943	-0.01
702.124	-0.08
702.306	0.02
702.487	0.16
702.669	0.06
702.85	-0.05
703.031	-0.07
703.213	0.1
703.394	0.09
703.576	-0
703.757	0
703.938	0.06
704.12	0.13
704.301	0.06
704.483	0.01
704.664	0.03
704.845	0.1
705.026	0.04
705.208	0.04
705.389	0.03
705.57	0.04
705.751	0.03
705.933	-0.01
706.114	0.1
706.295	0.08
706.476	-0.05
706.657	0.12
706.838	0.07
707.02	0.08
707.201	-0.02
707.382	-0.05
707.563	0.01
707.744	0
707.925	-0.08
708.106	-0.03
708.287	0.01
708.468	0.12
708.649	-0.01
708.83	0.01
709.011	0.01
709.192	0.06
709.373	-0.06
709.554	-0.02
709.734	0.09
709.915	0.04
710.096	0.04
710.277	-0.12
710.458	0.02
710.639	0.11
710.819	-0.15
711	-0.01
711.181	0.03
711.362	0.03
711.542	0.02
711.723	0.03
711.904	0.05
712.085	0.04
712.265	0.05
712.446	-0.02
712.627	0.01
712.807	0.01
712.988	0.05
713.168	-0.07
713.349	0.01
713.53	-0.04
713.71	-0.05
713.891	-0.04
714.071	-0.01
714.252	-0.04
714.432	-0.01
714.613	-0.02
714.793	-0.01
714.974	0.07
715.154	0.11
715.334	0.04
715.515	0.08
715.695	-0.06
715.876	0.04
716.056	0.03
716.236	-0.03
716.417	-0.01
716.597	-0.02
716.777	0.13
716.957	0
717.138	0.02
717.318	0.03
717.498	-0.08
717.678	-0.02
717.859	0.04
718.039	-0.11
718.219	-0.01
718.399	0.05
718.579	0.01
718.759	-0.01
718.939	0.1
719.12	-0
719.3	0.02
719.48	-0.13
719.66	-0.14
719.84	0.02
720.02	0.04
720.2	-0.05
720.38	0
720.56	0.2
720.74	-0.03
720.92	0.09
721.1	0.09
721.279	0.04
721.459	0.05
721.639	-0.05
721.819	0.04
721.999	-0.03
722.179	0.09
722.359	-0.07
722.538	0.03
722.718	0.02
722.898	0.01
723.078	-0.02
723.257	-0.02
723.437	0.04
723.617	0.01
723.797	0.03
723.976	-0.01
724.156	-0.01
724.336	0.12
724.515	0.14
724.695	-0.08
724.874	0.01
725.054	0.03
725.234	-0
725.413	0.12
725.593	0.04
725.772	0.06
725.952	-0.03
726.131	-0.01
726.311	-0.01
726.49	0.01
726.67	-0.08
726.849	0.03
727.028	0.04
727.208	0.03
727.387	0.12
727.567	-0.08
727.746	-0
727.925	-0.04
728.105	0.01
728.284	-0.01
728.463	-0.08
728.643	0.07
728.822	-0.11
729.001	-0.03
729.18	0.03
729.359	0.01
729.539	-0.04
729.718	-0.01
729.897	0.03
730.076	-0
730.255	-0.06
730.434	0.07
730.614	0.04
730.793	0.03
730.972	0.04
731.151	-0.05
731.33	0.1
731.509	0.01
731.688	0.04
731.867	0.05
732.046	-0.15
732.225	0.2
732.404	-0.06
732.583	-0.07
732.762	0.01
732.941	0.05
733.12	0.06
733.298	0.04
733.477	0.05
733.656	0.01
733.835	-0.11
734.014	0.13
734.193	0.01
734.371	0.08
734.55	0.05
734.729	-0.11
734.908	0
735.086	0.06
735.265	0.15
735.444	-0.02
735.623	-0.03
735.801	-0.08
735.98	-0.01
736.159	-0.06
736.337	0.09
736.516	0.09
736.694	0
736.873	-0.04
737.052	0.07
737.23	0.23
737.409	-0.11
737.587	0.14
737.766	-0.13
737.944	-0.09
738.123	0.1
738.301	0.11
738.479	-0.04
738.658	0.12
738.836	-0.21
739.015	0.01
739.193	0.07
739.371	-0.02
739.55	0.05
739.728	0.04
739.906	0.08
740.085	0.13
740.263	-0.08
740.441	-0.14
740.62	0.1
740.798	0.08
740.976	-0.09
741.154	-0.09
741.332	0.1
741.511	-0.01
741.689	0.11
741.867	0.09
742.045	0.09
742.223	-0.04
742.401	-0.04
742.579	-0.08
742.757	0.07
742.935	-0.08
743.114	0.06
743.292	0.08
743.47	-0.03
743.648	0.07
743.826	-0.09
744.004	0.1
744.181	0.08
744.359	-0.09
744.537	-0
744.715	0.05
744.893	0.05
745.071	0.09
745.249	-0.03
745.427	0.01
745.605	0.09
745.782	0.07
745.96	0.02
746.138	0.1
746.316	0.09
746.493	0.01
746.671	0.01
746.849	0.01
747.027	0.07
747.204	0.02
747.382	0.1
747.56	-0.05
747.737	-0.09
747.915	-0.08
748.093	0.03
748.27	-0.03
748.448	-0.07
748.625	-0.14
748.803	0.04
748.98	-0.01
749.158	0.03
749.335	0.18
749.513	-0.03
749.69	-0.02
749.868	-0.08
750.045	-0
750.223	-0.11
750.4	-0.16
750.578	0.19
750.755	0.17
750.932	-0.13
751.11	0.15
751.287	-0.11
751.464	0.06
751.642	-0.07
751.819	0.1
751.996	0.07
752.173	0.01
752.351	-0.1
752.528	0.07
752.705	-0
752.882	-0.05
753.06	0.08
753.237	0.06
753.414	0.16
753.591	0.12
753.768	-0.06
753.945	-0.06
754.122	-0.08
754.299	0.09
754.476	-0.03
754.654	0.04
754.831	0.04
755.008	0.04
755.185	0.01
755.362	-0.11
755.539	0.1
755.716	-0.03
755.892	-0.01
756.069	-0.02
756.246	0.05
756.423	-0.04
756.6	0.11
756.777	0.02
756.954	0.18
757.131	-0.05
757.307	-0.07
757.484	-0.14
757.661	-0.05
757.838	0.03
758.015	-0.09
758.191	0.14
758.368	0.16
758.545	0.03
758.721	0.04
758.898	0.06
759.075	0.07
759.251	0.17
759.428	0.11
759.605	-0.11
759.781	0.01
759.958	0.04
760.134	0.07
760.311	0
760.488	0.19
760.664	0.14
760.841	-0
761.017	-0.12
761.194	0.09
761.37	0.05
761.547	-0.06
761.723	-0.01
761.899	0.2
762.076	-0.06
762.252	-0.05
762.429	-0.11
762.605	0.15
762.781	0.04
762.958	0.12
763.134	-0.02
763.31	-0
763.486	0.13
763.663	-0.1
763.839	0.11
764.015	-0.18
764.191	-0.01
764.368	0.02
764.544	-0.03
764.72	0.04
764.896	0.08
765.072	-0.01
765.248	0.01
765.425	0.12
765.601	0.06
765.777	-0.01
765.953	-0.25
766.129	-0.07
766.305	-0.04
766.481	0.02
766.657	0.03
766.833	0.15
767.009	-0.08
767.185	-0.08
767.361	0.01
767.537	-0.06
767.713	0.02
767.889	-0.11
768.065	0.07
768.24	-0.21
768.416	0.08
768.592	-0.04
768.768	-0
768.944	0.09
769.12	-0.07
769.295	-0.14
769.471	0.04
769.647	-0.07
769.823	0.13
769.998	-0.13
770.174	-0.03
770.35	0.2
770.525	0.22
770.701	0.1
770.877	0.02
771.052	-0.18
771.228	0.15
771.403	0.06
771.579	0.07
771.755	0.22
771.93	-0.06
772.106	-0.13
772.281	-0.09
772.457	0.07
772.632	0.11
772.808	-0.07
772.983	-0.02
773.159	-0.24
773.334	0.09
773.509	-0.1
773.685	-0.07
773.86	0.28
774.036	0.19
774.211	-0.01
774.386	-0.01
774.562	-0
774.737	-0.07
774.912	-0.05
775.087	0.07
775.263	0.1
775.438	-0.17
775.613	-0.02
775.788	-0.06
775.964	0.09
776.139	0.21
776.314	-0.08
776.489	0.06
776.664	-0
776.839	-0.11
777.014	-0.02
777.19	0.15
777.365	0.17
777.54	0.15
777.715	-0.03
777.89	-0.14
778.065	-0.08
778.24	-0.2
778.415	0.06
778.59	-0.09
778.765	-0.05
778.94	0.1
779.115	-0.06
779.289	0.08
779.464	0.19
779.639	0.14
779.814	-0.27
779.989	-0.21
780.164	0.17
780.339	0.04
780.513	0.08
780.688	-0.08
780.863	0.02
781.038	0.17
781.212	-0.29
781.387	0.09
781.562	0.39
781.737	-0.04
781.911	0.18
782.086	0.05
782.261	0.06
782.435	0.25
782.61	-0.06
782.784	0.03
782.959	0.32
783.134	-0.19
783.308	-0.04
783.483	-0.16
783.657	0.42
783.832	0.24
784.006	-0.38
784.181	0.07
784.355	0.11
784.53	-0.24
784.704	-0.11
784.878	0.18
785.053	0.26
785.227	0.17
785.402	0.16
785.576	-0.13
785.75	0.19
785.925	0.11
786.099	-0.03
786.273	0.24
786.448	0.32
786.622	0.28
786.796	-0.14
786.97	-0.09
787.145	0.45
787.319	-0.22
787.493	-0.09
787.667	-0.08
787.841	-0.03
788.015	0.16
788.19	-0.1
788.364	0.05
788.538	0.21
788.712	0.21
788.886	0.01
789.06	0.2
789.234	0.16
789.408	-0.31
789.582	0.04
789.756	-0.03
789.93	0.06
790.104	0.02
790.278	0.04
790.452	-0.2
790.626	0.1
790.8	0.05
790.973	0.05
791.147	0.23
791.321	0.26
791.495	0.19
791.669	0.09
791.843	0.12
792.016	0.05
792.19	0.3
792.364	-0.17
792.538	0.57
792.711	0.33
792.885	-0.11
793.059	-0.1
793.233	-0.23
793.406	0.29
793.58	0.09
793.754	0.07
793.927	0.11
794.101	0.42
794.274	0.03
794.448	0.32
794.622	-0
794.795	0.23
794.969	-0.06
795.142	0.37
795.316	0.1
795.489	-0
795.663	0.43
795.836	-0.1
796.009	-0.08
796.183	0.41
796.356	0.01
796.53	0.19
796.703	-0.05
796.876	0.62
797.05	0.06
797.223	-0.05
797.396	0.31
797.57	0.15
797.743	0.32
797.916	0.12
798.09	0.15
798.263	0.33
798.436	0.17
798.609	-0.05
798.782	-0.05
798.956	0.28
799.129	-0.11
799.302	0.11
799.475	-0.11
799.648	-0.21
799.821	-0.01
799.994	0.25
800.167	-0.32
800.34	0.01
800.514	-0
800.687	-0.1
800.86	-0.04
801.033	0.11
801.206	-0.09
801.379	-0.12
801.551	0.27
801.724	0.43
801.897	0.37
802.07	-0.15
802.243	-0.39
802.416	-0
802.589	-0.3
802.762	0.18
802.935	0.17
803.107	0.06
803.28	0.14
803.453	0.33
803.626	-0.31
803.798	-0.05
803.971	-0
804.144	0.24
804.317	0.3
804.489	0.07
804.662	-0.05
804.835	0.15
805.007	-0.18
805.18	0.39
805.353	0.17
805.525	-0.07
805.698	-0.03
805.87	0.34
806.043	-0.09
806.215	-0.26
806.388	-0.02
806.56	-0.09
806.733	0.2
806.905	0.14
807.078	-0.1
807.25	0.03
807.423	0.26
807.595	0.09
807.768	0.11
807.94	0.46
808.112	0.29
808.285	-0.08
808.457	-0.24
808.629	0.37
808.802	0.12
808.974	0.24
809.146	-0.25
809.318	0.02
809.491	0.2
809.663	0.23
809.835	-0.13
810.007	0.07
810.18	0.09
810.352	-0.17
810.524	0.03
810.696	0
810.868	0.21
811.04	-0.16
811.212	0.03
811.384	0.44
811.556	0.2
811.728	-0.04
811.901	0.51
812.073	-0.07
812.245	0.06
812.417	0.15
812.589	-0.49
812.76	-0.17
812.932	0.05
813.104	0.59
813.276	0.18
813.448	0.36
813.62	0.45
813.792	0.2
813.964	-0.08
814.136	0.2
814.307	-0.27
814.479	-0.07
814.651	0.3
814.823	0.62
814.995	-0.02
815.166	-0.21
815.338	-0.3
815.51	-0.62
815.681	0.52
815.853	0.39
816.025	-0.1
816.196	0.77
816.368	0.31
816.54	-0.51
816.711	-0.35
816.883	0.25
817.054	0.77
817.226	-0.57
817.398	-0.13
817.569	0.14
817.741	0.02
817.912	-0.36
818.084	-0.15
818.255	0.67
818.426	0.09
818.598	-0.01
818.769	-0.03
818.941	-0.11
819.112	0.51
819.283	0.16
819.455	-0.34
819.626	0.42
819.798	0.53
819.969	-0.18
820.14	-0.02
820.311	-0.02
820.483	0.08
820.654	0.2
820.825	0.2
820.996	-0.26
821.168	-0.32
821.339	-0
821.51	-0.72
821.681	-0.17
821.852	-0.13
822.023	-0.19
822.195	-0.42
822.366	0.65
822.537	0.21
822.708	0.24
822.879	0.14
823.05	0.86
823.221	-0.02
823.392	0.24
823.563	0.51
823.734	0.35
823.905	-0.08
824.076	0.24
824.247	0.05
824.418	-0.03
824.589	0.48
824.759	0.2
824.93	0.33
825.101	-0.88
825.272	0.45
825.443	0.19
825.614	0.45
825.784	-0.95
825.955	0.99
826.126	0.71
826.297	0.52
826.467	0.95
826.638	1.34
826.809	-0.52
826.98	-0.12
827.15	0.47
827.321	-0.04
827.492	1.09
827.662	0.64
827.833	0.71
828.003	0.32
828.174	-0.46
828.345	-0.79
828.515	0.84
828.686	0.49
828.856	-0.27
829.027	0.25
829.197	0.43
829.368	0.15
829.538	0.52
829.709	-0.38
829.879	0.37
830.049	0.04
830.22	-0.27
830.39	0.22
830.56	0.31
830.731	-0.29
830.901	-0.58
831.072	0.06
831.242	0.38
831.412	-0.07
831.582	0.09
831.753	-0.66
831.923	0.8
832.093	-0.13
832.263	-0.77
832.434	-0.43
832.604	-0.4
832.774	0.84
832.944	-0.28
833.114	0.06
833.284	0.4
833.454	0.31
833.624	-0.11
833.795	-0.19
833.965	0.92
834.135	0.87
834.305	-0.37
834.475	-0.7
834.645	0.22
834.815	-0.32
834.985	-0.33
835.155	-0.24
835.325	0.47
835.494	-0.08
835.664	0.2
835.834	0.34
836.004	0.5
836.174	0.24
836.344	-0.09
836.514	-0.21
836.684	-0.55
836.853	0.19
837.023	0.04
837.193	-0.1
837.363	0.64
837.532	0.92
837.702	-0.44
837.872	-0.05
838.041	0.48
838.211	1.77
838.381	-0.95
838.55	-0.76
838.72	1.62
838.89	1.38
839.059	-0.19
839.229	-0.6
839.398	1.43
839.568	0.25
839.738	0.12
839.907	0.75
840.077	-0
840.246	-0.04
840.416	-0.15
840.585	-0.66
840.755	0.8
840.924	1.17
841.093	-0.66
841.263	-0.25
841.432	0.76
841.602	-0.57
841.771	-0.56
841.94	-0.01
842.11	1.69
842.279	1.26
842.448	-0.31
842.617	-0.27
842.787	1.47
842.956	-0.49
843.125	0.5
843.294	0.44
843.464	1.63
843.633	0.45
843.802	-0.9
843.971	0.99
844.14	0.88
844.309	0.17
844.479	-0.44
844.648	-0.72
844.817	-0.45
844.986	0.26
845.155	-0.23
845.324	-0.32
845.493	0.16
845.662	-0.71
845.831	0.34
846	-0.25
846.169	-0.5
846.338	1.2
846.507	0.37
846.676	0.72
846.844	-0.63
847.013	1.22
847.182	-0.08
847.351	0.28
847.52	-0
847.689	0.86
847.858	-0.13
848.026	0.06
848.195	-0.14
848.364	-0.19
848.533	-0.64
848.701	-0.62
848.87	0.8
849.039	0.77
849.207	0.32
849.376	1.11
849.545	1.09
849.713	-0.38
849.882	0.21
850.051	0.53
850.219	-0.16
850.388	0.39
850.556	0.64
850.725	-0.64
850.893	1.29
851.062	0.73
851.23	1.32
851.399	-0.87
851.567	-0.73
851.736	-0.82
851.904	-0.28
852.073	0.09
852.241	0.75
852.41	0.16
852.578	-0.18
852.746	-0.57
852.915	1.42
853.083	-0.06
853.251	-1.48
853.42	-0.27
853.588	0.26
853.756	0.93
853.924	0.06
854.093	-0.07
854.261	0.84
854.429	-1.16
854.597	1.09
854.765	-0.43
854.934	0.23
855.102	1.3
855.27	-0.13
855.438	0.56
855.606	0.15
855.774	1.33
855.942	-1
856.11	-1.68
856.278	0.49
856.446	0.33
856.614	-0.08
856.782	-0.5
856.95	0.96
857.118	0.48
857.286	0.44
857.454	0.29
857.622	1.42
857.79	1.06
857.958	-0.41
858.126	-0.22
858.294	-2.18
858.462	0.04
858.629	-0.58
858.797	0.03
858.965	1.5
859.133	-0.18
859.301	0.21
859.468	1.03
859.636	-0.31
859.804	1.2
859.971	1.84
860.139	-1.13
860.307	1.62
860.474	1.58
860.642	-0.11
860.81	-1.04
860.977	-0.9
861.145	2.14
861.313	-0.59
861.48	0.56
861.648	1.43
861.815	0.57
861.983	-1.69
862.15	-0.05
862.318	0.99
862.485	0.54
862.653	-0.47
862.82	0.2
862.988	1.69
863.155	0.82
863.322	-1.84
863.49	-1.67
863.657	0.69
863.824	2.65
863.992	0.94
864.159	-0.26
864.326	2.65
864.494	-1.59
864.661	2.4
864.828	-0.27
864.996	1.5
865.163	3.04
865.33	-1.02
865.497	-1.6
865.664	-0.32
865.832	-1.91
865.999	-0.32
866.166	-0.28
866.333	0.36
866.5	0.63
866.667	0.4
866.834	-0.14
867.001	3.04
867.168	-0.42
867.335	-0.33
867.502	-1.93
867.669	1.05
867.836	3.05
868.003	-0.87
868.17	2.1
868.337	1.78
868.504	1.67
868.671	-0.18
868.838	-0.67
869.005	-0.79
869.172	0.76
869.339	-0.66
869.505	0.09
869.672	0.63
869.839	0.68
870.006	0.94
870.173	-2.87
870.339	1.17
870.506	3.24
870.673	-0.85
870.84	1.97
871.006	1.38
871.173	0.29
871.34	1.16
871.506	0.19
871.673	-0.54
871.839	-0.49
872.006	1.13
872.173	0.59
872.339	1.8
872.506	2.3
872.672	0.4
872.839	-0.42
873.005	1.23
873.172	2.72
873.338	1.42
873.505	-0.12
873.671	-0.17
873.838	0.61
874.004	-2.3
874.171	-0.67
874.337	0.92
874.503	1.32
874.67	-0.14
874.836	-0.38
875.002	0.76
875.169	0.75
875.335	-0.79
875.501	0.89
875.668	1.78
875.834	1.65
876	0.62
876.166	1.25
876.332	0.79
876.499	4.15
876.665	0.56
876.831	1.4
876.997	4.35
877.163	1.34
877.329	-0.79
877.495	0.93
877.662	1.1
877.828	1.37
877.994	0.7
878.16	-0.78
878.326	-0.69
878.492	0.52
878.658	-0.39
878.824	1.17
878.99	0.76
879.156	0.17
879.322	0.6
879.487	0.63
879.653	-0.56
879.819	0.13
879.985	-0.32
880.151	-0.13
880.317	0.65
880.483	-0.21
880.648	2.8
880.814	-0.97
880.98	2.44
881.146	-3.1
881.312	-0.81
881.477	0.19
881.643	0.36
881.809	1.84
881.974	1.65
882.14	-0.57
882.306	-0.06
882.471	3.16
882.637	-0.4
882.803	1.61
882.968	3.46
883.134	2.82
883.299	0.28
883.465	-0.84
883.63	2.37
883.796	1.28
883.961	1.09
884.127	1.3
884.292	-3.4
884.458	-1.31
884.623	-1.31
