Data from Apollo_Calib_20240827__AbsoluteIrradiance__229__02-58-00-543.txt Node

Date: Wed Aug 28 02:58:00 BST 2024
User: biology
Spectrometer: FLMT08252
Trigger mode: 0
Integration Time (sec): 5.000000E-1
Scans to average: 5
Electric dark correction enabled: true
Nonlinearity correction enabled: false
Boxcar width: 0
XAxis mode: Wavelengths
Number of Pixels in Spectrum: 3648
>>>>>Begin Spectral Data<<<<<
179.588	-0
179.809	-0
180.03	-0
180.251	-0
180.473	-0
180.694	0
180.915	0
181.136	-0
181.357	0
181.578	-0
181.799	0
182.02	-0
182.241	0
182.462	-0
182.683	0
182.904	-0
183.125	-0
183.346	0
183.567	0
183.788	-0
184.009	-0
184.23	0
184.451	0
184.672	-0
184.892	-0
185.113	0
185.334	0
185.555	-0
185.776	-0
185.996	0
186.217	0
186.438	-0
186.659	-0
186.879	0
187.1	-0
187.321	-0
187.541	-0
187.762	-0
187.983	0
188.203	-0
188.424	-0
188.644	-0
188.865	-0
189.086	-0
189.306	-0
189.527	-0
189.747	-0
189.968	-0
190.188	-0
190.409	-0
190.629	0
190.849	-0
191.07	-0
191.29	0
191.511	0
191.731	-0
191.951	-0
192.172	-0
192.392	-0
192.612	-0
192.833	-0
193.053	0
193.273	0
193.493	-0
193.714	-0
193.934	0
194.154	0
194.374	-0
194.594	-0
194.815	0
195.035	0
195.255	0
195.475	-0
195.695	-0
195.915	0
196.135	0
196.355	0
196.575	0
196.795	-0
197.015	-0
197.235	-0
197.455	-0
197.675	0
197.895	-0
198.115	-0
198.335	0
198.555	-0
198.775	-0
198.995	-0
199.214	0
199.434	-0
199.654	-0
199.874	-0
200.094	0.92
200.313	-0.43
200.533	-0.62
200.753	-1.24
200.973	0.14
201.192	0.49
201.412	-1.32
201.632	-0.6
201.851	0.94
202.071	-0.71
202.291	-0.56
202.51	-0.35
202.73	0.01
202.95	-0.52
203.169	-1.29
203.389	-0.57
203.608	-0.12
203.828	-0.81
204.047	-0.47
204.267	0.14
204.486	0.12
204.706	-0.07
204.925	-0.19
205.145	-0.54
205.364	0.33
205.583	0.9
205.803	-0.63
206.022	-0.61
206.242	-0.15
206.461	0.13
206.68	-0.22
206.9	-0.21
207.119	0.42
207.338	0.56
207.557	-0.36
207.777	-0.2
207.996	-0.23
208.215	0.32
208.434	-0.2
208.654	-0.34
208.873	0.17
209.092	0.56
209.311	-0.33
209.53	-0.27
209.749	-0.21
209.968	-0.3
210.187	-0.17
210.407	-0.6
210.626	-0.23
210.845	0.46
211.064	-0.15
211.283	-0.4
211.502	0.12
211.721	-0.04
211.94	-0.07
212.159	0.13
212.377	0.18
212.596	0.12
212.815	-0.13
213.034	-0.13
213.253	0.36
213.472	0.21
213.691	-0.16
213.91	-0.51
214.128	-0.11
214.347	0.37
214.566	-0.53
214.785	-0.45
215.003	0.3
215.222	0.09
215.441	-0.04
215.66	-0.39
215.878	-0.3
216.097	-0.04
216.316	-0.48
216.534	-0.17
216.753	0.02
216.972	-0.05
217.19	-0.28
217.409	-0.41
217.627	-0.21
217.846	0.03
218.064	-0.1
218.283	-0.12
218.501	0.24
218.72	0.05
218.938	-0.27
219.157	-0.26
219.375	0.15
219.594	0.05
219.812	-0.31
220.031	-0.2
220.249	0.31
220.467	0.27
220.686	-0.28
220.904	-0.29
221.122	-0.3
221.341	0.37
221.559	-0.06
221.777	-0.24
221.995	0.01
222.214	0.09
222.432	-0.27
222.65	0
222.868	-0.13
223.086	0.13
223.305	-0.01
223.523	-0.22
223.741	0.19
223.959	-0.1
224.177	-0.42
224.395	-0.18
224.613	-0.06
224.831	0.07
225.049	-0.14
225.267	-0.2
225.485	-0.12
225.703	-0.02
225.921	-0.04
226.139	-0.09
226.357	0.14
226.575	-0.11
226.793	-0.1
227.011	0.54
227.229	0.03
227.447	0.15
227.665	-0.12
227.883	-0.33
228.1	-0.06
228.318	0.08
228.536	-0.39
228.754	-0.09
228.972	0.04
229.189	-0
229.407	-0.2
229.625	-0.1
229.843	0.05
230.06	0.02
230.278	-0.24
230.496	-0
230.713	0.01
230.931	0.13
231.149	-0.13
231.366	-0.33
231.584	-0.08
231.801	0.4
232.019	-0.1
232.236	-0.2
232.454	-0.19
232.671	-0.07
232.889	-0.1
233.106	-0.23
233.324	-0.15
233.541	0.02
233.759	-0
233.976	-0.2
234.194	-0.08
234.411	-0.1
234.628	-0.12
234.846	-0.05
235.063	-0.02
235.28	-0.08
235.498	-0.09
235.715	-0.22
235.932	0.14
236.149	-0.03
236.367	-0.23
236.584	-0.01
236.801	-0.03
237.018	0.04
237.236	0.05
237.453	-0.18
237.67	0.05
237.887	0
238.104	-0.01
238.321	-0.11
238.538	-0.16
238.755	0.08
238.973	-0.21
239.19	-0.08
239.407	0.02
239.624	0.08
239.841	-0.17
240.058	-0.11
240.275	-0.03
240.492	-0
240.709	-0.11
240.925	-0.06
241.142	0.03
241.359	-0.06
241.576	-0.18
241.793	-0.04
242.01	-0.05
242.227	0.09
242.444	0.01
242.66	0.09
242.877	0.05
243.094	-0.11
243.311	-0.04
243.527	-0.09
243.744	-0.01
243.961	0.03
244.178	-0.1
244.394	0.01
244.611	0.09
244.828	0.25
245.044	-0.15
245.261	-0.05
245.477	-0.02
245.694	0.13
245.911	-0.12
246.127	-0.02
246.344	0.1
246.56	0.07
246.777	-0.06
246.993	-0.02
247.21	0.04
247.426	-0.14
247.643	-0.14
247.859	-0.08
248.076	-0.12
248.292	0.28
248.508	-0.1
248.725	-0.04
248.941	-0
249.157	0.07
249.374	-0.12
249.59	-0.01
249.806	0.02
250.023	0.2
250.239	-0.18
250.455	-0.08
250.671	-0.05
250.888	0.04
251.104	-0.02
251.32	-0.11
251.536	0.04
251.752	-0.09
251.969	-0.02
252.185	-0.07
252.401	0.16
252.617	-0.08
252.833	-0.13
253.049	-0.06
253.265	-0.06
253.481	0.1
253.697	-0.04
253.913	-0.1
254.129	-0.04
254.345	-0.03
254.561	-0.04
254.777	-0.03
254.993	0.1
255.209	0
255.425	-0.03
255.641	-0.12
255.857	0.03
256.073	0.05
256.288	-0.14
256.504	-0.04
256.72	-0.02
256.936	0.09
257.152	-0.06
257.367	-0.09
257.583	-0.1
257.799	0.09
258.015	-0.11
258.23	-0.06
258.446	0.18
258.662	-0.07
258.877	-0.06
259.093	-0.09
259.309	-0.05
259.524	-0
259.74	-0.08
259.955	-0.11
260.171	-0.02
260.387	-0
260.602	0.02
260.818	-0.02
261.033	-0.07
261.249	-0.07
261.464	-0.08
261.68	-0.08
261.895	0.03
262.11	0.02
262.326	-0.06
262.541	-0.08
262.757	0.07
262.972	0.02
263.187	0.02
263.403	0.01
263.618	0.05
263.833	-0.04
264.049	-0.1
264.264	-0.04
264.479	0.04
264.694	0.14
264.91	-0.09
265.125	-0.04
265.34	0.07
265.555	0.15
265.77	0.02
265.986	-0.03
266.201	0.05
266.416	0.07
266.631	-0.04
266.846	-0.02
267.061	-0
267.276	0.03
267.491	-0.17
267.706	0.07
267.921	0.02
268.136	-0.01
268.351	-0.02
268.566	-0.1
268.781	0.05
268.996	0.05
269.211	-0.02
269.426	-0.09
269.641	-0.07
269.856	0.04
270.071	-0.1
270.285	-0.13
270.5	0.02
270.715	0.04
270.93	-0.03
271.145	0.03
271.359	0.08
271.574	-0.03
271.789	-0.04
272.004	-0.09
272.218	-0.01
272.433	0.03
272.648	-0.09
272.862	0.03
273.077	-0.03
273.292	0.03
273.506	-0.05
273.721	0.01
273.936	0.01
274.15	0.06
274.365	-0.06
274.579	-0.01
274.794	0
275.008	0.07
275.223	-0.08
275.437	-0.05
275.652	0.06
275.866	0.08
276.081	-0.01
276.295	0.08
276.509	0.02
276.724	0.01
276.938	-0.02
277.153	0.01
277.367	0.03
277.581	-0.06
277.796	-0.08
278.01	-0.03
278.224	0.05
278.438	0.15
278.653	-0.08
278.867	-0.11
279.081	-0.17
279.295	-0.06
279.51	0.02
279.724	-0.1
279.938	0.05
280.152	0.03
280.366	0.01
280.58	-0.05
280.794	0.08
281.008	0.01
281.222	0.06
281.437	0.1
281.651	-0.01
281.865	0.06
282.079	-0.04
282.293	-0.14
282.507	-0.05
282.721	0.01
282.935	-0.02
283.148	-0.11
283.362	-0.07
283.576	-0.05
283.79	-0.08
284.004	-0.07
284.218	0.06
284.432	-0.04
284.646	-0.01
284.859	-0.03
285.073	-0.04
285.287	-0.01
285.501	-0.01
285.714	-0.05
285.928	0.02
286.142	0.01
286.356	-0.05
286.569	-0.08
286.783	0.06
286.997	-0.02
287.21	0.02
287.424	0.01
287.637	-0.01
287.851	-0.04
288.065	0.09
288.278	-0.03
288.492	-0
288.705	-0.01
288.919	-0.02
289.132	-0.07
289.346	0.06
289.559	-0.09
289.773	-0.09
289.986	-0.02
290.2	0.02
290.413	0.04
290.626	-0.09
290.84	0
291.053	-0.01
291.267	0.11
291.48	0.01
291.693	0.01
291.906	-0.05
292.12	-0.04
292.333	-0.02
292.546	-0.02
292.76	0.1
292.973	0.04
293.186	0.01
293.399	-0.04
293.612	0.03
293.826	-0.02
294.039	-0.01
294.252	-0.02
294.465	-0.01
294.678	0.02
294.891	0.02
295.104	-0.05
295.317	-0.02
295.53	-0.01
295.743	-0.01
295.956	-0.03
296.169	0.08
296.382	0.05
296.595	-0.03
296.808	-0.04
297.021	0.08
297.234	0.01
297.447	-0.01
297.66	0.02
297.873	0.05
298.086	0.03
298.299	-0.02
298.511	-0.04
298.724	-0
298.937	-0.12
299.15	-0.03
299.363	0.02
299.575	-0
299.788	0.01
300.001	-0.03
300.213	-0.06
300.426	-0.03
300.639	-0.01
300.852	-0.07
301.064	0.02
301.277	0.1
301.489	0.06
301.702	0.03
301.915	0.02
302.127	0.01
302.34	0.02
302.552	0.05
302.765	-0
302.977	0.04
303.19	-0.04
303.402	-0.01
303.615	0.01
303.827	-0.04
304.04	-0.03
304.252	-0.01
304.464	-0.05
304.677	0.11
304.889	0.03
305.102	-0.01
305.314	-0.06
305.526	0.05
305.739	0.02
305.951	-0.04
306.163	-0.04
306.375	0.04
306.588	-0.05
306.8	-0.04
307.012	-0.07
307.224	-0.02
307.436	0.09
307.649	-0.08
307.861	0.01
308.073	-0
308.285	-0.03
308.497	-0.03
308.709	-0.03
308.921	-0.01
309.133	0.05
309.346	-0.02
309.558	-0.06
309.77	0.04
309.982	0.08
310.194	0.05
310.406	-0.06
310.617	0.08
310.829	-0.02
311.041	0
311.253	-0.05
311.465	-0.01
311.677	-0.01
311.889	-0.01
312.101	-0.05
312.313	0.02
312.524	0.04
312.736	-0.05
312.948	-0.03
313.16	0.03
313.372	0.03
313.583	0.02
313.795	0.01
314.007	-0.01
314.218	0.06
314.43	-0.03
314.642	-0.05
314.853	-0.09
315.065	0.02
315.277	-0.02
315.488	-0.01
315.7	0.01
315.912	0.02
316.123	-0.03
316.335	0
316.546	0.06
316.758	-0.04
316.969	-0.04
317.181	0
317.392	0.03
317.604	0.07
317.815	-0.09
318.026	-0.08
318.238	-0.01
318.449	0.01
318.661	-0.08
318.872	-0.09
319.083	-0.06
319.295	-0.01
319.506	-0.04
319.717	-0.01
319.929	0.04
320.14	-0.02
320.351	0.01
320.562	-0.05
320.774	-0.03
320.985	-0.05
321.196	-0.04
321.407	-0.09
321.618	0.07
321.829	-0.02
322.041	0.02
322.252	-0.02
322.463	0.02
322.674	-0
322.885	-0.01
323.096	-0.04
323.307	-0.02
323.518	0.03
323.729	-0.03
323.94	0.01
324.151	0
324.362	0.01
324.573	0.01
324.784	-0.01
324.995	0.03
325.206	0.01
325.417	-0
325.628	-0.06
325.838	0.02
326.049	0.01
326.26	0.06
326.471	-0.08
326.682	0
326.892	0.02
327.103	-0.08
327.314	-0.09
327.525	0.04
327.735	0.01
327.946	-0.03
328.157	-0.03
328.368	-0.03
328.578	0.02
328.789	0.01
328.999	-0.02
329.21	-0.04
329.421	0.04
329.631	-0.08
329.842	-0.04
330.052	0
330.263	0.03
330.473	-0.01
330.684	-0
330.894	-0.06
331.105	0
331.315	-0.02
331.526	-0.07
331.736	0.09
331.947	-0
332.157	0.04
332.367	-0.05
332.578	0.09
332.788	0.06
332.999	0.04
333.209	-0.02
333.419	-0.1
333.629	0.01
333.84	0
334.05	-0.01
334.26	0.05
334.47	-0
334.681	0.01
334.891	-0.07
335.101	-0.02
335.311	0.04
335.521	-0.02
335.732	-0.06
335.942	0.04
336.152	0.02
336.362	0.02
336.572	-0
336.782	0.04
336.992	-0.03
337.202	-0.03
337.412	-0.02
337.622	0.01
337.832	0
338.042	-0.03
338.252	-0.08
338.462	-0.01
338.672	-0.01
338.882	0.02
339.092	-0.01
339.302	0.06
339.511	0.04
339.721	-0.01
339.931	-0.05
340.141	0.07
340.351	0.03
340.561	0.01
340.77	-0.06
340.98	0
341.19	0.03
341.4	-0.07
341.609	-0.04
341.819	-0.02
342.029	-0.06
342.238	-0.02
342.448	-0.03
342.658	0.04
342.867	0
343.077	0
343.286	0
343.496	0.04
343.706	0.04
343.915	-0.05
344.125	0.03
344.334	0.03
344.544	-0.07
344.753	-0.03
344.963	-0.03
345.172	-0.04
345.381	-0.04
345.591	-0.07
345.8	0
346.01	0.04
346.219	0.05
346.428	-0.13
346.638	-0.01
346.847	0.02
347.056	0.06
347.266	-0.06
347.475	0.03
347.684	0.06
347.893	0.05
348.103	0.02
348.312	-0
348.521	-0
348.73	0.01
348.94	0.02
349.149	-0.05
349.358	0
349.567	-0.07
349.776	-0.08
349.985	-0.01
350.194	0.07
350.403	0.04
350.612	-0.06
350.821	-0.03
351.03	0.01
351.239	-0.03
351.448	0.02
351.657	-0.07
351.866	0.07
352.075	-0.03
352.284	-0.06
352.493	-0.04
352.702	0.04
352.911	0
353.12	-0.01
353.329	-0.02
353.538	0.01
353.746	-0.02
353.955	-0.02
354.164	0.01
354.373	-0.06
354.582	0.03
354.79	-0.04
354.999	0.02
355.208	-0.03
355.416	0.09
355.625	-0.06
355.834	-0.04
356.042	-0.02
356.251	-0.01
356.46	-0.05
356.668	0.03
356.877	0.09
357.085	0.03
357.294	-0.04
357.503	0.01
357.711	0.01
357.92	0.11
358.128	0.04
358.337	-0.02
358.545	0.03
358.754	-0.02
358.962	0.03
359.17	-0.03
359.379	0.01
359.587	-0
359.796	-0.07
360.004	0.06
360.212	0
360.421	0.06
360.629	-0.03
360.837	0.02
361.046	-0
361.254	0.1
361.462	0.04
361.67	-0
361.879	-0.01
362.087	0.06
362.295	-0.02
362.503	-0.05
362.711	-0.03
362.92	-0.03
363.128	-0.03
363.336	-0.03
363.544	-0.03
363.752	-0.04
363.96	-0.02
364.168	-0.05
364.376	-0.02
364.584	0.01
364.792	0.01
365	0.02
365.208	0.01
365.416	0
365.624	0.04
365.832	-0.01
366.04	0.06
366.248	-0.01
366.456	0.01
366.664	0.01
366.872	-0.01
367.079	0
367.287	0.01
367.495	0.03
367.703	-0.04
367.911	-0.01
368.118	-0.01
368.326	0.01
368.534	-0.04
368.742	0.07
368.949	-0.06
369.157	-0.06
369.365	-0
369.572	-0.03
369.78	-0.04
369.988	0.02
370.195	-0
370.403	0.02
370.61	-0.05
370.818	0.01
371.026	0.05
371.233	-0.05
371.441	-0.01
371.648	-0.03
371.856	0.02
372.063	0.02
372.271	-0.02
372.478	-0.06
372.685	-0.02
372.893	0.07
373.1	0.01
373.308	-0.03
373.515	0.08
373.722	0.04
373.93	-0.03
374.137	0.01
374.344	0.04
374.552	-0
374.759	0.02
374.966	0.01
375.173	-0.02
375.381	0.07
375.588	-0
375.795	-0.06
376.002	-0.01
376.209	0.01
376.417	-0.02
376.624	0.04
376.831	0.01
377.038	-0.01
377.245	-0.09
377.452	0.01
377.659	-0.02
377.866	-0.01
378.073	0.01
378.28	-0
378.487	0.02
378.694	0.01
378.901	-0.01
379.108	-0
379.315	0.03
379.522	0.1
379.729	0.03
379.936	0.02
380.143	0.01
380.35	0.03
380.557	-0.02
380.763	-0.01
380.97	-0.01
381.177	0.06
381.384	0.02
381.591	-0.04
381.797	0.01
382.004	0.08
382.211	0.03
382.418	-0.02
382.624	0.02
382.831	0.01
383.038	-0.02
383.244	0.03
383.451	-0.02
383.658	0.02
383.864	-0.05
384.071	-0.02
384.277	0.09
384.484	-0.06
384.69	0.04
384.897	-0.02
385.103	-0.03
385.31	0
385.516	-0.01
385.723	-0.03
385.929	-0.04
386.136	-0.01
386.342	-0.02
386.549	-0.03
386.755	0.06
386.961	0.03
387.168	-0.03
387.374	-0
387.58	0.01
387.787	-0.03
387.993	0
388.199	-0.03
388.406	-0.07
388.612	0.01
388.818	-0.07
389.024	-0.03
389.231	-0.03
389.437	0.07
389.643	0.02
389.849	-0.02
390.055	-0.02
390.261	0.05
390.467	-0.03
390.674	-0.07
390.88	-0.02
391.086	0.03
391.292	-0.02
391.498	0.04
391.704	0.02
391.91	0
392.116	-0.01
392.322	-0.1
392.528	0.03
392.734	-0.01
392.94	-0
393.146	-0.04
393.352	0.01
393.557	-0.03
393.763	-0.04
393.969	-0.01
394.175	0.03
394.381	-0.03
394.587	-0.05
394.792	-0.02
394.998	0.03
395.204	0.04
395.41	-0.07
395.615	0.01
395.821	0.03
396.027	-0.01
396.233	-0.07
396.438	0.02
396.644	0.08
396.85	0.06
397.055	-0.03
397.261	-0.03
397.466	-0.02
397.672	0
397.878	0.03
398.083	0
398.289	-0.03
398.494	0.06
398.7	0.03
398.905	-0.05
399.111	0.06
399.316	-0.04
399.522	0.02
399.727	-0.04
399.932	0.01
400.138	0.01
400.343	0.05
400.549	0.01
400.754	-0.01
400.959	0.04
401.165	-0
401.37	0.04
401.575	0.13
401.78	0.03
401.986	-0.03
402.191	-0.02
402.396	0.01
402.601	0.04
402.807	0.02
403.012	0.01
403.217	0.1
403.422	0.06
403.627	0.04
403.832	-0.07
404.037	0.08
404.243	0.04
404.448	-0.04
404.653	-0
404.858	0.06
405.063	0.06
405.268	0.04
405.473	-0.01
405.678	0.02
405.883	0.17
406.088	0.05
406.293	-0.01
406.498	-0.03
406.703	0.07
406.907	0.01
407.112	0.02
407.317	0.02
407.522	0.08
407.727	-0.01
407.932	0.09
408.136	0.11
408.341	0.05
408.546	0.05
408.751	0.09
408.956	0.08
409.16	0.11
409.365	0.08
409.57	0.02
409.774	0.09
409.979	0.13
410.184	0.08
410.388	0.04
410.593	0.15
410.798	0.16
411.002	0.08
411.207	0.17
411.411	0.12
411.616	0.03
411.82	0.13
412.025	0.2
412.229	0.1
412.434	0.24
412.638	0.16
412.843	0.12
413.047	0.19
413.252	0.13
413.456	0.17
413.66	0.16
413.865	0.16
414.069	0.25
414.273	0.17
414.478	0.16
414.682	0.22
414.886	0.28
415.091	0.16
415.295	0.17
415.499	0.28
415.703	0.24
415.908	0.27
416.112	0.22
416.316	0.35
416.52	0.31
416.724	0.26
416.929	0.26
417.133	0.42
417.337	0.29
417.541	0.33
417.745	0.32
417.949	0.4
418.153	0.38
418.357	0.37
418.561	0.53
418.765	0.44
418.969	0.5
419.173	0.49
419.377	0.44
419.581	0.63
419.785	0.44
419.989	0.42
420.193	0.53
420.397	0.57
420.601	0.65
420.804	0.6
421.008	0.61
421.212	0.61
421.416	0.61
421.62	0.55
421.823	0.59
422.027	0.7
422.231	0.6
422.435	0.6
422.638	0.63
422.842	0.61
423.046	0.56
423.249	0.66
423.453	0.62
423.657	0.67
423.86	0.58
424.064	0.64
424.268	0.66
424.471	0.62
424.675	0.7
424.878	0.65
425.082	0.58
425.285	0.67
425.489	0.67
425.692	0.64
425.896	0.53
426.099	0.61
426.303	0.53
426.506	0.54
426.71	0.61
426.913	0.6
427.116	0.62
427.32	0.54
427.523	0.56
427.726	0.59
427.93	0.49
428.133	0.47
428.336	0.44
428.54	0.46
428.743	0.5
428.946	0.52
429.149	0.41
429.353	0.46
429.556	0.43
429.759	0.42
429.962	0.39
430.165	0.39
430.368	0.32
430.571	0.27
430.775	0.36
430.978	0.29
431.181	0.33
431.384	0.35
431.587	0.28
431.79	0.25
431.993	0.2
432.196	0.29
432.399	0.23
432.602	0.32
432.805	0.26
433.008	0.27
433.211	0.16
433.414	0.3
433.616	0.27
433.819	0.22
434.022	0.1
434.225	0.31
434.428	0.22
434.631	0.35
434.833	0.21
435.036	0.24
435.239	0.23
435.442	0.17
435.645	0.14
435.847	0.21
436.05	0.23
436.253	0.17
436.455	0.13
436.658	0.18
436.861	0.24
437.063	0.16
437.266	0.15
437.468	0.13
437.671	0.27
437.874	0.16
438.076	0.06
438.279	0.04
438.481	0.14
438.684	0.09
438.886	0.15
439.089	0.06
439.291	0.12
439.494	0.13
439.696	0.07
439.899	0.07
440.101	0.13
440.303	0.06
440.506	0.12
440.708	0.08
440.91	0.15
441.113	0.03
441.315	0.12
441.517	0.06
441.72	0.15
441.922	0.06
442.124	0.03
442.326	0.07
442.529	0.19
442.731	-0.01
442.933	0.15
443.135	0.07
443.337	0.02
443.539	0.04
443.742	0.03
443.944	0.11
444.146	-0.01
444.348	0.04
444.55	0.05
444.752	-0.03
444.954	-0.04
445.156	0.06
445.358	-0
445.56	0.06
445.762	0.01
445.964	0.03
446.166	-0.01
446.368	0.05
446.57	0.12
446.772	0.03
446.974	0.01
447.175	0.03
447.377	-0
447.579	0.04
447.781	-0.06
447.983	0.1
448.184	0.06
448.386	0.06
448.588	-0.02
448.79	0.01
448.991	-0.04
449.193	0.01
449.395	-0.04
449.597	0.09
449.798	0.05
450	0.04
450.202	-0.02
450.403	0.01
450.605	0.08
450.806	0.05
451.008	-0.06
451.21	0.03
451.411	0.07
451.613	-0.02
451.814	-0.03
452.016	0.06
452.217	0.04
452.419	0.07
452.62	0.01
452.821	0.04
453.023	0.05
453.224	0.09
453.426	-0.02
453.627	0
453.828	0.05
454.03	0.05
454.231	0.04
454.432	-0.04
454.634	0.14
454.835	-0.05
455.036	-0.05
455.238	0.03
455.439	0.08
455.64	-0.09
455.841	-0.06
456.042	0.07
456.244	0.03
456.445	-0.04
456.646	-0.06
456.847	0.03
457.048	0.04
457.249	0.08
457.45	0.19
457.651	-0.05
457.852	0.08
458.054	0.02
458.255	0.01
458.456	0
458.657	-0.01
458.858	-0.03
459.058	0
459.259	0.05
459.46	0.01
459.661	-0.05
459.862	0.09
460.063	-0.01
460.264	0.07
460.465	-0.01
460.666	0.06
460.866	-0.02
461.067	-0.02
461.268	0.01
461.469	-0.02
461.67	0
461.87	-0.03
462.071	-0.02
462.272	-0.05
462.473	0.01
462.673	0.03
462.874	-0.04
463.075	-0.04
463.275	-0.03
463.476	-0
463.676	0.05
463.877	-0.05
464.078	-0.05
464.278	0.01
464.479	-0.03
464.679	-0.02
464.88	-0.02
465.08	0.1
465.281	-0.04
465.481	-0
465.682	0.01
465.882	0.06
466.083	-0.04
466.283	0.02
466.483	0.01
466.684	-0.05
466.884	-0.01
467.085	0.01
467.285	0.03
467.485	-0.06
467.686	-0.02
467.886	-0.03
468.086	0
468.286	0.02
468.487	0
468.687	-0.07
468.887	-0.01
469.087	0.03
469.287	0.01
469.488	-0.04
469.688	0.05
469.888	0.03
470.088	0.03
470.288	0.01
470.488	0.04
470.688	-0.02
470.888	-0.01
471.088	-0.04
471.288	0.02
471.488	0.03
471.688	0.04
471.888	-0.03
472.088	0.06
472.288	0.01
472.488	-0.05
472.688	-0.01
472.888	-0.02
473.088	0
473.288	-0.03
473.488	-0.01
473.688	0.08
473.887	0
474.087	-0
474.287	-0.02
474.487	-0.04
474.687	0
474.886	-0.02
475.086	0
475.286	-0
475.486	-0.02
475.685	-0.01
475.885	-0.04
476.085	-0.02
476.284	0.02
476.484	-0.05
476.684	-0.01
476.883	0.07
477.083	0.01
477.282	-0.03
477.482	0.05
477.681	0.06
477.881	-0.02
478.08	-0.04
478.28	-0.02
478.479	-0
478.679	0.12
478.878	-0.04
479.078	-0.05
479.277	0.01
479.477	-0.01
479.676	0.04
479.875	-0.02
480.075	-0.05
480.274	0.01
480.473	-0.01
480.673	-0.05
480.872	0
481.071	-0.03
481.271	-0.02
481.47	-0.04
481.669	-0.03
481.868	0.02
482.067	-0.04
482.267	-0.02
482.466	-0.02
482.665	-0.02
482.864	-0.03
483.063	-0.01
483.262	0.01
483.461	0.03
483.661	0.01
483.86	-0.01
484.059	-0.01
484.258	0.02
484.457	-0.02
484.656	0.03
484.855	0.01
485.054	-0.04
485.253	-0.05
485.452	-0.04
485.651	-0.02
485.849	0.01
486.048	-0.03
486.247	-0.04
486.446	0.01
486.645	-0.05
486.844	-0.04
487.043	-0.02
487.241	-0
487.44	-0.02
487.639	0.02
487.838	0.02
488.037	0.02
488.235	0.04
488.434	-0.01
488.633	-0.04
488.831	0.02
489.03	0.01
489.229	0
489.427	-0.01
489.626	0.04
489.825	0.04
490.023	0.01
490.222	-0.02
490.42	0.02
490.619	0.05
490.817	0.02
491.016	-0.01
491.214	0.03
491.413	-0.03
491.611	-0.03
491.81	0
492.008	-0
492.207	0.01
492.405	0.02
492.604	-0.03
492.802	-0
493	-0.01
493.199	-0.03
493.397	-0.03
493.595	-0.01
493.794	-0.01
493.992	0.04
494.19	-0.01
494.388	0.01
494.587	-0.02
494.785	0.01
494.983	-0.05
495.181	-0.01
495.379	0.01
495.578	-0.01
495.776	-0
495.974	0.02
496.172	-0.01
496.37	-0.02
496.568	-0.04
496.766	-0.03
496.964	0.01
497.162	-0
497.36	-0.03
497.558	0.02
497.756	0.02
497.954	-0.02
498.152	-0.02
498.35	-0
498.548	-0.01
498.746	-0.01
498.944	-0.03
499.142	-0.02
499.34	-0.02
499.538	-0.01
499.736	-0.04
499.933	0.04
500.131	0.03
500.329	-0.01
500.527	0.04
500.725	0.06
500.922	0.01
501.12	-0
501.318	0.02
501.516	-0.03
501.713	-0
501.911	-0.02
502.109	-0.04
502.306	0.01
502.504	-0.01
502.701	-0.03
502.899	-0.02
503.097	0.05
503.294	0.01
503.492	-0.01
503.689	0
503.887	0.01
504.084	0.04
504.282	0.01
504.479	-0.03
504.677	-0.01
504.874	-0.02
505.072	-0
505.269	-0.02
505.466	0.03
505.664	-0.01
505.861	-0.05
506.059	-0.01
506.256	0.02
506.453	-0.03
506.651	0.06
506.848	0.01
507.045	0.01
507.242	-0.01
507.44	-0.02
507.637	0
507.834	0
508.031	0.02
508.229	-0.04
508.426	0.01
508.623	0.02
508.82	-0.02
509.017	-0.04
509.214	-0.03
509.411	-0
509.608	-0.02
509.805	-0.01
510.003	-0.02
510.2	-0.02
510.397	0.02
510.594	-0.03
510.791	-0.04
510.988	-0
511.184	0.01
511.381	0
511.578	-0.03
511.775	0.03
511.972	-0.03
512.169	-0.01
512.366	-0.01
512.563	0
512.76	-0.01
512.956	-0.01
513.153	-0.03
513.35	0.01
513.547	-0.03
513.744	-0.04
513.94	-0.04
514.137	-0
514.334	0.01
514.53	-0
514.727	0.01
514.924	0.04
515.12	-0.02
515.317	-0.06
515.514	-0.03
515.71	-0.03
515.907	-0.01
516.103	-0.02
516.3	0.01
516.497	0.01
516.693	0.02
516.89	-0
517.086	-0.04
517.283	0.01
517.479	0.02
517.676	-0.01
517.872	-0.02
518.068	-0.02
518.265	0
518.461	-0.02
518.658	-0.03
518.854	-0.01
519.05	-0.03
519.247	-0.01
519.443	0.01
519.639	0
519.836	-0.01
520.032	-0
520.228	-0.02
520.424	0.05
520.621	0.02
520.817	-0.01
521.013	0.02
521.209	0.04
521.405	0.02
521.601	-0
521.798	-0.02
521.994	0.04
522.19	-0.02
522.386	-0.01
522.582	-0.01
522.778	-0
522.974	-0
523.17	-0.01
523.366	0
523.562	0.03
523.758	0.01
523.954	-0.04
524.15	-0.01
524.346	0.03
524.542	-0.01
524.738	-0.02
524.934	-0
525.129	0.01
525.325	0.01
525.521	0.01
525.717	0.02
525.913	0.01
526.109	-0.01
526.304	-0
526.5	-0
526.696	0.01
526.892	-0.01
527.087	0.01
527.283	-0.01
527.479	0.02
527.674	-0.03
527.87	-0.01
528.066	-0.01
528.261	0.02
528.457	0.03
528.653	-0
528.848	-0.02
529.044	-0
529.239	-0.02
529.435	0.01
529.63	-0
529.826	0.05
530.021	0.01
530.217	0.01
530.412	-0.02
530.608	-0.03
530.803	-0.01
530.999	-0.01
531.194	-0.04
531.389	-0.01
531.585	-0.05
531.78	-0.02
531.975	-0
532.171	0.03
532.366	-0.01
532.561	0
532.757	-0.04
532.952	-0.03
533.147	-0
533.342	-0.02
533.538	-0.03
533.733	0.05
533.928	-0
534.123	-0.01
534.318	-0.03
534.513	-0.01
534.709	-0
534.904	-0.02
535.099	-0.02
535.294	-0.01
535.489	0
535.684	0
535.879	-0.03
536.074	-0
536.269	-0.03
536.464	0
536.659	0.01
536.854	-0.02
537.049	0.01
537.244	0.01
537.439	0
537.634	0.04
537.828	0
538.023	-0.01
538.218	-0.03
538.413	0.02
538.608	-0.05
538.803	-0.01
538.997	-0.04
539.192	0.02
539.387	0.02
539.582	0
539.776	0.02
539.971	-0.01
540.166	-0.01
540.36	-0.03
540.555	-0.01
540.75	-0.02
540.944	0.01
541.139	-0.02
541.334	-0.01
541.528	0
541.723	0.02
541.917	-0
542.112	-0.08
542.306	0
542.501	-0.01
542.695	-0.01
542.89	-0.04
543.084	-0
543.279	-0.02
543.473	-0.03
543.668	-0.01
543.862	-0.01
544.056	0.01
544.251	-0.01
544.445	0
544.64	-0.01
544.834	-0.04
545.028	0.01
545.222	0.01
545.417	0.02
545.611	0.01
545.805	-0
546	-0.02
546.194	-0.02
546.388	-0.02
546.582	0
546.776	0
546.97	-0.01
547.165	0.01
547.359	0.01
547.553	-0.02
547.747	0
547.941	-0.01
548.135	-0.01
548.329	-0
548.523	0.01
548.717	-0.01
548.911	-0.04
549.105	-0.01
549.299	0
549.493	0.01
549.687	-0
549.881	0
550.075	0.01
550.269	-0.04
550.463	0.01
550.657	-0.01
550.85	0
551.044	-0.02
551.238	-0
551.432	-0.02
551.626	-0.02
551.82	-0.02
552.013	-0.04
552.207	-0.01
552.401	0.01
552.594	0.01
552.788	-0.02
552.982	-0
553.176	-0.02
553.369	0.02
553.563	0.01
553.756	-0.03
553.95	-0.03
554.144	-0.03
554.337	-0.01
554.531	0.01
554.724	-0.01
554.918	-0
555.111	0.01
555.305	0
555.498	0.04
555.692	0.01
555.885	-0.03
556.079	-0.01
556.272	-0.04
556.466	0.02
556.659	-0
556.852	-0
557.046	-0.02
557.239	0.02
557.432	-0.01
557.626	-0.03
557.819	-0
558.012	0.01
558.206	0.01
558.399	-0
558.592	-0
558.785	-0.03
558.979	0.01
559.172	0
559.365	0.01
559.558	0
559.751	0.01
559.944	0.02
560.138	-0.01
560.331	-0.01
560.524	-0.01
560.717	-0
560.91	-0.01
561.103	0.01
561.296	-0.01
561.489	-0.02
561.682	0
561.875	0.02
562.068	0.02
562.261	-0.02
562.454	0.03
562.647	-0.02
562.84	0.02
563.032	-0.01
563.225	0
563.418	-0
563.611	-0.03
563.804	-0
563.997	-0.04
564.19	-0.04
564.382	0
564.575	-0
564.768	-0
564.961	-0.01
565.153	-0.03
565.346	-0.02
565.539	0.03
565.731	0.03
565.924	0.02
566.117	-0
566.309	-0.01
566.502	-0.03
566.695	-0
566.887	0
567.08	-0.01
567.272	-0.02
567.465	-0.02
567.657	-0.01
567.85	0.01
568.042	-0.01
568.235	0.04
568.427	-0.02
568.62	0.02
568.812	0.01
569.005	-0
569.197	-0.05
569.389	0.01
569.582	0.02
569.774	0
569.966	-0.04
570.159	-0.02
570.351	-0.02
570.543	-0.01
570.736	-0
570.928	-0.02
571.12	0.01
571.312	-0.03
571.505	-0.04
571.697	0.04
571.889	-0.02
572.081	-0.01
572.273	-0.03
572.465	0.03
572.658	-0
572.85	0.01
573.042	-0.01
573.234	-0.01
573.426	0.03
573.618	-0.03
573.81	-0
574.002	0.03
574.194	0.03
574.386	-0.04
574.578	-0.07
574.77	-0.02
574.962	-0.01
575.154	-0.04
575.346	-0.02
575.538	0
575.729	-0.03
575.921	-0.03
576.113	-0.01
576.305	0.03
576.497	-0.02
576.689	0.01
576.88	-0.03
577.072	0
577.264	-0.01
577.456	-0.03
577.647	-0.08
577.839	-0.01
578.031	0.03
578.223	-0.04
578.414	-0.05
578.606	0.02
578.798	0.02
578.989	-0.03
579.181	-0.02
579.372	-0.01
579.564	-0.02
579.755	-0
579.947	0.01
580.139	0.01
580.33	-0.07
580.522	-0.01
580.713	-0.07
580.905	-0.01
581.096	-0
581.287	-0.01
581.479	0
581.67	0.02
581.862	-0.01
582.053	-0.02
582.244	-0.06
582.436	-0.04
582.627	0.01
582.818	-0.05
583.01	-0.05
583.201	0.01
583.392	0.03
583.583	-0.01
583.775	-0.05
583.966	-0.04
584.157	-0.02
584.348	-0.04
584.54	-0.06
584.731	0.01
584.922	0
585.113	-0.04
585.304	0.03
585.495	0.02
585.686	-0
585.877	-0.02
586.068	0.02
586.259	0.02
586.45	0
586.641	-0.04
586.832	-0.07
587.023	-0.02
587.214	-0.04
587.405	-0.01
587.596	-0.01
587.787	0.04
587.978	-0.02
588.169	-0.02
588.36	-0.04
588.551	0.02
588.742	-0.02
588.932	0.01
589.123	-0.01
589.314	0.02
589.505	-0
589.696	0
589.886	-0.03
590.077	-0.04
590.268	-0.01
590.458	-0.04
590.649	-0.05
590.84	0.01
591.03	-0.04
591.221	-0.05
591.412	-0.07
591.602	-0
591.793	0.04
591.984	-0.06
592.174	0.01
592.365	0.08
592.555	-0.02
592.746	0.01
592.936	0.01
593.127	0.01
593.317	0.02
593.508	-0.03
593.698	-0.02
593.889	-0.02
594.079	0.01
594.269	-0.03
594.46	-0.02
594.65	-0.01
594.84	-0.03
595.031	-0.04
595.221	-0
595.411	-0.06
595.602	0
595.792	-0.04
595.982	-0.02
596.172	0.04
596.363	0.01
596.553	-0.02
596.743	-0
596.933	-0.02
597.123	0.06
597.314	-0.04
597.504	-0.04
597.694	0.02
597.884	0.01
598.074	-0.02
598.264	-0.04
598.454	0.01
598.644	-0.02
598.834	-0.02
599.024	-0.06
599.214	-0.03
599.404	0.01
599.594	-0.02
599.784	-0.04
599.974	0.03
600.164	-0.01
600.354	-0.05
600.544	-0.05
600.734	-0.01
600.924	0.02
601.114	-0.02
601.303	-0.02
601.493	-0.01
601.683	0
601.873	-0.03
602.063	-0.05
602.252	0.01
602.442	-0.07
602.632	-0.03
602.821	-0.06
603.011	-0.01
603.201	-0.01
603.39	-0.03
603.58	-0.03
603.77	-0.01
603.959	0.01
604.149	-0.04
604.339	-0.02
604.528	0.01
604.718	0.03
604.907	-0.02
605.097	-0.05
605.286	-0.06
605.476	0.06
605.665	-0.02
605.855	-0.04
606.044	0.04
606.234	0.01
606.423	-0
606.612	-0.05
606.802	-0.01
606.991	0.03
607.181	0.01
607.37	-0.06
607.559	-0
607.749	-0.07
607.938	-0.03
608.127	-0.02
608.316	-0.05
608.506	0.01
608.695	-0.02
608.884	-0.03
609.073	-0.02
609.263	0.01
609.452	0.01
609.641	0
609.83	-0.05
610.019	-0.01
610.208	-0.03
610.397	-0.01
610.586	-0.01
610.775	-0.05
610.965	-0.04
611.154	-0.03
611.343	-0.01
611.532	0
611.721	-0.04
611.91	-0.06
612.099	0.01
612.287	-0.02
612.476	-0.04
612.665	-0.01
612.854	-0.03
613.043	0.01
613.232	-0.04
613.421	-0.06
613.61	-0.01
613.798	-0.04
613.987	0
614.176	-0.02
614.365	-0
614.554	-0.01
614.742	0.02
614.931	-0.03
615.12	0.01
615.309	-0.01
615.497	-0.01
615.686	-0.05
615.875	-0.03
616.063	-0.03
616.252	0
616.44	-0.03
616.629	-0.04
616.818	0.04
617.006	-0.04
617.195	-0.03
617.383	0.02
617.572	0.03
617.76	0
617.949	-0.02
618.137	-0.01
618.326	-0.02
618.514	-0.03
618.703	-0.05
618.891	0.04
619.079	-0.07
619.268	0
619.456	-0.03
619.644	0.04
619.833	0.02
620.021	-0.04
620.209	-0.06
620.398	0.01
620.586	-0.03
620.774	-0.01
620.962	0.01
621.151	0.03
621.339	-0
621.527	-0.05
621.715	-0.07
621.903	-0.06
622.092	-0.06
622.28	0.01
622.468	-0.05
622.656	-0.05
622.844	0.04
623.032	-0.06
623.22	-0.05
623.408	0.01
623.596	-0.01
623.784	0.02
623.972	-0.05
624.16	-0.06
624.348	0.06
624.536	-0.04
624.724	-0.04
624.912	0.02
625.1	0.04
625.288	-0.06
625.476	-0.05
625.664	0.02
625.851	-0.04
626.039	-0.03
626.227	0.03
626.415	-0.01
626.603	-0.07
626.79	-0.02
626.978	-0.03
627.166	0
627.354	-0.05
627.541	-0.01
627.729	-0.04
627.917	0.02
628.104	0.01
628.292	-0.01
628.48	-0.01
628.667	-0.01
628.855	-0.01
629.042	0.02
629.23	-0.03
629.418	-0.04
629.605	-0.02
629.793	-0.03
629.98	-0.04
630.168	-0.02
630.355	0
630.543	-0.03
630.73	-0.03
630.917	0.01
631.105	0.03
631.292	-0.02
631.48	-0.04
631.667	0.02
631.854	-0.03
632.042	-0.03
632.229	-0.1
632.416	-0.03
632.604	-0.01
632.791	-0.06
632.978	0.02
633.165	0.03
633.353	0.06
633.54	0.02
633.727	-0.08
633.914	-0.04
634.101	-0.08
634.289	0.02
634.476	-0.04
634.663	-0.07
634.85	0
635.037	-0.05
635.224	-0.06
635.411	0.06
635.598	0.02
635.785	-0.06
635.972	-0.02
636.159	0.03
636.346	-0.06
636.533	-0.01
636.72	-0.05
636.907	-0.04
637.094	0.01
637.281	-0.01
637.468	-0.02
637.655	-0.01
637.842	-0
638.029	-0
638.215	-0.01
638.402	-0.01
638.589	-0.05
638.776	-0.02
638.963	-0.05
639.149	0.02
639.336	0.06
639.523	-0.04
639.709	-0.03
639.896	-0.03
640.083	0.06
640.27	-0.03
640.456	-0.03
640.643	-0
640.829	-0.07
641.016	-0
641.203	-0.08
641.389	0.01
641.576	-0.01
641.762	-0.03
641.949	-0.04
642.135	0.02
642.322	-0.02
642.508	-0.09
642.695	-0.04
642.881	-0.03
643.068	-0.02
643.254	0.01
643.441	0.02
643.627	-0.01
643.813	-0.05
644	0.03
644.186	-0.05
644.372	0.02
644.559	0.02
644.745	-0
644.931	-0.06
645.118	-0.03
645.304	-0.04
645.49	-0.01
645.676	-0.02
645.862	-0.01
646.049	0.05
646.235	-0.01
646.421	0.06
646.607	0.06
646.793	-0.06
646.979	-0.07
647.165	-0
647.352	-0.02
647.538	0.05
647.724	-0.03
647.91	0
648.096	0.02
648.282	0
648.468	-0.03
648.654	-0
648.84	0.02
649.026	-0
649.212	0.02
649.397	-0.04
649.583	-0.04
649.769	-0.01
649.955	-0.02
650.141	-0.01
650.327	0.01
650.513	-0.04
650.698	-0.02
650.884	-0.09
651.07	0.02
651.256	-0.01
651.442	-0.03
651.627	-0.05
651.813	-0
651.999	-0.03
652.184	0.01
652.37	-0.01
652.556	-0.01
652.741	0.04
652.927	-0.08
653.113	-0
653.298	-0
653.484	-0.04
653.669	-0.05
653.855	-0.01
654.04	0
654.226	-0.03
654.412	-0.02
654.597	-0.06
654.782	-0.02
654.968	0.01
655.153	0.01
655.339	-0.05
655.524	-0.07
655.71	0.04
655.895	-0
656.08	-0.03
656.266	0.03
656.451	-0.02
656.636	-0.07
656.822	-0.01
657.007	-0.04
657.192	-0.05
657.378	-0.07
657.563	0.01
657.748	0.03
657.933	0.03
658.118	-0.04
658.304	-0.03
658.489	0.02
658.674	0.01
658.859	-0.06
659.044	-0.03
659.229	0.01
659.414	-0.01
659.599	-0.04
659.785	-0.04
659.97	-0.04
660.155	0
660.34	-0
660.525	-0.03
660.71	-0
660.895	0.04
661.08	-0.01
661.264	-0.04
661.449	0.05
661.634	0.01
661.819	-0
662.004	-0.02
662.189	-0.08
662.374	-0.03
662.559	-0.05
662.743	-0.1
662.928	-0.01
663.113	-0.03
663.298	-0.08
663.483	-0.04
663.667	0.01
663.852	-0.11
664.037	0.03
664.221	-0.05
664.406	0.02
664.591	0
664.775	-0.02
664.96	-0.02
665.145	-0.02
665.329	0
665.514	-0.04
665.698	-0.04
665.883	-0.08
666.068	0.08
666.252	0.02
666.437	-0.04
666.621	-0.01
666.806	0.01
666.99	-0.03
667.174	-0.06
667.359	0.05
667.543	-0.03
667.728	0.01
667.912	-0.11
668.096	-0.03
668.281	-0.03
668.465	-0.04
668.649	-0.01
668.834	-0.07
669.018	-0.02
669.202	-0
669.387	-0.06
669.571	0.03
669.755	-0.09
669.939	-0.02
670.124	0
670.308	0.05
670.492	0.03
670.676	0.02
670.86	-0
671.044	-0.06
671.228	-0
671.413	-0.06
671.597	-0.02
671.781	-0.07
671.965	0
672.149	-0.02
672.333	-0.04
672.517	-0.05
672.701	0.02
672.885	-0.03
673.069	-0.06
673.253	0.01
673.437	-0.03
673.621	-0.06
673.804	-0.03
673.988	-0.03
674.172	-0.03
674.356	-0.1
674.54	-0.05
674.724	0.1
674.908	0
675.091	0.01
675.275	-0.03
675.459	0
675.643	0.02
675.826	0.01
676.01	-0
676.194	-0.03
676.377	-0
676.561	0.05
676.745	-0.01
676.928	-0.03
677.112	0.04
677.296	-0.08
677.479	-0.07
677.663	-0.03
677.846	-0
678.03	-0.03
678.213	-0.06
678.397	0.02
678.58	-0.03
678.764	-0.04
678.947	-0.03
679.131	-0.03
679.314	0.04
679.498	-0.02
679.681	-0.02
679.865	0.01
680.048	-0.02
680.231	-0
680.415	0
680.598	-0.02
680.781	-0.04
680.965	-0.02
681.148	0.02
681.331	-0.07
681.514	0.01
681.698	-0.06
681.881	0
682.064	-0.01
682.247	-0.01
682.43	-0.09
682.614	0
682.797	0.02
682.98	0.01
683.163	-0.05
683.346	0.02
683.529	-0.06
683.712	-0.08
683.895	0.04
684.078	-0.06
684.261	-0.03
684.444	-0.01
684.627	0.02
684.81	-0.03
684.993	-0.02
685.176	0.02
685.359	-0.04
685.542	-0.06
685.725	0.05
685.908	-0.01
686.091	-0.02
686.274	-0.01
686.457	-0.02
686.639	-0.04
686.822	0.01
687.005	-0
687.188	-0.01
687.371	0.05
687.553	-0.02
687.736	-0.02
687.919	0.04
688.102	0.07
688.284	-0.02
688.467	-0.01
688.65	-0.02
688.832	-0.01
689.015	-0.01
689.197	-0.11
689.38	0.08
689.563	0.08
689.745	-0.05
689.928	-0.05
690.11	-0
690.293	0.04
690.475	-0.07
690.658	-0.02
690.84	-0.01
691.023	-0.02
691.205	0.01
691.388	-0.03
691.57	0.05
691.752	0.01
691.935	-0.12
692.117	-0.05
692.3	-0.02
692.482	-0.04
692.664	-0.05
692.847	0.02
693.029	0.05
693.211	0.04
693.393	0.02
693.576	-0.04
693.758	-0.01
693.94	-0.04
694.122	-0.02
694.304	-0
694.487	-0.02
694.669	0.05
694.851	-0.11
695.033	-0.01
695.215	-0.01
695.397	-0.07
695.579	0.06
695.761	-0.08
695.943	-0.06
696.125	0.05
696.308	0.07
696.49	-0.11
696.671	0.16
696.853	0.02
697.035	0.1
697.217	-0.03
697.399	0.01
697.581	-0.05
697.763	0.01
697.945	-0.05
698.127	-0.01
698.309	-0.02
698.491	0.02
698.672	-0.02
698.854	0.02
699.036	0.05
699.218	-0.06
699.399	0.05
699.581	0.07
699.763	-0.01
699.945	-0.04
700.126	-0.09
700.308	-0
700.49	-0.05
700.671	-0.08
700.853	-0.06
701.035	-0
701.216	-0.03
701.398	-0.1
701.579	-0.05
701.761	0.05
701.943	-0.08
702.124	-0.05
702.306	-0.07
702.487	0.1
702.669	-0
702.85	-0.07
703.031	-0.09
703.213	0.07
703.394	0.05
703.576	-0.05
703.757	0.03
703.938	0.05
704.12	0.1
704.301	-0.02
704.483	-0.07
704.664	-0.04
704.845	0.07
705.026	0
705.208	-0.07
705.389	-0.06
705.57	-0.03
705.751	-0.07
705.933	-0.02
706.114	0.07
706.295	0.02
706.476	-0.02
706.657	0.06
706.838	0.05
707.02	0.07
707.201	-0.07
707.382	-0.06
707.563	0.01
707.744	-0.1
707.925	-0.08
708.106	-0.07
708.287	-0.06
708.468	0.07
708.649	-0.02
708.83	0.01
709.011	-0.04
709.192	0.02
709.373	-0.12
709.554	-0.01
709.734	-0
709.915	-0.01
710.096	-0.05
710.277	-0.1
710.458	-0.01
710.639	-0.01
710.819	-0.14
711	-0.03
711.181	0.04
711.362	0.04
711.542	-0.01
711.723	-0.05
711.904	0.07
712.085	0.03
712.265	0.01
712.446	-0.05
712.627	-0.01
712.807	-0.02
712.988	-0.06
713.168	-0.13
713.349	-0.02
713.53	-0.13
713.71	-0.12
713.891	-0.11
714.071	-0.04
714.252	-0.03
714.432	-0.07
714.613	-0.09
714.793	0.01
714.974	0.1
715.154	0.02
715.334	-0.04
715.515	0.02
715.695	-0.02
715.876	0.01
716.056	-0.01
716.236	-0.03
716.417	-0.08
716.597	-0.1
716.777	0.12
716.957	0
717.138	0.05
717.318	-0.04
717.498	-0.1
717.678	0.01
717.859	0.04
718.039	-0.06
718.219	0.02
718.399	0
718.579	-0.1
718.759	-0.16
718.939	-0.02
719.12	-0.02
719.3	-0.05
719.48	-0.17
719.66	-0.18
719.84	0.02
720.02	-0.01
720.2	-0.07
720.38	-0.03
720.56	0.12
720.74	0.03
720.92	0.02
721.1	0.04
721.279	0.03
721.459	0.04
721.639	-0.1
721.819	-0.06
721.999	-0.07
722.179	-0
722.359	-0.1
722.538	-0.01
722.718	0.02
722.898	-0.01
723.078	0.01
723.257	-0.05
723.437	-0
723.617	0.01
723.797	-0.04
723.976	0
724.156	0.09
724.336	0.11
724.515	0.19
724.695	-0.12
724.874	-0.09
725.054	-0.01
725.234	-0.09
725.413	-0
725.593	0.01
725.772	-0.02
725.952	-0.06
726.131	-0.04
726.311	-0.09
726.49	-0.02
726.67	-0.08
726.849	-0.06
727.028	0.05
727.208	0.01
727.387	-0
727.567	-0.04
727.746	-0.05
727.925	-0.03
728.105	-0.2
728.284	-0.12
728.463	-0.17
728.643	0.01
728.822	-0.13
729.001	-0.03
729.18	-0.02
729.359	0.08
729.539	0.01
729.718	-0.03
729.897	0.08
730.076	-0.02
730.255	-0.12
730.434	-0.01
730.614	0.01
730.793	0.1
730.972	-0.06
731.151	-0.04
731.33	0.02
731.509	-0.03
731.688	-0.05
731.867	-0.04
732.046	-0.09
732.225	0.21
732.404	-0.12
732.583	-0.08
732.762	-0.04
732.941	0.03
733.12	-0.09
733.298	0.01
733.477	0.01
733.656	0.01
733.835	-0.18
734.014	0
734.193	-0.08
734.371	0
734.55	0.04
734.729	-0.13
734.908	0.04
735.086	-0.07
735.265	0.12
735.444	-0.12
735.623	-0.07
735.801	-0.13
735.98	0.02
736.159	-0
736.337	0.08
736.516	-0.05
736.694	-0.09
736.873	-0.17
737.052	0.06
737.23	0.14
737.409	-0.17
737.587	0.12
737.766	-0.2
737.944	-0.05
738.123	-0.03
738.301	0.03
738.479	-0.07
738.658	0.04
738.836	-0.2
739.015	0.01
739.193	0.17
739.371	-0.13
739.55	-0.09
739.728	-0.11
739.906	0.14
740.085	0.12
740.263	-0
740.441	-0.23
740.62	0.17
740.798	0.16
740.976	-0.15
741.154	-0.11
741.332	0.16
741.511	-0.03
741.689	-0.08
741.867	0.07
742.045	0.04
742.223	-0.01
742.401	-0.14
742.579	-0.02
742.757	0.09
742.935	-0.11
743.114	-0.04
743.292	-0.07
743.47	-0.07
743.648	-0.06
743.826	-0.02
744.004	0.03
744.181	0.03
744.359	-0.08
744.537	-0.06
744.715	-0.1
744.893	-0.07
745.071	-0.08
745.249	-0.02
745.427	-0.06
745.605	0.02
745.782	0.02
745.96	-0.04
746.138	-0.03
746.316	0.08
746.493	-0.03
746.671	0.06
746.849	-0.06
747.027	0.17
747.204	-0.11
747.382	0.05
747.56	-0.13
747.737	-0.04
747.915	-0.09
748.093	-0.08
748.27	-0.19
748.448	-0.03
748.625	-0.21
748.803	-0.09
748.98	-0.12
749.158	0.04
749.335	-0.01
749.513	0
749.69	-0.02
749.868	-0.08
750.045	-0.01
750.223	-0.08
750.4	-0.24
750.578	0.15
750.755	-0.01
750.932	-0.28
751.11	0.04
751.287	-0.13
751.464	0.13
751.642	-0.08
751.819	0.11
751.996	-0.02
752.173	-0.05
752.351	0.01
752.528	0.01
752.705	-0.02
752.882	-0.11
753.06	-0.11
753.237	-0.01
753.414	0.14
753.591	0.12
753.768	-0.01
753.945	-0.07
754.122	-0.09
754.299	0.08
754.476	-0.09
754.654	0.07
754.831	0.06
755.008	0.09
755.185	-0.17
755.362	-0.14
755.539	0.1
755.716	-0.2
755.892	-0.03
756.069	-0.06
756.246	0.04
756.423	-0.07
756.6	0.1
756.777	-0.08
756.954	0.09
757.131	0.01
757.307	-0.11
757.484	-0.11
757.661	0.04
757.838	0.01
758.015	-0.12
758.191	0.07
758.368	0.01
758.545	0.16
758.721	-0.02
758.898	-0.13
759.075	-0.08
759.251	0
759.428	0.11
759.605	-0.17
759.781	-0.05
759.958	-0.02
760.134	-0.01
760.311	-0.05
760.488	0.16
760.664	0.07
760.841	-0.04
761.017	-0.2
761.194	0.1
761.37	0.07
761.547	0.09
761.723	-0.08
761.899	0.07
762.076	-0.17
762.252	-0.14
762.429	-0.05
762.605	0.16
762.781	-0.01
762.958	0.05
763.134	-0.03
763.31	-0.17
763.486	0.11
763.663	-0.27
763.839	0.08
764.015	-0.25
764.191	-0.05
764.368	-0.04
764.544	-0.06
764.72	-0.01
764.896	0.01
765.072	-0
765.248	-0.05
765.425	-0
765.601	-0.04
765.777	-0.03
765.953	-0.28
766.129	0.01
766.305	-0.2
766.481	-0.02
766.657	-0.01
766.833	0.08
767.009	-0.15
767.185	-0.14
767.361	-0.11
767.537	-0.16
767.713	0.05
767.889	-0.1
768.065	-0.13
768.24	-0.22
768.416	-0
768.592	-0.1
768.768	-0.05
768.944	-0.05
769.12	-0.27
769.295	-0.03
769.471	0.15
769.647	-0.03
769.823	0.11
769.998	-0.12
770.174	-0.15
770.35	0.42
770.525	0.26
770.701	0.01
770.877	-0.06
771.052	-0.08
771.228	0.06
771.403	0.03
771.579	0.02
771.755	0.34
771.93	-0.15
772.106	-0.24
772.281	-0.25
772.457	-0
772.632	0.13
772.808	-0.08
772.983	0.03
773.159	-0.34
773.334	0.03
773.509	-0.09
773.685	-0.13
773.86	0.31
774.036	0.29
774.211	0.06
774.386	-0.09
774.562	0.03
774.737	0.2
774.912	-0.25
775.087	0.08
775.263	0.02
775.438	0.08
775.613	-0.16
775.788	-0.05
775.964	0.1
776.139	0.3
776.314	-0.18
776.489	-0.1
776.664	0.08
776.839	-0.29
777.014	0.03
777.19	0.2
777.365	0.26
777.54	0.21
777.715	-0.31
777.89	-0.06
778.065	-0.32
778.24	-0.06
778.415	0.05
778.59	-0.22
778.765	-0.16
778.94	-0.02
779.115	-0.05
779.289	0.09
779.464	-0.05
779.639	-0.06
779.814	-0.18
779.989	-0.23
780.164	0.09
780.339	0.09
780.513	-0.13
780.688	-0.24
780.863	-0.02
781.038	0.14
781.212	-0.16
781.387	0.12
781.562	0.32
781.737	0.04
781.911	0.19
782.086	-0.28
782.261	-0.14
782.435	0.11
782.61	-0.03
782.784	0.06
782.959	0.27
783.134	-0.06
783.308	-0.3
783.483	-0.17
783.657	0.34
783.832	0.02
784.006	-0.42
784.181	-0.36
784.355	0.03
784.53	-0.25
784.704	-0.13
784.878	0.29
785.053	0.33
785.227	0.09
785.402	0.29
785.576	-0.39
785.75	-0.26
785.925	-0.27
786.099	0.14
786.273	0.04
786.448	0.14
786.622	-0.02
786.796	0.02
786.97	-0.27
787.145	0.4
787.319	-0.18
787.493	-0.05
787.667	-0.44
787.841	-0.17
788.015	0.26
788.19	-0.32
788.364	0.04
788.538	0.11
788.712	0.07
788.886	0.08
789.06	0.11
789.234	-0
789.408	-0.39
789.582	-0.13
789.756	-0.11
789.93	-0.34
790.104	-0.26
790.278	-0.2
790.452	-0.37
790.626	-0.12
790.8	-0.43
790.973	0.06
791.147	0.19
791.321	0.14
791.495	-0.07
791.669	0.07
791.843	0.12
792.016	0.05
792.19	0.26
792.364	-0.35
792.538	0.3
792.711	0.12
792.885	-0.25
793.059	-0.36
793.233	-0.51
793.406	0.14
793.58	0.05
793.754	0.15
793.927	-0.4
794.101	0.24
794.274	0.15
794.448	0.13
794.622	-0.38
794.795	0.24
794.969	-0.15
795.142	0.29
795.316	-0.19
795.489	-0.25
795.663	0.33
795.836	-0.27
796.009	-0.34
796.183	0.3
796.356	0.11
796.53	0.09
796.703	-0.18
796.876	0.48
797.05	0.02
797.223	-0.18
797.396	0.1
797.57	-0.13
797.743	0.38
797.916	0.06
798.09	-0.24
798.263	0.1
798.436	-0.04
798.609	-0.21
798.782	-0.08
798.956	-0.06
799.129	0.06
799.302	-0.16
799.475	-0.05
799.648	-0.25
799.821	-0.28
799.994	-0.21
800.167	-0.32
800.34	-0.06
800.514	-0.13
800.687	-0.2
800.86	-0.21
801.033	0.03
801.206	0.06
801.379	-0.18
801.551	0.19
801.724	-0.15
801.897	0.51
802.07	0.12
802.243	-0.48
802.416	-0.2
802.589	-0.19
802.762	0.19
802.935	0.01
803.107	0.34
803.28	0.35
803.453	-0.01
803.626	-0.22
803.798	0.15
803.971	-0.25
804.144	-0.04
804.317	0.18
804.489	0.14
804.662	-0.25
804.835	-0.31
805.007	-0.46
805.18	0.32
805.353	0.02
805.525	-0.29
805.698	-0.27
805.87	0.03
806.043	0.11
806.215	-0.38
806.388	-0.63
806.56	-0
806.733	0.15
806.905	0.14
807.078	-0.16
807.25	-0.26
807.423	0.4
807.595	0.05
807.768	0.01
807.94	0.28
808.112	-0.24
808.285	-0.22
808.457	-0.17
808.629	-0.14
808.802	0.1
808.974	0.25
809.146	-0.21
809.318	-0.21
809.491	-0.1
809.663	0.21
809.835	-0.21
810.007	-0.04
810.18	0.28
810.352	-0.62
810.524	-0.26
810.696	0.08
810.868	0.49
811.04	0.01
811.212	0.02
811.384	0.54
811.556	-0.19
811.728	-0.1
811.901	0.44
812.073	-0.2
812.245	0.21
812.417	0.13
812.589	-0.76
812.76	-0.26
812.932	0.09
813.104	0.47
813.276	0.01
813.448	0.25
813.62	-0.36
813.792	0.22
813.964	-0.11
814.136	0.21
814.307	-0.19
814.479	-0.25
814.651	-0.17
814.823	0.79
814.995	-0.24
815.166	-0.05
815.338	-0.24
815.51	-0.48
815.681	0.89
815.853	0.09
816.025	-0.34
816.196	0.57
816.368	0.08
816.54	-0.21
816.711	-0.59
816.883	0.11
817.054	1.08
817.226	-1.05
817.398	-0.25
817.569	-0.25
817.741	-0.25
817.912	0.04
818.084	-0.07
818.255	0.51
818.426	-0.47
818.598	-0.18
818.769	-0.11
818.941	0.38
819.112	0.21
819.283	-0.12
819.455	-0.57
819.626	-0.13
819.798	0.07
819.969	-0.16
820.14	-0.12
820.311	-0.21
820.483	0.23
820.654	0.21
820.825	-0.11
820.996	-0.11
821.168	-0.55
821.339	-0.29
821.51	-0.7
821.681	-0.06
821.852	-0.49
822.023	-0.25
822.195	-0.85
822.366	0.38
822.537	-0.27
822.708	0.18
822.879	-0.16
823.05	0.4
823.221	-0.12
823.392	-0.06
823.563	-0.17
823.734	0.37
823.905	-0.34
824.076	-0.71
824.247	0.09
824.418	-0.21
824.589	0.76
824.759	-0.4
824.93	0.32
825.101	-0.52
825.272	0.25
825.443	0.31
825.614	0.07
825.784	-1.35
825.955	0.91
826.126	0.28
826.297	-0.47
826.467	1.1
826.638	0.72
826.809	-0.79
826.98	0.03
827.15	0.64
827.321	-0.21
827.492	0.61
827.662	0.23
827.833	1.28
828.003	0.15
828.174	-0.75
828.345	-0.83
828.515	0.36
828.686	0.07
828.856	-0.09
829.027	0.23
829.197	-0.52
829.368	-0.17
829.538	-0.34
829.709	-0.49
829.879	0.07
830.049	-0.39
830.22	0.17
830.39	-0.48
830.56	0.3
830.731	-0.41
830.901	-0.58
831.072	-0.06
831.242	0.43
831.412	-0.16
831.582	-0.53
831.753	-0.69
831.923	0.15
832.093	-0.07
832.263	-0.12
832.434	-0.75
832.604	0.06
832.774	0.19
832.944	-0.36
833.114	-0.22
833.284	0.39
833.454	-0.91
833.624	-0.18
833.795	-0.63
833.965	0.12
834.135	0.2
834.305	-0.85
834.475	-1.02
834.645	-0.14
834.815	0.12
834.985	-0.57
835.155	-0.49
835.325	0.24
835.494	0.23
835.664	-0.46
835.834	-0.45
836.004	-0.06
836.174	0.49
836.344	-0.12
836.514	-1.21
836.684	-0.32
836.853	0.08
837.023	0.22
837.193	-0.5
837.363	0.24
837.532	0.22
837.702	-0.12
837.872	-0.5
838.041	0.27
838.211	1.89
838.381	-1.19
838.55	-0.47
838.72	1.74
838.89	0.72
839.059	-1.13
839.229	-0.94
839.398	1.58
839.568	-0.24
839.738	-0.42
839.907	0.44
840.077	0.2
840.246	-0.48
840.416	-0.83
840.585	-0.89
840.755	1.48
840.924	0.54
841.093	-0.81
841.263	-0.53
841.432	0.08
841.602	-0.28
841.771	-0.99
841.94	-0.35
842.11	1.32
842.279	1.04
842.448	-0.56
842.617	-0.68
842.787	0.96
842.956	-0.23
843.125	0.48
843.294	-0.56
843.464	0.8
843.633	-0.38
843.802	-1
843.971	-0.58
844.14	-0.12
844.309	0.6
844.479	-0.53
844.648	-0.97
844.817	-0.67
844.986	0.08
845.155	-0.33
845.324	-0.42
845.493	-0.2
845.662	-0.18
845.831	0.34
846	-0.28
846.169	-0.42
846.338	1.15
846.507	-0.23
846.676	-0.19
846.844	-0.3
847.013	0.32
847.182	-0.65
847.351	-1.13
847.52	-0.28
847.689	0.13
847.858	-0.55
848.026	-1.09
848.195	-0.44
848.364	-0.34
848.533	-0.64
848.701	-0.95
848.87	-0.15
849.039	1.03
849.207	0.42
849.376	1.24
849.545	1.22
849.713	-0.56
849.882	-0.74
850.051	0.14
850.219	0.58
850.388	0.5
850.556	-1.32
850.725	-1.52
850.893	0.68
851.062	-0.05
851.23	-0.49
851.399	-1.62
851.567	-0.23
851.736	-0.27
851.904	-0.81
852.073	-0.26
852.241	0.68
852.41	-0.42
852.578	-0.18
852.746	-1.32
852.915	0.89
853.083	-0.66
853.251	-2.13
853.42	-0.59
853.588	1.33
853.756	0.64
853.924	-0.35
854.093	-1.06
854.261	-0.95
854.429	-1.27
854.597	-0.4
854.765	-2.39
854.934	0.13
855.102	0.63
855.27	0.07
855.438	-0.16
855.606	1.33
855.774	1.34
855.942	-1.69
856.11	-0.83
856.278	-0.44
856.446	0.51
856.614	-0.55
856.782	-0.25
856.95	1.47
857.118	0.67
857.286	1.09
857.454	-1.25
857.622	1.25
857.79	1.04
857.958	-2.08
858.126	-0.58
858.294	-2.27
858.462	-0.57
858.629	-0.79
858.797	-1.22
858.965	-0.75
859.133	-0.11
859.301	0.63
859.468	0.76
859.636	-0.83
859.804	2.25
859.971	-0.86
860.139	-0.32
860.307	1.54
860.474	0.16
860.642	0.23
860.81	0.21
860.977	-0.47
861.145	-0.02
861.313	-0.65
861.48	0.07
861.648	0.28
861.815	-0.19
861.983	-0.99
862.15	-0.71
862.318	0.77
862.485	1.51
862.653	-1.5
862.82	-0.48
862.988	1.75
863.155	0.6
863.322	-0.56
863.49	-1.45
863.657	-1.15
863.824	2.03
863.992	-0.87
864.159	2.25
864.326	1.02
864.494	-0.5
864.661	3.2
864.828	-0.46
864.996	1.51
865.163	1.45
865.33	-0.25
865.497	-2.95
865.664	-1.54
865.832	-1.44
865.999	-0.94
866.166	-1.04
866.333	-0.33
866.5	0.22
866.667	-1.72
866.834	1.04
867.001	0.86
867.168	-2.98
867.335	-0.86
867.502	-2.11
867.669	0.57
867.836	2.87
868.003	-0.97
868.17	-0.21
868.337	-2.34
868.504	3.49
868.671	-1.81
868.838	-1.26
869.005	0.07
869.172	0.94
869.339	0.01
869.505	-0.56
869.672	0.07
869.839	1.35
870.006	0.06
870.173	-2.18
870.339	0.89
870.506	3.45
870.673	-2.22
870.84	1.4
871.006	-1.26
871.173	1.32
871.34	-0.01
871.506	-1.98
871.673	0.64
871.839	-1.9
872.006	-0.09
872.173	0.19
872.339	-0.43
872.506	0.61
872.672	0.59
872.839	-1.55
873.005	0.19
873.172	1.48
873.338	2.08
873.505	1.13
873.671	0.3
873.838	-0.04
874.004	-0.92
874.171	-1.3
874.337	1.62
874.503	1.25
874.67	-1.74
874.836	-1.11
875.002	2.21
875.169	2.48
875.335	0.41
875.501	-1.67
875.668	2.58
875.834	0.05
876	-0.91
876.166	0.01
876.332	1.3
876.499	3.1
876.665	-0.62
876.831	0.36
876.997	3.67
877.163	1.59
877.329	1.02
877.495	0.54
877.662	-0.02
877.828	0.27
877.994	-0.89
878.16	-2.52
878.326	-1.89
878.492	2.81
878.658	-1.75
878.824	0.76
878.99	1.24
879.156	-2.39
879.322	2.29
879.487	-1.76
879.653	1.55
879.819	-0.1
879.985	-1.07
880.151	-1.57
880.317	-0.23
880.483	-0.31
880.648	1.79
880.814	-3.33
880.98	1.06
881.146	-3.5
881.312	-1.04
881.477	-0.61
881.643	-0.29
881.809	1.99
881.974	1.2
882.14	-1.08
882.306	-0.89
882.471	3.05
882.637	-0.95
882.803	-0.14
882.968	3.49
883.134	3.96
883.299	-0.01
883.465	-1.59
883.63	1.3
883.796	0.55
883.961	-0.01
884.127	1
884.292	-5.85
884.458	-4.09
884.623	-4.08
