Data from Apollo_Calib_20240827__AbsoluteIrradiance__256__03-25-02-881.txt Node

Date: Wed Aug 28 03:25:02 BST 2024
User: biology
Spectrometer: FLMT08252
Trigger mode: 0
Integration Time (sec): 5.000000E-1
Scans to average: 5
Electric dark correction enabled: true
Nonlinearity correction enabled: false
Boxcar width: 0
XAxis mode: Wavelengths
Number of Pixels in Spectrum: 3648
>>>>>Begin Spectral Data<<<<<
179.588	-0
179.809	-0
180.03	-0
180.251	-0
180.473	-0
180.694	0
180.915	0
181.136	-0
181.357	-0
181.578	-0
181.799	-0
182.02	-0
182.241	0
182.462	-0
182.683	0
182.904	-0
183.125	0
183.346	0
183.567	0
183.788	-0
184.009	-0
184.23	0
184.451	0
184.672	-0
184.892	-0
185.113	0
185.334	0
185.555	-0
185.776	-0
185.996	0
186.217	0
186.438	0
186.659	-0
186.879	-0
187.1	-0
187.321	-0
187.541	-0
187.762	0
187.983	0
188.203	0
188.424	-0
188.644	-0
188.865	0
189.086	-0
189.306	-0
189.527	-0
189.747	0
189.968	0
190.188	0
190.409	0
190.629	0
190.849	-0
191.07	-0
191.29	0
191.511	0
191.731	-0
191.951	-0
192.172	0
192.392	-0
192.612	-0
192.833	-0
193.053	0
193.273	0
193.493	-0
193.714	-0
193.934	0
194.154	0
194.374	-0
194.594	0
194.815	0
195.035	-0
195.255	0
195.475	-0
195.695	0
195.915	0
196.135	-0
196.355	0
196.575	0
196.795	0
197.015	-0
197.235	-0
197.455	-0
197.675	0
197.895	-0
198.115	-0
198.335	0
198.555	-0
198.775	0
198.995	0
199.214	0
199.434	-0
199.654	-0
199.874	-0
200.094	0.76
200.313	-0.34
200.533	-0.36
200.753	-1.11
200.973	0.68
201.192	0.56
201.412	-1.09
201.632	-0.21
201.851	0.93
202.071	0.07
202.291	-0.18
202.51	-0.54
202.73	1.1
202.95	-0.15
203.169	-0.57
203.389	-0.17
203.608	0.28
203.828	-0.74
204.047	-0.05
204.267	0.57
204.486	0.14
204.706	0.2
204.925	-0.05
205.145	-0.57
205.364	0.34
205.583	0.56
205.803	-0.35
206.022	-0.25
206.242	0.21
206.461	-0.1
206.68	-0.01
206.9	0.14
207.119	0.37
207.338	0.42
207.557	-0.2
207.777	-0.25
207.996	-0.11
208.215	0.39
208.434	-0.05
208.654	-0.32
208.873	0.29
209.092	0.37
209.311	-0.13
209.53	0.09
209.749	-0.23
209.968	-0.11
210.187	0.01
210.407	-0.41
210.626	0.09
210.845	0.16
211.064	0.05
211.283	-0.74
211.502	0.39
211.721	-0.14
211.94	-0.19
212.159	0.05
212.377	0.41
212.596	0.43
212.815	-0.01
213.034	0.05
213.253	0.16
213.472	0.3
213.691	-0.34
213.91	-0.2
214.128	-0.14
214.347	0.52
214.566	-0.34
214.785	-0.3
215.003	0.13
215.222	0.16
215.441	-0.09
215.66	-0.28
215.878	-0.1
216.097	0.12
216.316	-0.22
216.534	-0.08
216.753	0.21
216.972	-0.16
217.19	-0.05
217.409	0.01
217.627	-0.26
217.846	-0.03
218.064	0.02
218.283	-0.15
218.501	0.34
218.72	0.31
218.938	-0.24
219.157	-0.21
219.375	0.3
219.594	0.26
219.812	-0.19
220.031	-0.2
220.249	0.13
220.467	0.29
220.686	-0.16
220.904	-0.03
221.122	-0.16
221.341	0.33
221.559	0.01
221.777	-0.24
221.995	0.09
222.214	0.11
222.432	0.01
222.65	0.18
222.868	-0.07
223.086	0.1
223.305	0.13
223.523	-0.07
223.741	0.3
223.959	-0.24
224.177	-0.31
224.395	-0.23
224.613	-0.03
224.831	0.14
225.049	-0.2
225.267	-0.04
225.485	0.04
225.703	-0.11
225.921	-0.03
226.139	-0.05
226.357	0.13
226.575	-0.05
226.793	-0.08
227.011	0.64
227.229	0.01
227.447	0.06
227.665	-0.18
227.883	-0.18
228.1	0.06
228.318	-0.01
228.536	-0.36
228.754	-0.17
228.972	0.14
229.189	0.18
229.407	-0.03
229.625	-0.01
229.843	0.14
230.06	0.27
230.278	-0.14
230.496	-0.01
230.713	0.12
230.931	0.21
231.149	-0.1
231.366	-0.25
231.584	-0.04
231.801	0.39
232.019	0.07
232.236	-0.22
232.454	-0.06
232.671	0.13
232.889	-0.01
233.106	-0.09
233.324	-0.03
233.541	-0.05
233.759	0.12
233.976	-0.04
234.194	-0.01
234.411	-0.15
234.628	-0.1
234.846	-0
235.063	0.06
235.28	-0.06
235.498	-0
235.715	-0.13
235.932	0.08
236.149	-0.02
236.367	-0.05
236.584	0.04
236.801	-0.02
237.018	0.09
237.236	0.07
237.453	-0.16
237.67	0.17
237.887	-0.06
238.104	-0.09
238.321	-0.04
238.538	-0.05
238.755	0.16
238.973	-0.13
239.19	0.08
239.407	0.09
239.624	-0.02
239.841	-0.16
240.058	-0.07
240.275	0.12
240.492	-0.08
240.709	-0.01
240.925	-0.04
241.142	0.07
241.359	-0.14
241.576	-0.1
241.793	0.03
242.01	0.05
242.227	0.18
242.444	0.01
242.66	0.06
242.877	0.04
243.094	-0.03
243.311	0.01
243.527	-0.05
243.744	0.06
243.961	0.13
244.178	-0.09
244.394	0.02
244.611	0.17
244.828	0.19
245.044	-0.11
245.261	-0
245.477	-0.05
245.694	0
245.911	-0.01
246.127	-0.04
246.344	0.09
246.56	0.04
246.777	-0.05
246.993	0.05
247.21	0.04
247.426	0.16
247.643	0.09
247.859	-0.02
248.076	-0.06
248.292	0.14
248.508	-0.01
248.725	0.06
248.941	0.11
249.157	0.12
249.374	-0.02
249.59	-0.01
249.806	0.02
250.023	0.04
250.239	-0.16
250.455	-0.06
250.671	0.02
250.888	0.03
251.104	0.04
251.32	-0.03
251.536	0.03
251.752	-0.04
251.969	-0
252.185	0.05
252.401	0.17
252.617	0.05
252.833	0.02
253.049	-0.02
253.265	-0.02
253.481	0.06
253.697	-0.03
253.913	-0.09
254.129	0.01
254.345	0.01
254.561	0.04
254.777	-0.01
254.993	0.06
255.209	0.02
255.425	-0.03
255.641	-0.05
255.857	0.06
256.073	-0.01
256.288	-0.1
256.504	-0.01
256.72	0.08
256.936	0.18
257.152	-0
257.367	-0.07
257.583	0.07
257.799	0.07
258.015	-0.09
258.23	-0
258.446	0.13
258.662	0.02
258.877	-0.01
259.093	-0.1
259.309	0.03
259.524	0.03
259.74	-0.07
259.955	-0.11
260.171	-0.02
260.387	-0.02
260.602	0.05
260.818	0.05
261.033	-0.08
261.249	-0.07
261.464	-0.09
261.68	-0.01
261.895	0.02
262.11	0.06
262.326	-0.09
262.541	-0.08
262.757	0.08
262.972	0.11
263.187	0.08
263.403	0.06
263.618	0.05
263.833	0
264.049	-0.09
264.264	-0.01
264.479	-0.02
264.694	0.13
264.91	-0.01
265.125	-0.01
265.34	0.07
265.555	0.19
265.77	0
265.986	-0.01
266.201	0.07
266.416	0.12
266.631	-0.06
266.846	-0.03
267.061	0.06
267.276	0.15
267.491	-0.13
267.706	0.06
267.921	0.04
268.136	-0.01
268.351	-0
268.566	-0.09
268.781	0.11
268.996	0.03
269.211	-0.04
269.426	-0.09
269.641	-0.03
269.856	0.08
270.071	-0.13
270.285	-0.1
270.5	0.03
270.715	0.07
270.93	0.08
271.145	0.04
271.359	0.06
271.574	-0.04
271.789	0.02
272.004	-0.08
272.218	-0.03
272.433	0.03
272.648	-0.02
272.862	0.07
273.077	0.04
273.292	0.03
273.506	-0.09
273.721	-0.04
273.936	0.05
274.15	0.08
274.365	-0.04
274.579	0.03
274.794	0.05
275.008	0.04
275.223	-0.05
275.437	-0.04
275.652	0.04
275.866	0.06
276.081	0.03
276.295	0.06
276.509	0.04
276.724	-0.02
276.938	0.02
277.153	0.06
277.367	0.07
277.581	-0.04
277.796	-0.04
278.01	-0.06
278.224	0.08
278.438	0.12
278.653	-0.06
278.867	-0.04
279.081	-0.13
279.295	0
279.51	0
279.724	-0.03
279.938	0.02
280.152	0.08
280.366	-0.05
280.58	0.01
280.794	0.08
281.008	-0.01
281.222	0.06
281.437	0.07
281.651	-0
281.865	0.09
282.079	-0.02
282.293	-0.1
282.507	-0.05
282.721	-0.01
282.935	0.05
283.148	-0.07
283.362	-0
283.576	-0.03
283.79	0.04
284.004	-0.05
284.218	0.09
284.432	-0.03
284.646	0.01
284.859	-0.01
285.073	0.03
285.287	0.07
285.501	-0
285.714	0.05
285.928	0.01
286.142	-0.02
286.356	-0.03
286.569	0.03
286.783	0.07
286.997	0.1
287.21	0.02
287.424	0.06
287.637	-0.01
287.851	0.01
288.065	0.03
288.278	-0.03
288.492	-0.01
288.705	0.02
288.919	0.06
289.132	-0.06
289.346	0.07
289.559	-0.08
289.773	-0.05
289.986	0.02
290.2	0.04
290.413	0.09
290.626	-0.04
290.84	0.01
291.053	0.02
291.267	0.11
291.48	0.01
291.693	0.01
291.906	-0.04
292.12	-0.02
292.333	-0.04
292.546	-0.04
292.76	0.12
292.973	0.03
293.186	0
293.399	-0.01
293.612	0.06
293.826	0.02
294.039	0.03
294.252	-0.02
294.465	0.05
294.678	0.08
294.891	0.02
295.104	-0.02
295.317	-0.01
295.53	0.06
295.743	0.01
295.956	0.01
296.169	0.09
296.382	0.07
296.595	0
296.808	-0.02
297.021	0.14
297.234	0.07
297.447	0.04
297.66	0.08
297.873	0.05
298.086	0.03
298.299	-0.06
298.511	-0.04
298.724	-0.01
298.937	-0.05
299.15	-0.04
299.363	0.03
299.575	0.09
299.788	0.05
300.001	0.03
300.213	-0.05
300.426	0.06
300.639	0.03
300.852	-0
301.064	0.06
301.277	0.09
301.489	0.07
301.702	0.07
301.915	0.03
302.127	-0
302.34	0.03
302.552	0.02
302.765	0
302.977	0.06
303.19	0
303.402	-0
303.615	-0
303.827	-0
304.04	0.02
304.252	0.05
304.464	0.04
304.677	0.14
304.889	0.07
305.102	-0.02
305.314	-0.02
305.526	0.09
305.739	0.04
305.951	-0.04
306.163	-0.02
306.375	0.12
306.588	-0.02
306.8	-0.06
307.012	-0.03
307.224	0.09
307.436	0.08
307.649	-0.05
307.861	-0.03
308.073	0.04
308.285	0.04
308.497	-0.03
308.709	-0.01
308.921	0.07
309.133	0.07
309.346	0.03
309.558	-0.01
309.77	0.01
309.982	0.07
310.194	0.02
310.406	-0.02
310.617	0.07
310.829	0.04
311.041	0.04
311.253	-0.02
311.465	0.02
311.677	-0.03
311.889	0.04
312.101	-0.03
312.313	0.02
312.524	0.07
312.736	-0.02
312.948	0
313.16	0.09
313.372	0.06
313.583	0.04
313.795	-0.01
314.007	-0.01
314.218	0.08
314.43	-0.01
314.642	-0.07
314.853	-0.05
315.065	0.02
315.277	-0
315.488	0.05
315.7	0.11
315.912	0.04
316.123	0.01
316.335	0.03
316.546	0.13
316.758	0.04
316.969	-0
317.181	0.02
317.392	0
317.604	0.07
317.815	-0.03
318.026	-0.03
318.238	-0
318.449	0.02
318.661	-0.03
318.872	-0.02
319.083	-0.03
319.295	-0
319.506	-0.01
319.717	0.01
319.929	0.02
320.14	0.04
320.351	0
320.562	-0.03
320.774	-0.03
320.985	0.04
321.196	-0.06
321.407	-0.04
321.618	0.08
321.829	0.04
322.041	0.05
322.252	0.03
322.463	0.04
322.674	0.02
322.885	-0.05
323.096	0.02
323.307	0.02
323.518	0.05
323.729	-0.05
323.94	0.04
324.151	-0
324.362	0.04
324.573	0.07
324.784	-0.04
324.995	0.1
325.206	0.02
325.417	-0.01
325.628	-0
325.838	0.03
326.049	0.01
326.26	0.03
326.471	0.01
326.682	0.08
326.892	0.04
327.103	-0.06
327.314	-0.04
327.525	0.04
327.735	0.03
327.946	-0.05
328.157	-0
328.368	0.04
328.578	0.01
328.789	0.06
328.999	0
329.21	-0.01
329.421	0.05
329.631	-0.04
329.842	-0.04
330.052	0.13
330.263	0.07
330.473	0.06
330.684	-0
330.894	-0
331.105	0.06
331.315	0.03
331.526	-0.04
331.736	0.11
331.947	0.07
332.157	0.06
332.367	-0.01
332.578	0.01
332.788	0.08
332.999	0.05
333.209	0.01
333.419	-0.02
333.629	0.04
333.84	0.06
334.05	0.02
334.26	0.07
334.47	0.01
334.681	0.08
334.891	-0.04
335.101	0.04
335.311	0.1
335.521	0.03
335.732	-0.04
335.942	0.09
336.152	0.05
336.362	0.02
336.572	0.01
336.782	0.07
336.992	-0.02
337.202	0.02
337.412	-0.05
337.622	0.05
337.832	-0.01
338.042	0.02
338.252	-0.05
338.462	0
338.672	0.04
338.882	0.04
339.092	0.03
339.302	0.09
339.511	0.06
339.721	0.01
339.931	-0.03
340.141	0.04
340.351	0.09
340.561	0.04
340.77	0.03
340.98	0.05
341.19	0.05
341.4	0.01
341.609	-0.01
341.819	0.01
342.029	-0.04
342.238	0.03
342.448	-0.01
342.658	0.01
342.867	0.02
343.077	-0
343.286	0.08
343.496	0.03
343.706	0.1
343.915	-0.02
344.125	-0.02
344.334	0.03
344.544	-0.06
344.753	-0
344.963	-0.02
345.172	-0
345.381	0.03
345.591	-0.03
345.8	0.07
346.01	0.11
346.219	0.06
346.428	-0.12
346.638	-0.02
346.847	-0.01
347.056	0.09
347.266	-0
347.475	0.11
347.684	0.06
347.893	0.03
348.103	0.07
348.312	0.03
348.521	-0.02
348.73	0.04
348.94	0.04
349.149	0
349.358	-0.02
349.567	0.02
349.776	-0.05
349.985	-0.02
350.194	0.03
350.403	0.08
350.612	-0.02
350.821	-0
351.03	0.04
351.239	0.01
351.448	0.01
351.657	-0
351.866	0.08
352.075	-0.03
352.284	0.05
352.493	-0.07
352.702	0.06
352.911	0.01
353.12	0.04
353.329	0.02
353.538	0.06
353.746	0.03
353.955	0.01
354.164	0.02
354.373	0.01
354.582	0.07
354.79	0.02
354.999	0.08
355.208	0.02
355.416	0.1
355.625	-0.03
355.834	0
356.042	0.05
356.251	-0.03
356.46	0
356.668	0.06
356.877	0.12
357.085	0.07
357.294	-0.1
357.503	0.08
357.711	0.01
357.92	0.18
358.128	0.01
358.337	-0.01
358.545	0.03
358.754	-0.01
358.962	0
359.17	0.02
359.379	0.04
359.587	0.07
359.796	0.02
360.004	0.03
360.212	0.05
360.421	0.04
360.629	-0.02
360.837	-0.02
361.046	0.06
361.254	0.15
361.462	0.02
361.67	-0
361.879	0.06
362.087	0.1
362.295	0.05
362.503	-0.01
362.711	-0.03
362.92	-0.01
363.128	-0
363.336	0
363.544	-0.02
363.752	-0.02
363.96	-0.01
364.168	0.03
364.376	0.05
364.584	-0
364.792	0.04
365	0.04
365.208	-0
365.416	0.06
365.624	0.05
365.832	0.06
366.04	0.05
366.248	0.04
366.456	0.05
366.664	0.01
366.872	0.05
367.079	-0
367.287	0.06
367.495	0.04
367.703	0.02
367.911	0.02
368.118	0.03
368.326	0.02
368.534	-0.05
368.742	0.09
368.949	-0
369.157	-0.03
369.365	0.08
369.572	0.02
369.78	-0.04
369.988	0.07
370.195	0.03
370.403	0.06
370.61	0
370.818	0.03
371.026	0.07
371.233	0.03
371.441	0.05
371.648	0.01
371.856	0.04
372.063	0.05
372.271	0.02
372.478	0.01
372.685	-0.03
372.893	0.08
373.1	0.03
373.308	-0.01
373.515	0.05
373.722	0.04
373.93	0.02
374.137	0.06
374.344	0.11
374.552	0.06
374.759	0.06
374.966	0.02
375.173	0.03
375.381	0.08
375.588	0
375.795	-0.01
376.002	0.06
376.209	-0.01
376.417	0.03
376.624	-0
376.831	0.06
377.038	0.03
377.245	-0.06
377.452	0.02
377.659	0.04
377.866	-0.01
378.073	0.03
378.28	-0
378.487	0.06
378.694	0.04
378.901	-0
379.108	0.01
379.315	0.09
379.522	0.12
379.729	0.03
379.936	0.03
380.143	0.01
380.35	0.04
380.557	0
380.763	0.02
380.97	0.05
381.177	0.05
381.384	0.03
381.591	-0.01
381.797	0.04
382.004	0.07
382.211	0.07
382.418	0.03
382.624	0.09
382.831	0.05
383.038	0.06
383.244	0.08
383.451	-0.01
383.658	0.07
383.864	0.04
384.071	0.02
384.277	0.1
384.484	-0.02
384.69	0.09
384.897	0.01
385.103	0.04
385.31	0.01
385.516	0.05
385.723	0.01
385.929	0.1
386.136	0.04
386.342	0.02
386.549	0.05
386.755	0.06
386.961	0.08
387.168	0.06
387.374	0.03
387.58	0.05
387.787	0.05
387.993	0.09
388.199	0.05
388.406	0.01
388.612	0.04
388.818	0.04
389.024	-0.01
389.231	0.07
389.437	0.14
389.643	0.12
389.849	0.06
390.055	0.02
390.261	0
390.467	0.08
390.674	0
390.88	0.07
391.086	0.06
391.292	-0
391.498	0.11
391.704	0.08
391.91	0.08
392.116	0.06
392.322	-0.02
392.528	0.07
392.734	0.03
392.94	0.07
393.146	0.03
393.352	0.1
393.557	0.02
393.763	0.05
393.969	0.12
394.175	0.06
394.381	0.13
394.587	0.01
394.792	0.07
394.998	0.11
395.204	0.16
395.41	0.08
395.615	0.16
395.821	0.11
396.027	0.12
396.233	0.1
396.438	0.14
396.644	0.18
396.85	0.15
397.055	0.1
397.261	0.15
397.466	0.22
397.672	0.15
397.878	0.19
398.083	0.21
398.289	0.18
398.494	0.2
398.7	0.21
398.905	0.13
399.111	0.23
399.316	0.14
399.522	0.25
399.727	0.22
399.932	0.19
400.138	0.21
400.343	0.25
400.549	0.24
400.754	0.25
400.959	0.24
401.165	0.27
401.37	0.32
401.575	0.25
401.78	0.32
401.986	0.29
402.191	0.29
402.396	0.36
402.601	0.42
402.807	0.48
403.012	0.43
403.217	0.51
403.422	0.42
403.627	0.48
403.832	0.46
404.037	0.55
404.243	0.59
404.448	0.55
404.653	0.57
404.858	0.62
405.063	0.7
405.268	0.63
405.473	0.7
405.678	0.69
405.883	0.96
406.088	0.87
406.293	0.77
406.498	0.87
406.703	0.89
406.907	0.98
407.112	0.96
407.317	1.06
407.522	1.2
407.727	1.12
407.932	1.22
408.136	1.46
408.341	1.32
408.546	1.46
408.751	1.47
408.956	1.53
409.16	1.64
409.365	1.69
409.57	1.73
409.774	1.79
409.979	1.84
410.184	1.93
410.388	1.99
410.593	2.14
410.798	2.29
411.002	2.37
411.207	2.48
411.411	2.55
411.616	2.59
411.82	2.77
412.025	2.84
412.229	2.96
412.434	3.13
412.638	3.16
412.843	3.35
413.047	3.41
413.252	3.45
413.456	3.7
413.66	3.84
413.865	3.84
414.069	4.04
414.273	4.18
414.478	4.17
414.682	4.38
414.886	4.62
415.091	4.69
415.295	4.8
415.499	5.09
415.703	5.11
415.908	5.49
416.112	5.43
416.316	5.89
416.52	5.96
416.724	6.1
416.929	6.3
417.133	6.69
417.337	6.64
417.541	6.89
417.745	7.09
417.949	7.28
418.153	7.52
418.357	7.65
418.561	8.11
418.765	8.14
418.969	8.43
419.173	8.76
419.377	8.92
419.581	9.26
419.785	9.43
419.989	9.61
420.193	9.88
420.397	10.04
420.601	10.16
420.804	10.46
421.008	10.46
421.212	10.69
421.416	10.51
421.62	10.48
421.823	10.63
422.027	10.72
422.231	10.67
422.435	10.51
422.638	10.46
422.842	10.54
423.046	10.71
423.249	10.93
423.453	10.77
423.657	10.77
423.86	10.81
424.064	11.05
424.268	10.9
424.471	10.77
424.675	10.77
424.878	10.77
425.082	10.72
425.285	11.04
425.489	10.47
425.692	10.45
425.896	10.21
426.099	10.24
426.303	10.14
426.506	10.11
426.71	10.09
426.913	9.95
427.116	9.79
427.32	9.57
427.523	9.24
427.726	9.34
427.93	9.23
428.133	9.18
428.336	8.92
428.54	8.79
428.743	8.68
428.946	8.62
429.149	8.28
429.353	7.93
429.556	7.84
429.759	7.47
429.962	7.23
430.165	7.08
430.368	6.52
430.571	6.24
430.775	6.11
430.978	5.83
431.181	5.64
431.384	5.52
431.587	5.35
431.79	5.42
431.993	5.13
432.196	5.07
432.399	5.08
432.602	5.02
432.805	4.79
433.008	4.91
433.211	4.61
433.414	4.62
433.616	4.48
433.819	4.3
434.022	4.22
434.225	4.17
434.428	4.04
434.631	4.08
434.833	3.78
435.036	3.77
435.239	3.71
435.442	3.7
435.645	3.56
435.847	3.48
436.05	3.47
436.253	3.38
436.455	3.19
436.658	3.19
436.861	3.15
437.063	3.02
437.266	2.9
437.468	2.86
437.671	3.01
437.874	2.78
438.076	2.64
438.279	2.61
438.481	2.57
438.684	2.53
438.886	2.56
439.089	2.35
439.291	2.36
439.494	2.39
439.696	2.17
439.899	2.25
440.101	2.27
440.303	2.11
440.506	2.16
440.708	2.15
440.91	2.11
441.113	1.97
441.315	2.03
441.517	1.88
441.72	1.89
441.922	1.7
442.124	1.62
442.326	1.7
442.529	1.73
442.731	1.55
442.933	1.59
443.135	1.45
443.337	1.37
443.539	1.39
443.742	1.3
443.944	1.3
444.146	1.21
444.348	1.19
444.55	1.11
444.752	1.17
444.954	1.02
445.156	1.07
445.358	1.03
445.56	1.1
445.762	1
445.964	0.97
446.166	0.92
446.368	0.89
446.57	0.96
446.772	0.87
446.974	0.8
447.175	0.83
447.377	0.74
447.579	0.87
447.781	0.72
447.983	0.85
448.184	0.71
448.386	0.72
448.588	0.57
448.79	0.68
448.991	0.64
449.193	0.68
449.395	0.63
449.597	0.7
449.798	0.61
450	0.59
450.202	0.55
450.403	0.54
450.605	0.58
450.806	0.52
451.008	0.49
451.21	0.56
451.411	0.52
451.613	0.44
451.814	0.47
452.016	0.53
452.217	0.47
452.419	0.5
452.62	0.41
452.821	0.49
453.023	0.48
453.224	0.46
453.426	0.41
453.627	0.38
453.828	0.43
454.03	0.4
454.231	0.46
454.432	0.33
454.634	0.44
454.835	0.27
455.036	0.32
455.238	0.42
455.439	0.42
455.64	0.26
455.841	0.31
456.042	0.41
456.244	0.35
456.445	0.25
456.646	0.2
456.847	0.28
457.048	0.35
457.249	0.37
457.45	0.49
457.651	0.21
457.852	0.34
458.054	0.23
458.255	0.26
458.456	0.3
458.657	0.25
458.858	0.26
459.058	0.21
459.259	0.27
459.46	0.24
459.661	0.18
459.862	0.36
460.063	0.18
460.264	0.25
460.465	0.13
460.666	0.36
460.866	0.13
461.067	0.21
461.268	0.18
461.469	0.14
461.67	0.18
461.87	0.18
462.071	0.12
462.272	0.1
462.473	0.19
462.673	0.24
462.874	0.09
463.075	0.22
463.275	0.13
463.476	0.2
463.676	0.18
463.877	0.2
464.078	0.16
464.278	0.22
464.479	0.13
464.679	0.14
464.88	0.17
465.08	0.24
465.281	0.07
465.481	0.07
465.682	0.12
465.882	0.17
466.083	0.14
466.283	0.13
466.483	0.13
466.684	0.06
466.884	0.07
467.085	0.09
467.285	0.13
467.485	0.08
467.686	0.13
467.886	0.05
468.086	0.08
468.286	0.1
468.487	0.17
468.687	0.06
468.887	0.11
469.087	0.11
469.287	0.1
469.488	0.03
469.688	0.15
469.888	0.16
470.088	0.12
470.288	0.16
470.488	0.13
470.688	0.05
470.888	0.08
471.088	0.04
471.288	0.09
471.488	0.12
471.688	0.09
471.888	0.08
472.088	0.13
472.288	0.11
472.488	0.07
472.688	0.03
472.888	0.09
473.088	0.08
473.288	0.11
473.488	0.08
473.688	0.12
473.887	0.07
474.087	0.06
474.287	0.14
474.487	0.06
474.687	0.08
474.886	0.07
475.086	0.05
475.286	0.07
475.486	0.07
475.685	0.08
475.885	0.05
476.085	0.08
476.284	0.09
476.484	0.06
476.684	0.08
476.883	0.1
477.083	0.08
477.282	0.04
477.482	0.13
477.681	0.1
477.881	0.08
478.08	0.02
478.28	0.02
478.479	0.11
478.679	0.16
478.878	0.02
479.078	0.01
479.277	0.03
479.477	0.06
479.676	0.09
479.875	0.03
480.075	-0.01
480.274	0.09
480.473	0.07
480.673	0.02
480.872	0.07
481.071	0.03
481.271	0.08
481.47	0.01
481.669	0.02
481.868	0.02
482.067	-0.02
482.267	0.02
482.466	-0
482.665	0.02
482.864	0.01
483.063	0.01
483.262	0.06
483.461	0.08
483.661	0.05
483.86	0.05
484.059	0.01
484.258	0.04
484.457	0.02
484.656	0.07
484.855	0.05
485.054	-0.02
485.253	0.01
485.452	-0.02
485.651	0.04
485.849	0.04
486.048	0.01
486.247	0.03
486.446	0.04
486.645	0.01
486.844	0.01
487.043	0.01
487.241	0.07
487.44	0.02
487.639	0.02
487.838	0.05
488.037	0.04
488.235	0.07
488.434	0.05
488.633	0.02
488.831	0.04
489.03	0.05
489.229	0.02
489.427	0.01
489.626	0.04
489.825	0.07
490.023	0.03
490.222	-0.01
490.42	0.05
490.619	0.06
490.817	0.06
491.016	0
491.214	0.06
491.413	0.01
491.611	0.01
491.81	0.03
492.008	0.05
492.207	0.06
492.405	0.03
492.604	-0.01
492.802	0.01
493	0.01
493.199	0.02
493.397	0.02
493.595	0.05
493.794	0
493.992	0.06
494.19	0.01
494.388	0.03
494.587	0.02
494.785	0.03
494.983	-0.02
495.181	0.05
495.379	0.04
495.578	0.01
495.776	0.05
495.974	0.05
496.172	0.03
496.37	0
496.568	-0.01
496.766	0.01
496.964	0.03
497.162	0.01
497.36	-0.01
497.558	0.04
497.756	0.04
497.954	0.02
498.152	-0.01
498.35	0.02
498.548	0.01
498.746	0.03
498.944	0
499.142	0.01
499.34	-0.02
499.538	0.03
499.736	-0.01
499.933	0.05
500.131	0.08
500.329	0.03
500.527	0.04
500.725	0.06
500.922	0.04
501.12	0.03
501.318	0.03
501.516	-0
501.713	0.04
501.911	0.01
502.109	-0.01
502.306	0.03
502.504	0.01
502.701	0
502.899	0
503.097	0.07
503.294	0.03
503.492	0.02
503.689	0.01
503.887	0.03
504.084	0.09
504.282	0.02
504.479	0.01
504.677	0.03
504.874	0
505.072	0.03
505.269	-0
505.466	0.04
505.664	0.03
505.861	-0.02
506.059	-0.01
506.256	0.05
506.453	-0.01
506.651	0.06
506.848	0.04
507.045	0.03
507.242	0.02
507.44	0
507.637	0.02
507.834	0.01
508.031	0.04
508.229	-0.01
508.426	0.05
508.623	0.03
508.82	-0
509.017	0
509.214	-0.01
509.411	0.01
509.608	-0.02
509.805	0
510.003	-0
510.2	-0.01
510.397	0.03
510.594	-0
510.791	-0.01
510.988	0.02
511.184	0.04
511.381	0.01
511.578	-0.01
511.775	0.02
511.972	0.01
512.169	0
512.366	0.01
512.563	0.02
512.76	-0.02
512.956	0.02
513.153	-0.02
513.35	0.02
513.547	0.01
513.744	-0.01
513.94	-0.03
514.137	0.02
514.334	0.01
514.53	0.02
514.727	0.02
514.924	0.07
515.12	-0.02
515.317	-0.01
515.514	-0.01
515.71	-0.02
515.907	0.01
516.103	0.03
516.3	0.01
516.497	0.04
516.693	0.05
516.89	0.01
517.086	0
517.283	0.05
517.479	0.01
517.676	0.01
517.872	-0.01
518.068	-0
518.265	-0
518.461	-0.01
518.658	-0.01
518.854	0.04
519.05	0.01
519.247	-0.02
519.443	0.05
519.639	0.02
519.836	0.04
520.032	0.01
520.228	0.01
520.424	0.05
520.621	0.02
520.817	-0
521.013	-0
521.209	0.02
521.405	0.04
521.601	0.02
521.798	0.01
521.994	0.08
522.19	0.01
522.386	-0.04
522.582	0.02
522.778	0.01
522.974	0.01
523.17	0.01
523.366	0.03
523.562	0.04
523.758	0.02
523.954	0
524.15	-0.01
524.346	0.03
524.542	-0
524.738	-0.02
524.934	0.01
525.129	0.02
525.325	0.03
525.521	-0
525.717	0.02
525.913	0.01
526.109	-0
526.304	0.01
526.5	0.04
526.696	0.02
526.892	0.02
527.087	0.02
527.283	-0.02
527.479	0.03
527.674	-0.01
527.87	0
528.066	-0.02
528.261	0.03
528.457	0.01
528.653	0.02
528.848	-0
529.044	0.03
529.239	0
529.435	0.03
529.63	0.01
529.826	0.06
530.021	0.03
530.217	0.02
530.412	-0.01
530.608	-0.02
530.803	0.03
530.999	0.01
531.194	-0.02
531.389	0.02
531.585	-0.04
531.78	-0
531.975	0.02
532.171	0.03
532.366	0.01
532.561	0.02
532.757	-0
532.952	-0.01
533.147	0.02
533.342	-0
533.538	0.01
533.733	0.03
533.928	0
534.123	-0.02
534.318	-0.02
534.513	0.01
534.709	0.01
534.904	-0.02
535.099	-0.01
535.294	-0
535.489	0.01
535.684	-0
535.879	-0.01
536.074	-0
536.269	-0.02
536.464	0.01
536.659	0.01
536.854	-0.02
537.049	0.02
537.244	0
537.439	0.01
537.634	0.01
537.828	-0
538.023	-0.01
538.218	-0.04
538.413	-0
538.608	-0.01
538.803	0.05
538.997	-0.03
539.192	0.02
539.387	0.03
539.582	-0.01
539.776	0.02
539.971	0.02
540.166	0
540.36	-0.03
540.555	0.02
540.75	0.01
540.944	0.01
541.139	-0.03
541.334	-0.02
541.528	0.02
541.723	0
541.917	-0.01
542.112	-0.02
542.306	-0
542.501	-0.01
542.695	0.01
542.89	-0.03
543.084	0.01
543.279	0.01
543.473	0.01
543.668	0
543.862	-0.01
544.056	0.03
544.251	0
544.445	0.03
544.64	-0.02
544.834	-0.02
545.028	0
545.222	0
545.417	0.04
545.611	0.01
545.805	0.02
546	-0.01
546.194	0.02
546.388	-0.01
546.582	0.02
546.776	0.01
546.97	0
547.165	0.02
547.359	0.02
547.553	-0.01
547.747	0.02
547.941	-0.01
548.135	-0.02
548.329	0.02
548.523	0.03
548.717	-0
548.911	0.01
549.105	0.02
549.299	0.01
549.493	0.03
549.687	0.01
549.881	0.01
550.075	-0.01
550.269	-0.05
550.463	0.03
550.657	-0.03
550.85	-0
551.044	-0.02
551.238	0.02
551.432	-0.01
551.626	-0.02
551.82	0.01
552.013	0.01
552.207	0.01
552.401	0
552.594	0.01
552.788	-0
552.982	-0.01
553.176	-0.02
553.369	0.02
553.563	0
553.756	-0.04
553.95	-0.02
554.144	-0.02
554.337	0.05
554.531	0.01
554.724	0.02
554.918	-0
555.111	0.04
555.305	0.01
555.498	0.04
555.692	0.03
555.885	-0.01
556.079	0.03
556.272	-0.02
556.466	0.04
556.659	0.01
556.852	0
557.046	0
557.239	0.03
557.432	-0.01
557.626	-0.02
557.819	0.01
558.012	0.02
558.206	0.03
558.399	-0
558.592	0.01
558.785	-0.01
558.979	0.03
559.172	0.02
559.365	0.01
559.558	0.02
559.751	0
559.944	0.03
560.138	-0
560.331	0.01
560.524	-0.02
560.717	0.01
560.91	0.01
561.103	0.03
561.296	0.01
561.489	0.03
561.682	-0.01
561.875	0.04
562.068	0.01
562.261	0.03
562.454	0.04
562.647	-0
562.84	0.03
563.032	-0.02
563.225	0.01
563.418	0
563.611	0
563.804	-0.01
563.997	-0.03
564.19	-0.02
564.382	0.01
564.575	-0.02
564.768	-0
564.961	-0.01
565.153	-0.02
565.346	0.03
565.539	0.02
565.731	0.02
565.924	0.02
566.117	0.01
566.309	0
566.502	-0.03
566.695	0.03
566.887	0.02
567.08	-0.05
567.272	-0
567.465	-0.01
567.657	0
567.85	0.02
568.042	0.02
568.235	0.03
568.427	0.01
568.62	0.02
568.812	-0
569.005	-0.01
569.197	-0.04
569.389	0.01
569.582	0
569.774	0.01
569.966	-0.01
570.159	-0.02
570.351	0.02
570.543	-0.02
570.736	-0.01
570.928	-0.03
571.12	0.02
571.312	-0.01
571.505	-0.01
571.697	0.02
571.889	-0.02
572.081	-0.02
572.273	0
572.465	0.01
572.658	-0.02
572.85	0.01
573.042	-0.01
573.234	-0
573.426	0.02
573.618	-0.03
573.81	0.01
574.002	0.04
574.194	0.03
574.386	-0.03
574.578	-0.06
574.77	-0
574.962	0.01
575.154	-0.04
575.346	-0.01
575.538	-0.01
575.729	-0.01
575.921	-0.02
576.113	-0.03
576.305	0.01
576.497	-0
576.689	-0.01
576.88	-0.02
577.072	0.03
577.264	-0.02
577.456	0.01
577.647	-0.07
577.839	0
578.031	0.05
578.223	-0.02
578.414	-0.04
578.606	0.04
578.798	0.01
578.989	-0.05
579.181	0
579.372	-0
579.564	-0.02
579.755	0
579.947	0.01
580.139	0.02
580.33	-0.05
580.522	0
580.713	-0.07
580.905	-0.01
581.096	0.02
581.287	0
581.479	0
581.67	0.03
581.862	0.01
582.053	-0.01
582.244	-0.06
582.436	0
582.627	-0
582.818	-0.01
583.01	-0.03
583.201	0.02
583.392	0.04
583.583	0.01
583.775	-0.02
583.966	-0.02
584.157	0.01
584.348	-0.01
584.54	-0.02
584.731	0.01
584.922	-0.02
585.113	-0.04
585.304	0.05
585.495	0.03
585.686	-0.01
585.877	0.01
586.068	0.02
586.259	0.04
586.45	-0
586.641	-0.02
586.832	-0.06
587.023	0.03
587.214	-0.01
587.405	0.02
587.596	-0.03
587.787	0.03
587.978	0.02
588.169	-0.05
588.36	-0.02
588.551	-0
588.742	-0.02
588.932	-0.01
589.123	-0.02
589.314	0.03
589.505	0.02
589.696	-0.01
589.886	-0.04
590.077	-0.04
590.268	0
590.458	-0.05
590.649	-0.05
590.84	0.01
591.03	-0.04
591.221	-0.03
591.412	-0.03
591.602	0.02
591.793	0.04
591.984	-0.04
592.174	-0.01
592.365	0.04
592.555	-0.01
592.746	-0.01
592.936	0.03
593.127	0.03
593.317	0.02
593.508	-0.03
593.698	-0.02
593.889	0.01
594.079	-0
594.269	-0.01
594.46	0
594.65	-0.01
594.84	0.01
595.031	-0.04
595.221	-0.03
595.411	-0.05
595.602	0.03
595.792	0
595.982	-0.03
596.172	0.07
596.363	0.03
596.553	-0.01
596.743	-0.02
596.933	-0.01
597.123	0.02
597.314	-0.02
597.504	-0.05
597.694	0.03
597.884	0
598.074	-0.03
598.264	-0.01
598.454	0.05
598.644	-0
598.834	-0.01
599.024	-0.07
599.214	-0.01
599.404	0.01
599.594	-0.02
599.784	-0.03
599.974	0.06
600.164	0.02
600.354	-0.05
600.544	-0.07
600.734	0.01
600.924	0.02
601.114	-0.04
601.303	-0.01
601.493	0.02
601.683	-0.03
601.873	-0.01
602.063	-0.07
602.252	0.04
602.442	-0.08
602.632	-0.06
602.821	-0.06
603.011	0.04
603.201	-0.02
603.39	-0.04
603.58	-0.04
603.77	0.03
603.959	0.01
604.149	-0.01
604.339	-0.03
604.528	0.04
604.718	0.04
604.907	-0
605.097	-0.04
605.286	-0.07
605.476	0.03
605.665	0.02
605.855	-0.03
606.044	0.02
606.234	-0
606.423	-0.04
606.612	-0.06
606.802	-0.01
606.991	0.01
607.181	-0
607.37	-0.06
607.559	0
607.749	-0.04
607.938	-0.01
608.127	-0.01
608.316	0
608.506	0
608.695	-0.02
608.884	-0.03
609.073	-0.01
609.263	0.02
609.452	0.01
609.641	0.02
609.83	-0.03
610.019	0.01
610.208	-0.05
610.397	-0.02
610.586	0.03
610.775	-0.01
610.965	-0.02
611.154	-0.03
611.343	-0
611.532	0
611.721	-0.02
611.91	-0.02
612.099	0.01
612.287	-0.02
612.476	-0.07
612.665	-0.01
612.854	-0.02
613.043	0.04
613.232	-0.03
613.421	-0.05
613.61	0.01
613.798	-0.04
613.987	0.01
614.176	-0.03
614.365	0.05
614.554	-0.01
614.742	-0.02
614.931	-0.02
615.12	0.03
615.309	-0.04
615.497	-0.01
615.686	-0.04
615.875	-0
616.063	-0
616.252	-0.03
616.44	-0.02
616.629	-0.02
616.818	0.02
617.006	-0.05
617.195	-0.01
617.383	0.02
617.572	0
617.76	-0.04
617.949	-0.02
618.137	0.02
618.326	0.03
618.514	-0.02
618.703	-0.04
618.891	0.05
619.079	-0.07
619.268	0.02
619.456	-0.03
619.644	0.02
619.833	-0.02
620.021	-0.02
620.209	-0.06
620.398	0.03
620.586	0
620.774	0.01
620.962	0
621.151	0.04
621.339	0.01
621.527	-0.04
621.715	-0.04
621.903	-0.05
622.092	-0.08
622.28	-0
622.468	-0.02
622.656	-0.05
622.844	0.02
623.032	0
623.22	-0.09
623.408	0.02
623.596	-0.01
623.784	0.04
623.972	-0.03
624.16	-0.03
624.348	0.03
624.536	-0.02
624.724	-0.05
624.912	0.05
625.1	0.03
625.288	-0.02
625.476	-0.04
625.664	0.02
625.851	-0.05
626.039	-0.03
626.227	0.01
626.415	0
626.603	-0.05
626.79	0.01
626.978	0
627.166	-0.01
627.354	0.01
627.541	-0.04
627.729	-0.07
627.917	-0.01
628.104	0.02
628.292	-0.01
628.48	-0.01
628.667	-0.01
628.855	-0.02
629.042	0
629.23	-0.03
629.418	-0.03
629.605	-0.01
629.793	-0.04
629.98	-0.02
630.168	-0
630.355	0
630.543	-0
630.73	-0.02
630.917	0.04
631.105	0.01
631.292	-0.02
631.48	-0.02
631.667	0.08
631.854	0.02
632.042	-0.02
632.229	-0.06
632.416	-0.01
632.604	-0.01
632.791	-0.05
632.978	0.03
633.165	-0
633.353	0.04
633.54	0.03
633.727	-0.08
633.914	-0.02
634.101	-0.08
634.289	0.05
634.476	-0.03
634.663	-0.05
634.85	-0.02
635.037	-0.06
635.224	-0.07
635.411	0.03
635.598	0.03
635.785	-0.04
635.972	-0.05
636.159	0.03
636.346	-0.02
636.533	-0
636.72	-0.05
636.907	-0.01
637.094	0.01
637.281	-0.03
637.468	0.04
637.655	-0.02
637.842	-0.01
638.029	-0.02
638.215	-0.01
638.402	-0.01
638.589	-0.04
638.776	-0.04
638.963	-0.05
639.149	0.05
639.336	0.08
639.523	-0.05
639.709	-0.01
639.896	-0.01
640.083	0.04
640.27	0.04
640.456	-0.03
640.643	-0
640.829	-0.08
641.016	-0.03
641.203	-0.03
641.389	0.01
641.576	0
641.762	0.02
641.949	-0.03
642.135	0.01
642.322	0.02
642.508	-0.06
642.695	-0.01
642.881	-0.07
643.068	0
643.254	-0.01
643.441	0.04
643.627	-0.02
643.813	-0.02
644	0.02
644.186	-0.03
644.372	0.01
644.559	0.02
644.745	-0.02
644.931	-0.02
645.118	-0.01
645.304	-0
645.49	-0.06
645.676	0
645.862	0.01
646.049	0.03
646.235	-0.02
646.421	0.05
646.607	0.05
646.793	-0.01
646.979	-0.05
647.165	0
647.352	0.02
647.538	0.03
647.724	0
647.91	-0.02
648.096	0.05
648.282	0.01
648.468	-0.01
648.654	0.01
648.84	0.01
649.026	0
649.212	-0.04
649.397	-0.02
649.583	-0.04
649.769	0.02
649.955	0.01
650.141	-0
650.327	0.07
650.513	-0.02
650.698	0.02
650.884	-0.08
651.07	0.02
651.256	0.01
651.442	-0.03
651.627	-0.04
651.813	0.02
651.999	-0.02
652.184	0.01
652.37	-0.03
652.556	-0.03
652.741	0.03
652.927	-0.13
653.113	-0.03
653.298	-0
653.484	-0.02
653.669	-0.05
653.855	-0.03
654.04	0.03
654.226	-0.02
654.412	-0.01
654.597	-0.05
654.782	0.02
654.968	0.01
655.153	-0.01
655.339	-0.04
655.524	-0.05
655.71	0.04
655.895	-0.05
656.08	-0.01
656.266	-0
656.451	0.01
656.636	-0.04
656.822	-0.01
657.007	-0.04
657.192	-0.05
657.378	-0.07
657.563	-0.02
657.748	0.01
657.933	0.01
658.118	-0.06
658.304	-0.03
658.489	0.03
658.674	0
658.859	-0.05
659.044	-0.01
659.229	0.01
659.414	-0.04
659.599	0.02
659.785	-0.08
659.97	-0.05
660.155	-0
660.34	-0.04
660.525	-0.06
660.71	-0.02
660.895	0.02
661.08	-0.02
661.264	-0.01
661.449	0.02
661.634	0.02
661.819	0.01
662.004	-0.01
662.189	-0.07
662.374	-0.03
662.559	-0.07
662.743	-0.06
662.928	-0.03
663.113	-0.06
663.298	-0.06
663.483	-0.06
663.667	-0.02
663.852	-0.06
664.037	0.03
664.221	-0.06
664.406	0.01
664.591	-0.03
664.775	0.01
664.96	-0.01
665.145	0.01
665.329	0.02
665.514	-0.05
665.698	-0.04
665.883	-0.09
666.068	0.02
666.252	0.02
666.437	-0.02
666.621	-0.02
666.806	-0
666.99	0
667.174	-0.1
667.359	0.04
667.543	-0.03
667.728	-0.01
667.912	-0.13
668.096	0.01
668.281	-0.03
668.465	-0
668.649	-0.01
668.834	-0.08
669.018	-0.03
669.202	-0.03
669.387	-0.04
669.571	0.03
669.755	-0.08
669.939	-0.04
670.124	-0.04
670.308	0.03
670.492	0.04
670.676	0.02
670.86	-0.03
671.044	-0.08
671.228	0.05
671.413	-0.04
671.597	-0.04
671.781	-0.04
671.965	0.04
672.149	-0.03
672.333	-0.02
672.517	-0.05
672.701	-0.01
672.885	-0.04
673.069	-0.08
673.253	0.06
673.437	-0.02
673.621	-0.04
673.804	-0.01
673.988	-0.03
674.172	-0.03
674.356	-0.08
674.54	-0.04
674.724	0.05
674.908	-0.03
675.091	0.03
675.275	-0.06
675.459	0.04
675.643	-0.05
675.826	-0.01
676.01	-0.01
676.194	-0.05
676.377	0.02
676.561	-0.01
676.745	-0.04
676.928	-0.01
677.112	0.02
677.296	-0.04
677.479	-0.03
677.663	-0.03
677.846	0.01
678.03	-0.03
678.213	-0.02
678.397	0.03
678.58	-0.02
678.764	-0.05
678.947	-0.05
679.131	-0.09
679.314	0.01
679.498	-0.01
679.681	-0.02
679.865	0.03
680.048	-0.01
680.231	-0.02
680.415	-0.03
680.598	-0.03
680.781	-0.03
680.965	-0.07
681.148	0.03
681.331	-0.05
681.514	0.03
681.698	-0.05
681.881	0.01
682.064	0
682.247	-0.02
682.43	-0.07
682.614	-0.02
682.797	0.04
682.98	0.01
683.163	-0.06
683.346	-0.03
683.529	0.02
683.712	-0.03
683.895	0.03
684.078	-0.11
684.261	0.01
684.444	0.01
684.627	-0.02
684.81	-0.02
684.993	-0.02
685.176	0.02
685.359	-0.05
685.542	-0.08
685.725	0.01
685.908	-0.01
686.091	-0.01
686.274	0.07
686.457	0.03
686.639	-0.02
686.822	0.01
687.005	-0.04
687.188	-0
687.371	0.09
687.553	0.01
687.736	0.01
687.919	0.09
688.102	0.1
688.284	0.03
688.467	-0.02
688.65	-0.02
688.832	-0.06
689.015	-0.05
689.197	-0.09
689.38	0.08
689.563	0.09
689.745	-0.06
689.928	-0.03
690.11	-0.05
690.293	0.01
690.475	-0.08
690.658	0.03
690.84	-0.06
691.023	0.01
691.205	-0.04
691.388	0.01
691.57	0.06
691.752	0.01
691.935	-0.09
692.117	-0.01
692.3	-0.02
692.482	-0.04
692.664	-0.02
692.847	-0
693.029	0.04
693.211	0.01
693.393	0.02
693.576	-0.03
693.758	-0.02
693.94	-0.05
694.122	-0.03
694.304	-0.03
694.487	-0
694.669	0.04
694.851	-0.09
695.033	-0
695.215	-0.03
695.397	-0.11
695.579	-0.01
695.761	-0.05
695.943	-0.11
696.125	0.06
696.308	0.01
696.49	-0.15
696.671	0.09
696.853	-0.02
697.035	0.14
697.217	-0.05
697.399	-0
697.581	-0.02
697.763	-0.04
697.945	-0.07
698.127	0.03
698.309	0.04
698.491	-0.03
698.672	0.04
698.854	0.07
699.036	0.09
699.218	-0.01
699.399	0.03
699.581	0.02
699.763	-0.01
699.945	-0.02
700.126	-0.03
700.308	-0.01
700.49	-0.02
700.671	-0.11
700.853	-0.05
701.035	-0.03
701.216	-0
701.398	-0.03
701.579	-0.01
701.761	0.04
701.943	-0.06
702.124	-0.08
702.306	-0.02
702.487	0.11
702.669	0.01
702.85	-0.03
703.031	-0.14
703.213	0.09
703.394	0.07
703.576	-0.04
703.757	0.06
703.938	0.05
704.12	0.14
704.301	-0.08
704.483	-0.05
704.664	-0.04
704.845	0.13
705.026	-0.03
705.208	-0.04
705.389	-0.06
705.57	0.01
705.751	-0.02
705.933	-0.01
706.114	0.08
706.295	0.01
706.476	-0.04
706.657	0.05
706.838	-0.03
707.02	0.05
707.201	-0.06
707.382	-0.01
707.563	0.04
707.744	-0.03
707.925	-0.11
708.106	-0.02
708.287	0
708.468	0.09
708.649	-0.04
708.83	-0
709.011	-0.13
709.192	-0
709.373	-0.12
709.554	-0.02
709.734	0.1
709.915	-0
710.096	-0
710.277	-0.13
710.458	0
710.639	0.01
710.819	-0.11
711	0.04
711.181	0.05
711.362	0.02
711.542	0.03
711.723	-0.06
711.904	0.09
712.085	0.04
712.265	-0.05
712.446	-0.08
712.627	-0.07
712.807	-0.05
712.988	0.01
713.168	-0.11
713.349	-0.02
713.53	-0.15
713.71	-0.07
713.891	-0.09
714.071	-0.03
714.252	-0.14
714.432	-0.05
714.613	-0.12
714.793	-0.04
714.974	-0
715.154	0.1
715.334	0.06
715.515	0.07
715.695	-0.01
715.876	0.02
716.056	-0
716.236	-0.06
716.417	-0.08
716.597	-0.07
716.777	0.16
716.957	-0.03
717.138	-0.03
717.318	-0.01
717.498	-0.1
717.678	-0.01
717.859	-0.03
718.039	-0.2
718.219	-0.06
718.399	0.04
718.579	-0.11
718.759	-0.07
718.939	-0.01
719.12	-0.03
719.3	0.04
719.48	-0.19
719.66	-0.13
719.84	0.04
720.02	-0.05
720.2	-0.11
720.38	0.04
720.56	0.04
720.74	-0.03
720.92	0.03
721.1	0.05
721.279	0.1
721.459	-0.01
721.639	-0.09
721.819	-0.03
721.999	-0.02
722.179	0.09
722.359	-0.14
722.538	-0.01
722.718	-0.05
722.898	-0.09
723.078	-0.04
723.257	-0.03
723.437	-0.01
723.617	-0
723.797	-0.08
723.976	-0.02
724.156	0.05
724.336	0.06
724.515	0.18
724.695	-0.16
724.874	-0.07
725.054	0.05
725.234	-0.04
725.413	-0.03
725.593	-0.08
725.772	-0.04
725.952	-0.04
726.131	-0.04
726.311	-0.02
726.49	0
726.67	-0.09
726.849	-0.09
727.028	-0.04
727.208	-0.02
727.387	-0.04
727.567	-0.13
727.746	-0.02
727.925	-0.05
728.105	-0.1
728.284	-0.06
728.463	-0.06
728.643	0.04
728.822	-0.14
729.001	-0.07
729.18	-0.04
729.359	0.1
729.539	-0.03
729.718	0.07
729.897	0.03
730.076	-0.02
730.255	-0.15
730.434	-0
730.614	-0.02
730.793	0.06
730.972	-0.09
731.151	-0.11
731.33	0.12
731.509	0.02
731.688	0.01
731.867	-0.03
732.046	-0.17
732.225	0.13
732.404	0
732.583	-0.15
732.762	-0.05
732.941	0.02
733.12	0.01
733.298	-0.05
733.477	0.08
733.656	-0.12
733.835	-0.05
734.014	0.11
734.193	-0.07
734.371	0.07
734.55	0.02
734.729	-0.13
734.908	-0.03
735.086	0.01
735.265	0.05
735.444	-0.19
735.623	-0.14
735.801	-0.16
735.98	0.02
736.159	-0.07
736.337	-0.06
736.516	-0.03
736.694	0.03
736.873	-0.04
737.052	0.06
737.23	-0.01
737.409	0.03
737.587	0.09
737.766	-0.13
737.944	-0.08
738.123	-0.01
738.301	-0.07
738.479	-0.11
738.658	-0.04
738.836	-0.26
739.015	-0.07
739.193	0.11
739.371	-0.15
739.55	-0.02
739.728	-0.21
739.906	0.08
740.085	0.23
740.263	-0.02
740.441	-0.09
740.62	0.04
740.798	0.09
740.976	-0.13
741.154	-0.15
741.332	0.07
741.511	-0.02
741.689	0.07
741.867	0.07
742.045	-0.07
742.223	-0.08
742.401	-0.08
742.579	-0.08
742.757	0.05
742.935	-0.17
743.114	-0.11
743.292	-0.07
743.47	-0.02
743.648	0.11
743.826	-0.13
744.004	-0.03
744.181	0.13
744.359	-0.17
744.537	0.02
744.715	-0.03
744.893	-0.13
745.071	0.11
745.249	-0.1
745.427	-0.02
745.605	0.02
745.782	0.01
745.96	0.08
746.138	0.01
746.316	0.02
746.493	-0.09
746.671	-0.05
746.849	-0.01
747.027	0.09
747.204	-0.11
747.382	0.08
747.56	-0.1
747.737	0.04
747.915	-0.12
748.093	-0.03
748.27	-0.11
748.448	-0.12
748.625	-0.1
748.803	-0.13
748.98	-0.09
749.158	-0.08
749.335	0.02
749.513	-0.02
749.69	-0.03
749.868	0
750.045	0.01
750.223	-0.14
750.4	-0.22
750.578	0.1
750.755	-0.11
750.932	-0.13
751.11	0.04
751.287	-0.12
751.464	0.11
751.642	-0.22
751.819	-0.01
751.996	0.04
752.173	-0.13
752.351	-0.15
752.528	-0.02
752.705	-0.07
752.882	-0.15
753.06	0.02
753.237	-0.06
753.414	0.13
753.591	0.19
753.768	0.04
753.945	-0.17
754.122	-0.08
754.299	0.1
754.476	-0.1
754.654	0.05
754.831	-0.04
755.008	-0.14
755.185	-0.12
755.362	-0.11
755.539	0.09
755.716	-0.08
755.892	-0.06
756.069	-0.01
756.246	-0
756.423	-0.04
756.6	0.1
756.777	-0.02
756.954	0.15
757.131	0.06
757.307	-0.13
757.484	-0.26
757.661	-0.04
757.838	-0.06
758.015	-0.21
758.191	0.01
758.368	-0.12
758.545	0.14
758.721	0.11
758.898	-0.19
759.075	0.02
759.251	0.02
759.428	0.02
759.605	-0.19
759.781	-0.1
759.958	0.05
760.134	0.02
760.311	-0.1
760.488	0.09
760.664	0.11
760.841	0.03
761.017	-0.14
761.194	0.04
761.37	0.03
761.547	-0.04
761.723	-0.1
761.899	0.07
762.076	-0.16
762.252	-0.11
762.429	-0.07
762.605	-0
762.781	-0.1
762.958	0.11
763.134	-0.03
763.31	-0.01
763.486	0.08
763.663	-0.27
763.839	0.01
764.015	-0.21
764.191	-0.12
764.368	0.06
764.544	-0.09
764.72	0.07
764.896	0.01
765.072	-0.08
765.248	-0.13
765.425	-0.1
765.601	-0.07
765.777	-0.05
765.953	-0.26
766.129	-0.14
766.305	-0.11
766.481	-0.01
766.657	0.08
766.833	0.13
767.009	-0.12
767.185	-0.08
767.361	-0.04
767.537	-0.18
767.713	0.19
767.889	-0.1
768.065	-0
768.24	0.01
768.416	0.05
768.592	-0.2
768.768	-0.08
768.944	0.04
769.12	-0.17
769.295	-0.03
769.471	0.01
769.647	-0.07
769.823	0.14
769.998	-0.03
770.174	-0.17
770.35	0.35
770.525	0.14
770.701	-0.03
770.877	0.01
771.052	-0.1
771.228	0.13
771.403	0.08
771.579	0.08
771.755	0.28
771.93	-0.12
772.106	-0.21
772.281	-0.26
772.457	-0.17
772.632	0.01
772.808	-0.16
772.983	-0.09
773.159	-0.19
773.334	0.16
773.509	0.04
773.685	-0.16
773.86	0.26
774.036	0.11
774.211	-0.08
774.386	-0.05
774.562	0.01
774.737	-0.02
774.912	-0.13
775.087	-0.04
775.263	-0.01
775.438	-0.1
775.613	-0.08
775.788	-0.08
775.964	0.06
776.139	0.29
776.314	-0.25
776.489	-0
776.664	-0.09
776.839	-0.1
777.014	0.18
777.19	0.11
777.365	0.23
777.54	0.24
777.715	-0.17
777.89	0.01
778.065	-0.22
778.24	-0.1
778.415	0.11
778.59	-0.23
778.765	-0.14
778.94	0.1
779.115	-0.09
779.289	-0.11
779.464	-0.06
779.639	-0.09
779.814	-0.33
779.989	-0.17
780.164	0.08
780.339	0.06
780.513	-0.13
780.688	-0.28
780.863	-0.01
781.038	0.1
781.212	-0.27
781.387	-0.1
781.562	0.25
781.737	0.03
781.911	0.13
782.086	-0.26
782.261	-0.05
782.435	0.27
782.61	-0.3
782.784	-0.08
782.959	0.09
783.134	-0.32
783.308	-0.17
783.483	-0.12
783.657	0.4
783.832	0.02
784.006	-0.57
784.181	-0.08
784.355	0.22
784.53	-0.26
784.704	-0.47
784.878	0.27
785.053	-0.06
785.227	0.02
785.402	0.41
785.576	-0.28
785.75	-0.06
785.925	-0.12
786.099	0.01
786.273	-0.07
786.448	-0
786.622	0.04
786.796	-0.03
786.97	-0.21
787.145	0.36
787.319	-0.31
787.493	-0.04
787.667	-0.42
787.841	-0.11
788.015	0.24
788.19	-0.18
788.364	0.05
788.538	0.1
788.712	0.16
788.886	-0.2
789.06	0.01
789.234	0.1
789.408	-0.17
789.582	-0.25
789.756	-0.01
789.93	-0.2
790.104	-0.23
790.278	-0.05
790.452	-0.24
790.626	0.19
790.8	-0.18
790.973	0.08
791.147	0.07
791.321	0.08
791.495	0.12
791.669	0.01
791.843	0.18
792.016	-0.1
792.19	0.39
792.364	-0.43
792.538	0.37
792.711	0.27
792.885	-0.24
793.059	-0.26
793.233	-0.53
793.406	0.21
793.58	-0.14
793.754	0.04
793.927	-0.1
794.101	0.23
794.274	-0.04
794.448	0.26
794.622	-0.3
794.795	0.37
794.969	-0.08
795.142	0.27
795.316	-0.2
795.489	-0.3
795.663	0.01
795.836	-0.09
796.009	-0.29
796.183	0.09
796.356	0.05
796.53	0.01
796.703	-0.13
796.876	0.39
797.05	-0.22
797.223	0.09
797.396	0.01
797.57	0.05
797.743	0.33
797.916	-0.18
798.09	-0.04
798.263	0.17
798.436	0.32
798.609	-0.32
798.782	-0.23
798.956	-0.06
799.129	-0.09
799.302	-0.15
799.475	-0.26
799.648	-0.25
799.821	-0.37
799.994	0.09
800.167	-0.33
800.34	0.05
800.514	-0.06
800.687	-0.27
800.86	-0.45
801.033	0.04
801.206	0.08
801.379	-0.29
801.551	0.03
801.724	0.08
801.897	0.41
802.07	0.03
802.243	-0.36
802.416	0.1
802.589	-0.1
802.762	0.06
802.935	-0.05
803.107	-0.06
803.28	0.13
803.453	0.3
803.626	-0.36
803.798	-0.42
803.971	-0.23
804.144	0.13
804.317	-0.09
804.489	0.25
804.662	-0.1
804.835	-0.49
805.007	-0.38
805.18	0.54
805.353	-0.13
805.525	-0.31
805.698	-0.14
805.87	0.13
806.043	0.03
806.215	-0.29
806.388	-0.53
806.56	-0.02
806.733	0.36
806.905	0.1
807.078	-0.26
807.25	-0.07
807.423	0.08
807.595	0.06
807.768	-0.15
807.94	-0.04
808.112	-0.04
808.285	-0.18
808.457	-0.32
808.629	0.02
808.802	0.19
808.974	0.05
809.146	-0.29
809.318	-0.56
809.491	0.14
809.663	0.27
809.835	-0.37
810.007	0.02
810.18	-0.03
810.352	-0.46
810.524	-0.24
810.696	0.22
810.868	0.29
811.04	-0.29
811.212	0.04
811.384	-0.03
811.556	-0.05
811.728	-0.01
811.901	0.57
812.073	0.05
812.245	-0.22
812.417	-0.2
812.589	-0.74
812.76	0.13
812.932	0.12
813.104	0.18
813.276	-0.07
813.448	0.31
813.62	0.03
813.792	-0.13
813.964	0.1
814.136	-0.1
814.307	-0.22
814.479	-0.29
814.651	-0.43
814.823	0.43
814.995	-0.07
815.166	0.03
815.338	-0.56
815.51	-0.68
815.681	0.85
815.853	-0.3
816.025	-0.18
816.196	0.6
816.368	0.08
816.54	-0.93
816.711	0.04
816.883	0.05
817.054	1.06
817.226	-0.26
817.398	0.06
817.569	-0.48
817.741	0.1
817.912	-0.14
818.084	-0.35
818.255	0.17
818.426	-0.45
818.598	-0.37
818.769	-0.66
818.941	0.27
819.112	0.43
819.283	0.01
819.455	-0.5
819.626	0.26
819.798	0.06
819.969	0.21
820.14	-0.16
820.311	-0.17
820.483	0.02
820.654	0.34
820.825	0.03
820.996	-0.65
821.168	-0.58
821.339	-0.25
821.51	-0.35
821.681	-0.2
821.852	0.17
822.023	-0.33
822.195	-1.3
822.366	0.07
822.537	-0.1
822.708	-0.01
822.879	0.06
823.05	0.27
823.221	-0.29
823.392	0.03
823.563	0.01
823.734	0.15
823.905	-0.06
824.076	-0.43
824.247	-0.38
824.418	-0.64
824.589	0.49
824.759	-0.46
824.93	-0.49
825.101	-0.56
825.272	0.32
825.443	0.1
825.614	0.11
825.784	-0.68
825.955	0.93
826.126	0.85
826.297	0.15
826.467	0.67
826.638	0.9
826.809	-0.73
826.98	0.52
827.15	0.33
827.321	-0.07
827.492	0.34
827.662	0.2
827.833	0.29
828.003	0.22
828.174	-0.53
828.345	-1.14
828.515	0.11
828.686	-0.11
828.856	-0.25
829.027	-0.25
829.197	-0.17
829.368	-0.16
829.538	-0.04
829.709	-0.35
829.879	-0.02
830.049	-0.09
830.22	-0.56
830.39	-0.07
830.56	0.44
830.731	0.17
830.901	-0.66
831.072	0.36
831.242	-0.2
831.412	-0.13
831.582	-0.3
831.753	-0.63
831.923	0.29
832.093	-0.35
832.263	-0.92
832.434	-1.16
832.604	-0.71
832.774	0.34
832.944	-0.51
833.114	-0.42
833.284	0.1
833.454	-0.87
833.624	-0.51
833.795	-0.58
833.965	0.5
834.135	0.36
834.305	-0.93
834.475	-0.58
834.645	-0.05
834.815	-0.1
834.985	-0.5
835.155	-0.53
835.325	-0.06
835.494	-0.01
835.664	-0.3
835.834	-1.04
836.004	-0.15
836.174	-0.44
836.344	-0.34
836.514	-1.08
836.684	-1.15
836.853	-0.92
837.023	-0.22
837.193	-0.19
837.363	0.37
837.532	0.61
837.702	0.11
837.872	-1.09
838.041	0.21
838.211	1.46
838.381	-1.09
838.55	-0.28
838.72	1.33
838.89	0.53
839.059	-0.51
839.229	-0.85
839.398	1.27
839.568	-0.18
839.738	-0.4
839.907	0.44
840.077	-0.08
840.246	-0.85
840.416	-1.2
840.585	-0.65
840.755	0.88
840.924	0.66
841.093	-0.52
841.263	-0.2
841.432	-0.34
841.602	-1
841.771	-0.42
841.94	-0.17
842.11	1.81
842.279	1.33
842.448	-1.07
842.617	-0.49
842.787	1.33
842.956	-0.67
843.125	-0.68
843.294	-0.37
843.464	0.88
843.633	-0.3
843.802	-1.06
843.971	-0.42
844.14	-0.25
844.309	0.98
844.479	-0.38
844.648	-1.09
844.817	-0.31
844.986	-0.53
845.155	-1.11
845.324	-0.38
845.493	0.53
845.662	-0.45
845.831	0.84
846	0.25
846.169	-0.71
846.338	1.15
846.507	0.04
846.676	0.39
846.844	-0.08
847.013	0.04
847.182	0.09
847.351	-0.66
847.52	-0.43
847.689	-0.09
847.858	-0.14
848.026	-0.89
848.195	0.03
848.364	0.15
848.533	-1.23
848.701	-0.86
848.87	0.26
849.039	0.18
849.207	0.09
849.376	-0.22
849.545	1.06
849.713	-0.67
849.882	-1.02
850.051	0.03
850.219	0.06
850.388	0.46
850.556	-0.77
850.725	-0.18
850.893	-0.24
851.062	0.3
851.23	0.46
851.399	-1.83
851.567	-1.23
851.736	-1.38
851.904	-0.87
852.073	-0.24
852.241	0.64
852.41	-0.56
852.578	-0.66
852.746	-0.55
852.915	1.17
853.083	-0.19
853.251	-1.18
853.42	-1.26
853.588	-0.11
853.756	1.62
853.924	-0.37
854.093	-1.34
854.261	0.01
854.429	-1.03
854.597	-0.35
854.765	-1.9
854.934	-0.2
855.102	0.86
855.27	-0.67
855.438	-0.36
855.606	0.27
855.774	1.36
855.942	-1.41
856.11	-1.77
856.278	0.02
856.446	0.6
856.614	-0.06
856.782	-0.75
856.95	0.81
857.118	0.33
857.286	0.03
857.454	-1.91
857.622	1.35
857.79	0.82
857.958	-2.16
858.126	-0.7
858.294	-2.78
858.462	-0.86
858.629	-1.59
858.797	-0.9
858.965	0.14
859.133	0.71
859.301	-1.24
859.468	0.22
859.636	-1.36
859.804	0.5
859.971	0.57
860.139	-1.8
860.307	-0.43
860.474	-1.41
860.642	-1.28
860.81	-0.94
860.977	0.1
861.145	1.81
861.313	-0.96
861.48	-0.24
861.648	1.14
861.815	-0.08
861.983	-2.35
862.15	-0.93
862.318	-0.23
862.485	1.44
862.653	-1.81
862.82	-1.75
862.988	0.12
863.155	-1.61
863.322	-1.9
863.49	-2.2
863.657	-0.73
863.824	1.56
863.992	0.85
864.159	-0.13
864.326	0.31
864.494	-1.44
864.661	1.79
864.828	-3.16
864.996	1
865.163	1.46
865.33	-1.03
865.497	-2.55
865.664	-0.65
865.832	-2.19
865.999	-1.28
866.166	-3.03
866.333	-1.91
866.5	-0.11
866.667	0.07
866.834	-0.8
867.001	0.65
867.168	-1.97
867.335	-0.69
867.502	-1.75
867.669	0.28
867.836	2.29
868.003	-0.8
868.17	0.43
868.337	-2.73
868.504	3.59
868.671	-2.35
868.838	-2.1
869.005	-0.62
869.172	-0.05
869.339	-2.01
869.505	-0.1
869.672	0.5
869.839	1.08
870.006	-1.64
870.173	-3.36
870.339	-1.41
870.506	2.81
870.673	-1.62
870.84	1.1
871.006	0.54
871.173	0.23
871.34	-1.44
871.506	-1.93
871.673	0.4
871.839	-1.46
872.006	0.26
872.173	-1.35
872.339	-2.07
872.506	1.82
872.672	-0.37
872.839	-2.08
873.005	0.33
873.172	1.88
873.338	1.56
873.505	-0.24
873.671	-0.09
873.838	-0.04
874.004	-1.96
874.171	0.49
874.337	1.47
874.503	0.82
874.67	-1.95
874.836	-0.49
875.002	1.53
875.169	0.4
875.335	0.19
875.501	0.03
875.668	0.96
875.834	-0.75
876	-0.66
876.166	1.37
876.332	-0.38
876.499	2.07
876.665	-0.75
876.831	0.98
876.997	3.55
877.163	0.2
877.329	0.09
877.495	-0.79
877.662	0.51
877.828	-1.34
877.994	0.46
878.16	-2.37
878.326	-0.95
878.492	-0.25
878.658	-0.12
878.824	-0.99
878.99	0.81
879.156	-1.01
879.322	2.63
879.487	-1.99
879.653	-0.27
879.819	-0.92
879.985	-3.42
880.151	-0.43
880.317	1.02
880.483	-1.5
880.648	1.64
880.814	-2.71
880.98	0.18
881.146	-3.38
881.312	-1.28
881.477	0.28
881.643	-1.72
881.809	1.56
881.974	2.2
882.14	-2.43
882.306	-1.57
882.471	0.96
882.637	-2.3
882.803	0.5
882.968	1.81
883.134	4.13
883.299	-1.07
883.465	1.17
883.63	0.46
883.796	-1.01
883.961	1.37
884.127	-0.06
884.292	-4.57
884.458	-3.42
884.623	-3.42
