Data from Apollo_Calib_20240827__AbsoluteIrradiance__252__03-21-02-890.txt Node

Date: Wed Aug 28 03:21:02 BST 2024
User: biology
Spectrometer: FLMT08252
Trigger mode: 0
Integration Time (sec): 5.000000E-1
Scans to average: 5
Electric dark correction enabled: true
Nonlinearity correction enabled: false
Boxcar width: 0
XAxis mode: Wavelengths
Number of Pixels in Spectrum: 3648
>>>>>Begin Spectral Data<<<<<
179.588	-0
179.809	-0
180.03	-0
180.251	-0
180.473	-0
180.694	0
180.915	0
181.136	-0
181.357	-0
181.578	-0
181.799	0
182.02	-0
182.241	-0
182.462	-0
182.683	0
182.904	-0
183.125	-0
183.346	0
183.567	0
183.788	-0
184.009	-0
184.23	0
184.451	0
184.672	-0
184.892	-0
185.113	0
185.334	0
185.555	0
185.776	-0
185.996	-0
186.217	0
186.438	0
186.659	-0
186.879	0
187.1	0
187.321	-0
187.541	-0
187.762	0
187.983	0
188.203	-0
188.424	0
188.644	-0
188.865	0
189.086	-0
189.306	-0
189.527	0
189.747	-0
189.968	-0
190.188	0
190.409	0
190.629	0
190.849	-0
191.07	-0
191.29	0
191.511	0
191.731	-0
191.951	-0
192.172	0
192.392	0
192.612	-0
192.833	-0
193.053	0
193.273	0
193.493	-0
193.714	0
193.934	0
194.154	0
194.374	0
194.594	0
194.815	0
195.035	0
195.255	0
195.475	-0
195.695	0
195.915	0
196.135	-0
196.355	0
196.575	0
196.795	0
197.015	-0
197.235	-0
197.455	0
197.675	0
197.895	-0
198.115	-0
198.335	0
198.555	-0
198.775	0
198.995	0
199.214	0
199.434	0
199.654	0
199.874	0
200.094	1.25
200.313	0.33
200.533	-0.41
200.753	-0.92
200.973	0.89
201.192	0.67
201.412	-1.01
201.632	-0.17
201.851	1.09
202.071	0.05
202.291	-0.31
202.51	-0.13
202.73	0.55
202.95	0.57
203.169	-0.68
203.389	0.25
203.608	0.29
203.828	-0.36
204.047	-0.29
204.267	0.56
204.486	0.17
204.706	0.67
204.925	0.15
205.145	-0.31
205.364	0.26
205.583	0.78
205.803	-0.18
206.022	-0.51
206.242	0.11
206.461	0.04
206.68	-0.03
206.9	-0.43
207.119	0.66
207.338	0.95
207.557	-0.36
207.777	-0.07
207.996	0.1
208.215	0.63
208.434	-0.16
208.654	-0.46
208.873	0.21
209.092	0.88
209.311	-0.17
209.53	-0.06
209.749	-0.16
209.968	-0.13
210.187	-0.11
210.407	-0.35
210.626	0.11
210.845	0.46
211.064	-0.09
211.283	-0.03
211.502	0.52
211.721	-0.08
211.94	-0.07
212.159	0.1
212.377	0.41
212.596	0.5
212.815	0.08
213.034	0.34
213.253	0.53
213.472	0.3
213.691	0.16
213.91	-0.26
214.128	-0.26
214.347	0.4
214.566	-0.42
214.785	-0.31
215.003	0.34
215.222	0.21
215.441	-0.03
215.66	-0.29
215.878	-0.03
216.097	0.35
216.316	-0.19
216.534	0.14
216.753	0.01
216.972	0.05
217.19	-0.1
217.409	-0.17
217.627	-0.08
217.846	-0.09
218.064	0.2
218.283	-0.17
218.501	0.5
218.72	0.17
218.938	-0.16
219.157	-0.1
219.375	0.24
219.594	0.15
219.812	-0.22
220.031	-0.21
220.249	0.31
220.467	0.29
220.686	-0.04
220.904	-0.11
221.122	-0.12
221.341	0.4
221.559	0.11
221.777	-0.23
221.995	-0.03
222.214	0.18
222.432	-0.05
222.65	0.23
222.868	0.08
223.086	0.12
223.305	0.06
223.523	-0.11
223.741	0.21
223.959	-0.04
224.177	-0.34
224.395	-0.12
224.613	0.03
224.831	0.24
225.049	-0.09
225.267	-0.15
225.485	0.17
225.703	-0.07
225.921	-0.01
226.139	-0.1
226.357	0.21
226.575	0.09
226.793	0.04
227.011	0.61
227.229	0
227.447	0.19
227.665	0.05
227.883	-0.12
228.1	-0
228.318	0.06
228.536	-0.22
228.754	-0.11
228.972	0.03
229.189	0.1
229.407	-0.03
229.625	-0.09
229.843	0.21
230.06	0.18
230.278	-0.05
230.496	-0.05
230.713	0.07
230.931	0.16
231.149	-0.07
231.366	-0.17
231.584	0.06
231.801	0.42
232.019	0.03
232.236	-0.09
232.454	0.02
232.671	0.03
232.889	-0.06
233.106	-0.05
233.324	-0.01
233.541	-0.03
233.759	-0.05
233.976	-0.14
234.194	0.08
234.411	-0.07
234.628	0
234.846	-0.09
235.063	0.02
235.28	0.07
235.498	-0
235.715	-0.18
235.932	0.13
236.149	0.04
236.367	-0.05
236.584	0.06
236.801	-0.05
237.018	0.15
237.236	0.1
237.453	-0.2
237.67	0.19
237.887	0.08
238.104	0.02
238.321	-0.16
238.538	0.04
238.755	0.15
238.973	-0.18
239.19	-0
239.407	0.06
239.624	0.06
239.841	-0.15
240.058	-0.06
240.275	0.06
240.492	0.03
240.709	0.03
240.925	-0.08
241.142	0.01
241.359	-0.18
241.576	-0.02
241.793	-0
242.01	0.04
242.227	0.19
242.444	0.11
242.66	0.13
242.877	0.09
243.094	0.01
243.311	0.02
243.527	0.01
243.744	0.05
243.961	0.08
244.178	-0.09
244.394	-0.03
244.611	0.21
244.828	0.13
245.044	-0.12
245.261	-0.01
245.477	0.02
245.694	0.07
245.911	-0.08
246.127	0.05
246.344	0.14
246.56	0.17
246.777	0.02
246.993	0.03
247.21	0.08
247.426	0.09
247.643	0
247.859	-0.01
248.076	0
248.292	0.2
248.508	0.03
248.725	0.05
248.941	0.01
249.157	0.16
249.374	-0.01
249.59	0
249.806	0.04
250.023	0.15
250.239	-0.09
250.455	-0.03
250.671	0.08
250.888	0.08
251.104	0.13
251.32	-0.01
251.536	-0.01
251.752	0.08
251.969	0.04
252.185	0.04
252.401	0.23
252.617	0.08
252.833	0.04
253.049	-0
253.265	0.09
253.481	0.1
253.697	0.02
253.913	-0.07
254.129	0.1
254.345	0.03
254.561	-0.03
254.777	-0.01
254.993	0.17
255.209	-0.05
255.425	0.02
255.641	-0.01
255.857	0.07
256.073	0.07
256.288	-0.06
256.504	-0.03
256.72	0.07
256.936	0.18
257.152	0.06
257.367	-0.04
257.583	0.05
257.799	0.12
258.015	-0.05
258.23	0.02
258.446	0.16
258.662	0.02
258.877	-0.1
259.093	-0.05
259.309	0.08
259.524	0.06
259.74	0.01
259.955	-0.11
260.171	0.03
260.387	0.01
260.602	0.07
260.818	0.11
261.033	-0.05
261.249	-0.03
261.464	-0.05
261.68	-0.1
261.895	0.09
262.11	0.04
262.326	-0.03
262.541	-0.04
262.757	0.04
262.972	0.08
263.187	-0.03
263.403	-0
263.618	0.1
263.833	0.03
264.049	-0.09
264.264	0.02
264.479	0.1
264.694	0.13
264.91	0.02
265.125	0.02
265.34	0.08
265.555	0.17
265.77	0.04
265.986	-0.01
266.201	0.1
266.416	0.07
266.631	0
266.846	0.01
267.061	0.09
267.276	0.04
267.491	-0.12
267.706	0.03
267.921	0.1
268.136	0.02
268.351	0.03
268.566	-0.06
268.781	0.11
268.996	0.1
269.211	-0.05
269.426	-0.08
269.641	-0.04
269.856	0.08
270.071	-0.01
270.285	-0.01
270.5	0.08
270.715	0.11
270.93	0.02
271.145	0.06
271.359	0.12
271.574	-0
271.789	-0.05
272.004	-0.06
272.218	0.01
272.433	0.11
272.648	-0.05
272.862	0.11
273.077	0.01
273.292	0.04
273.506	0.02
273.721	0.01
273.936	0.05
274.15	0.07
274.365	-0
274.579	0.06
274.794	0.05
275.008	0.11
275.223	-0.05
275.437	-0.02
275.652	0.03
275.866	0.07
276.081	-0.01
276.295	0.11
276.509	0.02
276.724	-0.01
276.938	0.01
277.153	0.03
277.367	-0.09
277.581	0.04
277.796	0
278.01	-0.02
278.224	0.08
278.438	0.11
278.653	-0.02
278.867	-0.02
279.081	-0.18
279.295	-0.01
279.51	0.06
279.724	-0.06
279.938	0.12
280.152	-0.01
280.366	-0.02
280.58	0.03
280.794	0.14
281.008	0.02
281.222	0.05
281.437	0.19
281.651	0.06
281.865	0.12
282.079	0.03
282.293	-0.06
282.507	-0.06
282.721	0.02
282.935	0.02
283.148	-0.04
283.362	-0.07
283.576	-0.05
283.79	0.02
284.004	-0.05
284.218	0.04
284.432	-0.02
284.646	0.03
284.859	0.01
285.073	0
285.287	0.07
285.501	0.03
285.714	-0
285.928	0.02
286.142	0.03
286.356	0.01
286.569	-0.01
286.783	0.12
286.997	0.06
287.21	-0
287.424	0.01
287.637	-0.01
287.851	0.01
288.065	0.06
288.278	-0.01
288.492	-0.03
288.705	-0.01
288.919	0.04
289.132	-0.03
289.346	0.05
289.559	-0.09
289.773	-0.02
289.986	-0.01
290.2	0.03
290.413	0.1
290.626	-0.04
290.84	0.02
291.053	0.03
291.267	0.07
291.48	0.01
291.693	0.04
291.906	0.02
292.12	0.03
292.333	-0.02
292.546	0.06
292.76	0.09
292.973	0.06
293.186	0.07
293.399	0.02
293.612	0.07
293.826	0.04
294.039	0.04
294.252	0.02
294.465	0.03
294.678	0.06
294.891	0.01
295.104	0
295.317	-0.03
295.53	0.03
295.743	0.04
295.956	0
296.169	0.11
296.382	0.1
296.595	0.01
296.808	-0.01
297.021	0.08
297.234	0.05
297.447	0.04
297.66	0.02
297.873	0.06
298.086	0.07
298.299	-0.02
298.511	-0.01
298.724	0.01
298.937	-0.05
299.15	-0.03
299.363	-0
299.575	0.03
299.788	0.07
300.001	0
300.213	-0.01
300.426	-0.03
300.639	0.02
300.852	-0.06
301.064	0.03
301.277	0.09
301.489	0.03
301.702	0.08
301.915	0.04
302.127	0.03
302.34	0.01
302.552	0.09
302.765	0.01
302.977	0.05
303.19	0.02
303.402	0
303.615	0.02
303.827	0.01
304.04	0.03
304.252	0.02
304.464	-0.03
304.677	0.18
304.889	0.09
305.102	0.01
305.314	-0.02
305.526	0.07
305.739	0.07
305.951	0.01
306.163	0
306.375	0.07
306.588	-0.01
306.8	0.01
307.012	-0.03
307.224	0.01
307.436	0.07
307.649	-0.04
307.861	0.07
308.073	0.08
308.285	-0.02
308.497	-0.03
308.709	-0.01
308.921	0.05
309.133	0.09
309.346	0.05
309.558	0.05
309.77	0.07
309.982	0.11
310.194	0.09
310.406	-0.01
310.617	0.12
310.829	0.01
311.041	0.07
311.253	-0.02
311.465	0.02
311.677	0.05
311.889	0.03
312.101	-0.01
312.313	0.03
312.524	0.07
312.736	0.01
312.948	-0
313.16	0.13
313.372	0.07
313.583	0.05
313.795	0.05
314.007	0.03
314.218	0.1
314.43	0.01
314.642	0
314.853	0.01
315.065	0.09
315.277	0.01
315.488	0.04
315.7	0.07
315.912	0.07
316.123	-0
316.335	0.04
316.546	0.15
316.758	-0.02
316.969	0.04
317.181	0.02
317.392	0
317.604	0.06
317.815	-0.02
318.026	-0.05
318.238	-0.01
318.449	0.02
318.661	-0.03
318.872	-0.05
319.083	-0
319.295	0.04
319.506	-0
319.717	0.05
319.929	0.03
320.14	0.05
320.351	0.05
320.562	0.01
320.774	0.01
320.985	0.06
321.196	-0.04
321.407	-0.03
321.618	0.06
321.829	0.06
322.041	0.05
322.252	0.02
322.463	0.07
322.674	0.05
322.885	-0.02
323.096	0.04
323.307	-0.02
323.518	0.01
323.729	0.01
323.94	0.02
324.151	0.01
324.362	0.07
324.573	0.03
324.784	0.04
324.995	0.05
325.206	0.03
325.417	0.01
325.628	0.01
325.838	0.04
326.049	0.05
326.26	0.05
326.471	0.01
326.682	0.07
326.892	0.03
327.103	-0.02
327.314	-0.03
327.525	0.09
327.735	0.03
327.946	0.01
328.157	0
328.368	0.06
328.578	0.01
328.789	0.04
328.999	0.03
329.21	0.02
329.421	0.05
329.631	0.01
329.842	-0.02
330.052	0.04
330.263	0.05
330.473	0.07
330.684	0.01
330.894	0.03
331.105	-0
331.315	0.01
331.526	0
331.736	0.1
331.947	0.04
332.157	0.04
332.367	-0.03
332.578	0.08
332.788	0.07
332.999	0.07
333.209	0.04
333.419	-0.06
333.629	0.07
333.84	0.09
334.05	-0
334.26	0.11
334.47	0.04
334.681	0.06
334.891	-0
335.101	0.08
335.311	0.12
335.521	0.02
335.732	0.01
335.942	0.1
336.152	0.04
336.362	0.08
336.572	0.02
336.782	0.07
336.992	0.01
337.202	0.03
337.412	0
337.622	0.05
337.832	0.06
338.042	0.01
338.252	-0.01
338.462	0.04
338.672	0.02
338.882	0.05
339.092	0.02
339.302	0.09
339.511	0.04
339.721	0.01
339.931	-0.04
340.141	0.1
340.351	0.04
340.561	0.04
340.77	0.02
340.98	0.06
341.19	0.06
341.4	-0.03
341.609	-0.02
341.819	0
342.029	-0.04
342.238	0.04
342.448	-0
342.658	0.07
342.867	0.03
343.077	0.04
343.286	0.04
343.496	0.09
343.706	0.1
343.915	-0
344.125	0.02
344.334	0.04
344.544	-0.03
344.753	0
344.963	-0.01
345.172	0.01
345.381	0
345.591	0
345.8	0.01
346.01	0.07
346.219	0.05
346.428	-0.1
346.638	0.05
346.847	0.02
347.056	0.02
347.266	0.02
347.475	0.03
347.684	0.07
347.893	0.05
348.103	0.02
348.312	0.01
348.521	0.02
348.73	0.01
348.94	0.03
349.149	0.01
349.358	-0.01
349.567	-0.04
349.776	0.01
349.985	0.02
350.194	0.08
350.403	0.1
350.612	-0.07
350.821	-0.01
351.03	0.03
351.239	-0.01
351.448	0.02
351.657	0.01
351.866	0.06
352.075	0.05
352.284	0.05
352.493	-0
352.702	0.05
352.911	0.06
353.12	0.04
353.329	0.03
353.538	0.02
353.746	0.01
353.955	-0.02
354.164	0.06
354.373	0.03
354.582	0.06
354.79	0.03
354.999	0.05
355.208	0.05
355.416	0.11
355.625	-0.02
355.834	0.02
356.042	0.04
356.251	0.03
356.46	-0.01
356.668	0.07
356.877	0.15
357.085	0.12
357.294	-0.04
357.503	0.06
357.711	-0
357.92	0.17
358.128	0.07
358.337	0.04
358.545	0.06
358.754	0.02
358.962	0.06
359.17	0.04
359.379	0.06
359.587	0.05
359.796	0
360.004	0.06
360.212	0.06
360.421	0.02
360.629	0.03
360.837	0.05
361.046	0.08
361.254	0.13
361.462	0
361.67	-0
361.879	0.05
362.087	0.13
362.295	0.03
362.503	0.02
362.711	-0.03
362.92	0
363.128	0.03
363.336	0.01
363.544	-0.02
363.752	0.01
363.96	0
364.168	0.02
364.376	0.02
364.584	0.06
364.792	0.06
365	0.06
365.208	0.06
365.416	0.04
365.624	0.08
365.832	0.02
366.04	0.08
366.248	0.04
366.456	0.03
366.664	0.03
366.872	0.02
367.079	0.04
367.287	0.02
367.495	0.06
367.703	0.05
367.911	0.02
368.118	0.06
368.326	0.02
368.534	0
368.742	0.11
368.949	0.01
369.157	0.01
369.365	0.07
369.572	0.01
369.78	0.02
369.988	0.05
370.195	0.06
370.403	0.09
370.61	-0
370.818	0.02
371.026	0.13
371.233	0.01
371.441	0.01
371.648	0.03
371.856	0.07
372.063	0.07
372.271	0.04
372.478	0.03
372.685	-0.01
372.893	0.09
373.1	-0.01
373.308	0
373.515	0.12
373.722	0.08
373.93	0.05
374.137	0.05
374.344	0.13
374.552	0.08
374.759	0.08
374.966	0.06
375.173	0.04
375.381	0.1
375.588	0.04
375.795	-0.05
376.002	0.02
376.209	-0.01
376.417	0.03
376.624	0.03
376.831	0.09
377.038	0.01
377.245	-0.02
377.452	0
377.659	0.07
377.866	0.03
378.073	0.04
378.28	0.07
378.487	0.09
378.694	0.06
378.901	0.05
379.108	0.01
379.315	0.05
379.522	0.17
379.729	0.04
379.936	0.05
380.143	0.05
380.35	0.05
380.557	0.02
380.763	0.05
380.97	0.06
381.177	0.08
381.384	0.02
381.591	0.01
381.797	0.05
382.004	0.06
382.211	0.06
382.418	0.12
382.624	0.01
382.831	0.06
383.038	0.02
383.244	0.06
383.451	0.05
383.658	0.04
383.864	0
384.071	0.02
384.277	0.11
384.484	0.04
384.69	0.09
384.897	0.04
385.103	0.03
385.31	0
385.516	0.06
385.723	-0.01
385.929	0.03
386.136	0.05
386.342	0.05
386.549	-0
386.755	0.1
386.961	0.05
387.168	0.03
387.374	0.06
387.58	0.1
387.787	0.05
387.993	0.07
388.199	0.04
388.406	0.04
388.612	0.08
388.818	-0.01
389.024	0
389.231	0.09
389.437	0.18
389.643	0.06
389.849	0.05
390.055	0.07
390.261	0.08
390.467	0.1
390.674	0.04
390.88	0.04
391.086	0.1
391.292	0.05
391.498	0.11
391.704	0.09
391.91	0.04
392.116	0.03
392.322	0.02
392.528	0.1
392.734	0.04
392.94	0.07
393.146	0.05
393.352	0.1
393.557	0.06
393.763	0.11
393.969	0.13
394.175	0.1
394.381	0.1
394.587	0.08
394.792	0.1
394.998	0.13
395.204	0.16
395.41	0.11
395.615	0.14
395.821	0.15
396.027	0.15
396.233	0.06
396.438	0.13
396.644	0.21
396.85	0.13
397.055	0.17
397.261	0.17
397.466	0.12
397.672	0.1
397.878	0.17
398.083	0.19
398.289	0.12
398.494	0.24
398.7	0.16
398.905	0.13
399.111	0.26
399.316	0.18
399.522	0.2
399.727	0.18
399.932	0.24
400.138	0.19
400.343	0.3
400.549	0.24
400.754	0.25
400.959	0.27
401.165	0.3
401.37	0.32
401.575	0.41
401.78	0.37
401.986	0.35
402.191	0.35
402.396	0.34
402.601	0.36
402.807	0.41
403.012	0.43
403.217	0.51
403.422	0.48
403.627	0.48
403.832	0.49
404.037	0.59
404.243	0.6
404.448	0.52
404.653	0.58
404.858	0.61
405.063	0.68
405.268	0.67
405.473	0.66
405.678	0.72
405.883	0.94
406.088	0.88
406.293	0.8
406.498	0.91
406.703	0.92
406.907	0.98
407.112	0.98
407.317	1.11
407.522	1.23
407.727	1.16
407.932	1.29
408.136	1.44
408.341	1.35
408.546	1.41
408.751	1.49
408.956	1.57
409.16	1.71
409.365	1.69
409.57	1.75
409.774	1.75
409.979	1.9
410.184	1.96
410.388	1.96
410.593	2.18
410.798	2.29
411.002	2.35
411.207	2.43
411.411	2.53
411.616	2.62
411.82	2.81
412.025	2.87
412.229	2.98
412.434	3.13
412.638	3.19
412.843	3.26
413.047	3.37
413.252	3.48
413.456	3.73
413.66	3.74
413.865	3.9
414.069	4.09
414.273	4.14
414.478	4.26
414.682	4.4
414.886	4.59
415.091	4.64
415.295	4.85
415.499	5.12
415.703	5.16
415.908	5.51
416.112	5.48
416.316	5.87
416.52	6.04
416.724	6.16
416.929	6.32
417.133	6.75
417.337	6.68
417.541	6.86
417.745	7.1
417.949	7.23
418.153	7.6
418.357	7.7
418.561	8.13
418.765	8.09
418.969	8.31
419.173	8.75
419.377	8.81
419.581	9.32
419.785	9.41
419.989	9.49
420.193	9.94
420.397	10.01
420.601	10.2
420.804	10.48
421.008	10.4
421.212	10.61
421.416	10.44
421.62	10.63
421.823	10.78
422.027	10.8
422.231	10.72
422.435	10.6
422.638	10.45
422.842	10.72
423.046	10.73
423.249	10.97
423.453	10.73
423.657	10.88
423.86	10.85
424.064	10.95
424.268	10.95
424.471	10.72
424.675	10.86
424.878	10.71
425.082	10.82
425.285	11.06
425.489	10.52
425.692	10.53
425.896	10.27
426.099	10.23
426.303	10.24
426.506	9.99
426.71	10.07
426.913	10.06
427.116	9.87
427.32	9.47
427.523	9.33
427.726	9.21
427.93	9.21
428.133	9.06
428.336	9.07
428.54	8.71
428.743	8.66
428.946	8.71
429.149	8.25
429.353	7.94
429.556	7.68
429.759	7.49
429.962	7.27
430.165	7.06
430.368	6.54
430.571	6.35
430.775	6.08
430.978	5.83
431.181	5.78
431.384	5.45
431.587	5.34
431.79	5.4
431.993	5.15
432.196	5.13
432.399	5.06
432.602	4.99
432.805	4.84
433.008	4.92
433.211	4.58
433.414	4.71
433.616	4.51
433.819	4.33
434.022	4.14
434.225	4.19
434.428	3.95
434.631	4.12
434.833	3.78
435.036	3.8
435.239	3.73
435.442	3.66
435.645	3.53
435.847	3.46
436.05	3.44
436.253	3.43
436.455	3.29
436.658	3.05
436.861	3.22
437.063	3.07
437.266	2.92
437.468	2.9
437.671	3.02
437.874	2.81
438.076	2.69
438.279	2.57
438.481	2.68
438.684	2.63
438.886	2.47
439.089	2.39
439.291	2.39
439.494	2.38
439.696	2.24
439.899	2.33
440.101	2.25
440.303	2.12
440.506	2.22
440.708	2.12
440.91	2.08
441.113	1.97
441.315	1.98
441.517	1.8
441.72	1.91
441.922	1.69
442.124	1.63
442.326	1.66
442.529	1.7
442.731	1.5
442.933	1.66
443.135	1.48
443.337	1.31
443.539	1.39
443.742	1.3
443.944	1.35
444.146	1.23
444.348	1.16
444.55	1.14
444.752	1.12
444.954	1.05
445.156	1.14
445.358	1.03
445.56	1.13
445.762	0.96
445.964	0.97
446.166	0.9
446.368	0.93
446.57	0.93
446.772	0.86
446.974	0.81
447.175	0.85
447.377	0.8
447.579	0.85
447.781	0.7
447.983	0.84
448.184	0.73
448.386	0.76
448.588	0.59
448.79	0.67
448.991	0.64
449.193	0.66
449.395	0.64
449.597	0.7
449.798	0.62
450	0.58
450.202	0.59
450.403	0.56
450.605	0.61
450.806	0.51
451.008	0.51
451.21	0.54
451.411	0.55
451.613	0.49
451.814	0.51
452.016	0.54
452.217	0.5
452.419	0.5
452.62	0.41
452.821	0.41
453.023	0.53
453.224	0.48
453.426	0.44
453.627	0.4
453.828	0.42
454.03	0.37
454.231	0.44
454.432	0.35
454.634	0.49
454.835	0.37
455.036	0.28
455.238	0.38
455.439	0.43
455.64	0.27
455.841	0.27
456.042	0.4
456.244	0.28
456.445	0.29
456.646	0.24
456.847	0.3
457.048	0.33
457.249	0.33
457.45	0.59
457.651	0.19
457.852	0.3
458.054	0.25
458.255	0.27
458.456	0.28
458.657	0.25
458.858	0.15
459.058	0.24
459.259	0.28
459.46	0.23
459.661	0.24
459.862	0.36
460.063	0.22
460.264	0.29
460.465	0.15
460.666	0.36
460.866	0.19
461.067	0.2
461.268	0.19
461.469	0.14
461.67	0.2
461.87	0.16
462.071	0.16
462.272	0.14
462.473	0.2
462.673	0.22
462.874	0.09
463.075	0.16
463.275	0.16
463.476	0.22
463.676	0.23
463.877	0.18
464.078	0.17
464.278	0.2
464.479	0.14
464.679	0.2
464.88	0.14
465.08	0.23
465.281	0.12
465.481	0.11
465.682	0.14
465.882	0.17
466.083	0.17
466.283	0.06
466.483	0.15
466.684	0.09
466.884	0.1
467.085	0.12
467.285	0.23
467.485	0.07
467.686	0.11
467.886	0.1
468.086	0.08
468.286	0.15
468.487	0.18
468.687	0.08
468.887	0.1
469.087	0.16
469.287	0.12
469.488	0.06
469.688	0.14
469.888	0.18
470.088	0.14
470.288	0.15
470.488	0.14
470.688	0.07
470.888	0.11
471.088	0.02
471.288	0.16
471.488	0.13
471.688	0.12
471.888	0.08
472.088	0.13
472.288	0.12
472.488	0.08
472.688	0.08
472.888	0.12
473.088	0.08
473.288	0.06
473.488	0.1
473.688	0.2
473.887	0.09
474.087	0.05
474.287	0.09
474.487	0.09
474.687	0.14
474.886	0.06
475.086	0.08
475.286	0.04
475.486	0.08
475.685	0.06
475.885	0.07
476.085	0.04
476.284	0.08
476.484	0.07
476.684	0.12
476.883	0.13
477.083	0.09
477.282	0.03
477.482	0.13
477.681	0.13
477.881	0.09
478.08	0.02
478.28	0.04
478.479	0.09
478.679	0.15
478.878	0.05
479.078	0.04
479.277	0.04
479.477	0.05
479.676	0.08
479.875	0.07
480.075	0.04
480.274	0.06
480.473	0.07
480.673	0.03
480.872	0.1
481.071	0.04
481.271	0.05
481.47	0.03
481.669	0.07
481.868	0.05
482.067	0.01
482.267	0.02
482.466	0.03
482.665	0.01
482.864	0.02
483.063	0.04
483.262	0.07
483.461	0.09
483.661	0.06
483.86	0.05
484.059	0.04
484.258	0.05
484.457	0.02
484.656	0.03
484.855	0.07
485.054	0.02
485.253	0.02
485.452	0
485.651	0.06
485.849	0.03
486.048	0.02
486.247	0.01
486.446	0.04
486.645	0.01
486.844	0
487.043	0.04
487.241	0.07
487.44	0.01
487.639	0.03
487.838	0.06
488.037	0.08
488.235	0.1
488.434	0.04
488.633	0
488.831	0.04
489.03	0.07
489.229	0.01
489.427	0.01
489.626	0.09
489.825	0.08
490.023	0.03
490.222	-0
490.42	0.08
490.619	0.08
490.817	0.03
491.016	0.03
491.214	0.05
491.413	0.03
491.611	0.02
491.81	0.02
492.008	0.06
492.207	0.05
492.405	0.04
492.604	0.02
492.802	0.01
493	0.01
493.199	-0.01
493.397	0.03
493.595	0.03
493.794	0.04
493.992	0.07
494.19	0.02
494.388	0.04
494.587	0.03
494.785	0.04
494.983	-0.02
495.181	0.02
495.379	0.01
495.578	0.02
495.776	0.02
495.974	0.04
496.172	0.01
496.37	0
496.568	0
496.766	-0.02
496.964	0.05
497.162	0.03
497.36	-0.01
497.558	0.06
497.756	0.03
497.954	0.01
498.152	0.01
498.35	0.03
498.548	0.02
498.746	0.02
498.944	0.02
499.142	0
499.34	-0.04
499.538	-0
499.736	0
499.933	0.07
500.131	0.06
500.329	0.01
500.527	0.06
500.725	0.05
500.922	0.03
501.12	0.03
501.318	0.03
501.516	0.01
501.713	0.04
501.911	0.01
502.109	-0.03
502.306	0.06
502.504	0.03
502.701	0
502.899	-0.01
503.097	0.08
503.294	-0
503.492	0.01
503.689	0.04
503.887	0.05
504.084	0.06
504.282	0.02
504.479	-0.01
504.677	0.03
504.874	0
505.072	0.02
505.269	0.01
505.466	0.05
505.664	0.04
505.861	-0.01
506.059	0.01
506.256	0.05
506.453	0.02
506.651	0.05
506.848	0.03
507.045	0.04
507.242	0.03
507.44	-0.01
507.637	0.01
507.834	0.02
508.031	0.06
508.229	0
508.426	0.03
508.623	0.04
508.82	0
509.017	-0.02
509.214	0
509.411	0.01
509.608	0
509.805	0.01
510.003	-0.01
510.2	-0.01
510.397	0.05
510.594	-0
510.791	-0.01
510.988	0.01
511.184	0.04
511.381	0.02
511.578	-0.01
511.775	0.04
511.972	0.02
512.169	0.02
512.366	0.01
512.563	0.03
512.76	0.01
512.956	0.03
513.153	-0.01
513.35	0.01
513.547	-0.02
513.744	-0.01
513.94	0
514.137	0.04
514.334	0.02
514.53	0.02
514.727	0.03
514.924	0.09
515.12	-0
515.317	-0.02
515.514	0.01
515.71	-0.01
515.907	0.02
516.103	0.03
516.3	-0.01
516.497	0.05
516.693	0.04
516.89	0.03
517.086	-0.02
517.283	0.05
517.479	0.04
517.676	0.01
517.872	0.01
518.068	-0.01
518.265	-0.01
518.461	0.01
518.658	-0.01
518.854	0.03
519.05	0
519.247	-0.01
519.443	0.04
519.639	0.03
519.836	0.02
520.032	0.01
520.228	0.02
520.424	0.07
520.621	0.06
520.817	0
521.013	0.03
521.209	0.03
521.405	0.04
521.601	0.01
521.798	0.03
521.994	0.04
522.19	-0.02
522.386	-0.03
522.582	0.03
522.778	0.01
522.974	0.01
523.17	0.02
523.366	0.05
523.562	0.04
523.758	0.02
523.954	-0.01
524.15	0.01
524.346	0.03
524.542	-0.01
524.738	-0.01
524.934	0.01
525.129	0.03
525.325	0.03
525.521	0.01
525.717	0.03
525.913	0.03
526.109	0.03
526.304	0.01
526.5	-0.01
526.696	0.05
526.892	0.03
527.087	0.01
527.283	-0.01
527.479	0.05
527.674	-0
527.87	0.01
528.066	0.03
528.261	0
528.457	0.02
528.653	0.02
528.848	0.02
529.044	0.04
529.239	0.02
529.435	0.03
529.63	0.03
529.826	0.05
530.021	0.03
530.217	0.03
530.412	-0.01
530.608	-0.01
530.803	0.01
530.999	0.01
531.194	-0.04
531.389	0.01
531.585	-0.03
531.78	0.01
531.975	-0.01
532.171	0.02
532.366	0
532.561	-0.01
532.757	-0.01
532.952	0.01
533.147	0.03
533.342	0
533.538	-0
533.733	0.04
533.928	0
534.123	-0
534.318	-0.03
534.513	0.01
534.709	-0
534.904	-0.01
535.099	-0
535.294	0.02
535.489	0.01
535.684	-0.02
535.879	-0.01
536.074	0.02
536.269	-0
536.464	0.02
536.659	0
536.854	-0.01
537.049	-0
537.244	0.02
537.439	0
537.634	0.03
537.828	0.01
538.023	0.02
538.218	-0.01
538.413	0
538.608	-0.04
538.803	0.01
538.997	-0.02
539.192	0.03
539.387	0.02
539.582	0.02
539.776	0
539.971	-0.02
540.166	0.01
540.36	-0.02
540.555	0.01
540.75	0
540.944	0.02
541.139	-0.03
541.334	-0.01
541.528	0.01
541.723	0.03
541.917	0
542.112	-0.04
542.306	-0
542.501	0.02
542.695	0.02
542.89	-0.01
543.084	0.02
543.279	-0
543.473	0.01
543.668	-0
543.862	-0.01
544.056	0.04
544.251	0.03
544.445	0.01
544.64	0
544.834	-0.02
545.028	0.01
545.222	0.02
545.417	0.03
545.611	0.01
545.805	0.01
546	-0.01
546.194	0.01
546.388	0.01
546.582	0.03
546.776	-0.01
546.97	0
547.165	0.03
547.359	0.03
547.553	-0.01
547.747	0.01
547.941	0
548.135	0
548.329	0.04
548.523	0.02
548.717	-0.02
548.911	0.01
549.105	0
549.299	0.01
549.493	0.01
549.687	0.02
549.881	0.03
550.075	0.03
550.269	-0.01
550.463	0.03
550.657	0.01
550.85	0.02
551.044	-0.01
551.238	0.01
551.432	-0.02
551.626	-0.03
551.82	0.02
552.013	0
552.207	0
552.401	0.01
552.594	0
552.788	-0
552.982	0.01
553.176	-0.01
553.369	0.01
553.563	0
553.756	-0.02
553.95	-0.01
554.144	0.02
554.337	0.06
554.531	0.01
554.724	0.03
554.918	-0
555.111	0.02
555.305	-0
555.498	0.07
555.692	0.04
555.885	0
556.079	0.01
556.272	-0.01
556.466	0.05
556.659	0.02
556.852	0.01
557.046	0.01
557.239	0.03
557.432	-0.02
557.626	-0.02
557.819	0
558.012	0.04
558.206	0.02
558.399	0
558.592	0.03
558.785	-0
558.979	0.03
559.172	0.01
559.365	0.03
559.558	0
559.751	0.02
559.944	0.02
560.138	-0.02
560.331	-0
560.524	0
560.717	-0.02
560.91	0.02
561.103	0.02
561.296	0
561.489	0.04
561.682	0.02
561.875	0.04
562.068	0.02
562.261	0.02
562.454	0.04
562.647	0.02
562.84	0.03
563.032	0
563.225	0.02
563.418	-0
563.611	-0.02
563.804	0.01
563.997	0.01
564.19	-0.02
564.382	0.01
564.575	-0
564.768	-0
564.961	0.02
565.153	-0.01
565.346	0.04
565.539	0.03
565.731	0.02
565.924	0.03
566.117	0.04
566.309	0.01
566.502	-0.01
566.695	0.01
566.887	0.02
567.08	-0.02
567.272	0.01
567.465	-0.01
567.657	0.02
567.85	0.02
568.042	0.04
568.235	0.01
568.427	-0
568.62	-0
568.812	0.02
569.005	0
569.197	-0.05
569.389	0.01
569.582	0.02
569.774	-0.01
569.966	-0.02
570.159	-0.02
570.351	-0.01
570.543	-0.03
570.736	-0
570.928	-0.02
571.12	0.04
571.312	-0.01
571.505	-0.02
571.697	0.03
571.889	-0
572.081	0
572.273	-0
572.465	0.04
572.658	0
572.85	0.01
573.042	-0.03
573.234	0.02
573.426	0.04
573.618	-0.02
573.81	0.01
574.002	0.06
574.194	0.05
574.386	-0.03
574.578	-0.06
574.77	-0.02
574.962	-0.01
575.154	-0.01
575.346	0
575.538	0.03
575.729	-0.03
575.921	-0.03
576.113	0.01
576.305	0.02
576.497	-0.02
576.689	0.02
576.88	-0.04
577.072	0.02
577.264	0.01
577.456	-0.01
577.647	-0.06
577.839	0.03
578.031	0.05
578.223	-0.02
578.414	-0.03
578.606	0.01
578.798	0.03
578.989	-0.04
579.181	-0.01
579.372	0.01
579.564	-0
579.755	0.01
579.947	0.03
580.139	0.02
580.33	-0.04
580.522	-0.01
580.713	-0.06
580.905	0.01
581.096	0.02
581.287	0.01
581.479	0
581.67	0.02
581.862	0.01
582.053	-0.02
582.244	-0.03
582.436	0
582.627	0.02
582.818	-0.01
583.01	-0.05
583.201	0.04
583.392	0.04
583.583	0
583.775	-0
583.966	-0.02
584.157	-0.01
584.348	-0.03
584.54	-0.03
584.731	0.04
584.922	-0.02
585.113	-0.02
585.304	0.03
585.495	0.05
585.686	0
585.877	0.02
586.068	0.02
586.259	0.04
586.45	0.02
586.641	-0.02
586.832	-0.08
587.023	0.01
587.214	0.01
587.405	0
587.596	-0.01
587.787	0.02
587.978	-0.01
588.169	-0
588.36	-0.01
588.551	0.01
588.742	0.02
588.932	0.02
589.123	0.03
589.314	0.02
589.505	0.03
589.696	0.01
589.886	-0.04
590.077	-0.02
590.268	0.02
590.458	-0.03
590.649	-0.04
590.84	0.04
591.03	-0.02
591.221	-0.01
591.412	-0.03
591.602	-0.01
591.793	0.05
591.984	-0.03
592.174	-0
592.365	0.08
592.555	-0.03
592.746	0.01
592.936	0.01
593.127	0.02
593.317	0.03
593.508	-0.01
593.698	-0.02
593.889	0
594.079	-0.01
594.269	-0.04
594.46	-0.01
594.65	0.01
594.84	-0.02
595.031	-0.03
595.221	-0.03
595.411	-0.05
595.602	0.02
595.792	0.01
595.982	-0.03
596.172	0.05
596.363	-0.01
596.553	0
596.743	-0.01
596.933	0.01
597.123	0.03
597.314	-0.02
597.504	-0.02
597.694	0.04
597.884	-0.03
598.074	-0.01
598.264	-0.03
598.454	0.03
598.644	-0
598.834	-0
599.024	-0.05
599.214	0
599.404	0.04
599.594	0
599.784	-0.03
599.974	0.05
600.164	0.01
600.354	-0.04
600.544	-0.05
600.734	0.01
600.924	0.03
601.114	-0.01
601.303	-0
601.493	0.01
601.683	0
601.873	0
602.063	-0.06
602.252	0.01
602.442	-0.07
602.632	-0.01
602.821	-0.04
603.011	0.02
603.201	-0.01
603.39	-0.01
603.58	-0.03
603.77	0.02
603.959	0.03
604.149	0.01
604.339	-0.02
604.528	0.02
604.718	0.04
604.907	-0
605.097	-0.03
605.286	-0.04
605.476	0.03
605.665	0.02
605.855	-0.01
606.044	0.04
606.234	0.03
606.423	0.01
606.612	-0.04
606.802	-0.02
606.991	0.01
607.181	0.02
607.37	-0.04
607.559	-0.01
607.749	-0.05
607.938	0.01
608.127	-0.01
608.316	-0.02
608.506	0.01
608.695	0
608.884	-0.03
609.073	-0.01
609.263	0.01
609.452	0.02
609.641	0.03
609.83	-0.04
610.019	-0.02
610.208	-0.02
610.397	-0
610.586	0.03
610.775	-0.03
610.965	-0.01
611.154	-0.01
611.343	0
611.532	-0.01
611.721	-0.06
611.91	-0.03
612.099	0.01
612.287	-0.01
612.476	-0.02
612.665	-0.02
612.854	-0.03
613.043	0.02
613.232	0.02
613.421	-0.05
613.61	-0
613.798	-0.01
613.987	0.03
614.176	-0.02
614.365	0.04
614.554	-0.02
614.742	0.02
614.931	-0.01
615.12	0.02
615.309	-0.01
615.497	0.02
615.686	-0.04
615.875	-0.01
616.063	0.04
616.252	0
616.44	-0.02
616.629	0.02
616.818	0.04
617.006	-0
617.195	-0.01
617.383	0.01
617.572	-0
617.76	-0.02
617.949	-0.03
618.137	0.05
618.326	0.04
618.514	-0.01
618.703	-0.03
618.891	0.06
619.079	-0.06
619.268	0.02
619.456	-0.01
619.644	0.04
619.833	0.01
620.021	-0.02
620.209	-0.05
620.398	-0
620.586	0.01
620.774	0.02
620.962	0
621.151	0.09
621.339	-0.01
621.527	-0.05
621.715	-0.04
621.903	-0.03
622.092	-0.03
622.28	0.04
622.468	0.03
622.656	0.02
622.844	0.02
623.032	-0
623.22	-0.06
623.408	0.03
623.596	0.02
623.784	0.01
623.972	-0.06
624.16	-0.01
624.348	0.08
624.536	-0
624.724	-0
624.912	0.05
625.1	0.03
625.288	-0.06
625.476	-0.03
625.664	0.02
625.851	-0.04
626.039	0
626.227	0.02
626.415	-0.02
626.603	-0.04
626.79	0
626.978	-0.02
627.166	0.03
627.354	0
627.541	-0.03
627.729	-0.08
627.917	0.04
628.104	0.02
628.292	0.02
628.48	-0
628.667	0.02
628.855	0.02
629.042	0
629.23	-0.03
629.418	0.03
629.605	-0.01
629.793	-0.03
629.98	-0.05
630.168	-0.01
630.355	-0
630.543	0.01
630.73	-0.03
630.917	0.02
631.105	0.06
631.292	-0.01
631.48	-0.01
631.667	0.07
631.854	0.03
632.042	-0.01
632.229	-0.05
632.416	0.03
632.604	-0.01
632.791	-0.02
632.978	0
633.165	0.01
633.353	0.07
633.54	0.02
633.727	-0.1
633.914	-0.02
634.101	-0.08
634.289	0.03
634.476	-0
634.663	-0.05
634.85	0.01
635.037	-0.03
635.224	-0.05
635.411	0.02
635.598	0
635.785	0.01
635.972	-0.05
636.159	0.05
636.346	-0.05
636.533	0.03
636.72	-0.05
636.907	-0.01
637.094	0.04
637.281	-0.03
637.468	-0
637.655	0.01
637.842	-0.03
638.029	-0.02
638.215	0.05
638.402	-0.01
638.589	-0.03
638.776	-0.03
638.963	-0.05
639.149	0.03
639.336	0.05
639.523	-0.04
639.709	-0.01
639.896	-0.01
640.083	0.04
640.27	0.03
640.456	0
640.643	0.01
640.829	-0.07
641.016	-0
641.203	0
641.389	0.04
641.576	0.03
641.762	-0.01
641.949	-0.03
642.135	0.03
642.322	-0.02
642.508	-0.03
642.695	-0.03
642.881	-0.02
643.068	-0.03
643.254	0
643.441	0.05
643.627	-0.01
643.813	-0.03
644	0.03
644.186	-0.01
644.372	0.01
644.559	0.04
644.745	-0.02
644.931	-0
645.118	-0.01
645.304	-0.03
645.49	-0.03
645.676	-0
645.862	-0.01
646.049	0.04
646.235	-0.01
646.421	0.04
646.607	0.09
646.793	-0.03
646.979	-0.04
647.165	-0.01
647.352	-0
647.538	0.03
647.724	-0.01
647.91	0.01
648.096	0.01
648.282	0.02
648.468	-0
648.654	0.01
648.84	0.01
649.026	-0
649.212	0.01
649.397	-0.04
649.583	-0.05
649.769	0.07
649.955	0.01
650.141	0.02
650.327	0.07
650.513	-0.03
650.698	0.03
650.884	-0.08
651.07	-0.03
651.256	0.01
651.442	-0.01
651.627	-0.02
651.813	-0.02
651.999	0.01
652.184	0.02
652.37	0.01
652.556	-0.03
652.741	0.02
652.927	-0.1
653.113	0
653.298	0.02
653.484	-0
653.669	-0.05
653.855	-0.01
654.04	0.04
654.226	0.02
654.412	-0.05
654.597	-0.04
654.782	0.03
654.968	0.04
655.153	0.01
655.339	-0.05
655.524	-0.05
655.71	0.05
655.895	-0.03
656.08	-0.03
656.266	0.03
656.451	-0.02
656.636	-0.05
656.822	0.01
657.007	-0
657.192	-0.02
657.378	-0.05
657.563	0.04
657.748	0.04
657.933	0.04
658.118	-0.06
658.304	-0.01
658.489	0.03
658.674	-0.01
658.859	-0.06
659.044	0
659.229	-0.05
659.414	-0.02
659.599	-0.05
659.785	-0.06
659.97	0
660.155	0.02
660.34	0
660.525	-0.04
660.71	-0.01
660.895	0.05
661.08	-0.02
661.264	-0.02
661.449	0.07
661.634	0.03
661.819	-0.01
662.004	-0
662.189	-0.07
662.374	-0.03
662.559	-0.06
662.743	-0.07
662.928	0.01
663.113	-0.01
663.298	-0.07
663.483	-0.02
663.667	-0
663.852	-0.04
664.037	0.03
664.221	-0.06
664.406	0.01
664.591	0.03
664.775	-0.02
664.96	-0.01
665.145	-0.02
665.329	-0.01
665.514	0.01
665.698	-0.02
665.883	-0.08
666.068	0.05
666.252	-0
666.437	-0.07
666.621	-0.04
666.806	0.03
666.99	-0.02
667.174	-0.05
667.359	0.05
667.543	0
667.728	-0.03
667.912	-0.08
668.096	0.04
668.281	-0.06
668.465	0.01
668.649	-0.01
668.834	-0.03
669.018	-0.03
669.202	-0.03
669.387	-0.05
669.571	0.05
669.755	-0.05
669.939	0.03
670.124	-0.02
670.308	0.08
670.492	0.02
670.676	0.01
670.86	0.01
671.044	-0.01
671.228	0.01
671.413	-0.04
671.597	-0.03
671.781	-0.02
671.965	0.03
672.149	-0.02
672.333	-0.03
672.517	-0.04
672.701	0.01
672.885	0.02
673.069	-0.05
673.253	0.06
673.437	-0.03
673.621	-0.04
673.804	-0.05
673.988	-0.04
674.172	-0
674.356	-0.06
674.54	-0.01
674.724	0.09
674.908	-0.04
675.091	0.03
675.275	-0.03
675.459	0.02
675.643	0.02
675.826	-0.01
676.01	0.04
676.194	-0.01
676.377	0.04
676.561	0.03
676.745	-0.03
676.928	-0.02
677.112	0.04
677.296	-0.02
677.479	-0.08
677.663	-0.03
677.846	0.01
678.03	-0.05
678.213	-0.03
678.397	0.01
678.58	-0.02
678.764	0.01
678.947	-0.01
679.131	-0.04
679.314	0.05
679.498	-0.05
679.681	-0.03
679.865	0.03
680.048	-0.02
680.231	-0.04
680.415	0.01
680.598	-0.04
680.781	-0
680.965	-0.04
681.148	0.03
681.331	-0.06
681.514	0.03
681.698	-0.03
681.881	0.01
682.064	-0.01
682.247	-0.01
682.43	-0.05
682.614	0.03
682.797	0.04
682.98	0.07
683.163	-0.05
683.346	0.07
683.529	-0.02
683.712	-0.04
683.895	-0.02
684.078	-0.05
684.261	-0.04
684.444	0.04
684.627	-0.02
684.81	-0
684.993	-0.02
685.176	0.03
685.359	-0.02
685.542	-0.01
685.725	0.04
685.908	0.02
686.091	0.01
686.274	0.05
686.457	0.09
686.639	-0
686.822	-0.02
687.005	0.01
687.188	0.01
687.371	0.08
687.553	0.03
687.736	0.03
687.919	0.05
688.102	0.11
688.284	-0.02
688.467	-0.01
688.65	-0.03
688.832	-0.02
689.015	-0.04
689.197	-0.07
689.38	0.08
689.563	0.07
689.745	-0.02
689.928	-0.04
690.11	0.03
690.293	0.01
690.475	-0.07
690.658	0.04
690.84	0.01
691.023	-0.03
691.205	-0.09
691.388	0
691.57	-0.03
691.752	0.03
691.935	-0.03
692.117	-0.05
692.3	0.01
692.482	-0.02
692.664	0.02
692.847	0.06
693.029	0.07
693.211	0.02
693.393	0.01
693.576	-0.04
693.758	-0.04
693.94	-0.02
694.122	0.01
694.304	-0.03
694.487	-0.02
694.669	0.03
694.851	-0.05
695.033	-0.01
695.215	-0.05
695.397	-0.05
695.579	0.03
695.761	-0.01
695.943	-0.04
696.125	0.05
696.308	0.02
696.49	-0.07
696.671	0.11
696.853	-0
697.035	0.1
697.217	-0.03
697.399	0.02
697.581	-0.07
697.763	-0.01
697.945	-0.06
698.127	0.03
698.309	0.06
698.491	-0.01
698.672	0.02
698.854	0.05
699.036	0.03
699.218	-0.05
699.399	0.04
699.581	-0.01
699.763	-0.08
699.945	-0.08
700.126	-0.04
700.308	0.01
700.49	-0.05
700.671	-0.05
700.853	-0.04
701.035	-0.03
701.216	0
701.398	-0.05
701.579	-0.06
701.761	0.05
701.943	-0.04
702.124	-0.08
702.306	-0.06
702.487	0.11
702.669	-0.03
702.85	-0.04
703.031	-0.09
703.213	0.11
703.394	0.05
703.576	-0.06
703.757	0.07
703.938	0.11
704.12	0.18
704.301	-0.03
704.483	-0.09
704.664	0.01
704.845	0.02
705.026	0.03
705.208	0.01
705.389	0.03
705.57	-0.02
705.751	0.05
705.933	0.01
706.114	0.04
706.295	0.03
706.476	-0.03
706.657	0.12
706.838	0.1
707.02	0.05
707.201	-0.04
707.382	-0.09
707.563	0.02
707.744	-0.02
707.925	-0.03
708.106	-0.06
708.287	0.03
708.468	0.05
708.649	-0.05
708.83	-0.04
709.011	-0.07
709.192	0.12
709.373	-0.12
709.554	-0.02
709.734	0.06
709.915	0.01
710.096	-0
710.277	-0.1
710.458	0.05
710.639	0.02
710.819	-0.1
711	-0.02
711.181	0.07
711.362	0.09
711.542	0.01
711.723	-0.03
711.904	0.01
712.085	0.04
712.265	0.05
712.446	-0.11
712.627	-0.04
712.807	-0.01
712.988	-0.03
713.168	-0.09
713.349	0.05
713.53	-0.13
713.71	-0.08
713.891	-0.09
714.071	-0.03
714.252	-0.01
714.432	-0
714.613	-0.08
714.793	-0.04
714.974	0.07
715.154	0.09
715.334	0.05
715.515	0.1
715.695	-0.09
715.876	0.01
716.056	0.04
716.236	-0.08
716.417	-0
716.597	-0.02
716.777	0.14
716.957	-0.03
717.138	0.04
717.318	-0.03
717.498	-0.04
717.678	0.07
717.859	-0.01
718.039	-0.05
718.219	0.05
718.399	0.08
718.579	-0.05
718.759	-0.05
718.939	0.02
719.12	0.03
719.3	0.05
719.48	-0.1
719.66	-0.12
719.84	0.06
720.02	-0.07
720.2	0.02
720.38	0.04
720.56	0.09
720.74	-0.09
720.92	0.02
721.1	0.1
721.279	0.05
721.459	-0.01
721.639	-0.08
721.819	0.03
721.999	0.03
722.179	0.06
722.359	-0.08
722.538	-0.02
722.718	0.02
722.898	-0.02
723.078	-0.01
723.257	-0.05
723.437	0.03
723.617	0.04
723.797	0
723.976	0.01
724.156	-0.02
724.336	0.06
724.515	0.13
724.695	-0.14
724.874	-0.01
725.054	0.02
725.234	-0.09
725.413	0.03
725.593	0
725.772	0.06
725.952	-0.12
726.131	0.06
726.311	0.03
726.49	-0.05
726.67	-0.03
726.849	-0.07
727.028	-0.08
727.208	-0.07
727.387	0.07
727.567	-0.11
727.746	-0.05
727.925	-0.03
728.105	-0.11
728.284	0.01
728.463	-0.03
728.643	-0.05
728.822	-0
729.001	-0.03
729.18	-0.06
729.359	0.04
729.539	-0.05
729.718	0.08
729.897	0.02
730.076	-0
730.255	-0.18
730.434	0.02
730.614	0.03
730.793	0.08
730.972	-0.01
731.151	-0.02
731.33	0.05
731.509	0.15
731.688	0.02
731.867	-0.01
732.046	-0.17
732.225	0.12
732.404	-0.11
732.583	-0.11
732.762	0.02
732.941	0.03
733.12	0.08
733.298	-0.07
733.477	0.03
733.656	-0.04
733.835	-0.11
734.014	0.03
734.193	-0.07
734.371	0.01
734.55	-0
734.729	-0.15
734.908	0.03
735.086	0.02
735.265	0.09
735.444	-0.2
735.623	-0.11
735.801	-0.09
735.98	0.02
736.159	0.04
736.337	0.05
736.516	-0.07
736.694	0.09
736.873	-0.03
737.052	0.12
737.23	-0.01
737.409	-0.09
737.587	0.16
737.766	-0.17
737.944	-0.1
738.123	0.04
738.301	0.05
738.479	-0.04
738.658	0.09
738.836	-0.21
739.015	-0.05
739.193	0.18
739.371	-0.08
739.55	-0.08
739.728	-0.18
739.906	0.15
740.085	0.21
740.263	0.06
740.441	-0.16
740.62	0.22
740.798	0.02
740.976	-0.19
741.154	-0.09
741.332	0.15
741.511	0.01
741.689	-0.02
741.867	0.03
742.045	0.03
742.223	0.06
742.401	-0.11
742.579	-0.11
742.757	0.11
742.935	-0.05
743.114	-0.1
743.292	-0.07
743.47	0.01
743.648	0.06
743.826	-0.16
744.004	0.02
744.181	0.18
744.359	-0.1
744.537	0.07
744.715	0.04
744.893	-0.02
745.071	0.07
745.249	-0.05
745.427	-0.07
745.605	0.09
745.782	-0.01
745.96	0.07
746.138	-0.03
746.316	0
746.493	-0.05
746.671	-0.09
746.849	-0.04
747.027	0.2
747.204	-0.04
747.382	0.07
747.56	-0.17
747.737	-0.08
747.915	-0.2
748.093	0.05
748.27	0.01
748.448	-0.06
748.625	-0.13
748.803	-0.15
748.98	-0.18
749.158	0.04
749.335	0.13
749.513	0.04
749.69	-0.06
749.868	0.01
750.045	0.04
750.223	-0
750.4	-0.23
750.578	0.11
750.755	-0.03
750.932	-0.28
751.11	0.07
751.287	-0.13
751.464	0.18
751.642	-0.14
751.819	0.04
751.996	0.03
752.173	-0.01
752.351	-0.05
752.528	-0
752.705	0.01
752.882	-0.06
753.06	0.05
753.237	0.13
753.414	0.15
753.591	0.17
753.768	-0.09
753.945	-0.05
754.122	-0.07
754.299	0.07
754.476	-0.08
754.654	0.04
754.831	0.09
755.008	-0.07
755.185	-0.07
755.362	-0.01
755.539	0.02
755.716	-0.1
755.892	-0.15
756.069	-0.11
756.246	0.02
756.423	-0
756.6	0.14
756.777	-0.05
756.954	0.01
757.131	-0.1
757.307	-0.1
757.484	-0.03
757.661	-0.03
757.838	0.01
758.015	-0.11
758.191	0.15
758.368	0.12
758.545	0.16
758.721	0.08
758.898	-0.09
759.075	0.05
759.251	0.04
759.428	0.08
759.605	-0.19
759.781	-0.03
759.958	0.14
760.134	0.1
760.311	-0.13
760.488	0.22
760.664	0.08
760.841	0.05
761.017	-0.2
761.194	0.08
761.37	0.06
761.547	0
761.723	-0.04
761.899	0.08
762.076	-0.22
762.252	-0.07
762.429	-0.03
762.605	0.02
762.781	-0.02
762.958	0.14
763.134	-0.04
763.31	-0.16
763.486	0.12
763.663	-0.24
763.839	-0.02
764.015	-0.15
764.191	-0.16
764.368	-0.06
764.544	-0.19
764.72	0.02
764.896	0.13
765.072	0.03
765.248	-0.01
765.425	0
765.601	0.03
765.777	-0.01
765.953	-0.17
766.129	-0.01
766.305	-0.04
766.481	0.12
766.657	-0.02
766.833	0.2
767.009	-0.18
767.185	0.02
767.361	-0.09
767.537	-0.1
767.713	0.1
767.889	-0.04
768.065	-0.06
768.24	-0.2
768.416	0.09
768.592	-0.05
768.768	0.03
768.944	0.07
769.12	-0.02
769.295	-0.02
769.471	-0
769.647	-0.11
769.823	0.18
769.998	-0.1
770.174	-0.09
770.35	0.15
770.525	0.27
770.701	-0.03
770.877	-0.05
771.052	-0.16
771.228	-0.01
771.403	0.13
771.579	-0.01
771.755	0.29
771.93	-0.1
772.106	-0.12
772.281	-0.17
772.457	0.1
772.632	0.06
772.808	-0.28
772.983	-0.08
773.159	-0.15
773.334	0.09
773.509	-0.08
773.685	-0.11
773.86	0.34
774.036	0.26
774.211	-0.01
774.386	-0.07
774.562	-0.07
774.737	-0.14
774.912	-0.11
775.087	0.1
775.263	-0.06
775.438	0.05
775.613	-0.16
775.788	0.07
775.964	0.18
776.139	0.46
776.314	-0.14
776.489	0.02
776.664	0
776.839	-0.09
777.014	0.08
777.19	0.05
777.365	0.18
777.54	0.25
777.715	-0.03
777.89	0.06
778.065	-0.07
778.24	-0.05
778.415	0.17
778.59	-0.18
778.765	-0.04
778.94	0.21
779.115	-0.07
779.289	0.04
779.464	0.12
779.639	-0.02
779.814	-0.25
779.989	-0.18
780.164	0.19
780.339	0.12
780.513	-0.2
780.688	-0.21
780.863	0.04
781.038	0.15
781.212	-0.13
781.387	0.12
781.562	0.25
781.737	0.15
781.911	0.14
782.086	-0.17
782.261	-0.06
782.435	0.4
782.61	-0.1
782.784	-0.02
782.959	0.11
783.134	-0.13
783.308	-0.23
783.483	-0.08
783.657	0.3
783.832	-0.01
784.006	-0.43
784.181	0.02
784.355	0.17
784.53	-0.2
784.704	-0.18
784.878	0.22
785.053	0.15
785.227	-0.01
785.402	0.19
785.576	-0.25
785.75	0.21
785.925	-0.08
786.099	0.1
786.273	0.05
786.448	0.38
786.622	0.01
786.796	-0.15
786.97	0.03
787.145	0.4
787.319	-0.24
787.493	-0.16
787.667	-0.36
787.841	0.05
788.015	0.15
788.19	-0.22
788.364	-0.01
788.538	0.04
788.712	0.18
788.886	-0.02
789.06	0.28
789.234	0.18
789.408	-0.14
789.582	-0.05
789.756	-0.19
789.93	-0.12
790.104	-0.07
790.278	-0.21
790.452	-0.47
790.626	0.13
790.8	-0.21
790.973	0.01
791.147	0.35
791.321	0.25
791.495	0.21
791.669	-0.09
791.843	0.05
792.016	0.13
792.19	0.45
792.364	-0.09
792.538	0.48
792.711	0.26
792.885	0.05
793.059	-0.26
793.233	-0.43
793.406	0.17
793.58	0.29
793.754	-0.12
793.927	-0.13
794.101	0.22
794.274	0.09
794.448	0.23
794.622	-0.04
794.795	0.3
794.969	-0.52
795.142	0.25
795.316	0.02
795.489	0.01
795.663	0.21
795.836	-0.14
796.009	-0.15
796.183	0.32
796.356	0.18
796.53	0.04
796.703	-0.11
796.876	0.33
797.05	0.01
797.223	0.13
797.396	-0.1
797.57	0.05
797.743	0.44
797.916	0.21
798.09	-0.14
798.263	0.23
798.436	0.25
798.609	-0.24
798.782	-0.16
798.956	0.16
799.129	0.15
799.302	-0.22
799.475	-0.15
799.648	-0.13
799.821	-0.19
799.994	-0.02
800.167	-0.35
800.34	0.16
800.514	-0.05
800.687	-0.22
800.86	-0.31
801.033	0.24
801.206	0.1
801.379	-0.25
801.551	0.07
801.724	0.03
801.897	0.48
802.07	0.02
802.243	-0.56
802.416	-0.08
802.589	-0.15
802.762	0.11
802.935	-0.06
803.107	0.38
803.28	0.36
803.453	0.16
803.626	-0.39
803.798	-0.07
803.971	-0.31
804.144	0.24
804.317	-0.13
804.489	0.02
804.662	0.03
804.835	0.11
805.007	-0.01
805.18	0.5
805.353	-0.08
805.525	-0.29
805.698	-0.3
805.87	0.33
806.043	0.35
806.215	-0.43
806.388	0.03
806.56	0.04
806.733	0.23
806.905	0.01
807.078	-0.25
807.25	-0.37
807.423	0.44
807.595	-0.14
807.768	0.14
807.94	-0.08
808.112	0.4
808.285	-0.18
808.457	0.01
808.629	0.14
808.802	0.15
808.974	-0.1
809.146	-0.09
809.318	-0.26
809.491	0.14
809.663	-0.13
809.835	-0.13
810.007	0.09
810.18	0.11
810.352	-0.33
810.524	0.08
810.696	0.16
810.868	0.44
811.04	-0.25
811.212	-0.25
811.384	0.35
811.556	-0.06
811.728	-0.34
811.901	0.85
812.073	0.23
812.245	0.13
812.417	0.03
812.589	-0.58
812.76	0.16
812.932	-0.06
813.104	0.35
813.276	-0.18
813.448	0.64
813.62	0.02
813.792	0.11
813.964	-0.09
814.136	0.35
814.307	-0.46
814.479	-0.25
814.651	-0.05
814.823	0.62
814.995	-0.07
815.166	-0.17
815.338	-0.42
815.51	-0.38
815.681	0.93
815.853	-0.1
816.025	-0.04
816.196	0.43
816.368	0.35
816.54	-0.77
816.711	-0.52
816.883	0.12
817.054	0.87
817.226	-0.6
817.398	0.06
817.569	-0.33
817.741	0.48
817.912	-0.12
818.084	-0.21
818.255	0.28
818.426	-0.09
818.598	-0.08
818.769	-0.21
818.941	0.51
819.112	0.46
819.283	-0.02
819.455	-0.23
819.626	-0.16
819.798	-0.03
819.969	0.16
820.14	-0
820.311	-0.06
820.483	-0.19
820.654	0.03
820.825	-0.08
820.996	-0.3
821.168	-0.31
821.339	-0.13
821.51	-0.77
821.681	-0.26
821.852	0.12
822.023	-0.07
822.195	-0.97
822.366	0.02
822.537	-0.01
822.708	0.24
822.879	-0.09
823.05	0.62
823.221	0.53
823.392	0.1
823.563	-0.4
823.734	0.14
823.905	0.04
824.076	0.03
824.247	-0.6
824.418	-0.11
824.589	0.59
824.759	0.17
824.93	0.16
825.101	-0.78
825.272	0.98
825.443	0.52
825.614	0.51
825.784	-0.89
825.955	1.19
826.126	-0
826.297	0.32
826.467	0.83
826.638	0.94
826.809	-0.83
826.98	-0.64
827.15	0.63
827.321	-0.04
827.492	0.46
827.662	0.32
827.833	1.38
828.003	0.72
828.174	-0.23
828.345	-0.37
828.515	0.77
828.686	-0.01
828.856	-0.17
829.027	0.17
829.197	-0.12
829.368	0.2
829.538	-0.44
829.709	-0.43
829.879	0.1
830.049	0.18
830.22	-0.57
830.39	-0
830.56	0.54
830.731	0.25
830.901	-0
831.072	-0.07
831.242	0.83
831.412	-0.2
831.582	-0.75
831.753	-0.84
831.923	0.73
832.093	0.07
832.263	-0.02
832.434	-0.82
832.604	-0.31
832.774	-0.22
832.944	0.06
833.114	-0.42
833.284	0.04
833.454	-0.46
833.624	0.08
833.795	0.06
833.965	1.06
834.135	0.74
834.305	-1.37
834.475	-0.73
834.645	-0.41
834.815	-0.34
834.985	-0.75
835.155	-0.38
835.325	0.2
835.494	0.61
835.664	-0.17
835.834	-0.45
836.004	0.39
836.174	0.04
836.344	-0.18
836.514	-1.09
836.684	-0.53
836.853	-0.38
837.023	0.48
837.193	-0.49
837.363	0.79
837.532	1
837.702	-0.75
837.872	-0.37
838.041	0.75
838.211	1.13
838.381	-0.54
838.55	-0.26
838.72	1.92
838.89	0.62
839.059	0.07
839.229	-1
839.398	1.44
839.568	-0.52
839.738	-0.82
839.907	0.7
840.077	1.3
840.246	-1.05
840.416	-0.96
840.585	-0.79
840.755	1.01
840.924	0.7
841.093	-0.12
841.263	-0.78
841.432	-0.06
841.602	-0.78
841.771	-1.39
841.94	0.53
842.11	1.74
842.279	1.44
842.448	-1.03
842.617	-0.56
842.787	1.54
842.956	-0.89
843.125	-0.11
843.294	0.54
843.464	0.73
843.633	0.46
843.802	-1.14
843.971	0.07
844.14	0.26
844.309	1.01
844.479	-0.46
844.648	0.06
844.817	-0.07
844.986	0.65
845.155	-0.17
845.324	-0.3
845.493	0.11
845.662	-1.22
845.831	-0.17
846	0.34
846.169	-0.03
846.338	1.18
846.507	-0.25
846.676	0.15
846.844	-0.22
847.013	0.5
847.182	-0.09
847.351	-0.49
847.52	0.07
847.689	0.09
847.858	0.16
848.026	-1.2
848.195	-0.28
848.364	-0.13
848.533	-0.94
848.701	-0.45
848.87	-0.69
849.039	0.55
849.207	1.45
849.376	0.37
849.545	1.04
849.713	0.11
849.882	-1.09
850.051	0.05
850.219	0.11
850.388	0.94
850.556	-1.35
850.725	-0.95
850.893	-0.02
851.062	-0.14
851.23	0.18
851.399	-1.33
851.567	-0.42
851.736	0.01
851.904	-1.04
852.073	-0.22
852.241	0.29
852.41	-0.74
852.578	-0.25
852.746	-0.43
852.915	-0.05
853.083	-0.11
853.251	-0.82
853.42	-0.48
853.588	-0.44
853.756	0.68
853.924	0.28
854.093	-0.78
854.261	-0.25
854.429	-0.68
854.597	-0.6
854.765	-1.69
854.934	1.11
855.102	1.37
855.27	-0.93
855.438	0.33
855.606	0.36
855.774	2.29
855.942	-0.69
856.11	-1.77
856.278	0.86
856.446	0.63
856.614	-0.22
856.782	-0.53
856.95	0.55
857.118	-0.08
857.286	-0.44
857.454	-0.6
857.622	1.25
857.79	1.07
857.958	-1.73
858.126	-0.41
858.294	-2.51
858.462	0.22
858.629	0.46
858.797	-0.9
858.965	1.05
859.133	-0.65
859.301	0.39
859.468	0.5
859.636	-2.03
859.804	1.92
859.971	1.83
860.139	-0.66
860.307	0.32
860.474	-1.01
860.642	-1.67
860.81	0.73
860.977	-0.21
861.145	2.35
861.313	-0.21
861.48	-1.26
861.648	1.11
861.815	0.1
861.983	-1.07
862.15	-0.04
862.318	0.63
862.485	2.23
862.653	-1.36
862.82	-0.9
862.988	1.42
863.155	0.01
863.322	-2.49
863.49	-1.61
863.657	-0.6
863.824	1.87
863.992	0.08
864.159	-0.69
864.326	0.62
864.494	-1.66
864.661	3.48
864.828	-2.39
864.996	1.36
865.163	0.72
865.33	-1.86
865.497	-1.97
865.664	0.49
865.832	-0.88
865.999	-0.88
866.166	-1.88
866.333	-1.1
866.5	-0.3
866.667	0.03
866.834	-0
867.001	0.71
867.168	-2.99
867.335	0.5
867.502	-0.74
867.669	0.09
867.836	2.39
868.003	-0.65
868.17	0.79
868.337	0.22
868.504	1.02
868.671	-2.73
868.838	-1.32
869.005	-1.61
869.172	-0.56
869.339	1.19
869.505	-0.65
869.672	0.05
869.839	1.79
870.006	0.28
870.173	-1.18
870.339	1.29
870.506	2.92
870.673	-1.53
870.84	0.41
871.006	0.46
871.173	-0.75
871.34	0.73
871.506	-1.32
871.673	0.66
871.839	-2.35
872.006	-1
872.173	1
872.339	-0
872.506	1.85
872.672	-0.92
872.839	-1.98
873.005	-0.32
873.172	2.27
873.338	1.3
873.505	-0.25
873.671	-0.47
873.838	2.73
874.004	-1.17
874.171	-0.41
874.337	0.84
874.503	0.77
874.67	0.08
874.836	-1.67
875.002	2.09
875.169	0.38
875.335	-1.07
875.501	0.19
875.668	2.11
875.834	-0.2
876	-0.34
876.166	1.97
876.332	1.24
876.499	1.91
876.665	0.25
876.831	0.36
876.997	2.93
877.163	2.04
877.329	0.31
877.495	0.11
877.662	0.57
877.828	0.31
877.994	-0.57
878.16	-3.42
878.326	1
878.492	0.05
878.658	-0.43
878.824	-0.89
878.99	1.76
879.156	-1.99
879.322	3.12
879.487	-2.3
879.653	0.09
879.819	-0.21
879.985	-0.47
880.151	0.52
880.317	0.58
880.483	1.08
880.648	2
880.814	-4.52
880.98	0.71
881.146	-2.08
881.312	-2.05
881.477	0.32
881.643	1.16
881.809	0.81
881.974	0.71
882.14	-2.99
882.306	2.24
882.471	2.54
882.637	-0.88
882.803	-0.51
882.968	2.95
883.134	3.98
883.299	-0.84
883.465	-0.32
883.63	2.11
883.796	0.82
883.961	0.77
884.127	1
884.292	-3.38
884.458	-1.85
884.623	-1.85
