Data from Apollo_Calib_20240827__AbsoluteIrradiance__471__07-00-02-090.txt Node

Date: Wed Aug 28 07:00:02 BST 2024
User: biology
Spectrometer: FLMT08252
Trigger mode: 0
Integration Time (sec): 5.000000E-1
Scans to average: 5
Electric dark correction enabled: true
Nonlinearity correction enabled: false
Boxcar width: 0
XAxis mode: Wavelengths
Number of Pixels in Spectrum: 3648
>>>>>Begin Spectral Data<<<<<
179.588	-0
179.809	-0
180.03	-0
180.251	-0
180.473	-0
180.694	0
180.915	0
181.136	-0
181.357	-0
181.578	-0
181.799	-0
182.02	-0
182.241	-0
182.462	0
182.683	0
182.904	-0
183.125	-0
183.346	-0
183.567	0
183.788	-0
184.009	-0
184.23	0
184.451	-0
184.672	-0
184.892	-0
185.113	0
185.334	0
185.555	-0
185.776	-0
185.996	-0
186.217	-0
186.438	-0
186.659	-0
186.879	0
187.1	0
187.321	-0
187.541	-0
187.762	-0
187.983	0
188.203	-0
188.424	-0
188.644	-0
188.865	-0
189.086	-0
189.306	-0
189.527	-0
189.747	-0
189.968	-0
190.188	0
190.409	-0
190.629	0
190.849	-0
191.07	-0
191.29	0
191.511	-0
191.731	-0
191.951	-0
192.172	-0
192.392	-0
192.612	-0
192.833	-0
193.053	0
193.273	0
193.493	-0
193.714	-0
193.934	0
194.154	0
194.374	0
194.594	-0
194.815	-0
195.035	0
195.255	-0
195.475	-0
195.695	0
195.915	0
196.135	-0
196.355	0
196.575	0
196.795	-0
197.015	-0
197.235	-0
197.455	-0
197.675	0
197.895	-0
198.115	-0
198.335	0
198.555	-0
198.775	0
198.995	0
199.214	0
199.434	-0
199.654	-0
199.874	-0
200.094	-1.49
200.313	-0.19
200.533	-0.64
200.753	-1.02
200.973	0.67
201.192	0.39
201.412	-1.27
201.632	-0.21
201.851	0.15
202.071	-0.27
202.291	-0.55
202.51	-0.89
202.73	0.17
202.95	-0.66
203.169	-0.58
203.389	-0.18
203.608	-0.27
203.828	-0.91
204.047	-0.49
204.267	0.46
204.486	0.05
204.706	0.31
204.925	-0.27
205.145	-0.29
205.364	0.11
205.583	0.4
205.803	-0.24
206.022	-0.51
206.242	-0.41
206.461	-0.01
206.68	-0.18
206.9	0.02
207.119	0.33
207.338	0.19
207.557	-0.22
207.777	0.06
207.996	-0.07
208.215	0.21
208.434	-0.25
208.654	-0.52
208.873	-0.31
209.092	0.45
209.311	-0.07
209.53	-0.12
209.749	-0.3
209.968	-0.45
210.187	-0.24
210.407	-0.44
210.626	-0.32
210.845	0.01
211.064	-0.15
211.283	-0.15
211.502	0.31
211.721	-0.09
211.94	-0.29
212.159	0.08
212.377	0.03
212.596	0.15
212.815	0.05
213.034	-0.07
213.253	0.08
213.472	0.13
213.691	0.08
213.91	-0.38
214.128	-0.25
214.347	0.36
214.566	-0.34
214.785	-0.41
215.003	-0.07
215.222	-0.11
215.441	-0.34
215.66	-0.14
215.878	-0.22
216.097	0.25
216.316	-0.48
216.534	-0.33
216.753	-0.09
216.972	-0.09
217.19	-0.13
217.409	-0.25
217.627	-0.34
217.846	-0.11
218.064	-0.09
218.283	-0.17
218.501	0.35
218.72	-0.02
218.938	-0.19
219.157	-0.18
219.375	-0.04
219.594	0.05
219.812	-0.17
220.031	-0.31
220.249	0.15
220.467	0.2
220.686	-0.21
220.904	-0.23
221.122	-0.29
221.341	0.29
221.559	-0.09
221.777	-0.31
221.995	0.06
222.214	-0.01
222.432	-0.25
222.65	0.15
222.868	-0.03
223.086	-0.12
223.305	0.01
223.523	-0.09
223.741	0.13
223.959	-0.18
224.177	-0.31
224.395	-0.17
224.613	0.01
224.831	0.04
225.049	-0.19
225.267	-0.17
225.485	-0.08
225.703	0.08
225.921	-0.15
226.139	-0.05
226.357	-0.04
226.575	-0.03
226.793	-0.15
227.011	0.47
227.229	-0.04
227.447	0.25
227.665	-0.14
227.883	-0.33
228.1	0.11
228.318	0.12
228.536	-0.25
228.754	-0.2
228.972	-0
229.189	0.04
229.407	-0.13
229.625	-0.16
229.843	0.24
230.06	-0.04
230.278	-0.14
230.496	-0.17
230.713	-0
230.931	0.21
231.149	-0.01
231.366	-0.25
231.584	-0.11
231.801	0.25
232.019	-0.02
232.236	-0.24
232.454	-0.13
232.671	-0
232.889	-0
233.106	-0.08
233.324	-0.16
233.541	-0.01
233.759	0.05
233.976	-0.13
234.194	-0
234.411	-0.09
234.628	-0.06
234.846	-0.07
235.063	-0.03
235.28	-0.04
235.498	-0.06
235.715	-0.15
235.932	0.14
236.149	0.01
236.367	-0.18
236.584	-0.04
236.801	-0.07
237.018	0.06
237.236	-0.05
237.453	-0.16
237.67	0.15
237.887	-0.02
238.104	-0.07
238.321	-0.15
238.538	-0.12
238.755	0.1
238.973	-0.19
239.19	0.02
239.407	0.01
239.624	-0.04
239.841	-0.16
240.058	-0.1
240.275	0.1
240.492	-0
240.709	-0.06
240.925	-0.12
241.142	-0.02
241.359	-0.16
241.576	-0.12
241.793	-0.14
242.01	-0.03
242.227	0.06
242.444	0.02
242.66	-0.01
242.877	-0.04
243.094	-0.09
243.311	-0
243.527	-0.05
243.744	-0.07
243.961	0.08
244.178	-0.02
244.394	-0.02
244.611	0.1
244.828	0.11
245.044	-0.11
245.261	-0.04
245.477	0.06
245.694	0.12
245.911	-0.08
246.127	-0.03
246.344	0.07
246.56	0.01
246.777	-0.11
246.993	0.01
247.21	-0.07
247.426	0.04
247.643	-0.1
247.859	-0.16
248.076	-0.04
248.292	0.14
248.508	-0.06
248.725	-0
248.941	0.01
249.157	0.09
249.374	-0.1
249.59	-0.07
249.806	0.02
250.023	0.02
250.239	-0.05
250.455	-0.09
250.671	-0
250.888	0.06
251.104	0.01
251.32	-0.05
251.536	-0.04
251.752	-0.03
251.969	-0.03
252.185	-0.04
252.401	0.13
252.617	0.03
252.833	-0.08
253.049	-0.03
253.265	-0.01
253.481	0.02
253.697	-0.14
253.913	-0.12
254.129	-0.04
254.345	-0.02
254.561	-0.01
254.777	-0.05
254.993	0.03
255.209	0.04
255.425	-0.05
255.641	-0.09
255.857	0.02
256.073	0
256.288	-0.12
256.504	-0.04
256.72	0.02
256.936	0.06
257.152	-0.05
257.367	-0.05
257.583	0.04
257.799	0.03
258.015	-0.06
258.23	-0.07
258.446	0.05
258.662	-0.04
258.877	-0.09
259.093	-0.04
259.309	-0.1
259.524	-0.03
259.74	-0.12
259.955	-0.11
260.171	-0.03
260.387	-0.01
260.602	-0
260.818	0.03
261.033	-0.09
261.249	-0.09
261.464	-0.04
261.68	-0.08
261.895	0
262.11	-0.01
262.326	-0.09
262.541	-0.11
262.757	0.01
262.972	-0.06
263.187	-0.02
263.403	-0.04
263.618	0.01
263.833	-0.04
264.049	-0.13
264.264	-0.01
264.479	0.06
264.694	0.09
264.91	-0.06
265.125	0.02
265.34	-0.03
265.555	0.08
265.77	0.01
265.986	-0.07
266.201	0.04
266.416	0.05
266.631	-0.01
266.846	-0.01
267.061	-0.02
267.276	0.06
267.491	-0.19
267.706	-0.02
267.921	-0.08
268.136	-0.02
268.351	0.02
268.566	-0.08
268.781	0.08
268.996	0.04
269.211	-0.03
269.426	-0.06
269.641	-0.04
269.856	0.08
270.071	-0.12
270.285	-0.13
270.5	0.05
270.715	0.1
270.93	0.01
271.145	-0
271.359	0.02
271.574	-0.02
271.789	-0.05
272.004	-0.09
272.218	-0.01
272.433	0.03
272.648	-0.06
272.862	0.03
273.077	-0.02
273.292	0.01
273.506	-0.04
273.721	-0.04
273.936	0.03
274.15	0.06
274.365	-0.06
274.579	-0
274.794	0.03
275.008	0.02
275.223	-0.11
275.437	-0.03
275.652	0.01
275.866	0.01
276.081	0.04
276.295	0.04
276.509	0.03
276.724	-0.04
276.938	-0.01
277.153	-0.02
277.367	0.01
277.581	-0.08
277.796	-0.05
278.01	-0.05
278.224	-0.04
278.438	0.1
278.653	-0.09
278.867	-0.07
279.081	-0.05
279.295	-0.07
279.51	-0
279.724	-0.07
279.938	0.07
280.152	-0.01
280.366	-0.06
280.58	0.02
280.794	0.1
281.008	0.06
281.222	0.04
281.437	0.06
281.651	-0.03
281.865	0.04
282.079	0.01
282.293	-0.09
282.507	-0.05
282.721	-0.02
282.935	-0.01
283.148	-0.04
283.362	-0.01
283.576	-0.08
283.79	-0.05
284.004	-0.04
284.218	0.05
284.432	-0.06
284.646	0.01
284.859	-0.03
285.073	-0.04
285.287	-0.02
285.501	-0.01
285.714	-0.03
285.928	-0.04
286.142	0.01
286.356	-0.03
286.569	-0.04
286.783	0.04
286.997	0.01
287.21	0.01
287.424	0
287.637	-0.04
287.851	-0.05
288.065	0.04
288.278	-0.08
288.492	-0.02
288.705	-0.03
288.919	0.01
289.132	-0.06
289.346	0.01
289.559	-0.12
289.773	-0.1
289.986	-0.03
290.2	-0.05
290.413	0.02
290.626	-0.07
290.84	-0.05
291.053	-0.04
291.267	0.04
291.48	0.04
291.693	0.05
291.906	-0.03
292.12	-0.01
292.333	-0.05
292.546	-0.08
292.76	0.04
292.973	-0.03
293.186	0.01
293.399	-0.04
293.612	0.03
293.826	-0.03
294.039	0.01
294.252	-0.01
294.465	0.02
294.678	0.04
294.891	0.01
295.104	-0.08
295.317	-0.03
295.53	-0.01
295.743	-0.03
295.956	-0.03
296.169	0.01
296.382	0.04
296.595	-0.03
296.808	-0.08
297.021	0.06
297.234	0.05
297.447	-0.02
297.66	0.05
297.873	0.05
298.086	0.02
298.299	-0.03
298.511	-0.04
298.724	-0.06
298.937	-0.07
299.15	-0.06
299.363	0.02
299.575	0.06
299.788	0.02
300.001	-0.05
300.213	-0.08
300.426	-0.01
300.639	-0.02
300.852	-0.03
301.064	0.02
301.277	0.07
301.489	0.04
301.702	-0
301.915	-0.01
302.127	0.02
302.34	-0.05
302.552	0.03
302.765	-0
302.977	0.05
303.19	-0.03
303.402	-0.03
303.615	0.01
303.827	-0.03
304.04	-0.05
304.252	0.02
304.464	-0
304.677	0.09
304.889	0.05
305.102	-0
305.314	-0.01
305.526	0.08
305.739	0
305.951	-0.05
306.163	-0.02
306.375	0.06
306.588	-0.03
306.8	-0.01
307.012	-0.07
307.224	0.04
307.436	0.03
307.649	-0.07
307.861	0.05
308.073	0.03
308.285	-0.01
308.497	-0.06
308.709	-0.03
308.921	0.02
309.133	0
309.346	-0
309.558	-0.01
309.77	0.01
309.982	0.05
310.194	0
310.406	-0.02
310.617	0.07
310.829	-0
311.041	0.01
311.253	-0.05
311.465	-0.02
311.677	0.01
311.889	-0.03
312.101	-0.02
312.313	0
312.524	0.02
312.736	-0.05
312.948	-0.04
313.16	0.05
313.372	0.04
313.583	-0
313.795	-0.04
314.007	-0.03
314.218	0.04
314.43	0.01
314.642	-0.02
314.853	-0.04
315.065	0.04
315.277	-0.04
315.488	0.03
315.7	0.01
315.912	0.01
316.123	0.01
316.335	-0.04
316.546	0.11
316.758	-0.01
316.969	-0.02
317.181	-0.04
317.392	-0
317.604	0.07
317.815	-0.02
318.026	-0.05
318.238	-0.02
318.449	0.02
318.661	-0.07
318.872	-0.03
319.083	-0.05
319.295	-0.02
319.506	-0.07
319.717	-0
319.929	0.03
320.14	-0.02
320.351	-0.02
320.562	-0.04
320.774	0
320.985	-0.04
321.196	-0.04
321.407	-0.1
321.618	0.04
321.829	0.02
322.041	0.03
322.252	0.01
322.463	-0.01
322.674	0.04
322.885	-0.08
323.096	-0.04
323.307	-0.04
323.518	0.02
323.729	-0.03
323.94	-0
324.151	-0.02
324.362	-0.04
324.573	0
324.784	-0.05
324.995	0.03
325.206	0.05
325.417	-0.02
325.628	-0.01
325.838	0.03
326.049	0.04
326.26	0.02
326.471	-0.06
326.682	0.01
326.892	0.03
327.103	-0.05
327.314	-0.04
327.525	0.03
327.735	0.02
327.946	-0.01
328.157	-0.04
328.368	-0.03
328.578	-0.06
328.789	0.03
328.999	-0.01
329.21	-0.07
329.421	-0
329.631	-0.05
329.842	-0.04
330.052	0.02
330.263	0.01
330.473	0.09
330.684	-0.01
330.894	-0.01
331.105	-0.01
331.315	0.02
331.526	-0.08
331.736	0.04
331.947	0.02
332.157	0.02
332.367	-0.01
332.578	0.02
332.788	0.03
332.999	0.03
333.209	0.03
333.419	-0.03
333.629	0.03
333.84	0.05
334.05	-0.02
334.26	0.03
334.47	0.07
334.681	0.03
334.891	-0.03
335.101	0.01
335.311	0.05
335.521	0
335.732	-0.05
335.942	0.07
336.152	-0
336.362	-0.01
336.572	-0.01
336.782	0
336.992	-0.02
337.202	-0.04
337.412	-0.05
337.622	0
337.832	0.01
338.042	-0.01
338.252	-0.03
338.462	0.01
338.672	0.02
338.882	-0.07
339.092	-0.03
339.302	0.07
339.511	-0
339.721	-0.04
339.931	-0.07
340.141	0.06
340.351	0.05
340.561	0.03
340.77	-0.02
340.98	0.01
341.19	0.01
341.4	-0.02
341.609	-0.09
341.819	-0.05
342.029	-0.06
342.238	0.04
342.448	-0.04
342.658	0.04
342.867	0.01
343.077	-0.03
343.286	-0.01
343.496	-0.05
343.706	0.04
343.915	-0.03
344.125	-0
344.334	0.01
344.544	-0.04
344.753	-0.06
344.963	-0.01
345.172	-0.03
345.381	-0.04
345.591	-0.02
345.8	-0.04
346.01	0.04
346.219	0.06
346.428	-0.1
346.638	0.01
346.847	-0.01
347.056	0.08
347.266	-0.07
347.475	-0.03
347.684	0
347.893	0.02
348.103	-0.02
348.312	-0.02
348.521	-0.03
348.73	-0.04
348.94	-0
349.149	-0.02
349.358	-0.03
349.567	-0.06
349.776	-0.06
349.985	-0.03
350.194	0.06
350.403	0.05
350.612	-0.08
350.821	-0.03
351.03	0.01
351.239	-0.08
351.448	0.02
351.657	-0.03
351.866	0.09
352.075	-0.04
352.284	0.03
352.493	-0.03
352.702	0.05
352.911	0.04
353.12	0.03
353.329	-0.03
353.538	0.02
353.746	0.01
353.955	-0.01
354.164	0
354.373	-0.03
354.582	0.03
354.79	0
354.999	0.02
355.208	-0.03
355.416	0.05
355.625	-0.06
355.834	-0.05
356.042	-0.03
356.251	-0.04
356.46	-0.04
356.668	-0.03
356.877	0.06
357.085	0.01
357.294	-0.08
357.503	-0.01
357.711	-0.02
357.92	0.12
358.128	0.01
358.337	-0.04
358.545	0.01
358.754	-0.03
358.962	0.02
359.17	-0.02
359.379	0.01
359.587	0.01
359.796	-0.01
360.004	0.05
360.212	0.03
360.421	0.07
360.629	0.02
360.837	-0.03
361.046	0.03
361.254	0.1
361.462	-0.02
361.67	-0.01
361.879	0.01
362.087	0.04
362.295	-0.01
362.503	-0.04
362.711	-0.05
362.92	-0.02
363.128	-0.01
363.336	-0.05
363.544	-0.1
363.752	-0.03
363.96	-0.04
364.168	-0.05
364.376	-0.01
364.584	0.01
364.792	0.05
365	0.02
365.208	0
365.416	0.02
365.624	-0
365.832	-0.03
366.04	0.03
366.248	0
366.456	-0
366.664	0.01
366.872	-0.01
367.079	-0.04
367.287	-0.01
367.495	0.02
367.703	-0.01
367.911	-0
368.118	0.02
368.326	-0.02
368.534	-0.02
368.742	0.04
368.949	-0.05
369.157	-0.06
369.365	-0.01
369.572	-0.04
369.78	-0.03
369.988	0.01
370.195	0.01
370.403	0.04
370.61	-0.07
370.818	0
371.026	0.07
371.233	-0.04
371.441	-0.04
371.648	-0.01
371.856	0.03
372.063	-0
372.271	0.01
372.478	-0.06
372.685	-0.02
372.893	0.03
373.1	-0.02
373.308	-0.01
373.515	0.06
373.722	0.01
373.93	-0.03
374.137	0.01
374.344	0.07
374.552	0.04
374.759	0.03
374.966	-0.03
375.173	0.01
375.381	0.03
375.588	0
375.795	-0.07
376.002	-0
376.209	-0.05
376.417	-0.02
376.624	-0.03
376.831	-0.01
377.038	-0.03
377.245	-0.11
377.452	-0.02
377.659	-0.02
377.866	-0.06
378.073	0.01
378.28	-0.01
378.487	0.02
378.694	0
378.901	0.01
379.108	-0.04
379.315	0.01
379.522	0.08
379.729	0.01
379.936	-0.02
380.143	-0.01
380.35	-0.03
380.557	-0.03
380.763	-0.02
380.97	-0.01
381.177	-0.01
381.384	0.03
381.591	0
381.797	-0.01
382.004	0.01
382.211	0.01
382.418	0.03
382.624	0.03
382.831	-0.01
383.038	-0.03
383.244	0.01
383.451	-0.04
383.658	-0.02
383.864	-0
384.071	-0.05
384.277	0.06
384.484	-0.03
384.69	0.04
384.897	-0.02
385.103	-0.01
385.31	-0.08
385.516	0
385.723	-0.04
385.929	-0.05
386.136	-0.04
386.342	-0
386.549	-0
386.755	0.06
386.961	-0
387.168	-0.05
387.374	0.02
387.58	-0.01
387.787	-0.01
387.993	0.03
388.199	-0.02
388.406	-0.04
388.612	-0.01
388.818	-0.06
389.024	-0.02
389.231	-0.04
389.437	0.05
389.643	-0.02
389.849	-0.04
390.055	0
390.261	0.03
390.467	0.03
390.674	-0.1
390.88	-0.01
391.086	0.02
391.292	-0.04
391.498	0
391.704	0.01
391.91	-0.06
392.116	-0.01
392.322	-0.04
392.528	-0.04
392.734	-0.02
392.94	-0.05
393.146	-0.03
393.352	0.02
393.557	-0.03
393.763	-0.01
393.969	0.04
394.175	0
394.381	0.01
394.587	-0.09
394.792	-0.04
394.998	0.03
395.204	0.06
395.41	-0.04
395.615	-0.02
395.821	0.05
396.027	0.05
396.233	-0.05
396.438	0.02
396.644	0.08
396.85	0.05
397.055	-0.01
397.261	0.03
397.466	0.02
397.672	0.01
397.878	0.03
398.083	0.02
398.289	-0.05
398.494	0.05
398.7	0.01
398.905	-0.08
399.111	0.06
399.316	-0.08
399.522	0.02
399.727	-0
399.932	-0.01
400.138	-0
400.343	0.04
400.549	-0.03
400.754	0.01
400.959	0.02
401.165	-0.01
401.37	0.05
401.575	0.01
401.78	-0.03
401.986	-0.05
402.191	-0.07
402.396	-0.01
402.601	-0
402.807	-0
403.012	-0.03
403.217	0.06
403.422	-0.01
403.627	-0
403.832	-0.04
404.037	0.01
404.243	0.01
404.448	-0
404.653	-0.04
404.858	-0.02
405.063	0.02
405.268	-0.05
405.473	-0.03
405.678	-0.01
405.883	0.11
406.088	-0.03
406.293	-0.07
406.498	-0.05
406.703	0.01
406.907	0.01
407.112	-0.01
407.317	0.02
407.522	0.04
407.727	-0.06
407.932	-0.05
408.136	0.04
408.341	0.01
408.546	-0.02
408.751	0.01
408.956	0.03
409.16	0.03
409.365	-0
409.57	-0.05
409.774	-0
409.979	0.05
410.184	-0
410.388	-0.04
410.593	0.02
410.798	-0.01
411.002	-0.04
411.207	0.03
411.411	0.01
411.616	-0.08
411.82	-0.05
412.025	0.02
412.229	-0.02
412.434	0.03
412.638	-0
412.843	-0.06
413.047	-0
413.252	-0.04
413.456	-0.03
413.66	0.03
413.865	-0.05
414.069	0.03
414.273	-0.06
414.478	-0.03
414.682	-0.05
414.886	-0.07
415.091	-0.1
415.295	-0.06
415.499	0.01
415.703	-0.02
415.908	0.05
416.112	-0.09
416.316	-0.01
416.52	-0
416.724	-0.04
416.929	0
417.133	0.07
417.337	-0
417.541	-0.06
417.745	-0.02
417.949	0.01
418.153	-0.01
418.357	-0.07
418.561	0.02
418.765	0.03
418.969	0.03
419.173	0.07
419.377	-0.02
419.581	0.06
419.785	-0.07
419.989	-0.12
420.193	-0.02
420.397	0
420.601	0.01
420.804	-0.01
421.008	0.01
421.212	-0.05
421.416	0.03
421.62	-0.05
421.823	0.04
422.027	0.07
422.231	-0.02
422.435	0.01
422.638	0.02
422.842	-0.03
423.046	-0.04
423.249	-0.01
423.453	0.04
423.657	0.02
423.86	-0.01
424.064	-0.01
424.268	0.01
424.471	-0
424.675	0.06
424.878	0.07
425.082	-0.02
425.285	0.03
425.489	0.01
425.692	-0.04
425.896	-0.1
426.099	-0.01
426.303	-0.04
426.506	-0.08
426.71	0.03
426.913	0.02
427.116	0.05
427.32	-0.04
427.523	-0.03
427.726	0.06
427.93	-0.05
428.133	0.02
428.336	-0.1
428.54	-0.09
428.743	0.01
428.946	-0.01
429.149	-0.04
429.353	-0.05
429.556	0.01
429.759	-0.02
429.962	-0.02
430.165	-0.03
430.368	-0.03
430.571	-0.05
430.775	0.01
430.978	-0.03
431.181	-0
431.384	0
431.587	0
431.79	-0
431.993	-0.01
432.196	-0.04
432.399	-0.04
432.602	0.07
432.805	-0.06
433.008	-0.06
433.211	-0.05
433.414	0.01
433.616	-0.01
433.819	0.03
434.022	-0.09
434.225	0.06
434.428	0.01
434.631	0.1
434.833	-0.02
435.036	-0.08
435.239	0.05
435.442	0.02
435.645	-0.03
435.847	0
436.05	0
436.253	0.03
436.455	-0.05
436.658	-0.03
436.861	0.04
437.063	-0.04
437.266	-0.03
437.468	0.01
437.671	0.1
437.874	-0.07
438.076	-0.1
438.279	-0.09
438.481	-0.02
438.684	-0.01
438.886	0
439.089	-0.11
439.291	-0.02
439.494	0.01
439.696	-0.09
439.899	-0.05
440.101	0.01
440.303	-0.05
440.506	0.04
440.708	-0.04
440.91	-0.03
441.113	-0.07
441.315	-0.03
441.517	-0.06
441.72	0.08
441.922	-0.1
442.124	-0.05
442.326	-0.01
442.529	0.02
442.731	-0.09
442.933	0.04
443.135	-0.06
443.337	-0.05
443.539	-0.01
443.742	-0.03
443.944	-0.03
444.146	-0.03
444.348	-0.02
444.55	-0.05
444.752	-0
444.954	-0.09
445.156	0
445.358	-0.03
445.56	0.03
445.762	-0.07
445.964	0.01
446.166	-0.04
446.368	-0.08
446.57	0.05
446.772	-0.04
446.974	-0.03
447.175	0.02
447.377	-0.07
447.579	-0.04
447.781	-0.11
447.983	0.02
448.184	-0.03
448.386	-0.02
448.588	-0.07
448.79	-0.03
448.991	-0.03
449.193	0.02
449.395	-0
449.597	0.01
449.798	-0.01
450	0.01
450.202	-0.02
450.403	-0.03
450.605	0.03
450.806	-0.05
451.008	-0.08
451.21	-0.02
451.411	-0.03
451.613	-0.03
451.814	-0.07
452.016	-0
452.217	-0.01
452.419	0.06
452.62	0.01
452.821	-0
453.023	0.05
453.224	0.06
453.426	-0.01
453.627	-0.03
453.828	-0.03
454.03	-0.02
454.231	-0.03
454.432	-0.05
454.634	0.06
454.835	-0.06
455.036	-0.04
455.238	0.01
455.439	0.06
455.64	-0.04
455.841	-0.06
456.042	0.03
456.244	-0.02
456.445	-0.08
456.646	-0.08
456.847	-0.04
457.048	0
457.249	0.01
457.45	0.19
457.651	-0.08
457.852	0.03
458.054	-0.03
458.255	-0.02
458.456	0.01
458.657	0.01
458.858	-0.05
459.058	-0.01
459.259	0.02
459.46	-0.01
459.661	-0.01
459.862	0.1
460.063	-0.05
460.264	0.08
460.465	-0.07
460.666	0.06
460.866	-0.02
461.067	-0.01
461.268	0
461.469	-0.01
461.67	0.01
461.87	-0.03
462.071	-0.04
462.272	-0.06
462.473	0.01
462.673	-0.01
462.874	-0.07
463.075	-0.01
463.275	-0.06
463.476	-0.02
463.676	-0
463.877	-0
464.078	-0.06
464.278	0.01
464.479	-0.05
464.679	-0.05
464.88	-0
465.08	0.06
465.281	-0.06
465.481	-0.02
465.682	-0.05
465.882	0.01
466.083	-0.04
466.283	-0.01
466.483	-0.03
466.684	-0.07
466.884	-0.08
467.085	-0.06
467.285	0.02
467.485	-0.06
467.686	-0.01
467.886	-0.06
468.086	-0.03
468.286	0.01
468.487	0
468.687	-0.05
468.887	-0.02
469.087	0.04
469.287	-0.03
469.488	-0.06
469.688	0
469.888	0.02
470.088	0.03
470.288	0.04
470.488	0.06
470.688	-0.09
470.888	-0.03
471.088	-0.03
471.288	0.02
471.488	0
471.688	0.03
471.888	-0.02
472.088	0.03
472.288	-0
472.488	-0.01
472.688	0
472.888	-0.02
473.088	0.01
473.288	-0.02
473.488	-0.02
473.688	0.05
473.887	0.01
474.087	-0.02
474.287	0
474.487	-0.06
474.687	-0
474.886	-0.03
475.086	-0.03
475.286	0.04
475.486	-0.04
475.685	0
475.885	-0.03
476.085	-0.02
476.284	0.02
476.484	-0.04
476.684	0.02
476.883	0.04
477.083	-0.01
477.282	-0.03
477.482	0.04
477.681	0.03
477.881	-0.01
478.08	-0.04
478.28	-0.02
478.479	0.01
478.679	0.06
478.878	-0.04
479.078	-0.07
479.277	-0.04
479.477	-0
479.676	0.02
479.875	-0.03
480.075	-0.06
480.274	0.02
480.473	0.02
480.673	-0.06
480.872	0.03
481.071	-0.02
481.271	-0.02
481.47	-0.03
481.669	0.01
481.868	-0.03
482.067	-0.04
482.267	-0.02
482.466	-0.05
482.665	-0.03
482.864	-0.02
483.063	-0.04
483.262	0
483.461	0.03
483.661	0.03
483.86	-0.01
484.059	-0.03
484.258	-0
484.457	-0.02
484.656	-0
484.855	0.04
485.054	-0.05
485.253	-0.05
485.452	-0.05
485.651	-0
485.849	-0.03
486.048	-0.03
486.247	-0.02
486.446	-0.03
486.645	-0.05
486.844	-0.03
487.043	-0.03
487.241	0.02
487.44	-0.04
487.639	-0.01
487.838	0.01
488.037	-0.01
488.235	0.03
488.434	0.02
488.633	-0.03
488.831	0.01
489.03	0.04
489.229	0
489.427	-0.02
489.626	0.03
489.825	0.05
490.023	0.03
490.222	-0.02
490.42	0.02
490.619	0
490.817	-0
491.016	-0.03
491.214	0.03
491.413	-0.03
491.611	-0.03
491.81	0
492.008	0
492.207	-0.01
492.405	-0
492.604	-0.05
492.802	-0.02
493	-0
493.199	-0.04
493.397	-0.01
493.595	-0.01
493.794	-0.02
493.992	0.03
494.19	0
494.388	-0
494.587	-0.02
494.785	-0.01
494.983	-0.03
495.181	-0.01
495.379	-0.01
495.578	-0.02
495.776	0.01
495.974	-0.01
496.172	-0
496.37	-0.03
496.568	-0.03
496.766	-0.01
496.964	0.02
497.162	0
497.36	-0.04
497.558	0.01
497.756	0
497.954	-0.02
498.152	-0.04
498.35	-0
498.548	-0.01
498.746	0.01
498.944	-0.03
499.142	-0.01
499.34	-0.03
499.538	0.01
499.736	-0.02
499.933	0.03
500.131	0.02
500.329	-0.01
500.527	0.02
500.725	0.03
500.922	0.01
501.12	0.01
501.318	0
501.516	-0.04
501.713	-0
501.911	-0.04
502.109	-0.03
502.306	0
502.504	-0.01
502.701	-0.03
502.899	-0.01
503.097	0.04
503.294	-0.02
503.492	-0.01
503.689	-0.02
503.887	0.02
504.084	0.05
504.282	0.01
504.479	-0.04
504.677	0.01
504.874	-0.02
505.072	0.01
505.269	-0.01
505.466	0.01
505.664	0.02
505.861	-0.05
506.059	-0.04
506.256	0.01
506.453	-0.01
506.651	0.03
506.848	-0
507.045	0.01
507.242	-0.03
507.44	-0.01
507.637	-0.01
507.834	-0.01
508.031	0.02
508.229	-0.03
508.426	-0
508.623	0.02
508.82	-0
509.017	-0.03
509.214	-0
509.411	-0
509.608	-0.02
509.805	-0
510.003	-0.02
510.2	-0.03
510.397	0.01
510.594	-0.02
510.791	-0.04
510.988	-0.03
511.184	0.02
511.381	-0.02
511.578	-0.02
511.775	0.01
511.972	-0
512.169	-0.01
512.366	-0.01
512.563	0.03
512.76	0
512.956	-0
513.153	-0.04
513.35	-0
513.547	-0.01
513.744	-0.03
513.94	-0.08
514.137	0.01
514.334	0.01
514.53	-0.02
514.727	-0
514.924	0.05
515.12	-0.02
515.317	-0.04
515.514	-0.02
515.71	-0.02
515.907	-0.02
516.103	-0.01
516.3	0.01
516.497	0.02
516.693	0
516.89	-0.03
517.086	-0.02
517.283	0.01
517.479	0
517.676	-0.02
517.872	-0
518.068	-0.01
518.265	-0.02
518.461	-0.02
518.658	-0.02
518.854	0.02
519.05	-0.01
519.247	-0.03
519.443	0.01
519.639	0.01
519.836	0.01
520.032	-0
520.228	-0.02
520.424	0.04
520.621	0.02
520.817	-0.01
521.013	0
521.209	0.01
521.405	0.03
521.601	-0.01
521.798	0.02
521.994	0.03
522.19	-0.02
522.386	-0.04
522.582	-0.02
522.778	-0.01
522.974	-0
523.17	-0.01
523.366	-0.02
523.562	0.01
523.758	-0.01
523.954	-0.02
524.15	-0.01
524.346	0.01
524.542	-0.01
524.738	-0.02
524.934	-0.02
525.129	-0.01
525.325	0
525.521	0.02
525.717	-0
525.913	-0
526.109	-0.02
526.304	-0.01
526.5	-0.01
526.696	0.01
526.892	-0.01
527.087	-0.01
527.283	-0.02
527.479	0
527.674	-0.03
527.87	-0.02
528.066	-0.03
528.261	0.01
528.457	-0.01
528.653	-0.01
528.848	-0
529.044	-0
529.239	0.01
529.435	-0
529.63	-0.02
529.826	0.03
530.021	-0.01
530.217	0.01
530.412	-0.02
530.608	-0.03
530.803	-0.02
530.999	-0.03
531.194	-0.03
531.389	-0.02
531.585	-0.05
531.78	-0.01
531.975	-0.02
532.171	0.01
532.366	-0
532.561	-0.01
532.757	-0.02
532.952	-0.02
533.147	-0
533.342	-0.01
533.538	-0.02
533.733	0.02
533.928	-0.01
534.123	-0.01
534.318	-0.03
534.513	-0.01
534.709	-0.03
534.904	-0.03
535.099	-0.01
535.294	0.01
535.489	-0.01
535.684	-0.03
535.879	-0.04
536.074	0.01
536.269	-0.02
536.464	-0.01
536.659	-0.01
536.854	-0.03
537.049	-0
537.244	0.02
537.439	-0.02
537.634	0.02
537.828	0.01
538.023	-0.03
538.218	-0.04
538.413	-0.01
538.608	-0.04
538.803	-0
538.997	-0.05
539.192	0.01
539.387	0.01
539.582	-0
539.776	0.01
539.971	-0.01
540.166	0.01
540.36	-0.04
540.555	-0.01
540.75	-0
540.944	-0.01
541.139	-0.03
541.334	-0.01
541.528	0.01
541.723	0.02
541.917	-0.01
542.112	-0.06
542.306	0
542.501	-0.01
542.695	0.01
542.89	-0.01
543.084	0.01
543.279	-0.01
543.473	-0.01
543.668	-0.02
543.862	-0
544.056	0.02
544.251	-0
544.445	0
544.64	-0.01
544.834	-0.02
545.028	0.01
545.222	0
545.417	0.01
545.611	-0
545.805	-0.02
546	-0.01
546.194	0
546.388	-0.03
546.582	0.01
546.776	-0.01
546.97	-0
547.165	0.02
547.359	0.01
547.553	-0.03
547.747	-0.01
547.941	0.01
548.135	-0.02
548.329	0.02
548.523	0
548.717	0
548.911	-0.01
549.105	-0.02
549.299	0
549.493	0.02
549.687	0.01
549.881	0.01
550.075	-0.02
550.269	-0.04
550.463	-0.02
550.657	-0.01
550.85	0
551.044	-0.02
551.238	0.02
551.432	-0.01
551.626	-0.02
551.82	-0.01
552.013	-0.03
552.207	-0
552.401	0.01
552.594	0.01
552.788	0
552.982	0.02
553.176	-0.03
553.369	-0.01
553.563	-0.01
553.756	-0.04
553.95	-0.02
554.144	-0.03
554.337	0.01
554.531	-0.02
554.724	-0
554.918	0.01
555.111	0.03
555.305	-0.01
555.498	0.05
555.692	0.01
555.885	-0.01
556.079	-0
556.272	-0.01
556.466	0.02
556.659	-0
556.852	0.01
557.046	-0.01
557.239	-0.01
557.432	-0.04
557.626	-0.03
557.819	0.02
558.012	0.01
558.206	-0.01
558.399	-0
558.592	-0.01
558.785	-0.03
558.979	0.01
559.172	0.01
559.365	-0
559.558	-0.01
559.751	-0
559.944	0.01
560.138	-0.02
560.331	-0.01
560.524	-0.02
560.717	-0.01
560.91	0
561.103	-0.01
561.296	0.01
561.489	-0
561.682	-0.01
561.875	0.03
562.068	-0.01
562.261	0.01
562.454	0.02
562.647	0.02
562.84	0
563.032	-0
563.225	-0.01
563.418	-0
563.611	-0.01
563.804	-0.01
563.997	-0.04
564.19	-0.02
564.382	0.02
564.575	-0.03
564.768	-0
564.961	0
565.153	-0.02
565.346	0.02
565.539	0.02
565.731	0.04
565.924	0.05
566.117	0.01
566.309	0
566.502	-0.01
566.695	-0.03
566.887	-0.01
567.08	-0.01
567.272	-0.01
567.465	-0.03
567.657	0
567.85	-0
568.042	-0
568.235	0.02
568.427	-0.01
568.62	0.01
568.812	0.02
569.005	-0.01
569.197	-0.04
569.389	0.03
569.582	0.01
569.774	-0
569.966	-0.04
570.159	-0.05
570.351	-0.01
570.543	0
570.736	0.02
570.928	-0.02
571.12	-0
571.312	-0.01
571.505	-0.05
571.697	0.03
571.889	-0.03
572.081	-0.02
572.273	-0.01
572.465	0.01
572.658	-0.03
572.85	-0.01
573.042	-0.03
573.234	0
573.426	0.04
573.618	-0.04
573.81	0.01
574.002	0.04
574.194	0.03
574.386	-0.05
574.578	-0.07
574.77	-0.03
574.962	-0.01
575.154	-0.05
575.346	-0.03
575.538	0.01
575.729	-0.02
575.921	-0.04
576.113	-0.01
576.305	0.04
576.497	-0.02
576.689	0.01
576.88	-0.03
577.072	0.02
577.264	-0.02
577.456	-0.01
577.647	-0.04
577.839	0
578.031	0.02
578.223	-0.05
578.414	-0.04
578.606	0.01
578.798	0.01
578.989	-0.04
579.181	-0.03
579.372	0.01
579.564	-0.03
579.755	0.01
579.947	0.01
580.139	0.04
580.33	-0.05
580.522	-0.03
580.713	-0.08
580.905	0.01
581.096	0.01
581.287	0
581.479	0.01
581.67	0.04
581.862	-0.01
582.053	-0.02
582.244	-0.03
582.436	-0.03
582.627	-0
582.818	-0.03
583.01	-0.03
583.201	0.01
583.392	0.01
583.583	0
583.775	-0.03
583.966	-0.03
584.157	-0.02
584.348	-0
584.54	-0.05
584.731	-0.03
584.922	0.01
585.113	-0.02
585.304	0
585.495	0
585.686	-0.01
585.877	0.01
586.068	-0
586.259	0
586.45	0.01
586.641	-0.03
586.832	-0.07
587.023	-0
587.214	0
587.405	-0.02
587.596	0
587.787	-0
587.978	0.02
588.169	-0.04
588.36	-0.03
588.551	-0
588.742	-0.02
588.932	0.02
589.123	-0.01
589.314	0.02
589.505	0.03
589.696	-0.01
589.886	-0.01
590.077	-0.04
590.268	0.03
590.458	-0.04
590.649	-0.01
590.84	0.03
591.03	-0.05
591.221	-0.03
591.412	-0.02
591.602	0.02
591.793	0.04
591.984	0.01
592.174	-0.01
592.365	0.05
592.555	-0.03
592.746	0.01
592.936	0.02
593.127	0.02
593.317	0.03
593.508	0.01
593.698	-0.02
593.889	-0
594.079	-0
594.269	0
594.46	0.02
594.65	0.03
594.84	0.02
595.031	-0.03
595.221	-0
595.411	-0.04
595.602	0.05
595.792	0.01
595.982	0
596.172	0.04
596.363	0.01
596.553	0.04
596.743	0.01
596.933	0.03
597.123	0.05
597.314	-0.02
597.504	-0.01
597.694	0.04
597.884	0.02
598.074	0.02
598.264	0.01
598.454	0.03
598.644	0.01
598.834	0.01
599.024	-0.05
599.214	0
599.404	0.04
599.594	0.02
599.784	0
599.974	0.06
600.164	0.05
600.354	-0
600.544	-0.02
600.734	0.03
600.924	0.03
601.114	0.03
601.303	0.04
601.493	0.03
601.683	-0
601.873	0.05
602.063	-0.03
602.252	0.04
602.442	-0.05
602.632	-0.04
602.821	0.01
603.011	0.05
603.201	0.04
603.39	0.02
603.58	0.03
603.77	0.05
603.959	0.07
604.149	0.02
604.339	0.04
604.528	0.07
604.718	0.07
604.907	0.04
605.097	0.04
605.286	-0.01
605.476	0.09
605.665	0.07
605.855	0.02
606.044	0.1
606.234	0.08
606.423	0.03
606.612	0.01
606.802	0.07
606.991	0.06
607.181	0.07
607.37	0.04
607.559	0.03
607.749	0.02
607.938	0.07
608.127	0.07
608.316	0.05
608.506	0.08
608.695	0.07
608.884	0.06
609.073	0.07
609.263	0.07
609.452	0.1
609.641	0.08
609.83	0.02
610.019	0.07
610.208	0.06
610.397	0.06
610.586	0.1
610.775	0.08
610.965	0.1
611.154	0.08
611.343	0.07
611.532	0.11
611.721	0.08
611.91	0.09
612.099	0.13
612.287	0.08
612.476	0.07
612.665	0.11
612.854	0.09
613.043	0.16
613.232	0.11
613.421	0.07
613.61	0.13
613.798	0.12
613.987	0.17
614.176	0.14
614.365	0.17
614.554	0.12
614.742	0.19
614.931	0.13
615.12	0.18
615.309	0.18
615.497	0.17
615.686	0.13
615.875	0.19
616.063	0.17
616.252	0.15
616.44	0.16
616.629	0.15
616.818	0.21
617.006	0.18
617.195	0.18
617.383	0.2
617.572	0.18
617.76	0.16
617.949	0.18
618.137	0.22
618.326	0.24
618.514	0.17
618.703	0.18
618.891	0.25
619.079	0.19
619.268	0.25
619.456	0.21
619.644	0.31
619.833	0.22
620.021	0.2
620.209	0.2
620.398	0.22
620.586	0.24
620.774	0.31
620.962	0.23
621.151	0.29
621.339	0.29
621.527	0.24
621.715	0.2
621.903	0.23
622.092	0.21
622.28	0.27
622.468	0.24
622.656	0.22
622.844	0.29
623.032	0.27
623.22	0.21
623.408	0.25
623.596	0.28
623.784	0.27
623.972	0.21
624.16	0.24
624.348	0.29
624.536	0.22
624.724	0.19
624.912	0.23
625.1	0.28
625.288	0.23
625.476	0.17
625.664	0.26
625.851	0.17
626.039	0.21
626.227	0.24
626.415	0.17
626.603	0.13
626.79	0.18
626.978	0.19
627.166	0.19
627.354	0.16
627.541	0.15
627.729	0.1
627.917	0.19
628.104	0.17
628.292	0.16
628.48	0.15
628.667	0.11
628.855	0.13
629.042	0.13
629.23	0.1
629.418	0.11
629.605	0.12
629.793	0.07
629.98	0.06
630.168	0.06
630.355	0.09
630.543	0.09
630.73	0.06
630.917	0.12
631.105	0.13
631.292	0.04
631.48	0.06
631.667	0.16
631.854	0.07
632.042	0.05
632.229	0.01
632.416	0.06
632.604	0.03
632.791	0.01
632.978	0.08
633.165	0.06
633.353	0.1
633.54	0.11
633.727	-0
633.914	-0.01
634.101	-0.04
634.289	0.04
634.476	-0.01
634.663	-0
634.85	0.03
635.037	0.01
635.224	-0.02
635.411	0.06
635.598	0.07
635.785	-0
635.972	0.02
636.159	0.05
636.346	0
636.533	0.01
636.72	0
636.907	-0
637.094	0.03
637.281	-0.01
637.468	0.06
637.655	-0.01
637.842	0.03
638.029	0.01
638.215	0.05
638.402	-0.02
638.589	-0.01
638.776	-0.04
638.963	-0.01
639.149	0.03
639.336	0.08
639.523	0.01
639.709	0.02
639.896	0.02
640.083	0.08
640.27	0.03
640.456	0
640.643	0.02
640.829	-0.05
641.016	-0.02
641.203	-0.04
641.389	0.02
641.576	0.05
641.762	0.01
641.949	-0.04
642.135	0.04
642.322	-0.01
642.508	-0.03
642.695	-0
642.881	-0.03
643.068	-0.03
643.254	-0.02
643.441	0.07
643.627	-0.02
643.813	-0.02
644	0.03
644.186	-0
644.372	-0
644.559	0.03
644.745	-0.02
644.931	-0.03
645.118	0.03
645.304	0
645.49	-0.03
645.676	-0.03
645.862	0.02
646.049	-0
646.235	0.02
646.421	0.07
646.607	0.03
646.793	-0.03
646.979	-0.05
647.165	-0
647.352	0.01
647.538	0.03
647.724	0
647.91	-0.01
648.096	0.02
648.282	0.03
648.468	-0.03
648.654	-0.02
648.84	0
649.026	-0.01
649.212	0
649.397	-0.06
649.583	-0.03
649.769	0.03
649.955	-0.02
650.141	0.03
650.327	0.06
650.513	-0.04
650.698	0.01
650.884	-0.07
651.07	0.01
651.256	-0.01
651.442	0.03
651.627	-0.04
651.813	0.03
651.999	-0.02
652.184	0.01
652.37	-0
652.556	-0.02
652.741	0.05
652.927	-0.08
653.113	0
653.298	0.01
653.484	-0.03
653.669	-0.05
653.855	-0.02
654.04	0.02
654.226	-0.01
654.412	-0.03
654.597	-0.06
654.782	0
654.968	0.01
655.153	0
655.339	-0.05
655.524	-0.05
655.71	0.03
655.895	-0.02
656.08	-0.03
656.266	0.02
656.451	0
656.636	-0.07
656.822	-0
657.007	-0.04
657.192	-0.03
657.378	-0.08
657.563	0.01
657.748	-0
657.933	-0
658.118	-0.03
658.304	-0.01
658.489	0.01
658.674	0.01
658.859	-0.05
659.044	0.02
659.229	0.02
659.414	-0.05
659.599	-0.02
659.785	-0.06
659.97	-0.03
660.155	-0.01
660.34	-0.01
660.525	-0.03
660.71	-0.05
660.895	0.02
661.08	-0.04
661.264	-0.01
661.449	0.02
661.634	0.05
661.819	-0.02
662.004	-0.01
662.189	-0.06
662.374	-0.07
662.559	-0.03
662.743	-0.11
662.928	-0.02
663.113	-0.03
663.298	-0.09
663.483	-0.04
663.667	-0.02
663.852	-0.09
664.037	0.02
664.221	-0.04
664.406	0.04
664.591	-0.01
664.775	-0.05
664.96	0.02
665.145	-0.04
665.329	-0.01
665.514	-0.05
665.698	-0.03
665.883	-0.06
666.068	0.02
666.252	-0.01
666.437	-0.05
666.621	-0.04
666.806	0.02
666.99	-0
667.174	-0.07
667.359	0.02
667.543	-0.07
667.728	-0.03
667.912	-0.08
668.096	0.01
668.281	-0.03
668.465	-0.05
668.649	-0.02
668.834	-0.08
669.018	-0.05
669.202	-0.02
669.387	-0.05
669.571	0.05
669.755	-0.04
669.939	-0.02
670.124	-0
670.308	0.03
670.492	0.06
670.676	-0.03
670.86	-0.04
671.044	-0.07
671.228	0.04
671.413	-0.04
671.597	-0.03
671.781	-0.07
671.965	0.02
672.149	-0.01
672.333	-0.03
672.517	0
672.701	-0.03
672.885	-0.03
673.069	-0.11
673.253	0.04
673.437	0
673.621	-0.06
673.804	-0.04
673.988	-0.02
674.172	-0.05
674.356	-0.07
674.54	-0
674.724	0.06
674.908	-0.07
675.091	0.02
675.275	-0.03
675.459	-0.01
675.643	-0.06
675.826	-0.02
676.01	-0.01
676.194	-0.04
676.377	0.05
676.561	0
676.745	-0
676.928	0.04
677.112	0.01
677.296	-0.07
677.479	-0.06
677.663	-0.04
677.846	0.02
678.03	-0.06
678.213	-0.02
678.397	0.02
678.58	-0.07
678.764	0.02
678.947	-0.04
679.131	-0.03
679.314	0.04
679.498	-0.04
679.681	0.03
679.865	0.03
680.048	-0
680.231	0
680.415	-0.05
680.598	-0.01
680.781	-0.02
680.965	-0.05
681.148	0
681.331	-0.06
681.514	0.03
681.698	-0.06
681.881	-0.04
682.064	0
682.247	0.02
682.43	-0.08
682.614	0.01
682.797	0.02
682.98	0.01
683.163	-0.05
683.346	0.02
683.529	-0.04
683.712	-0.06
683.895	0.06
684.078	-0.04
684.261	-0.06
684.444	0.03
684.627	-0.02
684.81	-0.08
684.993	-0.04
685.176	0.01
685.359	-0.09
685.542	-0.05
685.725	0.07
685.908	-0.01
686.091	-0.04
686.274	0.02
686.457	0.01
686.639	-0.02
686.822	0.04
687.005	0.01
687.188	-0.04
687.371	0.06
687.553	0.03
687.736	-0.01
687.919	0.03
688.102	0.05
688.284	-0.04
688.467	-0.03
688.65	-0.06
688.832	-0.03
689.015	-0.06
689.197	-0.1
689.38	0.09
689.563	0.06
689.745	-0.03
689.928	-0.09
690.11	-0.01
690.293	0.05
690.475	-0.07
690.658	0.02
690.84	0.02
691.023	-0.04
691.205	-0.06
691.388	-0.03
691.57	0.04
691.752	0.05
691.935	-0.1
692.117	-0.01
692.3	-0
692.482	0.01
692.664	-0
692.847	-0.05
693.029	0.02
693.211	-0.01
693.393	-0.06
693.576	-0.05
693.758	-0.05
693.94	-0.04
694.122	-0.02
694.304	-0.02
694.487	-0.06
694.669	0.01
694.851	-0.06
695.033	-0
695.215	-0.04
695.397	-0.08
695.579	-0.04
695.761	-0.06
695.943	-0.1
696.125	0.01
696.308	-0.01
696.49	-0.11
696.671	0.12
696.853	-0.05
697.035	0.11
697.217	-0.01
697.399	-0.07
697.581	-0.07
697.763	-0.04
697.945	-0.04
698.127	0.03
698.309	0.01
698.491	-0.05
698.672	0.01
698.854	-0
699.036	0.06
699.218	0.02
699.399	0.02
699.581	0.09
699.763	-0.05
699.945	-0.06
700.126	-0.01
700.308	-0.03
700.49	-0.01
700.671	-0.09
700.853	-0.05
701.035	-0.06
701.216	-0.02
701.398	-0.06
701.579	-0.05
701.761	0.01
701.943	-0.03
702.124	-0.1
702.306	-0.08
702.487	0.03
702.669	0.01
702.85	-0.08
703.031	-0.11
703.213	0.04
703.394	0.04
703.576	-0.05
703.757	0.02
703.938	0.06
704.12	0.11
704.301	-0.02
704.483	-0.08
704.664	-0.02
704.845	0.07
705.026	0.05
705.208	-0.05
705.389	-0.04
705.57	0.02
705.751	-0.08
705.933	-0.13
706.114	0.07
706.295	0.03
706.476	-0.09
706.657	0.04
706.838	-0.02
707.02	0.06
707.201	-0.05
707.382	-0.03
707.563	-0
707.744	-0.06
707.925	-0.09
708.106	-0.06
708.287	-0.01
708.468	0.08
708.649	-0.05
708.83	0.01
709.011	-0.04
709.192	0.01
709.373	-0.09
709.554	-0.07
709.734	0
709.915	0.04
710.096	-0.03
710.277	-0.14
710.458	-0.03
710.639	0
710.819	-0.08
711	-0
711.181	0.07
711.362	0.03
711.542	-0.03
711.723	-0.05
711.904	0.03
712.085	0.01
712.265	0.04
712.446	-0.12
712.627	-0.03
712.807	-0
712.988	0.01
713.168	-0.08
713.349	-0.04
713.53	-0.11
713.71	-0.1
713.891	-0.09
714.071	-0.04
714.252	-0.03
714.432	-0.06
714.613	-0.04
714.793	-0
714.974	0.01
715.154	0
715.334	-0.02
715.515	0.08
715.695	-0.08
715.876	-0.05
716.056	0.01
716.236	-0.03
716.417	0
716.597	-0
716.777	0.02
716.957	-0.01
717.138	0.03
717.318	-0.02
717.498	-0.11
717.678	-0
717.859	0.02
718.039	-0.16
718.219	-0.02
718.399	0.04
718.579	-0.07
718.759	-0.06
718.939	0.06
719.12	-0.08
719.3	0
719.48	-0.16
719.66	-0.15
719.84	0.16
720.02	-0.03
720.2	-0.04
720.38	-0.02
720.56	0.07
720.74	-0.09
720.92	-0.04
721.1	0.09
721.279	0.05
721.459	0.01
721.639	-0.18
721.819	0
721.999	-0.06
722.179	-0.03
722.359	-0.08
722.538	0.07
722.718	-0.04
722.898	-0.03
723.078	-0.04
723.257	-0.1
723.437	-0
723.617	0.04
723.797	-0.03
723.976	0.03
724.156	0.02
724.336	0.07
724.515	0.08
724.695	-0.11
724.874	-0.01
725.054	0.05
725.234	-0.05
725.413	-0.01
725.593	-0.04
725.772	-0
725.952	-0.02
726.131	0
726.311	-0.06
726.49	0.01
726.67	-0.17
726.849	-0.08
727.028	-0.01
727.208	-0.01
727.387	0.01
727.567	-0.09
727.746	-0.04
727.925	-0.07
728.105	-0.13
728.284	-0.03
728.463	-0.1
728.643	0.02
728.822	-0.15
729.001	-0.06
729.18	-0.02
729.359	-0.02
729.539	0.02
729.718	0
729.897	-0.04
730.076	-0.04
730.255	-0.1
730.434	0.04
730.614	0.04
730.793	0.05
730.972	-0.04
731.151	-0.05
731.33	0.02
731.509	0.05
731.688	-0.05
731.867	-0.01
732.046	-0.16
732.225	0.13
732.404	-0.13
732.583	-0.08
732.762	-0.04
732.941	0.06
733.12	0.04
733.298	-0.1
733.477	-0.04
733.656	-0.07
733.835	-0.12
734.014	0.11
734.193	0.04
734.371	-0.02
734.55	-0.01
734.729	-0.15
734.908	0.04
735.086	0.06
735.265	0.09
735.444	-0.13
735.623	-0.13
735.801	-0.17
735.98	-0.07
736.159	-0.03
736.337	0.07
736.516	0.03
736.694	-0
736.873	-0.1
737.052	0.12
737.23	0.07
737.409	-0.05
737.587	0.11
737.766	-0.22
737.944	-0.11
738.123	0.05
738.301	0.03
738.479	-0.13
738.658	0.04
738.836	-0.18
739.015	0.03
739.193	0.18
739.371	-0.14
739.55	-0.06
739.728	-0.09
739.906	0.09
740.085	0.08
740.263	-0.06
740.441	-0.19
740.62	0.06
740.798	0.11
740.976	-0.15
741.154	-0.12
741.332	0.26
741.511	-0.08
741.689	0.04
741.867	0.03
742.045	0.04
742.223	-0
742.401	-0.07
742.579	-0.15
742.757	0.04
742.935	-0.17
743.114	-0.04
743.292	0.03
743.47	-0.02
743.648	0.01
743.826	-0.01
744.004	-0
744.181	0.07
744.359	-0.06
744.537	0.04
744.715	-0.03
744.893	0.01
745.071	-0.01
745.249	-0.07
745.427	-0.01
745.605	-0.06
745.782	0.01
745.96	0.02
746.138	-0.03
746.316	-0.01
746.493	-0.05
746.671	-0.06
746.849	-0.04
747.027	0.08
747.204	-0.02
747.382	0.01
747.56	-0.11
747.737	-0.12
747.915	-0.14
748.093	0.09
748.27	-0.17
748.448	-0.01
748.625	-0.15
748.803	0.01
748.98	-0.08
749.158	-0.05
749.335	0.12
749.513	-0.05
749.69	-0.02
749.868	-0.02
750.045	0.02
750.223	-0.04
750.4	-0.26
750.578	0.26
750.755	-0.02
750.932	-0.16
751.11	0.12
751.287	-0.11
751.464	-0.02
751.642	-0.12
751.819	0.03
751.996	-0.01
752.173	-0.04
752.351	-0.09
752.528	0.01
752.705	0.01
752.882	-0.05
753.06	0.13
753.237	-0.08
753.414	0.13
753.591	0.12
753.768	-0.04
753.945	-0
754.122	-0.01
754.299	-0.02
754.476	-0.11
754.654	-0.07
754.831	-0
755.008	0.08
755.185	-0.09
755.362	-0.1
755.539	0.05
755.716	-0.08
755.892	-0.01
756.069	-0.06
756.246	0.01
756.423	-0.05
756.6	0.18
756.777	-0.01
756.954	0.09
757.131	-0.09
757.307	-0.19
757.484	-0.06
757.661	-0.04
757.838	0.07
758.015	-0.05
758.191	0.14
758.368	-0.04
758.545	0.08
758.721	0.03
758.898	-0.04
759.075	0.15
759.251	0.02
759.428	-0.02
759.605	-0.18
759.781	-0.02
759.958	-0.03
760.134	0.09
760.311	-0.08
760.488	0.1
760.664	0.04
760.841	-0.06
761.017	-0.08
761.194	0.1
761.37	0.05
761.547	0
761.723	-0.08
761.899	0.04
762.076	-0.13
762.252	-0.18
762.429	-0.01
762.605	0.07
762.781	-0.07
762.958	0
763.134	0.04
763.31	-0.11
763.486	0.05
763.663	-0.16
763.839	0.13
764.015	-0.21
764.191	-0.21
764.368	-0.1
764.544	-0.11
764.72	0.06
764.896	0.01
765.072	0.05
765.248	-0.09
765.425	-0.13
765.601	0.01
765.777	-0.11
765.953	-0.29
766.129	-0.04
766.305	-0.06
766.481	0.07
766.657	0.08
766.833	0.08
767.009	-0.09
767.185	-0.1
767.361	-0.01
767.537	-0.29
767.713	0.09
767.889	-0.08
768.065	-0.01
768.24	0.07
768.416	0.13
768.592	-0.02
768.768	-0.2
768.944	-0.01
769.12	-0.22
769.295	-0.03
769.471	-0.13
769.647	0.04
769.823	0.08
769.998	0.01
770.174	-0.14
770.35	0.18
770.525	0.07
770.701	0.01
770.877	-0.05
771.052	-0.14
771.228	0.1
771.403	-0.01
771.579	-0.03
771.755	0.3
771.93	-0.12
772.106	-0.21
772.281	-0.15
772.457	-0.04
772.632	0.01
772.808	-0.11
772.983	-0.22
773.159	-0.34
773.334	0.04
773.509	-0.11
773.685	-0.18
773.86	0.3
774.036	0.19
774.211	-0.02
774.386	-0.05
774.562	-0.05
774.737	-0.03
774.912	-0.06
775.087	0
775.263	0.01
775.438	-0.07
775.613	-0
775.788	0.03
775.964	0.14
776.139	0.27
776.314	-0.27
776.489	0.12
776.664	0.16
776.839	-0.12
777.014	0.13
777.19	0.26
777.365	0.24
777.54	0.17
777.715	-0.09
777.89	-0.01
778.065	-0.18
778.24	-0.07
778.415	0.05
778.59	-0.13
778.765	-0.01
778.94	-0.03
779.115	-0.02
779.289	-0.2
779.464	-0.09
779.639	-0
779.814	-0.21
779.989	-0.16
780.164	0.23
780.339	0.08
780.513	-0.04
780.688	-0.09
780.863	-0.08
781.038	0.09
781.212	-0.25
781.387	-0.09
781.562	0.44
781.737	0.06
781.911	0.09
782.086	-0.29
782.261	-0.09
782.435	0.17
782.61	0.01
782.784	-0.01
782.959	0.1
783.134	-0.08
783.308	-0.31
783.483	-0.04
783.657	0.44
783.832	0.18
784.006	-0.33
784.181	-0.03
784.355	0.26
784.53	-0.2
784.704	-0.2
784.878	0.01
785.053	0.13
785.227	0.01
785.402	0.3
785.576	-0.37
785.75	-0.05
785.925	-0.08
786.099	0.1
786.273	0.01
786.448	-0.06
786.622	0.05
786.796	-0.2
786.97	-0.11
787.145	0.43
787.319	-0.45
787.493	-0.02
787.667	-0.27
787.841	-0.1
788.015	0.15
788.19	-0.13
788.364	0.14
788.538	-0.29
788.712	0.11
788.886	-0.11
789.06	0.02
789.234	0.09
789.408	-0.27
789.582	-0.13
789.756	-0.07
789.93	-0.33
790.104	-0.11
790.278	-0.08
790.452	-0
790.626	0.01
790.8	-0.08
790.973	0.2
791.147	0.23
791.321	0.25
791.495	0.1
791.669	-0.05
791.843	-0
792.016	-0.01
792.19	0.43
792.364	-0.27
792.538	0.53
792.711	0.03
792.885	-0.19
793.059	-0.09
793.233	-0.59
793.406	0.27
793.58	-0.06
793.754	0.3
793.927	-0.06
794.101	0.2
794.274	-0.15
794.448	0.37
794.622	-0.24
794.795	0.03
794.969	0.1
795.142	0.39
795.316	0.2
795.489	0.04
795.663	0.33
795.836	-0.21
796.009	-0.23
796.183	0.4
796.356	0.21
796.53	-0.05
796.703	-0.14
796.876	0.48
797.05	0.01
797.223	-0.21
797.396	0.14
797.57	0.1
797.743	-0.1
797.916	0.15
798.09	-0.1
798.263	0.1
798.436	0.25
798.609	-0.1
798.782	-0.04
798.956	0.09
799.129	0.17
799.302	-0.21
799.475	-0.15
799.648	-0.21
799.821	-0.3
799.994	0.02
800.167	-0.27
800.34	-0.01
800.514	0.04
800.687	-0.05
800.86	-0.06
801.033	0.01
801.206	0.12
801.379	-0.35
801.551	0.21
801.724	0.07
801.897	0.55
802.07	-0.12
802.243	-0.5
802.416	-0.17
802.589	-0.18
802.762	0.1
802.935	-0.15
803.107	0.31
803.28	0.27
803.453	0.06
803.626	-0.25
803.798	-0.06
803.971	-0.23
804.144	0.29
804.317	-0.08
804.489	0.08
804.662	-0.1
804.835	-0.29
805.007	-0.14
805.18	0.21
805.353	0.11
805.525	-0.3
805.698	-0.24
805.87	-0.18
806.043	0.1
806.215	-0.3
806.388	-0.43
806.56	-0.02
806.733	0.18
806.905	-0.05
807.078	-0.24
807.25	-0.13
807.423	0.01
807.595	-0.5
807.768	-0.21
807.94	-0.03
808.112	-0.08
808.285	-0.12
808.457	-0.6
808.629	0.17
808.802	0.1
808.974	-0.01
809.146	0.09
809.318	-0.48
809.491	0.26
809.663	0.2
809.835	-0.25
810.007	0.13
810.18	0.04
810.352	-0.47
810.524	-0.16
810.696	0.07
810.868	0.11
811.04	-0.07
811.212	-0.2
811.384	0.29
811.556	-0.05
811.728	0.26
811.901	0.84
812.073	-0.19
812.245	0.5
812.417	0.1
812.589	-0.56
812.76	0.04
812.932	0.23
813.104	0.22
813.276	-0.29
813.448	0.15
813.62	0.06
813.792	0.06
813.964	0.09
814.136	-0.04
814.307	-0.05
814.479	-0.4
814.651	-0.17
814.823	0.59
814.995	-0.17
815.166	0.17
815.338	-0.39
815.51	-0.81
815.681	0.69
815.853	0.23
816.025	0.11
816.196	0.3
816.368	0.23
816.54	-0.33
816.711	-0.06
816.883	-0.09
817.054	0.84
817.226	-0.61
817.398	-0.13
817.569	-0.42
817.741	-0.16
817.912	-0.26
818.084	-0.31
818.255	0.03
818.426	-0.11
818.598	0.09
818.769	-0.48
818.941	0.03
819.112	0.49
819.283	0.38
819.455	-0.31
819.626	-0.08
819.798	-0.08
819.969	0.12
820.14	-0.1
820.311	-0.14
820.483	0.19
820.654	0.34
820.825	-0.35
820.996	-0.3
821.168	-0.51
821.339	0.11
821.51	-0.54
821.681	0.09
821.852	0.19
822.023	-0.24
822.195	-0.25
822.366	0.14
822.537	-0.07
822.708	0.06
822.879	-0.58
823.05	0.63
823.221	-0.01
823.392	0.02
823.563	0.15
823.734	0.01
823.905	-0.39
824.076	-0.27
824.247	-0.61
824.418	0.22
824.589	0
824.759	-0.4
824.93	-0.49
825.101	-0.57
825.272	-0.04
825.443	0.41
825.614	0.15
825.784	-0.98
825.955	1.07
826.126	1.17
826.297	0.43
826.467	1.13
826.638	0.48
826.809	-0.75
826.98	-0.4
827.15	0.11
827.321	-0.14
827.492	0.35
827.662	-0.16
827.833	1
828.003	-0
828.174	-0.77
828.345	-0.28
828.515	0.29
828.686	0.34
828.856	-0.51
829.027	-0.03
829.197	-0.32
829.368	0.06
829.538	-0.45
829.709	-0.3
829.879	0.26
830.049	-0.18
830.22	-0.22
830.39	0.05
830.56	0.1
830.731	-0.36
830.901	-0.32
831.072	-0.02
831.242	-0
831.412	0.1
831.582	-0.27
831.753	-0.66
831.923	0.33
832.093	-0.01
832.263	-0.17
832.434	-0.87
832.604	-0.18
832.774	0.26
832.944	0.45
833.114	-0.3
833.284	-0.12
833.454	-0.87
833.624	-0.47
833.795	-0.13
833.965	0.69
834.135	0.79
834.305	-1.06
834.475	-1.05
834.645	0.05
834.815	-0.38
834.985	-1
835.155	-0.19
835.325	-0.04
835.494	0.2
835.664	-0.19
835.834	-0.33
836.004	0.42
836.174	-0.18
836.344	0.39
836.514	-0.68
836.684	-0.12
836.853	0.58
837.023	-0.08
837.193	-0.41
837.363	0.37
837.532	0.42
837.702	-0.39
837.872	-0.69
838.041	1.07
838.211	1.04
838.381	-0.83
838.55	0.34
838.72	1.3
838.89	1.25
839.059	-0.44
839.229	-0.37
839.398	0.71
839.568	-0.01
839.738	-0.44
839.907	0.51
840.077	0.02
840.246	-0.37
840.416	-0.95
840.585	0.05
840.755	0.75
840.924	0.96
841.093	-0.35
841.263	-0.42
841.432	0.1
841.602	0.04
841.771	-0.82
841.94	-0.5
842.11	1.1
842.279	0.79
842.448	-0.35
842.617	-1.22
842.787	0.64
842.956	-0.87
843.125	-0.16
843.294	-0.67
843.464	0.41
843.633	-0.96
843.802	-0.97
843.971	-0.06
844.14	0.22
844.309	1.1
844.479	-1.07
844.648	-0.93
844.817	-0.59
844.986	0.35
845.155	-0.34
845.324	-0.78
845.493	-0.36
845.662	-0.67
845.831	0.47
846	0.3
846.169	-0.25
846.338	1.21
846.507	-0.46
846.676	0.35
846.844	0.52
847.013	1.2
847.182	-0.44
847.351	-0.02
847.52	0.14
847.689	-0.36
847.858	0.15
848.026	-0.54
848.195	-0.08
848.364	-0.22
848.533	-0.83
848.701	0.09
848.87	0.35
849.039	1.14
849.207	0.9
849.376	0.44
849.545	1.42
849.713	-0.17
849.882	0.05
850.051	-0.22
850.219	-0.25
850.388	-0.09
850.556	-0.86
850.725	-0.29
850.893	0.47
851.062	-0.75
851.23	0.47
851.399	-0.91
851.567	-0.89
851.736	-0.85
851.904	-1.03
852.073	0.36
852.241	0.64
852.41	-0.05
852.578	-0.71
852.746	-0.34
852.915	-0.36
853.083	-0.05
853.251	-0.89
853.42	-0.47
853.588	0.57
853.756	-0.08
853.924	0.14
854.093	-0.24
854.261	-0.18
854.429	-0.79
854.597	-0.26
854.765	-1.42
854.934	1.01
855.102	0.49
855.27	0.43
855.438	0.17
855.606	-0.08
855.774	0.62
855.942	-1.71
856.11	-1.52
856.278	0.95
856.446	-0.28
856.614	0.27
856.782	-0.85
856.95	1.59
857.118	0.59
857.286	1.14
857.454	0.03
857.622	0.95
857.79	0.68
857.958	-0.47
858.126	-0.55
858.294	-2.75
858.462	0.6
858.629	-0.25
858.797	-0.81
858.965	-0.82
859.133	0.13
859.301	-0.91
859.468	-0.12
859.636	-1.04
859.804	1.82
859.971	0.66
860.139	-1.79
860.307	0.71
860.474	0.33
860.642	-0.04
860.81	-0.75
860.977	0.73
861.145	0.43
861.313	0.61
861.48	0.6
861.648	0.68
861.815	-0.18
861.983	-0.67
862.15	-0.6
862.318	0.31
862.485	0.45
862.653	-1.47
862.82	-0.99
862.988	0.78
863.155	1.07
863.322	-1.02
863.49	-2.19
863.657	-1.21
863.824	1.87
863.992	0.12
864.159	0.64
864.326	1.3
864.494	-1.56
864.661	2.29
864.828	-0.56
864.996	-0.53
865.163	1.99
865.33	-0.95
865.497	-2.1
865.664	0.01
865.832	-2.48
865.999	-0.97
866.166	-1.07
866.333	-0.76
866.5	-1.4
866.667	0.24
866.834	-0.57
867.001	1.09
867.168	-1.44
867.335	0.13
867.502	-1.33
867.669	-0.22
867.836	1.32
868.003	-0.65
868.17	1.37
868.337	0.3
868.504	1.41
868.671	-2.02
868.838	-1.45
869.005	-0.82
869.172	-0.05
869.339	-0.13
869.505	-0.41
869.672	-1.28
869.839	1.15
870.006	-0.28
870.173	-2.54
870.339	-0.95
870.506	3.14
870.673	-1.23
870.84	1.31
871.006	0.84
871.173	-0.81
871.34	-1.85
871.506	-0.77
871.673	0.55
871.839	-1.36
872.006	-0.61
872.173	-1.12
872.339	0.38
872.506	2.5
872.672	-2.25
872.839	-3
873.005	0.81
873.172	2.92
873.338	1.63
873.505	0.89
873.671	1.11
873.838	1.22
874.004	-2.03
874.171	-2.21
874.337	0.63
874.503	1.29
874.67	-0.28
874.836	-0.74
875.002	2.19
875.169	0.36
875.335	0.4
875.501	-1.88
875.668	0.05
875.834	0.46
876	-0.46
876.166	0.36
876.332	0.63
876.499	2.25
876.665	-1.2
876.831	0.18
876.997	1.87
877.163	0.33
877.329	-1.78
877.495	0.4
877.662	0.58
877.828	0.86
877.994	1.01
878.16	-2.07
878.326	-1.94
878.492	0.41
878.658	-2.04
878.824	0.2
878.99	0.67
879.156	-3.13
879.322	2.72
879.487	-0.73
879.653	0.2
879.819	-0.58
879.985	-1.8
880.151	-0.8
880.317	0.63
880.483	-0.47
880.648	1.21
880.814	-2.17
880.98	-1.33
881.146	-3.45
881.312	-2.14
881.477	-0.45
881.643	0.69
881.809	-0.57
881.974	2.63
882.14	-3.18
882.306	-0
882.471	2.94
882.637	-1.96
882.803	-0.23
882.968	2
883.134	3.94
883.299	-0.43
883.465	0.32
883.63	2.39
883.796	1.08
883.961	0.69
884.127	-1.79
884.292	-3.31
884.458	-2.73
884.623	-2.73
