Data from Apollo_Calib_20240827__AbsoluteIrradiance__727__11-16-01-504.txt Node

Date: Wed Aug 28 11:16:01 BST 2024
User: biology
Spectrometer: FLMT08252
Trigger mode: 0
Integration Time (sec): 5.000000E-1
Scans to average: 5
Electric dark correction enabled: true
Nonlinearity correction enabled: false
Boxcar width: 0
XAxis mode: Wavelengths
Number of Pixels in Spectrum: 3648
>>>>>Begin Spectral Data<<<<<
179.588	-0
179.809	-0
180.03	-0
180.251	-0
180.473	-0
180.694	0
180.915	0
181.136	-0
181.357	0
181.578	-0
181.799	0
182.02	-0
182.241	0
182.462	-0
182.683	0
182.904	-0
183.125	-0
183.346	0
183.567	0
183.788	0
184.009	-0
184.23	0
184.451	0
184.672	0
184.892	0
185.113	0
185.334	0
185.555	0
185.776	0
185.996	0
186.217	0
186.438	0
186.659	0
186.879	0
187.1	0
187.321	0
187.541	-0
187.762	0
187.983	0
188.203	0
188.424	0
188.644	0
188.865	0
189.086	0
189.306	0
189.527	0
189.747	0
189.968	0
190.188	0
190.409	0
190.629	0
190.849	0
191.07	0
191.29	0
191.511	0
191.731	0
191.951	0
192.172	0
192.392	0
192.612	0
192.833	0
193.053	0
193.273	0
193.493	0
193.714	0
193.934	0
194.154	0
194.374	0
194.594	0
194.815	0
195.035	0
195.255	0
195.475	0
195.695	0
195.915	0
196.135	0
196.355	0
196.575	0
196.795	0
197.015	-0
197.235	0
197.455	0
197.675	0
197.895	0
198.115	-0
198.335	0
198.555	0
198.775	0
198.995	0
199.214	0
199.434	0
199.654	0
199.874	0
200.094	1.67
200.313	0.79
200.533	0.36
200.753	-0.43
200.973	1.31
201.192	1.23
201.412	-0.41
201.632	0.15
201.851	1.86
202.071	0.26
202.291	-0.07
202.51	-0.2
202.73	0.55
202.95	0.59
203.169	-0.08
203.389	0.39
203.608	0.84
203.828	0.04
204.047	0.26
204.267	0.74
204.486	0.63
204.706	0.43
204.925	0.71
205.145	0.51
205.364	0.76
205.583	1.06
205.803	0.04
206.022	0.27
206.242	0.69
206.461	0.83
206.68	0.14
206.9	0.61
207.119	1.07
207.338	1.04
207.557	0.15
207.777	0.48
207.996	0.66
208.215	0.97
208.434	0.15
208.654	-0.01
208.873	0.78
209.092	0.85
209.311	0.26
209.53	0.33
209.749	0.18
209.968	0.37
210.187	0.3
210.407	0
210.626	0.22
210.845	1.06
211.064	0.35
211.283	0.18
211.502	0.54
211.721	0.51
211.94	0.23
212.159	0.4
212.377	0.46
212.596	0.52
212.815	0.41
213.034	0.37
213.253	0.49
213.472	0.69
213.691	0.17
213.91	0.15
214.128	0.08
214.347	0.7
214.566	-0.14
214.785	-0.2
215.003	0.64
215.222	0.33
215.441	0.26
215.66	0.02
215.878	0.09
216.097	0.37
216.316	0.01
216.534	0.12
216.753	0.38
216.972	0.15
217.19	0.36
217.409	0
217.627	0.25
217.846	0.25
218.064	0.35
218.283	0.05
218.501	0.53
218.72	0.56
218.938	0.08
219.157	-0.02
219.375	0.43
219.594	0.48
219.812	-0.05
220.031	0.11
220.249	0.57
220.467	0.62
220.686	0.14
220.904	0.04
221.122	-0
221.341	0.5
221.559	0.3
221.777	0.04
221.995	0.2
222.214	0.38
222.432	0.14
222.65	0.33
222.868	0.11
223.086	0.34
223.305	0.28
223.523	0.27
223.741	0.51
223.959	0.12
224.177	0.06
224.395	0.07
224.613	0.32
224.831	0.27
225.049	0.03
225.267	0.23
225.485	0.37
225.703	0.07
225.921	0.16
226.139	0.17
226.357	0.13
226.575	0.31
226.793	-0.04
227.011	0.8
227.229	0.17
227.447	0.36
227.665	0.2
227.883	0.1
228.1	0.08
228.318	0.25
228.536	-0.04
228.754	0.02
228.972	0.26
229.189	0.24
229.407	0.18
229.625	0
229.843	0.38
230.06	0.37
230.278	0.06
230.496	0.1
230.713	0.12
230.931	0.34
231.149	0.08
231.366	-0.05
231.584	0.17
231.801	0.5
232.019	0.05
232.236	-0.06
232.454	0.08
232.671	0.25
232.889	0.21
233.106	0.04
233.324	0.14
233.541	0.12
233.759	0.26
233.976	0.12
234.194	0.12
234.411	0.17
234.628	0.08
234.846	0.18
235.063	0.1
235.28	0.26
235.498	0.25
235.715	-0.05
235.932	0.29
236.149	0.19
236.367	0.07
236.584	0.16
236.801	0.05
237.018	0.21
237.236	0.21
237.453	0.03
237.67	0.36
237.887	0.19
238.104	0.03
238.321	0.01
238.538	-0.01
238.755	0.28
238.973	-0.01
239.19	0.18
239.407	0.18
239.624	0.25
239.841	-0.01
240.058	0.12
240.275	0.18
240.492	0.12
240.709	0.15
240.925	0.06
241.142	0.15
241.359	-0.01
241.576	0.09
241.793	0.09
242.01	0.11
242.227	0.25
242.444	0.25
242.66	0.2
242.877	0.21
243.094	0.08
243.311	0.19
243.527	0.12
243.744	0.14
243.961	0.13
244.178	0.01
244.394	0.12
244.611	0.25
244.828	0.36
245.044	0.03
245.261	0.05
245.477	0.05
245.694	0.19
245.911	0.02
246.127	0.11
246.344	0.28
246.56	0.23
246.777	0.11
246.993	0.13
247.21	0.23
247.426	0.23
247.643	-0.01
247.859	0.04
248.076	0.16
248.292	0.34
248.508	-0.01
248.725	0.09
248.941	0.25
249.157	0.22
249.374	0.11
249.59	0.06
249.806	0.15
250.023	0.3
250.239	0.09
250.455	0.02
250.671	0.16
250.888	0.23
251.104	0.13
251.32	0.06
251.536	0.2
251.752	0.11
251.969	0.11
252.185	0.08
252.401	0.34
252.617	0.17
252.833	0.1
253.049	0.13
253.265	0.1
253.481	0.15
253.697	0.02
253.913	0.09
254.129	0.15
254.345	0.17
254.561	0.14
254.777	0.15
254.993	0.19
255.209	0.16
255.425	0.16
255.641	0.08
255.857	0.29
256.073	0.11
256.288	0
256.504	0.12
256.72	0.11
256.936	0.18
257.152	0.14
257.367	0.07
257.583	0.09
257.799	0.16
258.015	0.01
258.23	0.02
258.446	0.24
258.662	0.13
258.877	0.06
259.093	0.03
259.309	0.11
259.524	0.16
259.74	0.07
259.955	0
260.171	0.1
260.387	0.13
260.602	0.17
260.818	0.13
261.033	0.07
261.249	0.1
261.464	0.09
261.68	0.03
261.895	0.08
262.11	0.2
262.326	0.08
262.541	0.01
262.757	0.17
262.972	0.16
263.187	0.08
263.403	0.1
263.618	0.17
263.833	0.11
264.049	0.03
264.264	0.18
264.479	0.11
264.694	0.21
264.91	0.04
265.125	0.12
265.34	0.15
265.555	0.27
265.77	0.12
265.986	0.1
266.201	0.16
266.416	0.19
266.631	0.06
266.846	0.11
267.061	0.2
267.276	0.18
267.491	-0.01
267.706	0.19
267.921	0.14
268.136	0.16
268.351	0.09
268.566	0.04
268.781	0.26
268.996	0.15
269.211	0.09
269.426	-0.01
269.641	0.07
269.856	0.21
270.071	0.05
270.285	0.03
270.5	0.19
270.715	0.19
270.93	0.07
271.145	0.13
271.359	0.2
271.574	0.07
271.789	0.12
272.004	0.09
272.218	0.1
272.433	0.15
272.648	0.07
272.862	0.15
273.077	0.1
273.292	0.11
273.506	0.09
273.721	0.05
273.936	0.15
274.15	0.14
274.365	0.09
274.579	0.17
274.794	0.12
275.008	0.15
275.223	-0.02
275.437	0.1
275.652	0.17
275.866	0.11
276.081	0.08
276.295	0.18
276.509	0.13
276.724	0.16
276.938	0.07
277.153	0.13
277.367	0.18
277.581	0.08
277.796	0.11
278.01	0.06
278.224	0.18
278.438	0.22
278.653	0.04
278.867	0.03
279.081	-0.06
279.295	0.02
279.51	0.12
279.724	0.01
279.938	0.14
280.152	0.09
280.366	0.03
280.58	0.1
280.794	0.22
281.008	0.12
281.222	0.14
281.437	0.19
281.651	0.11
281.865	0.18
282.079	0.06
282.293	-0.05
282.507	0.07
282.721	0.08
282.935	0.13
283.148	0.04
283.362	0.03
283.576	0.04
283.79	0.06
284.004	0.05
284.218	0.17
284.432	0.09
284.646	0.07
284.859	0.07
285.073	0.1
285.287	0.04
285.501	0.06
285.714	0.08
285.928	0.1
286.142	0.11
286.356	0.06
286.569	0.06
286.783	0.12
286.997	0.13
287.21	0.09
287.424	0.09
287.637	0.09
287.851	0.07
288.065	0.12
288.278	0.07
288.492	0.07
288.705	0.1
288.919	0.12
289.132	0.02
289.346	0.1
289.559	0.06
289.773	0.08
289.986	0.05
290.2	0.07
290.413	0.15
290.626	0.08
290.84	0.09
291.053	0.05
291.267	0.19
291.48	0.09
291.693	0.07
291.906	0.09
292.12	0.11
292.333	-0.01
292.546	0.03
292.76	0.14
292.973	0.15
293.186	0.15
293.399	0.04
293.612	0.16
293.826	0.1
294.039	0.04
294.252	0.09
294.465	0.15
294.678	0.14
294.891	0.11
295.104	0.05
295.317	0.12
295.53	0.1
295.743	0.1
295.956	0.06
296.169	0.22
296.382	0.14
296.595	0.12
296.808	0.03
297.021	0.16
297.234	0.1
297.447	0.11
297.66	0.07
297.873	0.15
298.086	0.14
298.299	0.07
298.511	0.01
298.724	0.03
298.937	0.01
299.15	0.06
299.363	0.11
299.575	0.13
299.788	0.12
300.001	0.09
300.213	0.05
300.426	0.07
300.639	0.07
300.852	0.05
301.064	0.14
301.277	0.13
301.489	0.09
301.702	0.11
301.915	0.08
302.127	0.13
302.34	0.12
302.552	0.1
302.765	0.02
302.977	0.09
303.19	0.06
303.402	0.02
303.615	0.05
303.827	0.09
304.04	0.12
304.252	0.09
304.464	0.06
304.677	0.21
304.889	0.13
305.102	0.03
305.314	0.08
305.526	0.16
305.739	0.13
305.951	0.06
306.163	0.06
306.375	0.17
306.588	0.1
306.8	0.06
307.012	0.04
307.224	0.09
307.436	0.18
307.649	0.03
307.861	0.09
308.073	0.13
308.285	0.1
308.497	0.04
308.709	0.07
308.921	0.11
309.133	0.12
309.346	0.07
309.558	0.06
309.77	0.16
309.982	0.14
310.194	0.12
310.406	0.09
310.617	0.16
310.829	0.1
311.041	0.14
311.253	0.05
311.465	0.04
311.677	0.08
311.889	0.07
312.101	0.1
312.313	0.13
312.524	0.16
312.736	0.01
312.948	0.05
313.16	0.14
313.372	0.12
313.583	0.09
313.795	0.08
314.007	0.08
314.218	0.08
314.43	0.08
314.642	0.08
314.853	0.05
315.065	0.16
315.277	0.06
315.488	0.11
315.7	0.13
315.912	0.12
316.123	0.03
316.335	0.1
316.546	0.19
316.758	0.06
316.969	0.05
317.181	0.12
317.392	0.11
317.604	0.1
317.815	0.01
318.026	0.07
318.238	0.11
318.449	0.13
318.661	0.01
318.872	0.04
319.083	0.04
319.295	0.11
319.506	0.06
319.717	0.09
319.929	0.16
320.14	0.09
320.351	0.06
320.562	0.02
320.774	0.08
320.985	0.11
321.196	0.03
321.407	-0.01
321.618	0.12
321.829	0.1
322.041	0.07
322.252	0.09
322.463	0.11
322.674	0.1
322.885	0.03
323.096	0.08
323.307	0.08
323.518	0.1
323.729	0.08
323.94	0.03
324.151	0.1
324.362	0.05
324.573	0.11
324.784	0.05
324.995	0.12
325.206	0.11
325.417	0.06
325.628	0.05
325.838	0.08
326.049	0.14
326.26	0.12
326.471	0.07
326.682	0.16
326.892	0.05
327.103	0.09
327.314	0.04
327.525	0.13
327.735	0.11
327.946	0.08
328.157	0.07
328.368	0.13
328.578	0.09
328.789	0.11
328.999	0.13
329.21	0.09
329.421	0.08
329.631	0.06
329.842	0.07
330.052	0.09
330.263	0.11
330.473	0.13
330.684	0.05
330.894	0.1
331.105	0.11
331.315	0.07
331.526	0.03
331.736	0.16
331.947	0.11
332.157	0.13
332.367	0.02
332.578	0.07
332.788	0.13
332.999	0.12
333.209	0.09
333.419	0.06
333.629	0.08
333.84	0.12
334.05	0.1
334.26	0.09
334.47	0.05
334.681	0.13
334.891	0.04
335.101	0.11
335.311	0.18
335.521	0.09
335.732	0.03
335.942	0.16
336.152	0.11
336.362	0.14
336.572	0.09
336.782	0.08
336.992	0.09
337.202	0.05
337.412	0.05
337.622	0.09
337.832	0.08
338.042	0.08
338.252	0.07
338.462	0.05
338.672	0.09
338.882	0.14
339.092	0.09
339.302	0.17
339.511	0.11
339.721	0.08
339.931	0.01
340.141	0.12
340.351	0.15
340.561	0.12
340.77	0.12
340.98	0.12
341.19	0.1
341.4	0.06
341.609	0.04
341.819	0.07
342.029	0.1
342.238	0.05
342.448	0.03
342.658	0.12
342.867	0.09
343.077	0.08
343.286	0.11
343.496	0.09
343.706	0.14
343.915	0.02
344.125	0.08
344.334	0.09
344.544	0.04
344.753	0.07
344.963	0.07
345.172	0.07
345.381	0.09
345.591	0.1
345.8	0.09
346.01	0.11
346.219	0.1
346.428	-0.02
346.638	0.11
346.847	0.07
347.056	0.13
347.266	0.07
347.475	0.09
347.684	0.11
347.893	0.11
348.103	0.11
348.312	0.1
348.521	0.05
348.73	0.09
348.94	0.1
349.149	0.09
349.358	0.08
349.567	0.05
349.776	-0.02
349.985	0.04
350.194	0.12
350.403	0.1
350.612	0.05
350.821	0.05
351.03	0.1
351.239	0.02
351.448	0.05
351.657	0.06
351.866	0.17
352.075	0.11
352.284	0.12
352.493	0.07
352.702	0.11
352.911	0.11
353.12	0.11
353.329	0.02
353.538	0.09
353.746	0.06
353.955	0.03
354.164	0.11
354.373	0.05
354.582	0.14
354.79	0.07
354.999	0.12
355.208	0.07
355.416	0.15
355.625	0.03
355.834	0.05
356.042	0.07
356.251	0.07
356.46	0.05
356.668	0.06
356.877	0.12
357.085	0.11
357.294	-0.01
357.503	0.1
357.711	0.06
357.92	0.22
358.128	0.06
358.337	0.07
358.545	0.09
358.754	0.06
358.962	0.08
359.17	0.09
359.379	0.08
359.587	0.11
359.796	0.09
360.004	0.14
360.212	0.1
360.421	0.15
360.629	0.07
360.837	0.08
361.046	0.12
361.254	0.2
361.462	0.08
361.67	0.1
361.879	0.09
362.087	0.12
362.295	0.09
362.503	0.07
362.711	0.03
362.92	0.04
363.128	0.04
363.336	0.01
363.544	0.04
363.752	0.08
363.96	0.08
364.168	0.08
364.376	0.07
364.584	0.11
364.792	0.13
365	0.08
365.208	0.08
365.416	0.12
365.624	0.13
365.832	0.04
366.04	0.14
366.248	0.13
366.456	0.1
366.664	0.1
366.872	0.08
367.079	0.08
367.287	0.1
367.495	0.15
367.703	0.05
367.911	0.06
368.118	0.09
368.326	0.07
368.534	0.03
368.742	0.15
368.949	0.02
369.157	0.04
369.365	0.15
369.572	0.1
369.78	0.02
369.988	0.08
370.195	0.1
370.403	0.11
370.61	0.08
370.818	0.06
371.026	0.14
371.233	0.05
371.441	0.09
371.648	0.05
371.856	0.08
372.063	0.11
372.271	0.08
372.478	0.04
372.685	0.04
372.893	0.14
373.1	0.05
373.308	0.07
373.515	0.18
373.722	0.09
373.93	0.11
374.137	0.12
374.344	0.15
374.552	0.14
374.759	0.13
374.966	0.1
375.173	0.07
375.381	0.13
375.588	0.08
375.795	0.04
376.002	0.04
376.209	0.05
376.417	0.05
376.624	0.09
376.831	0.13
377.038	0.1
377.245	0.01
377.452	0.05
377.659	0.1
377.866	0.04
378.073	0.07
378.28	0.09
378.487	0.08
378.694	0.13
378.901	0.07
379.108	0.11
379.315	0.11
379.522	0.12
379.729	0.09
379.936	0.1
380.143	0.1
380.35	0.11
380.557	0.1
380.763	0.11
380.97	0.09
381.177	0.14
381.384	0.09
381.591	0.05
381.797	0.09
382.004	0.08
382.211	0.09
382.418	0.03
382.624	0.14
382.831	0.12
383.038	0.03
383.244	0.06
383.451	0.07
383.658	0.16
383.864	0.1
384.071	0.06
384.277	0.19
384.484	0.08
384.69	0.17
384.897	0.05
385.103	0.11
385.31	0.08
385.516	0.08
385.723	0.09
385.929	0.1
386.136	0.12
386.342	0.13
386.549	0.06
386.755	0.17
386.961	0.12
387.168	0.11
387.374	0.1
387.58	0.07
387.787	0.1
387.993	0.1
388.199	0.05
388.406	0.06
388.612	0.12
388.818	0.07
389.024	0.06
389.231	0.08
389.437	0.18
389.643	0.1
389.849	0.05
390.055	0.1
390.261	0.06
390.467	0.11
390.674	0.04
390.88	0.07
391.086	0.13
391.292	0.05
391.498	0.11
391.704	0.12
391.91	0.09
392.116	0.08
392.322	-0.03
392.528	0.13
392.734	0.12
392.94	0.12
393.146	0.04
393.352	0.11
393.557	0.1
393.763	0.11
393.969	0.12
394.175	0.08
394.381	0.12
394.587	0.06
394.792	0.06
394.998	0.15
395.204	0.17
395.41	0.06
395.615	0.14
395.821	0.14
396.027	0.16
396.233	0.06
396.438	0.13
396.644	0.15
396.85	0.09
397.055	0.12
397.261	0.13
397.466	0.17
397.672	0.12
397.878	0.12
398.083	0.12
398.289	0.08
398.494	0.12
398.7	0.16
398.905	0.04
399.111	0.17
399.316	0.08
399.522	0.12
399.727	0.09
399.932	0.09
400.138	0.12
400.343	0.17
400.549	0.13
400.754	0.11
400.959	0.1
401.165	0.11
401.37	0.15
401.575	0.07
401.78	0.12
401.986	0.1
402.191	0.11
402.396	0.13
402.601	0.13
402.807	0.14
403.012	0.12
403.217	0.14
403.422	0.13
403.627	0.17
403.832	0.13
404.037	0.22
404.243	0.17
404.448	0.11
404.653	0.13
404.858	0.19
405.063	0.19
405.268	0.12
405.473	0.1
405.678	0.14
405.883	0.3
406.088	0.17
406.293	0.07
406.498	0.13
406.703	0.15
406.907	0.13
407.112	0.08
407.317	0.13
407.522	0.19
407.727	0.07
407.932	0.15
408.136	0.24
408.341	0.19
408.546	0.2
408.751	0.14
408.956	0.18
409.16	0.24
409.365	0.14
409.57	0.18
409.774	0.17
409.979	0.26
410.184	0.21
410.388	0.17
410.593	0.27
410.798	0.2
411.002	0.23
411.207	0.24
411.411	0.28
411.616	0.22
411.82	0.24
412.025	0.29
412.229	0.21
412.434	0.35
412.638	0.26
412.843	0.26
413.047	0.29
413.252	0.25
413.456	0.3
413.66	0.31
413.865	0.3
414.069	0.37
414.273	0.32
414.478	0.33
414.682	0.33
414.886	0.31
415.091	0.27
415.295	0.29
415.499	0.43
415.703	0.37
415.908	0.44
416.112	0.34
416.316	0.54
416.52	0.44
416.724	0.4
416.929	0.47
417.133	0.64
417.337	0.44
417.541	0.52
417.745	0.55
417.949	0.62
418.153	0.65
418.357	0.56
418.561	0.76
418.765	0.64
418.969	0.8
419.173	0.75
419.377	0.69
419.581	0.87
419.785	0.81
419.989	0.78
420.193	0.88
420.397	0.89
420.601	0.99
420.804	0.99
421.008	0.97
421.212	1.06
421.416	1.08
421.62	0.99
421.823	1.05
422.027	1.13
422.231	1.15
422.435	1.04
422.638	1.16
422.842	1.18
423.046	1.18
423.249	1.25
423.453	1.26
423.657	1.36
423.86	1.3
424.064	1.38
424.268	1.51
424.471	1.38
424.675	1.57
424.878	1.57
425.082	1.58
425.285	1.63
425.489	1.64
425.692	1.71
425.896	1.66
426.099	1.76
426.303	1.77
426.506	1.78
426.71	1.91
426.913	2.07
427.116	2.01
427.32	2.03
427.523	2.08
427.726	2.21
427.93	2.18
428.133	2.27
428.336	2.22
428.54	2.38
428.743	2.43
428.946	2.51
429.149	2.45
429.353	2.51
429.556	2.51
429.759	2.55
429.962	2.59
430.165	2.68
430.368	2.57
430.571	2.52
430.775	2.59
430.978	2.56
431.181	2.59
431.384	2.56
431.587	2.56
431.79	2.72
431.993	2.74
432.196	2.8
432.399	2.98
432.602	3
432.805	2.98
433.008	3.17
433.211	3.12
433.414	3.39
433.616	3.32
433.819	3.28
434.022	3.23
434.225	3.46
434.428	3.42
434.631	3.63
434.833	3.43
435.036	3.58
435.239	3.71
435.442	3.64
435.645	3.61
435.847	3.71
436.05	3.87
436.253	3.9
436.455	3.88
436.658	3.86
436.861	4.12
437.063	4.05
437.266	3.99
437.468	4.21
437.671	4.39
437.874	4.31
438.076	4.24
438.279	4.43
438.481	4.49
438.684	4.66
438.886	4.59
439.089	4.7
439.291	4.76
439.494	4.94
439.696	4.84
439.899	5.11
440.101	5.29
440.303	5.31
440.506	5.61
440.708	5.52
440.91	5.67
441.113	5.75
441.315	5.89
441.517	5.71
441.72	6.04
441.922	5.86
442.124	5.81
442.326	6.01
442.529	6.13
442.731	6.13
442.933	6.27
443.135	6.21
443.337	6.17
443.539	6.43
443.742	6.24
443.944	6.53
444.146	6.45
444.348	6.56
444.55	6.49
444.752	6.55
444.954	6.64
445.156	6.61
445.358	6.74
445.56	6.9
445.762	6.87
445.964	6.93
446.166	6.96
446.368	6.97
446.57	6.96
446.772	6.77
446.974	6.72
447.175	6.94
447.377	6.78
447.579	7.05
447.781	6.84
447.983	6.81
448.184	6.65
448.386	6.81
448.588	6.52
448.79	6.55
448.991	6.81
449.193	6.84
449.395	6.48
449.597	6.36
449.798	6.43
450	6.14
450.202	6.21
450.403	6.17
450.605	6.12
450.806	5.91
451.008	5.85
451.21	5.69
451.411	5.7
451.613	5.35
451.814	5.46
452.016	5.47
452.217	5.21
452.419	5.2
452.62	5.03
452.821	4.97
453.023	4.92
453.224	4.74
453.426	4.5
453.627	4.31
453.828	4.32
454.03	4.27
454.231	4.31
454.432	4.26
454.634	4.15
454.835	4.01
455.036	3.86
455.238	3.87
455.439	3.68
455.64	3.59
455.841	3.53
456.042	3.49
456.244	3.45
456.445	3.29
456.646	3.11
456.847	3.12
457.048	3.18
457.249	3.16
457.45	3.12
457.651	2.85
457.852	2.8
458.054	2.66
458.255	2.62
458.456	2.67
458.657	2.64
458.858	2.43
459.058	2.37
459.259	2.4
459.46	2.33
459.661	2.35
459.862	2.44
460.063	2.3
460.264	2.23
460.465	2.14
460.666	2.27
460.866	1.99
461.067	1.92
461.268	1.98
461.469	1.96
461.67	1.9
461.87	1.95
462.071	1.87
462.272	1.78
462.473	1.83
462.673	1.96
462.874	1.82
463.075	1.86
463.275	1.8
463.476	1.88
463.676	1.83
463.877	1.83
464.078	1.74
464.278	1.8
464.479	1.73
464.679	1.78
464.88	1.64
465.08	1.67
465.281	1.59
465.481	1.54
465.682	1.49
465.882	1.5
466.083	1.49
466.283	1.43
466.483	1.41
466.684	1.26
466.884	1.27
467.085	1.3
467.285	1.35
467.485	1.29
467.686	1.26
467.886	1.17
468.086	1.19
468.286	1.21
468.487	1.21
468.687	1.09
468.887	1.11
469.087	1.2
469.287	1.14
469.488	1.08
469.688	1.12
469.888	1.15
470.088	1.1
470.288	1.1
470.488	1.09
470.688	0.99
470.888	0.92
471.088	0.9
471.288	1.01
471.488	0.96
471.688	0.97
471.888	0.88
472.088	1.01
472.288	0.9
472.488	0.82
472.688	0.87
472.888	0.91
473.088	0.87
473.288	0.89
473.488	0.82
473.688	0.92
473.887	0.9
474.087	0.78
474.287	0.84
474.487	0.82
474.687	0.85
474.886	0.79
475.086	0.78
475.286	0.8
475.486	0.78
475.685	0.77
475.885	0.72
476.085	0.74
476.284	0.8
476.484	0.78
476.684	0.8
476.883	0.83
477.083	0.77
477.282	0.72
477.482	0.75
477.681	0.79
477.881	0.74
478.08	0.71
478.28	0.71
478.479	0.74
478.679	0.82
478.878	0.7
479.078	0.67
479.277	0.72
479.477	0.7
479.676	0.72
479.875	0.68
480.075	0.62
480.274	0.72
480.473	0.74
480.673	0.67
480.872	0.69
481.071	0.75
481.271	0.73
481.47	0.68
481.669	0.68
481.868	0.7
482.067	0.66
482.267	0.61
482.466	0.64
482.665	0.62
482.864	0.65
483.063	0.67
483.262	0.69
483.461	0.73
483.661	0.7
483.86	0.65
484.059	0.67
484.258	0.68
484.457	0.66
484.656	0.7
484.855	0.74
485.054	0.63
485.253	0.68
485.452	0.65
485.651	0.71
485.849	0.72
486.048	0.68
486.247	0.66
486.446	0.73
486.645	0.66
486.844	0.69
487.043	0.7
487.241	0.73
487.44	0.69
487.639	0.74
487.838	0.74
488.037	0.74
488.235	0.79
488.434	0.74
488.633	0.7
488.831	0.77
489.03	0.8
489.229	0.75
489.427	0.76
489.626	0.8
489.825	0.79
490.023	0.82
490.222	0.78
490.42	0.79
490.619	0.85
490.817	0.81
491.016	0.81
491.214	0.85
491.413	0.84
491.611	0.82
491.81	0.84
492.008	0.86
492.207	0.88
492.405	0.91
492.604	0.83
492.802	0.85
493	0.92
493.199	0.92
493.397	0.91
493.595	0.94
493.794	0.91
493.992	1
494.19	0.96
494.388	1.02
494.587	0.99
494.785	1.01
494.983	0.96
495.181	1.02
495.379	1.04
495.578	1.05
495.776	1.05
495.974	1.06
496.172	1.05
496.37	1.11
496.568	1.08
496.766	1.09
496.964	1.15
497.162	1.16
497.36	1.12
497.558	1.16
497.756	1.21
497.954	1.2
498.152	1.19
498.35	1.25
498.548	1.19
498.746	1.23
498.944	1.21
499.142	1.27
499.34	1.28
499.538	1.31
499.736	1.25
499.933	1.37
500.131	1.34
500.329	1.37
500.527	1.39
500.725	1.44
500.922	1.42
501.12	1.42
501.318	1.44
501.516	1.46
501.713	1.48
501.911	1.45
502.109	1.43
502.306	1.52
502.504	1.47
502.701	1.5
502.899	1.54
503.097	1.64
503.294	1.56
503.492	1.59
503.689	1.61
503.887	1.65
504.084	1.71
504.282	1.66
504.479	1.62
504.677	1.69
504.874	1.66
505.072	1.67
505.269	1.72
505.466	1.77
505.664	1.76
505.861	1.72
506.059	1.7
506.256	1.78
506.453	1.83
506.651	1.92
506.848	1.91
507.045	1.89
507.242	1.86
507.44	1.87
507.637	1.91
507.834	1.9
508.031	1.96
508.229	1.92
508.426	1.92
508.623	2
508.82	1.98
509.017	1.99
509.214	1.95
509.411	2.04
509.608	1.98
509.805	2.08
510.003	2.07
510.2	2.05
510.397	2.17
510.594	2.07
510.791	2.09
510.988	2.13
511.184	2.11
511.381	2.07
511.578	2.13
511.775	2.2
511.972	2.2
512.169	2.19
512.366	2.2
512.563	2.26
512.76	2.27
512.956	2.24
513.153	2.23
513.35	2.26
513.547	2.23
513.744	2.26
513.94	2.23
514.137	2.31
514.334	2.3
514.53	2.3
514.727	2.41
514.924	2.4
515.12	2.3
515.317	2.38
515.514	2.37
515.71	2.34
515.907	2.44
516.103	2.43
516.3	2.42
516.497	2.44
516.693	2.47
516.89	2.46
517.086	2.48
517.283	2.53
517.479	2.45
517.676	2.51
517.872	2.5
518.068	2.52
518.265	2.49
518.461	2.45
518.658	2.5
518.854	2.55
519.05	2.55
519.247	2.58
519.443	2.57
519.639	2.63
519.836	2.58
520.032	2.55
520.228	2.6
520.424	2.64
520.621	2.65
520.817	2.63
521.013	2.63
521.209	2.73
521.405	2.69
521.601	2.67
521.798	2.64
521.994	2.64
522.19	2.62
522.386	2.65
522.582	2.69
522.778	2.73
522.974	2.68
523.17	2.73
523.366	2.71
523.562	2.75
523.758	2.72
523.954	2.69
524.15	2.73
524.346	2.78
524.542	2.77
524.738	2.72
524.934	2.8
525.129	2.77
525.325	2.76
525.521	2.73
525.717	2.87
525.913	2.76
526.109	2.77
526.304	2.82
526.5	2.83
526.696	2.84
526.892	2.79
527.087	2.89
527.283	2.86
527.479	2.86
527.674	2.75
527.87	2.85
528.066	2.83
528.261	2.85
528.457	2.79
528.653	2.87
528.848	2.88
529.044	2.88
529.239	2.87
529.435	2.9
529.63	2.84
529.826	2.89
530.021	2.87
530.217	2.89
530.412	2.84
530.608	2.86
530.803	2.87
530.999	2.87
531.194	2.81
531.389	2.9
531.585	2.89
531.78	2.96
531.975	2.91
532.171	2.94
532.366	2.94
532.561	2.94
532.757	2.9
532.952	3.01
533.147	2.9
533.342	2.97
533.538	2.88
533.733	3.04
533.928	2.84
534.123	2.93
534.318	2.93
534.513	2.88
534.709	3
534.904	2.95
535.099	2.99
535.294	2.95
535.489	2.99
535.684	2.95
535.879	2.91
536.074	3.01
536.269	2.95
536.464	2.95
536.659	2.96
536.854	3
537.049	3.05
537.244	2.98
537.439	2.96
537.634	2.99
537.828	3.01
538.023	2.99
538.218	2.96
538.413	2.92
538.608	2.99
538.803	2.98
538.997	2.95
539.192	3.01
539.387	2.98
539.582	2.99
539.776	2.97
539.971	2.99
540.166	2.98
540.36	3
540.555	2.99
540.75	3.02
540.944	2.98
541.139	3.01
541.334	3.01
541.528	3.06
541.723	3.04
541.917	3.03
542.112	2.95
542.306	2.97
542.501	2.98
542.695	2.99
542.89	3
543.084	3.02
543.279	3.01
543.473	3.01
543.668	3.07
543.862	2.97
544.056	3.02
544.251	3.03
544.445	3.07
544.64	3.1
544.834	2.94
545.028	2.9
545.222	3.01
545.417	3.12
545.611	3.03
545.805	3.04
546	2.95
546.194	3.05
546.388	3.01
546.582	3.02
546.776	3.01
546.97	3.04
547.165	3.01
547.359	3.03
547.553	2.92
547.747	3.04
547.941	3.09
548.135	3.01
548.329	3.05
548.523	3.07
548.717	3
548.911	2.99
549.105	2.99
549.299	3.06
549.493	3.07
549.687	2.98
549.881	3.05
550.075	3.03
550.269	2.97
550.463	3.06
550.657	3.01
550.85	3.01
551.044	3.01
551.238	3.02
551.432	2.99
551.626	3.05
551.82	3.05
552.013	2.98
552.207	3.09
552.401	3.06
552.594	3.01
552.788	3.01
552.982	3.02
553.176	2.94
553.369	3.1
553.563	3.04
553.756	3.01
553.95	3.03
554.144	3.06
554.337	3.08
554.531	2.99
554.724	3.04
554.918	3.05
555.111	3.07
555.305	3.06
555.498	3.05
555.692	3.05
555.885	3.02
556.079	3.04
556.272	3.03
556.466	3.06
556.659	3.01
556.852	3.04
557.046	3.01
557.239	2.99
557.432	2.99
557.626	3.02
557.819	3.07
558.012	3.03
558.206	3.08
558.399	3.02
558.592	3.05
558.785	3.02
558.979	3.07
559.172	3.05
559.365	3.05
559.558	3.04
559.751	3
559.944	3.06
560.138	3.02
560.331	3.08
560.524	3.04
560.717	3.03
560.91	3.04
561.103	3.07
561.296	2.99
561.489	3.05
561.682	3.04
561.875	3.07
562.068	3.1
562.261	3.01
562.454	3.12
562.647	3.03
562.84	3.06
563.032	3.05
563.225	3.02
563.418	3.01
563.611	3.07
563.804	3.04
563.997	2.97
564.19	2.94
564.382	3.04
564.575	3.05
564.768	3.05
564.961	3.06
565.153	2.96
565.346	2.98
565.539	3.08
565.731	3.06
565.924	3.08
566.117	3.11
566.309	3.04
566.502	3.03
566.695	3
566.887	3.03
567.08	3.05
567.272	3.03
567.465	2.98
567.657	3.07
567.85	3.03
568.042	3.06
568.235	3.06
568.427	3
568.62	3.03
568.812	2.99
569.005	3.05
569.197	2.96
569.389	3.06
569.582	3.01
569.774	3.03
569.966	3.01
570.159	2.97
570.351	3
570.543	3.02
570.736	3.03
570.928	2.98
571.12	3.04
571.312	2.94
571.505	2.89
571.697	3.07
571.889	3
572.081	2.95
572.273	2.95
572.465	3.07
572.658	3.02
572.85	3.05
573.042	3.03
573.234	2.97
573.426	3.01
573.618	2.96
573.81	2.99
574.002	2.96
574.194	3.01
574.386	2.94
574.578	2.89
574.77	2.93
574.962	2.98
575.154	2.93
575.346	2.93
575.538	2.95
575.729	2.94
575.921	3.01
576.113	3
576.305	3.04
576.497	3.01
576.689	2.92
576.88	2.91
577.072	3.02
577.264	2.95
577.456	2.95
577.647	2.91
577.839	2.97
578.031	2.94
578.223	2.93
578.414	2.89
578.606	2.97
578.798	3
578.989	2.91
579.181	2.97
579.372	2.98
579.564	2.94
579.755	2.92
579.947	2.91
580.139	2.93
580.33	2.9
580.522	2.94
580.713	2.86
580.905	2.9
581.096	2.95
581.287	2.89
581.479	2.88
581.67	2.94
581.862	2.87
582.053	2.89
582.244	2.83
582.436	2.94
582.627	2.87
582.818	2.85
583.01	2.88
583.201	2.92
583.392	2.86
583.583	2.85
583.775	2.85
583.966	2.82
584.157	2.88
584.348	2.9
584.54	2.83
584.731	2.88
584.922	2.84
585.113	2.79
585.304	2.86
585.495	2.88
585.686	2.92
585.877	2.86
586.068	2.91
586.259	2.87
586.45	2.87
586.641	2.83
586.832	2.85
587.023	2.84
587.214	2.81
587.405	2.89
587.596	2.77
587.787	2.86
587.978	2.86
588.169	2.8
588.36	2.76
588.551	2.82
588.742	2.8
588.932	2.87
589.123	2.68
589.314	2.88
589.505	2.79
589.696	2.77
589.886	2.73
590.077	2.78
590.268	2.73
590.458	2.71
590.649	2.64
590.84	2.79
591.03	2.71
591.221	2.73
591.412	2.65
591.602	2.85
591.793	2.78
591.984	2.72
592.174	2.74
592.365	2.8
592.555	2.64
592.746	2.68
592.936	2.74
593.127	2.75
593.317	2.74
593.508	2.69
593.698	2.66
593.889	2.69
594.079	2.65
594.269	2.67
594.46	2.68
594.65	2.64
594.84	2.68
595.031	2.59
595.221	2.64
595.411	2.62
595.602	2.61
595.792	2.61
595.982	2.57
596.172	2.69
596.363	2.57
596.553	2.61
596.743	2.6
596.933	2.63
597.123	2.59
597.314	2.54
597.504	2.52
597.694	2.61
597.884	2.59
598.074	2.55
598.264	2.58
598.454	2.53
598.644	2.56
598.834	2.59
599.024	2.47
599.214	2.52
599.404	2.59
599.594	2.55
599.784	2.52
599.974	2.58
600.164	2.49
600.354	2.48
600.544	2.44
600.734	2.51
600.924	2.51
601.114	2.46
601.303	2.48
601.493	2.51
601.683	2.44
601.873	2.49
602.063	2.39
602.252	2.47
602.442	2.37
602.632	2.39
602.821	2.35
603.011	2.41
603.201	2.41
603.39	2.39
603.58	2.34
603.77	2.43
603.959	2.46
604.149	2.37
604.339	2.38
604.528	2.46
604.718	2.44
604.907	2.36
605.097	2.35
605.286	2.36
605.476	2.34
605.665	2.4
605.855	2.35
606.044	2.37
606.234	2.38
606.423	2.32
606.612	2.28
606.802	2.29
606.991	2.36
607.181	2.31
607.37	2.3
607.559	2.24
607.749	2.25
607.938	2.27
608.127	2.26
608.316	2.26
608.506	2.25
608.695	2.26
608.884	2.25
609.073	2.25
609.263	2.29
609.452	2.27
609.641	2.21
609.83	2.17
610.019	2.23
610.208	2.21
610.397	2.24
610.586	2.21
610.775	2.16
610.965	2.15
611.154	2.11
611.343	2.17
611.532	2.14
611.721	2.17
611.91	2.12
612.099	2.16
612.287	2.08
612.476	2.08
612.665	2.15
612.854	2.09
613.043	2.14
613.232	2.09
613.421	2.02
613.61	2.12
613.798	2.09
613.987	2.13
614.176	2.07
614.365	2.08
614.554	2.06
614.742	2.1
614.931	2.03
615.12	2.14
615.309	2.05
615.497	2.02
615.686	1.96
615.875	2.06
616.063	2
616.252	1.99
616.44	2
616.629	1.98
616.818	1.96
617.006	1.99
617.195	1.93
617.383	1.93
617.572	1.99
617.76	1.89
617.949	1.93
618.137	1.98
618.326	1.97
618.514	1.83
618.703	1.88
618.891	1.96
619.079	1.85
619.268	1.91
619.456	1.85
619.644	1.94
619.833	1.9
620.021	1.86
620.209	1.78
620.398	1.88
620.586	1.86
620.774	1.88
620.962	1.81
621.151	1.94
621.339	1.89
621.527	1.79
621.715	1.75
621.903	1.82
622.092	1.74
622.28	1.85
622.468	1.75
622.656	1.79
622.844	1.76
623.032	1.78
623.22	1.7
623.408	1.81
623.596	1.78
623.784	1.8
623.972	1.72
624.16	1.68
624.348	1.77
624.536	1.72
624.724	1.7
624.912	1.75
625.1	1.72
625.288	1.68
625.476	1.64
625.664	1.73
625.851	1.65
626.039	1.67
626.227	1.68
626.415	1.62
626.603	1.55
626.79	1.62
626.978	1.64
627.166	1.65
627.354	1.63
627.541	1.61
627.729	1.54
627.917	1.72
628.104	1.62
628.292	1.59
628.48	1.61
628.667	1.57
628.855	1.6
629.042	1.62
629.23	1.51
629.418	1.55
629.605	1.59
629.793	1.52
629.98	1.52
630.168	1.53
630.355	1.54
630.543	1.54
630.73	1.46
630.917	1.53
631.105	1.6
631.292	1.49
631.48	1.52
631.667	1.62
631.854	1.5
632.042	1.5
632.229	1.45
632.416	1.49
632.604	1.47
632.791	1.42
632.978	1.46
633.165	1.49
633.353	1.48
633.54	1.5
633.727	1.32
633.914	1.39
634.101	1.34
634.289	1.48
634.476	1.39
634.663	1.37
634.85	1.41
635.037	1.39
635.224	1.29
635.411	1.38
635.598	1.36
635.785	1.34
635.972	1.39
636.159	1.4
636.346	1.3
636.533	1.33
636.72	1.32
636.907	1.33
637.094	1.34
637.281	1.28
637.468	1.31
637.655	1.32
637.842	1.29
638.029	1.28
638.215	1.33
638.402	1.29
638.589	1.25
638.776	1.24
638.963	1.25
639.149	1.32
639.336	1.32
639.523	1.25
639.709	1.27
639.896	1.23
640.083	1.26
640.27	1.23
640.456	1.18
640.643	1.3
640.829	1.15
641.016	1.21
641.203	1.15
641.389	1.22
641.576	1.19
641.762	1.16
641.949	1.14
642.135	1.18
642.322	1.16
642.508	1.12
642.695	1.15
642.881	1.12
643.068	1.14
643.254	1.12
643.441	1.19
643.627	1.13
643.813	1.12
644	1.18
644.186	1.06
644.372	1.16
644.559	1.13
644.745	1.11
644.931	1.08
645.118	1.12
645.304	1.08
645.49	1.06
645.676	1.04
645.862	1.06
646.049	1.11
646.235	1.08
646.421	1.17
646.607	1.14
646.793	0.99
646.979	1.03
647.165	1.07
647.352	1.05
647.538	1.04
647.724	1.01
647.91	1.03
648.096	1.06
648.282	1.06
648.468	0.97
648.654	1.03
648.84	1.05
649.026	0.99
649.212	0.97
649.397	0.93
649.583	0.99
649.769	1
649.955	0.97
650.141	0.98
650.327	1
650.513	0.94
650.698	0.99
650.884	0.88
651.07	0.99
651.256	0.95
651.442	0.94
651.627	0.89
651.813	0.97
651.999	0.92
652.184	0.92
652.37	0.89
652.556	0.89
652.741	0.96
652.927	0.78
653.113	0.89
653.298	0.89
653.484	0.86
653.669	0.85
653.855	0.89
654.04	0.92
654.226	0.88
654.412	0.89
654.597	0.84
654.782	0.91
654.968	0.9
655.153	0.84
655.339	0.79
655.524	0.8
655.71	0.85
655.895	0.85
656.08	0.83
656.266	0.88
656.451	0.83
656.636	0.77
656.822	0.81
657.007	0.8
657.192	0.79
657.378	0.78
657.563	0.77
657.748	0.81
657.933	0.81
658.118	0.76
658.304	0.78
658.489	0.84
658.674	0.75
658.859	0.76
659.044	0.76
659.229	0.81
659.414	0.71
659.599	0.77
659.785	0.66
659.97	0.75
660.155	0.81
660.34	0.82
660.525	0.73
660.71	0.71
660.895	0.76
661.08	0.71
661.264	0.67
661.449	0.74
661.634	0.73
661.819	0.75
662.004	0.71
662.189	0.67
662.374	0.71
662.559	0.63
662.743	0.65
662.928	0.67
663.113	0.68
663.298	0.62
663.483	0.66
663.667	0.68
663.852	0.62
664.037	0.75
664.221	0.64
664.406	0.7
664.591	0.68
664.775	0.69
664.96	0.7
665.145	0.65
665.329	0.7
665.514	0.68
665.698	0.62
665.883	0.57
666.068	0.69
666.252	0.63
666.437	0.61
666.621	0.62
666.806	0.66
666.99	0.65
667.174	0.58
667.359	0.64
667.543	0.59
667.728	0.61
667.912	0.52
668.096	0.63
668.281	0.58
668.465	0.59
668.649	0.59
668.834	0.54
669.018	0.61
669.202	0.56
669.387	0.57
669.571	0.67
669.755	0.56
669.939	0.59
670.124	0.56
670.308	0.64
670.492	0.61
670.676	0.58
670.86	0.53
671.044	0.51
671.228	0.6
671.413	0.48
671.597	0.54
671.781	0.53
671.965	0.63
672.149	0.55
672.333	0.58
672.517	0.48
672.701	0.6
672.885	0.55
673.069	0.5
673.253	0.57
673.437	0.49
673.621	0.51
673.804	0.54
673.988	0.55
674.172	0.52
674.356	0.47
674.54	0.51
674.724	0.62
674.908	0.5
675.091	0.54
675.275	0.5
675.459	0.52
675.643	0.55
675.826	0.53
676.01	0.48
676.194	0.49
676.377	0.54
676.561	0.5
676.745	0.52
676.928	0.5
677.112	0.54
677.296	0.45
677.479	0.46
677.663	0.42
677.846	0.52
678.03	0.44
678.213	0.44
678.397	0.48
678.58	0.42
678.764	0.46
678.947	0.47
679.131	0.48
679.314	0.44
679.498	0.44
679.681	0.47
679.865	0.54
680.048	0.45
680.231	0.47
680.415	0.43
680.598	0.45
680.781	0.44
680.965	0.45
681.148	0.47
681.331	0.39
681.514	0.47
681.698	0.44
681.881	0.44
682.064	0.43
682.247	0.45
682.43	0.35
682.614	0.47
682.797	0.48
682.98	0.42
683.163	0.37
683.346	0.47
683.529	0.4
683.712	0.4
683.895	0.4
684.078	0.32
684.261	0.37
684.444	0.46
684.627	0.4
684.81	0.41
684.993	0.42
685.176	0.5
685.359	0.38
685.542	0.34
685.725	0.49
685.908	0.41
686.091	0.39
686.274	0.42
686.457	0.43
686.639	0.4
686.822	0.43
687.005	0.46
687.188	0.4
687.371	0.42
687.553	0.43
687.736	0.48
687.919	0.49
688.102	0.47
688.284	0.37
688.467	0.35
688.65	0.31
688.832	0.3
689.015	0.38
689.197	0.29
689.38	0.46
689.563	0.44
689.745	0.33
689.928	0.33
690.11	0.32
690.293	0.36
690.475	0.26
690.658	0.36
690.84	0.35
691.023	0.31
691.205	0.31
691.388	0.39
691.57	0.39
691.752	0.39
691.935	0.24
692.117	0.26
692.3	0.34
692.482	0.35
692.664	0.33
692.847	0.3
693.029	0.42
693.211	0.37
693.393	0.29
693.576	0.26
693.758	0.35
693.94	0.3
694.122	0.31
694.304	0.3
694.487	0.28
694.669	0.41
694.851	0.23
695.033	0.3
695.215	0.31
695.397	0.31
695.579	0.32
695.761	0.22
695.943	0.2
696.125	0.39
696.308	0.3
696.49	0.17
696.671	0.37
696.853	0.31
697.035	0.46
697.217	0.31
697.399	0.34
697.581	0.34
697.763	0.32
697.945	0.22
698.127	0.31
698.309	0.36
698.491	0.3
698.672	0.28
698.854	0.33
699.036	0.37
699.218	0.29
699.399	0.33
699.581	0.33
699.763	0.26
699.945	0.22
700.126	0.21
700.308	0.28
700.49	0.29
700.671	0.13
700.853	0.29
701.035	0.28
701.216	0.25
701.398	0.26
701.579	0.24
701.761	0.3
701.943	0.26
702.124	0.27
702.306	0.28
702.487	0.44
702.669	0.22
702.85	0.21
703.031	0.21
703.213	0.36
703.394	0.32
703.576	0.25
703.757	0.36
703.938	0.28
704.12	0.45
704.301	0.2
704.483	0.15
704.664	0.3
704.845	0.35
705.026	0.32
705.208	0.26
705.389	0.25
705.57	0.31
705.751	0.21
705.933	0.25
706.114	0.38
706.295	0.23
706.476	0.19
706.657	0.33
706.838	0.3
707.02	0.31
707.201	0.23
707.382	0.23
707.563	0.29
707.744	0.16
707.925	0.23
708.106	0.2
708.287	0.33
708.468	0.32
708.649	0.22
708.83	0.22
709.011	0.19
709.192	0.3
709.373	0.2
709.554	0.24
709.734	0.3
709.915	0.27
710.096	0.21
710.277	0.1
710.458	0.23
710.639	0.2
710.819	0.11
711	0.18
711.181	0.25
711.362	0.21
711.542	0.23
711.723	0.19
711.904	0.23
712.085	0.24
712.265	0.26
712.446	0.18
712.627	0.19
712.807	0.19
712.988	0.24
713.168	0.12
713.349	0.29
713.53	0.09
713.71	0.12
713.891	0.14
714.071	0.22
714.252	0.13
714.432	0.13
714.613	0.13
714.793	0.25
714.974	0.29
715.154	0.24
715.334	0.23
715.515	0.28
715.695	0.24
715.876	0.19
716.056	0.22
716.236	0.22
716.417	0.17
716.597	0.13
716.777	0.33
716.957	0.22
717.138	0.25
717.318	0.18
717.498	0.05
717.678	0.24
717.859	0.19
718.039	0.1
718.219	0.22
718.399	0.22
718.579	0.09
718.759	0.14
718.939	0.26
719.12	0.19
719.3	0.16
719.48	0.07
719.66	0.08
719.84	0.32
720.02	0.17
720.2	0.11
720.38	0.16
720.56	0.29
720.74	0.06
720.92	0.22
721.1	0.3
721.279	0.28
721.459	0.14
721.639	0.1
721.819	0.22
721.999	0.13
722.179	0.24
722.359	0.07
722.538	0.16
722.718	0.13
722.898	0.09
723.078	0.09
723.257	0.21
723.437	0.19
723.617	0.2
723.797	0.12
723.976	0.08
724.156	0.2
724.336	0.29
724.515	0.33
724.695	0.01
724.874	0.15
725.054	0.23
725.234	0.13
725.413	0.18
725.593	0.15
725.772	0.18
725.952	0.13
726.131	0.16
726.311	0.12
726.49	0.17
726.67	0.02
726.849	0.14
727.028	0.16
727.208	0.11
727.387	0.16
727.567	0.05
727.746	0.17
727.925	0.13
728.105	0.16
728.284	0.13
728.463	0.1
728.643	0.2
728.822	0.02
729.001	0.17
729.18	0.16
729.359	0.24
729.539	0.17
729.718	0.19
729.897	0.21
730.076	0.15
730.255	0.07
730.434	0.15
730.614	0.24
730.793	0.22
730.972	0.2
731.151	0.13
731.33	0.18
731.509	0.19
731.688	0.09
731.867	0.1
732.046	0
732.225	0.33
732.404	0.07
732.583	0.05
732.762	0.15
732.941	0.23
733.12	0.1
733.298	0.1
733.477	0.33
733.656	0.08
733.835	0.11
734.014	0.24
734.193	0.22
734.371	0.2
734.55	0.21
734.729	-0.06
734.908	0.11
735.086	0.29
735.265	0.28
735.444	0.07
735.623	0.08
735.801	-0.06
735.98	0.19
736.159	0.07
736.337	0.28
736.516	0.18
736.694	0.23
736.873	0.12
737.052	0.26
737.23	0.12
737.409	0.07
737.587	0.43
737.766	0.01
737.944	0.01
738.123	0.15
738.301	0.15
738.479	0.18
738.658	0.16
738.836	0
739.015	0.22
739.193	0.15
739.371	0.11
739.55	0.14
739.728	0.07
739.906	0.3
740.085	0.27
740.263	0.2
740.441	-0.08
740.62	0.48
740.798	0.24
740.976	-0.01
741.154	0.12
741.332	0.33
741.511	0.11
741.689	0.18
741.867	0.1
742.045	0.2
742.223	0.12
742.401	0
742.579	0.09
742.757	0.15
742.935	0.06
743.114	0.1
743.292	0.14
743.47	0.07
743.648	0.16
743.826	0.2
744.004	0.2
744.181	0.21
744.359	0.07
744.537	0.23
744.715	0.07
744.893	0.14
745.071	0.09
745.249	0.14
745.427	0.05
745.605	0.2
745.782	0.26
745.96	0.16
746.138	0.13
746.316	0.23
746.493	0.12
746.671	0.13
746.849	0.16
747.027	0.34
747.204	0.08
747.382	0.14
747.56	0.07
747.737	0.18
747.915	-0
748.093	0.26
748.27	0.09
748.448	0.11
748.625	-0.06
748.803	0.08
748.98	0.09
749.158	0.12
749.335	0.2
749.513	0.08
749.69	0.2
749.868	0.14
750.045	0.22
750.223	0.02
750.4	-0.11
750.578	0.28
750.755	0.05
750.932	0.01
751.11	0.2
751.287	-0.12
751.464	0.19
751.642	0.06
751.819	0.17
751.996	0.14
752.173	0.05
752.351	0.04
752.528	0.09
752.705	0.1
752.882	0.04
753.06	0.12
753.237	0.18
753.414	0.37
753.591	0.25
753.768	0.18
753.945	0.07
754.122	0.03
754.299	0.23
754.476	0.06
754.654	0.2
754.831	0.23
755.008	0.11
755.185	0.11
755.362	0.05
755.539	0.21
755.716	0.02
755.892	0.08
756.069	0.14
756.246	0.15
756.423	0.16
756.6	0.25
756.777	0.09
756.954	0.11
757.131	0.03
757.307	-0.07
757.484	0.02
757.661	0.13
757.838	0.18
758.015	-0.08
758.191	0.11
758.368	0.19
758.545	0.22
758.721	0.21
758.898	-0.04
759.075	0.11
759.251	0.25
759.428	0.22
759.605	-0.13
759.781	0.08
759.958	0.06
760.134	0.17
760.311	0.05
760.488	0.16
760.664	0.22
760.841	0.03
761.017	0.1
761.194	0.13
761.37	0.3
761.547	0.13
761.723	0.09
761.899	0.2
762.076	0.02
762.252	0.04
762.429	0.19
762.605	0.21
762.781	0.09
762.958	0.18
763.134	0.05
763.31	0.03
763.486	0.34
763.663	0
763.839	0.22
764.015	-0.03
764.191	0.05
764.368	0.08
764.544	-0.02
764.72	0.06
764.896	0.22
765.072	0.08
765.248	0.03
765.425	-0.01
765.601	0.18
765.777	0.16
765.953	-0.07
766.129	0.13
766.305	-0.02
766.481	0.19
766.657	0.08
766.833	0.27
767.009	0.04
767.185	0.06
767.361	0.09
767.537	-0.03
767.713	0.28
767.889	0.03
768.065	0.15
768.24	0.22
768.416	0.19
768.592	-0.02
768.768	0.24
768.944	0.08
769.12	-0.04
769.295	0.1
769.471	0.12
769.647	0.1
769.823	0.32
769.998	-0.08
770.174	-0.02
770.35	0.45
770.525	0.31
770.701	0.18
770.877	0.09
771.052	0.03
771.228	0.28
771.403	0.09
771.579	0.26
771.755	0.34
771.93	0.19
772.106	0.03
772.281	-0.09
772.457	0.2
772.632	0.13
772.808	-0.09
772.983	0.1
773.159	-0.14
773.334	0.28
773.509	0.28
773.685	0.01
773.86	0.37
774.036	0.27
774.211	0.21
774.386	0.04
774.562	0.13
774.737	0.18
774.912	-0.05
775.087	0.21
775.263	0.16
775.438	0.2
775.613	-0.05
775.788	0.13
775.964	0.15
776.139	0.47
776.314	-0.05
776.489	0.22
776.664	0.17
776.839	-0.02
777.014	0.2
777.19	0.3
777.365	0.4
777.54	0.37
777.715	0.19
777.89	0.07
778.065	-0.02
778.24	0.09
778.415	0.16
778.59	-0.03
778.765	0.06
778.94	-0.03
779.115	0.13
779.289	0.12
779.464	0.08
779.639	0.15
779.814	-0.1
779.989	0.04
780.164	0.26
780.339	0.12
780.513	-0.05
780.688	-0
780.863	0.03
781.038	0.36
781.212	-0.04
781.387	0.07
781.562	0.21
781.737	-0.08
781.911	0.29
782.086	0.05
782.261	0.1
782.435	0.29
782.61	0.02
782.784	0.29
782.959	0.25
783.134	-0.01
783.308	-0.03
783.483	-0.02
783.657	0.36
783.832	0.26
784.006	-0.17
784.181	0.12
784.355	0.16
784.53	-0.3
784.704	-0.09
784.878	0.36
785.053	0.09
785.227	0.13
785.402	0.52
785.576	-0
785.75	0.06
785.925	0.06
786.099	0.07
786.273	0.06
786.448	0.15
786.622	0.29
786.796	0.07
786.97	0.11
787.145	0.5
787.319	-0.26
787.493	-0.1
787.667	-0.3
787.841	-0.02
788.015	0.4
788.19	-0.15
788.364	0.32
788.538	0.39
788.712	0.33
788.886	0.05
789.06	0.33
789.234	0.3
789.408	-0.14
789.582	-0
789.756	0.03
789.93	-0.07
790.104	0.1
790.278	-0.02
790.452	-0.03
790.626	0.32
790.8	0.16
790.973	0.26
791.147	0.4
791.321	0.39
791.495	0.48
791.669	0.22
791.843	0.16
792.016	0.22
792.19	0.6
792.364	-0.19
792.538	0.7
792.711	0.4
792.885	0.09
793.059	-0.2
793.233	-0.2
793.406	0.29
793.58	0.29
793.754	0.29
793.927	0.03
794.101	0.41
794.274	0.14
794.448	0.51
794.622	-0.12
794.795	0.49
794.969	-0.06
795.142	0.32
795.316	0.01
795.489	0.13
795.663	0.5
795.836	0.16
796.009	-0.12
796.183	0.37
796.356	0.2
796.53	0.08
796.703	0.1
796.876	0.75
797.05	0.1
797.223	-0.13
797.396	0.06
797.57	0.05
797.743	0.43
797.916	0.04
798.09	0.03
798.263	0.16
798.436	0.5
798.609	0.12
798.782	0.15
798.956	0.19
799.129	0.04
799.302	0.04
799.475	0.07
799.648	-0
799.821	0.09
799.994	0.14
800.167	-0.43
800.34	0.43
800.514	0.12
800.687	-0.17
800.86	-0.09
801.033	0.44
801.206	0.04
801.379	0.04
801.551	0.36
801.724	0.32
801.897	0.69
802.07	0.13
802.243	-0.4
802.416	-0.09
802.589	-0.09
802.762	0.47
802.935	0.15
803.107	0.24
803.28	0.47
803.453	0.28
803.626	-0.29
803.798	0.08
803.971	-0.01
804.144	0.48
804.317	0.22
804.489	0.34
804.662	0.05
804.835	-0.16
805.007	-0.21
805.18	0.66
805.353	0.42
805.525	0.09
805.698	-0.1
805.87	0.46
806.043	0.5
806.215	-0.24
806.388	-0.15
806.56	0.46
806.733	0.52
806.905	0.29
807.078	0.01
807.25	-0.24
807.423	0.32
807.595	0.26
807.768	0.16
807.94	0.45
808.112	0.52
808.285	0.43
808.457	-0.06
808.629	0.23
808.802	0.27
808.974	0.09
809.146	0.25
809.318	-0.2
809.491	0.24
809.663	0.45
809.835	0.13
810.007	0.24
810.18	-0.02
810.352	-0.33
810.524	0.14
810.696	0.29
810.868	0.53
811.04	0.16
811.212	-0.27
811.384	0.66
811.556	0.41
811.728	0.18
811.901	1.02
812.073	-0.15
812.245	0.03
812.417	0.17
812.589	-0.31
812.76	0.2
812.932	0.26
813.104	0.27
813.276	0.07
813.448	0.9
813.62	0.13
813.792	0.42
813.964	0.12
814.136	0.42
814.307	-0.07
814.479	-0.13
814.651	-0.1
814.823	0.73
814.995	0.09
815.166	0.26
815.338	0.11
815.51	-0.28
815.681	0.81
815.853	0.27
816.025	-0.1
816.196	1.03
816.368	0.44
816.54	-0.36
816.711	0.02
816.883	0.38
817.054	1.14
817.226	-0.24
817.398	0.19
817.569	-0.16
817.741	0.18
817.912	0.14
818.084	0.37
818.255	0.49
818.426	-0.34
818.598	-0.02
818.769	0.02
818.941	0.18
819.112	0.74
819.283	0.08
819.455	-0.23
819.626	0.16
819.798	0.43
819.969	0.35
820.14	0
820.311	0.18
820.483	0.28
820.654	0.33
820.825	0.12
820.996	-0.18
821.168	-0.02
821.339	0.27
821.51	-0.07
821.681	-0.04
821.852	-0.03
822.023	-0.5
822.195	-0.31
822.366	0.36
822.537	0.31
822.708	0.81
822.879	-0.34
823.05	0.55
823.221	-0.14
823.392	0.43
823.563	0.47
823.734	0.64
823.905	0.75
824.076	-0.53
824.247	-0.37
824.418	-0.14
824.589	0.33
824.759	0.46
824.93	0.02
825.101	-0.24
825.272	1.02
825.443	0.5
825.614	0.73
825.784	-0.62
825.955	1.42
826.126	1.15
826.297	0.23
826.467	0.88
826.638	0.9
826.809	-0.52
826.98	-0.17
827.15	0.5
827.321	0.5
827.492	1.17
827.662	-0.01
827.833	0.67
828.003	0.78
828.174	-0
828.345	-0.36
828.515	0.88
828.686	0.32
828.856	-0.22
829.027	-0.11
829.197	0.58
829.368	0.64
829.538	0.01
829.709	-0.11
829.879	0.18
830.049	0.26
830.22	0.09
830.39	0.31
830.56	0.21
830.731	-0.06
830.901	-0.25
831.072	0.32
831.242	0.68
831.412	0.49
831.582	-0.18
831.753	-0.06
831.923	0.4
832.093	0.27
832.263	0.33
832.434	-0.17
832.604	-0.13
832.774	0.82
832.944	0.25
833.114	0.09
833.284	0.67
833.454	0.57
833.624	0.04
833.795	-0.19
833.965	1.23
834.135	0.53
834.305	-0.59
834.475	-0.54
834.645	0.27
834.815	-0.29
834.985	-0.48
835.155	-0.19
835.325	0.54
835.494	0.2
835.664	-0.23
835.834	-0.32
836.004	0.47
836.174	0.91
836.344	0.51
836.514	-0.29
836.684	-0.16
836.853	0.26
837.023	0.73
837.193	0.03
837.363	1.11
837.532	0.77
837.702	0.17
837.872	-0.82
838.041	0.88
838.211	1.35
838.381	-0.35
838.55	0.18
838.72	2.55
838.89	1.24
839.059	0.1
839.229	-0.42
839.398	1.64
839.568	-0.1
839.738	-0.23
839.907	0.97
840.077	0.43
840.246	-0.23
840.416	-0.18
840.585	-0.55
840.755	1.87
840.924	0.69
841.093	-0.3
841.263	0.36
841.432	0.5
841.602	-0.17
841.771	-0.32
841.94	1.3
842.11	2.59
842.279	1.97
842.448	-0.57
842.617	-0.25
842.787	1.73
842.956	0.07
843.125	-0.16
843.294	-0.51
843.464	0.56
843.633	0.75
843.802	-0.83
843.971	0.28
844.14	0.59
844.309	1.18
844.479	-1.29
844.648	-0.85
844.817	-0.18
844.986	0.23
845.155	-0.77
845.324	0.41
845.493	0.09
845.662	0.44
845.831	0.5
846	0.32
846.169	0.32
846.338	1.41
846.507	0.31
846.676	0.2
846.844	-0.72
847.013	0.41
847.182	0.29
847.351	0.03
847.52	0.46
847.689	0.22
847.858	-0.26
848.026	-0.54
848.195	0.03
848.364	-0.7
848.533	-0.06
848.701	-0.14
848.87	-0.17
849.039	0.38
849.207	0.97
849.376	1.62
849.545	1.61
849.713	0.18
849.882	0.15
850.051	0.34
850.219	0.82
850.388	0.89
850.556	-0.47
850.725	0.3
850.893	0.37
851.062	0.09
851.23	0.29
851.399	-1.01
851.567	0.72
851.736	0.47
851.904	-0.36
852.073	0.2
852.241	0.87
852.41	0.97
852.578	0.59
852.746	0.37
852.915	1.31
853.083	-0.36
853.251	-0.66
853.42	-0.17
853.588	0.28
853.756	0.42
853.924	0.52
854.093	0.55
854.261	0.51
854.429	-0.44
854.597	0.21
854.765	-0.39
854.934	1.41
855.102	1.16
855.27	0.06
855.438	1.02
855.606	1.09
855.774	1.39
855.942	-1.52
856.11	-0.22
856.278	0.77
856.446	1.74
856.614	-0.14
856.782	-1.29
856.95	0.86
857.118	1.28
857.286	0.95
857.454	-0.45
857.622	1.52
857.79	1.2
857.958	-0.69
858.126	-0.07
858.294	-1.78
858.462	-0.03
858.629	0.22
858.797	-1.34
858.965	0.64
859.133	0.7
859.301	-0.43
859.468	0.93
859.636	-0.01
859.804	1.86
859.971	1
860.139	0.3
860.307	-0.53
860.474	-0.08
860.642	-1.64
860.81	-1.15
860.977	0.92
861.145	2.2
861.313	-0.38
861.48	-0.58
861.648	1.18
861.815	0.79
861.983	-0.34
862.15	-0.87
862.318	2.07
862.485	0.8
862.653	-0.15
862.82	-0.72
862.988	2.66
863.155	1.06
863.322	-0.49
863.49	-1.74
863.657	-0.44
863.824	2.1
863.992	0.25
864.159	0.95
864.326	2.51
864.494	0.13
864.661	3.88
864.828	-0.72
864.996	1.77
865.163	2.06
865.33	0.18
865.497	-2.05
865.664	-0.67
865.832	-0.86
865.999	-0.26
866.166	-1.04
866.333	-1.22
866.5	-0.31
866.667	0.19
866.834	-0.32
867.001	2.53
867.168	-1.04
867.335	1.03
867.502	-1.3
867.669	-0.29
867.836	2.2
868.003	2.02
868.17	2.48
868.337	3.07
868.504	3.14
868.671	0.4
868.838	0.57
869.005	1.07
869.172	0.21
869.339	-1.15
869.505	0.59
869.672	-0.48
869.839	3.2
870.006	1.19
870.173	-2.26
870.339	-0.5
870.506	3.56
870.673	-0.51
870.84	-0.48
871.006	0.36
871.173	0.01
871.34	1.24
871.506	-0.09
871.673	1.03
871.839	-1.58
872.006	-1.27
872.173	1.37
872.339	-0.44
872.506	2.11
872.672	0.01
872.839	-1.69
873.005	0.47
873.172	2.46
873.338	1.49
873.505	1.48
873.671	1.34
873.838	1.74
874.004	-0.81
874.171	-1.17
874.337	1.69
874.503	2.21
874.67	0.9
874.836	-0.51
875.002	3.07
875.169	2.35
875.335	1.3
875.501	-0.61
875.668	2.46
875.834	1.69
876	0.31
876.166	0.9
876.332	2.23
876.499	3.98
876.665	-0.46
876.831	1.1
876.997	3.08
877.163	1.94
877.329	-0.89
877.495	-0.65
877.662	1.6
877.828	1.67
877.994	0.58
878.16	-2.89
878.326	0.01
878.492	3.14
878.658	-0.07
878.824	0.16
878.99	0.62
879.156	2.6
879.322	3.76
879.487	0.01
879.653	0.4
879.819	2.43
879.985	-2.11
880.151	2.32
880.317	0.59
880.483	-0.72
880.648	3.01
880.814	-2.05
880.98	0.16
881.146	-2.71
881.312	-1.21
881.477	1.15
881.643	-0.37
881.809	2.66
881.974	2.08
882.14	-1.48
882.306	1.66
882.471	3.08
882.637	0.48
882.803	0.72
882.968	3
883.134	4.68
883.299	1.41
883.465	1.32
883.63	1.63
883.796	3.03
883.961	2.08
884.127	1.57
884.292	-3.7
884.458	-0.44
884.623	-0.43
