Data from Apollo_Calib_20240827__AbsoluteIrradiance__626__09-35-00-934.txt Node

Date: Wed Aug 28 09:35:00 BST 2024
User: biology
Spectrometer: FLMT08252
Trigger mode: 0
Integration Time (sec): 5.000000E-1
Scans to average: 5
Electric dark correction enabled: true
Nonlinearity correction enabled: false
Boxcar width: 0
XAxis mode: Wavelengths
Number of Pixels in Spectrum: 3648
>>>>>Begin Spectral Data<<<<<
179.588	-0
179.809	-0
180.03	-0
180.251	-0
180.473	-0
180.694	0
180.915	0
181.136	-0
181.357	0
181.578	0
181.799	-0
182.02	-0
182.241	0
182.462	-0
182.683	0
182.904	0
183.125	-0
183.346	0
183.567	0
183.788	-0
184.009	-0
184.23	0
184.451	0
184.672	-0
184.892	-0
185.113	-0
185.334	0
185.555	-0
185.776	-0
185.996	0
186.217	-0
186.438	0
186.659	-0
186.879	0
187.1	-0
187.321	-0
187.541	-0
187.762	0
187.983	-0
188.203	-0
188.424	0
188.644	0
188.865	0
189.086	0
189.306	-0
189.527	0
189.747	-0
189.968	-0
190.188	0
190.409	-0
190.629	0
190.849	-0
191.07	-0
191.29	0
191.511	0
191.731	-0
191.951	-0
192.172	-0
192.392	0
192.612	-0
192.833	-0
193.053	0
193.273	0
193.493	-0
193.714	-0
193.934	0
194.154	-0
194.374	0
194.594	-0
194.815	-0
195.035	0
195.255	-0
195.475	-0
195.695	0
195.915	-0
196.135	0
196.355	0
196.575	0
196.795	0
197.015	-0
197.235	-0
197.455	-0
197.675	0
197.895	-0
198.115	-0
198.335	0
198.555	-0
198.775	0
198.995	-0
199.214	0
199.434	-0
199.654	-0
199.874	-0
200.094	0.35
200.313	0.1
200.533	-0.22
200.753	-0.69
200.973	0.37
201.192	0.2
201.412	-0.64
201.632	0.04
201.851	0.97
202.071	-0.52
202.291	-0.62
202.51	-0.79
202.73	0.28
202.95	-0.44
203.169	-0.22
203.389	-0.25
203.608	-0.29
203.828	-0.92
204.047	-0.35
204.267	0.27
204.486	0.01
204.706	-0.1
204.925	-0.28
205.145	-0.59
205.364	0.43
205.583	0.49
205.803	-0.42
206.022	-0.45
206.242	-0.13
206.461	-0.11
206.68	-0.28
206.9	-0.01
207.119	0.32
207.338	0.58
207.557	-0.32
207.777	-0.27
207.996	-0.32
208.215	0.29
208.434	-0.22
208.654	-0.54
208.873	-0.17
209.092	0.39
209.311	-0.16
209.53	-0.23
209.749	-0.11
209.968	-0.18
210.187	-0.15
210.407	-0.51
210.626	-0.09
210.845	0.16
211.064	-0.25
211.283	-0.18
211.502	0.23
211.721	0.08
211.94	-0.23
212.159	0.24
212.377	0.03
212.596	0.36
212.815	0.14
213.034	-0.1
213.253	0.07
213.472	0.12
213.691	-0.06
213.91	-0.18
214.128	0.01
214.347	0.15
214.566	-0.51
214.785	-0.37
215.003	0.21
215.222	-0.16
215.441	-0.18
215.66	-0.28
215.878	-0.08
216.097	0.09
216.316	-0.18
216.534	-0.08
216.753	0.04
216.972	-0.07
217.19	-0.25
217.409	-0.25
217.627	-0.18
217.846	-0.03
218.064	-0.01
218.283	-0.17
218.501	0.26
218.72	0.21
218.938	-0.22
219.157	-0.13
219.375	0.04
219.594	0.01
219.812	-0.26
220.031	-0.05
220.249	0.19
220.467	0.15
220.686	-0.13
220.904	-0.05
221.122	-0.07
221.341	0.21
221.559	-0.02
221.777	-0.18
221.995	-0.02
222.214	0.09
222.432	-0.17
222.65	0.13
222.868	0.18
223.086	0.07
223.305	0.06
223.523	-0.04
223.741	0.05
223.959	-0.16
224.177	-0.2
224.395	-0.1
224.613	-0.1
224.831	0.16
225.049	-0.19
225.267	-0.08
225.485	0.05
225.703	0.05
225.921	0.04
226.139	-0.22
226.357	0.03
226.575	0.02
226.793	-0.16
227.011	0.39
227.229	0.04
227.447	0.07
227.665	-0.25
227.883	-0.22
228.1	-0.04
228.318	0.08
228.536	-0.22
228.754	-0.21
228.972	0.08
229.189	0.05
229.407	-0.13
229.625	-0.06
229.843	0.16
230.06	0.04
230.278	-0.11
230.496	0.03
230.713	-0.05
230.931	0.1
231.149	-0.09
231.366	-0.14
231.584	0.03
231.801	0.29
232.019	-0.13
232.236	-0.18
232.454	-0.19
232.671	0.11
232.889	-0.04
233.106	-0.02
233.324	0.01
233.541	-0.09
233.759	-0.1
233.976	-0.03
234.194	0.02
234.411	-0.07
234.628	-0.16
234.846	-0
235.063	-0.03
235.28	0.02
235.498	0.02
235.715	-0.21
235.932	0.1
236.149	-0.06
236.367	-0.13
236.584	-0.02
236.801	-0.1
237.018	0.04
237.236	-0.04
237.453	-0.2
237.67	0.1
237.887	-0.04
238.104	-0.15
238.321	-0.06
238.538	-0.11
238.755	0.08
238.973	-0.14
239.19	0.03
239.407	0.01
239.624	-0.07
239.841	-0.21
240.058	-0.16
240.275	0.02
240.492	-0.08
240.709	-0.12
240.925	0
241.142	0.07
241.359	-0.14
241.576	-0.09
241.793	-0.14
242.01	0.04
242.227	0.02
242.444	-0.05
242.66	0.08
242.877	0.01
243.094	-0.09
243.311	0.05
243.527	-0.04
243.744	-0.05
243.961	0.02
244.178	-0.15
244.394	-0.09
244.611	0.14
244.828	0.13
245.044	-0.1
245.261	-0.09
245.477	-0
245.694	0.01
245.911	-0.07
246.127	0.03
246.344	0.15
246.56	0.02
246.777	-0.12
246.993	-0.01
247.21	0.15
247.426	0
247.643	-0.1
247.859	-0.14
248.076	-0.06
248.292	0.12
248.508	-0.09
248.725	-0
248.941	0.04
249.157	0.06
249.374	-0.07
249.59	-0.08
249.806	-0.05
250.023	0.02
250.239	-0.1
250.455	-0.05
250.671	0.01
250.888	0.03
251.104	0.05
251.32	-0.09
251.536	0
251.752	-0.04
251.969	-0.04
252.185	0.03
252.401	0.13
252.617	-0.05
252.833	-0.01
253.049	-0.04
253.265	0
253.481	0.01
253.697	-0.08
253.913	0.01
254.129	-0.02
254.345	-0.06
254.561	0
254.777	-0.02
254.993	0.05
255.209	0.07
255.425	-0.08
255.641	-0.04
255.857	0.02
256.073	0.02
256.288	-0.14
256.504	-0.07
256.72	0.01
256.936	0.03
257.152	-0.11
257.367	-0.09
257.583	-0.01
257.799	0.03
258.015	-0.06
258.23	-0.07
258.446	0.03
258.662	-0.03
258.877	-0.02
259.093	-0.06
259.309	0.02
259.524	-0.05
259.74	-0.04
259.955	-0.08
260.171	-0
260.387	-0.04
260.602	0.05
260.818	0.05
261.033	-0.11
261.249	0
261.464	-0.01
261.68	-0.06
261.895	0.03
262.11	0.03
262.326	-0.05
262.541	-0.11
262.757	0.01
262.972	0
263.187	-0.05
263.403	0.01
263.618	0.05
263.833	0.1
264.049	-0.05
264.264	-0.01
264.479	0.09
264.694	0.12
264.91	-0.08
265.125	-0
265.34	0.09
265.555	0.13
265.77	0.06
265.986	-0.02
266.201	0.09
266.416	0.11
266.631	-0.1
266.846	-0.02
267.061	0.02
267.276	0.08
267.491	-0.13
267.706	-0
267.921	0.01
268.136	-0
268.351	-0.01
268.566	-0.12
268.781	0.07
268.996	0.06
269.211	0.02
269.426	-0.1
269.641	-0.1
269.856	0.04
270.071	-0.04
270.285	-0.07
270.5	0.09
270.715	0.06
270.93	-0.02
271.145	0
271.359	0.02
271.574	-0.01
271.789	-0.02
272.004	-0.11
272.218	-0.07
272.433	0.07
272.648	-0.05
272.862	0.06
273.077	-0.01
273.292	0.01
273.506	-0.01
273.721	-0.01
273.936	0.04
274.15	0.08
274.365	-0.05
274.579	0.01
274.794	-0.02
275.008	0.03
275.223	-0.08
275.437	-0.05
275.652	0.08
275.866	0.05
276.081	0.02
276.295	0.05
276.509	-0.02
276.724	-0.01
276.938	0.03
277.153	0.03
277.367	0.02
277.581	-0.05
277.796	-0.06
278.01	-0.07
278.224	0.05
278.438	0.15
278.653	-0.04
278.867	-0.08
279.081	-0.18
279.295	0
279.51	-0.02
279.724	-0.08
279.938	0.01
280.152	-0.01
280.366	-0.07
280.58	-0
280.794	0.14
281.008	0.02
281.222	0.02
281.437	0.09
281.651	-0.01
281.865	0.03
282.079	-0.03
282.293	-0.07
282.507	-0.04
282.721	0.04
282.935	-0.02
283.148	-0.06
283.362	-0.05
283.576	-0.09
283.79	-0.03
284.004	-0.02
284.218	0.05
284.432	-0.01
284.646	-0.02
284.859	-0.04
285.073	-0
285.287	-0.01
285.501	-0.04
285.714	-0.02
285.928	-0.01
286.142	0.01
286.356	-0.03
286.569	-0.03
286.783	0.08
286.997	0.03
287.21	-0.02
287.424	0.01
287.637	-0.02
287.851	-0.05
288.065	0
288.278	-0.05
288.492	0.01
288.705	-0
288.919	0.03
289.132	-0.03
289.346	0.08
289.559	-0.09
289.773	-0.03
289.986	-0.03
290.2	0.01
290.413	0.07
290.626	-0.02
290.84	-0.03
291.053	-0.03
291.267	0.04
291.48	0.04
291.693	-0.01
291.906	-0.07
292.12	-0.03
292.333	-0.04
292.546	-0.05
292.76	0.08
292.973	0.04
293.186	0.07
293.399	-0.03
293.612	0.05
293.826	-0.01
294.039	-0.01
294.252	0.03
294.465	0.05
294.678	0.03
294.891	0.05
295.104	-0.01
295.317	0.02
295.53	-0.03
295.743	-0.04
295.956	-0
296.169	0.03
296.382	0.03
296.595	-0.01
296.808	-0.05
297.021	0.01
297.234	0.05
297.447	-0.02
297.66	0.03
297.873	0.08
298.086	0.05
298.299	-0.02
298.511	-0.06
298.724	-0.02
298.937	-0.03
299.15	-0.03
299.363	-0.01
299.575	0.02
299.788	0.01
300.001	-0.04
300.213	-0.04
300.426	-0.01
300.639	-0.02
300.852	-0.03
301.064	0
301.277	0.09
301.489	0.04
301.702	0.04
301.915	0.02
302.127	-0.02
302.34	0.01
302.552	-0.01
302.765	-0.02
302.977	0.01
303.19	-0.04
303.402	-0.04
303.615	-0.01
303.827	-0.03
304.04	-0.01
304.252	0.01
304.464	-0.03
304.677	0.12
304.889	0.04
305.102	-0.03
305.314	-0.06
305.526	0.04
305.739	0.01
305.951	-0.04
306.163	-0.03
306.375	0.05
306.588	-0.06
306.8	-0.05
307.012	-0.03
307.224	0.03
307.436	0.01
307.649	-0.1
307.861	0.01
308.073	0.01
308.285	-0.04
308.497	-0.04
308.709	-0.02
308.921	0.03
309.133	0.05
309.346	-0.04
309.558	0
309.77	0.04
309.982	0.05
310.194	0.06
310.406	-0.01
310.617	0.08
310.829	-0.01
311.041	0.01
311.253	-0.07
311.465	0.06
311.677	-0.03
311.889	-0
312.101	-0.06
312.313	0.04
312.524	0.04
312.736	-0.04
312.948	0.01
313.16	0.1
313.372	0.02
313.583	0.01
313.795	-0.03
314.007	-0.07
314.218	0.04
314.43	0
314.642	-0.02
314.853	-0.03
315.065	0.03
315.277	-0.01
315.488	0.05
315.7	0.06
315.912	0.03
316.123	-0.03
316.335	-0.04
316.546	0.12
316.758	-0.01
316.969	-0.03
317.181	0.01
317.392	0.01
317.604	0.03
317.815	-0.04
318.026	-0.03
318.238	0.01
318.449	0.03
318.661	-0.08
318.872	-0.06
319.083	-0.04
319.295	0.02
319.506	-0.02
319.717	0.02
319.929	0.01
320.14	-0.01
320.351	0
320.562	-0.05
320.774	-0.01
320.985	0.01
321.196	-0.05
321.407	-0.04
321.618	0.06
321.829	0.04
322.041	0.02
322.252	-0.01
322.463	0.03
322.674	0.03
322.885	-0.05
323.096	-0.01
323.307	0
323.518	0.03
323.729	-0.06
323.94	-0.01
324.151	-0.03
324.362	0.01
324.573	-0
324.784	-0
324.995	0
325.206	0.02
325.417	-0.04
325.628	-0.01
325.838	-0.01
326.049	0.03
326.26	-0.01
326.471	-0.04
326.682	0.04
326.892	-0.03
327.103	-0.07
327.314	-0.07
327.525	0.06
327.735	0.01
327.946	-0.02
328.157	0
328.368	-0.01
328.578	-0.01
328.789	0.02
328.999	0.03
329.21	-0.01
329.421	0.02
329.631	-0
329.842	-0.05
330.052	0.02
330.263	0.03
330.473	0.03
330.684	-0.04
330.894	0.01
331.105	0.01
331.315	-0
331.526	-0.05
331.736	0.09
331.947	0.02
332.157	-0.02
332.367	-0.06
332.578	0.06
332.788	0.05
332.999	0.06
333.209	-0.02
333.419	-0.03
333.629	0.02
333.84	0.02
334.05	-0.04
334.26	0.06
334.47	0.02
334.681	0.07
334.891	-0.03
335.101	0.02
335.311	0.06
335.521	0
335.732	-0.08
335.942	0.07
336.152	0.03
336.362	-0.02
336.572	0
336.782	0.04
336.992	0
337.202	-0.01
337.412	-0.04
337.622	0.01
337.832	0.02
338.042	-0.03
338.252	-0.03
338.462	-0.04
338.672	0.01
338.882	-0.03
339.092	-0
339.302	0.07
339.511	0.01
339.721	-0.04
339.931	0
340.141	0.07
340.351	0.05
340.561	0.05
340.77	-0.03
340.98	0.01
341.19	-0.02
341.4	-0.02
341.609	-0.04
341.819	-0
342.029	-0.04
342.238	-0.02
342.448	-0
342.658	0.04
342.867	0.03
343.077	0.01
343.286	-0.03
343.496	0.01
343.706	0.05
343.915	-0.08
344.125	-0.01
344.334	0.04
344.544	-0.06
344.753	0
344.963	0
345.172	-0.02
345.381	-0
345.591	-0.01
345.8	0.04
346.01	0.03
346.219	0.02
346.428	-0.13
346.638	-0.04
346.847	-0.01
347.056	0.04
347.266	-0.03
347.475	0.01
347.684	-0
347.893	0.01
348.103	0.03
348.312	-0.01
348.521	-0.01
348.73	-0.02
348.94	0.01
349.149	-0
349.358	-0.03
349.567	-0.04
349.776	-0.03
349.985	-0.01
350.194	0.03
350.403	0.05
350.612	-0.04
350.821	-0.04
351.03	-0
351.239	-0.04
351.448	-0.02
351.657	-0.06
351.866	0.07
352.075	-0
352.284	0.03
352.493	-0.05
352.702	0.04
352.911	0.04
353.12	0.01
353.329	-0
353.538	0.01
353.746	-0.01
353.955	-0.01
354.164	0.04
354.373	-0.02
354.582	0.03
354.79	0
354.999	0.02
355.208	-0.01
355.416	0.03
355.625	-0.06
355.834	-0.08
356.042	0.04
356.251	0.01
356.46	-0.05
356.668	0.02
356.877	0.05
357.085	0.05
357.294	-0.08
357.503	-0
357.711	-0.02
357.92	0.08
358.128	0.01
358.337	0
358.545	0.01
358.754	-0.02
358.962	0.01
359.17	-0.01
359.379	0.01
359.587	0.04
359.796	0.01
360.004	0.03
360.212	0.03
360.421	0.04
360.629	-0.02
360.837	0
361.046	0.06
361.254	0.09
361.462	0.01
361.67	-0.02
361.879	-0.02
362.087	0.05
362.295	0.02
362.503	0.01
362.711	-0.05
362.92	-0.01
363.128	-0.05
363.336	-0.04
363.544	-0.05
363.752	-0.05
363.96	-0.05
364.168	-0.07
364.376	-0.03
364.584	0
364.792	0.08
365	0.01
365.208	0.01
365.416	-0.03
365.624	0.02
365.832	-0.02
366.04	0.05
366.248	0.01
366.456	0.01
366.664	0
366.872	-0
367.079	0.01
367.287	-0.05
367.495	0.01
367.703	-0.04
367.911	-0.02
368.118	0
368.326	-0.04
368.534	-0.03
368.742	0.06
368.949	-0.05
369.157	-0.02
369.365	0.01
369.572	-0.02
369.78	-0.04
369.988	0.01
370.195	0.02
370.403	0.03
370.61	0.01
370.818	-0.03
371.026	0.03
371.233	-0.05
371.441	0.01
371.648	-0
371.856	0.02
372.063	-0.03
372.271	-0.03
372.478	-0.02
372.685	-0.02
372.893	0.03
373.1	-0.02
373.308	-0.04
373.515	0.1
373.722	0.04
373.93	-0.01
374.137	0.03
374.344	0.03
374.552	0.07
374.759	0
374.966	-0.02
375.173	-0.03
375.381	0.06
375.588	-0.01
375.795	-0.07
376.002	-0.03
376.209	-0.05
376.417	-0.04
376.624	-0.01
376.831	0.03
377.038	-0.02
377.245	-0.07
377.452	-0.02
377.659	0
377.866	-0.04
378.073	-0
378.28	-0.01
378.487	0.01
378.694	0.06
378.901	-0.01
379.108	-0.01
379.315	-0.02
379.522	0.03
379.729	-0.02
379.936	-0.01
380.143	0.02
380.35	0.03
380.557	0.01
380.763	0.01
380.97	-0.02
381.177	-0.01
381.384	0.01
381.591	-0.03
381.797	-0.03
382.004	0.02
382.211	0.05
382.418	-0.05
382.624	0.03
382.831	0.02
383.038	-0.02
383.244	0
383.451	-0.02
383.658	-0
383.864	-0.02
384.071	-0.01
384.277	0.03
384.484	-0.02
384.69	0.04
384.897	-0.05
385.103	0.02
385.31	-0.02
385.516	-0.06
385.723	-0.04
385.929	-0.05
386.136	-0.04
386.342	-0.01
386.549	-0.05
386.755	0.01
386.961	0.05
387.168	-0.04
387.374	-0.01
387.58	0.04
387.787	-0
387.993	0.01
388.199	-0.01
388.406	-0.05
388.612	-0.01
388.818	-0.05
389.024	-0.01
389.231	0
389.437	0.08
389.643	0.03
389.849	0.01
390.055	0.02
390.261	0.03
390.467	-0.01
390.674	-0.04
390.88	-0.03
391.086	0.01
391.292	-0.02
391.498	-0
391.704	0.02
391.91	-0.02
392.116	-0.02
392.322	-0.06
392.528	0.03
392.734	-0.05
392.94	0.04
393.146	-0.04
393.352	0.01
393.557	-0
393.763	-0.02
393.969	0.04
394.175	0.01
394.381	-0
394.587	-0.05
394.792	-0.07
394.998	0.02
395.204	0.05
395.41	-0
395.615	0.05
395.821	0.02
396.027	-0.01
396.233	-0.04
396.438	0.01
396.644	0.03
396.85	0.05
397.055	-0
397.261	0.01
397.466	0.09
397.672	0.01
397.878	0
398.083	0.04
398.289	-0.05
398.494	0.06
398.7	0.02
398.905	-0.06
399.111	0.02
399.316	-0.08
399.522	-0.01
399.727	-0.04
399.932	-0.04
400.138	0.03
400.343	0.03
400.549	-0
400.754	0.01
400.959	0.05
401.165	0
401.37	0.02
401.575	0.1
401.78	-0.04
401.986	-0.05
402.191	-0.05
402.396	-0.01
402.601	0.03
402.807	-0.02
403.012	-0.05
403.217	0.07
403.422	0.02
403.627	0
403.832	-0.01
404.037	0
404.243	0
404.448	-0
404.653	-0.02
404.858	-0
405.063	0.06
405.268	-0.05
405.473	-0.08
405.678	-0.02
405.883	0.15
406.088	0.02
406.293	-0
406.498	-0.05
406.703	0.01
406.907	-0
407.112	-0.03
407.317	0.02
407.522	0.04
407.727	-0.04
407.932	0.02
408.136	0.03
408.341	-0.01
408.546	-0.02
408.751	0.01
408.956	-0
409.16	0.02
409.365	-0.03
409.57	-0.03
409.774	-0.02
409.979	0.06
410.184	0.04
410.388	-0.01
410.593	0.05
410.798	-0.03
411.002	-0.05
411.207	0.01
411.411	0.03
411.616	-0.05
411.82	-0.01
412.025	0.06
412.229	-0.06
412.434	0.04
412.638	0.01
412.843	-0.06
413.047	-0.02
413.252	-0.04
413.456	-0.04
413.66	0.03
413.865	-0.02
414.069	0.06
414.273	-0.04
414.478	-0.04
414.682	-0.05
414.886	-0.04
415.091	-0.11
415.295	-0.08
415.499	-0.02
415.703	-0.03
415.908	0.03
416.112	-0.08
416.316	0.01
416.52	-0.04
416.724	-0.05
416.929	-0.04
417.133	0.1
417.337	-0.04
417.541	-0.02
417.745	0.01
417.949	0.02
418.153	0.02
418.357	-0.06
418.561	0.02
418.765	-0.01
418.969	0.11
419.173	0.02
419.377	-0.03
419.581	0.04
419.785	-0
419.989	-0.06
420.193	-0.05
420.397	-0.02
420.601	0.05
420.804	0.02
421.008	-0.06
421.212	-0.03
421.416	0.03
421.62	-0.06
421.823	-0.04
422.027	0.06
422.231	0.02
422.435	-0.03
422.638	0.01
422.842	-0
423.046	-0.03
423.249	0
423.453	0.02
423.657	-0.01
423.86	-0.05
424.064	-0.02
424.268	0.04
424.471	-0.04
424.675	0.05
424.878	0.06
425.082	-0.01
425.285	0.05
425.489	-0.06
425.692	0.05
425.896	-0.07
426.099	0.05
426.303	-0.05
426.506	-0.07
426.71	-0.02
426.913	0.01
427.116	0.04
427.32	0.03
427.523	-0.02
427.726	0.07
427.93	-0.08
428.133	0.01
428.336	-0.04
428.54	-0.06
428.743	0.01
428.946	-0
429.149	-0.07
429.353	-0.03
429.556	-0.04
429.759	0.01
429.962	-0.05
430.165	-0.03
430.368	-0.03
430.571	-0.03
430.775	0
430.978	-0.04
431.181	-0.06
431.384	-0
431.587	-0.05
431.79	-0.02
431.993	0.02
432.196	-0.01
432.399	-0.05
432.602	0.06
432.805	-0.03
433.008	-0.05
433.211	-0.04
433.414	-0.02
433.616	0.04
433.819	-0.03
434.022	-0.13
434.225	0.1
434.428	0.01
434.631	0.05
434.833	0.01
435.036	-0.01
435.239	0.03
435.442	-0.03
435.645	-0.05
435.847	-0.04
436.05	0.01
436.253	0.01
436.455	-0.06
436.658	-0.03
436.861	0.1
437.063	-0.02
437.266	-0.05
437.468	-0.01
437.671	0.14
437.874	-0.01
438.076	-0.05
438.279	-0.08
438.481	0
438.684	-0.03
438.886	0.03
439.089	-0.09
439.291	-0.04
439.494	-0.03
439.696	-0.05
439.899	0
440.101	-0.02
440.303	-0.11
440.506	-0
440.708	-0.02
440.91	0.03
441.113	-0.09
441.315	0.05
441.517	-0.06
441.72	0.03
441.922	-0.05
442.124	-0.09
442.326	-0.02
442.529	0.08
442.731	-0.05
442.933	0.07
443.135	-0.04
443.337	-0.07
443.539	-0.02
443.742	-0.08
443.944	0.01
444.146	-0.05
444.348	-0
444.55	-0.04
444.752	-0.02
444.954	-0.05
445.156	0.01
445.358	-0.05
445.56	0.06
445.762	-0.03
445.964	-0.01
446.166	0
446.368	-0.04
446.57	0.03
446.772	0.01
446.974	-0.03
447.175	-0.01
447.377	-0.04
447.579	-0.04
447.781	-0.06
447.983	0.09
448.184	-0.02
448.386	0
448.588	-0.04
448.79	0.01
448.991	-0.03
449.193	-0.05
449.395	0
449.597	0.01
449.798	0
450	0.02
450.202	-0.01
450.403	0.02
450.605	-0
450.806	-0.02
451.008	-0.03
451.21	0.03
451.411	-0.03
451.613	-0.02
451.814	-0
452.016	0.02
452.217	-0.01
452.419	0.03
452.62	-0.01
452.821	0.01
453.023	0.07
453.224	0.04
453.426	-0.04
453.627	0.01
453.828	0.04
454.03	0.02
454.231	-0.02
454.432	-0.05
454.634	0.14
454.835	-0.03
455.036	-0.07
455.238	-0.03
455.439	0.09
455.64	-0.09
455.841	-0.03
456.042	0.08
456.244	0.02
456.445	-0.04
456.646	-0.08
456.847	-0.09
457.048	0.04
457.249	0.07
457.45	0.13
457.651	-0.08
457.852	0.05
458.054	-0.01
458.255	0.03
458.456	-0.02
458.657	0.03
458.858	-0.06
459.058	-0.01
459.259	0.02
459.46	-0.05
459.661	-0.02
459.862	0.06
460.063	0.01
460.264	0.05
460.465	-0.09
460.666	0.09
460.866	-0
461.067	-0.02
461.268	-0.03
461.469	-0.03
461.67	0
461.87	-0.04
462.071	-0.06
462.272	0
462.473	-0.01
462.673	-0.02
462.874	-0.08
463.075	0.02
463.275	-0.03
463.476	0.02
463.676	0.02
463.877	0.02
464.078	-0.05
464.278	0.02
464.479	0.01
464.679	-0.01
464.88	-0.01
465.08	0.02
465.281	-0.06
465.481	-0.02
465.682	-0
465.882	0.01
466.083	-0.04
466.283	-0.04
466.483	-0.02
466.684	-0.06
466.884	-0.06
467.085	0.01
467.285	0.06
467.485	-0.05
467.686	0.02
467.886	-0.08
468.086	-0.05
468.286	0.02
468.487	0.01
468.687	-0.01
468.887	-0.04
469.087	0.02
469.287	0.02
469.488	-0.09
469.688	0.02
469.888	0.03
470.088	0.04
470.288	0.01
470.488	0.05
470.688	-0.05
470.888	0.03
471.088	-0.04
471.288	0.01
471.488	0.02
471.688	0.04
471.888	-0.03
472.088	0.06
472.288	0.02
472.488	-0.01
472.688	-0.02
472.888	-0.02
473.088	-0.01
473.288	-0.03
473.488	0.04
473.688	0.05
473.887	-0.01
474.087	-0.04
474.287	0.01
474.487	-0.06
474.687	-0.01
474.886	-0.02
475.086	-0
475.286	0
475.486	-0.02
475.685	-0.03
475.885	-0.02
476.085	0.01
476.284	0.02
476.484	-0.05
476.684	-0.01
476.883	0.03
477.083	0.01
477.282	-0.03
477.482	0.05
477.681	0.06
477.881	0
478.08	-0.02
478.28	-0.04
478.479	0
478.679	0.07
478.878	-0.02
479.078	-0.05
479.277	0
479.477	-0.03
479.676	0.02
479.875	-0.01
480.075	-0.08
480.274	-0.01
480.473	0.03
480.673	-0.03
480.872	0.03
481.071	0.01
481.271	0.01
481.47	-0.01
481.669	-0.01
481.868	-0.02
482.067	-0.06
482.267	-0.04
482.466	-0.03
482.665	-0.06
482.864	-0.05
483.063	-0.06
483.262	0.02
483.461	0.02
483.661	0.03
483.86	0.03
484.059	0.03
484.258	0.02
484.457	0.01
484.656	-0
484.855	0.02
485.054	-0.04
485.253	-0.02
485.452	-0.03
485.651	0.01
485.849	-0.01
486.048	-0.02
486.247	-0.03
486.446	0.02
486.645	-0.06
486.844	0
487.043	-0.02
487.241	-0.01
487.44	-0.05
487.639	-0.02
487.838	0.01
488.037	0
488.235	0.03
488.434	-0.02
488.633	-0.02
488.831	-0.01
489.03	0.03
489.229	-0.01
489.427	0
489.626	0.03
489.825	0.04
490.023	-0
490.222	-0.04
490.42	-0
490.619	0.03
490.817	0
491.016	-0.02
491.214	0.02
491.413	-0.02
491.611	-0.01
491.81	-0.02
492.008	0.02
492.207	0.02
492.405	0.03
492.604	-0.03
492.802	0.01
493	-0
493.199	-0.02
493.397	0
493.595	-0.02
493.794	-0.05
493.992	0.03
494.19	-0.01
494.388	0.01
494.587	-0.01
494.785	0.01
494.983	-0.04
495.181	0.01
495.379	-0.02
495.578	-0.01
495.776	0.02
495.974	-0.01
496.172	0
496.37	0.03
496.568	-0.05
496.766	-0.03
496.964	0.04
497.162	-0.01
497.36	-0.02
497.558	0.03
497.756	0.01
497.954	-0.02
498.152	-0.01
498.35	-0.01
498.548	-0.02
498.746	-0
498.944	-0.05
499.142	0.01
499.34	-0.05
499.538	-0.01
499.736	-0.01
499.933	0.04
500.131	0.04
500.329	-0
500.527	0.03
500.725	0.03
500.922	0.01
501.12	-0
501.318	0.01
501.516	-0.03
501.713	-0.02
501.911	-0
502.109	-0.03
502.306	0.01
502.504	-0.02
502.701	-0.01
502.899	-0.02
503.097	0.04
503.294	-0
503.492	-0
503.689	-0.01
503.887	0.03
504.084	0.04
504.282	-0
504.479	-0.05
504.677	0
504.874	-0.04
505.072	-0
505.269	-0.01
505.466	0
505.664	-0.01
505.861	-0.02
506.059	-0.04
506.256	0.01
506.453	0.01
506.651	0.03
506.848	-0.01
507.045	0.02
507.242	0
507.44	-0
507.637	0.02
507.834	-0.01
508.031	0
508.229	-0.02
508.426	-0.01
508.623	0.02
508.82	-0.04
509.017	-0.03
509.214	-0.01
509.411	-0.02
509.608	-0.02
509.805	0
510.003	-0.01
510.2	-0.03
510.397	0.04
510.594	-0.01
510.791	-0.03
510.988	-0.01
511.184	0.02
511.381	-0.03
511.578	-0.03
511.775	-0.01
511.972	-0.01
512.169	-0.02
512.366	-0.01
512.563	0.02
512.76	-0.01
512.956	0.01
513.153	-0.01
513.35	-0
513.547	-0.03
513.744	-0.01
513.94	-0.03
514.137	0
514.334	-0.02
514.53	-0.01
514.727	-0.01
514.924	0.03
515.12	-0.03
515.317	-0.03
515.514	-0.01
515.71	-0.04
515.907	-0.02
516.103	0.01
516.3	0.01
516.497	0.02
516.693	0.02
516.89	-0.02
517.086	-0.04
517.283	0.02
517.479	-0.01
517.676	-0.01
517.872	-0.01
518.068	-0.02
518.265	-0.04
518.461	-0.03
518.658	-0.01
518.854	0
519.05	-0.01
519.247	-0
519.443	-0.01
519.639	0.01
519.836	-0.01
520.032	0
520.228	0
520.424	0.03
520.621	0
520.817	-0.01
521.013	0.01
521.209	-0.01
521.405	0.04
521.601	0
521.798	-0.01
521.994	0.03
522.19	-0.01
522.386	-0.05
522.582	-0.01
522.778	0
522.974	-0.01
523.17	0
523.366	0
523.562	0.03
523.758	-0.01
523.954	-0.01
524.15	-0
524.346	0.03
524.542	-0.01
524.738	-0.03
524.934	-0.01
525.129	-0.02
525.325	0
525.521	-0.01
525.717	0.02
525.913	0.01
526.109	-0
526.304	-0.01
526.5	0.01
526.696	0.02
526.892	0
527.087	-0.02
527.283	-0.02
527.479	0.01
527.674	-0.02
527.87	-0.01
528.066	-0.02
528.261	0.01
528.457	-0
528.653	-0
528.848	-0.02
529.044	-0
529.239	-0
529.435	0.02
529.63	0
529.826	0.03
530.021	0.01
530.217	0.01
530.412	-0
530.608	-0.01
530.803	0.01
530.999	-0
531.194	-0.05
531.389	0.01
531.585	-0.07
531.78	-0.02
531.975	-0.03
532.171	0.03
532.366	-0.03
532.561	0.01
532.757	-0.03
532.952	-0
533.147	0.01
533.342	-0.01
533.538	-0.02
533.733	0.02
533.928	0.01
534.123	-0.01
534.318	-0.03
534.513	-0.01
534.709	-0
534.904	-0.01
535.099	0
535.294	0.01
535.489	0.01
535.684	-0.01
535.879	-0.03
536.074	0
536.269	-0.03
536.464	-0
536.659	0
536.854	-0.01
537.049	0
537.244	0.01
537.439	0
537.634	0.02
537.828	0.01
538.023	-0.01
538.218	-0.04
538.413	-0.01
538.608	-0.01
538.803	0.01
538.997	-0.03
539.192	0.03
539.387	0.01
539.582	-0
539.776	0.01
539.971	-0.01
540.166	-0.01
540.36	-0.02
540.555	0.01
540.75	-0.02
540.944	-0.01
541.139	-0.05
541.334	-0.02
541.528	0.01
541.723	0.01
541.917	-0
542.112	-0.07
542.306	-0.02
542.501	-0.02
542.695	-0.01
542.89	-0.04
543.084	-0.01
543.279	-0.01
543.473	-0.01
543.668	-0
543.862	-0
544.056	0.02
544.251	-0
544.445	0
544.64	-0.02
544.834	-0.03
545.028	-0.01
545.222	0
545.417	0
545.611	-0
545.805	-0.02
546	0
546.194	-0.04
546.388	-0.03
546.582	0.01
546.776	-0.01
546.97	-0
547.165	0.02
547.359	0.01
547.553	-0
547.747	0.02
547.941	-0
548.135	-0.02
548.329	0.02
548.523	-0.02
548.717	0.01
548.911	-0.03
549.105	0
549.299	-0.01
549.493	0
549.687	0.01
549.881	0.02
550.075	-0.02
550.269	-0.03
550.463	-0.01
550.657	-0.03
550.85	-0.01
551.044	-0.02
551.238	-0.02
551.432	-0.01
551.626	-0.04
551.82	-0
552.013	-0.02
552.207	0.01
552.401	0.03
552.594	0.01
552.788	0
552.982	0.01
553.176	-0.04
553.369	-0
553.563	-0.01
553.756	-0.05
553.95	-0.03
554.144	-0.02
554.337	0.02
554.531	-0.01
554.724	0.02
554.918	-0.01
555.111	-0
555.305	-0.01
555.498	0.04
555.692	0.02
555.885	-0.01
556.079	0.01
556.272	-0
556.466	0.02
556.659	0.01
556.852	0.02
557.046	-0.03
557.239	0.02
557.432	-0.02
557.626	-0.03
557.819	-0
558.012	0.01
558.206	0
558.399	-0.01
558.592	-0.02
558.785	-0.02
558.979	0.02
559.172	0.01
559.365	0.03
559.558	0.01
559.751	-0.03
559.944	0
560.138	-0.01
560.331	0.03
560.524	-0
560.717	0.01
560.91	0
561.103	-0
561.296	0.01
561.489	0.02
561.682	-0.01
561.875	0.03
562.068	0.01
562.261	-0.01
562.454	0.04
562.647	0
562.84	0.01
563.032	-0.03
563.225	0.01
563.418	-0.02
563.611	0
563.804	0
563.997	-0.04
564.19	-0.04
564.382	-0.06
564.575	-0.01
564.768	0
564.961	-0.01
565.153	-0.03
565.346	0.03
565.539	-0.01
565.731	0.02
565.924	0.01
566.117	0.01
566.309	-0
566.502	-0.01
566.695	-0.01
566.887	-0.01
567.08	-0.02
567.272	-0
567.465	-0.02
567.657	-0
567.85	0.02
568.042	0.03
568.235	0.03
568.427	-0.02
568.62	0.01
568.812	0.01
569.005	-0.02
569.197	-0.03
569.389	0
569.582	-0.01
569.774	-0
569.966	-0.03
570.159	-0.04
570.351	-0.01
570.543	0
570.736	-0.01
570.928	-0.06
571.12	-0.02
571.312	-0.02
571.505	-0.03
571.697	0.03
571.889	-0.02
572.081	-0
572.273	-0.01
572.465	0.03
572.658	-0
572.85	-0
573.042	0.01
573.234	-0.02
573.426	0.02
573.618	-0.04
573.81	-0.01
574.002	0.04
574.194	0.02
574.386	-0.04
574.578	-0.05
574.77	-0.04
574.962	-0.01
575.154	-0.03
575.346	-0
575.538	-0.03
575.729	-0.01
575.921	-0.01
576.113	-0.01
576.305	-0
576.497	-0.03
576.689	-0
576.88	-0.02
577.072	0.01
577.264	-0.01
577.456	-0.01
577.647	-0.06
577.839	-0.04
578.031	0.02
578.223	-0.03
578.414	-0.04
578.606	0.01
578.798	-0
578.989	-0.02
579.181	-0.03
579.372	-0.02
579.564	-0.02
579.755	-0.03
579.947	0.01
580.139	0.01
580.33	-0.07
580.522	-0.02
580.713	-0.08
580.905	-0.01
581.096	0
581.287	-0.01
581.479	0.01
581.67	-0
581.862	-0
582.053	-0.03
582.244	-0.04
582.436	-0.04
582.627	-0.01
582.818	-0.02
583.01	-0.03
583.201	0.04
583.392	0.02
583.583	0
583.775	-0.04
583.966	-0.03
584.157	-0.01
584.348	-0.03
584.54	-0.03
584.731	-0.01
584.922	-0.01
585.113	-0.01
585.304	0.01
585.495	0.01
585.686	0.01
585.877	-0.02
586.068	0.02
586.259	-0.01
586.45	0.01
586.641	-0.03
586.832	-0.05
587.023	0
587.214	-0.02
587.405	-0
587.596	-0.04
587.787	0.04
587.978	-0.01
588.169	-0.04
588.36	-0.02
588.551	-0.01
588.742	-0.03
588.932	0.02
589.123	-0.01
589.314	0.03
589.505	0
589.696	0
589.886	-0.03
590.077	-0.06
590.268	0.02
590.458	-0.05
590.649	-0.05
590.84	0.02
591.03	-0.03
591.221	-0.05
591.412	-0.04
591.602	0.01
591.793	0.03
591.984	-0.05
592.174	-0.03
592.365	0.06
592.555	-0.03
592.746	0.01
592.936	0.02
593.127	-0
593.317	0.01
593.508	-0.04
593.698	-0.03
593.889	-0.04
594.079	-0
594.269	0
594.46	-0.02
594.65	-0.02
594.84	-0.03
595.031	-0.02
595.221	0.01
595.411	-0.04
595.602	0
595.792	-0.02
595.982	-0.01
596.172	0.05
596.363	0.01
596.553	-0
596.743	-0
596.933	0.02
597.123	0.01
597.314	-0.03
597.504	-0.03
597.694	0.04
597.884	0.01
598.074	-0
598.264	-0.01
598.454	-0.01
598.644	0.02
598.834	-0.02
599.024	-0.05
599.214	-0.01
599.404	0.04
599.594	-0.03
599.784	-0.03
599.974	0.04
600.164	0.01
600.354	-0.05
600.544	-0.07
600.734	0.02
600.924	0.02
601.114	-0.03
601.303	-0.03
601.493	-0.04
601.683	-0.03
601.873	0.01
602.063	-0.06
602.252	0.05
602.442	-0.07
602.632	-0.03
602.821	-0.04
603.011	0.02
603.201	-0
603.39	-0.04
603.58	-0.02
603.77	0.02
603.959	0.02
604.149	-0.02
604.339	-0.01
604.528	0
604.718	0.04
604.907	-0.01
605.097	-0.02
605.286	-0.07
605.476	0.01
605.665	0.04
605.855	-0.03
606.044	0.04
606.234	0.01
606.423	-0.01
606.612	-0.06
606.802	0.01
606.991	0.02
607.181	0
607.37	-0.05
607.559	-0.01
607.749	-0.07
607.938	-0.01
608.127	-0.03
608.316	-0.01
608.506	-0
608.695	-0.01
608.884	-0.05
609.073	0.01
609.263	-0.01
609.452	-0.01
609.641	0.01
609.83	-0.03
610.019	0
610.208	-0.02
610.397	0
610.586	0.02
610.775	-0.02
610.965	-0.02
611.154	-0.05
611.343	-0.02
611.532	0.01
611.721	-0.04
611.91	-0.04
612.099	-0.02
612.287	-0
612.476	-0.05
612.665	-0
612.854	-0.03
613.043	0.01
613.232	-0.03
613.421	-0.08
613.61	-0.01
613.798	-0.04
613.987	0.02
614.176	-0.03
614.365	0.03
614.554	-0.01
614.742	0.01
614.931	-0
615.12	0.04
615.309	-0.03
615.497	0.01
615.686	-0.02
615.875	-0.02
616.063	-0.01
616.252	-0.01
616.44	-0.02
616.629	0.01
616.818	0.02
617.006	-0.01
617.195	-0.01
617.383	0.01
617.572	0.03
617.76	-0.01
617.949	-0.01
618.137	0.01
618.326	0.02
618.514	-0.05
618.703	-0.03
618.891	0.04
619.079	-0.05
619.268	0.01
619.456	-0.01
619.644	0.02
619.833	-0.05
620.021	-0.05
620.209	-0.05
620.398	0.01
620.586	-0.02
620.774	0.04
620.962	-0
621.151	0.04
621.339	-0.01
621.527	-0.06
621.715	-0.04
621.903	-0.06
622.092	-0.06
622.28	-0.01
622.468	0
622.656	-0.02
622.844	0.02
623.032	-0.06
623.22	-0.05
623.408	0.01
623.596	-0.02
623.784	-0
623.972	-0.02
624.16	-0.03
624.348	0.05
624.536	-0.05
624.724	-0.03
624.912	0.02
625.1	0.01
625.288	-0.04
625.476	-0.05
625.664	0.02
625.851	-0.04
626.039	-0.01
626.227	-0.01
626.415	0
626.603	-0.07
626.79	-0
626.978	-0.02
627.166	0.01
627.354	0.01
627.541	-0.04
627.729	-0.05
627.917	0.03
628.104	0.04
628.292	-0.01
628.48	-0.03
628.667	0
628.855	-0
629.042	0
629.23	-0.03
629.418	-0.03
629.605	-0.01
629.793	-0.03
629.98	-0.01
630.168	-0.02
630.355	-0.02
630.543	0.02
630.73	-0.06
630.917	0.04
631.105	0.05
631.292	-0.03
631.48	-0.01
631.667	0.08
631.854	-0
632.042	-0.03
632.229	-0.05
632.416	0.01
632.604	-0.03
632.791	-0.04
632.978	0.04
633.165	0.03
633.353	0.06
633.54	-0.01
633.727	-0.06
633.914	-0.04
634.101	-0.08
634.289	0.04
634.476	-0.06
634.663	-0.03
634.85	0
635.037	-0.04
635.224	-0.06
635.411	0.04
635.598	0.02
635.785	-0.01
635.972	-0.03
636.159	0.02
636.346	-0.04
636.533	-0
636.72	-0.01
636.907	-0.03
637.094	0.03
637.281	-0.01
637.468	0.01
637.655	-0.03
637.842	-0.02
638.029	-0.05
638.215	0.01
638.402	-0.03
638.589	-0.02
638.776	-0.02
638.963	-0.04
639.149	0
639.336	0.01
639.523	0.01
639.709	0.02
639.896	-0.06
640.083	0.05
640.27	0.01
640.456	-0.04
640.643	-0.01
640.829	-0.06
641.016	-0
641.203	-0.05
641.389	-0
641.576	-0
641.762	0.01
641.949	-0.04
642.135	0.01
642.322	0.01
642.508	-0.07
642.695	0.01
642.881	-0.03
643.068	-0.04
643.254	-0.04
643.441	0.01
643.627	-0.03
643.813	-0.02
644	0.04
644.186	-0.05
644.372	0.02
644.559	0
644.745	-0.03
644.931	-0.05
645.118	-0.01
645.304	-0.03
645.49	-0.07
645.676	-0.04
645.862	0.02
646.049	0.04
646.235	-0.01
646.421	0.03
646.607	0.02
646.793	-0
646.979	-0.04
647.165	0.01
647.352	-0.01
647.538	0.03
647.724	-0.01
647.91	-0
648.096	0.03
648.282	0.01
648.468	-0
648.654	-0
648.84	-0.01
649.026	-0.02
649.212	-0.01
649.397	-0.03
649.583	-0.03
649.769	0.01
649.955	0
650.141	0
650.327	0.03
650.513	-0.03
650.698	-0
650.884	-0.09
651.07	-0.02
651.256	0.04
651.442	-0.04
651.627	-0.03
651.813	-0
651.999	-0
652.184	-0.01
652.37	-0.03
652.556	-0.04
652.741	0.02
652.927	-0.09
653.113	-0.01
653.298	0.01
653.484	0.02
653.669	-0.07
653.855	0.02
654.04	0.01
654.226	0
654.412	-0.03
654.597	-0.04
654.782	-0
654.968	0.01
655.153	0
655.339	-0.06
655.524	-0.07
655.71	0.05
655.895	-0.02
656.08	-0.02
656.266	0.03
656.451	-0.03
656.636	-0.02
656.822	-0.02
657.007	-0.03
657.192	-0.02
657.378	-0.05
657.563	-0.02
657.748	0.03
657.933	-0.02
658.118	-0.01
658.304	-0.02
658.489	0
658.674	0.01
658.859	-0.01
659.044	0.03
659.229	-0.03
659.414	-0.03
659.599	-0
659.785	-0.07
659.97	-0.02
660.155	0.01
660.34	0.01
660.525	-0.02
660.71	-0.03
660.895	0.01
661.08	-0.03
661.264	-0.04
661.449	0.04
661.634	0.03
661.819	0
662.004	0
662.189	-0.1
662.374	-0.03
662.559	-0.03
662.743	-0.05
662.928	-0.02
663.113	-0.02
663.298	-0.06
663.483	-0.03
663.667	-0.02
663.852	-0.05
664.037	0.02
664.221	-0.04
664.406	-0.02
664.591	0.01
664.775	-0.01
664.96	-0
665.145	-0.02
665.329	0.01
665.514	-0.06
665.698	-0.03
665.883	-0.08
666.068	0.04
666.252	-0.01
666.437	-0.03
666.621	0
666.806	0.02
666.99	-0.03
667.174	-0.02
667.359	0.05
667.543	-0
667.728	-0
667.912	-0.06
668.096	0.01
668.281	-0
668.465	-0
668.649	-0
668.834	-0.01
669.018	-0.05
669.202	-0.01
669.387	-0.01
669.571	0.02
669.755	-0.06
669.939	-0.01
670.124	0
670.308	0.05
670.492	0.05
670.676	0
670.86	-0.01
671.044	-0.07
671.228	-0.01
671.413	-0.02
671.597	-0.01
671.781	-0.04
671.965	0.06
672.149	-0
672.333	0.01
672.517	-0.03
672.701	0.01
672.885	-0.03
673.069	-0.05
673.253	0.05
673.437	-0
673.621	-0.04
673.804	-0.01
673.988	-0.03
674.172	-0
674.356	-0.11
674.54	-0.03
674.724	0.09
674.908	-0.05
675.091	0.03
675.275	-0.01
675.459	-0.01
675.643	-0.05
675.826	-0.02
676.01	-0.01
676.194	-0.05
676.377	0
676.561	-0
676.745	0.02
676.928	0.02
677.112	0.04
677.296	-0.04
677.479	-0.03
677.663	-0.02
677.846	0.01
678.03	0.01
678.213	-0.02
678.397	-0.02
678.58	-0.02
678.764	-0.04
678.947	-0.08
679.131	-0.06
679.314	0.04
679.498	-0.02
679.681	0
679.865	0.03
680.048	-0.02
680.231	-0.01
680.415	-0.05
680.598	-0.05
680.781	-0.01
680.965	-0.01
681.148	0.01
681.331	-0.02
681.514	-0
681.698	-0.01
681.881	-0
682.064	-0.02
682.247	0.03
682.43	-0.06
682.614	-0.02
682.797	0.04
682.98	-0.03
683.163	-0.11
683.346	0
683.529	-0.01
683.712	-0.05
683.895	-0.01
684.078	-0.09
684.261	-0.03
684.444	0
684.627	0.02
684.81	-0.04
684.993	-0.01
685.176	-0
685.359	-0.04
685.542	-0.03
685.725	0.1
685.908	-0.02
686.091	-0.05
686.274	0.03
686.457	0.05
686.639	-0.05
686.822	0.01
687.005	-0.01
687.188	0.04
687.371	0.07
687.553	0.03
687.736	-0.02
687.919	0.09
688.102	0.07
688.284	0
688.467	0.01
688.65	0.01
688.832	-0.05
689.015	-0.03
689.197	-0.02
689.38	0.13
689.563	0.07
689.745	-0.06
689.928	-0.02
690.11	-0.02
690.293	0.02
690.475	-0.09
690.658	0.06
690.84	-0.06
691.023	-0.03
691.205	-0.06
691.388	0.01
691.57	0.01
691.752	0.07
691.935	-0.06
692.117	0.03
692.3	-0.02
692.482	-0.01
692.664	-0.05
692.847	-0.01
693.029	0.07
693.211	-0
693.393	0.01
693.576	-0.04
693.758	-0.01
693.94	-0.01
694.122	0.04
694.304	0
694.487	-0.04
694.669	0.08
694.851	-0.06
695.033	0.01
695.215	-0.04
695.397	-0.04
695.579	0
695.761	-0.05
695.943	-0.02
696.125	0.06
696.308	0.01
696.49	-0.1
696.671	0.11
696.853	0.03
697.035	0.08
697.217	-0.03
697.399	0.01
697.581	-0.07
697.763	0.03
697.945	-0.05
698.127	0
698.309	0.04
698.491	0.02
698.672	0.02
698.854	0.03
699.036	0.15
699.218	-0.01
699.399	0.07
699.581	0.05
699.763	0.05
699.945	0
700.126	-0.05
700.308	0.03
700.49	-0
700.671	-0.05
700.853	-0
701.035	-0.01
701.216	0.04
701.398	-0.02
701.579	0.04
701.761	0.03
701.943	0.01
702.124	-0
702.306	0.04
702.487	0.1
702.669	0.03
702.85	-0.04
703.031	-0.06
703.213	0.06
703.394	0.1
703.576	-0
703.757	-0
703.938	0.08
704.12	0.14
704.301	0.04
704.483	-0.04
704.664	0.02
704.845	0.09
705.026	0.03
705.208	0.04
705.389	0.04
705.57	0.03
705.751	-0.05
705.933	0.08
706.114	0.06
706.295	0.03
706.476	-0.08
706.657	0.11
706.838	0.08
707.02	0.06
707.201	-0.02
707.382	-0.01
707.563	0.07
707.744	0
707.925	-0.06
708.106	-0.02
708.287	0.06
708.468	0.05
708.649	-0
708.83	0.06
709.011	0.01
709.192	0.06
709.373	-0.07
709.554	0.02
709.734	0.07
709.915	0.09
710.096	-0
710.277	-0.08
710.458	0.04
710.639	0
710.819	-0.07
711	0.02
711.181	0.07
711.362	0.05
711.542	0.07
711.723	0.03
711.904	0.08
712.085	0.1
712.265	0.08
712.446	-0.01
712.627	0.02
712.807	-0.03
712.988	0.02
713.168	-0.04
713.349	0.07
713.53	-0.06
713.71	0
713.891	-0.01
714.071	0.06
714.252	-0.02
714.432	0.03
714.613	-0.06
714.793	0.01
714.974	0.16
715.154	0.1
715.334	0.07
715.515	0.07
715.695	0.04
715.876	0.01
716.056	-0
716.236	-0.03
716.417	0.06
716.597	-0.01
716.777	0.21
716.957	0.1
717.138	0.02
717.318	0.07
717.498	-0.06
717.678	0.08
717.859	0.04
718.039	-0.11
718.219	0.11
718.399	0.06
718.579	-0.04
718.759	-0.03
718.939	0.11
719.12	0.08
719.3	0.04
719.48	-0.08
719.66	-0.02
719.84	0.17
720.02	0.03
720.2	-0.07
720.38	0.11
720.56	0.1
720.74	0.02
720.92	0.04
721.1	0.11
721.279	0.12
721.459	0.03
721.639	-0
721.819	0.12
721.999	0.06
722.179	0.15
722.359	0.01
722.538	0.1
722.718	0.1
722.898	0.03
723.078	0.04
723.257	0.08
723.437	0.14
723.617	0.08
723.797	0.05
723.976	0.08
724.156	0.13
724.336	0.17
724.515	0.17
724.695	-0.03
724.874	0.09
725.054	0.16
725.234	-0.04
725.413	0.17
725.593	0.05
725.772	0.15
725.952	0.05
726.131	0.12
726.311	0.12
726.49	0.13
726.67	0.01
726.849	0.06
727.028	0.09
727.208	0.1
727.387	0.14
727.567	0.03
727.746	0.08
727.925	0.09
728.105	0
728.284	0.14
728.463	0.04
728.643	0.13
728.822	0.11
729.001	0.06
729.18	0.15
729.359	0.25
729.539	0.09
729.718	0.11
729.897	0.22
730.076	0.1
730.255	-0.03
730.434	0.18
730.614	0.25
730.793	0.23
730.972	0.07
731.151	0.14
731.33	0.26
731.509	0.24
731.688	0.16
731.867	0.12
732.046	0.07
732.225	0.39
732.404	0.05
732.583	0.07
732.762	0.24
732.941	0.31
733.12	0.24
733.298	0.15
733.477	0.29
733.656	0.15
733.835	0.13
734.014	0.19
734.193	0.12
734.371	0.21
734.55	0.24
734.729	0.08
734.908	0.17
735.086	0.27
735.265	0.23
735.444	0.07
735.623	0.13
735.801	0.16
735.98	0.16
736.159	0.15
736.337	0.24
736.516	0.14
736.694	0.3
736.873	0.13
737.052	0.25
737.23	0.33
737.409	0.24
737.587	0.34
737.766	-0.01
737.944	0.06
738.123	0.25
738.301	0.24
738.479	0.16
738.658	0.24
738.836	0.04
739.015	0.23
739.193	0.2
739.371	0.03
739.55	0.16
739.728	0.1
739.906	0.21
740.085	0.29
740.263	0.13
740.441	-0.05
740.62	0.36
740.798	0.19
740.976	-0.03
741.154	0.09
741.332	0.25
741.511	0.04
741.689	0.1
741.867	0.18
742.045	0.06
742.223	0.14
742.401	-0.07
742.579	0.07
742.757	0.11
742.935	-0.04
743.114	0.03
743.292	0.1
743.47	0.07
743.648	0.09
743.826	0.03
744.004	0.18
744.181	0.15
744.359	0.01
744.537	0.15
744.715	0.01
744.893	0.11
745.071	0.09
745.249	-0.06
745.427	0.04
745.605	0.04
745.782	0.11
745.96	0.11
746.138	0.03
746.316	0.12
746.493	-0.06
746.671	0.08
746.849	0.01
747.027	0.28
747.204	-0.11
747.382	0.08
747.56	-0.06
747.737	0.06
747.915	0.01
748.093	0.09
748.27	-0.05
748.448	-0.14
748.625	-0.14
748.803	-0.04
748.98	-0.05
749.158	0.07
749.335	0.08
749.513	-0.02
749.69	0.08
749.868	-0.02
750.045	-0.05
750.223	-0.02
750.4	-0.15
750.578	0.18
750.755	-0.06
750.932	-0.14
751.11	0.08
751.287	-0.09
751.464	0.09
751.642	-0.09
751.819	0.08
751.996	0.03
752.173	-0.08
752.351	-0.12
752.528	0.04
752.705	0.05
752.882	-0.06
753.06	-0.03
753.237	0.09
753.414	0.19
753.591	0.14
753.768	0.03
753.945	-0.05
754.122	-0.03
754.299	0.09
754.476	-0.05
754.654	0.04
754.831	0.04
755.008	0.04
755.185	-0.08
755.362	-0.03
755.539	0.07
755.716	-0.22
755.892	0.03
756.069	-0.01
756.246	-0.08
756.423	-0.01
756.6	0.11
756.777	-0.12
756.954	0.09
757.131	0.01
757.307	-0.08
757.484	-0.07
757.661	-0.04
757.838	0.05
758.015	-0.17
758.191	0.03
758.368	0.14
758.545	0.19
758.721	-0.02
758.898	-0.13
759.075	0.03
759.251	0.05
759.428	0.08
759.605	-0.09
759.781	-0.1
759.958	0.09
760.134	-0.04
760.311	-0.08
760.488	0.18
760.664	-0.02
760.841	-0.06
761.017	-0.13
761.194	0.05
761.37	0.12
761.547	-0.01
761.723	0.02
761.899	0.1
762.076	-0.11
762.252	-0.11
762.429	-0.07
762.605	0.04
762.781	-0.04
762.958	0.06
763.134	-0.01
763.31	0.01
763.486	0.06
763.663	-0.16
763.839	-0.03
764.015	-0.15
764.191	-0.04
764.368	0.02
764.544	-0.13
764.72	0.08
764.896	0.14
765.072	-0.07
765.248	0.07
765.425	-0.06
765.601	-0.1
765.777	-0.05
765.953	-0.2
766.129	-0.06
766.305	-0.04
766.481	0.14
766.657	0.03
766.833	0.2
767.009	-0.1
767.185	-0.15
767.361	-0.02
767.537	-0.15
767.713	0.07
767.889	-0.21
768.065	0.1
768.24	0.05
768.416	0.08
768.592	-0.1
768.768	0.01
768.944	-0.03
769.12	-0.09
769.295	-0.11
769.471	-0.01
769.647	0.05
769.823	0.16
769.998	-0.09
770.174	-0.04
770.35	0.19
770.525	0.28
770.701	0.07
770.877	-0
771.052	-0.03
771.228	0.12
771.403	0.02
771.579	0.08
771.755	0.27
771.93	-0
772.106	-0.09
772.281	-0.3
772.457	0.02
772.632	0.08
772.808	-0.18
772.983	-0.09
773.159	-0.17
773.334	0.18
773.509	-0.15
773.685	-0.06
773.86	0.17
774.036	0.22
774.211	-0.05
774.386	-0.11
774.562	-0.08
774.737	0.09
774.912	-0.05
775.087	-0.02
775.263	-0
775.438	0.05
775.613	-0.03
775.788	0.12
775.964	0.08
776.139	0.37
776.314	-0.05
776.489	0.08
776.664	0.1
776.839	-0.14
777.014	0.09
777.19	0.15
777.365	0.27
777.54	0.14
777.715	-0.07
777.89	0.06
778.065	-0.08
778.24	-0
778.415	0.07
778.59	-0.18
778.765	-0.05
778.94	0.1
779.115	-0.1
779.289	-0.07
779.464	0.08
779.639	-0.03
779.814	-0.27
779.989	-0.17
780.164	0.2
780.339	0.04
780.513	-0.05
780.688	-0.1
780.863	0.08
781.038	0.24
781.212	-0.15
781.387	-0.14
781.562	0.19
781.737	-0.23
781.911	0.26
782.086	-0.21
782.261	0.09
782.435	0.23
782.61	-0.17
782.784	-0.08
782.959	0.16
783.134	0.01
783.308	-0.13
783.483	0.02
783.657	0.34
783.832	0.07
784.006	-0.27
784.181	-0.15
784.355	0.16
784.53	-0.22
784.704	-0.07
784.878	0.03
785.053	0.02
785.227	0.28
785.402	0.26
785.576	-0.23
785.75	-0.01
785.925	-0.27
786.099	0.16
786.273	-0.01
786.448	0.1
786.622	0.26
786.796	-0.12
786.97	0.07
787.145	0.39
787.319	-0.4
787.493	-0.05
787.667	-0.29
787.841	-0.12
788.015	0.05
788.19	-0.17
788.364	-0
788.538	0.19
788.712	0.13
788.886	-0.19
789.06	0.35
789.234	0.12
789.408	-0.15
789.582	0.03
789.756	-0.11
789.93	-0.04
790.104	-0.07
790.278	-0.18
790.452	-0.26
790.626	0.37
790.8	-0.2
790.973	0.26
791.147	0.11
791.321	0.34
791.495	0.2
791.669	-0.08
791.843	0.08
792.016	0.1
792.19	0.31
792.364	-0.1
792.538	0.38
792.711	0.04
792.885	-0.06
793.059	-0.31
793.233	-0.59
793.406	0.22
793.58	0.04
793.754	0.03
793.927	-0.08
794.101	0.33
794.274	-0.12
794.448	0.22
794.622	-0.23
794.795	0.33
794.969	-0.42
795.142	0.24
795.316	-0.3
795.489	-0.09
795.663	0.13
795.836	-0.17
796.009	-0.24
796.183	0.42
796.356	0.17
796.53	-0.18
796.703	-0.4
796.876	0.59
797.05	-0.28
797.223	0.04
797.396	0.28
797.57	0.15
797.743	0.44
797.916	-0.05
798.09	0.08
798.263	0.15
798.436	0.01
798.609	-0.13
798.782	-0.08
798.956	0.08
799.129	0.12
799.302	-0.29
799.475	-0.2
799.648	-0.09
799.821	-0.39
799.994	-0.11
800.167	-0.21
800.34	0.1
800.514	0.01
800.687	-0.11
800.86	-0.23
801.033	-0.04
801.206	0.13
801.379	-0.33
801.551	0.2
801.724	0.03
801.897	0.35
802.07	-0.11
802.243	-0.66
802.416	-0.28
802.589	-0.08
802.762	-0.04
802.935	0.09
803.107	-0.03
803.28	0.2
803.453	0.07
803.626	-0.12
803.798	-0.08
803.971	0.08
804.144	0.14
804.317	0.17
804.489	0.13
804.662	-0.3
804.835	-0.28
805.007	-0.32
805.18	0.28
805.353	0.08
805.525	-0.25
805.698	-0.06
805.87	0.11
806.043	0.39
806.215	-0.12
806.388	-0.19
806.56	0.3
806.733	0.32
806.905	0.31
807.078	-0.17
807.25	-0.17
807.423	0.12
807.595	0.17
807.768	0.11
807.94	0.16
808.112	0.14
808.285	-0.26
808.457	-0.04
808.629	-0.08
808.802	-0.05
808.974	-0.14
809.146	-0.25
809.318	-0.4
809.491	0.11
809.663	0.02
809.835	-0.12
810.007	0.23
810.18	-0.13
810.352	-0.36
810.524	0.16
810.696	0.41
810.868	0.54
811.04	0.2
811.212	-0.21
811.384	0.08
811.556	-0
811.728	0.17
811.901	0.69
812.073	-0.16
812.245	-0.12
812.417	-0.05
812.589	-0.47
812.76	0.15
812.932	0.08
813.104	0.51
813.276	-0.08
813.448	0.32
813.62	0.08
813.792	-0.08
813.964	0.01
814.136	0.04
814.307	-0.04
814.479	-0.59
814.651	-0.37
814.823	0.76
814.995	-0.25
815.166	-0.26
815.338	-0.26
815.51	-0.72
815.681	0.71
815.853	0
816.025	-0.23
816.196	0.33
816.368	0.27
816.54	-0.62
816.711	-0.39
816.883	0.01
817.054	1.07
817.226	-0.44
817.398	-0.01
817.569	-0.18
817.741	0.23
817.912	0.19
818.084	-0.03
818.255	0.28
818.426	-0.41
818.598	-0.09
818.769	-0.26
818.941	0.44
819.112	0.56
819.283	0.06
819.455	-0.51
819.626	-0.42
819.798	0.11
819.969	0.28
820.14	-0.19
820.311	0.02
820.483	0.32
820.654	-0.02
820.825	-0.03
820.996	0.25
821.168	-0.28
821.339	0.03
821.51	-0.64
821.681	-0.13
821.852	0.1
822.023	-0.24
822.195	-0.35
822.366	0.31
822.537	0.19
822.708	0.07
822.879	-0.57
823.05	0.39
823.221	-0.35
823.392	0.29
823.563	0.07
823.734	0.21
823.905	-0.16
824.076	-0.05
824.247	-0.29
824.418	-0.3
824.589	0.44
824.759	-0.49
824.93	0.08
825.101	-0.31
825.272	0.49
825.443	0.18
825.614	0.69
825.784	-1.03
825.955	0.81
826.126	0.25
826.297	0.31
826.467	0.7
826.638	0.7
826.809	-1.16
826.98	-0.24
827.15	0.22
827.321	-0.33
827.492	0.53
827.662	-0.36
827.833	0.62
828.003	0.27
828.174	-0.46
828.345	-0.39
828.515	0.29
828.686	0.18
828.856	-0.25
829.027	-0.03
829.197	0.13
829.368	0.47
829.538	-0.12
829.709	-0.67
829.879	0.03
830.049	0.47
830.22	0.13
830.39	-0.33
830.56	0.5
830.731	0.22
830.901	-0.58
831.072	-0.04
831.242	0.17
831.412	-0.34
831.582	-0.07
831.753	-0.31
831.923	0.71
832.093	-0.17
832.263	-0.13
832.434	-0.72
832.604	-0.23
832.774	-0.04
832.944	0.02
833.114	0.45
833.284	0.14
833.454	-0.53
833.624	-0.05
833.795	-0.35
833.965	0.13
834.135	0.44
834.305	-0.83
834.475	-0.9
834.645	0.02
834.815	-0.06
834.985	-0.18
835.155	-0.11
835.325	-0.01
835.494	0.21
835.664	-0.24
835.834	-0.55
836.004	-0.4
836.174	0.56
836.344	0.25
836.514	-0.79
836.684	-0.08
836.853	0.77
837.023	0.35
837.193	-0.46
837.363	0.4
837.532	0.67
837.702	-0.14
837.872	-0.2
838.041	0.64
838.211	0.65
838.381	-0.18
838.55	0.04
838.72	1.51
838.89	1.08
839.059	-0.12
839.229	-0.95
839.398	0.6
839.568	-0.03
839.738	0.1
839.907	0.87
840.077	0.7
840.246	-0.85
840.416	-0.75
840.585	-0.65
840.755	1
840.924	0.76
841.093	-0.44
841.263	-0.14
841.432	0.44
841.602	-0.62
841.771	-0.4
841.94	-0.69
842.11	1.85
842.279	1.22
842.448	-0.89
842.617	-0.39
842.787	1.21
842.956	-0.96
843.125	0.74
843.294	0.1
843.464	1.02
843.633	-0.41
843.802	-0.57
843.971	0.27
844.14	0.58
844.309	0.88
844.479	-0.46
844.648	-0.52
844.817	-0.85
844.986	0.01
845.155	0.1
845.324	0.17
845.493	1.1
845.662	-0.33
845.831	0.55
846	0.02
846.169	-0.65
846.338	1.38
846.507	0.81
846.676	-0.39
846.844	-0.21
847.013	0.87
847.182	-0.26
847.351	-0.05
847.52	-0.33
847.689	-0.56
847.858	0.18
848.026	0.02
848.195	0.03
848.364	-0.44
848.533	-0.85
848.701	0.27
848.87	0.11
849.039	0.16
849.207	0.79
849.376	0.88
849.545	0.38
849.713	-0.72
849.882	-0.51
850.051	-0.21
850.219	-0.12
850.388	0.04
850.556	0.06
850.725	-1.4
850.893	0.11
851.062	0.29
851.23	0.17
851.399	-1.6
851.567	-0.07
851.736	-0.26
851.904	-1.01
852.073	0.15
852.241	0.66
852.41	1.14
852.578	0.32
852.746	-1.12
852.915	0.02
853.083	0.56
853.251	-0.78
853.42	-0.81
853.588	0.43
853.756	-0.05
853.924	-0.69
854.093	-0.22
854.261	-0.59
854.429	-1.44
854.597	0.36
854.765	-1.07
854.934	-0.44
855.102	0.86
855.27	0.33
855.438	0.85
855.606	1.59
855.774	0.81
855.942	-1.34
856.11	-1.3
856.278	-0.74
856.446	-0.57
856.614	-1.05
856.782	-0.15
856.95	1.19
857.118	-0.2
857.286	0.82
857.454	-0.78
857.622	0.67
857.79	1.75
857.958	-1.08
858.126	-1.06
858.294	-2.48
858.462	-0
858.629	-0.96
858.797	-1.51
858.965	1.38
859.133	-0.12
859.301	-0.04
859.468	0.21
859.636	-0.82
859.804	1.51
859.971	1.15
860.139	-1.12
860.307	-0.11
860.474	0.07
860.642	0.32
860.81	-1.37
860.977	0.62
861.145	0.63
861.313	-0.13
861.48	-0.4
861.648	-0.23
861.815	-0.42
861.983	-0.54
862.15	-0.3
862.318	1
862.485	1.07
862.653	-1.1
862.82	-1.39
862.988	1.63
863.155	-0.54
863.322	-0.35
863.49	-0.63
863.657	-1.71
863.824	1.45
863.992	0.8
864.159	-0.07
864.326	1.88
864.494	0.13
864.661	3.01
864.828	-1.63
864.996	0.71
865.163	0.9
865.33	-0.87
865.497	-2.22
865.664	-0.2
865.832	-1.12
865.999	0.68
866.166	-1.38
866.333	-1.15
866.5	-0.2
866.667	-0.33
866.834	-0.84
867.001	0.13
867.168	-0.67
867.335	-0.2
867.502	-1.16
867.669	-0
867.836	1.86
868.003	-0.68
868.17	1.36
868.337	0.4
868.504	2.6
868.671	-1.08
868.838	-1.2
869.005	-0.44
869.172	1.27
869.339	-0.19
869.505	-0.67
869.672	-1.05
869.839	1.52
870.006	-0.51
870.173	-1.64
870.339	1.65
870.506	1.09
870.673	1.29
870.84	0.2
871.006	0.17
871.173	0.84
871.34	0.27
871.506	-0.95
871.673	1.72
871.839	-2.03
872.006	-0.97
872.173	-0.91
872.339	0.84
872.506	-0.15
872.672	-0.92
872.839	-2.05
873.005	0.53
873.172	2.66
873.338	1.26
873.505	0.98
873.671	-0.27
873.838	1.62
874.004	-1.74
874.171	0.35
874.337	1.88
874.503	-0.28
874.67	-0.97
874.836	-0.85
875.002	2.45
875.169	2.43
875.335	-0.09
875.501	0.85
875.668	1.3
875.834	0.69
876	0.48
876.166	1.39
876.332	-0.79
876.499	3.28
876.665	-0.64
876.831	-0.75
876.997	1.92
877.163	0.16
877.329	0.11
877.495	-0.04
877.662	0.56
877.828	2.72
877.994	-0.08
878.16	-3.96
878.326	-0.69
878.492	0.2
878.658	0.77
878.824	1.3
878.99	1.04
879.156	-2.11
879.322	1.49
879.487	-0.34
879.653	0.93
879.819	1.26
879.985	-1.62
880.151	0.09
880.317	2.26
880.483	-0.66
880.648	0.16
880.814	-2.54
880.98	0.65
881.146	-1.37
881.312	0.41
881.477	-1.26
881.643	-0
881.809	2.73
881.974	2.51
882.14	-2.62
882.306	2.1
882.471	2.39
882.637	-1.08
882.803	1.14
882.968	2.5
883.134	3.89
883.299	0.72
883.465	-1.57
883.63	1.32
883.796	1.13
883.961	0.05
884.127	2.12
884.292	-2.45
884.458	-1.87
884.623	-1.87
