Data from Apollo_Calib_20240827__AbsoluteIrradiance__551__08-20-01-906.txt Node

Date: Wed Aug 28 08:20:01 BST 2024
User: biology
Spectrometer: FLMT08252
Trigger mode: 0
Integration Time (sec): 5.000000E-1
Scans to average: 5
Electric dark correction enabled: true
Nonlinearity correction enabled: false
Boxcar width: 0
XAxis mode: Wavelengths
Number of Pixels in Spectrum: 3648
>>>>>Begin Spectral Data<<<<<
179.588	-0
179.809	-0
180.03	-0
180.251	-0
180.473	-0
180.694	0
180.915	0
181.136	-0
181.357	0
181.578	-0
181.799	0
182.02	-0
182.241	-0
182.462	-0
182.683	0
182.904	-0
183.125	0
183.346	0
183.567	0
183.788	-0
184.009	-0
184.23	-0
184.451	-0
184.672	-0
184.892	-0
185.113	0
185.334	0
185.555	-0
185.776	-0
185.996	-0
186.217	0
186.438	-0
186.659	-0
186.879	0
187.1	-0
187.321	-0
187.541	-0
187.762	-0
187.983	0
188.203	-0
188.424	-0
188.644	-0
188.865	0
189.086	-0
189.306	-0
189.527	-0
189.747	-0
189.968	-0
190.188	0
190.409	-0
190.629	0
190.849	-0
191.07	-0
191.29	-0
191.511	-0
191.731	-0
191.951	-0
192.172	0
192.392	-0
192.612	-0
192.833	-0
193.053	0
193.273	0
193.493	-0
193.714	0
193.934	0
194.154	0
194.374	-0
194.594	-0
194.815	-0
195.035	0
195.255	-0
195.475	-0
195.695	0
195.915	0
196.135	0
196.355	0
196.575	0
196.795	0
197.015	-0
197.235	-0
197.455	-0
197.675	0
197.895	-0
198.115	-0
198.335	0
198.555	-0
198.775	0
198.995	0
199.214	0
199.434	-0
199.654	-0
199.874	-0
200.094	0.7
200.313	-0.94
200.533	-0.47
200.753	-0.93
200.973	0.79
201.192	0.07
201.412	-1.31
201.632	-0.04
201.851	0.81
202.071	-0.69
202.291	-0.67
202.51	-0.66
202.73	-0.26
202.95	-0.11
203.169	-0.69
203.389	0.01
203.608	0.16
203.828	-0.72
204.047	0.09
204.267	0.27
204.486	-0.16
204.706	0.06
204.925	-0.34
205.145	-0.31
205.364	0.05
205.583	0.34
205.803	-0.33
206.022	-0.61
206.242	0.01
206.461	-0.48
206.68	-0.41
206.9	-0.28
207.119	0.11
207.338	0.47
207.557	-0.03
207.777	-0.05
207.996	-0.14
208.215	0.13
208.434	-0.22
208.654	-0.34
208.873	0.03
209.092	0.21
209.311	-0.29
209.53	-0.19
209.749	0.06
209.968	-0.2
210.187	-0.1
210.407	-0.38
210.626	0.09
210.845	0.09
211.064	-0.37
211.283	-0.19
211.502	0.21
211.721	-0.27
211.94	-0.04
212.159	0.02
212.377	0.05
212.596	0.42
212.815	0.03
213.034	-0
213.253	0.35
213.472	0.07
213.691	-0.1
213.91	-0.43
214.128	-0.06
214.347	0.3
214.566	-0.36
214.785	-0.31
215.003	0.06
215.222	-0.01
215.441	0.03
215.66	-0.53
215.878	0.07
216.097	0.27
216.316	-0.35
216.534	0
216.753	-0.02
216.972	-0.04
217.19	-0.19
217.409	-0.15
217.627	-0.12
217.846	0.02
218.064	-0.01
218.283	-0.13
218.501	0.31
218.72	0.05
218.938	-0.21
219.157	-0.16
219.375	0.04
219.594	0.05
219.812	-0.25
220.031	-0.23
220.249	0.27
220.467	0.23
220.686	-0.21
220.904	-0.07
221.122	-0.21
221.341	0.19
221.559	0.03
221.777	-0.16
221.995	0.02
222.214	0.07
222.432	-0.02
222.65	-0.05
222.868	0
223.086	-0.02
223.305	0.12
223.523	0.02
223.741	0.2
223.959	-0.13
224.177	-0.23
224.395	-0.1
224.613	-0.02
224.831	0.03
225.049	-0.1
225.267	-0.11
225.485	0.04
225.703	0.02
225.921	-0.11
226.139	0
226.357	0.09
226.575	-0.12
226.793	-0.1
227.011	0.53
227.229	0.03
227.447	0.1
227.665	-0.18
227.883	-0.38
228.1	-0.04
228.318	0.01
228.536	-0.31
228.754	-0.16
228.972	-0.04
229.189	-0
229.407	-0.05
229.625	-0.11
229.843	0.13
230.06	-0.03
230.278	-0.05
230.496	-0.06
230.713	0
230.931	0.16
231.149	-0.09
231.366	-0.28
231.584	-0.01
231.801	0.26
232.019	-0.05
232.236	-0.1
232.454	-0.09
232.671	0.02
232.889	-0
233.106	-0.16
233.324	0.04
233.541	-0.09
233.759	-0.09
233.976	-0.1
234.194	-0.04
234.411	-0.01
234.628	-0.09
234.846	-0.01
235.063	-0.03
235.28	-0.09
235.498	-0.06
235.715	-0.16
235.932	0.06
236.149	-0.01
236.367	-0.14
236.584	-0.01
236.801	-0.04
237.018	0.02
237.236	-0.01
237.453	-0.1
237.67	0.08
237.887	-0.12
238.104	-0.1
238.321	-0.16
238.538	-0.09
238.755	0.02
238.973	-0.16
239.19	-0.01
239.407	0.08
239.624	0.03
239.841	-0.16
240.058	-0.14
240.275	0.08
240.492	-0.08
240.709	-0.06
240.925	-0.1
241.142	0.03
241.359	-0.11
241.576	-0.09
241.793	-0.1
242.01	0
242.227	0.08
242.444	0.02
242.66	0.04
242.877	-0.03
243.094	-0.13
243.311	0.03
243.527	0
243.744	-0.06
243.961	0.02
244.178	0.02
244.394	-0.03
244.611	0.08
244.828	0.09
245.044	-0.08
245.261	-0.07
245.477	0.02
245.694	0.14
245.911	-0.06
246.127	0.02
246.344	0.18
246.56	0.05
246.777	-0.04
246.993	0.01
247.21	0.05
247.426	0.12
247.643	-0
247.859	-0.03
248.076	-0.11
248.292	0.1
248.508	-0.03
248.725	-0.03
248.941	-0.03
249.157	0.08
249.374	-0.09
249.59	-0.05
249.806	-0.06
250.023	0.19
250.239	-0.07
250.455	-0.07
250.671	-0.04
250.888	-0.03
251.104	0.02
251.32	-0.07
251.536	-0.02
251.752	-0.05
251.969	-0.02
252.185	0.02
252.401	0.12
252.617	0.05
252.833	-0.05
253.049	0.04
253.265	-0.03
253.481	-0
253.697	-0.07
253.913	-0.08
254.129	-0.01
254.345	0.03
254.561	-0.02
254.777	-0.01
254.993	0.05
255.209	0.01
255.425	0.04
255.641	-0.13
255.857	0.06
256.073	0.02
256.288	-0.12
256.504	-0.04
256.72	-0.02
256.936	0.13
257.152	-0.04
257.367	-0.11
257.583	0
257.799	-0
258.015	-0.09
258.23	-0.09
258.446	0.1
258.662	-0
258.877	-0.09
259.093	-0.01
259.309	-0.03
259.524	0.01
259.74	-0.01
259.955	-0.08
260.171	-0.05
260.387	-0.06
260.602	0.1
260.818	0.05
261.033	-0.03
261.249	-0.1
261.464	0
261.68	-0.15
261.895	-0.05
262.11	0.01
262.326	-0.11
262.541	-0.15
262.757	0.01
262.972	-0.02
263.187	0.03
263.403	-0.04
263.618	0.07
263.833	-0.09
264.049	-0.08
264.264	-0.04
264.479	0.06
264.694	0.07
264.91	-0.08
265.125	-0.05
265.34	0
265.555	0.13
265.77	0.06
265.986	-0.07
266.201	0.05
266.416	-0
266.631	-0.02
266.846	-0.05
267.061	0.04
267.276	0.03
267.491	-0.16
267.706	0
267.921	0.06
268.136	0.04
268.351	-0
268.566	-0.08
268.781	0.13
268.996	0.02
269.211	0.02
269.426	-0.06
269.641	-0.03
269.856	0.01
270.071	-0.09
270.285	-0.08
270.5	0.03
270.715	0.05
270.93	-0.01
271.145	0
271.359	0.02
271.574	-0.1
271.789	0.01
272.004	-0.09
272.218	-0.07
272.433	0.04
272.648	-0.05
272.862	0.04
273.077	-0.05
273.292	-0.01
273.506	-0.07
273.721	-0.08
273.936	0.02
274.15	0.1
274.365	-0.03
274.579	-0
274.794	0.02
275.008	0.08
275.223	-0.08
275.437	-0.04
275.652	-0.02
275.866	0.03
276.081	0.02
276.295	0.06
276.509	0.03
276.724	-0.01
276.938	0.04
277.153	-0.01
277.367	0.08
277.581	-0.03
277.796	-0.02
278.01	-0.02
278.224	0.06
278.438	0.12
278.653	-0.07
278.867	-0.07
279.081	0.01
279.295	-0.08
279.51	-0.01
279.724	-0.11
279.938	0.05
280.152	0.04
280.366	-0.03
280.58	-0.01
280.794	0.1
281.008	-0.01
281.222	0.01
281.437	0.1
281.651	0.03
281.865	0.1
282.079	-0.02
282.293	-0.09
282.507	-0.03
282.721	-0
282.935	-0.01
283.148	-0.09
283.362	-0.02
283.576	-0.02
283.79	0
284.004	0
284.218	0.02
284.432	-0.05
284.646	-0.03
284.859	-0.01
285.073	-0.1
285.287	-0.04
285.501	-0.08
285.714	-0.09
285.928	-0.03
286.142	-0.02
286.356	-0.1
286.569	-0.05
286.783	0.08
286.997	0.02
287.21	0.05
287.424	0.08
287.637	-0.01
287.851	-0.03
288.065	0.05
288.278	-0.04
288.492	-0.07
288.705	-0.02
288.919	-0
289.132	-0.08
289.346	0.08
289.559	-0.06
289.773	-0.08
289.986	-0.06
290.2	-0.03
290.413	0.05
290.626	-0.06
290.84	-0.04
291.053	-0.02
291.267	0.04
291.48	-0.02
291.693	0.01
291.906	-0
292.12	-0.01
292.333	0.01
292.546	-0.01
292.76	0.01
292.973	0.01
293.186	0.04
293.399	-0.01
293.612	0.02
293.826	-0.02
294.039	-0.01
294.252	-0.01
294.465	0
294.678	0.05
294.891	-0
295.104	-0.06
295.317	-0.02
295.53	0.03
295.743	-0.01
295.956	-0.02
296.169	0.05
296.382	0.07
296.595	0.03
296.808	-0.04
297.021	0.06
297.234	0.04
297.447	-0.01
297.66	-0.04
297.873	0.05
298.086	0
298.299	-0.07
298.511	-0.05
298.724	-0
298.937	-0.04
299.15	-0.03
299.363	-0.03
299.575	0.05
299.788	0.04
300.001	-0.03
300.213	-0.02
300.426	-0
300.639	-0.02
300.852	-0.02
301.064	0.04
301.277	0.07
301.489	0.05
301.702	0.04
301.915	0
302.127	-0.02
302.34	0.03
302.552	0.03
302.765	0.01
302.977	0.05
303.19	-0.04
303.402	-0.07
303.615	-0.08
303.827	-0.02
304.04	-0.02
304.252	0.02
304.464	-0
304.677	0.09
304.889	0.06
305.102	-0.04
305.314	-0.04
305.526	0.02
305.739	0.04
305.951	-0.06
306.163	-0
306.375	0.05
306.588	-0.04
306.8	-0.01
307.012	-0.03
307.224	0.02
307.436	0.01
307.649	-0.07
307.861	0.02
308.073	0.06
308.285	0.01
308.497	-0.04
308.709	-0.01
308.921	0.02
309.133	0.08
309.346	-0.03
309.558	0.02
309.77	0.05
309.982	0.03
310.194	0.01
310.406	-0.06
310.617	0.06
310.829	0.01
311.041	0.03
311.253	-0.05
311.465	0.01
311.677	0.03
311.889	-0.03
312.101	-0.06
312.313	0.02
312.524	0.03
312.736	-0.05
312.948	-0.01
313.16	0.06
313.372	0.03
313.583	0.04
313.795	-0.04
314.007	-0.03
314.218	0.02
314.43	-0.01
314.642	-0.05
314.853	-0.05
315.065	0.02
315.277	-0.04
315.488	-0.01
315.7	0.04
315.912	-0.02
316.123	0
316.335	-0
316.546	0.08
316.758	-0.02
316.969	-0.04
317.181	0.01
317.392	-0.01
317.604	0.01
317.815	-0.04
318.026	-0.01
318.238	-0
318.449	-0.01
318.661	-0.08
318.872	-0.07
319.083	-0.04
319.295	0.02
319.506	0.03
319.717	0
319.929	0.02
320.14	-0.03
320.351	0.03
320.562	-0.01
320.774	-0.01
320.985	-0.01
321.196	-0.05
321.407	-0.09
321.618	0.02
321.829	0.01
322.041	0.05
322.252	0
322.463	0.02
322.674	0.03
322.885	-0.05
323.096	-0.01
323.307	-0.03
323.518	-0
323.729	-0.02
323.94	-0.07
324.151	-0.04
324.362	0.01
324.573	0.03
324.784	-0.03
324.995	0.05
325.206	0.01
325.417	-0.05
325.628	-0.04
325.838	-0.01
326.049	0
326.26	0.03
326.471	-0.03
326.682	0.01
326.892	-0
327.103	-0.06
327.314	-0.05
327.525	0.03
327.735	0.03
327.946	-0.03
328.157	-0.06
328.368	0.03
328.578	-0.01
328.789	0.03
328.999	-0.01
329.21	-0
329.421	0.01
329.631	-0.03
329.842	-0.02
330.052	0.05
330.263	-0
330.473	0.03
330.684	-0.01
330.894	-0.03
331.105	0.01
331.315	0
331.526	-0.07
331.736	0.1
331.947	-0.01
332.157	0
332.367	-0.04
332.578	0.02
332.788	0.07
332.999	0.02
333.209	-0.03
333.419	-0.05
333.629	0
333.84	0.05
334.05	0
334.26	0.06
334.47	-0.02
334.681	0.01
334.891	-0.02
335.101	0.04
335.311	0.1
335.521	-0
335.732	-0.03
335.942	0.07
336.152	0.02
336.362	0.04
336.572	0
336.782	0.02
336.992	-0.01
337.202	-0.02
337.412	-0.01
337.622	0.03
337.832	-0.02
338.042	-0.03
338.252	-0.03
338.462	-0.02
338.672	0
338.882	-0.02
339.092	-0.01
339.302	0.08
339.511	0
339.721	-0.04
339.931	-0.02
340.141	0.04
340.351	0.02
340.561	0.03
340.77	-0.02
340.98	0.01
341.19	-0
341.4	-0.04
341.609	-0.08
341.819	-0.01
342.029	-0.05
342.238	0.01
342.448	-0.03
342.658	0.02
342.867	0.03
343.077	0
343.286	-0.02
343.496	-0.01
343.706	0.08
343.915	-0.07
344.125	-0.01
344.334	0.03
344.544	-0.07
344.753	-0.01
344.963	-0.01
345.172	-0.01
345.381	-0.01
345.591	-0.06
345.8	-0.04
346.01	0.06
346.219	0.02
346.428	-0.15
346.638	-0
346.847	0.03
347.056	0.08
347.266	-0
347.475	-0.01
347.684	-0
347.893	0.02
348.103	-0.01
348.312	-0.05
348.521	-0.01
348.73	0
348.94	-0.01
349.149	-0.02
349.358	-0.04
349.567	-0
349.776	-0.05
349.985	-0.02
350.194	0.04
350.403	0.01
350.612	-0.05
350.821	-0.01
351.03	-0.01
351.239	-0.06
351.448	-0.02
351.657	-0.01
351.866	0.04
352.075	0.01
352.284	0.01
352.493	-0.03
352.702	0.02
352.911	-0.01
353.12	-0.03
353.329	0.02
353.538	0.04
353.746	-0.01
353.955	-0.03
354.164	-0.01
354.373	0.01
354.582	0.01
354.79	0.02
354.999	0.02
355.208	-0.01
355.416	0.07
355.625	-0.03
355.834	-0.01
356.042	0
356.251	-0.01
356.46	-0.03
356.668	0
356.877	0.07
357.085	0.01
357.294	-0.12
357.503	0.03
357.711	-0.04
357.92	0.11
358.128	-0.02
358.337	0.03
358.545	-0.01
358.754	-0.02
358.962	-0
359.17	-0.02
359.379	0.02
359.587	0.01
359.796	0.02
360.004	0.01
360.212	0.03
360.421	0.06
360.629	-0.04
360.837	-0.03
361.046	0.05
361.254	0.11
361.462	-0.01
361.67	0.03
361.879	-0.01
362.087	0.11
362.295	0.02
362.503	0
362.711	-0.07
362.92	-0.04
363.128	-0.06
363.336	-0.05
363.544	-0.1
363.752	-0.08
363.96	-0.07
364.168	-0.02
364.376	0.01
364.584	0.02
364.792	0.02
365	0.02
365.208	-0.01
365.416	0.01
365.624	0.03
365.832	-0.02
366.04	0.09
366.248	0.02
366.456	-0
366.664	0
366.872	-0
367.079	-0.03
367.287	0
367.495	0.01
367.703	0
367.911	-0.02
368.118	-0.04
368.326	-0.02
368.534	-0.03
368.742	0.05
368.949	-0.04
369.157	-0.01
369.365	0.05
369.572	0.01
369.78	-0.07
369.988	0.03
370.195	0.02
370.403	-0.02
370.61	-0.02
370.818	-0
371.026	0.05
371.233	-0.05
371.441	-0.03
371.648	-0.04
371.856	-0.01
372.063	-0.01
372.271	-0.03
372.478	-0
372.685	-0
372.893	0.05
373.1	-0
373.308	-0.04
373.515	0.05
373.722	0.03
373.93	-0.01
374.137	0.02
374.344	0.04
374.552	0.04
374.759	0.05
374.966	-0.02
375.173	-0
375.381	0.01
375.588	-0.02
375.795	-0.05
376.002	-0.01
376.209	-0.03
376.417	0
376.624	0.01
376.831	-0.01
377.038	-0.04
377.245	-0.09
377.452	-0.02
377.659	-0.03
377.866	-0.03
378.073	-0.01
378.28	-0
378.487	0.05
378.694	0.04
378.901	-0.04
379.108	-0.01
379.315	-0
379.522	0.07
379.729	0.01
379.936	-0.03
380.143	0.01
380.35	0
380.557	-0.06
380.763	-0.03
380.97	-0.02
381.177	-0.01
381.384	-0.02
381.591	-0.06
381.797	-0.02
382.004	0.01
382.211	0.02
382.418	-0.08
382.624	0.04
382.831	-0.01
383.038	-0.01
383.244	0.02
383.451	-0.03
383.658	0.02
383.864	-0.01
384.071	0.02
384.277	0.06
384.484	-0.03
384.69	-0.01
384.897	-0.02
385.103	0
385.31	-0.04
385.516	-0.02
385.723	0.01
385.929	-0.03
386.136	-0.03
386.342	0.01
386.549	-0.01
386.755	0.06
386.961	0.03
387.168	-0.01
387.374	0
387.58	0.01
387.787	-0
387.993	0.01
388.199	-0.02
388.406	-0.07
388.612	-0
388.818	-0.05
389.024	-0.03
389.231	0
389.437	0.04
389.643	0.03
389.849	-0.01
390.055	0.02
390.261	0
390.467	-0.01
390.674	-0.03
390.88	-0.01
391.086	0.02
391.292	-0.06
391.498	0
391.704	-0.03
391.91	-0.07
392.116	-0.02
392.322	-0.05
392.528	0.02
392.734	-0.06
392.94	-0.02
393.146	-0.03
393.352	-0.01
393.557	-0.02
393.763	0.01
393.969	-0.04
394.175	-0.03
394.381	0.01
394.587	-0.07
394.792	0.01
394.998	0.02
395.204	0.06
395.41	-0.02
395.615	0.04
395.821	0
396.027	0.02
396.233	-0
396.438	0.01
396.644	0.02
396.85	0.02
397.055	-0.01
397.261	0
397.466	0.06
397.672	0.01
397.878	0.02
398.083	0.02
398.289	-0.03
398.494	-0.01
398.7	0.03
398.905	-0.09
399.111	0.01
399.316	-0.03
399.522	-0.01
399.727	-0.01
399.932	-0.02
400.138	0.02
400.343	0.04
400.549	0.01
400.754	0
400.959	0.03
401.165	-0.01
401.37	-0.03
401.575	0.08
401.78	0.03
401.986	-0.04
402.191	-0.02
402.396	-0.03
402.601	0.02
402.807	0.03
403.012	0.01
403.217	0.03
403.422	0
403.627	0.01
403.832	-0.01
404.037	0.02
404.243	-0
404.448	-0.05
404.653	-0.01
404.858	-0.01
405.063	-0.02
405.268	-0.06
405.473	-0.04
405.678	-0.06
405.883	0.08
406.088	0.04
406.293	-0.07
406.498	-0.08
406.703	0.02
406.907	-0.03
407.112	-0.02
407.317	0.03
407.522	0.07
407.727	-0.05
407.932	-0.07
408.136	0.04
408.341	0.01
408.546	0.01
408.751	-0.04
408.956	-0.05
409.16	-0.03
409.365	-0
409.57	-0.04
409.774	-0.02
409.979	0.06
410.184	0.01
410.388	-0.08
410.593	0.03
410.798	-0.03
411.002	-0.05
411.207	0.03
411.411	-0.01
411.616	-0.02
411.82	-0.02
412.025	0
412.229	-0.01
412.434	0.08
412.638	0.04
412.843	-0.04
413.047	-0.02
413.252	-0.02
413.456	-0.01
413.66	0.01
413.865	-0.05
414.069	0.04
414.273	-0.03
414.478	0.01
414.682	-0.06
414.886	-0.03
415.091	-0.09
415.295	-0.1
415.499	0.01
415.703	-0.01
415.908	0.01
416.112	-0.14
416.316	0.01
416.52	0
416.724	-0.06
416.929	-0.02
417.133	0.04
417.337	-0.01
417.541	-0.04
417.745	0.02
417.949	0.01
418.153	0.02
418.357	-0.06
418.561	0.06
418.765	-0
418.969	0.09
419.173	0.02
419.377	-0.06
419.581	0.05
419.785	-0.08
419.989	-0.06
420.193	-0.05
420.397	-0.07
420.601	0.03
420.804	0.02
421.008	0.02
421.212	0.03
421.416	0.02
421.62	-0.07
421.823	0.02
422.027	0.05
422.231	-0.02
422.435	0.03
422.638	0.03
422.842	-0.01
423.046	-0.04
423.249	0.04
423.453	0.05
423.657	-0
423.86	-0.01
424.064	-0.01
424.268	0.06
424.471	-0.01
424.675	0.09
424.878	0.03
425.082	0.02
425.285	0.02
425.489	-0
425.692	-0.02
425.896	-0.06
426.099	0.02
426.303	-0.06
426.506	-0.07
426.71	-0.01
426.913	0.03
427.116	0.03
427.32	-0.02
427.523	-0.01
427.726	0.07
427.93	-0.09
428.133	0.02
428.336	-0.04
428.54	-0.08
428.743	0.04
428.946	0.02
429.149	-0.11
429.353	0
429.556	0
429.759	-0.05
429.962	-0.03
430.165	-0.07
430.368	0.02
430.571	-0.02
430.775	-0.02
430.978	-0.03
431.181	0
431.384	-0.02
431.587	-0.01
431.79	-0.01
431.993	-0.02
432.196	-0.02
432.399	-0.04
432.602	0.05
432.805	-0.05
433.008	-0.05
433.211	-0.1
433.414	-0.02
433.616	0.08
433.819	-0.01
434.022	-0.09
434.225	0.07
434.428	0.04
434.631	0.08
434.833	-0
435.036	-0.02
435.239	0.07
435.442	-0
435.645	-0.06
435.847	-0.02
436.05	0.02
436.253	0
436.455	-0.03
436.658	-0
436.861	-0.01
437.063	-0.04
437.266	-0.03
437.468	0
437.671	0.11
437.874	-0.01
438.076	-0.1
438.279	-0.06
438.481	0.02
438.684	-0.03
438.886	0.02
439.089	-0.08
439.291	-0.02
439.494	0.03
439.696	-0.05
439.899	-0.09
440.101	0.02
440.303	-0.1
440.506	-0.01
440.708	-0.03
440.91	0.02
441.113	-0.1
441.315	0.02
441.517	-0.03
441.72	0.04
441.922	-0
442.124	-0.09
442.326	0.03
442.529	0.06
442.731	-0.06
442.933	0.07
443.135	-0.02
443.337	-0.05
443.539	-0.05
443.742	0.01
443.944	0.02
444.146	-0.06
444.348	-0.01
444.55	-0.04
444.752	-0.04
444.954	-0.04
445.156	-0.03
445.358	-0.05
445.56	0.03
445.762	-0.05
445.964	-0.01
446.166	-0.04
446.368	-0.04
446.57	0.02
446.772	-0.01
446.974	-0.02
447.175	0.01
447.377	-0.04
447.579	-0.03
447.781	-0.05
447.983	0.03
448.184	-0.04
448.386	-0.04
448.588	-0.08
448.79	0.03
448.991	-0.03
449.193	-0.03
449.395	-0
449.597	0.02
449.798	0
450	-0.02
450.202	-0.02
450.403	-0.01
450.605	0.01
450.806	0.01
451.008	-0.05
451.21	-0.01
451.411	0.01
451.613	-0.06
451.814	-0.02
452.016	-0.02
452.217	-0.01
452.419	0.04
452.62	0
452.821	-0.02
453.023	0.03
453.224	0.01
453.426	-0.03
453.627	-0.02
453.828	0.02
454.03	0.01
454.231	-0
454.432	-0.05
454.634	0.04
454.835	-0.06
455.036	-0.07
455.238	0.02
455.439	0.04
455.64	-0.09
455.841	-0.04
456.042	0.1
456.244	0.01
456.445	-0.03
456.646	-0.11
456.847	-0.06
457.048	0.01
457.249	0.03
457.45	0.25
457.651	-0.05
457.852	0.03
458.054	0.02
458.255	-0.02
458.456	0.02
458.657	-0
458.858	-0.04
459.058	0.01
459.259	0.04
459.46	-0.03
459.661	-0.04
459.862	0.06
460.063	-0.01
460.264	0.03
460.465	-0.04
460.666	0.09
460.866	-0.05
461.067	-0.03
461.268	-0.03
461.469	-0.02
461.67	-0.02
461.87	0.02
462.071	-0.03
462.272	-0.04
462.473	-0.01
462.673	-0
462.874	-0.08
463.075	0.04
463.275	-0.1
463.476	0.02
463.676	-0.02
463.877	-0
464.078	-0.04
464.278	-0.02
464.479	-0.02
464.679	-0.05
464.88	-0.05
465.08	0.06
465.281	0.01
465.481	0.04
465.682	-0.01
465.882	0.01
466.083	0.01
466.283	0.02
466.483	-0.04
466.684	-0.06
466.884	-0.04
467.085	-0.04
467.285	0.01
467.485	-0.06
467.686	-0.03
467.886	-0.03
468.086	0.01
468.286	0.01
468.487	0
468.687	-0
468.887	-0
469.087	-0.01
469.287	-0.03
469.488	-0.04
469.688	0.02
469.888	0
470.088	0.01
470.288	0.04
470.488	0.04
470.688	-0.08
470.888	-0.04
471.088	-0.03
471.288	0.04
471.488	0.01
471.688	-0
471.888	-0.01
472.088	0.05
472.288	0.02
472.488	-0.03
472.688	-0.05
472.888	-0.01
473.088	0
473.288	0.01
473.488	-0
473.688	0.08
473.887	-0.02
474.087	-0.02
474.287	0.01
474.487	-0.07
474.687	0.03
474.886	-0
475.086	-0.02
475.286	0.02
475.486	0.09
475.685	-0
475.885	-0.02
476.085	-0.01
476.284	-0
476.484	-0.03
476.684	-0.01
476.883	0.05
477.083	0.02
477.282	0.02
477.482	0.07
477.681	0.04
477.881	0.01
478.08	-0.03
478.28	-0.02
478.479	0.04
478.679	0.05
478.878	-0.02
479.078	-0.04
479.277	-0.01
479.477	-0.02
479.676	0.05
479.875	0.02
480.075	-0.04
480.274	0.02
480.473	0.02
480.673	-0.04
480.872	0.02
481.071	0.03
481.271	0.01
481.47	-0.03
481.669	-0.02
481.868	-0.04
482.067	-0.05
482.267	-0.03
482.466	-0.02
482.665	-0.04
482.864	-0.04
483.063	-0.04
483.262	0
483.461	0.05
483.661	0.02
483.86	-0.02
484.059	0
484.258	-0
484.457	-0.01
484.656	0.01
484.855	0.06
485.054	-0.04
485.253	-0.02
485.452	-0.02
485.651	0
485.849	0.03
486.048	-0.04
486.247	-0.02
486.446	-0.01
486.645	-0.03
486.844	-0.02
487.043	-0.01
487.241	0
487.44	-0.04
487.639	-0
487.838	0.01
488.037	0
488.235	0.03
488.434	0.02
488.633	-0.02
488.831	0.02
489.03	0.02
489.229	0
489.427	-0.01
489.626	0.03
489.825	0.02
490.023	-0
490.222	-0.01
490.42	0.02
490.619	0.01
490.817	0
491.016	-0.01
491.214	0.03
491.413	-0.05
491.611	-0.01
491.81	0.01
492.008	0.03
492.207	0.03
492.405	-0.01
492.604	-0.03
492.802	-0.01
493	-0.01
493.199	-0.01
493.397	0.01
493.595	-0.01
493.794	-0.03
493.992	0.03
494.19	0
494.388	0.01
494.587	-0.03
494.785	-0
494.983	-0.04
495.181	-0.02
495.379	-0.01
495.578	-0.02
495.776	0
495.974	0.01
496.172	-0.04
496.37	-0.02
496.568	-0.03
496.766	-0.02
496.964	0.03
497.162	0.01
497.36	-0.02
497.558	-0
497.756	0.02
497.954	0
498.152	0
498.35	0
498.548	-0.02
498.746	0.01
498.944	-0.03
499.142	-0.02
499.34	-0.03
499.538	0.01
499.736	-0.04
499.933	0.04
500.131	0.01
500.329	-0
500.527	0.04
500.725	0.04
500.922	0
501.12	0.01
501.318	0.01
501.516	-0.01
501.713	-0
501.911	0
502.109	-0.03
502.306	0.01
502.504	-0.01
502.701	-0.01
502.899	-0.02
503.097	0.03
503.294	-0
503.492	-0.03
503.689	-0
503.887	0.02
504.084	0.02
504.282	-0
504.479	-0.03
504.677	-0.01
504.874	-0.03
505.072	-0.01
505.269	-0.01
505.466	0.02
505.664	0.02
505.861	-0.02
506.059	-0.04
506.256	0.02
506.453	0.01
506.651	0.03
506.848	0.02
507.045	-0
507.242	-0.02
507.44	-0.02
507.637	-0.01
507.834	0
508.031	0
508.229	-0.03
508.426	0
508.623	0
508.82	-0.02
509.017	-0.03
509.214	-0
509.411	-0.02
509.608	-0.03
509.805	-0.02
510.003	-0.01
510.2	-0
510.397	0
510.594	-0.02
510.791	-0.04
510.988	0.01
511.184	-0
511.381	0.01
511.578	-0
511.775	0.01
511.972	-0.02
512.169	-0.01
512.366	-0.01
512.563	0.01
512.76	-0.02
512.956	0.03
513.153	-0.01
513.35	0.01
513.547	-0.02
513.744	-0.03
513.94	-0.02
514.137	0.01
514.334	-0.02
514.53	0
514.727	-0
514.924	0.06
515.12	-0.03
515.317	-0.02
515.514	-0.03
515.71	-0.03
515.907	-0.01
516.103	-0
516.3	0.01
516.497	0.02
516.693	0.03
516.89	-0.01
517.086	-0.01
517.283	0.01
517.479	0.01
517.676	-0.01
517.872	-0
518.068	-0.03
518.265	-0.01
518.461	-0.03
518.658	-0.03
518.854	0
519.05	-0.01
519.247	-0.02
519.443	0.01
519.639	0.01
519.836	-0.01
520.032	-0.01
520.228	0.01
520.424	0.04
520.621	0.01
520.817	-0.01
521.013	0.01
521.209	0.01
521.405	0.01
521.601	0.01
521.798	-0.01
521.994	0.03
522.19	-0.02
522.386	-0.03
522.582	-0.01
522.778	-0.01
522.974	-0.02
523.17	-0
523.366	-0.02
523.562	0.03
523.758	0.01
523.954	-0
524.15	-0.05
524.346	0.01
524.542	-0.02
524.738	-0.01
524.934	-0.02
525.129	-0
525.325	0.01
525.521	-0.02
525.717	0.02
525.913	-0.01
526.109	0
526.304	-0.01
526.5	0.01
526.696	0.02
526.892	0
527.087	0.01
527.283	-0.04
527.479	-0
527.674	-0.03
527.87	0.01
528.066	-0.01
528.261	0
528.457	-0
528.653	-0.02
528.848	-0.02
529.044	0
529.239	-0
529.435	0
529.63	0.01
529.826	0.04
530.021	0.01
530.217	-0.01
530.412	-0.02
530.608	-0.02
530.803	0.01
530.999	0
531.194	-0.05
531.389	-0
531.585	-0.05
531.78	-0.01
531.975	-0.01
532.171	0.02
532.366	-0
532.561	-0.01
532.757	-0.04
532.952	-0.02
533.147	0
533.342	-0
533.538	-0.03
533.733	0.02
533.928	-0.01
534.123	-0.02
534.318	-0.03
534.513	-0.02
534.709	0.01
534.904	-0.02
535.099	-0.01
535.294	-0.01
535.489	0.02
535.684	-0
535.879	-0.03
536.074	-0.01
536.269	-0.03
536.464	0.01
536.659	-0.02
536.854	-0.02
537.049	-0.01
537.244	-0
537.439	-0.01
537.634	0
537.828	-0
538.023	-0.02
538.218	-0.03
538.413	0
538.608	-0.02
538.803	0.03
538.997	-0.04
539.192	0
539.387	-0
539.582	0.02
539.776	-0
539.971	-0.01
540.166	-0.03
540.36	-0.02
540.555	-0.01
540.75	-0.01
540.944	-0
541.139	-0.05
541.334	-0.01
541.528	0.02
541.723	0.01
541.917	-0.01
542.112	-0.06
542.306	-0.02
542.501	-0.01
542.695	-0.01
542.89	-0.02
543.084	-0.01
543.279	-0.02
543.473	-0.03
543.668	0
543.862	-0
544.056	0
544.251	-0.02
544.445	-0.01
544.64	-0
544.834	-0.05
545.028	-0.02
545.222	0.02
545.417	0.02
545.611	-0
545.805	-0
546	-0.02
546.194	-0.01
546.388	-0.04
546.582	0.03
546.776	0
546.97	0
547.165	0.01
547.359	0
547.553	-0.01
547.747	-0.01
547.941	-0.03
548.135	-0.01
548.329	0.01
548.523	0.01
548.717	-0.01
548.911	-0.02
549.105	-0
549.299	-0
549.493	0
549.687	0.01
549.881	-0
550.075	-0.02
550.269	-0.04
550.463	-0
550.657	-0.01
550.85	0.02
551.044	-0.03
551.238	0
551.432	-0.03
551.626	-0.05
551.82	-0.01
552.013	-0.03
552.207	-0.02
552.401	0.02
552.594	-0.01
552.788	-0.01
552.982	-0.01
553.176	-0.02
553.369	-0
553.563	0.02
553.756	-0.02
553.95	-0.02
554.144	-0.01
554.337	0.03
554.531	-0.01
554.724	-0.01
554.918	-0
555.111	0.03
555.305	-0.01
555.498	0.06
555.692	0.01
555.885	-0.03
556.079	-0
556.272	-0.04
556.466	0
556.659	0.01
556.852	-0.03
557.046	-0.02
557.239	0.01
557.432	-0.03
557.626	-0.02
557.819	0.01
558.012	0.03
558.206	0.01
558.399	-0.02
558.592	0.03
558.785	-0
558.979	0.01
559.172	0
559.365	0.01
559.558	-0
559.751	-0
559.944	0.02
560.138	0
560.331	-0.01
560.524	-0.01
560.717	-0.01
560.91	-0.01
561.103	0.03
561.296	-0
561.489	0.01
561.682	-0.02
561.875	0
562.068	0.02
562.261	0
562.454	0.01
562.647	0.02
562.84	0.01
563.032	-0
563.225	0.01
563.418	0.01
563.611	-0.01
563.804	0
563.997	-0.02
564.19	-0.03
564.382	-0.07
564.575	-0.01
564.768	-0.01
564.961	-0
565.153	-0.01
565.346	0.02
565.539	0.04
565.731	0
565.924	0.01
566.117	0.01
566.309	-0.02
566.502	-0.03
566.695	-0.01
566.887	-0
567.08	-0.02
567.272	-0.02
567.465	-0.02
567.657	0.01
567.85	0.04
568.042	0.02
568.235	0.04
568.427	-0
568.62	-0.01
568.812	0
569.005	0
569.197	-0.03
569.389	-0
569.582	0.01
569.774	-0.01
569.966	-0.05
570.159	-0.04
570.351	-0
570.543	-0
570.736	-0
570.928	-0.05
571.12	0.02
571.312	-0.01
571.505	-0.03
571.697	0.02
571.889	-0.04
572.081	-0.02
572.273	-0.03
572.465	0.02
572.658	0
572.85	-0
573.042	-0.04
573.234	-0.01
573.426	0.01
573.618	-0.03
573.81	0.01
574.002	0.05
574.194	0.03
574.386	-0.04
574.578	-0.06
574.77	-0.04
574.962	-0.01
575.154	-0.03
575.346	-0.01
575.538	0.02
575.729	0
575.921	-0.02
576.113	-0.02
576.305	0.01
576.497	-0.02
576.689	-0.05
576.88	-0.03
577.072	-0
577.264	-0.02
577.456	-0.01
577.647	-0.04
577.839	0.01
578.031	0.02
578.223	-0.04
578.414	-0.04
578.606	0.01
578.798	0
578.989	-0.03
579.181	-0
579.372	-0
579.564	-0.01
579.755	-0
579.947	0.01
580.139	-0.02
580.33	-0.07
580.522	-0.01
580.713	-0.06
580.905	0.01
581.096	0.01
581.287	0.01
581.479	0
581.67	0.01
581.862	-0.01
582.053	-0.01
582.244	-0.04
582.436	-0.01
582.627	-0.01
582.818	-0.02
583.01	-0.04
583.201	-0.01
583.392	0.02
583.583	-0.02
583.775	-0.01
583.966	-0.01
584.157	-0.02
584.348	-0.03
584.54	-0.04
584.731	0.02
584.922	-0.01
585.113	-0.03
585.304	-0.01
585.495	0.02
585.686	0
585.877	0.03
586.068	-0
586.259	0.02
586.45	0.01
586.641	-0.04
586.832	-0.04
587.023	-0.03
587.214	-0.02
587.405	-0.01
587.596	-0.03
587.787	0.05
587.978	-0.01
588.169	-0.02
588.36	-0.01
588.551	-0.02
588.742	-0.03
588.932	0.03
589.123	-0.01
589.314	-0.01
589.505	-0
589.696	0.01
589.886	-0.03
590.077	-0.04
590.268	-0
590.458	-0.04
590.649	-0.03
590.84	0.05
591.03	-0.05
591.221	-0.04
591.412	-0.05
591.602	-0.01
591.793	0.03
591.984	-0.06
592.174	-0.03
592.365	0.05
592.555	-0.01
592.746	0
592.936	-0
593.127	0.01
593.317	0.02
593.508	-0.05
593.698	-0.03
593.889	0.01
594.079	-0.01
594.269	-0.02
594.46	-0.01
594.65	-0.02
594.84	0
595.031	-0.03
595.221	-0.02
595.411	-0.05
595.602	0.03
595.792	-0.01
595.982	-0.04
596.172	0.07
596.363	0
596.553	0.01
596.743	-0
596.933	-0
597.123	0.02
597.314	-0.06
597.504	-0.03
597.694	0.01
597.884	-0.01
598.074	0.01
598.264	-0.01
598.454	-0.01
598.644	0.01
598.834	-0.01
599.024	-0.06
599.214	-0.05
599.404	0.02
599.594	-0.02
599.784	-0.04
599.974	0.04
600.164	0.01
600.354	-0.04
600.544	-0.03
600.734	-0.01
600.924	0.02
601.114	-0.02
601.303	-0.01
601.493	0
601.683	0.01
601.873	0
602.063	-0.04
602.252	0.01
602.442	-0.05
602.632	-0.04
602.821	-0.02
603.011	-0
603.201	-0.02
603.39	-0.02
603.58	-0.03
603.77	0
603.959	0
604.149	-0.01
604.339	-0.01
604.528	0.03
604.718	0.02
604.907	-0
605.097	-0.03
605.286	-0.05
605.476	0.01
605.665	0.02
605.855	0.01
606.044	0.04
606.234	-0.02
606.423	-0.01
606.612	-0.03
606.802	0.01
606.991	0.03
607.181	0
607.37	-0.03
607.559	-0.01
607.749	-0.03
607.938	0.03
608.127	-0.01
608.316	-0.02
608.506	0.01
608.695	-0.02
608.884	-0.03
609.073	0.01
609.263	0.03
609.452	0.03
609.641	0.02
609.83	-0.03
610.019	0.01
610.208	-0.04
610.397	0.02
610.586	0.02
610.775	-0.02
610.965	-0.02
611.154	-0.01
611.343	0.01
611.532	0.02
611.721	-0.05
611.91	-0.02
612.099	0.01
612.287	-0.01
612.476	-0.01
612.665	0.03
612.854	-0.04
613.043	0.02
613.232	-0.02
613.421	-0.05
613.61	-0
613.798	0
613.987	0.03
614.176	-0
614.365	0.02
614.554	0
614.742	0.02
614.931	-0.02
615.12	0.04
615.309	-0
615.497	0.02
615.686	0.01
615.875	-0
616.063	0.01
616.252	0
616.44	0
616.629	0.02
616.818	0.04
617.006	0.01
617.195	0.01
617.383	0.02
617.572	0
617.76	-0.01
617.949	-0.01
618.137	0.05
618.326	0.03
618.514	-0.03
618.703	0
618.891	0.04
619.079	-0.02
619.268	0.03
619.456	-0.01
619.644	0.06
619.833	0.03
620.021	0
620.209	-0.03
620.398	0.04
620.586	0.03
620.774	0.04
620.962	0.02
621.151	0.05
621.339	0.03
621.527	0
621.715	-0.02
621.903	0
622.092	-0.01
622.28	0.03
622.468	0.02
622.656	0.02
622.844	0.05
623.032	0.03
623.22	-0.04
623.408	0.06
623.596	0.02
623.784	0.05
623.972	0.01
624.16	-0
624.348	0.07
624.536	0.04
624.724	0
624.912	0.06
625.1	0.07
625.288	-0.01
625.476	-0
625.664	0.07
625.851	-0.04
626.039	0.01
626.227	0.05
626.415	0.01
626.603	-0.02
626.79	0.06
626.978	0.07
627.166	0.07
627.354	0.07
627.541	-0.01
627.729	0.01
627.917	0.06
628.104	0.11
628.292	0.04
628.48	0.05
628.667	0.05
628.855	0.08
629.042	0.06
629.23	0.05
629.418	0.04
629.605	0.08
629.793	0.02
629.98	0.04
630.168	0.04
630.355	0.05
630.543	0.06
630.73	0.05
630.917	0.09
631.105	0.14
631.292	0.05
631.48	0.06
631.667	0.13
631.854	0.09
632.042	0.06
632.229	0.04
632.416	0.12
632.604	0.07
632.791	0.05
632.978	0.11
633.165	0.08
633.353	0.14
633.54	0.13
633.727	0.05
633.914	0.08
634.101	0.13
634.289	0.12
634.476	0.08
634.663	0.05
634.85	0.12
635.037	0.04
635.224	0.06
635.411	0.13
635.598	0.15
635.785	0.12
635.972	0.13
636.159	0.15
636.346	0.08
636.533	0.1
636.72	0.12
636.907	0.07
637.094	0.16
637.281	0.11
637.468	0.15
637.655	0.12
637.842	0.11
638.029	0.1
638.215	0.15
638.402	0.14
638.589	0.11
638.776	0.12
638.963	0.11
639.149	0.2
639.336	0.2
639.523	0.18
639.709	0.17
639.896	0.15
640.083	0.22
640.27	0.19
640.456	0.16
640.643	0.2
640.829	0.12
641.016	0.19
641.203	0.15
641.389	0.23
641.576	0.18
641.762	0.2
641.949	0.15
642.135	0.2
642.322	0.22
642.508	0.14
642.695	0.23
642.881	0.2
643.068	0.18
643.254	0.22
643.441	0.26
643.627	0.22
643.813	0.2
644	0.23
644.186	0.23
644.372	0.31
644.559	0.31
644.745	0.25
644.931	0.25
645.118	0.27
645.304	0.29
645.49	0.25
645.676	0.29
645.862	0.29
646.049	0.32
646.235	0.29
646.421	0.4
646.607	0.38
646.793	0.31
646.979	0.29
647.165	0.34
647.352	0.35
647.538	0.39
647.724	0.39
647.91	0.39
648.096	0.39
648.282	0.42
648.468	0.38
648.654	0.41
648.84	0.45
649.026	0.41
649.212	0.43
649.397	0.41
649.583	0.41
649.769	0.46
649.955	0.47
650.141	0.48
650.327	0.54
650.513	0.42
650.698	0.55
650.884	0.44
651.07	0.55
651.256	0.5
651.442	0.54
651.627	0.54
651.813	0.57
651.999	0.54
652.184	0.57
652.37	0.58
652.556	0.54
652.741	0.59
652.927	0.52
653.113	0.63
653.298	0.64
653.484	0.58
653.669	0.6
653.855	0.62
654.04	0.7
654.226	0.66
654.412	0.67
654.597	0.61
654.782	0.72
654.968	0.7
655.153	0.75
655.339	0.73
655.524	0.73
655.71	0.78
655.895	0.73
656.08	0.75
656.266	0.79
656.451	0.75
656.636	0.74
656.822	0.78
657.007	0.7
657.192	0.8
657.378	0.75
657.563	0.78
657.748	0.84
657.933	0.8
658.118	0.76
658.304	0.77
658.489	0.79
658.674	0.75
658.859	0.74
659.044	0.74
659.229	0.75
659.414	0.71
659.599	0.71
659.785	0.66
659.97	0.69
660.155	0.68
660.34	0.71
660.525	0.65
660.71	0.63
660.895	0.63
661.08	0.6
661.264	0.57
661.449	0.64
661.634	0.55
661.819	0.56
662.004	0.5
662.189	0.44
662.374	0.49
662.559	0.39
662.743	0.36
662.928	0.43
663.113	0.39
663.298	0.33
663.483	0.39
663.667	0.39
663.852	0.31
664.037	0.39
664.221	0.28
664.406	0.35
664.591	0.32
664.775	0.29
664.96	0.26
665.145	0.28
665.329	0.26
665.514	0.24
665.698	0.19
665.883	0.14
666.068	0.25
666.252	0.2
666.437	0.17
666.621	0.21
666.806	0.2
666.99	0.16
667.174	0.13
667.359	0.24
667.543	0.14
667.728	0.17
667.912	0.07
668.096	0.16
668.281	0.09
668.465	0.13
668.649	0.15
668.834	0.12
669.018	0.1
669.202	0.14
669.387	0.06
669.571	0.14
669.755	0.06
669.939	0.1
670.124	0.06
670.308	0.12
670.492	0.08
670.676	0.05
670.86	0.08
671.044	0.03
671.228	0.11
671.413	-0
671.597	0.03
671.781	0
671.965	0.06
672.149	0.05
672.333	0.02
672.517	0.05
672.701	0.11
672.885	0.03
673.069	-0
673.253	0.1
673.437	0.04
673.621	0
673.804	0.02
673.988	0
674.172	0.05
674.356	0.01
674.54	0.03
674.724	0.11
674.908	0.03
675.091	0.08
675.275	0.04
675.459	0.09
675.643	0.11
675.826	0.04
676.01	0.04
676.194	0.01
676.377	0.08
676.561	0.05
676.745	0.06
676.928	0.03
677.112	0.06
677.296	0.01
677.479	0.04
677.663	-0.02
677.846	0.04
678.03	0.02
678.213	0.02
678.397	0.02
678.58	-0.01
678.764	-0.01
678.947	-0
679.131	-0.07
679.314	0.09
679.498	0.02
679.681	0.06
679.865	0.07
680.048	0.01
680.231	-0.01
680.415	0.02
680.598	0.01
680.781	-0.05
680.965	-0.05
681.148	0.01
681.331	-0
681.514	0.04
681.698	-0.02
681.881	-0.02
682.064	0
682.247	0.01
682.43	-0.05
682.614	-0
682.797	0
682.98	0.05
683.163	-0.04
683.346	0.03
683.529	-0.04
683.712	-0.09
683.895	0.02
684.078	-0.07
684.261	-0.01
684.444	0.01
684.627	0.07
684.81	-0.05
684.993	0.01
685.176	-0.01
685.359	-0.01
685.542	-0
685.725	0.07
685.908	0.03
686.091	-0.01
686.274	0.01
686.457	0.05
686.639	-0.03
686.822	0.06
687.005	0
687.188	0.01
687.371	0.1
687.553	0
687.736	0.02
687.919	0.05
688.102	0.06
688.284	-0.03
688.467	0.01
688.65	-0.02
688.832	-0.03
689.015	-0.02
689.197	-0.06
689.38	0.1
689.563	0.08
689.745	-0.01
689.928	-0.05
690.11	0.01
690.293	0
690.475	-0.08
690.658	0.03
690.84	-0.03
691.023	-0.04
691.205	-0.01
691.388	0.01
691.57	0.05
691.752	0.03
691.935	-0.08
692.117	-0.02
692.3	-0
692.482	-0
692.664	-0
692.847	-0.04
693.029	-0.01
693.211	-0
693.393	-0.05
693.576	-0.09
693.758	0
693.94	-0.03
694.122	-0.05
694.304	0.01
694.487	-0.02
694.669	0.04
694.851	-0.03
695.033	0.02
695.215	-0.07
695.397	-0.03
695.579	0.01
695.761	-0.07
695.943	-0.07
696.125	0.03
696.308	0.01
696.49	-0.11
696.671	0.01
696.853	-0.04
697.035	0.06
697.217	-0.04
697.399	0.01
697.581	-0.03
697.763	0.01
697.945	-0.06
698.127	-0.03
698.309	0.09
698.491	0.02
698.672	0.03
698.854	0.03
699.036	0.04
699.218	-0.01
699.399	0.05
699.581	0.03
699.763	-0.06
699.945	-0.05
700.126	-0.08
700.308	0.02
700.49	-0.05
700.671	-0.06
700.853	-0.09
701.035	-0.05
701.216	-0.01
701.398	-0.07
701.579	-0.05
701.761	0.01
701.943	-0.04
702.124	-0.03
702.306	0.02
702.487	0.13
702.669	-0.01
702.85	-0.02
703.031	-0.05
703.213	0.05
703.394	0.04
703.576	-0.03
703.757	0.13
703.938	0.06
704.12	0.09
704.301	-0.04
704.483	-0.04
704.664	0.03
704.845	0.05
705.026	-0
705.208	-0.03
705.389	-0.01
705.57	-0
705.751	-0.02
705.933	-0.01
706.114	-0
706.295	-0.04
706.476	-0.04
706.657	0.05
706.838	0.02
707.02	0.05
707.201	-0.06
707.382	-0.04
707.563	0
707.744	-0.04
707.925	-0.04
708.106	-0.04
708.287	0.04
708.468	0.08
708.649	-0.07
708.83	-0.05
709.011	-0.04
709.192	0.03
709.373	-0.05
709.554	-0.06
709.734	0
709.915	0.02
710.096	0
710.277	-0.14
710.458	-0.07
710.639	-0.05
710.819	-0.12
711	-0.06
711.181	0.07
711.362	0.05
711.542	0.01
711.723	-0.02
711.904	0.17
712.085	0.07
712.265	-0
712.446	-0.07
712.627	-0.11
712.807	0.01
712.988	-0.03
713.168	-0.1
713.349	0.05
713.53	-0.11
713.71	-0.08
713.891	-0.14
714.071	-0.02
714.252	-0.08
714.432	-0.03
714.613	-0.08
714.793	0.01
714.974	0.03
715.154	0.05
715.334	0.05
715.515	0.05
715.695	-0.08
715.876	0
716.056	-0.03
716.236	0.03
716.417	-0.05
716.597	-0.05
716.777	0.14
716.957	-0.01
717.138	-0.05
717.318	-0.01
717.498	-0.03
717.678	0.08
717.859	-0.02
718.039	-0.12
718.219	0.01
718.399	0.03
718.579	-0.12
718.759	-0.1
718.939	0.01
719.12	0.03
719.3	0.1
719.48	-0.23
719.66	-0.11
719.84	0.13
720.02	-0.03
720.2	-0.02
720.38	-0.03
720.56	0.08
720.74	-0.03
720.92	-0.02
721.1	-0.01
721.279	0.06
721.459	-0.07
721.639	-0.11
721.819	0.01
721.999	-0.07
722.179	0.02
722.359	-0.1
722.538	0
722.718	0.06
722.898	-0.04
723.078	0.02
723.257	-0.02
723.437	-0.04
723.617	0
723.797	0.01
723.976	-0.03
724.156	0
724.336	0.03
724.515	0.03
724.695	-0.15
724.874	0.01
725.054	0.09
725.234	-0.02
725.413	0.03
725.593	-0.07
725.772	-0.02
725.952	0.01
726.131	-0.04
726.311	-0.06
726.49	-0.02
726.67	-0.09
726.849	-0.01
727.028	-0.01
727.208	-0.04
727.387	0.08
727.567	-0.09
727.746	-0.06
727.925	-0.13
728.105	-0.17
728.284	-0.07
728.463	-0.09
728.643	0.08
728.822	-0.01
729.001	-0.07
729.18	-0.01
729.359	0.01
729.539	-0.03
729.718	0.02
729.897	0.06
730.076	-0.07
730.255	-0.08
730.434	0.01
730.614	0.03
730.793	0.03
730.972	-0.02
731.151	0.01
731.33	0.09
731.509	-0.01
731.688	-0
731.867	-0
732.046	-0.19
732.225	0.13
732.404	-0.06
732.583	-0.11
732.762	-0.05
732.941	0.12
733.12	0.03
733.298	-0.07
733.477	0.01
733.656	-0.04
733.835	-0.22
734.014	0.07
734.193	-0.03
734.371	0.04
734.55	-0
734.729	-0.13
734.908	-0.01
735.086	-0
735.265	0.09
735.444	-0.17
735.623	-0.12
735.801	-0.14
735.98	0.02
736.159	-0.1
736.337	0.04
736.516	0.03
736.694	-0.02
736.873	-0.04
737.052	0
737.23	0.1
737.409	-0.15
737.587	0.22
737.766	-0.24
737.944	-0.17
738.123	0.06
738.301	-0.07
738.479	-0.04
738.658	0.01
738.836	-0.2
739.015	-0.01
739.193	0.1
739.371	-0.08
739.55	-0.07
739.728	-0.12
739.906	0.1
740.085	0.06
740.263	-0.05
740.441	-0.14
740.62	0.13
740.798	0.06
740.976	-0.07
741.154	-0.06
741.332	0.02
741.511	-0.04
741.689	-0.03
741.867	-0
742.045	-0.02
742.223	0.01
742.401	-0.22
742.579	-0.16
742.757	-0.02
742.935	-0.16
743.114	-0.1
743.292	0.09
743.47	-0.11
743.648	-0.05
743.826	-0.14
744.004	-0.11
744.181	0.05
744.359	-0.01
744.537	0.11
744.715	-0.04
744.893	-0.01
745.071	0
745.249	-0.14
745.427	-0.09
745.605	-0.06
745.782	0.02
745.96	0.01
746.138	0.07
746.316	-0.02
746.493	-0.05
746.671	-0.06
746.849	-0.05
747.027	0.16
747.204	-0.07
747.382	0.09
747.56	-0.08
747.737	0.03
747.915	-0.13
748.093	-0.02
748.27	-0.14
748.448	-0.07
748.625	-0.12
748.803	-0.14
748.98	-0.11
749.158	-0.01
749.335	0.1
749.513	-0.01
749.69	-0.03
749.868	-0.09
750.045	0.13
750.223	-0.08
750.4	-0.18
750.578	0.19
750.755	-0.04
750.932	-0.13
751.11	0.11
751.287	-0.13
751.464	0.03
751.642	0.07
751.819	0.02
751.996	-0.02
752.173	0.04
752.351	-0.17
752.528	0.16
752.705	0.03
752.882	0.01
753.06	0.11
753.237	0.13
753.414	0.12
753.591	0.13
753.768	-0.03
753.945	0.02
754.122	-0.05
754.299	0
754.476	-0.19
754.654	0.05
754.831	0.11
755.008	-0.04
755.185	-0.01
755.362	-0.08
755.539	0.13
755.716	-0.12
755.892	-0.1
756.069	-0.01
756.246	-0.13
756.423	-0.01
756.6	0.11
756.777	0.01
756.954	0.1
757.131	-0.08
757.307	-0.14
757.484	-0.11
757.661	-0.06
757.838	-0.05
758.015	-0.07
758.191	0.13
758.368	-0.01
758.545	0.03
758.721	-0.01
758.898	-0.2
759.075	0.03
759.251	0.11
759.428	0.16
759.605	-0.1
759.781	0.01
759.958	0.09
760.134	-0.06
760.311	-0.1
760.488	0.04
760.664	-0
760.841	-0.13
761.017	-0.06
761.194	0.02
761.37	0
761.547	0.02
761.723	0.01
761.899	0.09
762.076	-0.07
762.252	-0.09
762.429	-0
762.605	0.03
762.781	-0.05
762.958	0.06
763.134	-0.04
763.31	-0.06
763.486	0.11
763.663	-0.19
763.839	-0.09
764.015	-0.09
764.191	-0.05
764.368	-0.03
764.544	-0.06
764.72	-0
764.896	-0.03
765.072	0.04
765.248	-0.02
765.425	-0.01
765.601	0.01
765.777	-0.05
765.953	-0.16
766.129	-0.19
766.305	-0.08
766.481	-0.04
766.657	0.03
766.833	0.2
767.009	-0.14
767.185	-0.02
767.361	-0.02
767.537	-0.19
767.713	0
767.889	-0.04
768.065	-0.04
768.24	0.01
768.416	0.05
768.592	-0.09
768.768	-0
768.944	0
769.12	-0.23
769.295	-0.14
769.471	-0.12
769.647	-0.12
769.823	0.01
769.998	0
770.174	-0.17
770.35	0.22
770.525	0.23
770.701	0.05
770.877	0.13
771.052	-0.09
771.228	0.1
771.403	-0.01
771.579	0.08
771.755	0.25
771.93	0.01
772.106	-0.12
772.281	-0.17
772.457	-0.04
772.632	-0.11
772.808	-0.06
772.983	0.05
773.159	-0.24
773.334	0.17
773.509	-0.12
773.685	-0.06
773.86	0.26
774.036	0.09
774.211	-0.04
774.386	-0.04
774.562	-0
774.737	-0.11
774.912	-0.1
775.087	0.16
775.263	0.1
775.438	-0
775.613	-0.11
775.788	0.07
775.964	0.17
776.139	0.36
776.314	-0.15
776.489	0.04
776.664	-0.03
776.839	-0.19
777.014	0.06
777.19	0.07
777.365	0.17
777.54	0.2
777.715	-0.04
777.89	-0.02
778.065	-0.18
778.24	-0.02
778.415	0.09
778.59	-0.07
778.765	-0.05
778.94	-0.02
779.115	-0.09
779.289	-0.05
779.464	-0.11
779.639	0.01
779.814	-0.2
779.989	-0.3
780.164	0.02
780.339	0.09
780.513	-0.17
780.688	-0.1
780.863	0.09
781.038	-0.01
781.212	-0.15
781.387	-0.09
781.562	0.31
781.737	-0
781.911	0.14
782.086	-0.14
782.261	0.05
782.435	0.22
782.61	-0.04
782.784	-0
782.959	0.16
783.134	-0.03
783.308	-0.13
783.483	-0.03
783.657	0.25
783.832	0.11
784.006	-0.31
784.181	-0.14
784.355	0.11
784.53	-0.24
784.704	-0.1
784.878	0.27
785.053	-0.11
785.227	-0.09
785.402	0.44
785.576	-0.04
785.75	0.06
785.925	-0.13
786.099	-0.23
786.273	0.15
786.448	0.16
786.622	0.21
786.796	-0.03
786.97	-0.25
787.145	0.38
787.319	-0.24
787.493	-0.3
787.667	-0.08
787.841	-0.03
788.015	0.09
788.19	-0.19
788.364	0.11
788.538	0.21
788.712	0.29
788.886	-0.07
789.06	-0.05
789.234	0.05
789.408	-0.23
789.582	0.01
789.756	-0.07
789.93	-0.16
790.104	-0.11
790.278	-0.15
790.452	-0.22
790.626	-0.07
790.8	-0.12
790.973	0.08
791.147	0.31
791.321	0.03
791.495	0.06
791.669	-0.02
791.843	0.14
792.016	0.24
792.19	0.24
792.364	-0.09
792.538	0.25
792.711	0.11
792.885	-0.16
793.059	-0.2
793.233	-0.43
793.406	0.2
793.58	0.07
793.754	0.06
793.927	-0.1
794.101	0.24
794.274	-0.18
794.448	0.18
794.622	-0.04
794.795	0.13
794.969	-0.27
795.142	0.27
795.316	-0.03
795.489	-0.09
795.663	0.28
795.836	-0.03
796.009	-0.32
796.183	0.24
796.356	0.18
796.53	0.02
796.703	-0.06
796.876	0.64
797.05	-0.04
797.223	-0.35
797.396	-0.04
797.57	0.09
797.743	0.26
797.916	-0.15
798.09	-0.12
798.263	-0.12
798.436	0.11
798.609	0.14
798.782	-0.19
798.956	-0.1
799.129	0.02
799.302	-0.1
799.475	-0.21
799.648	-0.22
799.821	-0.22
799.994	0.2
800.167	-0.49
800.34	-0.14
800.514	0.01
800.687	-0.12
800.86	-0.24
801.033	0.08
801.206	0.08
801.379	-0.44
801.551	0
801.724	0.2
801.897	-0.1
802.07	-0.16
802.243	-0.34
802.416	0.09
802.589	-0.17
802.762	-0.14
802.935	0.2
803.107	0.06
803.28	0.29
803.453	-0.02
803.626	-0.36
803.798	-0.07
803.971	-0.14
804.144	0.2
804.317	0.22
804.489	0.24
804.662	-0.11
804.835	-0.04
805.007	-0.26
805.18	0.26
805.353	0.04
805.525	-0.19
805.698	-0.36
805.87	0.37
806.043	0.11
806.215	-0.25
806.388	-0.33
806.56	-0.19
806.733	0.17
806.905	0.19
807.078	-0.26
807.25	-0.19
807.423	0.11
807.595	-0.01
807.768	-0.04
807.94	0.65
808.112	0.08
808.285	-0.16
808.457	-0.14
808.629	-0.2
808.802	-0.11
808.974	-0.09
809.146	-0.24
809.318	-0.35
809.491	0.01
809.663	-0.11
809.835	-0.4
810.007	0.1
810.18	-0.09
810.352	-0.5
810.524	-0.04
810.696	0.22
810.868	0.13
811.04	-0.03
811.212	-0.51
811.384	0.05
811.556	0.08
811.728	-0.16
811.901	0.46
812.073	-0.19
812.245	0.33
812.417	0.08
812.589	-0.52
812.76	-0.15
812.932	0.16
813.104	0.34
813.276	-0.01
813.448	0.26
813.62	0.09
813.792	-0.01
813.964	-0.04
814.136	-0.03
814.307	0.23
814.479	-0.08
814.651	-0.02
814.823	0.77
814.995	-0.24
815.166	0.01
815.338	-0.27
815.51	-0.31
815.681	0.56
815.853	0.05
816.025	0.1
816.196	0.36
816.368	0.12
816.54	-0.36
816.711	-0.38
816.883	0.28
817.054	0.79
817.226	-0.59
817.398	-0.05
817.569	-0.23
817.741	-0.11
817.912	0.01
818.084	0.08
818.255	0.12
818.426	-0.25
818.598	-0.02
818.769	-0.43
818.941	0.25
819.112	0.22
819.283	-0.05
819.455	-0.27
819.626	-0.08
819.798	0.08
819.969	0.13
820.14	0.16
820.311	-0.21
820.483	0.23
820.654	0.16
820.825	0.14
820.996	-0.26
821.168	-0.31
821.339	-0.09
821.51	-0.32
821.681	-0.36
821.852	0.2
822.023	-0.84
822.195	-0.34
822.366	0.72
822.537	0.12
822.708	0.02
822.879	-0
823.05	0.5
823.221	-0.06
823.392	0.01
823.563	-0.18
823.734	0.06
823.905	0.17
824.076	-0.2
824.247	-0.33
824.418	-0.4
824.589	-0.51
824.759	-0.33
824.93	-0.13
825.101	-0.52
825.272	0.36
825.443	0.93
825.614	0.4
825.784	-0.98
825.955	0.79
826.126	0.75
826.297	-0.35
826.467	0.74
826.638	-0.13
826.809	-1.1
826.98	-0.27
827.15	-0.43
827.321	-0.35
827.492	0.55
827.662	0
827.833	1
828.003	0.07
828.174	-0.69
828.345	-0.33
828.515	0.53
828.686	-0.13
828.856	-0.54
829.027	-0.28
829.197	0.37
829.368	0.43
829.538	-0.33
829.709	-0.01
829.879	0.02
830.049	-0.3
830.22	0.08
830.39	0.26
830.56	0.6
830.731	-0.72
830.901	-0.41
831.072	0.26
831.242	-0.19
831.412	-0.01
831.582	0.24
831.753	-0.38
831.923	0.25
832.093	-0.07
832.263	-0.54
832.434	-0.25
832.604	-0.3
832.774	0.44
832.944	-0.17
833.114	0
833.284	0.89
833.454	-0.32
833.624	-0.68
833.795	-0.55
833.965	0.49
834.135	0.33
834.305	-0.72
834.475	-0.84
834.645	0.19
834.815	0.13
834.985	-0.38
835.155	-0.26
835.325	0.13
835.494	0.36
835.664	0.14
835.834	-0.91
836.004	0.13
836.174	-0.13
836.344	0.06
836.514	-0.69
836.684	-0.54
836.853	0.04
837.023	0.41
837.193	-0.84
837.363	0.91
837.532	0.72
837.702	-0
837.872	-0.43
838.041	0.12
838.211	1.11
838.381	-0.74
838.55	-0.2
838.72	1.66
838.89	0.85
839.059	-0.38
839.229	-0.34
839.398	2.06
839.568	0.18
839.738	-0.51
839.907	0.67
840.077	-0.17
840.246	-0.18
840.416	-0.44
840.585	-0.53
840.755	1.39
840.924	0.82
841.093	-1.14
841.263	0.19
841.432	0.04
841.602	-1.22
841.771	-0.92
841.94	-0.36
842.11	1.9
842.279	0.72
842.448	-0.49
842.617	-0.72
842.787	1.33
842.956	-0.75
843.125	-0.59
843.294	0.89
843.464	0.84
843.633	0.51
843.802	-1.82
843.971	-0.09
844.14	0.61
844.309	0.98
844.479	-0.03
844.648	-0.91
844.817	0.09
844.986	-0.11
845.155	-0.84
845.324	0.52
845.493	0.18
845.662	-0.35
845.831	0.63
846	0.92
846.169	-0.33
846.338	1.15
846.507	-0.14
846.676	0.52
846.844	-0.45
847.013	0.88
847.182	-0.07
847.351	-0.78
847.52	-0.5
847.689	0.38
847.858	-0.01
848.026	-0.88
848.195	0.06
848.364	-0.26
848.533	-1.7
848.701	-0.15
848.87	-0.44
849.039	0.75
849.207	0.13
849.376	0.51
849.545	1.15
849.713	-0.4
849.882	-0.88
850.051	-0.46
850.219	0.41
850.388	0.37
850.556	-0.54
850.725	-0.95
850.893	-0.23
851.062	-0.04
851.23	0.36
851.399	-0.42
851.567	-0.61
851.736	-0.65
851.904	-0.75
852.073	-0.43
852.241	0.41
852.41	-0.07
852.578	0.25
852.746	0.3
852.915	1.04
853.083	0.31
853.251	-1
853.42	0.22
853.588	-0.36
853.756	0.51
853.924	0.85
854.093	-0.14
854.261	-0.43
854.429	-1.04
854.597	0.15
854.765	-0.71
854.934	-0.42
855.102	0.92
855.27	-0.86
855.438	-0.22
855.606	0.65
855.774	1.47
855.942	-0.17
856.11	-1.97
856.278	0.39
856.446	1.41
856.614	0.05
856.782	-0.35
856.95	-0.42
857.118	0.34
857.286	0.3
857.454	-0.69
857.622	0.58
857.79	0.12
857.958	-0.87
858.126	-0.27
858.294	-2.38
858.462	-0.25
858.629	-0.23
858.797	-1.9
858.965	-0.09
859.133	-1.9
859.301	-0.65
859.468	-0.01
859.636	-1.17
859.804	1.55
859.971	0.71
860.139	-0.9
860.307	0.8
860.474	0.64
860.642	-1.14
860.81	-0.55
860.977	-1.04
861.145	0.22
861.313	0.43
861.48	0.62
861.648	1.11
861.815	0
861.983	-1.06
862.15	-0.15
862.318	0.86
862.485	1.61
862.653	-0.69
862.82	-1.49
862.988	0.91
863.155	0.03
863.322	-1.11
863.49	-1.08
863.657	-0.05
863.824	1.86
863.992	1.52
864.159	-0.06
864.326	0.12
864.494	-1.03
864.661	2.06
864.828	-2.12
864.996	0.34
865.163	1.73
865.33	-0.22
865.497	-2.24
865.664	-0.34
865.832	-0.59
865.999	0.24
866.166	-0.57
866.333	-0.23
866.5	-0.46
866.667	-0.16
866.834	-1.97
867.001	0.71
867.168	-3.34
867.335	0.23
867.502	-1.7
867.669	0.32
867.836	2.79
868.003	0.69
868.17	0.72
868.337	-1.36
868.504	1.6
868.671	-1.15
868.838	-1.71
869.005	0.31
869.172	-1.15
869.339	0.52
869.505	-0.06
869.672	-0.72
869.839	1.33
870.006	0.57
870.173	-1.48
870.339	0.3
870.506	2.77
870.673	-0.45
870.84	1.44
871.006	0.89
871.173	-0.17
871.34	-1.51
871.506	-0.86
871.673	1.24
871.839	-1.3
872.006	0.2
872.173	-0.34
872.339	-0.67
872.506	1.83
872.672	-1.81
872.839	-3.11
873.005	-0.73
873.172	2.76
873.338	1.39
873.505	0.54
873.671	-0.65
873.838	0.02
874.004	-1.22
874.171	-1.19
874.337	0.31
874.503	1.67
874.67	0.52
874.836	0.02
875.002	1.09
875.169	0.16
875.335	0.42
875.501	-0.63
875.668	1.85
875.834	-0.24
876	1.32
876.166	1.03
876.332	-0.08
876.499	3.85
876.665	-0.77
876.831	1.49
876.997	2.22
877.163	0.39
877.329	-1.04
877.495	1.41
877.662	-0.42
877.828	1
877.994	-0.99
878.16	-3.76
878.326	-0.94
878.492	0.41
878.658	-1.64
878.824	-0.25
878.99	1.27
879.156	-0.85
879.322	1.15
879.487	-2.96
879.653	1.74
879.819	-0.53
879.985	-1.55
880.151	1.83
880.317	0.47
880.483	0.7
880.648	0.32
880.814	-4.16
880.98	0.1
881.146	-2.3
881.312	-0.2
881.477	0.83
881.643	-0.63
881.809	2.34
881.974	2
882.14	-2.34
882.306	0.61
882.471	2.38
882.637	-1.37
882.803	0.91
882.968	0.42
883.134	2.55
883.299	0.01
883.465	-1.24
883.63	1.16
883.796	1.8
883.961	0.7
884.127	0.12
884.292	-4.23
884.458	-1.86
884.623	-1.86
