Data from Apollo_Calib_20240827__AbsoluteIrradiance__501__07-30-00-420.txt Node

Date: Wed Aug 28 07:30:00 BST 2024
User: biology
Spectrometer: FLMT08252
Trigger mode: 0
Integration Time (sec): 5.000000E-1
Scans to average: 5
Electric dark correction enabled: true
Nonlinearity correction enabled: false
Boxcar width: 0
XAxis mode: Wavelengths
Number of Pixels in Spectrum: 3648
>>>>>Begin Spectral Data<<<<<
179.588	-0
179.809	-0
180.03	-0
180.251	-0
180.473	-0
180.694	0
180.915	0
181.136	-0
181.357	0
181.578	-0
181.799	-0
182.02	-0
182.241	-0
182.462	-0
182.683	0
182.904	-0
183.125	0
183.346	0
183.567	-0
183.788	-0
184.009	-0
184.23	0
184.451	0
184.672	-0
184.892	-0
185.113	0
185.334	0
185.555	-0
185.776	-0
185.996	-0
186.217	-0
186.438	0
186.659	-0
186.879	0
187.1	-0
187.321	-0
187.541	-0
187.762	-0
187.983	-0
188.203	-0
188.424	-0
188.644	-0
188.865	0
189.086	0
189.306	-0
189.527	0
189.747	-0
189.968	-0
190.188	0
190.409	-0
190.629	0
190.849	-0
191.07	-0
191.29	0
191.511	0
191.731	-0
191.951	-0
192.172	-0
192.392	0
192.612	-0
192.833	-0
193.053	0
193.273	0
193.493	-0
193.714	0
193.934	0
194.154	0
194.374	0
194.594	0
194.815	0
195.035	0
195.255	0
195.475	-0
195.695	0
195.915	0
196.135	-0
196.355	0
196.575	0
196.795	-0
197.015	-0
197.235	-0
197.455	-0
197.675	0
197.895	-0
198.115	-0
198.335	0
198.555	-0
198.775	0
198.995	0
199.214	0
199.434	-0
199.654	-0
199.874	-0
200.094	-1.23
200.313	-0.46
200.533	-0.04
200.753	-1.27
200.973	0.56
201.192	0.69
201.412	-1.03
201.632	-0.42
201.851	0.89
202.071	-0.46
202.291	0.07
202.51	-0.9
202.73	0.39
202.95	-0.39
203.169	-0.38
203.389	0.01
203.608	-0.1
203.828	-0.51
204.047	-0.53
204.267	0.28
204.486	-0.1
204.706	0.12
204.925	-0.36
205.145	-0.13
205.364	0.33
205.583	0.4
205.803	-0.1
206.022	-0.29
206.242	0.12
206.461	-0.07
206.68	-0.5
206.9	0.04
207.119	0.28
207.338	0.62
207.557	0.01
207.777	-0.12
207.996	-0.56
208.215	0.39
208.434	-0.27
208.654	-0.58
208.873	-0.12
209.092	0.38
209.311	-0.23
209.53	-0.21
209.749	-0.27
209.968	0.05
210.187	-0.04
210.407	-0.51
210.626	-0.23
210.845	0.04
211.064	0.07
211.283	-0.13
211.502	-0.06
211.721	0.06
211.94	-0.03
212.159	0.14
212.377	0.12
212.596	0.33
212.815	0.2
213.034	-0.03
213.253	0.21
213.472	0.34
213.691	-0.1
213.91	-0.18
214.128	-0.25
214.347	0.45
214.566	-0.39
214.785	-0.42
215.003	0.07
215.222	0.15
215.441	-0.06
215.66	-0.07
215.878	-0.21
216.097	0.32
216.316	-0.14
216.534	-0.21
216.753	0.11
216.972	0.09
217.19	-0.06
217.409	-0.17
217.627	0.02
217.846	-0.12
218.064	0.04
218.283	-0.2
218.501	0.26
218.72	0.26
218.938	-0.08
219.157	-0.22
219.375	0.16
219.594	0.15
219.812	-0.28
220.031	-0.17
220.249	0.24
220.467	0.17
220.686	-0.01
220.904	-0.11
221.122	-0.13
221.341	0.32
221.559	0.01
221.777	-0.27
221.995	0.1
222.214	0.1
222.432	-0.2
222.65	0.03
222.868	0.2
223.086	0.04
223.305	0.02
223.523	-0.15
223.741	0.17
223.959	-0.13
224.177	-0.23
224.395	-0.11
224.613	-0.09
224.831	0.16
225.049	-0.17
225.267	-0.01
225.485	-0.02
225.703	-0.13
225.921	-0.04
226.139	-0.07
226.357	0.14
226.575	0.14
226.793	0.01
227.011	0.39
227.229	0.11
227.447	0.16
227.665	-0.22
227.883	-0.22
228.1	0.09
228.318	-0.04
228.536	-0.22
228.754	-0.12
228.972	0.13
229.189	-0.1
229.407	0.02
229.625	-0.12
229.843	0.19
230.06	0.07
230.278	-0.01
230.496	0.01
230.713	-0
230.931	0.03
231.149	-0.06
231.366	-0.15
231.584	-0.02
231.801	0.3
232.019	-0.05
232.236	-0.07
232.454	-0.23
232.671	0.06
232.889	-0.05
233.106	-0.11
233.324	-0
233.541	-0.06
233.759	0.06
233.976	-0.13
234.194	-0.03
234.411	0.04
234.628	-0.02
234.846	-0.01
235.063	-0.02
235.28	-0.01
235.498	-0
235.715	-0.12
235.932	0.17
236.149	0.07
236.367	-0.06
236.584	-0.01
236.801	-0.12
237.018	0.06
237.236	0.01
237.453	-0.11
237.67	0.13
237.887	-0.06
238.104	-0.1
238.321	-0.01
238.538	-0.06
238.755	0.03
238.973	-0.16
239.19	-0.01
239.407	-0.02
239.624	-0.04
239.841	-0.19
240.058	-0.09
240.275	0.02
240.492	-0.12
240.709	0.01
240.925	-0.02
241.142	0.04
241.359	-0.05
241.576	-0.12
241.793	-0.09
242.01	0.01
242.227	0.07
242.444	0.05
242.66	0.09
242.877	0.01
243.094	-0.06
243.311	-0.03
243.527	-0.05
243.744	0.04
243.961	0.09
244.178	-0.03
244.394	-0.07
244.611	0.14
244.828	0.2
245.044	-0.09
245.261	-0.09
245.477	0.09
245.694	0.09
245.911	-0.15
246.127	-0
246.344	0.09
246.56	0.05
246.777	-0.08
246.993	0.08
247.21	-0.01
247.426	0.01
247.643	-0.05
247.859	-0.1
248.076	-0.1
248.292	0.12
248.508	-0.1
248.725	0.03
248.941	-0.03
249.157	0.09
249.374	-0.06
249.59	-0.04
249.806	-0.01
250.023	-0.05
250.239	-0.06
250.455	-0.09
250.671	-0.05
250.888	0.07
251.104	0.08
251.32	-0.04
251.536	-0.01
251.752	-0.08
251.969	-0.03
252.185	-0.02
252.401	0.12
252.617	-0.04
252.833	-0.02
253.049	0.06
253.265	-0.01
253.481	-0.05
253.697	-0.05
253.913	-0.09
254.129	0.05
254.345	-0
254.561	-0.08
254.777	0.03
254.993	0.05
255.209	-0.05
255.425	-0.03
255.641	-0.05
255.857	0.04
256.073	-0.05
256.288	-0.14
256.504	-0.05
256.72	-0.02
256.936	0.04
257.152	-0.04
257.367	-0.04
257.583	0.07
257.799	0.08
258.015	-0.11
258.23	-0.03
258.446	0.11
258.662	-0.04
258.877	-0.08
259.093	-0.03
259.309	-0.02
259.524	-0
259.74	-0.02
259.955	-0.14
260.171	0.01
260.387	-0.09
260.602	0.07
260.818	0.03
261.033	-0.08
261.249	-0.05
261.464	0.03
261.68	-0.1
261.895	0.04
262.11	0.07
262.326	-0
262.541	-0.08
262.757	0.02
262.972	0.04
263.187	-0.04
263.403	-0.02
263.618	0.05
263.833	-0.02
264.049	-0.04
264.264	0.01
264.479	0.04
264.694	0.07
264.91	-0.06
265.125	-0.03
265.34	0.05
265.555	0.12
265.77	0.05
265.986	-0.06
266.201	0.05
266.416	0.06
266.631	-0.04
266.846	-0.01
267.061	0.01
267.276	0.01
267.491	-0.12
267.706	0.05
267.921	0.05
268.136	0.01
268.351	-0.01
268.566	-0.09
268.781	0.06
268.996	0.08
269.211	-0.05
269.426	-0.02
269.641	-0.05
269.856	0.1
270.071	-0.06
270.285	-0.13
270.5	0.09
270.715	0.05
270.93	-0.02
271.145	0.01
271.359	0.02
271.574	-0.04
271.789	-0
272.004	-0.08
272.218	0.01
272.433	0.05
272.648	-0.02
272.862	0.08
273.077	-0.02
273.292	-0.04
273.506	-0.04
273.721	-0.05
273.936	0.07
274.15	0.06
274.365	-0.05
274.579	0.01
274.794	0
275.008	0.04
275.223	-0.03
275.437	-0
275.652	0.08
275.866	0.04
276.081	-0.01
276.295	0.06
276.509	0.02
276.724	0.03
276.938	0.02
277.153	0.03
277.367	-0.03
277.581	-0.01
277.796	-0.03
278.01	-0.09
278.224	0.03
278.438	0.1
278.653	-0.07
278.867	-0.01
279.081	0.05
279.295	-0.09
279.51	-0.01
279.724	-0.06
279.938	0.02
280.152	0.03
280.366	-0.01
280.58	-0.05
280.794	0.12
281.008	0.04
281.222	0.06
281.437	0.09
281.651	0.04
281.865	0.02
282.079	-0.01
282.293	-0.11
282.507	-0.05
282.721	-0.05
282.935	0.02
283.148	-0.11
283.362	-0.11
283.576	-0.02
283.79	-0.01
284.004	-0.07
284.218	0.04
284.432	-0.06
284.646	0.01
284.859	-0.04
285.073	-0.02
285.287	0.02
285.501	0
285.714	-0.04
285.928	-0.03
286.142	-0
286.356	-0.04
286.569	-0.05
286.783	0.09
286.997	0.04
287.21	0.08
287.424	0
287.637	0
287.851	-0.02
288.065	0.03
288.278	-0
288.492	0.02
288.705	-0.05
288.919	0.02
289.132	-0.03
289.346	0.1
289.559	-0.05
289.773	-0.07
289.986	0.02
290.2	-0.01
290.413	0.08
290.626	-0.05
290.84	-0.01
291.053	0.03
291.267	0.07
291.48	0
291.693	0.01
291.906	-0.05
292.12	-0
292.333	-0.02
292.546	-0.04
292.76	0.04
292.973	-0.01
293.186	0.02
293.399	-0
293.612	0.02
293.826	0.01
294.039	-0.02
294.252	-0.01
294.465	0.04
294.678	0.03
294.891	0.04
295.104	-0.05
295.317	-0.01
295.53	-0.01
295.743	-0.04
295.956	-0
296.169	0.06
296.382	0.03
296.595	0.01
296.808	-0.05
297.021	0.07
297.234	0.03
297.447	-0.01
297.66	0.04
297.873	0.06
298.086	0.03
298.299	-0.03
298.511	-0.06
298.724	-0.05
298.937	-0.02
299.15	-0.02
299.363	-0
299.575	0.02
299.788	0.03
300.001	-0.03
300.213	-0.01
300.426	-0.03
300.639	0.02
300.852	-0.03
301.064	0.03
301.277	0.09
301.489	0.02
301.702	0.05
301.915	0.01
302.127	-0.02
302.34	0.02
302.552	0.03
302.765	-0.04
302.977	0.01
303.19	-0.05
303.402	-0
303.615	0
303.827	-0.04
304.04	-0.06
304.252	-0
304.464	-0.01
304.677	0.1
304.889	-0.01
305.102	-0.03
305.314	-0.01
305.526	0.04
305.739	0.03
305.951	-0.06
306.163	-0.02
306.375	0.03
306.588	-0.06
306.8	-0.03
307.012	-0.05
307.224	0.01
307.436	0.12
307.649	-0.07
307.861	0.02
308.073	0.04
308.285	0.03
308.497	-0.03
308.709	-0.04
308.921	0.03
309.133	0.02
309.346	0.02
309.558	-0.04
309.77	0.06
309.982	0.05
310.194	0.06
310.406	-0
310.617	0.04
310.829	0.03
311.041	0.04
311.253	-0.01
311.465	-0.01
311.677	-0
311.889	-0.03
312.101	-0.01
312.313	0.03
312.524	0
312.736	-0.04
312.948	0.02
313.16	0.03
313.372	0.03
313.583	0.02
313.795	-0.04
314.007	-0.06
314.218	0.02
314.43	-0.01
314.642	-0.02
314.853	-0.11
315.065	0.02
315.277	0.04
315.488	0
315.7	0.07
315.912	0.03
316.123	-0.03
316.335	0.03
316.546	0.11
316.758	0.01
316.969	-0.03
317.181	0
317.392	-0.01
317.604	0.06
317.815	-0.03
318.026	-0.02
318.238	0.02
318.449	0.03
318.661	-0.06
318.872	-0.04
319.083	-0.05
319.295	0.03
319.506	0.01
319.717	0.04
319.929	-0.02
320.14	-0.02
320.351	0
320.562	-0.05
320.774	0.02
320.985	-0.04
321.196	-0.03
321.407	-0.03
321.618	0.04
321.829	0.01
322.041	0.02
322.252	0.01
322.463	0.01
322.674	-0.01
322.885	0
323.096	0.01
323.307	-0.01
323.518	0.05
323.729	0.03
323.94	0.01
324.151	-0.04
324.362	0.01
324.573	0
324.784	-0.05
324.995	0.03
325.206	0.04
325.417	-0.01
325.628	-0.01
325.838	-0.04
326.049	-0.05
326.26	0.02
326.471	-0.02
326.682	0.01
326.892	0
327.103	-0.08
327.314	-0.06
327.525	0.05
327.735	-0.01
327.946	0
328.157	0.01
328.368	0.02
328.578	-0.04
328.789	0.03
328.999	0.05
329.21	-0
329.421	0.02
329.631	-0.04
329.842	-0.03
330.052	0.03
330.263	0.02
330.473	0.03
330.684	0
330.894	-0
331.105	0.02
331.315	-0.01
331.526	-0.05
331.736	0.06
331.947	0.04
332.157	0
332.367	-0.03
332.578	0.02
332.788	0.1
332.999	0.03
333.209	-0.01
333.419	-0.03
333.629	0.05
333.84	0.05
334.05	0
334.26	0.05
334.47	0.05
334.681	0.04
334.891	-0.01
335.101	0.03
335.311	0.09
335.521	-0.01
335.732	-0.02
335.942	0.08
336.152	0.05
336.362	0.02
336.572	-0.01
336.782	0.04
336.992	-0.01
337.202	-0.04
337.412	-0.01
337.622	0
337.832	-0.03
338.042	0.02
338.252	-0.03
338.462	-0.01
338.672	-0.03
338.882	-0.03
339.092	-0.03
339.302	0.09
339.511	0.02
339.721	-0.04
339.931	-0.03
340.141	0.02
340.351	0.04
340.561	0.03
340.77	-0
340.98	-0.02
341.19	0.04
341.4	-0.01
341.609	-0.04
341.819	-0.02
342.029	-0.04
342.238	0.03
342.448	-0
342.658	0.06
342.867	-0.01
343.077	0.02
343.286	0.02
343.496	0.01
343.706	0.05
343.915	-0.06
344.125	0
344.334	0.03
344.544	-0.01
344.753	-0
344.963	-0.04
345.172	-0.01
345.381	-0.05
345.591	-0.03
345.8	0
346.01	0.03
346.219	0.04
346.428	-0.11
346.638	0.02
346.847	-0.02
347.056	0.04
347.266	-0.02
347.475	0.02
347.684	0.01
347.893	0.02
348.103	0.02
348.312	-0.02
348.521	-0.02
348.73	0.02
348.94	0.03
349.149	-0.04
349.358	-0.01
349.567	-0.02
349.776	-0.05
349.985	-0.04
350.194	0.03
350.403	0.06
350.612	-0.08
350.821	-0.01
351.03	0.03
351.239	-0.03
351.448	-0.03
351.657	-0.03
351.866	0.06
352.075	0.01
352.284	0.06
352.493	-0.1
352.702	0.08
352.911	0.01
353.12	0.01
353.329	-0
353.538	0.02
353.746	-0.01
353.955	-0.03
354.164	-0
354.373	0.01
354.582	0.04
354.79	0.02
354.999	0.03
355.208	0.01
355.416	0.09
355.625	-0.03
355.834	-0.02
356.042	0.02
356.251	-0.04
356.46	-0.04
356.668	0.04
356.877	0.1
357.085	0.01
357.294	-0.07
357.503	0.03
357.711	-0
357.92	0.14
358.128	0.01
358.337	-0.02
358.545	0.01
358.754	-0.02
358.962	0.01
359.17	0.02
359.379	0.02
359.587	0.02
359.796	0.01
360.004	0.03
360.212	-0.02
360.421	0.05
360.629	-0.03
360.837	-0.02
361.046	0.05
361.254	0.08
361.462	-0.01
361.67	-0.03
361.879	0.04
362.087	0.08
362.295	0.02
362.503	-0.02
362.711	-0.03
362.92	-0.03
363.128	0.01
363.336	-0.08
363.544	-0.07
363.752	-0.02
363.96	-0.02
364.168	-0.03
364.376	-0.02
364.584	0.01
364.792	0.02
365	-0
365.208	-0.02
365.416	0.03
365.624	0.04
365.832	-0.01
366.04	0.07
366.248	0.01
366.456	0.02
366.664	0.04
366.872	0.02
367.079	-0.01
367.287	-0.01
367.495	0.03
367.703	0.01
367.911	0.01
368.118	-0.01
368.326	0.01
368.534	-0.03
368.742	0.05
368.949	-0.01
369.157	-0.05
369.365	0.05
369.572	-0.07
369.78	-0.05
369.988	0.03
370.195	0.02
370.403	0.01
370.61	-0.05
370.818	0.02
371.026	0.03
371.233	-0.01
371.441	-0.01
371.648	-0.05
371.856	-0.02
372.063	0.02
372.271	-0.03
372.478	-0
372.685	-0.04
372.893	0.03
373.1	-0.03
373.308	-0.01
373.515	0.08
373.722	0.01
373.93	0.02
374.137	0.05
374.344	0.09
374.552	0.05
374.759	0.01
374.966	0.03
375.173	0
375.381	0.04
375.588	-0
375.795	-0.09
376.002	-0.02
376.209	-0.03
376.417	-0.02
376.624	-0.01
376.831	0.02
377.038	0.01
377.245	-0.07
377.452	-0.01
377.659	-0.01
377.866	-0.02
378.073	0.01
378.28	-0.03
378.487	0.03
378.694	-0.01
378.901	0.02
379.108	-0.01
379.315	0.02
379.522	0.03
379.729	0.02
379.936	-0.01
380.143	-0
380.35	-0
380.557	-0.02
380.763	-0.01
380.97	0
381.177	0.01
381.384	0.01
381.591	-0
381.797	0.01
382.004	0.04
382.211	0.01
382.418	-0
382.624	0.03
382.831	0.04
383.038	-0.01
383.244	-0.02
383.451	-0.06
383.658	0.03
383.864	-0.01
384.071	-0.05
384.277	0.03
384.484	-0.07
384.69	0.02
384.897	0.01
385.103	-0.07
385.31	-0
385.516	-0.04
385.723	-0.03
385.929	-0.03
386.136	-0.02
386.342	0.01
386.549	-0.04
386.755	0.02
386.961	0.04
387.168	-0.03
387.374	-0.02
387.58	0.02
387.787	0
387.993	0
388.199	-0.02
388.406	-0.01
388.612	-0.01
388.818	-0.02
389.024	-0.06
389.231	0.05
389.437	0.11
389.643	0.06
389.849	0.03
390.055	0.02
390.261	0.01
390.467	-0
390.674	-0.07
390.88	-0.05
391.086	0.01
391.292	0.01
391.498	-0.01
391.704	-0.01
391.91	-0
392.116	-0.06
392.322	-0.14
392.528	-0.02
392.734	0.01
392.94	0
393.146	-0.03
393.352	0.03
393.557	-0.05
393.763	-0.05
393.969	0.05
394.175	0.01
394.381	-0.01
394.587	-0.05
394.792	-0.02
394.998	0.06
395.204	0.05
395.41	-0.03
395.615	0.03
395.821	0.02
396.027	0
396.233	-0.03
396.438	-0.02
396.644	0.04
396.85	0.01
397.055	0.02
397.261	-0.02
397.466	-0
397.672	0.03
397.878	0.02
398.083	-0.04
398.289	-0.05
398.494	0.03
398.7	0.06
398.905	-0.08
399.111	0.05
399.316	-0.04
399.522	0.01
399.727	-0.01
399.932	-0.03
400.138	-0.01
400.343	0.06
400.549	0.04
400.754	-0.02
400.959	0.01
401.165	-0.02
401.37	0.06
401.575	0.01
401.78	0.02
401.986	-0.02
402.191	-0.05
402.396	-0.05
402.601	-0.01
402.807	-0.03
403.012	0.01
403.217	0.05
403.422	-0.01
403.627	-0.01
403.832	-0.04
404.037	-0.01
404.243	0
404.448	-0.03
404.653	-0.04
404.858	-0.01
405.063	0.04
405.268	-0.04
405.473	-0.03
405.678	-0.03
405.883	0.12
406.088	0.01
406.293	-0.08
406.498	-0.01
406.703	0.02
406.907	-0.03
407.112	-0.03
407.317	-0.05
407.522	0.01
407.727	-0.08
407.932	0.03
408.136	0.04
408.341	-0.04
408.546	-0.01
408.751	0.01
408.956	-0
409.16	0
409.365	-0.02
409.57	-0.03
409.774	-0
409.979	0.03
410.184	-0.01
410.388	-0.05
410.593	0.04
410.798	0.03
411.002	-0.04
411.207	-0.01
411.411	0.01
411.616	-0.06
411.82	-0.01
412.025	0.02
412.229	-0.05
412.434	0.06
412.638	-0.01
412.843	-0.04
413.047	-0.01
413.252	-0.02
413.456	0.03
413.66	0.03
413.865	-0.05
414.069	0.07
414.273	-0.06
414.478	-0.09
414.682	-0.02
414.886	-0.02
415.091	-0.06
415.295	-0.08
415.499	0
415.703	-0.03
415.908	0.02
416.112	-0.09
416.316	0.04
416.52	0.01
416.724	-0.09
416.929	-0.03
417.133	0.06
417.337	-0.05
417.541	-0.05
417.745	-0.03
417.949	-0
418.153	0.03
418.357	-0.04
418.561	0.06
418.765	-0.01
418.969	0.08
419.173	0.04
419.377	-0.03
419.581	0.07
419.785	-0.02
419.989	-0.05
420.193	-0.06
420.397	-0.03
420.601	0.03
420.804	0.05
421.008	0.04
421.212	0.06
421.416	0.05
421.62	-0.07
421.823	0.02
422.027	0.06
422.231	0.04
422.435	-0.01
422.638	0.01
422.842	-0.05
423.046	-0.03
423.249	-0.01
423.453	0.07
423.657	-0.02
423.86	-0.04
424.064	-0.03
424.268	0.05
424.471	-0.02
424.675	0.04
424.878	0.05
425.082	0.02
425.285	0.02
425.489	0.02
425.692	-0
425.896	-0.02
426.099	0.02
426.303	-0.04
426.506	-0.07
426.71	0.01
426.913	0.02
427.116	0.05
427.32	0.01
427.523	-0.03
427.726	0.04
427.93	-0.07
428.133	0.01
428.336	-0.08
428.54	-0.07
428.743	0.03
428.946	0.03
429.149	-0.02
429.353	-0.01
429.556	-0.01
429.759	-0.02
429.962	-0.04
430.165	0.02
430.368	-0.01
430.571	-0.02
430.775	-0.01
430.978	0.05
431.181	0.02
431.384	-0.02
431.587	-0.02
431.79	-0.02
431.993	0.01
432.196	0
432.399	0.01
432.602	0.07
432.805	-0.06
433.008	0.01
433.211	-0.06
433.414	0.07
433.616	0.04
433.819	-0.03
434.022	-0.06
434.225	0.02
434.428	0.02
434.631	0.06
434.833	0.01
435.036	0.02
435.239	0.03
435.442	0.04
435.645	-0.02
435.847	0.02
436.05	0.06
436.253	-0.02
436.455	-0.03
436.658	-0.04
436.861	-0.01
437.063	-0.05
437.266	-0.03
437.468	-0.02
437.671	0.1
437.874	-0.01
438.076	-0.04
438.279	-0.06
438.481	0.01
438.684	-0.03
438.886	0.05
439.089	-0.12
439.291	-0.01
439.494	0.01
439.696	-0.04
439.899	0.02
440.101	-0.01
440.303	-0.06
440.506	0.07
440.708	0.02
440.91	0.04
441.113	-0.05
441.315	0.01
441.517	-0.05
441.72	0.05
441.922	-0.06
442.124	-0.08
442.326	0.01
442.529	0.07
442.731	-0.03
442.933	0.1
443.135	-0.01
443.337	-0.04
443.539	-0.03
443.742	-0
443.944	0.03
444.146	-0.02
444.348	-0.03
444.55	-0.03
444.752	-0.02
444.954	-0.07
445.156	0.05
445.358	-0.04
445.56	0.06
445.762	-0.01
445.964	0
446.166	-0.04
446.368	-0.07
446.57	0.05
446.772	0.02
446.974	-0.02
447.175	0.06
447.377	-0.06
447.579	-0.02
447.781	-0.11
447.983	0.06
448.184	-0.02
448.386	-0.01
448.588	-0.07
448.79	0.02
448.991	-0.06
449.193	-0.01
449.395	0.01
449.597	0.03
449.798	0.03
450	0.01
450.202	0.01
450.403	-0.07
450.605	0.05
450.806	-0.02
451.008	-0.06
451.21	0.02
451.411	-0.01
451.613	-0.01
451.814	0.02
452.016	0.03
452.217	0.04
452.419	0.05
452.62	-0.01
452.821	0.01
453.023	0.04
453.224	0.05
453.426	0.01
453.627	-0.02
453.828	0.03
454.03	-0.01
454.231	-0.05
454.432	-0.08
454.634	0.1
454.835	-0.07
455.036	-0.05
455.238	0.03
455.439	0.05
455.64	-0.07
455.841	-0.03
456.042	0.06
456.244	0.02
456.445	-0.05
456.646	-0.05
456.847	-0
457.048	0.04
457.249	0.01
457.45	0.17
457.651	-0.07
457.852	0.06
458.054	0.01
458.255	-0.02
458.456	-0
458.657	0
458.858	-0.02
459.058	0.03
459.259	0.02
459.46	-0.04
459.661	0.03
459.862	0.1
460.063	-0.03
460.264	0.05
460.465	-0.08
460.666	0.09
460.866	-0.02
461.067	0.02
461.268	-0.02
461.469	-0.04
461.67	0.01
461.87	-0.02
462.071	-0.08
462.272	-0.04
462.473	-0.03
462.673	0.02
462.874	-0.05
463.075	0.01
463.275	-0.04
463.476	-0
463.676	0.02
463.877	0.03
464.078	-0.01
464.278	0.08
464.479	0.01
464.679	0
464.88	-0.03
465.08	0.05
465.281	-0.01
465.481	-0.07
465.682	-0.04
465.882	0.02
466.083	0
466.283	-0
466.483	0.02
466.684	-0.07
466.884	-0.04
467.085	-0.05
467.285	0.01
467.485	-0.07
467.686	-0
467.886	-0.07
468.086	-0
468.286	-0.01
468.487	0.03
468.687	-0.03
468.887	-0.03
469.087	0
469.287	-0.01
469.488	-0.11
469.688	-0.01
469.888	0.05
470.088	0.07
470.288	0.05
470.488	0.05
470.688	-0.01
470.888	-0.01
471.088	-0.06
471.288	0.04
471.488	0.01
471.688	0.01
471.888	-0.03
472.088	0.01
472.288	0.04
472.488	-0.06
472.688	-0.02
472.888	-0
473.088	0.01
473.288	0.01
473.488	0.04
473.688	0.04
473.887	0
474.087	-0.02
474.287	0.03
474.487	-0.05
474.687	0.03
474.886	-0.04
475.086	-0.03
475.286	0.02
475.486	0.01
475.685	0.02
475.885	-0.02
476.085	-0.01
476.284	0
476.484	-0.05
476.684	0.02
476.883	0.05
477.083	0.04
477.282	-0.01
477.482	0.03
477.681	0.05
477.881	0.02
478.08	-0.05
478.28	-0.01
478.479	0.01
478.679	0.08
478.878	-0.01
479.078	-0.04
479.277	-0.04
479.477	-0.03
479.676	0
479.875	-0.01
480.075	-0.04
480.274	0.01
480.473	-0.02
480.673	0.01
480.872	0.02
481.071	0.01
481.271	-0
481.47	-0.01
481.669	-0.03
481.868	-0.02
482.067	-0.04
482.267	-0.03
482.466	-0.04
482.665	-0.02
482.864	-0.03
483.063	-0.03
483.262	0
483.461	0.08
483.661	0.02
483.86	0.02
484.059	-0.02
484.258	-0.01
484.457	-0.01
484.656	-0.01
484.855	0.02
485.054	-0.01
485.253	-0.03
485.452	-0.02
485.651	-0
485.849	0.01
486.048	-0.03
486.247	-0.04
486.446	-0
486.645	-0.02
486.844	-0.01
487.043	-0
487.241	0.03
487.44	-0.02
487.639	-0.01
487.838	0.01
488.037	0.02
488.235	0.03
488.434	0.03
488.633	-0.03
488.831	-0.01
489.03	0.02
489.229	0.01
489.427	-0.01
489.626	0.03
489.825	0.03
490.023	-0.03
490.222	-0.02
490.42	0.01
490.619	0.03
490.817	0.01
491.016	0
491.214	0.03
491.413	-0.03
491.611	-0.03
491.81	0.01
492.008	0.02
492.207	0.01
492.405	0.01
492.604	-0.03
492.802	-0.01
493	0
493.199	-0.02
493.397	0.01
493.595	-0
493.794	-0.03
493.992	0.03
494.19	0
494.388	-0
494.587	-0
494.785	0.01
494.983	-0.07
495.181	-0
495.379	0.02
495.578	-0.01
495.776	0
495.974	0.02
496.172	0
496.37	-0.01
496.568	-0.03
496.766	-0.02
496.964	0.03
497.162	-0.01
497.36	-0.03
497.558	0.01
497.756	0
497.954	-0
498.152	-0.02
498.35	-0.01
498.548	-0.02
498.746	-0.01
498.944	-0.01
499.142	-0.02
499.34	-0.04
499.538	-0.01
499.736	-0.01
499.933	0.02
500.131	0.02
500.329	-0
500.527	0.02
500.725	0.03
500.922	0.02
501.12	0.01
501.318	-0
501.516	-0.01
501.713	0.01
501.911	-0.02
502.109	-0.05
502.306	0.01
502.504	-0.01
502.701	-0.01
502.899	-0
503.097	0.03
503.294	0.01
503.492	0
503.689	0
503.887	0.02
504.084	0.04
504.282	-0
504.479	-0.03
504.677	0
504.874	-0.03
505.072	-0
505.269	0
505.466	0.04
505.664	0.03
505.861	-0.05
506.059	-0.04
506.256	0.01
506.453	-0.03
506.651	0.04
506.848	0.02
507.045	0.02
507.242	-0.01
507.44	0
507.637	0.01
507.834	-0.01
508.031	0.02
508.229	-0.02
508.426	-0
508.623	0.01
508.82	-0.02
509.017	-0.02
509.214	-0.03
509.411	-0
509.608	-0.04
509.805	-0.01
510.003	-0.01
510.2	0
510.397	0.02
510.594	-0.02
510.791	-0.02
510.988	0.02
511.184	0.04
511.381	-0
511.578	-0.03
511.775	0.02
511.972	-0.02
512.169	-0.01
512.366	-0.01
512.563	0
512.76	-0
512.956	0.01
513.153	-0.02
513.35	0.02
513.547	-0.01
513.744	-0.03
513.94	-0.04
514.137	0.02
514.334	0.01
514.53	0
514.727	0.01
514.924	0.04
515.12	-0
515.317	-0.03
515.514	-0.02
515.71	-0.04
515.907	-0.02
516.103	0.01
516.3	0.02
516.497	0.02
516.693	0.02
516.89	-0.01
517.086	-0.02
517.283	0.04
517.479	0.01
517.676	0
517.872	-0.02
518.068	-0.02
518.265	0.01
518.461	-0.01
518.658	-0.02
518.854	0.02
519.05	-0.02
519.247	-0.01
519.443	0.02
519.639	-0.01
519.836	0
520.032	-0
520.228	0.02
520.424	0.04
520.621	0.03
520.817	-0
521.013	0.02
521.209	-0.01
521.405	0.03
521.601	0.01
521.798	0.02
521.994	0.03
522.19	-0.01
522.386	-0.03
522.582	0
522.778	0.01
522.974	-0.01
523.17	0
523.366	0
523.562	0.04
523.758	0
523.954	-0.02
524.15	-0.02
524.346	0.01
524.542	-0.01
524.738	-0.02
524.934	-0.01
525.129	-0.02
525.325	0.02
525.521	-0.01
525.717	0.01
525.913	0.01
526.109	-0.01
526.304	-0.01
526.5	0.03
526.696	0.03
526.892	0.01
527.087	-0.01
527.283	-0.04
527.479	0.01
527.674	-0.03
527.87	0.01
528.066	-0
528.261	0.02
528.457	-0
528.653	-0.02
528.848	-0.03
529.044	0.01
529.239	-0.01
529.435	0.01
529.63	-0.02
529.826	0.04
530.021	0.02
530.217	0.02
530.412	-0
530.608	-0
530.803	0.01
530.999	-0
531.194	-0.04
531.389	0.02
531.585	-0.05
531.78	0.01
531.975	0
532.171	0.04
532.366	-0.01
532.561	-0
532.757	-0.03
532.952	-0.02
533.147	0.03
533.342	0.02
533.538	-0.02
533.733	0.03
533.928	-0.01
534.123	-0.02
534.318	-0.03
534.513	-0.01
534.709	-0.03
534.904	-0.02
535.099	-0.03
535.294	0.01
535.489	0.01
535.684	-0
535.879	-0.02
536.074	0.01
536.269	-0.03
536.464	0.01
536.659	-0.01
536.854	-0.01
537.049	0.02
537.244	0.01
537.439	-0.04
537.634	0.02
537.828	-0
538.023	0
538.218	-0.04
538.413	0.02
538.608	-0.03
538.803	-0
538.997	-0.02
539.192	0.03
539.387	0.03
539.582	0.01
539.776	0
539.971	0.02
540.166	0
540.36	-0.02
540.555	0.01
540.75	-0.02
540.944	0.02
541.139	-0.04
541.334	0.01
541.528	0.02
541.723	0.01
541.917	0.01
542.112	-0.03
542.306	-0.02
542.501	-0.01
542.695	0.03
542.89	-0.01
543.084	-0
543.279	-0.01
543.473	0.01
543.668	-0.01
543.862	-0
544.056	0.01
544.251	0
544.445	0.01
544.64	0
544.834	-0.03
545.028	-0
545.222	-0.01
545.417	0.03
545.611	0.01
545.805	0
546	-0
546.194	-0.02
546.388	-0.02
546.582	0.03
546.776	0
546.97	0.01
547.165	0.02
547.359	0.03
547.553	-0.01
547.747	0.01
547.941	0.01
548.135	-0
548.329	0.02
548.523	0.01
548.717	0.01
548.911	-0.02
549.105	0.01
549.299	0.01
549.493	0.02
549.687	0.02
549.881	0.04
550.075	0.01
550.269	-0.03
550.463	0.01
550.657	-0
550.85	-0
551.044	-0.01
551.238	0.02
551.432	-0.02
551.626	-0.02
551.82	-0.01
552.013	-0.01
552.207	0.02
552.401	0.02
552.594	-0
552.788	-0.01
552.982	0.01
553.176	-0.01
553.369	0.03
553.563	0.02
553.756	-0.03
553.95	-0.03
554.144	0
554.337	0.02
554.531	0.02
554.724	0.02
554.918	-0.04
555.111	0.03
555.305	0.01
555.498	0.07
555.692	0.02
555.885	0.01
556.079	-0.02
556.272	-0.03
556.466	0.02
556.659	-0
556.852	-0.01
557.046	-0
557.239	0.02
557.432	-0
557.626	-0.02
557.819	0.03
558.012	0.03
558.206	0.04
558.399	0.02
558.592	0.02
558.785	0.01
558.979	0.04
559.172	-0
559.365	0
559.558	0
559.751	0.01
559.944	-0
560.138	0
560.331	-0
560.524	-0.02
560.717	0.02
560.91	-0.01
561.103	0.03
561.296	0.02
561.489	0.02
561.682	0.01
561.875	0.02
562.068	0.02
562.261	0.01
562.454	0.06
562.647	0.03
562.84	0
563.032	-0
563.225	0.02
563.418	-0.02
563.611	-0
563.804	0.01
563.997	-0.03
564.19	-0.04
564.382	-0.05
564.575	0
564.768	0.01
564.961	-0
565.153	-0.01
565.346	0.03
565.539	0.02
565.731	0.01
565.924	0.03
566.117	0.04
566.309	0.01
566.502	-0.01
566.695	-0
566.887	0
567.08	-0
567.272	0.01
567.465	-0.01
567.657	0.04
567.85	0.02
568.042	0.03
568.235	0.04
568.427	0.01
568.62	0.01
568.812	0.02
569.005	0.02
569.197	-0.02
569.389	0.02
569.582	0.05
569.774	0.02
569.966	-0.02
570.159	-0
570.351	0.03
570.543	0.01
570.736	0.03
570.928	-0.02
571.12	0.02
571.312	0
571.505	-0.01
571.697	0.02
571.889	-0.02
572.081	0.02
572.273	0.01
572.465	0.06
572.658	0.02
572.85	0.03
573.042	0.01
573.234	0.03
573.426	0.05
573.618	-0.01
573.81	0.03
574.002	0.05
574.194	0.06
574.386	-0.02
574.578	-0.02
574.77	0.02
574.962	0.02
575.154	-0.03
575.346	0.03
575.538	0.04
575.729	0.01
575.921	-0
576.113	0.02
576.305	0.06
576.497	0.02
576.689	0.04
576.88	0.01
577.072	0.05
577.264	0.02
577.456	0.04
577.647	0
577.839	0.01
578.031	0.07
578.223	0
578.414	0.02
578.606	0.06
578.798	0.07
578.989	0.03
579.181	0.03
579.372	0.07
579.564	0.04
579.755	0.03
579.947	0.06
580.139	0.07
580.33	0
580.522	0.02
580.713	-0
580.905	0.04
581.096	0.09
581.287	0.08
581.479	0.07
581.67	0.08
581.862	0.07
582.053	0.04
582.244	0.01
582.436	0.04
582.627	0.07
582.818	0.06
583.01	0.06
583.201	0.1
583.392	0.11
583.583	0.07
583.775	0.06
583.966	0.08
584.157	0.09
584.348	0.09
584.54	0.05
584.731	0.13
584.922	0.1
585.113	0.09
585.304	0.11
585.495	0.14
585.686	0.14
585.877	0.13
586.068	0.13
586.259	0.11
586.45	0.12
586.641	0.11
586.832	0.08
587.023	0.11
587.214	0.12
587.405	0.13
587.596	0.1
587.787	0.14
587.978	0.14
588.169	0.13
588.36	0.15
588.551	0.14
588.742	0.13
588.932	0.19
589.123	0.16
589.314	0.2
589.505	0.18
589.696	0.18
589.886	0.14
590.077	0.13
590.268	0.2
590.458	0.12
590.649	0.15
590.84	0.2
591.03	0.2
591.221	0.19
591.412	0.18
591.602	0.24
591.793	0.25
591.984	0.22
592.174	0.21
592.365	0.29
592.555	0.21
592.746	0.26
592.936	0.26
593.127	0.27
593.317	0.29
593.508	0.25
593.698	0.25
593.889	0.28
594.079	0.27
594.269	0.28
594.46	0.27
594.65	0.28
594.84	0.33
595.031	0.29
595.221	0.29
595.411	0.29
595.602	0.36
595.792	0.33
595.982	0.34
596.172	0.4
596.363	0.36
596.553	0.35
596.743	0.38
596.933	0.37
597.123	0.42
597.314	0.39
597.504	0.39
597.694	0.45
597.884	0.45
598.074	0.42
598.264	0.44
598.454	0.46
598.644	0.44
598.834	0.47
599.024	0.39
599.214	0.45
599.404	0.54
599.594	0.49
599.784	0.48
599.974	0.55
600.164	0.56
600.354	0.5
600.544	0.53
600.734	0.6
600.924	0.63
601.114	0.59
601.303	0.62
601.493	0.61
601.683	0.6
601.873	0.64
602.063	0.62
602.252	0.67
602.442	0.6
602.632	0.69
602.821	0.65
603.011	0.72
603.201	0.72
603.39	0.7
603.58	0.74
603.77	0.75
603.959	0.79
604.149	0.77
604.339	0.8
604.528	0.84
604.718	0.88
604.907	0.81
605.097	0.85
605.286	0.91
605.476	0.91
605.665	0.94
605.855	0.94
606.044	1.01
606.234	0.94
606.423	0.97
606.612	1
606.802	1
606.991	1.07
607.181	1.06
607.37	1.05
607.559	1.04
607.749	1.07
607.938	1.13
608.127	1.13
608.316	1.2
608.506	1.15
608.695	1.27
608.884	1.22
609.073	1.27
609.263	1.3
609.452	1.36
609.641	1.34
609.83	1.34
610.019	1.38
610.208	1.38
610.397	1.43
610.586	1.52
610.775	1.48
610.965	1.51
611.154	1.52
611.343	1.56
611.532	1.6
611.721	1.63
611.91	1.67
612.099	1.7
612.287	1.75
612.476	1.77
612.665	1.82
612.854	1.85
613.043	1.9
613.232	1.89
613.421	1.9
613.61	2.01
613.798	1.99
613.987	2.07
614.176	2.16
614.365	2.21
614.554	2.27
614.742	2.28
614.931	2.22
615.12	2.37
615.309	2.37
615.497	2.42
615.686	2.43
615.875	2.53
616.063	2.59
616.252	2.59
616.44	2.68
616.629	2.72
616.818	2.77
617.006	2.81
617.195	2.85
617.383	2.92
617.572	2.93
617.76	3.05
617.949	3.08
618.137	3.2
618.326	3.21
618.514	3.15
618.703	3.19
618.891	3.41
619.079	3.36
619.268	3.52
619.456	3.45
619.644	3.6
619.833	3.59
620.021	3.6
620.209	3.58
620.398	3.76
620.586	3.78
620.774	3.85
620.962	3.9
621.151	3.95
621.339	3.99
621.527	3.97
621.715	4.05
621.903	4.13
622.092	4.16
622.28	4.27
622.468	4.14
622.656	4.27
622.844	4.26
623.032	4.37
623.22	4.3
623.408	4.47
623.596	4.48
623.784	4.56
623.972	4.46
624.16	4.47
624.348	4.57
624.536	4.63
624.724	4.54
624.912	4.53
625.1	4.64
625.288	4.61
625.476	4.58
625.664	4.67
625.851	4.61
626.039	4.58
626.227	4.58
626.415	4.49
626.603	4.47
626.79	4.56
626.978	4.46
627.166	4.51
627.354	4.3
627.541	4.35
627.729	4.13
627.917	4.28
628.104	4.19
628.292	4.1
628.48	4.07
628.667	3.98
628.855	4.01
629.042	3.91
629.23	3.77
629.418	3.69
629.605	3.65
629.793	3.46
629.98	3.44
630.168	3.33
630.355	3.3
630.543	3.2
630.73	3.02
630.917	3.02
631.105	3
631.292	2.82
631.48	2.79
631.667	2.73
631.854	2.58
632.042	2.51
632.229	2.39
632.416	2.42
632.604	2.3
632.791	2.11
632.978	2.15
633.165	2.1
633.353	2.01
633.54	1.94
633.727	1.77
633.914	1.76
634.101	1.61
634.289	1.71
634.476	1.52
634.663	1.5
634.85	1.51
635.037	1.4
635.224	1.29
635.411	1.37
635.598	1.28
635.785	1.23
635.972	1.17
636.159	1.18
636.346	1.06
636.533	1.01
636.72	1.04
636.907	0.97
637.094	0.94
637.281	0.88
637.468	0.89
637.655	0.82
637.842	0.85
638.029	0.76
638.215	0.79
638.402	0.72
638.589	0.66
638.776	0.69
638.963	0.64
639.149	0.66
639.336	0.69
639.523	0.59
639.709	0.59
639.896	0.52
640.083	0.59
640.27	0.59
640.456	0.5
640.643	0.53
640.829	0.42
641.016	0.47
641.203	0.41
641.389	0.48
641.576	0.45
641.762	0.39
641.949	0.4
642.135	0.43
642.322	0.41
642.508	0.29
642.695	0.36
642.881	0.3
643.068	0.28
643.254	0.3
643.441	0.33
643.627	0.29
643.813	0.23
644	0.27
644.186	0.23
644.372	0.26
644.559	0.32
644.745	0.26
644.931	0.17
645.118	0.23
645.304	0.2
645.49	0.19
645.676	0.2
645.862	0.2
646.049	0.23
646.235	0.18
646.421	0.23
646.607	0.24
646.793	0.14
646.979	0.12
647.165	0.17
647.352	0.14
647.538	0.17
647.724	0.17
647.91	0.14
648.096	0.17
648.282	0.15
648.468	0.14
648.654	0.13
648.84	0.11
649.026	0.13
649.212	0.09
649.397	0.1
649.583	0.06
649.769	0.14
649.955	0.09
650.141	0.1
650.327	0.12
650.513	0.05
650.698	0.1
650.884	0.05
651.07	0.1
651.256	0.08
651.442	0.07
651.627	0.08
651.813	0.09
651.999	0.08
652.184	0.09
652.37	0.08
652.556	0.04
652.741	0.12
652.927	0.03
653.113	0.05
653.298	0.07
653.484	0.04
653.669	0.02
653.855	0.06
654.04	0.03
654.226	0.07
654.412	0.02
654.597	0.02
654.782	0.05
654.968	0.08
655.153	0.08
655.339	0.01
655.524	0.01
655.71	0.04
655.895	0.05
656.08	0.03
656.266	0.04
656.451	0.07
656.636	0.02
656.822	0.04
657.007	0.01
657.192	0.03
657.378	0.02
657.563	0.04
657.748	0.09
657.933	0.05
658.118	0.03
658.304	0.03
658.489	0.07
658.674	0.02
658.859	0
659.044	0.04
659.229	0.03
659.414	0.03
659.599	0.04
659.785	0
659.97	0
660.155	0.05
660.34	0.02
660.525	0.03
660.71	0.04
660.895	0.07
661.08	0.03
661.264	0.01
661.449	0.07
661.634	0.06
661.819	0.06
662.004	0.07
662.189	-0.01
662.374	-0
662.559	-0.04
662.743	-0.04
662.928	0.02
663.113	0.02
663.298	-0.04
663.483	-0.03
663.667	0.03
663.852	-0.02
664.037	0.07
664.221	0.01
664.406	0.02
664.591	0.03
664.775	0.03
664.96	-0.02
665.145	0.04
665.329	0.02
665.514	-0
665.698	0.01
665.883	-0.04
666.068	0.06
666.252	0.04
666.437	-0.01
666.621	-0
666.806	0.02
666.99	0.01
667.174	-0.01
667.359	0.07
667.543	0.01
667.728	-0.01
667.912	-0.08
668.096	0.04
668.281	-0.03
668.465	-0.01
668.649	0.01
668.834	-0.03
669.018	0.01
669.202	-0.02
669.387	-0.02
669.571	0.05
669.755	-0.03
669.939	0.02
670.124	-0
670.308	0.05
670.492	0.09
670.676	-0.01
670.86	-0.02
671.044	0.01
671.228	0.06
671.413	-0.01
671.597	0.02
671.781	-0.03
671.965	0.02
672.149	-0.03
672.333	-0.01
672.517	0
672.701	0.05
672.885	-0.01
673.069	-0.02
673.253	0.06
673.437	-0.02
673.621	-0.02
673.804	0.02
673.988	-0.03
674.172	0.01
674.356	-0.04
674.54	-0.03
674.724	0.09
674.908	-0.01
675.091	0.04
675.275	0.01
675.459	0.05
675.643	0.07
675.826	0.02
676.01	0.03
676.194	0.03
676.377	0.01
676.561	0.01
676.745	0.02
676.928	0.05
677.112	0.06
677.296	-0
677.479	0.01
677.663	-0.03
677.846	-0
678.03	0.02
678.213	-0.03
678.397	0
678.58	-0.05
678.764	-0.02
678.947	-0.03
679.131	-0.03
679.314	0.02
679.498	0.03
679.681	0.03
679.865	0.03
680.048	-0.03
680.231	-0.03
680.415	-0.02
680.598	-0.06
680.781	0
680.965	0
681.148	0.01
681.331	0.01
681.514	0.03
681.698	-0.03
681.881	0.05
682.064	0.02
682.247	-0.02
682.43	-0.06
682.614	0.03
682.797	0.05
682.98	0.04
683.163	-0.01
683.346	0.06
683.529	-0
683.712	-0.05
683.895	0.03
684.078	-0.06
684.261	-0
684.444	0.04
684.627	0.02
684.81	-0.03
684.993	-0.01
685.176	0.03
685.359	-0.02
685.542	0
685.725	0.09
685.908	0.03
686.091	0
686.274	0.04
686.457	0.08
686.639	-0.04
686.822	0.04
687.005	-0
687.188	0.02
687.371	0.09
687.553	0.07
687.736	0.05
687.919	0.08
688.102	0.09
688.284	0.02
688.467	-0.02
688.65	-0.01
688.832	-0.05
689.015	0.05
689.197	-0.08
689.38	0.08
689.563	0.06
689.745	0.01
689.928	-0.03
690.11	0.01
690.293	-0.02
690.475	-0.1
690.658	0.03
690.84	-0.04
691.023	-0.03
691.205	-0.03
691.388	0.01
691.57	0.03
691.752	0.01
691.935	-0.08
692.117	0.01
692.3	0.02
692.482	-0.02
692.664	-0.04
692.847	0.05
693.029	0.12
693.211	-0.01
693.393	0.01
693.576	-0.01
693.758	0
693.94	-0.02
694.122	-0.03
694.304	-0.06
694.487	0.05
694.669	0.06
694.851	-0.09
695.033	-0.01
695.215	-0.06
695.397	-0.03
695.579	0.04
695.761	-0.07
695.943	-0.04
696.125	0.02
696.308	0.01
696.49	-0.07
696.671	0.07
696.853	-0.01
697.035	0.15
697.217	-0.02
697.399	0
697.581	-0.06
697.763	0.02
697.945	-0.08
698.127	0.06
698.309	0.05
698.491	-0.03
698.672	0.05
698.854	0.04
699.036	0.02
699.218	-0.07
699.399	0.03
699.581	0.03
699.763	-0.03
699.945	-0.07
700.126	-0.07
700.308	-0.03
700.49	-0
700.671	-0.1
700.853	-0.03
701.035	0
701.216	0.06
701.398	-0
701.579	-0.08
701.761	0.07
701.943	-0.08
702.124	-0.06
702.306	-0.01
702.487	0.09
702.669	0.01
702.85	-0.07
703.031	-0.06
703.213	0.07
703.394	0.02
703.576	-0.04
703.757	-0
703.938	0.02
704.12	0.11
704.301	-0.02
704.483	-0.05
704.664	0.03
704.845	0.06
705.026	0.01
705.208	0.01
705.389	0.01
705.57	-0.02
705.751	0.01
705.933	0
706.114	-0.01
706.295	0
706.476	-0.09
706.657	0.07
706.838	-0.02
707.02	0.05
707.201	-0.08
707.382	-0.02
707.563	0.04
707.744	0.02
707.925	0.01
708.106	-0.07
708.287	-0.01
708.468	0.01
708.649	-0.01
708.83	0.06
709.011	0.04
709.192	0.03
709.373	-0.07
709.554	-0.04
709.734	-0.01
709.915	0.04
710.096	0.01
710.277	-0.04
710.458	-0.02
710.639	0.04
710.819	-0.14
711	-0.04
711.181	0.05
711.362	0.06
711.542	0
711.723	-0.04
711.904	0.1
712.085	-0.02
712.265	0.02
712.446	-0.01
712.627	-0.05
712.807	-0.04
712.988	-0
713.168	-0.1
713.349	0.06
713.53	-0.12
713.71	-0.06
713.891	-0.08
714.071	0.09
714.252	-0.06
714.432	-0.01
714.613	-0.15
714.793	-0.02
714.974	0.03
715.154	0.1
715.334	0.02
715.515	-0.01
715.695	-0.13
715.876	-0.05
716.056	-0.02
716.236	-0.02
716.417	0.01
716.597	-0.04
716.777	0.08
716.957	-0.09
717.138	-0
717.318	-0
717.498	-0.11
717.678	-0.01
717.859	0.06
718.039	-0.11
718.219	0.06
718.399	0.15
718.579	-0.11
718.759	-0.03
718.939	0.03
719.12	0.01
719.3	-0.02
719.48	-0.08
719.66	-0.06
719.84	0.13
720.02	-0.03
720.2	-0.09
720.38	0.05
720.56	0.06
720.74	-0.05
720.92	0.04
721.1	0.06
721.279	0.1
721.459	-0.04
721.639	-0.18
721.819	-0.03
721.999	-0.01
722.179	-0.06
722.359	-0.16
722.538	-0.02
722.718	-0.01
722.898	-0.09
723.078	-0.06
723.257	-0.02
723.437	-0.03
723.617	-0
723.797	-0.02
723.976	-0.05
724.156	0.07
724.336	0.13
724.515	0.1
724.695	-0.11
724.874	-0.04
725.054	0.01
725.234	-0.03
725.413	0.02
725.593	-0.05
725.772	-0.02
725.952	-0.01
726.131	0.02
726.311	0.02
726.49	-0.03
726.67	-0.07
726.849	-0.03
727.028	-0.03
727.208	-0.03
727.387	0.02
727.567	-0.1
727.746	-0.08
727.925	-0.06
728.105	-0.1
728.284	-0.04
728.463	-0.06
728.643	0.03
728.822	-0.09
729.001	-0.06
729.18	-0
729.359	0.05
729.539	0.05
729.718	-0.08
729.897	0.04
730.076	-0.05
730.255	-0.07
730.434	0.05
730.614	0.09
730.793	0.09
730.972	0.02
731.151	0.01
731.33	0.11
731.509	0.02
731.688	0.01
731.867	-0.06
732.046	-0.19
732.225	0.16
732.404	-0.08
732.583	-0.13
732.762	-0.03
732.941	0.03
733.12	-0.01
733.298	-0.06
733.477	-0.01
733.656	-0.07
733.835	-0.05
734.014	0.06
734.193	0.03
734.371	0.01
734.55	0.03
734.729	-0.17
734.908	-0.09
735.086	0
735.265	0.16
735.444	-0.19
735.623	-0.13
735.801	-0.13
735.98	-0.08
736.159	-0.09
736.337	0.05
736.516	-0.09
736.694	0.07
736.873	-0.08
737.052	-0.01
737.23	0.14
737.409	-0.04
737.587	0.06
737.766	-0.16
737.944	-0.13
738.123	0.02
738.301	-0.01
738.479	-0.01
738.658	-0.02
738.836	-0.17
739.015	0.06
739.193	0.07
739.371	-0.15
739.55	0.11
739.728	-0.17
739.906	-0
740.085	0.09
740.263	-0.04
740.441	-0.25
740.62	0.25
740.798	-0.02
740.976	-0.08
741.154	-0.05
741.332	0.12
741.511	-0.06
741.689	0.06
741.867	0.07
742.045	0.11
742.223	-0.04
742.401	-0.02
742.579	-0.03
742.757	0.06
742.935	-0.12
743.114	-0.04
743.292	-0.05
743.47	-0.08
743.648	0.04
743.826	-0.21
744.004	0.08
744.181	0.05
744.359	-0.06
744.537	-0.03
744.715	-0.09
744.893	0.05
745.071	-0.06
745.249	-0.03
745.427	0.02
745.605	0.02
745.782	0.08
745.96	0.06
746.138	0.04
746.316	0.07
746.493	-0.18
746.671	0.15
746.849	-0.13
747.027	0.19
747.204	-0.15
747.382	0.06
747.56	-0.14
747.737	0.02
747.915	-0.09
748.093	0.03
748.27	-0.1
748.448	-0.1
748.625	-0.15
748.803	-0.1
748.98	-0.07
749.158	-0.02
749.335	0.08
749.513	-0.06
749.69	-0.03
749.868	-0.08
750.045	-0.01
750.223	-0.13
750.4	-0.23
750.578	0.14
750.755	-0
750.932	-0.06
751.11	0.1
751.287	-0.16
751.464	0.03
751.642	-0.16
751.819	0.03
751.996	-0.07
752.173	-0.13
752.351	-0.12
752.528	-0.01
752.705	0.02
752.882	-0.2
753.06	0.05
753.237	0
753.414	0.07
753.591	0.09
753.768	-0.02
753.945	-0.09
754.122	-0.02
754.299	0.11
754.476	-0.11
754.654	-0.07
754.831	-0.05
755.008	-0.01
755.185	-0.05
755.362	-0.12
755.539	-0.04
755.716	-0.07
755.892	0.02
756.069	-0.05
756.246	-0.05
756.423	-0.03
756.6	0.05
756.777	-0.06
756.954	0.11
757.131	-0.03
757.307	-0.12
757.484	-0.15
757.661	0.06
757.838	0.01
758.015	-0.16
758.191	0.05
758.368	0.06
758.545	0.05
758.721	0.12
758.898	-0.02
759.075	0.15
759.251	0.06
759.428	0.01
759.605	-0.16
759.781	0.07
759.958	-0.05
760.134	0.07
760.311	-0.09
760.488	0.11
760.664	0.13
760.841	-0.07
761.017	-0.09
761.194	0.06
761.37	0.1
761.547	-0.1
761.723	-0.05
761.899	0.04
762.076	-0.08
762.252	-0.05
762.429	-0.13
762.605	0.1
762.781	-0.16
762.958	0.04
763.134	-0.06
763.31	0.09
763.486	0.12
763.663	-0.24
763.839	0.09
764.015	-0.12
764.191	-0.04
764.368	-0.05
764.544	-0.1
764.72	0
764.896	0.13
765.072	-0.06
765.248	-0.14
765.425	-0.1
765.601	-0.02
765.777	0
765.953	-0.22
766.129	-0.03
766.305	-0.04
766.481	-0.08
766.657	-0.06
766.833	0.13
767.009	-0.09
767.185	-0.07
767.361	-0
767.537	-0.1
767.713	0.08
767.889	-0.1
768.065	0.08
768.24	-0.19
768.416	-0.01
768.592	-0.13
768.768	-0.02
768.944	-0.1
769.12	-0.02
769.295	-0.1
769.471	-0.09
769.647	-0.05
769.823	0.16
769.998	-0.13
770.174	-0.1
770.35	0.29
770.525	0.13
770.701	0.01
770.877	-0.03
771.052	-0.11
771.228	0.08
771.403	0.09
771.579	0
771.755	0.1
771.93	-0.1
772.106	-0.18
772.281	-0.11
772.457	-0.09
772.632	0.15
772.808	-0.24
772.983	-0.04
773.159	-0.23
773.334	0.11
773.509	0.01
773.685	0.03
773.86	0.23
774.036	0.19
774.211	-0.06
774.386	-0.08
774.562	-0.01
774.737	0.11
774.912	-0.2
775.087	-0.09
775.263	0.02
775.438	-0.01
775.613	-0.16
775.788	-0.09
775.964	0.08
776.139	0.13
776.314	-0.23
776.489	0.09
776.664	0.14
776.839	-0.06
777.014	0.1
777.19	0.19
777.365	0.16
777.54	0.21
777.715	-0.24
777.89	0
778.065	0.03
778.24	-0.04
778.415	0.11
778.59	-0.16
778.765	-0.1
778.94	-0.05
779.115	-0.27
779.289	0.02
779.464	-0.03
779.639	0.02
779.814	-0.18
779.989	-0.1
780.164	0.16
780.339	0.07
780.513	-0.28
780.688	-0.17
780.863	-0.02
781.038	0.26
781.212	-0.13
781.387	0.04
781.562	0.08
781.737	-0.12
781.911	0.12
782.086	0.05
782.261	-0.02
782.435	0.16
782.61	-0.08
782.784	-0.26
782.959	0.13
783.134	-0.08
783.308	-0.26
783.483	0.04
783.657	0.15
783.832	0.07
784.006	-0.3
784.181	-0.11
784.355	0.21
784.53	-0.16
784.704	-0.18
784.878	0.25
785.053	0.09
785.227	0.09
785.402	0.38
785.576	-0.27
785.75	0
785.925	-0.11
786.099	0.02
786.273	0.2
786.448	0.07
786.622	0.04
786.796	-0
786.97	-0
787.145	0.46
787.319	-0.39
787.493	-0.3
787.667	-0.34
787.841	0.03
788.015	0.07
788.19	-0.25
788.364	0.21
788.538	0.18
788.712	0.07
788.886	0
789.06	0.18
789.234	0.25
789.408	-0.19
789.582	-0.04
789.756	-0.11
789.93	-0.18
790.104	-0.02
790.278	-0.24
790.452	-0.18
790.626	0.2
790.8	-0.04
790.973	0.11
791.147	0.4
791.321	0.22
791.495	0.14
791.669	0.27
791.843	0.32
792.016	-0.09
792.19	0.3
792.364	-0.21
792.538	0.35
792.711	0.33
792.885	0.07
793.059	-0.19
793.233	-0.32
793.406	0.2
793.58	0.04
793.754	0.01
793.927	-0.06
794.101	0.28
794.274	-0.09
794.448	0.23
794.622	-0.28
794.795	0.04
794.969	-0.05
795.142	0.21
795.316	0.04
795.489	-0.04
795.663	0.37
795.836	-0.16
796.009	-0.15
796.183	0.28
796.356	-0.02
796.53	0.28
796.703	-0.17
796.876	0.37
797.05	-0.08
797.223	-0.15
797.396	-0.01
797.57	0.05
797.743	0.15
797.916	-0.19
798.09	-0.13
798.263	0.13
798.436	-0
798.609	-0.31
798.782	-0.21
798.956	-0
799.129	-0.07
799.302	-0.04
799.475	-0.32
799.648	-0.33
799.821	-0.25
799.994	-0.06
800.167	-0.11
800.34	-0.09
800.514	0.08
800.687	-0.26
800.86	-0.06
801.033	-0.12
801.206	-0.35
801.379	-0.37
801.551	0.13
801.724	0.11
801.897	0.24
802.07	-0.3
802.243	-0.64
802.416	-0.14
802.589	-0.33
802.762	0.23
802.935	-0.08
803.107	0.32
803.28	0.29
803.453	0.16
803.626	-0.27
803.798	-0.15
803.971	-0.12
804.144	0.08
804.317	0.14
804.489	0.2
804.662	-0.04
804.835	0.01
805.007	-0.3
805.18	0.37
805.353	0.22
805.525	0.08
805.698	-0.33
805.87	0.16
806.043	0.4
806.215	-0.14
806.388	-0.15
806.56	-0.13
806.733	0.46
806.905	0.25
807.078	-0.09
807.25	-0.16
807.423	-0.12
807.595	0.06
807.768	0.34
807.94	0.38
808.112	0.1
808.285	-0.3
808.457	-0.52
808.629	0.14
808.802	0.21
808.974	-0.27
809.146	-0.31
809.318	-0.13
809.491	0.02
809.663	0.13
809.835	-0.17
810.007	0.27
810.18	0.27
810.352	-0.5
810.524	-0.14
810.696	-0.16
810.868	0.28
811.04	-0.16
811.212	-0.16
811.384	0.03
811.556	0.25
811.728	0.08
811.901	0.36
812.073	-0.07
812.245	0.18
812.417	0.17
812.589	-0.43
812.76	0.08
812.932	0.19
813.104	0.14
813.276	-0.23
813.448	0.16
813.62	-0.06
813.792	0.04
813.964	0.13
814.136	0.07
814.307	-0.41
814.479	-0.22
814.651	-0.31
814.823	0.47
814.995	-0.16
815.166	-0.13
815.338	-0.46
815.51	-0.68
815.681	0.9
815.853	0.28
816.025	-0.19
816.196	0.52
816.368	-0.02
816.54	-0.63
816.711	-0.55
816.883	0.23
817.054	1.31
817.226	-0.28
817.398	0.23
817.569	-0.19
817.741	0.26
817.912	-0.02
818.084	-0.04
818.255	0.14
818.426	-0.13
818.598	0.02
818.769	-0.18
818.941	0.01
819.112	0.4
819.283	0.2
819.455	-0.32
819.626	0.38
819.798	0.12
819.969	0.31
820.14	0.02
820.311	-0.15
820.483	-0.11
820.654	0.07
820.825	0.18
820.996	0.08
821.168	-0.13
821.339	0.04
821.51	-0.51
821.681	-0.4
821.852	0.15
822.023	-0.48
822.195	-0.09
822.366	0.2
822.537	0.01
822.708	-0.28
822.879	-0.15
823.05	0.75
823.221	-0.34
823.392	0.06
823.563	-0.27
823.734	0.12
823.905	0.45
824.076	-0.11
824.247	-0.18
824.418	-0.64
824.589	0.09
824.759	0.02
824.93	-0.41
825.101	-0.5
825.272	0.48
825.443	0.2
825.614	0.28
825.784	-0.25
825.955	0.75
826.126	0.57
826.297	-0.24
826.467	0.79
826.638	0.45
826.809	-1.08
826.98	-0.1
827.15	-0.29
827.321	-0.06
827.492	0.26
827.662	-0.33
827.833	0.95
828.003	-0.21
828.174	-0.17
828.345	-0.33
828.515	0.14
828.686	0.26
828.856	-0.72
829.027	-0.06
829.197	-0.61
829.368	0.2
829.538	-0.4
829.709	-0.51
829.879	-0.01
830.049	0.31
830.22	-0.49
830.39	0.31
830.56	0.32
830.731	-0.36
830.901	-0.12
831.072	0.78
831.242	0.09
831.412	0.04
831.582	-0.56
831.753	-0.87
831.923	0.38
832.093	-0.34
832.263	-0.03
832.434	0.04
832.604	0.08
832.774	-0.07
832.944	-0.48
833.114	-0.02
833.284	0.09
833.454	-0.69
833.624	-1.36
833.795	-0.78
833.965	0.94
834.135	0.75
834.305	-0.93
834.475	-0.69
834.645	-0.47
834.815	-1.42
834.985	-0.35
835.155	-0.77
835.325	0.04
835.494	0.38
835.664	0.09
835.834	-0.98
836.004	0.07
836.174	-0.3
836.344	0.01
836.514	-0.39
836.684	-0.37
836.853	0.09
837.023	0.35
837.193	-0.23
837.363	0.92
837.532	0.35
837.702	-0.2
837.872	-0.43
838.041	0.35
838.211	0.96
838.381	-0.61
838.55	0.55
838.72	1.67
838.89	0.57
839.059	-0.61
839.229	-0.34
839.398	0.57
839.568	0.06
839.738	0.21
839.907	0.36
840.077	0.2
840.246	0.21
840.416	-0.71
840.585	-0.12
840.755	0.48
840.924	0.79
841.093	-0.27
841.263	-0.45
841.432	0.5
841.602	-0.64
841.771	-0.53
841.94	-0.2
842.11	1.7
842.279	0.9
842.448	-0.43
842.617	-1.08
842.787	0.71
842.956	-0.21
843.125	-0.44
843.294	-0.52
843.464	0.98
843.633	0.19
843.802	-1.11
843.971	-0.42
844.14	0.54
844.309	0.56
844.479	-0.8
844.648	-0.84
844.817	-0.76
844.986	-0.23
845.155	-0.6
845.324	0.28
845.493	-0.03
845.662	-0.17
845.831	-0.33
846	0.27
846.169	0.43
846.338	0.48
846.507	-0.33
846.676	-0.01
846.844	-0.09
847.013	0.27
847.182	-0.52
847.351	-0.79
847.52	-0.25
847.689	-0.24
847.858	0.02
848.026	-0.06
848.195	0.03
848.364	-0.89
848.533	-0.74
848.701	-0.27
848.87	-0.37
849.039	0.79
849.207	1.49
849.376	0.24
849.545	0.62
849.713	-0.11
849.882	-0.88
850.051	-0.43
850.219	-0.1
850.388	-0.16
850.556	-0.93
850.725	0.01
850.893	0.15
851.062	-0.21
851.23	-0.08
851.399	-1.66
851.567	0.02
851.736	0.06
851.904	-0.88
852.073	0.08
852.241	0.88
852.41	0.2
852.578	-0.49
852.746	-0.97
852.915	1.29
853.083	-0.76
853.251	-0.94
853.42	0.09
853.588	-0.18
853.756	1.24
853.924	-0.55
854.093	-0.39
854.261	-0.31
854.429	-0.64
854.597	-0.03
854.765	-2.81
854.934	0.8
855.102	0.76
855.27	-0.38
855.438	0.85
855.606	0.57
855.774	1.29
855.942	-1.14
856.11	-1.34
856.278	-0.55
856.446	0.55
856.614	-0.04
856.782	-0.41
856.95	1.65
857.118	-0.5
857.286	-0.19
857.454	-0.61
857.622	0.83
857.79	0.02
857.958	-0.58
858.126	-1.01
858.294	-2.6
858.462	-0.03
858.629	-0.75
858.797	-0.72
858.965	0.22
859.133	0.41
859.301	-0.38
859.468	0.66
859.636	0.24
859.804	0.49
859.971	-0.1
860.139	-1.01
860.307	-0.41
860.474	-0.42
860.642	-0.25
860.81	0.03
860.977	-1.15
861.145	0.95
861.313	-0.1
861.48	0.33
861.648	1.09
861.815	0.39
861.983	-1.78
862.15	-0.96
862.318	0.95
862.485	0.36
862.653	-0.38
862.82	-1.3
862.988	2.71
863.155	-0.31
863.322	-1.55
863.49	-1.18
863.657	-1.23
863.824	2.32
863.992	1.07
864.159	0.44
864.326	-0.07
864.494	-0.56
864.661	1.59
864.828	-2.43
864.996	0.01
865.163	1.52
865.33	-1.74
865.497	-1.39
865.664	-0.62
865.832	-2.75
865.999	-0.14
866.166	-1.81
866.333	-1.58
866.5	0.54
866.667	-1.05
866.834	-0.51
867.001	0.55
867.168	-2.28
867.335	-0.2
867.502	-1.43
867.669	0.16
867.836	1.69
868.003	-0.6
868.17	0.71
868.337	-1.93
868.504	2.07
868.671	-1.47
868.838	1.14
869.005	-0.95
869.172	1.65
869.339	-1.12
869.505	-0.98
869.672	-1.11
869.839	0.86
870.006	-0.26
870.173	-2.48
870.339	0.31
870.506	2.87
870.673	-1
870.84	0.33
871.006	0.42
871.173	-1.17
871.34	0.16
871.506	-0.41
871.673	1.36
871.839	-1.26
872.006	-0.61
872.173	-0.83
872.339	-0.48
872.506	2.02
872.672	-0.75
872.839	-1.55
873.005	-0.2
873.172	1.61
873.338	0.9
873.505	0.77
873.671	-0.98
873.838	-0.87
874.004	-1.14
874.171	-0.96
874.337	0.51
874.503	1.7
874.67	-1.95
874.836	-0.87
875.002	2.36
875.169	1
875.335	0.26
875.501	-0.27
875.668	1.65
875.834	0.53
876	0.71
876.166	1.91
876.332	0.37
876.499	2.81
876.665	-1.64
876.831	1.64
876.997	2.76
877.163	-0.11
877.329	-0.17
877.495	0.31
877.662	0.23
877.828	1.97
877.994	-1.24
878.16	-0.93
878.326	0.01
878.492	0.59
878.658	-1.82
878.824	-0.99
878.99	2.1
879.156	0.74
879.322	2.35
879.487	0.28
879.653	1.06
879.819	0.42
879.985	-1.4
880.151	-0.42
880.317	0.13
880.483	1.51
880.648	1.25
880.814	-3.25
880.98	0.05
881.146	-2.41
881.312	-2.24
881.477	1.07
881.643	-1.32
881.809	0.96
881.974	0.8
882.14	-3.14
882.306	-0.16
882.471	3.61
882.637	-1.56
882.803	2.36
882.968	3.83
883.134	2.35
883.299	0.39
883.465	0.28
883.63	1.45
883.796	0.24
883.961	1.92
884.127	-0.56
884.292	-4.66
884.458	-0.87
884.623	-0.87
