Data from Apollo_Calib_20240827__AbsoluteIrradiance__139__01-28-02-349.txt Node

Date: Wed Aug 28 01:28:02 BST 2024
User: biology
Spectrometer: FLMT08252
Trigger mode: 0
Integration Time (sec): 5.000000E-1
Scans to average: 5
Electric dark correction enabled: true
Nonlinearity correction enabled: false
Boxcar width: 0
XAxis mode: Wavelengths
Number of Pixels in Spectrum: 3648
>>>>>Begin Spectral Data<<<<<
179.588	-0
179.809	-0
180.03	-0
180.251	-0
180.473	-0
180.694	0
180.915	0
181.136	-0
181.357	0
181.578	0
181.799	-0
182.02	-0
182.241	0
182.462	-0
182.683	0
182.904	-0
183.125	-0
183.346	-0
183.567	0
183.788	-0
184.009	-0
184.23	0
184.451	0
184.672	-0
184.892	-0
185.113	0
185.334	0
185.555	-0
185.776	-0
185.996	0
186.217	0
186.438	-0
186.659	-0
186.879	0
187.1	-0
187.321	-0
187.541	-0
187.762	-0
187.983	-0
188.203	-0
188.424	-0
188.644	-0
188.865	0
189.086	-0
189.306	-0
189.527	-0
189.747	-0
189.968	-0
190.188	0
190.409	-0
190.629	0
190.849	-0
191.07	-0
191.29	0
191.511	-0
191.731	-0
191.951	-0
192.172	0
192.392	-0
192.612	-0
192.833	-0
193.053	0
193.273	-0
193.493	-0
193.714	-0
193.934	0
194.154	0
194.374	-0
194.594	-0
194.815	-0
195.035	-0
195.255	0
195.475	-0
195.695	-0
195.915	0
196.135	-0
196.355	0
196.575	0
196.795	-0
197.015	-0
197.235	-0
197.455	-0
197.675	0
197.895	-0
198.115	-0
198.335	0
198.555	-0
198.775	-0
198.995	-0
199.214	0
199.434	-0
199.654	-0
199.874	-0
200.094	0.68
200.313	-0.7
200.533	-0.3
200.753	-0.92
200.973	0.41
201.192	0.59
201.412	-0.88
201.632	-0.39
201.851	0.96
202.071	-1.01
202.291	-0.17
202.51	-0.7
202.73	0.11
202.95	-0.32
203.169	-0.27
203.389	-0.12
203.608	0.13
203.828	-0.46
204.047	-0.39
204.267	0.2
204.486	-0.25
204.706	0.24
204.925	-0.15
205.145	-0.3
205.364	-0.11
205.583	-0.07
205.803	-0.45
206.022	-0.39
206.242	-0.22
206.461	-0.04
206.68	-0.43
206.9	0.1
207.119	0.39
207.338	0.35
207.557	-0.17
207.777	-0.06
207.996	-0.23
208.215	0.35
208.434	-0.36
208.654	-0.56
208.873	0.04
209.092	0.37
209.311	0.08
209.53	-0.17
209.749	-0.06
209.968	-0.24
210.187	-0.37
210.407	-0.71
210.626	-0.26
210.845	-0.14
211.064	-0.12
211.283	-0.31
211.502	0.1
211.721	-0.13
211.94	0.02
212.159	-0.18
212.377	0.28
212.596	-0.06
212.815	0.03
213.034	-0.11
213.253	0.01
213.472	0.15
213.691	-0.07
213.91	-0.45
214.128	-0.22
214.347	0.02
214.566	-0.57
214.785	-0.38
215.003	0.18
215.222	-0.1
215.441	-0.25
215.66	-0.23
215.878	-0.05
216.097	0.16
216.316	-0.4
216.534	-0.2
216.753	0
216.972	-0.03
217.19	-0.13
217.409	-0.33
217.627	-0.25
217.846	-0.18
218.064	-0.04
218.283	-0.27
218.501	0.19
218.72	0.2
218.938	-0.24
219.157	-0.18
219.375	0.05
219.594	0.08
219.812	-0.28
220.031	-0.2
220.249	0.24
220.467	0.22
220.686	-0.18
220.904	-0.28
221.122	-0.19
221.341	0.15
221.559	0.06
221.777	-0.17
221.995	0.02
222.214	0.06
222.432	-0.16
222.65	0.03
222.868	-0.03
223.086	-0.07
223.305	0.1
223.523	-0.14
223.741	0.18
223.959	-0.22
224.177	-0.28
224.395	-0.19
224.613	0.05
224.831	0.08
225.049	-0.26
225.267	-0.14
225.485	-0.03
225.703	-0.07
225.921	-0.01
226.139	-0.15
226.357	0.08
226.575	-0.1
226.793	-0.15
227.011	0.33
227.229	-0.02
227.447	0.04
227.665	-0.1
227.883	-0.2
228.1	-0.09
228.318	0.03
228.536	-0.27
228.754	-0.14
228.972	0.02
229.189	0.13
229.407	-0.11
229.625	-0.07
229.843	-0
230.06	0.04
230.278	-0.1
230.496	-0.17
230.713	-0.12
230.931	0.12
231.149	-0.21
231.366	-0.2
231.584	0.02
231.801	0.19
232.019	-0.11
232.236	-0.2
232.454	-0.22
232.671	-0.04
232.889	-0.06
233.106	-0.15
233.324	-0.07
233.541	-0.05
233.759	-0.04
233.976	-0.18
234.194	-0.07
234.411	-0.1
234.628	-0.21
234.846	-0.01
235.063	-0.08
235.28	-0.08
235.498	-0.14
235.715	-0.16
235.932	0.02
236.149	0.01
236.367	-0.07
236.584	0.01
236.801	-0.18
237.018	0.05
237.236	0.02
237.453	-0.16
237.67	0.12
237.887	-0.17
238.104	-0.03
238.321	-0.18
238.538	-0.06
238.755	0.07
238.973	-0.26
239.19	-0.04
239.407	0.04
239.624	0
239.841	-0.18
240.058	-0.12
240.275	-0.01
240.492	-0.1
240.709	-0.09
240.925	-0.07
241.142	-0.04
241.359	-0.21
241.576	-0.18
241.793	-0.13
242.01	-0.04
242.227	0.18
242.444	0.03
242.66	-0.03
242.877	-0.02
243.094	-0.06
243.311	-0.06
243.527	-0.03
243.744	-0.07
243.961	0.1
244.178	-0.11
244.394	-0.08
244.611	0.15
244.828	0.09
245.044	-0.08
245.261	0.02
245.477	0.02
245.694	0.01
245.911	-0.11
246.127	-0
246.344	0.13
246.56	-0.02
246.777	-0.08
246.993	-0.05
247.21	-0.05
247.426	0.01
247.643	-0.11
247.859	-0.17
248.076	-0.09
248.292	0.14
248.508	-0.06
248.725	-0.02
248.941	0.02
249.157	0.07
249.374	-0.13
249.59	-0.05
249.806	0.04
250.023	-0.03
250.239	-0.12
250.455	-0.1
250.671	-0
250.888	-0
251.104	-0
251.32	-0.08
251.536	-0.08
251.752	0.02
251.969	0.04
252.185	-0.02
252.401	0.21
252.617	0.05
252.833	-0.09
253.049	-0.03
253.265	-0.07
253.481	-0.08
253.697	-0.03
253.913	-0.15
254.129	-0.05
254.345	0.02
254.561	-0.05
254.777	-0.05
254.993	0.05
255.209	-0.06
255.425	-0.03
255.641	-0.1
255.857	0.04
256.073	-0.02
256.288	-0.12
256.504	-0.01
256.72	0.05
256.936	0.07
257.152	0
257.367	-0.08
257.583	-0.03
257.799	0.02
258.015	-0.08
258.23	-0.07
258.446	0.09
258.662	0.02
258.877	-0.13
259.093	-0.08
259.309	-0.09
259.524	0.04
259.74	-0.07
259.955	-0.11
260.171	-0.01
260.387	-0.02
260.602	-0.04
260.818	0.01
261.033	-0.08
261.249	-0.1
261.464	-0.05
261.68	-0.1
261.895	0.04
262.11	0.06
262.326	-0.1
262.541	-0.08
262.757	0.07
262.972	0.01
263.187	-0.02
263.403	0.01
263.618	0.06
263.833	0.03
264.049	-0.06
264.264	-0.06
264.479	0.02
264.694	0.06
264.91	-0.14
265.125	-0.03
265.34	-0
265.555	0.08
265.77	-0.03
265.986	-0.03
266.201	-0.03
266.416	0.07
266.631	-0.02
266.846	-0.03
267.061	-0.01
267.276	-0.02
267.491	-0.16
267.706	0.04
267.921	-0.01
268.136	-0.03
268.351	-0.08
268.566	-0.08
268.781	0.07
268.996	0.05
269.211	-0.04
269.426	-0.04
269.641	-0.08
269.856	0.03
270.071	-0.05
270.285	-0.04
270.5	0.01
270.715	0.05
270.93	-0.03
271.145	0.01
271.359	-0.01
271.574	-0.04
271.789	-0
272.004	-0.07
272.218	-0.07
272.433	0.04
272.648	-0.07
272.862	-0.01
273.077	-0.05
273.292	-0.07
273.506	-0.12
273.721	-0.08
273.936	0.01
274.15	0.04
274.365	-0.03
274.579	0.06
274.794	-0.01
275.008	-0.02
275.223	-0.12
275.437	0.03
275.652	0.07
275.866	0.04
276.081	-0
276.295	0.06
276.509	-0.03
276.724	-0.03
276.938	-0.05
277.153	0.02
277.367	-0.01
277.581	-0.05
277.796	-0.09
278.01	-0.05
278.224	0.04
278.438	0.07
278.653	-0.09
278.867	-0.05
279.081	-0.21
279.295	-0.07
279.51	0.04
279.724	-0.11
279.938	-0.01
280.152	-0.05
280.366	-0.07
280.58	-0.01
280.794	0.04
281.008	-0.01
281.222	0.06
281.437	0.09
281.651	-0.03
281.865	0.03
282.079	-0.06
282.293	-0.07
282.507	-0.04
282.721	0.02
282.935	-0.03
283.148	-0.11
283.362	-0.06
283.576	-0.1
283.79	-0.02
284.004	-0.03
284.218	0.05
284.432	-0.01
284.646	-0
284.859	-0.06
285.073	-0.05
285.287	0.03
285.501	0.01
285.714	-0.02
285.928	-0.01
286.142	-0.06
286.356	-0.05
286.569	-0.06
286.783	0.08
286.997	0.05
287.21	-0.01
287.424	-0.02
287.637	-0.03
287.851	-0.05
288.065	0.02
288.278	-0.06
288.492	-0.03
288.705	-0.03
288.919	0.01
289.132	-0.11
289.346	0.04
289.559	-0.08
289.773	-0.05
289.986	-0.04
290.2	0.02
290.413	0.01
290.626	-0.06
290.84	-0.03
291.053	-0.05
291.267	0.04
291.48	-0
291.693	-0.04
291.906	-0
292.12	-0.07
292.333	-0.04
292.546	-0.06
292.76	0.04
292.973	-0.01
293.186	0.02
293.399	-0.06
293.612	0.04
293.826	-0.02
294.039	-0.02
294.252	-0.03
294.465	0.01
294.678	0.03
294.891	0.03
295.104	-0.05
295.317	-0.04
295.53	0
295.743	-0
295.956	-0
296.169	0.02
296.382	0.04
296.595	0.01
296.808	-0.04
297.021	0.05
297.234	0.04
297.447	-0.05
297.66	-0.01
297.873	0.04
298.086	0.03
298.299	-0.07
298.511	-0.08
298.724	0.03
298.937	-0.04
299.15	-0.05
299.363	0.02
299.575	-0.01
299.788	0.01
300.001	-0.04
300.213	-0.03
300.426	-0.04
300.639	-0.07
300.852	-0.06
301.064	0.01
301.277	0.07
301.489	0.02
301.702	0.03
301.915	0
302.127	-0.02
302.34	-0
302.552	0.04
302.765	-0.04
302.977	0.04
303.19	-0.04
303.402	-0
303.615	-0.03
303.827	-0.09
304.04	-0.01
304.252	0.03
304.464	-0.04
304.677	0.05
304.889	0.07
305.102	-0.03
305.314	-0.06
305.526	0.01
305.739	0.02
305.951	-0.03
306.163	-0.03
306.375	0.06
306.588	-0.07
306.8	-0.08
307.012	-0.08
307.224	-0.01
307.436	0.05
307.649	-0.1
307.861	-0.02
308.073	0.04
308.285	-0.03
308.497	-0.02
308.709	-0.01
308.921	-0.01
309.133	0.01
309.346	-0.02
309.558	-0.04
309.77	-0
309.982	0.05
310.194	0.05
310.406	-0.04
310.617	0.07
310.829	-0.03
311.041	-0.01
311.253	-0.03
311.465	-0.05
311.677	0.01
311.889	-0.02
312.101	-0.01
312.313	0.01
312.524	0.02
312.736	-0.13
312.948	-0.02
313.16	0.04
313.372	0
313.583	0.01
313.795	-0.03
314.007	-0.05
314.218	0.03
314.43	-0.07
314.642	-0.02
314.853	-0.05
315.065	-0.01
315.277	0.02
315.488	0.02
315.7	0.03
315.912	0.03
316.123	-0.02
316.335	-0
316.546	0.08
316.758	-0.02
316.969	-0.04
317.181	-0.01
317.392	-0.03
317.604	0.04
317.815	-0.04
318.026	-0.09
318.238	-0.02
318.449	-0.01
318.661	-0.09
318.872	-0.06
319.083	-0.04
319.295	-0.01
319.506	0
319.717	0.03
319.929	-0.04
320.14	-0.03
320.351	0
320.562	-0.04
320.774	-0.04
320.985	-0.03
321.196	-0.04
321.407	-0.08
321.618	0.02
321.829	0.01
322.041	0
322.252	-0.02
322.463	-0.03
322.674	0.03
322.885	-0.07
323.096	-0.02
323.307	-0.02
323.518	0.01
323.729	-0.01
323.94	-0.04
324.151	-0.03
324.362	0.03
324.573	-0.04
324.784	-0.02
324.995	0.04
325.206	0
325.417	-0.05
325.628	-0
325.838	-0.02
326.049	-0.03
326.26	-0.02
326.471	-0.04
326.682	-0.03
326.892	0
327.103	-0.06
327.314	-0.06
327.525	0.02
327.735	0.01
327.946	-0.04
328.157	-0.02
328.368	0.01
328.578	-0.04
328.789	0.01
328.999	0
329.21	-0.08
329.421	0.01
329.631	-0.04
329.842	-0.04
330.052	0.03
330.263	0.01
330.473	0.02
330.684	-0.02
330.894	-0.02
331.105	-0.04
331.315	-0.03
331.526	-0.08
331.736	0.07
331.947	-0
332.157	-0
332.367	-0.01
332.578	0.05
332.788	0.04
332.999	-0
333.209	-0.01
333.419	-0.02
333.629	-0.01
333.84	0.05
334.05	-0.05
334.26	0.04
334.47	-0.06
334.681	0.01
334.891	-0.05
335.101	0.02
335.311	0.07
335.521	0.01
335.732	-0.04
335.942	0.04
336.152	0.04
336.362	-0.01
336.572	0.04
336.782	0
336.992	-0.02
337.202	-0.01
337.412	-0.07
337.622	0.01
337.832	-0.01
338.042	-0.03
338.252	-0.02
338.462	-0.05
338.672	0
338.882	-0.02
339.092	-0.02
339.302	0.06
339.511	-0.01
339.721	-0.04
339.931	-0.07
340.141	0.03
340.351	0.03
340.561	0
340.77	-0.02
340.98	-0.05
341.19	0.02
341.4	-0.05
341.609	-0.08
341.819	-0.05
342.029	-0.08
342.238	-0
342.448	-0.05
342.658	0.03
342.867	0.01
343.077	0.01
343.286	-0.01
343.496	-0.03
343.706	0.06
343.915	-0.05
344.125	0.01
344.334	-0.01
344.544	-0.09
344.753	-0.01
344.963	-0.01
345.172	-0.03
345.381	-0.06
345.591	-0.07
345.8	-0.03
346.01	0.05
346.219	0.03
346.428	-0.13
346.638	-0.05
346.847	-0.02
347.056	0.05
347.266	-0.06
347.475	-0.01
347.684	0.04
347.893	0.06
348.103	0.02
348.312	-0.02
348.521	0
348.73	-0.02
348.94	-0
349.149	-0.02
349.358	-0.02
349.567	-0.07
349.776	-0.04
349.985	-0.05
350.194	0.04
350.403	0.05
350.612	-0.05
350.821	-0.02
351.03	0
351.239	-0.07
351.448	-0.02
351.657	-0.04
351.866	0.01
352.075	-0
352.284	0.01
352.493	-0.05
352.702	0.03
352.911	0.05
353.12	-0.04
353.329	-0.02
353.538	0.02
353.746	-0.01
353.955	-0.03
354.164	0
354.373	0.01
354.582	0.03
354.79	0
354.999	0.04
355.208	-0
355.416	0.07
355.625	-0.05
355.834	-0.03
356.042	0.01
356.251	0.04
356.46	-0.06
356.668	0
356.877	0.1
357.085	-0
357.294	-0.12
357.503	-0.01
357.711	-0.06
357.92	0.07
358.128	-0.01
358.337	-0.01
358.545	-0.01
358.754	-0.04
358.962	-0.02
359.17	-0
359.379	-0.01
359.587	-0
359.796	0.01
360.004	0.02
360.212	-0.02
360.421	0.05
360.629	-0.03
360.837	0
361.046	0.02
361.254	0.07
361.462	0.01
361.67	-0.03
361.879	-0.02
362.087	0.05
362.295	-0.01
362.503	-0.04
362.711	-0.06
362.92	-0.04
363.128	-0.05
363.336	-0.03
363.544	-0.06
363.752	-0.03
363.96	-0.04
364.168	-0.02
364.376	-0.01
364.584	0.02
364.792	0.01
365	0.03
365.208	-0.01
365.416	0.02
365.624	0.01
365.832	-0.02
366.04	0.03
366.248	-0
366.456	0.03
366.664	0.02
366.872	-0.01
367.079	-0.02
367.287	-0.04
367.495	0.01
367.703	-0.01
367.911	-0.05
368.118	-0.01
368.326	-0.03
368.534	-0.08
368.742	0.04
368.949	-0.05
369.157	-0.02
369.365	0.02
369.572	-0
369.78	-0.06
369.988	0.05
370.195	0.04
370.403	-0.01
370.61	-0.07
370.818	0.03
371.026	0.05
371.233	-0.04
371.441	0.02
371.648	-0.06
371.856	0.01
372.063	0
372.271	-0.02
372.478	-0.02
372.685	-0.04
372.893	0.02
373.1	-0.04
373.308	-0.02
373.515	0.02
373.722	0.03
373.93	-0.02
374.137	0.01
374.344	0.06
374.552	-0.01
374.759	0.01
374.966	-0.04
375.173	-0.07
375.381	0.04
375.588	-0.02
375.795	-0.08
376.002	-0
376.209	-0.05
376.417	-0.04
376.624	-0.03
376.831	0
377.038	-0.04
377.245	-0.1
377.452	-0.03
377.659	-0.01
377.866	-0.02
378.073	-0
378.28	-0.05
378.487	-0
378.694	-0.02
378.901	0.01
379.108	0.02
379.315	-0
379.522	0.05
379.729	-0.05
379.936	0
380.143	-0.01
380.35	0.01
380.557	-0.07
380.763	-0.01
380.97	-0.04
381.177	-0.02
381.384	0
381.591	-0.02
381.797	0.04
382.004	0.01
382.211	0.04
382.418	-0.02
382.624	-0
382.831	0.03
383.038	-0.02
383.244	-0.01
383.451	-0.01
383.658	0.01
383.864	-0.05
384.071	-0.08
384.277	0.07
384.484	-0.06
384.69	0.03
384.897	-0.04
385.103	-0.03
385.31	-0.04
385.516	-0.05
385.723	-0.06
385.929	-0.02
386.136	-0.03
386.342	0.01
386.549	-0.05
386.755	-0
386.961	0.03
387.168	-0.04
387.374	0
387.58	-0.02
387.787	-0.03
387.993	-0.02
388.199	-0.05
388.406	-0.05
388.612	-0.03
388.818	-0.07
389.024	-0
389.231	-0.01
389.437	-0
389.643	0.01
389.849	-0.02
390.055	0
390.261	-0.02
390.467	0
390.674	-0.08
390.88	-0.01
391.086	0.03
391.292	-0.01
391.498	0.02
391.704	0.01
391.91	0.01
392.116	-0.02
392.322	-0.1
392.528	-0
392.734	-0
392.94	-0
393.146	-0.03
393.352	-0.04
393.557	-0.02
393.763	-0.03
393.969	0.03
394.175	0.02
394.381	0.03
394.587	-0.04
394.792	0.03
394.998	0.04
395.204	0.05
395.41	-0.08
395.615	0.06
395.821	0.01
396.027	0.02
396.233	-0.03
396.438	-0
396.644	-0
396.85	-0.01
397.055	-0.02
397.261	-0.01
397.466	0.01
397.672	-0.03
397.878	0.07
398.083	-0.01
398.289	-0.09
398.494	0.01
398.7	0.03
398.905	-0.07
399.111	0.08
399.316	-0.04
399.522	0
399.727	0.02
399.932	-0.02
400.138	-0
400.343	0.07
400.549	-0.05
400.754	-0.01
400.959	0.03
401.165	-0.01
401.37	0.01
401.575	-0.06
401.78	-0.07
401.986	0.01
402.191	-0.03
402.396	0.01
402.601	0.01
402.807	-0.01
403.012	0.01
403.217	0.04
403.422	0.01
403.627	0
403.832	-0.04
404.037	0.04
404.243	0.05
404.448	0.02
404.653	0.02
404.858	0.03
405.063	0.07
405.268	-0.01
405.473	-0.02
405.678	-0.05
405.883	0.16
406.088	0.02
406.293	-0.02
406.498	-0.03
406.703	0.04
406.907	-0.02
407.112	-0.02
407.317	0
407.522	0.04
407.727	-0.03
407.932	-0.04
408.136	0.07
408.341	0.03
408.546	0.01
408.751	0.03
408.956	-0.03
409.16	0.07
409.365	0.01
409.57	-0.04
409.774	0.02
409.979	0.07
410.184	0.01
410.388	-0.01
410.593	0.07
410.798	0.04
411.002	-0.04
411.207	0.01
411.411	-0
411.616	-0.03
411.82	-0.04
412.025	0.05
412.229	-0.07
412.434	0.06
412.638	-0.02
412.843	-0.05
413.047	0.03
413.252	-0.04
413.456	-0.04
413.66	0.03
413.865	-0.03
414.069	0.04
414.273	-0.03
414.478	-0.01
414.682	-0
414.886	-0.05
415.091	-0.06
415.295	-0.04
415.499	-0.04
415.703	-0.02
415.908	0.04
416.112	-0.12
416.316	-0.01
416.52	-0.02
416.724	-0.06
416.929	-0.03
417.133	0.08
417.337	-0.03
417.541	-0.02
417.745	0
417.949	0.03
418.153	-0.01
418.357	-0.05
418.561	0.04
418.765	0
418.969	0.07
419.173	0.04
419.377	-0.09
419.581	0.06
419.785	-0.03
419.989	-0.06
420.193	0.01
420.397	-0.03
420.601	0.04
420.804	0.05
421.008	-0
421.212	0
421.416	0.01
421.62	-0
421.823	-0.03
422.027	0.05
422.231	0.02
422.435	0.03
422.638	0
422.842	-0.01
423.046	-0.01
423.249	0.03
423.453	-0.01
423.657	0.03
423.86	-0.03
424.064	-0.02
424.268	0.03
424.471	-0.04
424.675	0.09
424.878	0.05
425.082	0.02
425.285	0
425.489	0
425.692	-0.01
425.896	-0.06
426.099	0.06
426.303	-0.04
426.506	-0.06
426.71	0.01
426.913	0.08
427.116	0.04
427.32	-0.02
427.523	-0.01
427.726	0.06
427.93	-0.04
428.133	0.01
428.336	-0.04
428.54	-0.02
428.743	0.02
428.946	0.03
429.149	-0.03
429.353	0.02
429.556	-0.03
429.759	-0.01
429.962	-0.01
430.165	0.01
430.368	-0.01
430.571	-0.03
430.775	-0.02
430.978	-0.02
431.181	0.03
431.384	-0
431.587	-0.01
431.79	0.02
431.993	-0
432.196	0
432.399	0.03
432.602	0.05
432.805	-0.03
433.008	-0.07
433.211	-0.08
433.414	0.03
433.616	0.01
433.819	-0.02
434.022	-0.11
434.225	0.05
434.428	0.07
434.631	0.11
434.833	-0.04
435.036	0.01
435.239	0.05
435.442	0
435.645	0
435.847	0.02
436.05	-0.01
436.253	0.03
436.455	-0.05
436.658	0.03
436.861	0.08
437.063	0.01
437.266	-0
437.468	0.03
437.671	0.18
437.874	-0
438.076	-0.08
438.279	-0.07
438.481	-0.07
438.684	-0.04
438.886	0.09
439.089	-0.04
439.291	0.01
439.494	0.05
439.696	-0.02
439.899	-0.01
440.101	0.03
440.303	-0.05
440.506	0.04
440.708	0.01
440.91	0.03
441.113	-0.02
441.315	0.02
441.517	-0.03
441.72	0
441.922	-0.02
442.124	-0.07
442.326	0.05
442.529	0.13
442.731	-0.01
442.933	0.12
443.135	0.01
443.337	-0.03
443.539	0.06
443.742	0.01
443.944	-0.01
444.146	-0.04
444.348	0.02
444.55	-0
444.752	0.06
444.954	-0
445.156	0.1
445.358	0.01
445.56	0.1
445.762	-0.01
445.964	0.01
446.166	0.08
446.368	0.03
446.57	0.11
446.772	0.05
446.974	0.06
447.175	0.04
447.377	0.02
447.579	0.03
447.781	-0.04
447.983	0.08
448.184	0.04
448.386	0.03
448.588	-0.01
448.79	0.06
448.991	0.05
449.193	0.02
449.395	0.06
449.597	0.08
449.798	0.05
450	0.08
450.202	0.08
450.403	0.05
450.605	0.06
450.806	0.07
451.008	-0.01
451.21	0.03
451.411	0.07
451.613	-0.01
451.814	0.04
452.016	0.07
452.217	0.08
452.419	0.1
452.62	0.04
452.821	0.04
453.023	0.13
453.224	0.08
453.426	-0.01
453.627	0.1
453.828	0.07
454.03	0.08
454.231	0.1
454.432	-0.01
454.634	0.11
454.835	0.02
455.036	-0.07
455.238	0.08
455.439	0.11
455.64	-0.05
455.841	0.02
456.042	0.11
456.244	0.03
456.445	0.01
456.646	-0.03
456.847	0.01
457.048	0.02
457.249	0.1
457.45	0.18
457.651	0.01
457.852	0.06
458.054	0.04
458.255	-0.02
458.456	0.02
458.657	0.03
458.858	-0.02
459.058	0.02
459.259	0.07
459.46	-0
459.661	-0.07
459.862	0.08
460.063	-0.06
460.264	0.03
460.465	-0.02
460.666	0.11
460.866	-0.01
461.067	0.02
461.268	0.01
461.469	-0.03
461.67	0.01
461.87	-0.01
462.071	-0.06
462.272	-0.08
462.473	-0
462.673	0.02
462.874	-0.03
463.075	-0
463.275	-0.04
463.476	0.01
463.676	-0.01
463.877	-0
464.078	-0.03
464.278	0.03
464.479	0.01
464.679	-0.03
464.88	0.02
465.08	0.1
465.281	-0.03
465.481	-0.04
465.682	-0.01
465.882	0.02
466.083	-0
466.283	0
466.483	-0
466.684	-0.04
466.884	-0.03
467.085	-0.02
467.285	0.01
467.485	-0.06
467.686	-0.02
467.886	-0.04
468.086	0.04
468.286	-0.01
468.487	0.05
468.687	-0.04
468.887	-0.05
469.087	0.05
469.287	-0.05
469.488	-0.02
469.688	-0
469.888	0.04
470.088	0.03
470.288	0.01
470.488	0.01
470.688	-0.1
470.888	-0.01
471.088	-0.02
471.288	0
471.488	0.04
471.688	-0
471.888	-0.01
472.088	0.07
472.288	0.04
472.488	-0.02
472.688	0
472.888	0.01
473.088	-0
473.288	-0.01
473.488	-0.01
473.688	0.09
473.887	0.01
474.087	-0.04
474.287	-0.03
474.487	-0.05
474.687	0.01
474.886	-0.02
475.086	-0.03
475.286	0
475.486	-0.03
475.685	-0.01
475.885	0
476.085	-0.03
476.284	-0
476.484	-0.01
476.684	0.01
476.883	0.04
477.083	-0.01
477.282	-0.06
477.482	0.03
477.681	0.1
477.881	0
478.08	-0.03
478.28	-0.03
478.479	0
478.679	0.1
478.878	-0.02
479.078	-0.01
479.277	0
479.477	-0.03
479.676	0.05
479.875	-0.01
480.075	-0.07
480.274	-0
480.473	0.01
480.673	-0.04
480.872	0.01
481.071	-0.01
481.271	-0.02
481.47	-0.04
481.669	-0.01
481.868	-0.03
482.067	-0.05
482.267	-0.02
482.466	-0.02
482.665	-0.04
482.864	-0.07
483.063	-0.03
483.262	0
483.461	0.05
483.661	0.01
483.86	-0.02
484.059	0.01
484.258	0
484.457	-0.01
484.656	-0.02
484.855	-0.01
485.054	-0.05
485.253	-0.04
485.452	-0.05
485.651	-0
485.849	-0.03
486.048	-0.04
486.247	-0.02
486.446	0
486.645	-0.05
486.844	-0.03
487.043	-0.03
487.241	0.01
487.44	-0.02
487.639	-0.02
487.838	0.02
488.037	0.02
488.235	0.03
488.434	0
488.633	-0.01
488.831	-0.02
489.03	0.02
489.229	0.02
489.427	-0
489.626	0.04
489.825	0.02
490.023	-0.01
490.222	-0.03
490.42	0.02
490.619	0.03
490.817	-0
491.016	-0.02
491.214	0.01
491.413	-0.03
491.611	-0.01
491.81	-0.02
492.008	0.03
492.207	-0
492.405	0
492.604	-0.07
492.802	-0.02
493	0
493.199	-0.03
493.397	-0.01
493.595	-0.02
493.794	-0.01
493.992	0.04
494.19	-0
494.388	0.02
494.587	-0.04
494.785	-0.01
494.983	-0.05
495.181	-0.01
495.379	-0.03
495.578	-0.01
495.776	0
495.974	0
496.172	-0
496.37	-0.01
496.568	-0.04
496.766	-0.05
496.964	0.02
497.162	-0
497.36	-0.02
497.558	0
497.756	0.02
497.954	-0.02
498.152	-0.02
498.35	-0.03
498.548	-0.01
498.746	-0.01
498.944	-0.03
499.142	-0.03
499.34	-0.06
499.538	-0.01
499.736	-0.03
499.933	0.01
500.131	0.02
500.329	-0
500.527	0.04
500.725	0.02
500.922	0.03
501.12	-0.01
501.318	0
501.516	-0.02
501.713	0.02
501.911	-0.03
502.109	-0.04
502.306	-0.01
502.504	0
502.701	-0.01
502.899	-0.01
503.097	0.02
503.294	-0.01
503.492	0
503.689	0
503.887	0
504.084	0.02
504.282	0.02
504.479	-0.03
504.677	-0
504.874	-0.04
505.072	0
505.269	-0.01
505.466	0.02
505.664	-0.01
505.861	-0.05
506.059	-0.04
506.256	-0
506.453	-0.01
506.651	0.01
506.848	0.01
507.045	-0.02
507.242	-0.02
507.44	-0.02
507.637	-0
507.834	-0
508.031	0.01
508.229	-0.02
508.426	-0.01
508.623	0.01
508.82	-0.02
509.017	-0.04
509.214	0.01
509.411	-0.02
509.608	-0.02
509.805	-0.01
510.003	-0.02
510.2	-0.03
510.397	0.01
510.594	-0.01
510.791	-0.04
510.988	-0.01
511.184	0.01
511.381	-0.01
511.578	-0.03
511.775	0.02
511.972	-0.01
512.169	-0.04
512.366	-0.01
512.563	-0.02
512.76	-0.03
512.956	-0
513.153	-0.01
513.35	-0
513.547	-0.02
513.744	-0.04
513.94	-0.04
514.137	0.01
514.334	-0.01
514.53	-0.03
514.727	-0.01
514.924	0.04
515.12	-0.04
515.317	-0.03
515.514	-0.01
515.71	-0.02
515.907	-0.02
516.103	-0
516.3	-0.01
516.497	0.03
516.693	0
516.89	0.01
517.086	-0.04
517.283	0
517.479	0.01
517.676	-0.01
517.872	-0.02
518.068	-0.01
518.265	-0.01
518.461	-0.03
518.658	-0.03
518.854	-0
519.05	-0.02
519.247	-0.01
519.443	0.01
519.639	-0.02
519.836	-0.01
520.032	-0.01
520.228	0.01
520.424	0.04
520.621	0.01
520.817	-0.01
521.013	0.01
521.209	-0
521.405	0.03
521.601	0.01
521.798	-0.01
521.994	0.02
522.19	-0.02
522.386	-0.04
522.582	-0.01
522.778	-0.03
522.974	-0.05
523.17	0.02
523.366	0.01
523.562	0
523.758	-0.01
523.954	-0.03
524.15	0
524.346	0
524.542	-0.03
524.738	-0.02
524.934	-0.03
525.129	-0.09
525.325	-0.01
525.521	-0.01
525.717	-0
525.913	-0.01
526.109	-0.01
526.304	-0.01
526.5	0
526.696	0
526.892	0.01
527.087	-0.01
527.283	-0.03
527.479	0.02
527.674	-0.03
527.87	-0.01
528.066	-0.01
528.261	0
528.457	-0.02
528.653	-0.01
528.848	-0.02
529.044	-0.01
529.239	0
529.435	0.02
529.63	0
529.826	0.03
530.021	0
530.217	0.02
530.412	-0.02
530.608	-0.02
530.803	-0.01
530.999	0
531.194	-0.06
531.389	-0.01
531.585	-0.07
531.78	-0
531.975	-0.01
532.171	0.01
532.366	-0.02
532.561	0
532.757	-0.02
532.952	-0.01
533.147	-0
533.342	-0.01
533.538	-0
533.733	0.04
533.928	-0.01
534.123	-0.02
534.318	-0.03
534.513	-0.01
534.709	-0.01
534.904	-0.02
535.099	-0.01
535.294	-0.01
535.489	-0.01
535.684	-0.02
535.879	-0.05
536.074	-0
536.269	-0.02
536.464	0.01
536.659	-0.01
536.854	-0.02
537.049	-0
537.244	0
537.439	0
537.634	0.03
537.828	-0.02
538.023	-0.01
538.218	-0.04
538.413	-0.01
538.608	-0.04
538.803	0.01
538.997	-0
539.192	0.02
539.387	-0
539.582	-0.02
539.776	0.01
539.971	-0.02
540.166	-0
540.36	-0.02
540.555	-0.02
540.75	0.01
540.944	-0.01
541.139	-0.03
541.334	-0.02
541.528	0
541.723	0
541.917	-0.02
542.112	-0.05
542.306	-0.04
542.501	-0.01
542.695	-0.02
542.89	-0.03
543.084	0.01
543.279	-0.01
543.473	-0.01
543.668	-0.02
543.862	-0.01
544.056	0.02
544.251	-0.01
544.445	-0
544.64	-0.02
544.834	-0.05
545.028	-0.01
545.222	0.01
545.417	0.01
545.611	-0.02
545.805	-0.01
546	-0.03
546.194	-0.02
546.388	-0.03
546.582	-0
546.776	-0.01
546.97	0.01
547.165	0
547.359	0
547.553	-0.01
547.747	0.01
547.941	-0
548.135	-0.02
548.329	0
548.523	-0
548.717	-0
548.911	-0.01
549.105	0.02
549.299	0.01
549.493	0.02
549.687	0
549.881	0.01
550.075	-0.01
550.269	-0.03
550.463	-0
550.657	-0.02
550.85	-0.03
551.044	-0.03
551.238	-0.02
551.432	-0.04
551.626	-0.02
551.82	-0.02
552.013	-0.05
552.207	0
552.401	-0.01
552.594	-0
552.788	-0.01
552.982	-0
553.176	-0.02
553.369	0.01
553.563	0
553.756	-0.05
553.95	-0.04
554.144	-0.01
554.337	0.02
554.531	-0.01
554.724	0.01
554.918	-0.02
555.111	0
555.305	-0.01
555.498	0.02
555.692	0.01
555.885	-0.04
556.079	0.02
556.272	-0.02
556.466	0.02
556.659	-0.01
556.852	-0.01
557.046	-0.01
557.239	0.02
557.432	-0.03
557.626	-0.02
557.819	-0.01
558.012	0.01
558.206	-0.01
558.399	0
558.592	-0.02
558.785	-0.02
558.979	-0
559.172	0.01
559.365	0.01
559.558	0.01
559.751	-0.02
559.944	-0.03
560.138	-0
560.331	-0
560.524	-0.03
560.717	-0.02
560.91	0.01
561.103	0.02
561.296	-0.02
561.489	0
561.682	0.01
561.875	0.02
562.068	0.01
562.261	-0.01
562.454	0
562.647	-0.01
562.84	-0.01
563.032	-0.02
563.225	-0.01
563.418	-0.01
563.611	-0.01
563.804	-0
563.997	-0.03
564.19	-0.05
564.382	-0
564.575	-0.01
564.768	-0
564.961	-0.03
565.153	-0.04
565.346	0.03
565.539	0.02
565.731	0.02
565.924	0.01
566.117	-0.01
566.309	-0
566.502	-0.03
566.695	-0.03
566.887	-0.01
567.08	-0.04
567.272	-0.01
567.465	0.01
567.657	-0.02
567.85	0.01
568.042	-0
568.235	0.02
568.427	-0.01
568.62	-0.03
568.812	0
569.005	-0
569.197	-0.02
569.389	-0.02
569.582	-0
569.774	-0
569.966	-0.02
570.159	-0.04
570.351	0
570.543	-0.03
570.736	-0
570.928	-0.04
571.12	-0.01
571.312	-0.01
571.505	-0.05
571.697	0.01
571.889	-0.04
572.081	0
572.273	-0.01
572.465	0.03
572.658	-0.02
572.85	-0.01
573.042	-0
573.234	-0.01
573.426	0.03
573.618	-0.05
573.81	0.01
574.002	0
574.194	0.03
574.386	-0.04
574.578	-0.08
574.77	-0.04
574.962	-0
575.154	-0.04
575.346	-0.02
575.538	0.01
575.729	-0.03
575.921	-0.04
576.113	-0.03
576.305	0.01
576.497	-0.01
576.689	-0.02
576.88	-0.04
577.072	-0.01
577.264	-0.03
577.456	-0
577.647	-0.09
577.839	-0.01
578.031	0.01
578.223	-0.03
578.414	-0.05
578.606	-0.01
578.798	-0.01
578.989	-0.03
579.181	0.01
579.372	-0.02
579.564	-0.04
579.755	-0.01
579.947	-0.02
580.139	-0
580.33	-0.06
580.522	-0.02
580.713	-0.09
580.905	-0.02
581.096	-0
581.287	-0.02
581.479	-0.01
581.67	0.01
581.862	-0.03
582.053	-0.03
582.244	-0.05
582.436	-0.02
582.627	-0.01
582.818	-0.04
583.01	-0.04
583.201	0
583.392	0
583.583	-0.01
583.775	-0.03
583.966	-0.02
584.157	-0.02
584.348	-0.02
584.54	-0.07
584.731	0
584.922	-0.01
585.113	-0.05
585.304	-0
585.495	0.01
585.686	-0.01
585.877	-0
586.068	-0.01
586.259	-0.01
586.45	-0.02
586.641	-0.03
586.832	-0.04
587.023	0.01
587.214	-0.01
587.405	0.01
587.596	-0.03
587.787	0.01
587.978	-0.02
588.169	-0.04
588.36	-0.03
588.551	0.01
588.742	-0.04
588.932	-0
589.123	-0.01
589.314	0
589.505	0.01
589.696	-0.03
589.886	-0.04
590.077	-0.08
590.268	0.01
590.458	-0.05
590.649	-0.03
590.84	0.02
591.03	-0.02
591.221	-0.05
591.412	-0.06
591.602	-0.01
591.793	-0
591.984	-0.03
592.174	-0.04
592.365	0.05
592.555	-0.01
592.746	-0.01
592.936	0.01
593.127	-0.01
593.317	0.02
593.508	-0.01
593.698	-0.02
593.889	-0.01
594.079	-0.03
594.269	-0.03
594.46	-0.02
594.65	-0.02
594.84	-0.01
595.031	-0.04
595.221	-0.01
595.411	-0.07
595.602	-0.02
595.792	-0.02
595.982	-0.01
596.172	0.04
596.363	-0.01
596.553	-0.02
596.743	-0.03
596.933	0.02
597.123	0.02
597.314	-0.07
597.504	-0.04
597.694	0.02
597.884	0.01
598.074	-0.03
598.264	-0.03
598.454	-0.02
598.644	-0.02
598.834	0.01
599.024	-0.05
599.214	0
599.404	0.02
599.594	-0.02
599.784	-0.03
599.974	0.05
600.164	0.01
600.354	-0.03
600.544	-0.05
600.734	0.01
600.924	-0.01
601.114	-0.01
601.303	-0.02
601.493	-0.02
601.683	-0.02
601.873	-0
602.063	-0.06
602.252	0.01
602.442	-0.09
602.632	-0.04
602.821	-0.05
603.011	0
603.201	-0.04
603.39	-0.05
603.58	-0.03
603.77	-0.01
603.959	0.03
604.149	0.01
604.339	-0.05
604.528	0.02
604.718	0.03
604.907	-0.03
605.097	-0.01
605.286	-0.04
605.476	0.03
605.665	-0.01
605.855	-0.03
606.044	0.03
606.234	0.01
606.423	-0.04
606.612	-0.02
606.802	0
606.991	0.01
607.181	-0.03
607.37	-0.05
607.559	-0.03
607.749	-0.06
607.938	-0.01
608.127	-0.03
608.316	-0.04
608.506	-0.01
608.695	-0.03
608.884	-0.03
609.073	0.02
609.263	-0
609.452	-0.02
609.641	0.02
609.83	-0.02
610.019	-0.02
610.208	-0.02
610.397	0
610.586	-0.04
610.775	-0.03
610.965	-0.02
611.154	-0.04
611.343	-0.02
611.532	-0.03
611.721	-0.03
611.91	-0.05
612.099	0
612.287	-0.05
612.476	-0.02
612.665	0.01
612.854	-0.04
613.043	0.02
613.232	-0.03
613.421	-0.06
613.61	0.01
613.798	-0.05
613.987	0.01
614.176	-0.01
614.365	0.01
614.554	0
614.742	-0.02
614.931	-0.04
615.12	0.02
615.309	-0.03
615.497	0.04
615.686	-0.05
615.875	-0.02
616.063	-0
616.252	-0.03
616.44	-0.04
616.629	-0
616.818	-0
617.006	-0.01
617.195	-0.02
617.383	-0.02
617.572	-0.01
617.76	-0.04
617.949	-0.04
618.137	0
618.326	0.04
618.514	-0.05
618.703	-0.03
618.891	-0
619.079	-0.05
619.268	0.02
619.456	-0.01
619.644	0.03
619.833	-0.07
620.021	-0.03
620.209	-0.09
620.398	-0
620.586	-0.01
620.774	0.01
620.962	-0.02
621.151	0.05
621.339	0.02
621.527	-0.06
621.715	-0.04
621.903	-0.03
622.092	-0.04
622.28	0.01
622.468	0
622.656	-0.02
622.844	-0.02
623.032	-0.04
623.22	-0.05
623.408	0.01
623.596	-0.01
623.784	-0.01
623.972	-0.02
624.16	-0.03
624.348	0.04
624.536	-0.02
624.724	-0.02
624.912	0.03
625.1	0.03
625.288	-0.05
625.476	-0.04
625.664	-0.01
625.851	-0.06
626.039	-0.02
626.227	0.02
626.415	-0.03
626.603	-0.04
626.79	-0.01
626.978	-0.01
627.166	0.01
627.354	-0.01
627.541	-0.01
627.729	-0.06
627.917	0
628.104	0.03
628.292	0.01
628.48	-0
628.667	0.02
628.855	0.03
629.042	0
629.23	-0.02
629.418	-0.01
629.605	-0.03
629.793	-0.03
629.98	-0.01
630.168	-0.01
630.355	0.01
630.543	-0.01
630.73	-0.03
630.917	0.02
631.105	0.05
631.292	-0.02
631.48	-0.03
631.667	0.05
631.854	0.02
632.042	-0.01
632.229	-0.05
632.416	-0.01
632.604	0
632.791	-0.05
632.978	-0.01
633.165	0
633.353	0.03
633.54	0.03
633.727	-0.04
633.914	-0.03
634.101	-0.05
634.289	0.06
634.476	-0.04
634.663	-0.01
634.85	0.02
635.037	-0.04
635.224	-0.06
635.411	0.04
635.598	0.04
635.785	0.03
635.972	0
636.159	0.04
636.346	-0.04
636.533	0
636.72	-0.02
636.907	-0.01
637.094	0.03
637.281	-0.01
637.468	-0.01
637.655	0.05
637.842	-0.01
638.029	-0
638.215	0.04
638.402	-0
638.589	-0.02
638.776	-0
638.963	-0.02
639.149	0.05
639.336	0.08
639.523	0.02
639.709	0.01
639.896	0.01
640.083	0.06
640.27	0.05
640.456	-0.03
640.643	0.05
640.829	-0.03
641.016	0
641.203	-0.03
641.389	0.05
641.576	0.01
641.762	0.03
641.949	-0.02
642.135	0.04
642.322	0.03
642.508	-0.07
642.695	0.01
642.881	-0.01
643.068	0.01
643.254	-0
643.441	0.03
643.627	-0.01
643.813	-0.01
644	0.06
644.186	-0.03
644.372	0.01
644.559	0.06
644.745	0.01
644.931	-0.02
645.118	0.03
645.304	0.03
645.49	0
645.676	0
645.862	0.01
646.049	0.07
646.235	0.05
646.421	0.07
646.607	0.07
646.793	0.03
646.979	-0.01
647.165	0.06
647.352	0.02
647.538	0.07
647.724	0.03
647.91	0.03
648.096	0.04
648.282	0.06
648.468	0.01
648.654	0.04
648.84	0.05
649.026	0.03
649.212	0.06
649.397	0.02
649.583	0.01
649.769	0.08
649.955	0.04
650.141	0.07
650.327	0.09
650.513	0.05
650.698	0.05
650.884	0.02
651.07	0.08
651.256	0.05
651.442	0.05
651.627	0.04
651.813	0.05
651.999	0.09
652.184	0.07
652.37	0.03
652.556	0.04
652.741	0.1
652.927	-0.02
653.113	0.08
653.298	0.06
653.484	0.05
653.669	0.03
653.855	0.07
654.04	0.1
654.226	0.09
654.412	0.06
654.597	0.02
654.782	0.07
654.968	0.11
655.153	0.09
655.339	0.05
655.524	0.06
655.71	0.11
655.895	0.08
656.08	0.07
656.266	0.14
656.451	0.12
656.636	0.05
656.822	0.07
657.007	0.04
657.192	0.08
657.378	0.05
657.563	0.1
657.748	0.12
657.933	0.1
658.118	0.06
658.304	0.05
658.489	0.1
658.674	0.12
658.859	0.06
659.044	0.12
659.229	0.12
659.414	0.07
659.599	0.08
659.785	0.05
659.97	0.09
660.155	0.12
660.34	0.09
660.525	0.09
660.71	0.07
660.895	0.15
661.08	0.07
661.264	0.04
661.449	0.09
661.634	0.13
661.819	0.11
662.004	0.11
662.189	0.01
662.374	0.06
662.559	0.04
662.743	0.03
662.928	0.08
663.113	0.03
663.298	0.01
663.483	0.06
663.667	0.08
663.852	-0.01
664.037	0.08
664.221	-0.01
664.406	0.06
664.591	0.09
664.775	0.05
664.96	0.05
665.145	0.02
665.329	0.05
665.514	0.03
665.698	0.03
665.883	-0.01
666.068	0.1
666.252	0.02
666.437	-0.01
666.621	-0.03
666.806	0.04
666.99	0.03
667.174	-0.02
667.359	0.04
667.543	-0.01
667.728	0.04
667.912	-0.06
668.096	0.04
668.281	0.02
668.465	0.02
668.649	0.05
668.834	-0.02
669.018	-0
669.202	0.04
669.387	-0.03
669.571	0.06
669.755	-0.04
669.939	-0.02
670.124	-0
670.308	0.03
670.492	-0
670.676	-0
670.86	0.01
671.044	-0.05
671.228	-0.01
671.413	-0.04
671.597	-0.04
671.781	-0.05
671.965	0.02
672.149	0.01
672.333	-0.02
672.517	-0.02
672.701	0.01
672.885	-0.03
673.069	-0.07
673.253	-0.02
673.437	-0
673.621	-0.05
673.804	-0.01
673.988	-0.04
674.172	-0.05
674.356	-0.07
674.54	-0.01
674.724	0.04
674.908	-0.03
675.091	0
675.275	-0
675.459	0.02
675.643	0.02
675.826	0.01
676.01	0.02
676.194	-0.03
676.377	0.06
676.561	0
676.745	-0.03
676.928	-0.02
677.112	0.03
677.296	-0.01
677.479	-0.03
677.663	-0.02
677.846	0.04
678.03	-0.05
678.213	-0.06
678.397	0.02
678.58	-0.02
678.764	-0.04
678.947	-0.04
679.131	-0.1
679.314	0.01
679.498	0.02
679.681	-0.03
679.865	0.01
680.048	-0
680.231	-0.05
680.415	-0.05
680.598	-0
680.781	-0.01
680.965	-0.04
681.148	0.02
681.331	-0
681.514	-0
681.698	-0.05
681.881	-0.03
682.064	0.02
682.247	-0.02
682.43	-0.06
682.614	0.01
682.797	0.02
682.98	-0.03
683.163	-0.04
683.346	0.01
683.529	-0.04
683.712	-0.05
683.895	-0.01
684.078	-0.06
684.261	-0.03
684.444	-0.02
684.627	-0
684.81	-0.03
684.993	0
685.176	0.04
685.359	0
685.542	-0.07
685.725	0.06
685.908	0.01
686.091	0.02
686.274	-0.02
686.457	0
686.639	-0.02
686.822	0
687.005	0.02
687.188	-0
687.371	0.05
687.553	-0
687.736	0.05
687.919	0.01
688.102	-0.03
688.284	-0.03
688.467	-0.05
688.65	-0.04
688.832	-0.02
689.015	0.01
689.197	-0.09
689.38	0.07
689.563	0.02
689.745	-0.04
689.928	-0.04
690.11	-0.02
690.293	0
690.475	-0.05
690.658	0
690.84	-0.04
691.023	-0.01
691.205	-0.04
691.388	-0.01
691.57	0.03
691.752	0
691.935	-0.09
692.117	-0.03
692.3	-0.02
692.482	-0.02
692.664	-0.04
692.847	-0.03
693.029	-0.02
693.211	0.01
693.393	0
693.576	-0.08
693.758	-0.03
693.94	-0.03
694.122	-0.05
694.304	-0.02
694.487	-0.02
694.669	0.05
694.851	-0.05
695.033	0
695.215	-0.07
695.397	-0.05
695.579	0.02
695.761	-0.07
695.943	-0.08
696.125	0.05
696.308	-0
696.49	-0.11
696.671	0.06
696.853	-0.06
697.035	0.12
697.217	-0.03
697.399	-0
697.581	-0.06
697.763	-0.01
697.945	-0.06
698.127	-0.01
698.309	0.03
698.491	-0
698.672	0
698.854	-0
699.036	0.05
699.218	-0.05
699.399	0.05
699.581	0.03
699.763	-0.01
699.945	-0.06
700.126	-0.06
700.308	0.04
700.49	0.04
700.671	-0.16
700.853	0.02
701.035	-0.05
701.216	-0.03
701.398	-0.05
701.579	-0.05
701.761	0.05
701.943	-0.03
702.124	-0.09
702.306	0
702.487	0.08
702.669	-0.02
702.85	-0.05
703.031	-0.09
703.213	0.07
703.394	-0.04
703.576	-0.06
703.757	0.09
703.938	0.09
704.12	0.21
704.301	-0.01
704.483	0.01
704.664	-0.01
704.845	0.08
705.026	-0.01
705.208	-0.01
705.389	0.03
705.57	0.02
705.751	0
705.933	-0.01
706.114	0.05
706.295	-0.03
706.476	-0.01
706.657	0.08
706.838	-0.02
707.02	-0.02
707.201	-0.08
707.382	-0.04
707.563	0.02
707.744	-0.06
707.925	-0.05
708.106	-0.06
708.287	-0
708.468	0.09
708.649	0.02
708.83	0.01
709.011	-0.07
709.192	0.06
709.373	-0.09
709.554	0.01
709.734	0.04
709.915	-0.02
710.096	-0.02
710.277	-0.08
710.458	0
710.639	0.01
710.819	-0.13
711	-0
711.181	0.03
711.362	0.04
711.542	0.05
711.723	0.04
711.904	0.05
712.085	0.04
712.265	0.04
712.446	-0.1
712.627	-0.01
712.807	0.07
712.988	-0.06
713.168	-0.07
713.349	0.05
713.53	-0.05
713.71	-0.07
713.891	-0.1
714.071	-0.03
714.252	-0.14
714.432	-0.06
714.613	-0.1
714.793	-0.01
714.974	0.04
715.154	0.03
715.334	0.07
715.515	0.1
715.695	-0.06
715.876	0.02
716.056	0
716.236	0
716.417	-0.01
716.597	-0.05
716.777	0.13
716.957	0.04
717.138	0.01
717.318	-0.03
717.498	-0.05
717.678	0.02
717.859	0.06
718.039	-0.12
718.219	0.04
718.399	0.05
718.579	-0.03
718.759	-0.01
718.939	-0.02
719.12	0.03
719.3	0.01
719.48	-0.13
719.66	-0.07
719.84	0.07
720.02	-0.01
720.2	-0.02
720.38	-0.01
720.56	0.16
720.74	-0.02
720.92	0.06
721.1	0.09
721.279	0.09
721.459	-0.01
721.639	-0.07
721.819	-0.01
721.999	-0.03
722.179	0.02
722.359	-0.08
722.538	0.03
722.718	0.02
722.898	-0.08
723.078	0.05
723.257	0.02
723.437	0.06
723.617	0.08
723.797	0.07
723.976	0.08
724.156	0.06
724.336	0.14
724.515	0.19
724.695	-0.12
724.874	-0
725.054	0.02
725.234	0.03
725.413	-0.03
725.593	0.07
725.772	-0.02
725.952	0.03
726.131	-0.01
726.311	0.06
726.49	0.03
726.67	-0.08
726.849	-0.05
727.028	0.08
727.208	0.03
727.387	0.08
727.567	-0.13
727.746	0.06
727.925	-0
728.105	-0.06
728.284	-0
728.463	-0.03
728.643	0.04
728.822	-0.06
729.001	0.02
729.18	-0
729.359	0.13
729.539	0.06
729.718	0.06
729.897	0.11
730.076	-0.04
730.255	-0.01
730.434	0.07
730.614	0.08
730.793	0.16
730.972	-0.03
731.151	0.05
731.33	0.17
731.509	0.16
731.688	0.02
731.867	0.07
732.046	-0
732.225	0.27
732.404	0.04
732.583	-0.04
732.762	0.04
732.941	0.13
733.12	0.03
733.298	0.03
733.477	0.1
733.656	0.03
733.835	-0.13
734.014	0.16
734.193	0.06
734.371	0.11
734.55	0.08
734.729	-0.14
734.908	0.11
735.086	0.07
735.265	0.16
735.444	-0.08
735.623	-0.09
735.801	-0.05
735.98	-0.02
736.159	-0.05
736.337	0.13
736.516	0.12
736.694	0.11
736.873	0.1
737.052	0.05
737.23	0.11
737.409	0.01
737.587	0.23
737.766	-0.14
737.944	0.05
738.123	0.08
738.301	0.1
738.479	-0.03
738.658	0.1
738.836	-0.13
739.015	0.06
739.193	0.2
739.371	-0.1
739.55	0.07
739.728	-0.05
739.906	0.18
740.085	0.16
740.263	0.06
740.441	-0.15
740.62	0.27
740.798	0.13
740.976	0.07
741.154	-0.07
741.332	0.14
741.511	0.01
741.689	0.07
741.867	0.11
742.045	-0.04
742.223	0.07
742.401	-0.07
742.579	-0.01
742.757	-0.01
742.935	0.01
743.114	-0.05
743.292	-0.01
743.47	-0.03
743.648	0.1
743.826	0.06
744.004	0.08
744.181	0.14
744.359	0.03
744.537	0.08
744.715	0.06
744.893	0.14
745.071	-0.01
745.249	-0.11
745.427	-0.06
745.605	0.08
745.782	-0.02
745.96	0.15
746.138	0.12
746.316	0.07
746.493	-0.13
746.671	0.05
746.849	-0.1
747.027	0.12
747.204	-0.07
747.382	0.07
747.56	-0.15
747.737	-0.04
747.915	0.08
748.093	0.01
748.27	-0.11
748.448	-0.02
748.625	-0.17
748.803	0.05
748.98	-0.04
749.158	0
749.335	0.06
749.513	-0.08
749.69	-0.07
749.868	0.05
750.045	-0.01
750.223	-0.11
750.4	-0.21
750.578	0.16
750.755	-0.01
750.932	-0.18
751.11	0.1
751.287	-0.14
751.464	0.09
751.642	-0.08
751.819	0
751.996	0.08
752.173	-0.05
752.351	-0.12
752.528	-0
752.705	-0.01
752.882	-0.12
753.06	-0.02
753.237	0.02
753.414	0.17
753.591	0.14
753.768	0.14
753.945	-0.05
754.122	-0.12
754.299	0.06
754.476	-0.13
754.654	-0.11
754.831	0.02
755.008	0.03
755.185	-0.07
755.362	-0.23
755.539	0.01
755.716	-0.13
755.892	-0
756.069	-0.07
756.246	-0.07
756.423	-0.09
756.6	0.12
756.777	-0.01
756.954	0.06
757.131	-0.13
757.307	-0.18
757.484	-0.06
757.661	0
757.838	-0.01
758.015	-0.2
758.191	0.04
758.368	-0
758.545	0.19
758.721	0.02
758.898	-0.09
759.075	-0.02
759.251	0.05
759.428	0.1
759.605	-0.13
759.781	-0.05
759.958	-0.01
760.134	-0.03
760.311	-0.12
760.488	0.06
760.664	0.08
760.841	-0.12
761.017	-0.22
761.194	0.03
761.37	0.04
761.547	-0.04
761.723	0.05
761.899	-0.03
762.076	-0.12
762.252	-0.18
762.429	-0.05
762.605	0.08
762.781	-0.06
762.958	0.02
763.134	-0.1
763.31	-0.06
763.486	0.01
763.663	-0.14
763.839	-0.03
764.015	-0.37
764.191	-0.17
764.368	-0.1
764.544	-0.13
764.72	0.08
764.896	0.11
765.072	-0.05
765.248	-0.13
765.425	-0.03
765.601	0.15
765.777	-0.13
765.953	-0.21
766.129	-0.18
766.305	-0.02
766.481	0.14
766.657	-0.01
766.833	0.1
767.009	-0.09
767.185	0.02
767.361	-0.07
767.537	-0.13
767.713	0.1
767.889	-0.17
768.065	-0.1
768.24	-0.2
768.416	0.06
768.592	-0.08
768.768	-0.07
768.944	-0.15
769.12	-0.01
769.295	-0.19
769.471	-0.03
769.647	-0.09
769.823	0.15
769.998	-0.18
770.174	-0.19
770.35	0.32
770.525	0.24
770.701	0.07
770.877	0.05
771.052	-0.15
771.228	0.12
771.403	0.04
771.579	0.1
771.755	0.2
771.93	-0.09
772.106	-0.15
772.281	-0.17
772.457	0.02
772.632	0.09
772.808	-0.21
772.983	-0.08
773.159	-0.17
773.334	0.15
773.509	-0.03
773.685	-0.04
773.86	0.31
774.036	0.07
774.211	-0
774.386	-0.21
774.562	-0.07
774.737	0.01
774.912	-0.25
775.087	0.06
775.263	-0.03
775.438	0.02
775.613	-0.16
775.788	-0.04
775.964	0.11
776.139	0.22
776.314	-0.27
776.489	-0.08
776.664	-0.01
776.839	-0.13
777.014	0.01
777.19	0.05
777.365	0.15
777.54	0.2
777.715	-0.03
777.89	-0.01
778.065	-0.17
778.24	-0.07
778.415	0.15
778.59	-0.1
778.765	-0.08
778.94	-0.03
779.115	0.01
779.289	-0.17
779.464	-0.22
779.639	-0.03
779.814	-0.2
779.989	-0.31
780.164	0.09
780.339	0
780.513	-0.05
780.688	-0.27
780.863	0.04
781.038	0.09
781.212	-0.35
781.387	-0.02
781.562	0.15
781.737	0.15
781.911	0.06
782.086	-0.07
782.261	-0.17
782.435	0.17
782.61	-0.09
782.784	-0.07
782.959	0.04
783.134	-0.18
783.308	-0.23
783.483	-0.03
783.657	0.24
783.832	0.18
784.006	-0.26
784.181	-0.09
784.355	0.16
784.53	0.08
784.704	-0.24
784.878	0.33
785.053	0.03
785.227	0.12
785.402	0.27
785.576	-0.4
785.75	-0.17
785.925	-0.08
786.099	-0.21
786.273	-0.11
786.448	0.02
786.622	0.05
786.796	-0
786.97	-0.1
787.145	0.43
787.319	-0.4
787.493	-0.08
787.667	-0.22
787.841	-0.25
788.015	0.2
788.19	-0.2
788.364	0.08
788.538	0.07
788.712	-0.01
788.886	-0.1
789.06	0.11
789.234	0.32
789.408	-0.25
789.582	-0.13
789.756	-0.08
789.93	-0.39
790.104	0.03
790.278	-0.18
790.452	-0.22
790.626	0.08
790.8	-0.12
790.973	0.18
791.147	0.2
791.321	0.06
791.495	0.13
791.669	-0.21
791.843	-0.18
792.016	0.09
792.19	0.3
792.364	-0.37
792.538	0.54
792.711	0.06
792.885	-0.1
793.059	-0.34
793.233	-0.51
793.406	0.13
793.58	-0.21
793.754	-0.05
793.927	-0.15
794.101	0.23
794.274	0.1
794.448	0.13
794.622	-0.26
794.795	0.17
794.969	-0.19
795.142	0.21
795.316	-0.1
795.489	-0.01
795.663	0.44
795.836	0.02
796.009	-0.41
796.183	0.12
796.356	0.18
796.53	-0.19
796.703	-0.19
796.876	0.4
797.05	-0.14
797.223	0.17
797.396	0.01
797.57	-0.1
797.743	0.49
797.916	0.06
798.09	-0.02
798.263	0.06
798.436	0.07
798.609	-0.05
798.782	-0.3
798.956	-0.04
799.129	-0.38
799.302	-0.09
799.475	-0.07
799.648	-0.14
799.821	-0.18
799.994	-0.07
800.167	-0.36
800.34	0.01
800.514	0.1
800.687	-0.24
800.86	-0.05
801.033	-0.19
801.206	0.01
801.379	-0.38
801.551	0.21
801.724	-0.09
801.897	0.14
802.07	-0.21
802.243	-0.5
802.416	-0.01
802.589	-0.22
802.762	-0.08
802.935	-0.15
803.107	0.44
803.28	-0.15
803.453	-0.07
803.626	-0.29
803.798	-0.14
803.971	-0.14
804.144	0.05
804.317	-0.02
804.489	0.32
804.662	-0.18
804.835	0.13
805.007	-0.05
805.18	0.23
805.353	0.16
805.525	-0.36
805.698	-0.15
805.87	0.32
806.043	0.12
806.215	-0.24
806.388	-0.35
806.56	-0.06
806.733	0.29
806.905	0.24
807.078	-0.19
807.25	-0.32
807.423	0.11
807.595	0.17
807.768	0.14
807.94	0.41
808.112	-0.05
808.285	-0.28
808.457	0.03
808.629	0.32
808.802	0.18
808.974	0.02
809.146	-0.43
809.318	-0.31
809.491	-0.19
809.663	0
809.835	-0.2
810.007	-0.1
810.18	-0.16
810.352	-0.38
810.524	-0.41
810.696	-0.04
810.868	0.38
811.04	-0.38
811.212	-0.15
811.384	0.18
811.556	-0.45
811.728	-0.12
811.901	0.5
812.073	-0.19
812.245	0.4
812.417	0.11
812.589	-0.55
812.76	-0.18
812.932	0.15
813.104	0.3
813.276	-0.07
813.448	0.42
813.62	-0.23
813.792	0.19
813.964	0.21
814.136	0.23
814.307	0.19
814.479	-0.53
814.651	-0.28
814.823	0.22
814.995	-0.28
815.166	-0.31
815.338	-0.54
815.51	-0.76
815.681	0.56
815.853	-0.15
816.025	-0.1
816.196	0.23
816.368	-0.12
816.54	-0.5
816.711	-0.55
816.883	0.48
817.054	0.68
817.226	-0.39
817.398	0.21
817.569	0.05
817.741	-0.12
817.912	0.17
818.084	-0.32
818.255	0.06
818.426	-0.09
818.598	-0.57
818.769	-0.4
818.941	0.02
819.112	0.38
819.283	-0.22
819.455	-0.46
819.626	-0.23
819.798	0.37
819.969	-0.11
820.14	-0.07
820.311	-0.5
820.483	0.1
820.654	0.25
820.825	-0.01
820.996	-0.46
821.168	-0.53
821.339	-0.04
821.51	-0.6
821.681	-0.32
821.852	-0.22
822.023	-0.43
822.195	-1.24
822.366	0.25
822.537	-0.13
822.708	-0.13
822.879	-0.43
823.05	0.5
823.221	-0.05
823.392	0.23
823.563	-0.18
823.734	-0.22
823.905	0.35
824.076	-0.33
824.247	-0.8
824.418	-0.8
824.589	1.1
824.759	0.21
824.93	-0
825.101	-0.59
825.272	0.09
825.443	0.54
825.614	0.38
825.784	-1.27
825.955	0.83
826.126	0.21
826.297	-0.25
826.467	0.81
826.638	0.54
826.809	-0.09
826.98	-0.31
827.15	0.25
827.321	-0.36
827.492	0.59
827.662	-0
827.833	0.77
828.003	0.4
828.174	-0.73
828.345	-0.94
828.515	0.71
828.686	-0.4
828.856	-0.15
829.027	-0.32
829.197	0.06
829.368	0.16
829.538	-0.37
829.709	-0.38
829.879	-0.55
830.049	0.34
830.22	-0.5
830.39	0.01
830.56	0.6
830.731	-0.28
830.901	-0.41
831.072	-0.11
831.242	0.33
831.412	-0.53
831.582	-0.7
831.753	-0.73
831.923	0.35
832.093	-0.85
832.263	0.2
832.434	-0.02
832.604	-0.46
832.774	0.1
832.944	-0.58
833.114	-0.69
833.284	0.18
833.454	-0.09
833.624	-0.87
833.795	-0.78
833.965	0.43
834.135	0.2
834.305	-0.95
834.475	-0.94
834.645	-0.33
834.815	-0.16
834.985	-0.79
835.155	-0.38
835.325	0.43
835.494	0.28
835.664	-0.31
835.834	-0.69
836.004	0.04
836.174	-0.46
836.344	-0.3
836.514	-0.26
836.684	0.06
836.853	-0.14
837.023	0.49
837.193	-0.68
837.363	0.21
837.532	0.74
837.702	-0.27
837.872	-0.47
838.041	0.12
838.211	0.63
838.381	-0.73
838.55	-0.19
838.72	1.3
838.89	0.67
839.059	-0.01
839.229	-0.48
839.398	0.46
839.568	0.54
839.738	-0.27
839.907	0.57
840.077	0.53
840.246	-0.15
840.416	-1.58
840.585	-0.87
840.755	0.98
840.924	0.7
841.093	-0.82
841.263	-0.48
841.432	-0.44
841.602	-0.62
841.771	-0.94
841.94	0.06
842.11	1.3
842.279	1.24
842.448	-1.24
842.617	-1.28
842.787	0.94
842.956	-1.62
843.125	-0.05
843.294	-0.1
843.464	0.68
843.633	-0.35
843.802	-0.95
843.971	-0.2
844.14	-0.11
844.309	1.08
844.479	-0.83
844.648	-0.47
844.817	-0.44
844.986	-0.32
845.155	-0.27
845.324	-0.17
845.493	0.14
845.662	-0.42
845.831	-0.18
846	0.53
846.169	-0.98
846.338	1.45
846.507	0.42
846.676	0.39
846.844	0.35
847.013	0
847.182	-0.18
847.351	-0.23
847.52	0.34
847.689	0.18
847.858	-0.28
848.026	-0.8
848.195	-0.73
848.364	-0.85
848.533	-0.76
848.701	-0.83
848.87	-0.16
849.039	0.58
849.207	1.13
849.376	1.65
849.545	0.04
849.713	-0.31
849.882	-0.1
850.051	0.14
850.219	0.31
850.388	0.91
850.556	-0.76
850.725	-0.29
850.893	-0.74
851.062	0.19
851.23	0.03
851.399	-1.88
851.567	-0.78
851.736	-0.36
851.904	-1.17
852.073	0.2
852.241	0.58
852.41	-0.51
852.578	0.29
852.746	-0.9
852.915	0.17
853.083	-0.36
853.251	-1.24
853.42	-0.88
853.588	-0.17
853.756	0.89
853.924	0.31
854.093	-1.03
854.261	-1.29
854.429	-1.18
854.597	-0.13
854.765	-1.99
854.934	0.65
855.102	0.68
855.27	-0.19
855.438	0.1
855.606	0.65
855.774	1.24
855.942	-1.85
856.11	-2.09
856.278	-0.44
856.446	0.33
856.614	0.03
856.782	-1.4
856.95	1.34
857.118	0.87
857.286	-0.49
857.454	-1.37
857.622	1.46
857.79	-0.28
857.958	-0.81
858.126	-0.41
858.294	-2.49
858.462	0.81
858.629	-1.32
858.797	-1.21
858.965	0
859.133	0.34
859.301	-0.62
859.468	0.47
859.636	-0.73
859.804	0.29
859.971	0.86
860.139	-0.96
860.307	-0.08
860.474	0.21
860.642	-1.04
860.81	-0.93
860.977	-0.29
861.145	0.4
861.313	-1.28
861.48	0.6
861.648	0.67
861.815	-1.13
861.983	-0.28
862.15	-0.47
862.318	-0.36
862.485	1.44
862.653	-0.95
862.82	-1.33
862.988	0.35
863.155	-0.1
863.322	-0.55
863.49	-1.32
863.657	-1.24
863.824	1.69
863.992	-0.74
864.159	0.6
864.326	1.01
864.494	-0.55
864.661	2.77
864.828	-1.47
864.996	1.35
865.163	0.78
865.33	0.54
865.497	-3.06
865.664	-0.64
865.832	-2.67
865.999	-1.59
866.166	-1.5
866.333	-0.88
866.5	0.09
866.667	0.39
866.834	-1.43
867.001	2.02
867.168	-1.47
867.335	1.31
867.502	-1.91
867.669	1.17
867.836	1.98
868.003	-1.02
868.17	0.88
868.337	1.89
868.504	0.49
868.671	-1.65
868.838	-3.08
869.005	-0.1
869.172	1.36
869.339	-0.54
869.505	-0.28
869.672	-1.32
869.839	0.98
870.006	-0.96
870.173	-2.17
870.339	0.18
870.506	1.05
870.673	-1.89
870.84	0.38
871.006	0.37
871.173	-1.38
871.34	0.24
871.506	0.07
871.673	1.16
871.839	-1.32
872.006	-0.72
872.173	-1.77
872.339	-1.17
872.506	2.07
872.672	-1.46
872.839	-3.28
873.005	-0.43
873.172	3.24
873.338	2.27
873.505	0.57
873.671	0.95
873.838	1
874.004	-2.51
874.171	-1.7
874.337	-0.63
874.503	0.18
874.67	-0.2
874.836	0.04
875.002	1.7
875.169	0.56
875.335	0.96
875.501	-0.89
875.668	0.2
875.834	-1.45
876	-0.76
876.166	1.04
876.332	0.35
876.499	3.2
876.665	-1.88
876.831	-0.78
876.997	1.47
877.163	1.79
877.329	-2.32
877.495	0.88
877.662	-0.31
877.828	-0.05
877.994	-0.82
878.16	-1.2
878.326	-0.49
878.492	-1.18
878.658	-1.57
878.824	-0.87
878.99	2.72
879.156	-2.57
879.322	1.68
879.487	-0.37
879.653	0.66
879.819	-0.03
879.985	-0.92
880.151	-0.05
880.317	1.18
880.483	0.99
880.648	0.27
880.814	-2.16
880.98	0.25
881.146	-3.92
881.312	-2.08
881.477	-1.63
881.643	-0.52
881.809	0.4
881.974	1.26
882.14	-1.84
882.306	-0.13
882.471	2.17
882.637	-1.71
882.803	-0.59
882.968	0.9
883.134	2.53
883.299	-0.33
883.465	-0.35
883.63	-0.5
883.796	1.66
883.961	-0.86
884.127	0.93
884.292	-4.34
884.458	-1.18
884.623	-1.18
