Data from Apollo_Calib_20240827__AbsoluteIrradiance__462__06-51-01-309.txt Node

Date: Wed Aug 28 06:51:01 BST 2024
User: biology
Spectrometer: FLMT08252
Trigger mode: 0
Integration Time (sec): 5.000000E-1
Scans to average: 5
Electric dark correction enabled: true
Nonlinearity correction enabled: false
Boxcar width: 0
XAxis mode: Wavelengths
Number of Pixels in Spectrum: 3648
>>>>>Begin Spectral Data<<<<<
179.588	-0
179.809	-0
180.03	-0
180.251	-0
180.473	-0
180.694	0
180.915	0
181.136	-0
181.357	0
181.578	0
181.799	-0
182.02	-0
182.241	-0
182.462	-0
182.683	0
182.904	-0
183.125	-0
183.346	0
183.567	0
183.788	-0
184.009	-0
184.23	0
184.451	0
184.672	-0
184.892	-0
185.113	0
185.334	0
185.555	-0
185.776	-0
185.996	0
186.217	0
186.438	-0
186.659	-0
186.879	0
187.1	-0
187.321	-0
187.541	-0
187.762	-0
187.983	-0
188.203	-0
188.424	-0
188.644	-0
188.865	0
189.086	-0
189.306	-0
189.527	0
189.747	0
189.968	-0
190.188	0
190.409	0
190.629	0
190.849	-0
191.07	-0
191.29	0
191.511	-0
191.731	-0
191.951	-0
192.172	-0
192.392	-0
192.612	0
192.833	0
193.053	0
193.273	0
193.493	-0
193.714	-0
193.934	0
194.154	0
194.374	0
194.594	-0
194.815	-0
195.035	-0
195.255	0
195.475	-0
195.695	0
195.915	0
196.135	-0
196.355	0
196.575	0
196.795	-0
197.015	-0
197.235	-0
197.455	-0
197.675	-0
197.895	-0
198.115	-0
198.335	0
198.555	-0
198.775	-0
198.995	-0
199.214	0
199.434	0
199.654	-0
199.874	-0
200.094	-1.6
200.313	-0.16
200.533	-0.37
200.753	-0.82
200.973	0.97
201.192	0.73
201.412	-1.29
201.632	-0.23
201.851	0.59
202.071	-0.7
202.291	-0.56
202.51	-0.6
202.73	0.07
202.95	-0.14
203.169	-0.55
203.389	-0.15
203.608	-0.07
203.828	-0.61
204.047	0.05
204.267	0.04
204.486	-0.28
204.706	-0.1
204.925	-0.54
205.145	-0.45
205.364	0.01
205.583	0.6
205.803	-0.29
206.022	-0.3
206.242	0.01
206.461	0.01
206.68	-0.34
206.9	-0.13
207.119	0.39
207.338	0.45
207.557	-0.28
207.777	-0.11
207.996	-0.32
208.215	0.44
208.434	-0.25
208.654	-0.48
208.873	0.06
209.092	0.27
209.311	-0.25
209.53	-0.19
209.749	-0.17
209.968	-0.13
210.187	-0.08
210.407	-0.68
210.626	-0.25
210.845	0.09
211.064	0.03
211.283	-0.29
211.502	0.02
211.721	-0.04
211.94	-0.2
212.159	-0.08
212.377	0.34
212.596	0.24
212.815	-0.05
213.034	0.14
213.253	0.14
213.472	0.39
213.691	-0.25
213.91	-0.13
214.128	-0.24
214.347	0.4
214.566	-0.41
214.785	-0.49
215.003	-0.02
215.222	-0.05
215.441	0
215.66	-0.37
215.878	-0.06
216.097	0.11
216.316	-0.2
216.534	-0.19
216.753	0.12
216.972	-0.1
217.19	-0.2
217.409	-0.19
217.627	-0.2
217.846	-0.12
218.064	-0.15
218.283	-0.12
218.501	0.34
218.72	0.28
218.938	-0.26
219.157	-0.15
219.375	0.2
219.594	0.12
219.812	-0.22
220.031	-0.28
220.249	0.33
220.467	0.24
220.686	-0.27
220.904	-0.45
221.122	-0.2
221.341	0.16
221.559	-0.02
221.777	-0.18
221.995	-0.02
222.214	-0.03
222.432	-0.16
222.65	0.12
222.868	-0.05
223.086	-0.07
223.305	0.13
223.523	-0.06
223.741	0.13
223.959	-0.2
224.177	-0.16
224.395	-0.29
224.613	0.13
224.831	0.29
225.049	-0.23
225.267	-0.01
225.485	-0.02
225.703	-0.01
225.921	0.03
226.139	-0.15
226.357	0.11
226.575	0.01
226.793	-0.07
227.011	0.48
227.229	-0.01
227.447	0.16
227.665	-0.08
227.883	-0.21
228.1	-0.11
228.318	-0.16
228.536	-0.29
228.754	-0.22
228.972	0.03
229.189	0.03
229.407	-0.03
229.625	-0.1
229.843	0.11
230.06	0.09
230.278	-0.11
230.496	-0.03
230.713	-0.04
230.931	0.03
231.149	-0.03
231.366	-0.26
231.584	-0.02
231.801	0.37
232.019	0
232.236	-0.21
232.454	-0.2
232.671	0.11
232.889	-0.07
233.106	-0.12
233.324	-0
233.541	0.01
233.759	-0.15
233.976	-0.14
234.194	-0.02
234.411	0.04
234.628	-0.11
234.846	-0.14
235.063	0.04
235.28	0.01
235.498	-0.03
235.715	-0.23
235.932	0.09
236.149	-0.07
236.367	-0.08
236.584	-0.01
236.801	-0.17
237.018	0.03
237.236	-0.02
237.453	-0.19
237.67	0.14
237.887	-0.13
238.104	-0.05
238.321	-0.13
238.538	-0.13
238.755	0.08
238.973	-0.21
239.19	-0.06
239.407	-0.02
239.624	-0.06
239.841	-0.19
240.058	-0.05
240.275	-0.06
240.492	-0.03
240.709	-0.05
240.925	-0.15
241.142	-0.11
241.359	-0.11
241.576	-0.08
241.793	-0.02
242.01	0.02
242.227	0.06
242.444	-0.03
242.66	0.08
242.877	-0.12
243.094	-0.1
243.311	0.05
243.527	0.02
243.744	-0.04
243.961	0.01
244.178	-0.06
244.394	-0.07
244.611	0.19
244.828	0.11
245.044	-0.16
245.261	-0.01
245.477	-0.01
245.694	0.02
245.911	-0.09
246.127	-0.06
246.344	0.11
246.56	0.05
246.777	-0.05
246.993	-0.01
247.21	0.04
247.426	0.02
247.643	-0.07
247.859	-0.06
248.076	-0.07
248.292	0.19
248.508	-0.09
248.725	-0
248.941	0.02
249.157	0.08
249.374	-0.13
249.59	-0.02
249.806	-0.01
250.023	0.04
250.239	-0.11
250.455	-0.09
250.671	-0.06
250.888	0.04
251.104	-0.05
251.32	-0.04
251.536	0.04
251.752	-0.13
251.969	-0
252.185	-0.06
252.401	0.2
252.617	-0.04
252.833	0.04
253.049	-0.02
253.265	-0.04
253.481	0.02
253.697	-0.15
253.913	-0.07
254.129	0.02
254.345	-0.04
254.561	-0.06
254.777	-0.05
254.993	0.03
255.209	-0
255.425	-0.06
255.641	-0.1
255.857	0.09
256.073	-0.08
256.288	-0.08
256.504	-0.04
256.72	0.04
256.936	0.07
257.152	-0.05
257.367	-0.04
257.583	-0
257.799	0.01
258.015	-0.09
258.23	-0.03
258.446	0.02
258.662	-0.05
258.877	-0.07
259.093	-0.13
259.309	-0.02
259.524	0.04
259.74	-0.08
259.955	-0.11
260.171	-0.01
260.387	0.02
260.602	0.05
260.818	0.02
261.033	-0.09
261.249	-0.06
261.464	-0.04
261.68	-0.09
261.895	0
262.11	0.06
262.326	-0.07
262.541	-0.09
262.757	0.09
262.972	-0.02
263.187	-0.02
263.403	0
263.618	0.05
263.833	-0.04
264.049	-0.06
264.264	-0.06
264.479	0.04
264.694	0.1
264.91	-0.13
265.125	-0.05
265.34	0
265.555	0.12
265.77	0
265.986	-0.05
266.201	-0.01
266.416	0.07
266.631	-0.03
266.846	0.04
267.061	-0.03
267.276	0.01
267.491	-0.09
267.706	-0.01
267.921	0.02
268.136	-0
268.351	-0.03
268.566	-0.11
268.781	0.04
268.996	0.03
269.211	-0.03
269.426	-0.03
269.641	-0.08
269.856	0.04
270.071	-0.06
270.285	-0.1
270.5	0.02
270.715	0.02
270.93	-0.01
271.145	-0.01
271.359	0.08
271.574	-0.02
271.789	-0.04
272.004	-0.06
272.218	-0.05
272.433	0.08
272.648	-0.1
272.862	0.02
273.077	-0.03
273.292	0.01
273.506	-0.08
273.721	-0.02
273.936	0.05
274.15	0.05
274.365	-0.04
274.579	-0.03
274.794	-0.01
275.008	0.09
275.223	-0.06
275.437	-0.05
275.652	0.13
275.866	0.02
276.081	-0.04
276.295	0.06
276.509	0
276.724	-0.03
276.938	0.05
277.153	0.02
277.367	0.01
277.581	-0.04
277.796	-0.03
278.01	-0.06
278.224	0.08
278.438	0.16
278.653	-0.08
278.867	-0.05
279.081	-0.18
279.295	0.02
279.51	0.04
279.724	-0.09
279.938	0.03
280.152	-0.02
280.366	-0.05
280.58	0.05
280.794	0.06
281.008	-0.01
281.222	0.06
281.437	0.16
281.651	-0.01
281.865	-0.01
282.079	0.01
282.293	-0.1
282.507	-0.03
282.721	0
282.935	-0.02
283.148	-0.09
283.362	-0
283.576	-0.08
283.79	-0.01
284.004	-0.06
284.218	0.07
284.432	-0.04
284.646	-0.03
284.859	0
285.073	0.02
285.287	-0.01
285.501	0.05
285.714	-0.08
285.928	-0.01
286.142	-0.05
286.356	-0.03
286.569	-0.08
286.783	0.08
286.997	0.06
287.21	0.02
287.424	0
287.637	-0.02
287.851	-0.03
288.065	0.04
288.278	-0.03
288.492	-0
288.705	-0.03
288.919	0.02
289.132	-0.09
289.346	-0.02
289.559	-0.06
289.773	-0.08
289.986	-0.04
290.2	0.01
290.413	0.03
290.626	-0.08
290.84	-0
291.053	-0.03
291.267	0.05
291.48	-0.02
291.693	0.01
291.906	0
292.12	-0
292.333	-0.06
292.546	-0.02
292.76	0.05
292.973	-0
293.186	0.03
293.399	-0.03
293.612	0.02
293.826	0.02
294.039	0
294.252	-0.01
294.465	-0.02
294.678	0.05
294.891	-0.01
295.104	-0.07
295.317	-0.04
295.53	-0.02
295.743	-0.02
295.956	-0.05
296.169	0.08
296.382	0.09
296.595	-0.01
296.808	-0.05
297.021	0.07
297.234	0.1
297.447	-0.01
297.66	0.03
297.873	0.04
298.086	0.01
298.299	-0.06
298.511	-0.05
298.724	-0.05
298.937	-0.04
299.15	-0.04
299.363	0.01
299.575	0.03
299.788	0.02
300.001	-0.01
300.213	-0.05
300.426	-0.04
300.639	-0.02
300.852	-0.04
301.064	0.05
301.277	0.07
301.489	0.03
301.702	0
301.915	-0.02
302.127	0.01
302.34	-0
302.552	0.03
302.765	-0.08
302.977	0.03
303.19	-0.02
303.402	-0
303.615	-0.02
303.827	0.02
304.04	-0.03
304.252	-0.02
304.464	-0.03
304.677	0.11
304.889	-0
305.102	-0.03
305.314	-0.03
305.526	0.02
305.739	0.01
305.951	-0.07
306.163	-0.03
306.375	0.09
306.588	-0.05
306.8	-0.05
307.012	-0.05
307.224	0.02
307.436	0.03
307.649	-0.02
307.861	0
308.073	0.05
308.285	0.01
308.497	-0.05
308.709	-0.05
308.921	0.01
309.133	0.04
309.346	-0.03
309.558	-0.02
309.77	0.03
309.982	0.01
310.194	0.05
310.406	-0.04
310.617	0.08
310.829	0.03
311.041	0.02
311.253	-0.05
311.465	0.02
311.677	0.01
311.889	-0.01
312.101	-0.01
312.313	0.04
312.524	0.03
312.736	-0.08
312.948	-0.04
313.16	0.08
313.372	0.03
313.583	0.03
313.795	-0.04
314.007	-0.04
314.218	0.01
314.43	-0.01
314.642	-0.03
314.853	-0.06
315.065	0.02
315.277	-0.03
315.488	-0.01
315.7	0.04
315.912	0.02
316.123	0
316.335	-0.02
316.546	0.09
316.758	-0.01
316.969	-0.01
317.181	0.01
317.392	0.03
317.604	0.05
317.815	-0.08
318.026	-0.01
318.238	-0.01
318.449	0.05
318.661	-0.04
318.872	-0.07
319.083	-0.05
319.295	0.06
319.506	-0.02
319.717	-0.03
319.929	0.03
320.14	-0.04
320.351	0.02
320.562	-0.03
320.774	-0.05
320.985	-0.03
321.196	-0.08
321.407	-0.08
321.618	0.03
321.829	0.02
322.041	0.04
322.252	-0.02
322.463	0.03
322.674	0.01
322.885	-0.04
323.096	-0.05
323.307	-0.03
323.518	-0.01
323.729	-0.04
323.94	-0.02
324.151	-0.02
324.362	0.04
324.573	0.01
324.784	-0.06
324.995	0.02
325.206	0.01
325.417	0.01
325.628	-0.05
325.838	0.02
326.049	-0
326.26	-0
326.471	-0.02
326.682	0.01
326.892	-0.05
327.103	-0.05
327.314	-0.07
327.525	0.06
327.735	-0.02
327.946	-0.06
328.157	-0.04
328.368	0.06
328.578	0.01
328.789	0.04
328.999	-0.02
329.21	-0.03
329.421	0.04
329.631	-0.06
329.842	-0.04
330.052	0.03
330.263	0.01
330.473	0.03
330.684	-0.04
330.894	-0.04
331.105	0.01
331.315	-0
331.526	-0.07
331.736	0.07
331.947	0.03
332.157	0.01
332.367	-0.05
332.578	0.01
332.788	0.06
332.999	-0.01
333.209	0.01
333.419	-0.05
333.629	-0.02
333.84	0.02
334.05	-0.02
334.26	0.05
334.47	0.02
334.681	0.04
334.891	-0.06
335.101	0.02
335.311	0.09
335.521	0.01
335.732	-0.04
335.942	0.05
336.152	0.03
336.362	0
336.572	0.04
336.782	0.03
336.992	0.01
337.202	0.02
337.412	-0.05
337.622	0.06
337.832	-0.01
338.042	0.01
338.252	-0.07
338.462	-0.04
338.672	-0.05
338.882	0.01
339.092	-0.03
339.302	0.05
339.511	0.03
339.721	-0.03
339.931	-0.1
340.141	0.06
340.351	0.04
340.561	-0.02
340.77	-0.02
340.98	-0.03
341.19	-0.01
341.4	-0.05
341.609	-0.04
341.819	-0.05
342.029	-0.08
342.238	-0.01
342.448	-0.01
342.658	0.02
342.867	-0.01
343.077	0.06
343.286	0.01
343.496	-0
343.706	0.07
343.915	-0.04
344.125	0
344.334	0.01
344.544	-0.06
344.753	-0.03
344.963	-0.04
345.172	-0
345.381	-0.01
345.591	-0.01
345.8	-0.01
346.01	0.08
346.219	0.03
346.428	-0.15
346.638	0.01
346.847	-0.01
347.056	0.05
347.266	-0.05
347.475	-0.04
347.684	-0.03
347.893	-0.01
348.103	0.01
348.312	-0
348.521	-0.05
348.73	-0.01
348.94	-0.04
349.149	-0.05
349.358	-0.01
349.567	-0.03
349.776	-0.06
349.985	-0.06
350.194	0.02
350.403	0.03
350.612	-0.05
350.821	-0.02
351.03	-0.01
351.239	-0.07
351.448	0.02
351.657	-0.05
351.866	0.01
352.075	0.02
352.284	0.06
352.493	-0.02
352.702	0.05
352.911	0.02
353.12	0.03
353.329	-0.03
353.538	0
353.746	-0.02
353.955	-0.04
354.164	0
354.373	-0.02
354.582	0.01
354.79	-0.01
354.999	0.04
355.208	-0
355.416	0.07
355.625	-0.04
355.834	-0.05
356.042	0.02
356.251	-0.03
356.46	-0.05
356.668	0.01
356.877	0.09
357.085	0.02
357.294	-0.11
357.503	0.07
357.711	-0.05
357.92	0.07
358.128	-0.01
358.337	-0.05
358.545	0.02
358.754	-0.01
358.962	0.02
359.17	-0.03
359.379	0.01
359.587	-0.02
359.796	-0.02
360.004	0.01
360.212	0.04
360.421	0.04
360.629	-0
360.837	-0.03
361.046	0.01
361.254	0.06
361.462	0.01
361.67	-0.01
361.879	0.02
362.087	0.05
362.295	0.01
362.503	-0.01
362.711	-0.04
362.92	0.01
363.128	-0
363.336	-0.04
363.544	-0.03
363.752	-0.03
363.96	-0.03
364.168	-0.04
364.376	0
364.584	0.02
364.792	0
365	0.01
365.208	0.02
365.416	0.03
365.624	0.03
365.832	0
366.04	0.07
366.248	0.02
366.456	0.03
366.664	0.01
366.872	0.02
367.079	-0.03
367.287	-0.03
367.495	0.01
367.703	-0.02
367.911	-0.04
368.118	-0.01
368.326	-0.03
368.534	-0.05
368.742	0.05
368.949	-0.06
369.157	-0.03
369.365	0.05
369.572	-0.01
369.78	-0.07
369.988	0.04
370.195	-0
370.403	0.01
370.61	-0.02
370.818	-0.01
371.026	0.06
371.233	-0.08
371.441	-0.02
371.648	-0.01
371.856	-0.02
372.063	0
372.271	-0.02
372.478	-0.01
372.685	0
372.893	0.02
373.1	-0.01
373.308	-0
373.515	0.07
373.722	0.03
373.93	-0.02
374.137	0.01
374.344	0.04
374.552	0.06
374.759	0.01
374.966	-0.02
375.173	-0
375.381	0.02
375.588	-0.02
375.795	-0.04
376.002	-0.04
376.209	-0
376.417	-0.01
376.624	-0.03
376.831	-0.02
377.038	-0.03
377.245	-0.1
377.452	0.01
377.659	0.01
377.866	-0.04
378.073	-0
378.28	-0.01
378.487	0.03
378.694	0.02
378.901	-0.01
379.108	0.01
379.315	0.02
379.522	0.08
379.729	-0
379.936	0.01
380.143	-0.01
380.35	0.02
380.557	-0.04
380.763	-0.02
380.97	-0
381.177	0.02
381.384	-0.02
381.591	0.01
381.797	-0
382.004	0.02
382.211	0.01
382.418	-0.01
382.624	-0.01
382.831	-0.03
383.038	-0.02
383.244	-0
383.451	-0.02
383.658	0.02
383.864	-0.02
384.071	-0.04
384.277	0.01
384.484	-0.05
384.69	0.06
384.897	-0.07
385.103	0.02
385.31	-0.06
385.516	-0.03
385.723	-0.03
385.929	-0.03
386.136	0.01
386.342	-0
386.549	-0.02
386.755	0.06
386.961	0.05
387.168	0.01
387.374	-0
387.58	0
387.787	-0.03
387.993	0.01
388.199	-0.04
388.406	-0.07
388.612	-0.01
388.818	0.02
389.024	-0.03
389.231	-0.02
389.437	0.09
389.643	0.02
389.849	-0.03
390.055	0.03
390.261	-0
390.467	0.02
390.674	-0.03
390.88	-0.02
391.086	0.01
391.292	-0.03
391.498	-0.02
391.704	0.01
391.91	-0.01
392.116	-0
392.322	-0.09
392.528	-0
392.734	-0.04
392.94	-0.02
393.146	-0.06
393.352	-0.02
393.557	-0.01
393.763	-0.05
393.969	-0.01
394.175	0.01
394.381	0.04
394.587	-0.06
394.792	-0.04
394.998	0.02
395.204	0.05
395.41	-0.04
395.615	-0
395.821	0.05
396.027	-0.01
396.233	-0.04
396.438	0.01
396.644	0.06
396.85	0.03
397.055	-0.02
397.261	0.02
397.466	0.09
397.672	-0.01
397.878	0.05
398.083	0.04
398.289	-0.04
398.494	0.03
398.7	-0.02
398.905	-0.04
399.111	0.06
399.316	-0.01
399.522	0.02
399.727	-0.03
399.932	0.01
400.138	-0.04
400.343	0.06
400.549	0
400.754	-0.01
400.959	0.01
401.165	-0.04
401.37	0.04
401.575	0.06
401.78	0.03
401.986	0
402.191	-0.04
402.396	-0.01
402.601	0.02
402.807	-0.02
403.012	0.01
403.217	0.08
403.422	-0.01
403.627	-0.02
403.832	-0.02
404.037	0.03
404.243	0.01
404.448	-0.04
404.653	0.01
404.858	0.02
405.063	0.06
405.268	-0.02
405.473	-0.06
405.678	-0.09
405.883	0.1
406.088	-0.02
406.293	-0.06
406.498	0
406.703	0.02
406.907	0.01
407.112	-0.04
407.317	0.02
407.522	0.03
407.727	-0.05
407.932	-0.02
408.136	0.05
408.341	0.02
408.546	-0
408.751	-0.01
408.956	-0.02
409.16	0.01
409.365	0.01
409.57	-0.05
409.774	-0.04
409.979	0.03
410.184	-0.04
410.388	-0.05
410.593	0.04
410.798	-0.04
411.002	-0.04
411.207	0.02
411.411	0.03
411.616	-0.06
411.82	-0
412.025	0.03
412.229	-0.03
412.434	0.07
412.638	-0.01
412.843	-0.01
413.047	0.01
413.252	-0.05
413.456	-0.02
413.66	0
413.865	-0.06
414.069	0.04
414.273	0
414.478	-0.03
414.682	0.01
414.886	-0.05
415.091	-0.05
415.295	-0.06
415.499	-0.02
415.703	-0.04
415.908	0.03
416.112	-0.08
416.316	-0.02
416.52	-0.03
416.724	-0.05
416.929	-0.07
417.133	0.07
417.337	-0.04
417.541	-0.03
417.745	-0.04
417.949	-0.01
418.153	0.01
418.357	-0.05
418.561	0.04
418.765	0
418.969	0.08
419.173	0.05
419.377	-0.1
419.581	0.08
419.785	-0.03
419.989	-0.06
420.193	-0.03
420.397	-0.05
420.601	0.09
420.804	0.02
421.008	-0.01
421.212	0.01
421.416	0.03
421.62	0.02
421.823	-0
422.027	0.06
422.231	0.02
422.435	-0.06
422.638	0.05
422.842	-0.06
423.046	-0.02
423.249	0.08
423.453	0
423.657	0.03
423.86	-0.03
424.064	-0.02
424.268	0.05
424.471	-0
424.675	0.06
424.878	0.09
425.082	0.01
425.285	0.04
425.489	-0.01
425.692	0.01
425.896	-0.04
426.099	-0
426.303	-0.02
426.506	-0.13
426.71	0.07
426.913	0.03
427.116	0.08
427.32	-0.04
427.523	-0.01
427.726	0.09
427.93	-0.07
428.133	0.01
428.336	-0.04
428.54	-0.02
428.743	0.01
428.946	0.01
429.149	-0.02
429.353	-0.04
429.556	0
429.759	-0
429.962	-0.02
430.165	-0.03
430.368	-0.02
430.571	-0.04
430.775	0.02
430.978	-0.03
431.181	0.02
431.384	0.03
431.587	-0.04
431.79	0.01
431.993	0.02
432.196	-0.02
432.399	-0.02
432.602	0.07
432.805	-0.02
433.008	0.01
433.211	-0.1
433.414	0.04
433.616	0.01
433.819	-0.03
434.022	-0.09
434.225	0.05
434.428	-0
434.631	0.12
434.833	-0.02
435.036	-0.02
435.239	0.04
435.442	0.06
435.645	-0.02
435.847	0.01
436.05	0.01
436.253	0.02
436.455	-0.05
436.658	-0.02
436.861	0.07
437.063	-0.04
437.266	0.02
437.468	0.01
437.671	0.11
437.874	-0.05
438.076	-0.09
438.279	-0.03
438.481	-0.06
438.684	-0.04
438.886	0.06
439.089	-0.08
439.291	-0.01
439.494	0.05
439.696	-0.03
439.899	-0.03
440.101	-0.04
440.303	-0.12
440.506	-0.01
440.708	-0.02
440.91	0.04
441.113	-0.05
441.315	0.03
441.517	-0.1
441.72	0.02
441.922	-0.08
442.124	-0.05
442.326	0.02
442.529	0.08
442.731	-0.06
442.933	0.05
443.135	-0
443.337	-0.01
443.539	-0.03
443.742	-0.05
443.944	0.02
444.146	-0.06
444.348	-0.04
444.55	-0.06
444.752	-0
444.954	-0.04
445.156	0.01
445.358	-0.02
445.56	0.02
445.762	-0.05
445.964	-0.04
446.166	-0.07
446.368	-0.03
446.57	0.03
446.772	0.01
446.974	-0.01
447.175	0.03
447.377	-0.06
447.579	-0.01
447.781	-0.03
447.983	0.02
448.184	-0.02
448.386	0
448.588	-0.07
448.79	0.01
448.991	-0.02
449.193	-0.05
449.395	-0.03
449.597	0.06
449.798	0.01
450	0.03
450.202	-0
450.403	0.02
450.605	0.03
450.806	-0.05
451.008	-0.07
451.21	0
451.411	0.02
451.613	-0.01
451.814	-0.03
452.016	0.02
452.217	-0.03
452.419	0.01
452.62	0.01
452.821	-0
453.023	0.07
453.224	0.05
453.426	-0.02
453.627	0.01
453.828	0.05
454.03	-0
454.231	0
454.432	-0.06
454.634	0.05
454.835	-0.04
455.036	-0.05
455.238	-0.02
455.439	0.11
455.64	-0.07
455.841	-0.07
456.042	0.08
456.244	0.02
456.445	-0.06
456.646	-0.06
456.847	-0.06
457.048	0.07
457.249	0.02
457.45	0.19
457.651	-0.05
457.852	0.05
458.054	0.03
458.255	-0.03
458.456	-0.01
458.657	-0.02
458.858	-0.06
459.058	-0.02
459.259	0.02
459.46	-0.04
459.661	-0.05
459.862	0.07
460.063	-0.04
460.264	0.03
460.465	-0.05
460.666	0.1
460.866	-0
461.067	-0.01
461.268	-0.04
461.469	-0.04
461.67	0.04
461.87	-0
462.071	-0.04
462.272	-0.02
462.473	-0.06
462.673	0.07
462.874	-0.05
463.075	0.02
463.275	-0.01
463.476	-0
463.676	0.04
463.877	0.04
464.078	0.01
464.278	0.09
464.479	-0
464.679	-0.01
464.88	-0.02
465.08	0.04
465.281	-0.08
465.481	-0.07
465.682	-0.03
465.882	0.05
466.083	-0.03
466.283	-0
466.483	-0.01
466.684	-0.04
466.884	-0
467.085	-0.04
467.285	0.06
467.485	-0.03
467.686	-0.01
467.886	-0.04
468.086	-0.01
468.286	0
468.487	0.02
468.687	-0.03
468.887	-0.03
469.087	0.04
469.287	-0.01
469.488	-0.03
469.688	0.02
469.888	0.06
470.088	0.03
470.288	0.05
470.488	0.06
470.688	-0.04
470.888	-0
471.088	0.02
471.288	0.04
471.488	-0.02
471.688	0.03
471.888	-0.02
472.088	0.06
472.288	0.05
472.488	-0.04
472.688	-0.03
472.888	-0.02
473.088	-0.03
473.288	-0.01
473.488	-0.01
473.688	0.03
473.887	0
474.087	-0.02
474.287	0.01
474.487	-0.05
474.687	-0.01
474.886	-0.06
475.086	-0
475.286	0.03
475.486	-0.01
475.685	-0.02
475.885	-0.01
476.085	-0.01
476.284	-0
476.484	-0
476.684	0.03
476.883	0.03
477.083	0.01
477.282	-0
477.482	0.03
477.681	0.06
477.881	-0
478.08	-0.05
478.28	-0.02
478.479	-0.01
478.679	0.06
478.878	-0.03
479.078	-0.05
479.277	-0.02
479.477	-0.05
479.676	-0.01
479.875	0.02
480.075	-0.06
480.274	0
480.473	0.02
480.673	-0.04
480.872	0.05
481.071	-0
481.271	-0.03
481.47	-0.01
481.669	-0.02
481.868	0.01
482.067	-0.04
482.267	-0.03
482.466	-0.01
482.665	-0.02
482.864	-0.03
483.063	-0.06
483.262	0.02
483.461	0.04
483.661	0
483.86	-0.01
484.059	-0.03
484.258	-0.01
484.457	-0.01
484.656	-0.03
484.855	0.04
485.054	-0.05
485.253	-0.03
485.452	-0.03
485.651	0.01
485.849	0
486.048	-0.02
486.247	-0.02
486.446	0.02
486.645	-0.04
486.844	-0.01
487.043	-0.03
487.241	0.02
487.44	-0.04
487.639	-0.02
487.838	-0.09
488.037	0.01
488.235	0.02
488.434	-0.01
488.633	-0.02
488.831	0.02
489.03	0.02
489.229	0.01
489.427	-0.01
489.626	0.03
489.825	0.03
490.023	0.02
490.222	-0.03
490.42	0.01
490.619	0.03
490.817	0.01
491.016	-0.01
491.214	0.03
491.413	-0.01
491.611	-0.04
491.81	-0.01
492.008	0.01
492.207	0.02
492.405	-0
492.604	-0.06
492.802	-0.03
493	0
493.199	-0.01
493.397	0.01
493.595	-0.02
493.794	-0.05
493.992	0.03
494.19	-0
494.388	-0.01
494.587	-0.05
494.785	-0.01
494.983	-0.04
495.181	-0.03
495.379	-0.02
495.578	-0.03
495.776	0.01
495.974	0.02
496.172	-0
496.37	-0.01
496.568	-0.01
496.766	-0
496.964	0.02
497.162	0.01
497.36	-0.02
497.558	0
497.756	0.03
497.954	-0.01
498.152	-0.03
498.35	-0.01
498.548	-0.02
498.746	0
498.944	-0.01
499.142	-0.01
499.34	-0.04
499.538	0
499.736	-0.03
499.933	0.02
500.131	0.02
500.329	0.01
500.527	0.03
500.725	0.02
500.922	0.01
501.12	-0
501.318	-0.02
501.516	-0.03
501.713	-0.01
501.911	0.01
502.109	-0.03
502.306	0.02
502.504	0.01
502.701	-0.02
502.899	-0.01
503.097	0.02
503.294	-0.01
503.492	-0.02
503.689	-0
503.887	0.01
504.084	0.03
504.282	-0.01
504.479	-0.05
504.677	0.01
504.874	-0.03
505.072	-0.01
505.269	-0.01
505.466	0.01
505.664	-0
505.861	-0.05
506.059	-0.03
506.256	0.01
506.453	-0.02
506.651	0.03
506.848	0.01
507.045	0
507.242	-0.02
507.44	-0.01
507.637	-0.01
507.834	-0
508.031	0.03
508.229	-0.05
508.426	0
508.623	0.02
508.82	-0
509.017	-0.03
509.214	-0
509.411	-0.03
509.608	-0.04
509.805	-0.01
510.003	-0.03
510.2	-0.02
510.397	0.02
510.594	0.01
510.791	-0.02
510.988	-0.03
511.184	0.02
511.381	-0
511.578	-0.02
511.775	0.04
511.972	-0.01
512.169	-0.02
512.366	-0.02
512.563	0.03
512.76	-0.02
512.956	0.01
513.153	-0.04
513.35	0.02
513.547	-0.02
513.744	-0.02
513.94	-0.05
514.137	0.02
514.334	-0.03
514.53	0
514.727	0
514.924	0.04
515.12	-0.01
515.317	-0.03
515.514	-0
515.71	-0.01
515.907	-0.03
516.103	-0.02
516.3	0.01
516.497	0.02
516.693	0.03
516.89	0
517.086	-0.02
517.283	0.01
517.479	0
517.676	-0
517.872	-0
518.068	-0.03
518.265	-0.03
518.461	-0.01
518.658	-0.03
518.854	0.01
519.05	-0.02
519.247	-0.01
519.443	-0
519.639	0
519.836	0.01
520.032	0.01
520.228	-0.01
520.424	0.06
520.621	0.01
520.817	-0.01
521.013	0.02
521.209	0.02
521.405	0.03
521.601	0.02
521.798	-0.01
521.994	0.01
522.19	-0.02
522.386	-0.03
522.582	0
522.778	-0
522.974	-0.02
523.17	-0.01
523.366	-0.02
523.562	0.03
523.758	-0
523.954	-0.02
524.15	-0.02
524.346	-0.02
524.542	-0.01
524.738	-0.03
524.934	0.01
525.129	-0.01
525.325	0
525.521	0.01
525.717	0.02
525.913	-0.02
526.109	-0
526.304	-0.01
526.5	0.01
526.696	0
526.892	-0.01
527.087	0
527.283	-0.03
527.479	0.03
527.674	-0
527.87	0.01
528.066	-0.01
528.261	0.02
528.457	-0.02
528.653	-0.01
528.848	0.02
529.044	-0
529.239	-0.01
529.435	0.01
529.63	0
529.826	0.04
530.021	0.01
530.217	0.02
530.412	0
530.608	-0.03
530.803	0.02
530.999	-0.01
531.194	-0.05
531.389	0.01
531.585	-0.05
531.78	-0.01
531.975	-0.02
532.171	0.01
532.366	-0.01
532.561	0.01
532.757	-0
532.952	-0.02
533.147	0.01
533.342	-0.02
533.538	-0.02
533.733	0.02
533.928	-0
534.123	-0.02
534.318	-0.04
534.513	-0.02
534.709	-0.01
534.904	-0.03
535.099	-0.03
535.294	-0
535.489	-0.01
535.684	-0.03
535.879	-0.02
536.074	-0
536.269	-0.01
536.464	-0
536.659	-0.02
536.854	-0
537.049	-0
537.244	0.01
537.439	-0.02
537.634	0.02
537.828	0.01
538.023	-0.01
538.218	-0.05
538.413	-0.02
538.608	-0.05
538.803	0.03
538.997	-0.04
539.192	0.02
539.387	0.01
539.582	-0.01
539.776	-0.01
539.971	-0.02
540.166	-0.01
540.36	-0.05
540.555	-0.02
540.75	-0.03
540.944	-0.01
541.139	-0.04
541.334	-0.01
541.528	0.02
541.723	0.02
541.917	-0.01
542.112	-0.04
542.306	-0.01
542.501	-0.01
542.695	-0.01
542.89	-0.03
543.084	-0
543.279	0
543.473	-0.02
543.668	-0.01
543.862	-0.02
544.056	-0.01
544.251	-0.01
544.445	-0.01
544.64	-0.03
544.834	-0.03
545.028	-0.01
545.222	-0
545.417	0.02
545.611	-0
545.805	-0.01
546	-0.03
546.194	-0.01
546.388	-0.02
546.582	0.01
546.776	-0.01
546.97	-0.01
547.165	-0
547.359	0.02
547.553	-0.03
547.747	-0
547.941	-0
548.135	-0.01
548.329	0.02
548.523	0.02
548.717	-0.02
548.911	-0.04
549.105	-0.01
549.299	-0.01
549.493	0.03
549.687	0
549.881	0.01
550.075	-0.01
550.269	-0.04
550.463	0.02
550.657	-0.02
550.85	-0.02
551.044	-0.02
551.238	0
551.432	-0.02
551.626	-0.02
551.82	-0
552.013	-0.02
552.207	0
552.401	-0.01
552.594	0.01
552.788	-0.01
552.982	-0
553.176	-0.02
553.369	0.02
553.563	0.02
553.756	-0.04
553.95	-0.02
554.144	-0.01
554.337	0.02
554.531	0.02
554.724	-0
554.918	-0.03
555.111	0
555.305	0.02
555.498	0.03
555.692	0.03
555.885	-0.03
556.079	-0.01
556.272	-0.01
556.466	0.01
556.659	-0
556.852	-0.01
557.046	-0
557.239	0.02
557.432	-0
557.626	-0.03
557.819	0.01
558.012	-0
558.206	0.02
558.399	-0.01
558.592	-0.01
558.785	-0.02
558.979	0.02
559.172	0.02
559.365	0.01
559.558	-0.01
559.751	-0.01
559.944	0.01
560.138	-0.05
560.331	-0.01
560.524	-0.01
560.717	-0.01
560.91	0
561.103	0.01
561.296	-0.02
561.489	0
561.682	0
561.875	0.03
562.068	0.02
562.261	0.02
562.454	0.03
562.647	0.01
562.84	0.01
563.032	-0.01
563.225	0.01
563.418	-0.04
563.611	-0.03
563.804	0.01
563.997	-0.04
564.19	-0.05
564.382	0.01
564.575	-0.01
564.768	-0.01
564.961	-0
565.153	-0.02
565.346	0.04
565.539	0.01
565.731	0.03
565.924	0.01
566.117	0.02
566.309	-0.02
566.502	-0
566.695	-0.02
566.887	0
567.08	-0.03
567.272	-0.01
567.465	-0.02
567.657	-0.02
567.85	0.03
568.042	-0.01
568.235	0.04
568.427	-0
568.62	-0.01
568.812	0.02
569.005	-0
569.197	-0.05
569.389	0
569.582	0
569.774	-0.01
569.966	-0.03
570.159	-0.02
570.351	0.01
570.543	-0.03
570.736	-0
570.928	-0.04
571.12	0.01
571.312	-0.03
571.505	-0.02
571.697	0.01
571.889	-0.02
572.081	-0
572.273	-0.04
572.465	0.02
572.658	-0
572.85	-0
573.042	-0.03
573.234	-0.01
573.426	0.03
573.618	-0.04
573.81	0
574.002	0.03
574.194	0.04
574.386	-0.07
574.578	-0.08
574.77	-0.02
574.962	-0.03
575.154	-0.03
575.346	-0.01
575.538	0.01
575.729	-0.03
575.921	-0.02
576.113	-0.01
576.305	0.03
576.497	-0.01
576.689	-0.02
576.88	-0.03
577.072	0.02
577.264	-0.01
577.456	-0.01
577.647	-0.07
577.839	-0.03
578.031	0.03
578.223	-0.04
578.414	-0.04
578.606	0.02
578.798	0
578.989	-0.02
579.181	-0.03
579.372	-0
579.564	-0.02
579.755	-0
579.947	-0
580.139	0.01
580.33	-0.08
580.522	-0.01
580.713	-0.06
580.905	-0.02
581.096	0.03
581.287	-0
581.479	-0.01
581.67	0.01
581.862	0.01
582.053	-0.03
582.244	-0.03
582.436	-0.02
582.627	-0
582.818	-0.01
583.01	-0.04
583.201	0
583.392	0.01
583.583	-0.01
583.775	-0.03
583.966	-0.03
584.157	-0.01
584.348	-0.02
584.54	-0.05
584.731	-0.01
584.922	-0.02
585.113	-0.01
585.304	0
585.495	0.02
585.686	-0.01
585.877	-0.01
586.068	0.01
586.259	0.01
586.45	-0.01
586.641	-0.03
586.832	-0.08
587.023	-0.01
587.214	-0.02
587.405	0
587.596	-0.03
587.787	0
587.978	0.03
588.169	-0.02
588.36	-0.04
588.551	0.03
588.742	-0.02
588.932	-0
589.123	0
589.314	0.02
589.505	-0.01
589.696	0.01
589.886	-0
590.077	-0.07
590.268	-0
590.458	-0
590.649	-0.03
590.84	0.03
591.03	-0.01
591.221	-0.06
591.412	-0.04
591.602	0.02
591.793	0.02
591.984	-0.02
592.174	0.01
592.365	0.07
592.555	-0.03
592.746	0.01
592.936	0.04
593.127	-0
593.317	0.05
593.508	-0
593.698	-0.01
593.889	-0.01
594.079	0.01
594.269	-0.03
594.46	-0.01
594.65	0.03
594.84	0.01
595.031	-0.05
595.221	0
595.411	-0.04
595.602	0.01
595.792	0
595.982	-0.04
596.172	0.06
596.363	-0.01
596.553	0
596.743	0
596.933	0.01
597.123	0.03
597.314	0
597.504	-0.03
597.694	0.02
597.884	0.02
598.074	-0.01
598.264	-0.01
598.454	0.04
598.644	0.01
598.834	-0.01
599.024	-0.04
599.214	-0
599.404	0.02
599.594	0.01
599.784	-0.01
599.974	0.05
600.164	0.02
600.354	-0.02
600.544	-0.02
600.734	0.02
600.924	0.04
601.114	-0.02
601.303	0.02
601.493	0.04
601.683	0.01
601.873	0.01
602.063	-0.04
602.252	0.03
602.442	-0.05
602.632	-0
602.821	-0.04
603.011	0.02
603.201	-0.02
603.39	-0.04
603.58	-0.01
603.77	0.03
603.959	0.03
604.149	0.01
604.339	-0.01
604.528	0.07
604.718	0.05
604.907	0.01
605.097	0.01
605.286	-0.03
605.476	0.03
605.665	0.03
605.855	0.01
606.044	0.08
606.234	0.03
606.423	0.01
606.612	-0.01
606.802	0.02
606.991	0.02
607.181	0.04
607.37	-0.02
607.559	0.01
607.749	-0.02
607.938	0.02
608.127	0.01
608.316	0.03
608.506	0.04
608.695	0.03
608.884	0.02
609.073	0.04
609.263	0.06
609.452	0.04
609.641	0.03
609.83	0.01
610.019	0.03
610.208	0.02
610.397	0.05
610.586	0.09
610.775	0.01
610.965	0.04
611.154	0.03
611.343	0.06
611.532	0.04
611.721	0.03
611.91	0.03
612.099	0.08
612.287	0.04
612.476	0.01
612.665	0.05
612.854	0.03
613.043	0.11
613.232	0.04
613.421	0.02
613.61	0.05
613.798	0.02
613.987	0.1
614.176	0.04
614.365	0.11
614.554	0.13
614.742	0.08
614.931	0.05
615.12	0.09
615.309	0.07
615.497	0.11
615.686	0.06
615.875	0.08
616.063	0.05
616.252	0.07
616.44	0.06
616.629	0.07
616.818	0.09
617.006	0.08
617.195	0.09
617.383	0.1
617.572	0.09
617.76	0.08
617.949	0.07
618.137	0.1
618.326	0.12
618.514	0.02
618.703	0.07
618.891	0.13
619.079	0.05
619.268	0.12
619.456	0.07
619.644	0.17
619.833	0.09
620.021	0.07
620.209	0.05
620.398	0.14
620.586	0.1
620.774	0.13
620.962	0.1
621.151	0.18
621.339	0.15
621.527	0.06
621.715	0.06
621.903	0.08
622.092	0.1
622.28	0.11
622.468	0.11
622.656	0.12
622.844	0.12
623.032	0.09
623.22	0.08
623.408	0.15
623.596	0.13
623.784	0.17
623.972	0.08
624.16	0.1
624.348	0.16
624.536	0.09
624.724	0.08
624.912	0.14
625.1	0.12
625.288	0.08
625.476	0.04
625.664	0.13
625.851	0.08
626.039	0.09
626.227	0.1
626.415	0.11
626.603	0.05
626.79	0.07
626.978	0.08
627.166	0.09
627.354	0.08
627.541	0.05
627.729	-0.01
627.917	0.11
628.104	0.12
628.292	0.06
628.48	0.06
628.667	0.07
628.855	0.07
629.042	0.06
629.23	0.04
629.418	0.05
629.605	0.03
629.793	-0
629.98	0.03
630.168	0.02
630.355	0.02
630.543	0.06
630.73	0.01
630.917	0.05
631.105	0.08
631.292	-0
631.48	0.03
631.667	0.1
631.854	0.04
632.042	0.05
632.229	-0
632.416	0
632.604	0.02
632.791	-0.04
632.978	0.03
633.165	0.05
633.353	0.04
633.54	0.05
633.727	-0.04
633.914	-0.02
634.101	-0.06
634.289	0.04
634.476	0.01
634.663	-0.03
634.85	-0
635.037	-0.02
635.224	-0.06
635.411	0.03
635.598	0.05
635.785	-0.01
635.972	-0.03
636.159	0.02
636.346	-0.04
636.533	0.02
636.72	-0.01
636.907	-0.01
637.094	0
637.281	-0
637.468	0.02
637.655	0.01
637.842	0.01
638.029	-0.01
638.215	0.02
638.402	0.01
638.589	-0.03
638.776	-0.03
638.963	-0.03
639.149	0.01
639.336	0.07
639.523	0.01
639.709	-0.02
639.896	-0.03
640.083	0.05
640.27	-0.01
640.456	-0.03
640.643	0.02
640.829	-0.06
641.016	-0.03
641.203	-0.02
641.389	0.02
641.576	0.03
641.762	0
641.949	-0.04
642.135	0.02
642.322	0.03
642.508	-0.05
642.695	0.02
642.881	-0.02
643.068	-0.03
643.254	-0.02
643.441	0.03
643.627	-0
643.813	-0.03
644	0.04
644.186	-0.02
644.372	0.01
644.559	0.04
644.745	-0.02
644.931	-0.03
645.118	-0.02
645.304	-0.01
645.49	-0.05
645.676	-0.02
645.862	0.01
646.049	0.02
646.235	-0.03
646.421	0.07
646.607	0.06
646.793	-0.07
646.979	-0.04
647.165	-0.02
647.352	-0.01
647.538	0.04
647.724	-0
647.91	0.01
648.096	0.02
648.282	0.06
648.468	-0
648.654	-0.02
648.84	0.01
649.026	-0.01
649.212	-0.01
649.397	-0.01
649.583	-0.03
649.769	-0.01
649.955	-0.03
650.141	0
650.327	-0
650.513	-0.02
650.698	0.02
650.884	-0.08
651.07	0
651.256	0.01
651.442	0.03
651.627	-0.03
651.813	0.02
651.999	0.01
652.184	0.01
652.37	-0.03
652.556	-0.03
652.741	0.03
652.927	-0.07
653.113	-0.01
653.298	-0.01
653.484	-0.02
653.669	-0.1
653.855	-0.02
654.04	-0.01
654.226	-0.03
654.412	-0.03
654.597	-0.06
654.782	0.02
654.968	0
655.153	0
655.339	-0.06
655.524	-0.07
655.71	0.03
655.895	-0.03
656.08	-0.03
656.266	0.02
656.451	0.03
656.636	-0.06
656.822	0.01
657.007	-0.07
657.192	-0.04
657.378	-0.07
657.563	-0.01
657.748	0.02
657.933	0.01
658.118	-0
658.304	-0.04
658.489	-0.01
658.674	-0.02
658.859	-0.06
659.044	0
659.229	-0
659.414	-0.05
659.599	-0.03
659.785	-0.08
659.97	-0.02
660.155	0.04
660.34	0
660.525	0.02
660.71	-0.01
660.895	0.02
661.08	-0.02
661.264	-0.05
661.449	0.06
661.634	0.02
661.819	0.01
662.004	-0.01
662.189	-0.09
662.374	-0.07
662.559	-0.04
662.743	-0.06
662.928	-0.01
663.113	-0.04
663.298	-0.08
663.483	-0.03
663.667	-0.01
663.852	-0.04
664.037	0.02
664.221	0
664.406	0.03
664.591	0.01
664.775	-0.03
664.96	-0.02
665.145	-0.01
665.329	-0
665.514	-0.03
665.698	-0.02
665.883	-0.08
666.068	0.05
666.252	0
666.437	-0.06
666.621	-0.01
666.806	0.01
666.99	-0
667.174	-0.05
667.359	0.04
667.543	-0.01
667.728	-0
667.912	-0.07
668.096	0.01
668.281	-0.05
668.465	-0.06
668.649	0.02
668.834	-0.03
669.018	-0.01
669.202	-0.02
669.387	-0.07
669.571	0.02
669.755	-0.06
669.939	-0.05
670.124	0.01
670.308	0.05
670.492	0.02
670.676	-0
670.86	-0.01
671.044	-0.04
671.228	0.03
671.413	-0.05
671.597	-0.03
671.781	-0.03
671.965	0.02
672.149	-0
672.333	-0.03
672.517	-0.04
672.701	0.02
672.885	-0.02
673.069	-0.07
673.253	0.04
673.437	-0.01
673.621	-0.08
673.804	-0
673.988	-0.03
674.172	-0.02
674.356	-0.08
674.54	-0.01
674.724	0.06
674.908	-0.02
675.091	-0
675.275	0.02
675.459	0.04
675.643	-0.04
675.826	-0.03
676.01	-0.04
676.194	-0.05
676.377	0.07
676.561	0.01
676.745	-0.01
676.928	0.03
677.112	0.03
677.296	-0.06
677.479	-0.04
677.663	-0.02
677.846	-0
678.03	-0
678.213	-0.03
678.397	0
678.58	-0.02
678.764	-0.04
678.947	-0.02
679.131	-0.12
679.314	0.05
679.498	-0.04
679.681	0
679.865	0.04
680.048	0.01
680.231	-0.01
680.415	-0.05
680.598	-0.01
680.781	0
680.965	-0.05
681.148	-0
681.331	-0.02
681.514	0.01
681.698	-0.01
681.881	-0.01
682.064	-0.02
682.247	-0.02
682.43	-0.1
682.614	0.01
682.797	0.04
682.98	0.04
683.163	-0.05
683.346	-0
683.529	-0.06
683.712	-0.04
683.895	-0.01
684.078	-0.09
684.261	-0.03
684.444	-0
684.627	-0.01
684.81	-0.08
684.993	-0.03
685.176	0.02
685.359	-0.01
685.542	-0.02
685.725	0.03
685.908	-0.04
686.091	-0.02
686.274	0.02
686.457	0.02
686.639	-0
686.822	0.03
687.005	0.01
687.188	-0
687.371	0.02
687.553	0.04
687.736	-0.02
687.919	0.06
688.102	0.07
688.284	-0.04
688.467	-0.04
688.65	-0.03
688.832	-0.03
689.015	0.01
689.197	-0.1
689.38	0.1
689.563	0.07
689.745	-0.04
689.928	-0.03
690.11	0.01
690.293	0.04
690.475	-0.06
690.658	-0.01
690.84	-0
691.023	-0.01
691.205	-0.01
691.388	-0.02
691.57	0.02
691.752	0.07
691.935	-0.11
692.117	-0.07
692.3	-0.02
692.482	-0.03
692.664	-0.02
692.847	0.01
693.029	0.01
693.211	0
693.393	0.01
693.576	-0.02
693.758	0.07
693.94	-0.02
694.122	-0.02
694.304	-0.02
694.487	0.02
694.669	0.06
694.851	-0.06
695.033	-0.03
695.215	-0.03
695.397	-0.09
695.579	0.03
695.761	-0.04
695.943	-0.12
696.125	0.03
696.308	0
696.49	-0.09
696.671	0.07
696.853	-0.06
697.035	0.08
697.217	-0.01
697.399	-0.01
697.581	-0.06
697.763	-0.03
697.945	-0.07
698.127	0.02
698.309	0.07
698.491	-0.04
698.672	0.03
698.854	0
699.036	0.07
699.218	-0.04
699.399	0.05
699.581	0.02
699.763	-0.04
699.945	-0.09
700.126	-0.06
700.308	0
700.49	0.02
700.671	-0.08
700.853	-0.08
701.035	-0.01
701.216	0.04
701.398	-0.07
701.579	-0.04
701.761	0.07
701.943	0.02
702.124	-0.09
702.306	-0.02
702.487	0.07
702.669	-0.02
702.85	-0.02
703.031	-0.08
703.213	0.1
703.394	0.06
703.576	-0.03
703.757	0.06
703.938	0.04
704.12	0.1
704.301	0.01
704.483	-0.03
704.664	-0
704.845	0.11
705.026	0.02
705.208	-0.05
705.389	0
705.57	-0.01
705.751	-0
705.933	-0.03
706.114	0.02
706.295	0.03
706.476	-0.08
706.657	0.08
706.838	0.04
707.02	0.05
707.201	-0.07
707.382	-0.04
707.563	0.01
707.744	-0.04
707.925	-0.1
708.106	-0.04
708.287	-0.03
708.468	0.12
708.649	-0.07
708.83	0.06
709.011	-0.03
709.192	0.01
709.373	-0.07
709.554	-0.04
709.734	0.1
709.915	0.05
710.096	0.01
710.277	-0.15
710.458	-0.01
710.639	0.05
710.819	-0.18
711	-0.07
711.181	0.02
711.362	0.03
711.542	0.04
711.723	-0
711.904	0.03
712.085	0.01
712.265	0
712.446	-0.07
712.627	-0.01
712.807	0.02
712.988	-0.02
713.168	-0.07
713.349	0.01
713.53	-0.16
713.71	-0.1
713.891	-0.14
714.071	0.06
714.252	-0.06
714.432	-0.01
714.613	-0.12
714.793	-0.03
714.974	0.11
715.154	0.04
715.334	0.07
715.515	0.1
715.695	-0.06
715.876	-0.04
716.056	-0.01
716.236	0.02
716.417	0
716.597	-0.04
716.777	0.13
716.957	-0.04
717.138	0.01
717.318	0.02
717.498	-0.1
717.678	-0.05
717.859	-0.03
718.039	-0.13
718.219	0.04
718.399	0.07
718.579	-0.05
718.759	-0.13
718.939	-0.03
719.12	-0.03
719.3	-0.03
719.48	-0.08
719.66	-0.11
719.84	0.1
720.02	-0.05
720.2	-0.02
720.38	-0.02
720.56	0.08
720.74	-0.04
720.92	0.02
721.1	0.07
721.279	0.07
721.459	0.01
721.639	-0.11
721.819	-0
721.999	0.02
722.179	0.03
722.359	-0.11
722.538	-0.02
722.718	0.01
722.898	-0.02
723.078	-0
723.257	-0.06
723.437	0
723.617	-0.04
723.797	-0.08
723.976	-0.04
724.156	-0.01
724.336	0.02
724.515	0.15
724.695	-0.07
724.874	-0.01
725.054	0.02
725.234	-0.02
725.413	0.02
725.593	-0.1
725.772	-0.09
725.952	-0.09
726.131	-0.04
726.311	-0.01
726.49	-0.03
726.67	-0.05
726.849	-0.02
727.028	-0
727.208	-0.01
727.387	0.08
727.567	-0.14
727.746	-0.01
727.925	-0.07
728.105	-0.1
728.284	-0.01
728.463	-0.09
728.643	0.07
728.822	-0.12
729.001	-0.08
729.18	-0.01
729.359	0.04
729.539	0.01
729.718	-0.04
729.897	0.05
730.076	0.05
730.255	-0.05
730.434	-0.03
730.614	-0.01
730.793	0.06
730.972	-0.06
731.151	0.03
731.33	0.11
731.509	0.08
731.688	0.03
731.867	-0.04
732.046	-0.14
732.225	0.24
732.404	-0.09
732.583	-0.08
732.762	-0.03
732.941	0.02
733.12	-0.02
733.298	-0.04
733.477	0.1
733.656	-0.01
733.835	-0.15
734.014	0.02
734.193	-0.06
734.371	0.05
734.55	-0.05
734.729	-0.18
734.908	-0.03
735.086	0.07
735.265	0.09
735.444	-0.07
735.623	-0.04
735.801	-0.08
735.98	-0.04
736.159	-0.09
736.337	0.07
736.516	-0.05
736.694	0.03
736.873	-0.08
737.052	0.14
737.23	0.04
737.409	-0.04
737.587	0.08
737.766	-0.21
737.944	-0.07
738.123	0.01
738.301	-0.05
738.479	-0.15
738.658	-0.03
738.836	-0.23
739.015	-0
739.193	0.11
739.371	-0.05
739.55	-0.09
739.728	-0.1
739.906	0.04
740.085	0.13
740.263	0.05
740.441	-0.28
740.62	0.15
740.798	0.01
740.976	-0.05
741.154	-0.15
741.332	0.11
741.511	0.02
741.689	0.06
741.867	0.13
742.045	-0.03
742.223	-0.07
742.401	-0.08
742.579	-0.06
742.757	-0
742.935	-0.12
743.114	-0.07
743.292	0.04
743.47	-0.05
743.648	-0.06
743.826	-0.15
744.004	-0.04
744.181	-0.01
744.359	-0.09
744.537	-0.02
744.715	0.02
744.893	-0.05
745.071	0.08
745.249	-0.1
745.427	-0.01
745.605	-0.03
745.782	0.02
745.96	0.06
746.138	-0.02
746.316	0.09
746.493	-0.03
746.671	-0.05
746.849	-0.05
747.027	0.16
747.204	-0.11
747.382	0.09
747.56	-0.08
747.737	0.11
747.915	-0.07
748.093	-0.01
748.27	-0.1
748.448	-0.13
748.625	-0.1
748.803	-0.14
748.98	-0.03
749.158	0.03
749.335	0.06
749.513	-0.12
749.69	-0.04
749.868	0.07
750.045	0.02
750.223	-0.08
750.4	-0.28
750.578	0.1
750.755	-0.06
750.932	-0.16
751.11	0.06
751.287	-0.16
751.464	0.21
751.642	-0.04
751.819	0.06
751.996	0.03
752.173	-0.05
752.351	-0.12
752.528	0.11
752.705	-0.03
752.882	-0.06
753.06	0.04
753.237	0.02
753.414	0.12
753.591	0.17
753.768	-0.07
753.945	-0.16
754.122	-0.12
754.299	0.11
754.476	-0.1
754.654	-0
754.831	0.13
755.008	0.03
755.185	-0.06
755.362	-0.21
755.539	0.05
755.716	-0.17
755.892	0.11
756.069	-0.09
756.246	-0.09
756.423	-0.05
756.6	0.11
756.777	-0.05
756.954	0.14
757.131	-0
757.307	-0.19
757.484	-0.12
757.661	-0.02
757.838	0.11
758.015	-0.22
758.191	0.08
758.368	0.01
758.545	0.14
758.721	0.03
758.898	-0.08
759.075	0.05
759.251	0.03
759.428	0.03
759.605	-0.1
759.781	0.04
759.958	0.09
760.134	0.03
760.311	-0.16
760.488	0.11
760.664	-0.02
760.841	-0.1
761.017	-0.04
761.194	0
761.37	0.13
761.547	-0.07
761.723	-0.02
761.899	0.17
762.076	-0.1
762.252	-0.25
762.429	-0.12
762.605	0.1
762.781	-0.08
762.958	0.16
763.134	-0.01
763.31	-0.11
763.486	0.11
763.663	-0.23
763.839	0.01
764.015	-0.16
764.191	-0.04
764.368	-0.09
764.544	-0.08
764.72	0.13
764.896	0.06
765.072	0.11
765.248	-0.13
765.425	-0.01
765.601	0.13
765.777	0.11
765.953	-0.23
766.129	-0.14
766.305	-0.12
766.481	0.1
766.657	0.04
766.833	0.15
767.009	-0.08
767.185	-0.08
767.361	-0.16
767.537	-0.14
767.713	0.13
767.889	-0.22
768.065	0.03
768.24	0.12
768.416	0.17
768.592	-0.08
768.768	-0.08
768.944	0.04
769.12	-0.08
769.295	-0.13
769.471	-0.03
769.647	-0.16
769.823	0.17
769.998	-0.06
770.174	-0.17
770.35	0.42
770.525	0.16
770.701	0.03
770.877	-0.04
771.052	-0.12
771.228	0.1
771.403	-0.01
771.579	0.06
771.755	0.34
771.93	-0.05
772.106	-0.16
772.281	-0.07
772.457	0.04
772.632	-0.07
772.808	-0.28
772.983	-0.11
773.159	-0.05
773.334	0.14
773.509	-0.15
773.685	-0.06
773.86	0.24
774.036	0.26
774.211	0.06
774.386	-0.1
774.562	0.04
774.737	-0.06
774.912	-0.06
775.087	0.04
775.263	0.07
775.438	0.01
775.613	0.02
775.788	-0.08
775.964	-0.02
776.139	0.34
776.314	-0.23
776.489	0.01
776.664	0.17
776.839	-0.15
777.014	0.04
777.19	0.12
777.365	0.08
777.54	0.1
777.715	-0.2
777.89	-0.01
778.065	-0.04
778.24	-0.09
778.415	0.15
778.59	-0.12
778.765	-0.18
778.94	0.12
779.115	-0.05
779.289	-0.06
779.464	0.02
779.639	0.05
779.814	-0.13
779.989	-0.1
780.164	0.1
780.339	0.19
780.513	-0.11
780.688	-0.13
780.863	-0.07
781.038	0.11
781.212	-0.05
781.387	0.03
781.562	0.16
781.737	-0.18
781.911	0.12
782.086	-0.07
782.261	-0.1
782.435	0.21
782.61	-0.09
782.784	0.01
782.959	0.1
783.134	-0.05
783.308	-0.35
783.483	-0.19
783.657	0.27
783.832	0.21
784.006	-0.51
784.181	0.06
784.355	0.26
784.53	-0.26
784.704	-0.14
784.878	0.32
785.053	0.18
785.227	0.03
785.402	0.32
785.576	-0.19
785.75	-0.05
785.925	-0.14
786.099	-0.1
786.273	-0.01
786.448	-0.03
786.622	0.02
786.796	0.04
786.97	-0.14
787.145	0.34
787.319	-0.42
787.493	-0.17
787.667	-0.24
787.841	-0
788.015	0.07
788.19	-0.1
788.364	0.03
788.538	0.04
788.712	0.26
788.886	-0.21
789.06	0.3
789.234	0.13
789.408	-0.23
789.582	0.05
789.756	-0.07
789.93	-0.06
790.104	-0.23
790.278	-0.05
790.452	-0.19
790.626	0.03
790.8	-0.22
790.973	0.1
791.147	0.27
791.321	0.29
791.495	0.13
791.669	-0.02
791.843	-0.01
792.016	0.13
792.19	0.54
792.364	-0.35
792.538	0.32
792.711	-0.05
792.885	-0.06
793.059	-0.15
793.233	-0.67
793.406	0.13
793.58	0.12
793.754	0.07
793.927	-0.05
794.101	0.15
794.274	-0.03
794.448	0.03
794.622	-0.12
794.795	0.28
794.969	-0.01
795.142	0.17
795.316	-0.22
795.489	-0.1
795.663	0.35
795.836	-0.03
796.009	-0.21
796.183	0.45
796.356	-0.09
796.53	-0.03
796.703	-0.1
796.876	0.36
797.05	-0.02
797.223	-0.18
797.396	0.27
797.57	0.22
797.743	0.35
797.916	0.03
798.09	-0.16
798.263	0.22
798.436	0.15
798.609	0.09
798.782	-0.29
798.956	-0.06
799.129	0.11
799.302	-0.12
799.475	-0.05
799.648	-0.25
799.821	0.15
799.994	0.09
800.167	-0.27
800.34	0.13
800.514	0.11
800.687	-0.13
800.86	-0.01
801.033	0.18
801.206	0.06
801.379	-0.26
801.551	0.25
801.724	0.36
801.897	0.35
802.07	-0.11
802.243	-0.45
802.416	0.1
802.589	0.26
802.762	0.16
802.935	0
803.107	0.16
803.28	0.48
803.453	0.29
803.626	-0.28
803.798	-0.05
803.971	-0.23
804.144	0.19
804.317	0.26
804.489	0.39
804.662	-0.19
804.835	-0.14
805.007	-0.25
805.18	0.11
805.353	-0.02
805.525	-0.21
805.698	-0.44
805.87	0.3
806.043	0.45
806.215	-0.17
806.388	-0.26
806.56	0.06
806.733	0.22
806.905	0.32
807.078	-0.47
807.25	-0.42
807.423	0.03
807.595	-0.22
807.768	-0.15
807.94	0.22
808.112	0.16
808.285	0.01
808.457	-0.34
808.629	-0.16
808.802	0.19
808.974	-0.32
809.146	-0.19
809.318	-0.68
809.491	-0.01
809.663	-0.08
809.835	-0.14
810.007	-0.25
810.18	0.26
810.352	-0.43
810.524	-0.18
810.696	0
810.868	0.38
811.04	-0.14
811.212	0.08
811.384	0.55
811.556	0.09
811.728	0.01
811.901	0.52
812.073	0.04
812.245	-0.05
812.417	-0.17
812.589	-0.52
812.76	-0.07
812.932	-0.04
813.104	0.24
813.276	-0.23
813.448	0.03
813.62	-0.1
813.792	0.28
813.964	0.03
814.136	-0.02
814.307	-0.21
814.479	-0.13
814.651	0.07
814.823	0.9
814.995	-0.49
815.166	0.17
815.338	-0.15
815.51	-0.24
815.681	0.86
815.853	-0.23
816.025	-0.11
816.196	0.28
816.368	0.34
816.54	-0.42
816.711	-0.02
816.883	0.05
817.054	0.61
817.226	-0.76
817.398	0.26
817.569	0.14
817.741	0.06
817.912	0.04
818.084	-0.09
818.255	0.13
818.426	-0.13
818.598	-0.4
818.769	-0.46
818.941	-0.09
819.112	0.46
819.283	0.56
819.455	-0.61
819.626	0.12
819.798	0.06
819.969	-0.34
820.14	-0.34
820.311	-0.24
820.483	-0.36
820.654	-0.01
820.825	-0.5
820.996	-0.17
821.168	-0.47
821.339	0.16
821.51	-0.69
821.681	-0.06
821.852	-0.09
822.023	-0.33
822.195	-0.95
822.366	0.5
822.537	-0.19
822.708	0.13
822.879	-0.06
823.05	0.62
823.221	-0.03
823.392	0.55
823.563	-0.31
823.734	0.48
823.905	-0.21
824.076	-0.24
824.247	-0.74
824.418	-0.21
824.589	0.79
824.759	-0.31
824.93	0.04
825.101	-0.69
825.272	0.4
825.443	0.62
825.614	-0.39
825.784	-1.18
825.955	0.57
826.126	0.78
826.297	-0.26
826.467	0.37
826.638	1.15
826.809	-0.8
826.98	-0.17
827.15	0.42
827.321	-0.23
827.492	0.77
827.662	0.05
827.833	0.81
828.003	0.25
828.174	-0.6
828.345	-0.94
828.515	0.42
828.686	0.44
828.856	-0.25
829.027	0.03
829.197	0.17
829.368	0.45
829.538	-0.64
829.709	-0.39
829.879	0.22
830.049	0.56
830.22	-0.14
830.39	-0.13
830.56	0.29
830.731	0.23
830.901	-0.46
831.072	-0.3
831.242	-0.22
831.412	0.38
831.582	-0.28
831.753	-0.22
831.923	-0.08
832.093	0.29
832.263	-0.26
832.434	-0.57
832.604	-0.56
832.774	0.35
832.944	0.31
833.114	-0.41
833.284	0.56
833.454	-0.95
833.624	-0.77
833.795	-0.24
833.965	0.62
834.135	0.57
834.305	-0.76
834.475	-0.84
834.645	-0.26
834.815	-0.7
834.985	-0.56
835.155	-0.65
835.325	0.04
835.494	-0.25
835.664	-0.33
835.834	-0.64
836.004	0.23
836.174	-0.09
836.344	-0.24
836.514	-1
836.684	-0.27
836.853	0.34
837.023	-0
837.193	-0.85
837.363	0.7
837.532	0.89
837.702	0.02
837.872	-0.5
838.041	0.59
838.211	0.96
838.381	-1.24
838.55	-0.15
838.72	2.46
838.89	0.87
839.059	-0.39
839.229	-0.23
839.398	1.38
839.568	0.18
839.738	0.14
839.907	0.1
840.077	0.2
840.246	-0.82
840.416	0.31
840.585	-1.36
840.755	1.47
840.924	0.96
841.093	-0.38
841.263	-0.1
841.432	-0.44
841.602	-0.32
841.771	-0.76
841.94	0.27
842.11	1.19
842.279	0.34
842.448	-0.74
842.617	-0.24
842.787	1.62
842.956	-0.64
843.125	0.03
843.294	-0.02
843.464	0.38
843.633	-0.22
843.802	-0.34
843.971	0.55
844.14	0.47
844.309	-0.08
844.479	-0.47
844.648	-0.21
844.817	-0.46
844.986	-0.35
845.155	-0.77
845.324	-0.26
845.493	0.13
845.662	-0.59
845.831	0.1
846	0.56
846.169	-0.26
846.338	1.31
846.507	0.25
846.676	0.61
846.844	-0.6
847.013	0.11
847.182	0.33
847.351	0.4
847.52	-0.44
847.689	0.32
847.858	0.2
848.026	-0.73
848.195	-0.89
848.364	-0.84
848.533	-0.47
848.701	-0.68
848.87	0.21
849.039	1.05
849.207	0.49
849.376	0.87
849.545	1.18
849.713	-0.12
849.882	-0.71
850.051	0.05
850.219	-0.36
850.388	0.66
850.556	-0.88
850.725	-1.29
850.893	-0.67
851.062	-0.57
851.23	0.56
851.399	-1.16
851.567	-0.54
851.736	-1.63
851.904	-1.65
852.073	0.11
852.241	0.16
852.41	-0.13
852.578	-0.95
852.746	-1.09
852.915	1.03
853.083	0.09
853.251	-0.5
853.42	-0.31
853.588	-0.49
853.756	0.62
853.924	-0.28
854.093	0.09
854.261	-0.01
854.429	-1.15
854.597	0.36
854.765	-1.92
854.934	1.02
855.102	0.55
855.27	-0.65
855.438	0.43
855.606	0.88
855.774	1.08
855.942	-1.71
856.11	-1.09
856.278	0.48
856.446	1.54
856.614	0.33
856.782	0.63
856.95	1
857.118	0.87
857.286	0.4
857.454	-0.88
857.622	1.17
857.79	0.47
857.958	-0.73
858.126	-0
858.294	-3.04
858.462	1.23
858.629	-0.97
858.797	-1.59
858.965	0.3
859.133	-0.19
859.301	-0.56
859.468	0.57
859.636	-0.54
859.804	2.28
859.971	2.03
860.139	-0.38
860.307	0.78
860.474	0.35
860.642	-0.12
860.81	-0.54
860.977	0.09
861.145	1.74
861.313	-0.39
861.48	0.89
861.648	1.39
861.815	-0.52
861.983	-0.8
862.15	-1.63
862.318	0.55
862.485	0.34
862.653	-0.94
862.82	-2.18
862.988	1.53
863.155	-0.26
863.322	-0.16
863.49	-1.77
863.657	0.04
863.824	1.63
863.992	0.96
864.159	-0.58
864.326	0.97
864.494	-2.14
864.661	1.75
864.828	-0.93
864.996	0.87
865.163	1.93
865.33	-0.6
865.497	-2.3
865.664	-0.65
865.832	-2.78
865.999	0.51
866.166	-1.09
866.333	-0.46
866.5	-1.69
866.667	-0.18
866.834	0.24
867.001	1.25
867.168	-1.09
867.335	-0.05
867.502	-1.07
867.669	-0.06
867.836	1.42
868.003	-0
868.17	0.77
868.337	-1.23
868.504	1.2
868.671	-1.49
868.838	-1.3
869.005	0.15
869.172	-0.03
869.339	0.64
869.505	-0.93
869.672	-0.49
869.839	2.36
870.006	-0.38
870.173	-1.63
870.339	0.2
870.506	1.7
870.673	-1.99
870.84	0.31
871.006	1.39
871.173	-0.78
871.34	0.57
871.506	-0.32
871.673	-0.15
871.839	-2.37
872.006	-0.12
872.173	-0.97
872.339	-0.05
872.506	0.4
872.672	-0.75
872.839	-3.11
873.005	0.85
873.172	4.07
873.338	1.13
873.505	0.2
873.671	1.92
873.838	1.2
874.004	-1.94
874.171	-1.08
874.337	1.54
874.503	1.89
874.67	-0.91
874.836	0.55
875.002	1.26
875.169	3.25
875.335	0.47
875.501	0.35
875.668	1.44
875.834	0.19
876	0.3
876.166	0.57
876.332	2.03
876.499	4.13
876.665	-1.71
876.831	0.58
876.997	1.68
877.163	0.11
877.329	-0.93
877.495	0.22
877.662	-1.16
877.828	0.91
877.994	-0.63
878.16	-2.46
878.326	-2.42
878.492	-1.24
878.658	0.67
878.824	0.43
878.99	1.75
879.156	-0.23
879.322	1.68
879.487	0.32
879.653	0.41
879.819	-0.65
879.985	-0.43
880.151	0.88
880.317	-0.66
880.483	0.89
880.648	0.67
880.814	-2.63
880.98	0.11
881.146	-2.76
881.312	-2.21
881.477	-1.47
881.643	-0.51
881.809	1.56
881.974	1.39
882.14	-2.22
882.306	2.07
882.471	2.32
882.637	-2.26
882.803	1.82
882.968	1.68
883.134	2.39
883.299	0.13
883.465	0.48
883.63	2.29
883.796	-0.41
883.961	3.71
884.127	-0.19
884.292	-1
884.458	-2.01
884.623	-2.01
