Data from Apollo_Calib_20240827__AbsoluteIrradiance__71__00-20-02-508.txt Node

Date: Wed Aug 28 00:20:02 BST 2024
User: biology
Spectrometer: FLMT08252
Trigger mode: 0
Integration Time (sec): 5.000000E-1
Scans to average: 5
Electric dark correction enabled: true
Nonlinearity correction enabled: false
Boxcar width: 0
XAxis mode: Wavelengths
Number of Pixels in Spectrum: 3648
>>>>>Begin Spectral Data<<<<<
179.588	-0
179.809	-0
180.03	-0
180.251	-0
180.473	-0
180.694	0
180.915	0
181.136	-0
181.357	0
181.578	-0
181.799	0
182.02	-0
182.241	-0
182.462	-0
182.683	0
182.904	-0
183.125	-0
183.346	0
183.567	0
183.788	-0
184.009	-0
184.23	0
184.451	0
184.672	-0
184.892	-0
185.113	0
185.334	0
185.555	-0
185.776	-0
185.996	0
186.217	0
186.438	-0
186.659	-0
186.879	0
187.1	-0
187.321	-0
187.541	-0
187.762	0
187.983	-0
188.203	-0
188.424	-0
188.644	-0
188.865	-0
189.086	-0
189.306	-0
189.527	-0
189.747	-0
189.968	-0
190.188	-0
190.409	-0
190.629	0
190.849	-0
191.07	-0
191.29	0
191.511	0
191.731	-0
191.951	-0
192.172	-0
192.392	-0
192.612	-0
192.833	-0
193.053	-0
193.273	0
193.493	-0
193.714	-0
193.934	0
194.154	0
194.374	-0
194.594	-0
194.815	-0
195.035	0
195.255	-0
195.475	-0
195.695	0
195.915	0
196.135	0
196.355	0
196.575	0
196.795	-0
197.015	-0
197.235	-0
197.455	-0
197.675	-0
197.895	-0
198.115	-0
198.335	0
198.555	-0
198.775	0
198.995	0
199.214	0
199.434	-0
199.654	-0
199.874	-0
200.094	0.42
200.313	-0.7
200.533	-0.81
200.753	-1.4
200.973	0.84
201.192	0.35
201.412	-0.54
201.632	-0.45
201.851	0.65
202.071	-0.92
202.291	-0.45
202.51	-0.83
202.73	-0.11
202.95	-0.38
203.169	-0.92
203.389	-0.09
203.608	-0.47
203.828	-0.58
204.047	-0.59
204.267	0.2
204.486	0.16
204.706	-0.05
204.925	-0.31
205.145	0.1
205.364	0.54
205.583	0.49
205.803	-0.73
206.022	-0.4
206.242	0.18
206.461	0.02
206.68	-0.4
206.9	-0.15
207.119	0.25
207.338	0.51
207.557	-0.4
207.777	-0.07
207.996	-0.32
208.215	0.49
208.434	-0.45
208.654	-0.64
208.873	-0.14
209.092	0.52
209.311	-0.11
209.53	0.03
209.749	-0.14
209.968	-0.31
210.187	-0.23
210.407	-0.52
210.626	-0.13
210.845	0.34
211.064	-0.17
211.283	-0.32
211.502	-0.01
211.721	-0.12
211.94	0.01
212.159	0.04
212.377	0.27
212.596	0.1
212.815	0.08
213.034	-0.01
213.253	-0
213.472	-0.11
213.691	-0.05
213.91	-0.35
214.128	-0.15
214.347	0.33
214.566	-0.42
214.785	-0.29
215.003	0.02
215.222	0.21
215.441	0.05
215.66	-0.37
215.878	-0.05
216.097	0.2
216.316	-0.15
216.534	-0.15
216.753	0.01
216.972	-0
217.19	-0.06
217.409	-0.16
217.627	-0.17
217.846	-0.17
218.064	0.01
218.283	-0.28
218.501	0.34
218.72	0.2
218.938	-0.14
219.157	-0.13
219.375	-0.02
219.594	0.04
219.812	-0.31
220.031	-0.16
220.249	0.41
220.467	0.29
220.686	0.06
220.904	-0.33
221.122	-0.23
221.341	0.26
221.559	-0.12
221.777	-0.22
221.995	-0.04
222.214	0.03
222.432	-0.18
222.65	0.06
222.868	-0.07
223.086	0.05
223.305	-0
223.523	-0.14
223.741	0.22
223.959	-0.33
224.177	-0.33
224.395	-0.09
224.613	0.03
224.831	0.02
225.049	-0.13
225.267	-0.13
225.485	0.04
225.703	-0.02
225.921	-0.07
226.139	-0.11
226.357	0.04
226.575	-0.02
226.793	-0.11
227.011	0.5
227.229	0.06
227.447	0.04
227.665	-0.15
227.883	-0.21
228.1	-0.11
228.318	-0.07
228.536	-0.33
228.754	-0.27
228.972	-0.02
229.189	0.16
229.407	-0.18
229.625	-0.08
229.843	0.2
230.06	0.15
230.278	-0.19
230.496	-0.04
230.713	-0.04
230.931	0.03
231.149	-0.05
231.366	-0.26
231.584	-0.04
231.801	0.18
232.019	-0.02
232.236	-0.19
232.454	-0.08
232.671	0.14
232.889	-0.04
233.106	-0.19
233.324	-0.02
233.541	-0.05
233.759	-0.01
233.976	-0.19
234.194	-0.05
234.411	0
234.628	-0.1
234.846	-0.08
235.063	-0.01
235.28	-0.13
235.498	0.04
235.715	-0.19
235.932	-0.01
236.149	-0.04
236.367	-0.15
236.584	-0.06
236.801	-0.05
237.018	0.14
237.236	0.05
237.453	-0.15
237.67	0.06
237.887	-0.11
238.104	-0.03
238.321	-0.09
238.538	-0.11
238.755	0.1
238.973	-0.17
239.19	-0.02
239.407	-0.05
239.624	-0.02
239.841	-0.2
240.058	-0.13
240.275	-0.03
240.492	-0.08
240.709	-0.04
240.925	-0.13
241.142	-0.03
241.359	-0.16
241.576	-0.12
241.793	-0.06
242.01	-0.14
242.227	0.09
242.444	0.07
242.66	0.05
242.877	-0.06
243.094	-0.06
243.311	0.02
243.527	0.01
243.744	0.02
243.961	0.04
244.178	-0.16
244.394	-0.01
244.611	0.13
244.828	0.05
245.044	-0.14
245.261	-0.02
245.477	-0.07
245.694	-0.06
245.911	-0.11
246.127	0.01
246.344	0.05
246.56	0.12
246.777	-0.03
246.993	0.01
247.21	0.07
247.426	0.07
247.643	-0.06
247.859	-0.08
248.076	-0.06
248.292	0.21
248.508	-0.12
248.725	0.01
248.941	0.05
249.157	0.12
249.374	-0.16
249.59	0
249.806	-0.02
250.023	0.05
250.239	-0.17
250.455	-0.14
250.671	0.01
250.888	0.01
251.104	0.07
251.32	-0.09
251.536	-0.02
251.752	-0.05
251.969	-0.05
252.185	0.03
252.401	0.05
252.617	-0.13
252.833	-0.04
253.049	-0.02
253.265	0.01
253.481	0.03
253.697	-0.04
253.913	-0.1
254.129	-0.08
254.345	-0.03
254.561	-0.06
254.777	-0.02
254.993	0.02
255.209	-0.03
255.425	-0.07
255.641	-0.11
255.857	0.04
256.073	-0.03
256.288	-0.01
256.504	-0.1
256.72	-0
256.936	0.07
257.152	-0.07
257.367	-0.09
257.583	-0.03
257.799	0.07
258.015	-0.07
258.23	-0.04
258.446	0.12
258.662	-0.04
258.877	-0.09
259.093	-0.15
259.309	0.04
259.524	-0.01
259.74	-0.12
259.955	-0.16
260.171	0.04
260.387	-0.02
260.602	0.03
260.818	0.07
261.033	-0.12
261.249	-0.12
261.464	-0.1
261.68	-0.12
261.895	-0.05
262.11	0.07
262.326	-0
262.541	-0.14
262.757	0.04
262.972	-0.02
263.187	-0.03
263.403	-0.02
263.618	0.04
263.833	-0.04
264.049	-0.05
264.264	-0.01
264.479	0.07
264.694	0.14
264.91	-0.1
265.125	-0.01
265.34	0.03
265.555	0.12
265.77	0.01
265.986	-0
266.201	0.01
266.416	0.03
266.631	-0.04
266.846	-0.02
267.061	-0.01
267.276	-0.07
267.491	-0.16
267.706	-0.08
267.921	0.01
268.136	0.05
268.351	-0.03
268.566	-0.07
268.781	0.06
268.996	0.03
269.211	-0.03
269.426	-0.09
269.641	-0.01
269.856	0.01
270.071	-0.05
270.285	-0.09
270.5	0.03
270.715	0.06
270.93	-0.03
271.145	0.04
271.359	0.02
271.574	-0.09
271.789	-0.06
272.004	-0.05
272.218	-0.04
272.433	0
272.648	-0.06
272.862	0.09
273.077	-0.02
273.292	0.05
273.506	-0.1
273.721	-0.04
273.936	0.04
274.15	0.02
274.365	0.01
274.579	0.02
274.794	0.02
275.008	0.1
275.223	-0.11
275.437	-0
275.652	0.02
275.866	-0.02
276.081	-0.01
276.295	0.01
276.509	0
276.724	-0.01
276.938	-0.01
277.153	-0.03
277.367	0.07
277.581	-0.06
277.796	-0.03
278.01	-0.11
278.224	0.01
278.438	0.09
278.653	-0.09
278.867	-0.04
279.081	-0.23
279.295	-0.05
279.51	0.02
279.724	-0.12
279.938	0
280.152	-0.03
280.366	-0.04
280.58	-0
280.794	0.04
281.008	0.01
281.222	0.07
281.437	0.11
281.651	0.04
281.865	-0
282.079	-0.02
282.293	-0.09
282.507	-0.09
282.721	-0.01
282.935	-0.02
283.148	-0.08
283.362	-0.05
283.576	-0.08
283.79	0
284.004	-0.05
284.218	0.07
284.432	-0.04
284.646	-0.02
284.859	-0.07
285.073	-0.04
285.287	0.02
285.501	-0.03
285.714	-0.01
285.928	0.04
286.142	0.01
286.356	-0.05
286.569	-0
286.783	0.06
286.997	0.02
287.21	-0
287.424	-0
287.637	0
287.851	-0.07
288.065	0.04
288.278	-0.03
288.492	0.03
288.705	-0.02
288.919	-0.02
289.132	-0.12
289.346	0.06
289.559	-0.05
289.773	-0.06
289.986	-0.03
290.2	-0.02
290.413	-0.03
290.626	-0.09
290.84	-0
291.053	0.02
291.267	0.02
291.48	-0
291.693	0.01
291.906	-0.05
292.12	-0.02
292.333	-0.01
292.546	-0.08
292.76	0.04
292.973	0.03
293.186	-0.01
293.399	-0.03
293.612	0.04
293.826	-0.03
294.039	-0.03
294.252	-0.01
294.465	0
294.678	0.02
294.891	-0
295.104	-0.06
295.317	-0.01
295.53	0
295.743	-0.03
295.956	-0.03
296.169	0.07
296.382	0.02
296.595	-0
296.808	-0.06
297.021	0.04
297.234	0.04
297.447	-0.02
297.66	0.02
297.873	0.04
298.086	0.05
298.299	-0.05
298.511	-0.07
298.724	-0.02
298.937	-0.06
299.15	-0.04
299.363	0.01
299.575	0.04
299.788	0.03
300.001	-0.02
300.213	-0.04
300.426	-0.05
300.639	-0.03
300.852	-0.05
301.064	0.04
301.277	0.07
301.489	0.02
301.702	0.08
301.915	-0.01
302.127	-0.03
302.34	-0.01
302.552	0.07
302.765	-0.05
302.977	0.06
303.19	0.02
303.402	-0.05
303.615	0
303.827	-0.03
304.04	-0.01
304.252	0.04
304.464	-0.04
304.677	0.07
304.889	0.05
305.102	-0.06
305.314	-0.01
305.526	0.05
305.739	0.04
305.951	-0.06
306.163	-0.02
306.375	0.12
306.588	-0.02
306.8	-0.04
307.012	-0.1
307.224	0.01
307.436	0.04
307.649	-0.08
307.861	0.01
308.073	0.04
308.285	-0.02
308.497	-0.06
308.709	-0.06
308.921	0.04
309.133	0.07
309.346	0.03
309.558	-0.03
309.77	0.02
309.982	0.06
310.194	0.04
310.406	-0.03
310.617	0.1
310.829	0.01
311.041	0.02
311.253	-0.05
311.465	0.03
311.677	0.01
311.889	-0.01
312.101	-0.07
312.313	0.03
312.524	0.03
312.736	-0.07
312.948	-0.03
313.16	0.1
313.372	0.04
313.583	0
313.795	-0.03
314.007	-0.06
314.218	0.03
314.43	-0.04
314.642	-0.05
314.853	-0.05
315.065	0
315.277	-0.02
315.488	-0.01
315.7	0.02
315.912	-0.01
316.123	-0.03
316.335	-0.01
316.546	0.11
316.758	0.02
316.969	-0.05
317.181	-0.02
317.392	-0.02
317.604	0.05
317.815	-0.03
318.026	-0.03
318.238	-0.05
318.449	0.02
318.661	-0.09
318.872	-0.07
319.083	-0.06
319.295	0.01
319.506	-0.01
319.717	0.01
319.929	0.03
320.14	0.01
320.351	-0.02
320.562	0.02
320.774	-0
320.985	-0.02
321.196	-0.05
321.407	-0.08
321.618	0.05
321.829	-0.01
322.041	0.04
322.252	-0.02
322.463	-0
322.674	0.06
322.885	-0.05
323.096	-0.03
323.307	-0.04
323.518	0
323.729	-0.03
323.94	-0.03
324.151	-0.02
324.362	0.02
324.573	0.03
324.784	-0.02
324.995	-0.01
325.206	-0.01
325.417	-0.06
325.628	-0.04
325.838	0.01
326.049	0.02
326.26	-0
326.471	0.01
326.682	0.04
326.892	-0.07
327.103	-0.06
327.314	-0.07
327.525	0
327.735	-0.04
327.946	0.02
328.157	-0.04
328.368	0.03
328.578	-0.01
328.789	0.02
328.999	-0.02
329.21	-0.02
329.421	0.06
329.631	-0.05
329.842	-0.06
330.052	0.01
330.263	0.02
330.473	0.02
330.684	-0.02
330.894	0
331.105	-0.02
331.315	-0.01
331.526	-0.06
331.736	0.06
331.947	0.01
332.157	-0
332.367	-0.05
332.578	0.04
332.788	0.05
332.999	0.01
333.209	0.02
333.419	-0.07
333.629	0
333.84	-0.03
334.05	-0.02
334.26	0.08
334.47	0.02
334.681	0.04
334.891	-0.05
335.101	0.06
335.311	0.06
335.521	-0.03
335.732	-0.05
335.942	0.05
336.152	-0.01
336.362	-0
336.572	0.01
336.782	-0.01
336.992	-0.03
337.202	-0.05
337.412	-0.05
337.622	0.02
337.832	-0.01
338.042	-0.01
338.252	-0.04
338.462	-0.02
338.672	-0.01
338.882	-0.06
339.092	-0.01
339.302	0.06
339.511	-0.02
339.721	-0.03
339.931	-0.04
340.141	0.03
340.351	0.03
340.561	0.04
340.77	0.03
340.98	-0.01
341.19	-0.01
341.4	-0.05
341.609	-0.03
341.819	-0.01
342.029	-0.06
342.238	0.01
342.448	-0.03
342.658	0.01
342.867	0.01
343.077	-0.01
343.286	-0
343.496	-0.02
343.706	0.05
343.915	-0.1
344.125	-0.02
344.334	-0
344.544	-0.07
344.753	-0.05
344.963	-0
345.172	-0.03
345.381	-0.05
345.591	-0.05
345.8	0
346.01	0.04
346.219	0.05
346.428	-0.17
346.638	-0.01
346.847	0.02
347.056	0.04
347.266	-0.05
347.475	-0.02
347.684	-0
347.893	0.02
348.103	0.02
348.312	0.01
348.521	-0.07
348.73	0.02
348.94	-0.03
349.149	-0.06
349.358	-0.03
349.567	-0.05
349.776	-0.05
349.985	-0.01
350.194	0.02
350.403	0.04
350.612	-0.08
350.821	-0.02
351.03	0.01
351.239	-0.05
351.448	-0
351.657	-0.04
351.866	0.08
352.075	0.02
352.284	0.02
352.493	-0.08
352.702	0.05
352.911	-0.01
353.12	-0.02
353.329	-0.04
353.538	0.02
353.746	-0.02
353.955	-0.03
354.164	0.03
354.373	0
354.582	0.02
354.79	0.01
354.999	0.03
355.208	-0.03
355.416	0.04
355.625	-0.07
355.834	-0.02
356.042	0.01
356.251	-0.02
356.46	-0.06
356.668	0.04
356.877	0.08
357.085	0.04
357.294	-0.11
357.503	-0.01
357.711	-0.04
357.92	0.11
358.128	0.01
358.337	0.04
358.545	0.03
358.754	0
358.962	0.04
359.17	0
359.379	0.02
359.587	0.02
359.796	-0.04
360.004	0.03
360.212	0.01
360.421	0.02
360.629	-0.02
360.837	0.02
361.046	0.07
361.254	0.09
361.462	-0.03
361.67	-0.01
361.879	-0.01
362.087	0.08
362.295	-0.02
362.503	-0.06
362.711	-0.06
362.92	-0.04
363.128	-0.02
363.336	-0.05
363.544	-0.1
363.752	-0.02
363.96	-0.03
364.168	-0.02
364.376	-0.02
364.584	0.02
364.792	0.01
365	0.02
365.208	0.03
365.416	-0.01
365.624	0.03
365.832	-0.03
366.04	0.03
366.248	0.01
366.456	0.02
366.664	0
366.872	0.01
367.079	0
367.287	-0.03
367.495	0.03
367.703	-0.02
367.911	-0.04
368.118	-0
368.326	-0.03
368.534	-0.04
368.742	0.06
368.949	-0.04
369.157	-0.03
369.365	0.07
369.572	-0.05
369.78	-0.04
369.988	0.01
370.195	0.04
370.403	0.05
370.61	-0.03
370.818	0.02
371.026	0.02
371.233	-0.05
371.441	0.02
371.648	0.01
371.856	-0.02
372.063	0.04
372.271	-0.04
372.478	0
372.685	0.01
372.893	0.03
373.1	-0.01
373.308	-0
373.515	0.07
373.722	0.01
373.93	0.01
374.137	0.07
374.344	0.08
374.552	0.08
374.759	0.06
374.966	0.1
375.173	-0
375.381	0.11
375.588	0.01
375.795	-0.06
376.002	0.01
376.209	0
376.417	0.06
376.624	0.07
376.831	0.05
377.038	0.05
377.245	-0.01
377.452	0.02
377.659	0.05
377.866	-0.01
378.073	0.03
378.28	0.09
378.487	0.06
378.694	0.09
378.901	0.06
379.108	0.08
379.315	0.12
379.522	0.21
379.729	0.1
379.936	0.11
380.143	0.09
380.35	0.11
380.557	0.05
380.763	0.11
380.97	0.12
381.177	0.14
381.384	0.1
381.591	0.12
381.797	0.1
382.004	0.16
382.211	0.18
382.418	0.1
382.624	0.15
382.831	0.17
383.038	0.12
383.244	0.07
383.451	0.09
383.658	0.12
383.864	0.11
384.071	0.09
384.277	0.17
384.484	0.06
384.69	0.1
384.897	0
385.103	0.08
385.31	0
385.516	0.03
385.723	0.03
385.929	0.1
386.136	0.02
386.342	0.05
386.549	0.03
386.755	0.13
386.961	0.07
387.168	0.01
387.374	0.07
387.58	0.09
387.787	0.03
387.993	0.1
388.199	0.05
388.406	0.01
388.612	0.05
388.818	0.01
389.024	0.03
389.231	0.04
389.437	0.12
389.643	0.05
389.849	0.01
390.055	0.04
390.261	0.04
390.467	0.05
390.674	-0.04
390.88	0.04
391.086	0.07
391.292	-0.01
391.498	0.05
391.704	0.04
391.91	0.03
392.116	0.05
392.322	-0.08
392.528	0.01
392.734	-0
392.94	-0.01
393.146	-0.01
393.352	0.07
393.557	-0.03
393.763	-0.04
393.969	-0
394.175	0.02
394.381	-0.01
394.587	-0.02
394.792	-0.04
394.998	0.07
395.204	0.04
395.41	-0.03
395.615	0.01
395.821	0.02
396.027	0.04
396.233	-0.01
396.438	0
396.644	0.07
396.85	0.02
397.055	-0.04
397.261	0.04
397.466	0.08
397.672	-0.01
397.878	0.03
398.083	0.01
398.289	-0.01
398.494	0.02
398.7	0.02
398.905	-0.06
399.111	0.02
399.316	-0.06
399.522	0.06
399.727	-0.01
399.932	-0.04
400.138	-0
400.343	0.06
400.549	-0
400.754	0
400.959	0.02
401.165	0
401.37	-0.02
401.575	0.1
401.78	0
401.986	-0.02
402.191	-0.03
402.396	-0.01
402.601	0.05
402.807	0.02
403.012	0.01
403.217	0.04
403.422	0.02
403.627	-0.01
403.832	-0.03
404.037	0.02
404.243	0.01
404.448	-0.03
404.653	0.01
404.858	-0.01
405.063	0.02
405.268	-0.02
405.473	-0.03
405.678	-0.02
405.883	0.13
406.088	-0.01
406.293	-0.03
406.498	-0.06
406.703	0.01
406.907	-0.03
407.112	-0.07
407.317	0.06
407.522	0.02
407.727	-0.05
407.932	-0.02
408.136	0.08
408.341	-0.01
408.546	-0.02
408.751	-0.01
408.956	-0.03
409.16	0
409.365	0
409.57	-0.02
409.774	-0.02
409.979	0.02
410.184	0.05
410.388	-0.07
410.593	0.05
410.798	0.05
411.002	0
411.207	0.03
411.411	-0.01
411.616	-0.04
411.82	-0.01
412.025	0.02
412.229	-0.05
412.434	0.04
412.638	0.03
412.843	-0.02
413.047	0.02
413.252	-0.02
413.456	-0.06
413.66	0.05
413.865	-0.06
414.069	0.08
414.273	-0.03
414.478	-0.01
414.682	-0.01
414.886	-0.04
415.091	-0.03
415.295	-0.09
415.499	-0.02
415.703	-0.05
415.908	-0.01
416.112	-0.1
416.316	0
416.52	-0
416.724	-0.09
416.929	-0.06
417.133	0.06
417.337	-0.03
417.541	-0.03
417.745	-0.03
417.949	0.05
418.153	-0
418.357	-0.05
418.561	0.01
418.765	-0
418.969	0.04
419.173	0.06
419.377	-0.04
419.581	0.1
419.785	-0.04
419.989	-0.11
420.193	-0.05
420.397	-0.06
420.601	0.09
420.804	-0.01
421.008	-0.01
421.212	-0
421.416	0.05
421.62	-0.07
421.823	-0.07
422.027	0.12
422.231	0.01
422.435	-0.01
422.638	-0.01
422.842	-0.02
423.046	-0.06
423.249	-0.03
423.453	-0.01
423.657	-0.03
423.86	0
424.064	0.01
424.268	0.06
424.471	-0.01
424.675	0.06
424.878	0.04
425.082	-0.01
425.285	0.03
425.489	-0.02
425.692	0.02
425.896	-0.04
426.099	-0.02
426.303	-0.03
426.506	-0.05
426.71	0.02
426.913	0
427.116	0.02
427.32	-0.07
427.523	-0.03
427.726	0.05
427.93	-0.08
428.133	0.02
428.336	-0.07
428.54	-0.03
428.743	0.04
428.946	0.02
429.149	-0.05
429.353	0.03
429.556	-0.04
429.759	-0.01
429.962	-0.05
430.165	0.03
430.368	-0.02
430.571	-0.08
430.775	0.02
430.978	-0.05
431.181	0.04
431.384	-0.01
431.587	0.07
431.79	0.04
431.993	-0.05
432.196	-0.02
432.399	0.02
432.602	0.05
432.805	-0.01
433.008	-0.05
433.211	-0.1
433.414	0.04
433.616	0.07
433.819	0.01
434.022	-0.09
434.225	0.09
434.428	0.02
434.631	0.07
434.833	0.01
435.036	-0.02
435.239	0.07
435.442	0.02
435.645	-0
435.847	0.03
436.05	0.03
436.253	0.03
436.455	-0.04
436.658	-0.02
436.861	0.09
437.063	0.01
437.266	0.05
437.468	0.05
437.671	0.13
437.874	-0.03
438.076	-0.03
438.279	-0.08
438.481	0.05
438.684	-0
438.886	0.07
439.089	-0.1
439.291	-0.05
439.494	0.06
439.696	-0.01
439.899	0.02
440.101	-0.01
440.303	-0.02
440.506	0.05
440.708	0.01
440.91	0.1
441.113	-0.06
441.315	0.02
441.517	-0.01
441.72	0.06
441.922	0.03
442.124	-0.04
442.326	0.06
442.529	0.13
442.731	-0.02
442.933	0.11
443.135	0.02
443.337	0.02
443.539	-0.02
443.742	-0
443.944	0.05
444.146	0.01
444.348	0.03
444.55	0.03
444.752	0.02
444.954	0.01
445.156	0.06
445.358	-0
445.56	0.11
445.762	0.01
445.964	0.06
446.166	-0.03
446.368	0.03
446.57	0.12
446.772	0.03
446.974	-0.02
447.175	0.05
447.377	-0.01
447.579	0.05
447.781	-0.05
447.983	0.11
448.184	0.07
448.386	0.07
448.588	0.03
448.79	0.09
448.991	-0
449.193	0.06
449.395	0.06
449.597	0.06
449.798	0.04
450	0.07
450.202	0.02
450.403	0.08
450.605	0.07
450.806	0.05
451.008	-0.02
451.21	0.01
451.411	0.1
451.613	0.02
451.814	0.05
452.016	0.06
452.217	0.04
452.419	0.08
452.62	0.01
452.821	0.04
453.023	0.13
453.224	0.1
453.426	0.05
453.627	0.02
453.828	0.08
454.03	0.02
454.231	0.07
454.432	-0.02
454.634	0.08
454.835	-0.02
455.036	0.01
455.238	0.09
455.439	0.13
455.64	0.02
455.841	-0.01
456.042	0.14
456.244	0.05
456.445	0.02
456.646	-0.06
456.847	0.02
457.048	0.05
457.249	0.06
457.45	0.28
457.651	-0.03
457.852	0.04
458.054	0.01
458.255	-0.01
458.456	0.07
458.657	0.05
458.858	-0
459.058	0.03
459.259	0.06
459.46	-0.01
459.661	-0.04
459.862	0.12
460.063	-0.03
460.264	0.11
460.465	-0.05
460.666	0.13
460.866	0.03
461.067	0.04
461.268	-0.04
461.469	0.01
461.67	-0.03
461.87	-0
462.071	-0.01
462.272	-0.08
462.473	0.03
462.673	0.04
462.874	-0.07
463.075	0.01
463.275	-0.01
463.476	-0.02
463.676	0.01
463.877	0.03
464.078	-0.01
464.278	0.08
464.479	0.02
464.679	-0.04
464.88	0.04
465.08	0.13
465.281	0.02
465.481	-0.03
465.682	0.04
465.882	0.01
466.083	0.01
466.283	0.03
466.483	0.02
466.684	-0.01
466.884	0
467.085	0.01
467.285	0.04
467.485	-0.04
467.686	0.01
467.886	-0.02
468.086	0.01
468.286	0.05
468.487	-0.01
468.687	-0.05
468.887	0.03
469.087	0.04
469.287	0.01
469.488	-0.07
469.688	-0.01
469.888	0.06
470.088	0.04
470.288	0.06
470.488	0.01
470.688	-0.04
470.888	-0.05
471.088	-0.02
471.288	0.05
471.488	0.05
471.688	0.03
471.888	-0.03
472.088	0.02
472.288	0
472.488	-0.06
472.688	-0.05
472.888	0.02
473.088	0.01
473.288	-0
473.488	0.01
473.688	0.07
473.887	-0.01
474.087	-0.02
474.287	-0
474.487	-0.03
474.687	-0
474.886	-0.03
475.086	-0.03
475.286	0.02
475.486	0.03
475.685	-0
475.885	-0
476.085	-0.03
476.284	0.05
476.484	-0.03
476.684	0.01
476.883	0.03
477.083	0.04
477.282	-0.02
477.482	0.07
477.681	0.07
477.881	0.03
478.08	-0.02
478.28	-0.03
478.479	0.04
478.679	0.03
478.878	-0.03
479.078	-0.02
479.277	0.01
479.477	-0.01
479.676	0.05
479.875	-0.02
480.075	-0.08
480.274	0.02
480.473	0.02
480.673	-0.04
480.872	0.04
481.071	-0.01
481.271	0.02
481.47	-0.05
481.669	-0.02
481.868	0.01
482.067	-0.03
482.267	0.01
482.466	-0.04
482.665	-0.02
482.864	-0.03
483.063	-0.03
483.262	0.01
483.461	0.05
483.661	0.03
483.86	-0.01
484.059	-0
484.258	-0.01
484.457	0.01
484.656	-0
484.855	0.02
485.054	-0.05
485.253	-0.04
485.452	-0.04
485.651	-0.01
485.849	-0.03
486.048	-0.03
486.247	-0.02
486.446	-0.01
486.645	-0.01
486.844	-0.03
487.043	-0.02
487.241	0.01
487.44	-0.02
487.639	-0.03
487.838	0.02
488.037	0.01
488.235	0.03
488.434	-0.02
488.633	-0.05
488.831	-0.01
489.03	0.04
489.229	-0.01
489.427	-0.01
489.626	0.04
489.825	0.05
490.023	-0.02
490.222	-0.02
490.42	0.03
490.619	0.02
490.817	-0
491.016	-0.02
491.214	0.03
491.413	-0.01
491.611	-0.03
491.81	-0
492.008	0.01
492.207	0.01
492.405	0
492.604	-0.05
492.802	-0.02
493	0
493.199	-0
493.397	-0.01
493.595	-0.01
493.794	-0.01
493.992	0.03
494.19	-0.03
494.388	0.04
494.587	-0.03
494.785	-0.01
494.983	-0.03
495.181	-0.04
495.379	-0.02
495.578	-0.01
495.776	0
495.974	-0.01
496.172	-0.02
496.37	-0
496.568	-0.04
496.766	-0.02
496.964	0.02
497.162	0
497.36	-0.01
497.558	-0.02
497.756	0.03
497.954	-0
498.152	-0.04
498.35	-0.01
498.548	0
498.746	0.01
498.944	-0.04
499.142	-0.02
499.34	-0.04
499.538	-0.02
499.736	-0.02
499.933	0.03
500.131	0.03
500.329	-0.03
500.527	-0
500.725	0.01
500.922	0
501.12	0
501.318	0.03
501.516	-0.02
501.713	-0
501.911	-0
502.109	-0.02
502.306	0.01
502.504	-0.01
502.701	-0.01
502.899	-0.01
503.097	0.03
503.294	0.01
503.492	-0.01
503.689	0
503.887	0
504.084	0.03
504.282	0.02
504.479	-0.04
504.677	0
504.874	-0.02
505.072	0
505.269	-0.01
505.466	0.01
505.664	0.01
505.861	-0.02
506.059	-0.02
506.256	0
506.453	-0.01
506.651	0.04
506.848	0.01
507.045	-0
507.242	-0.01
507.44	-0.01
507.637	-0.01
507.834	-0.01
508.031	-0
508.229	-0.03
508.426	0.01
508.623	-0.01
508.82	-0.02
509.017	-0.04
509.214	-0.02
509.411	-0.02
509.608	-0.03
509.805	-0
510.003	-0.01
510.2	-0.01
510.397	0.01
510.594	-0.03
510.791	-0.02
510.988	-0
511.184	-0
511.381	0.01
511.578	-0.02
511.775	-0.02
511.972	-0.02
512.169	-0.01
512.366	-0
512.563	-0.01
512.76	-0.03
512.956	-0
513.153	-0.02
513.35	0
513.547	-0.01
513.744	-0.04
513.94	-0.05
514.137	0
514.334	-0
514.53	-0.01
514.727	0.01
514.924	0.04
515.12	-0.01
515.317	-0.05
515.514	-0.02
515.71	-0.04
515.907	-0.01
516.103	-0.01
516.3	0.01
516.497	0.02
516.693	0.03
516.89	-0.01
517.086	-0.03
517.283	0.01
517.479	-0
517.676	-0.02
517.872	-0.01
518.068	-0.01
518.265	-0.02
518.461	-0.02
518.658	-0.02
518.854	0.01
519.05	-0.02
519.247	-0.01
519.443	-0.01
519.639	0
519.836	0.01
520.032	-0.01
520.228	0.01
520.424	0.03
520.621	0.03
520.817	-0.01
521.013	-0.01
521.209	-0
521.405	0.03
521.601	0
521.798	-0
521.994	0.02
522.19	-0.02
522.386	-0.05
522.582	-0.01
522.778	-0.01
522.974	-0.02
523.17	0
523.366	-0.02
523.562	0.03
523.758	-0
523.954	-0.03
524.15	0
524.346	0.01
524.542	-0.03
524.738	-0.03
524.934	-0.01
525.129	0.01
525.325	0.01
525.521	0.01
525.717	0.03
525.913	-0
526.109	0.01
526.304	-0
526.5	-0.01
526.696	0.01
526.892	-0.02
527.087	-0.01
527.283	-0.06
527.479	-0.01
527.674	-0.03
527.87	0
528.066	-0
528.261	0.01
528.457	0.01
528.653	-0.02
528.848	-0.02
529.044	0
529.239	-0.02
529.435	0.02
529.63	-0
529.826	0.04
530.021	0
530.217	0.01
530.412	-0.03
530.608	-0.02
530.803	0.01
530.999	-0.01
531.194	-0.06
531.389	0.01
531.585	-0.05
531.78	-0.02
531.975	-0.02
532.171	0.01
532.366	-0
532.561	-0.02
532.757	-0.04
532.952	-0.02
533.147	0
533.342	-0.02
533.538	-0.01
533.733	0.03
533.928	-0.02
534.123	-0.03
534.318	-0.01
534.513	-0
534.709	-0
534.904	-0.02
535.099	-0.02
535.294	0
535.489	-0.02
535.684	-0.01
535.879	-0.03
536.074	0
536.269	-0.02
536.464	-0.01
536.659	0
536.854	-0.03
537.049	0
537.244	0.01
537.439	-0.01
537.634	0.02
537.828	-0
538.023	-0.03
538.218	-0.03
538.413	-0
538.608	-0.04
538.803	-0
538.997	-0.04
539.192	0.01
539.387	0.01
539.582	0.01
539.776	0
539.971	-0.01
540.166	-0.03
540.36	-0.05
540.555	0.01
540.75	-0.02
540.944	-0.01
541.139	-0.05
541.334	-0.02
541.528	-0.02
541.723	0.02
541.917	-0.03
542.112	-0.06
542.306	-0.01
542.501	-0.02
542.695	0
542.89	-0.04
543.084	0.01
543.279	-0.02
543.473	0
543.668	-0.01
543.862	0
544.056	-0.01
544.251	-0.01
544.445	0.01
544.64	-0
544.834	-0.04
545.028	0.01
545.222	-0
545.417	0.01
545.611	-0.01
545.805	-0.01
546	-0.01
546.194	-0
546.388	-0.01
546.582	0.02
546.776	-0
546.97	-0.02
547.165	0
547.359	0.03
547.553	-0.02
547.747	0.01
547.941	0
548.135	-0.01
548.329	-0
548.523	0.01
548.717	-0.01
548.911	-0.03
549.105	-0.01
549.299	-0
549.493	0.01
549.687	-0.01
549.881	0.01
550.075	-0
550.269	-0.03
550.463	0.04
550.657	-0.02
550.85	-0.03
551.044	-0.02
551.238	-0.01
551.432	-0.03
551.626	-0.02
551.82	0
552.013	-0.02
552.207	-0.01
552.401	0.01
552.594	0
552.788	-0.02
552.982	0.01
553.176	0
553.369	0.02
553.563	0.02
553.756	-0.01
553.95	-0.01
554.144	-0.01
554.337	0
554.531	0.01
554.724	-0
554.918	-0.01
555.111	0.01
555.305	0
555.498	0.03
555.692	-0.01
555.885	-0.02
556.079	0.01
556.272	-0.02
556.466	0.02
556.659	-0.01
556.852	-0
557.046	-0.03
557.239	0.02
557.432	-0.06
557.626	-0.03
557.819	0
558.012	0.03
558.206	0
558.399	-0.01
558.592	-0.02
558.785	-0.01
558.979	0.02
559.172	0
559.365	0.01
559.558	-0.01
559.751	-0.02
559.944	-0.02
560.138	-0.02
560.331	-0.01
560.524	-0.04
560.717	-0.02
560.91	-0
561.103	0
561.296	-0
561.489	0
561.682	0.01
561.875	0.01
562.068	0.01
562.261	0.01
562.454	0.03
562.647	0.01
562.84	-0
563.032	-0.02
563.225	0.01
563.418	-0.02
563.611	-0.01
563.804	-0
563.997	-0.02
564.19	-0.02
564.382	-0
564.575	-0.02
564.768	-0.02
564.961	-0.03
565.153	-0.03
565.346	0.02
565.539	0
565.731	0.01
565.924	0.02
566.117	-0
566.309	-0.01
566.502	-0.04
566.695	0
566.887	0
567.08	-0.01
567.272	-0.02
567.465	-0.03
567.657	-0
567.85	-0
568.042	-0.01
568.235	0.01
568.427	-0.02
568.62	-0
568.812	-0.01
569.005	-0.01
569.197	-0.04
569.389	0
569.582	0.01
569.774	0.01
569.966	-0.03
570.159	-0.06
570.351	-0.01
570.543	-0
570.736	-0.03
570.928	-0.03
571.12	0
571.312	-0.02
571.505	-0.07
571.697	0.03
571.889	-0.02
572.081	-0.02
572.273	-0.02
572.465	0.03
572.658	-0.02
572.85	0.01
573.042	-0.02
573.234	-0.02
573.426	0.02
573.618	-0.04
573.81	0.01
574.002	0.01
574.194	0.01
574.386	-0.04
574.578	-0.07
574.77	-0.02
574.962	-0.02
575.154	-0.04
575.346	-0
575.538	0.01
575.729	-0.02
575.921	-0.02
576.113	-0.02
576.305	0.02
576.497	-0
576.689	-0.01
576.88	-0.03
577.072	0.01
577.264	-0
577.456	-0.02
577.647	-0.06
577.839	0.01
578.031	0.02
578.223	-0.03
578.414	-0.05
578.606	0.01
578.798	-0.01
578.989	-0.04
579.181	-0
579.372	0.01
579.564	-0.02
579.755	0
579.947	0.02
580.139	0
580.33	-0.05
580.522	-0.03
580.713	-0.1
580.905	0.01
581.096	0.01
581.287	0
581.479	-0.02
581.67	0.02
581.862	-0.01
582.053	-0.03
582.244	-0.04
582.436	-0.02
582.627	-0.01
582.818	-0.05
583.01	-0.03
583.201	0.01
583.392	-0
583.583	-0.01
583.775	-0.01
583.966	-0.03
584.157	-0.03
584.348	-0.01
584.54	-0.04
584.731	-0
584.922	-0
585.113	-0.04
585.304	0.02
585.495	0.02
585.686	-0
585.877	-0
586.068	0
586.259	0.02
586.45	-0.01
586.641	-0.04
586.832	-0.05
587.023	-0
587.214	-0.02
587.405	0.01
587.596	-0.01
587.787	0.02
587.978	-0
588.169	-0.04
588.36	-0.03
588.551	-0
588.742	-0.02
588.932	0.02
589.123	-0
589.314	0.03
589.505	0.03
589.696	-0.02
589.886	-0.01
590.077	-0.05
590.268	0
590.458	-0.07
590.649	-0.05
590.84	0.03
591.03	-0.03
591.221	-0.06
591.412	-0.04
591.602	0.02
591.793	-0
591.984	-0.04
592.174	-0.01
592.365	0.04
592.555	-0.03
592.746	0
592.936	0
593.127	0.01
593.317	0.01
593.508	-0.03
593.698	-0.02
593.889	-0.01
594.079	0
594.269	-0.02
594.46	-0.01
594.65	-0
594.84	-0.01
595.031	-0.06
595.221	-0.04
595.411	-0.04
595.602	0.02
595.792	-0
595.982	-0.03
596.172	0.03
596.363	0.01
596.553	-0.01
596.743	-0.03
596.933	-0.01
597.123	-0.01
597.314	-0.05
597.504	-0.03
597.694	0.02
597.884	0
598.074	-0.02
598.264	-0.06
598.454	-0.02
598.644	0
598.834	-0.04
599.024	-0.07
599.214	-0.01
599.404	0.01
599.594	-0.02
599.784	-0.02
599.974	0.04
600.164	-0
600.354	-0.06
600.544	-0.02
600.734	0
600.924	0.04
601.114	-0.05
601.303	-0.01
601.493	0.01
601.683	0.02
601.873	0
602.063	-0.06
602.252	0.02
602.442	-0.05
602.632	-0.05
602.821	-0.04
603.011	0.02
603.201	-0.01
603.39	-0.02
603.58	-0.03
603.77	-0
603.959	0.02
604.149	-0.02
604.339	-0.01
604.528	0.02
604.718	0.03
604.907	-0.02
605.097	-0.03
605.286	0.02
605.476	0.02
605.665	0.01
605.855	-0.01
606.044	0.02
606.234	-0.03
606.423	-0.05
606.612	-0.02
606.802	-0.01
606.991	0.01
607.181	0
607.37	-0.06
607.559	-0.01
607.749	-0.04
607.938	-0.02
608.127	-0.03
608.316	-0.02
608.506	0
608.695	-0.03
608.884	-0.04
609.073	-0.02
609.263	-0.02
609.452	-0.01
609.641	0.01
609.83	-0.04
610.019	-0.03
610.208	-0.02
610.397	-0.03
610.586	-0.02
610.775	-0.03
610.965	-0.04
611.154	-0.02
611.343	-0.01
611.532	0.02
611.721	-0.04
611.91	-0.02
612.099	0.02
612.287	-0.03
612.476	-0.02
612.665	-0
612.854	-0.05
613.043	0.01
613.232	-0.04
613.421	-0.05
613.61	-0.02
613.798	-0.02
613.987	0.01
614.176	-0.02
614.365	0.03
614.554	0.02
614.742	0.02
614.931	-0.04
615.12	0.01
615.309	0.01
615.497	-0
615.686	-0.07
615.875	-0
616.063	0.03
616.252	-0.03
616.44	-0.04
616.629	-0.01
616.818	-0
617.006	0
617.195	-0
617.383	0.02
617.572	0
617.76	-0.03
617.949	-0
618.137	0
618.326	-0
618.514	-0.03
618.703	-0.04
618.891	0.04
619.079	-0.06
619.268	0.01
619.456	-0.04
619.644	0.05
619.833	-0.03
620.021	-0.02
620.209	-0.06
620.398	-0.03
620.586	-0.02
620.774	0.02
620.962	-0.02
621.151	0.04
621.339	-0.04
621.527	-0.05
621.715	-0.07
621.903	-0.02
622.092	-0.04
622.28	0.01
622.468	0.01
622.656	-0.02
622.844	0
623.032	-0.03
623.22	-0.09
623.408	0.03
623.596	-0.02
623.784	-0.03
623.972	-0.03
624.16	-0.02
624.348	0.04
624.536	-0.02
624.724	-0.03
624.912	0.01
625.1	0.02
625.288	-0.02
625.476	-0.02
625.664	0.04
625.851	-0.04
626.039	0.01
626.227	0.01
626.415	0.01
626.603	-0.05
626.79	-0.01
626.978	-0.01
627.166	0.03
627.354	-0.02
627.541	-0.02
627.729	-0.07
627.917	0.03
628.104	0.01
628.292	0.01
628.48	-0.01
628.667	-0.02
628.855	0
629.042	0.01
629.23	-0.01
629.418	0
629.605	0.02
629.793	-0.04
629.98	-0.01
630.168	0.01
630.355	-0.04
630.543	0.04
630.73	-0.02
630.917	-0
631.105	0.03
631.292	-0.01
631.48	0.01
631.667	0.06
631.854	0.01
632.042	-0.02
632.229	-0.03
632.416	-0
632.604	-0.01
632.791	-0.03
632.978	0.03
633.165	0
633.353	0.04
633.54	0.05
633.727	-0.06
633.914	-0.01
634.101	-0.04
634.289	0.05
634.476	-0.03
634.663	-0.03
634.85	0.02
635.037	-0.01
635.224	-0.05
635.411	0.02
635.598	0.04
635.785	0.05
635.972	0.01
636.159	0.04
636.346	-0.04
636.533	-0.03
636.72	-0.01
636.907	0.02
637.094	-0.01
637.281	-0.04
637.468	0.08
637.655	0.03
637.842	0.03
638.029	-0.01
638.215	0.03
638.402	0.02
638.589	-0.02
638.776	-0.01
638.963	-0.03
639.149	0.04
639.336	0.07
639.523	0
639.709	0.03
639.896	0
640.083	0.04
640.27	0.03
640.456	-0.01
640.643	0.05
640.829	-0.02
641.016	0
641.203	-0
641.389	0.05
641.576	0.04
641.762	0.01
641.949	-0.02
642.135	0.03
642.322	0.04
642.508	-0.05
642.695	0
642.881	0
643.068	0.03
643.254	0
643.441	0.07
643.627	0
643.813	-0
644	0.07
644.186	0.01
644.372	0.07
644.559	0.01
644.745	0.04
644.931	0
645.118	0
645.304	0.04
645.49	0.02
645.676	0.03
645.862	0.01
646.049	0.08
646.235	0.01
646.421	0.08
646.607	0.11
646.793	0.02
646.979	-0
647.165	0.03
647.352	0.05
647.538	0.06
647.724	0.03
647.91	0.04
648.096	0.1
648.282	0.05
648.468	0.05
648.654	0.04
648.84	0.06
649.026	0.08
649.212	0.05
649.397	0.03
649.583	0.03
649.769	0.07
649.955	0.06
650.141	0.06
650.327	0.07
650.513	0.02
650.698	0.06
650.884	-0.02
651.07	0.06
651.256	0.03
651.442	0.05
651.627	0.01
651.813	0.06
651.999	0.07
652.184	0.07
652.37	0.02
652.556	0.05
652.741	0.12
652.927	0.02
653.113	0.06
653.298	0.07
653.484	0.05
653.669	0
653.855	0.09
654.04	0.1
654.226	0.07
654.412	0.06
654.597	0.04
654.782	0.09
654.968	0.08
655.153	0.07
655.339	0.06
655.524	0.01
655.71	0.11
655.895	0.06
656.08	0.07
656.266	0.13
656.451	0.08
656.636	0.05
656.822	0.09
657.007	0.06
657.192	0.09
657.378	0.06
657.563	0.11
657.748	0.13
657.933	0.12
658.118	0.08
658.304	0.06
658.489	0.12
658.674	0.12
658.859	0.06
659.044	0.1
659.229	0.11
659.414	0.11
659.599	0.11
659.785	0.05
659.97	0.09
660.155	0.09
660.34	0.12
660.525	0.06
660.71	0.08
660.895	0.14
661.08	0.06
661.264	0.06
661.449	0.11
661.634	0.14
661.819	0.11
662.004	0.09
662.189	0.03
662.374	0.06
662.559	0.04
662.743	0.01
662.928	0.08
663.113	0.06
663.298	0.02
663.483	0.01
663.667	0.06
663.852	0.01
664.037	0.11
664.221	0.04
664.406	0.09
664.591	0.04
664.775	0.03
664.96	-0
665.145	0.06
665.329	0.04
665.514	-0
665.698	0.03
665.883	-0.02
666.068	0.08
666.252	0.05
666.437	-0.01
666.621	0.04
666.806	0.06
666.99	0.03
667.174	0.01
667.359	0.08
667.543	0.02
667.728	0.04
667.912	-0.06
668.096	0.03
668.281	-0
668.465	-0.02
668.649	0.01
668.834	-0.04
669.018	-0
669.202	0.02
669.387	-0.01
669.571	0.07
669.755	-0.02
669.939	0
670.124	0.03
670.308	0.08
670.492	0.06
670.676	0
670.86	-0.03
671.044	-0.03
671.228	0.03
671.413	-0.02
671.597	-0
671.781	-0.03
671.965	0.04
672.149	-0.02
672.333	-0
672.517	-0.01
672.701	0.04
672.885	-0.04
673.069	-0.07
673.253	0.05
673.437	0.01
673.621	-0.07
673.804	-0.02
673.988	-0
674.172	-0.02
674.356	-0.03
674.54	-0.02
674.724	0.05
674.908	-0.04
675.091	-0
675.275	-0
675.459	0.04
675.643	0.06
675.826	-0
676.01	-0.01
676.194	-0.04
676.377	0.02
676.561	0.03
676.745	-0.01
676.928	0
677.112	0.06
677.296	-0.07
677.479	-0.05
677.663	-0.03
677.846	-0.02
678.03	-0.02
678.213	-0.04
678.397	0.03
678.58	-0
678.764	-0.04
678.947	-0.07
679.131	-0.05
679.314	0.02
679.498	-0.03
679.681	0.01
679.865	0.06
680.048	0.03
680.231	-0.02
680.415	-0
680.598	-0.05
680.781	-0.06
680.965	-0.02
681.148	-0.02
681.331	-0.03
681.514	-0.01
681.698	0.01
681.881	-0.05
682.064	0.01
682.247	-0.02
682.43	-0.05
682.614	-0.02
682.797	0.05
682.98	-0.02
683.163	-0.03
683.346	0.01
683.529	-0.03
683.712	-0.05
683.895	-0.01
684.078	-0.06
684.261	-0.05
684.444	-0.01
684.627	0
684.81	-0.03
684.993	-0.02
685.176	0.03
685.359	-0.06
685.542	-0.03
685.725	0.06
685.908	0.01
686.091	-0.03
686.274	0.06
686.457	0.01
686.639	-0.01
686.822	0
687.005	-0.02
687.188	0.02
687.371	0.04
687.553	-0
687.736	0.04
687.919	0.05
688.102	0.04
688.284	-0.09
688.467	-0.04
688.65	-0.01
688.832	-0.06
689.015	-0.03
689.197	-0.09
689.38	0.03
689.563	0.07
689.745	-0.08
689.928	-0.11
690.11	-0.02
690.293	0
690.475	-0.08
690.658	0.01
690.84	0.01
691.023	0.02
691.205	-0.01
691.388	-0.03
691.57	0.05
691.752	0.04
691.935	-0.06
692.117	-0.03
692.3	-0.02
692.482	-0.01
692.664	0
692.847	0.05
693.029	0.02
693.211	0.02
693.393	-0.03
693.576	-0.01
693.758	0.01
693.94	-0.04
694.122	0.01
694.304	-0.06
694.487	-0.02
694.669	0.05
694.851	-0.11
695.033	0.02
695.215	-0.06
695.397	-0.02
695.579	0.02
695.761	-0.07
695.943	-0.12
696.125	0.05
696.308	-0.01
696.49	-0.13
696.671	0.07
696.853	-0.02
697.035	0.1
697.217	0.01
697.399	0.01
697.581	-0.07
697.763	-0.02
697.945	-0.06
698.127	-0.03
698.309	0.03
698.491	-0.03
698.672	0.02
698.854	0.04
699.036	0.06
699.218	0.01
699.399	0.1
699.581	0.08
699.763	0.05
699.945	-0.04
700.126	-0.04
700.308	-0.02
700.49	0.04
700.671	-0.09
700.853	-0.03
701.035	-0.02
701.216	-0.02
701.398	-0
701.579	-0
701.761	-0
701.943	-0.06
702.124	-0.04
702.306	-0.02
702.487	0.15
702.669	-0.01
702.85	-0.02
703.031	-0.03
703.213	0.09
703.394	0.03
703.576	-0.03
703.757	0.09
703.938	0.03
704.12	0.08
704.301	0.02
704.483	0.01
704.664	0.02
704.845	0.05
705.026	0.03
705.208	-0.04
705.389	-0
705.57	-0.01
705.751	-0.01
705.933	-0.01
706.114	0.01
706.295	0.04
706.476	-0.03
706.657	0.09
706.838	0.02
707.02	0.09
707.201	-0.06
707.382	-0.04
707.563	0.02
707.744	-0.08
707.925	-0.07
708.106	-0.03
708.287	0.06
708.468	0.12
708.649	-0.04
708.83	0.06
709.011	-0.09
709.192	0.04
709.373	-0.14
709.554	-0.04
709.734	0.02
709.915	0.06
710.096	-0.01
710.277	-0.15
710.458	-0.02
710.639	0.05
710.819	-0.09
711	-0.02
711.181	0.05
711.362	0.08
711.542	0.01
711.723	0.01
711.904	0.04
712.085	0.07
712.265	0.05
712.446	-0.08
712.627	-0.01
712.807	0.02
712.988	0.02
713.168	-0.04
713.349	0
713.53	-0.09
713.71	-0.04
713.891	-0.02
714.071	0.01
714.252	-0
714.432	0.02
714.613	-0.09
714.793	-0.04
714.974	0.09
715.154	0.05
715.334	0.08
715.515	0.12
715.695	-0.01
715.876	-0.02
716.056	-0.03
716.236	-0.01
716.417	0.01
716.597	0
716.777	0.19
716.957	-0.02
717.138	-0.02
717.318	0.07
717.498	-0.13
717.678	0.08
717.859	0.01
718.039	-0.05
718.219	0.08
718.399	0.04
718.579	-0.07
718.759	-0.06
718.939	0.03
719.12	0.04
719.3	-0.03
719.48	-0.09
719.66	-0.07
719.84	0.15
720.02	0.01
720.2	-0.01
720.38	0.09
720.56	0.14
720.74	-0
720.92	0.06
721.1	0.1
721.279	0.12
721.459	0.02
721.639	-0.08
721.819	0.08
721.999	-0.03
722.179	0.05
722.359	-0.02
722.538	0.1
722.718	-0.03
722.898	0
723.078	-0.03
723.257	-0.02
723.437	-0
723.617	0.02
723.797	0.03
723.976	0.01
724.156	0.06
724.336	0.17
724.515	0.22
724.695	-0.11
724.874	-0.04
725.054	0.06
725.234	-0.05
725.413	0.01
725.593	-0
725.772	-0.03
725.952	0.03
726.131	-0
726.311	0.06
726.49	0.01
726.67	-0.08
726.849	-0.02
727.028	0.03
727.208	0.01
727.387	0.12
727.567	-0.05
727.746	0.05
727.925	0.02
728.105	-0.03
728.284	0.05
728.463	-0.05
728.643	0.09
728.822	0.01
729.001	-0.05
729.18	0.04
729.359	0.05
729.539	-0.04
729.718	0.05
729.897	0.16
730.076	0.05
730.255	-0.13
730.434	0.11
730.614	0.1
730.793	0.07
730.972	0.08
731.151	0.06
731.33	0.11
731.509	0.02
731.688	0.05
731.867	0.01
732.046	-0.09
732.225	0.22
732.404	0.02
732.583	0.02
732.762	0.04
732.941	0.14
733.12	0.09
733.298	-0.04
733.477	0.09
733.656	0.01
733.835	0.06
734.014	0.11
734.193	0.08
734.371	0.19
734.55	0.1
734.729	-0.06
734.908	0.02
735.086	0.09
735.265	0.18
735.444	-0.15
735.623	0
735.801	-0.05
735.98	0.11
736.159	0.02
736.337	0.2
736.516	0.08
736.694	0.08
736.873	-0
737.052	0.2
737.23	0.05
737.409	0.11
737.587	0.25
737.766	-0
737.944	-0.06
738.123	0.08
738.301	0.09
738.479	0.09
738.658	0.11
738.836	-0.13
739.015	0.07
739.193	0.15
739.371	-0.05
739.55	0.06
739.728	0.06
739.906	0.13
740.085	0.25
740.263	0.04
740.441	-0.17
740.62	0.19
740.798	0.14
740.976	-0.08
741.154	0.01
741.332	0.21
741.511	0.08
741.689	0.07
741.867	0.12
742.045	0.14
742.223	0.05
742.401	0.07
742.579	-0.01
742.757	0.08
742.935	-0.03
743.114	0.02
743.292	0.03
743.47	-0.02
743.648	0.09
743.826	-0
744.004	0.16
744.181	0.07
744.359	-0.15
744.537	0.01
744.715	-0.04
744.893	0.06
745.071	-0.03
745.249	0
745.427	0.01
745.605	0.02
745.782	0.08
745.96	0.04
746.138	0.06
746.316	0.04
746.493	0.05
746.671	-0.01
746.849	-0.12
747.027	0.21
747.204	-0.06
747.382	0.08
747.56	-0.08
747.737	-0.12
747.915	-0.05
748.093	0.05
748.27	-0.05
748.448	-0.06
748.625	-0.13
748.803	-0.13
748.98	-0.08
749.158	0.09
749.335	0.09
749.513	-0.06
749.69	-0.09
749.868	-0.02
750.045	-0.01
750.223	-0.1
750.4	-0.24
750.578	0.11
750.755	-0.06
750.932	-0.12
751.11	0.16
751.287	-0.22
751.464	0.11
751.642	-0.08
751.819	0.1
751.996	-0.1
752.173	0.02
752.351	-0.17
752.528	-0.02
752.705	0.01
752.882	-0.19
753.06	-0.02
753.237	0.07
753.414	0.18
753.591	0.16
753.768	-0.01
753.945	-0.09
754.122	-0.13
754.299	0.11
754.476	-0.15
754.654	-0.02
754.831	0.04
755.008	-0.06
755.185	-0.1
755.362	-0.14
755.539	0.05
755.716	-0.07
755.892	-0.06
756.069	-0.03
756.246	0.03
756.423	-0.09
756.6	0.18
756.777	-0.1
756.954	0.14
757.131	0.02
757.307	-0.15
757.484	0.01
757.661	0.01
757.838	0.06
758.015	-0.15
758.191	-0
758.368	-0.08
758.545	0.09
758.721	0.04
758.898	-0.06
759.075	0.05
759.251	0.01
759.428	0.03
759.605	-0.11
759.781	-0.1
759.958	-0.03
760.134	0.03
760.311	-0.15
760.488	0.11
760.664	0.14
760.841	-0.06
761.017	-0.13
761.194	-0.01
761.37	0.01
761.547	-0.03
761.723	0.01
761.899	0.15
762.076	0.04
762.252	-0.18
762.429	-0.03
762.605	0.17
762.781	-0.1
762.958	0.12
763.134	0.03
763.31	-0.15
763.486	0.01
763.663	-0.29
763.839	0.07
764.015	-0.11
764.191	-0.14
764.368	-0.07
764.544	-0.08
764.72	0.02
764.896	0.08
765.072	0.08
765.248	-0.27
765.425	0.01
765.601	0.02
765.777	-0.04
765.953	-0.16
766.129	-0.08
766.305	0.03
766.481	-0.02
766.657	0.03
766.833	0.16
767.009	-0.15
767.185	-0.06
767.361	-0.04
767.537	-0.12
767.713	0.06
767.889	-0.01
768.065	-0.08
768.24	-0.17
768.416	0.12
768.592	-0.08
768.768	-0.08
768.944	0.04
769.12	-0.09
769.295	-0.11
769.471	-0.09
769.647	-0.03
769.823	0.15
769.998	-0.05
770.174	-0.27
770.35	0.24
770.525	0.12
770.701	-0.03
770.877	-0.03
771.052	-0.05
771.228	-0.03
771.403	-0.02
771.579	0.05
771.755	0.17
771.93	-0.14
772.106	-0.17
772.281	-0.05
772.457	0.01
772.632	-0.07
772.808	-0.21
772.983	-0.14
773.159	-0.19
773.334	0.14
773.509	-0
773.685	-0.19
773.86	0.33
774.036	0.15
774.211	0.03
774.386	-0.12
774.562	-0.01
774.737	0.05
774.912	-0.2
775.087	0.02
775.263	-0.06
775.438	0.06
775.613	-0.13
775.788	-0.03
775.964	0.14
776.139	0.31
776.314	-0.25
776.489	-0.04
776.664	-0.12
776.839	-0.09
777.014	0.17
777.19	0.03
777.365	0.21
777.54	0.11
777.715	-0.06
777.89	-0.02
778.065	-0.17
778.24	-0.01
778.415	0.3
778.59	-0.23
778.765	-0.17
778.94	-0.07
779.115	-0
779.289	-0.06
779.464	-0.02
779.639	-0.01
779.814	-0.12
779.989	-0.08
780.164	0.2
780.339	-0.04
780.513	-0.18
780.688	-0.18
780.863	-0.2
781.038	0.03
781.212	-0.27
781.387	-0.05
781.562	0.3
781.737	0.08
781.911	0.15
782.086	-0.14
782.261	0.03
782.435	0.19
782.61	-0.12
782.784	-0.1
782.959	0.02
783.134	-0.14
783.308	-0.13
783.483	0.07
783.657	0.23
783.832	0.13
784.006	-0.29
784.181	-0.23
784.355	0.13
784.53	-0.06
784.704	-0.07
784.878	0.21
785.053	0.16
785.227	0.14
785.402	0.38
785.576	-0.24
785.75	0.01
785.925	0.02
786.099	-0.07
786.273	0.04
786.448	0.24
786.622	0.06
786.796	-0.19
786.97	-0.17
787.145	0.45
787.319	-0.38
787.493	-0.21
787.667	-0.5
787.841	-0.14
788.015	0.14
788.19	-0.09
788.364	0.04
788.538	0.11
788.712	0.19
788.886	-0.12
789.06	0.1
789.234	-0.04
789.408	-0.35
789.582	-0.17
789.756	-0.09
789.93	-0.19
790.104	-0.17
790.278	-0.05
790.452	-0.42
790.626	0.07
790.8	-0.26
790.973	0.17
791.147	0.15
791.321	0.18
791.495	0.26
791.669	-0.07
791.843	0.16
792.016	0.06
792.19	0.41
792.364	-0.24
792.538	0.4
792.711	-0
792.885	-0.1
793.059	-0.18
793.233	-0.57
793.406	0.08
793.58	-0.22
793.754	0.23
793.927	-0.2
794.101	0.22
794.274	0.18
794.448	0.26
794.622	-0.12
794.795	-0.07
794.969	-0.17
795.142	0.31
795.316	-0.16
795.489	-0.25
795.663	0.26
795.836	-0.13
796.009	-0.31
796.183	0.2
796.356	-0.05
796.53	0.02
796.703	-0.05
796.876	0.47
797.05	0.1
797.223	-0.04
797.396	-0.04
797.57	-0.04
797.743	0.13
797.916	-0
798.09	-0.1
798.263	-0.03
798.436	0.15
798.609	-0.24
798.782	-0.01
798.956	-0.16
799.129	0.21
799.302	-0.13
799.475	-0.19
799.648	-0.25
799.821	0.14
799.994	0
800.167	-0.37
800.34	0.02
800.514	0.12
800.687	-0.09
800.86	-0.08
801.033	-0.03
801.206	-0.07
801.379	-0.4
801.551	0.14
801.724	0.04
801.897	0.63
802.07	-0.11
802.243	-0.36
802.416	-0.08
802.589	-0.23
802.762	0.1
802.935	0.09
803.107	0.11
803.28	0.33
803.453	0.2
803.626	-0.14
803.798	-0.26
803.971	-0.29
804.144	0.28
804.317	-0.19
804.489	0.23
804.662	-0.08
804.835	-0.07
805.007	-0.34
805.18	0.09
805.353	0.32
805.525	-0.29
805.698	-0.23
805.87	0.15
806.043	0.16
806.215	-0.56
806.388	-0.15
806.56	-0.08
806.733	0.26
806.905	0.03
807.078	-0.15
807.25	-0.24
807.423	-0.17
807.595	-0.1
807.768	-0.08
807.94	0.09
808.112	-0.06
808.285	-0.09
808.457	-0.07
808.629	-0.08
808.802	0.09
808.974	0.32
809.146	-0.05
809.318	-0.18
809.491	-0.04
809.663	0.39
809.835	-0.07
810.007	-0.08
810.18	0.07
810.352	-0.47
810.524	-0.48
810.696	-0.18
810.868	0.52
811.04	-0.06
811.212	0.03
811.384	0.05
811.556	-0.01
811.728	-0.33
811.901	0.68
812.073	-0.22
812.245	0.39
812.417	-0.09
812.589	-0.4
812.76	-0.17
812.932	0.19
813.104	0.55
813.276	0.03
813.448	0.02
813.62	0.14
813.792	0.11
813.964	0.09
814.136	0.1
814.307	-0.27
814.479	-0.25
814.651	-0.04
814.823	0.66
814.995	-0.32
815.166	-0.01
815.338	-0.25
815.51	-0.54
815.681	0.91
815.853	0.12
816.025	-0.22
816.196	0.32
816.368	0.41
816.54	-0.85
816.711	-0.02
816.883	0.23
817.054	0.76
817.226	-0.56
817.398	-0.24
817.569	-0.34
817.741	-0.39
817.912	0.09
818.084	-0.22
818.255	0.44
818.426	-0.07
818.598	-0.12
818.769	-0.09
818.941	0.13
819.112	0.54
819.283	0.43
819.455	-0.76
819.626	0.11
819.798	0.45
819.969	0.41
820.14	-0.05
820.311	-0.13
820.483	-0.28
820.654	0.76
820.825	-0.04
820.996	-0.5
821.168	-0.46
821.339	-0.08
821.51	-0.47
821.681	-0.28
821.852	0.1
822.023	-0.32
822.195	-0.75
822.366	0.02
822.537	-0.06
822.708	-0.11
822.879	-0.36
823.05	0.52
823.221	-0.07
823.392	-0.42
823.563	-0.37
823.734	0.05
823.905	-0.25
824.076	-0.56
824.247	-0.32
824.418	-0.62
824.589	0.62
824.759	-0.3
824.93	0.28
825.101	-0.38
825.272	-0.43
825.443	0.55
825.614	-0.13
825.784	-1.19
825.955	0.14
826.126	0.48
826.297	-0.15
826.467	0.13
826.638	0.41
826.809	-0.64
826.98	-0.04
827.15	0.05
827.321	0.12
827.492	0.89
827.662	-0.1
827.833	0.79
828.003	-0.38
828.174	-0.8
828.345	-0.64
828.515	0.46
828.686	-0.2
828.856	-0.26
829.027	0.08
829.197	0.8
829.368	-0.24
829.538	-0.42
829.709	-0.45
829.879	0.33
830.049	0.06
830.22	0.15
830.39	-0.59
830.56	0.3
830.731	-0.25
830.901	-0.71
831.072	-0.05
831.242	-0.31
831.412	-0.22
831.582	-0.11
831.753	-1.04
831.923	0.52
832.093	-0.43
832.263	-0.48
832.434	-1.08
832.604	-0.7
832.774	0.46
832.944	-0.4
833.114	-0.52
833.284	0.26
833.454	-0.62
833.624	-0.41
833.795	-0.52
833.965	0.32
834.135	0.47
834.305	-0.72
834.475	-0.36
834.645	-0.44
834.815	-0.44
834.985	-0.63
835.155	-0
835.325	0.4
835.494	0.37
835.664	-0.06
835.834	-0.87
836.004	0.06
836.174	0.48
836.344	-0.53
836.514	-0.62
836.684	-0.07
836.853	0.33
837.023	-0.55
837.193	-0.69
837.363	0.31
837.532	0.62
837.702	-0.14
837.872	-0.65
838.041	0.35
838.211	1.47
838.381	-0.5
838.55	0.02
838.72	1.72
838.89	1.84
839.059	-0.12
839.229	-0.56
839.398	1.04
839.568	0.02
839.738	-0.35
839.907	0.66
840.077	0.2
840.246	-0.58
840.416	-0.93
840.585	-0.83
840.755	0.22
840.924	0.18
841.093	-1.31
841.263	0.04
841.432	0.22
841.602	-0.62
841.771	-1.5
841.94	-0.68
842.11	1.61
842.279	1.33
842.448	-0.55
842.617	-1.22
842.787	1.3
842.956	-0.92
843.125	-0.32
843.294	-0.52
843.464	1.45
843.633	-0.63
843.802	-0.49
843.971	0.32
844.14	0.68
844.309	0.32
844.479	-0.84
844.648	-1.39
844.817	-0.25
844.986	0.15
845.155	0.02
845.324	-0.59
845.493	-0.07
845.662	-0.87
845.831	1.13
846	0.21
846.169	-0.15
846.338	1.23
846.507	0.86
846.676	-0.4
846.844	-0.26
847.013	0.12
847.182	0.24
847.351	-0.74
847.52	-0.47
847.689	0.32
847.858	-1.03
848.026	-1.55
848.195	-0.09
848.364	-0.49
848.533	-0.59
848.701	0.53
848.87	-0.28
849.039	0.49
849.207	0.71
849.376	0.72
849.545	1.1
849.713	-0.7
849.882	0.22
850.051	-0.09
850.219	0.13
850.388	-0.26
850.556	0.01
850.725	-0.89
850.893	-0.01
851.062	-0.52
851.23	0.55
851.399	-0.72
851.567	-0.73
851.736	-0.61
851.904	-0.55
852.073	-0.4
852.241	0.54
852.41	0.56
852.578	0.2
852.746	-0.46
852.915	0.74
853.083	-0.41
853.251	-0.76
853.42	-0.26
853.588	-1.23
853.756	0.4
853.924	-0.21
854.093	-0.23
854.261	-0.27
854.429	-1.32
854.597	-0.51
854.765	-1.4
854.934	-0.41
855.102	0.25
855.27	-1.32
855.438	-0.99
855.606	1.1
855.774	1.11
855.942	-2.38
856.11	-1.47
856.278	0.88
856.446	0.14
856.614	-1.03
856.782	-0.97
856.95	0.5
857.118	0.04
857.286	0.73
857.454	-0.17
857.622	1.61
857.79	1.25
857.958	-0.91
858.126	-0.53
858.294	-2.8
858.462	-0.53
858.629	-0.66
858.797	-0.4
858.965	0.24
859.133	-0.18
859.301	0.02
859.468	1.4
859.636	-0.49
859.804	1.71
859.971	-0.32
860.139	-0.78
860.307	0.83
860.474	-0.27
860.642	-1.23
860.81	-1.42
860.977	1.1
861.145	1.02
861.313	-0.29
861.48	-0.05
861.648	1.24
861.815	0.49
861.983	-2.34
862.15	-0.59
862.318	-0.32
862.485	1.05
862.653	-0.54
862.82	-0.82
862.988	2.15
863.155	-1.97
863.322	-1.91
863.49	-0.87
863.657	-0.28
863.824	3.56
863.992	0.49
864.159	-0.45
864.326	1.3
864.494	-0.38
864.661	2.53
864.828	-1.64
864.996	0.72
865.163	2.75
865.33	-0.7
865.497	-2.38
865.664	-0.12
865.832	-2.1
865.999	-1.82
866.166	-1.97
866.333	0.34
866.5	-1.94
866.667	1.12
866.834	0.03
867.001	0.89
867.168	-2.3
867.335	-0.67
867.502	-1.91
867.669	0.47
867.836	0.86
868.003	-0.4
868.17	0.87
868.337	-0.65
868.504	1.14
868.671	-2.56
868.838	-1.59
869.005	-0.11
869.172	0.46
869.339	-0.93
869.505	-1.08
869.672	-1.74
869.839	1.14
870.006	0.59
870.173	-0.68
870.339	0.63
870.506	2.13
870.673	-1.88
870.84	0.8
871.006	0.39
871.173	-0.12
871.34	-0
871.506	-1.91
871.673	0.58
871.839	-1.69
872.006	0.41
872.173	0.6
872.339	-0.24
872.506	1.11
872.672	-0.59
872.839	-2.42
873.005	-0.42
873.172	2.68
873.338	1.4
873.505	1.27
873.671	-1.12
873.838	1.74
874.004	-2.71
874.171	-2.69
874.337	0.68
874.503	1.7
874.67	-0.45
874.836	0.41
875.002	1.08
875.169	1.73
875.335	-0.51
875.501	-0.2
875.668	-2.79
875.834	0.86
876	-0.95
876.166	1.78
876.332	-0.29
876.499	2
876.665	-0.69
876.831	-0.26
876.997	1.48
877.163	-0.68
877.329	-1.38
877.495	0.16
877.662	0.2
877.828	1.11
877.994	-0.43
878.16	-1.52
878.326	0.01
878.492	-0.12
878.658	-0.67
878.824	-0.3
878.99	0.98
879.156	-1.49
879.322	-0.15
879.487	-1.76
879.653	-1.87
879.819	-1.16
879.985	0.42
880.151	1.26
880.317	-0.72
880.483	0.33
880.648	1.86
880.814	-3.08
880.98	0.8
881.146	-2.37
881.312	-1.24
881.477	-1.92
881.643	0.97
881.809	1.07
881.974	2.33
882.14	-1.94
882.306	-0.64
882.471	2.8
882.637	-0.51
882.803	0.26
882.968	2.61
883.134	3.34
883.299	-0.86
883.465	0.48
883.63	1.32
883.796	1.37
883.961	0.64
884.127	1.02
884.292	-3.75
884.458	-1.61
884.623	-1.61
