Data from Apollo_Calib_20240827__AbsoluteIrradiance__79__00-28-02-489.txt Node

Date: Wed Aug 28 00:28:02 BST 2024
User: biology
Spectrometer: FLMT08252
Trigger mode: 0
Integration Time (sec): 5.000000E-1
Scans to average: 5
Electric dark correction enabled: true
Nonlinearity correction enabled: false
Boxcar width: 0
XAxis mode: Wavelengths
Number of Pixels in Spectrum: 3648
>>>>>Begin Spectral Data<<<<<
179.588	-0
179.809	-0
180.03	-0
180.251	-0
180.473	-0
180.694	0
180.915	0
181.136	-0
181.357	0
181.578	-0
181.799	-0
182.02	-0
182.241	-0
182.462	-0
182.683	0
182.904	0
183.125	-0
183.346	0
183.567	0
183.788	-0
184.009	-0
184.23	-0
184.451	-0
184.672	-0
184.892	-0
185.113	-0
185.334	0
185.555	-0
185.776	-0
185.996	0
186.217	0
186.438	0
186.659	-0
186.879	0
187.1	-0
187.321	-0
187.541	-0
187.762	-0
187.983	0
188.203	-0
188.424	0
188.644	-0
188.865	-0
189.086	0
189.306	-0
189.527	-0
189.747	-0
189.968	-0
190.188	0
190.409	-0
190.629	0
190.849	-0
191.07	-0
191.29	0
191.511	0
191.731	-0
191.951	-0
192.172	0
192.392	0
192.612	-0
192.833	-0
193.053	0
193.273	0
193.493	-0
193.714	-0
193.934	0
194.154	0
194.374	0
194.594	0
194.815	-0
195.035	-0
195.255	-0
195.475	-0
195.695	0
195.915	0
196.135	-0
196.355	0
196.575	0
196.795	0
197.015	-0
197.235	-0
197.455	-0
197.675	0
197.895	-0
198.115	-0
198.335	0
198.555	0
198.775	-0
198.995	0
199.214	0
199.434	0
199.654	-0
199.874	-0
200.094	0.63
200.313	-0.62
200.533	-0.59
200.753	-0.96
200.973	0.9
201.192	0.38
201.412	-1
201.632	-0.26
201.851	0.39
202.071	-0.5
202.291	-0.59
202.51	-0.57
202.73	0.28
202.95	-0.23
203.169	-0.28
203.389	0.14
203.608	-0.05
203.828	-0.51
204.047	-0.11
204.267	0.49
204.486	-0.51
204.706	0.01
204.925	-0
205.145	-0.34
205.364	0.26
205.583	0.61
205.803	-0.57
206.022	-0.28
206.242	-0.06
206.461	0.34
206.68	-0.4
206.9	0.02
207.119	0.52
207.338	0.62
207.557	-0.44
207.777	-0.14
207.996	-0.23
208.215	0.52
208.434	-0.16
208.654	-0.5
208.873	0.2
209.092	0.3
209.311	-0.35
209.53	-0.19
209.749	-0.12
209.968	-0.55
210.187	-0.18
210.407	-0.44
210.626	-0.22
210.845	0.33
211.064	0.01
211.283	-0.12
211.502	0.05
211.721	-0.01
211.94	-0.27
212.159	0.2
212.377	0.15
212.596	0.35
212.815	-0.01
213.034	0.21
213.253	-0.04
213.472	0.29
213.691	-0.18
213.91	-0.36
214.128	-0.13
214.347	0.14
214.566	-0.4
214.785	-0.36
215.003	0.02
215.222	0.13
215.441	0.04
215.66	-0.42
215.878	0.07
216.097	0.26
216.316	-0.29
216.534	-0.16
216.753	-0.11
216.972	-0.06
217.19	-0.22
217.409	-0.14
217.627	-0.25
217.846	-0.19
218.064	-0.17
218.283	-0.17
218.501	0.36
218.72	0.24
218.938	-0.31
219.157	-0.2
219.375	0.12
219.594	0.07
219.812	-0.24
220.031	-0.18
220.249	0.23
220.467	0.23
220.686	-0.06
220.904	-0.28
221.122	-0.27
221.341	0.23
221.559	-0.03
221.777	-0.17
221.995	0.02
222.214	0.07
222.432	-0.22
222.65	0.09
222.868	0.01
223.086	0.05
223.305	0.11
223.523	-0.05
223.741	0.22
223.959	-0.21
224.177	-0.3
224.395	-0.12
224.613	0.07
224.831	0.11
225.049	-0.23
225.267	-0.14
225.485	0.01
225.703	0.03
225.921	-0.12
226.139	-0.17
226.357	0.04
226.575	0.11
226.793	-0.19
227.011	0.45
227.229	-0.01
227.447	0.12
227.665	-0.09
227.883	-0.26
228.1	-0.03
228.318	0.11
228.536	-0.26
228.754	-0.15
228.972	0.08
229.189	0.03
229.407	-0.04
229.625	0.02
229.843	0.16
230.06	0.01
230.278	-0.11
230.496	0.08
230.713	-0.03
230.931	0.17
231.149	-0.08
231.366	-0.24
231.584	-0.1
231.801	0.28
232.019	-0.12
232.236	-0.14
232.454	-0.12
232.671	-0.05
232.889	-0.12
233.106	-0.15
233.324	-0.04
233.541	-0.01
233.759	-0.05
233.976	-0.15
234.194	0.02
234.411	-0.1
234.628	-0.13
234.846	-0.02
235.063	-0.1
235.28	-0.01
235.498	-0.02
235.715	-0.25
235.932	0.02
236.149	-0.01
236.367	-0.12
236.584	0.05
236.801	-0.14
237.018	0.09
237.236	-0
237.453	-0.19
237.67	0.06
237.887	-0.13
238.104	-0.1
238.321	-0.08
238.538	-0.1
238.755	0.14
238.973	-0.16
239.19	0.04
239.407	0.04
239.624	-0
239.841	-0.16
240.058	-0.14
240.275	0.03
240.492	-0.11
240.709	-0.04
240.925	-0.04
241.142	0.07
241.359	-0.13
241.576	-0.11
241.793	-0.1
242.01	-0.12
242.227	0.09
242.444	0.06
242.66	0.06
242.877	-0.01
243.094	-0.13
243.311	0
243.527	-0.01
243.744	0.04
243.961	0.12
244.178	-0.01
244.394	-0
244.611	0.06
244.828	0.13
245.044	-0.13
245.261	-0.04
245.477	0.03
245.694	-0.02
245.911	-0.02
246.127	-0.02
246.344	0.12
246.56	0.08
246.777	-0.13
246.993	-0.01
247.21	-0.04
247.426	0.01
247.643	-0.08
247.859	-0.12
248.076	-0.07
248.292	0.21
248.508	-0
248.725	0
248.941	0.03
249.157	0.07
249.374	-0.05
249.59	0.01
249.806	0.06
250.023	0.03
250.239	-0.11
250.455	-0.08
250.671	-0.05
250.888	0.01
251.104	0.01
251.32	-0.02
251.536	0
251.752	-0.12
251.969	0.01
252.185	-0.02
252.401	0.22
252.617	0.04
252.833	-0.06
253.049	-0.05
253.265	-0.08
253.481	0.02
253.697	-0.05
253.913	-0.09
254.129	0.08
254.345	-0.01
254.561	-0.06
254.777	-0.02
254.993	0.02
255.209	-0.01
255.425	-0.11
255.641	-0.09
255.857	0.01
256.073	-0.02
256.288	-0.11
256.504	-0.07
256.72	0.09
256.936	0.04
257.152	-0.01
257.367	-0.07
257.583	0.02
257.799	0.01
258.015	-0.08
258.23	-0.07
258.446	0.07
258.662	-0.05
258.877	-0.07
259.093	-0.11
259.309	0.03
259.524	0.03
259.74	-0.04
259.955	-0.14
260.171	0.05
260.387	-0.05
260.602	0.07
260.818	0.06
261.033	-0.08
261.249	-0.05
261.464	-0.07
261.68	-0.08
261.895	-0.03
262.11	0.01
262.326	0
262.541	-0.11
262.757	0.09
262.972	0.01
263.187	-0.05
263.403	0.01
263.618	-0.01
263.833	-0.06
264.049	-0.06
264.264	0.02
264.479	0.1
264.694	0.08
264.91	-0.14
265.125	0.01
265.34	0
265.555	0.14
265.77	-0.03
265.986	-0.04
266.201	0.05
266.416	0.13
266.631	-0.05
266.846	-0.02
267.061	0.02
267.276	0.06
267.491	-0.17
267.706	0.01
267.921	0
268.136	-0.02
268.351	0
268.566	-0.11
268.781	0.06
268.996	0.02
269.211	0.01
269.426	-0.09
269.641	-0.04
269.856	0
270.071	-0.05
270.285	-0.05
270.5	0.07
270.715	0.04
270.93	-0.01
271.145	-0.01
271.359	0.07
271.574	0.02
271.789	-0.02
272.004	0.01
272.218	-0.02
272.433	0.03
272.648	-0.03
272.862	-0.01
273.077	-0.04
273.292	-0.03
273.506	-0.06
273.721	-0.02
273.936	0.02
274.15	0.05
274.365	0.03
274.579	0.01
274.794	0.06
275.008	0.09
275.223	-0.06
275.437	0.02
275.652	0.03
275.866	0.03
276.081	-0.03
276.295	0.06
276.509	0.03
276.724	-0.01
276.938	-0.01
277.153	0.01
277.367	0.1
277.581	-0.06
277.796	-0.08
278.01	-0.08
278.224	0.06
278.438	0.14
278.653	-0.07
278.867	0.01
279.081	0.05
279.295	-0.04
279.51	-0
279.724	-0.07
279.938	0.07
280.152	-0.03
280.366	-0.05
280.58	0.04
280.794	0.08
281.008	0.03
281.222	0.04
281.437	0.05
281.651	-0.02
281.865	0.08
282.079	-0.05
282.293	-0.12
282.507	-0.06
282.721	-0.04
282.935	-0.01
283.148	-0.11
283.362	-0.02
283.576	-0.08
283.79	0.03
284.004	-0.06
284.218	0.03
284.432	-0.04
284.646	-0.01
284.859	-0
285.073	-0.05
285.287	0.02
285.501	-0.01
285.714	-0.04
285.928	0.02
286.142	0.03
286.356	-0.02
286.569	-0.04
286.783	0.04
286.997	0.02
287.21	0.01
287.424	0.02
287.637	-0.01
287.851	0.01
288.065	0.01
288.278	-0.01
288.492	-0.01
288.705	-0.01
288.919	0.03
289.132	-0.05
289.346	0.02
289.559	-0.07
289.773	-0.06
289.986	0.01
290.2	-0.01
290.413	0.04
290.626	-0.02
290.84	-0.05
291.053	0.03
291.267	0.08
291.48	0.01
291.693	-0.07
291.906	-0.05
292.12	-0.03
292.333	-0.03
292.546	-0.02
292.76	0.07
292.973	-0
293.186	0.03
293.399	-0.04
293.612	0.02
293.826	-0.03
294.039	-0.04
294.252	0.01
294.465	0.02
294.678	0.04
294.891	-0.01
295.104	-0.06
295.317	0.02
295.53	0.04
295.743	-0.02
295.956	-0.02
296.169	0.08
296.382	0.05
296.595	0.01
296.808	-0.06
297.021	0.02
297.234	0.03
297.447	0
297.66	0.02
297.873	0.05
298.086	0.05
298.299	-0.03
298.511	-0.04
298.724	0.03
298.937	-0.06
299.15	-0.04
299.363	0.02
299.575	-0.02
299.788	-0.01
300.001	0.03
300.213	-0.03
300.426	0.01
300.639	-0.07
300.852	-0.03
301.064	0.04
301.277	0.06
301.489	0.05
301.702	0.06
301.915	-0.02
302.127	-0.01
302.34	0.03
302.552	0.05
302.765	-0.01
302.977	0.07
303.19	-0.04
303.402	0.01
303.615	-0.04
303.827	0
304.04	0.01
304.252	0.01
304.464	-0.04
304.677	0.08
304.889	-0.01
305.102	-0.06
305.314	-0.06
305.526	0.02
305.739	0
305.951	-0.01
306.163	-0.06
306.375	0.08
306.588	-0.02
306.8	-0.01
307.012	-0.06
307.224	0.02
307.436	0.07
307.649	-0.1
307.861	0.02
308.073	0.05
308.285	-0.01
308.497	-0.04
308.709	0.01
308.921	0.03
309.133	0.04
309.346	-0.01
309.558	-0.01
309.77	0.05
309.982	-0.07
310.194	0.04
310.406	-0.02
310.617	0.07
310.829	0.03
311.041	-0.02
311.253	-0.05
311.465	-0.01
311.677	0.03
311.889	-0.04
312.101	-0.02
312.313	0.07
312.524	0.01
312.736	-0.08
312.948	-0.02
313.16	0.11
313.372	0.03
313.583	0
313.795	-0.04
314.007	-0.06
314.218	0.04
314.43	0.04
314.642	-0.03
314.853	-0.06
315.065	0.02
315.277	-0
315.488	0
315.7	0.06
315.912	-0.01
316.123	-0.03
316.335	0.01
316.546	0.09
316.758	0.01
316.969	-0.05
317.181	0.03
317.392	-0.02
317.604	0.06
317.815	-0.05
318.026	-0.01
318.238	-0.05
318.449	0.01
318.661	-0.06
318.872	-0.05
319.083	-0.07
319.295	0.03
319.506	-0.02
319.717	0.01
319.929	0.04
320.14	0.05
320.351	-0.01
320.562	-0.03
320.774	-0.03
320.985	-0
321.196	-0.06
321.407	-0.08
321.618	0.03
321.829	0
322.041	0.03
322.252	-0.01
322.463	0.03
322.674	0.01
322.885	-0.03
323.096	-0.06
323.307	-0.01
323.518	-0.01
323.729	-0.02
323.94	-0.04
324.151	-0.01
324.362	-0
324.573	0.01
324.784	-0.04
324.995	0.04
325.206	0.02
325.417	-0.01
325.628	-0.03
325.838	0.01
326.049	-0.01
326.26	-0.01
326.471	-0.05
326.682	0.01
326.892	0
327.103	-0.11
327.314	-0.05
327.525	0.03
327.735	-0.01
327.946	-0.04
328.157	-0.02
328.368	0.02
328.578	0.02
328.789	-0.02
328.999	-0.02
329.21	-0.01
329.421	-0.01
329.631	-0.03
329.842	-0.04
330.052	0.04
330.263	0.04
330.473	0
330.684	0.02
330.894	0.01
331.105	-0.02
331.315	0.01
331.526	-0.08
331.736	0.05
331.947	-0.03
332.157	0.02
332.367	-0.02
332.578	0.04
332.788	0.08
332.999	0
333.209	0.06
333.419	-0.06
333.629	0.01
333.84	0.03
334.05	-0.02
334.26	0.03
334.47	0.02
334.681	0.03
334.891	-0.03
335.101	0.07
335.311	0.1
335.521	-0.04
335.732	-0.08
335.942	0.08
336.152	0.02
336.362	-0.01
336.572	-0.01
336.782	0.03
336.992	0.01
337.202	-0.02
337.412	-0.01
337.622	0.05
337.832	0.02
338.042	-0.02
338.252	-0.04
338.462	-0
338.672	-0.02
338.882	-0.03
339.092	-0.02
339.302	0.06
339.511	0.03
339.721	-0
339.931	-0.02
340.141	0.04
340.351	0.04
340.561	0.02
340.77	0.03
340.98	-0.01
341.19	0.05
341.4	0.01
341.609	-0.03
341.819	-0.03
342.029	-0.06
342.238	0
342.448	-0.06
342.658	-0.03
342.867	0
343.077	-0.03
343.286	0.05
343.496	0.04
343.706	0.04
343.915	-0.05
344.125	0
344.334	-0
344.544	-0.02
344.753	-0.01
344.963	-0.01
345.172	-0.02
345.381	-0
345.591	-0.04
345.8	0.02
346.01	0.04
346.219	0.07
346.428	-0.14
346.638	-0.05
346.847	0.03
347.056	0.05
347.266	-0.02
347.475	0
347.684	0.01
347.893	-0.02
348.103	0.01
348.312	-0.01
348.521	-0.03
348.73	-0
348.94	0
349.149	0.01
349.358	-0.01
349.567	-0.06
349.776	-0.06
349.985	-0
350.194	0.01
350.403	0.05
350.612	-0.04
350.821	-0.04
351.03	0.01
351.239	-0.03
351.448	-0
351.657	-0.05
351.866	0.05
352.075	-0.03
352.284	-0
352.493	0
352.702	0.06
352.911	0.04
353.12	-0.01
353.329	-0.03
353.538	0.04
353.746	-0.01
353.955	-0.04
354.164	0.06
354.373	-0.03
354.582	0.02
354.79	0.02
354.999	0.08
355.208	-0.03
355.416	0.02
355.625	-0.04
355.834	-0.05
356.042	0.01
356.251	-0.02
356.46	-0.03
356.668	0.03
356.877	0.09
357.085	0.05
357.294	-0.09
357.503	0.01
357.711	-0.01
357.92	0.11
358.128	0.03
358.337	-0.03
358.545	0
358.754	-0
358.962	0.01
359.17	0
359.379	0.01
359.587	0.04
359.796	0.02
360.004	0.07
360.212	0
360.421	0.06
360.629	-0.01
360.837	-0.04
361.046	0.06
361.254	0.07
361.462	-0
361.67	0.02
361.879	0.01
362.087	0.03
362.295	-0.01
362.503	-0.03
362.711	-0.02
362.92	-0.03
363.128	-0.05
363.336	-0.02
363.544	-0.06
363.752	0.01
363.96	0
364.168	-0.02
364.376	0.02
364.584	-0.03
364.792	-0.01
365	0
365.208	0.03
365.416	0.02
365.624	0.05
365.832	-0.01
366.04	0.06
366.248	0.02
366.456	0.01
366.664	0.03
366.872	0.03
367.079	0.01
367.287	-0.02
367.495	0.01
367.703	0.01
367.911	0.02
368.118	0.03
368.326	0
368.534	-0.06
368.742	0.08
368.949	-0.06
369.157	-0.05
369.365	0.08
369.572	0
369.78	-0.03
369.988	0.09
370.195	0.04
370.403	0.08
370.61	0.06
370.818	0.05
371.026	0.12
371.233	0.02
371.441	0.07
371.648	0.03
371.856	0.08
372.063	0.13
372.271	0.09
372.478	0.04
372.685	0.08
372.893	0.09
373.1	0.06
373.308	0.05
373.515	0.17
373.722	0.11
373.93	0.14
374.137	0.15
374.344	0.25
374.552	0.23
374.759	0.2
374.966	0.15
375.173	0.16
375.381	0.23
375.588	0.19
375.795	0.13
376.002	0.19
376.209	0.18
376.417	0.19
376.624	0.25
376.831	0.24
377.038	0.23
377.245	0.19
377.452	0.27
377.659	0.35
377.866	0.29
378.073	0.34
378.28	0.34
378.487	0.4
378.694	0.42
378.901	0.37
379.108	0.4
379.315	0.49
379.522	0.54
379.729	0.49
379.936	0.48
380.143	0.55
380.35	0.57
380.557	0.54
380.763	0.54
380.97	0.56
381.177	0.62
381.384	0.65
381.591	0.65
381.797	0.63
382.004	0.68
382.211	0.66
382.418	0.63
382.624	0.69
382.831	0.71
383.038	0.61
383.244	0.6
383.451	0.62
383.658	0.65
383.864	0.58
384.071	0.5
384.277	0.61
384.484	0.5
384.69	0.55
384.897	0.47
385.103	0.47
385.31	0.44
385.516	0.43
385.723	0.42
385.929	0.42
386.136	0.4
386.342	0.38
386.549	0.29
386.755	0.38
386.961	0.36
387.168	0.3
387.374	0.32
387.58	0.29
387.787	0.27
387.993	0.28
388.199	0.25
388.406	0.24
388.612	0.21
388.818	0.2
389.024	0.21
389.231	0.19
389.437	0.26
389.643	0.21
389.849	0.2
390.055	0.21
390.261	0.22
390.467	0.18
390.674	0.17
390.88	0.14
391.086	0.21
391.292	0.14
391.498	0.19
391.704	0.19
391.91	0.15
392.116	0.13
392.322	0.06
392.528	0.14
392.734	0.1
392.94	0.14
393.146	0.11
393.352	0.11
393.557	0.11
393.763	0.13
393.969	0.13
394.175	0.1
394.381	0.15
394.587	0.02
394.792	0.05
394.998	0.11
395.204	0.1
395.41	0.1
395.615	0.13
395.821	0.12
396.027	0.09
396.233	0.05
396.438	0.09
396.644	0.11
396.85	0.05
397.055	0.04
397.261	0.06
397.466	0.17
397.672	0.03
397.878	0.1
398.083	0.07
398.289	0
398.494	0.06
398.7	0.07
398.905	0.02
399.111	0.13
399.316	0.03
399.522	0.06
399.727	0.03
399.932	0.03
400.138	0
400.343	0.06
400.549	0.04
400.754	0.04
400.959	0.04
401.165	0
401.37	0.03
401.575	0.11
401.78	0.01
401.986	0.02
402.191	0.01
402.396	-0.02
402.601	0.07
402.807	0.06
403.012	0.02
403.217	0.05
403.422	0.03
403.627	0
403.832	0.01
404.037	0.08
404.243	0.04
404.448	0.03
404.653	0.01
404.858	0.05
405.063	0.08
405.268	-0.04
405.473	0.01
405.678	0.01
405.883	0.17
406.088	0.06
406.293	-0.01
406.498	0.02
406.703	0.05
406.907	0.05
407.112	-0.02
407.317	0.01
407.522	0.06
407.727	-0.03
407.932	0.03
408.136	0.1
408.341	0.07
408.546	-0.02
408.751	0.01
408.956	-0.03
409.16	0.02
409.365	0.03
409.57	0
409.774	-0.01
409.979	0.03
410.184	0.05
410.388	-0.02
410.593	0.07
410.798	0.01
411.002	0.01
411.207	0.01
411.411	0.04
411.616	-0.06
411.82	-0.01
412.025	-0.01
412.229	-0.02
412.434	0.05
412.638	-0
412.843	-0.02
413.047	-0.01
413.252	-0.02
413.456	0.01
413.66	0.03
413.865	-0.02
414.069	0.1
414.273	-0.03
414.478	0.01
414.682	-0.01
414.886	0.02
415.091	-0.05
415.295	-0.05
415.499	0.04
415.703	-0.03
415.908	-0.02
416.112	-0.08
416.316	0.07
416.52	-0.03
416.724	-0.07
416.929	-0.01
417.133	0.09
417.337	0.04
417.541	-0.04
417.745	-0.02
417.949	0.02
418.153	-0
418.357	-0.06
418.561	0.1
418.765	-0.01
418.969	0.11
419.173	-0.01
419.377	-0.04
419.581	0.08
419.785	-0.03
419.989	-0.06
420.193	-0.04
420.397	-0.02
420.601	0.04
420.804	0.02
421.008	-0.03
421.212	0.02
421.416	0.08
421.62	-0.01
421.823	-0.01
422.027	0.07
422.231	-0.01
422.435	0.02
422.638	0.01
422.842	-0.06
423.046	-0.03
423.249	0.04
423.453	0.01
423.657	0.03
423.86	-0.02
424.064	-0
424.268	0.09
424.471	0
424.675	0.11
424.878	0.09
425.082	-0.03
425.285	0.07
425.489	-0.01
425.692	0.02
425.896	-0.01
426.099	0.04
426.303	-0.03
426.506	-0.06
426.71	0.01
426.913	0.06
427.116	0.04
427.32	-0.04
427.523	0.04
427.726	0.12
427.93	-0.02
428.133	-0.04
428.336	-0.05
428.54	-0.03
428.743	0.03
428.946	0.07
429.149	0.01
429.353	0.04
429.556	0.01
429.759	-0.01
429.962	-0.01
430.165	-0.01
430.368	-0.04
430.571	-0.01
430.775	0.07
430.978	0
431.181	0.02
431.384	0.04
431.587	0
431.79	0.02
431.993	-0.08
432.196	0.03
432.399	0.02
432.602	0.12
432.805	-0.07
433.008	-0.05
433.211	-0.05
433.414	0.06
433.616	0.05
433.819	0.02
434.022	-0.09
434.225	0.09
434.428	0.03
434.631	0.11
434.833	-0
435.036	0.01
435.239	0.09
435.442	0.06
435.645	0
435.847	0.03
436.05	0.04
436.253	-0.03
436.455	-0.03
436.658	0.01
436.861	0.09
437.063	-0.03
437.266	0.03
437.468	0.03
437.671	0.16
437.874	0.03
438.076	-0.03
438.279	-0.02
438.481	0.05
438.684	-0.02
438.886	0.05
439.089	-0.03
439.291	0
439.494	0.08
439.696	-0.03
439.899	0.03
440.101	0.07
440.303	-0.02
440.506	0.08
440.708	0.02
440.91	0.1
441.113	-0.03
441.315	0.04
441.517	-0.04
441.72	0.02
441.922	0.06
442.124	-0.04
442.326	0.08
442.529	0.06
442.731	-0.03
442.933	0.12
443.135	0
443.337	0
443.539	-0.02
443.742	-0
443.944	0.05
444.146	0.05
444.348	-0.01
444.55	0.03
444.752	0.07
444.954	-0
445.156	0.03
445.358	-0.01
445.56	0.07
445.762	0.05
445.964	0.05
446.166	0.02
446.368	-0
446.57	0.09
446.772	0.05
446.974	0.04
447.175	0.09
447.377	0.02
447.579	0.06
447.781	0
447.983	0.12
448.184	0.07
448.386	0.07
448.588	-0.05
448.79	0.05
448.991	0.05
449.193	0.07
449.395	0.06
449.597	0.12
449.798	0.05
450	0.07
450.202	0.07
450.403	0.08
450.605	0.13
450.806	0.03
451.008	-0.05
451.21	0.08
451.411	0.04
451.613	0.01
451.814	0.11
452.016	0.13
452.217	0.06
452.419	0.1
452.62	0.05
452.821	0.12
453.023	0.1
453.224	0.11
453.426	0.04
453.627	0.06
453.828	0.04
454.03	0.02
454.231	0.08
454.432	0.03
454.634	0.12
454.835	0.01
455.036	-0.03
455.238	0.07
455.439	0.1
455.64	-0.03
455.841	0.02
456.042	0.12
456.244	0.08
456.445	0.02
456.646	-0.01
456.847	0.04
457.048	0.04
457.249	0.11
457.45	0.21
457.651	-0.01
457.852	0.07
458.054	0.01
458.255	-0.01
458.456	0.1
458.657	0.07
458.858	-0.01
459.058	0.02
459.259	0.08
459.46	-0
459.661	0.02
459.862	0.11
460.063	0.04
460.264	0.11
460.465	-0.04
460.666	0.16
460.866	0.04
461.067	0
461.268	0.01
461.469	0.01
461.67	-0.01
461.87	-0.01
462.071	0.05
462.272	-0.05
462.473	0.04
462.673	0.05
462.874	-0.04
463.075	0.01
463.275	-0.02
463.476	0.03
463.676	0.06
463.877	0.04
464.078	-0.01
464.278	0.04
464.479	0.01
464.679	-0.03
464.88	-0.01
465.08	0.08
465.281	-0.01
465.481	0.03
465.682	0.03
465.882	0.03
466.083	-0
466.283	0
466.483	0.05
466.684	-0.04
466.884	-0.01
467.085	-0
467.285	0.04
467.485	-0.06
467.686	0
467.886	-0.02
468.086	-0.01
468.286	0.04
468.487	0.01
468.687	-0.05
468.887	-0.01
469.087	0.05
469.287	-0.02
469.488	-0.04
469.688	0.02
469.888	0.04
470.088	0.05
470.288	0.04
470.488	0.08
470.688	-0.03
470.888	-0.02
471.088	-0.03
471.288	0.05
471.488	0.03
471.688	0.04
471.888	-0.04
472.088	0.01
472.288	0.06
472.488	0.01
472.688	-0.01
472.888	0.02
473.088	0
473.288	0.06
473.488	-0
473.688	0.04
473.887	0.03
474.087	-0
474.287	0.03
474.487	-0.01
474.687	0.01
474.886	-0.03
475.086	-0.04
475.286	0.03
475.486	0.05
475.685	0.02
475.885	0.01
476.085	-0.01
476.284	0.04
476.484	-0.02
476.684	0.03
476.883	0.08
477.083	-0
477.282	-0.03
477.482	0.03
477.681	0.06
477.881	0.03
478.08	-0.04
478.28	-0.03
478.479	0.05
478.679	0.07
478.878	-0.01
479.078	-0.03
479.277	-0.01
479.477	-0.02
479.676	0.02
479.875	0.01
480.075	-0.05
480.274	-0.01
480.473	0.03
480.673	-0.02
480.872	0.06
481.071	0.02
481.271	-0
481.47	0
481.669	0.02
481.868	-0.03
482.067	-0.03
482.267	-0.02
482.466	-0.02
482.665	-0.04
482.864	-0.06
483.063	-0.04
483.262	-0
483.461	0.05
483.661	-0
483.86	-0.02
484.059	-0.01
484.258	-0.01
484.457	-0.02
484.656	0.01
484.855	0.02
485.054	-0.02
485.253	-0.05
485.452	-0.03
485.651	-0.02
485.849	-0.02
486.048	-0
486.247	-0
486.446	-0.02
486.645	-0.02
486.844	-0.02
487.043	-0.02
487.241	0.01
487.44	-0.03
487.639	-0.01
487.838	0.01
488.037	0
488.235	0.05
488.434	-0
488.633	-0.03
488.831	0.01
489.03	0.03
489.229	0.01
489.427	-0
489.626	0.03
489.825	0.05
490.023	-0
490.222	-0.02
490.42	0.01
490.619	0.01
490.817	-0
491.016	-0.01
491.214	0.03
491.413	-0.02
491.611	-0.03
491.81	0.01
492.008	0.01
492.207	0.03
492.405	-0.01
492.604	-0.03
492.802	-0.01
493	-0
493.199	-0.01
493.397	-0
493.595	-0
493.794	-0.03
493.992	0.04
494.19	-0.01
494.388	0.03
494.587	-0.02
494.785	0.01
494.983	-0.04
495.181	-0.01
495.379	-0
495.578	-0.01
495.776	0.02
495.974	-0.01
496.172	-0
496.37	-0
496.568	-0.05
496.766	-0.01
496.964	0.02
497.162	0
497.36	-0.04
497.558	-0
497.756	0.03
497.954	0.02
498.152	-0.03
498.35	-0.02
498.548	-0
498.746	0
498.944	-0.02
499.142	-0.04
499.34	-0.05
499.538	-0
499.736	-0.03
499.933	0.03
500.131	0.03
500.329	0.01
500.527	0.03
500.725	0.03
500.922	0.02
501.12	-0
501.318	0.01
501.516	-0.01
501.713	0.01
501.911	-0.02
502.109	-0.02
502.306	-0.01
502.504	0
502.701	-0.01
502.899	-0.02
503.097	0.03
503.294	0.01
503.492	-0.01
503.689	0.01
503.887	0
504.084	0.03
504.282	-0
504.479	-0.02
504.677	-0
504.874	-0.03
505.072	-0.02
505.269	0.01
505.466	-0.01
505.664	0.02
505.861	-0.04
506.059	-0.01
506.256	0.01
506.453	-0.04
506.651	0.02
506.848	0.01
507.045	0
507.242	0
507.44	-0.03
507.637	-0
507.834	-0.02
508.031	0.04
508.229	-0.01
508.426	-0.01
508.623	0.03
508.82	-0.02
509.017	-0.01
509.214	-0.03
509.411	-0.01
509.608	-0.03
509.805	-0.01
510.003	-0.01
510.2	0.01
510.397	0.04
510.594	-0
510.791	-0.03
510.988	-0.01
511.184	0.01
511.381	-0
511.578	-0.01
511.775	0.01
511.972	-0.01
512.169	-0.03
512.366	-0.02
512.563	0.01
512.76	-0.01
512.956	0.01
513.153	0.01
513.35	0.04
513.547	-0.02
513.744	-0.01
513.94	-0.02
514.137	0.01
514.334	0.01
514.53	-0
514.727	0
514.924	0.04
515.12	-0.03
515.317	-0.03
515.514	0
515.71	-0.03
515.907	-0
516.103	-0.01
516.3	0.01
516.497	0.04
516.693	0.03
516.89	-0.01
517.086	-0.03
517.283	0.03
517.479	0
517.676	-0
517.872	0
518.068	-0.02
518.265	-0.03
518.461	-0.03
518.658	-0.03
518.854	-0
519.05	-0.03
519.247	-0.02
519.443	0.01
519.639	0.01
519.836	-0.01
520.032	-0.02
520.228	0
520.424	0.05
520.621	-0.01
520.817	-0.01
521.013	0.01
521.209	0.01
521.405	0.07
521.601	-0
521.798	-0
521.994	0.03
522.19	-0.03
522.386	-0.04
522.582	-0.01
522.778	0.03
522.974	-0.02
523.17	0.01
523.366	-0
523.562	0.01
523.758	0.02
523.954	-0.03
524.15	-0.01
524.346	0.02
524.542	-0.02
524.738	-0.02
524.934	-0.01
525.129	0.01
525.325	-0.01
525.521	-0
525.717	0.01
525.913	0.01
526.109	0.01
526.304	-0.02
526.5	-0.01
526.696	0.02
526.892	0.01
527.087	-0.01
527.283	-0.02
527.479	0.03
527.674	-0.03
527.87	-0.02
528.066	-0.01
528.261	0.02
528.457	0.01
528.653	-0.03
528.848	-0.02
529.044	-0
529.239	-0
529.435	0.03
529.63	0.02
529.826	0.02
530.021	-0
530.217	0.01
530.412	-0.03
530.608	-0.02
530.803	-0
530.999	-0.03
531.194	-0.05
531.389	0.01
531.585	-0.03
531.78	-0.03
531.975	-0.02
532.171	0.04
532.366	0.01
532.561	-0.02
532.757	-0.03
532.952	-0.01
533.147	0.01
533.342	-0.01
533.538	0
533.733	0.02
533.928	0.01
534.123	-0.02
534.318	-0.04
534.513	-0.02
534.709	0.01
534.904	-0.04
535.099	-0.03
535.294	0
535.489	0
535.684	-0.01
535.879	-0.03
536.074	0.01
536.269	-0.02
536.464	0.01
536.659	-0.01
536.854	-0.01
537.049	-0.01
537.244	0.02
537.439	-0.01
537.634	0
537.828	-0
538.023	-0
538.218	-0.03
538.413	0.01
538.608	-0.03
538.803	0.01
538.997	-0.05
539.192	0.01
539.387	0.01
539.582	-0.01
539.776	0
539.971	-0
540.166	-0.02
540.36	-0.02
540.555	-0.02
540.75	-0.01
540.944	-0.02
541.139	-0.04
541.334	-0
541.528	0.01
541.723	0.01
541.917	-0.02
542.112	-0.03
542.306	-0
542.501	-0.02
542.695	-0.01
542.89	-0.02
543.084	-0
543.279	-0.01
543.473	0
543.668	-0.01
543.862	-0.01
544.056	0.02
544.251	0.01
544.445	-0
544.64	-0.02
544.834	-0.03
545.028	0
545.222	-0
545.417	0
545.611	-0.02
545.805	-0
546	-0.02
546.194	-0
546.388	-0.01
546.582	0.02
546.776	0
546.97	0
547.165	0.01
547.359	-0
547.553	-0.01
547.747	-0.01
547.941	0.02
548.135	0.01
548.329	0.01
548.523	0.01
548.717	-0
548.911	-0.01
549.105	0.01
549.299	0
549.493	0.01
549.687	0.01
549.881	0.01
550.075	-0
550.269	-0.04
550.463	0.01
550.657	-0.02
550.85	-0.01
551.044	-0.04
551.238	0.02
551.432	-0.02
551.626	-0.01
551.82	-0
552.013	-0.03
552.207	0.01
552.401	0.01
552.594	0
552.788	-0
552.982	-0
553.176	-0.02
553.369	0.01
553.563	0.02
553.756	-0.05
553.95	-0.02
554.144	0.01
554.337	0.01
554.531	0.01
554.724	0.02
554.918	-0.02
555.111	-0.01
555.305	-0.01
555.498	0.02
555.692	0.02
555.885	0
556.079	-0.01
556.272	-0.02
556.466	0.01
556.659	0.02
556.852	-0.02
557.046	-0.02
557.239	0.02
557.432	-0.02
557.626	-0.02
557.819	0.01
558.012	0.01
558.206	0.02
558.399	0
558.592	0
558.785	-0.02
558.979	0.01
559.172	0.01
559.365	0.03
559.558	-0.01
559.751	-0.01
559.944	-0
560.138	-0
560.331	-0.01
560.524	-0
560.717	-0.01
560.91	0.01
561.103	0.02
561.296	0.02
561.489	0.01
561.682	-0
561.875	0.04
562.068	-0
562.261	0
562.454	0.02
562.647	0.03
562.84	-0
563.032	-0.01
563.225	-0.01
563.418	-0.03
563.611	-0.03
563.804	-0.01
563.997	-0.04
564.19	-0.03
564.382	-0.02
564.575	-0.01
564.768	-0
564.961	-0.01
565.153	-0
565.346	0.02
565.539	0.02
565.731	0.01
565.924	0.02
566.117	0
566.309	-0.01
566.502	-0.01
566.695	-0
566.887	-0.01
567.08	-0.02
567.272	-0.03
567.465	-0.01
567.657	0
567.85	0.01
568.042	0.01
568.235	0.04
568.427	-0.01
568.62	-0.01
568.812	0
569.005	0
569.197	-0.03
569.389	-0.01
569.582	-0.01
569.774	-0.01
569.966	-0.04
570.159	-0.01
570.351	-0.01
570.543	-0.02
570.736	-0.01
570.928	-0.03
571.12	-0
571.312	-0.01
571.505	-0.04
571.697	0.04
571.889	-0.02
572.081	-0
572.273	-0.04
572.465	0.04
572.658	-0.01
572.85	0
573.042	-0.01
573.234	-0.01
573.426	0.06
573.618	-0.04
573.81	0.01
574.002	0.02
574.194	0.02
574.386	-0.05
574.578	-0.07
574.77	-0.03
574.962	-0.02
575.154	-0.04
575.346	-0.02
575.538	0.01
575.729	-0.05
575.921	-0.02
576.113	-0.03
576.305	0.02
576.497	-0.03
576.689	-0
576.88	-0
577.072	0.04
577.264	0.01
577.456	-0.02
577.647	-0.05
577.839	-0.01
578.031	0.04
578.223	-0.05
578.414	-0.02
578.606	0.01
578.798	-0.01
578.989	-0.04
579.181	-0.02
579.372	-0.02
579.564	-0.01
579.755	0.01
579.947	0.01
580.139	0.02
580.33	-0.05
580.522	-0.02
580.713	-0.05
580.905	-0
581.096	0
581.287	-0.02
581.479	-0.02
581.67	-0
581.862	-0.01
582.053	-0.01
582.244	-0.06
582.436	-0.03
582.627	-0.02
582.818	-0.02
583.01	-0.03
583.201	0.03
583.392	0.02
583.583	0
583.775	-0.01
583.966	-0.03
584.157	-0.02
584.348	-0.03
584.54	-0.03
584.731	-0.01
584.922	0
585.113	-0.02
585.304	0.03
585.495	0.03
585.686	0.02
585.877	-0.01
586.068	-0
586.259	0.02
586.45	0
586.641	-0.02
586.832	-0.06
587.023	-0.01
587.214	-0.01
587.405	0.01
587.596	-0.01
587.787	0.01
587.978	-0.01
588.169	-0.01
588.36	-0.02
588.551	0.01
588.742	-0.01
588.932	-0.01
589.123	-0.02
589.314	0.01
589.505	0.02
589.696	0.02
589.886	-0.04
590.077	-0.04
590.268	0
590.458	-0.03
590.649	-0.02
590.84	0.02
591.03	-0.02
591.221	-0.05
591.412	-0.03
591.602	-0
591.793	0.02
591.984	-0.06
592.174	-0.01
592.365	0.05
592.555	-0.03
592.746	-0.02
592.936	-0
593.127	0
593.317	0.01
593.508	-0.04
593.698	-0.02
593.889	-0.01
594.079	0.01
594.269	-0.05
594.46	-0.01
594.65	0.01
594.84	0
595.031	-0.04
595.221	-0.02
595.411	-0.05
595.602	0.02
595.792	-0.02
595.982	-0
596.172	0.05
596.363	-0.01
596.553	0.01
596.743	0.02
596.933	0.02
597.123	0.01
597.314	-0.03
597.504	-0.02
597.694	0.02
597.884	0.02
598.074	-0.04
598.264	-0.02
598.454	0
598.644	-0.03
598.834	-0.02
599.024	-0.08
599.214	-0.01
599.404	0.04
599.594	-0.03
599.784	-0.06
599.974	0.03
600.164	0.03
600.354	-0.04
600.544	-0.04
600.734	0.01
600.924	0.02
601.114	-0.04
601.303	-0.02
601.493	0
601.683	-0.01
601.873	-0.03
602.063	-0.03
602.252	0.03
602.442	-0.09
602.632	-0.03
602.821	-0.04
603.011	0.01
603.201	-0
603.39	-0.01
603.58	-0.03
603.77	0.01
603.959	0.04
604.149	0.01
604.339	-0.02
604.528	0.03
604.718	0
604.907	-0.03
605.097	-0.02
605.286	0.03
605.476	0
605.665	0.02
605.855	0.01
606.044	0.02
606.234	-0.01
606.423	-0.02
606.612	-0.04
606.802	0.01
606.991	0.02
607.181	0.02
607.37	-0.05
607.559	-0.02
607.749	-0.05
607.938	0.01
608.127	0
608.316	-0.01
608.506	0.03
608.695	-0.01
608.884	-0.06
609.073	-0.03
609.263	0
609.452	0.01
609.641	-0.01
609.83	-0.04
610.019	-0.02
610.208	-0.05
610.397	0
610.586	-0.02
610.775	0.01
610.965	0
611.154	-0.04
611.343	0
611.532	0.01
611.721	-0.06
611.91	-0.07
612.099	0.01
612.287	-0.02
612.476	-0.05
612.665	-0.01
612.854	-0.05
613.043	0.02
613.232	-0.02
613.421	-0.06
613.61	-0.01
613.798	-0.02
613.987	0.05
614.176	0
614.365	0.01
614.554	-0.01
614.742	0.01
614.931	-0.02
615.12	0.02
615.309	-0
615.497	0.04
615.686	-0.03
615.875	0.01
616.063	0.02
616.252	-0.01
616.44	-0.02
616.629	0.01
616.818	0.03
617.006	-0.03
617.195	-0.02
617.383	0
617.572	-0.02
617.76	-0.02
617.949	-0.03
618.137	-0
618.326	-0.01
618.514	-0.05
618.703	-0.01
618.891	0.02
619.079	-0.05
619.268	0.02
619.456	0.01
619.644	0.04
619.833	-0.04
620.021	-0.01
620.209	-0.06
620.398	0.01
620.586	0.01
620.774	0.04
620.962	-0.01
621.151	0.05
621.339	-0
621.527	-0.04
621.715	-0.06
621.903	-0.05
622.092	-0.07
622.28	-0.02
622.468	-0.02
622.656	-0.03
622.844	0.03
623.032	-0.02
623.22	-0.08
623.408	0.04
623.596	-0.01
623.784	0.01
623.972	-0.08
624.16	-0.02
624.348	0.06
624.536	-0.01
624.724	-0.05
624.912	0.04
625.1	0.01
625.288	-0.02
625.476	-0.04
625.664	0.02
625.851	-0.03
626.039	-0.01
626.227	-0.01
626.415	-0.01
626.603	-0.04
626.79	-0.01
626.978	-0.01
627.166	0.02
627.354	-0
627.541	-0.01
627.729	-0.06
627.917	0
628.104	0.04
628.292	0.01
628.48	-0
628.667	0
628.855	0.01
629.042	0.02
629.23	-0.02
629.418	-0.01
629.605	0.01
629.793	-0.03
629.98	-0.02
630.168	-0.02
630.355	0
630.543	0
630.73	-0.02
630.917	0.03
631.105	0.07
631.292	-0.03
631.48	-0.01
631.667	0.04
631.854	0.02
632.042	-0.02
632.229	-0.05
632.416	-0
632.604	0
632.791	-0.02
632.978	0.01
633.165	0.02
633.353	0.08
633.54	0.01
633.727	-0.07
633.914	-0.03
634.101	-0.05
634.289	0.03
634.476	-0.01
634.663	-0.02
634.85	-0
635.037	-0.05
635.224	-0.04
635.411	0.03
635.598	0.04
635.785	-0.01
635.972	-0
636.159	0.06
636.346	-0.01
636.533	0.01
636.72	0
636.907	-0
637.094	0.03
637.281	0
637.468	0.04
637.655	-0.01
637.842	0.01
638.029	-0.01
638.215	0.05
638.402	0.03
638.589	-0.04
638.776	0
638.963	0.01
639.149	0.02
639.336	0.07
639.523	0.02
639.709	-0.02
639.896	0.02
640.083	0.06
640.27	0.03
640.456	-0.02
640.643	0.01
640.829	-0.03
641.016	-0.01
641.203	-0.02
641.389	0.04
641.576	0.06
641.762	0.04
641.949	-0.04
642.135	0.02
642.322	0.03
642.508	-0.03
642.695	0.02
642.881	-0.01
643.068	-0.01
643.254	0.02
643.441	0.08
643.627	0.02
643.813	-0.01
644	0.09
644.186	0.01
644.372	0.04
644.559	0.07
644.745	0.05
644.931	0.01
645.118	0.03
645.304	0.03
645.49	0.01
645.676	0.02
645.862	0.03
646.049	0.07
646.235	0
646.421	0.1
646.607	0.08
646.793	0.02
646.979	0.02
647.165	0.05
647.352	0.04
647.538	0.05
647.724	0.06
647.91	0.03
648.096	0.07
648.282	0.09
648.468	0.05
648.654	0.05
648.84	0.04
649.026	0.07
649.212	0.05
649.397	0.04
649.583	0.03
649.769	0.05
649.955	0.07
650.141	0.1
650.327	0.1
650.513	0.02
650.698	0.08
650.884	-0.02
651.07	0.04
651.256	0.08
651.442	0.03
651.627	0.06
651.813	0.05
651.999	0.04
652.184	0.08
652.37	0.07
652.556	0.05
652.741	0.12
652.927	0.01
653.113	0.04
653.298	0.09
653.484	0.06
653.669	0.04
653.855	0.07
654.04	0.08
654.226	0.05
654.412	0.05
654.597	0.05
654.782	0.08
654.968	0.08
655.153	0.11
655.339	0.06
655.524	0.02
655.71	0.12
655.895	0.07
656.08	0.07
656.266	0.16
656.451	0.11
656.636	0.02
656.822	0.08
657.007	0.01
657.192	0.03
657.378	0.04
657.563	0.11
657.748	0.09
657.933	0.14
658.118	0.07
658.304	0.07
658.489	0.12
658.674	0.1
658.859	0.07
659.044	0.11
659.229	0.1
659.414	0.08
659.599	0.09
659.785	0.07
659.97	0.08
660.155	0.1
660.34	0.06
660.525	0.09
660.71	0.08
660.895	0.14
661.08	0.09
661.264	0.07
661.449	0.13
661.634	0.13
661.819	0.13
662.004	0.09
662.189	-0
662.374	0.05
662.559	0.08
662.743	-0.01
662.928	0.1
663.113	0.05
663.298	0.01
663.483	0.04
663.667	0.09
663.852	0.04
664.037	0.08
664.221	0.04
664.406	0.12
664.591	0.11
664.775	0.05
664.96	0.04
665.145	0.05
665.329	0.06
665.514	0
665.698	0.03
665.883	-0.03
666.068	0.11
666.252	0.05
666.437	-0.01
666.621	0.06
666.806	0.06
666.99	0.02
667.174	-0.02
667.359	0.08
667.543	0.01
667.728	0
667.912	-0
668.096	0.03
668.281	0.02
668.465	-0
668.649	0.01
668.834	-0.06
669.018	-0.02
669.202	0.01
669.387	-0.05
669.571	0.08
669.755	-0.02
669.939	0.04
670.124	-0.01
670.308	0.08
670.492	0.04
670.676	0.05
670.86	-0.02
671.044	-0.03
671.228	0.04
671.413	-0.03
671.597	-0
671.781	-0.02
671.965	0.05
672.149	-0.01
672.333	0.04
672.517	0
672.701	0.04
672.885	-0.03
673.069	-0.06
673.253	0.05
673.437	-0.03
673.621	-0.02
673.804	0.01
673.988	-0.02
674.172	-0.01
674.356	-0.04
674.54	-0.01
674.724	0.07
674.908	-0
675.091	0.01
675.275	-0.01
675.459	0.05
675.643	0.07
675.826	-0
676.01	-0
676.194	-0.02
676.377	-0.01
676.561	0.01
676.745	0.02
676.928	0.01
677.112	0.04
677.296	-0.04
677.479	-0.03
677.663	-0.02
677.846	-0.01
678.03	-0.03
678.213	-0.05
678.397	0.02
678.58	-0.02
678.764	-0
678.947	-0.05
679.131	-0.05
679.314	0.03
679.498	-0.05
679.681	0.01
679.865	0.04
680.048	-0.01
680.231	0.02
680.415	-0.01
680.598	-0.01
680.781	0.01
680.965	-0.02
681.148	0.01
681.331	-0.06
681.514	0.02
681.698	0
681.881	0.02
682.064	0.02
682.247	-0.01
682.43	-0.05
682.614	0.02
682.797	0.03
682.98	0.04
683.163	-0.09
683.346	0.02
683.529	-0.03
683.712	-0.06
683.895	0.03
684.078	-0.08
684.261	-0.04
684.444	0
684.627	-0
684.81	-0.01
684.993	0
685.176	0.02
685.359	-0.05
685.542	-0.06
685.725	0.03
685.908	-0.03
686.091	-0.01
686.274	0.04
686.457	0.01
686.639	0.05
686.822	-0.03
687.005	-0.02
687.188	0.02
687.371	0.04
687.553	0.01
687.736	-0.04
687.919	0.01
688.102	0.07
688.284	-0.02
688.467	-0.02
688.65	-0.05
688.832	-0.05
689.015	-0
689.197	-0.05
689.38	0.09
689.563	0.05
689.745	-0.05
689.928	-0.06
690.11	0.06
690.293	0.02
690.475	-0.09
690.658	0
690.84	-0.05
691.023	-0.08
691.205	-0.05
691.388	-0.01
691.57	-0.01
691.752	0.05
691.935	-0.09
692.117	-0.03
692.3	0.01
692.482	0
692.664	-0.05
692.847	0.05
693.029	0.07
693.211	0.02
693.393	-0.03
693.576	-0.04
693.758	-0.05
693.94	-0.05
694.122	-0.05
694.304	-0.03
694.487	-0.03
694.669	0.05
694.851	-0.06
695.033	-0
695.215	-0.03
695.397	-0.07
695.579	0.02
695.761	-0.07
695.943	-0.06
696.125	0.05
696.308	0.04
696.49	-0.09
696.671	0.12
696.853	0.02
697.035	0.1
697.217	-0.06
697.399	0.02
697.581	-0.08
697.763	-0
697.945	-0.05
698.127	0.05
698.309	0.05
698.491	0.05
698.672	0.06
698.854	0.01
699.036	0.06
699.218	0.02
699.399	-0.02
699.581	0.05
699.763	-0
699.945	0.01
700.126	-0.06
700.308	-0.01
700.49	-0.04
700.671	-0.06
700.853	-0.09
701.035	0
701.216	0.01
701.398	-0.06
701.579	-0.01
701.761	0.07
701.943	-0.02
702.124	-0.04
702.306	-0.04
702.487	0.11
702.669	-0.04
702.85	-0.02
703.031	-0.03
703.213	0.12
703.394	0.06
703.576	-0.05
703.757	0.06
703.938	0.1
704.12	0.11
704.301	-0.02
704.483	-0.05
704.664	-0.01
704.845	0.07
705.026	0.03
705.208	-0.03
705.389	0.05
705.57	-0.02
705.751	-0.04
705.933	-0.01
706.114	0.12
706.295	-0.01
706.476	-0.06
706.657	0.07
706.838	0.03
707.02	0.09
707.201	-0.04
707.382	-0.04
707.563	-0.01
707.744	-0.07
707.925	-0.04
708.106	-0.01
708.287	0.05
708.468	0.05
708.649	-0.04
708.83	0.03
709.011	0.01
709.192	0.09
709.373	-0.07
709.554	0.02
709.734	0.03
709.915	0.06
710.096	0.02
710.277	-0.12
710.458	0.01
710.639	0.03
710.819	-0.12
711	0.01
711.181	0.07
711.362	0.06
711.542	0.02
711.723	-0.02
711.904	0.06
712.085	0.11
712.265	0.01
712.446	-0.07
712.627	-0.01
712.807	-0.04
712.988	-0.04
713.168	-0.02
713.349	0.1
713.53	-0.13
713.71	-0.04
713.891	-0.09
714.071	0.03
714.252	-0.01
714.432	-0.01
714.613	-0.11
714.793	0.02
714.974	0.11
715.154	0.07
715.334	0.07
715.515	0.08
715.695	-0.04
715.876	-0
716.056	0.05
716.236	-0.01
716.417	-0.02
716.597	-0.01
716.777	0.15
716.957	0.01
717.138	0.05
717.318	-0.05
717.498	-0.01
717.678	-0.01
717.859	0.08
718.039	-0.08
718.219	0.03
718.399	0.06
718.579	-0.01
718.759	-0.02
718.939	0.08
719.12	0
719.3	0.1
719.48	-0.09
719.66	-0.04
719.84	0.05
720.02	0.03
720.2	-0.02
720.38	0
720.56	0.12
720.74	0
720.92	0.1
721.1	0.11
721.279	0.05
721.459	-0.03
721.639	-0.09
721.819	0.05
721.999	-0.02
722.179	0.01
722.359	-0.06
722.538	0.03
722.718	0.02
722.898	-0
723.078	0.04
723.257	-0.07
723.437	0.07
723.617	-0.01
723.797	0.05
723.976	0.04
724.156	0.06
724.336	0.16
724.515	0.12
724.695	-0.06
724.874	0
725.054	0.12
725.234	-0.03
725.413	0.03
725.593	0.03
725.772	0.03
725.952	0.04
726.131	0.02
726.311	0.07
726.49	0.05
726.67	0.02
726.849	-0.02
727.028	0.04
727.208	-0
727.387	0.1
727.567	0.01
727.746	0.02
727.925	-0.02
728.105	-0.05
728.284	-0.03
728.463	-0.06
728.643	0.08
728.822	-0.05
729.001	0.06
729.18	0.05
729.359	0.11
729.539	0.03
729.718	0.07
729.897	0.16
730.076	0.06
730.255	-0.02
730.434	0.13
730.614	0.12
730.793	0.12
730.972	-0.05
731.151	0.08
731.33	0.11
731.509	0.13
731.688	0.11
731.867	0.11
732.046	-0
732.225	0.3
732.404	-0.04
732.583	0.04
732.762	0.05
732.941	0.13
733.12	0.1
733.298	0.02
733.477	0.2
733.656	0.12
733.835	-0.01
734.014	0.09
734.193	0.15
734.371	0.16
734.55	0.07
734.729	0.02
734.908	0.15
735.086	0.13
735.265	0.12
735.444	-0.16
735.623	0.03
735.801	0.07
735.98	-0.02
736.159	0.04
736.337	0.19
736.516	0
736.694	0.13
736.873	0.05
737.052	0.21
737.23	0.16
737.409	0.08
737.587	0.24
737.766	-0.06
737.944	0.08
738.123	0.12
738.301	0.16
738.479	0.08
738.658	0.11
738.836	-0.09
739.015	0.08
739.193	0.2
739.371	0.07
739.55	-0.01
739.728	-0.13
739.906	0.27
740.085	0.1
740.263	0.13
740.441	-0.01
740.62	0.27
740.798	0.05
740.976	-0.05
741.154	0.04
741.332	0.16
741.511	0.07
741.689	0.12
741.867	0.13
742.045	0.11
742.223	0.11
742.401	-0.04
742.579	-0.02
742.757	0.13
742.935	-0.08
743.114	0.01
743.292	0.07
743.47	0.08
743.648	0.01
743.826	0.18
744.004	0.09
744.181	0.08
744.359	0.01
744.537	0.09
744.715	0.02
744.893	-0.02
745.071	0
745.249	0.05
745.427	0.01
745.605	0.15
745.782	0.08
745.96	0.03
746.138	-0
746.316	0.19
746.493	0.04
746.671	0.03
746.849	-0.05
747.027	0.21
747.204	-0.08
747.382	0.06
747.56	-0.13
747.737	0.03
747.915	-0.06
748.093	0.08
748.27	-0
748.448	-0.05
748.625	-0.13
748.803	-0.06
748.98	-0.05
749.158	-0.02
749.335	0.19
749.513	-0.08
749.69	0.04
749.868	0.08
750.045	0.02
750.223	-0.04
750.4	-0.26
750.578	0.14
750.755	0.04
750.932	-0.05
751.11	0.21
751.287	-0.06
751.464	0.21
751.642	-0
751.819	0.06
751.996	-0
752.173	0.03
752.351	-0.1
752.528	0.05
752.705	-0.03
752.882	-0.03
753.06	0.05
753.237	0.01
753.414	0.12
753.591	0.2
753.768	0.03
753.945	-0.03
754.122	0
754.299	0.14
754.476	-0.1
754.654	-0
754.831	-0.01
755.008	-0.02
755.185	-0.09
755.362	-0.03
755.539	-0.09
755.716	0.03
755.892	0.05
756.069	-0.07
756.246	-0.07
756.423	-0.07
756.6	0.17
756.777	0.01
756.954	0.24
757.131	0.1
757.307	-0.15
757.484	-0.13
757.661	0.02
757.838	0.07
758.015	-0.24
758.191	0.08
758.368	-0.05
758.545	0.15
758.721	0.13
758.898	-0.06
759.075	0.09
759.251	-0
759.428	0.02
759.605	-0.19
759.781	-0.04
759.958	-0.05
760.134	-0.03
760.311	-0.05
760.488	0
760.664	0.12
760.841	-0
761.017	-0.22
761.194	0.08
761.37	0.08
761.547	0.06
761.723	0.11
761.899	0.15
762.076	-0.12
762.252	-0.06
762.429	-0.03
762.605	0.01
762.781	-0.02
762.958	0.05
763.134	-0.04
763.31	-0.05
763.486	0.06
763.663	-0.13
763.839	0.01
764.015	-0.29
764.191	-0.09
764.368	0.02
764.544	-0.01
764.72	0.19
764.896	-0
765.072	-0.05
765.248	-0.01
765.425	-0.05
765.601	-0.01
765.777	-0.05
765.953	-0.15
766.129	-0.08
766.305	-0.03
766.481	0.04
766.657	-0.04
766.833	0.09
767.009	-0.05
767.185	-0.03
767.361	-0.01
767.537	-0.15
767.713	0.03
767.889	-0.05
768.065	-0.03
768.24	0.2
768.416	0.12
768.592	-0.14
768.768	0.06
768.944	-0.07
769.12	-0.22
769.295	-0.11
769.471	-0.13
769.647	0.07
769.823	0.12
769.998	-0.08
770.174	-0.11
770.35	0.31
770.525	0.21
770.701	0.02
770.877	0.02
771.052	-0.1
771.228	0.01
771.403	0.06
771.579	0.05
771.755	0.27
771.93	-0.13
772.106	-0.22
772.281	-0.13
772.457	0.09
772.632	-0.02
772.808	-0.16
772.983	-0.09
773.159	-0.17
773.334	0.21
773.509	0.09
773.685	-0.15
773.86	0.28
774.036	0.19
774.211	-0.11
774.386	0.03
774.562	-0.05
774.737	0.11
774.912	-0.05
775.087	0.02
775.263	-0.09
775.438	0.01
775.613	-0.07
775.788	0.03
775.964	0.14
776.139	0.43
776.314	-0.19
776.489	0.03
776.664	-0.11
776.839	-0.04
777.014	-0
777.19	0.05
777.365	0.21
777.54	0.17
777.715	-0.18
777.89	-0
778.065	-0.08
778.24	-0.1
778.415	-0.08
778.59	-0.15
778.765	-0
778.94	0.07
779.115	-0.05
779.289	0.07
779.464	0.16
779.639	0.05
779.814	-0.23
779.989	-0.19
780.164	0.16
780.339	-0.01
780.513	-0.23
780.688	-0.25
780.863	0.1
781.038	0.22
781.212	-0.05
781.387	-0.16
781.562	0.09
781.737	0.19
781.911	0.17
782.086	-0.15
782.261	-0.1
782.435	0.3
782.61	-0.19
782.784	-0.16
782.959	0.04
783.134	-0.21
783.308	-0.16
783.483	-0.18
783.657	0.34
783.832	0.13
784.006	-0.37
784.181	0.03
784.355	-0.02
784.53	-0.16
784.704	-0
784.878	0.23
785.053	0.07
785.227	0.31
785.402	0.21
785.576	-0.37
785.75	-0.15
785.925	-0.17
786.099	0.05
786.273	0.2
786.448	0.09
786.622	0.14
786.796	-0.05
786.97	-0.06
787.145	0.46
787.319	-0.23
787.493	-0.02
787.667	-0.4
787.841	-0.03
788.015	0.18
788.19	-0.11
788.364	0.01
788.538	0.25
788.712	0.08
788.886	-0.09
789.06	0.1
789.234	0.14
789.408	-0.3
789.582	-0.18
789.756	-0.1
789.93	-0.25
790.104	0.05
790.278	-0.13
790.452	-0.23
790.626	0.11
790.8	-0.09
790.973	0.2
791.147	0.2
791.321	0.19
791.495	0.23
791.669	0.09
791.843	0.24
792.016	-0.1
792.19	0.3
792.364	-0.23
792.538	0.17
792.711	0.09
792.885	-0.05
793.059	-0.27
793.233	-0.55
793.406	0.38
793.58	-0.1
793.754	0.11
793.927	-0.13
794.101	0.22
794.274	-0.12
794.448	0.14
794.622	-0.18
794.795	0.48
794.969	-0.27
795.142	0.79
795.316	-0.02
795.489	-0.19
795.663	0.49
795.836	-0.04
796.009	-0.2
796.183	0.34
796.356	-0.01
796.53	0.15
796.703	-0.11
796.876	0.38
797.05	-0.05
797.223	-0.18
797.396	0.01
797.57	-0.08
797.743	0.26
797.916	0.04
798.09	0
798.263	0.15
798.436	0.11
798.609	-0.01
798.782	-0.01
798.956	-0.08
799.129	-0.2
799.302	-0.33
799.475	-0.02
799.648	-0.24
799.821	-0.17
799.994	-0
800.167	-0.25
800.34	0.09
800.514	-0.23
800.687	-0.23
800.86	0.01
801.033	-0.1
801.206	0.14
801.379	-0.24
801.551	0.42
801.724	0.09
801.897	0.33
802.07	-0.43
802.243	-0.51
802.416	0.06
802.589	-0.02
802.762	0.02
802.935	0.01
803.107	0.36
803.28	0.03
803.453	0.27
803.626	-0.04
803.798	-0.13
803.971	-0.16
804.144	0.02
804.317	-0.19
804.489	0.4
804.662	-0.03
804.835	-0.01
805.007	-0.41
805.18	0.44
805.353	0.11
805.525	-0.43
805.698	-0.26
805.87	0.21
806.043	0.27
806.215	-0.57
806.388	-0.09
806.56	0.33
806.733	0.33
806.905	0.26
807.078	-0.18
807.25	0.09
807.423	0.34
807.595	-0.29
807.768	-0.05
807.94	0.18
808.112	0.03
808.285	-0.17
808.457	0.29
808.629	-0.07
808.802	0.26
808.974	-0.12
809.146	0.11
809.318	-0.4
809.491	-0.06
809.663	0.15
809.835	-0.65
810.007	0.42
810.18	-0.05
810.352	-0.17
810.524	-0.27
810.696	0.46
810.868	0.09
811.04	0.01
811.212	-0.01
811.384	0.27
811.556	0.05
811.728	0.01
811.901	0.26
812.073	0.13
812.245	0.17
812.417	0.15
812.589	-0.7
812.76	-0.07
812.932	0.07
813.104	0.41
813.276	-0.07
813.448	0.32
813.62	-0.38
813.792	0.12
813.964	0.07
814.136	0.07
814.307	-0.17
814.479	-0.21
814.651	-0.08
814.823	0.31
814.995	-0.26
815.166	0.38
815.338	-0.23
815.51	-0.43
815.681	0.86
815.853	-0.46
816.025	-0.09
816.196	0.35
816.368	0.21
816.54	-0.56
816.711	-0.53
816.883	0.5
817.054	1.16
817.226	-0.66
817.398	0.04
817.569	-0.36
817.741	-0.18
817.912	0.03
818.084	-0.14
818.255	0.62
818.426	-0.31
818.598	-0.17
818.769	-0.33
818.941	0.41
819.112	0.83
819.283	0.32
819.455	-0.42
819.626	-0.4
819.798	0.28
819.969	-0
820.14	-0.08
820.311	-0.11
820.483	0.12
820.654	0
820.825	-0.39
820.996	-0.49
821.168	-0.6
821.339	-0.15
821.51	-0.44
821.681	-0.34
821.852	0.15
822.023	-0.69
822.195	-0.52
822.366	0.52
822.537	0.49
822.708	0.2
822.879	-0.19
823.05	0.85
823.221	-0.28
823.392	0.56
823.563	-0.24
823.734	0.06
823.905	0.04
824.076	-0.12
824.247	-0.58
824.418	-0.3
824.589	0.81
824.759	-0.09
824.93	-0.53
825.101	-0.87
825.272	0.1
825.443	0.4
825.614	0.18
825.784	-1.16
825.955	0.65
826.126	0.43
826.297	-0.06
826.467	0.75
826.638	0.45
826.809	-0.43
826.98	-0.29
827.15	0.13
827.321	-0.07
827.492	0.56
827.662	0.25
827.833	1.25
828.003	0.24
828.174	-0.65
828.345	-0.21
828.515	0.35
828.686	0.44
828.856	-0.06
829.027	-0.41
829.197	-0.22
829.368	0.21
829.538	-0.39
829.709	-0.17
829.879	-0.11
830.049	-0.19
830.22	-0.24
830.39	-0.07
830.56	0.75
830.731	-0.19
830.901	-0.13
831.072	-0.17
831.242	-0.12
831.412	0.03
831.582	-0.27
831.753	-0.18
831.923	0.73
832.093	0.27
832.263	0.46
832.434	-0.51
832.604	0.01
832.774	0.79
832.944	-0.17
833.114	0.07
833.284	-0.04
833.454	-0.72
833.624	-0.56
833.795	-0.54
833.965	0.47
834.135	0.55
834.305	-0.78
834.475	-0.6
834.645	-0.22
834.815	-0.56
834.985	-0.92
835.155	-0.58
835.325	0.67
835.494	0.37
835.664	-0.54
835.834	-0.85
836.004	-0.48
836.174	0.58
836.344	0.48
836.514	-0.22
836.684	-0.35
836.853	0.29
837.023	-0.14
837.193	-0.44
837.363	0.32
837.532	0.5
837.702	-0.04
837.872	-0.14
838.041	0.53
838.211	1.43
838.381	-0.61
838.55	-0
838.72	1.12
838.89	0.91
839.059	-0.94
839.229	-0.89
839.398	0.6
839.568	0.3
839.738	0.29
839.907	0.7
840.077	0.17
840.246	-0.3
840.416	-0.78
840.585	-0.29
840.755	1.25
840.924	1.17
841.093	-0.71
841.263	-0.08
841.432	0.21
841.602	-0.6
841.771	-0.81
841.94	0.38
842.11	1.39
842.279	1.13
842.448	-0.69
842.617	-0.76
842.787	0.62
842.956	-0.72
843.125	0.71
843.294	-0.01
843.464	0.33
843.633	0.06
843.802	-1.66
843.971	0.18
844.14	-0.76
844.309	0.17
844.479	-0.78
844.648	-1.08
844.817	-0.33
844.986	-0.09
845.155	-0.5
845.324	0.45
845.493	-0.46
845.662	-0.26
845.831	0.8
846	0.33
846.169	-0
846.338	1.47
846.507	0.05
846.676	0.04
846.844	-0.99
847.013	0.16
847.182	0.14
847.351	-0.33
847.52	-0.1
847.689	0.39
847.858	0.35
848.026	-0.15
848.195	0.09
848.364	0.09
848.533	-0.73
848.701	-0.18
848.87	0.87
849.039	0.32
849.207	-0.02
849.376	0.86
849.545	0.75
849.713	-0.28
849.882	0.18
850.051	-0.12
850.219	-0.39
850.388	0.24
850.556	-0.03
850.725	-0.85
850.893	0.46
851.062	-0.44
851.23	1.34
851.399	-1.02
851.567	0.3
851.736	-0.03
851.904	-0.6
852.073	-0.25
852.241	-0.18
852.41	0.21
852.578	0.73
852.746	-0.3
852.915	0.19
853.083	1.57
853.251	-1.02
853.42	-0.38
853.588	-0.27
853.756	1.46
853.924	0.38
854.093	0.38
854.261	-0.64
854.429	-0.93
854.597	-0.17
854.765	-0.24
854.934	0.24
855.102	1.36
855.27	0.73
855.438	0.82
855.606	0.13
855.774	0.3
855.942	-1.82
856.11	-1.37
856.278	-0.28
856.446	0.41
856.614	0.14
856.782	-1.07
856.95	1.45
857.118	0.17
857.286	-0.17
857.454	-0.84
857.622	0.96
857.79	0.25
857.958	-1.41
858.126	0.8
858.294	-2.88
858.462	-0.28
858.629	-0.35
858.797	-0.4
858.965	0.5
859.133	-0.1
859.301	-0.76
859.468	0.54
859.636	-0.87
859.804	2.04
859.971	0.92
860.139	-0.92
860.307	0.61
860.474	0.95
860.642	-1.35
860.81	-1.03
860.977	-1.25
861.145	2.03
861.313	0.06
861.48	-0.65
861.648	-0.17
861.815	-0.65
861.983	-0.09
862.15	-0.25
862.318	0.51
862.485	1.67
862.653	-0.76
862.82	-1.26
862.988	1.18
863.155	-0.75
863.322	-0.93
863.49	-1.03
863.657	-0.64
863.824	1.7
863.992	-0.78
864.159	0.15
864.326	2.15
864.494	-0.91
864.661	1.82
864.828	-1.35
864.996	1.05
865.163	1.94
865.33	-1.82
865.497	-2.22
865.664	-0.35
865.832	-1.75
865.999	-0.53
866.166	-0.67
866.333	0.32
866.5	-1.71
866.667	-0.62
866.834	-0.65
867.001	1.56
867.168	-1.55
867.335	-1.25
867.502	-1.9
867.669	1.43
867.836	0.49
868.003	-0.52
868.17	2.48
868.337	1.55
868.504	2.76
868.671	-2.09
868.838	-1.42
869.005	0.55
869.172	-0.18
869.339	-0.65
869.505	-1.08
869.672	-0.1
869.839	2.2
870.006	0.03
870.173	-3.14
870.339	1.27
870.506	2.55
870.673	-2.94
870.84	1.86
871.006	0.57
871.173	-2.07
871.34	0.99
871.506	-2.99
871.673	1.13
871.839	-0.97
872.006	0.59
872.173	-0.33
872.339	1.32
872.506	1.16
872.672	-1.18
872.839	-3.07
873.005	-0.59
873.172	4.75
873.338	0.7
873.505	0.87
873.671	2.23
873.838	1.45
874.004	-0.89
874.171	-1.18
874.337	-0.35
874.503	1.51
874.67	-0.5
874.836	-0.26
875.002	2.02
875.169	1.47
875.335	1.69
875.501	-1.62
875.668	1.46
875.834	1.22
876	0.56
876.166	1.37
876.332	2.19
876.499	1.35
876.665	-0.58
876.831	0.2
876.997	2.91
877.163	0.18
877.329	-2.48
877.495	-0.13
877.662	1.7
877.828	-0.13
877.994	-0.32
878.16	-1.28
878.326	-0.39
878.492	-0.97
878.658	-0.52
878.824	-0.17
878.99	1.5
879.156	-1.23
879.322	3.11
879.487	-1.74
879.653	1.21
879.819	-0.55
879.985	-1.01
880.151	0.22
880.317	0.52
880.483	-0.19
880.648	0.65
880.814	-0.99
880.98	1.96
881.146	-2.31
881.312	0.03
881.477	-1.15
881.643	-0.66
881.809	1.93
881.974	0.65
882.14	-3.91
882.306	-0.49
882.471	3.71
882.637	-0.68
882.803	1.18
882.968	2.33
883.134	3.16
883.299	-1.54
883.465	0.28
883.63	2.27
883.796	1.49
883.961	-0.49
884.127	-0.06
884.292	-2.9
884.458	-3.14
884.623	-3.14
