Data from Apollo_Calib_20240827__AbsoluteIrradiance__684__10-33-02-402.txt Node

Date: Wed Aug 28 10:33:02 BST 2024
User: biology
Spectrometer: FLMT08252
Trigger mode: 0
Integration Time (sec): 5.000000E-1
Scans to average: 5
Electric dark correction enabled: true
Nonlinearity correction enabled: false
Boxcar width: 0
XAxis mode: Wavelengths
Number of Pixels in Spectrum: 3648
>>>>>Begin Spectral Data<<<<<
179.588	-0
179.809	-0
180.03	-0
180.251	-0
180.473	-0
180.694	0
180.915	0
181.136	-0
181.357	0
181.578	-0
181.799	-0
182.02	-0
182.241	0
182.462	-0
182.683	0
182.904	-0
183.125	-0
183.346	0
183.567	0
183.788	-0
184.009	-0
184.23	0
184.451	0
184.672	0
184.892	0
185.113	0
185.334	0
185.555	0
185.776	-0
185.996	0
186.217	0
186.438	0
186.659	-0
186.879	0
187.1	0
187.321	0
187.541	-0
187.762	0
187.983	0
188.203	0
188.424	0
188.644	0
188.865	0
189.086	-0
189.306	0
189.527	0
189.747	0
189.968	-0
190.188	0
190.409	0
190.629	0
190.849	0
191.07	0
191.29	0
191.511	0
191.731	-0
191.951	0
192.172	0
192.392	0
192.612	0
192.833	0
193.053	0
193.273	0
193.493	0
193.714	0
193.934	0
194.154	0
194.374	0
194.594	0
194.815	0
195.035	0
195.255	0
195.475	-0
195.695	0
195.915	0
196.135	0
196.355	0
196.575	0
196.795	0
197.015	-0
197.235	0
197.455	-0
197.675	0
197.895	-0
198.115	0
198.335	0
198.555	-0
198.775	0
198.995	0
199.214	0
199.434	0
199.654	0
199.874	0
200.094	1.74
200.313	0.2
200.533	-0.13
200.753	-0.51
200.973	1.01
201.192	0.81
201.412	-0.38
201.632	0.08
201.851	1.11
202.071	0.24
202.291	-0.41
202.51	-0.42
202.73	0.67
202.95	0.41
203.169	-0.4
203.389	0.23
203.608	0.39
203.828	-0.25
204.047	0.05
204.267	0.93
204.486	0.34
204.706	0.26
204.925	0.19
205.145	0.14
205.364	0.87
205.583	0.67
205.803	0.13
206.022	-0.05
206.242	0.1
206.461	0.13
206.68	-0.15
206.9	0.32
207.119	0.92
207.338	0.86
207.557	-0.01
207.777	0.16
207.996	0.41
208.215	0.9
208.434	0.12
208.654	-0.1
208.873	0.19
209.092	0.75
209.311	0.08
209.53	0.02
209.749	-0.11
209.968	-0.1
210.187	0.16
210.407	-0.15
210.626	0.18
210.845	0.32
211.064	0.22
211.283	-0.15
211.502	0.48
211.721	0.19
211.94	0.17
212.159	0.39
212.377	0.42
212.596	0.57
212.815	0.16
213.034	0.12
213.253	0.31
213.472	0.48
213.691	0.03
213.91	-0.07
214.128	0.26
214.347	0.5
214.566	-0.15
214.785	-0.01
215.003	0.4
215.222	0.22
215.441	0.18
215.66	-0.03
215.878	0.21
216.097	0.38
216.316	-0.16
216.534	0.07
216.753	0.16
216.972	0.28
217.19	0.21
217.409	0.01
217.627	0.12
217.846	-0.02
218.064	0.1
218.283	-0.06
218.501	0.54
218.72	0.29
218.938	-0.01
219.157	0.18
219.375	0.5
219.594	0.26
219.812	-0.08
220.031	-0.12
220.249	0.37
220.467	0.46
220.686	0.15
220.904	-0.17
221.122	-0.1
221.341	0.45
221.559	0.25
221.777	-0.01
221.995	0
222.214	0.2
222.432	-0.02
222.65	0.24
222.868	0.1
223.086	0.27
223.305	0.21
223.523	0.1
223.741	0.25
223.959	0.16
224.177	-0.12
224.395	0.07
224.613	0.08
224.831	0.28
225.049	0.01
225.267	0.02
225.485	0.04
225.703	0.11
225.921	0.13
226.139	0.02
226.357	0.18
226.575	0.04
226.793	0.04
227.011	0.69
227.229	0.06
227.447	0.18
227.665	0.03
227.883	-0.06
228.1	0.11
228.318	0.08
228.536	-0.06
228.754	-0.08
228.972	0.13
229.189	0.29
229.407	0.09
229.625	0.06
229.843	0.31
230.06	0.05
230.278	0.07
230.496	0.08
230.713	0.07
230.931	0.36
231.149	0.11
231.366	-0.01
231.584	-0.03
231.801	0.45
232.019	0.1
232.236	-0.03
232.454	-0.07
232.671	0.12
232.889	0.11
233.106	0.05
233.324	0.12
233.541	-0.01
233.759	0.12
233.976	0.1
234.194	0.1
234.411	0.1
234.628	-0.07
234.846	-0
235.063	0.03
235.28	0.09
235.498	0.12
235.715	-0.14
235.932	0.2
236.149	0.03
236.367	-0.09
236.584	0.22
236.801	0.05
237.018	0.14
237.236	0.11
237.453	-0.12
237.67	0.14
237.887	0.06
238.104	0.08
238.321	-0.06
238.538	-0.07
238.755	0.2
238.973	-0.05
239.19	0.1
239.407	0.13
239.624	0.12
239.841	-0.04
240.058	-0.04
240.275	0.05
240.492	0
240.709	0.1
240.925	-0.04
241.142	0.04
241.359	-0.01
241.576	-0.02
241.793	0.03
242.01	0.16
242.227	0.16
242.444	0.18
242.66	0.2
242.877	0.08
243.094	0.06
243.311	0.14
243.527	0.02
243.744	0.16
243.961	0.1
244.178	-0.04
244.394	0.11
244.611	0.17
244.828	0.28
245.044	-0.02
245.261	-0
245.477	0.08
245.694	0.23
245.911	-0.03
246.127	0.08
246.344	0.23
246.56	0.18
246.777	-0.04
246.993	-0.01
247.21	0.16
247.426	0.17
247.643	0.01
247.859	-0.01
248.076	-0.05
248.292	0.25
248.508	0.01
248.725	0.12
248.941	0.08
249.157	0.14
249.374	-0
249.59	0.01
249.806	0.09
250.023	0.12
250.239	0
250.455	0.01
250.671	0.08
250.888	0.11
251.104	0.09
251.32	0.02
251.536	0.14
251.752	0.11
251.969	0.09
252.185	0.11
252.401	0.23
252.617	0.08
252.833	0.05
253.049	0.06
253.265	0.03
253.481	0.09
253.697	0.05
253.913	0.08
254.129	0.08
254.345	0.04
254.561	0.07
254.777	0.09
254.993	0.07
255.209	0.05
255.425	0.06
255.641	0.01
255.857	0.11
256.073	0.11
256.288	-0.04
256.504	-0.05
256.72	0.05
256.936	0.22
257.152	0.04
257.367	0.02
257.583	0.03
257.799	0.15
258.015	0
258.23	0.06
258.446	0.12
258.662	0.11
258.877	-0.01
259.093	-0.03
259.309	0.06
259.524	0.08
259.74	0.1
259.955	-0.05
260.171	0.08
260.387	0.04
260.602	0.11
260.818	0.08
261.033	0.06
261.249	0.03
261.464	0.09
261.68	0
261.895	0.06
262.11	0.12
262.326	0.05
262.541	-0.03
262.757	0.12
262.972	0.05
263.187	0.1
263.403	0.05
263.618	0.14
263.833	-0
264.049	-0.03
264.264	0.03
264.479	0.1
264.694	0.15
264.91	0.01
265.125	-0
265.34	0.09
265.555	0.21
265.77	0.11
265.986	0.01
266.201	0.04
266.416	0.15
266.631	0.08
266.846	0.11
267.061	0.15
267.276	0.03
267.491	-0.09
267.706	0.07
267.921	0.07
268.136	0.05
268.351	0.08
268.566	-0.05
268.781	0.18
268.996	0.16
269.211	0.04
269.426	0.04
269.641	0.14
269.856	0.03
270.071	-0
270.285	0.01
270.5	0.13
270.715	0.07
270.93	0.06
271.145	0.1
271.359	0.1
271.574	0.02
271.789	0.05
272.004	-0.03
272.218	0.02
272.433	0.1
272.648	-0.06
272.862	0.09
273.077	0.09
273.292	0
273.506	-0.04
273.721	0.03
273.936	0.11
274.15	0.11
274.365	-0.07
274.579	0.07
274.794	0.08
275.008	0.11
275.223	-0.04
275.437	0.02
275.652	0.05
275.866	0.15
276.081	0.02
276.295	0.11
276.509	0.12
276.724	0.07
276.938	0.04
277.153	0.09
277.367	0.17
277.581	0.03
277.796	0.01
278.01	-0.06
278.224	0.15
278.438	0.17
278.653	-0.01
278.867	0.03
279.081	0.15
279.295	0.02
279.51	0.1
279.724	-0.07
279.938	0.09
280.152	0.03
280.366	0.02
280.58	0.05
280.794	0.13
281.008	0.05
281.222	0.11
281.437	0.16
281.651	0.04
281.865	0.05
282.079	0.06
282.293	-0.03
282.507	-0.01
282.721	0.05
282.935	0.03
283.148	-0.1
283.362	0.02
283.576	-0.03
283.79	0.07
284.004	0.02
284.218	0.15
284.432	-0.01
284.646	0.06
284.859	-0
285.073	-0.03
285.287	0.06
285.501	0.01
285.714	0.02
285.928	0.08
286.142	0.04
286.356	-0.01
286.569	0.02
286.783	0.17
286.997	0.03
287.21	0.06
287.424	0.05
287.637	0.04
287.851	0.03
288.065	0.07
288.278	0.06
288.492	0.04
288.705	0.01
288.919	0.1
289.132	-0.02
289.346	0.09
289.559	-0.01
289.773	0.01
289.986	-0.01
290.2	0.04
290.413	0.09
290.626	-0.05
290.84	0.03
291.053	0.05
291.267	0.14
291.48	0.05
291.693	0.09
291.906	0.02
292.12	0.02
292.333	-0
292.546	0.02
292.76	0.1
292.973	0.04
293.186	0.09
293.399	0.01
293.612	0.07
293.826	0.04
294.039	0.05
294.252	0.03
294.465	0.04
294.678	0.08
294.891	0.03
295.104	-0.01
295.317	0.01
295.53	0.11
295.743	0.02
295.956	0.02
296.169	0.08
296.382	0.08
296.595	0.01
296.808	-0.02
297.021	0.08
297.234	0.07
297.447	0.05
297.66	0.02
297.873	0.09
298.086	0.08
298.299	0.03
298.511	-0.02
298.724	-0.03
298.937	0.01
299.15	0.04
299.363	0.06
299.575	0.08
299.788	0.08
300.001	0.03
300.213	-0.02
300.426	0.01
300.639	0.03
300.852	-0.01
301.064	0.1
301.277	0.12
301.489	0.07
301.702	0.03
301.915	0.06
302.127	0.07
302.34	0.05
302.552	0.03
302.765	0.03
302.977	0.08
303.19	0.01
303.402	-0.01
303.615	0.01
303.827	0.01
304.04	0.02
304.252	0.08
304.464	0.03
304.677	0.12
304.889	0.09
305.102	0.02
305.314	-0.01
305.526	0.1
305.739	0.04
305.951	-0.03
306.163	0.05
306.375	0.07
306.588	0
306.8	0.03
307.012	0.01
307.224	0.05
307.436	0.05
307.649	-0
307.861	0.02
308.073	0.06
308.285	0.01
308.497	-0.01
308.709	0.02
308.921	0.04
309.133	0.08
309.346	0.02
309.558	-0.02
309.77	0.08
309.982	0.1
310.194	0.11
310.406	-0.02
310.617	0.12
310.829	0.06
311.041	0.05
311.253	0.01
311.465	0.01
311.677	0.03
311.889	0.07
312.101	0.01
312.313	0.1
312.524	0.08
312.736	0
312.948	0.02
313.16	0.07
313.372	0.1
313.583	0.02
313.795	0.02
314.007	-0.03
314.218	0.08
314.43	0.05
314.642	0.02
314.853	-0.04
315.065	0.08
315.277	0.03
315.488	0.09
315.7	0.05
315.912	0.05
316.123	0.02
316.335	0.06
316.546	0.12
316.758	0.04
316.969	-0.05
317.181	0.03
317.392	-0
317.604	0.07
317.815	-0.02
318.026	-0.01
318.238	-0.01
318.449	0.09
318.661	-0.02
318.872	-0.02
319.083	-0.04
319.295	0.02
319.506	0.02
319.717	0.07
319.929	0.08
320.14	0.04
320.351	0.05
320.562	-0.03
320.774	0.02
320.985	0.06
321.196	-0.02
321.407	-0.04
321.618	0.05
321.829	0.04
322.041	0.08
322.252	0.05
322.463	0.06
322.674	0.06
322.885	-0.01
323.096	-0.01
323.307	0.03
323.518	0.05
323.729	-0.01
323.94	-0.02
324.151	-0
324.362	0.02
324.573	0.03
324.784	-0.03
324.995	0.06
325.206	0.04
325.417	-0.03
325.628	0.01
325.838	-0
326.049	0.04
326.26	0.06
326.471	0.03
326.682	0.05
326.892	-0.03
327.103	-0.02
327.314	-0.02
327.525	0.06
327.735	0.05
327.946	0.03
328.157	-0.01
328.368	0.02
328.578	0.01
328.789	0.07
328.999	0.08
329.21	0.04
329.421	0.04
329.631	-0.01
329.842	-0.01
330.052	0.05
330.263	0.07
330.473	0.05
330.684	0.04
330.894	0.01
331.105	0.06
331.315	0.06
331.526	-0.05
331.736	0.1
331.947	0.08
332.157	0.04
332.367	-0.03
332.578	0.05
332.788	0.05
332.999	0.07
333.209	0.03
333.419	-0.03
333.629	0.02
333.84	0.04
334.05	0.02
334.26	0.08
334.47	0.04
334.681	0.05
334.891	0.02
335.101	0.06
335.311	0.1
335.521	0.04
335.732	0.01
335.942	0.12
336.152	0.07
336.362	0.07
336.572	0.03
336.782	0.05
336.992	0.01
337.202	0.05
337.412	0.01
337.622	0.02
337.832	0.05
338.042	0.03
338.252	-0.03
338.462	0.02
338.672	-0.02
338.882	0.06
339.092	-0.04
339.302	0.13
339.511	0.05
339.721	0.03
339.931	-0.02
340.141	0.05
340.351	0.07
340.561	0.06
340.77	0.06
340.98	0.02
341.19	0.07
341.4	-0.02
341.609	-0
341.819	0.04
342.029	-0
342.238	0.06
342.448	0.05
342.658	0.07
342.867	-0.01
343.077	0.06
343.286	0.07
343.496	0.06
343.706	0.05
343.915	0
344.125	0.02
344.334	0.11
344.544	0.01
344.753	0.02
344.963	0.03
345.172	0.02
345.381	0.01
345.591	-0.03
345.8	0.02
346.01	0.06
346.219	0.1
346.428	-0.09
346.638	0.07
346.847	0.02
347.056	0.08
347.266	0.01
347.475	0.03
347.684	0.09
347.893	0.03
348.103	0.02
348.312	0.02
348.521	0.02
348.73	0.04
348.94	0.06
349.149	0.02
349.358	0.03
349.567	0.03
349.776	0
349.985	0.03
350.194	0.07
350.403	0.07
350.612	-0.01
350.821	-0.02
351.03	0.06
351.239	-0.02
351.448	0.01
351.657	0.02
351.866	0.08
352.075	0.02
352.284	0.06
352.493	-0.05
352.702	0.11
352.911	0.03
353.12	0.05
353.329	-0.01
353.538	0.04
353.746	0.05
353.955	-0.01
354.164	0.06
354.373	0.02
354.582	0.04
354.79	-0
354.999	0.08
355.208	0.02
355.416	0.09
355.625	-0.03
355.834	0.03
356.042	0.06
356.251	-0.01
356.46	0.01
356.668	0.04
356.877	0.12
357.085	0.06
357.294	-0.05
357.503	0.04
357.711	0.03
357.92	0.13
358.128	0.01
358.337	-0
358.545	0.03
358.754	0
358.962	0.06
359.17	0.01
359.379	0.04
359.587	0.08
359.796	0.01
360.004	0.06
360.212	0.02
360.421	0.06
360.629	0.01
360.837	0.02
361.046	0.05
361.254	0.14
361.462	0.03
361.67	-0.03
361.879	0.03
362.087	0.07
362.295	0.02
362.503	0.02
362.711	0.01
362.92	0
363.128	-0.02
363.336	-0.03
363.544	-0.04
363.752	0.02
363.96	0.02
364.168	-0.02
364.376	-0
364.584	0.02
364.792	0.03
365	0.02
365.208	0.01
365.416	0.06
365.624	0.05
365.832	0.01
366.04	0.08
366.248	0.06
366.456	0.04
366.664	0.03
366.872	0.05
367.079	0.04
367.287	0.01
367.495	0.06
367.703	-0
367.911	0.02
368.118	0.03
368.326	0
368.534	-0.02
368.742	0.09
368.949	-0.03
369.157	0.03
369.365	0.04
369.572	0.02
369.78	-0.01
369.988	0.05
370.195	0.02
370.403	0.04
370.61	-0.01
370.818	0.02
371.026	0.07
371.233	-0
371.441	0.04
371.648	-0.01
371.856	0.03
372.063	0.04
372.271	-0.01
372.478	-0
372.685	-0.03
372.893	0.09
373.1	0.01
373.308	0.03
373.515	0.09
373.722	0.07
373.93	0.03
374.137	0.03
374.344	0.06
374.552	0.06
374.759	0.07
374.966	0.02
375.173	-0.02
375.381	0.06
375.588	0.03
375.795	-0.03
376.002	-0
376.209	-0.01
376.417	-0
376.624	0
376.831	0.01
377.038	0
377.245	-0.03
377.452	0
377.659	0.06
377.866	0.01
378.073	-0.01
378.28	0
378.487	0.03
378.694	0.06
378.901	-0.01
379.108	0.05
379.315	0.06
379.522	0.1
379.729	0.01
379.936	-0.02
380.143	0.03
380.35	0.05
380.557	0.01
380.763	0.05
380.97	0.02
381.177	0.01
381.384	0.03
381.591	0.01
381.797	0.04
382.004	0.06
382.211	0.06
382.418	0
382.624	0.08
382.831	0.04
383.038	0
383.244	0.05
383.451	0.03
383.658	0.05
383.864	0.01
384.071	-0.02
384.277	0.07
384.484	0.03
384.69	0.09
384.897	0.01
385.103	0.01
385.31	-0.03
385.516	-0.02
385.723	-0
385.929	0.02
386.136	0.01
386.342	0.06
386.549	0.02
386.755	0.06
386.961	0.06
387.168	-0.01
387.374	0.04
387.58	0.04
387.787	0.03
387.993	0.04
388.199	0.06
388.406	0
388.612	0.03
388.818	-0.03
389.024	0
389.231	0.01
389.437	0.08
389.643	0.07
389.849	-0.01
390.055	0.03
390.261	0.02
390.467	0.06
390.674	-0.01
390.88	0.03
391.086	0.04
391.292	-0.02
391.498	0.05
391.704	0.03
391.91	0.05
392.116	-0.01
392.322	-0.06
392.528	0.1
392.734	0.02
392.94	0.03
393.146	-0.01
393.352	0.01
393.557	-0.01
393.763	-0.03
393.969	0.06
394.175	0.04
394.381	0.03
394.587	-0.03
394.792	0.03
394.998	0.07
395.204	0.06
395.41	-0.03
395.615	0.07
395.821	0.01
396.027	0.07
396.233	0.01
396.438	0.04
396.644	0.04
396.85	0.04
397.055	0.06
397.261	0
397.466	-0.03
397.672	0.01
397.878	0.05
398.083	0.06
398.289	-0
398.494	0.07
398.7	0.04
398.905	-0.02
399.111	0.06
399.316	-0.03
399.522	-0.01
399.727	0.04
399.932	-0.02
400.138	0.01
400.343	0.04
400.549	0.03
400.754	0.04
400.959	0.05
401.165	-0.02
401.37	0.03
401.575	0.1
401.78	0.04
401.986	0.01
402.191	0.02
402.396	0.04
402.601	0.03
402.807	-0
403.012	0.02
403.217	0.03
403.422	0.06
403.627	0.02
403.832	-0.01
404.037	0.05
404.243	0.07
404.448	-0.01
404.653	0.05
404.858	0.03
405.063	0.04
405.268	0.01
405.473	0.02
405.678	0.01
405.883	0.13
406.088	0.02
406.293	-0
406.498	0
406.703	0.03
406.907	0.03
407.112	0.03
407.317	0.05
407.522	0.05
407.727	-0.06
407.932	-0
408.136	0.11
408.341	0.01
408.546	0.02
408.751	0.04
408.956	0.01
409.16	0.06
409.365	0.01
409.57	-0.03
409.774	0.05
409.979	0.08
410.184	0.01
410.388	-0
410.593	0.04
410.798	0.03
411.002	-0
411.207	0.07
411.411	0
411.616	-0
411.82	-0
412.025	0.02
412.229	0
412.434	0.08
412.638	0.02
412.843	0.02
413.047	0.03
413.252	0.05
413.456	0.01
413.66	0.03
413.865	-0.02
414.069	0.06
414.273	0.01
414.478	-0.03
414.682	-0.01
414.886	0
415.091	-0.01
415.295	-0.08
415.499	0.02
415.703	-0.01
415.908	0.05
416.112	-0.05
416.316	0.06
416.52	0.01
416.724	-0.01
416.929	0
417.133	0.1
417.337	0.01
417.541	-0.02
417.745	0.02
417.949	0.03
418.153	0.03
418.357	-0.02
418.561	0.08
418.765	0.02
418.969	0.11
419.173	0.04
419.377	-0.02
419.581	0.08
419.785	0.01
419.989	-0.08
420.193	0.04
420.397	0.02
420.601	0.05
420.804	0.06
421.008	0.06
421.212	0.07
421.416	0.06
421.62	0
421.823	-0
422.027	0.09
422.231	0.03
422.435	0.02
422.638	0.04
422.842	0.02
423.046	-0.04
423.249	0.02
423.453	0.04
423.657	0.02
423.86	0.03
424.064	0.01
424.268	0.04
424.471	0.01
424.675	0.14
424.878	0.1
425.082	0.02
425.285	0.04
425.489	0.02
425.692	0.05
425.896	-0.02
426.099	0.06
426.303	0
426.506	0
426.71	0.06
426.913	0.07
427.116	0.08
427.32	0.05
427.523	0.01
427.726	0.08
427.93	-0.01
428.133	0.03
428.336	0.01
428.54	-0.05
428.743	0.07
428.946	0.03
429.149	-0.02
429.353	0.03
429.556	0.01
429.759	0.06
429.962	-0.02
430.165	0.01
430.368	0.05
430.571	-0.01
430.775	0.07
430.978	0.01
431.181	0.04
431.384	0.03
431.587	-0.03
431.79	-0.01
431.993	0.04
432.196	0.01
432.399	-0.01
432.602	0.09
432.805	-0.01
433.008	0.02
433.211	-0.04
433.414	0.03
433.616	0.06
433.819	0.03
434.022	-0.07
434.225	0.04
434.428	0.01
434.631	0.06
434.833	-0
435.036	-0.01
435.239	0.09
435.442	0.06
435.645	-0.02
435.847	0.05
436.05	0.11
436.253	0.08
436.455	-0.02
436.658	-0.01
436.861	0.12
437.063	-0.02
437.266	-0.02
437.468	0.02
437.671	0.11
437.874	0.06
438.076	-0.09
438.279	-0.11
438.481	-0
438.684	-0.03
438.886	0.05
439.089	-0.04
439.291	-0.04
439.494	0.02
439.696	-0.01
439.899	-0
440.101	0.01
440.303	-0.06
440.506	0.04
440.708	0.03
440.91	0.04
441.113	-0.06
441.315	0.04
441.517	-0.03
441.72	0.05
441.922	-0.06
442.124	-0.02
442.326	0.03
442.529	0.05
442.731	-0.01
442.933	0.09
443.135	0.03
443.337	0.02
443.539	0.04
443.742	0
443.944	0.04
444.146	-0
444.348	-0.01
444.55	-0.04
444.752	0.02
444.954	-0.03
445.156	0.05
445.358	-0.01
445.56	0.04
445.762	-0.05
445.964	0.05
446.166	-0.06
446.368	0.01
446.57	0.04
446.772	-0
446.974	-0.02
447.175	0.03
447.377	0.02
447.579	-0.06
447.781	-0.04
447.983	0.16
448.184	0.02
448.386	0.01
448.588	-0.04
448.79	0.05
448.991	-0.04
449.193	0.02
449.395	-0.02
449.597	0.02
449.798	0.02
450	0.04
450.202	-0.02
450.403	0.04
450.605	0.03
450.806	0.03
451.008	-0.06
451.21	0.02
451.411	0.02
451.613	0
451.814	-0
452.016	0.1
452.217	0.04
452.419	0.03
452.62	0.03
452.821	0.05
453.023	0.11
453.224	0.07
453.426	0.02
453.627	0.01
453.828	0.06
454.03	0.03
454.231	0.01
454.432	-0
454.634	0.09
454.835	-0.05
455.036	-0.06
455.238	0
455.439	0.11
455.64	-0.06
455.841	-0.05
456.042	0.1
456.244	0.06
456.445	-0.03
456.646	-0.05
456.847	0
457.048	0.07
457.249	0.06
457.45	0.22
457.651	-0.05
457.852	0.03
458.054	0.07
458.255	0.01
458.456	0.08
458.657	0.05
458.858	-0.02
459.058	-0.03
459.259	0.1
459.46	0
459.661	-0.02
459.862	0.1
460.063	-0.01
460.264	0.05
460.465	-0.02
460.666	0.15
460.866	0.04
461.067	-0.01
461.268	0.01
461.469	0.01
461.67	0.01
461.87	0.01
462.071	-0.02
462.272	-0.02
462.473	-0
462.673	0.06
462.874	-0.01
463.075	0
463.275	0.03
463.476	0.06
463.676	0.07
463.877	0.01
464.078	0.01
464.278	0.02
464.479	0.01
464.679	0.01
464.88	0.02
465.08	0.1
465.281	-0.01
465.481	0.02
465.682	-0
465.882	0.04
466.083	0.04
466.283	-0.03
466.483	0.03
466.684	-0.03
466.884	-0.05
467.085	-0.01
467.285	-0.01
467.485	-0.03
467.686	-0.01
467.886	0.01
468.086	0.02
468.286	0.03
468.487	0.03
468.687	-0
468.887	0.04
469.087	0.07
469.287	-0
469.488	-0.03
469.688	0.04
469.888	0.1
470.088	0.03
470.288	0.08
470.488	0.05
470.688	-0.03
470.888	-0.02
471.088	-0.03
471.288	0.04
471.488	0.04
471.688	0.03
471.888	-0.01
472.088	0.07
472.288	0.04
472.488	-0.04
472.688	-0.05
472.888	0.02
473.088	0.03
473.288	0.02
473.488	-0.01
473.688	0.08
473.887	0.03
474.087	-0.01
474.287	0.03
474.487	-0.03
474.687	0.04
474.886	0
475.086	0.03
475.286	0.01
475.486	0.03
475.685	-0
475.885	-0.03
476.085	-0.01
476.284	0.04
476.484	0.02
476.684	0
476.883	0.07
477.083	0.05
477.282	0.01
477.482	0.05
477.681	0.08
477.881	0.04
478.08	-0.04
478.28	0
478.479	0
478.679	0.11
478.878	-0.02
479.078	-0
479.277	0.01
479.477	-0
479.676	0.05
479.875	-0
480.075	-0.03
480.274	0.02
480.473	0.04
480.673	-0
480.872	0.04
481.071	-0.01
481.271	0.05
481.47	0.02
481.669	-0.02
481.868	-0.02
482.067	0.01
482.267	-0.03
482.466	-0.01
482.665	-0.01
482.864	-0.05
483.063	-0.03
483.262	0.04
483.461	0.07
483.661	0.04
483.86	0.03
484.059	0.03
484.258	0.01
484.457	-0
484.656	-0.01
484.855	0.06
485.054	-0.01
485.253	0
485.452	-0.03
485.651	0
485.849	-0
486.048	-0.02
486.247	-0.02
486.446	0.01
486.645	-0.04
486.844	-0.02
487.043	-0
487.241	0.01
487.44	-0.02
487.639	-0.01
487.838	0.01
488.037	0.03
488.235	0.07
488.434	0
488.633	-0.01
488.831	0
489.03	0.02
489.229	0.01
489.427	-0.02
489.626	0.03
489.825	0.07
490.023	0.02
490.222	-0
490.42	0.01
490.619	0.02
490.817	0
491.016	-0.02
491.214	0.04
491.413	-0.01
491.611	-0.01
491.81	0.01
492.008	0.01
492.207	0.04
492.405	0.02
492.604	-0.03
492.802	0.02
493	0.02
493.199	-0.02
493.397	0.01
493.595	-0.03
493.794	-0.02
493.992	0.04
494.19	0.01
494.388	0.02
494.587	-0.01
494.785	0.01
494.983	-0.01
495.181	0.01
495.379	-0.01
495.578	0
495.776	0.02
495.974	0.03
496.172	0
496.37	-0.01
496.568	-0.02
496.766	-0.02
496.964	0.03
497.162	0
497.36	-0.02
497.558	0.04
497.756	0.03
497.954	0.02
498.152	0.01
498.35	0.01
498.548	-0.02
498.746	0
498.944	-0.02
499.142	-0.01
499.34	-0.03
499.538	-0.01
499.736	-0.01
499.933	0.04
500.131	0.06
500.329	-0.01
500.527	0.03
500.725	0.03
500.922	0.05
501.12	0.03
501.318	0.01
501.516	-0.03
501.713	0.03
501.911	-0
502.109	-0.03
502.306	0.03
502.504	-0.02
502.701	-0.01
502.899	-0
503.097	0.05
503.294	0.02
503.492	0.01
503.689	0.02
503.887	0.02
504.084	0.06
504.282	-0
504.479	-0.02
504.677	0
504.874	-0.01
505.072	0.03
505.269	-0.01
505.466	0.03
505.664	0.01
505.861	-0.02
506.059	-0.02
506.256	0.03
506.453	0
506.651	0.05
506.848	0.02
507.045	0.01
507.242	0
507.44	-0.02
507.637	-0
507.834	0.02
508.031	0.02
508.229	-0.01
508.426	0.01
508.623	0.04
508.82	-0.01
509.017	-0.02
509.214	0
509.411	0.03
509.608	-0.01
509.805	-0.01
510.003	-0.01
510.2	-0.03
510.397	0.03
510.594	0
510.791	-0.01
510.988	0.02
511.184	0.03
511.381	-0
511.578	-0
511.775	0.04
511.972	-0.02
512.169	-0.02
512.366	0
512.563	0.01
512.76	-0.03
512.956	0.03
513.153	-0.01
513.35	0.01
513.547	0
513.744	-0.03
513.94	-0.03
514.137	0.02
514.334	-0
514.53	0.01
514.727	0.01
514.924	0.05
515.12	-0
515.317	-0.02
515.514	0.01
515.71	-0.01
515.907	0
516.103	0.01
516.3	0.02
516.497	0.02
516.693	0.04
516.89	0.01
517.086	-0.01
517.283	0.06
517.479	0.04
517.676	0
517.872	-0.01
518.068	0
518.265	0.02
518.461	-0.02
518.658	-0.01
518.854	0.02
519.05	0.01
519.247	-0.01
519.443	0.03
519.639	0.02
519.836	-0
520.032	-0.01
520.228	0.01
520.424	0.04
520.621	0.02
520.817	-0
521.013	0.01
521.209	0.03
521.405	0.05
521.601	0.01
521.798	-0.01
521.994	0.04
522.19	-0
522.386	-0.01
522.582	-0.01
522.778	-0.01
522.974	0.01
523.17	-0
523.366	0.01
523.562	0.04
523.758	-0.01
523.954	-0
524.15	0.01
524.346	0.02
524.542	0
524.738	-0.01
524.934	-0.01
525.129	-0.02
525.325	0.02
525.521	-0.01
525.717	0.05
525.913	0.01
526.109	0
526.304	0.02
526.5	0.02
526.696	0.03
526.892	-0
527.087	0.01
527.283	-0.02
527.479	0.02
527.674	-0.04
527.87	-0.01
528.066	0
528.261	0.02
528.457	0
528.653	0.01
528.848	0.01
529.044	0
529.239	0.01
529.435	0.04
529.63	-0.01
529.826	0.03
530.021	0.01
530.217	0
530.412	-0.02
530.608	-0.01
530.803	-0.01
530.999	0.01
531.194	-0.04
531.389	0.01
531.585	-0.03
531.78	0.01
531.975	0.01
532.171	0.03
532.366	0.01
532.561	0.02
532.757	-0
532.952	-0.01
533.147	0.03
533.342	0.01
533.538	0
533.733	0.04
533.928	0.02
534.123	-0.01
534.318	-0.01
534.513	0.02
534.709	-0.01
534.904	-0.01
535.099	-0.01
535.294	0
535.489	0.02
535.684	-0.02
535.879	-0.03
536.074	0.02
536.269	-0.01
536.464	0.02
536.659	0
536.854	-0.02
537.049	-0.01
537.244	0
537.439	-0
537.634	0.05
537.828	0.02
538.023	-0
538.218	-0.01
538.413	0.01
538.608	-0.02
538.803	0.03
538.997	-0.03
539.192	0.02
539.387	0.03
539.582	0.01
539.776	0.02
539.971	-0
540.166	0.01
540.36	-0.02
540.555	0.02
540.75	0
540.944	0.01
541.139	-0.03
541.334	-0.03
541.528	0.02
541.723	0.03
541.917	-0.01
542.112	-0.04
542.306	0.01
542.501	-0.01
542.695	0
542.89	-0.02
543.084	0.01
543.279	-0.01
543.473	-0.02
543.668	0.02
543.862	0.02
544.056	0.05
544.251	0
544.445	0.02
544.64	0.02
544.834	-0.01
545.028	0.01
545.222	0
545.417	0.01
545.611	-0.01
545.805	0.01
546	0.01
546.194	-0
546.388	-0.02
546.582	0.03
546.776	0.01
546.97	0.01
547.165	0.02
547.359	0.02
547.553	-0.01
547.747	0.03
547.941	0.01
548.135	0
548.329	0.01
548.523	0.01
548.717	-0
548.911	-0.01
549.105	0.01
549.299	-0
549.493	0.04
549.687	0.02
549.881	0.01
550.075	-0.01
550.269	-0.03
550.463	0.02
550.657	-0.01
550.85	-0.01
551.044	-0.02
551.238	0.02
551.432	-0.01
551.626	-0.01
551.82	0
552.013	-0.03
552.207	0.01
552.401	0.04
552.594	-0
552.788	0.02
552.982	0.04
553.176	-0.01
553.369	0.01
553.563	0.01
553.756	-0.03
553.95	-0.01
554.144	0.01
554.337	0.03
554.531	0.01
554.724	0.02
554.918	0
555.111	0.01
555.305	0.02
555.498	0.05
555.692	0.02
555.885	-0.01
556.079	0.01
556.272	-0.01
556.466	0.02
556.659	0.01
556.852	0
557.046	0.01
557.239	0.02
557.432	-0.05
557.626	-0.01
557.819	0.02
558.012	0.02
558.206	0.02
558.399	0
558.592	0.01
558.785	-0.01
558.979	0.02
559.172	-0.01
559.365	0.03
559.558	0.03
559.751	0.01
559.944	0
560.138	-0
560.331	-0
560.524	-0
560.717	0.01
560.91	0.01
561.103	0.02
561.296	-0.01
561.489	0.02
561.682	0
561.875	0.03
562.068	0.03
562.261	0.02
562.454	0.03
562.647	0.03
562.84	0
563.032	0
563.225	-0
563.418	-0.02
563.611	0.01
563.804	-0.01
563.997	-0.04
564.19	-0.03
564.382	-0.05
564.575	0.01
564.768	0.01
564.961	-0.01
565.153	-0.02
565.346	0.02
565.539	0.02
565.731	0.02
565.924	0.05
566.117	0.01
566.309	-0.02
566.502	-0.01
566.695	0.01
566.887	-0
567.08	-0.01
567.272	-0.01
567.465	-0.02
567.657	0
567.85	0.02
568.042	0.03
568.235	0.04
568.427	-0
568.62	0.03
568.812	0.02
569.005	0.01
569.197	-0.02
569.389	0.03
569.582	0.02
569.774	0.03
569.966	-0.03
570.159	-0.02
570.351	0.03
570.543	-0.02
570.736	-0.01
570.928	0.01
571.12	0.02
571.312	0.01
571.505	-0.03
571.697	0.02
571.889	-0.01
572.081	0
572.273	-0.02
572.465	0.04
572.658	-0.02
572.85	0
573.042	0.01
573.234	-0.03
573.426	0.01
573.618	-0.02
573.81	0.02
574.002	0.04
574.194	0.04
574.386	-0.05
574.578	-0.06
574.77	-0
574.962	-0
575.154	-0.01
575.346	0
575.538	-0
575.729	-0.03
575.921	-0.01
576.113	-0.01
576.305	0.03
576.497	-0
576.689	0
576.88	-0
577.072	0.03
577.264	-0
577.456	0
577.647	-0.08
577.839	0.01
578.031	0.02
578.223	-0.02
578.414	-0.03
578.606	0.05
578.798	0.02
578.989	-0.02
579.181	-0
579.372	-0.01
579.564	-0.01
579.755	0
579.947	0.01
580.139	0.04
580.33	-0.05
580.522	-0.01
580.713	-0.05
580.905	-0.03
581.096	-0.01
581.287	-0.01
581.479	-0
581.67	0.03
581.862	0
582.053	0
582.244	-0.02
582.436	-0.01
582.627	0.02
582.818	-0.01
583.01	-0.05
583.201	0.03
583.392	0.02
583.583	-0.01
583.775	-0.02
583.966	-0.02
584.157	0.02
584.348	-0.02
584.54	-0.03
584.731	0.03
584.922	0.02
585.113	-0.01
585.304	0.01
585.495	0.01
585.686	-0.01
585.877	0
586.068	0.01
586.259	0.01
586.45	-0
586.641	0.01
586.832	-0.03
587.023	0.02
587.214	-0.02
587.405	-0.01
587.596	-0.03
587.787	0.03
587.978	0.01
588.169	-0.01
588.36	-0.03
588.551	0
588.742	-0
588.932	0.01
589.123	-0.01
589.314	0.01
589.505	0.01
589.696	0.03
589.886	-0.03
590.077	-0.05
590.268	0.01
590.458	-0.03
590.649	-0.04
590.84	0.04
591.03	-0.04
591.221	-0.04
591.412	-0.03
591.602	0.03
591.793	0.02
591.984	-0.02
592.174	-0.03
592.365	0.05
592.555	-0.03
592.746	0.04
592.936	0.03
593.127	0.01
593.317	0.02
593.508	-0.01
593.698	-0
593.889	0.02
594.079	0.02
594.269	-0
594.46	0.03
594.65	-0
594.84	-0.02
595.031	-0.01
595.221	-0
595.411	-0.05
595.602	0.02
595.792	-0.01
595.982	-0.01
596.172	0.05
596.363	0.01
596.553	0.01
596.743	-0
596.933	0
597.123	0.01
597.314	-0.03
597.504	-0.01
597.694	0.02
597.884	0.02
598.074	-0.02
598.264	-0
598.454	-0
598.644	-0.03
598.834	0.02
599.024	-0.06
599.214	-0.01
599.404	0.04
599.594	-0.02
599.784	-0.02
599.974	0.06
600.164	0.02
600.354	-0.01
600.544	-0.02
600.734	0.04
600.924	0.06
601.114	-0.02
601.303	0.01
601.493	0.01
601.683	-0
601.873	0.01
602.063	-0.05
602.252	0.05
602.442	-0.05
602.632	-0.03
602.821	-0.03
603.011	0.02
603.201	-0.02
603.39	-0.03
603.58	-0.03
603.77	0.01
603.959	0.03
604.149	-0.03
604.339	-0.02
604.528	0.02
604.718	0.03
604.907	-0.01
605.097	-0.02
605.286	-0.04
605.476	0.03
605.665	0.04
605.855	0.01
606.044	0.02
606.234	0.02
606.423	-0
606.612	-0.03
606.802	0.01
606.991	0.01
607.181	0
607.37	-0.05
607.559	-0
607.749	-0.06
607.938	0
608.127	-0.01
608.316	-0.01
608.506	0.03
608.695	-0.01
608.884	-0.03
609.073	-0
609.263	0.01
609.452	0.03
609.641	0.02
609.83	-0.02
610.019	-0.03
610.208	-0.02
610.397	-0.01
610.586	0.06
610.775	-0.03
610.965	-0.02
611.154	-0.02
611.343	-0.01
611.532	0
611.721	-0.01
611.91	0
612.099	0.04
612.287	0.04
612.476	-0.05
612.665	-0
612.854	-0.01
613.043	0.05
613.232	-0.03
613.421	-0.05
613.61	0.01
613.798	-0.02
613.987	0.03
614.176	-0
614.365	0.03
614.554	0.01
614.742	0.02
614.931	-0.01
615.12	0.04
615.309	0.01
615.497	0.02
615.686	-0.01
615.875	-0.01
616.063	0.01
616.252	-0.02
616.44	0
616.629	-0.02
616.818	0.02
617.006	-0
617.195	0.02
617.383	0.01
617.572	0.02
617.76	0.01
617.949	-0.02
618.137	0.03
618.326	0.08
618.514	-0.01
618.703	-0.01
618.891	0.06
619.079	-0.03
619.268	0.01
619.456	-0.02
619.644	0.06
619.833	-0.01
620.021	-0.01
620.209	-0.05
620.398	0
620.586	0.01
620.774	0.03
620.962	-0
621.151	0.06
621.339	0.01
621.527	-0.02
621.715	-0.01
621.903	-0.02
622.092	-0.05
622.28	0.01
622.468	0.01
622.656	0.03
622.844	0.04
623.032	-0
623.22	-0.05
623.408	0.02
623.596	-0
623.784	0.05
623.972	-0.03
624.16	0.01
624.348	0.05
624.536	0.01
624.724	-0.02
624.912	0.06
625.1	0.07
625.288	-0.01
625.476	-0.01
625.664	0.02
625.851	-0.01
626.039	-0.02
626.227	0.04
626.415	0
626.603	-0.05
626.79	0.01
626.978	0.02
627.166	0.01
627.354	0.01
627.541	-0.01
627.729	-0.07
627.917	0.02
628.104	0.07
628.292	0
628.48	0.01
628.667	-0.01
628.855	0.02
629.042	0.05
629.23	-0.02
629.418	0
629.605	-0.01
629.793	-0.02
629.98	-0.03
630.168	0.02
630.355	0
630.543	0.02
630.73	-0.05
630.917	0.04
631.105	0.07
631.292	-0
631.48	0
631.667	0.05
631.854	0.03
632.042	0
632.229	-0.04
632.416	-0.03
632.604	0.01
632.791	-0.01
632.978	0.04
633.165	0.03
633.353	0.08
633.54	0.04
633.727	-0.06
633.914	-0.02
634.101	-0.06
634.289	0.05
634.476	-0.02
634.663	-0.04
634.85	0.03
635.037	-0.04
635.224	-0.03
635.411	0.05
635.598	0.04
635.785	0
635.972	0.01
636.159	0.04
636.346	-0.02
636.533	-0.02
636.72	0.01
636.907	0.01
637.094	0.02
637.281	-0.03
637.468	0.01
637.655	-0.01
637.842	0
638.029	-0.01
638.215	0.02
638.402	0.04
638.589	-0
638.776	0.01
638.963	-0.02
639.149	0.04
639.336	0.06
639.523	0.01
639.709	-0.01
639.896	0.01
640.083	0.09
640.27	0.02
640.456	-0.02
640.643	0.04
640.829	-0.03
641.016	0
641.203	-0.04
641.389	0.04
641.576	0.03
641.762	0.03
641.949	0.02
642.135	0.02
642.322	0.03
642.508	-0
642.695	-0
642.881	0.01
643.068	-0.01
643.254	0.04
643.441	0.04
643.627	0.01
643.813	-0.01
644	0.07
644.186	0
644.372	-0.01
644.559	0.04
644.745	0.02
644.931	-0.01
645.118	0.02
645.304	0.02
645.49	-0.01
645.676	0.01
645.862	0.01
646.049	0.04
646.235	0
646.421	0.07
646.607	0.06
646.793	0
646.979	-0.02
647.165	0.03
647.352	0.02
647.538	0.06
647.724	0.02
647.91	0.03
648.096	0.02
648.282	0.03
648.468	0
648.654	0.02
648.84	0.03
649.026	0.02
649.212	0
649.397	0
649.583	-0
649.769	0.04
649.955	0
650.141	0.03
650.327	0.08
650.513	-0
650.698	0.04
650.884	-0.02
651.07	0.06
651.256	0.06
651.442	0.03
651.627	0.02
651.813	0.05
651.999	0.03
652.184	0.06
652.37	-0.04
652.556	-0.03
652.741	0.06
652.927	-0.03
653.113	0.03
653.298	0.04
653.484	0.02
653.669	-0.01
653.855	0.01
654.04	0.04
654.226	0.02
654.412	0.02
654.597	-0.02
654.782	0.04
654.968	0.03
655.153	0.05
655.339	-0.02
655.524	-0.01
655.71	0.05
655.895	0.01
656.08	0.03
656.266	0.06
656.451	0.05
656.636	0.02
656.822	0.03
657.007	-0.01
657.192	0.04
657.378	0
657.563	0.04
657.748	0.07
657.933	0.04
658.118	-0
658.304	0.03
658.489	0.06
658.674	0.04
658.859	0.01
659.044	0.07
659.229	0.06
659.414	0.03
659.599	0.04
659.785	0.01
659.97	0.01
660.155	0.05
660.34	0.03
660.525	0.04
660.71	0.05
660.895	0.05
661.08	0.02
661.264	0.06
661.449	0.07
661.634	0.06
661.819	0.05
662.004	0.09
662.189	-0.03
662.374	-0.01
662.559	0.02
662.743	0.02
662.928	0
663.113	0
663.298	-0.01
663.483	0.07
663.667	0.05
663.852	0.03
664.037	0.12
664.221	0.02
664.406	0.08
664.591	0.07
664.775	0.06
664.96	0.07
665.145	0.06
665.329	0.07
665.514	0.03
665.698	0.05
665.883	0.02
666.068	0.12
666.252	0.01
666.437	0.05
666.621	0.06
666.806	0.06
666.99	0.05
667.174	0.05
667.359	0.13
667.543	0.03
667.728	0.07
667.912	0.01
668.096	0.09
668.281	0.01
668.465	0.06
668.649	0.07
668.834	0.05
669.018	0.05
669.202	0.07
669.387	0.01
669.571	0.12
669.755	0.08
669.939	0.05
670.124	0.08
670.308	0.16
670.492	0.14
670.676	0.1
670.86	0.09
671.044	0.03
671.228	0.15
671.413	0.03
671.597	0.07
671.781	0.03
671.965	0.13
672.149	0.09
672.333	0.13
672.517	0.08
672.701	0.12
672.885	0.08
673.069	0.06
673.253	0.16
673.437	0.04
673.621	0.1
673.804	0.1
673.988	0.1
674.172	0.11
674.356	0.04
674.54	0.08
674.724	0.19
674.908	0.13
675.091	0.14
675.275	0.11
675.459	0.15
675.643	0.19
675.826	0.15
676.01	0.14
676.194	0.14
676.377	0.18
676.561	0.14
676.745	0.15
676.928	0.13
677.112	0.19
677.296	0.13
677.479	0.14
677.663	0.15
677.846	0.18
678.03	0.13
678.213	0.15
678.397	0.17
678.58	0.14
678.764	0.17
678.947	0.13
679.131	0.07
679.314	0.17
679.498	0.14
679.681	0.18
679.865	0.23
680.048	0.17
680.231	0.2
680.415	0.18
680.598	0.17
680.781	0.16
680.965	0.19
681.148	0.2
681.331	0.21
681.514	0.24
681.698	0.16
681.881	0.21
682.064	0.19
682.247	0.23
682.43	0.15
682.614	0.26
682.797	0.27
682.98	0.23
683.163	0.19
683.346	0.26
683.529	0.19
683.712	0.21
683.895	0.25
684.078	0.18
684.261	0.25
684.444	0.29
684.627	0.27
684.81	0.23
684.993	0.25
685.176	0.27
685.359	0.27
685.542	0.28
685.725	0.32
685.908	0.31
686.091	0.26
686.274	0.39
686.457	0.28
686.639	0.3
686.822	0.37
687.005	0.29
687.188	0.3
687.371	0.44
687.553	0.44
687.736	0.33
687.919	0.46
688.102	0.42
688.284	0.29
688.467	0.37
688.65	0.36
688.832	0.36
689.015	0.39
689.197	0.32
689.38	0.46
689.563	0.51
689.745	0.36
689.928	0.37
690.11	0.41
690.293	0.46
690.475	0.34
690.658	0.51
690.84	0.41
691.023	0.44
691.205	0.43
691.388	0.43
691.57	0.54
691.752	0.54
691.935	0.45
692.117	0.44
692.3	0.58
692.482	0.46
692.664	0.52
692.847	0.56
693.029	0.58
693.211	0.58
693.393	0.53
693.576	0.47
693.758	0.57
693.94	0.56
694.122	0.53
694.304	0.56
694.487	0.58
694.669	0.65
694.851	0.61
695.033	0.61
695.215	0.66
695.397	0.58
695.579	0.75
695.761	0.61
695.943	0.64
696.125	0.73
696.308	0.7
696.49	0.6
696.671	0.82
696.853	0.81
697.035	1
697.217	0.75
697.399	0.83
697.581	0.77
697.763	0.82
697.945	0.73
698.127	0.79
698.309	0.77
698.491	0.88
698.672	0.95
698.854	0.89
699.036	0.94
699.218	0.95
699.399	0.95
699.581	0.94
699.763	0.87
699.945	0.91
700.126	0.95
700.308	1.05
700.49	1.01
700.671	0.99
700.853	1.01
701.035	1.04
701.216	1.12
701.398	1.11
701.579	1.07
701.761	1.22
701.943	1.11
702.124	1.14
702.306	1.18
702.487	1.35
702.669	1.21
702.85	1.21
703.031	1.17
703.213	1.36
703.394	1.33
703.576	1.3
703.757	1.54
703.938	1.44
704.12	1.55
704.301	1.37
704.483	1.39
704.664	1.51
704.845	1.62
705.026	1.62
705.208	1.52
705.389	1.61
705.57	1.64
705.751	1.59
705.933	1.7
706.114	1.74
706.295	1.7
706.476	1.64
706.657	1.85
706.838	1.82
707.02	1.86
707.201	1.85
707.382	1.87
707.563	1.95
707.744	1.89
707.925	1.91
708.106	1.99
708.287	2.1
708.468	2.14
708.649	2.08
708.83	2.08
709.011	2.07
709.192	2.24
709.373	2.22
709.554	2.2
709.734	2.41
709.915	2.39
710.096	2.37
710.277	2.37
710.458	2.41
710.639	2.46
710.819	2.45
711	2.58
711.181	2.63
711.362	2.65
711.542	2.63
711.723	2.76
711.904	2.86
712.085	2.85
712.265	2.86
712.446	2.79
712.627	2.96
712.807	2.87
712.988	2.98
713.168	3
713.349	3.16
713.53	2.98
713.71	3.2
713.891	3.18
714.071	3.31
714.252	3.32
714.432	3.38
714.613	3.42
714.793	3.61
714.974	3.67
715.154	3.7
715.334	3.68
715.515	3.8
715.695	3.69
715.876	3.85
716.056	3.96
716.236	3.84
716.417	4.22
716.597	4.06
716.777	4.32
716.957	4.2
717.138	4.4
717.318	4.31
717.498	4.37
717.678	4.54
717.859	4.46
718.039	4.62
718.219	4.7
718.399	4.74
718.579	4.65
718.759	4.89
718.939	5.05
719.12	5.02
719.3	5.19
719.48	5.2
719.66	5.03
719.84	5.32
720.02	5.36
720.2	5.38
720.38	5.55
720.56	5.8
720.74	5.78
720.92	5.99
721.1	6.09
721.279	6.07
721.459	5.99
721.639	6.18
721.819	6.38
721.999	6.42
722.179	6.52
722.359	6.39
722.538	6.71
722.718	6.67
722.898	6.74
723.078	7.05
723.257	7.03
723.437	7.3
723.617	7.32
723.797	7.36
723.976	7.54
724.156	7.77
724.336	7.72
724.515	7.92
724.695	7.8
724.874	7.93
725.054	8.22
725.234	8.13
725.413	8.37
725.593	8.41
725.772	8.51
725.952	8.68
726.131	8.64
726.311	8.84
726.49	8.85
726.67	8.99
726.849	9.18
727.028	9.33
727.208	9.23
727.387	9.52
727.567	9.62
727.746	9.67
727.925	9.93
728.105	9.8
728.284	9.95
728.463	10.02
728.643	10.29
728.822	10.27
729.001	10.32
729.18	10.69
729.359	10.77
729.539	11.02
729.718	10.93
729.897	11.08
730.076	11.27
730.255	11.21
730.434	11.54
730.614	11.54
730.793	12.09
730.972	11.93
731.151	12.07
731.33	12.06
731.509	12.31
731.688	12.16
731.867	12.45
732.046	12.3
732.225	12.78
732.404	12.65
732.583	12.77
732.762	13.23
732.941	13.36
733.12	13.55
733.298	13.54
733.477	13.49
733.656	13.63
733.835	13.99
734.014	13.85
734.193	14.09
734.371	14.16
734.55	14.22
734.729	14.38
734.908	14.39
735.086	14.45
735.265	14.79
735.444	14.65
735.623	14.85
735.801	15.17
735.98	15.26
736.159	15.28
736.337	15.27
736.516	15.3
736.694	15.09
736.873	15.2
737.052	15.96
737.23	15.44
737.409	15.37
737.587	15.75
737.766	15.52
737.944	15.78
738.123	16.14
738.301	15.94
738.479	15.91
738.658	15.88
738.836	15.54
739.015	15.77
739.193	15.74
739.371	15.26
739.55	15.02
739.728	15.17
739.906	15.3
740.085	15.21
740.263	15.08
740.441	14.81
740.62	15.08
740.798	14.57
740.976	14.49
741.154	14.18
741.332	14.44
741.511	13.79
741.689	13.71
741.867	13.66
742.045	13.28
742.223	12.79
742.401	12.61
742.579	12.18
742.757	12.46
742.935	11.84
743.114	11.74
743.292	11.43
743.47	11.32
743.648	11.15
743.826	10.86
744.004	10.62
744.181	10.49
744.359	9.9
744.537	9.81
744.715	9.48
744.893	9.38
745.071	8.99
745.249	8.73
745.427	8.52
745.605	8.28
745.782	8.19
745.96	8.03
746.138	7.83
746.316	7.51
746.493	7.14
746.671	6.99
746.849	6.76
747.027	6.53
747.204	6.3
747.382	6.37
747.56	5.81
747.737	5.67
747.915	5.5
748.093	5.55
748.27	5.2
748.448	5.11
748.625	4.92
748.803	4.76
748.98	4.56
749.158	4.59
749.335	4.41
749.513	4.29
749.69	4.01
749.868	3.8
750.045	3.85
750.223	3.76
750.4	3.48
750.578	3.73
750.755	3.58
750.932	3.13
751.11	3.32
751.287	3.05
751.464	3.16
751.642	2.97
751.819	2.89
751.996	2.78
752.173	2.56
752.351	2.63
752.528	2.66
752.705	2.39
752.882	2.33
753.06	2.32
753.237	2.32
753.414	2.44
753.591	2.28
753.768	2.04
753.945	1.82
754.122	1.84
754.299	2.06
754.476	1.74
754.654	1.86
754.831	1.86
755.008	1.61
755.185	1.6
755.362	1.47
755.539	1.63
755.716	1.42
755.892	1.51
756.069	1.6
756.246	1.38
756.423	1.51
756.6	1.52
756.777	1.31
756.954	1.28
757.131	1.19
757.307	1.13
757.484	1.04
757.661	1.16
757.838	0.99
758.015	0.89
758.191	1.11
758.368	1.13
758.545	1.14
758.721	0.93
758.898	0.81
759.075	1.03
759.251	0.94
759.428	0.86
759.605	0.78
759.781	0.9
759.958	0.86
760.134	0.87
760.311	0.59
760.488	0.85
760.664	0.79
760.841	0.78
761.017	0.55
761.194	0.73
761.37	0.72
761.547	0.81
761.723	0.5
761.899	0.76
762.076	0.57
762.252	0.41
762.429	0.56
762.605	0.59
762.781	0.64
762.958	0.73
763.134	0.4
763.31	0.37
763.486	0.63
763.663	0.35
763.839	0.51
764.015	0.22
764.191	0.43
764.368	0.32
764.544	0.31
764.72	0.43
764.896	0.52
765.072	0.48
765.248	0.37
765.425	0.32
765.601	0.32
765.777	0.29
765.953	0.16
766.129	0.23
766.305	0.31
766.481	0.54
766.657	0.31
766.833	0.42
767.009	0.21
767.185	0.21
767.361	0.38
767.537	0.12
767.713	0.46
767.889	0.32
768.065	0.31
768.24	0.05
768.416	0.34
768.592	0.22
768.768	0.35
768.944	0.33
769.12	0.25
769.295	0.28
769.471	0.32
769.647	0.14
769.823	0.37
769.998	0.15
770.174	0.21
770.35	0.41
770.525	0.51
770.701	0.14
770.877	0.26
771.052	0.02
771.228	0.26
771.403	0.31
771.579	0.25
771.755	0.34
771.93	0.04
772.106	0.13
772.281	-0.25
772.457	0.29
772.632	0.1
772.808	0.03
772.983	0.24
773.159	-0
773.334	0.31
773.509	0.09
773.685	0.06
773.86	0.52
774.036	0.27
774.211	0.15
774.386	0.15
774.562	0.13
774.737	0.3
774.912	0.11
775.087	0.17
775.263	0.28
775.438	0.13
775.613	0.11
775.788	0.2
775.964	0.26
776.139	0.39
776.314	-0.13
776.489	0.23
776.664	0.21
776.839	0
777.014	0.24
777.19	0.16
777.365	0.15
777.54	0.33
777.715	0.07
777.89	0.27
778.065	-0.15
778.24	0.1
778.415	0.24
778.59	-0.09
778.765	0.08
778.94	0.13
779.115	0.17
779.289	0.05
779.464	0.06
779.639	-0.01
779.814	0.03
779.989	-0.11
780.164	0.42
780.339	0.02
780.513	0.08
780.688	0.11
780.863	0.02
781.038	0.31
781.212	0.04
781.387	0.01
781.562	0.4
781.737	0.1
781.911	0.37
782.086	0.1
782.261	0.1
782.435	0.33
782.61	-0.04
782.784	0
782.959	0.34
783.134	0.06
783.308	0.05
783.483	-0.01
783.657	0.52
783.832	0.2
784.006	-0.24
784.181	0.14
784.355	0.3
784.53	-0.27
784.704	0.05
784.878	0.58
785.053	0.27
785.227	0.3
785.402	0.54
785.576	0.04
785.75	0.16
785.925	0.05
786.099	0.18
786.273	0.09
786.448	0.41
786.622	0.11
786.796	0.25
786.97	0.14
787.145	0.28
787.319	-0.44
787.493	0.17
787.667	-0.19
787.841	0.16
788.015	0.28
788.19	-0.04
788.364	0.05
788.538	0.14
788.712	0.19
788.886	0.22
789.06	0.36
789.234	0.23
789.408	-0.1
789.582	0.16
789.756	0.17
789.93	-0.05
790.104	-0.01
790.278	0.09
790.452	-0.15
790.626	0.18
790.8	-0.05
790.973	0.36
791.147	0.41
791.321	0.29
791.495	0.27
791.669	0.25
791.843	0.04
792.016	0.13
792.19	0.49
792.364	-0.14
792.538	0.61
792.711	0.27
792.885	-0.13
793.059	-0.2
793.233	-0.31
793.406	0.23
793.58	0.08
793.754	0.17
793.927	0.07
794.101	0.4
794.274	0.19
794.448	0.16
794.622	-0.05
794.795	0.39
794.969	-0.14
795.142	0.44
795.316	0.02
795.489	0.06
795.663	0.55
795.836	0.03
796.009	-0
796.183	0.41
796.356	0.17
796.53	0.18
796.703	-0.06
796.876	0.69
797.05	-0.11
797.223	-0.1
797.396	0.44
797.57	0.06
797.743	0.5
797.916	0.27
798.09	0.02
798.263	0.34
798.436	0.28
798.609	0.09
798.782	-0
798.956	0.18
799.129	0
799.302	-0.02
799.475	0.11
799.648	-0.01
799.821	-0.15
799.994	0.24
800.167	-0.38
800.34	-0.05
800.514	0.05
800.687	0.14
800.86	-0.05
801.033	0.15
801.206	0.06
801.379	-0.12
801.551	0.48
801.724	0.2
801.897	0.44
802.07	-0.26
802.243	-0.04
802.416	0.18
802.589	-0.02
802.762	0.15
802.935	-0
803.107	0.39
803.28	0.28
803.453	0.23
803.626	0.05
803.798	0.33
803.971	-0.18
804.144	0.52
804.317	0.24
804.489	0.23
804.662	0.14
804.835	0.24
805.007	-0.19
805.18	0.54
805.353	0.32
805.525	-0.02
805.698	0.16
805.87	0.49
806.043	0.24
806.215	-0.37
806.388	0.06
806.56	0.07
806.733	0.37
806.905	0.36
807.078	-0.05
807.25	0.13
807.423	0.11
807.595	0.12
807.768	0.41
807.94	0.52
808.112	0.62
808.285	0.07
808.457	0.04
808.629	0
808.802	0.2
808.974	0.29
809.146	-0.25
809.318	-0.08
809.491	0.39
809.663	0.33
809.835	-0.2
810.007	0.81
810.18	0.17
810.352	-0.39
810.524	0.14
810.696	0.05
810.868	0.59
811.04	0.05
811.212	0.31
811.384	0.31
811.556	-0.21
811.728	0.15
811.901	0.56
812.073	-0.13
812.245	0.3
812.417	0.12
812.589	-0.27
812.76	-0.02
812.932	-0.33
813.104	0.33
813.276	0.06
813.448	0.21
813.62	-0.22
813.792	0.18
813.964	0.49
814.136	0.43
814.307	0.18
814.479	-0.22
814.651	0.04
814.823	0.92
814.995	-0.15
815.166	-0
815.338	0
815.51	-0.1
815.681	0.64
815.853	0.34
816.025	-0.39
816.196	0.33
816.368	0.46
816.54	-0.45
816.711	-0.26
816.883	0.54
817.054	0.78
817.226	-0.62
817.398	0.56
817.569	0.04
817.741	0.58
817.912	-0.1
818.084	-0.04
818.255	0.33
818.426	0.01
818.598	0.17
818.769	-0.19
818.941	0.56
819.112	0.39
819.283	0.56
819.455	-0.27
819.626	0.31
819.798	0.21
819.969	0.32
820.14	0.01
820.311	-0.44
820.483	0.26
820.654	0.2
820.825	0.04
820.996	0.08
821.168	-0.23
821.339	0.06
821.51	-0.48
821.681	1.31
821.852	-0.21
822.023	0.07
822.195	-0.34
822.366	0.54
822.537	0.04
822.708	0.06
822.879	-0.57
823.05	0.47
823.221	-0.13
823.392	0.56
823.563	-0.17
823.734	0.16
823.905	0.31
824.076	0.22
824.247	0.11
824.418	-0.4
824.589	0.62
824.759	0.13
824.93	-0.15
825.101	-0.45
825.272	0.12
825.443	0.59
825.614	0.3
825.784	-0.44
825.955	1.06
826.126	1.16
826.297	0.62
826.467	1.09
826.638	0.81
826.809	-0.91
826.98	0.66
827.15	-0.07
827.321	0.04
827.492	1.07
827.662	0.17
827.833	1.07
828.003	0.63
828.174	-0.28
828.345	-0.64
828.515	-0.31
828.686	0.56
828.856	-0.56
829.027	0.33
829.197	0.25
829.368	0.48
829.538	0.02
829.709	-0.11
829.879	0.43
830.049	0.81
830.22	0.17
830.39	0.19
830.56	1.16
830.731	0.58
830.901	-0.29
831.072	0.47
831.242	0.27
831.412	0.25
831.582	0.54
831.753	-0.78
831.923	1.08
832.093	-0.03
832.263	0.08
832.434	-0.67
832.604	-0.22
832.774	0.72
832.944	-0.1
833.114	-0.16
833.284	0.8
833.454	-0.13
833.624	-0.06
833.795	0.1
833.965	1.11
834.135	0.82
834.305	-1.04
834.475	-0.23
834.645	-0.3
834.815	-0.17
834.985	-0.19
835.155	-0.42
835.325	0.24
835.494	0.75
835.664	0.22
835.834	-0.93
836.004	0.66
836.174	0.9
836.344	-0.3
836.514	0.14
836.684	-0.08
836.853	0.2
837.023	0.36
837.193	-0.28
837.363	0.81
837.532	0.94
837.702	0.25
837.872	-0.5
838.041	0.56
838.211	1.64
838.381	-0.7
838.55	0.19
838.72	2.18
838.89	1.09
839.059	-0.33
839.229	-0.36
839.398	1.08
839.568	0.08
839.738	-0.14
839.907	1.1
840.077	0.67
840.246	-0.98
840.416	-0.47
840.585	-0.41
840.755	1.26
840.924	1.19
841.093	0.04
841.263	0.46
841.432	0.59
841.602	-0.17
841.771	-0.64
841.94	-0.22
842.11	2.17
842.279	1.79
842.448	-0.26
842.617	-0.53
842.787	1.31
842.956	-1.03
843.125	0.12
843.294	0.64
843.464	1.6
843.633	0.29
843.802	-1.02
843.971	0.32
844.14	0.63
844.309	0.64
844.479	-1.22
844.648	-0.49
844.817	-0.02
844.986	0.44
845.155	0.69
845.324	-0.45
845.493	0.39
845.662	0.01
845.831	1.11
846	0.62
846.169	0.38
846.338	1.02
846.507	0.95
846.676	0.7
846.844	-0.16
847.013	0.91
847.182	0.67
847.351	-0.25
847.52	-0.72
847.689	0.5
847.858	-0.09
848.026	-0.82
848.195	0.56
848.364	0.46
848.533	0.42
848.701	-0.71
848.87	-0.47
849.039	1.2
849.207	0.61
849.376	1.38
849.545	2.1
849.713	0.03
849.882	0.17
850.051	-0.2
850.219	0.3
850.388	1.6
850.556	-0.69
850.725	0.18
850.893	0.71
851.062	-0.62
851.23	0.39
851.399	-0.69
851.567	-0.09
851.736	0.95
851.904	-0.45
852.073	0.49
852.241	0.7
852.41	1.17
852.578	-0.4
852.746	0.28
852.915	1.12
853.083	0.32
853.251	-0.73
853.42	-0
853.588	0.36
853.756	1.79
853.924	0.23
854.093	0.24
854.261	0.08
854.429	-1.23
854.597	0.61
854.765	-0.28
854.934	0.91
855.102	1.81
855.27	-0.13
855.438	1.13
855.606	1.13
855.774	1.7
855.942	-0.91
856.11	-1.36
856.278	0.88
856.446	0.38
856.614	0.04
856.782	-0.02
856.95	1.17
857.118	1.45
857.286	1.17
857.454	0.64
857.622	1.11
857.79	1.17
857.958	-0.91
858.126	0.61
858.294	-2.36
858.462	-0.25
858.629	0.18
858.797	-0.69
858.965	-0.17
859.133	1.38
859.301	0.07
859.468	1.94
859.636	0.08
859.804	2.47
859.971	1.67
860.139	0.09
860.307	1.74
860.474	1.18
860.642	-0.19
860.81	0.59
860.977	0.64
861.145	0.79
861.313	0.36
861.48	0.78
861.648	1.08
861.815	1.17
861.983	-0.18
862.15	1.08
862.318	1.72
862.485	2.03
862.653	-0.18
862.82	-0.88
862.988	2.37
863.155	1.67
863.322	-0.45
863.49	-0.61
863.657	0.12
863.824	2.81
863.992	1.26
864.159	0.26
864.326	1.72
864.494	0.28
864.661	3.41
864.828	0.12
864.996	3.28
865.163	1.31
865.33	-0.76
865.497	-0.49
865.664	0.01
865.832	-1.6
865.999	0.92
866.166	-0.02
866.333	1.31
866.5	-1.09
866.667	0.65
866.834	0.44
867.001	2.13
867.168	-1.05
867.335	1.45
867.502	-1.49
867.669	1.11
867.836	2.63
868.003	0.73
868.17	2.92
868.337	2.15
868.504	2.34
868.671	-1.16
868.838	-0.56
869.005	0.58
869.172	1.19
869.339	1.53
869.505	0.29
869.672	0.74
869.839	4.05
870.006	-0.07
870.173	-1.13
870.339	1.74
870.506	3.4
870.673	1.12
870.84	1.76
871.006	0.09
871.173	-0.18
871.34	1.7
871.506	1.24
871.673	2.17
871.839	-0.43
872.006	0.35
872.173	1.67
872.339	1.76
872.506	2.81
872.672	-0.04
872.839	-2.95
873.005	0.89
873.172	3.91
873.338	1.73
873.505	2.91
873.671	1.36
873.838	2.06
874.004	0.38
874.171	0.03
874.337	1.81
874.503	1.14
874.67	0.89
874.836	0.58
875.002	1.15
875.169	1.49
875.335	1.13
875.501	-0.06
875.668	1.58
875.834	-0.33
876	1.15
876.166	1.78
876.332	1.79
876.499	3.57
876.665	-0.19
876.831	1
876.997	4.15
877.163	2.86
877.329	-0.37
877.495	2.15
877.662	1.33
877.828	2.14
877.994	0.8
878.16	-1.71
878.326	-0.3
878.492	2.14
878.658	0.29
878.824	2.37
878.99	1.28
879.156	2.38
879.322	4.32
879.487	0.61
879.653	0.14
879.819	-0.23
879.985	0.74
880.151	0.31
880.317	2.12
880.483	2.21
880.648	2.63
880.814	-2.84
880.98	2
881.146	-1.3
881.312	0.76
881.477	1.14
881.643	1.98
881.809	2.61
881.974	2.79
882.14	-0.57
882.306	1.46
882.471	4.02
882.637	1.06
882.803	2.84
882.968	3.36
883.134	4.78
883.299	2.12
883.465	0.59
883.63	2.66
883.796	2.92
883.961	2.29
884.127	1.54
884.292	-2.35
884.458	-1.26
884.623	-1.26
