Data from Apollo_Calib_20240827__AbsoluteIrradiance__270__03-39-01-246.txt Node

Date: Wed Aug 28 03:39:01 BST 2024
User: biology
Spectrometer: FLMT08252
Trigger mode: 0
Integration Time (sec): 5.000000E-1
Scans to average: 5
Electric dark correction enabled: true
Nonlinearity correction enabled: false
Boxcar width: 0
XAxis mode: Wavelengths
Number of Pixels in Spectrum: 3648
>>>>>Begin Spectral Data<<<<<
179.588	-0
179.809	-0
180.03	-0
180.251	-0
180.473	-0
180.694	0
180.915	0
181.136	-0
181.357	0
181.578	-0
181.799	-0
182.02	-0
182.241	0
182.462	-0
182.683	0
182.904	-0
183.125	-0
183.346	0
183.567	0
183.788	0
184.009	-0
184.23	0
184.451	0
184.672	-0
184.892	-0
185.113	0
185.334	0
185.555	-0
185.776	-0
185.996	0
186.217	0
186.438	0
186.659	-0
186.879	0
187.1	0
187.321	-0
187.541	-0
187.762	0
187.983	0
188.203	-0
188.424	0
188.644	-0
188.865	0
189.086	-0
189.306	-0
189.527	-0
189.747	0
189.968	-0
190.188	0
190.409	-0
190.629	0
190.849	-0
191.07	0
191.29	0
191.511	0
191.731	-0
191.951	-0
192.172	0
192.392	0
192.612	0
192.833	-0
193.053	0
193.273	0
193.493	-0
193.714	0
193.934	0
194.154	0
194.374	0
194.594	0
194.815	0
195.035	0
195.255	0
195.475	-0
195.695	0
195.915	0
196.135	0
196.355	0
196.575	0
196.795	0
197.015	-0
197.235	-0
197.455	-0
197.675	0
197.895	-0
198.115	-0
198.335	0
198.555	0
198.775	0
198.995	0
199.214	0
199.434	0
199.654	-0
199.874	0
200.094	1.19
200.313	0.29
200.533	0.02
200.753	-0.96
200.973	0.73
201.192	1.37
201.412	-0.52
201.632	-0.02
201.851	1.18
202.071	-0.27
202.291	-0.13
202.51	-0.51
202.73	0.85
202.95	-0.44
203.169	-0.28
203.389	0.21
203.608	0.47
203.828	0.05
204.047	-0.4
204.267	0.89
204.486	0.6
204.706	0.68
204.925	-0
205.145	0.03
205.364	0.37
205.583	1.3
205.803	0.05
206.022	-0.26
206.242	0.15
206.461	0.81
206.68	-0.13
206.9	0.33
207.119	0.32
207.338	0.86
207.557	0.12
207.777	0.06
207.996	-0
208.215	0.72
208.434	-0.22
208.654	-0.38
208.873	0.35
209.092	0.4
209.311	0.2
209.53	-0
209.749	0.1
209.968	-0.19
210.187	0.14
210.407	-0.2
210.626	-0.01
210.845	0.46
211.064	0.27
211.283	-0.31
211.502	0.37
211.721	-0.04
211.94	-0.13
212.159	0.61
212.377	0.27
212.596	0.62
212.815	0.19
213.034	0.23
213.253	0.3
213.472	0.17
213.691	0.19
213.91	-0.06
214.128	-0.12
214.347	0.35
214.566	-0.38
214.785	-0.23
215.003	0.3
215.222	0.3
215.441	0.16
215.66	-0.11
215.878	0.03
216.097	0.36
216.316	-0.02
216.534	-0.03
216.753	0.05
216.972	0.06
217.19	0.07
217.409	-0.12
217.627	-0.02
217.846	0.16
218.064	-0.02
218.283	0.03
218.501	0.49
218.72	0.38
218.938	-0.1
219.157	-0.03
219.375	0.36
219.594	0.18
219.812	-0.08
220.031	-0.15
220.249	0.62
220.467	0.32
220.686	-0.01
220.904	-0.21
221.122	0.02
221.341	0.37
221.559	0.08
221.777	-0.18
221.995	0.18
222.214	0.17
222.432	0.17
222.65	0.32
222.868	0.17
223.086	0.14
223.305	0.23
223.523	0
223.741	0.47
223.959	-0.12
224.177	-0.05
224.395	0.06
224.613	0.08
224.831	0.33
225.049	-0.08
225.267	-0.05
225.485	0.08
225.703	-0.01
225.921	0.02
226.139	0
226.357	0.22
226.575	0.26
226.793	0.01
227.011	0.56
227.229	0.2
227.447	0.27
227.665	0.14
227.883	-0.21
228.1	0.14
228.318	0.02
228.536	-0.12
228.754	0
228.972	0.22
229.189	0.07
229.407	-0.02
229.625	-0.07
229.843	0.24
230.06	0.32
230.278	0.09
230.496	0.1
230.713	0.19
230.931	0.18
231.149	0.03
231.366	-0.05
231.584	0.02
231.801	0.39
232.019	0.05
232.236	-0.01
232.454	0.02
232.671	0.16
232.889	0.01
233.106	-0.07
233.324	0.07
233.541	-0
233.759	0.16
233.976	-0.05
234.194	0.08
234.411	0.05
234.628	-0.12
234.846	0.01
235.063	0.1
235.28	0.05
235.498	0.02
235.715	-0.15
235.932	0.19
236.149	0.13
236.367	-0.1
236.584	0.1
236.801	-0.03
237.018	0.1
237.236	0.04
237.453	-0.01
237.67	0.17
237.887	0.17
238.104	0.04
238.321	-0.1
238.538	-0.03
238.755	0.23
238.973	-0.1
239.19	0.02
239.407	0.17
239.624	0.09
239.841	-0.06
240.058	-0.05
240.275	0.09
240.492	-0.03
240.709	0.02
240.925	0.05
241.142	0.08
241.359	-0.13
241.576	-0.06
241.793	-0.13
242.01	0.12
242.227	0.16
242.444	0.12
242.66	0.1
242.877	0.14
243.094	0.02
243.311	0.09
243.527	-0.03
243.744	0.09
243.961	0.09
244.178	-0.12
244.394	0.01
244.611	0.24
244.828	0.22
245.044	-0.03
245.261	-0.04
245.477	0.15
245.694	0.1
245.911	-0.01
246.127	-0.02
246.344	0.09
246.56	0.16
246.777	0.07
246.993	-0.03
247.21	0.14
247.426	0.14
247.643	-0
247.859	-0.03
248.076	-0
248.292	0.21
248.508	-0
248.725	0.01
248.941	0.14
249.157	0.13
249.374	-0.04
249.59	0.09
249.806	0.04
250.023	0.07
250.239	-0.1
250.455	-0.08
250.671	0.06
250.888	0.08
251.104	0.15
251.32	0.01
251.536	0.11
251.752	0.03
251.969	0.04
252.185	-0.01
252.401	0.23
252.617	0.18
252.833	0.01
253.049	-0.01
253.265	0.09
253.481	0.03
253.697	-0
253.913	-0.01
254.129	0.06
254.345	-0
254.561	0.04
254.777	-0.01
254.993	0.08
255.209	0.03
255.425	0.01
255.641	0.01
255.857	0.12
256.073	0.05
256.288	0.01
256.504	-0.01
256.72	0.07
256.936	0.15
257.152	0.05
257.367	0.02
257.583	-0.01
257.799	0.17
258.015	0.02
258.23	-0
258.446	0.23
258.662	0.02
258.877	0
259.093	-0.04
259.309	0.04
259.524	0.09
259.74	-0.02
259.955	-0.1
260.171	-0.04
260.387	0.01
260.602	0.09
260.818	0.1
261.033	-0.05
261.249	0.07
261.464	-0.02
261.68	-0.06
261.895	0.1
262.11	0.11
262.326	-0.03
262.541	0.01
262.757	0.14
262.972	0.1
263.187	0.07
263.403	0.07
263.618	0.22
263.833	0.1
264.049	-0.04
264.264	0
264.479	0.11
264.694	0.18
264.91	-0.01
265.125	0.05
265.34	0.06
265.555	0.19
265.77	0.1
265.986	0.02
266.201	0.03
266.416	0.13
266.631	0.03
266.846	-0
267.061	0.08
267.276	0.13
267.491	-0.09
267.706	0.08
267.921	0.06
268.136	0.05
268.351	0.03
268.566	-0.11
268.781	0.15
268.996	0.14
269.211	0.02
269.426	-0.05
269.641	-0.02
269.856	0.09
270.071	-0.04
270.285	-0.05
270.5	0.12
270.715	0.1
270.93	0.02
271.145	0.02
271.359	0.09
271.574	0
271.789	0.02
272.004	-0.02
272.218	0
272.433	0.05
272.648	0.03
272.862	0.09
273.077	0.05
273.292	0.05
273.506	-0.05
273.721	-0.03
273.936	0.14
274.15	0.1
274.365	0
274.579	0.11
274.794	0.1
275.008	0.07
275.223	-0.03
275.437	0.05
275.652	0.12
275.866	0.14
276.081	0.09
276.295	0.15
276.509	0.06
276.724	0.09
276.938	0.07
277.153	0.08
277.367	0.08
277.581	0.02
277.796	0.01
278.01	-0.03
278.224	0.12
278.438	0.12
278.653	-0.05
278.867	-0.05
279.081	-0.16
279.295	-0.02
279.51	0.07
279.724	-0.08
279.938	0.1
280.152	0.05
280.366	-0.04
280.58	0.04
280.794	0.16
281.008	0.1
281.222	0.08
281.437	0.11
281.651	0.02
281.865	0.08
282.079	0.04
282.293	-0.05
282.507	0.03
282.721	0.05
282.935	0.01
283.148	-0.05
283.362	-0.05
283.576	-0.05
283.79	0.04
284.004	-0
284.218	0.13
284.432	-0.02
284.646	0
284.859	0.03
285.073	0.05
285.287	0.05
285.501	0.04
285.714	-0
285.928	0.03
286.142	0.07
286.356	0.04
286.569	0.02
286.783	0.12
286.997	0.13
287.21	0.1
287.424	0.04
287.637	0.04
287.851	0.04
288.065	0.06
288.278	0.06
288.492	0.07
288.705	-0.01
288.919	0.08
289.132	0
289.346	0.11
289.559	-0.05
289.773	-0.01
289.986	0.02
290.2	0.03
290.413	0.06
290.626	0
290.84	0.01
291.053	0.01
291.267	0.13
291.48	0.03
291.693	0.08
291.906	0.01
292.12	0.1
292.333	-0.02
292.546	0.04
292.76	0.1
292.973	0.06
293.186	0.05
293.399	-0.03
293.612	0.09
293.826	0.1
294.039	0.04
294.252	0.06
294.465	0.09
294.678	0.06
294.891	-0.01
295.104	0
295.317	0.02
295.53	0.09
295.743	0.04
295.956	0.03
296.169	0.09
296.382	0.04
296.595	0.06
296.808	-0.03
297.021	0.14
297.234	0.07
297.447	-0.01
297.66	0.04
297.873	0.09
298.086	0.09
298.299	0.02
298.511	-0.02
298.724	0.03
298.937	-0.01
299.15	0
299.363	0.04
299.575	0.1
299.788	0.07
300.001	0.03
300.213	0
300.426	0.04
300.639	-0
300.852	0.02
301.064	0.05
301.277	0.11
301.489	0.06
301.702	0.07
301.915	0.07
302.127	0.05
302.34	0.03
302.552	0.08
302.765	0
302.977	0.09
303.19	-0.04
303.402	-0.02
303.615	0.03
303.827	0.01
304.04	0.03
304.252	0.06
304.464	0.01
304.677	0.15
304.889	0.09
305.102	0
305.314	0.02
305.526	0.06
305.739	0.07
305.951	0.02
306.163	0.02
306.375	0.09
306.588	0.04
306.8	0.01
307.012	-0.02
307.224	0.08
307.436	0.14
307.649	-0.04
307.861	0.05
308.073	0.08
308.285	0
308.497	-0.01
308.709	-0.02
308.921	0.01
309.133	0.07
309.346	0.03
309.558	0.04
309.77	0.03
309.982	0.11
310.194	0.07
310.406	-0.01
310.617	0.12
310.829	0.03
311.041	0.05
311.253	0.02
311.465	0.03
311.677	0.06
311.889	0.01
312.101	0.03
312.313	0.08
312.524	0.1
312.736	-0.06
312.948	-0.01
313.16	0.12
313.372	0.1
313.583	0.06
313.795	0.04
314.007	0.01
314.218	0.12
314.43	0.01
314.642	0.02
314.853	0.01
315.065	0.06
315.277	0.09
315.488	0.08
315.7	0.06
315.912	0.07
316.123	0.02
316.335	0.04
316.546	0.13
316.758	0
316.969	0.01
317.181	0.06
317.392	0
317.604	0.07
317.815	0.01
318.026	0.04
318.238	0.03
318.449	0.14
318.661	-0.02
318.872	-0.01
319.083	0.01
319.295	0.02
319.506	0.04
319.717	0.05
319.929	0.07
320.14	0.02
320.351	0.05
320.562	0.03
320.774	0.03
320.985	0.11
321.196	0.01
321.407	-0.07
321.618	0.06
321.829	0.08
322.041	0.08
322.252	0.08
322.463	0.08
322.674	0.09
322.885	0.02
323.096	0.05
323.307	0.03
323.518	0.09
323.729	0
323.94	0.07
324.151	0.02
324.362	0.07
324.573	0.02
324.784	0.05
324.995	0.12
325.206	0.07
325.417	0.04
325.628	0
325.838	-0
326.049	0.07
326.26	0.08
326.471	0.03
326.682	0.08
326.892	0.04
327.103	-0
327.314	-0.02
327.525	0.11
327.735	0.04
327.946	0.03
328.157	0
328.368	0.04
328.578	0.04
328.789	0.08
328.999	0.05
329.21	0.04
329.421	0.08
329.631	0.01
329.842	-0.02
330.052	0.05
330.263	0.07
330.473	0.07
330.684	0.07
330.894	0.01
331.105	0.08
331.315	0.07
331.526	-0.03
331.736	0.13
331.947	0.06
332.157	0.09
332.367	-0
332.578	0.11
332.788	0.13
332.999	0.05
333.209	0.03
333.419	-0.03
333.629	0.08
333.84	0.06
334.05	-0.01
334.26	0.09
334.47	0.03
334.681	0.07
334.891	0.03
335.101	0.05
335.311	0.11
335.521	0.06
335.732	0
335.942	0.13
336.152	0.05
336.362	0.06
336.572	0.05
336.782	0.06
336.992	0.02
337.202	0.05
337.412	-0
337.622	0.06
337.832	0.05
338.042	0.04
338.252	0.04
338.462	0.04
338.672	0.02
338.882	0.01
339.092	0.07
339.302	0.12
339.511	0.07
339.721	0.04
339.931	0.02
340.141	0.12
340.351	0.09
340.561	0.06
340.77	0.06
340.98	0.05
341.19	0.02
341.4	0.02
341.609	0.01
341.819	0.02
342.029	-0.02
342.238	0.03
342.448	0.01
342.658	0.06
342.867	0.05
343.077	0.03
343.286	0.05
343.496	0.06
343.706	0.09
343.915	0.05
344.125	0.09
344.334	0.05
344.544	0
344.753	0.04
344.963	0.01
345.172	0.01
345.381	0.05
345.591	0.01
345.8	0.04
346.01	0.11
346.219	0.12
346.428	-0.05
346.638	0.04
346.847	0.06
347.056	0.12
347.266	0.05
347.475	0.06
347.684	0.09
347.893	0.1
348.103	0.1
348.312	0.07
348.521	0.05
348.73	0.03
348.94	0.08
349.149	-0.03
349.358	0.07
349.567	0.01
349.776	0.02
349.985	0.05
350.194	0.08
350.403	0.08
350.612	-0.02
350.821	0.04
351.03	0.05
351.239	0.03
351.448	0.09
351.657	-0.01
351.866	0.08
352.075	0.06
352.284	0.12
352.493	0
352.702	0.11
352.911	0.08
353.12	0.07
353.329	0.08
353.538	0.04
353.746	0.04
353.955	0.04
354.164	0.07
354.373	0.01
354.582	0.11
354.79	0.03
354.999	0.06
355.208	0.01
355.416	0.13
355.625	-0
355.834	0.04
356.042	0.1
356.251	0.01
356.46	0
356.668	0.06
356.877	0.16
357.085	0.08
357.294	-0
357.503	0.07
357.711	0.03
357.92	0.17
358.128	0.06
358.337	0.03
358.545	0.07
358.754	0.03
358.962	0.08
359.17	-0
359.379	0.09
359.587	0.08
359.796	0.06
360.004	0.1
360.212	0.09
360.421	0.11
360.629	-0
360.837	0.03
361.046	0.07
361.254	0.18
361.462	0.07
361.67	0.04
361.879	0.05
362.087	0.12
362.295	0.07
362.503	0.06
362.711	-0
362.92	0.03
363.128	0.02
363.336	0.03
363.544	0
363.752	0.02
363.96	0.01
364.168	0.01
364.376	0.05
364.584	0.06
364.792	0.1
365	0.06
365.208	0.07
365.416	0.07
365.624	0.09
365.832	0.07
366.04	0.14
366.248	0.04
366.456	0.04
366.664	0.07
366.872	0.02
367.079	0.05
367.287	0.06
367.495	0.07
367.703	0.07
367.911	0.04
368.118	0.07
368.326	0.04
368.534	0.02
368.742	0.11
368.949	0.01
369.157	0.03
369.365	0.08
369.572	0.04
369.78	0.02
369.988	0.11
370.195	0.11
370.403	0.07
370.61	0.01
370.818	0.04
371.026	0.12
371.233	0.02
371.441	0.07
371.648	0.03
371.856	0.11
372.063	0.12
372.271	0.02
372.478	0.05
372.685	0.05
372.893	0.08
373.1	0.05
373.308	0.05
373.515	0.18
373.722	0.11
373.93	0.1
374.137	0.1
374.344	0.13
374.552	0.13
374.759	0.04
374.966	0.09
375.173	0.08
375.381	0.11
375.588	0.05
375.795	-0.01
376.002	0.07
376.209	0.04
376.417	0.02
376.624	0.04
376.831	0.12
377.038	0.1
377.245	0.05
377.452	0.05
377.659	0.08
377.866	0.08
378.073	0.04
378.28	0.04
378.487	0.12
378.694	0.09
378.901	0.04
379.108	0.06
379.315	0.1
379.522	0.17
379.729	0.08
379.936	0.05
380.143	0.08
380.35	0.09
380.557	0.03
380.763	0.05
380.97	0.08
381.177	0.06
381.384	0.11
381.591	0.08
381.797	0.11
382.004	0.11
382.211	0.07
382.418	0.09
382.624	0.1
382.831	0.1
383.038	0.06
383.244	0.1
383.451	0.04
383.658	0.13
383.864	0.05
384.071	0.05
384.277	0.18
384.484	0.02
384.69	0.11
384.897	0.09
385.103	0.1
385.31	0.02
385.516	0.08
385.723	0.01
385.929	0.1
386.136	0.06
386.342	0.12
386.549	0.06
386.755	0.17
386.961	0.11
387.168	0.04
387.374	0.1
387.58	0.15
387.787	0.07
387.993	0.1
388.199	0.05
388.406	0.05
388.612	0.11
388.818	0.05
389.024	0.09
389.231	0.12
389.437	0.21
389.643	0.14
389.849	0.11
390.055	0.16
390.261	0.11
390.467	0.14
390.674	0.05
390.88	0.13
391.086	0.19
391.292	0.08
391.498	0.13
391.704	0.15
391.91	0.16
392.116	0.1
392.322	0.07
392.528	0.16
392.734	0.13
392.94	0.14
393.146	0.14
393.352	0.16
393.557	0.15
393.763	0.14
393.969	0.16
394.175	0.12
394.381	0.18
394.587	0.15
394.792	0.18
394.998	0.21
395.204	0.25
395.41	0.17
395.615	0.22
395.821	0.26
396.027	0.25
396.233	0.2
396.438	0.29
396.644	0.31
396.85	0.29
397.055	0.21
397.261	0.27
397.466	0.36
397.672	0.3
397.878	0.34
398.083	0.29
398.289	0.29
398.494	0.38
398.7	0.34
398.905	0.22
399.111	0.35
399.316	0.33
399.522	0.36
399.727	0.37
399.932	0.39
400.138	0.42
400.343	0.51
400.549	0.43
400.754	0.5
400.959	0.49
401.165	0.52
401.37	0.59
401.575	0.6
401.78	0.55
401.986	0.57
402.191	0.64
402.396	0.66
402.601	0.74
402.807	0.74
403.012	0.74
403.217	0.83
403.422	0.81
403.627	0.89
403.832	0.84
404.037	0.96
404.243	0.96
404.448	0.98
404.653	1.08
404.858	1.14
405.063	1.15
405.268	1.2
405.473	1.17
405.678	1.24
405.883	1.53
406.088	1.44
406.293	1.41
406.498	1.55
406.703	1.66
406.907	1.69
407.112	1.74
407.317	1.91
407.522	1.98
407.727	1.99
407.932	2.12
408.136	2.36
408.341	2.3
408.546	2.45
408.751	2.48
408.956	2.7
409.16	2.89
409.365	2.87
409.57	2.92
409.774	3.03
409.979	3.26
410.184	3.28
410.388	3.45
410.593	3.63
410.798	3.81
411.002	3.97
411.207	4.11
411.411	4.25
411.616	4.2
411.82	4.7
412.025	4.75
412.229	4.88
412.434	5.16
412.638	5.29
412.843	5.49
413.047	5.62
413.252	5.7
413.456	6.17
413.66	6.3
413.865	6.42
414.069	6.54
414.273	6.86
414.478	7.06
414.682	7.22
414.886	7.47
415.091	7.63
415.295	7.84
415.499	8.34
415.703	8.31
415.908	8.72
416.112	8.92
416.316	9.34
416.52	9.64
416.724	9.73
416.929	10.04
417.133	10.65
417.337	10.55
417.541	11.01
417.745	11.14
417.949	11.56
418.153	11.82
418.357	12.04
418.561	12.55
418.765	12.67
418.969	12.95
419.173	13.67
419.377	13.67
419.581	14.13
419.785	14.46
419.989	14.69
420.193	15.24
420.397	15.39
420.601	15.44
420.804	15.96
421.008	15.8
421.212	16.2
421.416	15.93
421.62	16.04
421.823	16.11
422.027	16.18
422.231	15.91
422.435	15.72
422.638	15.7
422.842	15.83
423.046	15.93
423.249	16.24
423.453	15.88
423.657	16.07
423.86	16.29
424.064	16.38
424.268	16.17
424.471	15.94
424.675	16.04
424.878	15.89
425.082	15.98
425.285	16.27
425.489	15.48
425.692	15.41
425.896	15.05
426.099	15.03
426.303	15.06
426.506	14.97
426.71	14.75
426.913	14.74
427.116	14.6
427.32	14.07
427.523	13.75
427.726	13.82
427.93	13.62
428.133	13.64
428.336	13.4
428.54	13.18
428.743	13.04
428.946	13.01
429.149	12.42
429.353	12.01
429.556	11.55
429.759	11.17
429.962	10.94
430.165	10.52
430.368	9.87
430.571	9.58
430.775	9.31
430.978	8.84
431.181	8.61
431.384	8.32
431.587	8.14
431.79	8.16
431.993	7.79
432.196	7.69
432.399	7.73
432.602	7.63
432.805	7.37
433.008	7.45
433.211	7.06
433.414	7.11
433.616	6.91
433.819	6.55
434.022	6.38
434.225	6.32
434.428	6.17
434.631	6.17
434.833	5.83
435.036	5.72
435.239	5.64
435.442	5.53
435.645	5.37
435.847	5.29
436.05	5.23
436.253	5.22
436.455	4.95
436.658	4.78
436.861	4.79
437.063	4.69
437.266	4.52
437.468	4.5
437.671	4.57
437.874	4.29
438.076	4.01
438.279	4.12
438.481	3.98
438.684	4.03
438.886	3.8
439.089	3.65
439.291	3.63
439.494	3.61
439.696	3.47
439.899	3.54
440.101	3.45
440.303	3.4
440.506	3.49
440.708	3.25
440.91	3.15
441.113	3.14
441.315	3.07
441.517	2.91
441.72	2.93
441.922	2.67
442.124	2.54
442.326	2.62
442.529	2.62
442.731	2.36
442.933	2.47
443.135	2.27
443.337	2.18
443.539	2.23
443.742	2.05
443.944	2.09
444.146	1.99
444.348	1.9
444.55	1.89
444.752	1.79
444.954	1.69
445.156	1.72
445.358	1.7
445.56	1.7
445.762	1.58
445.964	1.63
446.166	1.51
446.368	1.46
446.57	1.55
446.772	1.47
446.974	1.3
447.175	1.4
447.377	1.25
447.579	1.32
447.781	1.16
447.983	1.28
448.184	1.18
448.386	1.17
448.588	1.02
448.79	1.09
448.991	1.05
449.193	1.07
449.395	1.02
449.597	0.98
449.798	1.01
450	0.92
450.202	0.9
450.403	0.97
450.605	0.93
450.806	0.84
451.008	0.82
451.21	0.81
451.411	0.86
451.613	0.78
451.814	0.75
452.016	0.85
452.217	0.74
452.419	0.82
452.62	0.73
452.821	0.74
453.023	0.79
453.224	0.7
453.426	0.66
453.627	0.64
453.828	0.68
454.03	0.61
454.231	0.67
454.432	0.6
454.634	0.71
454.835	0.55
455.036	0.53
455.238	0.64
455.439	0.67
455.64	0.55
455.841	0.5
456.042	0.64
456.244	0.54
456.445	0.52
456.646	0.45
456.847	0.47
457.048	0.51
457.249	0.56
457.45	0.78
457.651	0.4
457.852	0.49
458.054	0.42
458.255	0.45
458.456	0.47
458.657	0.41
458.858	0.31
459.058	0.44
459.259	0.41
459.46	0.39
459.661	0.36
459.862	0.5
460.063	0.37
460.264	0.41
460.465	0.25
460.666	0.48
460.866	0.32
461.067	0.3
461.268	0.27
461.469	0.32
461.67	0.35
461.87	0.25
462.071	0.3
462.272	0.24
462.473	0.28
462.673	0.31
462.874	0.23
463.075	0.32
463.275	0.27
463.476	0.34
463.676	0.31
463.877	0.29
464.078	0.26
464.278	0.3
464.479	0.19
464.679	0.26
464.88	0.25
465.08	0.35
465.281	0.19
465.481	0.25
465.682	0.24
465.882	0.24
466.083	0.21
466.283	0.22
466.483	0.17
466.684	0.19
466.884	0.16
467.085	0.22
467.285	0.25
467.485	0.19
467.686	0.18
467.886	0.17
468.086	0.16
468.286	0.19
468.487	0.22
468.687	0.11
468.887	0.17
469.087	0.2
469.287	0.17
469.488	0.14
469.688	0.18
469.888	0.23
470.088	0.21
470.288	0.25
470.488	0.19
470.688	0.11
470.888	0.15
471.088	0.12
471.288	0.16
471.488	0.18
471.688	0.2
471.888	0.11
472.088	0.24
472.288	0.16
472.488	0.13
472.688	0.09
472.888	0.18
473.088	0.18
473.288	0.13
473.488	0.12
473.688	0.24
473.887	0.15
474.087	0.07
474.287	0.14
474.487	0.11
474.687	0.13
474.886	0.11
475.086	0.11
475.286	0.14
475.486	0.11
475.685	0.11
475.885	0.11
476.085	0.15
476.284	0.16
476.484	0.11
476.684	0.14
476.883	0.21
477.083	0.13
477.282	0.08
477.482	0.15
477.681	0.19
477.881	0.12
478.08	0.08
478.28	0.08
478.479	0.12
478.679	0.17
478.878	0.08
479.078	0.11
479.277	0.07
479.477	0.11
479.676	0.11
479.875	0.07
480.075	0.02
480.274	0.1
480.473	0.08
480.673	0.04
480.872	0.11
481.071	0.09
481.271	0.09
481.47	0.06
481.669	0.09
481.868	0.07
482.067	0.04
482.267	0.08
482.466	0.05
482.665	0.04
482.864	0.02
483.063	0.06
483.262	0.11
483.461	0.14
483.661	0.09
483.86	0.06
484.059	0.06
484.258	0.09
484.457	0.07
484.656	0.07
484.855	0.12
485.054	0.01
485.253	0.06
485.452	0.03
485.651	0.06
485.849	0.08
486.048	0.01
486.247	0.03
486.446	0.07
486.645	0.03
486.844	0.04
487.043	0.08
487.241	0.07
487.44	0.03
487.639	0.04
487.838	0.09
488.037	0.07
488.235	0.14
488.434	0.05
488.633	0.05
488.831	0.07
489.03	0.1
489.229	0.06
489.427	0.03
489.626	0.1
489.825	0.09
490.023	0.03
490.222	0.02
490.42	0.07
490.619	0.08
490.817	0.09
491.016	0.04
491.214	0.09
491.413	0.04
491.611	0.05
491.81	0.04
492.008	0.08
492.207	0.07
492.405	0.08
492.604	0.03
492.802	0.04
493	0.04
493.199	0.03
493.397	0.05
493.595	0.05
493.794	0.01
493.992	0.09
494.19	0.05
494.388	0.04
494.587	0.04
494.785	0.07
494.983	0.03
495.181	0.06
495.379	0.05
495.578	0.04
495.776	0.05
495.974	0.07
496.172	0.03
496.37	0.03
496.568	0.01
496.766	0.01
496.964	0.06
497.162	0.06
497.36	-0
497.558	0.06
497.756	0.07
497.954	0.05
498.152	0
498.35	0.04
498.548	0.03
498.746	0.06
498.944	-0
499.142	0.02
499.34	0.01
499.538	0.03
499.736	-0.01
499.933	0.08
500.131	0.08
500.329	0.04
500.527	0.08
500.725	0.08
500.922	0.08
501.12	0.05
501.318	0.04
501.516	0.03
501.713	0.08
501.911	0.05
502.109	-0.01
502.306	0.05
502.504	0.02
502.701	0.02
502.899	0.03
503.097	0.08
503.294	0.05
503.492	0.04
503.689	0.06
503.887	0.07
504.084	0.08
504.282	0.03
504.479	0.01
504.677	0.05
504.874	0.01
505.072	0.03
505.269	0.02
505.466	0.07
505.664	0.07
505.861	-0
506.059	0.02
506.256	0.07
506.453	0.04
506.651	0.09
506.848	0.04
507.045	0.04
507.242	0.05
507.44	0.03
507.637	0.02
507.834	0.04
508.031	0.04
508.229	0.02
508.426	0.06
508.623	0.03
508.82	0.01
509.017	0.01
509.214	0.03
509.411	0.02
509.608	0
509.805	0.03
510.003	-0
510.2	0.01
510.397	0.05
510.594	0.01
510.791	0.02
510.988	0.03
511.184	0.06
511.381	0.04
511.578	0.02
511.775	0.08
511.972	-0
512.169	0.03
512.366	0.06
512.563	0.03
512.76	0.02
512.956	0.04
513.153	-0
513.35	0.03
513.547	0.01
513.744	0.01
513.94	-0
514.137	0.04
514.334	0.04
514.53	0.02
514.727	0.01
514.924	0.09
515.12	-0.02
515.317	0.01
515.514	0
515.71	0.01
515.907	0.03
516.103	0.03
516.3	0.04
516.497	0.04
516.693	0.09
516.89	0.02
517.086	0.02
517.283	0.08
517.479	0.04
517.676	0.02
517.872	0.03
518.068	0.02
518.265	0.03
518.461	0.01
518.658	0.01
518.854	0.04
519.05	0.02
519.247	-0
519.443	0.03
519.639	0.04
519.836	0.03
520.032	0.03
520.228	0.02
520.424	0.06
520.621	0.03
520.817	0.02
521.013	0.04
521.209	0.03
521.405	0.07
521.601	0.02
521.798	0.03
521.994	0.09
522.19	-0
522.386	-0.01
522.582	0.03
522.778	0.04
522.974	0.02
523.17	0.03
523.366	0.05
523.562	0.06
523.758	0.02
523.954	-0
524.15	0.01
524.346	0.04
524.542	0.02
524.738	0.01
524.934	0.01
525.129	0.01
525.325	0.03
525.521	0.02
525.717	0.04
525.913	0.05
526.109	0.02
526.304	0.01
526.5	0.03
526.696	0.05
526.892	0.01
527.087	0.03
527.283	-0
527.479	0.04
527.674	0.01
527.87	0
528.066	0.01
528.261	0.05
528.457	0.03
528.653	0.02
528.848	0
529.044	0.01
529.239	0.01
529.435	0.03
529.63	0.02
529.826	0.06
530.021	0.04
530.217	0.03
530.412	-0.01
530.608	0.01
530.803	0.01
530.999	0.01
531.194	-0.02
531.389	0.03
531.585	-0.02
531.78	0.01
531.975	0.02
532.171	0.05
532.366	0.02
532.561	0.01
532.757	-0
532.952	0.01
533.147	0.05
533.342	0.01
533.538	0.02
533.733	0.06
533.928	0.03
534.123	0.01
534.318	-0.02
534.513	0.03
534.709	0.01
534.904	0.01
535.099	0.01
535.294	0.03
535.489	0.01
535.684	0.03
535.879	-0
536.074	0.03
536.269	-0
536.464	0.01
536.659	0.02
536.854	0.01
537.049	0.02
537.244	-0
537.439	0.02
537.634	0.04
537.828	0.03
538.023	0.01
538.218	-0.01
538.413	0.04
538.608	-0.03
538.803	0.06
538.997	-0.03
539.192	0.04
539.387	0.04
539.582	0.02
539.776	0.05
539.971	0
540.166	0.04
540.36	0.01
540.555	0.02
540.75	0.02
540.944	0.02
541.139	-0.01
541.334	0
541.528	0.05
541.723	0.03
541.917	0.02
542.112	-0.02
542.306	0
542.501	0.02
542.695	0.03
542.89	-0.01
543.084	0.03
543.279	0.01
543.473	0.03
543.668	0.02
543.862	0.01
544.056	0.03
544.251	0.02
544.445	0.03
544.64	0.03
544.834	-0.01
545.028	0.02
545.222	0.03
545.417	0.06
545.611	0.02
545.805	0.01
546	-0
546.194	0.03
546.388	0.01
546.582	0.04
546.776	0.04
546.97	0.02
547.165	0.03
547.359	0.04
547.553	0
547.747	0.03
547.941	0.03
548.135	0.02
548.329	0.03
548.523	0.01
548.717	0.02
548.911	0
549.105	0.02
549.299	0.02
549.493	0.05
549.687	0.01
549.881	0.04
550.075	-0.01
550.269	-0.02
550.463	0.06
550.657	0.01
550.85	0.03
551.044	0
551.238	0.02
551.432	0
551.626	-0.02
551.82	0.03
552.013	-0.01
552.207	0.06
552.401	0.03
552.594	0.03
552.788	0
552.982	0.01
553.176	-0
553.369	0.03
553.563	0.02
553.756	-0.02
553.95	-0.01
554.144	0
554.337	0.03
554.531	0.01
554.724	0.04
554.918	0
555.111	0.06
555.305	0.01
555.498	0.09
555.692	0.02
555.885	-0
556.079	0.03
556.272	0.01
556.466	0.04
556.659	0.02
556.852	0.02
557.046	-0.01
557.239	0.03
557.432	-0.02
557.626	0.01
557.819	0.03
558.012	0.05
558.206	0.02
558.399	0.01
558.592	0.03
558.785	0.03
558.979	0.03
559.172	0.03
559.365	0.04
559.558	0.01
559.751	0.01
559.944	-0.01
560.138	0.02
560.331	-0.02
560.524	-0
560.717	0.03
560.91	0.02
561.103	0.04
561.296	0.02
561.489	0.05
561.682	0.04
561.875	0.06
562.068	0.03
562.261	0.04
562.454	0.06
562.647	0.01
562.84	0.03
563.032	-0
563.225	0.01
563.418	0.01
563.611	0.01
563.804	0.01
563.997	-0.01
564.19	-0.02
564.382	0
564.575	0.02
564.768	0.02
564.961	-0.01
565.153	-0.01
565.346	0.06
565.539	0.03
565.731	0.02
565.924	0.03
566.117	0.05
566.309	0.03
566.502	0.02
566.695	0.01
566.887	0.02
567.08	-0.02
567.272	-0.01
567.465	0
567.657	0.02
567.85	0.03
568.042	0.05
568.235	0.04
568.427	0.02
568.62	0.01
568.812	0.04
569.005	-0
569.197	-0.03
569.389	0.01
569.582	0.03
569.774	0.05
569.966	-0.02
570.159	-0.02
570.351	0.03
570.543	-0.01
570.736	0.01
570.928	-0.02
571.12	0.01
571.312	0.01
571.505	-0.02
571.697	0.05
571.889	0.01
572.081	0.01
572.273	-0.02
572.465	0.05
572.658	-0
572.85	0.03
573.042	0
573.234	-0
573.426	0.02
573.618	-0.03
573.81	0.03
574.002	0.05
574.194	0.06
574.386	-0.02
574.578	-0.06
574.77	-0.02
574.962	0.02
575.154	-0.03
575.346	-0
575.538	0.01
575.729	0
575.921	-0.01
576.113	-0
576.305	0.03
576.497	0.01
576.689	0.02
576.88	-0.02
577.072	0.03
577.264	0
577.456	0.01
577.647	-0.06
577.839	0
578.031	0.05
578.223	-0.02
578.414	-0.02
578.606	0.03
578.798	0.01
578.989	-0.01
579.181	-0
579.372	-0.01
579.564	0.01
579.755	-0
579.947	0.02
580.139	0.04
580.33	-0.04
580.522	-0.03
580.713	-0.04
580.905	-0.01
581.096	0.04
581.287	0
581.479	0.01
581.67	0.01
581.862	-0.01
582.053	0.01
582.244	-0.03
582.436	0.01
582.627	0.03
582.818	-0.01
583.01	-0.03
583.201	0.03
583.392	0.06
583.583	0.01
583.775	-0.01
583.966	-0.02
584.157	-0.01
584.348	-0.02
584.54	-0.02
584.731	0.03
584.922	0.01
585.113	-0.01
585.304	0.04
585.495	0.06
585.686	0.02
585.877	0.03
586.068	0.01
586.259	0.03
586.45	0.03
586.641	0
586.832	-0.06
587.023	0.01
587.214	0
587.405	0.02
587.596	-0.01
587.787	0.03
587.978	0.03
588.169	-0
588.36	0
588.551	0.02
588.742	-0
588.932	0.03
589.123	-0.03
589.314	0.04
589.505	0.02
589.696	0.01
589.886	-0
590.077	-0.03
590.268	0
590.458	-0.04
590.649	-0.03
590.84	0.08
591.03	-0.04
591.221	-0
591.412	-0.03
591.602	0.02
591.793	0.04
591.984	-0.04
592.174	0.02
592.365	0.06
592.555	-0.01
592.746	0.02
592.936	0.03
593.127	0.03
593.317	0.08
593.508	-0.02
593.698	0.01
593.889	0.02
594.079	0.01
594.269	0.01
594.46	0.01
594.65	-0
594.84	-0.02
595.031	-0.03
595.221	-0.04
595.411	-0.03
595.602	0.02
595.792	-0
595.982	-0.03
596.172	0.06
596.363	0.03
596.553	0.01
596.743	-0
596.933	-0.01
597.123	0.08
597.314	-0.01
597.504	-0.01
597.694	0.05
597.884	0.03
598.074	-0.01
598.264	-0.03
598.454	0.03
598.644	0.03
598.834	0.01
599.024	-0.07
599.214	-0
599.404	0.02
599.594	0.01
599.784	-0.03
599.974	0.02
600.164	0.04
600.354	-0.03
600.544	-0.03
600.734	0.02
600.924	0.06
601.114	-0
601.303	0.02
601.493	0.03
601.683	0.01
601.873	0.01
602.063	-0.04
602.252	0.03
602.442	-0.03
602.632	-0.03
602.821	-0.04
603.011	0.04
603.201	-0.02
603.39	-0.03
603.58	-0.03
603.77	0.03
603.959	0.04
604.149	0.02
604.339	-0.01
604.528	0.03
604.718	0.04
604.907	-0.02
605.097	-0.01
605.286	-0.01
605.476	0.02
605.665	0.01
605.855	0.02
606.044	0.07
606.234	0.06
606.423	0.01
606.612	-0.03
606.802	0
606.991	0.04
607.181	0.01
607.37	-0.03
607.559	-0
607.749	-0.03
607.938	0
608.127	0.02
608.316	-0.01
608.506	0.04
608.695	0
608.884	-0.02
609.073	0.01
609.263	0.03
609.452	0.01
609.641	0.03
609.83	0
610.019	0.01
610.208	-0.04
610.397	-0
610.586	0.03
610.775	-0.04
610.965	0
611.154	0
611.343	0.03
611.532	0.02
611.721	-0.03
611.91	-0.02
612.099	0.02
612.287	0.01
612.476	-0.03
612.665	0.03
612.854	0
613.043	0.06
613.232	0.01
613.421	-0.05
613.61	0.01
613.798	-0.04
613.987	0.02
614.176	0.01
614.365	0.03
614.554	-0
614.742	0.02
614.931	-0.02
615.12	0.05
615.309	-0
615.497	0.02
615.686	-0.01
615.875	-0.01
616.063	0.01
616.252	-0.01
616.44	-0.03
616.629	-0.01
616.818	0.07
617.006	0.02
617.195	0.02
617.383	-0
617.572	0.02
617.76	-0.02
617.949	-0.02
618.137	0.02
618.326	0.06
618.514	-0.02
618.703	-0.02
618.891	0.04
619.079	-0.06
619.268	0.01
619.456	-0.01
619.644	0.05
619.833	0
620.021	-0.03
620.209	-0.03
620.398	0.02
620.586	0
620.774	0.06
620.962	0.02
621.151	0.07
621.339	0.03
621.527	-0.04
621.715	-0.05
621.903	-0.01
622.092	-0.01
622.28	0.01
622.468	0.04
622.656	0.01
622.844	0.03
623.032	0
623.22	-0.06
623.408	0.03
623.596	0.04
623.784	-0
623.972	-0.02
624.16	0
624.348	0.05
624.536	0.01
624.724	-0.04
624.912	0.05
625.1	0.03
625.288	-0.02
625.476	-0.02
625.664	0.02
625.851	-0.02
626.039	0.01
626.227	0.02
626.415	0.04
626.603	-0.07
626.79	0.01
626.978	-0.03
627.166	-0.01
627.354	0.01
627.541	-0.04
627.729	-0.09
627.917	0.07
628.104	0.04
628.292	-0.01
628.48	-0.01
628.667	-0
628.855	0.04
629.042	-0
629.23	-0.03
629.418	0
629.605	0.01
629.793	-0.04
629.98	-0.01
630.168	-0
630.355	-0.03
630.543	0.03
630.73	-0.02
630.917	0
631.105	0.06
631.292	0
631.48	-0
631.667	0.09
631.854	-0.01
632.042	-0.03
632.229	-0.05
632.416	0.01
632.604	0.02
632.791	-0.03
632.978	0.03
633.165	0.02
633.353	0.07
633.54	0.02
633.727	-0.05
633.914	-0.01
634.101	-0.08
634.289	0.02
634.476	-0.02
634.663	-0.03
634.85	0.06
635.037	-0.03
635.224	-0.05
635.411	0.05
635.598	0.03
635.785	-0.01
635.972	-0.02
636.159	0.04
636.346	-0.03
636.533	0.03
636.72	-0.03
636.907	0
637.094	0.04
637.281	-0
637.468	0.02
637.655	-0
637.842	-0
638.029	-0.03
638.215	0.05
638.402	0.01
638.589	-0.07
638.776	-0.02
638.963	-0.03
639.149	0.05
639.336	0.07
639.523	-0.01
639.709	-0.02
639.896	-0.02
640.083	0.06
640.27	0.03
640.456	-0.01
640.643	0.04
640.829	-0.04
641.016	-0
641.203	-0.04
641.389	0.02
641.576	0.03
641.762	-0.01
641.949	-0.04
642.135	0.03
642.322	0.02
642.508	-0.04
642.695	0
642.881	-0.01
643.068	-0.02
643.254	0
643.441	0.02
643.627	0.01
643.813	-0.02
644	0.01
644.186	-0.01
644.372	0.03
644.559	0.01
644.745	-0.04
644.931	-0.02
645.118	-0
645.304	-0.01
645.49	-0.02
645.676	-0
645.862	0.02
646.049	0.06
646.235	0.03
646.421	0.07
646.607	0.08
646.793	-0.02
646.979	-0.04
647.165	0.03
647.352	0.01
647.538	0.02
647.724	0.01
647.91	0.01
648.096	0.03
648.282	0.02
648.468	-0.02
648.654	0
648.84	-0.01
649.026	0
649.212	-0.02
649.397	-0.03
649.583	-0.04
649.769	0.02
649.955	0.01
650.141	0.02
650.327	0.08
650.513	-0.04
650.698	0.03
650.884	-0.07
651.07	0.03
651.256	0.02
651.442	-0.02
651.627	0
651.813	0.02
651.999	0.01
652.184	0.02
652.37	-0.04
652.556	-0.04
652.741	0.05
652.927	-0.08
653.113	0.01
653.298	-0
653.484	0
653.669	-0.03
653.855	0
654.04	0.06
654.226	0.02
654.412	-0.04
654.597	-0.04
654.782	0.02
654.968	0.04
655.153	0.01
655.339	-0.03
655.524	-0.02
655.71	0.03
655.895	-0.02
656.08	0.01
656.266	0.04
656.451	0.02
656.636	-0
656.822	0.01
657.007	-0.03
657.192	-0.01
657.378	-0.05
657.563	-0.01
657.748	0.02
657.933	0.01
658.118	0.01
658.304	-0
658.489	0.05
658.674	0.04
658.859	-0.02
659.044	0.01
659.229	0.02
659.414	-0.02
659.599	-0
659.785	-0.06
659.97	-0.01
660.155	-0.02
660.34	0.01
660.525	-0.01
660.71	-0.01
660.895	0.06
661.08	-0.03
661.264	-0.04
661.449	0.04
661.634	0.02
661.819	-0
662.004	0.04
662.189	-0.07
662.374	-0.05
662.559	-0.05
662.743	-0.07
662.928	-0.02
663.113	-0.01
663.298	-0.08
663.483	-0.02
663.667	0.02
663.852	-0.05
664.037	0.01
664.221	-0.03
664.406	0.01
664.591	0.03
664.775	0.01
664.96	-0.04
665.145	0.04
665.329	0.02
665.514	-0.03
665.698	-0.02
665.883	-0.07
666.068	0.04
666.252	0.01
666.437	-0.07
666.621	0.01
666.806	0.03
666.99	0.02
667.174	-0.04
667.359	0.03
667.543	-0.03
667.728	-0.01
667.912	-0.1
668.096	0.01
668.281	-0.04
668.465	-0.05
668.649	-0.04
668.834	-0.05
669.018	-0.02
669.202	-0.01
669.387	0
669.571	0.01
669.755	-0.06
669.939	-0.02
670.124	-0.04
670.308	0.05
670.492	0.03
670.676	-0
670.86	-0.03
671.044	-0.05
671.228	0.08
671.413	-0.01
671.597	-0.06
671.781	-0.03
671.965	0.05
672.149	0.02
672.333	-0.02
672.517	-0
672.701	0.08
672.885	-0.01
673.069	-0.05
673.253	0.04
673.437	-0.01
673.621	-0.01
673.804	-0.01
673.988	0
674.172	-0.01
674.356	-0
674.54	0.01
674.724	0.07
674.908	0.03
675.091	0.07
675.275	0
675.459	0.04
675.643	0.04
675.826	-0.03
676.01	0.01
676.194	-0.03
676.377	0.07
676.561	0.03
676.745	0.04
676.928	-0
677.112	0.07
677.296	-0.04
677.479	-0.03
677.663	-0.04
677.846	0.02
678.03	-0.04
678.213	-0.03
678.397	0.02
678.58	-0.02
678.764	-0.04
678.947	-0.03
679.131	-0
679.314	0.02
679.498	-0.01
679.681	0.02
679.865	0.04
680.048	-0.01
680.231	-0.01
680.415	-0.01
680.598	-0.01
680.781	0
680.965	-0.02
681.148	0.01
681.331	-0.01
681.514	0.03
681.698	-0.03
681.881	-0.01
682.064	0.01
682.247	0.02
682.43	-0.12
682.614	0.05
682.797	0.05
682.98	0.03
683.163	-0.05
683.346	0.02
683.529	-0.08
683.712	-0.05
683.895	-0.01
684.078	-0.04
684.261	-0.04
684.444	-0
684.627	0.02
684.81	-0.05
684.993	-0.02
685.176	0.02
685.359	-0.05
685.542	0.01
685.725	0.06
685.908	0.03
686.091	-0.02
686.274	0.03
686.457	0.03
686.639	0
686.822	0.02
687.005	0.02
687.188	0.06
687.371	0.08
687.553	-0.02
687.736	0.03
687.919	0.05
688.102	0.03
688.284	-0.01
688.467	-0.02
688.65	0.02
688.832	-0.01
689.015	-0.01
689.197	-0.07
689.38	0.14
689.563	0.08
689.745	0
689.928	-0.03
690.11	-0.03
690.293	0.02
690.475	-0.08
690.658	0
690.84	-0.01
691.023	-0.03
691.205	-0.04
691.388	-0.03
691.57	0.08
691.752	0.03
691.935	-0.05
692.117	-0.02
692.3	0.03
692.482	-0.02
692.664	-0.02
692.847	0
693.029	0.08
693.211	0.06
693.393	0.01
693.576	-0.01
693.758	-0.02
693.94	-0.05
694.122	-0.03
694.304	-0.01
694.487	-0.04
694.669	0.06
694.851	-0.05
695.033	0.03
695.215	0.03
695.397	-0.04
695.579	0.01
695.761	-0.08
695.943	-0.06
696.125	0.06
696.308	0.03
696.49	-0.09
696.671	0.15
696.853	0.03
697.035	0.13
697.217	0.04
697.399	0.02
697.581	-0.08
697.763	-0.01
697.945	-0.05
698.127	0.02
698.309	0.07
698.491	0.01
698.672	-0
698.854	0.15
699.036	0.1
699.218	-0.04
699.399	0.01
699.581	-0.02
699.763	0.01
699.945	-0.07
700.126	-0.05
700.308	-0.02
700.49	-0.01
700.671	-0.11
700.853	-0.06
701.035	-0.03
701.216	-0
701.398	-0.01
701.579	-0.07
701.761	0.04
701.943	-0.05
702.124	-0.03
702.306	0.03
702.487	0.15
702.669	0.06
702.85	-0.07
703.031	-0.01
703.213	0.12
703.394	0.09
703.576	-0
703.757	0.09
703.938	0.04
704.12	0.2
704.301	0.04
704.483	-0.02
704.664	0.05
704.845	0.07
705.026	0.06
705.208	-0
705.389	-0.01
705.57	0.02
705.751	-0.05
705.933	0.02
706.114	0.07
706.295	0.02
706.476	-0.08
706.657	0.12
706.838	0.01
707.02	0.07
707.201	-0.04
707.382	-0.07
707.563	0.05
707.744	0.01
707.925	-0.08
708.106	0.03
708.287	0.08
708.468	0.1
708.649	-0.06
708.83	0
709.011	-0.05
709.192	0.07
709.373	-0.13
709.554	-0.02
709.734	0.06
709.915	0.01
710.096	0.04
710.277	-0.11
710.458	-0.02
710.639	0.09
710.819	-0.05
711	-0.06
711.181	0.04
711.362	0.02
711.542	-0.02
711.723	-0.04
711.904	0.07
712.085	0.08
712.265	0.06
712.446	-0.06
712.627	-0
712.807	0.03
712.988	-0.02
713.168	-0.12
713.349	0.06
713.53	-0.16
713.71	-0.05
713.891	-0.11
714.071	0
714.252	-0
714.432	-0.04
714.613	-0.09
714.793	-0.02
714.974	0.08
715.154	0.04
715.334	0.05
715.515	0.15
715.695	-0.01
715.876	0.04
716.056	0.02
716.236	-0.01
716.417	-0.03
716.597	-0.02
716.777	0.15
716.957	-0.03
717.138	-0.09
717.318	0.01
717.498	-0.11
717.678	0.05
717.859	0
718.039	-0.06
718.219	0.04
718.399	0.07
718.579	-0.03
718.759	-0.02
718.939	-0
719.12	0.01
719.3	0.01
719.48	-0.18
719.66	-0.05
719.84	0.07
720.02	-0.01
720.2	-0.06
720.38	-0
720.56	0.09
720.74	-0.03
720.92	0.02
721.1	0.12
721.279	0.12
721.459	0.01
721.639	-0.05
721.819	0.03
721.999	-0.04
722.179	0.09
722.359	-0.16
722.538	-0
722.718	0.03
722.898	-0.07
723.078	0.02
723.257	-0.08
723.437	0.03
723.617	-0.01
723.797	-0.06
723.976	-0.03
724.156	0.06
724.336	0.08
724.515	0.17
724.695	-0.19
724.874	0.02
725.054	0.03
725.234	-0.05
725.413	0.06
725.593	0.01
725.772	-0
725.952	-0.04
726.131	-0.06
726.311	-0.01
726.49	-0.04
726.67	-0.1
726.849	0
727.028	0.02
727.208	-0.05
727.387	0.03
727.567	-0.16
727.746	-0.03
727.925	0
728.105	-0.13
728.284	0
728.463	-0.05
728.643	0.08
728.822	-0.14
729.001	-0.08
729.18	-0.03
729.359	0.03
729.539	-0.04
729.718	-0.07
729.897	0.12
730.076	-0.05
730.255	-0.1
730.434	-0
730.614	0.11
730.793	0.1
730.972	-0.03
731.151	0.1
731.33	0.09
731.509	0.03
731.688	0.03
731.867	0.04
732.046	-0.18
732.225	0.15
732.404	-0.01
732.583	-0.15
732.762	0.03
732.941	0.08
733.12	0.01
733.298	0.02
733.477	0.13
733.656	0.06
733.835	-0.08
734.014	0.13
734.193	-0.05
734.371	0.04
734.55	0.05
734.729	-0.19
734.908	0.07
735.086	0.03
735.265	0.03
735.444	-0.17
735.623	-0.12
735.801	-0.1
735.98	-0.11
736.159	-0.13
736.337	0.13
736.516	0.01
736.694	0.11
736.873	0.01
737.052	0.15
737.23	0.09
737.409	-0
737.587	0.15
737.766	-0.14
737.944	-0.05
738.123	0.05
738.301	-0.03
738.479	0.01
738.658	-0.02
738.836	-0.2
739.015	0.07
739.193	0.12
739.371	-0.08
739.55	0.03
739.728	-0.01
739.906	0.08
740.085	0.14
740.263	0.06
740.441	-0.21
740.62	0.23
740.798	0.11
740.976	-0.07
741.154	-0.09
741.332	0.08
741.511	-0.08
741.689	0.06
741.867	0.06
742.045	0.01
742.223	0.01
742.401	-0.02
742.579	-0.05
742.757	0.02
742.935	-0.09
743.114	-0.06
743.292	0.01
743.47	0.01
743.648	0.04
743.826	0.02
744.004	0.06
744.181	0.08
744.359	-0.04
744.537	-0.03
744.715	-0.11
744.893	-0.06
745.071	-0.07
745.249	0.08
745.427	0.11
745.605	0.15
745.782	-0.04
745.96	-0.01
746.138	-0.03
746.316	0.15
746.493	0.06
746.671	-0.02
746.849	-0.11
747.027	0.18
747.204	-0.16
747.382	0.1
747.56	-0.11
747.737	0.01
747.915	-0.11
748.093	-0
748.27	-0.18
748.448	0.05
748.625	-0.05
748.803	-0.06
748.98	-0.08
749.158	0.09
749.335	0.05
749.513	0.06
749.69	-0
749.868	-0.09
750.045	0.03
750.223	-0.15
750.4	-0.21
750.578	0.23
750.755	0.03
750.932	-0.18
751.11	0.11
751.287	-0.06
751.464	0.13
751.642	-0.09
751.819	0.04
751.996	0.08
752.173	-0.15
752.351	-0.06
752.528	0.09
752.705	0.03
752.882	-0.08
753.06	-0.02
753.237	0.07
753.414	0.17
753.591	0.2
753.768	-0.06
753.945	0.02
754.122	-0.06
754.299	-0
754.476	-0.14
754.654	0.06
754.831	0.1
755.008	0.01
755.185	-0.03
755.362	-0.09
755.539	0.08
755.716	-0.09
755.892	0.02
756.069	0.06
756.246	-0.03
756.423	-0.02
756.6	0.13
756.777	-0.03
756.954	0.1
757.131	-0.08
757.307	-0.16
757.484	-0.11
757.661	0.1
757.838	-0.11
758.015	-0.1
758.191	0
758.368	-0.03
758.545	0.19
758.721	0.04
758.898	-0.18
759.075	0.07
759.251	0.08
759.428	0.18
759.605	-0.11
759.781	0.03
759.958	0.01
760.134	0
760.311	-0.17
760.488	0.16
760.664	0.16
760.841	0.02
761.017	-0.12
761.194	0.04
761.37	0.11
761.547	0.02
761.723	-0.08
761.899	0.15
762.076	-0.11
762.252	-0.1
762.429	-0.13
762.605	0.17
762.781	-0.08
762.958	0.12
763.134	-0.06
763.31	-0.06
763.486	0.09
763.663	-0.2
763.839	-0
764.015	-0.17
764.191	-0.13
764.368	-0.03
764.544	-0.13
764.72	0.02
764.896	0.1
765.072	-0.02
765.248	0.01
765.425	-0.11
765.601	-0.05
765.777	0.05
765.953	-0.23
766.129	-0
766.305	-0.15
766.481	-0.03
766.657	0.01
766.833	0.16
767.009	-0.2
767.185	-0.12
767.361	-0.14
767.537	-0.08
767.713	0.21
767.889	-0.1
768.065	-0.07
768.24	-0.16
768.416	0.14
768.592	-0.09
768.768	-0.03
768.944	0.1
769.12	-0.12
769.295	-0.06
769.471	-0.09
769.647	-0.02
769.823	0.12
769.998	-0.14
770.174	-0.18
770.35	0.32
770.525	0.24
770.701	-0.03
770.877	-0.09
771.052	-0.07
771.228	0.15
771.403	0.07
771.579	0.05
771.755	0.41
771.93	-0.01
772.106	-0.12
772.281	-0.23
772.457	-0.02
772.632	0.07
772.808	-0.11
772.983	0.01
773.159	-0.21
773.334	0.06
773.509	-0.02
773.685	-0.13
773.86	0.36
774.036	0.21
774.211	0.08
774.386	-0.08
774.562	-0.02
774.737	0.02
774.912	-0.02
775.087	0.06
775.263	-0.03
775.438	0.01
775.613	-0.13
775.788	0.04
775.964	0.08
776.139	0.3
776.314	-0.25
776.489	-0.08
776.664	0.08
776.839	-0.16
777.014	0.14
777.19	0.05
777.365	0.16
777.54	0.35
777.715	-0.03
777.89	-0
778.065	-0.17
778.24	-0.01
778.415	0.05
778.59	-0.17
778.765	-0.09
778.94	0.17
779.115	-0.22
779.289	-0.06
779.464	-0.02
779.639	0.05
779.814	-0.22
779.989	-0.05
780.164	0.13
780.339	0.1
780.513	0.02
780.688	-0.16
780.863	-0.13
781.038	0.24
781.212	-0.1
781.387	-0.01
781.562	0.35
781.737	0.25
781.911	0.1
782.086	-0.21
782.261	-0
782.435	0.24
782.61	-0.18
782.784	-0.01
782.959	0.13
783.134	-0.07
783.308	-0.23
783.483	-0.08
783.657	0.3
783.832	0.1
784.006	-0.35
784.181	0.1
784.355	0.15
784.53	-0.23
784.704	-0.04
784.878	0.15
785.053	0.24
785.227	0.27
785.402	0.22
785.576	-0.1
785.75	-0.26
785.925	-0.12
786.099	-0.03
786.273	-0.02
786.448	0.12
786.622	0.14
786.796	0.12
786.97	-0.14
787.145	0.4
787.319	-0.15
787.493	-0.22
787.667	-0.37
787.841	0.17
788.015	0.12
788.19	-0.21
788.364	-0.04
788.538	0.01
788.712	0.1
788.886	0.03
789.06	0.22
789.234	0.15
789.408	-0.15
789.582	-0.07
789.756	-0.11
789.93	-0.16
790.104	-0.03
790.278	-0.12
790.452	-0.22
790.626	0.05
790.8	-0.19
790.973	0.31
791.147	0.28
791.321	0.27
791.495	0.37
791.669	0.15
791.843	0.16
792.016	0.21
792.19	0.31
792.364	-0.24
792.538	0.38
792.711	0.24
792.885	-0.1
793.059	-0.26
793.233	-0.73
793.406	0.07
793.58	0.1
793.754	-0.07
793.927	-0.07
794.101	0.33
794.274	0.08
794.448	0.16
794.622	-0.24
794.795	0.13
794.969	0
795.142	0.17
795.316	-0.08
795.489	-0.19
795.663	0.47
795.836	-0.15
796.009	-0.3
796.183	0.15
796.356	-0.02
796.53	-0.04
796.703	-0.22
796.876	0.35
797.05	-0.17
797.223	-0.16
797.396	0.01
797.57	0.13
797.743	0.47
797.916	0.14
798.09	0.03
798.263	0.2
798.436	0.13
798.609	-0.18
798.782	-0.09
798.956	0.21
799.129	-0.05
799.302	-0.22
799.475	-0.22
799.648	-0.18
799.821	0.06
799.994	-0.14
800.167	-0.3
800.34	-0.1
800.514	0.03
800.687	0.04
800.86	-0.31
801.033	-0.16
801.206	-0.05
801.379	-0.13
801.551	0.27
801.724	0.34
801.897	0.39
802.07	-0.39
802.243	-0.31
802.416	-0.04
802.589	-0.06
802.762	-0.03
802.935	-0.2
803.107	0.18
803.28	0.49
803.453	0.29
803.626	-0.1
803.798	0.07
803.971	0.03
804.144	0.06
804.317	-0.19
804.489	0.36
804.662	0.01
804.835	0.09
805.007	-0.32
805.18	0.39
805.353	-0.08
805.525	0.05
805.698	-0.18
805.87	0.45
806.043	0.32
806.215	-0.38
806.388	-0.19
806.56	0.05
806.733	0.22
806.905	-0.09
807.078	0
807.25	-0.19
807.423	0.21
807.595	0
807.768	-0.07
807.94	0.61
808.112	0.08
808.285	-0.05
808.457	-0.36
808.629	0.18
808.802	0.16
808.974	0.16
809.146	-0.05
809.318	-0.57
809.491	-0.01
809.663	0.38
809.835	-0.38
810.007	0.26
810.18	0.11
810.352	-0.29
810.524	-0.31
810.696	0.07
810.868	0.38
811.04	-0.17
811.212	-0.14
811.384	0.19
811.556	0.1
811.728	0.02
811.901	0.91
812.073	-0.08
812.245	0.44
812.417	0.16
812.589	-0.91
812.76	0.04
812.932	0.36
813.104	0.23
813.276	0.1
813.448	0.27
813.62	0.08
813.792	0.08
813.964	-0.08
814.136	-0.09
814.307	0
814.479	-0.47
814.651	-0.14
814.823	0.52
814.995	0.14
815.166	0.15
815.338	-0.31
815.51	-0.2
815.681	0.57
815.853	0.32
816.025	-0.01
816.196	0.5
816.368	0.34
816.54	-0.79
816.711	-0.3
816.883	0.32
817.054	0.87
817.226	-0.72
817.398	0.05
817.569	-0.34
817.741	0.08
817.912	-0.38
818.084	-0.1
818.255	0.21
818.426	-0.5
818.598	-0.18
818.769	-0.56
818.941	0.32
819.112	0.26
819.283	0.15
819.455	-0.2
819.626	-0.01
819.798	0.02
819.969	0.07
820.14	-0.02
820.311	-0.66
820.483	0.17
820.654	-0.33
820.825	0.2
820.996	-0.19
821.168	-0.55
821.339	-0.02
821.51	-0.28
821.681	0.03
821.852	0.02
822.023	-0.56
822.195	-1.05
822.366	0.64
822.537	-0.1
822.708	-0.14
822.879	0.01
823.05	0.93
823.221	-0.1
823.392	0.18
823.563	-0.2
823.734	0.24
823.905	-0.02
824.076	-0.67
824.247	-0.76
824.418	-0.39
824.589	0.88
824.759	-0.2
824.93	-0.59
825.101	-0.73
825.272	0.5
825.443	0.62
825.614	-0.08
825.784	-0.9
825.955	0.95
826.126	0.42
826.297	-0.13
826.467	0.36
826.638	1.09
826.809	-0.89
826.98	-0.14
827.15	0.17
827.321	-0.16
827.492	0.9
827.662	0.33
827.833	0.91
828.003	0.73
828.174	-0.22
828.345	-1.33
828.515	0.29
828.686	0.39
828.856	0.07
829.027	0.26
829.197	-0.46
829.368	-0
829.538	-0.53
829.709	0.4
829.879	0.44
830.049	-0.25
830.22	-0.4
830.39	-0.23
830.56	0.81
830.731	-0.42
830.901	-0.49
831.072	0.01
831.242	0.38
831.412	0.2
831.582	-0.16
831.753	-0.91
831.923	0.11
832.093	-0.05
832.263	-0.64
832.434	-0.36
832.604	-0.07
832.774	0.75
832.944	0.11
833.114	-0.05
833.284	0.6
833.454	-0.61
833.624	-0.45
833.795	-0.27
833.965	1.44
834.135	0.94
834.305	-1.33
834.475	-0.21
834.645	0.12
834.815	0.25
834.985	-0.66
835.155	-0.16
835.325	0.15
835.494	0.06
835.664	-0.48
835.834	-0.96
836.004	0.49
836.174	0.79
836.344	-0.04
836.514	-0.47
836.684	0.2
836.853	0.19
837.023	0.16
837.193	-0.49
837.363	0.67
837.532	0.13
837.702	-0.48
837.872	-0.37
838.041	0.1
838.211	1.57
838.381	-0.92
838.55	-0.27
838.72	1.53
838.89	0.77
839.059	-0.01
839.229	-0.38
839.398	0.86
839.568	-0.14
839.738	-0.29
839.907	0.76
840.077	0.69
840.246	-1.08
840.416	-0.2
840.585	-0.6
840.755	1.24
840.924	1.67
841.093	-1.13
841.263	-0.36
841.432	-0.03
841.602	-0.99
841.771	-0.48
841.94	0.23
842.11	1.81
842.279	1.62
842.448	-0.79
842.617	-1.25
842.787	1.02
842.956	-0.3
843.125	0.48
843.294	0.32
843.464	0.38
843.633	-0.21
843.802	-1.79
843.971	-0.36
844.14	0.51
844.309	0.93
844.479	-0.67
844.648	-0.44
844.817	-0.07
844.986	-0.36
845.155	-0.8
845.324	-0.25
845.493	-0.23
845.662	-0.61
845.831	0.89
846	0.88
846.169	-0.32
846.338	1.46
846.507	0.18
846.676	0.12
846.844	-0.29
847.013	1.22
847.182	0.4
847.351	-0.39
847.52	-0.46
847.689	0.43
847.858	-0.33
848.026	-0.79
848.195	0.46
848.364	-0.28
848.533	-0.56
848.701	-0.74
848.87	0.12
849.039	0.79
849.207	1.07
849.376	0.9
849.545	1.61
849.713	-0.08
849.882	-0.98
850.051	-0.59
850.219	0.39
850.388	0.07
850.556	-0.74
850.725	-0.87
850.893	0.86
851.062	-1.4
851.23	0.02
851.399	-1.73
851.567	-0.18
851.736	-0.7
851.904	-1.23
852.073	-0.45
852.241	1.32
852.41	-0.39
852.578	-0.42
852.746	-0.64
852.915	0.75
853.083	0.39
853.251	-2.1
853.42	0.11
853.588	-0.5
853.756	0.96
853.924	-1.15
854.093	-0.22
854.261	1.04
854.429	-0.17
854.597	1.08
854.765	-1.38
854.934	0.3
855.102	1.54
855.27	-0.12
855.438	0.92
855.606	0.94
855.774	2.14
855.942	-1.43
856.11	-2.65
856.278	0.7
856.446	0.52
856.614	-0.79
856.782	-0.16
856.95	0.76
857.118	0.93
857.286	1.11
857.454	-0.63
857.622	1.16
857.79	-0.08
857.958	0.49
858.126	0.06
858.294	-2.51
858.462	0.23
858.629	-0.65
858.797	-1.31
858.965	0.52
859.133	0.72
859.301	0.23
859.468	0.51
859.636	-0.83
859.804	0.67
859.971	-0.45
860.139	-1.4
860.307	0.62
860.474	0.34
860.642	-0.57
860.81	-0.68
860.977	-0.24
861.145	0.44
861.313	-0.63
861.48	-1.68
861.648	1.72
861.815	-0.8
861.983	-1.59
862.15	-0.59
862.318	0.92
862.485	1.22
862.653	-1.25
862.82	-0.64
862.988	2.76
863.155	1.49
863.322	-0.8
863.49	-1.09
863.657	-0.22
863.824	2.72
863.992	1.11
864.159	0.92
864.326	0.73
864.494	-1.27
864.661	3.19
864.828	-0.95
864.996	0.74
865.163	1.28
865.33	-0.09
865.497	-1.65
865.664	-0.85
865.832	-1.77
865.999	-1.66
866.166	-0.61
866.333	-0.62
866.5	-0.39
866.667	1.17
866.834	-0.65
867.001	2.1
867.168	-1.28
867.335	0.14
867.502	-1.47
867.669	-0.14
867.836	2.17
868.003	0.22
868.17	0.37
868.337	2.48
868.504	2.18
868.671	-2.29
868.838	-1.47
869.005	1.54
869.172	1.61
869.339	-0.07
869.505	-0.79
869.672	-0.32
869.839	0.72
870.006	-0.15
870.173	-1.98
870.339	0.01
870.506	2.05
870.673	-3.24
870.84	1.73
871.006	-0.34
871.173	-0.2
871.34	0.9
871.506	-2.81
871.673	1.07
871.839	-2.42
872.006	0.8
872.173	-0.07
872.339	-0.9
872.506	0.26
872.672	-0.19
872.839	-1.52
873.005	-0.77
873.172	3.63
873.338	1.73
873.505	-0.31
873.671	1.12
873.838	1.4
874.004	-2.4
874.171	0.05
874.337	-0.14
874.503	2.21
874.67	-0.61
874.836	-0.2
875.002	-0.2
875.169	1
875.335	-0.42
875.501	1.13
875.668	1.61
875.834	-0.32
876	-0.33
876.166	0.55
876.332	0.23
876.499	4.31
876.665	-1.46
876.831	-0.94
876.997	1.92
877.163	1.68
877.329	-2.7
877.495	-0.17
877.662	0.45
877.828	-0.74
877.994	-0.95
878.16	-3.63
878.326	-1.52
878.492	0.01
878.658	-1.12
878.824	0.83
878.99	0.76
879.156	-3.02
879.322	0.78
879.487	-1.02
879.653	-1.37
879.819	1.32
879.985	-1.07
880.151	0.27
880.317	1.02
880.483	-0.16
880.648	3.32
880.814	-1.61
880.98	2.54
881.146	-2.97
881.312	0.09
881.477	-1.23
881.643	-0.57
881.809	2.35
881.974	1.35
882.14	-1.66
882.306	-0.8
882.471	2.01
882.637	-0.95
882.803	0.07
882.968	5.32
883.134	4.43
883.299	0.72
883.465	-0.66
883.63	2.1
883.796	1.41
883.961	2.33
884.127	1.65
884.292	-2.59
884.458	-2.13
884.623	-2.13
