Data from Apollo_Calib_20240827__AbsoluteIrradiance__283__03-52-02-518.txt Node

Date: Wed Aug 28 03:52:02 BST 2024
User: biology
Spectrometer: FLMT08252
Trigger mode: 0
Integration Time (sec): 5.000000E-1
Scans to average: 5
Electric dark correction enabled: true
Nonlinearity correction enabled: false
Boxcar width: 0
XAxis mode: Wavelengths
Number of Pixels in Spectrum: 3648
>>>>>Begin Spectral Data<<<<<
179.588	-0
179.809	-0
180.03	-0
180.251	-0
180.473	-0
180.694	0
180.915	0
181.136	-0
181.357	0
181.578	0
181.799	-0
182.02	-0
182.241	-0
182.462	-0
182.683	0
182.904	-0
183.125	-0
183.346	0
183.567	0
183.788	-0
184.009	-0
184.23	0
184.451	0
184.672	-0
184.892	-0
185.113	0
185.334	0
185.555	-0
185.776	-0
185.996	0
186.217	0
186.438	0
186.659	-0
186.879	0
187.1	0
187.321	-0
187.541	-0
187.762	0
187.983	0
188.203	-0
188.424	0
188.644	-0
188.865	0
189.086	0
189.306	0
189.527	0
189.747	0
189.968	-0
190.188	0
190.409	0
190.629	0
190.849	0
191.07	-0
191.29	0
191.511	0
191.731	-0
191.951	-0
192.172	0
192.392	0
192.612	-0
192.833	0
193.053	0
193.273	0
193.493	0
193.714	0
193.934	0
194.154	0
194.374	0
194.594	0
194.815	0
195.035	0
195.255	0
195.475	-0
195.695	0
195.915	0
196.135	-0
196.355	0
196.575	0
196.795	0
197.015	-0
197.235	-0
197.455	0
197.675	0
197.895	-0
198.115	0
198.335	0
198.555	0
198.775	0
198.995	0
199.214	0
199.434	0
199.654	-0
199.874	0
200.094	1.86
200.313	0.37
200.533	0.35
200.753	-0.05
200.973	0.95
201.192	0.54
201.412	-0.38
201.632	-0.02
201.851	1.56
202.071	0.03
202.291	-0.23
202.51	-0.89
202.73	0.96
202.95	-0.08
203.169	-0.97
203.389	0.23
203.608	-0.09
203.828	0.05
204.047	0.14
204.267	0.39
204.486	0.2
204.706	0.1
204.925	0.13
205.145	-0.25
205.364	0.89
205.583	0.73
205.803	0.18
206.022	-0.36
206.242	0.47
206.461	0.11
206.68	0.14
206.9	0.08
207.119	0.78
207.338	0.87
207.557	-0.06
207.777	-0.13
207.996	0.02
208.215	0.85
208.434	0.15
208.654	-0.13
208.873	0.21
209.092	0.89
209.311	0.15
209.53	0.08
209.749	0.17
209.968	-0.06
210.187	0.14
210.407	-0.56
210.626	-0.12
210.845	0.77
211.064	0.11
211.283	-0.09
211.502	0.45
211.721	0.17
211.94	0.16
212.159	0.23
212.377	0.54
212.596	0.56
212.815	0.22
213.034	0.28
213.253	0.63
213.472	0.28
213.691	0.16
213.91	-0.17
214.128	0.02
214.347	0.47
214.566	-0.31
214.785	-0.24
215.003	0.58
215.222	0.34
215.441	0.27
215.66	-0.11
215.878	0.1
216.097	0.46
216.316	-0.14
216.534	0.03
216.753	0.23
216.972	0.06
217.19	0.17
217.409	-0.09
217.627	-0.01
217.846	0.11
218.064	0.26
218.283	-0.02
218.501	0.72
218.72	0.28
218.938	-0.12
219.157	0.08
219.375	0.15
219.594	0.29
219.812	-0.05
220.031	-0.14
220.249	0.62
220.467	0.48
220.686	0.08
220.904	-0.2
221.122	-0.01
221.341	0.48
221.559	0.2
221.777	-0.1
221.995	0.16
222.214	0.13
222.432	-0.03
222.65	0.34
222.868	0.15
223.086	0.1
223.305	0.3
223.523	0.1
223.741	0.44
223.959	0.07
224.177	-0.01
224.395	0.05
224.613	0.2
224.831	0.23
225.049	-0.04
225.267	-0.02
225.485	0.25
225.703	0.15
225.921	0.11
226.139	0.02
226.357	0.18
226.575	0.23
226.793	0.01
227.011	0.74
227.229	0.32
227.447	0.23
227.665	0.04
227.883	-0.2
228.1	0.06
228.318	0.16
228.536	-0.17
228.754	-0.07
228.972	0.25
229.189	0.18
229.407	0.06
229.625	-0.05
229.843	0.35
230.06	0.15
230.278	-0
230.496	0.09
230.713	0.15
230.931	0.25
231.149	-0.01
231.366	-0.11
231.584	0.13
231.801	0.45
232.019	0.09
232.236	-0.09
232.454	-0.03
232.671	0.2
232.889	0.04
233.106	-0.02
233.324	0.13
233.541	0.12
233.759	0.1
233.976	0.05
234.194	0.03
234.411	0.12
234.628	-0.02
234.846	0.15
235.063	0.07
235.28	0.03
235.498	0.09
235.715	-0.03
235.932	0.31
236.149	-0.04
236.367	-0.09
236.584	0.18
236.801	0.06
237.018	0.26
237.236	0.09
237.453	-0.07
237.67	0.28
237.887	0.09
238.104	0.13
238.321	-0.04
238.538	0.04
238.755	0.21
238.973	-0.13
239.19	0.09
239.407	0.08
239.624	0.16
239.841	-0.12
240.058	0.04
240.275	0.19
240.492	0.03
240.709	0.11
240.925	0.01
241.142	0.06
241.359	0.05
241.576	-0.05
241.793	0.05
242.01	0.11
242.227	0.19
242.444	0.16
242.66	0.12
242.877	0.05
243.094	0
243.311	0.09
243.527	-0.02
243.744	0.08
243.961	0.19
244.178	0
244.394	0.1
244.611	0.22
244.828	0.33
245.044	-0.05
245.261	0.07
245.477	0.07
245.694	0.22
245.911	0.1
246.127	0.05
246.344	0.19
246.56	0.22
246.777	0.06
246.993	0.11
247.21	0.13
247.426	0.08
247.643	-0.05
247.859	-0
248.076	0.03
248.292	0.2
248.508	0.08
248.725	0.04
248.941	0.09
249.157	0.13
249.374	0
249.59	0.05
249.806	0.12
250.023	0.15
250.239	-0.02
250.455	-0.01
250.671	0.08
250.888	0.14
251.104	0.17
251.32	0.09
251.536	0.08
251.752	0.08
251.969	0.13
252.185	0.11
252.401	0.25
252.617	0.04
252.833	0.05
253.049	0.06
253.265	0.07
253.481	0.06
253.697	-0.01
253.913	0.05
254.129	0.1
254.345	0.07
254.561	0.06
254.777	0.05
254.993	0.14
255.209	0.07
255.425	0.09
255.641	-0.06
255.857	0.13
256.073	0.13
256.288	-0.01
256.504	0.02
256.72	0.14
256.936	0.25
257.152	0.11
257.367	0.03
257.583	0.06
257.799	0.13
258.015	0.04
258.23	0.01
258.446	0.18
258.662	0.05
258.877	0
259.093	0
259.309	0.05
259.524	0.13
259.74	0.01
259.955	-0.02
260.171	0.09
260.387	0.08
260.602	0.13
260.818	0.17
261.033	-0
261.249	-0.02
261.464	0.05
261.68	-0.04
261.895	0.13
262.11	0.18
262.326	0.05
262.541	-0.04
262.757	0.16
262.972	0.09
263.187	0.11
263.403	0.01
263.618	0.18
263.833	0.09
264.049	-0.07
264.264	0.01
264.479	0.12
264.694	0.2
264.91	-0.04
265.125	0.03
265.34	0.09
265.555	0.22
265.77	0.11
265.986	0.08
266.201	0.07
266.416	0.14
266.631	0.03
266.846	0.05
267.061	0.13
267.276	0.1
267.491	-0.07
267.706	0.11
267.921	0.1
268.136	0.07
268.351	0.08
268.566	-0.04
268.781	0.11
268.996	0.14
269.211	0.02
269.426	0.02
269.641	0.01
269.856	0.1
270.071	-0.01
270.285	-0.03
270.5	0.09
270.715	0.16
270.93	0.02
271.145	0.11
271.359	0.16
271.574	0.01
271.789	0.05
272.004	-0.01
272.218	0.02
272.433	0.15
272.648	0.01
272.862	0.11
273.077	0.09
273.292	0.12
273.506	0.06
273.721	0.07
273.936	0.08
274.15	0.15
274.365	-0.03
274.579	0.1
274.794	0.05
275.008	0.12
275.223	0
275.437	-0.01
275.652	0.11
275.866	0.11
276.081	0.03
276.295	0.11
276.509	0.06
276.724	0.05
276.938	0.03
277.153	0.06
277.367	0.05
277.581	0.03
277.796	0.02
278.01	0.04
278.224	0.07
278.438	0.15
278.653	-0.08
278.867	-0.02
279.081	0.1
279.295	0.03
279.51	0.05
279.724	-0.04
279.938	0.08
280.152	0.09
280.366	-0.02
280.58	0.03
280.794	0.14
281.008	0.09
281.222	0.11
281.437	0.15
281.651	0.07
281.865	0.14
282.079	0.01
282.293	-0.06
282.507	-0.04
282.721	0.04
282.935	-0.01
283.148	-0.03
283.362	0.02
283.576	-0.03
283.79	0.04
284.004	-0.03
284.218	0.11
284.432	0.03
284.646	0.04
284.859	0.03
285.073	-0
285.287	0.08
285.501	0.08
285.714	0.02
285.928	0.1
286.142	0.08
286.356	-0
286.569	0.03
286.783	0.15
286.997	0.16
287.21	0.04
287.424	0.06
287.637	0.07
287.851	0.03
288.065	0.14
288.278	0.03
288.492	0.07
288.705	0.03
288.919	0.06
289.132	-0.02
289.346	0.16
289.559	-0.04
289.773	0.01
289.986	0.03
290.2	0.04
290.413	0.13
290.626	0.03
290.84	0.03
291.053	0.08
291.267	0.15
291.48	0.05
291.693	0.06
291.906	-0.01
292.12	0.01
292.333	0.02
292.546	0.03
292.76	0.17
292.973	0.07
293.186	0.01
293.399	0
293.612	0.14
293.826	0.04
294.039	0.08
294.252	0.06
294.465	0.08
294.678	0.12
294.891	0.05
295.104	-0.02
295.317	0.04
295.53	0.1
295.743	0.02
295.956	0.04
296.169	0.15
296.382	0.09
296.595	0.04
296.808	0.02
297.021	0.12
297.234	0.1
297.447	0.04
297.66	0.09
297.873	0.16
298.086	0.08
298.299	0
298.511	0
298.724	0.04
298.937	0
299.15	-0
299.363	0.07
299.575	0.1
299.788	0.12
300.001	0.03
300.213	-0.02
300.426	0.03
300.639	0.01
300.852	0.05
301.064	0.08
301.277	0.13
301.489	0.12
301.702	0.06
301.915	0.05
302.127	0.06
302.34	0.08
302.552	0.05
302.765	0.03
302.977	0.12
303.19	-0.01
303.402	0.02
303.615	-0
303.827	0
304.04	0.05
304.252	0.08
304.464	0.03
304.677	0.14
304.889	0.09
305.102	0.02
305.314	-0.01
305.526	0.07
305.739	0.05
305.951	0.04
306.163	0.06
306.375	0.12
306.588	0.03
306.8	0.01
307.012	-0.02
307.224	0.07
307.436	0.12
307.649	-0.01
307.861	0.02
308.073	0.08
308.285	0.05
308.497	0
308.709	0.05
308.921	0.05
309.133	0.09
309.346	0.04
309.558	0.06
309.77	0.08
309.982	0.1
310.194	0.09
310.406	-0.01
310.617	0.12
310.829	0.05
311.041	0.12
311.253	0.03
311.465	0.04
311.677	0.08
311.889	0.03
312.101	-0
312.313	0.11
312.524	0.14
312.736	-0.02
312.948	0.03
313.16	0.15
313.372	0.13
313.583	0.09
313.795	0.02
314.007	0.04
314.218	0.07
314.43	0.09
314.642	0.02
314.853	-0.08
315.065	0.09
315.277	0.04
315.488	0.07
315.7	0.1
315.912	0.09
316.123	0.06
316.335	0.04
316.546	0.17
316.758	0.03
316.969	0.01
317.181	0.05
317.392	0.04
317.604	0.09
317.815	0.01
318.026	0.03
318.238	0.07
318.449	0.08
318.661	-0.03
318.872	-0.04
319.083	-0.02
319.295	0.1
319.506	0.02
319.717	0.07
319.929	0.11
320.14	0.09
320.351	0.02
320.562	0.01
320.774	0.07
320.985	0.06
321.196	0
321.407	-0.01
321.618	0.12
321.829	0.07
322.041	0.04
322.252	0.06
322.463	0.08
322.674	0.1
322.885	-0.01
323.096	0.04
323.307	0.03
323.518	0.07
323.729	0.01
323.94	0.05
324.151	0.03
324.362	0.07
324.573	0.1
324.784	0.01
324.995	0.09
325.206	0.08
325.417	0.04
325.628	0.02
325.838	0.05
326.049	0.1
326.26	0.08
326.471	0.02
326.682	0.08
326.892	0.08
327.103	-0.03
327.314	0
327.525	0.11
327.735	0.04
327.946	0.05
328.157	0.02
328.368	0.09
328.578	0.03
328.789	0.04
328.999	0.03
329.21	0.05
329.421	0.1
329.631	0.03
329.842	0
330.052	0.1
330.263	0.09
330.473	0.07
330.684	0.08
330.894	0.06
331.105	0.07
331.315	0.05
331.526	0.01
331.736	0.17
331.947	0.05
332.157	0.11
332.367	0.02
332.578	0.09
332.788	0.09
332.999	0.1
333.209	0.04
333.419	-0
333.629	0.08
333.84	0.12
334.05	0.06
334.26	0.15
334.47	0.1
334.681	0.09
334.891	0.07
335.101	0.1
335.311	0.18
335.521	0.09
335.732	0.03
335.942	0.14
336.152	0.08
336.362	0.08
336.572	0.06
336.782	0.07
336.992	0.05
337.202	0.01
337.412	0.02
337.622	0.12
337.832	0.08
338.042	0.05
338.252	0.03
338.462	0.07
338.672	0.08
338.882	0.04
339.092	0.08
339.302	0.12
339.511	0.09
339.721	-0.01
339.931	0.03
340.141	0.13
340.351	0.1
340.561	0.09
340.77	0.06
340.98	0.06
341.19	0.09
341.4	0.04
341.609	0.03
341.819	0.06
342.029	0.05
342.238	0.05
342.448	0.06
342.658	0.11
342.867	0.03
343.077	0.07
343.286	0.01
343.496	0.08
343.706	0.15
343.915	0.01
344.125	0.05
344.334	0.08
344.544	0.01
344.753	0.05
344.963	0.02
345.172	0.02
345.381	0.05
345.591	0.02
345.8	0.02
346.01	0.1
346.219	0.1
346.428	-0.07
346.638	0.04
346.847	0.11
347.056	0.14
347.266	0.02
347.475	0.08
347.684	0.08
347.893	0.07
348.103	0.11
348.312	0.08
348.521	0.06
348.73	0.09
348.94	0.12
349.149	0.06
349.358	0.08
349.567	0.06
349.776	0
349.985	0.03
350.194	0.1
350.403	0.12
350.612	-0.01
350.821	0.01
351.03	0.08
351.239	0.02
351.448	0.06
351.657	0.02
351.866	0.15
352.075	0.08
352.284	0.09
352.493	0.05
352.702	0.12
352.911	0.09
353.12	0.07
353.329	0.04
353.538	0.11
353.746	0.03
353.955	0.06
354.164	0.07
354.373	0.07
354.582	0.12
354.79	0.07
354.999	0.07
355.208	0.05
355.416	0.19
355.625	-0
355.834	0.06
356.042	0.09
356.251	0.04
356.46	0
356.668	0.06
356.877	0.17
357.085	0.1
357.294	-0
357.503	0.07
357.711	0.06
357.92	0.22
358.128	0.08
358.337	0.06
358.545	0.08
358.754	0.02
358.962	0.1
359.17	0.02
359.379	0.07
359.587	0.07
359.796	0.05
360.004	0.14
360.212	0.11
360.421	0.12
360.629	0.02
360.837	0.05
361.046	0.11
361.254	0.18
361.462	0.08
361.67	0.05
361.879	0.06
362.087	0.13
362.295	0.09
362.503	0.07
362.711	0.02
362.92	0.03
363.128	0.05
363.336	0.03
363.544	0.03
363.752	0.09
363.96	0.04
364.168	0.05
364.376	0.05
364.584	0.12
364.792	0.11
365	0.12
365.208	0.09
365.416	0.08
365.624	0.12
365.832	0.02
366.04	0.15
366.248	0.08
366.456	0.09
366.664	0.08
366.872	0.08
367.079	0.1
367.287	0.08
367.495	0.06
367.703	0.08
367.911	0.07
368.118	0.08
368.326	0.07
368.534	0.04
368.742	0.13
368.949	0.04
369.157	0.03
369.365	0.08
369.572	0.08
369.78	0.07
369.988	0.09
370.195	0.12
370.403	0.12
370.61	0.05
370.818	0.09
371.026	0.14
371.233	0.06
371.441	0.09
371.648	0.1
371.856	0.09
372.063	0.06
372.271	0.02
372.478	0.07
372.685	0.07
372.893	0.08
373.1	0.07
373.308	0.07
373.515	0.17
373.722	0.09
373.93	0.07
374.137	0.12
374.344	0.17
374.552	0.11
374.759	0.13
374.966	0.06
375.173	0.06
375.381	0.12
375.588	0.06
375.795	0.02
376.002	0.08
376.209	0.05
376.417	0.1
376.624	0.06
376.831	0.11
377.038	0.08
377.245	0.05
377.452	0.06
377.659	0.08
377.866	0.06
378.073	0.06
378.28	0.09
378.487	0.08
378.694	0.12
378.901	0.08
379.108	0.08
379.315	0.16
379.522	0.18
379.729	0.1
379.936	0.1
380.143	0.07
380.35	0.11
380.557	0.05
380.763	0.09
380.97	0.09
381.177	0.11
381.384	0.1
381.591	0.12
381.797	0.1
382.004	0.11
382.211	0.14
382.418	0.1
382.624	0.11
382.831	0.15
383.038	0.05
383.244	0.13
383.451	0.09
383.658	0.17
383.864	0.1
384.071	0.08
384.277	0.16
384.484	0.1
384.69	0.13
384.897	0.12
385.103	0.08
385.31	0.07
385.516	0.1
385.723	0.06
385.929	0.09
386.136	0.05
386.342	0.11
386.549	0.08
386.755	0.14
386.961	0.15
387.168	0.14
387.374	0.09
387.58	0.17
387.787	0.15
387.993	0.13
388.199	0.13
388.406	0.1
388.612	0.11
388.818	0.11
389.024	0.11
389.231	0.16
389.437	0.18
389.643	0.19
389.849	0.19
390.055	0.2
390.261	0.17
390.467	0.21
390.674	0.09
390.88	0.16
391.086	0.15
391.292	0.14
391.498	0.2
391.704	0.18
391.91	0.17
392.116	0.16
392.322	0.1
392.528	0.21
392.734	0.19
392.94	0.21
393.146	0.15
393.352	0.22
393.557	0.17
393.763	0.21
393.969	0.27
394.175	0.23
394.381	0.24
394.587	0.19
394.792	0.23
394.998	0.27
395.204	0.28
395.41	0.22
395.615	0.29
395.821	0.3
396.027	0.32
396.233	0.28
396.438	0.33
396.644	0.39
396.85	0.39
397.055	0.33
397.261	0.38
397.466	0.44
397.672	0.42
397.878	0.42
398.083	0.43
398.289	0.36
398.494	0.52
398.7	0.5
398.905	0.42
399.111	0.58
399.316	0.48
399.522	0.5
399.727	0.54
399.932	0.56
400.138	0.59
400.343	0.6
400.549	0.66
400.754	0.69
400.959	0.7
401.165	0.74
401.37	0.75
401.575	0.87
401.78	0.87
401.986	0.84
402.191	0.91
402.396	0.95
402.601	0.97
402.807	1.06
403.012	1.09
403.217	1.18
403.422	1.16
403.627	1.22
403.832	1.31
404.037	1.41
404.243	1.4
404.448	1.49
404.653	1.52
404.858	1.65
405.063	1.62
405.268	1.71
405.473	1.77
405.678	1.79
405.883	2.14
406.088	2.06
406.293	2.01
406.498	2.18
406.703	2.29
406.907	2.44
407.112	2.45
407.317	2.68
407.522	2.88
407.727	2.94
407.932	3.03
408.136	3.21
408.341	3.26
408.546	3.43
408.751	3.57
408.956	3.65
409.16	3.93
409.365	4.06
409.57	4.14
409.774	4.24
409.979	4.53
410.184	4.51
410.388	4.75
410.593	5.02
410.798	5.21
411.002	5.48
411.207	5.61
411.411	5.82
411.616	6.01
411.82	6.35
412.025	6.53
412.229	6.86
412.434	6.95
412.638	7.18
412.843	7.42
413.047	7.68
413.252	7.9
413.456	8.48
413.66	8.56
413.865	8.68
414.069	9.08
414.273	9.21
414.478	9.5
414.682	9.76
414.886	10.12
415.091	10.17
415.295	10.66
415.499	11.12
415.703	11.19
415.908	11.72
416.112	11.92
416.316	12.42
416.52	12.73
416.724	12.96
416.929	13.33
417.133	13.86
417.337	13.98
417.541	14.37
417.745	14.72
417.949	15.03
418.153	15.69
418.357	15.84
418.561	16.74
418.765	16.46
418.969	16.85
419.173	17.73
419.377	17.76
419.581	18.44
419.785	18.82
419.989	18.99
420.193	19.66
420.397	19.9
420.601	20.08
420.804	20.51
421.008	20.56
421.212	20.98
421.416	20.48
421.62	20.53
421.823	20.7
422.027	20.62
422.231	20.48
422.435	20.2
422.638	20.1
422.842	20.27
423.046	20.63
423.249	20.82
423.453	20.45
423.657	20.45
423.86	20.65
424.064	20.84
424.268	20.55
424.471	20.54
424.675	20.45
424.878	20.28
425.082	20.4
425.285	20.85
425.489	19.9
425.692	19.74
425.896	19.37
426.099	19.32
426.303	19.17
426.506	19.32
426.71	19.24
426.913	18.97
427.116	18.73
427.32	18.24
427.523	17.89
427.726	17.8
427.93	17.81
428.133	17.71
428.336	17.62
428.54	17.18
428.743	17.13
428.946	16.78
429.149	16.3
429.353	15.7
429.556	15.24
429.759	14.74
429.962	14.46
430.165	14.09
430.368	12.84
430.571	12.64
430.775	12.28
430.978	11.66
431.181	11.3
431.384	11.02
431.587	10.65
431.79	10.73
431.993	10.31
432.196	10.22
432.399	10.24
432.602	10.06
432.805	9.81
433.008	10.04
433.211	9.51
433.414	9.51
433.616	9.16
433.819	8.81
434.022	8.67
434.225	8.57
434.428	8.17
434.631	8.3
434.833	7.75
435.036	7.72
435.239	7.63
435.442	7.3
435.645	7.22
435.847	7.11
436.05	6.91
436.253	6.93
436.455	6.67
436.658	6.35
436.861	6.32
437.063	6.12
437.266	5.88
437.468	5.98
437.671	6.01
437.874	5.77
438.076	5.42
438.279	5.35
438.481	5.28
438.684	5.32
438.886	5.13
439.089	4.93
439.291	4.88
439.494	4.78
439.696	4.65
439.899	4.79
440.101	4.72
440.303	4.53
440.506	4.65
440.708	4.34
440.91	4.3
441.113	4.17
441.315	4.11
441.517	3.85
441.72	3.92
441.922	3.63
442.124	3.53
442.326	3.55
442.529	3.51
442.731	3.35
442.933	3.34
443.135	3.06
443.337	2.93
443.539	2.93
443.742	2.84
443.944	2.89
444.146	2.64
444.348	2.62
444.55	2.48
444.752	2.5
444.954	2.4
445.156	2.34
445.358	2.3
445.56	2.32
445.762	2.15
445.964	2.18
446.166	2.04
446.368	2.01
446.57	2.05
446.772	1.91
446.974	1.88
447.175	1.88
447.377	1.83
447.579	1.8
447.781	1.71
447.983	1.76
448.184	1.56
448.386	1.6
448.588	1.44
448.79	1.48
448.991	1.48
449.193	1.49
449.395	1.41
449.597	1.5
449.798	1.33
450	1.32
450.202	1.33
450.403	1.27
450.605	1.32
450.806	1.21
451.008	1.16
451.21	1.19
451.411	1.16
451.613	1.06
451.814	1.13
452.016	1.13
452.217	1.02
452.419	1.08
452.62	1.01
452.821	1.04
453.023	1.06
453.224	0.99
453.426	0.9
453.627	0.84
453.828	0.9
454.03	0.88
454.231	0.94
454.432	0.83
454.634	0.95
454.835	0.81
455.036	0.8
455.238	0.89
455.439	0.81
455.64	0.68
455.841	0.69
456.042	0.86
456.244	0.72
456.445	0.7
456.646	0.61
456.847	0.64
457.048	0.71
457.249	0.74
457.45	0.96
457.651	0.6
457.852	0.68
458.054	0.56
458.255	0.57
458.456	0.59
458.657	0.58
458.858	0.51
459.058	0.55
459.259	0.55
459.46	0.52
459.661	0.48
459.862	0.67
460.063	0.55
460.264	0.61
460.465	0.43
460.666	0.61
460.866	0.46
461.067	0.42
461.268	0.39
461.469	0.38
461.67	0.41
461.87	0.37
462.071	0.35
462.272	0.4
462.473	0.39
462.673	0.42
462.874	0.34
463.075	0.46
463.275	0.37
463.476	0.4
463.676	0.39
463.877	0.4
464.078	0.37
464.278	0.4
464.479	0.36
464.679	0.3
464.88	0.32
465.08	0.44
465.281	0.31
465.481	0.3
465.682	0.37
465.882	0.34
466.083	0.29
466.283	0.31
466.483	0.28
466.684	0.23
466.884	0.23
467.085	0.23
467.285	0.34
467.485	0.28
467.686	0.27
467.886	0.19
468.086	0.26
468.286	0.24
468.487	0.28
468.687	0.19
468.887	0.21
469.087	0.25
469.287	0.23
469.488	0.19
469.688	0.25
469.888	0.31
470.088	0.28
470.288	0.27
470.488	0.3
470.688	0.21
470.888	0.23
471.088	0.15
471.288	0.26
471.488	0.25
471.688	0.26
471.888	0.16
472.088	0.29
472.288	0.26
472.488	0.14
472.688	0.2
472.888	0.18
473.088	0.2
473.288	0.21
473.488	0.16
473.688	0.28
473.887	0.2
474.087	0.17
474.287	0.24
474.487	0.13
474.687	0.19
474.886	0.16
475.086	0.18
475.286	0.18
475.486	0.17
475.685	0.16
475.885	0.16
476.085	0.16
476.284	0.19
476.484	0.14
476.684	0.2
476.883	0.21
477.083	0.18
477.282	0.14
477.482	0.19
477.681	0.18
477.881	0.14
478.08	0.11
478.28	0.1
478.479	0.18
478.679	0.21
478.878	0.12
479.078	0.12
479.277	0.1
479.477	0.15
479.676	0.16
479.875	0.12
480.075	0.05
480.274	0.16
480.473	0.14
480.673	0.09
480.872	0.15
481.071	0.15
481.271	0.15
481.47	0.1
481.669	0.09
481.868	0.09
482.067	0.1
482.267	0.08
482.466	0.09
482.665	0.07
482.864	0.07
483.063	0.08
483.262	0.13
483.461	0.15
483.661	0.11
483.86	0.1
484.059	0.11
484.258	0.08
484.457	0.1
484.656	0.09
484.855	0.12
485.054	0.07
485.253	0.08
485.452	0.07
485.651	0.09
485.849	0.09
486.048	0.07
486.247	0.06
486.446	0.11
486.645	0.05
486.844	0.05
487.043	0.08
487.241	0.14
487.44	0.03
487.639	0.06
487.838	0.09
488.037	0.1
488.235	0.12
488.434	0.09
488.633	0.06
488.831	0.08
489.03	0.12
489.229	0.08
489.427	0.09
489.626	0.12
489.825	0.14
490.023	0.08
490.222	0.04
490.42	0.09
490.619	0.1
490.817	0.08
491.016	0.05
491.214	0.11
491.413	0.04
491.611	0.05
491.81	0.08
492.008	0.09
492.207	0.09
492.405	0.07
492.604	0.03
492.802	0.08
493	0.06
493.199	0.05
493.397	0.08
493.595	0.07
493.794	0.05
493.992	0.11
494.19	0.06
494.388	0.09
494.587	0.04
494.785	0.09
494.983	0.03
495.181	0.06
495.379	0.06
495.578	0.04
495.776	0.08
495.974	0.09
496.172	0.06
496.37	0.04
496.568	0.03
496.766	0.03
496.964	0.08
497.162	0.07
497.36	0.01
497.558	0.08
497.756	0.1
497.954	0.05
498.152	0.05
498.35	0.06
498.548	0.07
498.746	0.07
498.944	0.03
499.142	0.04
499.34	0.02
499.538	0.04
499.736	0.02
499.933	0.09
500.131	0.07
500.329	0.04
500.527	0.09
500.725	0.11
500.922	0.08
501.12	0.06
501.318	0.07
501.516	0.03
501.713	0.07
501.911	0.06
502.109	0.04
502.306	0.05
502.504	0.05
502.701	0.02
502.899	0.04
503.097	0.11
503.294	0.06
503.492	0.06
503.689	0.07
503.887	0.07
504.084	0.12
504.282	0.07
504.479	0.01
504.677	0.06
504.874	0.02
505.072	0.07
505.269	0.04
505.466	0.06
505.664	0.08
505.861	0.01
506.059	0.04
506.256	0.05
506.453	0.04
506.651	0.08
506.848	0.07
507.045	0.07
507.242	0.04
507.44	0.06
507.637	0.05
507.834	0.05
508.031	0.08
508.229	0.02
508.426	0.04
508.623	0.07
508.82	0.04
509.017	0.03
509.214	0.03
509.411	0.05
509.608	0.03
509.805	0.05
510.003	0.03
510.2	0.06
510.397	0.06
510.594	0.03
510.791	0.01
510.988	0.06
511.184	0.07
511.381	0.02
511.578	0.02
511.775	0.09
511.972	0.03
512.169	0.04
512.366	0.04
512.563	0.04
512.76	0.03
512.956	0.04
513.153	0.03
513.35	0.06
513.547	0.03
513.744	0.01
513.94	0.03
514.137	0.02
514.334	0.04
514.53	0.04
514.727	0.05
514.924	0.11
515.12	0.02
515.317	0.01
515.514	0.02
515.71	0.03
515.907	0.03
516.103	0.04
516.3	0.04
516.497	0.06
516.693	0.07
516.89	0.05
517.086	0.03
517.283	0.05
517.479	0.05
517.676	0.04
517.872	0.03
518.068	0.03
518.265	0.02
518.461	0.02
518.658	-0
518.854	0.05
519.05	0.03
519.247	0.03
519.443	0.04
519.639	0.03
519.836	0.05
520.032	0.03
520.228	0.05
520.424	0.08
520.621	0.04
520.817	0.03
521.013	0.06
521.209	0.04
521.405	0.08
521.601	0.02
521.798	0.05
521.994	0.09
522.19	0
522.386	0
522.582	0.03
522.778	0.05
522.974	0.02
523.17	0.04
523.366	0.05
523.562	0.05
523.758	0.03
523.954	0.01
524.15	0.02
524.346	0.04
524.542	0.02
524.738	0
524.934	0.03
525.129	0.03
525.325	0.04
525.521	0.03
525.717	0.06
525.913	0.06
526.109	0.03
526.304	0.02
526.5	0.04
526.696	0.08
526.892	0.02
527.087	0.06
527.283	0.01
527.479	0.04
527.674	0.01
527.87	0.03
528.066	0.02
528.261	0.07
528.457	0.07
528.653	0.03
528.848	0.04
529.044	0.05
529.239	0.04
529.435	0.05
529.63	0.05
529.826	0.08
530.021	0.04
530.217	0.04
530.412	0
530.608	0.01
530.803	0.03
530.999	-0
531.194	0
531.389	0.05
531.585	-0.02
531.78	0.04
531.975	0.03
532.171	0.06
532.366	0.02
532.561	0.04
532.757	0.01
532.952	0.04
533.147	0.05
533.342	0.04
533.538	-0
533.733	0.05
533.928	0.03
534.123	0.02
534.318	-0.01
534.513	0.01
534.709	0.01
534.904	-0
535.099	0.01
535.294	0.01
535.489	0.03
535.684	0
535.879	0
536.074	0.03
536.269	0.01
536.464	0.02
536.659	0.02
536.854	0.04
537.049	0.04
537.244	0.04
537.439	0.02
537.634	0.03
537.828	0.01
538.023	0.04
538.218	0.01
538.413	0.03
538.608	-0.01
538.803	0.05
538.997	-0.01
539.192	0.06
539.387	0.04
539.582	0.02
539.776	0.02
539.971	0.02
540.166	0.03
540.36	-0.01
540.555	0.03
540.75	0.02
540.944	0.04
541.139	-0.02
541.334	-0
541.528	0.05
541.723	0.04
541.917	-0
542.112	-0.02
542.306	0.02
542.501	0.02
542.695	0.02
542.89	-0.01
543.084	0.03
543.279	0.05
543.473	0.03
543.668	0.03
543.862	0.02
544.056	0.05
544.251	0.01
544.445	0.03
544.64	-0
544.834	0.01
545.028	0.03
545.222	0.03
545.417	0.04
545.611	0.03
545.805	0.02
546	0.03
546.194	0.01
546.388	-0
546.582	0.04
546.776	0.03
546.97	0.01
547.165	0.04
547.359	0.05
547.553	0.01
547.747	0.01
547.941	0.02
548.135	0.04
548.329	0.05
548.523	0.03
548.717	-0
548.911	0
549.105	0.02
549.299	0.03
549.493	0.04
549.687	0.03
549.881	0.03
550.075	0.04
550.269	-0.02
550.463	0.08
550.657	0
550.85	0.03
551.044	-0.01
551.238	0.04
551.432	0.01
551.626	-0.02
551.82	0.04
552.013	0
552.207	0.01
552.401	0.03
552.594	0.03
552.788	0.03
552.982	0.04
553.176	0.02
553.369	0.02
553.563	0.03
553.756	-0.03
553.95	0.01
554.144	0.02
554.337	0.05
554.531	0.03
554.724	0.01
554.918	0.01
555.111	0.06
555.305	0.03
555.498	0.06
555.692	0.02
555.885	0.02
556.079	0.04
556.272	0.01
556.466	0.04
556.659	0.01
556.852	0.01
557.046	0.02
557.239	0.06
557.432	0.01
557.626	-0.02
557.819	0.02
558.012	0.03
558.206	0.03
558.399	0.03
558.592	0.01
558.785	0.01
558.979	0.05
559.172	0.03
559.365	0.04
559.558	0.03
559.751	0
559.944	-0.01
560.138	0.01
560.331	0
560.524	-0.01
560.717	0.03
560.91	-0.01
561.103	0.03
561.296	0.02
561.489	0.06
561.682	0.03
561.875	0.06
562.068	0.05
562.261	0.03
562.454	0.06
562.647	0.05
562.84	0.03
563.032	0
563.225	0.05
563.418	0.01
563.611	0.02
563.804	0
563.997	-0.02
564.19	-0.02
564.382	0.04
564.575	0.01
564.768	0.02
564.961	0.04
565.153	-0.02
565.346	0.03
565.539	0.04
565.731	0.05
565.924	0.03
566.117	0.04
566.309	0.02
566.502	0.01
566.695	0.01
566.887	0.03
567.08	0
567.272	0.03
567.465	0.01
567.657	0.02
567.85	0.04
568.042	0.03
568.235	0.07
568.427	0.03
568.62	0.02
568.812	0.02
569.005	0.02
569.197	-0.03
569.389	0.03
569.582	0.04
569.774	0.01
569.966	-0.02
570.159	-0.01
570.351	0.03
570.543	0.01
570.736	0.01
570.928	0.01
571.12	0.03
571.312	0
571.505	-0.02
571.697	0.06
571.889	-0
572.081	0.01
572.273	-0.02
572.465	0.05
572.658	0
572.85	0.04
573.042	0
573.234	0.02
573.426	0.05
573.618	-0.03
573.81	0.03
574.002	0.04
574.194	0.05
574.386	-0.03
574.578	-0.05
574.77	0
574.962	0.01
575.154	-0.03
575.346	-0.01
575.538	0.02
575.729	0
575.921	0
576.113	0.01
576.305	0.05
576.497	0.02
576.689	0.01
576.88	-0.04
577.072	0.05
577.264	0.01
577.456	0.01
577.647	-0.05
577.839	0.02
578.031	0.04
578.223	-0.03
578.414	-0.01
578.606	0.03
578.798	0.04
578.989	-0
579.181	-0
579.372	0.03
579.564	0.01
579.755	0.03
579.947	-0.01
580.139	0.03
580.33	-0.02
580.522	-0
580.713	-0.04
580.905	0.01
581.096	0.04
581.287	0.02
581.479	0.01
581.67	0.04
581.862	0.03
582.053	-0.01
582.244	-0.04
582.436	0.03
582.627	0.02
582.818	-0.02
583.01	-0.02
583.201	0.02
583.392	0.06
583.583	0.03
583.775	0.01
583.966	-0.01
584.157	0
584.348	0
584.54	-0.03
584.731	0.02
584.922	-0
585.113	-0.02
585.304	0.03
585.495	0.04
585.686	0.01
585.877	0.03
586.068	0.03
586.259	0.04
586.45	0.02
586.641	0.02
586.832	-0.07
587.023	0.03
587.214	0.02
587.405	0.01
587.596	-0.03
587.787	0.04
587.978	0.01
588.169	-0.01
588.36	-0.01
588.551	0.02
588.742	0
588.932	0.04
589.123	-0.02
589.314	0.03
589.505	0.03
589.696	0.03
589.886	-0.01
590.077	-0.04
590.268	0.02
590.458	-0.02
590.649	-0.03
590.84	0.06
591.03	-0.01
591.221	-0.01
591.412	-0.05
591.602	0.02
591.793	0.06
591.984	-0.04
592.174	0
592.365	0.06
592.555	0.01
592.746	0.03
592.936	0.03
593.127	0.04
593.317	0.07
593.508	-0.01
593.698	0.01
593.889	0.02
594.079	0.02
594.269	0
594.46	0
594.65	0
594.84	0.01
595.031	-0.02
595.221	-0.01
595.411	-0.04
595.602	0.05
595.792	-0
595.982	-0.01
596.172	0.06
596.363	0.02
596.553	0.04
596.743	0
596.933	0.02
597.123	0.04
597.314	-0.01
597.504	0.01
597.694	0.06
597.884	0.04
598.074	-0.01
598.264	-0.02
598.454	0.01
598.644	0.02
598.834	0.03
599.024	-0.06
599.214	0
599.404	0.03
599.594	-0.01
599.784	-0
599.974	0.07
600.164	0.05
600.354	-0.02
600.544	-0.04
600.734	0.02
600.924	0.05
601.114	-0.01
601.303	0
601.493	0.04
601.683	0.01
601.873	0.02
602.063	-0.05
602.252	0.04
602.442	-0.04
602.632	-0.02
602.821	-0.02
603.011	0.05
603.201	0.02
603.39	-0.03
603.58	-0
603.77	0.05
603.959	0.04
604.149	0.01
604.339	-0.02
604.528	0.01
604.718	0.03
604.907	0.01
605.097	-0.01
605.286	-0.01
605.476	0.04
605.665	0.01
605.855	-0
606.044	0.06
606.234	0.04
606.423	-0
606.612	-0.04
606.802	0.02
606.991	0.04
607.181	0.03
607.37	-0.02
607.559	0
607.749	-0.01
607.938	-0
608.127	-0.02
608.316	-0.02
608.506	0.03
608.695	0.01
608.884	-0.05
609.073	0.02
609.263	0.03
609.452	0.01
609.641	0.01
609.83	-0.02
610.019	-0.02
610.208	-0.02
610.397	0
610.586	0.03
610.775	-0.02
610.965	-0
611.154	0
611.343	0.02
611.532	0.03
611.721	-0.02
611.91	0.01
612.099	0.05
612.287	0.01
612.476	-0.05
612.665	0.03
612.854	-0.01
613.043	0.04
613.232	-0.04
613.421	-0.04
613.61	0.02
613.798	-0.03
613.987	0.06
614.176	0.01
614.365	0.03
614.554	0.03
614.742	0.02
614.931	-0.03
615.12	0.04
615.309	0.01
615.497	0.03
615.686	-0.04
615.875	-0
616.063	-0
616.252	-0.02
616.44	-0.01
616.629	-0
616.818	0.03
617.006	0
617.195	-0.01
617.383	0.03
617.572	0
617.76	-0.02
617.949	-0.01
618.137	0.02
618.326	0.03
618.514	-0.02
618.703	-0.04
618.891	0.06
619.079	-0.05
619.268	0.04
619.456	-0.03
619.644	0.06
619.833	-0.02
620.021	-0.04
620.209	-0.04
620.398	0.03
620.586	0.01
620.774	0.05
620.962	-0.01
621.151	0.06
621.339	0.01
621.527	-0.03
621.715	-0.04
621.903	-0.02
622.092	-0
622.28	0.04
622.468	0.02
622.656	0.03
622.844	0.01
623.032	-0.01
623.22	-0.08
623.408	0.04
623.596	0.02
623.784	0.01
623.972	-0.03
624.16	-0.03
624.348	0.08
624.536	0.03
624.724	-0.03
624.912	0.07
625.1	0.01
625.288	-0.02
625.476	-0.03
625.664	0.03
625.851	-0.02
626.039	-0
626.227	0.02
626.415	-0.01
626.603	-0.04
626.79	0
626.978	-0.02
627.166	0.03
627.354	0.02
627.541	-0.02
627.729	-0.06
627.917	0.05
628.104	0.04
628.292	0.02
628.48	-0.01
628.667	0.04
628.855	-0.01
629.042	0.02
629.23	0.01
629.418	-0
629.605	0.01
629.793	-0.01
629.98	-0.03
630.168	-0.02
630.355	0
630.543	0.01
630.73	-0.03
630.917	0.03
631.105	0.02
631.292	-0
631.48	0.01
631.667	0.06
631.854	-0.01
632.042	-0.02
632.229	-0.04
632.416	-0.01
632.604	-0.01
632.791	-0.03
632.978	0.04
633.165	0.01
633.353	0.11
633.54	0.03
633.727	-0.07
633.914	-0.02
634.101	-0.06
634.289	0.03
634.476	-0.02
634.663	-0.04
634.85	0.01
635.037	-0.05
635.224	-0.06
635.411	0.04
635.598	0.04
635.785	-0.01
635.972	-0.01
636.159	0.03
636.346	-0.04
636.533	-0.02
636.72	-0.01
636.907	-0.03
637.094	0.01
637.281	-0.03
637.468	0.04
637.655	-0.01
637.842	-0.01
638.029	-0.03
638.215	0.01
638.402	0
638.589	-0.01
638.776	-0.04
638.963	-0.02
639.149	0.04
639.336	0.04
639.523	0.01
639.709	0
639.896	0.01
640.083	0.08
640.27	0.02
640.456	-0.01
640.643	0.03
640.829	-0.05
641.016	-0.01
641.203	-0.03
641.389	0.04
641.576	0.03
641.762	-0.02
641.949	-0
642.135	0.01
642.322	0.01
642.508	-0.05
642.695	0.02
642.881	0.01
643.068	-0.01
643.254	-0.01
643.441	0.01
643.627	0.01
643.813	-0.01
644	-0.01
644.186	-0.01
644.372	0.01
644.559	0.08
644.745	0
644.931	-0.04
645.118	-0.02
645.304	0
645.49	-0.04
645.676	-0.04
645.862	0
646.049	0.04
646.235	-0.02
646.421	0.09
646.607	0.06
646.793	0.01
646.979	-0.03
647.165	0.01
647.352	0.01
647.538	0.04
647.724	0.01
647.91	0.01
648.096	0.04
648.282	0.07
648.468	0
648.654	0.02
648.84	-0.01
649.026	0
649.212	-0
649.397	-0.03
649.583	-0.07
649.769	0.05
649.955	0
650.141	0.01
650.327	0.06
650.513	-0.03
650.698	0.01
650.884	-0.08
651.07	0.02
651.256	0.03
651.442	0
651.627	-0.02
651.813	0.03
651.999	0.02
652.184	0.02
652.37	-0.01
652.556	-0.02
652.741	0.07
652.927	-0.06
653.113	0.01
653.298	-0.03
653.484	-0.01
653.669	-0.04
653.855	-0.02
654.04	0.04
654.226	0.02
654.412	-0.02
654.597	-0.04
654.782	0.04
654.968	0.06
655.153	0.01
655.339	-0.07
655.524	-0.05
655.71	0.02
655.895	-0.01
656.08	-0.03
656.266	0.06
656.451	0.02
656.636	-0.04
656.822	0.02
657.007	-0
657.192	-0.02
657.378	-0.06
657.563	0.01
657.748	0.05
657.933	0.01
658.118	-0.01
658.304	-0.02
658.489	0.03
658.674	0.01
658.859	-0.04
659.044	0
659.229	0.08
659.414	-0.04
659.599	0.01
659.785	-0.04
659.97	0
660.155	0.02
660.34	-0
660.525	0.01
660.71	0.01
660.895	0.06
661.08	-0.02
661.264	-0.04
661.449	0.07
661.634	0.05
661.819	0.05
662.004	0.02
662.189	-0.1
662.374	-0.02
662.559	-0.04
662.743	-0.07
662.928	-0
663.113	-0.04
663.298	-0.08
663.483	-0.02
663.667	0.03
663.852	-0.05
664.037	0.08
664.221	-0.02
664.406	0.01
664.591	0.01
664.775	-0.01
664.96	0
665.145	0.02
665.329	0.07
665.514	-0.07
665.698	0.01
665.883	-0.08
666.068	0.08
666.252	0.02
666.437	-0.04
666.621	0.01
666.806	0.02
666.99	-0.03
667.174	-0.04
667.359	0.06
667.543	-0.02
667.728	0
667.912	-0.05
668.096	0.02
668.281	0.01
668.465	-0.01
668.649	-0
668.834	-0.05
669.018	-0.01
669.202	-0
669.387	-0.05
669.571	0.07
669.755	-0.04
669.939	-0
670.124	-0.01
670.308	0.06
670.492	0.04
670.676	0.04
670.86	0.01
671.044	-0.01
671.228	0.04
671.413	-0.03
671.597	-0.01
671.781	-0.05
671.965	0.03
672.149	-0.01
672.333	-0.02
672.517	-0.01
672.701	0.03
672.885	0.01
673.069	-0.08
673.253	0.07
673.437	0.02
673.621	-0.04
673.804	0.03
673.988	-0.01
674.172	-0.01
674.356	-0.05
674.54	-0.02
674.724	0.09
674.908	-0.03
675.091	0.06
675.275	-0.02
675.459	0.01
675.643	-0.02
675.826	-0.01
676.01	-0.01
676.194	0.03
676.377	0.06
676.561	0.03
676.745	0.03
676.928	0.03
677.112	-0.01
677.296	-0.02
677.479	-0.06
677.663	-0.01
677.846	0.03
678.03	0.02
678.213	-0.03
678.397	0
678.58	-0.05
678.764	-0.01
678.947	-0.05
679.131	-0.02
679.314	0.07
679.498	0.02
679.681	0.03
679.865	0.06
680.048	-0.02
680.231	-0
680.415	0
680.598	-0.01
680.781	-0.04
680.965	-0.01
681.148	0.01
681.331	-0.01
681.514	0.01
681.698	0
681.881	0.03
682.064	0.04
682.247	-0.03
682.43	-0.08
682.614	0.03
682.797	0.04
682.98	0.09
683.163	-0.08
683.346	0.05
683.529	-0.01
683.712	-0.03
683.895	0.04
684.078	-0.05
684.261	-0.04
684.444	0.05
684.627	0.05
684.81	-0.03
684.993	-0.02
685.176	0
685.359	-0.07
685.542	-0.07
685.725	0.03
685.908	-0.03
686.091	-0.05
686.274	0.06
686.457	0.02
686.639	-0.02
686.822	0.01
687.005	0
687.188	0.02
687.371	0.13
687.553	-0
687.736	0.01
687.919	0.09
688.102	0.07
688.284	-0.04
688.467	-0.03
688.65	0.02
688.832	-0.02
689.015	-0.01
689.197	-0.08
689.38	0.08
689.563	0.07
689.745	-0.05
689.928	-0.02
690.11	0.03
690.293	0.01
690.475	-0.04
690.658	-0.02
690.84	0
691.023	0.03
691.205	0
691.388	-0.03
691.57	0.05
691.752	0.08
691.935	-0.13
692.117	-0
692.3	-0.01
692.482	-0.01
692.664	0.03
692.847	0.01
693.029	0.07
693.211	0.03
693.393	-0.02
693.576	-0.09
693.758	0.03
693.94	-0.07
694.122	0.01
694.304	-0.03
694.487	-0.01
694.669	0.07
694.851	-0.07
695.033	0.03
695.215	-0.04
695.397	-0.02
695.579	0.02
695.761	-0.01
695.943	-0.03
696.125	0.08
696.308	0.08
696.49	-0.07
696.671	0.1
696.853	-0.02
697.035	0.15
697.217	-0.02
697.399	0.04
697.581	-0.06
697.763	-0
697.945	-0.01
698.127	0.01
698.309	0.08
698.491	0.02
698.672	0.02
698.854	0.03
699.036	0.08
699.218	-0.04
699.399	0.04
699.581	-0.01
699.763	0.03
699.945	-0.04
700.126	-0.06
700.308	-0.04
700.49	0.02
700.671	-0.1
700.853	-0.1
701.035	-0.01
701.216	0.01
701.398	-0.05
701.579	-0.02
701.761	0.07
701.943	0.02
702.124	-0.02
702.306	-0.03
702.487	0.11
702.669	-0.04
702.85	-0.03
703.031	-0.01
703.213	0.08
703.394	0.06
703.576	-0.03
703.757	0.07
703.938	0.04
704.12	0.19
704.301	-0.03
704.483	-0.01
704.664	-0
704.845	0.1
705.026	0.01
705.208	0.01
705.389	0.03
705.57	0.03
705.751	-0.02
705.933	0.05
706.114	0.09
706.295	0
706.476	-0.13
706.657	0.07
706.838	0.03
707.02	0.06
707.201	-0
707.382	-0.04
707.563	0.08
707.744	-0.04
707.925	-0.06
708.106	-0.02
708.287	0
708.468	0.12
708.649	0.05
708.83	0.02
709.011	-0.01
709.192	0.07
709.373	-0.04
709.554	-0.02
709.734	0.08
709.915	0.05
710.096	-0.02
710.277	-0.1
710.458	-0.01
710.639	0.03
710.819	-0.09
711	-0.01
711.181	0.1
711.362	0.11
711.542	0.05
711.723	-0.02
711.904	0.07
712.085	0.01
712.265	0.04
712.446	-0.05
712.627	-0.09
712.807	0
712.988	0.02
713.168	-0.1
713.349	0.03
713.53	-0.2
713.71	-0.1
713.891	-0.05
714.071	-0.06
714.252	-0.09
714.432	-0.03
714.613	-0.09
714.793	0.01
714.974	0.09
715.154	0.08
715.334	0.08
715.515	0.05
715.695	0
715.876	0.04
716.056	-0.04
716.236	-0.05
716.417	0.01
716.597	-0.03
716.777	0.16
716.957	0.05
717.138	0.03
717.318	-0.01
717.498	-0.06
717.678	0.03
717.859	0
718.039	-0.07
718.219	0.09
718.399	-0.02
718.579	-0.08
718.759	-0.02
718.939	0.03
719.12	0.04
719.3	0.01
719.48	-0.14
719.66	-0.13
719.84	0.14
720.02	0.02
720.2	-0.09
720.38	-0.03
720.56	0.15
720.74	0.03
720.92	0.04
721.1	0.08
721.279	0.07
721.459	-0.02
721.639	-0.12
721.819	0.03
721.999	-0.03
722.179	0.05
722.359	-0.12
722.538	0.05
722.718	0.04
722.898	0.05
723.078	-0.02
723.257	-0.05
723.437	0.04
723.617	0.05
723.797	-0.07
723.976	0.03
724.156	0.03
724.336	0.06
724.515	0.11
724.695	-0.17
724.874	-0.05
725.054	0.04
725.234	-0.11
725.413	0.04
725.593	-0.07
725.772	-0.02
725.952	-0.04
726.131	0
726.311	0.04
726.49	0.07
726.67	-0.1
726.849	-0.09
727.028	0.07
727.208	-0.07
727.387	0.07
727.567	-0.11
727.746	-0.02
727.925	-0.03
728.105	-0.12
728.284	-0.09
728.463	-0.07
728.643	-0.01
728.822	-0.04
729.001	0.02
729.18	-0.05
729.359	0.13
729.539	0.08
729.718	-0.01
729.897	0.08
730.076	-0.05
730.255	-0.11
730.434	0.03
730.614	0.1
730.793	0.07
730.972	-0.07
731.151	-0.01
731.33	0.07
731.509	0.1
731.688	0.05
731.867	0.06
732.046	-0.12
732.225	0.17
732.404	-0.07
732.583	-0.06
732.762	0.02
732.941	0.13
733.12	0.08
733.298	0.02
733.477	0.1
733.656	-0.05
733.835	-0.03
734.014	0.04
734.193	0.02
734.371	0.07
734.55	0.07
734.729	-0.08
734.908	-0.02
735.086	0.11
735.265	0.15
735.444	-0.12
735.623	-0.13
735.801	-0.05
735.98	-0.08
736.159	-0.02
736.337	0.05
736.516	-0.01
736.694	0.03
736.873	-0.04
737.052	0.13
737.23	-0.02
737.409	0.01
737.587	0.09
737.766	-0.06
737.944	-0.03
738.123	0.01
738.301	0.08
738.479	-0.03
738.658	0.06
738.836	-0.15
739.015	-0.03
739.193	0.05
739.371	-0.12
739.55	-0.1
739.728	-0.04
739.906	0.02
740.085	0.21
740.263	0.08
740.441	-0.18
740.62	0.21
740.798	0.12
740.976	-0.03
741.154	-0.13
741.332	0.19
741.511	0.05
741.689	0.02
741.867	0.05
742.045	-0.07
742.223	-0.1
742.401	-0.06
742.579	0.04
742.757	0.11
742.935	-0.14
743.114	-0.08
743.292	-0.07
743.47	-0.14
743.648	-0.03
743.826	-0.11
744.004	0.08
744.181	0.12
744.359	-0.05
744.537	0.01
744.715	-0.03
744.893	-0.02
745.071	-0.06
745.249	-0.05
745.427	0.03
745.605	0.06
745.782	0.12
745.96	0.08
746.138	0.08
746.316	0.14
746.493	-0.03
746.671	-0
746.849	-0.11
747.027	0.12
747.204	-0.09
747.382	0.02
747.56	-0.14
747.737	0.01
747.915	-0.07
748.093	0.1
748.27	-0.08
748.448	0.05
748.625	-0.12
748.803	-0.06
748.98	-0.07
749.158	0.03
749.335	0.09
749.513	0.09
749.69	-0
749.868	0.02
750.045	0.13
750.223	-0.03
750.4	-0.24
750.578	0.16
750.755	-0.01
750.932	-0.13
751.11	0.1
751.287	-0.18
751.464	0.07
751.642	-0.08
751.819	0.04
751.996	0.03
752.173	0.04
752.351	-0.07
752.528	0.04
752.705	0.04
752.882	-0.09
753.06	0.02
753.237	0.08
753.414	0.21
753.591	0.1
753.768	0.01
753.945	-0.05
754.122	-0.02
754.299	0.09
754.476	-0.02
754.654	0.06
754.831	0.08
755.008	-0.02
755.185	-0.09
755.362	-0.03
755.539	0.02
755.716	-0.03
755.892	-0.1
756.069	0.02
756.246	-0.09
756.423	-0.18
756.6	0.05
756.777	-0.02
756.954	0.15
757.131	-0.02
757.307	-0
757.484	-0.14
757.661	0.01
757.838	0.04
758.015	-0.18
758.191	0.06
758.368	0.11
758.545	0.19
758.721	-0
758.898	-0.21
759.075	0.07
759.251	0.14
759.428	-0.03
759.605	-0.21
759.781	-0
759.958	0.12
760.134	0.11
760.311	-0.17
760.488	0.14
760.664	0.11
760.841	-0.03
761.017	-0.05
761.194	-0.05
761.37	0.12
761.547	0.02
761.723	0.02
761.899	0.03
762.076	-0.13
762.252	-0.09
762.429	-0.07
762.605	0.04
762.781	-0.07
762.958	0.07
763.134	0.04
763.31	-0.04
763.486	0.1
763.663	-0.13
763.839	0
764.015	-0.13
764.191	0.04
764.368	0.03
764.544	0.05
764.72	0.1
764.896	-0.01
765.072	0.11
765.248	-0.05
765.425	-0.05
765.601	0.04
765.777	-0.02
765.953	-0.27
766.129	-0.16
766.305	-0.19
766.481	0.12
766.657	0.08
766.833	0.18
767.009	-0.16
767.185	0
767.361	-0.06
767.537	-0.03
767.713	0.2
767.889	-0.11
768.065	-0.08
768.24	0.25
768.416	0.16
768.592	0.01
768.768	-0.02
768.944	0.11
769.12	-0.06
769.295	-0.2
769.471	-0.1
769.647	-0.01
769.823	0.23
769.998	-0.12
770.174	-0.14
770.35	0.29
770.525	0.27
770.701	0.04
770.877	-0.01
771.052	-0.12
771.228	0.13
771.403	-0.04
771.579	0
771.755	0.33
771.93	-0.14
772.106	-0.08
772.281	-0.2
772.457	-0.01
772.632	0.21
772.808	-0.17
772.983	-0.08
773.159	-0.12
773.334	0.39
773.509	-0.06
773.685	-0.16
773.86	0.44
774.036	0.17
774.211	-0.11
774.386	-0.06
774.562	-0.05
774.737	0.18
774.912	-0.13
775.087	0.16
775.263	-0.01
775.438	0.12
775.613	-0.04
775.788	-0.09
775.964	0.18
776.139	0.36
776.314	-0.23
776.489	0.05
776.664	0.07
776.839	-0.17
777.014	0.17
777.19	0.22
777.365	0.17
777.54	0.23
777.715	-0.02
777.89	-0.18
778.065	-0.09
778.24	0.08
778.415	0.05
778.59	-0.11
778.765	0.08
778.94	0.01
779.115	-0.06
779.289	0.06
779.464	0.02
779.639	-0.06
779.814	-0.11
779.989	-0.17
780.164	0.11
780.339	0.13
780.513	-0.12
780.688	-0.2
780.863	0.1
781.038	0.23
781.212	-0.44
781.387	-0.09
781.562	0.29
781.737	-0.1
781.911	0.15
782.086	-0.23
782.261	-0.09
782.435	0.3
782.61	-0.08
782.784	-0.06
782.959	0.2
783.134	-0.02
783.308	-0.21
783.483	0.05
783.657	0.55
783.832	0.19
784.006	-0.3
784.181	-0.04
784.355	0.25
784.53	-0.12
784.704	-0.11
784.878	0.23
785.053	0.15
785.227	0.03
785.402	0.29
785.576	-0.25
785.75	-0.18
785.925	-0.07
786.099	-0.07
786.273	0.18
786.448	0.1
786.622	0.1
786.796	-0.08
786.97	-0.09
787.145	0.29
787.319	-0.22
787.493	-0.17
787.667	-0.38
787.841	0.07
788.015	0.46
788.19	0.04
788.364	0.01
788.538	-0.07
788.712	0.16
788.886	0
789.06	0.24
789.234	0.2
789.408	-0.26
789.582	-0.1
789.756	-0.05
789.93	-0.13
790.104	0.09
790.278	0
790.452	-0.05
790.626	0.13
790.8	-0.16
790.973	0.24
791.147	0.21
791.321	0.27
791.495	0.22
791.669	0.03
791.843	0.04
792.016	-0.01
792.19	0.31
792.364	-0.23
792.538	0.46
792.711	0.35
792.885	0.01
793.059	-0.18
793.233	-0.64
793.406	0.13
793.58	-0.08
793.754	0.12
793.927	-0.18
794.101	0.33
794.274	-0.09
794.448	0.31
794.622	-0.27
794.795	0.29
794.969	-0.05
795.142	0.14
795.316	-0.1
795.489	-0.07
795.663	0.65
795.836	0.12
796.009	-0.3
796.183	0.3
796.356	0.19
796.53	0.26
796.703	-0.06
796.876	0.4
797.05	-0.04
797.223	-0.13
797.396	0.03
797.57	-0.07
797.743	0.28
797.916	0.13
798.09	-0.21
798.263	0.39
798.436	0.36
798.609	-0.14
798.782	-0.21
798.956	0.04
799.129	0.1
799.302	-0.17
799.475	-0.32
799.648	-0.12
799.821	0.07
799.994	-0.01
800.167	-0.3
800.34	-0.02
800.514	0.16
800.687	-0.28
800.86	-0.23
801.033	-0.01
801.206	0.2
801.379	-0.33
801.551	0.4
801.724	0.07
801.897	0.41
802.07	-0.15
802.243	-0.44
802.416	0.01
802.589	-0.43
802.762	-0.14
802.935	-0.14
803.107	0.09
803.28	0.46
803.453	0.33
803.626	-0.26
803.798	-0.02
803.971	-0.23
804.144	0.05
804.317	0.12
804.489	0.43
804.662	-0.13
804.835	-0.03
805.007	-0.47
805.18	0.46
805.353	-0.1
805.525	-0.12
805.698	-0.56
805.87	0.09
806.043	0.31
806.215	-0.42
806.388	-0.17
806.56	0.2
806.733	0.43
806.905	0.04
807.078	-0.24
807.25	0.1
807.423	-0.07
807.595	-0.23
807.768	0.14
807.94	0.37
808.112	0.29
808.285	0.18
808.457	-0.16
808.629	-0.11
808.802	0.11
808.974	-0.27
809.146	-0.16
809.318	-0.71
809.491	-0.07
809.663	0.24
809.835	-0.17
810.007	0.12
810.18	-0.23
810.352	-0.51
810.524	-0.39
810.696	0.36
810.868	0.43
811.04	-0.38
811.212	0.04
811.384	0.32
811.556	-0.11
811.728	-0.04
811.901	0.6
812.073	0.07
812.245	-0.07
812.417	0.13
812.589	-0.5
812.76	-0.13
812.932	0.44
813.104	0.67
813.276	-0.11
813.448	0.17
813.62	-0.08
813.792	0.33
813.964	-0.18
814.136	0.44
814.307	-0.26
814.479	-0.24
814.651	-0.04
814.823	0.77
814.995	-0.16
815.166	0.1
815.338	-0.18
815.51	-0.71
815.681	0.78
815.853	-0.2
816.025	-0.23
816.196	0.38
816.368	0.28
816.54	-0.33
816.711	-0.05
816.883	0.21
817.054	0.84
817.226	-0.78
817.398	0.17
817.569	-0.17
817.741	0.29
817.912	-0.06
818.084	-0.48
818.255	0.82
818.426	-0.42
818.598	0.06
818.769	-0.21
818.941	0.3
819.112	0.51
819.283	0.07
819.455	-0.7
819.626	0.23
819.798	0.4
819.969	0.1
820.14	0.1
820.311	-0.31
820.483	0.13
820.654	0.34
820.825	-0.22
820.996	-0.08
821.168	-0.55
821.339	-0.1
821.51	-0.37
821.681	0.09
821.852	0.18
822.023	-0.4
822.195	-0.58
822.366	0.36
822.537	-0.31
822.708	0.34
822.879	-0.46
823.05	1.05
823.221	-0.1
823.392	0.01
823.563	-0
823.734	-0.19
823.905	-0.05
824.076	0.04
824.247	-0.31
824.418	-0.68
824.589	0.55
824.759	0.26
824.93	-0.46
825.101	-1.41
825.272	0.72
825.443	0.54
825.614	0.44
825.784	-0.95
825.955	0.95
826.126	0.67
826.297	-0.09
826.467	0.33
826.638	0.55
826.809	-0.56
826.98	-0.16
827.15	0.12
827.321	-0.34
827.492	0.47
827.662	-0.12
827.833	1.19
828.003	0.1
828.174	-0.63
828.345	-0.61
828.515	0.95
828.686	0.57
828.856	-0.39
829.027	0.05
829.197	-0.47
829.368	0.04
829.538	-0.1
829.709	0.04
829.879	0.1
830.049	-0.36
830.22	-0.33
830.39	-0.53
830.56	0.64
830.731	0.12
830.901	-0.33
831.072	0.05
831.242	-0.2
831.412	0.47
831.582	-0.09
831.753	-0.53
831.923	0.16
832.093	0.35
832.263	-0.28
832.434	0.42
832.604	-0.22
832.774	0.57
832.944	-0.21
833.114	-0.19
833.284	0.19
833.454	-0.72
833.624	-0.5
833.795	-0.49
833.965	0.16
834.135	0.4
834.305	-0.78
834.475	-1.38
834.645	0.32
834.815	-0.87
834.985	-0.51
835.155	-0.61
835.325	0.06
835.494	0.57
835.664	-0.73
835.834	-0.35
836.004	-0.29
836.174	-0.28
836.344	0.52
836.514	-0.47
836.684	-0.19
836.853	0.71
837.023	-0.22
837.193	-0.35
837.363	0.44
837.532	0.56
837.702	-0.18
837.872	-0.23
838.041	1.01
838.211	1.48
838.381	-0.65
838.55	-0.57
838.72	1.79
838.89	0.88
839.059	-0.69
839.229	-0.24
839.398	1.31
839.568	0.64
839.738	-0.27
839.907	0.96
840.077	-0.02
840.246	-0.14
840.416	-0.47
840.585	-0.93
840.755	1.61
840.924	0.48
841.093	-0.19
841.263	-0.2
841.432	-0.14
841.602	-0.68
841.771	-0.15
841.94	-0.56
842.11	1.91
842.279	0.57
842.448	-0.57
842.617	-0.52
842.787	1.46
842.956	-1.62
843.125	-0.21
843.294	0.87
843.464	1.63
843.633	0.75
843.802	-1.01
843.971	0.21
844.14	0.54
844.309	1.03
844.479	-0.6
844.648	-0.21
844.817	-1.15
844.986	-0.92
845.155	0.41
845.324	-0.63
845.493	-0.5
845.662	-0.53
845.831	0.38
846	-0.1
846.169	-0.18
846.338	1.28
846.507	-0.37
846.676	-0.52
846.844	-0.62
847.013	0.59
847.182	0.6
847.351	-1.33
847.52	-0
847.689	0.52
847.858	-0.29
848.026	-0.67
848.195	-0.37
848.364	-0.4
848.533	-0.71
848.701	-0.27
848.87	0.6
849.039	0.91
849.207	0.65
849.376	1.01
849.545	1.4
849.713	-0.99
849.882	-0.45
850.051	-0.51
850.219	0.32
850.388	0.53
850.556	-1.26
850.725	-0.63
850.893	0.11
851.062	-0.57
851.23	-0.24
851.399	-1.25
851.567	-0.53
851.736	0.45
851.904	-0.27
852.073	-1.35
852.241	0.06
852.41	-0.88
852.578	-0.13
852.746	-0.88
852.915	0.17
853.083	0.07
853.251	-1.33
853.42	-0.36
853.588	-0.44
853.756	1.38
853.924	-0.75
854.093	-0.45
854.261	-0
854.429	-1.05
854.597	-0.24
854.765	-0.35
854.934	-0.08
855.102	1.47
855.27	-0.94
855.438	0.25
855.606	0.54
855.774	0.72
855.942	-1.86
856.11	-1.86
856.278	0.05
856.446	1.64
856.614	-0.31
856.782	-1.5
856.95	0.59
857.118	-0.33
857.286	-0.53
857.454	-0.94
857.622	2.1
857.79	0.57
857.958	-0.92
858.126	-0.71
858.294	-1.35
858.462	-0.36
858.629	-1.63
858.797	-1.05
858.965	0.69
859.133	0.61
859.301	-0.52
859.468	-0.82
859.636	-0.34
859.804	1.62
859.971	0.85
860.139	-0.38
860.307	0.74
860.474	-1.29
860.642	-0.75
860.81	-2.31
860.977	0.18
861.145	0.38
861.313	-0.2
861.48	-1.34
861.648	0.36
861.815	-0.39
861.983	-0.86
862.15	-0.45
862.318	-0.21
862.485	1.05
862.653	-1.46
862.82	-1.03
862.988	1.58
863.155	-2.13
863.322	-0.98
863.49	-2.37
863.657	0.02
863.824	0.93
863.992	1.93
864.159	-0.64
864.326	1.42
864.494	-1.01
864.661	3.25
864.828	-2.07
864.996	0.39
865.163	0.55
865.33	-0.64
865.497	-3.86
865.664	-0.78
865.832	-2.16
865.999	-1.32
866.166	-1.33
866.333	0.25
866.5	-1.34
866.667	-1.34
866.834	-0.05
867.001	0.44
867.168	-1.62
867.335	-1.49
867.502	-2.82
867.669	0.18
867.836	1.32
868.003	-1.6
868.17	0.98
868.337	-0.96
868.504	3.53
868.671	-2.52
868.838	-1.82
869.005	-0.79
869.172	0.39
869.339	-0.97
869.505	-0.14
869.672	0.84
869.839	1.96
870.006	0.08
870.173	-1.45
870.339	-0.66
870.506	3.01
870.673	-1.58
870.84	1.02
871.006	-1.14
871.173	-0.43
871.34	-0.13
871.506	-2.67
871.673	-0.77
871.839	-3.64
872.006	-2.49
872.173	-1.06
872.339	-0.05
872.506	1.32
872.672	1.01
872.839	-3.53
873.005	1.16
873.172	3.98
873.338	1.21
873.505	1.87
873.671	0.52
873.838	-0
874.004	-1.6
874.171	-0.16
874.337	-0.05
874.503	0.24
874.67	-0.42
874.836	-0.49
875.002	1.66
875.169	0.95
875.335	0.61
875.501	-0.53
875.668	1.53
875.834	-1.24
876	-0.98
876.166	1.2
876.332	2.12
876.499	2.56
876.665	-1.04
876.831	-2.39
876.997	2.85
877.163	1.26
877.329	-1.52
877.495	0.91
877.662	0.49
877.828	-0.72
877.994	-0.3
878.16	-2.76
878.326	-1.26
878.492	-0.82
878.658	-0.61
878.824	1.04
878.99	2
879.156	-0.99
879.322	1.55
879.487	-2.13
879.653	1.01
879.819	2.03
879.985	-1.36
880.151	-0.79
880.317	2.67
880.483	0.33
880.648	-0.77
880.814	-0.84
880.98	0.5
881.146	-3.44
881.312	-1.78
881.477	0.54
881.643	-1.11
881.809	1.33
881.974	1.88
882.14	-3.89
882.306	0.77
882.471	4.42
882.637	-0.66
882.803	2.04
882.968	3.29
883.134	3.98
883.299	-0.53
883.465	0.65
883.63	1.08
883.796	1.36
883.961	0.99
884.127	0.7
884.292	-3.9
884.458	-0.28
884.623	-0.28
