Data from Apollo_Calib_20240827__AbsoluteIrradiance__524__07-53-02-767.txt Node

Date: Wed Aug 28 07:53:02 BST 2024
User: biology
Spectrometer: FLMT08252
Trigger mode: 0
Integration Time (sec): 5.000000E-1
Scans to average: 5
Electric dark correction enabled: true
Nonlinearity correction enabled: false
Boxcar width: 0
XAxis mode: Wavelengths
Number of Pixels in Spectrum: 3648
>>>>>Begin Spectral Data<<<<<
179.588	-0
179.809	-0
180.03	-0
180.251	-0
180.473	-0
180.694	0
180.915	0
181.136	-0
181.357	0
181.578	-0
181.799	0
182.02	-0
182.241	-0
182.462	-0
182.683	0
182.904	0
183.125	-0
183.346	0
183.567	0
183.788	-0
184.009	-0
184.23	-0
184.451	0
184.672	-0
184.892	-0
185.113	0
185.334	0
185.555	-0
185.776	-0
185.996	0
186.217	0
186.438	-0
186.659	-0
186.879	-0
187.1	-0
187.321	-0
187.541	-0
187.762	0
187.983	-0
188.203	-0
188.424	0
188.644	-0
188.865	-0
189.086	0
189.306	0
189.527	0
189.747	0
189.968	-0
190.188	0
190.409	0
190.629	-0
190.849	-0
191.07	-0
191.29	0
191.511	0
191.731	-0
191.951	-0
192.172	-0
192.392	-0
192.612	-0
192.833	-0
193.053	0
193.273	0
193.493	-0
193.714	-0
193.934	0
194.154	0
194.374	0
194.594	0
194.815	-0
195.035	0
195.255	0
195.475	-0
195.695	0
195.915	0
196.135	0
196.355	0
196.575	0
196.795	0
197.015	-0
197.235	-0
197.455	-0
197.675	0
197.895	-0
198.115	-0
198.335	0
198.555	-0
198.775	-0
198.995	-0
199.214	0
199.434	0
199.654	-0
199.874	-0
200.094	0.65
200.313	-0.43
200.533	-0.3
200.753	-0.43
200.973	0.49
201.192	0.45
201.412	-0.72
201.632	-0.23
201.851	0.86
202.071	-0.11
202.291	-0.68
202.51	-0.62
202.73	0.38
202.95	-0.36
203.169	-0.31
203.389	-0.15
203.608	0.46
203.828	-0.62
204.047	0.06
204.267	0.3
204.486	0.17
204.706	0.16
204.925	-0.17
205.145	-0.14
205.364	0.17
205.583	0.8
205.803	-0.09
206.022	-0.59
206.242	0.14
206.461	-0.01
206.68	-0.47
206.9	0.54
207.119	0.61
207.338	0.57
207.557	-0.19
207.777	-0.12
207.996	-0.08
208.215	0.54
208.434	-0.1
208.654	-0.34
208.873	-0.22
209.092	0.18
209.311	-0.08
209.53	-0.26
209.749	-0.18
209.968	-0.36
210.187	-0.19
210.407	-0.18
210.626	-0.05
210.845	0.15
211.064	-0.15
211.283	-0.14
211.502	0.29
211.721	0.06
211.94	0.05
212.159	0.26
212.377	-0.05
212.596	0.19
212.815	-0.04
213.034	0.12
213.253	0.22
213.472	0.25
213.691	-0.24
213.91	-0.25
214.128	-0.27
214.347	0.21
214.566	-0.22
214.785	-0.42
215.003	0.16
215.222	-0.01
215.441	0.01
215.66	-0.4
215.878	0.02
216.097	0.22
216.316	-0.35
216.534	-0.01
216.753	-0.09
216.972	-0.11
217.19	-0.06
217.409	-0.18
217.627	-0.2
217.846	-0.01
218.064	-0.05
218.283	-0.21
218.501	0.25
218.72	0.21
218.938	-0.22
219.157	-0.23
219.375	0.09
219.594	0.1
219.812	-0.24
220.031	-0.28
220.249	0.26
220.467	0.18
220.686	-0.05
220.904	-0.19
221.122	-0.09
221.341	0.42
221.559	0.13
221.777	-0.13
221.995	-0.1
222.214	0.2
222.432	-0.11
222.65	0.05
222.868	-0.12
223.086	0.16
223.305	0.02
223.523	-0.12
223.741	0.15
223.959	-0.02
224.177	-0.31
224.395	-0.09
224.613	-0.07
224.831	0.12
225.049	-0.09
225.267	-0.09
225.485	-0.05
225.703	-0.09
225.921	-0.1
226.139	-0.18
226.357	0.1
226.575	-0.15
226.793	-0.04
227.011	0.47
227.229	0.01
227.447	0.2
227.665	-0.08
227.883	-0.21
228.1	0
228.318	0.06
228.536	-0.25
228.754	-0.03
228.972	0.08
229.189	0.1
229.407	-0.14
229.625	-0.07
229.843	0.13
230.06	0.08
230.278	-0.02
230.496	-0.01
230.713	-0.05
230.931	0.15
231.149	-0.06
231.366	-0.15
231.584	-0.05
231.801	0.33
232.019	-0.13
232.236	-0.12
232.454	0.01
232.671	0.02
232.889	0.08
233.106	-0.12
233.324	-0.08
233.541	-0.05
233.759	0.04
233.976	-0.09
234.194	-0.06
234.411	-0.02
234.628	-0.12
234.846	-0.11
235.063	-0.03
235.28	-0.05
235.498	-0.01
235.715	-0.07
235.932	0.01
236.149	-0.05
236.367	-0.1
236.584	0.13
236.801	-0.03
237.018	0.05
237.236	0.07
237.453	-0.14
237.67	0.05
237.887	-0.18
238.104	-0.07
238.321	-0.16
238.538	-0.15
238.755	0.05
238.973	-0.23
239.19	-0.06
239.407	0.05
239.624	-0.05
239.841	-0.15
240.058	-0.04
240.275	-0.03
240.492	-0.07
240.709	-0.05
240.925	-0.04
241.142	-0.04
241.359	-0.16
241.576	-0.05
241.793	-0.1
242.01	-0
242.227	0.05
242.444	0.06
242.66	0.09
242.877	0.01
243.094	-0.11
243.311	-0
243.527	-0.01
243.744	0.06
243.961	0.05
244.178	-0.06
244.394	-0.02
244.611	0.15
244.828	0.17
245.044	-0.02
245.261	-0.06
245.477	-0.09
245.694	0.07
245.911	-0.06
246.127	-0
246.344	0.12
246.56	0.03
246.777	-0.04
246.993	0.02
247.21	0.02
247.426	0.01
247.643	-0.02
247.859	-0.11
248.076	-0.06
248.292	0.14
248.508	-0.1
248.725	0.03
248.941	0.1
249.157	0.08
249.374	-0.07
249.59	-0.01
249.806	-0.1
250.023	0.09
250.239	-0.07
250.455	-0.07
250.671	0
250.888	0.02
251.104	-0.02
251.32	-0.03
251.536	-0.08
251.752	-0.09
251.969	0.03
252.185	0.06
252.401	0.13
252.617	0.01
252.833	-0.05
253.049	0.05
253.265	-0
253.481	-0.06
253.697	0.02
253.913	-0.04
254.129	-0.03
254.345	-0.01
254.561	-0.05
254.777	-0.08
254.993	0.02
255.209	-0.05
255.425	-0.01
255.641	-0.09
255.857	0.11
256.073	0.02
256.288	-0.15
256.504	0
256.72	0.01
256.936	0.08
257.152	0.01
257.367	-0.05
257.583	0.01
257.799	0.07
258.015	-0.02
258.23	-0.05
258.446	0.1
258.662	-0.02
258.877	-0.01
259.093	-0.08
259.309	0.04
259.524	0.03
259.74	-0.05
259.955	-0.1
260.171	0.07
260.387	-0.01
260.602	0.08
260.818	0.05
261.033	-0.03
261.249	-0.08
261.464	-0.05
261.68	-0.08
261.895	0.02
262.11	0.07
262.326	-0.03
262.541	-0.11
262.757	0.03
262.972	0.03
263.187	0.03
263.403	-0.05
263.618	0.03
263.833	-0.04
264.049	-0.05
264.264	-0.01
264.479	0.09
264.694	0.08
264.91	-0.07
265.125	-0.09
265.34	0
265.555	0.17
265.77	-0.03
265.986	-0.1
266.201	-0
266.416	0.06
266.631	-0.01
266.846	-0.03
267.061	0.05
267.276	0.04
267.491	-0.14
267.706	0.01
267.921	-0
268.136	0.01
268.351	-0.04
268.566	-0.1
268.781	0.05
268.996	0
269.211	-0.04
269.426	-0.09
269.641	-0.03
269.856	0.08
270.071	-0.08
270.285	-0.09
270.5	0.04
270.715	0.02
270.93	0
271.145	-0.03
271.359	0.06
271.574	-0.05
271.789	-0.05
272.004	-0.09
272.218	-0.03
272.433	0.13
272.648	-0.06
272.862	0.05
273.077	-0.03
273.292	0.01
273.506	-0.06
273.721	-0.05
273.936	0.01
274.15	0.05
274.365	-0.06
274.579	0.05
274.794	0.05
275.008	0.05
275.223	-0.08
275.437	-0.02
275.652	0.07
275.866	0.07
276.081	-0.02
276.295	0.08
276.509	0.01
276.724	-0
276.938	0.01
277.153	0.01
277.367	0.06
277.581	-0.03
277.796	-0.03
278.01	-0.06
278.224	0.03
278.438	0.1
278.653	-0.08
278.867	-0.04
279.081	0.02
279.295	-0.02
279.51	0.04
279.724	-0.08
279.938	0.01
280.152	-0
280.366	-0.05
280.58	-0
280.794	0.07
281.008	0.04
281.222	0.04
281.437	0.1
281.651	0.03
281.865	0.09
282.079	-0.06
282.293	-0.09
282.507	-0.04
282.721	-0.03
282.935	0.01
283.148	-0.09
283.362	-0.01
283.576	-0.04
283.79	0.05
284.004	-0.04
284.218	0.04
284.432	-0.05
284.646	-0
284.859	-0.02
285.073	-0.06
285.287	0.02
285.501	0
285.714	-0.01
285.928	0.01
286.142	-0.02
286.356	-0.07
286.569	-0.07
286.783	0.06
286.997	0.01
287.21	0.01
287.424	0.04
287.637	-0.01
287.851	-0.03
288.065	0.04
288.278	-0.04
288.492	0.05
288.705	0.01
288.919	0.01
289.132	-0.04
289.346	0.04
289.559	-0.05
289.773	-0.07
289.986	-0.01
290.2	0.04
290.413	0.08
290.626	-0.03
290.84	-0.02
291.053	0.04
291.267	0.08
291.48	0.02
291.693	0.01
291.906	-0.01
292.12	-0.02
292.333	-0.03
292.546	0.01
292.76	0.07
292.973	0.01
293.186	0.02
293.399	-0.03
293.612	0.04
293.826	0.02
294.039	0.02
294.252	0
294.465	0.04
294.678	0
294.891	-0
295.104	-0.03
295.317	-0.03
295.53	-0.02
295.743	0.03
295.956	-0.04
296.169	0.06
296.382	0.06
296.595	0.01
296.808	-0.02
297.021	0.06
297.234	0.05
297.447	-0.01
297.66	0.01
297.873	0.03
298.086	0.06
298.299	-0.04
298.511	-0.06
298.724	-0.03
298.937	-0.03
299.15	0.03
299.363	0.02
299.575	0.03
299.788	0.02
300.001	-0.02
300.213	-0.03
300.426	-0.02
300.639	0.02
300.852	-0.02
301.064	0.04
301.277	0.06
301.489	0.01
301.702	0.07
301.915	0.01
302.127	0.03
302.34	-0
302.552	0.02
302.765	-0.03
302.977	0.01
303.19	-0.05
303.402	0.01
303.615	-0.06
303.827	-0.02
304.04	0.01
304.252	0.04
304.464	-0.02
304.677	0.14
304.889	0.06
305.102	-0.07
305.314	-0.03
305.526	0.08
305.739	0.06
305.951	-0.05
306.163	-0.01
306.375	0.1
306.588	-0.04
306.8	-0.02
307.012	-0.08
307.224	-0
307.436	0.07
307.649	-0.07
307.861	-0
308.073	0.02
308.285	-0.01
308.497	-0.03
308.709	-0.01
308.921	-0.01
309.133	0.03
309.346	-0
309.558	0.02
309.77	0.05
309.982	0.05
310.194	0.01
310.406	-0.02
310.617	0.08
310.829	0.04
311.041	0.02
311.253	-0.02
311.465	0
311.677	0.01
311.889	0
312.101	-0.03
312.313	0.06
312.524	0.04
312.736	-0.06
312.948	-0.02
313.16	0.1
313.372	0.02
313.583	0.04
313.795	-0.01
314.007	-0.01
314.218	0.03
314.43	-0.02
314.642	0.01
314.853	-0.03
315.065	0.05
315.277	0.01
315.488	-0.01
315.7	0.07
315.912	0.05
316.123	0.02
316.335	-0.03
316.546	0.06
316.758	-0.02
316.969	-0
317.181	0.01
317.392	-0.01
317.604	0.09
317.815	-0.05
318.026	-0.01
318.238	-0.04
318.449	0
318.661	-0.07
318.872	-0.04
319.083	-0.07
319.295	0.01
319.506	-0.04
319.717	-0.01
319.929	0.06
320.14	0.01
320.351	0.01
320.562	-0.03
320.774	0.05
320.985	-0.03
321.196	-0
321.407	-0.06
321.618	0.03
321.829	0.05
322.041	0.04
322.252	-0
322.463	-0.03
322.674	0.02
322.885	-0.05
323.096	-0.05
323.307	-0.03
323.518	-0
323.729	-0.03
323.94	0.01
324.151	-0.02
324.362	-0
324.573	-0.01
324.784	-0.03
324.995	0.06
325.206	0.01
325.417	-0.03
325.628	-0.03
325.838	-0.01
326.049	-0.01
326.26	0.05
326.471	-0.05
326.682	0.04
326.892	0
327.103	-0.06
327.314	-0.06
327.525	0.06
327.735	-0.01
327.946	0.01
328.157	-0.04
328.368	-0.01
328.578	-0.03
328.789	0.01
328.999	-0.02
329.21	-0.05
329.421	-0
329.631	-0.08
329.842	-0.01
330.052	0.03
330.263	0.02
330.473	0.06
330.684	-0.01
330.894	-0.02
331.105	0.03
331.315	-0.05
331.526	-0.03
331.736	0.08
331.947	0.02
332.157	0.01
332.367	-0.08
332.578	0.02
332.788	0.01
332.999	-0.01
333.209	-0.01
333.419	-0.04
333.629	0.01
333.84	0
334.05	-0.02
334.26	0.07
334.47	0.01
334.681	0.06
334.891	0.02
335.101	0.03
335.311	0.11
335.521	0.01
335.732	-0.05
335.942	0.05
336.152	0.07
336.362	0.04
336.572	-0
336.782	0.07
336.992	-0.02
337.202	-0.02
337.412	-0.02
337.622	-0
337.832	0.03
338.042	-0.05
338.252	0.01
338.462	-0.03
338.672	0.04
338.882	-0.02
339.092	-0.03
339.302	0.1
339.511	0
339.721	-0.03
339.931	-0.07
340.141	0.05
340.351	0.07
340.561	0.01
340.77	-0
340.98	-0.03
341.19	0.01
341.4	-0.01
341.609	-0.06
341.819	-0.02
342.029	-0.07
342.238	-0.01
342.448	-0.04
342.658	-0
342.867	0.02
343.077	0
343.286	0.05
343.496	0.02
343.706	0.09
343.915	-0.07
344.125	-0.05
344.334	0.01
344.544	-0.04
344.753	-0.03
344.963	-0.03
345.172	-0.03
345.381	-0.03
345.591	-0.04
345.8	0.01
346.01	0.05
346.219	0.03
346.428	-0.03
346.638	-0.01
346.847	-0.02
347.056	0.06
347.266	-0.03
347.475	0.01
347.684	0.02
347.893	0.02
348.103	0.04
348.312	-0.02
348.521	-0.01
348.73	0.04
348.94	0.03
349.149	-0.05
349.358	-0.02
349.567	-0.03
349.776	-0.04
349.985	-0.03
350.194	0.07
350.403	0.05
350.612	-0.03
350.821	0.01
351.03	-0.01
351.239	-0.02
351.448	0.02
351.657	-0.03
351.866	0.07
352.075	-0.01
352.284	0.04
352.493	-0.07
352.702	0.05
352.911	0.03
353.12	-0
353.329	-0.01
353.538	0.02
353.746	-0.02
353.955	-0.01
354.164	0.03
354.373	-0.02
354.582	-0
354.79	0.01
354.999	0.04
355.208	-0.02
355.416	0.03
355.625	-0.02
355.834	-0.02
356.042	-0
356.251	0.01
356.46	-0.03
356.668	0.01
356.877	0.11
357.085	0.07
357.294	-0.08
357.503	0.02
357.711	-0.01
357.92	0.11
358.128	-0.01
358.337	-0.02
358.545	0.01
358.754	-0.03
358.962	-0
359.17	-0
359.379	0
359.587	0.02
359.796	-0
360.004	0.02
360.212	0.02
360.421	0.05
360.629	-0.02
360.837	-0.02
361.046	0.03
361.254	0.03
361.462	0.04
361.67	-0
361.879	0.01
362.087	0.02
362.295	0.03
362.503	-0.02
362.711	-0.06
362.92	-0.02
363.128	-0.02
363.336	-0.02
363.544	-0.06
363.752	0
363.96	-0.04
364.168	-0.01
364.376	-0.02
364.584	0.02
364.792	0.02
365	0.03
365.208	0.03
365.416	-0.02
365.624	0.03
365.832	-0
366.04	0.04
366.248	-0.01
366.456	0.01
366.664	0.03
366.872	0
367.079	0.03
367.287	0
367.495	0
367.703	-0.02
367.911	-0
368.118	-0.01
368.326	-0.02
368.534	-0.05
368.742	0.05
368.949	-0.06
369.157	-0.03
369.365	0.03
369.572	-0.01
369.78	-0.02
369.988	0.04
370.195	0.05
370.403	0
370.61	-0.03
370.818	0.03
371.026	0.05
371.233	-0.03
371.441	-0
371.648	-0
371.856	0
372.063	0.01
372.271	-0.01
372.478	-0.03
372.685	-0.03
372.893	0.01
373.1	0.01
373.308	-0.02
373.515	0.05
373.722	0.01
373.93	0.02
374.137	0.02
374.344	0.06
374.552	0.01
374.759	0.01
374.966	-0.03
375.173	0
375.381	0.04
375.588	-0.01
375.795	-0.08
376.002	-0.02
376.209	-0.02
376.417	-0.04
376.624	0.04
376.831	0.01
377.038	0
377.245	-0.06
377.452	-0.02
377.659	-0
377.866	-0.01
378.073	-0.02
378.28	-0.02
378.487	0.04
378.694	0.02
378.901	-0.03
379.108	-0.01
379.315	0.02
379.522	0.05
379.729	0
379.936	0
380.143	-0.03
380.35	0.01
380.557	-0.06
380.763	0.02
380.97	-0
381.177	0.01
381.384	0.01
381.591	0
381.797	0
382.004	0.01
382.211	0.02
382.418	0.01
382.624	0.09
382.831	0.02
383.038	-0.02
383.244	0.01
383.451	-0.05
383.658	0
383.864	-0.03
384.071	-0.01
384.277	0.05
384.484	-0.02
384.69	0.05
384.897	-0.03
385.103	0.01
385.31	-0.03
385.516	-0.04
385.723	-0.02
385.929	-0.03
386.136	-0.03
386.342	0.02
386.549	-0.03
386.755	0.03
386.961	0.01
387.168	-0.04
387.374	0.02
387.58	0
387.787	0.01
387.993	0.02
388.199	0.01
388.406	-0.05
388.612	-0.01
388.818	0.01
389.024	-0.04
389.231	-0
389.437	0.06
389.643	0.04
389.849	-0.01
390.055	0
390.261	-0.01
390.467	-0
390.674	-0.03
390.88	0.03
391.086	-0.01
391.292	-0.02
391.498	-0
391.704	0.01
391.91	0.01
392.116	-0.02
392.322	-0.1
392.528	0.04
392.734	-0.01
392.94	-0.02
393.146	-0.02
393.352	0.01
393.557	-0
393.763	-0.02
393.969	0.02
394.175	0.01
394.381	-0.01
394.587	-0.06
394.792	-0.04
394.998	0
395.204	0.06
395.41	-0.02
395.615	0.02
395.821	0.01
396.027	0.05
396.233	-0.06
396.438	0.02
396.644	0.06
396.85	0.02
397.055	-0.06
397.261	0.01
397.466	0.1
397.672	0.03
397.878	0.01
398.083	-0.02
398.289	-0.01
398.494	0.03
398.7	0.03
398.905	-0.07
399.111	0.03
399.316	-0.08
399.522	-0.02
399.727	0
399.932	0.01
400.138	0.02
400.343	0.03
400.549	0
400.754	0.03
400.959	0.03
401.165	0.05
401.37	0.04
401.575	0.04
401.78	0.01
401.986	-0.05
402.191	-0.05
402.396	-0.02
402.601	0.01
402.807	-0.01
403.012	-0.01
403.217	0.06
403.422	-0.02
403.627	0.03
403.832	-0.06
404.037	-0
404.243	0.02
404.448	-0.02
404.653	-0
404.858	-0.02
405.063	0.02
405.268	-0.01
405.473	-0.01
405.678	-0.05
405.883	0.08
406.088	0.05
406.293	-0.04
406.498	-0.03
406.703	0.03
406.907	-0.01
407.112	-0.04
407.317	0.01
407.522	0.01
407.727	-0.04
407.932	0.02
408.136	0.05
408.341	0.03
408.546	-0.01
408.751	0.02
408.956	-0.01
409.16	0.05
409.365	-0.03
409.57	-0.04
409.774	0
409.979	0.02
410.184	0.02
410.388	-0.01
410.593	0.02
410.798	-0.02
411.002	-0.04
411.207	0.04
411.411	0.04
411.616	0
411.82	-0.04
412.025	-0.02
412.229	-0.05
412.434	0.05
412.638	-0.03
412.843	0
413.047	0.01
413.252	-0.02
413.456	-0.02
413.66	0.06
413.865	-0.02
414.069	0.09
414.273	-0.03
414.478	-0.02
414.682	-0.01
414.886	-0.01
415.091	-0.03
415.295	-0.06
415.499	-0
415.703	-0.04
415.908	0.02
416.112	-0.04
416.316	0.01
416.52	-0.01
416.724	-0.07
416.929	-0.01
417.133	0.03
417.337	-0.02
417.541	-0.08
417.745	-0.03
417.949	0.02
418.153	0.01
418.357	-0.05
418.561	0.08
418.765	-0.03
418.969	0.05
419.173	0
419.377	-0.1
419.581	0.02
419.785	-0.03
419.989	-0.06
420.193	-0.04
420.397	-0.01
420.601	0.09
420.804	0.03
421.008	-0.04
421.212	0.01
421.416	0.05
421.62	-0.07
421.823	0.01
422.027	0.06
422.231	-0
422.435	-0.03
422.638	0
422.842	-0.02
423.046	-0.06
423.249	0.08
423.453	0.02
423.657	0.03
423.86	0.05
424.064	-0.02
424.268	0.05
424.471	-0.01
424.675	0.06
424.878	0.1
425.082	-0.01
425.285	0.05
425.489	0
425.692	-0.02
425.896	-0.06
426.099	0
426.303	-0.01
426.506	-0.12
426.71	-0.02
426.913	0.06
427.116	0.05
427.32	-0.02
427.523	0.02
427.726	0.09
427.93	-0.05
428.133	-0
428.336	-0.03
428.54	-0.03
428.743	0.03
428.946	0.04
429.149	-0.06
429.353	0.02
429.556	0.02
429.759	-0.01
429.962	-0.08
430.165	-0
430.368	-0.03
430.571	-0.01
430.775	0
430.978	-0.02
431.181	0.01
431.384	-0.01
431.587	-0.01
431.79	-0
431.993	-0.02
432.196	0.01
432.399	-0.03
432.602	0.06
432.805	-0.04
433.008	0
433.211	-0.08
433.414	-0.01
433.616	0.01
433.819	-0.04
434.022	-0.09
434.225	0.08
434.428	-0
434.631	0.12
434.833	-0.01
435.036	-0.04
435.239	0.02
435.442	0.02
435.645	-0.03
435.847	-0.01
436.05	0.04
436.253	-0.01
436.455	-0.02
436.658	-0.03
436.861	0.02
437.063	-0.02
437.266	0.01
437.468	0.01
437.671	0.12
437.874	-0.01
438.076	-0.04
438.279	-0.07
438.481	-0.01
438.684	-0.03
438.886	-0.01
439.089	-0.11
439.291	0.01
439.494	0.05
439.696	-0.06
439.899	-0.05
440.101	-0.05
440.303	-0.06
440.506	0.06
440.708	-0.02
440.91	0.01
441.113	-0.07
441.315	0.02
441.517	-0.04
441.72	0.08
441.922	-0.06
442.124	-0
442.326	0.01
442.529	0.09
442.731	-0.05
442.933	0.07
443.135	-0.03
443.337	0.02
443.539	-0.02
443.742	-0.06
443.944	-0.05
444.146	-0
444.348	-0.06
444.55	0.03
444.752	-0.01
444.954	-0.04
445.156	0.05
445.358	0.01
445.56	0.02
445.762	-0.05
445.964	-0.02
446.166	-0.04
446.368	-0.04
446.57	0.05
446.772	-0
446.974	-0.03
447.175	0.01
447.377	-0.03
447.579	-0.02
447.781	-0.08
447.983	0.02
448.184	-0.02
448.386	-0.02
448.588	-0.1
448.79	-0.03
448.991	-0.06
449.193	-0.02
449.395	-0.01
449.597	0.03
449.798	0.02
450	0
450.202	-0.01
450.403	-0.02
450.605	0.02
450.806	-0.06
451.008	-0.08
451.21	-0.02
451.411	-0.03
451.613	-0.02
451.814	0.01
452.016	0.04
452.217	0.01
452.419	0.03
452.62	-0.03
452.821	0.03
453.023	0.07
453.224	0.02
453.426	-0.06
453.627	-0.02
453.828	0.04
454.03	-0.02
454.231	-0.01
454.432	-0.05
454.634	0.07
454.835	0
455.036	-0.05
455.238	0.04
455.439	0.08
455.64	-0.04
455.841	-0.04
456.042	0.06
456.244	0.02
456.445	-0.03
456.646	-0.04
456.847	-0.02
457.048	0.03
457.249	0.04
457.45	0.18
457.651	-0.06
457.852	0.04
458.054	0.02
458.255	-0.02
458.456	0.06
458.657	0.02
458.858	-0.02
459.058	-0.02
459.259	0.06
459.46	0.01
459.661	0.01
459.862	0.07
460.063	-0.03
460.264	0.05
460.465	-0.03
460.666	0.12
460.866	-0.02
461.067	-0.01
461.268	-0.05
461.469	0
461.67	0
461.87	-0.01
462.071	-0.03
462.272	-0.04
462.473	-0.03
462.673	0.03
462.874	-0.02
463.075	-0.03
463.275	-0.04
463.476	0.04
463.676	0.03
463.877	-0.03
464.078	-0
464.278	0.02
464.479	0.01
464.679	-0
464.88	-0.01
465.08	0.07
465.281	-0.04
465.481	-0.05
465.682	-0.03
465.882	0.03
466.083	-0.02
466.283	-0.01
466.483	-0.04
466.684	-0.07
466.884	-0.05
467.085	-0
467.285	0.03
467.485	-0.03
467.686	0
467.886	-0.04
468.086	-0.04
468.286	-0.02
468.487	0.02
468.687	-0.05
468.887	0.02
469.087	-0.02
469.287	-0.01
469.488	-0.06
469.688	0.01
469.888	0.03
470.088	0.02
470.288	0.04
470.488	0.04
470.688	-0.08
470.888	-0.04
471.088	-0.01
471.288	0
471.488	0.04
471.688	0.01
471.888	-0.02
472.088	0.01
472.288	-0.01
472.488	-0.04
472.688	-0.05
472.888	-0.01
473.088	0.01
473.288	-0.01
473.488	0.02
473.688	0.05
473.887	0.02
474.087	-0.01
474.287	0.03
474.487	-0.04
474.687	0.01
474.886	-0
475.086	-0.01
475.286	0.02
475.486	0.04
475.685	-0.02
475.885	-0.02
476.085	0.01
476.284	0.06
476.484	-0.01
476.684	0.03
476.883	0.05
477.083	0.03
477.282	-0.01
477.482	0.04
477.681	0.09
477.881	0.03
478.08	-0.09
478.28	-0.03
478.479	0.03
478.679	0.08
478.878	-0.02
479.078	-0.04
479.277	0.01
479.477	-0.03
479.676	0.03
479.875	0
480.075	-0.05
480.274	0.02
480.473	0.03
480.673	-0.04
480.872	0.03
481.071	-0
481.271	-0
481.47	-0.01
481.669	-0
481.868	-0.01
482.067	-0.02
482.267	-0.04
482.466	-0.05
482.665	-0.03
482.864	-0.02
483.063	-0.03
483.262	0.03
483.461	0.04
483.661	0.03
483.86	-0.01
484.059	-0.01
484.258	0.04
484.457	-0
484.656	-0.01
484.855	0.05
485.054	-0.03
485.253	-0.03
485.452	-0.06
485.651	-0
485.849	-0.01
486.048	0
486.247	-0.04
486.446	0.02
486.645	-0.05
486.844	-0.03
487.043	-0.02
487.241	0.03
487.44	-0.02
487.639	-0.03
487.838	0.04
488.037	0.02
488.235	0.04
488.434	0.01
488.633	-0.02
488.831	0.01
489.03	0.04
489.229	-0.02
489.427	-0
489.626	0.05
489.825	0.03
490.023	-0.01
490.222	-0.02
490.42	0.02
490.619	0.01
490.817	0.03
491.016	-0.01
491.214	0.04
491.413	-0.04
491.611	-0.01
491.81	-0.01
492.008	-0
492.207	0.02
492.405	0
492.604	-0.03
492.802	-0.01
493	0
493.199	-0.01
493.397	0
493.595	-0.02
493.794	-0.04
493.992	0.03
494.19	-0
494.388	0.02
494.587	-0.02
494.785	-0.01
494.983	-0.02
495.181	-0.01
495.379	-0
495.578	0.01
495.776	-0.01
495.974	0
496.172	-0.03
496.37	-0
496.568	-0.05
496.766	-0.03
496.964	0.02
497.162	0.02
497.36	-0.05
497.558	0.01
497.756	0.03
497.954	-0
498.152	-0.03
498.35	0
498.548	-0.02
498.746	-0.03
498.944	-0.01
499.142	0
499.34	-0.04
499.538	0.02
499.736	-0.01
499.933	0.04
500.131	0.03
500.329	-0
500.527	0.04
500.725	0
500.922	0
501.12	0.02
501.318	0.01
501.516	-0.01
501.713	-0
501.911	-0.01
502.109	0.01
502.306	-0
502.504	0.01
502.701	-0.01
502.899	-0.01
503.097	0.02
503.294	0.01
503.492	0.02
503.689	-0.01
503.887	0.02
504.084	0.04
504.282	0.01
504.479	-0.03
504.677	-0
504.874	-0.03
505.072	0.03
505.269	-0.01
505.466	0.01
505.664	0.02
505.861	-0.03
506.059	-0.04
506.256	0
506.453	-0.02
506.651	0.05
506.848	0.03
507.045	-0.01
507.242	-0.01
507.44	0
507.637	-0
507.834	-0.01
508.031	0
508.229	-0.02
508.426	0.03
508.623	0.01
508.82	-0.01
509.017	-0.03
509.214	0
509.411	-0.01
509.608	-0.03
509.805	-0
510.003	-0.03
510.2	-0.01
510.397	0.03
510.594	-0.01
510.791	-0.02
510.988	-0.02
511.184	0.02
511.381	0.01
511.578	-0.02
511.775	0.03
511.972	-0.02
512.169	-0.01
512.366	-0.01
512.563	0.01
512.76	0
512.956	0.02
513.153	-0.02
513.35	-0.01
513.547	-0.01
513.744	-0.04
513.94	-0.03
514.137	-0.02
514.334	0.02
514.53	0.01
514.727	-0.01
514.924	0.04
515.12	-0.01
515.317	-0.03
515.514	-0.02
515.71	-0.03
515.907	-0.01
516.103	0.01
516.3	0.03
516.497	0.03
516.693	0.04
516.89	-0.01
517.086	-0.01
517.283	0.01
517.479	0
517.676	-0.01
517.872	0
518.068	-0.01
518.265	-0.01
518.461	-0.02
518.658	-0.05
518.854	-0.02
519.05	-0
519.247	-0.01
519.443	0.02
519.639	0.02
519.836	-0.01
520.032	-0.01
520.228	-0.01
520.424	0.04
520.621	0.01
520.817	0
521.013	-0
521.209	0.01
521.405	0.05
521.601	0
521.798	-0.01
521.994	0.02
522.19	-0
522.386	-0.03
522.582	-0.01
522.778	-0.01
522.974	-0.02
523.17	0
523.366	-0.01
523.562	0.03
523.758	0
523.954	-0.02
524.15	-0.02
524.346	-0.01
524.542	-0.01
524.738	-0.01
524.934	-0.01
525.129	-0.09
525.325	0.02
525.521	-0.02
525.717	0.03
525.913	0.02
526.109	-0.01
526.304	-0.01
526.5	0.01
526.696	0.01
526.892	0.01
527.087	-0.01
527.283	-0.01
527.479	0.02
527.674	-0.02
527.87	0.01
528.066	-0.01
528.261	0.03
528.457	0.02
528.653	-0
528.848	-0.02
529.044	0.01
529.239	0.02
529.435	0.02
529.63	-0
529.826	0.04
530.021	-0.01
530.217	0.02
530.412	0.01
530.608	-0.01
530.803	-0.01
530.999	-0
531.194	-0.04
531.389	0
531.585	-0.04
531.78	-0.01
531.975	-0.01
532.171	0.01
532.366	0.01
532.561	0.01
532.757	-0.01
532.952	-0.01
533.147	0.03
533.342	-0.01
533.538	-0.01
533.733	0.03
533.928	-0.01
534.123	-0.01
534.318	-0.02
534.513	-0
534.709	0
534.904	-0.02
535.099	-0
535.294	-0.02
535.489	0.01
535.684	-0.01
535.879	-0.02
536.074	0.01
536.269	-0.01
536.464	0
536.659	-0.01
536.854	0.01
537.049	-0
537.244	0.01
537.439	0
537.634	0.03
537.828	0
538.023	-0.02
538.218	-0.03
538.413	0.02
538.608	-0.03
538.803	0.02
538.997	-0.04
539.192	0.02
539.387	-0
539.582	0.01
539.776	0
539.971	-0.01
540.166	0
540.36	-0.03
540.555	0.01
540.75	0
540.944	0
541.139	-0.04
541.334	0.02
541.528	0.01
541.723	0.02
541.917	-0.01
542.112	-0.04
542.306	-0.01
542.501	0.01
542.695	-0.01
542.89	-0.01
543.084	0
543.279	0.01
543.473	-0.02
543.668	0.02
543.862	0
544.056	0.02
544.251	0.01
544.445	0
544.64	0
544.834	-0.02
545.028	0.02
545.222	0.02
545.417	0.02
545.611	0.01
545.805	0.02
546	0.02
546.194	0.01
546.388	-0.02
546.582	0.01
546.776	0.02
546.97	0.01
547.165	0.01
547.359	0.02
547.553	0
547.747	0.02
547.941	0.01
548.135	-0.01
548.329	0.04
548.523	0.02
548.717	0
548.911	-0
549.105	0.01
549.299	0.01
549.493	0.01
549.687	0.03
549.881	0.02
550.075	-0.01
550.269	-0.03
550.463	0.01
550.657	0
550.85	-0.01
551.044	0
551.238	-0.01
551.432	0
551.626	-0.02
551.82	0
552.013	-0.01
552.207	0.02
552.401	-0
552.594	0.01
552.788	-0.01
552.982	0.01
553.176	-0.01
553.369	0.01
553.563	0
553.756	-0.03
553.95	-0.04
554.144	0
554.337	0.02
554.531	-0
554.724	0.01
554.918	0
555.111	0.01
555.305	-0.02
555.498	0.03
555.692	0.02
555.885	0.01
556.079	0
556.272	-0.03
556.466	0.02
556.659	-0
556.852	-0
557.046	0.01
557.239	0.02
557.432	-0.02
557.626	-0.02
557.819	0.01
558.012	0.02
558.206	0.01
558.399	0.01
558.592	-0
558.785	-0.01
558.979	0.01
559.172	0.01
559.365	-0.01
559.558	0.01
559.751	-0.01
559.944	0.04
560.138	-0.02
560.331	0.01
560.524	-0.02
560.717	-0.01
560.91	0
561.103	0.01
561.296	0
561.489	0.03
561.682	0
561.875	0.03
562.068	0.05
562.261	0.03
562.454	0.04
562.647	0.02
562.84	-0
563.032	0.02
563.225	-0.01
563.418	0
563.611	0.01
563.804	0
563.997	-0.03
564.19	-0.03
564.382	-0.04
564.575	0.01
564.768	0.01
564.961	-0.01
565.153	-0.02
565.346	0.04
565.539	0.03
565.731	0.05
565.924	0.04
566.117	0.01
566.309	0.01
566.502	0
566.695	0.02
566.887	0.02
567.08	-0.02
567.272	0
567.465	0.01
567.657	0.03
567.85	0.01
568.042	0.04
568.235	0.05
568.427	0
568.62	0.02
568.812	0.02
569.005	0.01
569.197	-0.01
569.389	0.01
569.582	0.03
569.774	0.03
569.966	-0.01
570.159	-0.02
570.351	0.04
570.543	0.01
570.736	-0.01
570.928	-0.02
571.12	0.02
571.312	-0.01
571.505	-0
571.697	0.04
571.889	-0
572.081	0.02
572.273	0
572.465	0.05
572.658	0.02
572.85	0.02
573.042	0
573.234	-0.01
573.426	0.06
573.618	-0.01
573.81	0.02
574.002	0.05
574.194	0.06
574.386	-0.01
574.578	-0.02
574.77	0.03
574.962	0.03
575.154	-0.01
575.346	0.03
575.538	0.01
575.729	0.01
575.921	0.02
576.113	0.01
576.305	0.07
576.497	0.04
576.689	0.02
576.88	0.01
577.072	0.05
577.264	0.03
577.456	0.06
577.647	-0.03
577.839	0.04
578.031	0.07
578.223	0.02
578.414	0.04
578.606	0.05
578.798	0.04
578.989	0.04
579.181	0.04
579.372	0.05
579.564	0.05
579.755	0.08
579.947	0.06
580.139	0.07
580.33	-0
580.522	0.01
580.713	-0.01
580.905	0.06
581.096	0.08
581.287	0.06
581.479	0.09
581.67	0.08
581.862	0.09
582.053	0.07
582.244	0.03
582.436	0.07
582.627	0.11
582.818	0.06
583.01	0.05
583.201	0.1
583.392	0.1
583.583	0.11
583.775	0.08
583.966	0.06
584.157	0.08
584.348	0.09
584.54	0.06
584.731	0.13
584.922	0.09
585.113	0.09
585.304	0.14
585.495	0.14
585.686	0.13
585.877	0.17
586.068	0.12
586.259	0.13
586.45	0.14
586.641	0.08
586.832	0.07
587.023	0.14
587.214	0.11
587.405	0.13
587.596	0.14
587.787	0.16
587.978	0.18
588.169	0.15
588.36	0.13
588.551	0.16
588.742	0.16
588.932	0.21
589.123	0.17
589.314	0.22
589.505	0.2
589.696	0.2
589.886	0.15
590.077	0.14
590.268	0.18
590.458	0.16
590.649	0.14
590.84	0.24
591.03	0.18
591.221	0.17
591.412	0.19
591.602	0.26
591.793	0.22
591.984	0.23
592.174	0.22
592.365	0.29
592.555	0.22
592.746	0.26
592.936	0.29
593.127	0.27
593.317	0.27
593.508	0.26
593.698	0.26
593.889	0.29
594.079	0.28
594.269	0.28
594.46	0.28
594.65	0.29
594.84	0.33
595.031	0.28
595.221	0.29
595.411	0.27
595.602	0.37
595.792	0.33
595.982	0.32
596.172	0.41
596.363	0.35
596.553	0.37
596.743	0.39
596.933	0.36
597.123	0.42
597.314	0.37
597.504	0.39
597.694	0.43
597.884	0.41
598.074	0.43
598.264	0.42
598.454	0.47
598.644	0.46
598.834	0.49
599.024	0.45
599.214	0.46
599.404	0.56
599.594	0.5
599.784	0.48
599.974	0.59
600.164	0.55
600.354	0.54
600.544	0.52
600.734	0.56
600.924	0.56
601.114	0.55
601.303	0.61
601.493	0.61
601.683	0.6
601.873	0.64
602.063	0.58
602.252	0.65
602.442	0.61
602.632	0.63
602.821	0.63
603.011	0.71
603.201	0.7
603.39	0.67
603.58	0.7
603.77	0.76
603.959	0.78
604.149	0.77
604.339	0.76
604.528	0.84
604.718	0.83
604.907	0.81
605.097	0.8
605.286	0.81
605.476	0.87
605.665	0.93
605.855	0.87
606.044	0.95
606.234	0.9
606.423	0.94
606.612	0.94
606.802	0.97
606.991	0.99
607.181	1
607.37	0.96
607.559	0.98
607.749	1.01
607.938	1.09
608.127	1.08
608.316	1.06
608.506	1.11
608.695	1.15
608.884	1.11
609.073	1.19
609.263	1.18
609.452	1.26
609.641	1.21
609.83	1.17
610.019	1.21
610.208	1.21
610.397	1.31
610.586	1.32
610.775	1.3
610.965	1.38
611.154	1.33
611.343	1.35
611.532	1.39
611.721	1.43
611.91	1.44
612.099	1.48
612.287	1.43
612.476	1.44
612.665	1.57
612.854	1.57
613.043	1.63
613.232	1.59
613.421	1.61
613.61	1.65
613.798	1.64
613.987	1.78
614.176	1.8
614.365	1.8
614.554	1.8
614.742	1.83
614.931	1.81
615.12	1.95
615.309	1.93
615.497	1.97
615.686	1.9
615.875	2.03
616.063	2.05
616.252	2.06
616.44	2.11
616.629	2.12
616.818	2.21
617.006	2.23
617.195	2.25
617.383	2.3
617.572	2.32
617.76	2.38
617.949	2.38
618.137	2.53
618.326	2.49
618.514	2.46
618.703	2.53
618.891	2.65
619.079	2.59
619.268	2.77
619.456	2.73
619.644	2.84
619.833	2.77
620.021	2.86
620.209	2.8
620.398	2.94
620.586	2.93
620.774	3.08
620.962	3.14
621.151	3.25
621.339	3.24
621.527	3.22
621.715	3.27
621.903	3.33
622.092	3.31
622.28	3.49
622.468	3.4
622.656	3.55
622.844	3.56
623.032	3.66
623.22	3.66
623.408	3.77
623.596	3.78
623.784	3.91
623.972	3.84
624.16	3.93
624.348	4
624.536	4.13
624.724	4.05
624.912	4.12
625.1	4.19
625.288	4.3
625.476	4.21
625.664	4.36
625.851	4.32
626.039	4.44
626.227	4.4
626.415	4.47
626.603	4.41
626.79	4.58
626.978	4.55
627.166	4.59
627.354	4.57
627.541	4.67
627.729	4.59
627.917	4.8
628.104	4.82
628.292	4.73
628.48	4.8
628.667	4.81
628.855	4.9
629.042	4.95
629.23	4.86
629.418	4.88
629.605	4.99
629.793	4.86
629.98	4.88
630.168	4.83
630.355	4.9
630.543	4.87
630.73	4.8
630.917	4.78
631.105	4.94
631.292	4.83
631.48	4.74
631.667	4.81
631.854	4.71
632.042	4.69
632.229	4.53
632.416	4.59
632.604	4.53
632.791	4.38
632.978	4.49
633.165	4.39
633.353	4.34
633.54	4.31
633.727	4.2
633.914	4.12
634.101	3.99
634.289	4.06
634.476	3.91
634.663	3.88
634.85	3.79
635.037	3.74
635.224	3.6
635.411	3.57
635.598	3.41
635.785	3.33
635.972	3.24
636.159	3.22
636.346	3.12
636.533	3
636.72	2.99
636.907	2.84
637.094	2.82
637.281	2.63
637.468	2.64
637.655	2.59
637.842	2.48
638.029	2.43
638.215	2.38
638.402	2.29
638.589	2.13
638.776	2.09
638.963	2.02
639.149	2.02
639.336	1.96
639.523	1.81
639.709	1.85
639.896	1.77
640.083	1.71
640.27	1.64
640.456	1.52
640.643	1.52
640.829	1.44
641.016	1.38
641.203	1.35
641.389	1.34
641.576	1.31
641.762	1.24
641.949	1.21
642.135	1.14
642.322	1.12
642.508	1.03
642.695	1.03
642.881	0.97
643.068	0.95
643.254	0.94
643.441	0.93
643.627	0.92
643.813	0.79
644	0.9
644.186	0.77
644.372	0.78
644.559	0.79
644.745	0.74
644.931	0.7
645.118	0.65
645.304	0.69
645.49	0.63
645.676	0.6
645.862	0.59
646.049	0.61
646.235	0.58
646.421	0.66
646.607	0.59
646.793	0.48
646.979	0.45
647.165	0.46
647.352	0.48
647.538	0.47
647.724	0.43
647.91	0.44
648.096	0.42
648.282	0.41
648.468	0.36
648.654	0.37
648.84	0.37
649.026	0.35
649.212	0.32
649.397	0.28
649.583	0.27
649.769	0.35
649.955	0.32
650.141	0.31
650.327	0.33
650.513	0.23
650.698	0.28
650.884	0.16
651.07	0.23
651.256	0.23
651.442	0.21
651.627	0.22
651.813	0.23
651.999	0.18
652.184	0.22
652.37	0.2
652.556	0.19
652.741	0.22
652.927	0.13
653.113	0.19
653.298	0.18
653.484	0.18
653.669	0.13
653.855	0.15
654.04	0.18
654.226	0.17
654.412	0.12
654.597	0.09
654.782	0.15
654.968	0.15
655.153	0.13
655.339	0.11
655.524	0.07
655.71	0.14
655.895	0.1
656.08	0.09
656.266	0.13
656.451	0.15
656.636	0.07
656.822	0.1
657.007	0.07
657.192	0.09
657.378	0.03
657.563	0.06
657.748	0.14
657.933	0.07
658.118	0.05
658.304	0.06
658.489	0.12
658.674	0.09
658.859	0.06
659.044	0.08
659.229	0.11
659.414	0.04
659.599	0.06
659.785	0.03
659.97	0.05
660.155	0.07
660.34	0.06
660.525	0.06
660.71	0.05
660.895	0.08
661.08	0.07
661.264	0.06
661.449	0.1
661.634	0.08
661.819	0.08
662.004	0.08
662.189	0.02
662.374	0.03
662.559	-0
662.743	-0.04
662.928	0.05
663.113	0.05
663.298	-0.02
663.483	0.01
663.667	0.04
663.852	0.01
664.037	0.1
664.221	0.02
664.406	0.07
664.591	0.07
664.775	0.03
664.96	0.07
665.145	0.06
665.329	0.03
665.514	0.01
665.698	0.04
665.883	-0
666.068	0.09
666.252	0.04
666.437	0.01
666.621	0.01
666.806	0.06
666.99	0.02
667.174	-0
667.359	0.08
667.543	0.01
667.728	0.01
667.912	-0.02
668.096	0.03
668.281	0.03
668.465	0.03
668.649	0.03
668.834	-0.02
669.018	0.05
669.202	0.01
669.387	-0.02
669.571	0.01
669.755	-0.01
669.939	0.01
670.124	0.05
670.308	0.06
670.492	0.08
670.676	0.01
670.86	0.04
671.044	-0.04
671.228	0.06
671.413	-0.01
671.597	-0.02
671.781	-0
671.965	0.03
672.149	-0.01
672.333	0.02
672.517	0.02
672.701	0.01
672.885	-0
673.069	-0.07
673.253	0.07
673.437	-0.01
673.621	-0
673.804	0.05
673.988	0.03
674.172	-0.01
674.356	-0.08
674.54	-0.01
674.724	0.09
674.908	-0.02
675.091	0.06
675.275	0.01
675.459	0.01
675.643	0.08
675.826	0.03
676.01	0.01
676.194	0.02
676.377	0.02
676.561	-0.01
676.745	0.03
676.928	0.03
677.112	0.01
677.296	-0.01
677.479	-0.04
677.663	-0.02
677.846	0.04
678.03	0
678.213	-0.02
678.397	0.01
678.58	0
678.764	0.04
678.947	-0.07
679.131	-0.05
679.314	0.01
679.498	0.02
679.681	0.02
679.865	0.09
680.048	0.02
680.231	0.02
680.415	-0.02
680.598	-0.01
680.781	-0.03
680.965	-0.06
681.148	0.03
681.331	-0.02
681.514	0.05
681.698	-0.02
681.881	0.05
682.064	0
682.247	0.01
682.43	-0.08
682.614	0.04
682.797	0.08
682.98	0
683.163	-0.06
683.346	0.03
683.529	0.03
683.712	-0.04
683.895	0.08
684.078	-0.01
684.261	-0.01
684.444	0.02
684.627	0.04
684.81	-0.02
684.993	-0.01
685.176	0.01
685.359	-0.08
685.542	0
685.725	0.06
685.908	-0.03
686.091	-0.02
686.274	0.04
686.457	0.01
686.639	-0
686.822	0.06
687.005	0.01
687.188	0.03
687.371	0.05
687.553	-0.01
687.736	0.05
687.919	0.03
688.102	0.06
688.284	-0.02
688.467	-0.02
688.65	0.03
688.832	-0.03
689.015	0
689.197	-0.03
689.38	0.11
689.563	0.04
689.745	0
689.928	-0.02
690.11	0.02
690.293	0.03
690.475	-0.06
690.658	0
690.84	0.01
691.023	-0
691.205	-0.03
691.388	0.02
691.57	0.03
691.752	0.08
691.935	-0.08
692.117	-0.01
692.3	-0.01
692.482	0.01
692.664	0.02
692.847	0.02
693.029	0.03
693.211	0.02
693.393	-0.01
693.576	-0.03
693.758	0.02
693.94	-0.01
694.122	-0.03
694.304	-0.02
694.487	-0.06
694.669	0.08
694.851	-0.07
695.033	0.01
695.215	-0.05
695.397	-0.06
695.579	0.01
695.761	-0.04
695.943	-0.08
696.125	0.06
696.308	0.03
696.49	-0.11
696.671	0.14
696.853	-0.04
697.035	0.1
697.217	0.03
697.399	0.04
697.581	-0.03
697.763	-0.01
697.945	-0.1
698.127	-0.02
698.309	0.04
698.491	0.01
698.672	0.07
698.854	0.02
699.036	0.01
699.218	-0.04
699.399	0.01
699.581	0.02
699.763	-0
699.945	-0.04
700.126	-0.04
700.308	-0.03
700.49	-0.04
700.671	-0.07
700.853	-0.04
701.035	-0.02
701.216	0.03
701.398	-0.03
701.579	0.03
701.761	0
701.943	-0.03
702.124	-0.04
702.306	-0.02
702.487	0.13
702.669	0.01
702.85	-0.02
703.031	-0.08
703.213	0.1
703.394	0.1
703.576	-0.05
703.757	0.04
703.938	0.06
704.12	0.11
704.301	0.06
704.483	-0.01
704.664	0.04
704.845	0.12
705.026	0.06
705.208	0.02
705.389	0.02
705.57	0.04
705.751	-0.03
705.933	-0.02
706.114	0.03
706.295	0
706.476	-0.07
706.657	0.08
706.838	0.05
707.02	0.07
707.201	-0.08
707.382	-0.07
707.563	0.02
707.744	-0.02
707.925	-0.1
708.106	-0.03
708.287	-0
708.468	0.07
708.649	0.02
708.83	0.02
709.011	-0.02
709.192	0.04
709.373	-0.08
709.554	0.1
709.734	0
709.915	0.01
710.096	-0.01
710.277	-0.08
710.458	-0.07
710.639	0
710.819	-0.14
711	0.04
711.181	0.09
711.362	0.07
711.542	0.04
711.723	0.03
711.904	-0.02
712.085	0
712.265	0
712.446	-0.04
712.627	-0.05
712.807	-0.01
712.988	-0.07
713.168	-0.13
713.349	0.01
713.53	-0.15
713.71	-0.04
713.891	-0.14
714.071	0.07
714.252	-0.07
714.432	-0.02
714.613	-0.09
714.793	-0.05
714.974	0.07
715.154	0.04
715.334	0
715.515	0.05
715.695	-0.08
715.876	0.03
716.056	-0.07
716.236	0.02
716.417	-0.02
716.597	-0.06
716.777	0.03
716.957	-0.04
717.138	-0.01
717.318	0
717.498	-0.08
717.678	-0.04
717.859	-0.04
718.039	-0.09
718.219	0
718.399	0.02
718.579	-0.03
718.759	-0.01
718.939	0.02
719.12	0.01
719.3	0.02
719.48	-0.19
719.66	-0.11
719.84	0.11
720.02	0.04
720.2	-0.02
720.38	0
720.56	0.01
720.74	-0.05
720.92	0.02
721.1	0.06
721.279	0.03
721.459	-0
721.639	-0
721.819	0.08
721.999	-0.03
722.179	0.05
722.359	-0.06
722.538	0.07
722.718	0.02
722.898	-0.03
723.078	0.05
723.257	-0.04
723.437	-0.02
723.617	-0.02
723.797	-0.04
723.976	-0.04
724.156	0.04
724.336	0.05
724.515	0.18
724.695	-0.18
724.874	-0.03
725.054	-0.01
725.234	-0.14
725.413	0.04
725.593	-0.06
725.772	-0.03
725.952	-0.06
726.131	0.01
726.311	-0
726.49	-0.02
726.67	-0.06
726.849	-0.09
727.028	-0.03
727.208	-0.09
727.387	0.11
727.567	-0.08
727.746	-0.06
727.925	-0.05
728.105	-0.07
728.284	-0.05
728.463	-0.07
728.643	0.03
728.822	-0.02
729.001	-0.03
729.18	0.01
729.359	0.03
729.539	-0.09
729.718	-0.04
729.897	0.01
730.076	-0.05
730.255	-0.06
730.434	-0.07
730.614	0.02
730.793	0.01
730.972	-0.03
731.151	-0.02
731.33	0.06
731.509	0.01
731.688	0.11
731.867	-0.02
732.046	-0.19
732.225	0.13
732.404	0
732.583	-0.07
732.762	-0.03
732.941	0.03
733.12	0.05
733.298	-0.04
733.477	0.09
733.656	0.05
733.835	-0.17
734.014	-0
734.193	-0.04
734.371	0.01
734.55	0.08
734.729	-0.1
734.908	-0.01
735.086	-0.01
735.265	0.08
735.444	-0.13
735.623	-0.12
735.801	-0.14
735.98	-0.05
736.159	0.02
736.337	0.03
736.516	0.06
736.694	0.1
736.873	-0.08
737.052	0.06
737.23	0.07
737.409	-0.06
737.587	0.14
737.766	-0.18
737.944	-0.08
738.123	-0.01
738.301	0.09
738.479	-0
738.658	0.06
738.836	-0.2
739.015	0
739.193	0.04
739.371	-0.12
739.55	-0.07
739.728	-0.12
739.906	0.11
740.085	0.15
740.263	-0.13
740.441	-0.17
740.62	0.16
740.798	0.02
740.976	-0.12
741.154	-0.06
741.332	0.07
741.511	-0.04
741.689	0.02
741.867	0.07
742.045	-0.12
742.223	-0.05
742.401	-0.19
742.579	-0.06
742.757	0.02
742.935	-0.16
743.114	-0.08
743.292	-0.07
743.47	-0.04
743.648	-0.01
743.826	-0.13
744.004	-0.1
744.181	-0.02
744.359	-0.06
744.537	-0.06
744.715	-0.11
744.893	-0.03
745.071	-0.02
745.249	-0.14
745.427	-0.02
745.605	-0.02
745.782	-0.08
745.96	0.03
746.138	0.03
746.316	0.08
746.493	-0.12
746.671	0.05
746.849	-0.04
747.027	0.11
747.204	-0.15
747.382	0.07
747.56	-0.21
747.737	-0.06
747.915	-0.09
748.093	-0.02
748.27	-0.16
748.448	0
748.625	-0.13
748.803	-0.1
748.98	-0.07
749.158	-0.02
749.335	0.06
749.513	0.06
749.69	-0.14
749.868	0.12
750.045	0.06
750.223	-0.11
750.4	-0.16
750.578	0.2
750.755	-0.06
750.932	-0.18
751.11	0.17
751.287	-0.12
751.464	0.09
751.642	-0.08
751.819	0.01
751.996	-0.06
752.173	-0.03
752.351	-0.11
752.528	0
752.705	-0.13
752.882	-0.13
753.06	0.04
753.237	0.06
753.414	0.09
753.591	0.12
753.768	0.02
753.945	-0.07
754.122	-0.12
754.299	0.07
754.476	-0.04
754.654	-0.01
754.831	-0.01
755.008	-0.03
755.185	-0.08
755.362	-0.13
755.539	0.14
755.716	-0.12
755.892	-0.05
756.069	-0
756.246	-0.07
756.423	-0.02
756.6	0.09
756.777	-0.03
756.954	0.13
757.131	-0.12
757.307	-0.16
757.484	-0.17
757.661	0.06
757.838	0.06
758.015	-0.04
758.191	0.15
758.368	-0.04
758.545	0.03
758.721	0.01
758.898	-0.07
759.075	0.02
759.251	0.05
759.428	0.07
759.605	-0.1
759.781	0.01
759.958	0.01
760.134	0.05
760.311	-0.17
760.488	0.15
760.664	0.09
760.841	0.01
761.017	-0.13
761.194	0.01
761.37	0.02
761.547	0.01
761.723	0
761.899	0.12
762.076	-0.19
762.252	-0.04
762.429	-0.13
762.605	0.13
762.781	0.03
762.958	0.09
763.134	-0.05
763.31	-0.1
763.486	0.12
763.663	-0.18
763.839	0.03
764.015	-0.14
764.191	-0.21
764.368	-0.05
764.544	0.02
764.72	0.06
764.896	0.06
765.072	-0.03
765.248	-0.08
765.425	-0.07
765.601	-0.02
765.777	-0.08
765.953	-0.27
766.129	-0.04
766.305	0.06
766.481	0.13
766.657	-0.03
766.833	0.15
767.009	-0.19
767.185	-0.01
767.361	0.05
767.537	-0.13
767.713	0.24
767.889	-0.17
768.065	-0.04
768.24	-0.22
768.416	0.03
768.592	-0.04
768.768	-0
768.944	-0.01
769.12	-0.1
769.295	-0.08
769.471	-0.12
769.647	-0.01
769.823	0.12
769.998	-0.06
770.174	-0.09
770.35	0.3
770.525	0.32
770.701	-0.01
770.877	-0.02
771.052	-0.01
771.228	0.16
771.403	0.08
771.579	0.09
771.755	0.17
771.93	-0.11
772.106	-0.1
772.281	-0.28
772.457	-0.03
772.632	-0.07
772.808	-0.14
772.983	-0.05
773.159	-0.08
773.334	0.2
773.509	-0.16
773.685	-0.17
773.86	0.32
774.036	0.19
774.211	-0.03
774.386	0.04
774.562	0.07
774.737	0.03
774.912	0.04
775.087	0.11
775.263	-0.09
775.438	0.08
775.613	-0.02
775.788	-0.06
775.964	0.03
776.139	0.31
776.314	-0.24
776.489	0.04
776.664	-0.08
776.839	-0.15
777.014	0.21
777.19	0.15
777.365	0.12
777.54	0.19
777.715	-0.19
777.89	0.06
778.065	-0.12
778.24	0.06
778.415	0.17
778.59	-0.19
778.765	0.03
778.94	0.01
779.115	-0.1
779.289	-0.11
779.464	0.01
779.639	-0.05
779.814	-0.26
779.989	-0.18
780.164	0.12
780.339	0.12
780.513	-0.05
780.688	-0.12
780.863	0.07
781.038	0.06
781.212	-0.27
781.387	0.08
781.562	0.14
781.737	-0.08
781.911	0.09
782.086	-0.14
782.261	-0.08
782.435	0.2
782.61	-0.05
782.784	-0.12
782.959	0.19
783.134	-0.24
783.308	-0.13
783.483	-0.12
783.657	0.31
783.832	0.22
784.006	-0.32
784.181	0.05
784.355	0.17
784.53	-0.14
784.704	-0.16
784.878	0.28
785.053	-0.11
785.227	0.01
785.402	0.17
785.576	-0.13
785.75	-0.08
785.925	-0.04
786.099	0.01
786.273	0.06
786.448	0.18
786.622	0.15
786.796	-0.02
786.97	0.08
787.145	0.46
787.319	-0.42
787.493	-0.32
787.667	-0.51
787.841	0.01
788.015	0.08
788.19	-0.3
788.364	0.08
788.538	-0.02
788.712	0.06
788.886	0.04
789.06	0.08
789.234	0.24
789.408	-0.32
789.582	-0.13
789.756	0.09
789.93	-0.15
790.104	-0.03
790.278	-0.21
790.452	-0.22
790.626	0.12
790.8	0.04
790.973	0.18
791.147	0.31
791.321	0.22
791.495	0.08
791.669	-0.07
791.843	0.04
792.016	0.07
792.19	0.44
792.364	-0.11
792.538	0.66
792.711	0.15
792.885	-0.2
793.059	-0.33
793.233	-0.51
793.406	0.22
793.58	-0.14
793.754	0.24
793.927	-0.09
794.101	0.12
794.274	-0.33
794.448	-0.01
794.622	-0.15
794.795	0.21
794.969	-0.34
795.142	0.22
795.316	-0.05
795.489	-0.21
795.663	0.25
795.836	-0.18
796.009	-0.01
796.183	0.21
796.356	0.07
796.53	0.06
796.703	-0.03
796.876	0.5
797.05	-0.18
797.223	-0.22
797.396	0.1
797.57	0.05
797.743	0.39
797.916	0.02
798.09	-0.13
798.263	0.09
798.436	0.05
798.609	-0.23
798.782	-0.12
798.956	0.03
799.129	-0.01
799.302	-0.35
799.475	-0.28
799.648	-0.21
799.821	-0.17
799.994	0.05
800.167	-0.61
800.34	0.1
800.514	-0.07
800.687	-0.25
800.86	-0.32
801.033	-0.12
801.206	-0.04
801.379	-0.35
801.551	0.13
801.724	0.21
801.897	0.16
802.07	-0.29
802.243	-0.34
802.416	-0.02
802.589	-0.11
802.762	0.03
802.935	0.04
803.107	0.04
803.28	0.17
803.453	0.3
803.626	-0.16
803.798	0.02
803.971	-0.36
804.144	-0.27
804.317	0.1
804.489	0.25
804.662	-0.08
804.835	-0.08
805.007	-0.51
805.18	0.13
805.353	0.05
805.525	-0.36
805.698	-0.12
805.87	0.04
806.043	0.25
806.215	-0.14
806.388	-0.39
806.56	-0.11
806.733	-0.03
806.905	-0.15
807.078	-0.31
807.25	0.08
807.423	0.05
807.595	-0.3
807.768	0.1
807.94	-0.08
808.112	0.04
808.285	-0.04
808.457	-0.07
808.629	-0.27
808.802	0.24
808.974	0.08
809.146	-0.06
809.318	-0.66
809.491	-0.15
809.663	-0.31
809.835	-0.01
810.007	0.17
810.18	0
810.352	-0.5
810.524	-0.16
810.696	-0.05
810.868	-0.04
811.04	-0.01
811.212	-0.01
811.384	0.12
811.556	-0.28
811.728	-0.12
811.901	0.48
812.073	-0.31
812.245	0.31
812.417	-0.22
812.589	-0.62
812.76	0.43
812.932	0.44
813.104	0.31
813.276	0.12
813.448	0.3
813.62	0.13
813.792	0.09
813.964	0.32
814.136	0.28
814.307	-0.63
814.479	-0.16
814.651	-0.14
814.823	0.54
814.995	-0.19
815.166	-0.35
815.338	-0.28
815.51	-0.22
815.681	0.68
815.853	0.01
816.025	0.2
816.196	0.48
816.368	0.24
816.54	-0.52
816.711	-0.04
816.883	0
817.054	0.89
817.226	-0.66
817.398	0.2
817.569	-0.34
817.741	0.56
817.912	-0.15
818.084	-0.12
818.255	0.14
818.426	-0.64
818.598	-0.31
818.769	0.04
818.941	-0.08
819.112	0.2
819.283	0.55
819.455	-0.17
819.626	-0.17
819.798	0.23
819.969	-0.09
820.14	0.01
820.311	-0.44
820.483	0.15
820.654	0.56
820.825	0.13
820.996	-0.22
821.168	-0.33
821.339	-0
821.51	-0.37
821.681	-0.38
821.852	-0.22
822.023	-0.46
822.195	-0
822.366	0.46
822.537	-0.27
822.708	-0.12
822.879	-0.6
823.05	0.48
823.221	-0.09
823.392	-0.2
823.563	-0.06
823.734	-0.16
823.905	-0.34
824.076	-0.35
824.247	-0.09
824.418	0.16
824.589	0.41
824.759	0.12
824.93	-0.22
825.101	-0.65
825.272	0.11
825.443	0.25
825.614	0.08
825.784	-0.99
825.955	1.41
826.126	0.23
826.297	-0.42
826.467	0.47
826.638	0.59
826.809	-0.64
826.98	-0.04
827.15	-0.21
827.321	0.15
827.492	0.57
827.662	-0.19
827.833	1.2
828.003	0.52
828.174	0.07
828.345	-0.74
828.515	0.28
828.686	-0.24
828.856	-0.28
829.027	-0.69
829.197	-0.1
829.368	0.13
829.538	-0.5
829.709	-0.11
829.879	0.19
830.049	0.1
830.22	-0.46
830.39	-0.6
830.56	0.08
830.731	-0.23
830.901	-0.24
831.072	-0.09
831.242	-0.45
831.412	0.42
831.582	-0.09
831.753	-1.04
831.923	0.31
832.093	-0.12
832.263	-0.12
832.434	-0.46
832.604	-0.44
832.774	0.77
832.944	-0.29
833.114	-0.31
833.284	-0.03
833.454	-0.68
833.624	-0.49
833.795	-0.81
833.965	0.72
834.135	0.3
834.305	-1.07
834.475	-0.76
834.645	-0.03
834.815	-0.48
834.985	-0.36
835.155	-0.43
835.325	0.27
835.494	0.04
835.664	-0
835.834	-0.39
836.004	-0.09
836.174	0.22
836.344	-0.78
836.514	-0.78
836.684	-0.24
836.853	0.22
837.023	-0.31
837.193	-0.4
837.363	0.65
837.532	0.11
837.702	0.3
837.872	-0.13
838.041	1.24
838.211	0.95
838.381	-0.88
838.55	-0.28
838.72	1.18
838.89	1
839.059	-0.08
839.229	-0.72
839.398	0.96
839.568	0.7
839.738	-0.23
839.907	0.59
840.077	0.47
840.246	-0.35
840.416	0
840.585	-0.63
840.755	0.87
840.924	0.7
841.093	-0.53
841.263	-0.74
841.432	-0.27
841.602	-0.85
841.771	-0.29
841.94	-0.54
842.11	1.27
842.279	0.83
842.448	-0.83
842.617	-0.37
842.787	0.94
842.956	-1.43
843.125	-0.29
843.294	0.6
843.464	1.03
843.633	-0.02
843.802	-0.84
843.971	-0.27
844.14	0.47
844.309	-0.17
844.479	-0.89
844.648	-0.78
844.817	-1.3
844.986	-0.09
845.155	-0.95
845.324	-0.08
845.493	0.19
845.662	-1.04
845.831	-0.1
846	0.69
846.169	0.53
846.338	0.49
846.507	-0.09
846.676	0.34
846.844	-1.4
847.013	1
847.182	0.77
847.351	-0.4
847.52	-0.25
847.689	-0.04
847.858	0.03
848.026	-0.59
848.195	-0.43
848.364	0.11
848.533	-0.61
848.701	-1.34
848.87	0.38
849.039	0.99
849.207	-0.01
849.376	0.2
849.545	1
849.713	-0.25
849.882	-0.79
850.051	0
850.219	0.43
850.388	0.39
850.556	-0.77
850.725	-1.34
850.893	0.14
851.062	0.07
851.23	0.3
851.399	-1.12
851.567	-1.21
851.736	0.22
851.904	-1.34
852.073	0.13
852.241	0.79
852.41	0.54
852.578	-0.26
852.746	-0.13
852.915	0.1
853.083	0.38
853.251	-0.77
853.42	-0.63
853.588	-0.18
853.756	1.4
853.924	-0.47
854.093	0.26
854.261	-0.97
854.429	-1.5
854.597	0.32
854.765	-1.82
854.934	0.81
855.102	0.96
855.27	-0.3
855.438	-0.68
855.606	0.56
855.774	1.06
855.942	-1.4
856.11	-1.43
856.278	0.88
856.446	0.65
856.614	-0.27
856.782	-0.01
856.95	0.83
857.118	0.62
857.286	0.29
857.454	-1.02
857.622	0.46
857.79	0.73
857.958	-0.65
858.126	-1.09
858.294	-2.86
858.462	-1.09
858.629	-0.1
858.797	-1.77
858.965	0.39
859.133	-0.58
859.301	-0.01
859.468	-0.07
859.636	-1.52
859.804	2
859.971	-0.65
860.139	0.07
860.307	0.79
860.474	0.01
860.642	-0.07
860.81	-0.3
860.977	0.18
861.145	-0.62
861.313	-0.11
861.48	-0.63
861.648	-0.66
861.815	-0.12
861.983	-1.48
862.15	-1.18
862.318	0.17
862.485	0.71
862.653	-1.09
862.82	-1.54
862.988	2.16
863.155	0.61
863.322	-1.43
863.49	-0.94
863.657	-0.95
863.824	1.44
863.992	1.04
864.159	0.09
864.326	-0.06
864.494	-1.11
864.661	1.72
864.828	-0.02
864.996	0.96
865.163	1.09
865.33	-1.26
865.497	-3.15
865.664	-2.43
865.832	-2.63
865.999	-0.8
866.166	0.14
866.333	-1.65
866.5	-1.13
866.667	0.34
866.834	0.86
867.001	1.77
867.168	-2.67
867.335	-0.24
867.502	-1.04
867.669	0.2
867.836	1.28
868.003	-0.21
868.17	0.6
868.337	-1.37
868.504	1.86
868.671	-1.76
868.838	-0.99
869.005	-0.44
869.172	-0.07
869.339	-0.32
869.505	-0.92
869.672	-1.57
869.839	0.46
870.006	-0.04
870.173	-1.96
870.339	0.65
870.506	0.61
870.673	0.07
870.84	1.49
871.006	-0.09
871.173	-0.96
871.34	0.69
871.506	-1.87
871.673	-0.54
871.839	-2.75
872.006	0.99
872.173	-1.08
872.339	-0.93
872.506	2.21
872.672	-1.22
872.839	-2.82
873.005	0.34
873.172	1.14
873.338	1.66
873.505	0.01
873.671	-1.24
873.838	0.5
874.004	-3.12
874.171	-2.5
874.337	-0.21
874.503	-0.28
874.67	-0.71
874.836	1.13
875.002	1.13
875.169	1.24
875.335	-0.67
875.501	0.04
875.668	1.12
875.834	1.21
876	-1.24
876.166	0.42
876.332	1.23
876.499	1.22
876.665	-1.13
876.831	0.3
876.997	2.08
877.163	1
877.329	-1.13
877.495	-2.7
877.662	0.78
877.828	0.58
877.994	0.52
878.16	-1.82
878.326	-1.45
878.492	-0.14
878.658	-0.51
878.824	-1.12
878.99	0.27
879.156	0.66
879.322	1.5
879.487	-1.69
879.653	0.5
879.819	0.27
879.985	-0.96
880.151	1.63
880.317	0.42
880.483	-0.4
880.648	0.72
880.814	-3.14
880.98	0.05
881.146	-2.6
881.312	-2.39
881.477	-2.07
881.643	-0.29
881.809	1.27
881.974	1.74
882.14	-2.32
882.306	-1.25
882.471	2.53
882.637	-1.42
882.803	1.49
882.968	2.68
883.134	3.99
883.299	-1.13
883.465	-1.3
883.63	0.92
883.796	0.1
883.961	0.76
884.127	0.31
884.292	-3.98
884.458	-0.9
884.623	-0.89
