Data from Apollo_Calib_20240827__AbsoluteIrradiance__678__10-27-00-815.txt Node

Date: Wed Aug 28 10:27:00 BST 2024
User: biology
Spectrometer: FLMT08252
Trigger mode: 0
Integration Time (sec): 5.000000E-1
Scans to average: 5
Electric dark correction enabled: true
Nonlinearity correction enabled: false
Boxcar width: 0
XAxis mode: Wavelengths
Number of Pixels in Spectrum: 3648
>>>>>Begin Spectral Data<<<<<
179.588	-0
179.809	-0
180.03	-0
180.251	-0
180.473	-0
180.694	0
180.915	0
181.136	-0
181.357	0
181.578	-0
181.799	0
182.02	-0
182.241	-0
182.462	0
182.683	0
182.904	-0
183.125	-0
183.346	0
183.567	0
183.788	0
184.009	-0
184.23	0
184.451	0
184.672	-0
184.892	-0
185.113	0
185.334	0
185.555	0
185.776	-0
185.996	0
186.217	0
186.438	0
186.659	-0
186.879	0
187.1	0
187.321	0
187.541	0
187.762	0
187.983	0
188.203	0
188.424	0
188.644	0
188.865	0
189.086	-0
189.306	0
189.527	0
189.747	0
189.968	-0
190.188	0
190.409	0
190.629	0
190.849	0
191.07	0
191.29	0
191.511	0
191.731	0
191.951	-0
192.172	0
192.392	0
192.612	0
192.833	0
193.053	0
193.273	0
193.493	0
193.714	0
193.934	0
194.154	0
194.374	0
194.594	0
194.815	0
195.035	0
195.255	0
195.475	0
195.695	0
195.915	0
196.135	0
196.355	0
196.575	0
196.795	0
197.015	-0
197.235	0
197.455	0
197.675	0
197.895	-0
198.115	-0
198.335	0
198.555	-0
198.775	0
198.995	0
199.214	0
199.434	0
199.654	0
199.874	0
200.094	1.29
200.313	0.48
200.533	0.1
200.753	-0.27
200.973	0.72
201.192	1.04
201.412	-0.39
201.632	0.07
201.851	1.42
202.071	0.38
202.291	-0.06
202.51	-0.45
202.73	0.71
202.95	0.14
203.169	-0.15
203.389	0.41
203.608	0.25
203.828	-0.21
204.047	0.27
204.267	0.81
204.486	0.13
204.706	0.47
204.925	0.02
205.145	0
205.364	0.72
205.583	0.81
205.803	0.13
206.022	-0.3
206.242	0.37
206.461	0.29
206.68	-0.02
206.9	0.24
207.119	0.72
207.338	0.53
207.557	0.15
207.777	0.04
207.996	0.05
208.215	0.74
208.434	0.09
208.654	-0.27
208.873	0.23
209.092	0.89
209.311	-0.08
209.53	0.04
209.749	0.05
209.968	0.09
210.187	0.07
210.407	-0.24
210.626	0.08
210.845	0.29
211.064	0.18
211.283	-0.09
211.502	0.29
211.721	0.35
211.94	0.15
212.159	0.36
212.377	0.37
212.596	0.62
212.815	0.26
213.034	0.32
213.253	0.37
213.472	0.31
213.691	0.1
213.91	-0.08
214.128	0.15
214.347	0.61
214.566	-0.32
214.785	-0.3
215.003	0.35
215.222	0.42
215.441	0.1
215.66	-0.01
215.878	0.09
216.097	0.43
216.316	-0.07
216.534	-0.03
216.753	0.01
216.972	0.17
217.19	-0.03
217.409	-0
217.627	-0.05
217.846	0.08
218.064	0.06
218.283	-0
218.501	0.41
218.72	0.27
218.938	-0.19
219.157	-0.04
219.375	0.26
219.594	0.28
219.812	-0.09
220.031	-0.12
220.249	0.43
220.467	0.39
220.686	0.13
220.904	-0.1
221.122	-0.09
221.341	0.37
221.559	0.13
221.777	-0.01
221.995	0.16
222.214	-0.03
222.432	0
222.65	0.15
222.868	0.19
223.086	0.22
223.305	0.34
223.523	0.1
223.741	0.41
223.959	0.08
224.177	-0.22
224.395	0.08
224.613	0.14
224.831	0.31
225.049	-0.05
225.267	-0.03
225.485	0.09
225.703	0.16
225.921	0.16
226.139	0.04
226.357	0.29
226.575	0.11
226.793	-0.06
227.011	0.46
227.229	0.11
227.447	0.13
227.665	-0.03
227.883	-0.11
228.1	0.09
228.318	0.09
228.536	-0.08
228.754	0.1
228.972	0.11
229.189	0.24
229.407	-0
229.625	0.07
229.843	0.2
230.06	0.18
230.278	0
230.496	0.01
230.713	0.2
230.931	0.25
231.149	-0
231.366	-0.06
231.584	0.08
231.801	0.36
232.019	-0.04
232.236	0.04
232.454	0.03
232.671	0.19
232.889	0.08
233.106	-0.01
233.324	0.09
233.541	-0.01
233.759	0.1
233.976	0.03
234.194	0.11
234.411	-0.03
234.628	-0.06
234.846	0.01
235.063	-0.05
235.28	0.07
235.498	-0.04
235.715	-0.02
235.932	0.25
236.149	0.12
236.367	0.01
236.584	0.2
236.801	-0.13
237.018	0.2
237.236	0.13
237.453	-0.05
237.67	0.17
237.887	-0
238.104	0.02
238.321	-0.11
238.538	0.06
238.755	0.14
238.973	-0.14
239.19	-0.04
239.407	0.11
239.624	0.03
239.841	-0.11
240.058	0.05
240.275	0.12
240.492	0.09
240.709	0.11
240.925	0.05
241.142	0.07
241.359	-0.04
241.576	-0.08
241.793	-0.02
242.01	-0.01
242.227	0.09
242.444	0.19
242.66	0.12
242.877	0.11
243.094	-0.05
243.311	0.14
243.527	0.06
243.744	0.17
243.961	0.18
244.178	-0.03
244.394	0.09
244.611	0.07
244.828	0.27
245.044	0.06
245.261	0.07
245.477	0.01
245.694	0
245.911	-0.02
246.127	0.1
246.344	0.16
246.56	0.18
246.777	0
246.993	0.08
247.21	0.08
247.426	0.19
247.643	0.02
247.859	-0.08
248.076	0.06
248.292	0.2
248.508	0.04
248.725	0.1
248.941	0.05
249.157	0.2
249.374	0.01
249.59	0.05
249.806	0.11
250.023	0.05
250.239	-0.03
250.455	-0.05
250.671	0.05
250.888	0.14
251.104	0.11
251.32	0
251.536	0.04
251.752	0.06
251.969	0.02
252.185	0.05
252.401	0.24
252.617	0.13
252.833	0
253.049	0.07
253.265	0.09
253.481	0.07
253.697	0.02
253.913	0.03
254.129	0.14
254.345	0.14
254.561	0.03
254.777	0.08
254.993	0.08
255.209	0.06
255.425	-0.01
255.641	-0.01
255.857	0.15
256.073	0.03
256.288	0
256.504	0.02
256.72	0.04
256.936	0.13
257.152	0.11
257.367	-0.01
257.583	0.04
257.799	0.09
258.015	-0.05
258.23	0.02
258.446	0.19
258.662	0.08
258.877	0.02
259.093	-0.01
259.309	0.04
259.524	0.06
259.74	0.04
259.955	-0.09
260.171	0.06
260.387	-0.01
260.602	0.08
260.818	0.1
261.033	-0.02
261.249	0.02
261.464	0.02
261.68	-0.04
261.895	0.1
262.11	0.12
262.326	0
262.541	-0.05
262.757	0.14
262.972	0.08
263.187	0.11
263.403	0.1
263.618	0.12
263.833	0.07
264.049	0.04
264.264	0.09
264.479	0.09
264.694	0.19
264.91	0
265.125	0.04
265.34	0.09
265.555	0.18
265.77	0.04
265.986	0.01
266.201	0.05
266.416	0.14
266.631	-0.01
266.846	0.11
267.061	0.08
267.276	0.09
267.491	-0.04
267.706	0.06
267.921	0.08
268.136	0.09
268.351	0.06
268.566	-0.01
268.781	0.13
268.996	0.12
269.211	0.07
269.426	-0.05
269.641	0.06
269.856	0.1
270.071	-0.03
270.285	-0.07
270.5	0.14
270.715	0.13
270.93	0.05
271.145	0.04
271.359	0.05
271.574	0.03
271.789	0.03
272.004	-0.01
272.218	-0
272.433	0.08
272.648	-0.02
272.862	0.11
273.077	-0.01
273.292	0.02
273.506	0.01
273.721	0.05
273.936	0.1
274.15	0.11
274.365	0.03
274.579	0.07
274.794	0.07
275.008	0.09
275.223	-0
275.437	0.03
275.652	0.06
275.866	0.13
276.081	0.03
276.295	0.13
276.509	0.01
276.724	0.03
276.938	0.05
277.153	0.07
277.367	0.07
277.581	0.04
277.796	0.02
278.01	-0.02
278.224	0.07
278.438	0.12
278.653	-0.06
278.867	-0
279.081	-0.11
279.295	0.02
279.51	0.04
279.724	-0.03
279.938	0.07
280.152	0.08
280.366	-0.02
280.58	0.01
280.794	0.16
281.008	0.09
281.222	0.11
281.437	0.23
281.651	0.11
281.865	0.13
282.079	0.01
282.293	-0.08
282.507	0.02
282.721	0.03
282.935	0.06
283.148	-0.02
283.362	-0.01
283.576	0.05
283.79	0.02
284.004	0.01
284.218	0.14
284.432	0.03
284.646	0.05
284.859	-0
285.073	-0.02
285.287	0.08
285.501	0.08
285.714	0.03
285.928	0.04
286.142	0.01
286.356	-0.02
286.569	0.03
286.783	0.09
286.997	0.06
287.21	0.06
287.424	0.02
287.637	0.02
287.851	0.03
288.065	0.08
288.278	-0.01
288.492	0.04
288.705	0.06
288.919	0.04
289.132	-0.02
289.346	0.11
289.559	-0.02
289.773	-0.05
289.986	0.06
290.2	0.08
290.413	0.01
290.626	0.01
290.84	0.03
291.053	0.01
291.267	0.12
291.48	0.04
291.693	0.05
291.906	0.07
292.12	0.01
292.333	0.02
292.546	0.02
292.76	0.12
292.973	0.08
293.186	0.07
293.399	0.02
293.612	0.13
293.826	0.03
294.039	0.05
294.252	0.09
294.465	0.04
294.678	0.1
294.891	0.03
295.104	0.01
295.317	0.06
295.53	0.07
295.743	0.03
295.956	0.05
296.169	0.09
296.382	0.06
296.595	0.05
296.808	0.01
297.021	0.05
297.234	0.09
297.447	0.05
297.66	0.01
297.873	0.07
298.086	0.07
298.299	-0
298.511	-0.04
298.724	-0.02
298.937	0.02
299.15	0.03
299.363	0.03
299.575	0.05
299.788	0.06
300.001	-0.01
300.213	-0.01
300.426	0.04
300.639	0.01
300.852	-0.01
301.064	0.06
301.277	0.11
301.489	0.09
301.702	0.07
301.915	0.04
302.127	0.01
302.34	0.1
302.552	0.04
302.765	0.01
302.977	0.1
303.19	0.01
303.402	0.03
303.615	-0.01
303.827	-0.01
304.04	-0.01
304.252	0.1
304.464	0.04
304.677	0.14
304.889	0.08
305.102	-0.02
305.314	0.01
305.526	0.1
305.739	0.08
305.951	-0.01
306.163	0.05
306.375	0.1
306.588	-0.01
306.8	0.02
307.012	-0.02
307.224	0.07
307.436	0.07
307.649	-0.05
307.861	0.04
308.073	0.04
308.285	0.02
308.497	0.03
308.709	0.02
308.921	0.09
309.133	0.1
309.346	0.03
309.558	0
309.77	0.08
309.982	0.07
310.194	0.07
310.406	0.01
310.617	0.12
310.829	0.03
311.041	0.07
311.253	0
311.465	0.02
311.677	0
311.889	0.03
312.101	0.03
312.313	0.07
312.524	0.08
312.736	0.01
312.948	0.04
313.16	0.11
313.372	0.05
313.583	0.06
313.795	0
314.007	-0.01
314.218	0.03
314.43	0.04
314.642	-0.02
314.853	-0.02
315.065	0.06
315.277	0.07
315.488	0.07
315.7	0.09
315.912	0.05
316.123	0.01
316.335	0.02
316.546	0.1
316.758	0.08
316.969	-0.01
317.181	0.07
317.392	0.01
317.604	0.06
317.815	-0.03
318.026	-0
318.238	0.01
318.449	0.06
318.661	-0.08
318.872	-0.02
319.083	0.01
319.295	0.06
319.506	0.02
319.717	0.03
319.929	0.03
320.14	0.02
320.351	0.01
320.562	0.01
320.774	0.01
320.985	0.05
321.196	-0.02
321.407	-0.02
321.618	0.04
321.829	0.06
322.041	0.07
322.252	0.02
322.463	0.04
322.674	0.05
322.885	-0.03
323.096	0.02
323.307	0.03
323.518	0.03
323.729	0.01
323.94	-0.04
324.151	0.04
324.362	0.03
324.573	0.03
324.784	-0.03
324.995	0.08
325.206	0.03
325.417	0.03
325.628	-0.02
325.838	0
326.049	0.07
326.26	0.07
326.471	0
326.682	0.09
326.892	0.04
327.103	-0.04
327.314	-0.05
327.525	0.06
327.735	0.03
327.946	0.03
328.157	0.01
328.368	0.03
328.578	0.05
328.789	0.05
328.999	0.03
329.21	0.01
329.421	0.02
329.631	-0.01
329.842	-0.02
330.052	0.06
330.263	0.1
330.473	0.09
330.684	0.03
330.894	0.03
331.105	0.03
331.315	0.04
331.526	-0.02
331.736	0.1
331.947	0.03
332.157	0.07
332.367	-0.02
332.578	0.08
332.788	0.05
332.999	0.07
333.209	0.02
333.419	-0.01
333.629	0.05
333.84	0.01
334.05	-0.02
334.26	0.05
334.47	0.05
334.681	0.1
334.891	0.01
335.101	0.09
335.311	0.08
335.521	0.08
335.732	-0.01
335.942	0.09
336.152	0
336.362	0.05
336.572	0.02
336.782	0.07
336.992	0.01
337.202	0.05
337.412	-0.01
337.622	0.07
337.832	0.04
338.042	0.06
338.252	-0.02
338.462	-0.02
338.672	0.06
338.882	0.03
339.092	0.07
339.302	0.09
339.511	0.07
339.721	-0.05
339.931	0
340.141	0.07
340.351	0.03
340.561	0.04
340.77	0.03
340.98	0.01
341.19	0.06
341.4	0.01
341.609	-0.02
341.819	0.06
342.029	-0.01
342.238	0
342.448	-0.01
342.658	0.06
342.867	0.03
343.077	0.04
343.286	0.03
343.496	0.05
343.706	0.07
343.915	0
344.125	0.09
344.334	0.08
344.544	0
344.753	-0.01
344.963	-0
345.172	0.06
345.381	0.01
345.591	0.01
345.8	0.04
346.01	0.09
346.219	0.06
346.428	-0.1
346.638	-0.03
346.847	0.02
347.056	0.1
347.266	0
347.475	0.03
347.684	0.06
347.893	0.04
348.103	0.04
348.312	0.02
348.521	0
348.73	0.06
348.94	0.05
349.149	0.01
349.358	-0.02
349.567	0.01
349.776	0.01
349.985	0.02
350.194	0.05
350.403	0.07
350.612	-0.01
350.821	0.05
351.03	0.02
351.239	-0.03
351.448	0.02
351.657	0.02
351.866	0.11
352.075	0.02
352.284	0.08
352.493	-0.05
352.702	0.04
352.911	0.04
353.12	0.04
353.329	0.02
353.538	0.07
353.746	0.02
353.955	0.03
354.164	0.03
354.373	0.01
354.582	0.06
354.79	0.04
354.999	0.03
355.208	0.01
355.416	0.1
355.625	0.01
355.834	0.01
356.042	0.03
356.251	-0.01
356.46	-0.03
356.668	0.06
356.877	0.09
357.085	0.1
357.294	-0.04
357.503	0.03
357.711	0.01
357.92	0.11
358.128	0.02
358.337	-0
358.545	0.05
358.754	0.02
358.962	0.06
359.17	0
359.379	0.02
359.587	0.05
359.796	0.04
360.004	0.09
360.212	0.08
360.421	0.07
360.629	0
360.837	0.02
361.046	0.04
361.254	0.1
361.462	0.07
361.67	0
361.879	0.05
362.087	0.06
362.295	0.02
362.503	-0.01
362.711	0.02
362.92	-0.03
363.128	-0.01
363.336	0
363.544	-0.02
363.752	0
363.96	0.01
364.168	-0
364.376	0.01
364.584	0.02
364.792	0.05
365	0.05
365.208	0.01
365.416	0.03
365.624	0.02
365.832	0.02
366.04	0.1
366.248	0.03
366.456	0.06
366.664	0.03
366.872	0.04
367.079	0.04
367.287	0.06
367.495	0.04
367.703	-0.01
367.911	0.01
368.118	0.03
368.326	0.02
368.534	0.01
368.742	0.09
368.949	-0.05
369.157	0.01
369.365	0.05
369.572	0.02
369.78	-0.03
369.988	0.03
370.195	0.04
370.403	0.06
370.61	0.01
370.818	0.07
371.026	0.06
371.233	-0.02
371.441	0.04
371.648	0.03
371.856	0.02
372.063	0.05
372.271	0.02
372.478	0.04
372.685	-0.02
372.893	0.03
373.1	0.03
373.308	0.03
373.515	0.04
373.722	0.03
373.93	0.01
374.137	0.06
374.344	0.1
374.552	0.11
374.759	0.04
374.966	0.08
375.173	0.02
375.381	0.12
375.588	0
375.795	-0.06
376.002	-0.02
376.209	0.01
376.417	0.07
376.624	0
376.831	0.05
377.038	0
377.245	-0.08
377.452	0.02
377.659	0
377.866	0.01
378.073	-0.01
378.28	0.05
378.487	0.03
378.694	0.06
378.901	0.04
379.108	0.04
379.315	0.05
379.522	0.1
379.729	0.04
379.936	0.03
380.143	0.02
380.35	0.08
380.557	-0.03
380.763	0.06
380.97	0.03
381.177	0.06
381.384	0.03
381.591	0.04
381.797	0.02
382.004	0.06
382.211	0.02
382.418	-0.03
382.624	0.06
382.831	0.04
383.038	0.01
383.244	0.01
383.451	0.01
383.658	0.03
383.864	-0
384.071	-0.03
384.277	0.1
384.484	-0.04
384.69	0.05
384.897	0.01
385.103	0.02
385.31	-0.04
385.516	0
385.723	-0.01
385.929	-0.02
386.136	0.03
386.342	0.07
386.549	-0.01
386.755	0.08
386.961	0.02
387.168	-0
387.374	0.07
387.58	0.06
387.787	0.05
387.993	0.04
388.199	0.02
388.406	-0
388.612	0.02
388.818	-0.06
389.024	0.03
389.231	0.03
389.437	0.08
389.643	0.06
389.849	0
390.055	0.04
390.261	0.01
390.467	0
390.674	-0
390.88	0.03
391.086	0.07
391.292	-0.05
391.498	0.06
391.704	0.02
391.91	-0
392.116	0.03
392.322	-0.09
392.528	0.04
392.734	-0.01
392.94	0.03
393.146	0.01
393.352	0.07
393.557	0.03
393.763	0.03
393.969	0.04
394.175	0.02
394.381	0.02
394.587	-0.02
394.792	0.07
394.998	0.07
395.204	0.06
395.41	0.01
395.615	0.03
395.821	0.03
396.027	0.02
396.233	0.03
396.438	0.02
396.644	0.06
396.85	0.03
397.055	0.01
397.261	0.03
397.466	-0
397.672	0.03
397.878	0.11
398.083	0.05
398.289	-0.05
398.494	0.01
398.7	0.02
398.905	-0.04
399.111	0.07
399.316	-0.03
399.522	-0.02
399.727	-0.03
399.932	-0.02
400.138	-0
400.343	0.06
400.549	0.05
400.754	-0
400.959	0.06
401.165	0.03
401.37	0.03
401.575	-0.01
401.78	0.03
401.986	0.02
402.191	-0
402.396	0.07
402.601	0.02
402.807	0.07
403.012	-0
403.217	0.04
403.422	0
403.627	0.02
403.832	0.02
404.037	0.05
404.243	0.07
404.448	-0.01
404.653	0.02
404.858	0.03
405.063	0.07
405.268	-0.01
405.473	0.01
405.678	-0.04
405.883	0.2
406.088	0.02
406.293	0.01
406.498	-0.01
406.703	0.07
406.907	0.02
407.112	-0.04
407.317	0.04
407.522	0.07
407.727	-0.04
407.932	0.04
408.136	0.11
408.341	0.02
408.546	0.05
408.751	0.03
408.956	0.01
409.16	0.07
409.365	0.02
409.57	-0.02
409.774	0.04
409.979	0.06
410.184	0.05
410.388	-0
410.593	0.09
410.798	0.03
411.002	0.02
411.207	0.03
411.411	0.03
411.616	0.06
411.82	0.01
412.025	0.03
412.229	0.01
412.434	0.08
412.638	0.04
412.843	0.04
413.047	0.06
413.252	-0
413.456	0.04
413.66	0.07
413.865	0
414.069	0.07
414.273	0.02
414.478	-0
414.682	0.01
414.886	-0
415.091	-0.02
415.295	-0.04
415.499	0.02
415.703	0.04
415.908	0.01
416.112	-0.04
416.316	0.07
416.52	-0
416.724	-0.05
416.929	-0.01
417.133	0.13
417.337	-0.02
417.541	0.01
417.745	0.01
417.949	0.06
418.153	0.06
418.357	-0.04
418.561	0.07
418.765	0.03
418.969	0.12
419.173	0.05
419.377	-0.03
419.581	0.08
419.785	0.03
419.989	-0.06
420.193	0.05
420.397	0.01
420.601	0.06
420.804	0.05
421.008	0.02
421.212	0.03
421.416	0.08
421.62	-0.02
421.823	0.01
422.027	0.11
422.231	0.02
422.435	0.02
422.638	0.08
422.842	0.04
423.046	-0.05
423.249	0.04
423.453	0.06
423.657	0.06
423.86	0.01
424.064	0.02
424.268	0.06
424.471	-0
424.675	0.12
424.878	0.05
425.082	-0.01
425.285	0.09
425.489	0
425.692	0.02
425.896	-0.04
426.099	0.03
426.303	-0.02
426.506	-0.06
426.71	0.05
426.913	0.08
427.116	0.03
427.32	0.02
427.523	0.04
427.726	0.11
427.93	-0.01
428.133	0.03
428.336	-0.02
428.54	-0.07
428.743	0.03
428.946	0.04
429.149	-0.01
429.353	0.04
429.556	0.05
429.759	0.01
429.962	-0.03
430.165	-0.01
430.368	0.02
430.571	-0.04
430.775	0.03
430.978	0.01
431.181	0.08
431.384	0.06
431.587	0.03
431.79	0.03
431.993	-0.04
432.196	0.02
432.399	0.02
432.602	0.11
432.805	0.02
433.008	0.03
433.211	-0.05
433.414	0.07
433.616	0.04
433.819	-0
434.022	-0.08
434.225	0.1
434.428	0.04
434.631	0.16
434.833	0.02
435.036	0.05
435.239	0.05
435.442	0.04
435.645	-0.01
435.847	0.03
436.05	0.09
436.253	-0.02
436.455	-0
436.658	0.04
436.861	0.13
437.063	0.01
437.266	0.04
437.468	0.06
437.671	0.16
437.874	0.03
438.076	-0.04
438.279	-0.06
438.481	0.02
438.684	-0.03
438.886	-0
439.089	-0.03
439.291	0.03
439.494	0.04
439.696	-0
439.899	0.02
440.101	0.02
440.303	-0.03
440.506	0.09
440.708	-0.02
440.91	0.03
441.113	-0.06
441.315	0.03
441.517	-0.02
441.72	0.03
441.922	-0
442.124	-0.05
442.326	0.07
442.529	0.08
442.731	-0.02
442.933	0.09
443.135	0.03
443.337	0.02
443.539	-0.01
443.742	0.01
443.944	0.01
444.146	-0.05
444.348	-0.02
444.55	-0.01
444.752	0.02
444.954	-0.03
445.156	0.01
445.358	0.02
445.56	0.08
445.762	-0.04
445.964	0.04
446.166	0
446.368	-0.03
446.57	0.05
446.772	0.02
446.974	-0
447.175	0.05
447.377	-0.05
447.579	-0.02
447.781	-0.07
447.983	0.12
448.184	0.01
448.386	0.03
448.588	-0.09
448.79	0
448.991	-0.07
449.193	-0.01
449.395	0
449.597	0.07
449.798	0.01
450	0.05
450.202	-0
450.403	0.04
450.605	0.07
450.806	0.01
451.008	-0.06
451.21	0.04
451.411	0.01
451.613	0.02
451.814	0.02
452.016	0.07
452.217	0.08
452.419	0.11
452.62	0.03
452.821	0.08
453.023	0.06
453.224	0.1
453.426	-0.01
453.627	0.06
453.828	0.02
454.03	0.04
454.231	0.04
454.432	-0.01
454.634	0.07
454.835	-0
455.036	-0.05
455.238	0.07
455.439	0.12
455.64	-0.02
455.841	-0.04
456.042	0.07
456.244	0.03
456.445	-0.02
456.646	-0.04
456.847	-0.01
457.048	0.07
457.249	0.09
457.45	0.18
457.651	-0.02
457.852	0.09
458.054	-0
458.255	0
458.456	0.01
458.657	0.11
458.858	-0.03
459.058	0.02
459.259	0.07
459.46	0.05
459.661	-0.06
459.862	0.09
460.063	-0.03
460.264	0.08
460.465	-0.03
460.666	0.14
460.866	-0.04
461.067	0.01
461.268	0.02
461.469	0.02
461.67	0.02
461.87	-0.02
462.071	-0.02
462.272	0.01
462.473	0
462.673	0.08
462.874	-0.04
463.075	-0.01
463.275	-0.02
463.476	-0.01
463.676	0.07
463.877	0.05
464.078	-0.03
464.278	0.06
464.479	0.04
464.679	0.03
464.88	-0.01
465.08	0.08
465.281	0
465.481	-0.03
465.682	0.04
465.882	0.05
466.083	0.01
466.283	0.01
466.483	-0.02
466.684	-0.04
466.884	0.03
467.085	0.01
467.285	0.06
467.485	-0.01
467.686	-0.01
467.886	-0.04
468.086	0.03
468.286	-0.02
468.487	0.07
468.687	-0.02
468.887	0.02
469.087	0.07
469.287	0.03
469.488	-0.06
469.688	0
469.888	0.08
470.088	0.06
470.288	0.03
470.488	0.07
470.688	-0.04
470.888	0
471.088	-0.03
471.288	0.05
471.488	0.05
471.688	0
471.888	0.01
472.088	0.03
472.288	0.02
472.488	-0.01
472.688	-0.03
472.888	0.01
473.088	0
473.288	0.02
473.488	-0.01
473.688	0.08
473.887	0.04
474.087	0.02
474.287	0.02
474.487	0
474.687	0.02
474.886	0.02
475.086	0.03
475.286	0.05
475.486	0.01
475.685	0.07
475.885	0.01
476.085	0.02
476.284	0.03
476.484	0.01
476.684	0.03
476.883	0.06
477.083	0.02
477.282	-0.04
477.482	0.04
477.681	0.05
477.881	0.04
478.08	-0.01
478.28	-0.05
478.479	0.03
478.679	0.05
478.878	-0.01
479.078	-0.01
479.277	0.04
479.477	0.02
479.676	0.06
479.875	-0.03
480.075	-0.07
480.274	0.04
480.473	0.03
480.673	-0
480.872	0.04
481.071	-0.01
481.271	0.01
481.47	-0.02
481.669	0.03
481.868	-0.01
482.067	-0
482.267	0.01
482.466	-0.03
482.665	-0.01
482.864	-0.02
483.063	-0.04
483.262	0.03
483.461	0.05
483.661	0.02
483.86	0
484.059	0.02
484.258	0.04
484.457	-0
484.656	0.01
484.855	0.06
485.054	-0.04
485.253	0
485.452	-0.04
485.651	0.01
485.849	-0.01
486.048	-0
486.247	-0.01
486.446	0.03
486.645	-0.03
486.844	-0.01
487.043	0.01
487.241	0.02
487.44	-0.03
487.639	0
487.838	0.04
488.037	0.01
488.235	0.06
488.434	0.01
488.633	-0
488.831	0.03
489.03	0.05
489.229	0.02
489.427	0.01
489.626	0.04
489.825	0.09
490.023	0.01
490.222	0.02
490.42	0.03
490.619	0.02
490.817	0.01
491.016	0.01
491.214	0.02
491.413	0
491.611	0.03
491.81	0.02
492.008	0.03
492.207	0.03
492.405	0.02
492.604	-0.04
492.802	0.01
493	-0.01
493.199	-0.02
493.397	0.03
493.595	0.01
493.794	-0.01
493.992	0.04
494.19	0.01
494.388	0.02
494.587	-0.01
494.785	0.02
494.983	-0.02
495.181	0.03
495.379	0.02
495.578	0.02
495.776	0
495.974	0.03
496.172	0
496.37	-0.02
496.568	-0.01
496.766	0.01
496.964	0.04
497.162	0.02
497.36	-0.01
497.558	0.01
497.756	0.03
497.954	-0
498.152	-0.02
498.35	0.01
498.548	0.02
498.746	0.01
498.944	-0.03
499.142	-0.01
499.34	-0.02
499.538	-0.01
499.736	-0.01
499.933	0.03
500.131	0.03
500.329	0
500.527	0.03
500.725	0.04
500.922	0.02
501.12	0.01
501.318	0.01
501.516	-0.02
501.713	0.01
501.911	0
502.109	-0.01
502.306	0.03
502.504	0
502.701	-0.01
502.899	-0.01
503.097	0.06
503.294	0
503.492	-0
503.689	0.02
503.887	0.02
504.084	0.05
504.282	0.01
504.479	-0.02
504.677	0
504.874	-0.03
505.072	0.01
505.269	-0.01
505.466	0.02
505.664	0.02
505.861	-0.03
506.059	-0.04
506.256	0.03
506.453	-0.01
506.651	0.06
506.848	0.02
507.045	0.02
507.242	0.03
507.44	-0.01
507.637	-0.01
507.834	0.01
508.031	0.03
508.229	-0.01
508.426	0.02
508.623	0.01
508.82	-0.01
509.017	-0
509.214	-0
509.411	0.02
509.608	-0.03
509.805	0.02
510.003	0.02
510.2	0
510.397	0.03
510.594	-0
510.791	-0.01
510.988	-0.03
511.184	0.04
511.381	0.02
511.578	-0.02
511.775	0.02
511.972	-0.01
512.169	-0.01
512.366	0.02
512.563	0
512.76	0
512.956	0.03
513.153	-0.02
513.35	0.01
513.547	0
513.744	-0.01
513.94	-0.01
514.137	0.02
514.334	0.01
514.53	0.01
514.727	0.01
514.924	0.04
515.12	0
515.317	-0.02
515.514	0.01
515.71	-0
515.907	0.01
516.103	-0.01
516.3	0.03
516.497	0.03
516.693	0.04
516.89	0
517.086	-0.02
517.283	0.02
517.479	0.02
517.676	0.01
517.872	0
518.068	0.01
518.265	-0.01
518.461	-0
518.658	-0.02
518.854	0.03
519.05	0.01
519.247	-0.02
519.443	0.02
519.639	0.01
519.836	0.01
520.032	0.01
520.228	0.01
520.424	0.05
520.621	0.02
520.817	0.03
521.013	0.02
521.209	0.02
521.405	0.04
521.601	0.02
521.798	0.03
521.994	0.06
522.19	-0.02
522.386	-0.01
522.582	-0
522.778	0.01
522.974	-0
523.17	0.01
523.366	0.01
523.562	0.02
523.758	0.01
523.954	0
524.15	-0.01
524.346	0.02
524.542	0.01
524.738	-0.02
524.934	-0
525.129	0.01
525.325	0.03
525.521	-0.01
525.717	0.03
525.913	-0
526.109	0.02
526.304	0.01
526.5	0.02
526.696	0.04
526.892	0.01
527.087	0
527.283	-0.01
527.479	0.02
527.674	-0.01
527.87	0
528.066	-0.01
528.261	0.03
528.457	0.01
528.653	0.01
528.848	-0
529.044	0.03
529.239	0.01
529.435	0.04
529.63	0.03
529.826	0.04
530.021	0.01
530.217	0.04
530.412	-0
530.608	-0
530.803	0.01
530.999	-0.01
531.194	-0.04
531.389	0.03
531.585	-0.04
531.78	-0
531.975	-0.01
532.171	0.01
532.366	-0
532.561	0.02
532.757	-0.03
532.952	-0
533.147	0.03
533.342	0
533.538	0
533.733	0.02
533.928	-0
534.123	-0.02
534.318	-0.03
534.513	-0
534.709	0.01
534.904	-0.02
535.099	0
535.294	0.01
535.489	0.02
535.684	-0
535.879	-0.01
536.074	0.01
536.269	-0
536.464	0.02
536.659	0
536.854	0
537.049	0.02
537.244	0.02
537.439	-0.01
537.634	0.04
537.828	0.02
538.023	-0.01
538.218	-0.03
538.413	-0.01
538.608	-0.02
538.803	0.01
538.997	-0.02
539.192	0.03
539.387	0.03
539.582	0.01
539.776	0.03
539.971	0.01
540.166	0
540.36	-0.01
540.555	-0
540.75	0.01
540.944	0.01
541.139	-0.03
541.334	0.01
541.528	0.02
541.723	0.03
541.917	-0.01
542.112	-0.03
542.306	-0.01
542.501	-0.02
542.695	0.02
542.89	-0.01
543.084	0.02
543.279	0.01
543.473	-0
543.668	-0
543.862	-0
544.056	0.01
544.251	0.01
544.445	0.01
544.64	0.01
544.834	-0.03
545.028	0
545.222	0.01
545.417	0.01
545.611	0.01
545.805	0
546	-0.02
546.194	0.01
546.388	-0.01
546.582	0.01
546.776	-0
546.97	0.01
547.165	0.04
547.359	0.05
547.553	0
547.747	0.02
547.941	-0.01
548.135	0
548.329	0.04
548.523	-0
548.717	-0.01
548.911	0.01
549.105	0.01
549.299	0.01
549.493	0.02
549.687	0.01
549.881	0
550.075	0.01
550.269	-0.03
550.463	0.01
550.657	0.01
550.85	0.01
551.044	-0.01
551.238	0.02
551.432	-0.03
551.626	-0.04
551.82	0.02
552.013	-0
552.207	0
552.401	0.03
552.594	0
552.788	-0
552.982	-0.02
553.176	-0.01
553.369	-0
553.563	0.01
553.756	-0.03
553.95	-0.03
554.144	-0.01
554.337	0.04
554.531	0
554.724	0.01
554.918	-0
555.111	0.03
555.305	-0.02
555.498	0.05
555.692	0.03
555.885	-0.02
556.079	0.02
556.272	-0.03
556.466	0.02
556.659	0.02
556.852	0.01
557.046	-0.01
557.239	0.05
557.432	-0.03
557.626	-0.02
557.819	0.02
558.012	0.02
558.206	0
558.399	0.02
558.592	0.01
558.785	0.02
558.979	0.01
559.172	0.02
559.365	0.03
559.558	0.02
559.751	0.01
559.944	0.04
560.138	-0
560.331	0.01
560.524	0
560.717	0.02
560.91	0.02
561.103	0.01
561.296	0.01
561.489	0.03
561.682	0.01
561.875	0.03
562.068	0.01
562.261	0.03
562.454	0.06
562.647	0.03
562.84	0.01
563.032	-0
563.225	0
563.418	0
563.611	0.01
563.804	-0.01
563.997	0
564.19	-0.04
564.382	-0.05
564.575	0.01
564.768	0.01
564.961	-0
565.153	-0.01
565.346	0.04
565.539	0.03
565.731	0.01
565.924	0.02
566.117	0.01
566.309	0.01
566.502	-0.02
566.695	0
566.887	0
567.08	-0.02
567.272	-0.02
567.465	-0.02
567.657	0.02
567.85	0.03
568.042	0.03
568.235	0.05
568.427	0.02
568.62	0
568.812	0.02
569.005	0.02
569.197	-0.03
569.389	0.01
569.582	0.01
569.774	0.01
569.966	-0.03
570.159	-0.02
570.351	0
570.543	-0.02
570.736	0.02
570.928	-0.02
571.12	0.01
571.312	-0
571.505	-0.03
571.697	0.03
571.889	-0.01
572.081	0.02
572.273	-0.02
572.465	0.03
572.658	-0
572.85	0.02
573.042	0
573.234	-0
573.426	0.03
573.618	-0.03
573.81	0.02
574.002	0.04
574.194	0.06
574.386	-0.05
574.578	-0.05
574.77	-0.01
574.962	0.01
575.154	-0.03
575.346	-0.03
575.538	0.02
575.729	0.01
575.921	0
576.113	0.01
576.305	0.04
576.497	-0.01
576.689	-0.01
576.88	-0.01
577.072	0.05
577.264	-0.01
577.456	-0.01
577.647	-0.06
577.839	0.02
578.031	0.03
578.223	-0.01
578.414	-0.01
578.606	0.04
578.798	-0
578.989	0.01
579.181	0.01
579.372	0.01
579.564	-0
579.755	0.01
579.947	0.02
580.139	0
580.33	-0.03
580.522	-0.01
580.713	-0.05
580.905	0.01
581.096	0.02
581.287	-0.01
581.479	0.01
581.67	0.04
581.862	0.04
582.053	-0.02
582.244	-0.03
582.436	-0
582.627	0.02
582.818	-0.02
583.01	-0.03
583.201	0.02
583.392	0.02
583.583	0.01
583.775	-0.02
583.966	-0.01
584.157	-0.02
584.348	-0.01
584.54	-0.02
584.731	0.03
584.922	-0.01
585.113	-0.01
585.304	0.02
585.495	0.02
585.686	-0.01
585.877	0.02
586.068	0.03
586.259	0.03
586.45	0.01
586.641	-0.02
586.832	-0.03
587.023	0
587.214	-0
587.405	0.02
587.596	-0.02
587.787	0.06
587.978	0.03
588.169	0
588.36	-0.01
588.551	0.02
588.742	-0.03
588.932	0.01
589.123	-0.01
589.314	0.03
589.505	0.04
589.696	0.04
589.886	-0.03
590.077	-0.03
590.268	0.01
590.458	-0.03
590.649	-0.05
590.84	0.04
591.03	-0.03
591.221	-0.03
591.412	-0.04
591.602	0.03
591.793	0.03
591.984	-0.03
592.174	0.01
592.365	0.06
592.555	-0.03
592.746	0.02
592.936	0.02
593.127	0.01
593.317	0.04
593.508	-0.02
593.698	-0.02
593.889	0.01
594.079	0.01
594.269	0.01
594.46	-0.01
594.65	-0.01
594.84	0.01
595.031	-0.02
595.221	-0.02
595.411	-0.03
595.602	0.03
595.792	0.02
595.982	-0
596.172	0.06
596.363	0.02
596.553	0.02
596.743	0.02
596.933	0.02
597.123	0.05
597.314	-0.01
597.504	0.01
597.694	0.04
597.884	0.02
598.074	-0.01
598.264	-0.02
598.454	0.02
598.644	0.02
598.834	-0
599.024	-0.06
599.214	-0.02
599.404	0.05
599.594	0.01
599.784	-0
599.974	0.05
600.164	0.04
600.354	-0.02
600.544	-0.03
600.734	0.02
600.924	0.05
601.114	-0.02
601.303	0.02
601.493	0.04
601.683	-0.02
601.873	0.01
602.063	-0.02
602.252	0.04
602.442	-0.05
602.632	-0.03
602.821	-0.05
603.011	0.03
603.201	0
603.39	-0.03
603.58	-0.01
603.77	0.01
603.959	0.03
604.149	0.01
604.339	0.01
604.528	0.02
604.718	0.03
604.907	-0.02
605.097	0
605.286	-0.05
605.476	0.02
605.665	0.04
605.855	0.02
606.044	0.04
606.234	0.01
606.423	-0
606.612	-0.02
606.802	0.01
606.991	0.02
607.181	0.03
607.37	-0.04
607.559	-0.03
607.749	-0.05
607.938	0.01
608.127	0.01
608.316	-0
608.506	0.01
608.695	0.01
608.884	-0.02
609.073	-0
609.263	-0
609.452	0.02
609.641	0.03
609.83	-0.01
610.019	0.02
610.208	-0.01
610.397	-0
610.586	0.02
610.775	-0.01
610.965	-0.03
611.154	-0.02
611.343	-0
611.532	0
611.721	-0.03
611.91	-0.03
612.099	0.03
612.287	-0
612.476	-0.02
612.665	0.03
612.854	-0.04
613.043	0.04
613.232	-0
613.421	-0.04
613.61	0.04
613.798	-0.02
613.987	0.01
614.176	0.01
614.365	0.04
614.554	0.01
614.742	-0
614.931	-0.02
615.12	0.07
615.309	-0.02
615.497	0.03
615.686	-0.03
615.875	0
616.063	0
616.252	-0.02
616.44	-0.02
616.629	-0
616.818	0.07
617.006	0.02
617.195	-0.01
617.383	0.04
617.572	-0.01
617.76	-0.02
617.949	0.01
618.137	0.04
618.326	0.02
618.514	-0.01
618.703	0.02
618.891	0.06
619.079	-0.04
619.268	0.05
619.456	-0.03
619.644	0.02
619.833	-0.02
620.021	-0.03
620.209	-0.04
620.398	0.05
620.586	0
620.774	0.04
620.962	0
621.151	0.04
621.339	0.01
621.527	-0.01
621.715	-0.01
621.903	-0.02
622.092	-0.03
622.28	0.01
622.468	0.03
622.656	-0.03
622.844	0.04
623.032	-0.01
623.22	-0.03
623.408	0.03
623.596	0.02
623.784	0.06
623.972	-0
624.16	0
624.348	0.06
624.536	0.02
624.724	-0.02
624.912	0.03
625.1	0.03
625.288	-0.03
625.476	0.01
625.664	0.05
625.851	-0.02
626.039	0.02
626.227	0.04
626.415	0.02
626.603	-0.06
626.79	-0.02
626.978	0.01
627.166	0.03
627.354	0.02
627.541	-0.01
627.729	-0.07
627.917	0.05
628.104	0.07
628.292	0.01
628.48	0.03
628.667	-0
628.855	0.04
629.042	0.01
629.23	-0.01
629.418	-0
629.605	0
629.793	-0.01
629.98	-0.03
630.168	-0
630.355	0.01
630.543	0.03
630.73	-0.01
630.917	0
631.105	0.06
631.292	-0.02
631.48	0.01
631.667	0.06
631.854	0.01
632.042	-0
632.229	-0.02
632.416	0.02
632.604	-0
632.791	-0.03
632.978	0.03
633.165	0.01
633.353	0.07
633.54	0.04
633.727	-0.04
633.914	-0.04
634.101	-0.06
634.289	0.04
634.476	-0
634.663	-0.03
634.85	0.02
635.037	-0
635.224	-0.04
635.411	0.05
635.598	0.02
635.785	0.01
635.972	-0.01
636.159	0.05
636.346	-0.01
636.533	0.01
636.72	-0.01
636.907	-0.01
637.094	0.04
637.281	0
637.468	0.05
637.655	0.02
637.842	0.02
638.029	-0.02
638.215	0.06
638.402	0.01
638.589	-0.01
638.776	0.01
638.963	0.01
639.149	0.04
639.336	0.1
639.523	0.01
639.709	0.01
639.896	0.02
640.083	0.08
640.27	0.03
640.456	0.03
640.643	0.03
640.829	-0.06
641.016	0.02
641.203	-0.03
641.389	0.03
641.576	0.02
641.762	0.01
641.949	-0.01
642.135	0.03
642.322	0.03
642.508	-0.03
642.695	0
642.881	0.01
643.068	0.01
643.254	0.01
643.441	0.07
643.627	0.01
643.813	-0
644	0.02
644.186	-0
644.372	-0.04
644.559	0.04
644.745	0.02
644.931	-0.04
645.118	0.02
645.304	0.04
645.49	0.01
645.676	-0.01
645.862	0.01
646.049	0.04
646.235	0.03
646.421	0.09
646.607	0.09
646.793	-0.01
646.979	-0
647.165	0.02
647.352	0.02
647.538	0.05
647.724	0.03
647.91	0.01
648.096	0.07
648.282	0.04
648.468	0
648.654	0.01
648.84	0.05
649.026	0
649.212	0.01
649.397	0
649.583	-0.03
649.769	0.07
649.955	0.04
650.141	0.02
650.327	0.08
650.513	0.02
650.698	0.03
650.884	-0.05
651.07	0.02
651.256	0.03
651.442	0.02
651.627	0.02
651.813	0.05
651.999	0.03
652.184	0.02
652.37	-0
652.556	0.01
652.741	0.06
652.927	-0.05
653.113	0.02
653.298	0.01
653.484	0.04
653.669	-0.01
653.855	0.02
654.04	0.03
654.226	0.03
654.412	-0
654.597	-0.01
654.782	0.04
654.968	0.03
655.153	0.05
655.339	0.01
655.524	-0.04
655.71	0.07
655.895	0.01
656.08	0.01
656.266	0.08
656.451	0.07
656.636	-0
656.822	0.04
657.007	0.02
657.192	0.02
657.378	-0.02
657.563	0.04
657.748	0.05
657.933	0.03
658.118	0.01
658.304	0.01
658.489	0.05
658.674	0.03
658.859	-0
659.044	0.03
659.229	0.06
659.414	0.01
659.599	0.04
659.785	-0.03
659.97	-0
660.155	0.05
660.34	0.05
660.525	0.06
660.71	0.03
660.895	0.09
661.08	0.02
661.264	0.02
661.449	0.09
661.634	0.07
661.819	0.07
662.004	0.03
662.189	-0.05
662.374	0.04
662.559	0.01
662.743	-0.03
662.928	0.01
663.113	0.02
663.298	0.02
663.483	0.05
663.667	0.07
663.852	0.02
664.037	0.12
664.221	0.01
664.406	0.08
664.591	0.07
664.775	0.03
664.96	-0.03
665.145	0
665.329	0.08
665.514	0.04
665.698	0.08
665.883	-0.02
666.068	0.12
666.252	0.04
666.437	0.02
666.621	0.04
666.806	0.05
666.99	0.04
667.174	0.04
667.359	0.09
667.543	0.07
667.728	0.07
667.912	0
668.096	0.1
668.281	0.05
668.465	0.07
668.649	0.06
668.834	0.03
669.018	0.12
669.202	0.06
669.387	0.03
669.571	0.12
669.755	0.03
669.939	0.08
670.124	0.06
670.308	0.13
670.492	0.14
670.676	0.09
670.86	0.07
671.044	0.03
671.228	0.1
671.413	0.06
671.597	0.09
671.781	0.03
671.965	0.14
672.149	0.08
672.333	0.09
672.517	0.08
672.701	0.11
672.885	0.1
673.069	-0.02
673.253	0.12
673.437	0.08
673.621	0.08
673.804	0.1
673.988	0.11
674.172	0.08
674.356	0.06
674.54	0.1
674.724	0.17
674.908	0.11
675.091	0.11
675.275	0.08
675.459	0.18
675.643	0.15
675.826	0.14
676.01	0.13
676.194	0.09
676.377	0.15
676.561	0.13
676.745	0.15
676.928	0.11
677.112	0.21
677.296	0.12
677.479	0.12
677.663	0.12
677.846	0.19
678.03	0.15
678.213	0.1
678.397	0.18
678.58	0.12
678.764	0.15
678.947	0.09
679.131	0.09
679.314	0.21
679.498	0.16
679.681	0.2
679.865	0.23
680.048	0.19
680.231	0.13
680.415	0.14
680.598	0.18
680.781	0.17
680.965	0.19
681.148	0.16
681.331	0.17
681.514	0.2
681.698	0.19
681.881	0.19
682.064	0.18
682.247	0.18
682.43	0.13
682.614	0.23
682.797	0.22
682.98	0.27
683.163	0.18
683.346	0.22
683.529	0.2
683.712	0.19
683.895	0.24
684.078	0.25
684.261	0.21
684.444	0.27
684.627	0.26
684.81	0.2
684.993	0.18
685.176	0.29
685.359	0.23
685.542	0.28
685.725	0.35
685.908	0.23
686.091	0.26
686.274	0.34
686.457	0.32
686.639	0.27
686.822	0.34
687.005	0.35
687.188	0.31
687.371	0.38
687.553	0.32
687.736	0.31
687.919	0.42
688.102	0.39
688.284	0.36
688.467	0.36
688.65	0.31
688.832	0.23
689.015	0.41
689.197	0.27
689.38	0.45
689.563	0.44
689.745	0.4
689.928	0.34
690.11	0.38
690.293	0.4
690.475	0.34
690.658	0.38
690.84	0.42
691.023	0.35
691.205	0.37
691.388	0.45
691.57	0.44
691.752	0.42
691.935	0.41
692.117	0.41
692.3	0.47
692.482	0.42
692.664	0.46
692.847	0.45
693.029	0.55
693.211	0.56
693.393	0.5
693.576	0.46
693.758	0.49
693.94	0.52
694.122	0.52
694.304	0.53
694.487	0.51
694.669	0.63
694.851	0.54
695.033	0.62
695.215	0.55
695.397	0.57
695.579	0.67
695.761	0.57
695.943	0.53
696.125	0.75
696.308	0.64
696.49	0.61
696.671	0.75
696.853	0.63
697.035	0.9
697.217	0.74
697.399	0.76
697.581	0.65
697.763	0.79
697.945	0.68
698.127	0.79
698.309	0.66
698.491	0.78
698.672	0.92
698.854	0.89
699.036	0.82
699.218	0.86
699.399	0.93
699.581	0.9
699.763	0.84
699.945	0.91
700.126	0.88
700.308	0.99
700.49	0.87
700.671	0.91
700.853	0.9
701.035	1.01
701.216	1.03
701.398	0.97
701.579	1.05
701.761	1.14
701.943	1.01
702.124	1.11
702.306	1.07
702.487	1.28
702.669	1.2
702.85	1.18
703.031	1.15
703.213	1.27
703.394	1.24
703.576	1.23
703.757	1.39
703.938	1.36
704.12	1.48
704.301	1.31
704.483	1.35
704.664	1.39
704.845	1.51
705.026	1.52
705.208	1.46
705.389	1.49
705.57	1.49
705.751	1.49
705.933	1.53
706.114	1.65
706.295	1.59
706.476	1.51
706.657	1.73
706.838	1.71
707.02	1.74
707.201	1.69
707.382	1.82
707.563	1.83
707.744	1.73
707.925	1.79
708.106	1.82
708.287	1.95
708.468	2.05
708.649	1.99
708.83	2.09
709.011	1.94
709.192	2.08
709.373	2.05
709.554	2.03
709.734	2.19
709.915	2.21
710.096	2.3
710.277	2.09
710.458	2.33
710.639	2.26
710.819	2.23
711	2.33
711.181	2.46
711.362	2.54
711.542	2.49
711.723	2.52
711.904	2.69
712.085	2.59
712.265	2.63
712.446	2.58
712.627	2.7
712.807	2.79
712.988	2.8
713.168	2.74
713.349	2.9
713.53	2.84
713.71	3.03
713.891	2.95
714.071	3.09
714.252	3.1
714.432	3.13
714.613	3.12
714.793	3.25
714.974	3.51
715.154	3.48
715.334	3.54
715.515	3.5
715.695	3.52
715.876	3.51
716.056	3.46
716.236	3.66
716.417	3.81
716.597	3.79
716.777	4.03
716.957	3.93
717.138	4.05
717.318	4.02
717.498	4.08
717.678	4.23
717.859	4.2
718.039	4.21
718.219	4.34
718.399	4.52
718.579	4.5
718.759	4.54
718.939	4.73
719.12	4.73
719.3	4.74
719.48	4.75
719.66	4.7
719.84	5.19
720.02	5.06
720.2	5.25
720.38	5.24
720.56	5.36
720.74	5.35
720.92	5.53
721.1	5.77
721.279	5.78
721.459	5.67
721.639	5.8
721.819	5.91
721.999	6.01
722.179	6.24
722.359	5.84
722.538	6.3
722.718	6.31
722.898	6.42
723.078	6.53
723.257	6.59
723.437	6.63
723.617	6.75
723.797	7.04
723.976	7.04
724.156	7.25
724.336	7.27
724.515	7.49
724.695	7.43
724.874	7.47
725.054	7.76
725.234	7.67
725.413	7.76
725.593	7.92
725.772	7.96
725.952	8.14
726.131	8.23
726.311	8.26
726.49	8.31
726.67	8.44
726.849	8.6
727.028	8.66
727.208	8.87
727.387	9.01
727.567	9.01
727.746	9.13
727.925	9.22
728.105	9.23
728.284	9.36
728.463	9.31
728.643	9.69
728.822	9.55
729.001	9.75
729.18	10.04
729.359	10.31
729.539	10.33
729.718	10.31
729.897	10.4
730.076	10.48
730.255	10.56
730.434	10.7
730.614	10.94
730.793	11.06
730.972	11.15
731.151	11.23
731.33	11.31
731.509	11.45
731.688	11.43
731.867	11.65
732.046	11.5
732.225	12.03
732.404	11.71
732.583	11.91
732.762	12.42
732.941	12.41
733.12	12.65
733.298	12.7
733.477	12.77
733.656	12.83
733.835	12.89
734.014	13.21
734.193	13.03
734.371	13.31
734.55	13.32
734.729	13.47
734.908	13.53
735.086	13.78
735.265	13.87
735.444	13.41
735.623	13.95
735.801	13.94
735.98	14.04
736.159	14.18
736.337	14.29
736.516	14.26
736.694	14.42
736.873	14.41
737.052	14.97
737.23	14.5
737.409	14.34
737.587	14.84
737.766	14.45
737.944	14.42
738.123	14.79
738.301	14.64
738.479	14.63
738.658	14.62
738.836	14.33
739.015	14.61
739.193	14.5
739.371	14.08
739.55	13.73
739.728	13.86
739.906	14.14
740.085	14.11
740.263	13.84
740.441	13.19
740.62	13.73
740.798	13.24
740.976	13
741.154	12.61
741.332	13.02
741.511	12.35
741.689	12.13
741.867	12.31
742.045	11.46
742.223	11.24
742.401	11.17
742.579	10.79
742.757	11.11
742.935	10.48
743.114	10.38
743.292	10.02
743.47	10.01
743.648	9.54
743.826	9.71
744.004	9.22
744.181	9
744.359	8.55
744.537	8.5
744.715	8.17
744.893	8.17
745.071	8.01
745.249	7.49
745.427	7.2
745.605	7.05
745.782	6.79
745.96	6.91
746.138	6.9
746.316	6.37
746.493	6.1
746.671	6.11
746.849	5.73
747.027	5.66
747.204	5.42
747.382	5.48
747.56	4.88
747.737	4.9
747.915	4.78
748.093	4.64
748.27	4.39
748.448	4.36
748.625	3.95
748.803	4.12
748.98	3.85
749.158	3.94
749.335	3.86
749.513	3.65
749.69	3.45
749.868	3.39
750.045	3.41
750.223	3.13
750.4	2.94
750.578	3.15
750.755	3
750.932	2.77
751.11	2.89
751.287	2.59
751.464	2.81
751.642	2.44
751.819	2.6
751.996	2.35
752.173	2.21
752.351	2.24
752.528	2.21
752.705	2.16
752.882	2.08
753.06	2.16
753.237	1.96
753.414	2.15
753.591	2.01
753.768	1.83
753.945	1.62
754.122	1.65
754.299	1.54
754.476	1.54
754.654	1.56
754.831	1.56
755.008	1.42
755.185	1.4
755.362	1.33
755.539	1.29
755.716	1.12
755.892	1.3
756.069	1.11
756.246	1.08
756.423	1.05
756.6	1.26
756.777	1.05
756.954	1.18
757.131	0.99
757.307	0.82
757.484	0.9
757.661	0.97
757.838	1.01
758.015	0.72
758.191	0.94
758.368	0.93
758.545	0.87
758.721	0.87
758.898	0.66
759.075	0.82
759.251	0.84
759.428	0.81
759.605	0.62
759.781	0.78
759.958	0.73
760.134	0.79
760.311	0.59
760.488	0.72
760.664	0.7
760.841	0.6
761.017	0.5
761.194	0.6
761.37	0.66
761.547	0.49
761.723	0.37
761.899	0.72
762.076	0.42
762.252	0.42
762.429	0.47
762.605	0.52
762.781	0.46
762.958	0.57
763.134	0.44
763.31	0.47
763.486	0.53
763.663	0.18
763.839	0.52
764.015	0.19
764.191	0.4
764.368	0.43
764.544	0.41
764.72	0.51
764.896	0.5
765.072	0.44
765.248	0.38
765.425	0.27
765.601	0.32
765.777	0.36
765.953	0.11
766.129	0.3
766.305	0.25
766.481	0.38
766.657	0.22
766.833	0.45
767.009	0.13
767.185	0.23
767.361	0.24
767.537	0.23
767.713	0.39
767.889	0.07
768.065	0.17
768.24	0.34
768.416	0.34
768.592	0.15
768.768	0.28
768.944	0.21
769.12	0.08
769.295	0.17
769.471	0.2
769.647	0.22
769.823	0.3
769.998	0.17
770.174	0.1
770.35	0.39
770.525	0.44
770.701	0.19
770.877	0.14
771.052	0.1
771.228	0.34
771.403	0.19
771.579	0.28
771.755	0.36
771.93	0.18
772.106	0.12
772.281	-0.03
772.457	0.13
772.632	0.31
772.808	-0.05
772.983	0.15
773.159	-0.06
773.334	0.32
773.509	0.25
773.685	0.02
773.86	0.4
774.036	0.31
774.211	0.17
774.386	0.05
774.562	0.02
774.737	0.27
774.912	0.16
775.087	0.15
775.263	0.18
775.438	0.07
775.613	0.04
775.788	0.14
775.964	0.18
776.139	0.39
776.314	-0.06
776.489	0.08
776.664	0.32
776.839	0
777.014	0.2
777.19	0.23
777.365	0.26
777.54	0.5
777.715	0.07
777.89	0.08
778.065	-0
778.24	0.09
778.415	0.3
778.59	-0.07
778.765	0.04
778.94	0.12
779.115	0.15
779.289	0.03
779.464	0.21
779.639	0.14
779.814	0.03
779.989	-0.03
780.164	0.29
780.339	0.14
780.513	0.07
780.688	-0.1
780.863	0.07
781.038	0.27
781.212	0.06
781.387	0.3
781.562	0.36
781.737	0.02
781.911	0.24
782.086	0.1
782.261	0.19
782.435	0.35
782.61	0.07
782.784	0.19
782.959	0.2
783.134	0.05
783.308	-0.04
783.483	0.12
783.657	0.34
783.832	0.31
784.006	-0.05
784.181	0.11
784.355	0.24
784.53	-0.1
784.704	-0.19
784.878	0.13
785.053	0.31
785.227	0.28
785.402	0.5
785.576	-0.07
785.75	0.22
785.925	0.19
786.099	0.14
786.273	0
786.448	0.38
786.622	0.31
786.796	0.14
786.97	0.18
787.145	0.57
787.319	-0.04
787.493	-0.02
787.667	-0.12
787.841	0.23
788.015	0.25
788.19	-0.1
788.364	0.09
788.538	0.36
788.712	0.28
788.886	0.07
789.06	0.17
789.234	0.18
789.408	-0.03
789.582	0.09
789.756	0.07
789.93	-0.17
790.104	0.02
790.278	-0.04
790.452	-0.14
790.626	0.16
790.8	0.21
790.973	0.09
791.147	0.33
791.321	0.37
791.495	0.21
791.669	0.09
791.843	0.24
792.016	0.14
792.19	0.52
792.364	-0.24
792.538	0.79
792.711	0.33
792.885	-0.04
793.059	-0.03
793.233	-0.51
793.406	0.23
793.58	0.06
793.754	0.14
793.927	0.07
794.101	0.36
794.274	0.1
794.448	0.22
794.622	-0.28
794.795	0.43
794.969	-0.18
795.142	0.57
795.316	0.06
795.489	0.05
795.663	0.6
795.836	0.44
796.009	-0.18
796.183	0.39
796.356	0.45
796.53	0.2
796.703	0.14
796.876	0.68
797.05	0.07
797.223	0.29
797.396	0.36
797.57	0.32
797.743	0.43
797.916	0.24
798.09	0.01
798.263	0.27
798.436	0.29
798.609	-0.06
798.782	0.16
798.956	0.38
799.129	0.13
799.302	0.11
799.475	0.08
799.648	-0.17
799.821	-0.23
799.994	0.31
800.167	-0.29
800.34	0.31
800.514	0.11
800.687	0.09
800.86	-0.03
801.033	0.11
801.206	0.23
801.379	0.03
801.551	0.05
801.724	0.17
801.897	0.15
802.07	-0.11
802.243	-0.35
802.416	0.19
802.589	-0.34
802.762	0.48
802.935	0.34
803.107	0.43
803.28	0.17
803.453	0.52
803.626	-0.02
803.798	0.1
803.971	0.01
804.144	-0.04
804.317	0.22
804.489	0.23
804.662	-0.11
804.835	0.04
805.007	-0.25
805.18	0.67
805.353	0.27
805.525	-0.12
805.698	-0.11
805.87	0.41
806.043	0.76
806.215	-0.22
806.388	-0.14
806.56	0.3
806.733	0.44
806.905	0.26
807.078	-0.01
807.25	-0.34
807.423	0.38
807.595	0.24
807.768	0.06
807.94	0.82
808.112	0.22
808.285	0.16
808.457	0.15
808.629	-0.04
808.802	0.12
808.974	-0.09
809.146	0.11
809.318	-0.34
809.491	0.24
809.663	0.27
809.835	-0.03
810.007	0.35
810.18	0.15
810.352	-0.41
810.524	0.21
810.696	0.35
810.868	0.6
811.04	-0.05
811.212	0.06
811.384	0.31
811.556	0.29
811.728	0.31
811.901	0.84
812.073	-0.08
812.245	0.54
812.417	0.2
812.589	-0.54
812.76	0.33
812.932	0.45
813.104	0.54
813.276	-0.04
813.448	0.48
813.62	0.34
813.792	0.24
813.964	-0.26
814.136	0.19
814.307	-0.29
814.479	-0.1
814.651	-0.18
814.823	1.03
814.995	0.28
815.166	0.49
815.338	-0.3
815.51	-0.28
815.681	0.57
815.853	0.25
816.025	0.12
816.196	0.88
816.368	0.51
816.54	-0.26
816.711	-0.48
816.883	0.14
817.054	0.89
817.226	-0.49
817.398	0.02
817.569	-0.28
817.741	0.52
817.912	-0.13
818.084	-0.06
818.255	0.49
818.426	-0.48
818.598	0.36
818.769	0.22
818.941	0.27
819.112	0.8
819.283	0.27
819.455	-0.22
819.626	0.44
819.798	0.38
819.969	0.06
820.14	-0.36
820.311	-0.05
820.483	0.16
820.654	0.24
820.825	0.13
820.996	0.17
821.168	-0.1
821.339	-0.02
821.51	-0.14
821.681	1.03
821.852	-0.3
822.023	-0
822.195	0.07
822.366	0.66
822.537	0.07
822.708	0.42
822.879	-0.03
823.05	0.95
823.221	0.16
823.392	0.76
823.563	0.25
823.734	0.16
823.905	0.15
824.076	-0.01
824.247	-0.46
824.418	0.39
824.589	0.8
824.759	-0.49
824.93	0.96
825.101	-0.26
825.272	1.01
825.443	0.66
825.614	0.66
825.784	-0.61
825.955	1.21
826.126	0.45
826.297	0.2
826.467	0.93
826.638	0.54
826.809	0.13
826.98	0.55
827.15	0.8
827.321	0.1
827.492	0.6
827.662	-0.08
827.833	1.31
828.003	0.43
828.174	-0.47
828.345	-0.75
828.515	1.1
828.686	0.68
828.856	-0.11
829.027	0.15
829.197	0.25
829.368	0.41
829.538	-0.42
829.709	0.69
829.879	0.71
830.049	0.42
830.22	-0.1
830.39	-0.31
830.56	1
830.731	0.42
830.901	0.03
831.072	0.18
831.242	0.54
831.412	0.41
831.582	0.21
831.753	-0.49
831.923	0.91
832.093	0.57
832.263	0.12
832.434	-0.66
832.604	-0.23
832.774	0.61
832.944	-0.47
833.114	-0.06
833.284	0.37
833.454	-0.09
833.624	-0.76
833.795	-0.21
833.965	0.61
834.135	1.23
834.305	-0.56
834.475	-0.2
834.645	0.28
834.815	-0.16
834.985	-0.44
835.155	-0.03
835.325	0.48
835.494	0.28
835.664	0.38
835.834	-0.24
836.004	0.38
836.174	1.36
836.344	-0.22
836.514	-0.46
836.684	-0.64
836.853	0.55
837.023	0.16
837.193	0.38
837.363	0.68
837.532	1.33
837.702	-0.27
837.872	-0.23
838.041	1.5
838.211	1.72
838.381	-0.16
838.55	0.31
838.72	1.76
838.89	1.32
839.059	-0.43
839.229	-0.26
839.398	1.01
839.568	0.86
839.738	0.36
839.907	0.81
840.077	0.87
840.246	-0.19
840.416	-1.03
840.585	-0
840.755	1.28
840.924	1.21
841.093	-0.43
841.263	-0.65
841.432	0.18
841.602	-0.5
841.771	-0.9
841.94	0.16
842.11	2.27
842.279	1.8
842.448	-0.71
842.617	-0.44
842.787	1.28
842.956	-0.4
843.125	-0.7
843.294	0.32
843.464	0.89
843.633	-0.13
843.802	-0.3
843.971	0.06
844.14	1.15
844.309	0.56
844.479	-0.89
844.648	-0.7
844.817	-0.24
844.986	0.33
845.155	-0.28
845.324	0.46
845.493	0.64
845.662	-0.87
845.831	0.42
846	1.04
846.169	-0.79
846.338	1.22
846.507	0.59
846.676	0
846.844	-0.73
847.013	0.09
847.182	0.63
847.351	0.08
847.52	0.82
847.689	0.05
847.858	0.51
848.026	-0.18
848.195	-0.24
848.364	-0.21
848.533	-0.56
848.701	-0.09
848.87	0.22
849.039	1.57
849.207	0.71
849.376	2.15
849.545	1.09
849.713	0.02
849.882	0.2
850.051	0.11
850.219	0.97
850.388	0.76
850.556	-1.14
850.725	0.27
850.893	0.64
851.062	0.41
851.23	0.43
851.399	-1.35
851.567	-0.64
851.736	-0.3
851.904	0.13
852.073	0.97
852.241	0.49
852.41	-0.74
852.578	0.17
852.746	-0.02
852.915	0.66
853.083	1.22
853.251	-0.81
853.42	-0.27
853.588	-0.45
853.756	2.33
853.924	-1.04
854.093	0.79
854.261	-1.21
854.429	-0.58
854.597	0.02
854.765	-0.87
854.934	1.14
855.102	1.85
855.27	-0.09
855.438	-0.13
855.606	2.44
855.774	2.17
855.942	-0.97
856.11	-0.6
856.278	1.18
856.446	1.25
856.614	0.72
856.782	0.01
856.95	1.53
857.118	1.44
857.286	1.11
857.454	1.02
857.622	1.78
857.79	2.09
857.958	0.3
858.126	0.54
858.294	-1.69
858.462	0.35
858.629	0.02
858.797	-0.64
858.965	0.77
859.133	1.16
859.301	-0.77
859.468	-0.05
859.636	-0.1
859.804	2.27
859.971	1.38
860.139	-0.22
860.307	0.51
860.474	1.21
860.642	0.14
860.81	-0.83
860.977	0.66
861.145	1.59
861.313	0.55
861.48	-0.3
861.648	2.07
861.815	-0.86
861.983	-0.68
862.15	-0.29
862.318	0.02
862.485	1.54
862.653	-0.31
862.82	-0.49
862.988	1.96
863.155	0.5
863.322	0.12
863.49	-0.8
863.657	0.62
863.824	2
863.992	1.48
864.159	-0.24
864.326	2.9
864.494	1.88
864.661	2.55
864.828	-0.37
864.996	2.15
865.163	2.11
865.33	-0.09
865.497	-1.34
865.664	-0.16
865.832	-1.42
865.999	-0.21
866.166	-1.72
866.333	-0.08
866.5	0.28
866.667	-0.71
866.834	0.04
867.001	0.86
867.168	0.04
867.335	1.6
867.502	-1.03
867.669	0.9
867.836	3.06
868.003	-0.1
868.17	2.98
868.337	3.4
868.504	2.43
868.671	0.68
868.838	-0.24
869.005	-0.28
869.172	1.63
869.339	0.23
869.505	1.47
869.672	-0.43
869.839	2.81
870.006	0.86
870.173	-0.09
870.339	-0.24
870.506	3.66
870.673	0.01
870.84	1.41
871.006	1.82
871.173	0.65
871.34	-0.17
871.506	-1.05
871.673	2.38
871.839	-1.12
872.006	0.37
872.173	1.01
872.339	1.31
872.506	2.06
872.672	0.92
872.839	-0.64
873.005	1.23
873.172	2.86
873.338	1.76
873.505	0.6
873.671	0.55
873.838	1.72
874.004	-0.93
874.171	0.52
874.337	1.67
874.503	1.63
874.67	1.04
874.836	1.3
875.002	4.11
875.169	2.63
875.335	2.43
875.501	0.48
875.668	1.12
875.834	1.85
876	-0.75
876.166	0.56
876.332	0.78
876.499	1.8
876.665	1.64
876.831	1.53
876.997	2.92
877.163	1.28
877.329	0.38
877.495	1.09
877.662	1.53
877.828	1.46
877.994	1.24
878.16	-0.65
878.326	1.14
878.492	0.55
878.658	0.75
878.824	2.2
878.99	1.44
879.156	-1.65
879.322	3.88
879.487	2.55
879.653	1.94
879.819	0.66
879.985	0.83
880.151	0.85
880.317	2.37
880.483	2.42
880.648	2.16
880.814	-3.42
880.98	1.59
881.146	-0.98
881.312	-1.1
881.477	2.3
881.643	2.36
881.809	2.38
881.974	4.32
882.14	-1.06
882.306	1.69
882.471	4.83
882.637	-0.16
882.803	0.31
882.968	4.12
883.134	4.35
883.299	1.82
883.465	3.02
883.63	1.3
883.796	-0.19
883.961	0.73
884.127	2.21
884.292	-1.75
884.458	-1.67
884.623	-1.67
