Data from Apollo_Calib_20240827__AbsoluteIrradiance__443__06-32-02-153.txt Node

Date: Wed Aug 28 06:32:02 BST 2024
User: biology
Spectrometer: FLMT08252
Trigger mode: 0
Integration Time (sec): 5.000000E-1
Scans to average: 5
Electric dark correction enabled: true
Nonlinearity correction enabled: false
Boxcar width: 0
XAxis mode: Wavelengths
Number of Pixels in Spectrum: 3648
>>>>>Begin Spectral Data<<<<<
179.588	-0
179.809	-0
180.03	-0
180.251	-0
180.473	-0
180.694	0
180.915	0
181.136	-0
181.357	0
181.578	-0
181.799	-0
182.02	-0
182.241	0
182.462	-0
182.683	0
182.904	-0
183.125	-0
183.346	0
183.567	0
183.788	0
184.009	0
184.23	0
184.451	0
184.672	0
184.892	0
185.113	0
185.334	0
185.555	0
185.776	0
185.996	0
186.217	0
186.438	0
186.659	0
186.879	0
187.1	0
187.321	0
187.541	0
187.762	0
187.983	0
188.203	0
188.424	0
188.644	0
188.865	0
189.086	0
189.306	0
189.527	0
189.747	0
189.968	0
190.188	0
190.409	0
190.629	0
190.849	0
191.07	0
191.29	0
191.511	0
191.731	0
191.951	0
192.172	0
192.392	0
192.612	0
192.833	0
193.053	0
193.273	0
193.493	0
193.714	0
193.934	0
194.154	0
194.374	0
194.594	0
194.815	0
195.035	0
195.255	0
195.475	0
195.695	0
195.915	0
196.135	0
196.355	0
196.575	0
196.795	0
197.015	0
197.235	0
197.455	0
197.675	0
197.895	0
198.115	0
198.335	0
198.555	0
198.775	0
198.995	0
199.214	0
199.434	0
199.654	0
199.874	0
200.094	0.43
200.313	1.78
200.533	1.03
200.753	0.44
200.973	2.18
201.192	2.32
201.412	0.39
201.632	0.99
201.851	2.17
202.071	0.6
202.291	0.62
202.51	0.46
202.73	1.72
202.95	1.2
203.169	0.6
203.389	1.39
203.608	1.42
203.828	0.89
204.047	0.89
204.267	1.19
204.486	1.37
204.706	1.26
204.925	0.88
205.145	0.7
205.364	1.25
205.583	1.74
205.803	0.51
206.022	0.56
206.242	1.1
206.461	1.08
206.68	0.36
206.9	0.91
207.119	1.4
207.338	1.44
207.557	0.93
207.777	0.78
207.996	0.67
208.215	1.55
208.434	0.66
208.654	0.2
208.873	0.67
209.092	1.09
209.311	0.72
209.53	0.71
209.749	0.75
209.968	0.29
210.187	0.56
210.407	0.26
210.626	0.55
210.845	0.85
211.064	0.7
211.283	0.3
211.502	0.7
211.721	0.7
211.94	0.71
212.159	0.96
212.377	0.73
212.596	1.01
212.815	0.56
213.034	0.59
213.253	0.88
213.472	0.75
213.691	0.59
213.91	0.4
214.128	0.52
214.347	0.92
214.566	0.17
214.785	0.1
215.003	0.84
215.222	0.69
215.441	0.52
215.66	0.33
215.878	0.65
216.097	0.63
216.316	0.35
216.534	0.4
216.753	0.57
216.972	0.43
217.19	0.48
217.409	0.15
217.627	0.27
217.846	0.5
218.064	0.41
218.283	0.31
218.501	0.88
218.72	0.7
218.938	0.23
219.157	0.29
219.375	0.67
219.594	0.54
219.812	0.27
220.031	0.25
220.249	0.71
220.467	0.66
220.686	0.46
220.904	0.16
221.122	0.29
221.341	0.67
221.559	0.33
221.777	0.14
221.995	0.32
222.214	0.5
222.432	0.21
222.65	0.59
222.868	0.38
223.086	0.52
223.305	0.49
223.523	0.39
223.741	0.74
223.959	0.19
224.177	0.1
224.395	0.2
224.613	0.46
224.831	0.69
225.049	0.22
225.267	0.33
225.485	0.4
225.703	0.29
225.921	0.22
226.139	0.2
226.357	0.51
226.575	0.44
226.793	0.21
227.011	1.01
227.229	0.46
227.447	0.54
227.665	0.21
227.883	0.06
228.1	0.33
228.318	0.37
228.536	0.17
228.754	0.21
228.972	0.43
229.189	0.56
229.407	0.37
229.625	0.26
229.843	0.45
230.06	0.36
230.278	0.24
230.496	0.38
230.713	0.46
230.931	0.51
231.149	0.2
231.366	0.1
231.584	0.3
231.801	0.61
232.019	0.16
232.236	0.25
232.454	0.32
232.671	0.31
232.889	0.32
233.106	0.19
233.324	0.35
233.541	0.18
233.759	0.29
233.976	0.24
234.194	0.29
234.411	0.23
234.628	0.18
234.846	0.31
235.063	0.3
235.28	0.24
235.498	0.31
235.715	0.17
235.932	0.47
236.149	0.3
236.367	0.33
236.584	0.34
236.801	0.3
237.018	0.43
237.236	0.28
237.453	0.13
237.67	0.39
237.887	0.3
238.104	0.25
238.321	0.2
238.538	0.26
238.755	0.4
238.973	0.12
239.19	0.22
239.407	0.24
239.624	0.36
239.841	0.08
240.058	0.17
240.275	0.3
240.492	0.16
240.709	0.31
240.925	0.24
241.142	0.24
241.359	0.18
241.576	0.23
241.793	0.1
242.01	0.27
242.227	0.44
242.444	0.35
242.66	0.36
242.877	0.3
243.094	0.19
243.311	0.3
243.527	0.15
243.744	0.21
243.961	0.3
244.178	0.19
244.394	0.19
244.611	0.33
244.828	0.41
245.044	0.13
245.261	0.22
245.477	0.25
245.694	0.26
245.911	0.15
246.127	0.27
246.344	0.42
246.56	0.34
246.777	0.21
246.993	0.19
247.21	0.26
247.426	0.34
247.643	0.23
247.859	0.08
248.076	0.29
248.292	0.47
248.508	0.15
248.725	0.3
248.941	0.29
249.157	0.33
249.374	0.14
249.59	0.24
249.806	0.24
250.023	0.39
250.239	0.18
250.455	0.16
250.671	0.2
250.888	0.21
251.104	0.24
251.32	0.2
251.536	0.24
251.752	0.25
251.969	0.3
252.185	0.18
252.401	0.37
252.617	0.31
252.833	0.2
253.049	0.3
253.265	0.21
253.481	0.2
253.697	0.24
253.913	0.17
254.129	0.26
254.345	0.2
254.561	0.21
254.777	0.18
254.993	0.26
255.209	0.24
255.425	0.15
255.641	0.21
255.857	0.24
256.073	0.24
256.288	0.1
256.504	0.13
256.72	0.25
256.936	0.33
257.152	0.18
257.367	0.15
257.583	0.22
257.799	0.3
258.015	0.11
258.23	0.16
258.446	0.33
258.662	0.25
258.877	0.16
259.093	0.14
259.309	0.2
259.524	0.28
259.74	0.21
259.955	0.06
260.171	0.22
260.387	0.22
260.602	0.29
260.818	0.2
261.033	0.2
261.249	0.22
261.464	0.24
261.68	0.03
261.895	0.22
262.11	0.22
262.326	0.15
262.541	0.1
262.757	0.22
262.972	0.22
263.187	0.21
263.403	0.18
263.618	0.22
263.833	0.22
264.049	0.18
264.264	0.14
264.479	0.31
264.694	0.32
264.91	0.06
265.125	0.12
265.34	0.27
265.555	0.34
265.77	0.24
265.986	0.16
266.201	0.22
266.416	0.26
266.631	0.11
266.846	0.17
267.061	0.24
267.276	0.31
267.491	0.03
267.706	0.19
267.921	0.21
268.136	0.14
268.351	0.21
268.566	0.12
268.781	0.28
268.996	0.23
269.211	0.2
269.426	0.13
269.641	0.17
269.856	0.25
270.071	0.17
270.285	0.07
270.5	0.26
270.715	0.17
270.93	0.17
271.145	0.17
271.359	0.2
271.574	0.14
271.789	0.21
272.004	0.09
272.218	0.14
272.433	0.24
272.648	0.1
272.862	0.25
273.077	0.17
273.292	0.14
273.506	0.13
273.721	0.11
273.936	0.26
274.15	0.23
274.365	0.14
274.579	0.18
274.794	0.2
275.008	0.29
275.223	0.1
275.437	0.16
275.652	0.24
275.866	0.17
276.081	0.17
276.295	0.27
276.509	0.14
276.724	0.15
276.938	0.19
277.153	0.22
277.367	0.24
277.581	0.12
277.796	0.15
278.01	0.1
278.224	0.28
278.438	0.23
278.653	0.1
278.867	0.12
279.081	-0.02
279.295	0.18
279.51	0.2
279.724	0.05
279.938	0.18
280.152	0.15
280.366	0.14
280.58	0.2
280.794	0.24
281.008	0.15
281.222	0.21
281.437	0.3
281.651	0.17
281.865	0.23
282.079	0.12
282.293	0.08
282.507	0.11
282.721	0.14
282.935	0.18
283.148	0.07
283.362	0.15
283.576	0.08
283.79	0.15
284.004	0.1
284.218	0.22
284.432	0.14
284.646	0.19
284.859	0.16
285.073	0.1
285.287	0.14
285.501	0.16
285.714	0.2
285.928	0.19
286.142	0.19
286.356	0.11
286.569	0.18
286.783	0.26
286.997	0.24
287.21	0.17
287.424	0.18
287.637	0.13
287.851	0.15
288.065	0.25
288.278	0.15
288.492	0.16
288.705	0.17
288.919	0.19
289.132	0.1
289.346	0.2
289.559	0.09
289.773	0.12
289.986	0.18
290.2	0.16
290.413	0.16
290.626	0.06
290.84	0.17
291.053	0.2
291.267	0.2
291.48	0.13
291.693	0.14
291.906	0.12
292.12	0.11
292.333	0.11
292.546	0.12
292.76	0.21
292.973	0.15
293.186	0.2
293.399	0.1
293.612	0.21
293.826	0.16
294.039	0.13
294.252	0.11
294.465	0.19
294.678	0.18
294.891	0.17
295.104	0.13
295.317	0.12
295.53	0.14
295.743	0.11
295.956	0.13
296.169	0.2
296.382	0.2
296.595	0.13
296.808	0.07
297.021	0.18
297.234	0.19
297.447	0.1
297.66	0.16
297.873	0.22
298.086	0.17
298.299	0.1
298.511	0.07
298.724	0.14
298.937	0.12
299.15	0.11
299.363	0.13
299.575	0.16
299.788	0.19
300.001	0.12
300.213	0.08
300.426	0.14
300.639	0.14
300.852	0.09
301.064	0.17
301.277	0.18
301.489	0.15
301.702	0.16
301.915	0.17
302.127	0.13
302.34	0.17
302.552	0.2
302.765	0.12
302.977	0.15
303.19	0.11
303.402	0.12
303.615	0.16
303.827	0.14
304.04	0.13
304.252	0.18
304.464	0.15
304.677	0.24
304.889	0.17
305.102	0.1
305.314	0.12
305.526	0.22
305.739	0.17
305.951	0.06
306.163	0.1
306.375	0.18
306.588	0.13
306.8	0.11
307.012	0.1
307.224	0.18
307.436	0.22
307.649	0.08
307.861	0.12
308.073	0.14
308.285	0.13
308.497	0.05
308.709	0.09
308.921	0.13
309.133	0.21
309.346	0.16
309.558	0.16
309.77	0.13
309.982	0.2
310.194	0.16
310.406	0.12
310.617	0.25
310.829	0.19
311.041	0.19
311.253	0.1
311.465	0.11
311.677	0.11
311.889	0.11
312.101	0.09
312.313	0.18
312.524	0.15
312.736	0.05
312.948	0.11
313.16	0.23
313.372	0.18
313.583	0.12
313.795	0.15
314.007	0.09
314.218	0.2
314.43	0.12
314.642	0.11
314.853	0.06
315.065	0.19
315.277	0.09
315.488	0.15
315.7	0.21
315.912	0.14
316.123	0.11
316.335	0.14
316.546	0.21
316.758	0.13
316.969	0.12
317.181	0.15
317.392	0.1
317.604	0.19
317.815	0.14
318.026	0.09
318.238	0.12
318.449	0.13
318.661	0.06
318.872	0.11
319.083	0.12
319.295	0.13
319.506	0.09
319.717	0.17
319.929	0.17
320.14	0.18
320.351	0.12
320.562	0.12
320.774	0.09
320.985	0.12
321.196	0.09
321.407	0.08
321.618	0.2
321.829	0.15
322.041	0.17
322.252	0.13
322.463	0.17
322.674	0.13
322.885	0.11
323.096	0.11
323.307	0.07
323.518	0.16
323.729	0.11
323.94	0.12
324.151	0.1
324.362	0.17
324.573	0.15
324.784	0.11
324.995	0.18
325.206	0.14
325.417	0.12
325.628	0.1
325.838	0.09
326.049	0.14
326.26	0.17
326.471	0.11
326.682	0.16
326.892	0.12
327.103	0.06
327.314	0.09
327.525	0.22
327.735	0.1
327.946	0.1
328.157	0.06
328.368	0.13
328.578	0.09
328.789	0.14
328.999	0.13
329.21	0.09
329.421	0.14
329.631	0.09
329.842	0.1
330.052	0.13
330.263	0.14
330.473	0.17
330.684	0.13
330.894	0.1
331.105	0.14
331.315	0.15
331.526	0.08
331.736	0.19
331.947	0.17
332.157	0.13
332.367	0.08
332.578	0.17
332.788	0.22
332.999	0.17
333.209	0.15
333.419	0.1
333.629	0.15
333.84	0.13
334.05	0.11
334.26	0.19
334.47	0.1
334.681	0.2
334.891	0.11
335.101	0.12
335.311	0.17
335.521	0.12
335.732	0.08
335.942	0.21
336.152	0.19
336.362	0.08
336.572	0.14
336.782	0.14
336.992	0.09
337.202	0.11
337.412	0.12
337.622	0.14
337.832	0.11
338.042	0.12
338.252	0.11
338.462	0.1
338.672	0.14
338.882	0.11
339.092	0.11
339.302	0.19
339.511	0.15
339.721	0.08
339.931	0.12
340.141	0.16
340.351	0.15
340.561	0.14
340.77	0.18
340.98	0.14
341.19	0.16
341.4	0.12
341.609	0.07
341.819	0.16
342.029	0.08
342.238	0.13
342.448	0.12
342.658	0.14
342.867	0.15
343.077	0.13
343.286	0.14
343.496	0.14
343.706	0.18
343.915	0.08
344.125	0.12
344.334	0.14
344.544	0.1
344.753	0.13
344.963	0.09
345.172	0.08
345.381	0.1
345.591	0.11
345.8	0.12
346.01	0.22
346.219	0.2
346.428	0.02
346.638	0.13
346.847	0.13
347.056	0.18
347.266	0.1
347.475	0.13
347.684	0.15
347.893	0.14
348.103	0.15
348.312	0.11
348.521	0.13
348.73	0.13
348.94	0.14
349.149	0.11
349.358	0.12
349.567	0.08
349.776	0.08
349.985	0.13
350.194	0.15
350.403	0.19
350.612	0.07
350.821	0.12
351.03	0.16
351.239	0.05
351.448	0.12
351.657	0.14
351.866	0.18
352.075	0.11
352.284	0.14
352.493	0.1
352.702	0.2
352.911	0.14
353.12	0.12
353.329	0.1
353.538	0.09
353.746	0.16
353.955	0.1
354.164	0.16
354.373	0.12
354.582	0.19
354.79	0.13
354.999	0.17
355.208	0.11
355.416	0.18
355.625	0.08
355.834	0.1
356.042	0.17
356.251	0.11
356.46	0.12
356.668	0.13
356.877	0.21
357.085	0.19
357.294	0.04
357.503	0.13
357.711	0.1
357.92	0.32
358.128	0.13
358.337	0.1
358.545	0.12
358.754	0.1
358.962	0.16
359.17	0.12
359.379	0.17
359.587	0.15
359.796	0.14
360.004	0.2
360.212	0.14
360.421	0.2
360.629	0.11
360.837	0.12
361.046	0.16
361.254	0.24
361.462	0.11
361.67	0.12
361.879	0.12
362.087	0.18
362.295	0.13
362.503	0.14
362.711	0.07
362.92	0.1
363.128	0.1
363.336	0.08
363.544	0.09
363.752	0.14
363.96	0.14
364.168	0.09
364.376	0.13
364.584	0.16
364.792	0.18
365	0.14
365.208	0.12
365.416	0.15
365.624	0.14
365.832	0.09
366.04	0.18
366.248	0.15
366.456	0.18
366.664	0.15
366.872	0.16
367.079	0.12
367.287	0.13
367.495	0.15
367.703	0.13
367.911	0.12
368.118	0.16
368.326	0.11
368.534	0.05
368.742	0.21
368.949	0.09
369.157	0.11
369.365	0.17
369.572	0.12
369.78	0.08
369.988	0.18
370.195	0.17
370.403	0.18
370.61	0.1
370.818	0.16
371.026	0.19
371.233	0.11
371.441	0.13
371.648	0.12
371.856	0.18
372.063	0.16
372.271	0.1
372.478	0.09
372.685	0.07
372.893	0.16
373.1	0.11
373.308	0.09
373.515	0.19
373.722	0.2
373.93	0.13
374.137	0.18
374.344	0.22
374.552	0.12
374.759	0.13
374.966	0.2
375.173	0.15
375.381	0.2
375.588	0.16
375.795	0.03
376.002	0.09
376.209	0.07
376.417	0.13
376.624	0.14
376.831	0.16
377.038	0.12
377.245	0.03
377.452	0.1
377.659	0.12
377.866	0.11
378.073	0.13
378.28	0.16
378.487	0.16
378.694	0.19
378.901	0.1
379.108	0.11
379.315	0.18
379.522	0.24
379.729	0.15
379.936	0.14
380.143	0.17
380.35	0.14
380.557	0.13
380.763	0.14
380.97	0.13
381.177	0.16
381.384	0.16
381.591	0.11
381.797	0.14
382.004	0.16
382.211	0.18
382.418	0.18
382.624	0.17
382.831	0.18
383.038	0.14
383.244	0.16
383.451	0.13
383.658	0.11
383.864	0.14
384.071	0.09
384.277	0.23
384.484	0.1
384.69	0.21
384.897	0.19
385.103	0.16
385.31	0.09
385.516	0.13
385.723	0.09
385.929	0.15
386.136	0.09
386.342	0.13
386.549	0.14
386.755	0.19
386.961	0.16
387.168	0.13
387.374	0.15
387.58	0.17
387.787	0.14
387.993	0.18
388.199	0.11
388.406	0.13
388.612	0.16
388.818	0.11
389.024	0.07
389.231	0.18
389.437	0.24
389.643	0.18
389.849	0.12
390.055	0.11
390.261	0.13
390.467	0.19
390.674	0.12
390.88	0.1
391.086	0.17
391.292	0.11
391.498	0.17
391.704	0.17
391.91	0.13
392.116	0.13
392.322	0.07
392.528	0.16
392.734	0.12
392.94	0.15
393.146	0.12
393.352	0.12
393.557	0.13
393.763	0.16
393.969	0.19
394.175	0.19
394.381	0.15
394.587	0.11
394.792	0.13
394.998	0.19
395.204	0.19
395.41	0.17
395.615	0.22
395.821	0.16
396.027	0.17
396.233	0.13
396.438	0.19
396.644	0.24
396.85	0.17
397.055	0.14
397.261	0.15
397.466	0.22
397.672	0.17
397.878	0.18
398.083	0.23
398.289	0.15
398.494	0.21
398.7	0.21
398.905	0.11
399.111	0.26
399.316	0.11
399.522	0.17
399.727	0.15
399.932	0.16
400.138	0.12
400.343	0.19
400.549	0.15
400.754	0.2
400.959	0.2
401.165	0.18
401.37	0.18
401.575	0.24
401.78	0.14
401.986	0.16
402.191	0.14
402.396	0.13
402.601	0.22
402.807	0.16
403.012	0.21
403.217	0.18
403.422	0.15
403.627	0.17
403.832	0.15
404.037	0.19
404.243	0.16
404.448	0.18
404.653	0.15
404.858	0.17
405.063	0.21
405.268	0.14
405.473	0.08
405.678	0.11
405.883	0.3
406.088	0.19
406.293	0.11
406.498	0.14
406.703	0.22
406.907	0.16
407.112	0.15
407.317	0.2
407.522	0.23
407.727	0.13
407.932	0.18
408.136	0.24
408.341	0.19
408.546	0.16
408.751	0.22
408.956	0.15
409.16	0.27
409.365	0.14
409.57	0.17
409.774	0.17
409.979	0.24
410.184	0.17
410.388	0.14
410.593	0.22
410.798	0.18
411.002	0.21
411.207	0.18
411.411	0.2
411.616	0.15
411.82	0.17
412.025	0.2
412.229	0.17
412.434	0.22
412.638	0.2
412.843	0.14
413.047	0.2
413.252	0.16
413.456	0.14
413.66	0.24
413.865	0.2
414.069	0.29
414.273	0.17
414.478	0.12
414.682	0.13
414.886	0.17
415.091	0.11
415.295	0.12
415.499	0.22
415.703	0.16
415.908	0.19
416.112	0.15
416.316	0.25
416.52	0.21
416.724	0.13
416.929	0.15
417.133	0.29
417.337	0.13
417.541	0.13
417.745	0.2
417.949	0.22
418.153	0.23
418.357	0.12
418.561	0.29
418.765	0.19
418.969	0.29
419.173	0.24
419.377	0.17
419.581	0.26
419.785	0.22
419.989	0.15
420.193	0.19
420.397	0.2
420.601	0.27
420.804	0.26
421.008	0.21
421.212	0.23
421.416	0.34
421.62	0.23
421.823	0.2
422.027	0.28
422.231	0.24
422.435	0.22
422.638	0.23
422.842	0.23
423.046	0.16
423.249	0.28
423.453	0.25
423.657	0.21
423.86	0.17
424.064	0.19
424.268	0.25
424.471	0.22
424.675	0.26
424.878	0.33
425.082	0.25
425.285	0.23
425.489	0.21
425.692	0.24
425.896	0.2
426.099	0.24
426.303	0.2
426.506	0.18
426.71	0.24
426.913	0.3
427.116	0.3
427.32	0.21
427.523	0.22
427.726	0.31
427.93	0.18
428.133	0.24
428.336	0.21
428.54	0.21
428.743	0.28
428.946	0.29
429.149	0.22
429.353	0.25
429.556	0.19
429.759	0.22
429.962	0.19
430.165	0.25
430.368	0.19
430.571	0.16
430.775	0.22
430.978	0.21
431.181	0.21
431.384	0.23
431.587	0.22
431.79	0.2
431.993	0.24
432.196	0.23
432.399	0.21
432.602	0.31
432.805	0.22
433.008	0.26
433.211	0.13
433.414	0.27
433.616	0.23
433.819	0.21
434.022	0.12
434.225	0.32
434.428	0.22
434.631	0.33
434.833	0.21
435.036	0.22
435.239	0.32
435.442	0.24
435.645	0.26
435.847	0.21
436.05	0.25
436.253	0.24
436.455	0.18
436.658	0.24
436.861	0.28
437.063	0.17
437.266	0.25
437.468	0.29
437.671	0.31
437.874	0.24
438.076	0.17
438.279	0.18
438.481	0.26
438.684	0.17
438.886	0.28
439.089	0.17
439.291	0.29
439.494	0.24
439.696	0.22
439.899	0.24
440.101	0.28
440.303	0.19
440.506	0.3
440.708	0.29
440.91	0.27
441.113	0.25
441.315	0.28
441.517	0.16
441.72	0.32
441.922	0.21
442.124	0.19
442.326	0.28
442.529	0.28
442.731	0.24
442.933	0.3
443.135	0.3
443.337	0.24
443.539	0.29
443.742	0.3
443.944	0.28
444.146	0.24
444.348	0.28
444.55	0.19
444.752	0.27
444.954	0.24
445.156	0.26
445.358	0.23
445.56	0.26
445.762	0.22
445.964	0.26
446.166	0.24
446.368	0.28
446.57	0.31
446.772	0.27
446.974	0.25
447.175	0.27
447.377	0.26
447.579	0.25
447.781	0.19
447.983	0.35
448.184	0.31
448.386	0.3
448.588	0.25
448.79	0.27
448.991	0.28
449.193	0.27
449.395	0.26
449.597	0.37
449.798	0.34
450	0.3
450.202	0.27
450.403	0.3
450.605	0.34
450.806	0.29
451.008	0.2
451.21	0.28
451.411	0.32
451.613	0.29
451.814	0.34
452.016	0.36
452.217	0.28
452.419	0.37
452.62	0.27
452.821	0.34
453.023	0.37
453.224	0.32
453.426	0.27
453.627	0.32
453.828	0.29
454.03	0.31
454.231	0.37
454.432	0.29
454.634	0.42
454.835	0.28
455.036	0.27
455.238	0.36
455.439	0.4
455.64	0.3
455.841	0.33
456.042	0.41
456.244	0.41
456.445	0.28
456.646	0.2
456.847	0.28
457.048	0.44
457.249	0.45
457.45	0.55
457.651	0.3
457.852	0.38
458.054	0.35
458.255	0.3
458.456	0.35
458.657	0.33
458.858	0.31
459.058	0.36
459.259	0.41
459.46	0.35
459.661	0.3
459.862	0.5
460.063	0.36
460.264	0.41
460.465	0.3
460.666	0.5
460.866	0.37
461.067	0.33
461.268	0.39
461.469	0.4
461.67	0.41
461.87	0.4
462.071	0.34
462.272	0.38
462.473	0.39
462.673	0.46
462.874	0.39
463.075	0.44
463.275	0.39
463.476	0.42
463.676	0.42
463.877	0.47
464.078	0.46
464.278	0.54
464.479	0.46
464.679	0.45
464.88	0.47
465.08	0.52
465.281	0.43
465.481	0.44
465.682	0.45
465.882	0.49
466.083	0.49
466.283	0.5
466.483	0.47
466.684	0.4
466.884	0.48
467.085	0.45
467.285	0.54
467.485	0.51
467.686	0.46
467.886	0.45
468.086	0.55
468.286	0.5
468.487	0.54
468.687	0.47
468.887	0.56
469.087	0.6
469.287	0.56
469.488	0.51
469.688	0.62
469.888	0.64
470.088	0.63
470.288	0.67
470.488	0.7
470.688	0.58
470.888	0.6
471.088	0.57
471.288	0.65
471.488	0.68
471.688	0.72
471.888	0.62
472.088	0.8
472.288	0.75
472.488	0.68
472.688	0.65
472.888	0.75
473.088	0.79
473.288	0.73
473.488	0.79
473.688	0.92
473.887	0.8
474.087	0.79
474.287	0.82
474.487	0.81
474.687	0.91
474.886	0.83
475.086	0.82
475.286	0.88
475.486	0.9
475.685	0.91
475.885	0.88
476.085	0.98
476.284	0.94
476.484	0.96
476.684	0.98
476.883	1.11
477.083	1.05
477.282	1.02
477.482	1.09
477.681	1.13
477.881	1.07
478.08	1.13
478.28	1.09
478.479	1.15
478.679	1.2
478.878	1.16
479.078	1.19
479.277	1.22
479.477	1.23
479.676	1.27
479.875	1.23
480.075	1.25
480.274	1.33
480.473	1.44
480.673	1.35
480.872	1.44
481.071	1.47
481.271	1.48
481.47	1.49
481.669	1.53
481.868	1.5
482.067	1.52
482.267	1.53
482.466	1.6
482.665	1.58
482.864	1.66
483.063	1.66
483.262	1.75
483.461	1.77
483.661	1.84
483.86	1.81
484.059	1.91
484.258	1.97
484.457	1.98
484.656	1.96
484.855	2.07
485.054	1.94
485.253	2.08
485.452	2.04
485.651	2.14
485.849	2.17
486.048	2.18
486.247	2.26
486.446	2.26
486.645	2.28
486.844	2.37
487.043	2.38
487.241	2.43
487.44	2.49
487.639	2.6
487.838	2.6
488.037	2.6
488.235	2.75
488.434	2.76
488.633	2.61
488.831	2.85
489.03	2.92
489.229	2.89
489.427	2.95
489.626	3.04
489.825	3.08
490.023	3.14
490.222	3.18
490.42	3.21
490.619	3.31
490.817	3.36
491.016	3.31
491.214	3.48
491.413	3.55
491.611	3.49
491.81	3.57
492.008	3.62
492.207	3.82
492.405	3.79
492.604	3.76
492.802	3.95
493	4.03
493.199	4.1
493.397	4.14
493.595	4.25
493.794	4.28
493.992	4.43
494.19	4.48
494.388	4.57
494.587	4.54
494.785	4.61
494.983	4.57
495.181	4.73
495.379	4.9
495.578	4.95
495.776	5.03
495.974	5.03
496.172	5.09
496.37	5.39
496.568	5.47
496.766	5.44
496.964	5.62
497.162	5.68
497.36	5.81
497.558	5.82
497.756	6.01
497.954	6.01
498.152	6.19
498.35	6.38
498.548	6.3
498.746	6.37
498.944	6.49
499.142	6.55
499.34	6.81
499.538	6.96
499.736	6.87
499.933	7.04
500.131	7.1
500.329	7.47
500.527	7.47
500.725	7.63
500.922	7.74
501.12	7.82
501.318	8
501.516	8.09
501.713	8.26
501.911	8.34
502.109	8.35
502.306	8.6
502.504	8.58
502.701	8.78
502.899	8.95
503.097	9.33
503.294	9.05
503.492	9.48
503.689	9.59
503.887	9.63
504.084	9.86
504.282	9.93
504.479	9.99
504.677	10.32
504.874	10.34
505.072	10.28
505.269	10.87
505.466	10.85
505.664	11
505.861	10.93
506.059	11.33
506.256	11.35
506.453	11.51
506.651	11.85
506.848	12.02
507.045	11.99
507.242	12.12
507.44	12.34
507.637	12.57
507.834	12.48
508.031	12.96
508.229	12.9
508.426	12.82
508.623	13.22
508.82	13.49
509.017	13.51
509.214	13.49
509.411	13.97
509.608	13.83
509.805	14.2
510.003	14.2
510.2	14.43
510.397	14.68
510.594	14.6
510.791	14.96
510.988	14.96
511.184	14.88
511.381	14.77
511.578	15.28
511.775	15.66
511.972	15.46
512.169	15.67
512.366	15.72
512.563	16.14
512.76	16.26
512.956	16.33
513.153	16.37
513.35	16.16
513.547	16.27
513.744	16.71
513.94	16.68
514.137	16.87
514.334	16.88
514.53	17.08
514.727	17.59
514.924	17.19
515.12	17.34
515.317	17.36
515.514	17.17
515.71	17.19
515.907	17.8
516.103	17.7
516.3	17.44
516.497	17.84
516.693	17.82
516.89	17.95
517.086	18.01
517.283	17.94
517.479	17.59
517.676	18.33
517.872	18.2
518.068	18.23
518.265	18.13
518.461	17.94
518.658	18.22
518.854	18.14
519.05	18.36
519.247	18.49
519.443	18.11
519.639	18.44
519.836	18
520.032	17.96
520.228	18.31
520.424	17.97
520.621	18.13
520.817	18.22
521.013	17.97
521.209	18.34
521.405	18.23
521.601	18.07
521.798	17.85
521.994	17.69
522.19	17.7
522.386	17.74
522.582	17.77
522.778	17.88
522.974	17.5
523.17	17.41
523.366	17.26
523.562	17.29
523.758	17.26
523.954	16.81
524.15	17.14
524.346	17.07
524.542	17.11
524.738	16.76
524.934	16.87
525.129	16.83
525.325	16.37
525.521	16.23
525.717	16.59
525.913	16.14
526.109	16.06
526.304	16.16
526.5	16.01
526.696	15.84
526.892	15.56
527.087	15.94
527.283	15.65
527.479	15.37
527.674	14.95
527.87	15.16
528.066	15.04
528.261	14.9
528.457	14.56
528.653	14.82
528.848	14.63
529.044	14.62
529.239	14.15
529.435	14.11
529.63	13.89
529.826	13.67
530.021	13.69
530.217	13.6
530.412	13.42
530.608	13.42
530.803	13.2
530.999	12.9
531.194	13.01
531.389	12.89
531.585	12.83
531.78	12.91
531.975	12.58
532.171	12.5
532.366	12.28
532.561	12.23
532.757	12.06
532.952	12.2
533.147	11.67
533.342	11.69
533.538	11.46
533.733	11.66
533.928	11.09
534.123	11.24
534.318	11.21
534.513	10.89
534.709	11.07
534.904	10.89
535.099	10.79
535.294	10.6
535.489	10.54
535.684	10.29
535.879	10.23
536.074	10.22
536.269	10.14
536.464	10.05
536.659	9.77
536.854	9.74
537.049	9.71
537.244	9.56
537.439	9.41
537.634	9.33
537.828	9.26
538.023	9.16
538.218	9.07
538.413	8.87
538.608	8.84
538.803	8.79
538.997	8.67
539.192	8.54
539.387	8.44
539.582	8.39
539.776	8.15
539.971	8.15
540.166	8.17
540.36	7.93
540.555	8.07
540.75	7.91
540.944	7.76
541.139	7.77
541.334	7.58
541.528	7.52
541.723	7.53
541.917	7.41
542.112	7.24
542.306	7.12
542.501	7.07
542.695	7.01
542.89	6.89
543.084	6.94
543.279	6.83
543.473	6.77
543.668	6.74
543.862	6.52
544.056	6.44
544.251	6.5
544.445	6.42
544.64	6.44
544.834	6
545.028	5.87
545.222	6.11
545.417	6.18
545.611	6.05
545.805	5.91
546	5.74
546.194	5.8
546.388	5.66
546.582	5.5
546.776	5.53
546.97	5.49
547.165	5.39
547.359	5.29
547.553	5.24
547.747	5.21
547.941	5.26
548.135	5.07
548.329	5.02
548.523	4.98
548.717	4.86
548.911	4.81
549.105	4.76
549.299	4.76
549.493	4.64
549.687	4.57
549.881	4.62
550.075	4.55
550.269	4.39
550.463	4.46
550.657	4.36
550.85	4.25
551.044	4.17
551.238	4.18
551.432	4.11
551.626	4.1
551.82	4.03
552.013	3.91
552.207	3.95
552.401	3.94
552.594	3.81
552.788	3.71
552.982	3.72
553.176	3.6
553.369	3.7
553.563	3.68
553.756	3.47
553.95	3.51
554.144	3.47
554.337	3.45
554.531	3.29
554.724	3.32
554.918	3.34
555.111	3.27
555.305	3.2
555.498	3.15
555.692	3.2
555.885	3.06
556.079	3.02
556.272	2.91
556.466	2.96
556.659	2.89
556.852	2.94
557.046	2.81
557.239	2.79
557.432	2.73
557.626	2.73
557.819	2.75
558.012	2.73
558.206	2.64
558.399	2.58
558.592	2.58
558.785	2.52
558.979	2.52
559.172	2.46
559.365	2.5
559.558	2.37
559.751	2.33
559.944	2.39
560.138	2.31
560.331	2.32
560.524	2.29
560.717	2.24
560.91	2.23
561.103	2.2
561.296	2.12
561.489	2.12
561.682	2.1
561.875	2.11
562.068	2.09
562.261	2.03
562.454	2.05
562.647	1.98
562.84	1.95
563.032	1.94
563.225	1.91
563.418	1.88
563.611	1.86
563.804	1.83
563.997	1.78
564.19	1.74
564.382	1.81
564.575	1.7
564.768	1.71
564.961	1.73
565.153	1.64
565.346	1.68
565.539	1.67
565.731	1.64
565.924	1.65
566.117	1.64
566.309	1.56
566.502	1.54
566.695	1.5
566.887	1.52
567.08	1.46
567.272	1.46
567.465	1.39
567.657	1.44
567.85	1.43
568.042	1.4
568.235	1.43
568.427	1.35
568.62	1.36
568.812	1.34
569.005	1.32
569.197	1.26
569.389	1.31
569.582	1.28
569.774	1.31
569.966	1.19
570.159	1.18
570.351	1.22
570.543	1.14
570.736	1.2
570.928	1.12
571.12	1.17
571.312	1.11
571.505	1.07
571.697	1.14
571.889	1.08
572.081	1.1
572.273	1.04
572.465	1.11
572.658	1.03
572.85	1.01
573.042	1
573.234	1.02
573.426	1.03
573.618	0.98
573.81	0.99
574.002	0.99
574.194	0.98
574.386	0.92
574.578	0.84
574.77	0.92
574.962	0.9
575.154	0.86
575.346	0.89
575.538	0.85
575.729	0.8
575.921	0.84
576.113	0.83
576.305	0.84
576.497	0.83
576.689	0.79
576.88	0.78
577.072	0.82
577.264	0.74
577.456	0.74
577.647	0.71
577.839	0.78
578.031	0.8
578.223	0.71
578.414	0.68
578.606	0.72
578.798	0.7
578.989	0.69
579.181	0.71
579.372	0.7
579.564	0.67
579.755	0.66
579.947	0.64
580.139	0.67
580.33	0.58
580.522	0.63
580.713	0.57
580.905	0.62
581.096	0.65
581.287	0.63
581.479	0.6
581.67	0.6
581.862	0.58
582.053	0.56
582.244	0.52
582.436	0.56
582.627	0.56
582.818	0.54
583.01	0.51
583.201	0.6
583.392	0.56
583.583	0.56
583.775	0.51
583.966	0.48
584.157	0.54
584.348	0.51
584.54	0.48
584.731	0.5
584.922	0.5
585.113	0.46
585.304	0.49
585.495	0.53
585.686	0.51
585.877	0.52
586.068	0.47
586.259	0.45
586.45	0.46
586.641	0.46
586.832	0.4
587.023	0.42
587.214	0.43
587.405	0.43
587.596	0.42
587.787	0.5
587.978	0.43
588.169	0.39
588.36	0.41
588.551	0.44
588.742	0.39
588.932	0.46
589.123	0.38
589.314	0.43
589.505	0.41
589.696	0.38
589.886	0.36
590.077	0.35
590.268	0.39
590.458	0.34
590.649	0.33
590.84	0.37
591.03	0.35
591.221	0.33
591.412	0.31
591.602	0.39
591.793	0.37
591.984	0.32
592.174	0.34
592.365	0.41
592.555	0.34
592.746	0.32
592.936	0.36
593.127	0.36
593.317	0.38
593.508	0.32
593.698	0.31
593.889	0.32
594.079	0.32
594.269	0.28
594.46	0.31
594.65	0.31
594.84	0.31
595.031	0.27
595.221	0.29
595.411	0.25
595.602	0.32
595.792	0.28
595.982	0.26
596.172	0.39
596.363	0.27
596.553	0.28
596.743	0.3
596.933	0.3
597.123	0.29
597.314	0.26
597.504	0.26
597.694	0.3
597.884	0.32
598.074	0.27
598.264	0.25
598.454	0.28
598.644	0.26
598.834	0.26
599.024	0.2
599.214	0.24
599.404	0.28
599.594	0.25
599.784	0.22
599.974	0.27
600.164	0.29
600.354	0.21
600.544	0.2
600.734	0.25
600.924	0.28
601.114	0.2
601.303	0.24
601.493	0.26
601.683	0.19
601.873	0.24
602.063	0.18
602.252	0.23
602.442	0.17
602.632	0.19
602.821	0.19
603.011	0.24
603.201	0.19
603.39	0.18
603.58	0.18
603.77	0.25
603.959	0.23
604.149	0.2
604.339	0.19
604.528	0.26
604.718	0.22
604.907	0.22
605.097	0.19
605.286	0.15
605.476	0.22
605.665	0.21
605.855	0.18
606.044	0.26
606.234	0.2
606.423	0.22
606.612	0.15
606.802	0.2
606.991	0.23
607.181	0.21
607.37	0.14
607.559	0.17
607.749	0.15
607.938	0.21
608.127	0.17
608.316	0.16
608.506	0.23
608.695	0.18
608.884	0.15
609.073	0.19
609.263	0.22
609.452	0.21
609.641	0.19
609.83	0.16
610.019	0.19
610.208	0.16
610.397	0.17
610.586	0.2
610.775	0.15
610.965	0.16
611.154	0.18
611.343	0.2
611.532	0.16
611.721	0.15
611.91	0.15
612.099	0.19
612.287	0.18
612.476	0.12
612.665	0.19
612.854	0.14
613.043	0.19
613.232	0.14
613.421	0.11
613.61	0.2
613.798	0.15
613.987	0.2
614.176	0.19
614.365	0.19
614.554	0.16
614.742	0.2
614.931	0.16
615.12	0.2
615.309	0.17
615.497	0.17
615.686	0.12
615.875	0.17
616.063	0.16
616.252	0.15
616.44	0.14
616.629	0.17
616.818	0.2
617.006	0.13
617.195	0.15
617.383	0.19
617.572	0.14
617.76	0.11
617.949	0.13
618.137	0.16
618.326	0.16
618.514	0.1
618.703	0.13
618.891	0.18
619.079	0.1
619.268	0.17
619.456	0.13
619.644	0.19
619.833	0.13
620.021	0.13
620.209	0.1
620.398	0.15
620.586	0.14
620.774	0.17
620.962	0.13
621.151	0.18
621.339	0.18
621.527	0.11
621.715	0.11
621.903	0.14
622.092	0.11
622.28	0.14
622.468	0.19
622.656	0.14
622.844	0.14
623.032	0.12
623.22	0.08
623.408	0.16
623.596	0.17
623.784	0.15
623.972	0.12
624.16	0.15
624.348	0.17
624.536	0.09
624.724	0.13
624.912	0.16
625.1	0.17
625.288	0.11
625.476	0.16
625.664	0.15
625.851	0.14
626.039	0.15
626.227	0.18
626.415	0.14
626.603	0.07
626.79	0.15
626.978	0.12
627.166	0.13
627.354	0.14
627.541	0.12
627.729	0.07
627.917	0.14
628.104	0.15
628.292	0.17
628.48	0.13
628.667	0.16
628.855	0.15
629.042	0.15
629.23	0.12
629.418	0.13
629.605	0.12
629.793	0.13
629.98	0.12
630.168	0.1
630.355	0.09
630.543	0.13
630.73	0.1
630.917	0.17
631.105	0.18
631.292	0.12
631.48	0.12
631.667	0.17
631.854	0.14
632.042	0.11
632.229	0.09
632.416	0.12
632.604	0.09
632.791	0.11
632.978	0.16
633.165	0.12
633.353	0.19
633.54	0.14
633.727	0.08
633.914	0.12
634.101	0.04
634.289	0.13
634.476	0.12
634.663	0.06
634.85	0.15
635.037	0.1
635.224	0.07
635.411	0.15
635.598	0.15
635.785	0.11
635.972	0.1
636.159	0.17
636.346	0.1
636.533	0.11
636.72	0.11
636.907	0.13
637.094	0.13
637.281	0.11
637.468	0.18
637.655	0.09
637.842	0.14
638.029	0.11
638.215	0.14
638.402	0.12
638.589	0.07
638.776	0.11
638.963	0.09
639.149	0.18
639.336	0.18
639.523	0.1
639.709	0.12
639.896	0.1
640.083	0.17
640.27	0.14
640.456	0.14
640.643	0.14
640.829	0.08
641.016	0.1
641.203	0.07
641.389	0.15
641.576	0.16
641.762	0.13
641.949	0.11
642.135	0.11
642.322	0.13
642.508	0.09
642.695	0.13
642.881	0.11
643.068	0.07
643.254	0.08
643.441	0.14
643.627	0.14
643.813	0.1
644	0.17
644.186	0.12
644.372	0.11
644.559	0.15
644.745	0.11
644.931	0.09
645.118	0.13
645.304	0.12
645.49	0.11
645.676	0.1
645.862	0.1
646.049	0.16
646.235	0.12
646.421	0.17
646.607	0.19
646.793	0.08
646.979	0.11
647.165	0.13
647.352	0.1
647.538	0.18
647.724	0.11
647.91	0.11
648.096	0.18
648.282	0.19
648.468	0.1
648.654	0.12
648.84	0.15
649.026	0.14
649.212	0.08
649.397	0.09
649.583	0.05
649.769	0.12
649.955	0.1
650.141	0.15
650.327	0.13
650.513	0.09
650.698	0.12
650.884	0.02
651.07	0.13
651.256	0.13
651.442	0.1
651.627	0.09
651.813	0.12
651.999	0.14
652.184	0.16
652.37	0.08
652.556	0.09
652.741	0.19
652.927	0.06
653.113	0.11
653.298	0.11
653.484	0.1
653.669	0.06
653.855	0.11
654.04	0.14
654.226	0.16
654.412	0.14
654.597	0.08
654.782	0.11
654.968	0.16
655.153	0.12
655.339	0.1
655.524	0.07
655.71	0.16
655.895	0.1
656.08	0.13
656.266	0.14
656.451	0.18
656.636	0.07
656.822	0.13
657.007	0.08
657.192	0.1
657.378	0.07
657.563	0.09
657.748	0.15
657.933	0.13
658.118	0.09
658.304	0.08
658.489	0.16
658.674	0.08
658.859	0.08
659.044	0.17
659.229	0.15
659.414	0.11
659.599	0.13
659.785	0.1
659.97	0.09
660.155	0.14
660.34	0.11
660.525	0.1
660.71	0.13
660.895	0.13
661.08	0.12
661.264	0.11
661.449	0.18
661.634	0.15
661.819	0.14
662.004	0.17
662.189	0.06
662.374	0.07
662.559	0.07
662.743	0.05
662.928	0.1
663.113	0.07
663.298	0.04
663.483	0.08
663.667	0.14
663.852	0.1
664.037	0.14
664.221	0.09
664.406	0.16
664.591	0.15
664.775	0.13
664.96	0.12
665.145	0.15
665.329	0.14
665.514	0.11
665.698	0.12
665.883	0.04
666.068	0.16
666.252	0.16
666.437	0.09
666.621	0.11
666.806	0.13
666.99	0.12
667.174	0.08
667.359	0.19
667.543	0.1
667.728	0.12
667.912	0.05
668.096	0.18
668.281	0.13
668.465	0.14
668.649	0.15
668.834	0.08
669.018	0.14
669.202	0.14
669.387	0.06
669.571	0.17
669.755	0.11
669.939	0.13
670.124	0.17
670.308	0.21
670.492	0.16
670.676	0.12
670.86	0.11
671.044	0.09
671.228	0.21
671.413	0.16
671.597	0.12
671.781	0.09
671.965	0.15
672.149	0.12
672.333	0.11
672.517	0.09
672.701	0.19
672.885	0.13
673.069	0.07
673.253	0.19
673.437	0.16
673.621	0.12
673.804	0.13
673.988	0.16
674.172	0.12
674.356	0.1
674.54	0.18
674.724	0.22
674.908	0.12
675.091	0.15
675.275	0.18
675.459	0.21
675.643	0.12
675.826	0.19
676.01	0.16
676.194	0.16
676.377	0.21
676.561	0.17
676.745	0.15
676.928	0.2
677.112	0.2
677.296	0.13
677.479	0.13
677.663	0.11
677.846	0.19
678.03	0.15
678.213	0.16
678.397	0.17
678.58	0.13
678.764	0.14
678.947	0.13
679.131	0.09
679.314	0.18
679.498	0.13
679.681	0.22
679.865	0.18
680.048	0.14
680.231	0.15
680.415	0.16
680.598	0.16
680.781	0.13
680.965	0.13
681.148	0.17
681.331	0.13
681.514	0.14
681.698	0.11
681.881	0.18
682.064	0.14
682.247	0.15
682.43	0.08
682.614	0.17
682.797	0.18
682.98	0.18
683.163	0.08
683.346	0.15
683.529	0.11
683.712	0.1
683.895	0.2
684.078	0.08
684.261	0.11
684.444	0.16
684.627	0.18
684.81	0.13
684.993	0.16
685.176	0.21
685.359	0.11
685.542	0.1
685.725	0.16
685.908	0.12
686.091	0.17
686.274	0.19
686.457	0.17
686.639	0.17
686.822	0.18
687.005	0.14
687.188	0.2
687.371	0.2
687.553	0.23
687.736	0.16
687.919	0.19
688.102	0.19
688.284	0.13
688.467	0.13
688.65	0.13
688.832	0.11
689.015	0.1
689.197	0.05
689.38	0.23
689.563	0.24
689.745	0.14
689.928	0.15
690.11	0.14
690.293	0.16
690.475	0.07
690.658	0.19
690.84	0.14
691.023	0.15
691.205	0.11
691.388	0.16
691.57	0.21
691.752	0.17
691.935	0.07
692.117	0.1
692.3	0.19
692.482	0.15
692.664	0.14
692.847	0.15
693.029	0.21
693.211	0.21
693.393	0.12
693.576	0.13
693.758	0.12
693.94	0.11
694.122	0.16
694.304	0.16
694.487	0.16
694.669	0.22
694.851	0.11
695.033	0.14
695.215	0.13
695.397	0.16
695.579	0.17
695.761	0.11
695.943	0.08
696.125	0.21
696.308	0.14
696.49	0.03
696.671	0.24
696.853	0.16
697.035	0.3
697.217	0.14
697.399	0.21
697.581	0.1
697.763	0.16
697.945	0.11
698.127	0.14
698.309	0.27
698.491	0.18
698.672	0.15
698.854	0.2
699.036	0.23
699.218	0.08
699.399	0.23
699.581	0.22
699.763	0.12
699.945	0.11
700.126	0.08
700.308	0.13
700.49	0.13
700.671	0.08
700.853	0.13
701.035	0.17
701.216	0.17
701.398	0.12
701.579	0.12
701.761	0.19
701.943	0.09
702.124	0.14
702.306	0.14
702.487	0.28
702.669	0.18
702.85	0.12
703.031	0.12
703.213	0.29
703.394	0.21
703.576	0.11
703.757	0.3
703.938	0.23
704.12	0.28
704.301	0.18
704.483	0.07
704.664	0.18
704.845	0.27
705.026	0.22
705.208	0.2
705.389	0.15
705.57	0.22
705.751	0.13
705.933	0.16
706.114	0.2
706.295	0.21
706.476	0.12
706.657	0.28
706.838	0.16
707.02	0.24
707.201	0.11
707.382	0.14
707.563	0.21
707.744	0.11
707.925	0.09
708.106	0.04
708.287	0.17
708.468	0.21
708.649	0.15
708.83	0.19
709.011	0.15
709.192	0.19
709.373	0.15
709.554	0.1
709.734	0.2
709.915	0.24
710.096	0.16
710.277	0.1
710.458	0.1
710.639	0.2
710.819	0.01
711	0.09
711.181	0.22
711.362	0.2
711.542	0.13
711.723	0.11
711.904	0.22
712.085	0.22
712.265	0.15
712.446	0.06
712.627	0.16
712.807	0.19
712.988	0.14
713.168	0.06
713.349	0.21
713.53	0.03
713.71	0.1
713.891	0.08
714.071	0.16
714.252	0.12
714.432	0.09
714.613	0.09
714.793	0.13
714.974	0.23
715.154	0.2
715.334	0.19
715.515	0.24
715.695	0.04
715.876	0.11
716.056	0.08
716.236	0.15
716.417	0.16
716.597	0.11
716.777	0.31
716.957	0.12
717.138	0.11
717.318	0.11
717.498	0.05
717.678	0.16
717.859	0.16
718.039	0.09
718.219	0.14
718.399	0.18
718.579	0.09
718.759	0.12
718.939	0.24
719.12	0.19
719.3	0.15
719.48	0
719.66	0.08
719.84	0.26
720.02	0.17
720.2	0.17
720.38	0.09
720.56	0.28
720.74	0.13
720.92	0.11
721.1	0.21
721.279	0.17
721.459	0.17
721.639	0.03
721.819	0.18
721.999	0.15
722.179	0.24
722.359	0.16
722.538	0.19
722.718	0.2
722.898	0.11
723.078	0.18
723.257	0.07
723.437	0.22
723.617	0.21
723.797	0.09
723.976	0.13
724.156	0.25
724.336	0.27
724.515	0.31
724.695	0.06
724.874	0.14
725.054	0.19
725.234	0.14
725.413	0.17
725.593	0.1
725.772	0.12
725.952	0.09
726.131	0.14
726.311	0.18
726.49	0.1
726.67	0.12
726.849	0.16
727.028	0.17
727.208	0.18
727.387	0.23
727.567	0.03
727.746	0.11
727.925	0.14
728.105	0.1
728.284	0.15
728.463	0.17
728.643	0.2
728.822	0.09
729.001	0.18
729.18	0.27
729.359	0.25
729.539	0.13
729.718	0.19
729.897	0.28
730.076	0.1
730.255	0.08
730.434	0.17
730.614	0.24
730.793	0.21
730.972	0.19
731.151	0.14
731.33	0.24
731.509	0.17
731.688	0.11
731.867	0.09
732.046	0.03
732.225	0.3
732.404	0.08
732.583	0.09
732.762	0.17
732.941	0.24
733.12	0.16
733.298	0.16
733.477	0.16
733.656	0.13
733.835	0.05
734.014	0.17
734.193	0.21
734.371	0.22
734.55	0.26
734.729	0.12
734.908	0.17
735.086	0.25
735.265	0.24
735.444	0.09
735.623	0.17
735.801	0.11
735.98	0.18
736.159	0.17
736.337	0.27
736.516	0.1
736.694	0.22
736.873	0.14
737.052	0.34
737.23	0.31
737.409	0.24
737.587	0.43
737.766	0.1
737.944	0.14
738.123	0.16
738.301	0.2
738.479	0.14
738.658	0.22
738.836	0.03
739.015	0.21
739.193	0.24
739.371	0.09
739.55	0.06
739.728	0.08
739.906	0.28
740.085	0.29
740.263	0.18
740.441	0.06
740.62	0.37
740.798	0.22
740.976	0.07
741.154	0.12
741.332	0.3
741.511	0.25
741.689	0.2
741.867	0.37
742.045	0.26
742.223	0.16
742.401	0.04
742.579	0.17
742.757	0.23
742.935	0.17
743.114	0.19
743.292	0.11
743.47	0.1
743.648	0.3
743.826	0.12
744.004	0.21
744.181	0.15
744.359	0.22
744.537	0.2
744.715	0.12
744.893	0.15
745.071	0.32
745.249	0.12
745.427	0.23
745.605	0.24
745.782	0.11
745.96	0.16
746.138	0.26
746.316	0.24
746.493	0.16
746.671	0.26
746.849	0.1
747.027	0.39
747.204	0.05
747.382	0.22
747.56	0.09
747.737	0.1
747.915	0.07
748.093	0.2
748.27	0.17
748.448	0.11
748.625	0.04
748.803	0.05
748.98	0.08
749.158	0.21
749.335	0.24
749.513	0.16
749.69	0.16
749.868	0.18
750.045	0.22
750.223	0.1
750.4	-0.06
750.578	0.33
750.755	0.15
750.932	0.03
751.11	0.24
751.287	-0.01
751.464	0.11
751.642	0.09
751.819	0.25
751.996	0.17
752.173	0.2
752.351	0.09
752.528	0.2
752.705	0.17
752.882	0.08
753.06	0.13
753.237	0.25
753.414	0.28
753.591	0.27
753.768	0.17
753.945	0.15
754.122	0.16
754.299	0.2
754.476	0.11
754.654	0.16
754.831	0.24
755.008	0.14
755.185	0.23
755.362	0.07
755.539	0.28
755.716	0.1
755.892	0.18
756.069	0.18
756.246	0.1
756.423	0.11
756.6	0.34
756.777	0.11
756.954	0.35
757.131	0.24
757.307	0.05
757.484	0.17
757.661	0.27
757.838	0.22
758.015	0.09
758.191	0.26
758.368	0.3
758.545	0.28
758.721	0.26
758.898	0.12
759.075	0.08
759.251	0.25
759.428	0.24
759.605	-0.12
759.781	0.26
759.958	0.17
760.134	0.17
760.311	0.16
760.488	0.39
760.664	0.34
760.841	0.13
761.017	0.03
761.194	0.31
761.37	0.37
761.547	0.14
761.723	0.13
761.899	0.22
762.076	0.07
762.252	-0.01
762.429	0.15
762.605	0.19
762.781	0.23
762.958	0.39
763.134	0.17
763.31	0.05
763.486	0.16
763.663	0.03
763.839	0.22
764.015	-0.04
764.191	0.08
764.368	0.22
764.544	0.19
764.72	0.25
764.896	0.15
765.072	0.24
765.248	0.21
765.425	0.08
765.601	0.09
765.777	0.16
765.953	-0.15
766.129	0.23
766.305	0.15
766.481	0.29
766.657	0.17
766.833	0.47
767.009	0.19
767.185	0.2
767.361	0.17
767.537	0.08
767.713	0.34
767.889	0.17
768.065	0.2
768.24	0.24
768.416	0.3
768.592	-0.02
768.768	0.03
768.944	0.13
769.12	0.05
769.295	0.07
769.471	0.12
769.647	0.1
769.823	0.4
769.998	0.1
770.174	0.1
770.35	0.55
770.525	0.52
770.701	0.21
770.877	0.07
771.052	0.19
771.228	0.32
771.403	0.34
771.579	0.28
771.755	0.6
771.93	0.06
772.106	-0.01
772.281	0.03
772.457	0.3
772.632	0.25
772.808	-0.04
772.983	0.14
773.159	-0.06
773.334	0.32
773.509	0.17
773.685	0.17
773.86	0.45
774.036	0.41
774.211	0.12
774.386	0.1
774.562	0.1
774.737	0.52
774.912	0.02
775.087	0.16
775.263	0.23
775.438	0.39
775.613	0.08
775.788	0.16
775.964	0.45
776.139	0.43
776.314	0.07
776.489	0.09
776.664	0.33
776.839	0.11
777.014	0.36
777.19	0.42
777.365	0.54
777.54	0.49
777.715	0.2
777.89	0.33
778.065	-0
778.24	0.27
778.415	0.36
778.59	0.09
778.765	0.22
778.94	0.2
779.115	0.19
779.289	0.16
779.464	0.3
779.639	0.22
779.814	0.02
779.989	0.18
780.164	0.22
780.339	0.22
780.513	0.11
780.688	0.11
780.863	0.17
781.038	0.38
781.212	0.09
781.387	0.25
781.562	0.44
781.737	0.21
781.911	0.24
782.086	0.12
782.261	0.21
782.435	0.61
782.61	0.19
782.784	0.16
782.959	0.32
783.134	0.1
783.308	0.09
783.483	0.18
783.657	0.71
783.832	0.22
784.006	-0.1
784.181	0.18
784.355	0.3
784.53	0.01
784.704	0.18
784.878	0.46
785.053	0.17
785.227	0.67
785.402	0.55
785.576	0.06
785.75	0.15
785.925	0.14
786.099	0.35
786.273	0.4
786.448	0.29
786.622	0.5
786.796	0.32
786.97	0.18
787.145	0.73
787.319	-0.35
787.493	0.27
787.667	-0.09
787.841	0.31
788.015	0.4
788.19	0.16
788.364	0.14
788.538	0.27
788.712	0.43
788.886	0.27
789.06	0.52
789.234	0.35
789.408	-0.01
789.582	0.1
789.756	0.26
789.93	-0.18
790.104	0.03
790.278	0.15
790.452	0.09
790.626	0.28
790.8	0.04
790.973	0.33
791.147	0.55
791.321	0.37
791.495	0.35
791.669	0.2
791.843	0.38
792.016	0.45
792.19	0.62
792.364	0.08
792.538	0.71
792.711	0.62
792.885	0.21
793.059	0.13
793.233	-0.25
793.406	0.5
793.58	0.33
793.754	0.23
793.927	0.1
794.101	0.64
794.274	0.22
794.448	0.55
794.622	-0.02
794.795	0.52
794.969	0.1
795.142	0.61
795.316	0.13
795.489	0.18
795.663	0.48
795.836	0.35
796.009	-0.04
796.183	0.57
796.356	0.29
796.53	0.39
796.703	0.23
796.876	0.76
797.05	0.28
797.223	0.21
797.396	0.45
797.57	0.45
797.743	0.34
797.916	0.32
798.09	0.45
798.263	0.45
798.436	0.5
798.609	0.16
798.782	0.09
798.956	0.44
799.129	0.35
799.302	0.12
799.475	0.21
799.648	0.14
799.821	0.09
799.994	0.57
800.167	0.03
800.34	0.34
800.514	0.28
800.687	0.32
800.86	0.21
801.033	0.21
801.206	0.14
801.379	0.03
801.551	0.6
801.724	0.16
801.897	0.8
802.07	0.05
802.243	-0.1
802.416	0.18
802.589	-0.05
802.762	0.14
802.935	0.05
803.107	0.45
803.28	0.69
803.453	0.59
803.626	0.08
803.798	0.39
803.971	0.17
804.144	0.32
804.317	0.69
804.489	0.52
804.662	0.23
804.835	0.31
805.007	0.18
805.18	0.71
805.353	0.39
805.525	0.1
805.698	0.22
805.87	0.81
806.043	0.6
806.215	0.07
806.388	-0.07
806.56	0.38
806.733	0.81
806.905	0.53
807.078	0.01
807.25	-0.09
807.423	0.4
807.595	0.16
807.768	0.53
807.94	0.95
808.112	0.36
808.285	0.47
808.457	-0.02
808.629	0.46
808.802	0.39
808.974	0.31
809.146	-0.04
809.318	0.31
809.491	0.74
809.663	0.64
809.835	0.05
810.007	0.44
810.18	0.34
810.352	-0.12
810.524	0.12
810.696	0.39
810.868	0.74
811.04	0.23
811.212	0.31
811.384	0.43
811.556	0.17
811.728	0.38
811.901	1.17
812.073	0.24
812.245	0.65
812.417	0.33
812.589	-0.16
812.76	0.33
812.932	0.47
813.104	0.64
813.276	0.47
813.448	0.68
813.62	0.4
813.792	0.32
813.964	0.57
814.136	0.57
814.307	0.36
814.479	0.16
814.651	0.23
814.823	1.46
814.995	0.53
815.166	0.55
815.338	0.56
815.51	-0.02
815.681	1.22
815.853	0.39
816.025	-0.06
816.196	1.12
816.368	0.89
816.54	-0.11
816.711	0.09
816.883	0.46
817.054	1.07
817.226	0.13
817.398	0.7
817.569	0.53
817.741	0.55
817.912	0.02
818.084	0.03
818.255	0.84
818.426	0.1
818.598	0.22
818.769	0.17
818.941	0.58
819.112	0.84
819.283	0.55
819.455	0.09
819.626	0.51
819.798	0.62
819.969	0.3
820.14	0.57
820.311	0.11
820.483	0.67
820.654	0.65
820.825	0.21
820.996	0.17
821.168	0.32
821.339	0.4
821.51	0.15
821.681	0.45
821.852	0.19
822.023	0.17
822.195	-0.93
822.366	0.66
822.537	0.33
822.708	0.38
822.879	-0.1
823.05	1.22
823.221	0.14
823.392	0.75
823.563	0.73
823.734	0.86
823.905	0.43
824.076	0.06
824.247	0.65
824.418	0.21
824.589	1.04
824.759	0.64
824.93	-0.21
825.101	-0.32
825.272	0.98
825.443	1.3
825.614	1.28
825.784	-0.86
825.955	1.51
826.126	1.67
826.297	1.17
826.467	1.04
826.638	1.65
826.809	-0.1
826.98	0.3
827.15	0.31
827.321	0.69
827.492	1.2
827.662	0.9
827.833	1.75
828.003	1.16
828.174	-0.14
828.345	0.03
828.515	1.17
828.686	0.51
828.856	0.51
829.027	0.67
829.197	0.62
829.368	1.07
829.538	0.22
829.709	0.39
829.879	0.76
830.049	0.85
830.22	0.29
830.39	0.51
830.56	0.92
830.731	0.5
830.901	0.29
831.072	0.35
831.242	0.77
831.412	0.33
831.582	0.26
831.753	-0.19
831.923	1.13
832.093	0.97
832.263	0.18
832.434	0.44
832.604	0.79
832.774	1.39
832.944	0.52
833.114	0.18
833.284	0.94
833.454	-0.39
833.624	0.05
833.795	0.12
833.965	1.15
834.135	1.46
834.305	-0.89
834.475	-0.07
834.645	0.62
834.815	0.03
834.985	-0.14
835.155	0.6
835.325	0.87
835.494	1.25
835.664	-0.1
835.834	0.08
836.004	0.64
836.174	0.58
836.344	0.46
836.514	0.18
836.684	0.7
836.853	0.76
837.023	0.48
837.193	0.05
837.363	0.63
837.532	1.25
837.702	0.5
837.872	0.16
838.041	0.65
838.211	1.75
838.381	0.01
838.55	0.81
838.72	2.2
838.89	1.68
839.059	0.62
839.229	-0.16
839.398	2.36
839.568	0.61
839.738	0.83
839.907	0.87
840.077	0.87
840.246	-0.21
840.416	0.21
840.585	0.16
840.755	1.78
840.924	1.29
841.093	0.18
841.263	0.65
841.432	1.73
841.602	0.68
841.771	0.1
841.94	0.66
842.11	2.62
842.279	1.72
842.448	-0.05
842.617	0.41
842.787	1.39
842.956	-0.19
843.125	0.59
843.294	1.18
843.464	1.4
843.633	1.09
843.802	-0.09
843.971	0
844.14	0.96
844.309	1.16
844.479	-0.26
844.648	-0.07
844.817	0.69
844.986	0.94
845.155	-0.07
845.324	0.42
845.493	1.13
845.662	0.01
845.831	0.96
846	1.59
846.169	-0.05
846.338	1.66
846.507	0.31
846.676	1.5
846.844	0.18
847.013	1.38
847.182	0.68
847.351	-0.93
847.52	1.25
847.689	0.34
847.858	0.7
848.026	-0.27
848.195	0.86
848.364	0.54
848.533	-0.21
848.701	0.56
848.87	0.66
849.039	1.5
849.207	1.66
849.376	2
849.545	1.35
849.713	0.16
849.882	0.47
850.051	0.85
850.219	1.79
850.388	1.76
850.556	0.77
850.725	0.03
850.893	1.28
851.062	0.52
851.23	1.88
851.399	0.02
851.567	0.57
851.736	0.21
851.904	0.63
852.073	-0.22
852.241	1.3
852.41	0.94
852.578	1.23
852.746	0.68
852.915	2
853.083	0.53
853.251	-0.58
853.42	1.21
853.588	0.69
853.756	2.19
853.924	0.6
854.093	0.59
854.261	0.72
854.429	-0.19
854.597	0.23
854.765	1.26
854.934	1.95
855.102	2.23
855.27	0.54
855.438	1.37
855.606	2.86
855.774	1.95
855.942	-0.59
856.11	-0.52
856.278	0.81
856.446	2.2
856.614	0.24
856.782	0.19
856.95	1.17
857.118	0.92
857.286	1.56
857.454	1.52
857.622	1.85
857.79	1.24
857.958	-0.32
858.126	0.59
858.294	-1.39
858.462	0.67
858.629	0.25
858.797	0.56
858.965	1.01
859.133	0.21
859.301	1.06
859.468	1.48
859.636	1.13
859.804	2.79
859.971	1.2
860.139	-0.36
860.307	2.14
860.474	1.37
860.642	-0.37
860.81	-0.16
860.977	0.5
861.145	1.93
861.313	1.02
861.48	-0.01
861.648	1.72
861.815	0.25
861.983	-1.32
862.15	1.12
862.318	2.67
862.485	1.45
862.653	-0.03
862.82	-0.48
862.988	3.59
863.155	1.63
863.322	0.51
863.49	1.18
863.657	-0.53
863.824	3.35
863.992	0.69
864.159	0.68
864.326	2.9
864.494	0.94
864.661	4.17
864.828	-0.71
864.996	3.6
865.163	2.47
865.33	-0.17
865.497	-0.49
865.664	1.28
865.832	-1.55
865.999	0.47
866.166	-0.62
866.333	0.72
866.5	0.84
866.667	0.39
866.834	0.06
867.001	2.3
867.168	-0.7
867.335	0.67
867.502	-0.89
867.669	0.46
867.836	3.26
868.003	1.3
868.17	2.05
868.337	3.63
868.504	3.63
868.671	-0.86
868.838	0.35
869.005	2.89
869.172	2.1
869.339	1.22
869.505	1.97
869.672	1.11
869.839	2.53
870.006	1.81
870.173	0.13
870.339	1.48
870.506	5.59
870.673	1.42
870.84	1.28
871.006	1.73
871.173	0.32
871.34	0.03
871.506	-0.08
871.673	2.08
871.839	0.67
872.006	1.42
872.173	1.37
872.339	1.9
872.506	3.28
872.672	1.26
872.839	0.43
873.005	1.88
873.172	3.77
873.338	1.78
873.505	1.19
873.671	3.4
873.838	2.81
874.004	-0.66
874.171	1.69
874.337	1.78
874.503	1.7
874.67	2.19
874.836	1.21
875.002	4.13
875.169	1.91
875.335	1.88
875.501	0.3
875.668	2.36
875.834	1.19
876	0.78
876.166	4.45
876.332	2.42
876.499	3.66
876.665	-1.32
876.831	1.21
876.997	4.81
877.163	1.73
877.329	1.87
877.495	2.84
877.662	1.79
877.828	0.86
877.994	0.04
878.16	-1.59
878.326	-1.03
878.492	2.81
878.658	0.85
878.824	1.54
878.99	2.75
879.156	-0.63
879.322	4.97
879.487	-0.09
879.653	1.18
879.819	3.26
879.985	0.26
880.151	2.07
880.317	2.32
880.483	1.92
880.648	3.32
880.814	-0.39
880.98	2.85
881.146	-1.43
881.312	-1.46
881.477	0.43
881.643	2.05
881.809	4.67
881.974	1.56
882.14	-2.25
882.306	1.17
882.471	4.46
882.637	0.56
882.803	2.58
882.968	2.52
883.134	5.67
883.299	0.65
883.465	1.36
883.63	1.18
883.796	2.39
883.961	3.37
884.127	1.43
884.292	-2.99
884.458	0.13
884.623	0.13
