Data from Apollo_Calib_20240827__AbsoluteIrradiance__242__03-11-01-313.txt Node

Date: Wed Aug 28 03:11:01 BST 2024
User: biology
Spectrometer: FLMT08252
Trigger mode: 0
Integration Time (sec): 5.000000E-1
Scans to average: 5
Electric dark correction enabled: true
Nonlinearity correction enabled: false
Boxcar width: 0
XAxis mode: Wavelengths
Number of Pixels in Spectrum: 3648
>>>>>Begin Spectral Data<<<<<
179.588	-0
179.809	-0
180.03	-0
180.251	-0
180.473	-0
180.694	0
180.915	0
181.136	-0
181.357	-0
181.578	-0
181.799	-0
182.02	-0
182.241	-0
182.462	-0
182.683	0
182.904	-0
183.125	-0
183.346	0
183.567	-0
183.788	-0
184.009	-0
184.23	0
184.451	0
184.672	-0
184.892	-0
185.113	0
185.334	0
185.555	-0
185.776	-0
185.996	0
186.217	0
186.438	-0
186.659	-0
186.879	-0
187.1	-0
187.321	-0
187.541	-0
187.762	0
187.983	-0
188.203	0
188.424	0
188.644	-0
188.865	-0
189.086	0
189.306	-0
189.527	-0
189.747	0
189.968	-0
190.188	0
190.409	0
190.629	0
190.849	-0
191.07	0
191.29	0
191.511	0
191.731	-0
191.951	-0
192.172	-0
192.392	-0
192.612	0
192.833	-0
193.053	0
193.273	0
193.493	-0
193.714	-0
193.934	0
194.154	0
194.374	-0
194.594	-0
194.815	0
195.035	-0
195.255	-0
195.475	-0
195.695	0
195.915	0
196.135	-0
196.355	0
196.575	0
196.795	0
197.015	-0
197.235	-0
197.455	-0
197.675	0
197.895	-0
198.115	-0
198.335	0
198.555	-0
198.775	0
198.995	0
199.214	0
199.434	-0
199.654	-0
199.874	0
200.094	0.78
200.313	-0.36
200.533	-0.74
200.753	-1.3
200.973	0.96
201.192	0.54
201.412	-0.45
201.632	-0.16
201.851	0.44
202.071	-0.43
202.291	-0.62
202.51	-0.32
202.73	0.11
202.95	0.15
203.169	-0.99
203.389	-0.07
203.608	-0.21
203.828	-0.58
204.047	-0.26
204.267	0.28
204.486	0.38
204.706	-0.06
204.925	-0.08
205.145	-0.48
205.364	0.52
205.583	0.34
205.803	-0.48
206.022	-0.45
206.242	-0.1
206.461	0.02
206.68	-0.48
206.9	0.21
207.119	0.42
207.338	0.63
207.557	-0.22
207.777	-0.19
207.996	-0.11
208.215	0.5
208.434	-0.14
208.654	-0.57
208.873	0.08
209.092	0.46
209.311	-0.18
209.53	-0.19
209.749	-0.15
209.968	-0.44
210.187	-0.06
210.407	-0.59
210.626	-0.1
210.845	0.09
211.064	0.07
211.283	-0.32
211.502	0.07
211.721	-0.03
211.94	-0.07
212.159	0.03
212.377	0.34
212.596	0.33
212.815	-0.13
213.034	0.02
213.253	0.06
213.472	0.17
213.691	-0.39
213.91	-0.19
214.128	-0.32
214.347	0.33
214.566	-0.18
214.785	-0.46
215.003	0.12
215.222	0.2
215.441	0.19
215.66	-0.35
215.878	0.09
216.097	0.32
216.316	-0.19
216.534	-0.17
216.753	0.25
216.972	-0.07
217.19	0.08
217.409	-0.35
217.627	-0.16
217.846	-0.12
218.064	0.02
218.283	-0.22
218.501	0.4
218.72	0.2
218.938	-0.25
219.157	-0.02
219.375	0.14
219.594	0.13
219.812	-0.33
220.031	-0.23
220.249	0.39
220.467	0.2
220.686	-0.02
220.904	-0.23
221.122	-0.13
221.341	0.39
221.559	0.1
221.777	-0.21
221.995	-0.06
222.214	0.06
222.432	-0.06
222.65	0.11
222.868	-0.07
223.086	0.13
223.305	0.08
223.523	-0.05
223.741	0.33
223.959	-0.13
224.177	-0.19
224.395	-0.14
224.613	0.12
224.831	0.17
225.049	-0.23
225.267	-0.16
225.485	0.08
225.703	-0.05
225.921	-0.05
226.139	-0.16
226.357	0.09
226.575	0.11
226.793	-0.09
227.011	0.61
227.229	0.03
227.447	0.14
227.665	-0.11
227.883	-0.19
228.1	0.08
228.318	0.05
228.536	-0.19
228.754	-0.04
228.972	0
229.189	0.12
229.407	-0.03
229.625	-0.04
229.843	0.13
230.06	0
230.278	-0.13
230.496	-0.05
230.713	-0
230.931	0.29
231.149	-0.03
231.366	-0.25
231.584	-0.05
231.801	0.33
232.019	-0.14
232.236	-0.18
232.454	-0.09
232.671	0.1
232.889	-0.08
233.106	-0.1
233.324	0
233.541	-0.04
233.759	0.02
233.976	-0.07
234.194	0.05
234.411	-0.05
234.628	-0.08
234.846	-0.08
235.063	0.07
235.28	0.05
235.498	0
235.715	-0.08
235.932	0.13
236.149	-0.06
236.367	-0.08
236.584	0.05
236.801	-0.03
237.018	0.05
237.236	-0.05
237.453	-0.23
237.67	0.11
237.887	-0.01
238.104	-0.07
238.321	-0.11
238.538	-0.06
238.755	0.15
238.973	-0.19
239.19	-0.03
239.407	0.05
239.624	-0
239.841	-0.13
240.058	-0.1
240.275	0.04
240.492	-0.09
240.709	-0.05
240.925	-0.06
241.142	-0.09
241.359	-0.11
241.576	-0.08
241.793	-0.01
242.01	-0.01
242.227	0.12
242.444	-0.05
242.66	0.06
242.877	-0.06
243.094	-0.13
243.311	-0.04
243.527	-0.03
243.744	0.1
243.961	0
244.178	-0.05
244.394	-0.09
244.611	0.07
244.828	0.16
245.044	-0.16
245.261	-0.08
245.477	0.02
245.694	-0.06
245.911	-0.07
246.127	-0
246.344	0.16
246.56	0.13
246.777	-0.04
246.993	0.04
247.21	-0.06
247.426	0.13
247.643	0.02
247.859	-0.12
248.076	-0.04
248.292	0.23
248.508	-0.07
248.725	0.02
248.941	0.03
249.157	0.08
249.374	-0.13
249.59	-0.05
249.806	0.01
250.023	0.06
250.239	-0.03
250.455	-0.12
250.671	0.03
250.888	0.07
251.104	0.06
251.32	-0.01
251.536	-0.03
251.752	-0.06
251.969	0.03
252.185	0.06
252.401	0.23
252.617	0.03
252.833	-0.04
253.049	0.02
253.265	0.06
253.481	-0.04
253.697	-0.07
253.913	-0.13
254.129	0.07
254.345	0.02
254.561	0.04
254.777	-0.06
254.993	0.1
255.209	0
255.425	0.03
255.641	-0.1
255.857	0.15
256.073	0.07
256.288	-0.11
256.504	-0.03
256.72	-0.07
256.936	0.14
257.152	-0.04
257.367	-0.05
257.583	-0.01
257.799	0.14
258.015	-0.01
258.23	-0.08
258.446	0.13
258.662	-0.02
258.877	-0.07
259.093	-0.04
259.309	-0.01
259.524	0.03
259.74	-0.1
259.955	-0.13
260.171	0.01
260.387	0
260.602	-0
260.818	0.03
261.033	-0.1
261.249	-0.02
261.464	-0.11
261.68	-0.19
261.895	0.02
262.11	0.1
262.326	0.02
262.541	-0.1
262.757	0.07
262.972	0.03
263.187	-0.01
263.403	-0.11
263.618	0.08
263.833	-0
264.049	-0.11
264.264	0.04
264.479	0.04
264.694	0.12
264.91	-0.12
265.125	-0.05
265.34	0.01
265.555	0.15
265.77	-0.01
265.986	-0.01
266.201	0.02
266.416	0.07
266.631	-0.03
266.846	0.02
267.061	-0
267.276	0.06
267.491	-0.15
267.706	0.02
267.921	0.08
268.136	0.02
268.351	-0.03
268.566	-0.07
268.781	0.06
268.996	0.05
269.211	0.03
269.426	-0.06
269.641	0.03
269.856	0.06
270.071	-0.08
270.285	-0.12
270.5	0.1
270.715	0.07
270.93	-0.04
271.145	0.03
271.359	0.01
271.574	-0.11
271.789	-0.02
272.004	-0.03
272.218	0.04
272.433	0.05
272.648	-0.04
272.862	0.05
273.077	0
273.292	-0.01
273.506	-0
273.721	-0.05
273.936	0.07
274.15	0.05
274.365	-0.04
274.579	0.05
274.794	0.05
275.008	0.11
275.223	-0.06
275.437	-0.05
275.652	0.02
275.866	0.08
276.081	-0.03
276.295	0.06
276.509	0.05
276.724	0.01
276.938	0.01
277.153	0.01
277.367	0.06
277.581	-0.01
277.796	-0.06
278.01	-0.02
278.224	0.07
278.438	0.18
278.653	-0.09
278.867	-0.1
279.081	0.13
279.295	-0.01
279.51	0.01
279.724	-0.11
279.938	0.04
280.152	0.06
280.366	-0.01
280.58	0.02
280.794	0.13
281.008	0.02
281.222	0.04
281.437	0.15
281.651	0.05
281.865	0.08
282.079	-0.03
282.293	-0.11
282.507	-0.02
282.721	0.03
282.935	-0.05
283.148	-0.08
283.362	-0.07
283.576	-0.09
283.79	-0
284.004	0.01
284.218	0.08
284.432	-0.03
284.646	0.01
284.859	-0.02
285.073	0.02
285.287	0.02
285.501	-0.02
285.714	-0.02
285.928	0
286.142	-0.01
286.356	-0.04
286.569	-0.06
286.783	0.11
286.997	0.05
287.21	0.01
287.424	0.03
287.637	-0.01
287.851	-0.01
288.065	0.02
288.278	-0.03
288.492	0.03
288.705	-0.02
288.919	-0.01
289.132	-0.05
289.346	0.09
289.559	-0.04
289.773	-0.02
289.986	-0.04
290.2	0.01
290.413	0.08
290.626	-0.04
290.84	-0.03
291.053	-0.04
291.267	0.07
291.48	-0.01
291.693	0.02
291.906	-0.04
292.12	-0.04
292.333	0
292.546	-0.04
292.76	0.1
292.973	0.05
293.186	-0.01
293.399	-0.05
293.612	0.1
293.826	0.04
294.039	-0.03
294.252	-0.03
294.465	0.02
294.678	0.04
294.891	-0.02
295.104	-0.09
295.317	0.03
295.53	0.04
295.743	0
295.956	-0.03
296.169	0.04
296.382	0.03
296.595	-0
296.808	-0.03
297.021	0.05
297.234	0.1
297.447	-0.04
297.66	0.05
297.873	0.04
298.086	0.02
298.299	-0.04
298.511	-0.07
298.724	-0.04
298.937	-0.02
299.15	-0.02
299.363	-0.01
299.575	0.03
299.788	0.03
300.001	-0.02
300.213	-0.03
300.426	-0.03
300.639	-0
300.852	-0.03
301.064	0.04
301.277	0.09
301.489	0.06
301.702	0.04
301.915	-0.05
302.127	-0.01
302.34	0.06
302.552	0.05
302.765	-0.06
302.977	0.03
303.19	0.01
303.402	-0.02
303.615	-0
303.827	0
304.04	0.02
304.252	0.01
304.464	-0.01
304.677	0.11
304.889	0.03
305.102	-0.01
305.314	0.01
305.526	0.04
305.739	0.04
305.951	-0.04
306.163	-0.02
306.375	0.08
306.588	0.02
306.8	-0.01
307.012	-0.04
307.224	0.04
307.436	0.09
307.649	-0.04
307.861	-0.03
308.073	0.03
308.285	0
308.497	-0.02
308.709	-0.03
308.921	-0.01
309.133	0.05
309.346	0.02
309.558	-0.01
309.77	0.05
309.982	0.09
310.194	0.07
310.406	-0.05
310.617	0.09
310.829	0.05
311.041	0.05
311.253	-0
311.465	-0.01
311.677	0.02
311.889	0.01
312.101	-0.01
312.313	0.09
312.524	0.04
312.736	-0
312.948	-0.04
313.16	0.07
313.372	0.01
313.583	0.03
313.795	-0.02
314.007	-0.04
314.218	0.12
314.43	0.01
314.642	0
314.853	-0.04
315.065	0.05
315.277	-0
315.488	0.02
315.7	0.04
315.912	0.02
316.123	0.01
316.335	0.01
316.546	0.13
316.758	-0.01
316.969	-0.02
317.181	0.02
317.392	-0
317.604	0.06
317.815	-0.04
318.026	-0.03
318.238	0.01
318.449	0.03
318.661	-0.06
318.872	-0.07
319.083	-0.03
319.295	0.05
319.506	-0.02
319.717	0.04
319.929	0.03
320.14	0.04
320.351	0.05
320.562	-0.02
320.774	0.05
320.985	0.02
321.196	-0.04
321.407	-0.05
321.618	0.06
321.829	0.05
322.041	0.05
322.252	-0.01
322.463	0.02
322.674	0.03
322.885	-0.07
323.096	-0.04
323.307	0.02
323.518	0.01
323.729	-0.02
323.94	-0.01
324.151	-0.01
324.362	0.03
324.573	-0.02
324.784	-0.04
324.995	0.06
325.206	0.03
325.417	-0.01
325.628	-0.03
325.838	0.01
326.049	0
326.26	0.04
326.471	-0.01
326.682	0.03
326.892	0.01
327.103	-0.06
327.314	-0.05
327.525	0.09
327.735	0.05
327.946	-0.01
328.157	-0.01
328.368	0.05
328.578	-0.01
328.789	0.01
328.999	-0.01
329.21	0.02
329.421	0.03
329.631	-0.02
329.842	-0.03
330.052	0.05
330.263	0.02
330.473	0.03
330.684	0.01
330.894	0
331.105	0.01
331.315	-0.04
331.526	-0.06
331.736	0.05
331.947	0.06
332.157	-0.01
332.367	-0.02
332.578	-0.01
332.788	0.06
332.999	0.03
333.209	0.01
333.419	-0.07
333.629	0.02
333.84	0.03
334.05	-0.02
334.26	0.09
334.47	0.01
334.681	0.05
334.891	-0.04
335.101	0.03
335.311	0.1
335.521	0.04
335.732	-0.06
335.942	0.04
336.152	0.02
336.362	0.03
336.572	0.01
336.782	0.07
336.992	-0.01
337.202	0.02
337.412	-0.01
337.622	0.03
337.832	-0.01
338.042	-0.03
338.252	-0.02
338.462	-0
338.672	-0.01
338.882	0.01
339.092	0.05
339.302	0.1
339.511	0.02
339.721	0
339.931	-0.03
340.141	0.03
340.351	0.05
340.561	0.04
340.77	0.04
340.98	0.02
341.19	0.05
341.4	-0
341.609	-0
341.819	0
342.029	-0.02
342.238	0.01
342.448	-0.03
342.658	0.06
342.867	-0
343.077	0.01
343.286	0.04
343.496	0.01
343.706	0.08
343.915	-0.05
344.125	0.02
344.334	0.03
344.544	-0.04
344.753	-0.04
344.963	-0.02
345.172	-0.03
345.381	-0.01
345.591	0
345.8	0.01
346.01	0.09
346.219	0.11
346.428	-0.16
346.638	-0.01
346.847	0.02
347.056	0.08
347.266	-0.02
347.475	0.07
347.684	0.01
347.893	0.01
348.103	0.07
348.312	-0.05
348.521	-0.01
348.73	0.02
348.94	0
349.149	-0.04
349.358	-0.02
349.567	0.02
349.776	-0.03
349.985	-0.04
350.194	0.08
350.403	0.05
350.612	-0.04
350.821	0.01
351.03	0.04
351.239	-0.02
351.448	-0
351.657	-0.01
351.866	0.09
352.075	0.03
352.284	0.05
352.493	-0.05
352.702	0.03
352.911	0.07
353.12	0.01
353.329	0.01
353.538	0.06
353.746	0.01
353.955	0.03
354.164	0.05
354.373	-0.06
354.582	0.04
354.79	0.04
354.999	0.04
355.208	-0
355.416	0.13
355.625	-0.03
355.834	-0.02
356.042	0.04
356.251	0
356.46	-0.02
356.668	0.04
356.877	0.08
357.085	0.07
357.294	-0.11
357.503	-0
357.711	0.04
357.92	0.09
358.128	0.04
358.337	0.01
358.545	0.01
358.754	-0.04
358.962	0.06
359.17	0.02
359.379	0.04
359.587	0.05
359.796	-0.02
360.004	0.08
360.212	0.04
360.421	0.06
360.629	0.01
360.837	0.01
361.046	0.05
361.254	0.13
361.462	0.01
361.67	-0
361.879	0
362.087	0.09
362.295	0.02
362.503	0.01
362.711	-0.03
362.92	-0.03
363.128	-0.02
363.336	-0.06
363.544	-0.05
363.752	0.04
363.96	-0.02
364.168	0.03
364.376	0.01
364.584	0
364.792	0.09
365	0.04
365.208	0.03
365.416	0.05
365.624	0.06
365.832	-0.04
366.04	0.04
366.248	0.04
366.456	0.04
366.664	-0.01
366.872	0.01
367.079	0
367.287	0.02
367.495	0.06
367.703	0.03
367.911	0.01
368.118	-0
368.326	-0
368.534	-0.04
368.742	0.1
368.949	-0.06
369.157	-0
369.365	0.05
369.572	0.01
369.78	-0.05
369.988	0.03
370.195	0.02
370.403	0.03
370.61	-0.01
370.818	0.02
371.026	0.06
371.233	-0
371.441	-0.01
371.648	-0.02
371.856	0.04
372.063	0.04
372.271	-0.01
372.478	-0.03
372.685	-0.02
372.893	0.05
373.1	0
373.308	0.01
373.515	0.12
373.722	0.05
373.93	-0.02
374.137	0.02
374.344	0.11
374.552	0.07
374.759	0.06
374.966	0.01
375.173	-0.03
375.381	0.02
375.588	-0
375.795	-0.06
376.002	0.03
376.209	-0.07
376.417	0.03
376.624	0.05
376.831	0.03
377.038	-0
377.245	-0.02
377.452	-0.03
377.659	-0.01
377.866	-0
378.073	-0.01
378.28	0.04
378.487	0.08
378.694	0.08
378.901	0.07
379.108	-0.01
379.315	0.07
379.522	0.1
379.729	0.02
379.936	0.01
380.143	0.04
380.35	0.01
380.557	0
380.763	0.02
380.97	-0.02
381.177	0.05
381.384	0.03
381.591	-0.05
381.797	0.01
382.004	0.05
382.211	0.04
382.418	0.03
382.624	0.04
382.831	0.09
383.038	0.01
383.244	0.05
383.451	0.03
383.658	0.01
383.864	0.03
384.071	-0.02
384.277	0.09
384.484	0.01
384.69	0.04
384.897	0.03
385.103	-0.02
385.31	-0.01
385.516	-0.02
385.723	0.01
385.929	0
386.136	0.02
386.342	0.09
386.549	0.05
386.755	0.07
386.961	0.05
387.168	0.01
387.374	0.04
387.58	0.08
387.787	0.03
387.993	0.04
388.199	0.07
388.406	0
388.612	0.01
388.818	0.03
389.024	0.02
389.231	0.05
389.437	0.13
389.643	0.07
389.849	0.02
390.055	0.04
390.261	0.04
390.467	-0.01
390.674	-0.05
390.88	0.04
391.086	0.02
391.292	-0.01
391.498	0.08
391.704	0.04
391.91	0.02
392.116	0.02
392.322	-0.04
392.528	0.05
392.734	0.01
392.94	0.03
393.146	0.01
393.352	0.08
393.557	0.02
393.763	0.03
393.969	0.11
394.175	0.04
394.381	0.09
394.587	0.01
394.792	0.03
394.998	0.1
395.204	0.09
395.41	0.02
395.615	0.1
395.821	0.14
396.027	0.07
396.233	0.04
396.438	0.06
396.644	0.12
396.85	0.09
397.055	0.05
397.261	0.08
397.466	0.19
397.672	0.09
397.878	0.12
398.083	0.11
398.289	0.04
398.494	0.11
398.7	0.15
398.905	0.05
399.111	0.2
399.316	0.08
399.522	0.11
399.727	0.09
399.932	0.07
400.138	0.12
400.343	0.13
400.549	0.12
400.754	0.14
400.959	0.2
401.165	0.18
401.37	0.19
401.575	0.25
401.78	0.18
401.986	0.13
402.191	0.17
402.396	0.2
402.601	0.23
402.807	0.22
403.012	0.26
403.217	0.26
403.422	0.22
403.627	0.29
403.832	0.25
404.037	0.28
404.243	0.3
404.448	0.31
404.653	0.26
404.858	0.35
405.063	0.4
405.268	0.35
405.473	0.33
405.678	0.34
405.883	0.63
406.088	0.51
406.293	0.39
406.498	0.46
406.703	0.52
406.907	0.52
407.112	0.51
407.317	0.59
407.522	0.68
407.727	0.6
407.932	0.64
408.136	0.84
408.341	0.76
408.546	0.77
408.751	0.84
408.956	0.83
409.16	0.94
409.365	0.89
409.57	0.97
409.774	0.99
409.979	1.11
410.184	1.11
410.388	1.11
410.593	1.24
410.798	1.3
411.002	1.33
411.207	1.41
411.411	1.43
411.616	1.48
411.82	1.53
412.025	1.64
412.229	1.65
412.434	1.83
412.638	1.84
412.843	1.83
413.047	1.96
413.252	1.96
413.456	2.12
413.66	2.21
413.865	2.25
414.069	2.37
414.273	2.44
414.478	2.48
414.682	2.62
414.886	2.65
415.091	2.7
415.295	2.82
415.499	3.06
415.703	3.03
415.908	3.25
416.112	3.18
416.316	3.44
416.52	3.48
416.724	3.59
416.929	3.76
417.133	4.05
417.337	3.93
417.541	4.19
417.745	4.17
417.949	4.44
418.153	4.53
418.357	4.6
418.561	5
418.765	4.84
418.969	5.19
419.173	5.45
419.377	5.38
419.581	5.8
419.785	5.89
419.989	5.83
420.193	6.09
420.397	6.23
420.601	6.33
420.804	6.5
421.008	6.46
421.212	6.69
421.416	6.49
421.62	6.64
421.823	6.64
422.027	6.82
422.231	6.76
422.435	6.66
422.638	6.68
422.842	6.79
423.046	6.75
423.249	6.98
423.453	6.91
423.657	6.97
423.86	6.9
424.064	7.04
424.268	7.09
424.471	6.9
424.675	7.04
424.878	6.99
425.082	7.02
425.285	7.06
425.489	6.78
425.692	6.8
425.896	6.61
426.099	6.67
426.303	6.57
426.506	6.51
426.71	6.59
426.913	6.49
427.116	6.42
427.32	6.16
427.523	6.05
427.726	6.21
427.93	5.89
428.133	5.97
428.336	5.94
428.54	5.75
428.743	5.7
428.946	5.66
429.149	5.41
429.353	5.21
429.556	5.01
429.759	4.81
429.962	4.69
430.165	4.63
430.368	4.21
430.571	4.03
430.775	3.93
430.978	3.79
431.181	3.58
431.384	3.54
431.587	3.44
431.79	3.41
431.993	3.24
432.196	3.19
432.399	3.25
432.602	3.2
432.805	3.04
433.008	3.16
433.211	2.95
433.414	3
433.616	2.94
433.819	2.66
434.022	2.58
434.225	2.66
434.428	2.56
434.631	2.69
434.833	2.35
435.036	2.43
435.239	2.41
435.442	2.23
435.645	2.22
435.847	2.18
436.05	2.13
436.253	2.16
436.455	2.02
436.658	2.01
436.861	2
437.063	1.94
437.266	1.79
437.468	1.87
437.671	1.9
437.874	1.79
438.076	1.68
438.279	1.61
438.481	1.63
438.684	1.57
438.886	1.57
439.089	1.53
439.291	1.45
439.494	1.54
439.696	1.38
439.899	1.46
440.101	1.43
440.303	1.33
440.506	1.43
440.708	1.33
440.91	1.35
441.113	1.25
441.315	1.29
441.517	1.11
441.72	1.21
441.922	1.11
442.124	0.92
442.326	1.11
442.529	1.08
442.731	0.92
442.933	1.02
443.135	0.88
443.337	0.84
443.539	0.89
443.742	0.84
443.944	0.83
444.146	0.72
444.348	0.76
444.55	0.7
444.752	0.71
444.954	0.65
445.156	0.65
445.358	0.68
445.56	0.69
445.762	0.61
445.964	0.6
446.166	0.57
446.368	0.56
446.57	0.6
446.772	0.59
446.974	0.51
447.175	0.52
447.377	0.45
447.579	0.5
447.781	0.41
447.983	0.53
448.184	0.47
448.386	0.49
448.588	0.35
448.79	0.36
448.991	0.38
449.193	0.41
449.395	0.38
449.597	0.42
449.798	0.38
450	0.38
450.202	0.35
450.403	0.36
450.605	0.39
450.806	0.32
451.008	0.28
451.21	0.32
451.411	0.33
451.613	0.29
451.814	0.3
452.016	0.33
452.217	0.26
452.419	0.34
452.62	0.27
452.821	0.26
453.023	0.36
453.224	0.33
453.426	0.25
453.627	0.27
453.828	0.29
454.03	0.2
454.231	0.31
454.432	0.16
454.634	0.33
454.835	0.22
455.036	0.18
455.238	0.25
455.439	0.3
455.64	0.13
455.841	0.17
456.042	0.21
456.244	0.2
456.445	0.21
456.646	0.14
456.847	0.17
457.048	0.26
457.249	0.24
457.45	0.42
457.651	0.13
457.852	0.21
458.054	0.17
458.255	0.09
458.456	0.17
458.657	0.16
458.858	0.13
459.058	0.11
459.259	0.25
459.46	0.1
459.661	0.13
459.862	0.29
460.063	0.13
460.264	0.12
460.465	0.03
460.666	0.22
460.866	0.08
461.067	0.11
461.268	0.07
461.469	0.07
461.67	0.15
461.87	0.1
462.071	0.08
462.272	0.02
462.473	0.11
462.673	0.13
462.874	0.03
463.075	0.13
463.275	0.02
463.476	0.13
463.676	0.1
463.877	0.09
464.078	0.1
464.278	0.18
464.479	0.12
464.679	0.11
464.88	0.03
465.08	0.16
465.281	0.08
465.481	0.04
465.682	0.06
465.882	0.1
466.083	0.14
466.283	0.05
466.483	0.11
466.684	0.06
466.884	0.03
467.085	0.05
467.285	0.14
467.485	0.05
467.686	0.09
467.886	0.03
468.086	0.09
468.286	0.08
468.487	0.1
468.687	-0.01
468.887	0.02
469.087	0.06
469.287	0.05
469.488	-0.02
469.688	0.12
469.888	0.12
470.088	0.09
470.288	0.11
470.488	0.12
470.688	-0
470.888	0.03
471.088	-0.01
471.288	0.09
471.488	0.08
471.688	0.08
471.888	0.02
472.088	0.11
472.288	0.1
472.488	-0.02
472.688	0.01
472.888	0.05
473.088	0.04
473.288	0.06
473.488	0.07
473.688	0.13
473.887	0.04
474.087	0.01
474.287	0.05
474.487	0.02
474.687	0.06
474.886	0
475.086	0.02
475.286	0.06
475.486	0.03
475.685	0.05
475.885	0.02
476.085	0.04
476.284	0.05
476.484	-0.02
476.684	0.07
476.883	0.08
477.083	0.07
477.282	0.02
477.482	0.1
477.681	0.07
477.881	0.04
478.08	-0.01
478.28	0.03
478.479	0.07
478.679	0.11
478.878	0
479.078	-0.02
479.277	0.01
479.477	0.04
479.676	0.06
479.875	0.01
480.075	-0.04
480.274	0.06
480.473	0.08
480.673	0.02
480.872	0.06
481.071	0.04
481.271	0.05
481.47	0
481.669	0.02
481.868	0.01
482.067	-0.01
482.267	-0.02
482.466	0.01
482.665	-0
482.864	-0.01
483.063	-0
483.262	0.05
483.461	0.04
483.661	0.04
483.86	0.03
484.059	0.01
484.258	0.03
484.457	0.04
484.656	0.02
484.855	0.08
485.054	-0.02
485.253	-0.01
485.452	-0.02
485.651	0.03
485.849	0.04
486.048	-0.03
486.247	-0.04
486.446	0.01
486.645	-0.03
486.844	0.01
487.043	0
487.241	0.04
487.44	-0.01
487.639	0.03
487.838	0.03
488.037	0.01
488.235	0.05
488.434	0
488.633	0.01
488.831	0.05
489.03	0.04
489.229	0.01
489.427	-0.01
489.626	0.07
489.825	0.07
490.023	0.02
490.222	-0.02
490.42	0.06
490.619	0.05
490.817	0.03
491.016	-0.01
491.214	0.06
491.413	-0
491.611	0
491.81	0.01
492.008	0.04
492.207	0.06
492.405	0.04
492.604	-0.01
492.802	0.02
493	-0.01
493.199	-0.01
493.397	0.02
493.595	0.01
493.794	0.02
493.992	0.05
494.19	0.01
494.388	0.04
494.587	-0.01
494.785	0.02
494.983	-0.03
495.181	0.02
495.379	0.02
495.578	0.01
495.776	0.02
495.974	0.02
496.172	0
496.37	0
496.568	-0.01
496.766	-0.03
496.964	0.03
497.162	0
497.36	-0.02
497.558	0.03
497.756	0.03
497.954	0.03
498.152	-0.02
498.35	0.01
498.548	0.04
498.746	0.01
498.944	0
499.142	0.01
499.34	-0.02
499.538	0.01
499.736	-0.02
499.933	0.07
500.131	0.04
500.329	0.02
500.527	0.04
500.725	0.06
500.922	0.03
501.12	0.03
501.318	0.03
501.516	-0.01
501.713	0.05
501.911	-0.01
502.109	-0.02
502.306	0.01
502.504	0.01
502.701	-0.02
502.899	0.01
503.097	0.05
503.294	0.03
503.492	-0
503.689	0.02
503.887	0.02
504.084	0.06
504.282	-0
504.479	-0.03
504.677	0.03
504.874	0
505.072	0.01
505.269	0.01
505.466	0.03
505.664	0.02
505.861	-0.02
506.059	0.01
506.256	0.03
506.453	-0.01
506.651	0.05
506.848	0.03
507.045	0.01
507.242	0.03
507.44	0
507.637	0.01
507.834	-0
508.031	0.02
508.229	-0.02
508.426	0.01
508.623	0.03
508.82	0.01
509.017	-0.01
509.214	-0.01
509.411	0
509.608	-0.02
509.805	-0
510.003	-0.02
510.2	-0.01
510.397	0.03
510.594	-0.01
510.791	-0.01
510.988	0.01
511.184	0.03
511.381	0.02
511.578	-0.01
511.775	0.01
511.972	0
512.169	0
512.366	-0.01
512.563	0.04
512.76	-0
512.956	0.02
513.153	0
513.35	0.03
513.547	-0.04
513.744	-0.01
513.94	-0.04
514.137	0
514.334	-0
514.53	-0.01
514.727	0.01
514.924	0.07
515.12	-0.01
515.317	-0.02
515.514	0
515.71	-0.02
515.907	-0
516.103	0.02
516.3	-0
516.497	0.03
516.693	0.02
516.89	0.02
517.086	-0.03
517.283	0.04
517.479	0.01
517.676	0.01
517.872	-0
518.068	-0.02
518.265	-0.02
518.461	0.01
518.658	-0.01
518.854	0.01
519.05	0.01
519.247	-0.01
519.443	0.01
519.639	0.02
519.836	0.01
520.032	0.01
520.228	0.03
520.424	0.05
520.621	0.04
520.817	0.01
521.013	0.01
521.209	0.02
521.405	0.03
521.601	0.01
521.798	-0
521.994	0.05
522.19	0.01
522.386	-0.04
522.582	0.02
522.778	0.02
522.974	-0.01
523.17	0
523.366	0.01
523.562	0.03
523.758	0
523.954	-0.02
524.15	-0
524.346	0.02
524.542	0.01
524.738	-0.01
524.934	0.02
525.129	-0.01
525.325	0
525.521	-0
525.717	0.03
525.913	-0
526.109	0.02
526.304	0
526.5	0.04
526.696	0.03
526.892	0.03
527.087	0.01
527.283	-0.02
527.479	0
527.674	-0.01
527.87	-0
528.066	0
528.261	0.03
528.457	0.01
528.653	-0.01
528.848	-0
529.044	0.01
529.239	0.01
529.435	0.04
529.63	-0.01
529.826	0.06
530.021	0.02
530.217	0.01
530.412	-0
530.608	0.01
530.803	0.01
530.999	-0
531.194	-0.04
531.389	0.03
531.585	-0.05
531.78	0
531.975	0
532.171	0.02
532.366	-0.01
532.561	0
532.757	-0.02
532.952	0
533.147	0.03
533.342	-0.02
533.538	-0.01
533.733	0.03
533.928	0.01
534.123	0
534.318	-0.02
534.513	-0.01
534.709	-0
534.904	-0.01
535.099	-0.01
535.294	-0.01
535.489	-0
535.684	0
535.879	-0.02
536.074	0.02
536.269	-0.02
536.464	0.01
536.659	0.01
536.854	0.01
537.049	-0.01
537.244	0.01
537.439	-0.01
537.634	0.03
537.828	0.01
538.023	-0.01
538.218	-0.03
538.413	0
538.608	-0.03
538.803	0.03
538.997	-0.03
539.192	0.03
539.387	0.01
539.582	0.02
539.776	0.01
539.971	-0.01
540.166	0.01
540.36	-0.03
540.555	-0.01
540.75	-0.01
540.944	0.03
541.139	-0.03
541.334	-0.02
541.528	0.01
541.723	0.01
541.917	-0.02
542.112	-0.04
542.306	-0
542.501	-0.03
542.695	0.01
542.89	-0.02
543.084	0.01
543.279	-0.02
543.473	-0
543.668	-0
543.862	-0.01
544.056	0.03
544.251	0.01
544.445	0
544.64	0.01
544.834	-0.04
545.028	0.02
545.222	0.01
545.417	0.02
545.611	0.01
545.805	0.01
546	-0
546.194	-0.01
546.388	-0.01
546.582	0.01
546.776	0.02
546.97	-0
547.165	0.01
547.359	0.02
547.553	-0.02
547.747	0.01
547.941	0.01
548.135	0.01
548.329	0.03
548.523	-0
548.717	-0.01
548.911	-0.02
549.105	-0.01
549.299	0.01
549.493	0.01
549.687	0.02
549.881	0.02
550.075	-0.01
550.269	-0.04
550.463	0.01
550.657	-0.02
550.85	-0
551.044	-0.02
551.238	-0.01
551.432	-0.02
551.626	-0.02
551.82	0.01
552.013	-0.03
552.207	0.01
552.401	0.02
552.594	0
552.788	-0.01
552.982	-0
553.176	-0.01
553.369	0.01
553.563	0.02
553.756	-0.04
553.95	-0.03
554.144	-0
554.337	0.03
554.531	0
554.724	-0
554.918	0.01
555.111	0.01
555.305	0.01
555.498	0.05
555.692	0.02
555.885	-0.02
556.079	0.01
556.272	-0.01
556.466	0.02
556.659	0.01
556.852	-0.01
557.046	-0.01
557.239	0.04
557.432	-0.04
557.626	-0.02
557.819	0
558.012	0.03
558.206	0.02
558.399	0
558.592	0.01
558.785	-0
558.979	0.03
559.172	0.01
559.365	0.02
559.558	0
559.751	-0.02
559.944	0.02
560.138	-0.02
560.331	0.02
560.524	-0.01
560.717	-0
560.91	0
561.103	0.02
561.296	-0
561.489	0.02
561.682	-0.01
561.875	0.02
562.068	0.02
562.261	0.02
562.454	0.04
562.647	0.01
562.84	0.02
563.032	-0.01
563.225	0.02
563.418	-0.02
563.611	-0.01
563.804	0
563.997	-0.03
564.19	-0.01
564.382	-0.01
564.575	-0
564.768	0.01
564.961	0
565.153	-0.02
565.346	0.02
565.539	0.02
565.731	0.01
565.924	0.03
566.117	0.04
566.309	-0
566.502	-0.03
566.695	0.01
566.887	-0.03
567.08	-0.02
567.272	-0
567.465	-0.01
567.657	0.03
567.85	0.02
568.042	0.04
568.235	0.02
568.427	0.02
568.62	0.01
568.812	0.03
569.005	-0.01
569.197	-0.04
569.389	0.02
569.582	0.01
569.774	-0.02
569.966	-0.05
570.159	-0.01
570.351	0.03
570.543	-0.01
570.736	-0
570.928	-0.02
571.12	0.02
571.312	-0.02
571.505	-0.05
571.697	0.03
571.889	-0.02
572.081	-0.02
572.273	-0.02
572.465	0.02
572.658	0.02
572.85	0
573.042	-0.04
573.234	-0.02
573.426	0.03
573.618	-0.02
573.81	0.01
574.002	0.04
574.194	0.06
574.386	-0.03
574.578	-0.08
574.77	-0.04
574.962	-0
575.154	-0.05
575.346	-0.01
575.538	0.02
575.729	-0.01
575.921	-0.02
576.113	-0.01
576.305	0
576.497	-0
576.689	-0.01
576.88	-0.03
577.072	0.03
577.264	-0.01
577.456	0.01
577.647	-0.06
577.839	-0.01
578.031	0.05
578.223	-0.04
578.414	-0.05
578.606	0.02
578.798	0.01
578.989	-0.03
579.181	-0
579.372	-0
579.564	-0.01
579.755	-0.01
579.947	-0.01
580.139	0.02
580.33	-0.06
580.522	-0.03
580.713	-0.07
580.905	0
581.096	0.02
581.287	-0.04
581.479	-0.01
581.67	0.02
581.862	0.01
582.053	-0.03
582.244	-0.07
582.436	-0.01
582.627	-0.01
582.818	-0.03
583.01	-0.02
583.201	0.03
583.392	0.03
583.583	-0.03
583.775	-0.04
583.966	-0.02
584.157	-0.01
584.348	-0.02
584.54	-0.05
584.731	0
584.922	-0
585.113	-0.03
585.304	-0
585.495	0.05
585.686	-0.02
585.877	0
586.068	0.01
586.259	0.01
586.45	0.01
586.641	-0.03
586.832	-0.07
587.023	0.01
587.214	-0.02
587.405	0.02
587.596	-0.02
587.787	0.04
587.978	0.01
588.169	-0.03
588.36	-0.03
588.551	-0
588.742	-0.01
588.932	0.03
589.123	-0.01
589.314	0.02
589.505	0.02
589.696	0.01
589.886	-0.05
590.077	-0.04
590.268	0.01
590.458	-0.05
590.649	-0.07
590.84	0.02
591.03	-0.04
591.221	-0.04
591.412	-0.05
591.602	0.02
591.793	0.05
591.984	-0.03
592.174	-0.02
592.365	0.07
592.555	-0.04
592.746	-0
592.936	0.02
593.127	0.03
593.317	0.01
593.508	-0.03
593.698	-0.02
593.889	-0
594.079	0.01
594.269	-0.04
594.46	-0.01
594.65	-0.01
594.84	-0.01
595.031	-0.04
595.221	-0.04
595.411	-0.04
595.602	0.03
595.792	-0.02
595.982	-0.03
596.172	0.06
596.363	0.01
596.553	-0
596.743	0.01
596.933	-0.01
597.123	0.02
597.314	-0.01
597.504	-0.02
597.694	0.03
597.884	0.01
598.074	-0.02
598.264	-0.03
598.454	0
598.644	0.01
598.834	0
599.024	-0.07
599.214	0.04
599.404	0.01
599.594	-0.05
599.784	-0.06
599.974	0.05
600.164	0.02
600.354	-0.03
600.544	-0.06
600.734	-0.01
600.924	0.02
601.114	-0.01
601.303	-0.02
601.493	0.02
601.683	-0.01
601.873	-0.01
602.063	-0.05
602.252	0.02
602.442	-0.07
602.632	-0.03
602.821	-0.04
603.011	0.01
603.201	-0.01
603.39	-0.02
603.58	-0.03
603.77	-0
603.959	0.02
604.149	-0.02
604.339	-0.01
604.528	0.03
604.718	0.01
604.907	-0.02
605.097	-0.04
605.286	-0.04
605.476	0.01
605.665	0
605.855	-0.04
606.044	0.05
606.234	0.01
606.423	-0.04
606.612	-0.06
606.802	-0
606.991	0.03
607.181	0.02
607.37	-0.06
607.559	-0.03
607.749	-0.05
607.938	0.01
608.127	-0.02
608.316	-0.02
608.506	0.01
608.695	-0.03
608.884	-0.05
609.073	-0.02
609.263	0.01
609.452	0.02
609.641	0.02
609.83	-0.06
610.019	-0.02
610.208	-0.05
610.397	0
610.586	0.02
610.775	-0.02
610.965	0
611.154	-0.03
611.343	0.01
611.532	-0.01
611.721	-0.03
611.91	-0.04
612.099	-0.01
612.287	0.01
612.476	-0.03
612.665	0
612.854	-0.02
613.043	0.02
613.232	-0.02
613.421	-0.07
613.61	-0
613.798	-0.03
613.987	0.02
614.176	0.01
614.365	0.05
614.554	0.02
614.742	0.01
614.931	-0.03
615.12	0.02
615.309	-0.03
615.497	0.03
615.686	-0.03
615.875	-0.01
616.063	0.02
616.252	-0.03
616.44	-0.02
616.629	0.01
616.818	0.02
617.006	-0.02
617.195	-0.02
617.383	-0.01
617.572	-0.03
617.76	-0.04
617.949	-0.04
618.137	0.03
618.326	0.04
618.514	-0.04
618.703	-0.01
618.891	0.03
619.079	-0.08
619.268	0.02
619.456	-0.02
619.644	0.03
619.833	-0.02
620.021	-0.04
620.209	-0.05
620.398	0
620.586	0.01
620.774	0.03
620.962	-0.03
621.151	0.03
621.339	0.01
621.527	-0.05
621.715	-0.05
621.903	-0.04
622.092	-0.05
622.28	-0
622.468	-0.04
622.656	-0.03
622.844	0.02
623.032	-0.02
623.22	-0.07
623.408	0
623.596	-0.01
623.784	0.02
623.972	-0.03
624.16	-0.01
624.348	0.05
624.536	-0.01
624.724	-0.01
624.912	0.05
625.1	0
625.288	-0.03
625.476	-0.05
625.664	0.04
625.851	-0.04
626.039	0.04
626.227	0.01
626.415	-0.02
626.603	-0.07
626.79	-0.03
626.978	-0.03
627.166	0
627.354	-0
627.541	-0.02
627.729	-0.05
627.917	0.02
628.104	0.04
628.292	-0.01
628.48	-0.04
628.667	-0.01
628.855	-0.02
629.042	-0.02
629.23	-0.02
629.418	-0
629.605	-0
629.793	-0.03
629.98	-0.04
630.168	-0.03
630.355	-0.02
630.543	-0
630.73	-0.03
630.917	0.03
631.105	0.05
631.292	-0.01
631.48	-0.01
631.667	0.04
631.854	0.01
632.042	-0.04
632.229	-0.07
632.416	-0.03
632.604	-0
632.791	-0.08
632.978	0.01
633.165	0.03
633.353	0.03
633.54	-0.01
633.727	-0.06
633.914	-0.02
634.101	-0.08
634.289	0.03
634.476	-0.04
634.663	-0.03
634.85	0.03
635.037	-0.03
635.224	-0.08
635.411	0.03
635.598	0.05
635.785	-0.02
635.972	0.01
636.159	0.04
636.346	-0.04
636.533	-0.02
636.72	-0.04
636.907	-0.01
637.094	0.04
637.281	-0.03
637.468	0.02
637.655	-0.02
637.842	-0.01
638.029	-0.09
638.215	0.04
638.402	-0.02
638.589	-0.03
638.776	-0.03
638.963	-0.02
639.149	0.04
639.336	0.08
639.523	-0
639.709	-0.01
639.896	-0.01
640.083	0.04
640.27	-0.01
640.456	-0.03
640.643	0.02
640.829	-0.08
641.016	-0.01
641.203	-0.03
641.389	0
641.576	0.01
641.762	0
641.949	-0.04
642.135	0.02
642.322	-0.02
642.508	-0.04
642.695	-0.01
642.881	-0.04
643.068	-0.01
643.254	-0.03
643.441	0.04
643.627	0.01
643.813	-0.03
644	0.05
644.186	-0.03
644.372	0
644.559	0.03
644.745	-0.02
644.931	-0.06
645.118	-0.04
645.304	-0.01
645.49	-0.04
645.676	-0.01
645.862	0.01
646.049	0.03
646.235	-0.02
646.421	0.04
646.607	0.05
646.793	-0.03
646.979	-0.07
647.165	0.01
647.352	-0.01
647.538	0.03
647.724	-0.04
647.91	-0.01
648.096	0.02
648.282	0.01
648.468	-0.03
648.654	0
648.84	-0.03
649.026	-0.01
649.212	-0.02
649.397	-0.03
649.583	-0.04
649.769	-0
649.955	-0.02
650.141	-0
650.327	0.05
650.513	-0.04
650.698	0.03
650.884	-0.11
651.07	0.02
651.256	0.01
651.442	-0.01
651.627	-0
651.813	0.01
651.999	-0.02
652.184	0.01
652.37	-0.02
652.556	-0.02
652.741	0.05
652.927	-0.12
653.113	0
653.298	-0.01
653.484	-0.05
653.669	-0.07
653.855	-0.03
654.04	0.01
654.226	-0
654.412	-0.06
654.597	-0.06
654.782	-0.04
654.968	0.06
655.153	0.01
655.339	-0.03
655.524	-0.06
655.71	0.04
655.895	-0.03
656.08	-0.07
656.266	0.01
656.451	0.01
656.636	-0.04
656.822	0
657.007	-0.03
657.192	-0.02
657.378	-0.09
657.563	-0.05
657.748	-0
657.933	0.03
658.118	-0.01
658.304	-0
658.489	0.01
658.674	0
658.859	-0.05
659.044	-0.02
659.229	0
659.414	-0.05
659.599	-0
659.785	-0.05
659.97	-0.05
660.155	-0
660.34	-0.01
660.525	-0.02
660.71	-0.07
660.895	0.03
661.08	-0.02
661.264	-0.04
661.449	0.03
661.634	0.03
661.819	0.02
662.004	0.02
662.189	-0.07
662.374	-0.03
662.559	-0.04
662.743	-0.09
662.928	-0.02
663.113	0.03
663.298	-0.07
663.483	-0.02
663.667	0
663.852	-0.05
664.037	0.04
664.221	-0.06
664.406	-0.01
664.591	0.05
664.775	0.02
664.96	0.01
665.145	-0.04
665.329	0.01
665.514	-0.06
665.698	-0.04
665.883	-0.08
666.068	0.02
666.252	-0.03
666.437	-0.05
666.621	-0
666.806	0.01
666.99	-0.05
667.174	-0.04
667.359	0.01
667.543	-0.02
667.728	-0.02
667.912	-0.09
668.096	-0
668.281	-0
668.465	-0.04
668.649	-0.01
668.834	-0.04
669.018	-0.01
669.202	-0.04
669.387	-0.03
669.571	0.06
669.755	-0.02
669.939	-0.02
670.124	-0.01
670.308	0.08
670.492	-0.01
670.676	-0.02
670.86	-0.05
671.044	-0.07
671.228	0.03
671.413	-0.07
671.597	-0.08
671.781	-0.06
671.965	-0.01
672.149	-0.01
672.333	0
672.517	-0.06
672.701	0
672.885	-0.03
673.069	-0.08
673.253	0.07
673.437	-0.02
673.621	-0.07
673.804	-0.04
673.988	-0.02
674.172	-0.02
674.356	-0.08
674.54	-0.04
674.724	0.06
674.908	-0.03
675.091	0.03
675.275	-0.01
675.459	-0
675.643	0.06
675.826	-0.01
676.01	-0.02
676.194	-0.04
676.377	0.07
676.561	-0.02
676.745	-0.02
676.928	0.02
677.112	0.03
677.296	-0.04
677.479	-0.02
677.663	-0.06
677.846	0.03
678.03	-0.03
678.213	-0.07
678.397	-0.01
678.58	-0.03
678.764	-0.03
678.947	-0.05
679.131	-0.12
679.314	0.04
679.498	-0.02
679.681	-0.01
679.865	0.03
680.048	-0.04
680.231	-0.02
680.415	-0.01
680.598	-0.03
680.781	-0.01
680.965	-0.07
681.148	0.02
681.331	-0.02
681.514	0.03
681.698	-0.05
681.881	0.01
682.064	0.03
682.247	0.01
682.43	-0.09
682.614	-0.03
682.797	0.05
682.98	0.04
683.163	-0.04
683.346	-0.02
683.529	-0.01
683.712	-0.08
683.895	-0.03
684.078	-0.05
684.261	-0.04
684.444	0.02
684.627	-0.01
684.81	-0.06
684.993	0.02
685.176	0.02
685.359	-0.04
685.542	-0.07
685.725	0.05
685.908	-0.04
686.091	-0.02
686.274	0.01
686.457	-0.03
686.639	-0.02
686.822	-0.01
687.005	0
687.188	0.05
687.371	0.08
687.553	0.01
687.736	-0.02
687.919	0.03
688.102	0.03
688.284	-0.06
688.467	-0.03
688.65	0.03
688.832	-0.04
689.015	-0.02
689.197	-0.04
689.38	0.06
689.563	0.1
689.745	-0.04
689.928	-0.03
690.11	0.04
690.293	-0.02
690.475	-0.11
690.658	-0.02
690.84	-0.05
691.023	-0.03
691.205	-0.03
691.388	-0.02
691.57	0.05
691.752	0.03
691.935	-0.1
692.117	-0.03
692.3	0
692.482	0.01
692.664	-0
692.847	0.01
693.029	0.08
693.211	0.01
693.393	-0.02
693.576	-0.01
693.758	0
693.94	-0.04
694.122	-0.02
694.304	-0.02
694.487	-0.07
694.669	0.07
694.851	-0.06
695.033	-0.07
695.215	-0.04
695.397	-0.08
695.579	0.03
695.761	-0.04
695.943	-0.1
696.125	0.06
696.308	0.04
696.49	-0.1
696.671	0.11
696.853	-0.02
697.035	0.12
697.217	-0.05
697.399	0.04
697.581	-0.06
697.763	-0.02
697.945	-0.05
698.127	0.04
698.309	0.03
698.491	-0.02
698.672	0.04
698.854	0.07
699.036	0.04
699.218	-0.04
699.399	0.08
699.581	0.02
699.763	0
699.945	-0.01
700.126	-0.09
700.308	0.05
700.49	-0.05
700.671	-0.07
700.853	-0.09
701.035	-0.03
701.216	-0.02
701.398	-0.06
701.579	-0.01
701.761	0.04
701.943	-0.03
702.124	-0.03
702.306	-0.01
702.487	0.1
702.669	-0.06
702.85	-0.09
703.031	-0.1
703.213	0.07
703.394	0.06
703.576	-0.02
703.757	0.03
703.938	0.03
704.12	0.1
704.301	-0.03
704.483	-0.05
704.664	-0.03
704.845	0.06
705.026	0.06
705.208	-0.01
705.389	-0.01
705.57	0.01
705.751	-0.03
705.933	-0.06
706.114	0.03
706.295	-0.01
706.476	-0.08
706.657	0.09
706.838	-0
707.02	0.05
707.201	-0.05
707.382	-0.05
707.563	0.05
707.744	-0.03
707.925	-0.1
708.106	-0.04
708.287	0.02
708.468	0.01
708.649	-0.04
708.83	-0.03
709.011	-0.06
709.192	0.04
709.373	-0.06
709.554	-0
709.734	0.01
709.915	0.01
710.096	-0.04
710.277	-0.11
710.458	-0.03
710.639	0.05
710.819	-0.12
711	-0.02
711.181	-0
711.362	0.06
711.542	-0.06
711.723	-0.03
711.904	0.07
712.085	0
712.265	0.01
712.446	-0.06
712.627	-0.07
712.807	0.07
712.988	-0
713.168	-0.08
713.349	0.07
713.53	-0.16
713.71	-0.07
713.891	-0.08
714.071	-0.02
714.252	-0.07
714.432	-0.12
714.613	-0.05
714.793	0.02
714.974	0.07
715.154	0.05
715.334	-0.05
715.515	0.01
715.695	-0.06
715.876	-0
716.056	-0.06
716.236	-0.06
716.417	-0.02
716.597	-0.14
716.777	0.22
716.957	-0.01
717.138	-0.09
717.318	-0
717.498	-0.06
717.678	-0.06
717.859	-0.01
718.039	-0.07
718.219	-0.02
718.399	0.1
718.579	-0.07
718.759	-0.08
718.939	-0.02
719.12	0.02
719.3	-0.02
719.48	-0.19
719.66	-0.08
719.84	0.06
720.02	0.02
720.2	-0.08
720.38	-0.03
720.56	0.04
720.74	0
720.92	-0.07
721.1	0.06
721.279	0.03
721.459	-0.01
721.639	-0.11
721.819	0.01
721.999	-0.03
722.179	-0.03
722.359	-0.1
722.538	-0.03
722.718	0.05
722.898	-0.07
723.078	-0.07
723.257	-0.1
723.437	0.01
723.617	-0.01
723.797	-0.01
723.976	-0
724.156	0.02
724.336	-0.02
724.515	0.08
724.695	-0.16
724.874	-0.12
725.054	0.04
725.234	-0.07
725.413	-0.04
725.593	0.01
725.772	-0.01
725.952	-0.07
726.131	-0.03
726.311	-0.03
726.49	-0.13
726.67	-0.01
726.849	-0.06
727.028	-0.01
727.208	-0.04
727.387	0.02
727.567	-0.11
727.746	-0.02
727.925	-0.01
728.105	-0.08
728.284	-0.03
728.463	-0.07
728.643	0.03
728.822	-0.09
729.001	-0.11
729.18	-0.09
729.359	0
729.539	-0.04
729.718	0.01
729.897	0.05
730.076	-0.07
730.255	-0.13
730.434	-0.03
730.614	0.02
730.793	0.11
730.972	-0.04
731.151	-0.06
731.33	0.19
731.509	0.05
731.688	-0.03
731.867	-0.1
732.046	-0.17
732.225	0.23
732.404	-0.15
732.583	-0.23
732.762	0.02
732.941	0.08
733.12	-0.1
733.298	-0.02
733.477	0.03
733.656	-0.04
733.835	-0.15
734.014	0.06
734.193	-0.11
734.371	0.02
734.55	-0.04
734.729	-0.11
734.908	-0
735.086	0.06
735.265	0.12
735.444	-0.2
735.623	-0.14
735.801	-0.12
735.98	-0.03
736.159	-0.11
736.337	0.03
736.516	-0.11
736.694	-0.07
736.873	-0.06
737.052	0.13
737.23	0.07
737.409	0
737.587	0.17
737.766	-0.17
737.944	-0.11
738.123	0.03
738.301	-0.06
738.479	-0.05
738.658	0.06
738.836	-0.18
739.015	0
739.193	0.02
739.371	-0.11
739.55	-0.05
739.728	-0.08
739.906	0.08
740.085	0.12
740.263	-0.04
740.441	-0.13
740.62	0.03
740.798	0
740.976	-0.07
741.154	-0.07
741.332	0.15
741.511	-0.01
741.689	-0.02
741.867	0.05
742.045	-0.03
742.223	-0.03
742.401	0.09
742.579	-0.1
742.757	0.05
742.935	-0.19
743.114	-0.14
743.292	-0.03
743.47	-0.12
743.648	-0.04
743.826	-0.01
744.004	0.13
744.181	0.19
744.359	-0.03
744.537	-0.02
744.715	-0.19
744.893	0.07
745.071	0.01
745.249	-0.09
745.427	0.04
745.605	0.02
745.782	-0.02
745.96	0.02
746.138	0.03
746.316	0.05
746.493	-0.02
746.671	0.01
746.849	-0.1
747.027	0.17
747.204	-0.15
747.382	0.05
747.56	-0.12
747.737	-0.04
747.915	-0.04
748.093	-0
748.27	-0.12
748.448	-0.08
748.625	-0.14
748.803	-0.13
748.98	-0.01
749.158	-0.02
749.335	0.05
749.513	-0.13
749.69	-0.07
749.868	-0.02
750.045	0.07
750.223	-0.06
750.4	-0.31
750.578	0.11
750.755	-0.03
750.932	-0.18
751.11	0.17
751.287	-0.12
751.464	0.13
751.642	-0.09
751.819	-0.01
751.996	-0.03
752.173	-0.16
752.351	-0.12
752.528	-0.01
752.705	-0.05
752.882	-0.03
753.06	0.06
753.237	0.14
753.414	0.15
753.591	0.08
753.768	0.01
753.945	-0.13
754.122	-0.06
754.299	-0.05
754.476	-0.07
754.654	-0.03
754.831	-0.02
755.008	0.04
755.185	-0.11
755.362	-0.19
755.539	0.02
755.716	-0.13
755.892	-0.01
756.069	-0.04
756.246	0.01
756.423	-0.13
756.6	0.09
756.777	-0.2
756.954	0.05
757.131	-0.08
757.307	-0.13
757.484	-0.19
757.661	-0.05
757.838	0.01
758.015	-0.17
758.191	-0.04
758.368	0
758.545	0.17
758.721	0.02
758.898	-0.23
759.075	0.1
759.251	0.1
759.428	0.1
759.605	-0.07
759.781	-0.01
759.958	-0.15
760.134	0.06
760.311	0.05
760.488	0.05
760.664	0.19
760.841	0
761.017	-0.15
761.194	0.1
761.37	0.04
761.547	0.02
761.723	-0.03
761.899	0.05
762.076	-0.08
762.252	-0.23
762.429	-0.09
762.605	-0.02
762.781	0.04
762.958	0.06
763.134	-0.06
763.31	-0.19
763.486	0.15
763.663	-0.27
763.839	0.08
764.015	-0.13
764.191	-0.15
764.368	-0.08
764.544	-0.06
764.72	0.04
764.896	0.09
765.072	0.03
765.248	-0.17
765.425	-0.09
765.601	-0.01
765.777	-0.03
765.953	-0.34
766.129	-0.05
766.305	-0.19
766.481	0.06
766.657	-0.13
766.833	0.29
767.009	-0.01
767.185	-0.07
767.361	0.02
767.537	-0.23
767.713	0.04
767.889	-0.04
768.065	0.04
768.24	-0.25
768.416	0.13
768.592	-0.1
768.768	-0.15
768.944	0.1
769.12	-0.12
769.295	-0.09
769.471	-0.03
769.647	0.04
769.823	-0.02
769.998	-0.27
770.174	-0.12
770.35	0.31
770.525	0.15
770.701	-0.01
770.877	-0.1
771.052	-0.12
771.228	0.06
771.403	-0.16
771.579	0.04
771.755	0.19
771.93	-0.1
772.106	-0.28
772.281	-0.18
772.457	-0.12
772.632	0.03
772.808	-0.26
772.983	-0.01
773.159	-0.17
773.334	-0.04
773.509	-0.02
773.685	-0.13
773.86	0.3
774.036	0.08
774.211	0.04
774.386	0.01
774.562	0.02
774.737	0.2
774.912	-0.05
775.087	0.04
775.263	-0
775.438	-0.03
775.613	-0.1
775.788	-0.07
775.964	0.17
776.139	0.36
776.314	-0.17
776.489	0.05
776.664	-0.09
776.839	-0.1
777.014	0.22
777.19	0.04
777.365	0.09
777.54	0.03
777.715	-0.08
777.89	0
778.065	-0.28
778.24	0.01
778.415	0.15
778.59	-0.18
778.765	-0.07
778.94	0.14
779.115	-0.06
779.289	-0.11
779.464	0.02
779.639	-0.05
779.814	-0.2
779.989	-0.24
780.164	0.09
780.339	-0.07
780.513	-0.27
780.688	0.02
780.863	-0.14
781.038	0.09
781.212	-0.24
781.387	0
781.562	0.21
781.737	0.01
781.911	0.13
782.086	-0.08
782.261	-0.01
782.435	0.29
782.61	-0.2
782.784	-0.08
782.959	0.12
783.134	-0.32
783.308	-0.28
783.483	-0.17
783.657	0.27
783.832	-0
784.006	-0.5
784.181	-0.11
784.355	0.05
784.53	-0.28
784.704	-0.38
784.878	0.27
785.053	0.07
785.227	0.21
785.402	0.23
785.576	-0.26
785.75	-0.04
785.925	-0.04
786.099	0.04
786.273	0
786.448	0.06
786.622	-0.04
786.796	-0.12
786.97	-0.16
787.145	0.51
787.319	-0.36
787.493	0.04
787.667	-0.48
787.841	-0.1
788.015	0.44
788.19	-0.13
788.364	0.17
788.538	0.16
788.712	0.1
788.886	-0.05
789.06	0.12
789.234	0.23
789.408	-0.3
789.582	-0.05
789.756	-0.3
789.93	-0.36
790.104	-0.16
790.278	-0
790.452	-0.14
790.626	-0.03
790.8	-0.1
790.973	0.12
791.147	0.21
791.321	0.1
791.495	0.2
791.669	-0.05
791.843	-0.1
792.016	0.04
792.19	0.51
792.364	-0.31
792.538	0.38
792.711	0.09
792.885	0.07
793.059	-0.29
793.233	-0.66
793.406	0.26
793.58	-0.05
793.754	0.08
793.927	-0.06
794.101	0.28
794.274	0.12
794.448	0.29
794.622	-0.17
794.795	0.35
794.969	-0.07
795.142	0.11
795.316	-0.15
795.489	-0.16
795.663	0.23
795.836	0.07
796.009	-0.27
796.183	0.29
796.356	0.14
796.53	-0.11
796.703	-0.11
796.876	0.43
797.05	-0.23
797.223	-0.11
797.396	-0.19
797.57	-0.06
797.743	0.27
797.916	0.23
798.09	-0.08
798.263	0.33
798.436	0.28
798.609	-0.08
798.782	-0.14
798.956	0.01
799.129	-0.11
799.302	0
799.475	-0.17
799.648	-0.24
799.821	-0.14
799.994	-0.04
800.167	-0.36
800.34	0.08
800.514	0.07
800.687	-0.06
800.86	-0.25
801.033	-0.06
801.206	0.02
801.379	-0.53
801.551	0.33
801.724	0.1
801.897	0.25
802.07	-0.2
802.243	-0.52
802.416	-0.27
802.589	-0.15
802.762	0.16
802.935	-0.27
803.107	0.01
803.28	0.04
803.453	0
803.626	-0.35
803.798	-0.07
803.971	-0.31
804.144	0.06
804.317	0.16
804.489	-0.04
804.662	-0.06
804.835	-0.06
805.007	-0.22
805.18	0.28
805.353	-0.11
805.525	-0.38
805.698	-0.18
805.87	0.06
806.043	0.26
806.215	-0.52
806.388	-0.07
806.56	0.01
806.733	0.32
806.905	-0.05
807.078	0.02
807.25	-0.52
807.423	-0.04
807.595	-0.19
807.768	0.08
807.94	0.3
808.112	0.37
808.285	-0.05
808.457	-0.46
808.629	0
808.802	0.15
808.974	-0.14
809.146	-0.47
809.318	-0.22
809.491	-0.18
809.663	0.18
809.835	-0.31
810.007	0.05
810.18	-0.1
810.352	-0.52
810.524	0.03
810.696	-0.02
810.868	0.18
811.04	-0.37
811.212	-0.51
811.384	0.35
811.556	0.08
811.728	-0.33
811.901	0.54
812.073	0.12
812.245	0.28
812.417	0.16
812.589	-0.66
812.76	-0.07
812.932	-0.16
813.104	0.11
813.276	-0.16
813.448	0.16
813.62	-0.02
813.792	0.08
813.964	-0.25
814.136	0.19
814.307	-0.28
814.479	-0.31
814.651	-0.26
814.823	0.57
814.995	-0.28
815.166	0.21
815.338	-0.31
815.51	-0.72
815.681	0.73
815.853	-0.09
816.025	-0.33
816.196	0.61
816.368	0.12
816.54	-0.76
816.711	-0.47
816.883	0.37
817.054	0.79
817.226	-0.62
817.398	0.26
817.569	-0.45
817.741	-0.17
817.912	0.01
818.084	-0.15
818.255	0.07
818.426	-0.02
818.598	-0.1
818.769	-0.55
818.941	0.64
819.112	0.46
819.283	0.41
819.455	-0.42
819.626	0.47
819.798	0.36
819.969	0.22
820.14	0.02
820.311	-0.29
820.483	-0.12
820.654	-0.18
820.825	0.09
820.996	-0.05
821.168	-0.77
821.339	0.12
821.51	-0.46
821.681	-0.41
821.852	-0.27
822.023	-0.72
822.195	-0.29
822.366	0.41
822.537	0.31
822.708	0.16
822.879	-0.2
823.05	0.66
823.221	-0.22
823.392	0.14
823.563	0
823.734	-0.26
823.905	-0.22
824.076	-0.49
824.247	-0.57
824.418	-0.27
824.589	0.51
824.759	-0.37
824.93	0.05
825.101	-0.47
825.272	0.27
825.443	0.55
825.614	0.66
825.784	-1.25
825.955	1.26
826.126	0.79
826.297	-0.23
826.467	0.32
826.638	0.61
826.809	-0.57
826.98	-0.15
827.15	0.29
827.321	-0.18
827.492	0.81
827.662	-0.11
827.833	0.39
828.003	0.3
828.174	-0.68
828.345	-0.68
828.515	0.37
828.686	0.12
828.856	0.02
829.027	0.03
829.197	0.32
829.368	-0.02
829.538	-0.24
829.709	-0.29
829.879	-0.1
830.049	-0.19
830.22	-0.42
830.39	-0.56
830.56	0.57
830.731	-0.24
830.901	-0.54
831.072	0.04
831.242	-0.01
831.412	-0.16
831.582	0.09
831.753	-0.37
831.923	0.19
832.093	0.04
832.263	0.11
832.434	-0.79
832.604	-0.29
832.774	0.37
832.944	-0.52
833.114	-0.63
833.284	0.33
833.454	-0.24
833.624	-0.83
833.795	0.19
833.965	1.06
834.135	0.87
834.305	-1.02
834.475	-0.44
834.645	-0.03
834.815	0.34
834.985	-0.26
835.155	-0.4
835.325	-0.12
835.494	-0.09
835.664	-0.22
835.834	-1.24
836.004	-0.68
836.174	0.13
836.344	-0.72
836.514	-1.23
836.684	-0.6
836.853	0.06
837.023	-0.09
837.193	-0.8
837.363	1.03
837.532	0.53
837.702	-0.98
837.872	-1.25
838.041	-0.11
838.211	1.33
838.381	-1.2
838.55	-0.07
838.72	2.16
838.89	0.95
839.059	-0.65
839.229	-0.59
839.398	1.81
839.568	-0.53
839.738	-0.27
839.907	0.49
840.077	0.3
840.246	-0.62
840.416	-0.37
840.585	-1.14
840.755	2.09
840.924	0.38
841.093	-0.95
841.263	-0.85
841.432	-0.34
841.602	-1.43
841.771	-0.86
841.94	0.26
842.11	1.75
842.279	1.81
842.448	-0.31
842.617	-0.48
842.787	1.33
842.956	-1.13
843.125	-0.71
843.294	0.38
843.464	0.93
843.633	0.24
843.802	-0.74
843.971	-0.22
844.14	0.34
844.309	0.97
844.479	-1.34
844.648	-0.91
844.817	-1.25
844.986	-0.05
845.155	-0.14
845.324	0.07
845.493	0.68
845.662	-0.25
845.831	0.17
846	0.53
846.169	-0.42
846.338	1.19
846.507	0.47
846.676	0.23
846.844	-0.38
847.013	0.67
847.182	-0.22
847.351	-0.78
847.52	-0.11
847.689	0
847.858	-0.32
848.026	-0.57
848.195	0.77
848.364	-0.46
848.533	-0.85
848.701	-1.21
848.87	0.85
849.039	0.87
849.207	0.47
849.376	0.8
849.545	1.45
849.713	-1.15
849.882	-0.62
850.051	-0.29
850.219	0.15
850.388	-0.1
850.556	-1.67
850.725	-0.58
850.893	-0.06
851.062	-0.75
851.23	0.58
851.399	-1.58
851.567	-0.53
851.736	-0.41
851.904	-0.47
852.073	-0.9
852.241	0.13
852.41	-1.22
852.578	-0.36
852.746	-0.79
852.915	0.58
853.083	0.78
853.251	-1.83
853.42	-0.89
853.588	-0.32
853.756	0.91
853.924	-0.38
854.093	-0.23
854.261	-0.35
854.429	-1.2
854.597	0.22
854.765	-2.2
854.934	-0.1
855.102	0.49
855.27	-0.01
855.438	-0.19
855.606	1.14
855.774	1.1
855.942	-1
856.11	-2.08
856.278	0.08
856.446	1.47
856.614	-0.15
856.782	-0.28
856.95	1.35
857.118	0.12
857.286	0.11
857.454	-0.79
857.622	-0.19
857.79	-0.04
857.958	-1.63
858.126	-1.31
858.294	-1.61
858.462	-0.56
858.629	-0.86
858.797	-1.2
858.965	-0.03
859.133	0.06
859.301	-0.09
859.468	0.08
859.636	-1.03
859.804	1.63
859.971	0.69
860.139	-1.71
860.307	1.24
860.474	0.82
860.642	-2.47
860.81	-0.26
860.977	-1.34
861.145	0.44
861.313	-0.33
861.48	0.14
861.648	0.34
861.815	-1.12
861.983	-2.03
862.15	-0.82
862.318	1.81
862.485	1.29
862.653	-0.98
862.82	-1.81
862.988	1.59
863.155	0.15
863.322	-1.37
863.49	-1.03
863.657	-0.83
863.824	1.13
863.992	0.9
864.159	-0.1
864.326	1.9
864.494	-0.04
864.661	2.46
864.828	-2.43
864.996	1.44
865.163	2.74
865.33	-1.12
865.497	-2.79
865.664	-2.04
865.832	-1.82
865.999	-0.95
866.166	-1.65
866.333	-0.57
866.5	-2.29
866.667	-1.11
866.834	0.14
867.001	-0.63
867.168	-2.19
867.335	-0.58
867.502	-1.17
867.669	-0.62
867.836	1.97
868.003	-0.09
868.17	0.11
868.337	1.86
868.504	2.81
868.671	-2.62
868.838	-0.69
869.005	-0.42
869.172	2.14
869.339	-1.61
869.505	-0.31
869.672	1.44
869.839	0.8
870.006	0.3
870.173	-0.55
870.339	1.34
870.506	2.15
870.673	-1.96
870.84	0.16
871.006	1.32
871.173	-0.73
871.34	-0.64
871.506	-1.72
871.673	0.65
871.839	-2.97
872.006	-0.98
872.173	-1.31
872.339	0.05
872.506	1.36
872.672	-0.11
872.839	-2.15
873.005	-0.31
873.172	3.94
873.338	0.08
873.505	-1.05
873.671	2.16
873.838	0.53
874.004	-2.7
874.171	-1.57
874.337	0.07
874.503	0.9
874.67	-0.96
874.836	-1.15
875.002	2.13
875.169	1.51
875.335	0.89
875.501	-2.01
875.668	1.34
875.834	-0.41
876	-0.46
876.166	0.59
876.332	1.4
876.499	1.9
876.665	-1.81
876.831	-0.66
876.997	4.52
877.163	1.75
877.329	-1.59
877.495	-0.6
877.662	1.3
877.828	0.09
877.994	-0.37
878.16	-4.17
878.326	-1.09
878.492	0.3
878.658	-1.29
878.824	0.37
878.99	1.47
879.156	-2.4
879.322	2.2
879.487	-1.18
879.653	0.38
879.819	0.49
879.985	-1.63
880.151	0.19
880.317	0.9
880.483	-1.14
880.648	0.39
880.814	-2.84
880.98	0.38
881.146	-3.02
881.312	-1.7
881.477	-0.47
881.643	-0.19
881.809	1.85
881.974	-0.32
882.14	-2.72
882.306	0.96
882.471	2.86
882.637	-1.43
882.803	0.53
882.968	3.2
883.134	1.55
883.299	-0.3
883.465	-1.25
883.63	0.45
883.796	-1.32
883.961	-0.36
884.127	0.45
884.292	-4.9
884.458	-3.64
884.623	-3.63
