Data from Apollo_Calib_20240827__AbsoluteIrradiance__337__04-46-00-795.txt Node

Date: Wed Aug 28 04:46:00 BST 2024
User: biology
Spectrometer: FLMT08252
Trigger mode: 0
Integration Time (sec): 5.000000E-1
Scans to average: 5
Electric dark correction enabled: true
Nonlinearity correction enabled: false
Boxcar width: 0
XAxis mode: Wavelengths
Number of Pixels in Spectrum: 3648
>>>>>Begin Spectral Data<<<<<
179.588	-0
179.809	-0
180.03	-0
180.251	-0
180.473	-0
180.694	0
180.915	0
181.136	-0
181.357	0
181.578	-0
181.799	-0
182.02	-0
182.241	0
182.462	-0
182.683	0
182.904	-0
183.125	-0
183.346	0
183.567	0
183.788	-0
184.009	-0
184.23	0
184.451	0
184.672	-0
184.892	-0
185.113	0
185.334	0
185.555	-0
185.776	-0
185.996	0
186.217	0
186.438	-0
186.659	-0
186.879	-0
187.1	0
187.321	-0
187.541	-0
187.762	0
187.983	0
188.203	-0
188.424	0
188.644	-0
188.865	0
189.086	-0
189.306	-0
189.527	-0
189.747	0
189.968	-0
190.188	0
190.409	-0
190.629	0
190.849	-0
191.07	0
191.29	0
191.511	0
191.731	0
191.951	-0
192.172	0
192.392	0
192.612	0
192.833	-0
193.053	0
193.273	0
193.493	-0
193.714	-0
193.934	0
194.154	0
194.374	-0
194.594	0
194.815	0
195.035	0
195.255	0
195.475	-0
195.695	0
195.915	-0
196.135	-0
196.355	0
196.575	0
196.795	0
197.015	-0
197.235	-0
197.455	-0
197.675	0
197.895	-0
198.115	-0
198.335	0
198.555	-0
198.775	0
198.995	0
199.214	0
199.434	-0
199.654	-0
199.874	-0
200.094	1.23
200.313	0.52
200.533	-0.4
200.753	-0.32
200.973	0.83
201.192	0.52
201.412	-1.13
201.632	-0.14
201.851	0.73
202.071	-0.4
202.291	-0.2
202.51	-0.55
202.73	0.77
202.95	0.14
203.169	-0.64
203.389	-0.16
203.608	0.16
203.828	-0.14
204.047	-0.01
204.267	0.43
204.486	0.3
204.706	0.24
204.925	-0.5
205.145	0.11
205.364	0.33
205.583	0.89
205.803	-0.13
206.022	-0.14
206.242	0.16
206.461	0.33
206.68	-0.48
206.9	0.02
207.119	0.5
207.338	0.94
207.557	-0.15
207.777	-0.05
207.996	-0.01
208.215	0.38
208.434	0.14
208.654	-0.31
208.873	-0.07
209.092	0.62
209.311	0.06
209.53	-0.19
209.749	0.15
209.968	-0.04
210.187	0.1
210.407	-0.32
210.626	-0.02
210.845	0.27
211.064	0.29
211.283	-0.4
211.502	0.3
211.721	0.25
211.94	-0.1
212.159	0.36
212.377	0.13
212.596	0.45
212.815	0.13
213.034	0.12
213.253	0.25
213.472	0.35
213.691	0.07
213.91	-0.21
214.128	-0.23
214.347	0.29
214.566	-0.41
214.785	-0.24
215.003	0.26
215.222	0.22
215.441	0.02
215.66	-0.16
215.878	0.14
216.097	0.47
216.316	-0.12
216.534	-0.19
216.753	0.19
216.972	0.1
217.19	-0.02
217.409	-0.13
217.627	-0.08
217.846	-0.09
218.064	-0.16
218.283	-0.2
218.501	0.35
218.72	0.29
218.938	-0.11
219.157	-0.08
219.375	0.22
219.594	0.15
219.812	-0.17
220.031	-0.26
220.249	0.35
220.467	0.41
220.686	0.03
220.904	-0.23
221.122	-0.1
221.341	0.21
221.559	0.06
221.777	-0.26
221.995	0.09
222.214	0.05
222.432	-0.11
222.65	0.14
222.868	0.08
223.086	0.06
223.305	0.06
223.523	0.01
223.741	0.35
223.959	0
224.177	-0.25
224.395	0.05
224.613	0.06
224.831	0.29
225.049	-0.06
225.267	-0.11
225.485	0.17
225.703	0.02
225.921	-0.03
226.139	-0.09
226.357	0.19
226.575	0.19
226.793	-0.02
227.011	0.52
227.229	0.07
227.447	0.11
227.665	-0.06
227.883	-0.21
228.1	0.03
228.318	0.03
228.536	-0.17
228.754	-0.1
228.972	0.1
229.189	0.06
229.407	-0.01
229.625	-0.1
229.843	0.18
230.06	0.17
230.278	-0.07
230.496	0.02
230.713	0.05
230.931	0.27
231.149	-0.04
231.366	-0.21
231.584	-0.03
231.801	0.42
232.019	0.07
232.236	-0.16
232.454	-0.15
232.671	0.07
232.889	0.05
233.106	-0.01
233.324	-0.04
233.541	-0.03
233.759	0.04
233.976	-0.1
234.194	0.08
234.411	-0.02
234.628	-0
234.846	0.01
235.063	0.04
235.28	0.04
235.498	0.06
235.715	-0.15
235.932	0.15
236.149	0.04
236.367	0.01
236.584	-0.02
236.801	0.08
237.018	0.17
237.236	0.07
237.453	-0.18
237.67	0.29
237.887	0.05
238.104	-0.03
238.321	-0.05
238.538	-0.1
238.755	0.21
238.973	-0.13
239.19	0.01
239.407	0.09
239.624	0.01
239.841	-0.11
240.058	-0.07
240.275	0.04
240.492	0
240.709	-0.01
240.925	-0.02
241.142	0.05
241.359	-0.1
241.576	-0.11
241.793	0.02
242.01	0.04
242.227	0.14
242.444	0.06
242.66	0.08
242.877	-0.01
243.094	0.03
243.311	-0.01
243.527	-0
243.744	0.09
243.961	0.13
244.178	0.01
244.394	-0.06
244.611	0.18
244.828	0.2
245.044	-0.12
245.261	-0.02
245.477	0.05
245.694	0.07
245.911	-0.04
246.127	0.07
246.344	0.15
246.56	0.05
246.777	-0.02
246.993	-0
247.21	0.03
247.426	0.01
247.643	-0.01
247.859	-0.07
248.076	-0.05
248.292	0.29
248.508	0
248.725	0.06
248.941	0.1
249.157	0.19
249.374	0.01
249.59	0.02
249.806	0.02
250.023	0.19
250.239	-0.01
250.455	-0.03
250.671	-0.02
250.888	0.09
251.104	0.06
251.32	0.01
251.536	0.06
251.752	0.02
251.969	0.04
252.185	0.03
252.401	0.19
252.617	0.1
252.833	-0
253.049	0.02
253.265	0.04
253.481	0.14
253.697	-0.06
253.913	-0.04
254.129	0.12
254.345	0.05
254.561	0.01
254.777	0.03
254.993	0.07
255.209	0.1
255.425	-0.03
255.641	-0.07
255.857	0.12
256.073	0.04
256.288	-0.08
256.504	-0.01
256.72	0.07
256.936	0.16
257.152	0.06
257.367	-0.05
257.583	0.07
257.799	0.14
258.015	-0.07
258.23	0.04
258.446	0.16
258.662	0.07
258.877	-0.01
259.093	-0.1
259.309	0.06
259.524	0.01
259.74	-0.01
259.955	-0.1
260.171	0.07
260.387	0.02
260.602	0.1
260.818	0.04
261.033	0
261.249	-0.02
261.464	-0.05
261.68	-0.08
261.895	0.13
262.11	0.17
262.326	-0.02
262.541	-0.06
262.757	0.09
262.972	0.05
263.187	0.06
263.403	0.01
263.618	0.04
263.833	0.06
264.049	-0.03
264.264	0.06
264.479	0.08
264.694	0.11
264.91	-0.01
265.125	-0.04
265.34	0.12
265.555	0.19
265.77	0.06
265.986	-0.02
266.201	0.08
266.416	0.18
266.631	0.01
266.846	0.04
267.061	0.05
267.276	0.08
267.491	-0.17
267.706	0.09
267.921	0.02
268.136	0.04
268.351	0.05
268.566	-0.04
268.781	0.13
268.996	0.11
269.211	0.04
269.426	-0.12
269.641	0.05
269.856	0.07
270.071	-0.06
270.285	-0.05
270.5	0.1
270.715	0.1
270.93	0.03
271.145	0.02
271.359	0.12
271.574	-0
271.789	0.03
272.004	-0.01
272.218	-0.02
272.433	0.03
272.648	-0.07
272.862	0.07
273.077	0.01
273.292	0.05
273.506	-0.04
273.721	0.02
273.936	0.08
274.15	0.07
274.365	0.02
274.579	0.03
274.794	0.02
275.008	0.14
275.223	-0.11
275.437	0.06
275.652	0.11
275.866	0.13
276.081	0.03
276.295	0.1
276.509	0.04
276.724	0.05
276.938	0.06
277.153	0.07
277.367	0.06
277.581	-0.02
277.796	0.01
278.01	-0.05
278.224	0.12
278.438	0.17
278.653	-0.05
278.867	0.01
279.081	-0.07
279.295	0.02
279.51	0.03
279.724	-0.02
279.938	0.08
280.152	0.05
280.366	-0.03
280.58	0.08
280.794	0.07
281.008	0.08
281.222	0.06
281.437	0.17
281.651	0.09
281.865	0.11
282.079	0.11
282.293	-0.06
282.507	-0.01
282.721	0.01
282.935	0.02
283.148	-0.03
283.362	0.02
283.576	-0.04
283.79	-0
284.004	-0.01
284.218	0.14
284.432	0.01
284.646	-0.01
284.859	0.03
285.073	0.04
285.287	0.09
285.501	0.02
285.714	-0.02
285.928	0.06
286.142	0.01
286.356	0
286.569	0.03
286.783	0.13
286.997	0.12
287.21	0.06
287.424	0.03
287.637	0.05
287.851	0.05
288.065	0.04
288.278	0.05
288.492	0.03
288.705	0.03
288.919	0.11
289.132	-0.04
289.346	0.08
289.559	-0.05
289.773	-0.02
289.986	0.03
290.2	0.03
290.413	0.1
290.626	0
290.84	0.02
291.053	0.03
291.267	0.11
291.48	0.06
291.693	0.05
291.906	0.04
292.12	0.06
292.333	0
292.546	0
292.76	0.11
292.973	0.08
293.186	0.05
293.399	0.01
293.612	0.12
293.826	0.04
294.039	0.03
294.252	0.04
294.465	0.1
294.678	0.05
294.891	0.05
295.104	0.01
295.317	0.03
295.53	0.04
295.743	0.06
295.956	-0
296.169	0.12
296.382	0.08
296.595	0.03
296.808	-0.02
297.021	0.11
297.234	0.08
297.447	0.05
297.66	0.09
297.873	0.13
298.086	0.07
298.299	-0.02
298.511	-0.02
298.724	0.04
298.937	-0.01
299.15	-0.01
299.363	0.1
299.575	0.1
299.788	0.03
300.001	0.05
300.213	0
300.426	0.04
300.639	-0
300.852	0.01
301.064	0.11
301.277	0.12
301.489	0.08
301.702	0.09
301.915	0.06
302.127	0.05
302.34	0.07
302.552	0.07
302.765	0.04
302.977	0.07
303.19	0.01
303.402	0.05
303.615	0.04
303.827	0.01
304.04	0.05
304.252	0.06
304.464	0.03
304.677	0.15
304.889	0.1
305.102	0.01
305.314	0.03
305.526	0.12
305.739	0.09
305.951	-0.04
306.163	0.02
306.375	0.09
306.588	0.05
306.8	0.03
307.012	0.01
307.224	0.11
307.436	0.16
307.649	-0.02
307.861	0.06
308.073	0.06
308.285	0.04
308.497	0.01
308.709	0.05
308.921	0.06
309.133	0.12
309.346	0.03
309.558	0.04
309.77	0.06
309.982	0.1
310.194	0.08
310.406	0.03
310.617	0.17
310.829	0.1
311.041	0.09
311.253	0.04
311.465	0.12
311.677	0.03
311.889	0.06
312.101	-0.01
312.313	0.14
312.524	0.14
312.736	0
312.948	0.05
313.16	0.12
313.372	0.09
313.583	0.03
313.795	0.02
314.007	0
314.218	0.04
314.43	-0
314.642	-0
314.853	-0.01
315.065	0.08
315.277	0.02
315.488	0.06
315.7	0.08
315.912	0.07
316.123	0.03
316.335	0.06
316.546	0.15
316.758	0.02
316.969	0.05
317.181	0.04
317.392	0.06
317.604	0.11
317.815	-0.01
318.026	-0.01
318.238	0.02
318.449	0.07
318.661	-0.02
318.872	0
319.083	-0.02
319.295	0.1
319.506	-0
319.717	0.05
319.929	0.11
320.14	0.05
320.351	0.06
320.562	0.01
320.774	0.05
320.985	0.01
321.196	-0.03
321.407	-0.02
321.618	0.07
321.829	0.02
322.041	0.08
322.252	0.06
322.463	0.04
322.674	0.04
322.885	0.01
323.096	0.02
323.307	0.03
323.518	0.08
323.729	0.01
323.94	0.04
324.151	0.02
324.362	0.02
324.573	0.06
324.784	0.01
324.995	0.14
325.206	0.09
325.417	0.02
325.628	-0.01
325.838	0.04
326.049	0.05
326.26	0.12
326.471	0.01
326.682	0.07
326.892	0.09
327.103	-0.04
327.314	-0.01
327.525	0.13
327.735	0.06
327.946	0.01
328.157	-0.02
328.368	0.1
328.578	0.01
328.789	0.04
328.999	0.06
329.21	0.03
329.421	0.05
329.631	0.01
329.842	0.02
330.052	0.06
330.263	0.1
330.473	0.07
330.684	0.02
330.894	0.01
331.105	0.07
331.315	0.08
331.526	-0.02
331.736	0.14
331.947	0.05
332.157	0.07
332.367	-0.01
332.578	0.07
332.788	0.09
332.999	0.06
333.209	0.04
333.419	0.02
333.629	0.06
333.84	0.11
334.05	0.02
334.26	0.13
334.47	0.04
334.681	0.07
334.891	0.06
335.101	0.08
335.311	0.15
335.521	0.07
335.732	-0.01
335.942	0.08
336.152	0.08
336.362	0.08
336.572	0.05
336.782	0.09
336.992	0
337.202	0.04
337.412	0.03
337.622	0.06
337.832	0.03
338.042	0.02
338.252	0
338.462	0.05
338.672	0.03
338.882	-0.02
339.092	0.06
339.302	0.12
339.511	0.08
339.721	0.03
339.931	0.02
340.141	0.08
340.351	0.05
340.561	0.03
340.77	0.05
340.98	0.06
341.19	0.08
341.4	0.05
341.609	-0.01
341.819	0.04
342.029	-0.01
342.238	0.05
342.448	0.01
342.658	0.07
342.867	0.05
343.077	0.06
343.286	0.06
343.496	0.05
343.706	0.17
343.915	0.03
344.125	0.02
344.334	0.06
344.544	-0.02
344.753	-0
344.963	0.03
345.172	0.03
345.381	0
345.591	0.03
345.8	0.06
346.01	0.14
346.219	0.1
346.428	-0.05
346.638	0
346.847	0.02
347.056	0.12
347.266	0.02
347.475	0
347.684	0.09
347.893	0.07
348.103	0.12
348.312	0
348.521	0.08
348.73	0.08
348.94	0.03
349.149	0.07
349.358	0.04
349.567	0.05
349.776	0
349.985	0.02
350.194	0.12
350.403	0.07
350.612	-0.04
350.821	0.06
351.03	0.05
351.239	-0.01
351.448	0.03
351.657	-0
351.866	0.13
352.075	0.03
352.284	0.1
352.493	-0.01
352.702	0.12
352.911	0.05
353.12	0.08
353.329	0.03
353.538	0.04
353.746	0.03
353.955	0.02
354.164	0.07
354.373	0.02
354.582	0.11
354.79	0.05
354.999	0.07
355.208	0.05
355.416	0.08
355.625	0.02
355.834	0.02
356.042	0.05
356.251	0.01
356.46	0
356.668	0.1
356.877	0.14
357.085	0.09
357.294	-0.06
357.503	0.08
357.711	0.07
357.92	0.18
358.128	0.07
358.337	0.03
358.545	0.06
358.754	0.05
358.962	0.06
359.17	0.01
359.379	0.05
359.587	0.04
359.796	0.04
360.004	0.07
360.212	0.09
360.421	0.11
360.629	0.03
360.837	0.03
361.046	0.1
361.254	0.16
361.462	0.04
361.67	0.06
361.879	0.05
362.087	0.15
362.295	0.05
362.503	0.04
362.711	0
362.92	0.04
363.128	0.04
363.336	0
363.544	0
363.752	0.03
363.96	0.04
364.168	0.03
364.376	0.03
364.584	0.03
364.792	0.07
365	0.06
365.208	0.03
365.416	0.08
365.624	0.06
365.832	0.02
366.04	0.14
366.248	0.04
366.456	0.05
366.664	0.05
366.872	0.07
367.079	0.04
367.287	0.05
367.495	0.06
367.703	0.02
367.911	0.06
368.118	0.05
368.326	0.05
368.534	-0
368.742	0.09
368.949	-0.01
369.157	0.02
369.365	0.09
369.572	0.04
369.78	0.01
369.988	0.03
370.195	0.08
370.403	0.08
370.61	-0
370.818	0.04
371.026	0.12
371.233	0.02
371.441	0.07
371.648	0.02
371.856	0.07
372.063	0.03
372.271	0.03
372.478	0.03
372.685	0.04
372.893	0.11
373.1	0.01
373.308	0.03
373.515	0.14
373.722	0.09
373.93	0.06
374.137	0.07
374.344	0.14
374.552	0.09
374.759	0.1
374.966	0.1
375.173	0.05
375.381	0.13
375.588	0.07
375.795	-0.01
376.002	0.02
376.209	-0.02
376.417	0.05
376.624	0.07
376.831	0.1
377.038	0.04
377.245	-0.03
377.452	0.03
377.659	0.09
377.866	0.02
378.073	0.02
378.28	0.03
378.487	0.08
378.694	0.07
378.901	0.06
379.108	0.06
379.315	0.07
379.522	0.16
379.729	0.02
379.936	0.01
380.143	0.06
380.35	0.06
380.557	0.03
380.763	0.06
380.97	0.07
381.177	0.08
381.384	0.05
381.591	0.06
381.797	0.08
382.004	0.11
382.211	0.1
382.418	0.05
382.624	0.08
382.831	0.12
383.038	0.04
383.244	0.08
383.451	0.04
383.658	0.07
383.864	0
384.071	0.04
384.277	0.1
384.484	0.04
384.69	0.1
384.897	0.03
385.103	0.03
385.31	0.04
385.516	0.04
385.723	0.04
385.929	0.03
386.136	0.05
386.342	0.08
386.549	0.05
386.755	0.16
386.961	0.06
387.168	0.06
387.374	0.08
387.58	0.06
387.787	0.07
387.993	0.08
388.199	0.06
388.406	0.02
388.612	0.08
388.818	0.02
389.024	0.04
389.231	0.11
389.437	0.16
389.643	0.1
389.849	0.07
390.055	0.12
390.261	0.07
390.467	0.06
390.674	0.05
390.88	0.1
391.086	0.09
391.292	0.02
391.498	0.07
391.704	0.08
391.91	0.07
392.116	0.05
392.322	-0.03
392.528	0.12
392.734	0.08
392.94	0.12
393.146	0.03
393.352	0.07
393.557	0.04
393.763	0.02
393.969	0.09
394.175	0.06
394.381	0.07
394.587	0.04
394.792	0.03
394.998	0.14
395.204	0.13
395.41	0.04
395.615	0.09
395.821	0.07
396.027	0.09
396.233	0.07
396.438	0.03
396.644	0.09
396.85	0.08
397.055	0.07
397.261	0.06
397.466	0.08
397.672	0.07
397.878	0.1
398.083	0.14
398.289	0.05
398.494	0.15
398.7	0.11
398.905	-0.03
399.111	0.15
399.316	0.03
399.522	0.07
399.727	0.06
399.932	0.05
400.138	0.09
400.343	0.13
400.549	0.1
400.754	0.09
400.959	0.12
401.165	0.1
401.37	0.12
401.575	0.12
401.78	0.08
401.986	0.07
402.191	0.16
402.396	0.03
402.601	0.1
402.807	0.13
403.012	0.1
403.217	0.15
403.422	0.08
403.627	0.12
403.832	0.02
404.037	0.11
404.243	0.14
404.448	0.07
404.653	0.11
404.858	0.11
405.063	0.16
405.268	0.07
405.473	0.08
405.678	0.08
405.883	0.25
406.088	0.12
406.293	0.05
406.498	0.1
406.703	0.17
406.907	0.07
407.112	0.1
407.317	0.14
407.522	0.17
407.727	0.08
407.932	0.12
408.136	0.2
408.341	0.14
408.546	0.15
408.751	0.16
408.956	0.13
409.16	0.19
409.365	0.17
409.57	0.15
409.774	0.16
409.979	0.21
410.184	0.18
410.388	0.1
410.593	0.24
410.798	0.2
411.002	0.15
411.207	0.22
411.411	0.24
411.616	0.15
411.82	0.15
412.025	0.26
412.229	0.2
412.434	0.33
412.638	0.26
412.843	0.25
413.047	0.32
413.252	0.24
413.456	0.26
413.66	0.32
413.865	0.28
414.069	0.34
414.273	0.25
414.478	0.23
414.682	0.29
414.886	0.32
415.091	0.31
415.295	0.32
415.499	0.4
415.703	0.44
415.908	0.48
416.112	0.36
416.316	0.49
416.52	0.42
416.724	0.42
416.929	0.45
417.133	0.6
417.337	0.46
417.541	0.57
417.745	0.55
417.949	0.63
418.153	0.62
418.357	0.59
418.561	0.82
418.765	0.68
418.969	0.83
419.173	0.74
419.377	0.78
419.581	0.88
419.785	0.86
419.989	0.83
420.193	0.94
420.397	0.94
420.601	1.13
420.804	1.13
421.008	1.05
421.212	1.15
421.416	1.18
421.62	1.08
421.823	1.23
422.027	1.31
422.231	1.3
422.435	1.29
422.638	1.36
422.842	1.35
423.046	1.34
423.249	1.54
423.453	1.53
423.657	1.68
423.86	1.64
424.064	1.7
424.268	1.86
424.471	1.85
424.675	2.01
424.878	2.04
425.082	2.06
425.285	2.27
425.489	2.21
425.692	2.21
425.896	2.31
426.099	2.45
426.303	2.44
426.506	2.52
426.71	2.67
426.913	2.92
427.116	2.94
427.32	2.94
427.523	3.01
427.726	3.28
427.93	3.19
428.133	3.4
428.336	3.46
428.54	3.63
428.743	3.73
428.946	3.92
429.149	3.92
429.353	4.01
429.556	4.02
429.759	4.07
429.962	4.16
430.165	4.26
430.368	4.13
430.571	4.1
430.775	4.22
430.978	4.24
431.181	4.26
431.384	4.39
431.587	4.37
431.79	4.7
431.993	4.65
432.196	4.81
432.399	5.04
432.602	5.18
432.805	5.24
433.008	5.47
433.211	5.45
433.414	5.72
433.616	5.79
433.819	5.73
434.022	5.85
434.225	6.03
434.428	5.98
434.631	6.38
434.833	6.16
435.036	6.42
435.239	6.54
435.442	6.64
435.645	6.71
435.847	6.91
436.05	7.09
436.253	7.24
436.455	7.33
436.658	7.26
436.861	7.58
437.063	7.7
437.266	7.74
437.468	8
437.671	8.3
437.874	8.44
438.076	8.4
438.279	8.72
438.481	8.78
438.684	9.39
438.886	9.24
439.089	9.51
439.291	9.64
439.494	10.01
439.696	10.27
439.899	10.7
440.101	11.07
440.303	11.27
440.506	12.03
440.708	11.93
440.91	12.25
441.113	12.47
441.315	12.86
441.517	12.69
441.72	13.43
441.922	13.12
442.124	13.3
442.326	13.77
442.529	14.11
442.731	14.27
442.933	14.81
443.135	14.69
443.337	14.97
443.539	15.41
443.742	15.5
443.944	16.1
444.146	15.93
444.348	16.18
444.55	16.12
444.752	16.6
444.954	16.68
445.156	16.75
445.358	17.25
445.56	17.85
445.762	17.77
445.964	18.2
446.166	18.11
446.368	18.28
446.57	18.41
446.772	18.23
446.974	17.94
447.175	18.52
447.377	18.42
447.579	18.81
447.781	18.66
447.983	18.58
448.184	18.09
448.386	18.56
448.588	18.09
448.79	18.27
448.991	18.68
449.193	18.65
449.395	18.02
449.597	17.52
449.798	17.57
450	17.09
450.202	17.02
450.403	17.08
450.605	16.95
450.806	16.71
451.008	16.5
451.21	16.3
451.411	15.6
451.613	14.99
451.814	15.13
452.016	15.03
452.217	14.25
452.419	14.27
452.62	13.9
452.821	13.7
453.023	13.4
453.224	13.06
453.426	12.4
453.627	11.75
453.828	11.79
454.03	11.73
454.231	11.84
454.432	11.55
454.634	11.14
454.835	10.78
455.036	10.7
455.238	10.28
455.439	9.86
455.64	9.57
455.841	9.44
456.042	9.52
456.244	9.27
456.445	8.99
456.646	8.58
456.847	8.48
457.048	8.41
457.249	8.32
457.45	8.19
457.651	7.61
457.852	7.35
458.054	7.1
458.255	6.99
458.456	6.97
458.657	6.93
458.858	6.51
459.058	6.47
459.259	6.54
459.46	6.07
459.661	6.11
459.862	6.15
460.063	6.02
460.264	5.94
460.465	5.69
460.666	5.67
460.866	5.47
461.067	5.15
461.268	5.17
461.469	5.11
461.67	4.96
461.87	4.93
462.071	4.8
462.272	4.74
462.473	4.62
462.673	4.86
462.874	4.74
463.075	4.58
463.275	4.58
463.476	4.59
463.676	4.54
463.877	4.46
464.078	4.37
464.278	4.33
464.479	4.21
464.679	4.11
464.88	4.02
465.08	3.96
465.281	3.8
465.481	3.62
465.682	3.42
465.882	3.42
466.083	3.39
466.283	3.33
466.483	3.13
466.684	3
466.884	2.91
467.085	2.8
467.285	2.92
467.485	2.71
467.686	2.65
467.886	2.47
468.086	2.52
468.286	2.42
468.487	2.49
468.687	2.28
468.887	2.26
469.087	2.32
469.287	2.22
469.488	2.08
469.688	2.11
469.888	2.16
470.088	2.06
470.288	2.03
470.488	1.96
470.688	1.79
470.888	1.75
471.088	1.59
471.288	1.7
471.488	1.63
471.688	1.62
471.888	1.56
472.088	1.62
472.288	1.55
472.488	1.47
472.688	1.4
472.888	1.42
473.088	1.38
473.288	1.31
473.488	1.29
473.688	1.35
473.887	1.28
474.087	1.21
474.287	1.22
474.487	1.11
474.687	1.19
474.886	1.09
475.086	1.04
475.286	1.07
475.486	1.09
475.685	1
475.885	0.94
476.085	1
476.284	0.99
476.484	0.92
476.684	0.9
476.883	0.95
477.083	0.88
477.282	0.78
477.482	0.94
477.681	0.89
477.881	0.79
478.08	0.77
478.28	0.72
478.479	0.8
478.679	0.82
478.878	0.72
479.078	0.67
479.277	0.74
479.477	0.67
479.676	0.7
479.875	0.69
480.075	0.6
480.274	0.66
480.473	0.67
480.673	0.59
480.872	0.64
481.071	0.62
481.271	0.62
481.47	0.52
481.669	0.51
481.868	0.51
482.067	0.49
482.267	0.47
482.466	0.5
482.665	0.45
482.864	0.43
483.063	0.4
483.262	0.48
483.461	0.51
483.661	0.47
483.86	0.44
484.059	0.42
484.258	0.42
484.457	0.4
484.656	0.4
484.855	0.46
485.054	0.34
485.253	0.33
485.452	0.31
485.651	0.34
485.849	0.34
486.048	0.32
486.247	0.31
486.446	0.33
486.645	0.27
486.844	0.29
487.043	0.27
487.241	0.3
487.44	0.24
487.639	0.26
487.838	0.31
488.037	0.27
488.235	0.32
488.434	0.25
488.633	0.22
488.831	0.27
489.03	0.28
489.229	0.23
489.427	0.21
489.626	0.24
489.825	0.28
490.023	0.22
490.222	0.2
490.42	0.24
490.619	0.22
490.817	0.22
491.016	0.18
491.214	0.23
491.413	0.19
491.611	0.17
491.81	0.18
492.008	0.18
492.207	0.19
492.405	0.18
492.604	0.12
492.802	0.15
493	0.15
493.199	0.14
493.397	0.17
493.595	0.17
493.794	0.12
493.992	0.18
494.19	0.17
494.388	0.18
494.587	0.1
494.785	0.13
494.983	0.1
495.181	0.16
495.379	0.13
495.578	0.1
495.776	0.13
495.974	0.12
496.172	0.1
496.37	0.09
496.568	0.1
496.766	0.1
496.964	0.13
497.162	0.1
497.36	0.07
497.558	0.14
497.756	0.13
497.954	0.1
498.152	0.06
498.35	0.09
498.548	0.1
498.746	0.1
498.944	0.05
499.142	0.09
499.34	0.05
499.538	0.08
499.736	0.05
499.933	0.1
500.131	0.11
500.329	0.09
500.527	0.11
500.725	0.11
500.922	0.11
501.12	0.08
501.318	0.09
501.516	0.06
501.713	0.08
501.911	0.07
502.109	0.06
502.306	0.07
502.504	0.07
502.701	0.06
502.899	0.07
503.097	0.1
503.294	0.08
503.492	0.06
503.689	0.08
503.887	0.09
504.084	0.13
504.282	0.08
504.479	0.04
504.677	0.07
504.874	0.06
505.072	0.06
505.269	0.04
505.466	0.09
505.664	0.07
505.861	0.02
506.059	0.05
506.256	0.08
506.453	0.03
506.651	0.09
506.848	0.07
507.045	0.05
507.242	0.07
507.44	0.04
507.637	0.03
507.834	0.05
508.031	0.06
508.229	0.01
508.426	0.05
508.623	0.08
508.82	0.05
509.017	0.04
509.214	0.04
509.411	0.06
509.608	0.03
509.805	0.05
510.003	0.05
510.2	0.02
510.397	0.07
510.594	0.02
510.791	0.03
510.988	0.04
511.184	0.06
511.381	0.06
511.578	0.03
511.775	0.08
511.972	0.03
512.169	0.04
512.366	0.06
512.563	0.07
512.76	0.02
512.956	0.06
513.153	0.02
513.35	0.04
513.547	0.01
513.744	0.01
513.94	0.02
514.137	0.05
514.334	0.05
514.53	0.02
514.727	0.03
514.924	0.09
515.12	0.04
515.317	-0
515.514	0.04
515.71	0
515.907	0.03
516.103	0.04
516.3	0.04
516.497	0.07
516.693	0.06
516.89	0.04
517.086	0.01
517.283	0.1
517.479	0.05
517.676	0.02
517.872	0.03
518.068	0.01
518.265	0.03
518.461	-0
518.658	-0
518.854	0.04
519.05	0.02
519.247	0.03
519.443	0.03
519.639	0.05
519.836	0.04
520.032	0.03
520.228	0.04
520.424	0.09
520.621	0.04
520.817	0.02
521.013	0.03
521.209	0.03
521.405	0.08
521.601	0.03
521.798	0.03
521.994	0.06
522.19	0
522.386	0.01
522.582	0.02
522.778	0.03
522.974	0.01
523.17	0.04
523.366	0.04
523.562	0.08
523.758	0.03
523.954	-0.01
524.15	0.02
524.346	0.05
524.542	0.01
524.738	-0
524.934	0.02
525.129	0.03
525.325	0.03
525.521	0.02
525.717	0.06
525.913	0.04
526.109	0.04
526.304	0.01
526.5	0.03
526.696	0.05
526.892	0.02
527.087	0.04
527.283	-0.01
527.479	0.02
527.674	0.01
527.87	0.01
528.066	0.02
528.261	0.03
528.457	0.05
528.653	0.02
528.848	0.01
529.044	0.03
529.239	0.02
529.435	0.04
529.63	0.03
529.826	0.1
530.021	0.01
530.217	0.03
530.412	0.02
530.608	0.01
530.803	0.03
530.999	0.02
531.194	-0.02
531.389	0.03
531.585	-0.03
531.78	0.01
531.975	0.02
532.171	0.06
532.366	0.02
532.561	0.01
532.757	0.01
532.952	0.02
533.147	0.04
533.342	0.03
533.538	0.01
533.733	0.05
533.928	0.01
534.123	-0
534.318	-0.01
534.513	0.02
534.709	0.03
534.904	-0.01
535.099	0.02
535.294	0.04
535.489	0.03
535.684	0.01
535.879	0
536.074	0.04
536.269	0.01
536.464	0.04
536.659	0.02
536.854	0.01
537.049	0.02
537.244	0.05
537.439	0.01
537.634	0.05
537.828	0.02
538.023	0.02
538.218	-0.01
538.413	0.01
538.608	-0.01
538.803	0.04
538.997	-0.02
539.192	0.04
539.387	0.03
539.582	0.05
539.776	0.03
539.971	0.02
540.166	0.02
540.36	-0.01
540.555	0.01
540.75	0.01
540.944	0.04
541.139	-0.01
541.334	0.01
541.528	0.04
541.723	0.04
541.917	0
542.112	-0.02
542.306	0.01
542.501	0
542.695	0.02
542.89	-0
543.084	0.02
543.279	0.03
543.473	0.01
543.668	0.01
543.862	0.02
544.056	0.04
544.251	0.03
544.445	0.04
544.64	-0
544.834	-0
545.028	0.02
545.222	0.03
545.417	0.05
545.611	0
545.805	0.01
546	-0.01
546.194	0.02
546.388	0.01
546.582	0.02
546.776	0.02
546.97	0.02
547.165	0.05
547.359	0.05
547.553	-0.01
547.747	-0
547.941	0.02
548.135	0.01
548.329	0.04
548.523	0.03
548.717	0.02
548.911	-0.01
549.105	0.03
549.299	0.02
549.493	0.04
549.687	0.04
549.881	0.04
550.075	0.03
550.269	-0.02
550.463	0.01
550.657	0.01
550.85	-0
551.044	0
551.238	0.03
551.432	0.01
551.626	-0.01
551.82	0.03
552.013	-0.01
552.207	0.03
552.401	0.03
552.594	0.02
552.788	0.02
552.982	0.01
553.176	-0.03
553.369	0.04
553.563	0.04
553.756	-0.02
553.95	-0
554.144	0.01
554.337	0.04
554.531	0.01
554.724	0.01
554.918	0.02
555.111	0.03
555.305	0.02
555.498	0.07
555.692	0.01
555.885	0.02
556.079	0.01
556.272	0
556.466	0.03
556.659	0.02
556.852	-0.02
557.046	0.01
557.239	0.04
557.432	-0.01
557.626	0
557.819	0.04
558.012	0.05
558.206	0.01
558.399	0.04
558.592	0.01
558.785	0.01
558.979	0.03
559.172	0.04
559.365	0.04
559.558	0.03
559.751	0.03
559.944	0.03
560.138	0.01
560.331	-0
560.524	-0
560.717	-0.02
560.91	-0
561.103	0.05
561.296	0.02
561.489	0.03
561.682	0.02
561.875	0.05
562.068	0.02
562.261	0.02
562.454	0.04
562.647	0.03
562.84	0.02
563.032	0
563.225	0.02
563.418	0
563.611	0.01
563.804	0.01
563.997	-0
564.19	-0.02
564.382	0.01
564.575	-0
564.768	0.04
564.961	0.02
565.153	-0.01
565.346	0.05
565.539	0.05
565.731	0.01
565.924	0.04
566.117	0.03
566.309	0.02
566.502	0
566.695	0.01
566.887	0.02
567.08	0
567.272	0
567.465	0.02
567.657	0.02
567.85	0.01
568.042	0.03
568.235	0.05
568.427	-0.01
568.62	0.02
568.812	0.01
569.005	0.02
569.197	-0.02
569.389	0.03
569.582	0.04
569.774	0.02
569.966	-0.02
570.159	-0.02
570.351	0.03
570.543	0
570.736	0
570.928	-0.03
571.12	0.03
571.312	0
571.505	-0.01
571.697	0.06
571.889	-0.02
572.081	0.01
572.273	-0.01
572.465	0.05
572.658	0
572.85	0.02
573.042	0
573.234	-0.01
573.426	0.04
573.618	-0.02
573.81	0.03
574.002	0.04
574.194	0.08
574.386	-0.03
574.578	-0.06
574.77	-0.02
574.962	-0
575.154	-0.02
575.346	-0
575.538	0.02
575.729	-0.02
575.921	-0
576.113	0.01
576.305	0.04
576.497	0.02
576.689	-0.01
576.88	-0.01
577.072	0.02
577.264	0.01
577.456	0.03
577.647	-0.07
577.839	-0.01
578.031	0.05
578.223	-0.01
578.414	-0.03
578.606	0.05
578.798	0.01
578.989	-0
579.181	-0
579.372	0.02
579.564	-0.01
579.755	0.01
579.947	0.02
580.139	-0
580.33	-0.03
580.522	-0.01
580.713	-0.05
580.905	0.01
581.096	0.01
581.287	0.02
581.479	0.01
581.67	0.02
581.862	0.01
582.053	-0.02
582.244	-0.03
582.436	-0
582.627	0.01
582.818	-0.02
583.01	-0.01
583.201	0.02
583.392	0.05
583.583	0.03
583.775	-0.02
583.966	-0.01
584.157	0.01
584.348	0
584.54	-0.04
584.731	0.03
584.922	0.02
585.113	-0.02
585.304	0.02
585.495	0.05
585.686	0.02
585.877	0.02
586.068	0.01
586.259	0
586.45	-0
586.641	-0.03
586.832	-0.05
587.023	0.01
587.214	0.01
587.405	0.01
587.596	-0.01
587.787	0.04
587.978	0.04
588.169	-0.02
588.36	-0.02
588.551	-0
588.742	-0.03
588.932	0.01
589.123	-0.01
589.314	0.05
589.505	0.01
589.696	0.01
589.886	-0.01
590.077	-0.03
590.268	0
590.458	-0.01
590.649	-0.03
590.84	0.05
591.03	0.01
591.221	-0.03
591.412	-0.04
591.602	0.05
591.793	0.02
591.984	-0.04
592.174	0.01
592.365	0.08
592.555	-0.03
592.746	0.02
592.936	0.03
593.127	0.03
593.317	0.06
593.508	-0.02
593.698	0.01
593.889	0.02
594.079	0.01
594.269	-0.03
594.46	-0.01
594.65	-0.01
594.84	0.02
595.031	-0.06
595.221	-0.03
595.411	-0.01
595.602	0.01
595.792	-0
595.982	0.02
596.172	0.06
596.363	0.01
596.553	0.01
596.743	0.01
596.933	-0
597.123	0.03
597.314	-0.05
597.504	-0.01
597.694	0.05
597.884	0.01
598.074	-0.02
598.264	-0.03
598.454	0.05
598.644	-0.01
598.834	0.01
599.024	-0.03
599.214	-0.02
599.404	0.05
599.594	-0.02
599.784	-0.02
599.974	0.05
600.164	0.03
600.354	-0.04
600.544	-0.06
600.734	0.02
600.924	0.06
601.114	-0.02
601.303	0.02
601.493	0.03
601.683	0
601.873	0.02
602.063	-0.06
602.252	0.05
602.442	-0.06
602.632	-0.03
602.821	-0.05
603.011	0.02
603.201	0.02
603.39	-0.02
603.58	-0.02
603.77	0.01
603.959	0.03
604.149	0
604.339	-0.02
604.528	0.02
604.718	0.04
604.907	-0.01
605.097	-0.03
605.286	-0.04
605.476	0.03
605.665	0.03
605.855	-0.03
606.044	0.04
606.234	0
606.423	-0.01
606.612	-0.01
606.802	0.02
606.991	-0.02
607.181	0.02
607.37	-0.04
607.559	0
607.749	-0.05
607.938	0.02
608.127	-0
608.316	-0.02
608.506	0.04
608.695	0.02
608.884	-0.04
609.073	0.01
609.263	0.03
609.452	0.04
609.641	0.03
609.83	-0.04
610.019	-0
610.208	-0.04
610.397	-0.02
610.586	0.03
610.775	-0.02
610.965	-0.02
611.154	-0.03
611.343	0.03
611.532	-0.01
611.721	-0.02
611.91	-0.02
612.099	0.04
612.287	-0.01
612.476	-0.03
612.665	0
612.854	-0.01
613.043	0.03
613.232	-0
613.421	-0.04
613.61	0.01
613.798	-0.03
613.987	0.01
614.176	-0.03
614.365	0.03
614.554	0.02
614.742	0.01
614.931	-0.04
615.12	-0
615.309	-0.02
615.497	-0.01
615.686	-0.02
615.875	0.01
616.063	0.01
616.252	-0.03
616.44	-0.05
616.629	-0.02
616.818	0
617.006	-0.02
617.195	-0.02
617.383	0.01
617.572	0.01
617.76	-0.02
617.949	-0.01
618.137	0.04
618.326	0.03
618.514	-0.02
618.703	-0.01
618.891	0.05
619.079	-0.06
619.268	0.01
619.456	-0.02
619.644	0.03
619.833	0.01
620.021	0
620.209	-0.07
620.398	0
620.586	-0
620.774	0.02
620.962	0
621.151	0.04
621.339	-0.01
621.527	-0.04
621.715	-0.05
621.903	-0.03
622.092	-0.05
622.28	0.01
622.468	-0.01
622.656	-0.02
622.844	0.02
623.032	-0.01
623.22	-0.06
623.408	0.02
623.596	0
623.784	0.04
623.972	-0.05
624.16	-0.02
624.348	0.03
624.536	0.01
624.724	-0.01
624.912	0.06
625.1	0.05
625.288	-0.04
625.476	-0.02
625.664	0.02
625.851	-0.02
626.039	-0.01
626.227	0.02
626.415	-0.04
626.603	-0.06
626.79	-0.01
626.978	-0.01
627.166	0.03
627.354	-0.02
627.541	-0.03
627.729	-0.07
627.917	0.03
628.104	0.04
628.292	0.01
628.48	-0.02
628.667	0.02
628.855	0.01
629.042	0
629.23	-0.02
629.418	-0.02
629.605	-0.01
629.793	-0.02
629.98	-0.06
630.168	0.01
630.355	-0.01
630.543	0.03
630.73	-0.05
630.917	0.04
631.105	0.06
631.292	-0.02
631.48	-0.03
631.667	0.06
631.854	0.03
632.042	-0.03
632.229	-0.07
632.416	0.01
632.604	-0.02
632.791	-0.05
632.978	0.02
633.165	0.04
633.353	0.08
633.54	0.03
633.727	-0.05
633.914	0.01
634.101	-0.02
634.289	0.01
634.476	-0
634.663	-0.05
634.85	0.01
635.037	-0.06
635.224	-0.06
635.411	0.03
635.598	0.03
635.785	-0.01
635.972	-0.03
636.159	0.05
636.346	-0.02
636.533	0
636.72	0.01
636.907	-0.01
637.094	0.04
637.281	-0.02
637.468	-0.02
637.655	-0.02
637.842	-0.02
638.029	-0.01
638.215	0.02
638.402	-0.02
638.589	-0.04
638.776	-0.03
638.963	-0.02
639.149	0.02
639.336	0.06
639.523	-0.03
639.709	-0
639.896	0
640.083	0.05
640.27	0.01
640.456	-0.05
640.643	0
640.829	-0.05
641.016	-0.03
641.203	-0.03
641.389	0.04
641.576	0.02
641.762	-0.01
641.949	-0.06
642.135	0.02
642.322	0.01
642.508	-0.06
642.695	-0.01
642.881	-0.01
643.068	-0.03
643.254	0
643.441	0.04
643.627	-0.01
643.813	-0.02
644	0.04
644.186	-0.05
644.372	0.05
644.559	0.03
644.745	0
644.931	-0.04
645.118	0.01
645.304	-0.02
645.49	-0.04
645.676	-0.04
645.862	0
646.049	0.06
646.235	-0.03
646.421	0.06
646.607	0.04
646.793	-0.04
646.979	-0.04
647.165	0.02
647.352	-0.02
647.538	0.06
647.724	0.02
647.91	-0.01
648.096	0.02
648.282	0.08
648.468	-0.02
648.654	-0.01
648.84	0.01
649.026	0
649.212	0.01
649.397	-0.05
649.583	-0.06
649.769	0.05
649.955	-0.01
650.141	-0.01
650.327	0.04
650.513	-0.03
650.698	0.03
650.884	-0.08
651.07	-0
651.256	0.05
651.442	-0.01
651.627	-0
651.813	0.04
651.999	0.02
652.184	0
652.37	0.02
652.556	-0.04
652.741	0.05
652.927	-0.1
653.113	0
653.298	-0.03
653.484	-0.01
653.669	-0.07
653.855	0.01
654.04	0.02
654.226	0.04
654.412	-0.01
654.597	-0.06
654.782	0.01
654.968	0.03
655.153	0.01
655.339	-0.04
655.524	-0.06
655.71	0.05
655.895	-0.01
656.08	-0.03
656.266	0.03
656.451	0.01
656.636	-0.02
656.822	-0
657.007	-0.03
657.192	-0.02
657.378	-0.05
657.563	-0.03
657.748	0.03
657.933	0
658.118	-0.01
658.304	-0.04
658.489	0.03
658.674	-0.02
658.859	-0.04
659.044	0.01
659.229	0.02
659.414	-0.06
659.599	-0.03
659.785	-0.05
659.97	-0.01
660.155	0.04
660.34	0
660.525	-0.04
660.71	-0.02
660.895	0.03
661.08	-0.03
661.264	-0.01
661.449	0.07
661.634	0.04
661.819	0
662.004	0.05
662.189	-0.05
662.374	-0.03
662.559	-0.03
662.743	-0.07
662.928	-0
663.113	0
663.298	-0.08
663.483	-0
663.667	0.03
663.852	-0.05
664.037	0.03
664.221	-0.05
664.406	0.02
664.591	0.02
664.775	-0
664.96	-0.04
665.145	0.02
665.329	0.03
665.514	-0.03
665.698	-0.03
665.883	-0.06
666.068	0.06
666.252	0.03
666.437	-0.07
666.621	-0.01
666.806	0.02
666.99	0
667.174	-0.05
667.359	0.05
667.543	-0.02
667.728	-0.01
667.912	-0.1
668.096	0.04
668.281	0.03
668.465	0
668.649	-0
668.834	-0.02
669.018	0.03
669.202	-0.01
669.387	-0.05
669.571	0.03
669.755	-0.04
669.939	0.01
670.124	-0.02
670.308	0.05
670.492	0.04
670.676	0.01
670.86	-0.03
671.044	-0.08
671.228	0.04
671.413	-0.07
671.597	0
671.781	-0.05
671.965	-0.01
672.149	-0.01
672.333	-0.01
672.517	-0.03
672.701	0.01
672.885	-0.03
673.069	-0.07
673.253	0.05
673.437	-0.05
673.621	-0.04
673.804	-0.04
673.988	-0
674.172	0.01
674.356	-0.05
674.54	-0.02
674.724	0.09
674.908	-0
675.091	0.02
675.275	-0.01
675.459	0.05
675.643	0.08
675.826	-0.02
676.01	-0.02
676.194	-0.03
676.377	0.05
676.561	0
676.745	-0
676.928	-0
677.112	0.05
677.296	-0.07
677.479	-0.03
677.663	-0.06
677.846	0.03
678.03	-0.01
678.213	-0.03
678.397	0
678.58	-0.02
678.764	-0.02
678.947	-0.03
679.131	0.01
679.314	0.08
679.498	-0.01
679.681	0.01
679.865	0.04
680.048	-0.03
680.231	-0.01
680.415	-0.02
680.598	-0.01
680.781	-0.04
680.965	-0.04
681.148	0
681.331	-0.04
681.514	-0.01
681.698	-0.05
681.881	0.02
682.064	0.04
682.247	-0.03
682.43	-0.08
682.614	0.02
682.797	0.07
682.98	0.01
683.163	-0.06
683.346	-0.02
683.529	-0.02
683.712	-0.03
683.895	0.04
684.078	-0.05
684.261	-0.03
684.444	0.01
684.627	-0.01
684.81	-0.07
684.993	-0
685.176	0.04
685.359	-0.04
685.542	-0.05
685.725	0.05
685.908	-0.04
686.091	-0.03
686.274	0.01
686.457	0.01
686.639	0.01
686.822	-0
687.005	-0.01
687.188	0.05
687.371	0.13
687.553	0.02
687.736	0
687.919	0.08
688.102	0.08
688.284	-0.07
688.467	-0.03
688.65	-0.01
688.832	-0
689.015	-0.02
689.197	-0.08
689.38	0.06
689.563	0.01
689.745	-0.05
689.928	-0.06
690.11	0.02
690.293	-0.01
690.475	-0.09
690.658	0.02
690.84	-0.02
691.023	-0.04
691.205	-0.06
691.388	-0.02
691.57	0.07
691.752	0.04
691.935	-0.05
692.117	-0.01
692.3	0.05
692.482	-0.04
692.664	-0.02
692.847	0.03
693.029	0.07
693.211	-0.02
693.393	-0.01
693.576	0
693.758	0.01
693.94	-0.01
694.122	-0.05
694.304	-0.05
694.487	-0.04
694.669	0.07
694.851	-0.07
695.033	-0.06
695.215	-0.05
695.397	-0.08
695.579	-0.02
695.761	-0.09
695.943	-0.11
696.125	0.02
696.308	-0.01
696.49	-0.06
696.671	0.08
696.853	-0.02
697.035	0.12
697.217	-0.06
697.399	0.03
697.581	-0.06
697.763	-0.02
697.945	-0.03
698.127	-0.02
698.309	0.09
698.491	0.03
698.672	0.02
698.854	0.04
699.036	0.03
699.218	-0.09
699.399	-0.01
699.581	0.06
699.763	0
699.945	-0.08
700.126	-0.03
700.308	-0.01
700.49	-0.01
700.671	-0.09
700.853	-0.07
701.035	-0.02
701.216	-0.05
701.398	-0.09
701.579	-0.01
701.761	0.06
701.943	-0.04
702.124	-0
702.306	0.06
702.487	0.12
702.669	-0.02
702.85	0
703.031	-0.07
703.213	0.11
703.394	0.07
703.576	0.02
703.757	0.08
703.938	0.06
704.12	0.13
704.301	-0.01
704.483	-0.13
704.664	0
704.845	0.04
705.026	0.04
705.208	-0.02
705.389	-0.07
705.57	0.01
705.751	-0.05
705.933	-0.06
706.114	0.07
706.295	0
706.476	-0.01
706.657	0.07
706.838	-0.02
707.02	0.04
707.201	-0.1
707.382	-0.05
707.563	0.06
707.744	-0.1
707.925	-0.03
708.106	-0.01
708.287	0
708.468	0.11
708.649	-0.01
708.83	0.01
709.011	-0.12
709.192	-0.01
709.373	-0.07
709.554	-0
709.734	0.03
709.915	0.05
710.096	-0.04
710.277	-0.12
710.458	-0.05
710.639	0.06
710.819	-0.1
711	-0.08
711.181	0.03
711.362	0.07
711.542	0.02
711.723	-0.03
711.904	0.09
712.085	-0.02
712.265	-0.01
712.446	-0.1
712.627	-0.05
712.807	0.02
712.988	-0.03
713.168	-0.11
713.349	0.06
713.53	-0.18
713.71	-0.07
713.891	-0.07
714.071	-0.03
714.252	-0.09
714.432	-0.06
714.613	-0.09
714.793	0.03
714.974	0.12
715.154	0.06
715.334	0.03
715.515	0
715.695	-0.05
715.876	-0
716.056	0.02
716.236	-0.07
716.417	-0.02
716.597	-0.07
716.777	0.17
716.957	0.01
717.138	-0.02
717.318	-0.03
717.498	-0.11
717.678	-0.06
717.859	-0.05
718.039	-0.15
718.219	-0.03
718.399	0.04
718.579	-0.09
718.759	-0.05
718.939	0.01
719.12	0
719.3	0
719.48	-0.17
719.66	-0.14
719.84	0.08
720.02	0.02
720.2	-0.1
720.38	-0
720.56	0.07
720.74	-0.01
720.92	0.03
721.1	0.11
721.279	0.09
721.459	-0.01
721.639	-0.13
721.819	0.04
721.999	-0.04
722.179	0.01
722.359	-0.08
722.538	0.04
722.718	0.01
722.898	0
723.078	-0.02
723.257	-0.08
723.437	0.06
723.617	0.08
723.797	-0.04
723.976	0.02
724.156	0.04
724.336	0.07
724.515	0.14
724.695	-0.18
724.874	-0.02
725.054	0.04
725.234	-0.11
725.413	-0.03
725.593	0.01
725.772	0.01
725.952	-0.09
726.131	-0.07
726.311	-0.02
726.49	0.04
726.67	-0.11
726.849	-0.05
727.028	0.05
727.208	-0.06
727.387	0.03
727.567	-0.12
727.746	-0.02
727.925	-0.01
728.105	-0.06
728.284	0.02
728.463	-0.05
728.643	-0
728.822	-0.13
729.001	-0.12
729.18	-0.08
729.359	0.09
729.539	-0.07
729.718	-0
729.897	-0.01
730.076	-0.04
730.255	-0.04
730.434	-0.06
730.614	0.1
730.793	0.09
730.972	-0.04
731.151	0.02
731.33	0.02
731.509	0.06
731.688	-0.06
731.867	-0.01
732.046	-0.19
732.225	0.15
732.404	-0.09
732.583	-0.11
732.762	-0.04
732.941	0.09
733.12	0.04
733.298	-0.1
733.477	0.07
733.656	-0.04
733.835	-0.11
734.014	0.02
734.193	-0.05
734.371	0.04
734.55	0.12
734.729	-0.19
734.908	-0.04
735.086	0.12
735.265	0.04
735.444	-0.2
735.623	-0.14
735.801	-0.06
735.98	-0.13
736.159	-0.05
736.337	-0.03
736.516	0.04
736.694	0.14
736.873	-0.03
737.052	0.15
737.23	0.19
737.409	-0.05
737.587	0.23
737.766	-0.31
737.944	-0.06
738.123	0.06
738.301	0.04
738.479	0.02
738.658	0.02
738.836	-0.13
739.015	0.06
739.193	0.16
739.371	-0.11
739.55	-0.1
739.728	-0.11
739.906	0.11
740.085	0.08
740.263	0.01
740.441	-0.23
740.62	0.13
740.798	0.07
740.976	-0.12
741.154	-0.2
741.332	0.11
741.511	-0.09
741.689	-0.05
741.867	-0.06
742.045	-0.02
742.223	0.05
742.401	-0.09
742.579	-0.13
742.757	0.05
742.935	-0.05
743.114	-0.04
743.292	-0.14
743.47	0.08
743.648	-0
743.826	-0.08
744.004	0.1
744.181	0.05
744.359	-0.04
744.537	0.1
744.715	-0.01
744.893	-0.1
745.071	-0
745.249	-0.04
745.427	-0.02
745.605	0.02
745.782	0.08
745.96	0.06
746.138	0.04
746.316	0.13
746.493	-0.01
746.671	-0.02
746.849	-0
747.027	-0.04
747.204	-0.11
747.382	0.15
747.56	-0.18
747.737	-0.01
747.915	-0.09
748.093	0.05
748.27	-0.07
748.448	-0.13
748.625	-0.17
748.803	-0.07
748.98	-0.07
749.158	-0.02
749.335	0.11
749.513	-0.03
749.69	-0.04
749.868	-0.16
750.045	-0
750.223	-0.1
750.4	-0.21
750.578	0.14
750.755	-0.04
750.932	-0.11
751.11	0.01
751.287	-0.11
751.464	0.1
751.642	-0.11
751.819	0.05
751.996	0.01
752.173	0.07
752.351	-0.16
752.528	-0.03
752.705	-0.02
752.882	-0.02
753.06	-0.03
753.237	0.03
753.414	0.09
753.591	0.3
753.768	0
753.945	-0.1
754.122	-0.03
754.299	0.18
754.476	-0.12
754.654	-0.04
754.831	0.11
755.008	0.09
755.185	-0.01
755.362	-0.2
755.539	0.03
755.716	-0.02
755.892	-0.04
756.069	-0.08
756.246	0.01
756.423	0.01
756.6	0.18
756.777	0.04
756.954	-0.03
757.131	-0.02
757.307	-0.11
757.484	-0.11
757.661	-0.02
757.838	0
758.015	-0.17
758.191	-0.02
758.368	0.02
758.545	0.12
758.721	0.08
758.898	-0.21
759.075	0.05
759.251	0.07
759.428	0.08
759.605	-0.16
759.781	-0.03
759.958	-0.02
760.134	-0.05
760.311	-0.15
760.488	0.11
760.664	0.21
760.841	-0.04
761.017	-0.13
761.194	0.08
761.37	0.08
761.547	-0.05
761.723	0.04
761.899	0.19
762.076	-0.09
762.252	-0.15
762.429	-0.03
762.605	0.13
762.781	-0.11
762.958	-0.02
763.134	-0.05
763.31	-0.03
763.486	0.14
763.663	-0.16
763.839	-0.04
764.015	-0.3
764.191	-0.06
764.368	0.01
764.544	-0.06
764.72	-0.03
764.896	0.02
765.072	-0.01
765.248	-0.13
765.425	-0.05
765.601	-0
765.777	-0.06
765.953	-0.36
766.129	-0.13
766.305	-0.21
766.481	0.14
766.657	0.02
766.833	0.15
767.009	-0.08
767.185	-0.12
767.361	-0.06
767.537	-0.03
767.713	0.14
767.889	-0.11
768.065	-0.04
768.24	-0.02
768.416	0.09
768.592	-0.08
768.768	-0.16
768.944	0.1
769.12	-0.2
769.295	-0.01
769.471	-0.05
769.647	-0.05
769.823	0.06
769.998	-0.2
770.174	-0.16
770.35	0.22
770.525	0.12
770.701	-0
770.877	-0.04
771.052	-0.26
771.228	0.19
771.403	0.05
771.579	0.06
771.755	0.17
771.93	-0.17
772.106	-0.24
772.281	-0.26
772.457	-0.07
772.632	-0.02
772.808	-0.16
772.983	-0.16
773.159	-0.09
773.334	0.1
773.509	-0.1
773.685	-0.1
773.86	0.35
774.036	0.33
774.211	0.03
774.386	0.02
774.562	-0.05
774.737	0.1
774.912	-0.1
775.087	0.1
775.263	-0.09
775.438	0.11
775.613	-0.16
775.788	-0.04
775.964	0.19
776.139	0.32
776.314	-0.21
776.489	0.01
776.664	-0.06
776.839	-0.11
777.014	0.06
777.19	0.04
777.365	0.09
777.54	0.24
777.715	-0.14
777.89	-0.03
778.065	-0.19
778.24	-0.06
778.415	0.22
778.59	-0.25
778.765	-0.23
778.94	0.09
779.115	-0.1
779.289	0
779.464	-0.01
779.639	0.1
779.814	-0.33
779.989	-0.28
780.164	0.21
780.339	0.01
780.513	-0.08
780.688	-0.27
780.863	-0.11
781.038	0.04
781.212	-0.17
781.387	-0.09
781.562	0.31
781.737	-0.16
781.911	0.21
782.086	-0.02
782.261	-0.06
782.435	0.26
782.61	-0.1
782.784	-0.03
782.959	0.3
783.134	-0.15
783.308	-0.22
783.483	-0.13
783.657	0.26
783.832	0.06
784.006	-0.32
784.181	-0.18
784.355	0.02
784.53	-0.23
784.704	-0.05
784.878	0.29
785.053	0.1
785.227	0.16
785.402	0.31
785.576	-0.2
785.75	0.01
785.925	-0.12
786.099	-0.06
786.273	-0.02
786.448	0.07
786.622	0.01
786.796	-0.14
786.97	-0.25
787.145	0.57
787.319	-0.14
787.493	-0.26
787.667	-0.39
787.841	-0.02
788.015	0.18
788.19	-0.23
788.364	0.02
788.538	-0.08
788.712	0.17
788.886	-0.1
789.06	0.08
789.234	0.13
789.408	-0.24
789.582	-0.35
789.756	-0.07
789.93	-0.22
790.104	-0.02
790.278	-0.24
790.452	-0.39
790.626	-0.03
790.8	-0.14
790.973	0.02
791.147	0.31
791.321	0.24
791.495	0.22
791.669	-0
791.843	0.13
792.016	0.12
792.19	0.36
792.364	-0.19
792.538	0.32
792.711	0.08
792.885	-0.25
793.059	-0.43
793.233	-0.55
793.406	0.17
793.58	-0.08
793.754	-0.03
793.927	-0.22
794.101	0.11
794.274	-0.13
794.448	0.15
794.622	-0.19
794.795	0.45
794.969	-0.47
795.142	0.06
795.316	-0.28
795.489	-0.23
795.663	0.17
795.836	-0.11
796.009	-0.29
796.183	0.28
796.356	-0.08
796.53	0.17
796.703	-0.01
796.876	0.56
797.05	-0.07
797.223	-0.11
797.396	-0.1
797.57	-0.03
797.743	0.14
797.916	0.05
798.09	-0.01
798.263	0.13
798.436	0.17
798.609	-0.09
798.782	-0.3
798.956	-0
799.129	-0.21
799.302	-0.17
799.475	-0.18
799.648	-0.35
799.821	-0.45
799.994	-0.16
800.167	-0.27
800.34	-0.13
800.514	-0.19
800.687	-0.11
800.86	-0.25
801.033	-0.03
801.206	0.02
801.379	-0.72
801.551	0.44
801.724	0.32
801.897	0.25
802.07	-0.37
802.243	-0.58
802.416	-0.2
802.589	-0.17
802.762	-0.01
802.935	0.15
803.107	0.06
803.28	0.08
803.453	0.27
803.626	-0.13
803.798	-0.15
803.971	-0.32
804.144	0.09
804.317	-0.06
804.489	0.12
804.662	-0.17
804.835	0.08
805.007	-0.31
805.18	0.18
805.353	-0.13
805.525	-0.14
805.698	-0.48
805.87	-0
806.043	-0.02
806.215	-0.38
806.388	-0.3
806.56	0.08
806.733	0.39
806.905	-0.11
807.078	-0.44
807.25	-0.51
807.423	-0.01
807.595	-0.05
807.768	0.11
807.94	0.14
808.112	0.25
808.285	-0.04
808.457	-0.03
808.629	-0.05
808.802	0.3
808.974	-0.04
809.146	-0.34
809.318	-0.18
809.491	0.09
809.663	0.09
809.835	-0.5
810.007	0.06
810.18	-0.05
810.352	-0.33
810.524	-0.07
810.696	-0.15
810.868	0.41
811.04	-0.46
811.212	-0.03
811.384	0.25
811.556	0.08
811.728	-0.49
811.901	0.73
812.073	-0.04
812.245	0.06
812.417	-0.33
812.589	-1.01
812.76	-0.16
812.932	0.01
813.104	0.43
813.276	-0.18
813.448	0.56
813.62	-0.2
813.792	-0.07
813.964	0.38
814.136	0.02
814.307	-0.1
814.479	-0.3
814.651	-0.23
814.823	0.86
814.995	-0.23
815.166	-0.03
815.338	-0.12
815.51	-0.49
815.681	0.96
815.853	0.34
816.025	-0.36
816.196	0.4
816.368	0.11
816.54	-0.82
816.711	-0.58
816.883	0.08
817.054	0.99
817.226	-0.78
817.398	0.27
817.569	-0.32
817.741	0.05
817.912	-0.06
818.084	-0.15
818.255	0.08
818.426	-0.41
818.598	-0.27
818.769	-0.35
818.941	-0.06
819.112	0.42
819.283	-0.32
819.455	-0.89
819.626	-0.34
819.798	-0.11
819.969	-0.02
820.14	-0.11
820.311	-0.12
820.483	-0.18
820.654	0.15
820.825	-0.12
820.996	-0.47
821.168	-0.54
821.339	-0.31
821.51	-0.61
821.681	-0.54
821.852	-0.31
822.023	-0.35
822.195	-0.92
822.366	0.05
822.537	-0.17
822.708	-0.44
822.879	-0.56
823.05	0.24
823.221	-0.52
823.392	0.1
823.563	-0.09
823.734	-0.3
823.905	-0.66
824.076	0.01
824.247	-0.92
824.418	-0.24
824.589	0.26
824.759	-0.34
824.93	-0.08
825.101	-0.99
825.272	0.28
825.443	0.86
825.614	0.2
825.784	-1.44
825.955	0.56
826.126	0.01
826.297	-0.18
826.467	0.67
826.638	1.31
826.809	-0.82
826.98	-0.21
827.15	-0.43
827.321	0.04
827.492	0.34
827.662	-0.43
827.833	0.73
828.003	0.29
828.174	-0.44
828.345	-0.69
828.515	0.22
828.686	0.2
828.856	-0.64
829.027	-0.02
829.197	-0.03
829.368	0.24
829.538	-0.58
829.709	-0.61
829.879	0.04
830.049	-0.38
830.22	-0.8
830.39	-0.39
830.56	0.51
830.731	-0.77
830.901	-0.76
831.072	-0.5
831.242	-0.2
831.412	0.36
831.582	-0.67
831.753	-1.3
831.923	0.49
832.093	0.12
832.263	-0.21
832.434	-0.65
832.604	-0.65
832.774	0.08
832.944	-0.05
833.114	0.15
833.284	0.04
833.454	-0.58
833.624	-1.15
833.795	-0.2
833.965	0.99
834.135	0.5
834.305	-1.16
834.475	-1.12
834.645	-0.33
834.815	-0.06
834.985	-0.79
835.155	-1.01
835.325	0.25
835.494	0.29
835.664	-0.63
835.834	-0.67
836.004	-0.04
836.174	0.19
836.344	-0.6
836.514	-1.32
836.684	-0.77
836.853	-0.01
837.023	0.47
837.193	-0.76
837.363	0.1
837.532	0.25
837.702	-0.2
837.872	-0.57
838.041	-0.18
838.211	1.32
838.381	-0.68
838.55	-0.23
838.72	1.56
838.89	1.07
839.059	-0.36
839.229	-0.65
839.398	1.03
839.568	-0.42
839.738	-0.2
839.907	0.61
840.077	0.02
840.246	-0.13
840.416	-1.12
840.585	-0.64
840.755	1
840.924	1.07
841.093	-0.63
841.263	-0.03
841.432	0.07
841.602	-1.31
841.771	-1.01
841.94	0.05
842.11	1.82
842.279	1.25
842.448	-1.1
842.617	-0.68
842.787	0.72
842.956	-1.93
843.125	-1.05
843.294	-0.5
843.464	0.46
843.633	-0.16
843.802	-0.87
843.971	-0.92
844.14	0.76
844.309	1.11
844.479	-1.08
844.648	-0.93
844.817	-0.19
844.986	-0.09
845.155	-0.5
845.324	-0.53
845.493	-0.28
845.662	-1.1
845.831	0.27
846	0.53
846.169	-0.76
846.338	0.64
846.507	-0.28
846.676	-0.21
846.844	-0.59
847.013	0.83
847.182	-0.1
847.351	-1.08
847.52	-0.37
847.689	0.11
847.858	-0.22
848.026	-0.31
848.195	-0.79
848.364	-0.16
848.533	-0.98
848.701	-0.7
848.87	-1.68
849.039	1.15
849.207	0.89
849.376	0.86
849.545	1.38
849.713	-0.79
849.882	-0.61
850.051	-0.89
850.219	-0.12
850.388	1.49
850.556	-1.3
850.725	-0.05
850.893	-0.56
851.062	-0.24
851.23	0.04
851.399	-2.53
851.567	-0.88
851.736	-0.54
851.904	-1.66
852.073	-0.18
852.241	1.07
852.41	-0.79
852.578	-0.81
852.746	-1.39
852.915	0.63
853.083	0.01
853.251	-0.68
853.42	-0.35
853.588	-0.47
853.756	1.29
853.924	-0.42
854.093	-1.3
854.261	-0.72
854.429	-2.1
854.597	-0.57
854.765	-0.53
854.934	0.15
855.102	1.01
855.27	0.27
855.438	0.63
855.606	1.33
855.774	1.94
855.942	-0.77
856.11	-2.11
856.278	-0.24
856.446	1.25
856.614	-0.23
856.782	0
856.95	0.8
857.118	0.73
857.286	-0.9
857.454	-2.28
857.622	0.61
857.79	0.07
857.958	-1.41
858.126	-1
858.294	-2.68
858.462	-0.38
858.629	-0.74
858.797	-0.33
858.965	-0.18
859.133	-1.22
859.301	-1.28
859.468	-0.85
859.636	-0.63
859.804	1.31
859.971	0.6
860.139	-1.66
860.307	0
860.474	-0.36
860.642	-2.89
860.81	-1.27
860.977	-0.26
861.145	-0.41
861.313	-0.87
861.48	-0.63
861.648	0.09
861.815	-1.19
861.983	-2.13
862.15	-1.11
862.318	0.84
862.485	0.95
862.653	-1.31
862.82	-1.73
862.988	1.74
863.155	-0.25
863.322	-1.83
863.49	-2.76
863.657	-1.03
863.824	1.17
863.992	-0.18
864.159	0.22
864.326	1.66
864.494	-1.57
864.661	0.47
864.828	-0.97
864.996	1.21
865.163	1.74
865.33	-1.91
865.497	-2.6
865.664	-1.89
865.832	-2.18
865.999	-0.22
866.166	-1.56
866.333	-0.29
866.5	-1.63
866.667	-2.02
866.834	-1.28
867.001	1.53
867.168	-2.79
867.335	-0.53
867.502	-2.66
867.669	-1.24
867.836	2.45
868.003	-0.17
868.17	0.03
868.337	-0.85
868.504	1.67
868.671	-2.47
868.838	-1.65
869.005	0.16
869.172	-0.17
869.339	-0.5
869.505	-1.93
869.672	-0.57
869.839	0.93
870.006	-1.04
870.173	-0.86
870.339	-0.28
870.506	2.1
870.673	-3.79
870.84	0
871.006	-1.57
871.173	-1.25
871.34	0.15
871.506	-2.37
871.673	-0.3
871.839	-2.27
872.006	-1.32
872.173	-1.81
872.339	-0.29
872.506	0.1
872.672	-0.79
872.839	-1.84
873.005	0.52
873.172	2.77
873.338	1.04
873.505	-0.6
873.671	-1.38
873.838	-1.35
874.004	-2.75
874.171	-2.42
874.337	1.31
874.503	0.92
874.67	-0.53
874.836	-0.75
875.002	2.18
875.169	0
875.335	-0.05
875.501	0.48
875.668	1.38
875.834	-0.88
876	-0.71
876.166	1.83
876.332	-0.16
876.499	3.18
876.665	-0.76
876.831	0.28
876.997	2.86
877.163	2.43
877.329	-1.26
877.495	-1.48
877.662	0.1
877.828	0.76
877.994	-0.82
878.16	-3.43
878.326	-1.14
878.492	-1.01
878.658	-1.25
878.824	-0.44
878.99	1.01
879.156	-1.11
879.322	3.12
879.487	-2.24
879.653	-1
879.819	-0.91
879.985	-1.33
880.151	-1.58
880.317	0.47
880.483	1.97
880.648	0.99
880.814	-4.23
880.98	-0.01
881.146	-3
881.312	-1.5
881.477	-0.88
881.643	-2.12
881.809	2.23
881.974	0.57
882.14	-3.09
882.306	1.57
882.471	3.49
882.637	-1.65
882.803	-0.39
882.968	1.73
883.134	2.98
883.299	-1.29
883.465	-0.54
883.63	2.22
883.796	2.13
883.961	0.7
884.127	0.04
884.292	-5.02
884.458	-3.48
884.623	-3.48
