Data from Apollo_Calib_20240827__AbsoluteIrradiance__276__03-45-02-842.txt Node

Date: Wed Aug 28 03:45:02 BST 2024
User: biology
Spectrometer: FLMT08252
Trigger mode: 0
Integration Time (sec): 5.000000E-1
Scans to average: 5
Electric dark correction enabled: true
Nonlinearity correction enabled: false
Boxcar width: 0
XAxis mode: Wavelengths
Number of Pixels in Spectrum: 3648
>>>>>Begin Spectral Data<<<<<
179.588	-0
179.809	-0
180.03	-0
180.251	-0
180.473	-0
180.694	0
180.915	0
181.136	-0
181.357	0
181.578	-0
181.799	-0
182.02	-0
182.241	0
182.462	-0
182.683	0
182.904	-0
183.125	-0
183.346	-0
183.567	0
183.788	0
184.009	-0
184.23	0
184.451	0
184.672	-0
184.892	-0
185.113	0
185.334	0
185.555	-0
185.776	-0
185.996	0
186.217	0
186.438	0
186.659	-0
186.879	0
187.1	-0
187.321	-0
187.541	-0
187.762	0
187.983	0
188.203	-0
188.424	0
188.644	0
188.865	0
189.086	-0
189.306	0
189.527	0
189.747	0
189.968	-0
190.188	0
190.409	0
190.629	0
190.849	-0
191.07	-0
191.29	0
191.511	0
191.731	-0
191.951	-0
192.172	0
192.392	0
192.612	0
192.833	0
193.053	0
193.273	0
193.493	0
193.714	-0
193.934	0
194.154	0
194.374	0
194.594	0
194.815	0
195.035	0
195.255	0
195.475	-0
195.695	0
195.915	0
196.135	0
196.355	0
196.575	0
196.795	0
197.015	-0
197.235	-0
197.455	-0
197.675	0
197.895	-0
198.115	-0
198.335	0
198.555	0
198.775	0
198.995	0
199.214	0
199.434	-0
199.654	-0
199.874	0
200.094	0.98
200.313	0.12
200.533	-0.51
200.753	-0.99
200.973	1.16
201.192	1.02
201.412	-0.7
201.632	-0.28
201.851	1.02
202.071	-0
202.291	-0.3
202.51	-0.75
202.73	0.51
202.95	0.19
203.169	-0.65
203.389	0.22
203.608	0.42
203.828	0.01
204.047	-0.27
204.267	0.31
204.486	0.13
204.706	0.53
204.925	-0.04
205.145	-0.25
205.364	0.7
205.583	1.01
205.803	0.02
206.022	-0.37
206.242	-0.09
206.461	0.09
206.68	-0.14
206.9	0.26
207.119	0.77
207.338	0.73
207.557	-0.32
207.777	-0.19
207.996	-0.07
208.215	0.76
208.434	-0.06
208.654	0.02
208.873	0.4
209.092	0.73
209.311	-0.01
209.53	-0.09
209.749	0.02
209.968	0.15
210.187	0.2
210.407	-0.28
210.626	-0.07
210.845	0.33
211.064	0.15
211.283	-0.22
211.502	0.64
211.721	0.09
211.94	-0.02
212.159	0.28
212.377	0.34
212.596	0.58
212.815	0.29
213.034	0.24
213.253	0.5
213.472	0.33
213.691	0.01
213.91	-0.18
214.128	-0.07
214.347	0.53
214.566	-0.41
214.785	-0.16
215.003	0.35
215.222	0.26
215.441	0.12
215.66	-0.16
215.878	0.02
216.097	0.38
216.316	-0.07
216.534	-0.14
216.753	0.09
216.972	0.05
217.19	-0.05
217.409	-0.01
217.627	-0.06
217.846	0.05
218.064	0.04
218.283	-0.01
218.501	0.55
218.72	0.29
218.938	-0.06
219.157	0.03
219.375	0.37
219.594	0.1
219.812	-0.21
220.031	-0.14
220.249	0.32
220.467	0.47
220.686	-0.06
220.904	-0.17
221.122	-0.05
221.341	0.38
221.559	0.18
221.777	-0.19
221.995	0.11
222.214	0.08
222.432	-0.11
222.65	0.3
222.868	0.07
223.086	0.17
223.305	0.26
223.523	0.07
223.741	0.25
223.959	-0.06
224.177	-0.32
224.395	-0.05
224.613	0.18
224.831	0.36
225.049	-0.02
225.267	0.16
225.485	0.1
225.703	0.15
225.921	0.02
226.139	-0.06
226.357	0.32
226.575	0.11
226.793	-0.11
227.011	0.73
227.229	0.17
227.447	0.21
227.665	-0.03
227.883	-0.12
228.1	0.16
228.318	0.2
228.536	-0.2
228.754	-0.16
228.972	0.21
229.189	0.14
229.407	-0
229.625	-0.02
229.843	0.25
230.06	0.12
230.278	-0.06
230.496	-0
230.713	0.15
230.931	0.26
231.149	0.06
231.366	-0.12
231.584	0.15
231.801	0.33
232.019	0
232.236	-0.09
232.454	-0.15
232.671	0.17
232.889	-0.04
233.106	-0.07
233.324	-0.07
233.541	-0.02
233.759	0.08
233.976	0
234.194	0.17
234.411	0.14
234.628	-0.03
234.846	0.01
235.063	0.11
235.28	0.11
235.498	0.09
235.715	-0.09
235.932	0.2
236.149	0.02
236.367	-0.1
236.584	0.06
236.801	0.03
237.018	0.19
237.236	0.1
237.453	-0.11
237.67	0.18
237.887	0.16
238.104	-0
238.321	-0.06
238.538	-0.01
238.755	0.16
238.973	-0.11
239.19	-0.05
239.407	0.07
239.624	0.07
239.841	-0.06
240.058	-0.03
240.275	0.19
240.492	0.12
240.709	-0.01
240.925	-0.02
241.142	0.05
241.359	-0.09
241.576	-0.07
241.793	-0.05
242.01	0.1
242.227	0.18
242.444	0.09
242.66	0.12
242.877	0.09
243.094	-0.02
243.311	0.07
243.527	0.04
243.744	0.09
243.961	0.1
244.178	-0.04
244.394	-0.01
244.611	0.26
244.828	0.26
245.044	-0.09
245.261	0.05
245.477	0.09
245.694	0.19
245.911	0
246.127	0.03
246.344	0.17
246.56	0.19
246.777	0.05
246.993	0.06
247.21	0.14
247.426	0.08
247.643	-0.02
247.859	-0.02
248.076	-0.01
248.292	0.22
248.508	-0.07
248.725	0.13
248.941	0.06
249.157	0.19
249.374	-0.02
249.59	0.05
249.806	0.01
250.023	0.08
250.239	-0.08
250.455	0.02
250.671	0.08
250.888	0.13
251.104	0.17
251.32	-0
251.536	0.09
251.752	0.02
251.969	-0.01
252.185	0.02
252.401	0.3
252.617	0.07
252.833	0
253.049	0.09
253.265	0.03
253.481	0.04
253.697	0.05
253.913	-0.03
254.129	0.05
254.345	0.03
254.561	-0.03
254.777	0.01
254.993	0.09
255.209	0.08
255.425	-0.03
255.641	-0.04
255.857	0.19
256.073	0.06
256.288	-0.11
256.504	-0.03
256.72	0.15
256.936	0.21
257.152	-0.01
257.367	-0.07
257.583	0.02
257.799	0.19
258.015	-0.03
258.23	0.01
258.446	0.21
258.662	0.02
258.877	-0.02
259.093	0.03
259.309	-0.04
259.524	0.04
259.74	-0.02
259.955	-0.07
260.171	0.02
260.387	0.04
260.602	0.16
260.818	0.12
261.033	-0.01
261.249	0.01
261.464	0.03
261.68	-0.1
261.895	0.03
262.11	0.12
262.326	-0.05
262.541	-0.1
262.757	0.11
262.972	0.07
263.187	0.07
263.403	0.04
263.618	0.08
263.833	-0.04
264.049	-0.09
264.264	0.05
264.479	0.04
264.694	0.19
264.91	-0.07
265.125	-0.01
265.34	0.14
265.555	0.24
265.77	0.08
265.986	0.02
266.201	0.06
266.416	0.12
266.631	0.06
266.846	-0.01
267.061	0.04
267.276	0.08
267.491	-0.09
267.706	0.08
267.921	0.1
268.136	0.06
268.351	0
268.566	-0.02
268.781	0.16
268.996	0.12
269.211	0.07
269.426	-0.02
269.641	0.02
269.856	0.05
270.071	-0.01
270.285	-0.06
270.5	0.09
270.715	0.13
270.93	0.04
271.145	0.07
271.359	0.17
271.574	-0.01
271.789	0.04
272.004	-0.02
272.218	-0.03
272.433	0.13
272.648	0
272.862	0.07
273.077	0
273.292	0.07
273.506	-0.04
273.721	0.01
273.936	0.07
274.15	0.1
274.365	0.03
274.579	0.05
274.794	0.1
275.008	0.1
275.223	-0.01
275.437	0.02
275.652	0.12
275.866	0.09
276.081	0.04
276.295	0.08
276.509	0.03
276.724	0.02
276.938	0.02
277.153	0.04
277.367	0.11
277.581	0.05
277.796	-0.03
278.01	-0.02
278.224	0.04
278.438	0.2
278.653	-0.01
278.867	0.03
279.081	-0.13
279.295	0.05
279.51	0.1
279.724	-0.07
279.938	0.11
280.152	0.03
280.366	-0.01
280.58	0.06
280.794	0.15
281.008	0.05
281.222	0.1
281.437	0.2
281.651	0.09
281.865	0.14
282.079	0.03
282.293	-0.09
282.507	-0.01
282.721	0.04
282.935	0.05
283.148	-0.06
283.362	-0.02
283.576	-0.04
283.79	0.06
284.004	0.06
284.218	0.11
284.432	0
284.646	0.02
284.859	0.03
285.073	0.02
285.287	0.04
285.501	-0.01
285.714	0
285.928	0.03
286.142	0.06
286.356	0.04
286.569	0.01
286.783	0.14
286.997	0.05
287.21	0.04
287.424	0.02
287.637	-0.02
287.851	-0.01
288.065	0.03
288.278	0.04
288.492	0.01
288.705	0.05
288.919	0.05
289.132	-0.05
289.346	0.1
289.559	-0.05
289.773	-0.02
289.986	0.01
290.2	0.05
290.413	0.09
290.626	-0.01
290.84	0.04
291.053	0.02
291.267	0.08
291.48	0.05
291.693	0.04
291.906	0.01
292.12	0.06
292.333	0.01
292.546	-0.01
292.76	0.1
292.973	0.04
293.186	0.08
293.399	-0.05
293.612	0.08
293.826	0.04
294.039	0.01
294.252	0.02
294.465	0.1
294.678	0.02
294.891	0.06
295.104	-0.01
295.317	0.08
295.53	0.04
295.743	-0
295.956	0
296.169	0.1
296.382	0.08
296.595	0.06
296.808	-0
297.021	0.13
297.234	0.09
297.447	0.03
297.66	0.01
297.873	0.12
298.086	0.1
298.299	0.01
298.511	-0.04
298.724	0.02
298.937	-0.01
299.15	0.01
299.363	0.02
299.575	0.05
299.788	0.09
300.001	-0.01
300.213	-0.04
300.426	0.07
300.639	0
300.852	0.01
301.064	0.1
301.277	0.08
301.489	0.08
301.702	0.05
301.915	0.01
302.127	0.04
302.34	0.08
302.552	0.11
302.765	0.03
302.977	0.09
303.19	0.01
303.402	0
303.615	-0.01
303.827	-0.02
304.04	0.03
304.252	0.08
304.464	0.06
304.677	0.12
304.889	0.07
305.102	0
305.314	0.02
305.526	0.07
305.739	0.08
305.951	-0.03
306.163	0.03
306.375	0.1
306.588	-0
306.8	-0.01
307.012	-0.02
307.224	0.05
307.436	0.08
307.649	-0.11
307.861	0.05
308.073	0.07
308.285	0.04
308.497	-0.01
308.709	0.04
308.921	0.03
309.133	0.08
309.346	0.02
309.558	0.06
309.77	0.04
309.982	0.13
310.194	0.08
310.406	-0.01
310.617	0.09
310.829	0.03
311.041	0.07
311.253	0.04
311.465	0.04
311.677	0.04
311.889	0.02
312.101	0.01
312.313	0.08
312.524	0.11
312.736	-0.02
312.948	0.01
313.16	0.12
313.372	0.08
313.583	0.03
313.795	-0.01
314.007	0.02
314.218	0.04
314.43	0.07
314.642	-0.03
314.853	-0.05
315.065	0.08
315.277	0
315.488	0.08
315.7	0.03
315.912	0.07
316.123	0.01
316.335	0.03
316.546	0.16
316.758	0.05
316.969	0.02
317.181	0.08
317.392	0.06
317.604	0.06
317.815	0.02
318.026	-0.04
318.238	0.07
318.449	0.06
318.661	-0.03
318.872	-0.02
319.083	-0.01
319.295	0.07
319.506	0.03
319.717	0.05
319.929	0.09
320.14	0.05
320.351	0.03
320.562	-0
320.774	0.04
320.985	0.06
321.196	-0.03
321.407	-0.07
321.618	0.09
321.829	0.03
322.041	0.07
322.252	0.05
322.463	0.09
322.674	0.08
322.885	0.01
323.096	0.01
323.307	0.05
323.518	0.02
323.729	0.03
323.94	0.05
324.151	0.03
324.362	0.1
324.573	0.04
324.784	0.01
324.995	0.05
325.206	0.07
325.417	-0.01
325.628	0.02
325.838	0.04
326.049	0.09
326.26	0.05
326.471	0.05
326.682	0.09
326.892	0.05
327.103	-0.05
327.314	0.02
327.525	0.11
327.735	0.07
327.946	0.02
328.157	-0
328.368	0.06
328.578	-0
328.789	0.06
328.999	0.04
329.21	0.06
329.421	0.02
329.631	-0.01
329.842	0.03
330.052	0.06
330.263	0.07
330.473	0.07
330.684	0.05
330.894	0
331.105	0.09
331.315	0.03
331.526	-0.01
331.736	0.11
331.947	0.07
332.157	0.07
332.367	-0.05
332.578	0.08
332.788	0.1
332.999	0.08
333.209	0.02
333.419	-0.02
333.629	0.07
333.84	0.05
334.05	-0.01
334.26	0.09
334.47	0.02
334.681	0.09
334.891	-0.03
335.101	0.09
335.311	0.13
335.521	0.04
335.732	0
335.942	0.06
336.152	0.05
336.362	0.08
336.572	0.04
336.782	0.08
336.992	-0.01
337.202	0.01
337.412	-0.02
337.622	0.03
337.832	0.01
338.042	0.04
338.252	0.04
338.462	0.01
338.672	0.06
338.882	-0
339.092	0.03
339.302	0.11
339.511	0.06
339.721	-0
339.931	0.02
340.141	0.11
340.351	0.13
340.561	0.05
340.77	0.02
340.98	0.07
341.19	0.09
341.4	-0
341.609	0.02
341.819	0.07
342.029	0.01
342.238	0.05
342.448	0
342.658	0.08
342.867	0.05
343.077	0.02
343.286	0.07
343.496	0.07
343.706	0.13
343.915	-0.01
344.125	0.08
344.334	0.09
344.544	-0.01
344.753	-0.02
344.963	0
345.172	0.01
345.381	0.04
345.591	0.07
345.8	0.04
346.01	0.08
346.219	0.1
346.428	-0.07
346.638	0.04
346.847	0.05
347.056	0.14
347.266	0.01
347.475	0.05
347.684	0.09
347.893	0.08
348.103	0.06
348.312	-0.01
348.521	0.02
348.73	0.06
348.94	0.04
349.149	0.02
349.358	0.07
349.567	0.03
349.776	0.03
349.985	-0.01
350.194	0.09
350.403	0.06
350.612	0.01
350.821	0.04
351.03	0.02
351.239	-0.01
351.448	0.02
351.657	0.02
351.866	0.12
352.075	0.06
352.284	0.09
352.493	0.02
352.702	0.11
352.911	0.06
353.12	0.03
353.329	0.09
353.538	0.06
353.746	0.03
353.955	-0.01
354.164	0.07
354.373	0.04
354.582	0.09
354.79	0.07
354.999	0.1
355.208	0.02
355.416	0.13
355.625	-0.01
355.834	-0
356.042	0.09
356.251	0.01
356.46	0.01
356.668	0.07
356.877	0.16
357.085	0.06
357.294	-0.08
357.503	0.07
357.711	0.03
357.92	0.16
358.128	0.04
358.337	0.03
358.545	0.1
358.754	0.03
358.962	0.08
359.17	0.04
359.379	0.13
359.587	0.11
359.796	0.08
360.004	0.1
360.212	0.09
360.421	0.08
360.629	0.02
360.837	0.05
361.046	0.1
361.254	0.17
361.462	0.03
361.67	0.02
361.879	0.02
362.087	0.16
362.295	0.01
362.503	0.02
362.711	0.01
362.92	0.01
363.128	0.03
363.336	-0.02
363.544	-0.02
363.752	0.07
363.96	0.03
364.168	0
364.376	0.11
364.584	0.09
364.792	0.09
365	0.05
365.208	0.06
365.416	0.07
365.624	0.06
365.832	0.03
366.04	0.12
366.248	0.05
366.456	0.08
366.664	0.04
366.872	0.07
367.079	0.04
367.287	0.03
367.495	0.06
367.703	0.06
367.911	0.05
368.118	0.05
368.326	0.04
368.534	0.01
368.742	0.09
368.949	-0
369.157	0.02
369.365	0.07
369.572	0.02
369.78	-0.02
369.988	0.1
370.195	0.08
370.403	0.1
370.61	0.08
370.818	0.11
371.026	0.14
371.233	-0
371.441	0.02
371.648	0.05
371.856	0.07
372.063	0.08
372.271	0.08
372.478	0.01
372.685	0.09
372.893	0.09
373.1	0.05
373.308	0.05
373.515	0.16
373.722	0.08
373.93	0.06
374.137	0.05
374.344	0.16
374.552	0.12
374.759	0.13
374.966	0.04
375.173	0.07
375.381	0.11
375.588	0.07
375.795	0.01
376.002	0.1
376.209	0.03
376.417	0.07
376.624	0.04
376.831	0.08
377.038	0.03
377.245	-0.03
377.452	0.06
377.659	0.05
377.866	0.05
378.073	0.06
378.28	0.07
378.487	0.1
378.694	0.09
378.901	0.02
379.108	0.03
379.315	0.12
379.522	0.17
379.729	0.07
379.936	0.08
380.143	0.1
380.35	0.07
380.557	0.03
380.763	0.05
380.97	0.04
381.177	0.07
381.384	0.09
381.591	0.06
381.797	0.08
382.004	0.09
382.211	0.12
382.418	0.04
382.624	0.09
382.831	0.1
383.038	0.05
383.244	0.04
383.451	0.07
383.658	0.12
383.864	0.05
384.071	0.05
384.277	0.18
384.484	0.05
384.69	0.12
384.897	0.05
385.103	0.07
385.31	0.04
385.516	0.1
385.723	0.06
385.929	0.1
386.136	0.08
386.342	0.12
386.549	0.07
386.755	0.12
386.961	0.12
387.168	0.06
387.374	0.12
387.58	0.14
387.787	0.11
387.993	0.08
388.199	0.08
388.406	0.09
388.612	0.07
388.818	0.06
389.024	0.05
389.231	0.12
389.437	0.17
389.643	0.15
389.849	0.1
390.055	0.14
390.261	0.12
390.467	0.14
390.674	0.06
390.88	0.11
391.086	0.15
391.292	0.1
391.498	0.14
391.704	0.15
391.91	0.11
392.116	0.11
392.322	0.06
392.528	0.16
392.734	0.13
392.94	0.13
393.146	0.1
393.352	0.17
393.557	0.18
393.763	0.16
393.969	0.18
394.175	0.18
394.381	0.19
394.587	0.14
394.792	0.21
394.998	0.23
395.204	0.26
395.41	0.16
395.615	0.22
395.821	0.26
396.027	0.24
396.233	0.21
396.438	0.23
396.644	0.35
396.85	0.31
397.055	0.29
397.261	0.29
397.466	0.27
397.672	0.26
397.878	0.37
398.083	0.31
398.289	0.33
398.494	0.36
398.7	0.37
398.905	0.31
399.111	0.47
399.316	0.35
399.522	0.35
399.727	0.37
399.932	0.38
400.138	0.43
400.343	0.49
400.549	0.49
400.754	0.53
400.959	0.55
401.165	0.54
401.37	0.58
401.575	0.7
401.78	0.62
401.986	0.62
402.191	0.68
402.396	0.69
402.601	0.79
402.807	0.9
403.012	0.89
403.217	0.96
403.422	1
403.627	0.97
403.832	1.02
404.037	1.09
404.243	1.13
404.448	1.14
404.653	1.18
404.858	1.28
405.063	1.28
405.268	1.35
405.473	1.41
405.678	1.5
405.883	1.78
406.088	1.7
406.293	1.59
406.498	1.71
406.703	1.82
406.907	1.86
407.112	1.93
407.317	2.15
407.522	2.3
407.727	2.36
407.932	2.42
408.136	2.68
408.341	2.63
408.546	2.72
408.751	2.88
408.956	2.98
409.16	3.18
409.365	3.24
409.57	3.28
409.774	3.46
409.979	3.62
410.184	3.75
410.388	3.82
410.593	4.13
410.798	4.32
411.002	4.47
411.207	4.67
411.411	4.83
411.616	4.95
411.82	5.21
412.025	5.35
412.229	5.55
412.434	5.74
412.638	5.88
412.843	6.19
413.047	6.32
413.252	6.43
413.456	6.84
413.66	7.04
413.865	7.14
414.069	7.38
414.273	7.67
414.478	7.88
414.682	8.12
414.886	8.44
415.091	8.44
415.295	8.87
415.499	9.22
415.703	9.29
415.908	9.73
416.112	9.97
416.316	10.39
416.52	10.64
416.724	10.85
416.929	11.18
417.133	11.81
417.337	11.68
417.541	12.09
417.745	12.48
417.949	12.64
418.153	13.16
418.357	13.27
418.561	14.02
418.765	13.91
418.969	14.34
419.173	15.08
419.377	15.05
419.581	15.72
419.785	16.11
419.989	16.18
420.193	16.77
420.397	16.88
420.601	17.06
420.804	17.51
421.008	17.3
421.212	17.85
421.416	17.36
421.62	17.73
421.823	17.65
422.027	17.69
422.231	17.64
422.435	17.34
422.638	17.18
422.842	17.38
423.046	17.59
423.249	17.85
423.453	17.6
423.657	17.55
423.86	17.71
424.064	17.87
424.268	17.65
424.471	17.43
424.675	17.56
424.878	17.38
425.082	17.48
425.285	17.96
425.489	17
425.692	17.03
425.896	16.54
426.099	16.42
426.303	16.54
426.506	16.36
426.71	16.43
426.913	16.2
427.116	16.18
427.32	15.52
427.523	15.11
427.726	15.07
427.93	14.97
428.133	15.08
428.336	14.83
428.54	14.55
428.743	14.34
428.946	14.34
429.149	13.64
429.353	13.2
429.556	12.83
429.759	12.28
429.962	12.07
430.165	11.71
430.368	10.86
430.571	10.41
430.775	10.22
430.978	9.78
431.181	9.47
431.384	9.1
431.587	8.93
431.79	8.98
431.993	8.75
432.196	8.51
432.399	8.64
432.602	8.43
432.805	8.2
433.008	8.28
433.211	7.91
433.414	7.97
433.616	7.59
433.819	7.29
434.022	7.13
434.225	7.08
434.428	6.84
434.631	6.86
434.833	6.52
435.036	6.42
435.239	6.34
435.442	6.14
435.645	6.08
435.847	5.92
436.05	5.92
436.253	5.85
436.455	5.57
436.658	5.28
436.861	5.28
437.063	5.12
437.266	5.04
437.468	4.94
437.671	4.97
437.874	4.74
438.076	4.54
438.279	4.45
438.481	4.39
438.684	4.52
438.886	4.26
439.089	4.14
439.291	4.05
439.494	4
439.696	3.87
439.899	3.94
440.101	3.94
440.303	3.78
440.506	3.82
440.708	3.67
440.91	3.57
441.113	3.48
441.315	3.5
441.517	3.13
441.72	3.24
441.922	3.09
442.124	2.85
442.326	2.9
442.529	2.87
442.731	2.7
442.933	2.78
443.135	2.56
443.337	2.43
443.539	2.46
443.742	2.28
443.944	2.38
444.146	2.21
444.348	2.2
444.55	2.06
444.752	2.05
444.954	1.97
445.156	1.97
445.358	1.85
445.56	1.92
445.762	1.82
445.964	1.77
446.166	1.63
446.368	1.61
446.57	1.69
446.772	1.56
446.974	1.43
447.175	1.5
447.377	1.41
447.579	1.47
447.781	1.36
447.983	1.39
448.184	1.27
448.386	1.35
448.588	1.2
448.79	1.25
448.991	1.15
449.193	1.19
449.395	1.14
449.597	1.15
449.798	1.07
450	1.11
450.202	1.08
450.403	1.04
450.605	1.06
450.806	0.98
451.008	0.89
451.21	0.95
451.411	0.9
451.613	0.87
451.814	0.86
452.016	0.95
452.217	0.81
452.419	0.87
452.62	0.81
452.821	0.82
453.023	0.87
453.224	0.81
453.426	0.78
453.627	0.69
453.828	0.72
454.03	0.71
454.231	0.77
454.432	0.67
454.634	0.82
454.835	0.6
455.036	0.62
455.238	0.71
455.439	0.75
455.64	0.57
455.841	0.57
456.042	0.7
456.244	0.66
456.445	0.52
456.646	0.46
456.847	0.55
457.048	0.61
457.249	0.6
457.45	0.86
457.651	0.47
457.852	0.52
458.054	0.47
458.255	0.4
458.456	0.51
458.657	0.46
458.858	0.41
459.058	0.44
459.259	0.5
459.46	0.35
459.661	0.4
459.862	0.53
460.063	0.36
460.264	0.43
460.465	0.37
460.666	0.51
460.866	0.32
461.067	0.29
461.268	0.34
461.469	0.35
461.67	0.32
461.87	0.34
462.071	0.31
462.272	0.3
462.473	0.3
462.673	0.34
462.874	0.28
463.075	0.36
463.275	0.28
463.476	0.34
463.676	0.33
463.877	0.29
464.078	0.3
464.278	0.38
464.479	0.26
464.679	0.3
464.88	0.28
465.08	0.34
465.281	0.27
465.481	0.3
465.682	0.19
465.882	0.33
466.083	0.24
466.283	0.22
466.483	0.26
466.684	0.19
466.884	0.19
467.085	0.19
467.285	0.27
467.485	0.16
467.686	0.2
467.886	0.2
468.086	0.21
468.286	0.21
468.487	0.23
468.687	0.15
468.887	0.16
469.087	0.23
469.287	0.19
469.488	0.1
469.688	0.2
469.888	0.27
470.088	0.24
470.288	0.25
470.488	0.23
470.688	0.13
470.888	0.13
471.088	0.15
471.288	0.23
471.488	0.2
471.688	0.2
471.888	0.15
472.088	0.26
472.288	0.17
472.488	0.14
472.688	0.12
472.888	0.16
473.088	0.16
473.288	0.14
473.488	0.15
473.688	0.22
473.887	0.13
474.087	0.1
474.287	0.16
474.487	0.14
474.687	0.16
474.886	0.12
475.086	0.09
475.286	0.14
475.486	0.15
475.685	0.12
475.885	0.09
476.085	0.15
476.284	0.14
476.484	0.12
476.684	0.12
476.883	0.19
477.083	0.14
477.282	0.08
477.482	0.16
477.681	0.14
477.881	0.14
478.08	0.07
478.28	0.08
478.479	0.13
478.679	0.2
478.878	0.06
479.078	0.06
479.277	0.1
479.477	0.11
479.676	0.11
479.875	0.08
480.075	0
480.274	0.11
480.473	0.11
480.673	0.07
480.872	0.1
481.071	0.11
481.271	0.1
481.47	0.09
481.669	0.08
481.868	0.08
482.067	0.08
482.267	0.06
482.466	0.06
482.665	0.03
482.864	0.05
483.063	0.02
483.262	0.1
483.461	0.14
483.661	0.11
483.86	0.07
484.059	0.09
484.258	0.07
484.457	0.05
484.656	0.07
484.855	0.11
485.054	0.05
485.253	0.05
485.452	0.04
485.651	0.07
485.849	0.05
486.048	0.03
486.247	0.03
486.446	0.06
486.645	0.04
486.844	0.04
487.043	0.05
487.241	0.07
487.44	0.05
487.639	0.05
487.838	0.07
488.037	0.07
488.235	0.12
488.434	0.07
488.633	0.03
488.831	0.06
489.03	0.1
489.229	0.09
489.427	0.04
489.626	0.1
489.825	0.13
490.023	0.06
490.222	0.05
490.42	0.07
490.619	0.11
490.817	0.08
491.016	0.06
491.214	0.08
491.413	0.05
491.611	0.05
491.81	0.04
492.008	0.08
492.207	0.05
492.405	0.06
492.604	0
492.802	0.04
493	0.06
493.199	0.02
493.397	0.04
493.595	0.04
493.794	0.05
493.992	0.11
494.19	0.04
494.388	0.07
494.587	0.04
494.785	0.06
494.983	0
495.181	0.08
495.379	0.04
495.578	0.03
495.776	0.05
495.974	0.07
496.172	0.06
496.37	0.04
496.568	0.03
496.766	0.04
496.964	0.05
497.162	0.06
497.36	0.02
497.558	0.06
497.756	0.06
497.954	0.05
498.152	0.03
498.35	0.04
498.548	0.05
498.746	0.02
498.944	0.03
499.142	0.05
499.34	0.03
499.538	0.04
499.736	0.01
499.933	0.08
500.131	0.07
500.329	0.05
500.527	0.07
500.725	0.06
500.922	0.05
501.12	0.03
501.318	0.05
501.516	0.02
501.713	0.04
501.911	0.04
502.109	-0
502.306	0.06
502.504	0.04
502.701	0.03
502.899	0.01
503.097	0.07
503.294	0.05
503.492	0.02
503.689	0.02
503.887	0.07
504.084	0.12
504.282	0.05
504.479	-0
504.677	0.07
504.874	0.02
505.072	0.03
505.269	0.03
505.466	0.08
505.664	0.05
505.861	0.02
506.059	0.02
506.256	0.07
506.453	0.04
506.651	0.08
506.848	0.07
507.045	0.05
507.242	0.06
507.44	0.01
507.637	0.04
507.834	0.01
508.031	0.07
508.229	0.02
508.426	0.01
508.623	0.05
508.82	0.01
509.017	0.02
509.214	0.04
509.411	0.05
509.608	-0.01
509.805	0.04
510.003	0.02
510.2	0.01
510.397	0.07
510.594	0.02
510.791	0.02
510.988	0
511.184	0.04
511.381	0.02
511.578	0
511.775	0.06
511.972	0.01
512.169	0.04
512.366	0.02
512.563	0.04
512.76	0.01
512.956	0.01
513.153	0.02
513.35	0.04
513.547	0.02
513.744	0
513.94	0.01
514.137	0.05
514.334	0.04
514.53	0.03
514.727	0.03
514.924	0.08
515.12	0.01
515.317	-0.01
515.514	0.01
515.71	0
515.907	0.03
516.103	0.01
516.3	0.04
516.497	0.07
516.693	0.07
516.89	0.03
517.086	0
517.283	0.08
517.479	0.02
517.676	0.01
517.872	0.02
518.068	0.02
518.265	0.02
518.461	-0
518.658	-0.01
518.854	0.05
519.05	0.01
519.247	0.01
519.443	0.04
519.639	0.03
519.836	0.03
520.032	0.04
520.228	0.03
520.424	0.07
520.621	0.04
520.817	0.02
521.013	0.05
521.209	0.02
521.405	0.07
521.601	0.03
521.798	0.03
521.994	0.08
522.19	0
522.386	-0
522.582	0.02
522.778	0.03
522.974	0.02
523.17	0.02
523.366	0.03
523.562	0.05
523.758	0.02
523.954	-0
524.15	0.01
524.346	0.07
524.542	0.02
524.738	0.01
524.934	0.01
525.129	0.04
525.325	0.02
525.521	0.02
525.717	0.04
525.913	0.02
526.109	0.01
526.304	0.01
526.5	0.04
526.696	0.03
526.892	0.01
527.087	0.02
527.283	-0.01
527.479	0.04
527.674	0.01
527.87	-0
528.066	0.02
528.261	0.05
528.457	0.03
528.653	0.01
528.848	0.01
529.044	0.05
529.239	0.04
529.435	0.04
529.63	0.03
529.826	0.08
530.021	0.04
530.217	0.03
530.412	-0
530.608	0.01
530.803	0.03
530.999	0.03
531.194	-0.04
531.389	0.03
531.585	-0.03
531.78	0.03
531.975	0.03
532.171	0.06
532.366	0.02
532.561	0.03
532.757	0
532.952	0.03
533.147	0.03
533.342	0.01
533.538	0
533.733	0.07
533.928	0.05
534.123	0.01
534.318	-0.02
534.513	0.03
534.709	0.01
534.904	0.02
535.099	0.01
535.294	0.01
535.489	0.03
535.684	0
535.879	-0.01
536.074	0.01
536.269	0.02
536.464	0.04
536.659	0.03
536.854	0.01
537.049	0.03
537.244	0.03
537.439	0.01
537.634	0.04
537.828	0.03
538.023	0
538.218	-0.03
538.413	0.01
538.608	-0.02
538.803	0.04
538.997	-0.02
539.192	0.05
539.387	0.03
539.582	0.03
539.776	0.03
539.971	0
540.166	0.01
540.36	-0.02
540.555	0.01
540.75	0.01
540.944	0.03
541.139	-0.01
541.334	0.01
541.528	0.04
541.723	0.01
541.917	0.02
542.112	-0.02
542.306	-0.01
542.501	-0.01
542.695	0.02
542.89	0.02
543.084	0.01
543.279	0.02
543.473	-0
543.668	0.02
543.862	-0.01
544.056	0.03
544.251	0.01
544.445	0.01
544.64	0.01
544.834	-0.02
545.028	0.03
545.222	0.01
545.417	0.03
545.611	0.02
545.805	0.02
546	0
546.194	0
546.388	-0
546.582	0.03
546.776	0.01
546.97	0
547.165	0.03
547.359	0.03
547.553	-0.01
547.747	0.02
547.941	0.02
548.135	0.01
548.329	0.04
548.523	0.02
548.717	-0
548.911	0.01
549.105	0
549.299	0.04
549.493	0.04
549.687	0.03
549.881	0.04
550.075	0.01
550.269	-0
550.463	0.01
550.657	0.01
550.85	0.01
551.044	0
551.238	-0
551.432	-0
551.626	-0.01
551.82	0.04
552.013	-0
552.207	0.02
552.401	0.03
552.594	0.05
552.788	0.02
552.982	0.01
553.176	-0
553.369	0.04
553.563	0.01
553.756	-0.03
553.95	-0.01
554.144	0.01
554.337	0.03
554.531	0.01
554.724	0.04
554.918	-0.01
555.111	0.03
555.305	0.01
555.498	0.06
555.692	0.03
555.885	0.02
556.079	0.03
556.272	0.01
556.466	0.04
556.659	0.01
556.852	0
557.046	0
557.239	0.05
557.432	-0.01
557.626	-0
557.819	0.02
558.012	0.02
558.206	0.03
558.399	0.02
558.592	0.02
558.785	0.02
558.979	0.05
559.172	0.02
559.365	0.03
559.558	0
559.751	-0
559.944	0.03
560.138	-0.01
560.331	0.02
560.524	-0
560.717	0.02
560.91	0.04
561.103	0.06
561.296	0.02
561.489	0.03
561.682	0.02
561.875	0.05
562.068	0.04
562.261	0.03
562.454	0.04
562.647	0.04
562.84	0.03
563.032	-0
563.225	0.04
563.418	-0.01
563.611	-0.02
563.804	0.01
563.997	-0.01
564.19	-0.01
564.382	0.03
564.575	-0
564.768	0
564.961	0.01
565.153	-0
565.346	0.04
565.539	0.02
565.731	0.04
565.924	0.05
566.117	0.04
566.309	-0
566.502	0.02
566.695	0.01
566.887	0.01
567.08	-0.02
567.272	-0.01
567.465	-0.01
567.657	0.01
567.85	0.03
568.042	0.03
568.235	0.04
568.427	0.03
568.62	-0.01
568.812	0.01
569.005	0.01
569.197	-0.03
569.389	0.03
569.582	0.02
569.774	0.03
569.966	-0.03
570.159	-0.02
570.351	0.04
570.543	-0
570.736	0.02
570.928	-0.02
571.12	0.01
571.312	0
571.505	-0.03
571.697	0.05
571.889	-0.02
572.081	-0.01
572.273	-0.02
572.465	0.04
572.658	-0.01
572.85	0.04
573.042	0.01
573.234	-0
573.426	0.05
573.618	-0.02
573.81	0.01
574.002	0.05
574.194	0.04
574.386	-0.04
574.578	-0.07
574.77	-0.02
574.962	0
575.154	-0.02
575.346	-0.01
575.538	0.01
575.729	-0.01
575.921	-0
576.113	-0.01
576.305	0.03
576.497	-0
576.689	0.01
576.88	0.02
577.072	0.03
577.264	-0.01
577.456	0.01
577.647	-0.06
577.839	-0.01
578.031	0.06
578.223	-0.02
578.414	-0.01
578.606	0.03
578.798	-0.02
578.989	-0.01
579.181	-0
579.372	-0.02
579.564	-0.02
579.755	-0.01
579.947	0.01
580.139	0.02
580.33	-0.03
580.522	0
580.713	-0.06
580.905	0.01
581.096	0.01
581.287	-0
581.479	-0.01
581.67	0.02
581.862	0.02
582.053	-0.02
582.244	-0.04
582.436	0.01
582.627	0
582.818	-0.04
583.01	-0.02
583.201	0.01
583.392	0.06
583.583	0
583.775	-0.01
583.966	-0.02
584.157	0.01
584.348	-0.01
584.54	-0.05
584.731	0.03
584.922	-0.02
585.113	-0.04
585.304	0.02
585.495	0.04
585.686	0.02
585.877	0.02
586.068	0.03
586.259	0.03
586.45	0.02
586.641	-0.03
586.832	-0.04
587.023	0.01
587.214	0
587.405	0.02
587.596	-0.02
587.787	0.05
587.978	0
588.169	-0.02
588.36	-0.02
588.551	0.03
588.742	-0.02
588.932	0
589.123	-0.01
589.314	0.05
589.505	0.03
589.696	0.03
589.886	-0.02
590.077	-0.02
590.268	0.03
590.458	-0.02
590.649	-0.03
590.84	0.02
591.03	0.01
591.221	-0.05
591.412	-0.02
591.602	0.02
591.793	0.05
591.984	-0.03
592.174	-0.01
592.365	0.04
592.555	-0.01
592.746	0.02
592.936	0.04
593.127	0.02
593.317	0.05
593.508	-0.02
593.698	-0.02
593.889	0.01
594.079	0.02
594.269	-0.02
594.46	-0
594.65	0
594.84	0
595.031	-0.03
595.221	-0.02
595.411	-0.04
595.602	0.05
595.792	-0.01
595.982	-0.01
596.172	0.06
596.363	0.01
596.553	0.01
596.743	-0.02
596.933	0.02
597.123	0.05
597.314	-0.01
597.504	-0.03
597.694	0.03
597.884	0.01
598.074	-0.01
598.264	-0.01
598.454	-0
598.644	0
598.834	-0
599.024	-0.06
599.214	-0
599.404	0.01
599.594	-0.02
599.784	-0.03
599.974	0.07
600.164	0.02
600.354	-0.02
600.544	-0.05
600.734	0.03
600.924	0.06
601.114	-0.02
601.303	0
601.493	0.01
601.683	-0.01
601.873	0.01
602.063	-0.03
602.252	0.05
602.442	-0.05
602.632	-0.03
602.821	-0.04
603.011	0.01
603.201	0.01
603.39	-0.03
603.58	-0.01
603.77	0.02
603.959	0.04
604.149	-0.01
604.339	-0
604.528	0.04
604.718	0.04
604.907	-0.01
605.097	-0.05
605.286	-0.04
605.476	0.05
605.665	-0
605.855	-0.02
606.044	0.04
606.234	0.02
606.423	0.02
606.612	-0.01
606.802	-0
606.991	0.01
607.181	0.03
607.37	-0.04
607.559	0.03
607.749	-0.05
607.938	0.01
608.127	0.01
608.316	-0.02
608.506	0.02
608.695	-0.01
608.884	-0.02
609.073	0.01
609.263	0.03
609.452	0.02
609.641	0.01
609.83	-0.03
610.019	-0
610.208	-0.03
610.397	-0
610.586	0.06
610.775	-0.01
610.965	-0.02
611.154	-0.02
611.343	0.04
611.532	0.02
611.721	-0.03
611.91	-0.04
612.099	0.03
612.287	-0.01
612.476	-0.05
612.665	0.02
612.854	-0.02
613.043	0.03
613.232	-0.02
613.421	-0.04
613.61	0.02
613.798	-0.04
613.987	0.03
614.176	-0.02
614.365	0.01
614.554	-0
614.742	0.04
614.931	-0.03
615.12	0.02
615.309	-0
615.497	0.01
615.686	-0.03
615.875	-0.02
616.063	0.02
616.252	-0.01
616.44	-0
616.629	-0.02
616.818	0.05
617.006	-0.01
617.195	-0.02
617.383	0.03
617.572	0.01
617.76	-0.02
617.949	-0.01
618.137	0.04
618.326	0.04
618.514	-0.03
618.703	-0.02
618.891	0.04
619.079	-0.07
619.268	0.01
619.456	-0.02
619.644	0.06
619.833	-0.01
620.021	-0.03
620.209	-0.06
620.398	0.02
620.586	0.02
620.774	0.03
620.962	-0.01
621.151	0.07
621.339	0.01
621.527	-0.02
621.715	-0.03
621.903	-0.05
622.092	-0.04
622.28	0.01
622.468	0
622.656	-0.02
622.844	0.02
623.032	0
623.22	-0.05
623.408	-0.02
623.596	0
623.784	-0.01
623.972	-0.04
624.16	0
624.348	0.07
624.536	-0.01
624.724	-0.02
624.912	0.04
625.1	0.01
625.288	-0.03
625.476	-0.05
625.664	0.05
625.851	-0.02
626.039	-0.01
626.227	0.02
626.415	-0.02
626.603	-0.05
626.79	0.01
626.978	-0.01
627.166	0.04
627.354	0.01
627.541	-0.02
627.729	-0.07
627.917	-0
628.104	0.03
628.292	-0
628.48	0.01
628.667	-0.01
628.855	0.04
629.042	0.01
629.23	-0.03
629.418	-0.01
629.605	-0
629.793	0
629.98	-0.03
630.168	-0
630.355	-0.01
630.543	-0
630.73	-0.03
630.917	0.05
631.105	0.04
631.292	-0.01
631.48	-0.02
631.667	0.07
631.854	0
632.042	-0
632.229	-0.04
632.416	0.02
632.604	-0.03
632.791	-0.03
632.978	0.06
633.165	0.03
633.353	0.06
633.54	0.03
633.727	-0.06
633.914	-0.03
634.101	-0.05
634.289	0.02
634.476	-0
634.663	-0.03
634.85	0.03
635.037	-0.04
635.224	-0.06
635.411	0
635.598	0.03
635.785	-0.02
635.972	-0.01
636.159	0.02
636.346	0
636.533	-0.01
636.72	-0.01
636.907	-0.02
637.094	0
637.281	-0.02
637.468	0.01
637.655	-0.05
637.842	-0.02
638.029	-0.03
638.215	0.02
638.402	0.01
638.589	-0.05
638.776	-0.01
638.963	-0.04
639.149	0.02
639.336	0.04
639.523	-0.01
639.709	0.01
639.896	-0.03
640.083	0.05
640.27	0.03
640.456	-0.02
640.643	0
640.829	-0.07
641.016	-0.01
641.203	-0.02
641.389	0.02
641.576	0.03
641.762	-0.01
641.949	-0.03
642.135	0.01
642.322	0
642.508	-0.04
642.695	-0.01
642.881	-0.01
643.068	-0.01
643.254	-0.02
643.441	0.03
643.627	-0.02
643.813	-0
644	0.02
644.186	-0.05
644.372	-0.02
644.559	0.03
644.745	-0.01
644.931	-0.05
645.118	-0.02
645.304	0.02
645.49	-0.04
645.676	-0.04
645.862	-0
646.049	0.04
646.235	-0.01
646.421	0.04
646.607	0.07
646.793	-0.06
646.979	-0.04
647.165	0
647.352	0
647.538	0.02
647.724	-0.01
647.91	-0.01
648.096	0.03
648.282	0.07
648.468	0.01
648.654	0.02
648.84	0
649.026	-0.01
649.212	0.02
649.397	-0.03
649.583	-0.05
649.769	0.03
649.955	0
650.141	0.01
650.327	0.05
650.513	-0.04
650.698	0
650.884	-0.09
651.07	0.02
651.256	0.04
651.442	-0.01
651.627	-0.02
651.813	0.02
651.999	-0.01
652.184	0.01
652.37	-0.03
652.556	-0.01
652.741	0.06
652.927	-0.07
653.113	-0.02
653.298	0.02
653.484	-0.03
653.669	-0.04
653.855	-0.01
654.04	0.05
654.226	-0.01
654.412	-0.04
654.597	-0.02
654.782	0.01
654.968	0.03
655.153	-0.04
655.339	-0.02
655.524	-0.05
655.71	0.05
655.895	-0.02
656.08	0.01
656.266	0.05
656.451	-0
656.636	-0.06
656.822	0.01
657.007	0
657.192	-0.01
657.378	-0.1
657.563	0.02
657.748	0.01
657.933	-0.01
658.118	-0
658.304	-0.06
658.489	0.02
658.674	0.01
658.859	-0.04
659.044	0.02
659.229	0.01
659.414	-0.01
659.599	0.01
659.785	-0.05
659.97	-0.03
660.155	0.04
660.34	-0.01
660.525	-0.04
660.71	-0.02
660.895	0.05
661.08	-0.04
661.264	-0.02
661.449	0.06
661.634	0.04
661.819	-0
662.004	0.03
662.189	-0.06
662.374	-0.06
662.559	-0.04
662.743	-0.06
662.928	-0.01
663.113	-0.02
663.298	-0.07
663.483	-0.03
663.667	-0.01
663.852	-0.04
664.037	0.04
664.221	-0.05
664.406	0.01
664.591	0.01
664.775	0
664.96	0
665.145	-0.01
665.329	0.06
665.514	-0.05
665.698	-0.01
665.883	-0.06
666.068	0.03
666.252	0.03
666.437	-0.05
666.621	-0.04
666.806	0.03
666.99	-0.01
667.174	-0.05
667.359	0.04
667.543	-0.01
667.728	-0.04
667.912	-0.09
668.096	0.03
668.281	0.01
668.465	-0
668.649	0.03
668.834	-0.04
669.018	-0.03
669.202	-0.04
669.387	-0.03
669.571	-0.01
669.755	-0.04
669.939	-0.02
670.124	-0.01
670.308	0.09
670.492	-0.04
670.676	0.01
670.86	-0.04
671.044	-0.06
671.228	0.06
671.413	-0.04
671.597	-0.05
671.781	-0.03
671.965	0.02
672.149	-0.04
672.333	-0.01
672.517	-0.03
672.701	0.02
672.885	-0.05
673.069	-0.09
673.253	0.06
673.437	-0.03
673.621	-0.03
673.804	-0.03
673.988	-0.01
674.172	0
674.356	-0.03
674.54	-0.04
674.724	0.1
674.908	-0.01
675.091	-0.01
675.275	-0.05
675.459	0.02
675.643	0.01
675.826	0
676.01	-0
676.194	-0.01
676.377	0
676.561	0.02
676.745	-0.02
676.928	0
677.112	0.03
677.296	-0.01
677.479	-0.03
677.663	0.02
677.846	0.01
678.03	-0.07
678.213	-0.02
678.397	0.04
678.58	-0.05
678.764	-0.02
678.947	-0.06
679.131	-0.05
679.314	0.03
679.498	-0.01
679.681	0.01
679.865	0.06
680.048	0.01
680.231	0.01
680.415	0
680.598	-0.07
680.781	-0.02
680.965	-0.04
681.148	0.05
681.331	-0.02
681.514	0.03
681.698	-0.03
681.881	0.01
682.064	-0.01
682.247	-0.02
682.43	-0.1
682.614	0.02
682.797	0.05
682.98	0.05
683.163	-0.04
683.346	-0.04
683.529	-0.01
683.712	-0.02
683.895	0.01
684.078	-0.09
684.261	-0.01
684.444	0
684.627	0.05
684.81	-0
684.993	0
685.176	-0.01
685.359	-0.05
685.542	-0.03
685.725	0.07
685.908	-0.01
686.091	-0.03
686.274	0.02
686.457	0.03
686.639	-0.03
686.822	0.02
687.005	0.01
687.188	0.02
687.371	0.03
687.553	-0.02
687.736	-0.03
687.919	0.07
688.102	0.06
688.284	-0.03
688.467	-0.03
688.65	-0.06
688.832	-0.02
689.015	0.02
689.197	-0.08
689.38	0.07
689.563	0.1
689.745	-0.11
689.928	-0.01
690.11	0
690.293	0.03
690.475	-0.08
690.658	-0.02
690.84	-0.05
691.023	-0.04
691.205	-0.06
691.388	0.02
691.57	0
691.752	0.04
691.935	-0.16
692.117	-0.06
692.3	0.04
692.482	0.02
692.664	0.01
692.847	0.03
693.029	0.1
693.211	0.02
693.393	-0.01
693.576	-0.03
693.758	0.03
693.94	-0.05
694.122	0.01
694.304	-0.06
694.487	-0.04
694.669	0.09
694.851	-0.03
695.033	-0.03
695.215	-0.01
695.397	0.03
695.579	0.07
695.761	-0.06
695.943	-0.07
696.125	0.06
696.308	0.01
696.49	-0.12
696.671	0.14
696.853	0.02
697.035	0.15
697.217	0.04
697.399	-0.01
697.581	-0.05
697.763	-0.03
697.945	-0.08
698.127	0.02
698.309	0.03
698.491	0.03
698.672	0.05
698.854	0.03
699.036	0.07
699.218	-0.05
699.399	0.02
699.581	0.05
699.763	-0.01
699.945	-0.05
700.126	-0.05
700.308	0
700.49	-0.03
700.671	-0.07
700.853	-0.05
701.035	-0.01
701.216	0.01
701.398	-0.12
701.579	-0.07
701.761	0.05
701.943	-0.11
702.124	-0.03
702.306	-0.01
702.487	0.19
702.669	0.03
702.85	-0.03
703.031	-0.01
703.213	0.06
703.394	0.1
703.576	-0.05
703.757	0.04
703.938	0.1
704.12	0.17
704.301	-0.01
704.483	-0.04
704.664	-0
704.845	0.11
705.026	0.04
705.208	-0.01
705.389	0.01
705.57	-0.02
705.751	-0.05
705.933	-0
706.114	0.07
706.295	0
706.476	-0.06
706.657	0.11
706.838	0.01
707.02	0.07
707.201	-0.05
707.382	-0.02
707.563	0.05
707.744	-0.06
707.925	-0.05
708.106	-0.09
708.287	0.04
708.468	0.08
708.649	-0.02
708.83	0.07
709.011	-0.01
709.192	0.01
709.373	-0.07
709.554	0.02
709.734	0.08
709.915	0.05
710.096	-0.09
710.277	-0.13
710.458	-0.06
710.639	0.05
710.819	-0.14
711	-0.07
711.181	0.1
711.362	0.03
711.542	0.04
711.723	-0.05
711.904	0.02
712.085	0.02
712.265	-0.01
712.446	-0.08
712.627	-0.1
712.807	-0.01
712.988	-0.07
713.168	-0.13
713.349	0
713.53	-0.09
713.71	-0.03
713.891	-0.1
714.071	-0.01
714.252	-0.08
714.432	-0.1
714.613	-0.12
714.793	0.06
714.974	0.08
715.154	0.09
715.334	-0
715.515	0.13
715.695	-0.02
715.876	-0.13
716.056	-0.1
716.236	-0.04
716.417	-0.04
716.597	-0.1
716.777	0.18
716.957	-0
717.138	-0.01
717.318	0.04
717.498	-0.15
717.678	0.03
717.859	0.01
718.039	-0.09
718.219	0.04
718.399	0.01
718.579	-0.14
718.759	-0.06
718.939	0
719.12	-0.02
719.3	0.05
719.48	-0.11
719.66	-0.11
719.84	0.14
720.02	0.01
720.2	-0.08
720.38	-0.1
720.56	0.06
720.74	-0.05
720.92	-0.01
721.1	0.03
721.279	0.06
721.459	0.02
721.639	-0.07
721.819	0.04
721.999	-0.07
722.179	0.01
722.359	-0.08
722.538	-0.05
722.718	0
722.898	-0.02
723.078	-0.06
723.257	-0.02
723.437	-0.06
723.617	0.03
723.797	-0.04
723.976	-0
724.156	0.06
724.336	0.07
724.515	0.09
724.695	-0.13
724.874	-0.03
725.054	0
725.234	-0.07
725.413	-0.01
725.593	0.01
725.772	-0.07
725.952	-0.1
726.131	-0.02
726.311	-0.04
726.49	-0.02
726.67	-0.1
726.849	-0.07
727.028	-0.01
727.208	-0.04
727.387	0.01
727.567	-0.15
727.746	-0.04
727.925	-0.03
728.105	-0.09
728.284	-0.09
728.463	-0.03
728.643	0.06
728.822	-0.1
729.001	-0.05
729.18	0.03
729.359	0.01
729.539	-0.05
729.718	0
729.897	0.13
730.076	-0.1
730.255	-0.16
730.434	0.05
730.614	0.04
730.793	0.04
730.972	-0.04
731.151	-0.02
731.33	0.08
731.509	0.02
731.688	-0.05
731.867	0.04
732.046	-0.17
732.225	0.24
732.404	-0.12
732.583	-0.13
732.762	0.03
732.941	0.04
733.12	0.05
733.298	-0.03
733.477	0.12
733.656	-0.05
733.835	-0.07
734.014	0.04
734.193	-0.03
734.371	0.03
734.55	0.03
734.729	-0.05
734.908	0.04
735.086	0.01
735.265	0.04
735.444	-0.13
735.623	-0.05
735.801	-0.06
735.98	-0.05
736.159	-0.03
736.337	-0.03
736.516	-0.05
736.694	-0.03
736.873	-0.15
737.052	0.12
737.23	0.08
737.409	0
737.587	0.28
737.766	-0.3
737.944	-0.1
738.123	0.04
738.301	0.03
738.479	-0.08
738.658	-0.01
738.836	-0.13
739.015	-0.04
739.193	0.06
739.371	-0.18
739.55	-0.12
739.728	-0.1
739.906	0.1
740.085	0.13
740.263	0.08
740.441	-0.23
740.62	0.13
740.798	-0.04
740.976	-0.06
741.154	-0.1
741.332	0.21
741.511	-0.02
741.689	-0.02
741.867	0.01
742.045	0.03
742.223	-0.01
742.401	-0.06
742.579	-0.07
742.757	0.01
742.935	-0.17
743.114	-0.18
743.292	-0.04
743.47	0.01
743.648	-0.01
743.826	-0.01
744.004	0.06
744.181	0.1
744.359	-0.03
744.537	-0.04
744.715	-0
744.893	-0.02
745.071	0.1
745.249	-0.06
745.427	-0.02
745.605	-0.05
745.782	-0.01
745.96	0.08
746.138	-0.01
746.316	0.1
746.493	0
746.671	-0.04
746.849	0.06
747.027	0.18
747.204	0.04
747.382	0.01
747.56	-0.17
747.737	-0.02
747.915	-0.15
748.093	0.04
748.27	-0.07
748.448	0.02
748.625	-0.12
748.803	-0.18
748.98	-0.07
749.158	0.01
749.335	0.07
749.513	-0.05
749.69	-0.17
749.868	-0.1
750.045	-0.03
750.223	-0.09
750.4	-0.24
750.578	0.17
750.755	-0.08
750.932	-0.23
751.11	0.06
751.287	-0.1
751.464	0.12
751.642	-0.06
751.819	0.01
751.996	-0.02
752.173	-0.09
752.351	-0.16
752.528	0.01
752.705	-0.02
752.882	-0.08
753.06	0.03
753.237	-0.04
753.414	0.24
753.591	0.17
753.768	0
753.945	-0.18
754.122	-0.24
754.299	0.02
754.476	-0.07
754.654	-0.08
754.831	0.1
755.008	-0.02
755.185	-0.07
755.362	-0.2
755.539	0.05
755.716	0
755.892	-0.04
756.069	-0.1
756.246	-0.08
756.423	-0.12
756.6	0.09
756.777	-0.03
756.954	0.17
757.131	-0.1
757.307	-0.08
757.484	-0.16
757.661	-0.01
757.838	0.07
758.015	-0.15
758.191	0.07
758.368	-0.05
758.545	0.21
758.721	0.06
758.898	-0.18
759.075	0.04
759.251	0.17
759.428	0.02
759.605	-0.18
759.781	-0.08
759.958	0.1
760.134	0.01
760.311	-0.07
760.488	0.09
760.664	0.22
760.841	-0.05
761.017	-0.14
761.194	0.01
761.37	0.1
761.547	-0.1
761.723	-0.1
761.899	0.11
762.076	0.01
762.252	-0.15
762.429	-0.06
762.605	0.04
762.781	-0.06
762.958	0.05
763.134	0.02
763.31	-0.07
763.486	0.14
763.663	-0.29
763.839	-0.01
764.015	-0.16
764.191	-0.11
764.368	0.08
764.544	-0.12
764.72	-0.02
764.896	0.07
765.072	-0.07
765.248	-0.11
765.425	-0.02
765.601	-0.06
765.777	0.03
765.953	-0.31
766.129	-0.09
766.305	-0.15
766.481	-0.02
766.657	-0.06
766.833	0.23
767.009	-0.1
767.185	-0.1
767.361	-0.02
767.537	-0.15
767.713	0.19
767.889	-0.17
768.065	-0.03
768.24	-0.24
768.416	0.14
768.592	0.04
768.768	0.02
768.944	0.03
769.12	-0.14
769.295	-0.09
769.471	-0.06
769.647	-0
769.823	0.1
769.998	0.03
770.174	-0.21
770.35	0.21
770.525	0.2
770.701	-0.08
770.877	-0.16
771.052	-0.1
771.228	0.02
771.403	-0.06
771.579	0.02
771.755	0.33
771.93	-0.13
772.106	-0.2
772.281	-0.26
772.457	-0
772.632	0.13
772.808	-0.11
772.983	-0.09
773.159	-0.11
773.334	0.12
773.509	-0.15
773.685	-0.3
773.86	0.39
774.036	0.11
774.211	-0
774.386	-0.02
774.562	0.02
774.737	0.09
774.912	-0.13
775.087	0.05
775.263	0.05
775.438	-0.12
775.613	-0.12
775.788	-0.08
775.964	0.1
776.139	0.29
776.314	-0.21
776.489	0.03
776.664	0.1
776.839	-0.26
777.014	0.15
777.19	0.11
777.365	0.25
777.54	0.16
777.715	-0.09
777.89	-0.01
778.065	-0.21
778.24	-0.14
778.415	0.16
778.59	-0.29
778.765	0
778.94	0.1
779.115	-0.11
779.289	-0.14
779.464	-0.07
779.639	-0.1
779.814	-0.25
779.989	-0.15
780.164	0.12
780.339	0.01
780.513	-0.15
780.688	-0.15
780.863	0.04
781.038	0.09
781.212	-0.11
781.387	-0.04
781.562	0.25
781.737	0.02
781.911	-0.02
782.086	-0.33
782.261	0.03
782.435	0.09
782.61	-0.22
782.784	-0.05
782.959	0.25
783.134	-0.28
783.308	-0.38
783.483	-0.17
783.657	0.22
783.832	0.13
784.006	-0.11
784.181	-0.12
784.355	0.09
784.53	-0.22
784.704	-0.31
784.878	0.29
785.053	0.03
785.227	-0.01
785.402	0.26
785.576	-0.18
785.75	-0.07
785.925	-0.26
786.099	0.03
786.273	-0.02
786.448	0.04
786.622	0.06
786.796	0.05
786.97	0.05
787.145	0.45
787.319	-0.23
787.493	-0
787.667	-0.31
787.841	0.06
788.015	0.28
788.19	0
788.364	0.04
788.538	0.17
788.712	0.06
788.886	-0
789.06	-0.07
789.234	0.08
789.408	-0.25
789.582	-0.22
789.756	-0.09
789.93	-0.02
790.104	-0.29
790.278	-0.07
790.452	-0.15
790.626	0.1
790.8	-0.04
790.973	0.15
791.147	0.4
791.321	0.12
791.495	0.34
791.669	0.02
791.843	0.11
792.016	0.08
792.19	0.44
792.364	-0.16
792.538	0.66
792.711	0.14
792.885	0.01
793.059	-0.36
793.233	-0.77
793.406	0.26
793.58	-0.13
793.754	0.13
793.927	-0.09
794.101	0.39
794.274	-0.13
794.448	0.14
794.622	-0.21
794.795	0.31
794.969	-0.35
795.142	0.21
795.316	-0.21
795.489	-0.22
795.663	0.32
795.836	-0
796.009	-0.29
796.183	0.19
796.356	0.09
796.53	-0.05
796.703	-0.05
796.876	0.37
797.05	0.09
797.223	0.01
797.396	-0.05
797.57	-0.11
797.743	0.21
797.916	0.22
798.09	-0.29
798.263	0.15
798.436	0.1
798.609	-0.07
798.782	-0.22
798.956	0.1
799.129	-0.09
799.302	-0.2
799.475	-0.15
799.648	-0.24
799.821	-0.08
799.994	-0.05
800.167	-0.36
800.34	-0.12
800.514	-0.06
800.687	-0.23
800.86	-0.19
801.033	-0.02
801.206	0.08
801.379	-0.31
801.551	0.21
801.724	0.13
801.897	0.51
802.07	-0.21
802.243	-0.74
802.416	-0.03
802.589	-0.12
802.762	0.25
802.935	-0.13
803.107	0.16
803.28	-0.27
803.453	0.52
803.626	-0.46
803.798	-0.06
803.971	-0.48
804.144	0.03
804.317	-0.09
804.489	0.12
804.662	-0.07
804.835	0.18
805.007	-0.01
805.18	0.34
805.353	-0.27
805.525	-0.46
805.698	-0.32
805.87	0.25
806.043	0.37
806.215	-0.43
806.388	-0.32
806.56	-0.16
806.733	0.49
806.905	0.03
807.078	-0.2
807.25	-0.13
807.423	0.37
807.595	-0.08
807.768	-0.06
807.94	0.43
808.112	-0.24
808.285	-0.13
808.457	0.05
808.629	-0.23
808.802	0.5
808.974	-0.2
809.146	-0.1
809.318	-0.29
809.491	-0.39
809.663	0.21
809.835	-0.35
810.007	0.25
810.18	0.06
810.352	-0.81
810.524	-0.28
810.696	-0.02
810.868	0.29
811.04	-0.26
811.212	-0.2
811.384	0.39
811.556	0.13
811.728	-0.2
811.901	0.91
812.073	0.16
812.245	0.21
812.417	0.17
812.589	-0.41
812.76	0.26
812.932	0.22
813.104	0.16
813.276	-0.43
813.448	0.44
813.62	-0.14
813.792	0.18
813.964	-0.08
814.136	0.22
814.307	-0.31
814.479	-0.41
814.651	-0.31
814.823	0.69
814.995	0.19
815.166	0.13
815.338	-0.41
815.51	-0.25
815.681	0.86
815.853	0.12
816.025	-0.65
816.196	0.54
816.368	0.61
816.54	-0.6
816.711	-0.17
816.883	0.22
817.054	0.85
817.226	-0.89
817.398	0.41
817.569	-0.19
817.741	-0.56
817.912	-0.09
818.084	-0.45
818.255	0.48
818.426	-0.68
818.598	-0.44
818.769	-0.48
818.941	0.61
819.112	0.53
819.283	-0.11
819.455	-0.6
819.626	0.15
819.798	-0.04
819.969	-0.16
820.14	0.01
820.311	-0.41
820.483	-0.04
820.654	0.13
820.825	-0.03
820.996	-0.15
821.168	-0.52
821.339	-0.03
821.51	-0.41
821.681	-0.13
821.852	-0.09
822.023	-0.48
822.195	-1.1
822.366	0.27
822.537	-0.13
822.708	0.04
822.879	-0.24
823.05	0.47
823.221	-0.22
823.392	0.33
823.563	-0.04
823.734	-0.4
823.905	-0.48
824.076	-0.08
824.247	-0.41
824.418	-0.54
824.589	0.36
824.759	0.04
824.93	-0.48
825.101	-0.9
825.272	0.43
825.443	0.54
825.614	0.36
825.784	-1.12
825.955	1.31
826.126	0.38
826.297	-0.39
826.467	1.12
826.638	0.62
826.809	-0.77
826.98	-0.35
827.15	0.68
827.321	0.14
827.492	0.31
827.662	0.07
827.833	0.75
828.003	0.31
828.174	-0.52
828.345	-0.54
828.515	-0.12
828.686	-0.11
828.856	-0.13
829.027	-0.21
829.197	-0.56
829.368	0.65
829.538	-0.16
829.709	-0.8
829.879	-0.2
830.049	-0.08
830.22	-0.08
830.39	-0.13
830.56	0.74
830.731	-0.44
830.901	-0.26
831.072	0.1
831.242	0.31
831.412	0.16
831.582	-0.41
831.753	-1.36
831.923	0.64
832.093	0.18
832.263	-0.39
832.434	-0.5
832.604	-0.38
832.774	0.23
832.944	-0.68
833.114	-0.15
833.284	0.29
833.454	-0.33
833.624	-0.6
833.795	-0.22
833.965	0.78
834.135	0.91
834.305	-0.93
834.475	-0.9
834.645	0.27
834.815	-0.17
834.985	-0.68
835.155	-0.61
835.325	0.16
835.494	0.01
835.664	-0.35
835.834	-0.79
836.004	-0.62
836.174	-0.21
836.344	-0.17
836.514	-0.52
836.684	-0.53
836.853	0.45
837.023	0.41
837.193	-0.56
837.363	0.22
837.532	1.11
837.702	0.03
837.872	-0.68
838.041	0.27
838.211	1.15
838.381	-1
838.55	0.29
838.72	2.15
838.89	0.96
839.059	-0.92
839.229	-0.7
839.398	1.32
839.568	0.12
839.738	-0.56
839.907	0.66
840.077	0.06
840.246	-0.32
840.416	-0.91
840.585	-1.01
840.755	0.75
840.924	1.01
841.093	-1
841.263	-0.16
841.432	0.36
841.602	-0.66
841.771	-0.66
841.94	-0.09
842.11	2.04
842.279	0.95
842.448	-1.01
842.617	-0.47
842.787	0.8
842.956	-0.78
843.125	-0.65
843.294	-0.32
843.464	0.23
843.633	0.32
843.802	-1.33
843.971	-0.24
844.14	0.27
844.309	0.12
844.479	-0.29
844.648	-1.13
844.817	0.13
844.986	0.1
845.155	-1.6
845.324	-0.1
845.493	-1.11
845.662	-1.09
845.831	0.03
846	0.73
846.169	-0.38
846.338	1.12
846.507	0.4
846.676	-0.06
846.844	-1.1
847.013	1.24
847.182	-0.93
847.351	-0.4
847.52	-0.66
847.689	0.17
847.858	-0.33
848.026	-0.45
848.195	-0.54
848.364	-0.95
848.533	-0.53
848.701	-0.59
848.87	-1
849.039	0.22
849.207	0.18
849.376	0.7
849.545	0.84
849.713	-0.95
849.882	-0.46
850.051	0.31
850.219	-0.19
850.388	0.58
850.556	-1.27
850.725	-1.3
850.893	-0.27
851.062	-0.72
851.23	0.1
851.399	-1.83
851.567	-0.98
851.736	-0.15
851.904	-1.37
852.073	0.53
852.241	-0.01
852.41	-0.54
852.578	0.36
852.746	-1.08
852.915	-0.59
853.083	-0.14
853.251	-1.42
853.42	-0.15
853.588	0.43
853.756	0.29
853.924	-0.12
854.093	-0.99
854.261	-0.7
854.429	-1.47
854.597	-0.45
854.765	-1.02
854.934	0.28
855.102	0.57
855.27	-0.28
855.438	0.79
855.606	1.29
855.774	1.27
855.942	-2.28
856.11	-3.03
856.278	-1.08
856.446	1.01
856.614	-0.05
856.782	-0.45
856.95	0.55
857.118	0.79
857.286	-0.12
857.454	-1.01
857.622	0.54
857.79	1.16
857.958	-1.17
858.126	-0.92
858.294	-2.85
858.462	-0.18
858.629	-1.4
858.797	-1.86
858.965	0.31
859.133	0.61
859.301	-0.14
859.468	-0.19
859.636	-1.34
859.804	2.08
859.971	0.22
860.139	-1.64
860.307	1.26
860.474	0.47
860.642	-1.19
860.81	-0.32
860.977	-1.16
861.145	1.12
861.313	-1.13
861.48	-0.72
861.648	1.04
861.815	-0.17
861.983	-1.56
862.15	0.14
862.318	-0.02
862.485	0.95
862.653	-0.43
862.82	-1.54
862.988	2.06
863.155	0.15
863.322	-0.9
863.49	-1.47
863.657	0.32
863.824	1.46
863.992	0.25
864.159	-1.01
864.326	1.35
864.494	-1.18
864.661	1.57
864.828	-2.39
864.996	0.51
865.163	1.09
865.33	-1.1
865.497	-2.57
865.664	-0.8
865.832	-1.08
865.999	-1.62
866.166	-1.52
866.333	-1.95
866.5	0.03
866.667	-0.46
866.834	-1.9
867.001	1.48
867.168	-2.36
867.335	0.52
867.502	-1.63
867.669	0.72
867.836	2.33
868.003	-0.06
868.17	1.36
868.337	2.32
868.504	2.65
868.671	-2.77
868.838	-1.02
869.005	0.17
869.172	0.18
869.339	0.35
869.505	-0.22
869.672	0.64
869.839	0.54
870.006	-1.4
870.173	-3.05
870.339	0.37
870.506	1.98
870.673	-2.02
870.84	0.97
871.006	-1.38
871.173	0.51
871.34	0.04
871.506	-1.94
871.673	0.38
871.839	-2.87
872.006	0.02
872.173	-3.1
872.339	-0.67
872.506	1.28
872.672	-0.86
872.839	-1.81
873.005	0.07
873.172	3.14
873.338	1.77
873.505	0.56
873.671	1.79
873.838	1.24
874.004	-1.22
874.171	-2.47
874.337	-0.7
874.503	-0.29
874.67	-0.36
874.836	0.33
875.002	1.49
875.169	1.06
875.335	0.32
875.501	-2.12
875.668	0.52
875.834	0.2
876	-2.52
876.166	1.35
876.332	0.18
876.499	3.13
876.665	-1.92
876.831	0.06
876.997	1.25
877.163	-0.62
877.329	-3.16
877.495	0
877.662	1.1
877.828	-0.62
877.994	-0.9
878.16	-2.8
878.326	-1.75
878.492	0.02
878.658	-2.11
878.824	0.65
878.99	0.79
879.156	-0.07
879.322	2.15
879.487	-1.53
879.653	1.2
879.819	-0.31
879.985	-2
880.151	-0.52
880.317	-0.37
880.483	-0.41
880.648	1.35
880.814	-2.66
880.98	-0.65
881.146	-3.84
881.312	-0.76
881.477	0.23
881.643	0.27
881.809	-0.01
881.974	1.81
882.14	-2.79
882.306	-1.63
882.471	1.64
882.637	1.06
882.803	-1.1
882.968	2.83
883.134	3.5
883.299	-1.14
883.465	-0.84
883.63	0.84
883.796	1.07
883.961	2.49
884.127	1.1
884.292	-4.06
884.458	-0.62
884.623	-0.62
