Data from Apollo_Calib_20240827__AbsoluteIrradiance__456__06-45-02-923.txt Node

Date: Wed Aug 28 06:45:02 BST 2024
User: biology
Spectrometer: FLMT08252
Trigger mode: 0
Integration Time (sec): 5.000000E-1
Scans to average: 5
Electric dark correction enabled: true
Nonlinearity correction enabled: false
Boxcar width: 0
XAxis mode: Wavelengths
Number of Pixels in Spectrum: 3648
>>>>>Begin Spectral Data<<<<<
179.588	-0
179.809	-0
180.03	-0
180.251	-0
180.473	-0
180.694	0
180.915	0
181.136	-0
181.357	0
181.578	-0
181.799	-0
182.02	-0
182.241	0
182.462	-0
182.683	0
182.904	-0
183.125	-0
183.346	0
183.567	-0
183.788	-0
184.009	-0
184.23	0
184.451	0
184.672	-0
184.892	-0
185.113	0
185.334	0
185.555	-0
185.776	-0
185.996	0
186.217	0
186.438	-0
186.659	-0
186.879	0
187.1	-0
187.321	-0
187.541	-0
187.762	0
187.983	-0
188.203	-0
188.424	0
188.644	-0
188.865	-0
189.086	-0
189.306	-0
189.527	-0
189.747	-0
189.968	-0
190.188	-0
190.409	0
190.629	0
190.849	-0
191.07	-0
191.29	0
191.511	-0
191.731	-0
191.951	-0
192.172	-0
192.392	-0
192.612	-0
192.833	-0
193.053	0
193.273	0
193.493	-0
193.714	-0
193.934	0
194.154	0
194.374	-0
194.594	0
194.815	-0
195.035	-0
195.255	-0
195.475	-0
195.695	0
195.915	0
196.135	-0
196.355	0
196.575	0
196.795	0
197.015	-0
197.235	-0
197.455	-0
197.675	-0
197.895	-0
198.115	-0
198.335	0
198.555	-0
198.775	-0
198.995	0
199.214	0
199.434	-0
199.654	-0
199.874	-0
200.094	-1.44
200.313	-0.29
200.533	-0.69
200.753	-0.3
200.973	0.6
201.192	0.51
201.412	-1.28
201.632	-0.41
201.851	0.59
202.071	-0.88
202.291	-0.35
202.51	-0.71
202.73	0.78
202.95	-0.25
203.169	-1.09
203.389	-0.25
203.608	-0.36
203.828	-0.73
204.047	-0.29
204.267	0.48
204.486	0.16
204.706	0.24
204.925	0.04
205.145	-0.39
205.364	0.39
205.583	0.28
205.803	-0.35
206.022	-0.88
206.242	-0.21
206.461	-0.22
206.68	-0.38
206.9	0.05
207.119	0.11
207.338	0.52
207.557	-0.48
207.777	-0.24
207.996	-0.12
208.215	0.14
208.434	-0.45
208.654	-0.53
208.873	-0.06
209.092	0.47
209.311	-0.21
209.53	-0.23
209.749	-0.3
209.968	-0.46
210.187	-0.32
210.407	-0.55
210.626	-0.05
210.845	-0.07
211.064	-0.18
211.283	-0.44
211.502	0.28
211.721	-0.26
211.94	-0.03
212.159	0.07
212.377	0.18
212.596	0.21
212.815	-0.09
213.034	-0.06
213.253	0.22
213.472	0.11
213.691	-0.18
213.91	-0.3
214.128	-0.22
214.347	0.39
214.566	-0.57
214.785	-0.5
215.003	-0.04
215.222	-0.15
215.441	-0.03
215.66	-0.42
215.878	-0.24
216.097	0.08
216.316	-0.58
216.534	-0.12
216.753	-0.02
216.972	-0.13
217.19	0.04
217.409	-0.13
217.627	-0.18
217.846	-0.24
218.064	-0.06
218.283	-0.24
218.501	0.33
218.72	0.21
218.938	-0.22
219.157	-0.13
219.375	-0.09
219.594	0.24
219.812	-0.25
220.031	-0.22
220.249	0.06
220.467	0.22
220.686	-0.24
220.904	-0.3
221.122	-0.13
221.341	0.3
221.559	-0.25
221.777	-0.32
221.995	-0.11
222.214	0.03
222.432	-0.19
222.65	0.14
222.868	-0.12
223.086	0.1
223.305	0.05
223.523	-0.06
223.741	0.14
223.959	-0.19
224.177	-0.31
224.395	-0.22
224.613	0.05
224.831	0.1
225.049	-0.16
225.267	-0.16
225.485	0.09
225.703	-0.22
225.921	-0.15
226.139	-0.11
226.357	-0.05
226.575	-0.04
226.793	-0.09
227.011	0.42
227.229	-0.21
227.447	0.03
227.665	-0.28
227.883	-0.2
228.1	-0.05
228.318	-0.03
228.536	-0.33
228.754	-0.16
228.972	0.04
229.189	0.07
229.407	-0.05
229.625	-0.1
229.843	0.12
230.06	-0.07
230.278	-0.14
230.496	0.01
230.713	-0
230.931	0.14
231.149	-0.03
231.366	-0.25
231.584	-0.09
231.801	0.11
232.019	-0.17
232.236	-0.17
232.454	-0.12
232.671	-0.07
232.889	-0.06
233.106	-0.09
233.324	0.04
233.541	-0.04
233.759	0.02
233.976	-0.07
234.194	0.02
234.411	-0.09
234.628	-0.18
234.846	-0.02
235.063	-0.07
235.28	-0.1
235.498	-0.02
235.715	-0.17
235.932	0.17
236.149	-0.06
236.367	-0.1
236.584	-0
236.801	-0.01
237.018	0.04
237.236	0.03
237.453	-0.19
237.67	0.16
237.887	-0.15
238.104	-0.01
238.321	-0.12
238.538	-0.19
238.755	0.07
238.973	-0.16
239.19	-0.11
239.407	0.01
239.624	-0
239.841	-0.18
240.058	-0.17
240.275	-0.07
240.492	0.01
240.709	-0.06
240.925	-0.07
241.142	0.02
241.359	-0.11
241.576	-0.14
241.793	-0.15
242.01	-0.01
242.227	0.01
242.444	-0.02
242.66	0.04
242.877	-0.07
243.094	-0.09
243.311	-0.08
243.527	0.02
243.744	-0.01
243.961	0.02
244.178	-0.19
244.394	-0.08
244.611	0.04
244.828	0.14
245.044	-0.11
245.261	-0.12
245.477	-0.05
245.694	-0.01
245.911	-0.04
246.127	-0.1
246.344	0.11
246.56	0.08
246.777	0.01
246.993	-0.09
247.21	0.01
247.426	-0
247.643	-0.1
247.859	-0.15
248.076	-0.05
248.292	0.14
248.508	-0.06
248.725	-0.04
248.941	-0.03
249.157	0.1
249.374	-0.08
249.59	-0.03
249.806	0
250.023	0.04
250.239	-0.13
250.455	-0.08
250.671	0.02
250.888	0.04
251.104	0.02
251.32	-0.08
251.536	-0.07
251.752	-0
251.969	0.01
252.185	-0.05
252.401	0.13
252.617	0.04
252.833	-0.05
253.049	-0.13
253.265	0
253.481	0.01
253.697	-0.11
253.913	-0.1
254.129	-0.09
254.345	-0.07
254.561	-0.05
254.777	-0.09
254.993	-0.01
255.209	-0.04
255.425	-0.03
255.641	-0.1
255.857	0.06
256.073	-0.05
256.288	-0.19
256.504	-0.05
256.72	0.05
256.936	0.09
257.152	-0.07
257.367	-0.12
257.583	0.04
257.799	0.05
258.015	-0.05
258.23	-0.04
258.446	0.12
258.662	-0.02
258.877	-0.05
259.093	-0.13
259.309	0.04
259.524	0.01
259.74	-0.08
259.955	-0.16
260.171	0
260.387	0.02
260.602	0.03
260.818	0.05
261.033	-0.03
261.249	-0.04
261.464	-0.06
261.68	-0.16
261.895	-0.04
262.11	0.07
262.326	-0.05
262.541	-0.14
262.757	0.06
262.972	-0.06
263.187	0.01
263.403	-0.07
263.618	0
263.833	-0.02
264.049	-0.1
264.264	0.03
264.479	-0
264.694	0.08
264.91	-0.09
265.125	0.03
265.34	0.05
265.555	0.12
265.77	-0
265.986	-0.1
266.201	0.06
266.416	0.06
266.631	-0.09
266.846	-0.04
267.061	0.03
267.276	0.01
267.491	-0.16
267.706	0.03
267.921	0.05
268.136	-0.04
268.351	-0.04
268.566	-0.13
268.781	0.05
268.996	0.05
269.211	-0.06
269.426	-0.08
269.641	-0.08
269.856	0.04
270.071	-0.09
270.285	-0.09
270.5	0.03
270.715	0.06
270.93	0
271.145	0.02
271.359	-0.01
271.574	-0.08
271.789	-0.04
272.004	-0.04
272.218	-0.06
272.433	0.03
272.648	-0.08
272.862	0.06
273.077	-0.03
273.292	0.02
273.506	-0.02
273.721	-0.09
273.936	0.02
274.15	0.05
274.365	-0.08
274.579	-0
274.794	0.01
275.008	0.1
275.223	-0.05
275.437	-0.02
275.652	0.04
275.866	0.03
276.081	-0.05
276.295	0.06
276.509	0.02
276.724	0.05
276.938	0.01
277.153	0.01
277.367	0.01
277.581	-0.03
277.796	-0.09
278.01	-0.11
278.224	0.02
278.438	0.12
278.653	-0.06
278.867	-0.07
279.081	-0.22
279.295	-0.02
279.51	-0.01
279.724	-0.11
279.938	0.05
280.152	-0.01
280.366	-0.03
280.58	-0
280.794	0.07
281.008	0.03
281.222	0.05
281.437	0.06
281.651	0.02
281.865	0.06
282.079	-0.04
282.293	-0.13
282.507	-0.08
282.721	-0.02
282.935	-0.05
283.148	-0.11
283.362	-0.1
283.576	-0.07
283.79	-0.07
284.004	-0.09
284.218	0.06
284.432	-0.04
284.646	-0.04
284.859	-0.05
285.073	-0.02
285.287	-0.02
285.501	-0.02
285.714	-0.05
285.928	-0
286.142	-0.04
286.356	-0.06
286.569	-0.04
286.783	0.07
286.997	0.02
287.21	-0.02
287.424	0
287.637	-0
287.851	-0.05
288.065	0.03
288.278	-0.08
288.492	-0.02
288.705	0
288.919	-0
289.132	-0.1
289.346	0.03
289.559	-0.09
289.773	-0.05
289.986	-0.02
290.2	0.01
290.413	0.03
290.626	-0.07
290.84	-0.03
291.053	-0.01
291.267	0.07
291.48	-0.03
291.693	-0.06
291.906	-0.03
292.12	-0.01
292.333	-0.08
292.546	-0.05
292.76	0.05
292.973	0.01
293.186	0.03
293.399	-0.05
293.612	0.03
293.826	-0.02
294.039	-0.03
294.252	-0.03
294.465	0.05
294.678	0.01
294.891	0.03
295.104	-0.05
295.317	0.01
295.53	0.02
295.743	-0.01
295.956	-0.09
296.169	0.08
296.382	0.05
296.595	-0.02
296.808	-0.05
297.021	0.06
297.234	0.04
297.447	0.04
297.66	0.02
297.873	0.06
298.086	-0
298.299	-0.01
298.511	-0.09
298.724	-0.02
298.937	-0.05
299.15	-0.06
299.363	-0.03
299.575	0.02
299.788	-0.01
300.001	0
300.213	-0.04
300.426	-0.07
300.639	-0.03
300.852	0.01
301.064	-0
301.277	0.09
301.489	-0
301.702	0.03
301.915	0.01
302.127	-0.02
302.34	-0.01
302.552	0.01
302.765	-0.05
302.977	0.04
303.19	-0.03
303.402	-0.02
303.615	-0.02
303.827	-0.02
304.04	-0.02
304.252	-0.02
304.464	-0.06
304.677	0.12
304.889	-0.01
305.102	-0.07
305.314	-0.05
305.526	0.01
305.739	0.02
305.951	-0.02
306.163	0.02
306.375	0.04
306.588	-0.01
306.8	-0.02
307.012	-0.08
307.224	0.04
307.436	0.05
307.649	-0.06
307.861	0
308.073	0.05
308.285	-0.03
308.497	-0.02
308.709	-0.05
308.921	-0.05
309.133	0.05
309.346	-0.07
309.558	-0.03
309.77	-0
309.982	0.04
310.194	0.03
310.406	-0.03
310.617	0.04
310.829	0.01
311.041	-0
311.253	-0.05
311.465	-0.04
311.677	0.01
311.889	-0.03
312.101	-0.04
312.313	0.03
312.524	0.05
312.736	-0.05
312.948	-0.06
313.16	0.04
313.372	0.03
313.583	-0.03
313.795	-0.01
314.007	0
314.218	0.01
314.43	-0
314.642	-0.01
314.853	-0.08
315.065	0.03
315.277	0.03
315.488	-0.04
315.7	0.03
315.912	-0
316.123	-0.01
316.335	0.01
316.546	0.06
316.758	0.02
316.969	-0.02
317.181	0.03
317.392	0.02
317.604	0.04
317.815	-0.02
318.026	-0.06
318.238	-0.02
318.449	0.04
318.661	-0.09
318.872	-0.07
319.083	-0.04
319.295	-0.01
319.506	-0.02
319.717	-0
319.929	0.02
320.14	-0.04
320.351	0.02
320.562	-0.01
320.774	0.02
320.985	-0.01
321.196	-0.06
321.407	-0.05
321.618	0.01
321.829	-0.01
322.041	0.01
322.252	-0.02
322.463	0.01
322.674	-0.01
322.885	-0.03
323.096	-0.06
323.307	-0.02
323.518	-0
323.729	-0.02
323.94	-0.04
324.151	-0.05
324.362	-0.02
324.573	0
324.784	-0.08
324.995	0.02
325.206	0.03
325.417	-0.04
325.628	-0
325.838	-0.02
326.049	0.03
326.26	0.05
326.471	-0.02
326.682	0.02
326.892	-0.02
327.103	-0.08
327.314	-0.07
327.525	-0.01
327.735	0
327.946	-0.05
328.157	-0.04
328.368	-0.03
328.578	-0.07
328.789	0
328.999	-0.02
329.21	-0.03
329.421	0.04
329.631	-0.08
329.842	-0.07
330.052	-0.03
330.263	-0.02
330.473	-0.02
330.684	-0.02
330.894	-0.04
331.105	-0.02
331.315	-0.02
331.526	-0.09
331.736	0.02
331.947	-0.03
332.157	-0.01
332.367	-0.08
332.578	0.02
332.788	0.05
332.999	0.03
333.209	0
333.419	-0.05
333.629	0.05
333.84	0.01
334.05	-0.05
334.26	0.05
334.47	0
334.681	0.04
334.891	-0.06
335.101	0
335.311	0.08
335.521	-0.01
335.732	-0.06
335.942	0.11
336.152	0.02
336.362	0.06
336.572	0.02
336.782	0
336.992	-0.05
337.202	-0.06
337.412	-0.02
337.622	-0.04
337.832	-0.04
338.042	-0.03
338.252	-0.05
338.462	-0
338.672	0.01
338.882	-0.06
339.092	-0
339.302	0.05
339.511	0.01
339.721	-0.05
339.931	-0.06
340.141	0.03
340.351	0.02
340.561	-0.01
340.77	-0
340.98	0
341.19	0.05
341.4	-0.03
341.609	-0.06
341.819	-0.04
342.029	-0.03
342.238	-0
342.448	-0.03
342.658	0.04
342.867	0.01
343.077	-0.01
343.286	0.02
343.496	0.03
343.706	0.02
343.915	-0.07
344.125	-0.01
344.334	0
344.544	-0.07
344.753	0
344.963	-0.01
345.172	-0.04
345.381	-0.01
345.591	-0.03
345.8	-0.04
346.01	0.11
346.219	0.02
346.428	-0.1
346.638	-0.02
346.847	-0.02
347.056	0.06
347.266	-0.06
347.475	-0.01
347.684	-0
347.893	-0.02
348.103	-0.02
348.312	-0.04
348.521	-0.02
348.73	-0
348.94	-0.02
349.149	-0.03
349.358	-0
349.567	-0.05
349.776	-0.04
349.985	-0.03
350.194	-0.01
350.403	0.05
350.612	-0.04
350.821	-0.03
351.03	-0.06
351.239	-0.06
351.448	-0.01
351.657	-0.05
351.866	0.02
352.075	0.01
352.284	0.02
352.493	-0.05
352.702	0.01
352.911	0.04
353.12	0
353.329	-0.02
353.538	0.03
353.746	0.04
353.955	-0.04
354.164	0.01
354.373	0
354.582	0.03
354.79	0.04
354.999	0.07
355.208	-0.03
355.416	0.04
355.625	-0.06
355.834	-0.04
356.042	-0.02
356.251	-0.05
356.46	-0.05
356.668	0.01
356.877	0.09
357.085	0.02
357.294	-0.09
357.503	-0.01
357.711	-0.02
357.92	0.1
358.128	0.01
358.337	-0.03
358.545	0.01
358.754	-0.03
358.962	0.05
359.17	-0.03
359.379	0.02
359.587	0.03
359.796	0.01
360.004	0.03
360.212	-0
360.421	0.01
360.629	-0.05
360.837	-0.03
361.046	0.01
361.254	0.12
361.462	0.01
361.67	-0.03
361.879	0.02
362.087	0.08
362.295	-0.03
362.503	-0.03
362.711	-0.07
362.92	-0.02
363.128	-0.07
363.336	-0.07
363.544	-0.08
363.752	-0.02
363.96	-0.04
364.168	-0.04
364.376	-0.04
364.584	0.03
364.792	0
365	-0.01
365.208	-0.01
365.416	0.01
365.624	0.03
365.832	-0.04
366.04	0.05
366.248	-0.02
366.456	0.02
366.664	0.03
366.872	-0.04
367.079	-0.03
367.287	-0.01
367.495	0.03
367.703	-0.01
367.911	-0.02
368.118	-0
368.326	-0
368.534	-0.03
368.742	0.04
368.949	-0.06
369.157	-0.08
369.365	0.01
369.572	-0.04
369.78	-0.08
369.988	0
370.195	0.01
370.403	0.02
370.61	-0.04
370.818	0.04
371.026	0.05
371.233	-0.06
371.441	-0.01
371.648	-0.05
371.856	-0.02
372.063	-0
372.271	0.01
372.478	-0.05
372.685	-0.06
372.893	0.04
373.1	-0.02
373.308	-0
373.515	0.06
373.722	-0
373.93	-0.02
374.137	0.03
374.344	0.07
374.552	0.04
374.759	-0.01
374.966	0.01
375.173	-0.02
375.381	0.05
375.588	-0.03
375.795	-0.08
376.002	-0.04
376.209	-0.03
376.417	-0.03
376.624	-0.01
376.831	0.01
377.038	-0.03
377.245	-0.09
377.452	-0.03
377.659	-0.01
377.866	-0.02
378.073	-0.01
378.28	-0.03
378.487	-0.01
378.694	-0.01
378.901	-0
379.108	-0.05
379.315	0
379.522	0.04
379.729	-0.03
379.936	-0.02
380.143	-0.03
380.35	0.02
380.557	-0.05
380.763	-0.02
380.97	-0.02
381.177	0.04
381.384	0
381.591	0
381.797	0.02
382.004	0.03
382.211	-0.01
382.418	-0
382.624	0.02
382.831	0.04
383.038	-0.05
383.244	-0.02
383.451	-0.03
383.658	0.04
383.864	0.01
384.071	-0.05
384.277	0.07
384.484	-0.01
384.69	0.04
384.897	-0.06
385.103	-0
385.31	-0.01
385.516	-0.03
385.723	-0.06
385.929	0
386.136	-0.06
386.342	-0.01
386.549	-0.03
386.755	0.02
386.961	-0.02
387.168	-0.1
387.374	-0.04
387.58	0.04
387.787	-0.03
387.993	0.02
388.199	-0.01
388.406	-0.07
388.612	-0.04
388.818	0
389.024	-0.05
389.231	0.02
389.437	0.05
389.643	0.01
389.849	-0.02
390.055	-0.03
390.261	0.02
390.467	-0.05
390.674	-0.05
390.88	-0.03
391.086	0
391.292	-0.06
391.498	0.05
391.704	-0.04
391.91	-0.08
392.116	-0.02
392.322	-0.08
392.528	0
392.734	-0.07
392.94	0
393.146	-0
393.352	-0.02
393.557	0.03
393.763	-0.02
393.969	0.01
394.175	-0.03
394.381	-0.01
394.587	-0.07
394.792	-0.03
394.998	0.04
395.204	0.05
395.41	-0.07
395.615	0.03
395.821	-0.03
396.027	-0.02
396.233	-0.04
396.438	-0.01
396.644	0.07
396.85	0.01
397.055	-0.02
397.261	-0.03
397.466	0.05
397.672	-0.02
397.878	-0.01
398.083	0.03
398.289	-0.06
398.494	0.06
398.7	-0
398.905	-0.05
399.111	0.04
399.316	-0.04
399.522	-0.04
399.727	0.01
399.932	0.01
400.138	-0.04
400.343	0.05
400.549	0.01
400.754	0.03
400.959	-0.01
401.165	-0.03
401.37	-0.02
401.575	0.04
401.78	-0.01
401.986	-0.06
402.191	-0.06
402.396	-0.06
402.601	0.01
402.807	0.03
403.012	0
403.217	-0
403.422	-0.02
403.627	-0
403.832	-0.06
404.037	0.04
404.243	-0
404.448	-0.07
404.653	-0.04
404.858	-0.05
405.063	0.01
405.268	-0.04
405.473	-0.04
405.678	-0.03
405.883	0.13
406.088	-0.01
406.293	-0.04
406.498	-0.06
406.703	0.09
406.907	-0.02
407.112	-0.06
407.317	-0.02
407.522	0.01
407.727	-0.1
407.932	0.03
408.136	0.08
408.341	-0.03
408.546	-0.01
408.751	-0.01
408.956	0
409.16	0.04
409.365	-0.03
409.57	-0.03
409.774	-0.01
409.979	0.02
410.184	0.02
410.388	-0.06
410.593	0.04
410.798	0
411.002	-0.02
411.207	0.03
411.411	0.05
411.616	-0.03
411.82	-0
412.025	0.02
412.229	-0.06
412.434	0.04
412.638	-0.02
412.843	-0.06
413.047	0.03
413.252	-0.02
413.456	-0.01
413.66	0.03
413.865	-0.05
414.069	0.04
414.273	-0.03
414.478	-0.05
414.682	-0.06
414.886	-0.06
415.091	-0.11
415.295	-0.08
415.499	-0.04
415.703	-0.05
415.908	0.01
416.112	-0.09
416.316	0.05
416.52	-0.06
416.724	-0.08
416.929	-0
417.133	0.08
417.337	-0.03
417.541	-0.05
417.745	-0.03
417.949	-0.04
418.153	0
418.357	-0.06
418.561	0.06
418.765	0.02
418.969	0.05
419.173	0.02
419.377	-0.07
419.581	0.05
419.785	-0.08
419.989	-0.08
420.193	-0.07
420.397	-0.04
420.601	0.01
420.804	0.01
421.008	-0.04
421.212	-0.02
421.416	0.02
421.62	-0.08
421.823	0.01
422.027	0.08
422.231	0
422.435	-0.04
422.638	-0.02
422.842	0.01
423.046	-0.04
423.249	0.06
423.453	0.02
423.657	-0
423.86	0
424.064	-0.05
424.268	0.03
424.471	-0.07
424.675	0.04
424.878	0.08
425.082	-0.01
425.285	0.03
425.489	-0.05
425.692	0.02
425.896	-0.09
426.099	-0
426.303	-0.08
426.506	-0.05
426.71	-0.01
426.913	0.04
427.116	0.06
427.32	-0.03
427.523	-0.02
427.726	0.09
427.93	-0.06
428.133	-0.01
428.336	-0.08
428.54	-0.03
428.743	-0.02
428.946	0.02
429.149	-0.06
429.353	0.01
429.556	-0.02
429.759	-0.01
429.962	-0.1
430.165	-0.03
430.368	-0.08
430.571	-0.03
430.775	-0.03
430.978	-0.04
431.181	-0.01
431.384	-0.02
431.587	-0.02
431.79	-0.06
431.993	-0
432.196	-0.01
432.399	-0.06
432.602	0.01
432.805	-0.06
433.008	-0.05
433.211	-0.08
433.414	-0
433.616	0.03
433.819	0.03
434.022	-0.14
434.225	0.06
434.428	0.05
434.631	0.08
434.833	-0.03
435.036	-0.04
435.239	0.04
435.442	-0.04
435.645	-0.04
435.847	-0.06
436.05	0.02
436.253	0.02
436.455	-0.08
436.658	-0.01
436.861	-0
437.063	-0.04
437.266	-0.03
437.468	0
437.671	0.08
437.874	0.02
438.076	-0.09
438.279	-0.14
438.481	-0.02
438.684	-0.07
438.886	0.03
439.089	-0.09
439.291	0.03
439.494	0.03
439.696	-0.03
439.899	-0.02
440.101	0.04
440.303	-0.07
440.506	0.03
440.708	-0.03
440.91	0
441.113	-0.06
441.315	0.03
441.517	-0.1
441.72	0.03
441.922	-0.09
442.124	-0.07
442.326	0.01
442.529	0.04
442.731	-0.04
442.933	0.08
443.135	-0.02
443.337	-0.05
443.539	-0.02
443.742	-0.04
443.944	-0.01
444.146	-0.04
444.348	-0.04
444.55	-0.02
444.752	-0.06
444.954	-0.06
445.156	-0.02
445.358	-0.05
445.56	0.03
445.762	-0.07
445.964	-0.07
446.166	-0.03
446.368	-0.01
446.57	0
446.772	-0.04
446.974	-0.07
447.175	-0.03
447.377	-0.06
447.579	-0.04
447.781	-0.11
447.983	0.08
448.184	-0.07
448.386	-0.02
448.588	-0.11
448.79	-0.02
448.991	-0.02
449.193	-0.04
449.395	-0.02
449.597	-0.01
449.798	0.02
450	-0.04
450.202	-0.05
450.403	-0.04
450.605	-0.01
450.806	-0.03
451.008	-0.12
451.21	-0.05
451.411	-0.05
451.613	-0.01
451.814	-0.05
452.016	-0.04
452.217	-0.03
452.419	0.02
452.62	0.01
452.821	0.01
453.023	0.01
453.224	0.07
453.426	-0
453.627	0
453.828	0.02
454.03	-0.02
454.231	-0.07
454.432	-0.05
454.634	0.07
454.835	-0.02
455.036	-0.07
455.238	0.02
455.439	0.05
455.64	-0.05
455.841	-0.05
456.042	0.09
456.244	0.02
456.445	-0.01
456.646	-0.08
456.847	-0.04
457.048	0.02
457.249	0.04
457.45	0.18
457.651	-0.06
457.852	0.03
458.054	0.03
458.255	-0.03
458.456	0.03
458.657	-0
458.858	-0.04
459.058	-0.03
459.259	0.02
459.46	-0.01
459.661	-0.04
459.862	0.05
460.063	-0.07
460.264	0.05
460.465	-0.06
460.666	0.1
460.866	-0.04
461.067	0.03
461.268	0
461.469	-0.02
461.67	-0.01
461.87	-0.04
462.071	-0.04
462.272	-0.04
462.473	-0.01
462.673	0.03
462.874	-0.06
463.075	0.04
463.275	-0.03
463.476	0.02
463.676	0.03
463.877	-0.04
464.078	-0.02
464.278	0.03
464.479	-0.02
464.679	0.01
464.88	-0.04
465.08	0
465.281	-0.06
465.481	-0.01
465.682	-0.01
465.882	0.03
466.083	-0.03
466.283	-0.01
466.483	-0
466.684	-0.01
466.884	-0.05
467.085	-0.04
467.285	0.03
467.485	-0.06
467.686	-0.01
467.886	-0.04
468.086	-0.02
468.286	0.02
468.487	-0
468.687	-0.07
468.887	-0.01
469.087	0.01
469.287	-0.01
469.488	-0.08
469.688	0
469.888	0.02
470.088	0.04
470.288	0.04
470.488	0.06
470.688	-0.06
470.888	0.01
471.088	-0.04
471.288	0.04
471.488	0.02
471.688	-0.01
471.888	-0.03
472.088	0.03
472.288	0.02
472.488	-0.03
472.688	-0.05
472.888	0.01
473.088	-0.04
473.288	-0.05
473.488	0
473.688	0.05
473.887	0.01
474.087	-0.03
474.287	-0
474.487	-0.07
474.687	0.01
474.886	-0.03
475.086	-0
475.286	-0.03
475.486	0
475.685	0
475.885	-0.02
476.085	-0.01
476.284	0.02
476.484	-0.01
476.684	0
476.883	0.05
477.083	0.04
477.282	-0
477.482	0.01
477.681	0.03
477.881	-0.02
478.08	-0.04
478.28	-0.04
478.479	-0.03
478.679	0.09
478.878	-0.03
479.078	-0.05
479.277	0
479.477	-0.03
479.676	-0.01
479.875	-0.02
480.075	-0.07
480.274	0.01
480.473	0.02
480.673	-0.03
480.872	0.01
481.071	-0.02
481.271	0.01
481.47	-0.06
481.669	-0
481.868	-0.03
482.067	-0.03
482.267	-0.04
482.466	-0.05
482.665	-0.05
482.864	-0.04
483.063	0.01
483.262	0.02
483.461	0.03
483.661	0
483.86	0
484.059	-0
484.258	0.01
484.457	0
484.656	-0.01
484.855	0.01
485.054	-0.06
485.253	-0.02
485.452	-0.04
485.651	0.01
485.849	0
486.048	-0.02
486.247	-0.04
486.446	-0
486.645	-0.03
486.844	-0.03
487.043	-0.03
487.241	0.02
487.44	-0.06
487.639	-0.03
487.838	0.01
488.037	0
488.235	0.03
488.434	0.01
488.633	-0.02
488.831	-0.02
489.03	0.02
489.229	0
489.427	-0.01
489.626	0.05
489.825	0.02
490.023	-0.02
490.222	-0.03
490.42	0.02
490.619	-0
490.817	0.01
491.016	-0.01
491.214	0.02
491.413	-0
491.611	-0.02
491.81	-0.01
492.008	-0.01
492.207	0
492.405	0.01
492.604	-0.05
492.802	-0.02
493	-0.01
493.199	-0.01
493.397	-0
493.595	-0.01
493.794	-0.03
493.992	0.03
494.19	-0.02
494.388	0.02
494.587	-0.01
494.785	-0.01
494.983	-0.01
495.181	-0.02
495.379	0
495.578	-0.02
495.776	-0
495.974	-0
496.172	-0.02
496.37	-0.03
496.568	-0.05
496.766	-0.03
496.964	0.01
497.162	0
497.36	-0.03
497.558	0
497.756	-0
497.954	-0.04
498.152	-0.02
498.35	0
498.548	-0
498.746	0.02
498.944	-0.03
499.142	-0
499.34	-0.03
499.538	-0.01
499.736	-0.03
499.933	0.03
500.131	0.02
500.329	-0.01
500.527	0.03
500.725	0.02
500.922	0.02
501.12	-0.01
501.318	0
501.516	-0.03
501.713	0.01
501.911	-0.01
502.109	-0.01
502.306	0.01
502.504	-0
502.701	-0.02
502.899	-0.02
503.097	0.04
503.294	-0
503.492	-0.02
503.689	-0
503.887	0.01
504.084	0.02
504.282	0.02
504.479	-0.03
504.677	-0.02
504.874	-0.04
505.072	-0
505.269	-0.02
505.466	0.01
505.664	-0.02
505.861	-0.06
506.059	-0.05
506.256	0.02
506.453	-0.04
506.651	0.02
506.848	0.02
507.045	-0
507.242	-0.01
507.44	-0.02
507.637	-0
507.834	0
508.031	0.03
508.229	-0.02
508.426	0
508.623	0.03
508.82	-0
509.017	-0.04
509.214	-0
509.411	-0.03
509.608	-0.03
509.805	0
510.003	-0.01
510.2	-0.01
510.397	0.02
510.594	-0.02
510.791	-0.04
510.988	-0.02
511.184	0.03
511.381	-0.02
511.578	-0.05
511.775	0.01
511.972	-0.03
512.169	-0.02
512.366	-0.02
512.563	0.01
512.76	-0.03
512.956	-0
513.153	-0
513.35	-0.02
513.547	-0
513.744	-0.01
513.94	-0.04
514.137	0.02
514.334	-0
514.53	-0.01
514.727	0
514.924	0.03
515.12	-0.01
515.317	-0.02
515.514	-0.02
515.71	-0.03
515.907	-0.01
516.103	-0
516.3	0.01
516.497	0.03
516.693	0.01
516.89	-0.02
517.086	-0.02
517.283	0.01
517.479	-0.01
517.676	-0.02
517.872	-0.01
518.068	-0.01
518.265	-0.02
518.461	-0.04
518.658	-0.03
518.854	0.01
519.05	-0.02
519.247	-0.04
519.443	0.01
519.639	-0.02
519.836	-0
520.032	-0.01
520.228	-0.01
520.424	0.03
520.621	0.01
520.817	-0.01
521.013	0.01
521.209	0.01
521.405	0.03
521.601	0.01
521.798	-0
521.994	0.02
522.19	-0.02
522.386	-0.03
522.582	-0.03
522.778	0
522.974	0
523.17	-0.03
523.366	-0.02
523.562	0.04
523.758	-0.01
523.954	-0.03
524.15	-0.01
524.346	0
524.542	-0.02
524.738	-0.03
524.934	-0.02
525.129	-0.01
525.325	-0
525.521	-0.01
525.717	0.01
525.913	-0.01
526.109	0.01
526.304	-0.01
526.5	0.01
526.696	0.02
526.892	-0.03
527.087	-0
527.283	-0.02
527.479	0
527.674	-0.01
527.87	-0.01
528.066	-0.01
528.261	0.01
528.457	-0.01
528.653	-0.02
528.848	-0.03
529.044	-0
529.239	-0.01
529.435	0.03
529.63	-0.01
529.826	0.02
530.021	0
530.217	0.01
530.412	-0.01
530.608	-0.01
530.803	0
530.999	-0
531.194	-0.06
531.389	-0.01
531.585	-0.06
531.78	-0.02
531.975	-0
532.171	0.03
532.366	-0.02
532.561	-0.02
532.757	-0.03
532.952	-0
533.147	0.01
533.342	-0.01
533.538	-0.03
533.733	0.02
533.928	-0
534.123	-0.02
534.318	-0.02
534.513	-0.02
534.709	-0
534.904	-0.04
535.099	-0.01
535.294	-0
535.489	0
535.684	-0.02
535.879	-0.03
536.074	-0.02
536.269	-0.03
536.464	0.01
536.659	-0
536.854	-0.01
537.049	0.01
537.244	0.01
537.439	-0.01
537.634	0.05
537.828	-0.01
538.023	-0.01
538.218	-0.05
538.413	0
538.608	-0.03
538.803	-0.01
538.997	-0.05
539.192	-0
539.387	0.01
539.582	-0.01
539.776	-0.01
539.971	-0.01
540.166	-0.02
540.36	-0.03
540.555	0
540.75	-0.01
540.944	-0.03
541.139	-0.05
541.334	-0.02
541.528	0.01
541.723	-0
541.917	-0.02
542.112	-0.05
542.306	-0.02
542.501	0
542.695	0
542.89	-0.02
543.084	0.02
543.279	-0.02
543.473	0.01
543.668	0.01
543.862	-0
544.056	0.01
544.251	-0.02
544.445	0.01
544.64	-0.01
544.834	-0.03
545.028	0.01
545.222	-0
545.417	0.02
545.611	0.01
545.805	-0.02
546	-0.01
546.194	-0
546.388	-0.03
546.582	0
546.776	-0
546.97	0
547.165	0.02
547.359	0.02
547.553	-0.03
547.747	-0.01
547.941	-0.01
548.135	-0.01
548.329	0.02
548.523	-0
548.717	-0.02
548.911	-0.04
549.105	-0.04
549.299	-0.02
549.493	-0
549.687	0.02
549.881	0
550.075	-0.02
550.269	-0.03
550.463	-0.01
550.657	-0.02
550.85	-0.03
551.044	-0.03
551.238	0
551.432	-0.02
551.626	-0.02
551.82	-0.01
552.013	-0.03
552.207	-0.01
552.401	0.01
552.594	0
552.788	-0.01
552.982	-0.02
553.176	-0.04
553.369	0.02
553.563	-0
553.756	-0.06
553.95	-0.05
554.144	-0.02
554.337	-0.01
554.531	-0.02
554.724	0
554.918	-0.03
555.111	0.01
555.305	-0
555.498	0.04
555.692	0.01
555.885	0
556.079	0
556.272	-0.02
556.466	0
556.659	-0
556.852	-0.03
557.046	-0.02
557.239	0.02
557.432	-0.03
557.626	-0.03
557.819	0
558.012	-0.01
558.206	-0.01
558.399	-0.01
558.592	0.01
558.785	-0.03
558.979	-0
559.172	0.01
559.365	0.01
559.558	-0
559.751	-0.02
559.944	0
560.138	-0.03
560.331	-0.02
560.524	-0.02
560.717	-0.02
560.91	-0.01
561.103	-0
561.296	0
561.489	0.02
561.682	-0.01
561.875	0.03
562.068	0.01
562.261	-0
562.454	0.04
562.647	0
562.84	0.01
563.032	-0.02
563.225	-0.01
563.418	-0.01
563.611	-0.01
563.804	-0.02
563.997	-0.02
564.19	-0.05
564.382	0.01
564.575	-0.01
564.768	-0.02
564.961	-0.02
565.153	-0.03
565.346	0.02
565.539	0.02
565.731	0.02
565.924	0.02
566.117	0
566.309	-0
566.502	-0.02
566.695	-0.01
566.887	-0.01
567.08	-0.02
567.272	-0
567.465	-0.01
567.657	0.01
567.85	0.02
568.042	-0
568.235	0.02
568.427	-0
568.62	-0
568.812	0.01
569.005	-0.01
569.197	-0.06
569.389	-0.01
569.582	0
569.774	-0.01
569.966	-0.03
570.159	-0.04
570.351	0.02
570.543	-0.01
570.736	0
570.928	-0.02
571.12	0.01
571.312	-0.02
571.505	-0.07
571.697	0.02
571.889	-0.05
572.081	-0.03
572.273	-0.03
572.465	0.03
572.658	-0.01
572.85	0.01
573.042	-0.02
573.234	-0.03
573.426	0.01
573.618	-0.04
573.81	-0.01
574.002	0.03
574.194	0.04
574.386	-0.05
574.578	-0.08
574.77	-0.03
574.962	-0.02
575.154	-0.01
575.346	0
575.538	-0.01
575.729	-0.04
575.921	-0.04
576.113	-0.02
576.305	0.04
576.497	-0.05
576.689	-0.01
576.88	-0.05
577.072	0.03
577.264	-0.01
577.456	-0.03
577.647	-0.07
577.839	-0.01
578.031	0.03
578.223	-0.07
578.414	-0.05
578.606	-0.01
578.798	-0
578.989	-0.02
579.181	-0
579.372	0
579.564	-0.03
579.755	-0.01
579.947	0.01
580.139	0
580.33	-0.07
580.522	-0.03
580.713	-0.08
580.905	0.01
581.096	0.01
581.287	-0.02
581.479	-0.02
581.67	-0.01
581.862	-0.02
582.053	-0.03
582.244	-0.06
582.436	0
582.627	-0
582.818	-0.03
583.01	-0.05
583.201	-0
583.392	0.03
583.583	0
583.775	-0.01
583.966	-0.02
584.157	-0.03
584.348	-0.02
584.54	-0.06
584.731	0.01
584.922	-0.01
585.113	-0.03
585.304	0
585.495	-0.01
585.686	-0.01
585.877	0.01
586.068	-0.01
586.259	-0
586.45	0.01
586.641	-0.04
586.832	-0.06
587.023	0.01
587.214	-0.01
587.405	0.01
587.596	-0.02
587.787	0.01
587.978	0
588.169	-0.03
588.36	-0.04
588.551	0.01
588.742	-0.03
588.932	0
589.123	-0.01
589.314	0.03
589.505	-0.02
589.696	-0
589.886	-0.04
590.077	-0.05
590.268	0
590.458	-0.06
590.649	-0.06
590.84	0.03
591.03	-0.02
591.221	-0.05
591.412	-0.04
591.602	0.02
591.793	0.03
591.984	-0.06
592.174	-0.01
592.365	0.06
592.555	-0.01
592.746	-0.01
592.936	0
593.127	0.01
593.317	0.03
593.508	-0.06
593.698	-0.01
593.889	0.03
594.079	-0.01
594.269	-0.05
594.46	-0.02
594.65	-0.03
594.84	-0.02
595.031	-0.04
595.221	-0.03
595.411	-0.04
595.602	-0.01
595.792	-0.02
595.982	-0.03
596.172	0.04
596.363	0
596.553	-0
596.743	-0.03
596.933	-0
597.123	0
597.314	-0.01
597.504	-0.02
597.694	0.02
597.884	-0.02
598.074	-0.03
598.264	-0.04
598.454	0.01
598.644	-0.01
598.834	-0.01
599.024	-0.07
599.214	-0.02
599.404	0.01
599.594	-0.04
599.784	-0.03
599.974	0
600.164	-0.01
600.354	-0.04
600.544	-0.04
600.734	-0
600.924	0.02
601.114	-0.02
601.303	-0.03
601.493	-0.02
601.683	-0.02
601.873	-0.01
602.063	-0.04
602.252	0.01
602.442	-0.05
602.632	-0.02
602.821	-0.05
603.011	0.02
603.201	-0.03
603.39	-0.03
603.58	-0.03
603.77	0
603.959	0.02
604.149	0
604.339	-0.02
604.528	-0.01
604.718	0.01
604.907	-0.03
605.097	-0.03
605.286	-0.06
605.476	-0
605.665	0
605.855	-0.03
606.044	-0.01
606.234	0.02
606.423	-0.01
606.612	-0.02
606.802	-0.01
606.991	0
607.181	0.01
607.37	-0.04
607.559	-0.02
607.749	-0.05
607.938	-0
608.127	-0.03
608.316	-0.05
608.506	-0.01
608.695	0.01
608.884	-0.04
609.073	-0.03
609.263	0.01
609.452	-0.03
609.641	-0
609.83	-0.06
610.019	-0.01
610.208	-0.02
610.397	0
610.586	0
610.775	-0.03
610.965	-0.03
611.154	-0.03
611.343	-0.03
611.532	0.01
611.721	-0.04
611.91	-0.04
612.099	0.02
612.287	-0.04
612.476	-0.07
612.665	0.01
612.854	0
613.043	0.01
613.232	-0.02
613.421	-0.03
613.61	-0.01
613.798	-0.03
613.987	0.03
614.176	-0.02
614.365	0.03
614.554	-0.01
614.742	0.03
614.931	-0.01
615.12	0.01
615.309	-0.03
615.497	-0.02
615.686	-0.04
615.875	-0.02
616.063	-0.01
616.252	-0.06
616.44	-0.04
616.629	-0.01
616.818	0.02
617.006	-0.03
617.195	-0.03
617.383	-0.02
617.572	-0.01
617.76	-0.06
617.949	-0.03
618.137	0
618.326	0
618.514	-0.07
618.703	-0.01
618.891	0.03
619.079	-0.07
619.268	-0
619.456	-0.03
619.644	-0.01
619.833	0.01
620.021	-0.04
620.209	-0.06
620.398	-0.01
620.586	0
620.774	-0
620.962	-0.02
621.151	0.02
621.339	0.01
621.527	-0.04
621.715	-0.05
621.903	-0.05
622.092	-0.05
622.28	-0.01
622.468	-0.03
622.656	-0.02
622.844	-0.03
623.032	-0.03
623.22	-0.06
623.408	-0
623.596	-0.02
623.784	0.03
623.972	-0.07
624.16	-0.02
624.348	0.04
624.536	-0
624.724	-0.04
624.912	0.02
625.1	0.02
625.288	-0.06
625.476	-0.03
625.664	0
625.851	-0.04
626.039	-0.04
626.227	-0
626.415	-0.02
626.603	-0.09
626.79	-0.04
626.978	-0.02
627.166	0.02
627.354	-0
627.541	-0.02
627.729	-0.05
627.917	0.01
628.104	-0
628.292	-0.02
628.48	-0.01
628.667	-0.02
628.855	-0.02
629.042	-0.02
629.23	-0.05
629.418	-0.02
629.605	-0.02
629.793	-0.03
629.98	-0.04
630.168	-0.04
630.355	-0.01
630.543	-0.03
630.73	-0.05
630.917	-0.02
631.105	0.07
631.292	-0.05
631.48	-0.02
631.667	0.04
631.854	-0.01
632.042	-0.02
632.229	-0.06
632.416	-0.01
632.604	-0.01
632.791	-0.05
632.978	0.04
633.165	0
633.353	0.03
633.54	0.03
633.727	-0.07
633.914	-0.06
634.101	-0.08
634.289	0.01
634.476	-0.09
634.663	-0.04
634.85	0.02
635.037	-0.06
635.224	-0.06
635.411	0.02
635.598	-0
635.785	-0.03
635.972	-0.03
636.159	0.03
636.346	-0.05
636.533	-0.01
636.72	-0.03
636.907	-0.05
637.094	-0.01
637.281	-0.03
637.468	0.01
637.655	-0.04
637.842	-0.01
638.029	-0.04
638.215	-0.01
638.402	-0.03
638.589	-0.04
638.776	-0.05
638.963	-0.03
639.149	0.04
639.336	0.05
639.523	-0
639.709	-0.02
639.896	-0
640.083	0.04
640.27	0.02
640.456	-0.02
640.643	0.01
640.829	-0.08
641.016	-0.02
641.203	-0.03
641.389	-0.02
641.576	0.01
641.762	-0.01
641.949	-0.05
642.135	0.02
642.322	-0.01
642.508	-0.06
642.695	-0.01
642.881	-0.03
643.068	-0.03
643.254	-0.04
643.441	0
643.627	-0.02
643.813	-0.06
644	0.04
644.186	-0.05
644.372	0.01
644.559	0.01
644.745	-0.03
644.931	-0.04
645.118	-0.03
645.304	-0.04
645.49	-0.06
645.676	-0.04
645.862	-0.03
646.049	0
646.235	0.01
646.421	0.04
646.607	0.05
646.793	-0.04
646.979	-0.08
647.165	-0.01
647.352	-0.01
647.538	0.03
647.724	-0.02
647.91	-0
648.096	0
648.282	0.05
648.468	-0.04
648.654	0.02
648.84	-0.02
649.026	-0.02
649.212	-0.02
649.397	-0.04
649.583	-0.06
649.769	-0.01
649.955	-0.02
650.141	0.02
650.327	0.04
650.513	-0.03
650.698	-0.01
650.884	-0.07
651.07	-0.01
651.256	0.02
651.442	-0.01
651.627	-0
651.813	0.02
651.999	-0.01
652.184	0.03
652.37	-0.06
652.556	-0.05
652.741	0.04
652.927	-0.1
653.113	-0.05
653.298	-0.03
653.484	-0.03
653.669	-0.08
653.855	-0.04
654.04	0
654.226	0
654.412	-0.01
654.597	-0.05
654.782	-0.02
654.968	0.04
655.153	-0.02
655.339	-0.05
655.524	-0.03
655.71	0.01
655.895	-0.05
656.08	-0.06
656.266	0.02
656.451	-0
656.636	-0.05
656.822	-0.01
657.007	-0.02
657.192	-0.04
657.378	-0.05
657.563	0.02
657.748	0.01
657.933	-0.02
658.118	-0.02
658.304	-0.02
658.489	0.03
658.674	0.01
658.859	-0.09
659.044	0.02
659.229	-0.02
659.414	-0.04
659.599	-0.01
659.785	-0.08
659.97	-0.02
660.155	0.04
660.34	-0.01
660.525	-0.04
660.71	-0.05
660.895	0.02
661.08	-0.04
661.264	-0.05
661.449	0.05
661.634	0.03
661.819	0.01
662.004	0
662.189	-0.07
662.374	-0.02
662.559	-0.03
662.743	-0.09
662.928	-0.03
663.113	-0.04
663.298	-0.1
663.483	-0.05
663.667	0
663.852	-0.1
664.037	0.04
664.221	-0.06
664.406	-0
664.591	0.01
664.775	0.02
664.96	-0.01
665.145	-0.03
665.329	0.01
665.514	-0.05
665.698	-0.06
665.883	-0.1
666.068	0.04
666.252	-0.03
666.437	-0.05
666.621	-0.03
666.806	0.01
666.99	-0.01
667.174	-0.07
667.359	0.06
667.543	-0.03
667.728	-0.02
667.912	-0.07
668.096	0.03
668.281	-0.01
668.465	-0.07
668.649	-0.03
668.834	-0.07
669.018	-0.05
669.202	-0.02
669.387	-0.05
669.571	-0
669.755	-0.05
669.939	-0.04
670.124	-0.03
670.308	0.03
670.492	0.02
670.676	-0.02
670.86	-0.03
671.044	-0.07
671.228	-0.01
671.413	-0.03
671.597	-0.02
671.781	-0.06
671.965	0.03
672.149	-0.03
672.333	-0.01
672.517	-0.05
672.701	0.01
672.885	-0.02
673.069	-0.09
673.253	0.02
673.437	0.02
673.621	-0.02
673.804	-0.01
673.988	0.01
674.172	-0.03
674.356	-0.09
674.54	-0.04
674.724	0.05
674.908	0.01
675.091	-0.01
675.275	-0.02
675.459	0
675.643	-0.02
675.826	0.01
676.01	-0.03
676.194	-0.03
676.377	0.01
676.561	0.03
676.745	-0.03
676.928	0.02
677.112	0.02
677.296	-0.05
677.479	-0.05
677.663	-0.08
677.846	0.01
678.03	-0.02
678.213	-0.04
678.397	-0
678.58	-0.05
678.764	-0.05
678.947	-0.09
679.131	-0.05
679.314	0.02
679.498	-0.03
679.681	-0.05
679.865	0.04
680.048	-0.04
680.231	-0.02
680.415	-0.03
680.598	-0.02
680.781	-0.04
680.965	-0.07
681.148	-0.02
681.331	-0.02
681.514	-0
681.698	-0.05
681.881	-0.05
682.064	-0.02
682.247	0.02
682.43	-0.06
682.614	0.01
682.797	0.04
682.98	-0.01
683.163	-0.1
683.346	-0.01
683.529	-0.04
683.712	-0.04
683.895	-0.01
684.078	-0.05
684.261	-0.04
684.444	-0.01
684.627	0
684.81	-0.03
684.993	0.02
685.176	0.03
685.359	-0.09
685.542	-0.04
685.725	0.07
685.908	-0.03
686.091	-0.06
686.274	0.06
686.457	-0.01
686.639	0.01
686.822	0.02
687.005	-0.01
687.188	-0.01
687.371	0.06
687.553	0.03
687.736	-0.03
687.919	0.04
688.102	0.09
688.284	-0.04
688.467	-0.03
688.65	-0.06
688.832	0
689.015	0.01
689.197	-0.02
689.38	0.08
689.563	0.04
689.745	-0.07
689.928	-0.06
690.11	-0.03
690.293	0
690.475	-0.09
690.658	0.01
690.84	-0.02
691.023	-0.06
691.205	-0.08
691.388	0.05
691.57	0.02
691.752	0
691.935	-0.11
692.117	-0.07
692.3	0.05
692.482	0.01
692.664	-0.04
692.847	0
693.029	0.03
693.211	-0.01
693.393	-0
693.576	-0.01
693.758	-0.01
693.94	-0.03
694.122	-0.02
694.304	-0.04
694.487	-0.01
694.669	0.05
694.851	-0.06
695.033	0.02
695.215	-0.01
695.397	-0.08
695.579	0.03
695.761	-0.06
695.943	-0.07
696.125	0.07
696.308	-0.01
696.49	-0.08
696.671	0.09
696.853	-0.05
697.035	0.07
697.217	-0.02
697.399	0.05
697.581	-0.04
697.763	-0.01
697.945	-0.05
698.127	0.02
698.309	0.02
698.491	-0.08
698.672	-0.01
698.854	0.05
699.036	0.06
699.218	-0.04
699.399	0.05
699.581	0.02
699.763	-0.02
699.945	-0.04
700.126	-0.07
700.308	-0.05
700.49	-0.01
700.671	-0.07
700.853	-0.06
701.035	-0.02
701.216	0.01
701.398	-0.04
701.579	-0.05
701.761	0.1
701.943	-0.08
702.124	-0.03
702.306	-0.04
702.487	0.09
702.669	0.03
702.85	-0.03
703.031	-0.07
703.213	0.05
703.394	0.05
703.576	-0.04
703.757	0.03
703.938	0.04
704.12	0.12
704.301	-0.06
704.483	-0.03
704.664	0
704.845	0.06
705.026	-0.02
705.208	0.02
705.389	-0.02
705.57	-0.03
705.751	-0.03
705.933	-0.05
706.114	0.04
706.295	-0.02
706.476	-0.04
706.657	0.12
706.838	0.03
707.02	0
707.201	-0.12
707.382	-0.05
707.563	0.05
707.744	-0.09
707.925	-0.08
708.106	-0.06
708.287	-0.07
708.468	0.05
708.649	-0.01
708.83	0.05
709.011	-0.03
709.192	0.02
709.373	-0.09
709.554	-0.05
709.734	-0.02
709.915	-0.01
710.096	-0.01
710.277	-0.16
710.458	0.01
710.639	-0.03
710.819	-0.1
711	0
711.181	0.03
711.362	-0.04
711.542	0.03
711.723	-0.03
711.904	0.04
712.085	0.02
712.265	-0.06
712.446	-0.08
712.627	-0
712.807	0.01
712.988	-0.03
713.168	-0.19
713.349	0.04
713.53	-0.16
713.71	-0.11
713.891	-0.16
714.071	-0
714.252	-0.03
714.432	0.01
714.613	-0.15
714.793	-0.02
714.974	0.08
715.154	0.01
715.334	0.05
715.515	0.04
715.695	-0.1
715.876	-0.06
716.056	-0.04
716.236	-0.07
716.417	-0.05
716.597	-0.11
716.777	0.01
716.957	-0.05
717.138	0.01
717.318	-0.07
717.498	-0.06
717.678	-0.03
717.859	-0.01
718.039	-0.12
718.219	-0
718.399	-0
718.579	-0.07
718.759	-0.05
718.939	-0.03
719.12	0.01
719.3	0.02
719.48	-0.14
719.66	-0.17
719.84	0.12
720.02	-0.06
720.2	-0.06
720.38	-0
720.56	0.11
720.74	-0.04
720.92	-0.03
721.1	0.09
721.279	0.03
721.459	-0.03
721.639	-0.18
721.819	0.07
721.999	-0.12
722.179	-0.06
722.359	-0.1
722.538	-0.03
722.718	-0.02
722.898	-0.03
723.078	-0.07
723.257	-0.12
723.437	0.03
723.617	0
723.797	-0.08
723.976	-0.07
724.156	-0.01
724.336	0.01
724.515	0.07
724.695	-0.14
724.874	-0.03
725.054	-0.04
725.234	-0.07
725.413	0.08
725.593	-0.03
725.772	-0.03
725.952	-0.08
726.131	0
726.311	-0.01
726.49	-0.06
726.67	-0.07
726.849	-0.04
727.028	0.03
727.208	-0.01
727.387	0
727.567	-0.07
727.746	0.02
727.925	-0.12
728.105	-0.03
728.284	-0.09
728.463	-0.15
728.643	0.08
728.822	-0.08
729.001	-0.03
729.18	0.01
729.359	0.02
729.539	-0.05
729.718	-0.04
729.897	0.05
730.076	-0.11
730.255	-0.08
730.434	0.02
730.614	-0.01
730.793	0.13
730.972	-0.01
731.151	-0.03
731.33	0.11
731.509	0.06
731.688	-0.03
731.867	0.06
732.046	-0.16
732.225	0.13
732.404	-0.07
732.583	-0.09
732.762	-0.11
732.941	-0.01
733.12	-0.02
733.298	-0.07
733.477	-0.01
733.656	-0
733.835	-0.1
734.014	-0.01
734.193	-0.04
734.371	0.05
734.55	0.04
734.729	-0.19
734.908	0
735.086	-0.03
735.265	0.03
735.444	-0.23
735.623	-0.16
735.801	-0.21
735.98	-0.06
736.159	-0.04
736.337	0.05
736.516	-0.09
736.694	-0.06
736.873	-0.06
737.052	0.09
737.23	0.04
737.409	-0.03
737.587	0.07
737.766	-0.19
737.944	-0.07
738.123	0
738.301	-0
738.479	-0.12
738.658	-0.04
738.836	-0.19
739.015	0.02
739.193	0.03
739.371	-0.21
739.55	-0.14
739.728	-0.15
739.906	0.05
740.085	0.11
740.263	0.02
740.441	-0.19
740.62	0.16
740.798	0.06
740.976	-0.16
741.154	-0.04
741.332	0.14
741.511	-0.01
741.689	-0.01
741.867	-0.05
742.045	0.01
742.223	-0.03
742.401	-0.13
742.579	-0.14
742.757	0.01
742.935	-0.2
743.114	-0.08
743.292	-0.04
743.47	-0.03
743.648	0.06
743.826	0.01
744.004	-0.05
744.181	-0.04
744.359	-0.08
744.537	0
744.715	-0.04
744.893	-0.09
745.071	-0.05
745.249	-0.05
745.427	-0.11
745.605	0.09
745.782	0.11
745.96	0
746.138	0.03
746.316	0.03
746.493	-0.08
746.671	-0.01
746.849	-0.08
747.027	0.08
747.204	-0.03
747.382	-0.04
747.56	-0.13
747.737	-0.18
747.915	-0.07
748.093	-0.03
748.27	-0.1
748.448	-0.02
748.625	-0.12
748.803	-0.08
748.98	-0.06
749.158	0.01
749.335	-0.02
749.513	-0.03
749.69	-0.07
749.868	-0.08
750.045	-0
750.223	-0.11
750.4	-0.17
750.578	0.13
750.755	-0.03
750.932	-0.18
751.11	0.05
751.287	-0.15
751.464	0.05
751.642	-0.1
751.819	-0.02
751.996	-0.06
752.173	-0.05
752.351	-0.08
752.528	0.01
752.705	-0.14
752.882	-0.14
753.06	0.03
753.237	0.09
753.414	0.1
753.591	0.1
753.768	-0.06
753.945	-0.12
754.122	0
754.299	-0.04
754.476	-0.14
754.654	-0.09
754.831	0.1
755.008	0.05
755.185	-0.15
755.362	-0.15
755.539	-0.07
755.716	-0.12
755.892	-0.05
756.069	-0.13
756.246	-0.06
756.423	-0.03
756.6	0.17
756.777	0.01
756.954	-0
757.131	-0.06
757.307	-0.1
757.484	-0.13
757.661	-0.09
757.838	-0.01
758.015	-0.12
758.191	0.04
758.368	0.05
758.545	0.13
758.721	0.02
758.898	-0.15
759.075	0.01
759.251	-0
759.428	0.03
759.605	-0.23
759.781	0.02
759.958	-0.01
760.134	0.01
760.311	-0.13
760.488	0.17
760.664	-0.02
760.841	0.06
761.017	-0.13
761.194	0.09
761.37	-0.1
761.547	-0.05
761.723	0.06
761.899	0.03
762.076	-0.04
762.252	-0.13
762.429	-0.04
762.605	0.12
762.781	-0.25
762.958	0.04
763.134	-0.14
763.31	-0.1
763.486	0.08
763.663	-0.23
763.839	0.03
764.015	-0.2
764.191	-0.13
764.368	0
764.544	-0.07
764.72	-0
764.896	0.02
765.072	0.02
765.248	-0.08
765.425	-0.01
765.601	-0.05
765.777	-0.1
765.953	-0.32
766.129	-0.08
766.305	-0.15
766.481	0.09
766.657	0.02
766.833	0.1
767.009	-0.16
767.185	-0.11
767.361	-0.09
767.537	-0.09
767.713	0.15
767.889	-0.15
768.065	-0.06
768.24	0.08
768.416	0.14
768.592	-0.19
768.768	-0.01
768.944	0.04
769.12	-0.12
769.295	-0.12
769.471	-0.07
769.647	-0.12
769.823	0.09
769.998	-0.16
770.174	-0.11
770.35	0.13
770.525	0.2
770.701	-0.06
770.877	0.03
771.052	-0.14
771.228	0.06
771.403	-0.01
771.579	-0.06
771.755	0.32
771.93	-0.02
772.106	-0.2
772.281	-0.27
772.457	-0.12
772.632	-0.06
772.808	-0.16
772.983	-0.06
773.159	-0.3
773.334	0.17
773.509	-0.01
773.685	-0.14
773.86	0.28
774.036	0.27
774.211	-0.04
774.386	-0.06
774.562	-0.09
774.737	0.17
774.912	-0.16
775.087	0.13
775.263	-0.05
775.438	-0.08
775.613	-0.08
775.788	-0.06
775.964	0.13
776.139	0.24
776.314	-0.26
776.489	0.02
776.664	-0.02
776.839	-0.06
777.014	-0
777.19	0.22
777.365	0.17
777.54	0.2
777.715	0.15
777.89	-0.05
778.065	-0.11
778.24	-0.23
778.415	0.15
778.59	-0.15
778.765	-0.09
778.94	0.17
779.115	-0.09
779.289	-0.09
779.464	-0.09
779.639	0.02
779.814	-0.19
779.989	-0.27
780.164	0.07
780.339	0.14
780.513	-0.1
780.688	-0.2
780.863	-0.08
781.038	0.02
781.212	-0.23
781.387	-0.16
781.562	0.21
781.737	-0.04
781.911	0.19
782.086	-0.15
782.261	-0.12
782.435	0.23
782.61	-0.11
782.784	-0.04
782.959	0.12
783.134	-0.03
783.308	-0.37
783.483	0.02
783.657	0.39
783.832	0.06
784.006	-0.4
784.181	-0.05
784.355	0.03
784.53	-0.46
784.704	-0.35
784.878	0.28
785.053	0.08
785.227	0.12
785.402	0.33
785.576	-0.06
785.75	-0.05
785.925	-0.03
786.099	0.01
786.273	-0.03
786.448	0.04
786.622	0.12
786.796	-0.05
786.97	-0.16
787.145	0.27
787.319	-0.33
787.493	-0.23
787.667	-0.35
787.841	-0.04
788.015	0.17
788.19	-0.14
788.364	-0.06
788.538	0.12
788.712	-0.1
788.886	-0.14
789.06	0.03
789.234	-0.02
789.408	-0.09
789.582	0.04
789.756	-0.11
789.93	-0.28
790.104	-0.14
790.278	-0.11
790.452	-0.35
790.626	-0.25
790.8	-0.23
790.973	0
791.147	0.35
791.321	0.37
791.495	0.19
791.669	0.06
791.843	0.32
792.016	0.12
792.19	0.45
792.364	-0.14
792.538	0.35
792.711	0.12
792.885	-0.07
793.059	-0.2
793.233	-0.61
793.406	0.1
793.58	0.05
793.754	-0.01
793.927	-0.11
794.101	0.23
794.274	-0.04
794.448	0.14
794.622	-0.27
794.795	-0
794.969	-0.33
795.142	0.22
795.316	-0.4
795.489	-0.07
795.663	0.3
795.836	0.04
796.009	-0.14
796.183	0.14
796.356	0.12
796.53	-0.1
796.703	-0.4
796.876	0.67
797.05	-0.22
797.223	-0.19
797.396	0.08
797.57	-0.03
797.743	0.35
797.916	-0.12
798.09	-0.15
798.263	0.1
798.436	-0.03
798.609	-0.1
798.782	-0.27
798.956	0.28
799.129	0.08
799.302	0.07
799.475	-0.26
799.648	-0.16
799.821	-0.01
799.994	-0.18
800.167	-0.07
800.34	0.14
800.514	-0.06
800.687	-0.23
800.86	-0.24
801.033	-0.03
801.206	0.15
801.379	-0.19
801.551	-0.04
801.724	0.23
801.897	0.21
802.07	-0.01
802.243	-0.46
802.416	-0.05
802.589	-0.37
802.762	-0.11
802.935	0.13
803.107	-0.05
803.28	0.13
803.453	0.03
803.626	-0.29
803.798	0.24
803.971	-0.29
804.144	0.02
804.317	0.29
804.489	-0.06
804.662	0.04
804.835	-0.13
805.007	-0.36
805.18	0.43
805.353	-0.1
805.525	-0.41
805.698	-0.03
805.87	-0.04
806.043	0.31
806.215	-0.3
806.388	-0.47
806.56	0
806.733	0.09
806.905	0
807.078	-0.32
807.25	-0.27
807.423	0.08
807.595	-0.03
807.768	0.06
807.94	0.2
808.112	0.03
808.285	0
808.457	-0.35
808.629	0.02
808.802	-0.07
808.974	-0.06
809.146	-0.09
809.318	-0.36
809.491	0.06
809.663	-0.05
809.835	-0.46
810.007	-0.22
810.18	-0.05
810.352	-0.22
810.524	-0.15
810.696	-0.34
810.868	0.47
811.04	-0.33
811.212	-0.28
811.384	0.22
811.556	-0.13
811.728	0.19
811.901	0.41
812.073	-0.32
812.245	0.12
812.417	0.04
812.589	-0.5
812.76	-0.12
812.932	0.27
813.104	-0.14
813.276	-0.31
813.448	0.29
813.62	-0.25
813.792	-0.28
813.964	-0.26
814.136	-0.33
814.307	-0.12
814.479	-0.42
814.651	-0.08
814.823	0.73
814.995	-0.08
815.166	-0.08
815.338	-0.34
815.51	-0.58
815.681	1.05
815.853	0.11
816.025	-0.37
816.196	0.36
816.368	0
816.54	-0.18
816.711	-0.51
816.883	0.03
817.054	0.13
817.226	-0.6
817.398	-0.18
817.569	-0.44
817.741	-0.12
817.912	0.09
818.084	-0.55
818.255	0.24
818.426	-0.37
818.598	0.03
818.769	-0.34
818.941	0.2
819.112	0.52
819.283	0.28
819.455	-0.37
819.626	0.15
819.798	0.23
819.969	0.08
820.14	-0.08
820.311	0.18
820.483	0.32
820.654	0.16
820.825	-0.03
820.996	0.05
821.168	-0.44
821.339	-0.12
821.51	-0.45
821.681	-0.43
821.852	-0.17
822.023	-0.43
822.195	-1.1
822.366	0.15
822.537	-0.13
822.708	0.21
822.879	-0.36
823.05	0.9
823.221	-0.19
823.392	0.19
823.563	0.18
823.734	0.56
823.905	-0.21
824.076	-0.25
824.247	-0.22
824.418	0.03
824.589	0.24
824.759	-0.66
824.93	0.1
825.101	-0.61
825.272	0.81
825.443	0.47
825.614	0.09
825.784	-1.15
825.955	0.24
826.126	0.2
826.297	-0.11
826.467	0.55
826.638	0.62
826.809	-0.52
826.98	-0.11
827.15	0.15
827.321	0.18
827.492	0.26
827.662	0.03
827.833	0.79
828.003	0.51
828.174	-0.38
828.345	-0.41
828.515	0.56
828.686	0.11
828.856	-0.1
829.027	-0.39
829.197	-0.05
829.368	0.15
829.538	-0.57
829.709	-0.88
829.879	0.09
830.049	-0.14
830.22	-0.19
830.39	0.02
830.56	0.01
830.731	-0.19
830.901	-0.6
831.072	0.08
831.242	-0.02
831.412	-0.28
831.582	0.68
831.753	-0.36
831.923	-0.04
832.093	-0.45
832.263	0.04
832.434	-1.02
832.604	-0.18
832.774	0.43
832.944	-0.01
833.114	-0.03
833.284	0.02
833.454	-0.16
833.624	-0.26
833.795	-0.4
833.965	0.82
834.135	0.37
834.305	-0.54
834.475	-1.27
834.645	0.13
834.815	-0.31
834.985	-0.65
835.155	-0.39
835.325	0.04
835.494	-0.28
835.664	-0.48
835.834	-0.14
836.004	-0.12
836.174	0.07
836.344	-0.45
836.514	-0.87
836.684	-0.03
836.853	-0.21
837.023	-0.42
837.193	-0.62
837.363	-0.05
837.532	0.59
837.702	0.04
837.872	-0.97
838.041	0.2
838.211	1.14
838.381	-1.03
838.55	-0.17
838.72	1.32
838.89	0.4
839.059	-0.54
839.229	-0.76
839.398	0.36
839.568	-0.22
839.738	0.11
839.907	-0.24
840.077	-0.35
840.246	-0.99
840.416	-0.5
840.585	-1
840.755	1.16
840.924	0.79
841.093	-0.64
841.263	0.1
841.432	0.22
841.602	-0.08
841.771	-0.77
841.94	-0.1
842.11	1.35
842.279	1.96
842.448	-0.73
842.617	-0.7
842.787	0.82
842.956	-0.96
843.125	-0.2
843.294	-0.26
843.464	0.49
843.633	-0.75
843.802	-0.87
843.971	-0.07
844.14	0.55
844.309	1.05
844.479	-0.57
844.648	-1.13
844.817	-0.78
844.986	0.15
845.155	-0.82
845.324	0.53
845.493	0.14
845.662	-0.86
845.831	0.33
846	0.47
846.169	-0.3
846.338	0.36
846.507	0.88
846.676	0.19
846.844	-0.03
847.013	-0.27
847.182	0.33
847.351	-0.19
847.52	-0.76
847.689	0.06
847.858	-0.25
848.026	0.05
848.195	-0.17
848.364	-0.05
848.533	-1.09
848.701	-1.02
848.87	-0.25
849.039	0.52
849.207	0.07
849.376	1.22
849.545	1.34
849.713	-1.18
849.882	-0.12
850.051	-0.43
850.219	-0.09
850.388	0.85
850.556	-0.89
850.725	-0.19
850.893	-0.03
851.062	0.73
851.23	0.49
851.399	-0.75
851.567	0.11
851.736	-0.23
851.904	-1.09
852.073	0.08
852.241	0.27
852.41	-0.12
852.578	0.01
852.746	0.11
852.915	0.51
853.083	-0.97
853.251	-1.03
853.42	-0.35
853.588	0.27
853.756	1.54
853.924	-0.68
854.093	-0.45
854.261	-0.13
854.429	-1.33
854.597	-0.16
854.765	-1.47
854.934	0.7
855.102	1.41
855.27	0.45
855.438	0.13
855.606	0.52
855.774	0.75
855.942	-2.62
856.11	-1.17
856.278	-0.36
856.446	0.74
856.614	-1.02
856.782	-1.13
856.95	0.91
857.118	-0.01
857.286	-0.47
857.454	-1.36
857.622	1.55
857.79	1.2
857.958	-0.64
858.126	-0.7
858.294	-2.68
858.462	-0.98
858.629	-0.69
858.797	-0.54
858.965	0.83
859.133	0.07
859.301	-0.99
859.468	0.13
859.636	-0.66
859.804	1.31
859.971	1.08
860.139	-0.42
860.307	1.14
860.474	-0.41
860.642	-1.41
860.81	-1.12
860.977	0.45
861.145	0.81
861.313	-0.9
861.48	0.84
861.648	0.92
861.815	-0.96
861.983	-1.14
862.15	-0.97
862.318	1.27
862.485	0.3
862.653	-1.12
862.82	-1.3
862.988	0.75
863.155	0.87
863.322	-0.08
863.49	-0.85
863.657	-1.48
863.824	1.69
863.992	0.83
864.159	0.11
864.326	1.84
864.494	-0.04
864.661	3.39
864.828	-0.4
864.996	2.34
865.163	1.44
865.33	-1.57
865.497	-2.8
865.664	-1
865.832	-2.43
865.999	-0.38
866.166	-2.33
866.333	-0.49
866.5	-0.91
866.667	-0.27
866.834	-0.48
867.001	0.33
867.168	-3.12
867.335	0.79
867.502	-1.24
867.669	0.83
867.836	3.44
868.003	-1.46
868.17	0.36
868.337	-1.61
868.504	2.37
868.671	-2.22
868.838	-1.62
869.005	0.48
869.172	2.06
869.339	-0.98
869.505	-1.73
869.672	0.27
869.839	-0.33
870.006	-0.81
870.173	-1.04
870.339	-0.61
870.506	3.26
870.673	-2.71
870.84	0.37
871.006	-0.31
871.173	-0.65
871.34	0.59
871.506	-2.24
871.673	-0.13
871.839	-1.68
872.006	0.51
872.173	-0.64
872.339	0.4
872.506	1.28
872.672	-1.84
872.839	-1.79
873.005	-1.06
873.172	4.17
873.338	1.51
873.505	-0.01
873.671	0.19
873.838	0.24
874.004	-2.63
874.171	-1.55
874.337	0.02
874.503	1.12
874.67	-1.8
874.836	-1.06
875.002	1.85
875.169	0.75
875.335	0.39
875.501	-1.07
875.668	0.32
875.834	-0.39
876	-0.78
876.166	0.17
876.332	0.06
876.499	3.38
876.665	-0.61
876.831	-0.87
876.997	2.29
877.163	0.08
877.329	-1.5
877.495	-1.22
877.662	0.24
877.828	-0.71
877.994	-1.25
878.16	-2.27
878.326	-1.6
878.492	0.23
878.658	-1.98
878.824	-0.46
878.99	1.36
879.156	-1.5
879.322	2.47
879.487	-0.16
879.653	0.42
879.819	0.08
879.985	-0.7
880.151	-0.63
880.317	-0.07
880.483	-0.33
880.648	0.58
880.814	-2.96
880.98	-1.36
881.146	-1.78
881.312	-1.31
881.477	-0.07
881.643	0.23
881.809	1.49
881.974	1
882.14	-2.64
882.306	-0.2
882.471	3.23
882.637	-3.11
882.803	2.31
882.968	1.01
883.134	3.05
883.299	-0.82
883.465	-0.69
883.63	-0.74
883.796	2.04
883.961	-2.2
884.127	0.99
884.292	-3.89
884.458	-2.43
884.623	-2.43
