Data from Apollo_Calib_20240827__AbsoluteIrradiance__631__09-40-01-724.txt Node

Date: Wed Aug 28 09:40:01 BST 2024
User: biology
Spectrometer: FLMT08252
Trigger mode: 0
Integration Time (sec): 5.000000E-1
Scans to average: 5
Electric dark correction enabled: true
Nonlinearity correction enabled: false
Boxcar width: 0
XAxis mode: Wavelengths
Number of Pixels in Spectrum: 3648
>>>>>Begin Spectral Data<<<<<
179.588	-0
179.809	-0
180.03	-0
180.251	-0
180.473	-0
180.694	0
180.915	0
181.136	-0
181.357	0
181.578	-0
181.799	-0
182.02	-0
182.241	-0
182.462	-0
182.683	0
182.904	-0
183.125	-0
183.346	0
183.567	0
183.788	-0
184.009	-0
184.23	0
184.451	0
184.672	-0
184.892	-0
185.113	0
185.334	0
185.555	-0
185.776	-0
185.996	0
186.217	0
186.438	0
186.659	-0
186.879	0
187.1	-0
187.321	-0
187.541	-0
187.762	0
187.983	0
188.203	-0
188.424	0
188.644	0
188.865	0
189.086	-0
189.306	-0
189.527	-0
189.747	0
189.968	-0
190.188	0
190.409	-0
190.629	0
190.849	-0
191.07	-0
191.29	0
191.511	0
191.731	-0
191.951	-0
192.172	-0
192.392	-0
192.612	-0
192.833	-0
193.053	0
193.273	0
193.493	-0
193.714	-0
193.934	0
194.154	0
194.374	0
194.594	0
194.815	-0
195.035	-0
195.255	0
195.475	-0
195.695	0
195.915	0
196.135	-0
196.355	0
196.575	0
196.795	0
197.015	-0
197.235	-0
197.455	-0
197.675	0
197.895	-0
198.115	-0
198.335	0
198.555	-0
198.775	0
198.995	0
199.214	0
199.434	0
199.654	-0
199.874	0
200.094	0.62
200.313	0.4
200.533	-0.82
200.753	-0.84
200.973	0.77
201.192	0.37
201.412	-1.08
201.632	-0.42
201.851	0.71
202.071	-0.68
202.291	-0.32
202.51	-0.81
202.73	-0.09
202.95	0.04
203.169	-0.64
203.389	0.08
203.608	-0.05
203.828	-0.48
204.047	-0.22
204.267	0.41
204.486	-0.34
204.706	0.05
204.925	0.06
205.145	0.03
205.364	0.36
205.583	0.71
205.803	-0.42
206.022	-0.46
206.242	-0.13
206.461	0.3
206.68	-0.38
206.9	-0.06
207.119	0.3
207.338	0.69
207.557	-0.2
207.777	-0.2
207.996	-0.09
208.215	0.58
208.434	-0.28
208.654	-0.44
208.873	0.02
209.092	0.26
209.311	-0.06
209.53	-0.11
209.749	-0.1
209.968	-0.18
210.187	-0.14
210.407	-0.45
210.626	-0.19
210.845	0.18
211.064	-0.14
211.283	-0.29
211.502	0.2
211.721	0.09
211.94	-0.1
212.159	0.05
212.377	0.13
212.596	0.34
212.815	-0.01
213.034	-0
213.253	0.32
213.472	0.11
213.691	-0.14
213.91	-0.22
214.128	-0.09
214.347	0.59
214.566	-0.28
214.785	-0.31
215.003	0.23
215.222	0.02
215.441	0.03
215.66	-0.42
215.878	0.02
216.097	0.15
216.316	-0.28
216.534	-0.29
216.753	-0.02
216.972	-0.05
217.19	-0.11
217.409	-0.04
217.627	-0.14
217.846	0.06
218.064	-0.01
218.283	-0.14
218.501	0.37
218.72	0.11
218.938	-0.02
219.157	-0.09
219.375	0.16
219.594	0.12
219.812	-0.07
220.031	-0.21
220.249	0.25
220.467	0.33
220.686	-0.2
220.904	-0.23
221.122	-0.15
221.341	0.27
221.559	0.04
221.777	-0.19
221.995	-0.02
222.214	0.02
222.432	-0.1
222.65	0.06
222.868	-0.05
223.086	0.12
223.305	0.11
223.523	0.01
223.741	0.1
223.959	-0.07
224.177	-0.2
224.395	-0.08
224.613	0.03
224.831	0.13
225.049	-0.23
225.267	-0.14
225.485	0.05
225.703	0.06
225.921	-0.17
226.139	-0.07
226.357	-0
226.575	0.06
226.793	-0.02
227.011	0.35
227.229	0.07
227.447	0.1
227.665	-0.06
227.883	-0.32
228.1	-0.09
228.318	-0.07
228.536	-0.33
228.754	-0.09
228.972	0.02
229.189	-0.01
229.407	-0.01
229.625	-0.18
229.843	0.12
230.06	0.09
230.278	-0.13
230.496	-0.08
230.713	0.11
230.931	0.12
231.149	-0.08
231.366	-0.29
231.584	-0.04
231.801	0.37
232.019	-0.04
232.236	-0.12
232.454	-0.15
232.671	0.02
232.889	-0.06
233.106	-0.1
233.324	-0.04
233.541	-0.06
233.759	-0.06
233.976	-0.05
234.194	-0.08
234.411	0
234.628	-0.07
234.846	-0.12
235.063	-0.05
235.28	-0.04
235.498	0.03
235.715	-0.14
235.932	0.24
236.149	-0.05
236.367	-0.12
236.584	-0.08
236.801	-0.08
237.018	0.07
237.236	0.13
237.453	-0.13
237.67	0.14
237.887	-0.04
238.104	0.02
238.321	-0.11
238.538	-0.11
238.755	0.08
238.973	-0.17
239.19	-0
239.407	0.08
239.624	0.03
239.841	-0.16
240.058	-0.12
240.275	-0.01
240.492	-0.09
240.709	0.01
240.925	-0.07
241.142	0.04
241.359	-0.16
241.576	-0.09
241.793	-0.09
242.01	-0.06
242.227	0.04
242.444	0.02
242.66	0.1
242.877	-0
243.094	-0.03
243.311	-0.1
243.527	-0.03
243.744	-0
243.961	-0.03
244.178	-0.12
244.394	-0.04
244.611	0.12
244.828	0.09
245.044	-0.05
245.261	-0.07
245.477	-0.04
245.694	-0.01
245.911	-0.05
246.127	0.03
246.344	0.09
246.56	0.01
246.777	-0.11
246.993	-0.02
247.21	-0.07
247.426	-0.01
247.643	-0.07
247.859	-0.1
248.076	-0.03
248.292	0.13
248.508	-0.1
248.725	-0.02
248.941	0.01
249.157	0.05
249.374	-0.06
249.59	-0.06
249.806	-0.01
250.023	0.01
250.239	-0.1
250.455	-0.08
250.671	0.03
250.888	0.03
251.104	0.07
251.32	-0.02
251.536	0.01
251.752	-0.06
251.969	-0.01
252.185	0.03
252.401	0.23
252.617	-0.1
252.833	-0.08
253.049	-0.05
253.265	-0.04
253.481	0.05
253.697	-0.05
253.913	-0.1
254.129	0.01
254.345	-0.03
254.561	-0
254.777	0.03
254.993	0.13
255.209	-0.01
255.425	-0.05
255.641	-0
255.857	0.08
256.073	0
256.288	-0.09
256.504	-0.09
256.72	0.05
256.936	0.07
257.152	-0.09
257.367	-0.06
257.583	0.05
257.799	0.1
258.015	-0.04
258.23	-0.01
258.446	0.09
258.662	0.01
258.877	-0.09
259.093	-0.03
259.309	-0.03
259.524	-0.06
259.74	-0.02
259.955	-0.09
260.171	0.02
260.387	-0.03
260.602	-0
260.818	-0.03
261.033	-0.1
261.249	-0.07
261.464	-0.04
261.68	-0.09
261.895	-0.05
262.11	0.08
262.326	-0.07
262.541	-0.09
262.757	0.01
262.972	0.02
263.187	-0.03
263.403	-0.04
263.618	-0.01
263.833	0.02
264.049	-0.04
264.264	-0.03
264.479	0.03
264.694	0.11
264.91	-0.13
265.125	0.01
265.34	0.07
265.555	0.12
265.77	0.02
265.986	-0.06
266.201	-0
266.416	0.07
266.631	-0.06
266.846	0.02
267.061	0.03
267.276	0.09
267.491	-0.16
267.706	-0.02
267.921	0
268.136	0
268.351	-0.03
268.566	-0.04
268.781	0.06
268.996	0.08
269.211	0.02
269.426	-0.04
269.641	-0.08
269.856	0.02
270.071	-0.07
270.285	-0.09
270.5	0.07
270.715	0.02
270.93	-0.04
271.145	0
271.359	0
271.574	-0.02
271.789	-0.01
272.004	-0.08
272.218	-0.01
272.433	0.05
272.648	-0.03
272.862	0.08
273.077	0.02
273.292	0.01
273.506	-0.04
273.721	-0.06
273.936	0
274.15	0.06
274.365	0
274.579	0.04
274.794	0.06
275.008	0.11
275.223	-0.08
275.437	-0.01
275.652	0.06
275.866	0.02
276.081	-0
276.295	0.01
276.509	-0.02
276.724	0.01
276.938	0.02
277.153	0.01
277.367	0.1
277.581	-0
277.796	-0.03
278.01	-0.06
278.224	0.08
278.438	0.04
278.653	-0.08
278.867	-0.01
279.081	0.03
279.295	-0.06
279.51	0.06
279.724	-0.09
279.938	0.01
280.152	0.02
280.366	0.02
280.58	-0.01
280.794	0.12
281.008	0.03
281.222	0.04
281.437	0.04
281.651	-0.03
281.865	0.05
282.079	0.01
282.293	-0.1
282.507	-0
282.721	-0.07
282.935	-0.01
283.148	-0.13
283.362	-0.04
283.576	-0.08
283.79	0.06
284.004	-0.01
284.218	0.05
284.432	-0.06
284.646	-0.04
284.859	-0.01
285.073	-0.04
285.287	0.03
285.501	0.01
285.714	-0
285.928	-0
286.142	0.04
286.356	-0.03
286.569	-0.02
286.783	0.06
286.997	0.01
287.21	-0.04
287.424	0.02
287.637	-0.07
287.851	-0.05
288.065	0.02
288.278	-0.03
288.492	0.01
288.705	0.01
288.919	0.04
289.132	-0.09
289.346	0.07
289.559	-0.09
289.773	-0.08
289.986	0
290.2	0.01
290.413	0.03
290.626	-0.04
290.84	0.03
291.053	-0.01
291.267	0.05
291.48	-0.01
291.693	0.02
291.906	-0.01
292.12	0
292.333	-0.04
292.546	-0.02
292.76	0.08
292.973	0.03
293.186	0.06
293.399	-0.04
293.612	0.04
293.826	-0
294.039	-0.02
294.252	0
294.465	0.07
294.678	0.05
294.891	0.03
295.104	-0.02
295.317	-0.01
295.53	0.03
295.743	0
295.956	0
296.169	0.05
296.382	0.04
296.595	-0.04
296.808	-0.05
297.021	0.08
297.234	0.03
297.447	0.02
297.66	0.05
297.873	0.02
298.086	-0.01
298.299	-0.01
298.511	-0.05
298.724	-0.01
298.937	-0.04
299.15	-0
299.363	-0.03
299.575	0.05
299.788	0.03
300.001	-0.03
300.213	-0.07
300.426	-0.04
300.639	-0.01
300.852	-0.02
301.064	0.01
301.277	0.05
301.489	0.06
301.702	0.04
301.915	0.01
302.127	-0.02
302.34	0.02
302.552	0.01
302.765	-0.05
302.977	0.05
303.19	-0.01
303.402	-0
303.615	-0.02
303.827	-0
304.04	0
304.252	0
304.464	-0.02
304.677	0.1
304.889	0.07
305.102	-0.02
305.314	-0.01
305.526	-0.01
305.739	-0
305.951	-0.07
306.163	-0.02
306.375	0.03
306.588	0
306.8	-0.03
307.012	-0.04
307.224	0.04
307.436	0.06
307.649	-0.08
307.861	0.01
308.073	0.06
308.285	0.02
308.497	-0.08
308.709	-0.02
308.921	0.04
309.133	0.04
309.346	-0.01
309.558	0.04
309.77	0.03
309.982	0.09
310.194	0.05
310.406	-0.01
310.617	0.08
310.829	-0.01
311.041	0.03
311.253	-0.06
311.465	-0.03
311.677	0.02
311.889	-0.01
312.101	-0.04
312.313	0.02
312.524	0.02
312.736	-0.05
312.948	0.01
313.16	0.05
313.372	0.05
313.583	-0.03
313.795	-0.01
314.007	-0.05
314.218	0.03
314.43	-0.01
314.642	-0.04
314.853	-0.06
315.065	0.05
315.277	0
315.488	-0
315.7	0.04
315.912	0.02
316.123	-0.01
316.335	0.01
316.546	0.12
316.758	-0
316.969	-0.05
317.181	-0.01
317.392	-0.02
317.604	0.02
317.815	-0.04
318.026	-0.01
318.238	-0.02
318.449	0.02
318.661	-0.06
318.872	-0.06
319.083	-0.08
319.295	0.03
319.506	-0.03
319.717	-0
319.929	0.03
320.14	0.04
320.351	0
320.562	-0
320.774	0.01
320.985	-0.01
321.196	-0.02
321.407	-0.03
321.618	0.03
321.829	0
322.041	0.05
322.252	0.01
322.463	0
322.674	0.01
322.885	-0.03
323.096	-0.02
323.307	-0.02
323.518	0.09
323.729	-0.03
323.94	-0.04
324.151	-0.03
324.362	0.01
324.573	-0.03
324.784	-0.04
324.995	0.04
325.206	-0
325.417	-0.03
325.628	-0.01
325.838	-0.03
326.049	-0
326.26	0.01
326.471	-0.04
326.682	0
326.892	0.02
327.103	-0.06
327.314	-0.06
327.525	0.03
327.735	0.02
327.946	0
328.157	-0.04
328.368	0.02
328.578	-0.03
328.789	0.01
328.999	0.02
329.21	-0.04
329.421	0.03
329.631	-0.06
329.842	-0.03
330.052	-0
330.263	0.08
330.473	0.01
330.684	0
330.894	-0.03
331.105	0.02
331.315	-0.01
331.526	-0.05
331.736	0.08
331.947	0.04
332.157	-0.01
332.367	-0.06
332.578	0
332.788	0.05
332.999	0.01
333.209	-0
333.419	-0.05
333.629	0.05
333.84	0.02
334.05	-0.03
334.26	0.03
334.47	-0.01
334.681	0.04
334.891	-0.07
335.101	0.05
335.311	0.1
335.521	0.04
335.732	-0.02
335.942	0.07
336.152	0.04
336.362	0
336.572	0.01
336.782	0.04
336.992	-0.01
337.202	0.02
337.412	-0.05
337.622	0
337.832	0.03
338.042	0.03
338.252	-0
338.462	-0.03
338.672	-0.02
338.882	-0.04
339.092	0.01
339.302	0.04
339.511	0.01
339.721	-0.04
339.931	-0.04
340.141	0.08
340.351	0.05
340.561	0
340.77	0.03
340.98	0.01
341.19	0.02
341.4	-0.04
341.609	-0.02
341.819	-0.04
342.029	-0.03
342.238	-0.01
342.448	-0.03
342.658	0.05
342.867	-0.01
343.077	0.03
343.286	0.02
343.496	0
343.706	0.05
343.915	-0.07
344.125	0.02
344.334	0.02
344.544	-0.09
344.753	-0.07
344.963	-0.01
345.172	-0.03
345.381	0
345.591	0.01
345.8	0.03
346.01	0.04
346.219	0.05
346.428	-0.12
346.638	-0.04
346.847	-0.01
347.056	0.08
347.266	-0.03
347.475	-0.02
347.684	-0
347.893	0.03
348.103	0.04
348.312	0
348.521	-0.01
348.73	-0.01
348.94	-0.02
349.149	0.01
349.358	-0.01
349.567	-0.03
349.776	-0.04
349.985	0
350.194	0.01
350.403	0.05
350.612	-0.07
350.821	-0.01
351.03	-0.01
351.239	-0.07
351.448	0.01
351.657	-0.04
351.866	0.07
352.075	-0.01
352.284	0.02
352.493	-0.05
352.702	0.08
352.911	-0.01
353.12	0.03
353.329	-0.01
353.538	0.01
353.746	-0
353.955	-0.06
354.164	0.01
354.373	-0.01
354.582	0.04
354.79	-0
354.999	0.04
355.208	-0.03
355.416	0.08
355.625	-0.03
355.834	0
356.042	-0.01
356.251	-0.03
356.46	-0.06
356.668	0.03
356.877	0.08
357.085	0.02
357.294	-0.07
357.503	0.04
357.711	-0
357.92	0.14
358.128	0.01
358.337	0.04
358.545	0.03
358.754	-0.04
358.962	0.01
359.17	-0.03
359.379	-0.01
359.587	0.03
359.796	0
360.004	0.04
360.212	0.04
360.421	0.04
360.629	0.01
360.837	-0.01
361.046	0.02
361.254	0.1
361.462	0.02
361.67	-0.04
361.879	-0
362.087	0.04
362.295	0
362.503	-0
362.711	-0.06
362.92	-0.05
363.128	-0.05
363.336	-0.06
363.544	-0.08
363.752	-0.02
363.96	-0.03
364.168	-0.04
364.376	-0.01
364.584	-0.02
364.792	0.06
365	0
365.208	-0.02
365.416	0.03
365.624	0.06
365.832	-0
366.04	0.07
366.248	0
366.456	0.01
366.664	0.03
366.872	0.04
367.079	-0
367.287	0.03
367.495	0.03
367.703	0
367.911	-0.04
368.118	-0.01
368.326	-0.02
368.534	-0.06
368.742	0.04
368.949	-0.03
369.157	-0.01
369.365	0.01
369.572	-0.03
369.78	-0.04
369.988	0.05
370.195	-0.01
370.403	0.01
370.61	-0.06
370.818	-0.01
371.026	0.05
371.233	-0.02
371.441	-0.01
371.648	-0
371.856	-0.02
372.063	0.01
372.271	-0.01
372.478	-0
372.685	-0.05
372.893	0.01
373.1	-0.01
373.308	-0.01
373.515	0.06
373.722	0.04
373.93	0.01
374.137	0.06
374.344	0.1
374.552	0.02
374.759	0.02
374.966	0.01
375.173	0.02
375.381	0.03
375.588	-0.03
375.795	-0.07
376.002	-0
376.209	-0.02
376.417	0
376.624	-0.03
376.831	0.03
377.038	0
377.245	-0.06
377.452	-0.01
377.659	0.03
377.866	-0.04
378.073	-0.01
378.28	-0.02
378.487	0.04
378.694	0.02
378.901	-0.05
379.108	0.01
379.315	0.06
379.522	0.06
379.729	0.02
379.936	-0.03
380.143	0.02
380.35	-0.01
380.557	0
380.763	0.03
380.97	-0.02
381.177	0.02
381.384	0
381.591	-0.03
381.797	0.01
382.004	-0.01
382.211	0.02
382.418	-0.03
382.624	0.05
382.831	0.01
383.038	0
383.244	0.02
383.451	0.03
383.658	0.04
383.864	-0
384.071	-0.05
384.277	-0.03
384.484	-0.04
384.69	0.03
384.897	0
385.103	0.01
385.31	-0.05
385.516	-0.01
385.723	-0.02
385.929	-0.03
386.136	-0.02
386.342	0.02
386.549	-0.03
386.755	0.06
386.961	0.05
387.168	-0.03
387.374	-0
387.58	0.04
387.787	-0.02
387.993	0.02
388.199	0.01
388.406	0.01
388.612	-0
388.818	-0.03
389.024	-0.04
389.231	-0.01
389.437	0.12
389.643	0.01
389.849	-0.03
390.055	-0.01
390.261	-0.01
390.467	0.03
390.674	-0.03
390.88	0.02
391.086	-0.01
391.292	-0.05
391.498	0.04
391.704	-0
391.91	-0.02
392.116	-0.02
392.322	-0.04
392.528	0.01
392.734	-0.05
392.94	-0.01
393.146	-0
393.352	0
393.557	-0.01
393.763	-0.03
393.969	-0
394.175	-0.06
394.381	0.02
394.587	-0.06
394.792	-0
394.998	0.01
395.204	0.03
395.41	-0.03
395.615	-0.02
395.821	0
396.027	0.03
396.233	-0.03
396.438	0.03
396.644	0.08
396.85	0.04
397.055	-0
397.261	-0.01
397.466	-0.06
397.672	0.01
397.878	0.03
398.083	-0.03
398.289	-0.02
398.494	0.04
398.7	-0.01
398.905	-0.06
399.111	0.08
399.316	-0.04
399.522	-0
399.727	-0.01
399.932	-0.01
400.138	-0.02
400.343	0.03
400.549	0.03
400.754	-0.01
400.959	0.02
401.165	-0.02
401.37	0.01
401.575	0.08
401.78	-0.03
401.986	-0.06
402.191	-0
402.396	-0.01
402.601	0.05
402.807	-0.03
403.012	-0.02
403.217	0.02
403.422	0.02
403.627	0.01
403.832	-0.05
404.037	0.04
404.243	0.01
404.448	-0.04
404.653	-0.05
404.858	0.01
405.063	0.02
405.268	-0.08
405.473	-0.04
405.678	-0.04
405.883	0.13
406.088	0.04
406.293	-0.09
406.498	-0.05
406.703	-0.03
406.907	0.01
407.112	-0.09
407.317	-0
407.522	0.05
407.727	-0.09
407.932	-0.01
408.136	0.04
408.341	0.01
408.546	0.03
408.751	0.03
408.956	-0.03
409.16	-0.02
409.365	0.02
409.57	-0.02
409.774	0.03
409.979	0.08
410.184	-0.01
410.388	-0.03
410.593	0
410.798	0.03
411.002	-0.03
411.207	0.02
411.411	-0.01
411.616	-0.03
411.82	-0.02
412.025	-0.01
412.229	-0.02
412.434	0.06
412.638	0.02
412.843	-0.03
413.047	0.01
413.252	-0.05
413.456	-0.06
413.66	0.06
413.865	-0.02
414.069	0.09
414.273	0
414.478	0.01
414.682	-0.02
414.886	-0.06
415.091	-0.07
415.295	-0.07
415.499	0.02
415.703	-0.03
415.908	0.01
416.112	-0.09
416.316	0.03
416.52	-0.04
416.724	-0.07
416.929	-0.02
417.133	0.05
417.337	-0.03
417.541	-0.08
417.745	0.04
417.949	-0
418.153	0.03
418.357	-0.08
418.561	0.08
418.765	0
418.969	0.05
419.173	0.04
419.377	-0.03
419.581	0.06
419.785	-0.04
419.989	-0.06
420.193	-0.03
420.397	-0.03
420.601	0.05
420.804	0.06
421.008	0.02
421.212	-0.01
421.416	0.05
421.62	-0.03
421.823	-0.02
422.027	0.09
422.231	0.01
422.435	-0.04
422.638	0.04
422.842	-0.01
423.046	-0.05
423.249	0.01
423.453	0.04
423.657	0.01
423.86	-0.03
424.064	-0.04
424.268	0.04
424.471	0.01
424.675	0.1
424.878	0.06
425.082	0
425.285	0.04
425.489	-0.01
425.692	0.01
425.896	-0.05
426.099	0.05
426.303	-0.06
426.506	-0.07
426.71	0
426.913	0.01
427.116	0.03
427.32	0.01
427.523	0.01
427.726	0.06
427.93	-0.01
428.133	-0.02
428.336	-0.11
428.54	-0.1
428.743	0.05
428.946	-0
429.149	-0.05
429.353	-0.01
429.556	0.01
429.759	-0.01
429.962	-0.06
430.165	-0.01
430.368	-0.03
430.571	-0.02
430.775	0.01
430.978	-0.03
431.181	0
431.384	-0.03
431.587	-0.07
431.79	-0.01
431.993	-0.01
432.196	-0.02
432.399	-0.05
432.602	0.03
432.805	-0.04
433.008	-0.01
433.211	-0.08
433.414	0.02
433.616	0.08
433.819	-0.03
434.022	-0.06
434.225	0.05
434.428	0.03
434.631	0.04
434.833	-0.02
435.036	-0.06
435.239	0.07
435.442	0.02
435.645	-0.04
435.847	0
436.05	0.06
436.253	0.02
436.455	-0.03
436.658	0.01
436.861	0.03
437.063	-0.05
437.266	-0.01
437.468	0
437.671	0.11
437.874	-0.02
438.076	-0.02
438.279	-0.06
438.481	-0
438.684	-0.05
438.886	0.04
439.089	-0.05
439.291	-0.07
439.494	0.02
439.696	-0.02
439.899	-0.02
440.101	0.03
440.303	-0.15
440.506	0.01
440.708	0.03
440.91	0.02
441.113	-0.06
441.315	0.05
441.517	-0.07
441.72	0.01
441.922	-0.08
442.124	-0.08
442.326	-0
442.529	0.04
442.731	-0.06
442.933	0.09
443.135	-0.03
443.337	-0.04
443.539	-0.02
443.742	-0.01
443.944	-0
444.146	-0.06
444.348	0.02
444.55	-0.03
444.752	-0.01
444.954	-0.03
445.156	0.01
445.358	-0.01
445.56	0.01
445.762	-0.04
445.964	-0.01
446.166	-0.06
446.368	-0.08
446.57	0.01
446.772	-0.01
446.974	-0.08
447.175	0.02
447.377	-0.03
447.579	-0.03
447.781	-0.09
447.983	0.07
448.184	0.03
448.386	-0.05
448.588	-0.09
448.79	-0.01
448.991	-0.03
449.193	-0.05
449.395	-0.02
449.597	-0.03
449.798	0.01
450	0.02
450.202	-0.04
450.403	0.01
450.605	0.07
450.806	-0
451.008	-0.08
451.21	-0.02
451.411	0.03
451.613	-0.06
451.814	-0.03
452.016	0.08
452.217	-0.03
452.419	0.04
452.62	-0
452.821	0.02
453.023	0.06
453.224	0.04
453.426	-0.03
453.627	0.04
453.828	0.01
454.03	-0.02
454.231	-0.02
454.432	-0.09
454.634	0.09
454.835	-0.01
455.036	-0.07
455.238	0
455.439	0.05
455.64	-0.05
455.841	-0.03
456.042	0.04
456.244	0.03
456.445	-0.06
456.646	-0.08
456.847	-0.04
457.048	0.02
457.249	0.04
457.45	0.18
457.651	-0.04
457.852	0.06
458.054	-0.02
458.255	-0.05
458.456	0.04
458.657	-0.03
458.858	-0.07
459.058	-0.02
459.259	0.01
459.46	-0.01
459.661	-0.05
459.862	0.11
460.063	-0.01
460.264	0.04
460.465	-0.09
460.666	0.08
460.866	-0.06
461.067	-0.03
461.268	-0.02
461.469	0
461.67	-0.01
461.87	0
462.071	-0.04
462.272	-0.01
462.473	-0.02
462.673	0.02
462.874	-0.08
463.075	0.01
463.275	-0.03
463.476	-0.03
463.676	-0.02
463.877	0.01
464.078	-0.06
464.278	0.04
464.479	-0.08
464.679	-0.02
464.88	-0.05
465.08	0.05
465.281	-0.07
465.481	-0.03
465.682	-0.02
465.882	0.01
466.083	0.06
466.283	0.03
466.483	-0.04
466.684	-0.09
466.884	-0.04
467.085	-0.01
467.285	0.03
467.485	-0.02
467.686	-0
467.886	-0.04
468.086	0
468.286	0.02
468.487	-0
468.687	-0.04
468.887	-0.02
469.087	0.03
469.287	-0.01
469.488	-0.11
469.688	0.01
469.888	0.02
470.088	0.03
470.288	0.04
470.488	0.05
470.688	-0.03
470.888	-0.05
471.088	-0.03
471.288	0.05
471.488	0.05
471.688	-0.01
471.888	-0.03
472.088	0.01
472.288	0.03
472.488	-0.06
472.688	-0.06
472.888	0.01
473.088	-0.03
473.288	-0.01
473.488	0.02
473.688	0.06
473.887	-0
474.087	-0.05
474.287	0.03
474.487	-0.03
474.687	0.01
474.886	-0.03
475.086	-0
475.286	0
475.486	0.04
475.685	0.01
475.885	-0.01
476.085	-0.01
476.284	0.04
476.484	-0
476.684	0.07
476.883	0.07
477.083	0.01
477.282	-0.05
477.482	0.04
477.681	0.03
477.881	0.03
478.08	-0.04
478.28	0
478.479	0.04
478.679	0.06
478.878	-0.04
479.078	-0.04
479.277	-0.04
479.477	-0.02
479.676	0.01
479.875	-0.01
480.075	-0.06
480.274	-0
480.473	0.04
480.673	-0.03
480.872	0
481.071	0.03
481.271	0.01
481.47	-0.03
481.669	0.01
481.868	-0.08
482.067	-0.04
482.267	-0.04
482.466	-0.04
482.665	-0.04
482.864	-0.04
483.063	-0.04
483.262	0.02
483.461	0.05
483.661	0.01
483.86	0
484.059	0
484.258	-0.02
484.457	-0.02
484.656	-0
484.855	0.01
485.054	-0.05
485.253	-0.04
485.452	-0.02
485.651	-0
485.849	-0.04
486.048	-0.02
486.247	-0.06
486.446	-0.01
486.645	-0.02
486.844	-0.04
487.043	-0
487.241	0.03
487.44	-0.03
487.639	-0.04
487.838	0.01
488.037	0.02
488.235	0.03
488.434	-0.01
488.633	-0.03
488.831	-0.01
489.03	0.02
489.229	-0.01
489.427	-0.02
489.626	0.03
489.825	0.04
490.023	0
490.222	-0.01
490.42	0.02
490.619	0.03
490.817	-0.01
491.016	-0.03
491.214	0.02
491.413	0
491.611	-0.01
491.81	0
492.008	0.01
492.207	0.01
492.405	-0
492.604	-0.04
492.802	0.01
493	-0.02
493.199	-0.01
493.397	-0.01
493.595	-0.03
493.794	-0.03
493.992	0.04
494.19	-0
494.388	0.02
494.587	-0.02
494.785	-0.01
494.983	-0.03
495.181	-0.01
495.379	-0
495.578	-0.02
495.776	0
495.974	0.02
496.172	-0.02
496.37	-0.03
496.568	-0.04
496.766	-0.04
496.964	0.01
497.162	-0
497.36	-0.03
497.558	0
497.756	0.01
497.954	-0.02
498.152	-0.01
498.35	-0.01
498.548	-0.01
498.746	-0
498.944	-0.03
499.142	0
499.34	-0.03
499.538	-0.02
499.736	-0.02
499.933	0.03
500.131	0.04
500.329	0.01
500.527	0.03
500.725	0.03
500.922	0.02
501.12	0.02
501.318	0.01
501.516	-0.01
501.713	-0.01
501.911	-0
502.109	-0.04
502.306	-0
502.504	0
502.701	-0.02
502.899	0.02
503.097	0.02
503.294	-0
503.492	-0
503.689	0.01
503.887	0.03
504.084	0.02
504.282	-0.02
504.479	-0.03
504.677	0.02
504.874	-0.02
505.072	-0
505.269	-0.02
505.466	0.02
505.664	0.01
505.861	-0.03
506.059	-0.05
506.256	0.02
506.453	-0.03
506.651	0.01
506.848	0.03
507.045	-0.02
507.242	-0.01
507.44	-0.01
507.637	0.02
507.834	-0.01
508.031	0.01
508.229	-0.02
508.426	0
508.623	0.02
508.82	-0.02
509.017	-0.01
509.214	-0.01
509.411	0.01
509.608	-0.03
509.805	-0
510.003	-0.02
510.2	-0.01
510.397	0.03
510.594	-0.04
510.791	-0.03
510.988	-0
511.184	0.01
511.381	-0.02
511.578	-0.03
511.775	0.01
511.972	-0.04
512.169	-0.03
512.366	-0.01
512.563	0
512.76	-0.02
512.956	0.05
513.153	-0.03
513.35	0
513.547	-0.04
513.744	-0.03
513.94	-0.04
514.137	-0.01
514.334	0.01
514.53	-0.01
514.727	-0
514.924	-0
515.12	-0.02
515.317	-0.04
515.514	-0.02
515.71	-0.02
515.907	-0.02
516.103	0.01
516.3	0
516.497	0.04
516.693	0.03
516.89	-0.02
517.086	-0.02
517.283	0.02
517.479	-0.01
517.676	-0.01
517.872	-0.01
518.068	-0.02
518.265	-0.01
518.461	-0.01
518.658	-0.04
518.854	0
519.05	-0.02
519.247	-0.01
519.443	0.02
519.639	-0.01
519.836	-0
520.032	-0.01
520.228	-0.02
520.424	0.04
520.621	-0.02
520.817	-0.02
521.013	-0
521.209	0
521.405	0.04
521.601	0
521.798	0.01
521.994	0.02
522.19	-0.01
522.386	-0.03
522.582	-0.01
522.778	-0.02
522.974	-0.02
523.17	0
523.366	-0
523.562	0
523.758	0
523.954	-0.02
524.15	-0
524.346	0.01
524.542	-0.02
524.738	-0.02
524.934	-0.03
525.129	-0
525.325	0.01
525.521	-0
525.717	0.01
525.913	0.01
526.109	-0.01
526.304	-0.01
526.5	0.02
526.696	0.03
526.892	0.01
527.087	-0
527.283	-0.04
527.479	-0
527.674	-0.02
527.87	-0.02
528.066	-0.02
528.261	0.01
528.457	-0.02
528.653	-0.01
528.848	-0.02
529.044	0.01
529.239	-0.01
529.435	0.01
529.63	0.01
529.826	0.03
530.021	0.02
530.217	0.02
530.412	0
530.608	-0.02
530.803	-0.02
530.999	0.01
531.194	-0.06
531.389	0.01
531.585	-0.05
531.78	-0.02
531.975	-0
532.171	0.02
532.366	-0.03
532.561	0.01
532.757	-0.02
532.952	-0.01
533.147	0.01
533.342	-0.02
533.538	-0.02
533.733	0.04
533.928	-0.01
534.123	-0.02
534.318	-0.03
534.513	-0.01
534.709	-0.03
534.904	-0.02
535.099	-0.02
535.294	-0
535.489	-0.01
535.684	-0.01
535.879	-0.04
536.074	0
536.269	-0.03
536.464	0.01
536.659	-0.01
536.854	-0.04
537.049	-0
537.244	0.01
537.439	-0.03
537.634	0.03
537.828	-0
538.023	-0.02
538.218	-0.05
538.413	-0.01
538.608	-0.02
538.803	0.01
538.997	-0.04
539.192	0.02
539.387	-0
539.582	-0.01
539.776	-0.01
539.971	-0.02
540.166	-0
540.36	-0.03
540.555	0.01
540.75	-0.02
540.944	0
541.139	-0.02
541.334	-0.02
541.528	-0
541.723	0.02
541.917	-0.01
542.112	-0.04
542.306	0.01
542.501	0
542.695	0.01
542.89	-0.02
543.084	0.02
543.279	-0.01
543.473	-0.01
543.668	-0.01
543.862	-0
544.056	-0
544.251	-0.01
544.445	-0.01
544.64	-0.02
544.834	-0.03
545.028	-0.02
545.222	0.02
545.417	0.01
545.611	-0.02
545.805	-0
546	-0.01
546.194	-0.01
546.388	-0.02
546.582	0.01
546.776	-0.01
546.97	-0.03
547.165	0.01
547.359	0.02
547.553	-0.02
547.747	0.01
547.941	-0
548.135	0
548.329	0.02
548.523	-0
548.717	-0.01
548.911	-0.03
549.105	-0.01
549.299	-0.01
549.493	0.02
549.687	0
549.881	0.01
550.075	-0.01
550.269	-0.03
550.463	0
550.657	-0.02
550.85	-0.03
551.044	-0.02
551.238	0
551.432	-0.03
551.626	-0.01
551.82	-0
552.013	-0.02
552.207	0.03
552.401	0.02
552.594	-0
552.788	0
552.982	-0
553.176	-0.02
553.369	-0
553.563	-0.01
553.756	-0.03
553.95	-0.02
554.144	0
554.337	0.01
554.531	0.02
554.724	0.02
554.918	-0.03
555.111	0.02
555.305	-0.02
555.498	0.05
555.692	0.02
555.885	-0.02
556.079	-0
556.272	-0.01
556.466	0
556.659	0
556.852	-0.01
557.046	-0.01
557.239	0.03
557.432	-0.02
557.626	-0.01
557.819	0.02
558.012	0.02
558.206	0.03
558.399	-0.02
558.592	0.01
558.785	-0.02
558.979	0.03
559.172	0.01
559.365	0
559.558	-0.01
559.751	-0.01
559.944	0.01
560.138	-0.02
560.331	-0.02
560.524	-0.01
560.717	-0
560.91	-0.01
561.103	0
561.296	-0
561.489	0
561.682	-0.02
561.875	0.02
562.068	-0.01
562.261	0.01
562.454	0.02
562.647	0
562.84	0.03
563.032	-0.01
563.225	-0.02
563.418	-0.02
563.611	-0
563.804	-0
563.997	-0.01
564.19	-0.03
564.382	-0.06
564.575	-0.01
564.768	0
564.961	-0.04
565.153	-0.02
565.346	0.02
565.539	-0.01
565.731	0.02
565.924	0.01
566.117	0.01
566.309	-0.01
566.502	-0.02
566.695	-0.01
566.887	0.01
567.08	-0.03
567.272	-0.01
567.465	-0
567.657	0
567.85	-0
568.042	0.01
568.235	0.02
568.427	0
568.62	0
568.812	0.03
569.005	-0.02
569.197	-0.04
569.389	0.01
569.582	0.01
569.774	-0
569.966	-0.03
570.159	-0.04
570.351	0.01
570.543	-0.04
570.736	0.01
570.928	-0.02
571.12	0
571.312	-0.01
571.505	-0.01
571.697	0.03
571.889	-0.01
572.081	0.01
572.273	-0.01
572.465	0.04
572.658	-0.01
572.85	0
573.042	-0.03
573.234	-0.01
573.426	0.02
573.618	-0.02
573.81	0.01
574.002	0.03
574.194	0.02
574.386	-0.05
574.578	-0.08
574.77	-0.01
574.962	0
575.154	-0.05
575.346	-0.02
575.538	0.01
575.729	-0
575.921	-0.03
576.113	0.01
576.305	0.02
576.497	-0.01
576.689	-0.01
576.88	-0.02
577.072	0.01
577.264	-0.03
577.456	-0.01
577.647	-0.08
577.839	-0.01
578.031	0.04
578.223	-0.03
578.414	-0.03
578.606	0.04
578.798	-0.01
578.989	-0.03
579.181	-0.02
579.372	-0.01
579.564	-0.02
579.755	0.02
579.947	0.01
580.139	-0
580.33	-0.03
580.522	-0.03
580.713	-0.06
580.905	0.01
581.096	0
581.287	-0.01
581.479	-0.01
581.67	0.03
581.862	-0.01
582.053	-0.03
582.244	-0.06
582.436	-0.01
582.627	-0.01
582.818	-0.03
583.01	-0.05
583.201	0
583.392	0.02
583.583	-0.01
583.775	-0.02
583.966	-0.02
584.157	-0.01
584.348	-0.02
584.54	-0.05
584.731	0.01
584.922	-0
585.113	-0.01
585.304	0.01
585.495	0.01
585.686	0
585.877	0.03
586.068	0.02
586.259	-0.01
586.45	0
586.641	-0.03
586.832	-0.04
587.023	-0.02
587.214	-0
587.405	0.02
587.596	-0.02
587.787	0.03
587.978	0
588.169	-0.04
588.36	-0.03
588.551	0.01
588.742	-0.02
588.932	0
589.123	-0.01
589.314	0.01
589.505	0
589.696	0
589.886	-0.02
590.077	-0.02
590.268	-0.01
590.458	-0.05
590.649	-0.05
590.84	0
591.03	-0.03
591.221	-0.04
591.412	-0.04
591.602	0.02
591.793	0.04
591.984	-0.05
592.174	-0.03
592.365	0.06
592.555	-0.04
592.746	0.01
592.936	0.01
593.127	0.03
593.317	0.02
593.508	-0
593.698	-0.01
593.889	-0
594.079	-0.01
594.269	-0.02
594.46	-0.01
594.65	-0.03
594.84	-0.01
595.031	-0.02
595.221	-0.02
595.411	-0.05
595.602	0.02
595.792	-0
595.982	-0.03
596.172	0.06
596.363	-0.02
596.553	-0.02
596.743	-0
596.933	-0.01
597.123	0.04
597.314	-0.03
597.504	0.01
597.694	0.03
597.884	0.03
598.074	-0.01
598.264	-0.04
598.454	0.02
598.644	-0
598.834	0.01
599.024	-0.04
599.214	-0
599.404	0.02
599.594	-0.03
599.784	-0.02
599.974	0.04
600.164	0.03
600.354	0.02
600.544	-0.05
600.734	0.01
600.924	0.02
601.114	-0.03
601.303	-0
601.493	0.01
601.683	-0.03
601.873	-0
602.063	-0.04
602.252	0
602.442	-0.06
602.632	-0.03
602.821	-0.04
603.011	0
603.201	-0
603.39	-0.01
603.58	-0.03
603.77	0.02
603.959	0.02
604.149	0.01
604.339	-0.01
604.528	0.03
604.718	0
604.907	-0.03
605.097	-0.03
605.286	-0.05
605.476	0.02
605.665	0
605.855	-0.03
606.044	0.03
606.234	-0
606.423	-0
606.612	-0.04
606.802	0.02
606.991	0.01
607.181	0.04
607.37	-0.04
607.559	-0.03
607.749	-0.05
607.938	0.01
608.127	-0.02
608.316	-0.02
608.506	-0.02
608.695	-0.02
608.884	-0.03
609.073	0
609.263	0.01
609.452	0.01
609.641	0.02
609.83	-0.04
610.019	-0.01
610.208	-0.03
610.397	-0.03
610.586	0.03
610.775	-0.02
610.965	-0.03
611.154	-0.03
611.343	-0.01
611.532	-0.03
611.721	-0.06
611.91	-0.05
612.099	0.01
612.287	-0.03
612.476	-0.06
612.665	0.01
612.854	-0.05
613.043	0
613.232	-0.01
613.421	-0.05
613.61	-0.02
613.798	-0.03
613.987	0.02
614.176	0.02
614.365	0.03
614.554	-0.02
614.742	0
614.931	-0.01
615.12	0.02
615.309	-0.03
615.497	0.01
615.686	-0.02
615.875	-0
616.063	-0.02
616.252	-0.02
616.44	-0.02
616.629	0
616.818	0.01
617.006	-0.01
617.195	-0.02
617.383	0.02
617.572	-0.02
617.76	-0
617.949	-0.04
618.137	0.02
618.326	-0
618.514	-0.05
618.703	-0.03
618.891	0.03
619.079	-0.06
619.268	0.01
619.456	-0.05
619.644	0.04
619.833	-0.03
620.021	-0.04
620.209	-0.06
620.398	-0.01
620.586	-0.03
620.774	-0.02
620.962	-0.01
621.151	0.04
621.339	-0
621.527	-0.02
621.715	-0.07
621.903	-0.04
622.092	-0.04
622.28	0.02
622.468	-0
622.656	-0.02
622.844	0.02
623.032	-0.04
623.22	-0.07
623.408	0.01
623.596	0.02
623.784	0.03
623.972	-0
624.16	-0.01
624.348	0.04
624.536	-0.02
624.724	-0.02
624.912	0.02
625.1	0.04
625.288	-0.04
625.476	-0.05
625.664	-0.01
625.851	-0.05
626.039	-0.01
626.227	-0.01
626.415	-0.04
626.603	-0.08
626.79	0.01
626.978	0
627.166	0.01
627.354	0.02
627.541	-0.04
627.729	-0.06
627.917	0.02
628.104	0.03
628.292	-0
628.48	-0.02
628.667	0.01
628.855	-0.02
629.042	0.03
629.23	-0
629.418	0
629.605	-0.01
629.793	-0.01
629.98	-0.01
630.168	-0.02
630.355	0.01
630.543	0.01
630.73	-0.03
630.917	0.01
631.105	0.03
631.292	-0.04
631.48	0.03
631.667	0.05
631.854	-0.02
632.042	-0.02
632.229	-0.05
632.416	-0
632.604	-0.01
632.791	-0.06
632.978	0.03
633.165	0.01
633.353	0.06
633.54	0.02
633.727	-0.1
633.914	-0.03
634.101	-0.08
634.289	0.04
634.476	-0.04
634.663	-0.04
634.85	-0.01
635.037	-0.07
635.224	-0.08
635.411	0.01
635.598	0.02
635.785	-0.02
635.972	-0.01
636.159	0.01
636.346	-0.05
636.533	0
636.72	-0.03
636.907	-0.07
637.094	0
637.281	-0.03
637.468	0.02
637.655	-0.02
637.842	-0.01
638.029	-0.03
638.215	-0.02
638.402	-0.01
638.589	-0.05
638.776	-0.03
638.963	-0.02
639.149	0.04
639.336	0.03
639.523	-0.01
639.709	0.01
639.896	-0.02
640.083	0.06
640.27	0.02
640.456	-0.02
640.643	0
640.829	-0.04
641.016	-0
641.203	-0.04
641.389	0.02
641.576	0.02
641.762	-0.01
641.949	-0.04
642.135	-0.02
642.322	-0.01
642.508	-0.06
642.695	-0
642.881	-0.03
643.068	-0.04
643.254	0
643.441	0.03
643.627	-0.05
643.813	-0.05
644	0.03
644.186	-0.05
644.372	-0.01
644.559	0.01
644.745	-0
644.931	-0.01
645.118	0.01
645.304	-0.03
645.49	-0.04
645.676	-0.03
645.862	0
646.049	0.05
646.235	-0.01
646.421	0.05
646.607	0.05
646.793	-0.03
646.979	-0.02
647.165	-0
647.352	-0
647.538	0.01
647.724	-0.03
647.91	0.01
648.096	0.03
648.282	0.01
648.468	-0.04
648.654	0.03
648.84	-0.01
649.026	-0.03
649.212	-0.01
649.397	-0.02
649.583	-0.03
649.769	0.01
649.955	-0.02
650.141	0.01
650.327	0.06
650.513	-0.03
650.698	0.03
650.884	-0.07
651.07	-0
651.256	0.01
651.442	-0
651.627	-0.02
651.813	0.03
651.999	0.02
652.184	-0.02
652.37	0
652.556	-0.03
652.741	0.02
652.927	-0.06
653.113	-0.03
653.298	0.02
653.484	-0.02
653.669	-0.08
653.855	-0.03
654.04	-0.02
654.226	-0.01
654.412	-0.04
654.597	-0.06
654.782	-0
654.968	0.02
655.153	0.02
655.339	-0.05
655.524	-0.03
655.71	0.01
655.895	-0.02
656.08	-0.04
656.266	0.04
656.451	0
656.636	-0.03
656.822	-0.03
657.007	-0.03
657.192	0
657.378	-0.09
657.563	0
657.748	-0.01
657.933	-0.01
658.118	-0.01
658.304	-0.04
658.489	0.01
658.674	0.03
658.859	-0.02
659.044	0.02
659.229	0.04
659.414	-0.02
659.599	0
659.785	-0.07
659.97	-0.01
660.155	0.03
660.34	0
660.525	-0.04
660.71	-0.03
660.895	0.02
661.08	-0.01
661.264	0
661.449	0.05
661.634	0.06
661.819	-0
662.004	-0
662.189	-0.08
662.374	-0.05
662.559	-0.05
662.743	-0.06
662.928	0.01
663.113	-0.01
663.298	-0.07
663.483	-0.03
663.667	0
663.852	-0.08
664.037	0.03
664.221	-0.02
664.406	0.01
664.591	-0
664.775	-0.04
664.96	0
665.145	-0.01
665.329	-0.02
665.514	-0.02
665.698	-0.02
665.883	-0.05
666.068	0.03
666.252	0.03
666.437	-0.04
666.621	-0.02
666.806	0.03
666.99	-0.01
667.174	-0.03
667.359	0.02
667.543	-0.01
667.728	-0.01
667.912	-0.07
668.096	0.03
668.281	-0.05
668.465	0
668.649	-0.01
668.834	-0.03
669.018	-0.04
669.202	-0.01
669.387	-0.05
669.571	-0.01
669.755	-0.05
669.939	-0
670.124	-0.03
670.308	0.04
670.492	0.02
670.676	0.01
670.86	0.02
671.044	-0.02
671.228	0.03
671.413	-0.05
671.597	-0.06
671.781	-0.06
671.965	0.03
672.149	-0.03
672.333	-0.03
672.517	-0.06
672.701	-0.01
672.885	-0.04
673.069	-0.07
673.253	0.06
673.437	-0.04
673.621	-0.05
673.804	0
673.988	0.02
674.172	-0.01
674.356	-0.04
674.54	-0.03
674.724	0.07
674.908	0.04
675.091	0.04
675.275	0.02
675.459	0.01
675.643	-0.04
675.826	0
676.01	0
676.194	-0.01
676.377	0.03
676.561	-0
676.745	-0.02
676.928	0.02
677.112	0.03
677.296	-0.02
677.479	-0.03
677.663	0.01
677.846	0
678.03	0.01
678.213	-0.01
678.397	-0.02
678.58	-0.03
678.764	-0.02
678.947	-0.07
679.131	-0.02
679.314	0.02
679.498	-0.02
679.681	0.06
679.865	0.04
680.048	0.01
680.231	-0.03
680.415	0.01
680.598	0.03
680.781	-0.02
680.965	-0.03
681.148	-0.03
681.331	0.01
681.514	-0.01
681.698	-0.02
681.881	0.02
682.064	-0.01
682.247	0.01
682.43	-0.05
682.614	0.03
682.797	0.01
682.98	0.04
683.163	-0.04
683.346	0.09
683.529	-0.03
683.712	-0.01
683.895	-0.02
684.078	-0.04
684.261	-0.01
684.444	0.01
684.627	0.01
684.81	0
684.993	0.02
685.176	0.01
685.359	0.02
685.542	-0.07
685.725	0.07
685.908	-0.01
686.091	-0.02
686.274	0.08
686.457	0.01
686.639	0
686.822	0.02
687.005	-0.02
687.188	0.01
687.371	0.05
687.553	0.04
687.736	0.04
687.919	0.03
688.102	0.05
688.284	0.01
688.467	0
688.65	-0.01
688.832	-0.02
689.015	-0.03
689.197	-0.04
689.38	0.07
689.563	0.1
689.745	-0.01
689.928	-0.01
690.11	0.01
690.293	-0.02
690.475	-0.07
690.658	0.01
690.84	-0.04
691.023	-0.04
691.205	-0.03
691.388	0
691.57	0.06
691.752	0.03
691.935	-0.03
692.117	-0.01
692.3	0
692.482	-0.01
692.664	0.03
692.847	-0.03
693.029	0.01
693.211	0.06
693.393	-0.01
693.576	-0.02
693.758	-0.06
693.94	0.02
694.122	0.02
694.304	0.01
694.487	-0
694.669	0.04
694.851	-0.05
695.033	-0.03
695.215	-0.01
695.397	-0.02
695.579	0.03
695.761	-0.03
695.943	-0.12
696.125	0.07
696.308	0.02
696.49	-0.08
696.671	0.07
696.853	-0.03
697.035	0.12
697.217	-0.02
697.399	0.02
697.581	-0.04
697.763	0.04
697.945	-0.07
698.127	0.02
698.309	0.06
698.491	0.04
698.672	0.09
698.854	0.06
699.036	0.06
699.218	0.04
699.399	0.08
699.581	0.05
699.763	-0
699.945	-0.08
700.126	-0.02
700.308	0.09
700.49	-0
700.671	-0.08
700.853	-0.01
701.035	0.01
701.216	0.03
701.398	-0.04
701.579	0.05
701.761	0.08
701.943	-0.01
702.124	-0.05
702.306	0.06
702.487	0.12
702.669	-0.01
702.85	0.02
703.031	-0.05
703.213	0.13
703.394	0.08
703.576	0.01
703.757	0.1
703.938	-0.02
704.12	0.18
704.301	0.04
704.483	0.01
704.664	0.07
704.845	0.16
705.026	0.07
705.208	0.05
705.389	0.04
705.57	0
705.751	-0
705.933	0.04
706.114	0.1
706.295	0.09
706.476	-0.06
706.657	0.13
706.838	0.05
707.02	0.11
707.201	0.03
707.382	-0.01
707.563	0.07
707.744	0.03
707.925	0.04
708.106	0.03
708.287	0.11
708.468	0.16
708.649	0.07
708.83	0.11
709.011	-0.04
709.192	0.1
709.373	-0.07
709.554	0.07
709.734	0.16
709.915	0.13
710.096	0.06
710.277	-0.07
710.458	0.09
710.639	0.14
710.819	-0.03
711	0.02
711.181	0.13
711.362	0.07
711.542	0.11
711.723	0.04
711.904	0.14
712.085	0.09
712.265	0.09
712.446	-0.01
712.627	0.06
712.807	0.09
712.988	0.1
713.168	-0.05
713.349	0.01
713.53	-0.03
713.71	0.03
713.891	0.05
714.071	0.1
714.252	0.09
714.432	0.01
714.613	0.03
714.793	0.11
714.974	0.19
715.154	0.13
715.334	0.14
715.515	0.16
715.695	-0.01
715.876	0.08
716.056	0.09
716.236	0.09
716.417	0.08
716.597	0.06
716.777	0.19
716.957	0.13
717.138	0.06
717.318	0.11
717.498	0.08
717.678	0.09
717.859	0.15
718.039	0.05
718.219	0.17
718.399	0.16
718.579	0.07
718.759	0.1
718.939	0.16
719.12	0.11
719.3	0.13
719.48	0.04
719.66	0.07
719.84	0.2
720.02	0.11
720.2	0.1
720.38	0.13
720.56	0.32
720.74	0.06
720.92	0.17
721.1	0.27
721.279	0.24
721.459	0.12
721.639	0.12
721.819	0.23
721.999	0.14
722.179	0.23
722.359	0.06
722.538	0.14
722.718	0.22
722.898	0.13
723.078	0.17
723.257	0.11
723.437	0.22
723.617	0.22
723.797	0.23
723.976	0.25
724.156	0.26
724.336	0.31
724.515	0.41
724.695	0.12
724.874	0.24
725.054	0.22
725.234	0.19
725.413	0.33
725.593	0.25
725.772	0.2
725.952	0.22
726.131	0.25
726.311	0.23
726.49	0.24
726.67	0.19
726.849	0.19
727.028	0.3
727.208	0.28
727.387	0.4
727.567	0.21
727.746	0.26
727.925	0.21
728.105	0.21
728.284	0.33
728.463	0.23
728.643	0.4
728.822	0.2
729.001	0.25
729.18	0.31
729.359	0.34
729.539	0.3
729.718	0.34
729.897	0.42
730.076	0.24
730.255	0.12
730.434	0.37
730.614	0.39
730.793	0.47
730.972	0.32
731.151	0.34
731.33	0.54
731.509	0.44
731.688	0.38
731.867	0.44
732.046	0.19
732.225	0.53
732.404	0.31
732.583	0.27
732.762	0.34
732.941	0.49
733.12	0.37
733.298	0.42
733.477	0.45
733.656	0.31
733.835	0.26
734.014	0.48
734.193	0.35
734.371	0.51
734.55	0.39
734.729	0.4
734.908	0.51
735.086	0.42
735.265	0.53
735.444	0.27
735.623	0.4
735.801	0.42
735.98	0.4
736.159	0.42
736.337	0.51
736.516	0.44
736.694	0.31
736.873	0.38
737.052	0.6
737.23	0.59
737.409	0.32
737.587	0.53
737.766	0.23
737.944	0.36
738.123	0.38
738.301	0.46
738.479	0.32
738.658	0.43
738.836	0.21
739.015	0.46
739.193	0.4
739.371	0.25
739.55	0.21
739.728	0.29
739.906	0.37
740.085	0.43
740.263	0.32
740.441	0.06
740.62	0.47
740.798	0.36
740.976	0.21
741.154	0.11
741.332	0.47
741.511	0.16
741.689	0.29
741.867	0.38
742.045	0.17
742.223	0.23
742.401	0.15
742.579	0.15
742.757	0.17
742.935	0.06
743.114	0.14
743.292	0.11
743.47	0.23
743.648	0.18
743.826	0.14
744.004	0.22
744.181	0.21
744.359	0.16
744.537	0.22
744.715	0.08
744.893	0.06
745.071	0.08
745.249	0.02
745.427	0.1
745.605	0.21
745.782	0.14
745.96	0.1
746.138	0.19
746.316	0.13
746.493	0.1
746.671	0.1
746.849	0.13
747.027	0.16
747.204	0.01
747.382	0.16
747.56	-0.01
747.737	0.19
747.915	0.04
748.093	0.06
748.27	-0.07
748.448	0.07
748.625	0
748.803	0.02
748.98	0.06
749.158	0.05
749.335	0.19
749.513	0.06
749.69	0.05
749.868	0.1
750.045	0.12
750.223	0.01
750.4	-0.16
750.578	0.26
750.755	0.02
750.932	-0.09
751.11	0.04
751.287	-0.05
751.464	0.22
751.642	-0.05
751.819	0.04
751.996	0.09
752.173	-0.09
752.351	-0.05
752.528	0.09
752.705	-0.05
752.882	-0.03
753.06	-0.02
753.237	0.06
753.414	0.19
753.591	0.12
753.768	0.03
753.945	-0.06
754.122	-0.07
754.299	0.07
754.476	-0.13
754.654	0.02
754.831	0.09
755.008	-0.03
755.185	-0.08
755.362	-0.06
755.539	0.11
755.716	-0.03
755.892	0.01
756.069	-0.05
756.246	-0.07
756.423	0.03
756.6	0.11
756.777	-0.01
756.954	0.07
757.131	-0.06
757.307	-0.06
757.484	-0.1
757.661	0.02
757.838	0.05
758.015	-0.02
758.191	0.07
758.368	0.05
758.545	0.07
758.721	0.04
758.898	-0.1
759.075	0.08
759.251	0.09
759.428	0.04
759.605	-0.21
759.781	-0.07
759.958	0.01
760.134	0.13
760.311	-0.05
760.488	0.25
760.664	0.11
760.841	-0
761.017	-0.07
761.194	0.06
761.37	0.02
761.547	-0.04
761.723	0.06
761.899	0.08
762.076	-0.01
762.252	-0.08
762.429	-0.11
762.605	0.07
762.781	0.02
762.958	0.08
763.134	-0.09
763.31	-0.05
763.486	0.1
763.663	-0.17
763.839	0.03
764.015	-0.15
764.191	-0.09
764.368	-0.08
764.544	-0.05
764.72	0.11
764.896	0.03
765.072	0.09
765.248	-0.06
765.425	-0.06
765.601	-0.03
765.777	0.01
765.953	-0.12
766.129	-0.03
766.305	-0.19
766.481	0.09
766.657	-0.05
766.833	0.1
767.009	-0.05
767.185	-0.14
767.361	-0.04
767.537	-0.11
767.713	0.08
767.889	0.04
768.065	-0.07
768.24	0.05
768.416	0.05
768.592	-0.01
768.768	-0.05
768.944	0
769.12	-0.15
769.295	-0.12
769.471	-0.14
769.647	-0.04
769.823	0.07
769.998	-0.08
770.174	-0.16
770.35	0.26
770.525	0.39
770.701	0
770.877	0
771.052	-0.09
771.228	0.15
771.403	0.03
771.579	0.14
771.755	0.18
771.93	-0.06
772.106	-0.21
772.281	-0.33
772.457	-0.02
772.632	0.08
772.808	-0.18
772.983	-0.11
773.159	-0.15
773.334	0.05
773.509	-0.18
773.685	-0.1
773.86	0.17
774.036	0.18
774.211	0.11
774.386	-0
774.562	0.02
774.737	-0
774.912	-0.16
775.087	0.14
775.263	-0.12
775.438	-0.05
775.613	-0.03
775.788	-0.04
775.964	0.17
776.139	0.28
776.314	-0.24
776.489	0.07
776.664	0.12
776.839	-0.06
777.014	0.18
777.19	0.13
777.365	0.22
777.54	0.25
777.715	-0.1
777.89	-0.04
778.065	-0.21
778.24	-0.05
778.415	0.14
778.59	-0.1
778.765	-0.15
778.94	-0.01
779.115	0.06
779.289	-0.16
779.464	0.06
779.639	-0.08
779.814	-0.19
779.989	-0.11
780.164	0.2
780.339	0.14
780.513	-0.23
780.688	-0.08
780.863	0.04
781.038	0.28
781.212	-0.18
781.387	-0.04
781.562	0.28
781.737	-0.18
781.911	0.15
782.086	-0.13
782.261	-0.05
782.435	0.15
782.61	-0.15
782.784	-0.09
782.959	0.16
783.134	-0.22
783.308	-0.3
783.483	-0.12
783.657	0.3
783.832	0.23
784.006	-0.2
784.181	0.15
784.355	0.13
784.53	-0.36
784.704	-0.12
784.878	0.25
785.053	0.23
785.227	0.14
785.402	0.24
785.576	-0.2
785.75	0.11
785.925	-0.13
786.099	0.13
786.273	0.04
786.448	0.15
786.622	0.39
786.796	0.01
786.97	-0.24
787.145	0.42
787.319	-0.32
787.493	-0.03
787.667	-0.52
787.841	-0
788.015	0.23
788.19	-0.1
788.364	0.05
788.538	0.24
788.712	0.17
788.886	-0.06
789.06	0.03
789.234	0.33
789.408	-0.24
789.582	-0.04
789.756	-0.01
789.93	-0.18
790.104	0.02
790.278	0.08
790.452	-0.07
790.626	0.23
790.8	-0.13
790.973	0.16
791.147	0.26
791.321	0.23
791.495	0.1
791.669	0.01
791.843	0.07
792.016	-0.04
792.19	0.15
792.364	-0.27
792.538	0.52
792.711	0.1
792.885	0.1
793.059	-0.12
793.233	-0.55
793.406	0.2
793.58	0.18
793.754	0.23
793.927	0.03
794.101	-0.03
794.274	-0.09
794.448	0.22
794.622	-0.21
794.795	0.12
794.969	-0.07
795.142	0.17
795.316	-0.13
795.489	0.15
795.663	0.49
795.836	-0.01
796.009	-0.06
796.183	0.38
796.356	0.05
796.53	-0.01
796.703	-0.01
796.876	0.58
797.05	-0.05
797.223	-0.04
797.396	0.22
797.57	0.06
797.743	0.44
797.916	0.22
798.09	0
798.263	0.21
798.436	0.17
798.609	0.07
798.782	-0.03
798.956	-0.07
799.129	-0.27
799.302	-0
799.475	-0
799.648	0.04
799.821	-0.35
799.994	-0.01
800.167	-0.27
800.34	-0.06
800.514	0.11
800.687	-0.34
800.86	-0.18
801.033	-0.1
801.206	0.22
801.379	-0.36
801.551	0.44
801.724	0.19
801.897	0.43
802.07	-0.11
802.243	-0.43
802.416	-0.23
802.589	-0.36
802.762	-0.14
802.935	0.18
803.107	0.11
803.28	0.2
803.453	0.33
803.626	-0.39
803.798	0.1
803.971	0.13
804.144	-0.12
804.317	0.25
804.489	0.64
804.662	0.16
804.835	-0.11
805.007	-0.19
805.18	0.33
805.353	0.31
805.525	-0.13
805.698	-0.04
805.87	0.23
806.043	0.44
806.215	-0.16
806.388	-0.34
806.56	-0.04
806.733	0.22
806.905	-0.02
807.078	-0.32
807.25	-0.39
807.423	0.19
807.595	0.23
807.768	0.19
807.94	0.39
808.112	-0.02
808.285	-0.24
808.457	-0.37
808.629	-0
808.802	0.17
808.974	0.14
809.146	-0.5
809.318	-0.52
809.491	-0.26
809.663	0.16
809.835	-0.3
810.007	0.2
810.18	-0.05
810.352	-0.12
810.524	-0.1
810.696	-0.08
810.868	0.63
811.04	0.07
811.212	-0.12
811.384	0.2
811.556	0.04
811.728	0
811.901	0.24
812.073	0.17
812.245	0.05
812.417	0.19
812.589	-0.58
812.76	0.11
812.932	0.24
813.104	0.38
813.276	-0.08
813.448	0.35
813.62	-0.01
813.792	-0.02
813.964	-0.14
814.136	-0.08
814.307	0.06
814.479	-0.03
814.651	-0.23
814.823	1.04
814.995	-0.19
815.166	-0.14
815.338	0.38
815.51	-0.41
815.681	0.94
815.853	-0.19
816.025	-0.06
816.196	0.51
816.368	-0.03
816.54	-0.44
816.711	-0.09
816.883	0.27
817.054	0.96
817.226	-0.6
817.398	0.07
817.569	-0.25
817.741	0.19
817.912	-0.07
818.084	-0.03
818.255	0.33
818.426	-0.52
818.598	-0.25
818.769	-0.12
818.941	0.35
819.112	0.54
819.283	0.29
819.455	-0.64
819.626	0.24
819.798	0.27
819.969	0
820.14	0.06
820.311	-0.12
820.483	0.16
820.654	0.21
820.825	-0.26
820.996	-0.38
821.168	-0.2
821.339	-0.36
821.51	-0.51
821.681	-0.1
821.852	0.16
822.023	-0.24
822.195	-0.65
822.366	0.41
822.537	-0.24
822.708	-0.6
822.879	-0.14
823.05	0.47
823.221	-0.15
823.392	0.23
823.563	0.12
823.734	-0.17
823.905	-0.06
824.076	0.17
824.247	-0.5
824.418	-0.32
824.589	0.46
824.759	0.43
824.93	-0.24
825.101	-0.7
825.272	-0.09
825.443	0.4
825.614	0.29
825.784	-0.69
825.955	0.91
826.126	0.49
826.297	0.19
826.467	0.92
826.638	0.21
826.809	-0.66
826.98	-0.28
827.15	-0.14
827.321	-0.47
827.492	0.37
827.662	-0.07
827.833	0.93
828.003	-0.05
828.174	-0.31
828.345	-0.72
828.515	0.49
828.686	0.15
828.856	0.53
829.027	0.02
829.197	0.15
829.368	0.37
829.538	-0.31
829.709	-0.43
829.879	0.31
830.049	-0.02
830.22	-0.69
830.39	-0.25
830.56	0.5
830.731	-0.05
830.901	-0.63
831.072	0.32
831.242	0.23
831.412	0.94
831.582	-0.04
831.753	-0.81
831.923	0.52
832.093	-0.94
832.263	-0.52
832.434	-0.39
832.604	-0.61
832.774	0.05
832.944	0.15
833.114	0.32
833.284	0.4
833.454	-1.13
833.624	-0.26
833.795	-0.11
833.965	0.88
834.135	0.75
834.305	-0.16
834.475	-0.65
834.645	-0.01
834.815	-0.09
834.985	-0.22
835.155	-0.59
835.325	0.64
835.494	0.23
835.664	-0.47
835.834	0.29
836.004	0.31
836.174	0.33
836.344	-0.38
836.514	-0.47
836.684	-0.4
836.853	-0.04
837.023	0.38
837.193	-0.45
837.363	1.14
837.532	0.52
837.702	-0.15
837.872	-0.64
838.041	0.48
838.211	0.69
838.381	-0.7
838.55	-0.19
838.72	1.2
838.89	0.64
839.059	0.3
839.229	-0.64
839.398	1.55
839.568	0.02
839.738	0.06
839.907	0.75
840.077	0.63
840.246	0.11
840.416	-0.09
840.585	-0.66
840.755	1.4
840.924	0.47
841.093	-0.27
841.263	-0
841.432	0.75
841.602	-1
841.771	-0.68
841.94	-0.15
842.11	1.99
842.279	1.42
842.448	-0.95
842.617	-0.55
842.787	0.62
842.956	-1.03
843.125	0.53
843.294	0.8
843.464	0.45
843.633	-0.25
843.802	-0.76
843.971	0.3
844.14	-0.04
844.309	-0.24
844.479	-0.7
844.648	-0.51
844.817	-1.42
844.986	0.14
845.155	-0.48
845.324	-0.77
845.493	-0.26
845.662	-0.43
845.831	-0.17
846	0.34
846.169	0.86
846.338	1.05
846.507	0.11
846.676	0.61
846.844	-0.34
847.013	0.44
847.182	-0.25
847.351	-0.81
847.52	-0.37
847.689	0.65
847.858	0.35
848.026	-0.14
848.195	-0.02
848.364	-0.41
848.533	-0.5
848.701	0.29
848.87	0.07
849.039	1.11
849.207	1.38
849.376	0.95
849.545	1.24
849.713	-0.01
849.882	0.27
850.051	-0.46
850.219	0.57
850.388	0.4
850.556	-0.2
850.725	-1.02
850.893	0.38
851.062	-0.27
851.23	1
851.399	-1.51
851.567	0.18
851.736	0.86
851.904	-1.18
852.073	-0.2
852.241	0.71
852.41	0.96
852.578	-0.7
852.746	0.26
852.915	0.7
853.083	0.49
853.251	-0.89
853.42	-0.32
853.588	0.14
853.756	2.62
853.924	0.41
854.093	-0.7
854.261	0.18
854.429	-0.39
854.597	0.74
854.765	-1.4
854.934	1.05
855.102	1.23
855.27	1.14
855.438	0.91
855.606	0.35
855.774	1.38
855.942	-2.09
856.11	-1.13
856.278	0.42
856.446	0.42
856.614	-0.32
856.782	-0.3
856.95	-0.66
857.118	0.65
857.286	0.02
857.454	-1.05
857.622	1.3
857.79	0.53
857.958	-0.47
858.126	0.6
858.294	-3.24
858.462	-0.39
858.629	0.01
858.797	-0.72
858.965	-0.13
859.133	1.12
859.301	0.24
859.468	-0.17
859.636	-0.2
859.804	1.93
859.971	1.13
860.139	-2.03
860.307	0.43
860.474	0.39
860.642	-0.81
860.81	-1.11
860.977	-1.57
861.145	0.52
861.313	-0.51
861.48	-0.31
861.648	0.32
861.815	-0.2
861.983	-0.85
862.15	-1.09
862.318	1.08
862.485	1.4
862.653	-0.46
862.82	-1.03
862.988	1.35
863.155	0.12
863.322	-0.67
863.49	-1.44
863.657	-0.07
863.824	1.7
863.992	1.2
864.159	0.7
864.326	1.87
864.494	-1.26
864.661	2.86
864.828	-1.25
864.996	0.71
865.163	2.73
865.33	-1.45
865.497	-3.28
865.664	-1.01
865.832	-0.83
865.999	0.26
866.166	-0.22
866.333	-0.39
866.5	-0.12
866.667	-0.69
866.834	0.81
867.001	2.33
867.168	-1.52
867.335	1.75
867.502	-1.99
867.669	-0.25
867.836	2.13
868.003	-0.61
868.17	-0.12
868.337	-0.63
868.504	3.29
868.671	-2.61
868.838	0.01
869.005	0.74
869.172	1.18
869.339	-0.63
869.505	-2.16
869.672	0.52
869.839	2.34
870.006	0.27
870.173	-1.17
870.339	2.38
870.506	2.21
870.673	-0.41
870.84	1.17
871.006	-0.13
871.173	0.57
871.34	0.01
871.506	-1.38
871.673	0.05
871.839	-1.13
872.006	1.73
872.173	-1.97
872.339	0.1
872.506	1.27
872.672	0.41
872.839	-2.17
873.005	0.05
873.172	3.72
873.338	0.68
873.505	-0.29
873.671	-0.91
873.838	0.66
874.004	0.47
874.171	-0.7
874.337	0.58
874.503	0.77
874.67	-0.52
874.836	-0.79
875.002	1.68
875.169	1.63
875.335	0.61
875.501	0.14
875.668	0.32
875.834	0.58
876	-0.94
876.166	1.34
876.332	0.3
876.499	1.59
876.665	-0.29
876.831	-1.32
876.997	1.3
877.163	1.28
877.329	-0.31
877.495	0.14
877.662	1.23
877.828	0.27
877.994	1.82
878.16	-2.2
878.326	-0.87
878.492	0.67
878.658	1.07
878.824	0.67
878.99	0.72
879.156	-1.77
879.322	3.28
879.487	-1.5
879.653	0.39
879.819	1.1
879.985	0.82
880.151	1.29
880.317	1.51
880.483	0.43
880.648	2.22
880.814	-0.93
880.98	1.78
881.146	-1.78
881.312	-2.72
881.477	0.22
881.643	0.36
881.809	2.18
881.974	1.13
882.14	-2.46
882.306	-2.39
882.471	2.62
882.637	-1.19
882.803	0.5
882.968	2.84
883.134	3.91
883.299	-1.39
883.465	0.61
883.63	2.5
883.796	0.86
883.961	2.56
884.127	-0.06
884.292	-5.31
884.458	-2.38
884.623	-2.38
