Data from Apollo_Calib_20240827__AbsoluteIrradiance__558__08-27-01-089.txt Node

Date: Wed Aug 28 08:27:01 BST 2024
User: biology
Spectrometer: FLMT08252
Trigger mode: 0
Integration Time (sec): 5.000000E-1
Scans to average: 5
Electric dark correction enabled: true
Nonlinearity correction enabled: false
Boxcar width: 0
XAxis mode: Wavelengths
Number of Pixels in Spectrum: 3648
>>>>>Begin Spectral Data<<<<<
179.588	-0
179.809	-0
180.03	-0
180.251	-0
180.473	-0
180.694	0
180.915	0
181.136	-0
181.357	0
181.578	-0
181.799	-0
182.02	-0
182.241	0
182.462	-0
182.683	0
182.904	-0
183.125	-0
183.346	0
183.567	0
183.788	-0
184.009	-0
184.23	0
184.451	0
184.672	-0
184.892	-0
185.113	0
185.334	0
185.555	-0
185.776	-0
185.996	0
186.217	0
186.438	0
186.659	-0
186.879	-0
187.1	-0
187.321	-0
187.541	-0
187.762	0
187.983	0
188.203	-0
188.424	-0
188.644	-0
188.865	-0
189.086	-0
189.306	-0
189.527	-0
189.747	-0
189.968	-0
190.188	0
190.409	0
190.629	0
190.849	-0
191.07	-0
191.29	0
191.511	0
191.731	-0
191.951	-0
192.172	-0
192.392	0
192.612	-0
192.833	-0
193.053	-0
193.273	0
193.493	-0
193.714	-0
193.934	0
194.154	0
194.374	0
194.594	-0
194.815	-0
195.035	0
195.255	-0
195.475	-0
195.695	-0
195.915	0
196.135	-0
196.355	0
196.575	0
196.795	0
197.015	-0
197.235	-0
197.455	-0
197.675	0
197.895	-0
198.115	-0
198.335	-0
198.555	-0
198.775	0
198.995	0
199.214	0
199.434	0
199.654	-0
199.874	-0
200.094	0.08
200.313	-0.22
200.533	-0.38
200.753	-0.57
200.973	0.59
201.192	0.55
201.412	-0.58
201.632	0.12
201.851	0.44
202.071	-0.45
202.291	-0.38
202.51	-0.96
202.73	0.55
202.95	0.04
203.169	-0.31
203.389	-0.26
203.608	0.11
203.828	-0.68
204.047	-0.17
204.267	0.39
204.486	0.5
204.706	0.18
204.925	0.26
205.145	-0.24
205.364	-0.02
205.583	0.4
205.803	-0.28
206.022	-0.26
206.242	-0.16
206.461	-0.6
206.68	-0.21
206.9	-0.31
207.119	0.42
207.338	0.25
207.557	-0.48
207.777	-0.21
207.996	0.13
208.215	0.36
208.434	-0.13
208.654	-0.54
208.873	-0.09
209.092	0.38
209.311	-0.18
209.53	-0.02
209.749	-0.38
209.968	-0.4
210.187	-0.2
210.407	-0.5
210.626	-0.26
210.845	0.19
211.064	-0.06
211.283	-0.4
211.502	0.13
211.721	0.12
211.94	-0.08
212.159	0.26
212.377	0.03
212.596	0.32
212.815	-0.11
213.034	-0.02
213.253	0.18
213.472	0.19
213.691	-0.19
213.91	-0.33
214.128	-0.31
214.347	0.21
214.566	-0.45
214.785	-0.36
215.003	0.23
215.222	-0.02
215.441	0.14
215.66	-0.31
215.878	-0.09
216.097	0.05
216.316	-0.46
216.534	-0.13
216.753	-0.01
216.972	-0.05
217.19	-0.03
217.409	-0.28
217.627	-0.16
217.846	-0.21
218.064	-0.08
218.283	-0.07
218.501	0.43
218.72	0.27
218.938	-0.27
219.157	-0.11
219.375	0.21
219.594	0.14
219.812	-0.12
220.031	-0.17
220.249	0.39
220.467	0.21
220.686	-0.01
220.904	-0.24
221.122	-0.1
221.341	0.38
221.559	-0.04
221.777	-0.21
221.995	0.02
222.214	0.16
222.432	-0.07
222.65	0.17
222.868	-0.02
223.086	-0.07
223.305	0.13
223.523	-0.11
223.741	0.06
223.959	-0.2
224.177	-0.26
224.395	-0.1
224.613	0.07
224.831	0.03
225.049	-0.08
225.267	-0.05
225.485	0.02
225.703	-0.17
225.921	0.03
226.139	-0.06
226.357	0
226.575	0.07
226.793	-0.1
227.011	0.55
227.229	0.05
227.447	0.11
227.665	-0.02
227.883	-0.24
228.1	0.02
228.318	-0.05
228.536	-0.27
228.754	-0.11
228.972	-0.02
229.189	0.11
229.407	-0.12
229.625	-0.15
229.843	0.16
230.06	0.1
230.278	-0.11
230.496	-0.06
230.713	-0.03
230.931	0.1
231.149	-0.01
231.366	-0.11
231.584	0.01
231.801	0.23
232.019	-0.14
232.236	-0.21
232.454	-0.13
232.671	-0.03
232.889	0.03
233.106	-0.08
233.324	-0.05
233.541	-0.07
233.759	-0.04
233.976	-0.19
234.194	-0.05
234.411	0
234.628	-0.22
234.846	-0
235.063	-0.09
235.28	-0
235.498	-0.08
235.715	-0.07
235.932	0.04
236.149	0.03
236.367	-0.1
236.584	0.01
236.801	-0.06
237.018	0.08
237.236	0.01
237.453	-0.18
237.67	0.04
237.887	-0.08
238.104	-0.03
238.321	-0.09
238.538	-0.05
238.755	0.13
238.973	-0.13
239.19	-0.09
239.407	-0.02
239.624	-0.01
239.841	-0.23
240.058	-0.09
240.275	-0.04
240.492	-0.11
240.709	0.02
240.925	-0.06
241.142	-0.05
241.359	-0.12
241.576	-0.05
241.793	-0.06
242.01	0.02
242.227	0.07
242.444	-0.05
242.66	-0.04
242.877	0.01
243.094	-0.02
243.311	-0.07
243.527	-0.07
243.744	0.06
243.961	0.05
244.178	-0.08
244.394	-0
244.611	0.11
244.828	0.09
245.044	-0.04
245.261	-0.06
245.477	0.04
245.694	0.09
245.911	-0.04
246.127	0.07
246.344	0.13
246.56	0.04
246.777	-0.05
246.993	-0.04
247.21	0.08
247.426	0.08
247.643	-0.11
247.859	-0.12
248.076	-0.03
248.292	0.16
248.508	-0.01
248.725	-0.02
248.941	0.02
249.157	0.04
249.374	-0.12
249.59	-0.05
249.806	0.03
250.023	0.13
250.239	-0.15
250.455	-0.13
250.671	-0.02
250.888	-0.02
251.104	0.07
251.32	-0.05
251.536	-0.05
251.752	-0.03
251.969	0.02
252.185	-0.03
252.401	0.18
252.617	0.01
252.833	-0.03
253.049	-0.02
253.265	-0.03
253.481	0.01
253.697	-0.06
253.913	-0.1
254.129	-0.02
254.345	0.04
254.561	-0.09
254.777	0.05
254.993	0.01
255.209	0.1
255.425	-0.1
255.641	-0.09
255.857	0.04
256.073	-0.01
256.288	-0.04
256.504	-0.06
256.72	-0.04
256.936	0.04
257.152	-0
257.367	-0.04
257.583	0.02
257.799	-0.01
258.015	-0.07
258.23	-0.03
258.446	0.04
258.662	-0.02
258.877	-0.06
259.093	-0.08
259.309	0.03
259.524	0.04
259.74	-0.05
259.955	-0.08
260.171	0
260.387	0.01
260.602	0.11
260.818	-0
261.033	-0.07
261.249	-0.01
261.464	-0.05
261.68	-0.11
261.895	-0.07
262.11	0.05
262.326	-0.07
262.541	-0.1
262.757	0.07
262.972	0
263.187	0.07
263.403	-0.02
263.618	0.01
263.833	-0.03
264.049	-0.12
264.264	0.03
264.479	-0.01
264.694	0.11
264.91	-0.09
265.125	-0.08
265.34	0.06
265.555	0.13
265.77	-0.01
265.986	-0.06
266.201	0.07
266.416	0.06
266.631	-0.01
266.846	-0
267.061	0.01
267.276	0.01
267.491	-0.15
267.706	0.06
267.921	0.08
268.136	-0
268.351	0.03
268.566	-0.1
268.781	0.04
268.996	0.08
269.211	-0.01
269.426	-0.08
269.641	-0.05
269.856	0.06
270.071	-0.05
270.285	-0.07
270.5	0.05
270.715	0.03
270.93	0.02
271.145	0.01
271.359	-0.01
271.574	-0.09
271.789	-0.03
272.004	-0.08
272.218	-0.04
272.433	0.01
272.648	-0.03
272.862	0.07
273.077	-0.04
273.292	-0.02
273.506	-0.01
273.721	-0.06
273.936	-0.03
274.15	0.03
274.365	0.03
274.579	0.01
274.794	0.02
275.008	0.07
275.223	-0.1
275.437	-0.01
275.652	0.07
275.866	0.02
276.081	-0.04
276.295	0.13
276.509	-0.05
276.724	-0.03
276.938	0
277.153	0.01
277.367	0.08
277.581	-0.01
277.796	-0.03
278.01	-0.02
278.224	0.05
278.438	0.11
278.653	-0.09
278.867	-0.04
279.081	-0.19
279.295	-0.06
279.51	0.04
279.724	-0.11
279.938	0.08
280.152	-0.03
280.366	-0.07
280.58	-0.03
280.794	0.05
281.008	-0.04
281.222	0.06
281.437	0.06
281.651	-0.02
281.865	0.08
282.079	-0.01
282.293	-0.06
282.507	-0.03
282.721	-0.01
282.935	0.02
283.148	-0.07
283.362	-0.07
283.576	-0.11
283.79	0.01
284.004	-0.05
284.218	0.05
284.432	0.03
284.646	0.02
284.859	-0.05
285.073	0.02
285.287	0.02
285.501	-0.04
285.714	-0.01
285.928	0
286.142	-0
286.356	-0.07
286.569	-0.02
286.783	0.03
286.997	0.03
287.21	-0.03
287.424	0.01
287.637	-0.03
287.851	0.02
288.065	-0.02
288.278	0.03
288.492	-0.04
288.705	-0.04
288.919	0.05
289.132	-0.06
289.346	0.1
289.559	-0.07
289.773	-0.07
289.986	-0.05
290.2	0.01
290.413	0.07
290.626	-0.04
290.84	0.03
291.053	-0.02
291.267	0.03
291.48	-0
291.693	0.04
291.906	-0.02
292.12	-0.03
292.333	-0.07
292.546	0.01
292.76	0.09
292.973	0.03
293.186	0.01
293.399	-0.04
293.612	0.03
293.826	-0.03
294.039	0.03
294.252	-0.01
294.465	0.05
294.678	0.04
294.891	0.04
295.104	-0.04
295.317	0.02
295.53	-0.02
295.743	-0.04
295.956	0.01
296.169	0.05
296.382	0.02
296.595	0.02
296.808	-0.02
297.021	0.03
297.234	0.02
297.447	0.02
297.66	0.01
297.873	0.06
298.086	0.06
298.299	-0.01
298.511	-0.05
298.724	-0.02
298.937	-0.02
299.15	-0.03
299.363	-0.01
299.575	0.03
299.788	0
300.001	-0
300.213	0.01
300.426	-0.01
300.639	-0.01
300.852	-0.01
301.064	0.03
301.277	0.05
301.489	0.03
301.702	0.06
301.915	0.03
302.127	-0
302.34	0.02
302.552	0.03
302.765	-0.05
302.977	0.03
303.19	-0.05
303.402	-0
303.615	-0.01
303.827	-0.06
304.04	-0.01
304.252	0.01
304.464	0.01
304.677	0.06
304.889	0.04
305.102	-0.05
305.314	-0.01
305.526	0.05
305.739	-0.02
305.951	-0.03
306.163	-0.05
306.375	0.04
306.588	-0.02
306.8	-0.06
307.012	-0.08
307.224	0.04
307.436	0.05
307.649	-0.06
307.861	-0
308.073	-0.01
308.285	0.02
308.497	-0
308.709	0
308.921	0.03
309.133	0.05
309.346	-0.03
309.558	-0.01
309.77	0.06
309.982	0.05
310.194	0.04
310.406	-0.02
310.617	0.11
310.829	0.04
311.041	0.03
311.253	-0.05
311.465	-0
311.677	-0
311.889	-0.04
312.101	-0.03
312.313	0.05
312.524	0.01
312.736	-0.07
312.948	-0.05
313.16	0.07
313.372	0.03
313.583	-0
313.795	-0.03
314.007	-0.03
314.218	0.01
314.43	-0.02
314.642	-0.06
314.853	-0.04
315.065	0.02
315.277	-0.02
315.488	0.02
315.7	0
315.912	-0.01
316.123	-0.01
316.335	-0.05
316.546	0.1
316.758	0.01
316.969	-0.03
317.181	0.03
317.392	-0.01
317.604	0.04
317.815	-0.04
318.026	-0
318.238	-0.05
318.449	0.04
318.661	-0.08
318.872	-0.04
319.083	-0.05
319.295	0.02
319.506	-0.04
319.717	0.02
319.929	-0.02
320.14	-0.05
320.351	0.02
320.562	-0.02
320.774	0
320.985	0.02
321.196	-0.05
321.407	-0.06
321.618	0.01
321.829	0.05
322.041	-0
322.252	0.01
322.463	-0.01
322.674	0.04
322.885	-0.04
323.096	-0.01
323.307	-0.03
323.518	0.01
323.729	-0.02
323.94	-0.05
324.151	-0.03
324.362	-0.01
324.573	0.04
324.784	-0.05
324.995	0.03
325.206	0.04
325.417	0.02
325.628	0
325.838	0.01
326.049	0.01
326.26	0.02
326.471	-0.03
326.682	0.02
326.892	-0.04
327.103	-0.04
327.314	-0.04
327.525	0.07
327.735	-0.06
327.946	0.02
328.157	-0.06
328.368	0.05
328.578	-0
328.789	0.01
328.999	0
329.21	-0.03
329.421	0.02
329.631	-0.07
329.842	-0.02
330.052	0.03
330.263	-0.03
330.473	0.02
330.684	-0.01
330.894	-0.01
331.105	-0
331.315	-0.02
331.526	-0.08
331.736	0.08
331.947	0.02
332.157	-0
332.367	0.01
332.578	0.06
332.788	0.05
332.999	0.03
333.209	-0.01
333.419	-0.04
333.629	-0.03
333.84	0.02
334.05	-0.02
334.26	0.03
334.47	0
334.681	0.05
334.891	0
335.101	0.05
335.311	0.05
335.521	-0.02
335.732	-0.05
335.942	0.05
336.152	0.04
336.362	0
336.572	0.03
336.782	0.04
336.992	-0.04
337.202	-0.04
337.412	-0.03
337.622	0.02
337.832	0.01
338.042	-0.01
338.252	-0.06
338.462	0.02
338.672	0.02
338.882	0.02
339.092	-0.01
339.302	0.07
339.511	-0.01
339.721	-0.05
339.931	-0.01
340.141	0.07
340.351	0.03
340.561	0.03
340.77	0.01
340.98	0
341.19	0.04
341.4	-0.03
341.609	-0.04
341.819	-0.03
342.029	-0.04
342.238	-0
342.448	-0.02
342.658	0.05
342.867	0.04
343.077	0.02
343.286	0.01
343.496	0.03
343.706	0.04
343.915	-0.02
344.125	-0.02
344.334	0.02
344.544	-0.02
344.753	-0.04
344.963	-0.04
345.172	-0.06
345.381	-0.03
345.591	-0.04
345.8	-0
346.01	0.06
346.219	0.03
346.428	-0.15
346.638	-0.01
346.847	-0.02
347.056	0.06
347.266	0.02
347.475	0.01
347.684	-0.03
347.893	0.05
348.103	0.04
348.312	-0.01
348.521	-0.02
348.73	-0.02
348.94	-0.02
349.149	-0.04
349.358	-0.03
349.567	-0.04
349.776	-0.04
349.985	-0.02
350.194	0.04
350.403	0.07
350.612	-0.07
350.821	0.01
351.03	-0.02
351.239	-0.05
351.448	-0.01
351.657	-0.02
351.866	0.04
352.075	0.02
352.284	-0.01
352.493	-0.02
352.702	0.04
352.911	0.03
353.12	0.01
353.329	-0
353.538	0.02
353.746	0.01
353.955	-0.07
354.164	-0.01
354.373	0
354.582	-0.01
354.79	-0.01
354.999	0.04
355.208	-0
355.416	0.03
355.625	-0.04
355.834	-0.03
356.042	-0.02
356.251	-0.04
356.46	-0.05
356.668	0.01
356.877	0.05
357.085	0.03
357.294	-0.09
357.503	0.03
357.711	0
357.92	0.08
358.128	-0.01
358.337	-0.04
358.545	-0.02
358.754	-0.05
358.962	-0.04
359.17	-0.03
359.379	0.01
359.587	0.05
359.796	-0.01
360.004	0.02
360.212	0.03
360.421	0.01
360.629	-0.01
360.837	0
361.046	0.04
361.254	0.11
361.462	0.01
361.67	-0.01
361.879	0
362.087	0.08
362.295	-0.01
362.503	-0.03
362.711	-0.06
362.92	-0.04
363.128	-0.03
363.336	-0.07
363.544	-0.07
363.752	-0.03
363.96	0
364.168	-0.06
364.376	0.01
364.584	0.01
364.792	0.02
365	-0
365.208	0.01
365.416	0.01
365.624	0.02
365.832	-0.01
366.04	0.01
366.248	0.01
366.456	0.04
366.664	0.01
366.872	0
367.079	0.01
367.287	-0.02
367.495	0.01
367.703	0
367.911	-0.01
368.118	-0
368.326	-0.01
368.534	-0.06
368.742	0.06
368.949	-0.06
369.157	-0.02
369.365	0.02
369.572	-0.03
369.78	-0.07
369.988	0.03
370.195	-0
370.403	-0
370.61	-0.02
370.818	0
371.026	0.05
371.233	-0.04
371.441	0.01
371.648	-0.03
371.856	0.02
372.063	-0.01
372.271	-0.03
372.478	-0.02
372.685	-0.04
372.893	0.06
373.1	-0.01
373.308	-0.02
373.515	0.06
373.722	0
373.93	-0.03
374.137	0.02
374.344	0.04
374.552	0.04
374.759	0.03
374.966	0.06
375.173	-0.02
375.381	0
375.588	0.01
375.795	-0.05
376.002	-0.01
376.209	-0.02
376.417	-0.03
376.624	0.01
376.831	0.01
377.038	-0.01
377.245	-0.08
377.452	-0
377.659	0.01
377.866	-0.02
378.073	-0
378.28	-0.04
378.487	0.06
378.694	0.01
378.901	-0
379.108	0.02
379.315	0.04
379.522	0.07
379.729	0.02
379.936	-0.01
380.143	-0
380.35	0.01
380.557	-0
380.763	-0
380.97	-0.01
381.177	0.03
381.384	0.04
381.591	-0.04
381.797	0
382.004	0.03
382.211	0
382.418	-0.04
382.624	0.03
382.831	0.03
383.038	0
383.244	-0.02
383.451	-0.06
383.658	-0.01
383.864	-0.02
384.071	-0.04
384.277	0.07
384.484	-0.06
384.69	0.04
384.897	-0.03
385.103	-0.01
385.31	-0.04
385.516	-0.04
385.723	-0.02
385.929	0.01
386.136	-0.04
386.342	0.04
386.549	0.01
386.755	0.05
386.961	0.06
387.168	-0.01
387.374	-0.01
387.58	0.04
387.787	-0.02
387.993	0.01
388.199	-0.02
388.406	-0.03
388.612	0.04
388.818	-0.03
389.024	0.01
389.231	0.04
389.437	0.04
389.643	0.01
389.849	0.03
390.055	-0.05
390.261	-0.02
390.467	0.02
390.674	-0.05
390.88	-0.01
391.086	0
391.292	-0.05
391.498	0.05
391.704	0.02
391.91	-0.01
392.116	-0.05
392.322	-0.1
392.528	-0.01
392.734	-0.02
392.94	-0.01
393.146	-0.03
393.352	-0.01
393.557	-0.04
393.763	-0.02
393.969	0.02
394.175	-0.01
394.381	-0.01
394.587	-0.03
394.792	-0.02
394.998	-0.01
395.204	0.01
395.41	-0.05
395.615	0.01
395.821	0.01
396.027	0.04
396.233	-0.07
396.438	0.01
396.644	0.05
396.85	0.02
397.055	-0.04
397.261	0.01
397.466	-0.06
397.672	-0
397.878	0.02
398.083	-0.03
398.289	-0.02
398.494	0.05
398.7	0.07
398.905	-0.1
399.111	0.04
399.316	-0.06
399.522	-0.03
399.727	-0.02
399.932	-0.03
400.138	-0.02
400.343	0.04
400.549	-0.01
400.754	-0.01
400.959	-0.05
401.165	-0.01
401.37	0
401.575	0.06
401.78	0.01
401.986	-0.03
402.191	-0.05
402.396	-0.04
402.601	-0.03
402.807	-0.01
403.012	0.01
403.217	-0.03
403.422	-0.01
403.627	-0.04
403.832	-0.05
404.037	0.01
404.243	0.02
404.448	-0.07
404.653	-0.03
404.858	0.03
405.063	0.04
405.268	-0.07
405.473	-0.06
405.678	-0.05
405.883	0.15
406.088	0.04
406.293	-0.07
406.498	-0.04
406.703	0.04
406.907	-0.07
407.112	-0.09
407.317	0.04
407.522	-0.03
407.727	-0.07
407.932	0.01
408.136	0.08
408.341	-0.03
408.546	0.02
408.751	0.03
408.956	-0.04
409.16	0.04
409.365	0.03
409.57	0.01
409.774	-0.03
409.979	0.01
410.184	-0.01
410.388	-0.03
410.593	0.02
410.798	-0.01
411.002	-0.07
411.207	-0.02
411.411	0.06
411.616	-0.03
411.82	-0.03
412.025	0.05
412.229	-0.04
412.434	0.07
412.638	-0
412.843	-0.02
413.047	-0.01
413.252	-0.04
413.456	-0.05
413.66	0
413.865	-0.03
414.069	0.04
414.273	-0.01
414.478	-0.04
414.682	-0.02
414.886	-0.02
415.091	-0.06
415.295	-0.11
415.499	0.03
415.703	-0.04
415.908	-0.01
416.112	-0.06
416.316	0.01
416.52	-0.02
416.724	-0.07
416.929	-0.01
417.133	0.07
417.337	-0.05
417.541	-0.04
417.745	-0.01
417.949	0.01
418.153	0.03
418.357	-0.02
418.561	0.05
418.765	-0.03
418.969	0.1
419.173	0.06
419.377	-0.05
419.581	0.03
419.785	-0.03
419.989	-0.02
420.193	-0.01
420.397	-0.05
420.601	0.02
420.804	0.03
421.008	0.01
421.212	-0.01
421.416	-0.02
421.62	-0.03
421.823	0.01
422.027	0.06
422.231	0.01
422.435	-0.04
422.638	-0.03
422.842	-0.04
423.046	-0.05
423.249	0.01
423.453	0.07
423.657	0.01
423.86	-0.02
424.064	-0.02
424.268	0.06
424.471	-0.03
424.675	0.1
424.878	0.04
425.082	-0.05
425.285	0.07
425.489	0.03
425.692	0.01
425.896	-0.04
426.099	0.03
426.303	-0.01
426.506	-0.08
426.71	0
426.913	-0
427.116	0.05
427.32	0
427.523	0.01
427.726	0.07
427.93	-0.06
428.133	0.01
428.336	-0.05
428.54	-0.04
428.743	-0.03
428.946	0.04
429.149	-0.07
429.353	-0.02
429.556	-0.02
429.759	0
429.962	-0.02
430.165	0.02
430.368	-0.01
430.571	-0.06
430.775	0.02
430.978	-0.04
431.181	-0.01
431.384	0
431.587	-0.04
431.79	-0.02
431.993	0.02
432.196	-0.01
432.399	0.02
432.602	0.08
432.805	-0.02
433.008	0.01
433.211	-0.1
433.414	0
433.616	-0.02
433.819	-0.03
434.022	-0.11
434.225	0.04
434.428	0.01
434.631	0.12
434.833	0
435.036	0.01
435.239	0.05
435.442	0.01
435.645	-0.04
435.847	0
436.05	0.04
436.253	-0
436.455	-0.03
436.658	-0.04
436.861	0.07
437.063	-0.01
437.266	-0.03
437.468	0.05
437.671	0.09
437.874	0.01
438.076	-0.1
438.279	-0.09
438.481	-0.02
438.684	-0.08
438.886	-0.01
439.089	-0.07
439.291	-0.01
439.494	0.03
439.696	-0.03
439.899	-0.05
440.101	-0.03
440.303	-0.09
440.506	0.05
440.708	-0
440.91	-0
441.113	-0.04
441.315	0
441.517	-0.06
441.72	0.06
441.922	-0.09
442.124	-0.05
442.326	0
442.529	0.06
442.731	-0.03
442.933	0.06
443.135	-0.01
443.337	-0.06
443.539	-0.03
443.742	-0.05
443.944	-0.02
444.146	-0.01
444.348	-0.03
444.55	-0.04
444.752	-0.04
444.954	-0.06
445.156	0.02
445.358	-0.03
445.56	0
445.762	-0.05
445.964	-0.05
446.166	-0.04
446.368	-0.06
446.57	0.03
446.772	0
446.974	0
447.175	0.04
447.377	-0.03
447.579	-0.05
447.781	-0.09
447.983	0.03
448.184	0
448.386	0.03
448.588	-0.03
448.79	0.04
448.991	-0.06
449.193	0
449.395	0.01
449.597	0.04
449.798	0
450	0
450.202	-0.01
450.403	-0.04
450.605	0.01
450.806	-0.03
451.008	-0.13
451.21	-0.01
451.411	0.02
451.613	0
451.814	-0.03
452.016	0
452.217	-0
452.419	0.08
452.62	-0.05
452.821	0.06
453.023	0.01
453.224	0.03
453.426	-0.05
453.627	-0.01
453.828	0.02
454.03	0
454.231	0
454.432	-0.08
454.634	0.1
454.835	-0.04
455.036	-0.08
455.238	0.02
455.439	0.07
455.64	-0.1
455.841	-0.04
456.042	0.07
456.244	0.07
456.445	-0.05
456.646	-0.09
456.847	0.01
457.048	0.01
457.249	0.03
457.45	0.16
457.651	-0.03
457.852	-0
458.054	0.02
458.255	-0.04
458.456	0.02
458.657	-0
458.858	-0.04
459.058	-0.02
459.259	0.07
459.46	0
459.661	-0.04
459.862	0.07
460.063	-0.01
460.264	0.06
460.465	-0.04
460.666	0.1
460.866	-0
461.067	-0.03
461.268	-0.03
461.469	-0.02
461.67	-0.04
461.87	-0.01
462.071	-0.03
462.272	-0.04
462.473	-0.02
462.673	0.02
462.874	-0.06
463.075	-0.02
463.275	-0.06
463.476	-0.02
463.676	0.01
463.877	0.01
464.078	-0.08
464.278	0.04
464.479	-0.04
464.679	0.03
464.88	-0.01
465.08	0.03
465.281	-0.04
465.481	-0.03
465.682	-0.01
465.882	-0.04
466.083	-0.06
466.283	-0.01
466.483	0.02
466.684	-0.06
466.884	-0.04
467.085	-0.02
467.285	0.03
467.485	-0.05
467.686	-0.03
467.886	-0.07
468.086	0.03
468.286	0.02
468.487	0.02
468.687	-0.06
468.887	-0.01
469.087	0.03
469.287	-0.03
469.488	-0.04
469.688	0.02
469.888	0.02
470.088	0.03
470.288	0.06
470.488	0.05
470.688	-0.08
470.888	0.01
471.088	-0.05
471.288	0.06
471.488	0.03
471.688	0.01
471.888	-0.04
472.088	0.05
472.288	0.02
472.488	-0.03
472.688	-0
472.888	0.01
473.088	-0.03
473.288	0.01
473.488	0
473.688	0.08
473.887	-0.01
474.087	-0.04
474.287	0.01
474.487	-0.05
474.687	0.02
474.886	-0.06
475.086	0.01
475.286	0.03
475.486	-0.04
475.685	-0.01
475.885	-0.01
476.085	-0.03
476.284	0.04
476.484	-0.04
476.684	0
476.883	0.03
477.083	0.03
477.282	-0.03
477.482	0.05
477.681	0.06
477.881	-0
478.08	-0.06
478.28	-0.02
478.479	0.05
478.679	0.06
478.878	-0.04
479.078	-0.01
479.277	-0.01
479.477	-0.01
479.676	0.03
479.875	-0.03
480.075	-0.06
480.274	0.01
480.473	0.02
480.673	-0.03
480.872	0.01
481.071	-0
481.271	0.01
481.47	-0.04
481.669	-0
481.868	-0.02
482.067	-0.03
482.267	-0.03
482.466	-0.04
482.665	-0.04
482.864	-0.05
483.063	-0
483.262	0.04
483.461	0.04
483.661	0
483.86	-0.01
484.059	-0
484.258	-0.01
484.457	0
484.656	0.01
484.855	0.03
485.054	-0.05
485.253	-0.03
485.452	-0.03
485.651	-0.02
485.849	0.02
486.048	-0.02
486.247	-0.05
486.446	-0.02
486.645	-0.03
486.844	-0.03
487.043	-0.01
487.241	-0
487.44	-0.03
487.639	-0.01
487.838	0.01
488.037	0
488.235	0.05
488.434	-0.01
488.633	-0.01
488.831	0.02
489.03	0
489.229	-0
489.427	-0.01
489.626	0.05
489.825	0.04
490.023	0
490.222	-0.03
490.42	-0
490.619	0
490.817	0.01
491.016	-0.03
491.214	0.01
491.413	-0.02
491.611	-0.02
491.81	-0.01
492.008	0.02
492.207	0.02
492.405	0.01
492.604	-0.05
492.802	-0.02
493	0
493.199	-0.03
493.397	-0.01
493.595	-0
493.794	-0.02
493.992	0.04
494.19	-0.05
494.388	0.02
494.587	-0.01
494.785	0.02
494.983	-0.03
495.181	0.01
495.379	-0.02
495.578	-0.02
495.776	0.01
495.974	0.03
496.172	-0.01
496.37	-0.03
496.568	-0.03
496.766	-0.04
496.964	0.03
497.162	0.01
497.36	-0.02
497.558	0.01
497.756	0.01
497.954	-0.01
498.152	-0.02
498.35	0
498.548	-0
498.746	-0.02
498.944	-0.04
499.142	-0.02
499.34	-0.04
499.538	0
499.736	-0.05
499.933	0.02
500.131	0.03
500.329	0
500.527	0.01
500.725	0.01
500.922	0.02
501.12	-0
501.318	-0.01
501.516	-0.02
501.713	0
501.911	-0.01
502.109	-0.05
502.306	0.01
502.504	-0.01
502.701	-0.03
502.899	-0.01
503.097	0.01
503.294	0.01
503.492	-0.01
503.689	0.01
503.887	0.02
504.084	0.03
504.282	-0.01
504.479	-0.02
504.677	0.01
504.874	-0.05
505.072	-0.02
505.269	-0.01
505.466	0.01
505.664	0
505.861	-0.04
506.059	-0.06
506.256	0.02
506.453	-0.02
506.651	0.02
506.848	0.03
507.045	0.02
507.242	-0.01
507.44	-0.01
507.637	-0.01
507.834	-0.02
508.031	0.02
508.229	-0
508.426	0.01
508.623	0
508.82	-0.01
509.017	-0.02
509.214	-0.01
509.411	-0.01
509.608	-0.03
509.805	-0.02
510.003	-0.02
510.2	-0.04
510.397	0
510.594	-0.04
510.791	-0.02
510.988	-0.02
511.184	0.02
511.381	0
511.578	-0.02
511.775	0.01
511.972	-0.02
512.169	-0.01
512.366	-0.02
512.563	0.01
512.76	-0.01
512.956	0.02
513.153	-0.02
513.35	0
513.547	-0.02
513.744	-0.04
513.94	-0.03
514.137	-0.01
514.334	0
514.53	0.01
514.727	0
514.924	0.05
515.12	-0.01
515.317	-0.04
515.514	-0.03
515.71	-0.02
515.907	-0
516.103	-0
516.3	-0.01
516.497	0.02
516.693	0.03
516.89	-0
517.086	-0.03
517.283	0.04
517.479	-0.01
517.676	-0.02
517.872	-0.02
518.068	-0.02
518.265	-0.02
518.461	-0.02
518.658	-0.05
518.854	0.02
519.05	-0.01
519.247	-0.02
519.443	0
519.639	0.01
519.836	0.01
520.032	0.02
520.228	-0
520.424	0.04
520.621	0.01
520.817	-0.01
521.013	0.01
521.209	0.01
521.405	0.04
521.601	-0.01
521.798	-0.02
521.994	0.03
522.19	-0.02
522.386	-0.04
522.582	-0.02
522.778	-0.01
522.974	-0.01
523.17	-0
523.366	0.01
523.562	0.02
523.758	-0.03
523.954	-0.03
524.15	-0.01
524.346	0.02
524.542	-0.01
524.738	-0.03
524.934	-0.01
525.129	-0.02
525.325	-0.01
525.521	-0
525.717	0.01
525.913	-0.01
526.109	-0.01
526.304	-0
526.5	-0.01
526.696	0.05
526.892	0.01
527.087	-0.01
527.283	-0.01
527.479	0.02
527.674	-0.03
527.87	0.01
528.066	-0.01
528.261	0.03
528.457	-0.03
528.653	-0.02
528.848	-0.02
529.044	-0
529.239	-0
529.435	0.03
529.63	-0.01
529.826	0.04
530.021	-0.01
530.217	-0.01
530.412	-0.02
530.608	-0.01
530.803	-0.01
530.999	-0.01
531.194	-0.05
531.389	-0
531.585	-0.04
531.78	-0.03
531.975	0
532.171	-0.01
532.366	-0.02
532.561	0
532.757	-0.01
532.952	-0.02
533.147	0.02
533.342	-0.01
533.538	0
533.733	0.03
533.928	0.01
534.123	-0.02
534.318	-0.03
534.513	-0
534.709	-0.01
534.904	-0.02
535.099	-0.02
535.294	-0.01
535.489	-0.01
535.684	-0.01
535.879	-0.04
536.074	-0.01
536.269	-0.02
536.464	0.02
536.659	-0.01
536.854	-0
537.049	0
537.244	-0.01
537.439	-0
537.634	0.02
537.828	-0
538.023	-0.01
538.218	-0.02
538.413	0
538.608	-0.04
538.803	0.01
538.997	-0.02
539.192	0.03
539.387	0.02
539.582	-0.01
539.776	0
539.971	-0.01
540.166	0.02
540.36	-0.03
540.555	0.01
540.75	-0.02
540.944	0.01
541.139	-0.04
541.334	-0.02
541.528	0.02
541.723	0.02
541.917	-0.01
542.112	-0.03
542.306	-0.02
542.501	-0.01
542.695	0.01
542.89	-0.02
543.084	0.02
543.279	-0
543.473	-0.02
543.668	-0
543.862	-0.01
544.056	0.03
544.251	-0.01
544.445	-0
544.64	0
544.834	-0.02
545.028	0
545.222	0.02
545.417	0.01
545.611	-0.01
545.805	-0
546	-0.01
546.194	0.01
546.388	-0.02
546.582	0
546.776	0
546.97	-0
547.165	0.01
547.359	0.02
547.553	-0.04
547.747	-0.02
547.941	-0.01
548.135	-0
548.329	0.01
548.523	0.03
548.717	0
548.911	-0.02
549.105	0
549.299	-0
549.493	0.03
549.687	-0
549.881	0.02
550.075	0.02
550.269	-0.03
550.463	0.01
550.657	-0
550.85	-0.01
551.044	-0.02
551.238	-0
551.432	-0.01
551.626	-0.03
551.82	0
552.013	-0
552.207	-0
552.401	-0.01
552.594	0.01
552.788	-0.02
552.982	-0.02
553.176	-0.02
553.369	0
553.563	0.01
553.756	-0.04
553.95	-0.02
554.144	-0.01
554.337	0.01
554.531	0
554.724	-0.01
554.918	-0
555.111	0.02
555.305	-0.01
555.498	0.05
555.692	0.01
555.885	-0.02
556.079	-0.01
556.272	-0.02
556.466	-0.01
556.659	0.02
556.852	-0.03
557.046	-0
557.239	0.02
557.432	-0.01
557.626	-0.02
557.819	0.01
558.012	0
558.206	0.03
558.399	-0.01
558.592	0
558.785	-0.03
558.979	0.02
559.172	0.02
559.365	0.02
559.558	-0.01
559.751	-0.01
559.944	0
560.138	-0.01
560.331	-0.02
560.524	-0.02
560.717	-0
560.91	-0.01
561.103	0.03
561.296	0
561.489	-0
561.682	-0.01
561.875	0.03
562.068	0.03
562.261	-0
562.454	0.03
562.647	0.01
562.84	0.02
563.032	-0.01
563.225	0
563.418	-0.01
563.611	-0.01
563.804	0.01
563.997	-0.02
564.19	-0.03
564.382	-0.05
564.575	-0.01
564.768	0.01
564.961	-0.01
565.153	-0.02
565.346	0.02
565.539	0.03
565.731	0.02
565.924	0.03
566.117	0.01
566.309	-0.01
566.502	0
566.695	0.02
566.887	0.01
567.08	-0.03
567.272	-0.02
567.465	0
567.657	0
567.85	0.02
568.042	0.02
568.235	0.03
568.427	0
568.62	0.01
568.812	0.02
569.005	-0
569.197	-0.03
569.389	-0
569.582	-0.01
569.774	0
569.966	-0.02
570.159	-0.01
570.351	0.01
570.543	-0.02
570.736	0.01
570.928	-0.04
571.12	0.01
571.312	-0.03
571.505	-0.03
571.697	0.01
571.889	-0.02
572.081	-0.02
572.273	-0.05
572.465	0.01
572.658	-0.01
572.85	0.03
573.042	-0.01
573.234	0.01
573.426	0.01
573.618	-0.04
573.81	-0.02
574.002	0.01
574.194	0.04
574.386	-0.04
574.578	-0.07
574.77	-0.01
574.962	-0
575.154	-0.04
575.346	-0
575.538	0.01
575.729	-0.02
575.921	-0.03
576.113	-0
576.305	0.04
576.497	-0.02
576.689	-0
576.88	-0.02
577.072	0.03
577.264	-0.01
577.456	-0.02
577.647	-0.08
577.839	0.01
578.031	0.03
578.223	-0.03
578.414	-0.04
578.606	0.03
578.798	0.02
578.989	-0.01
579.181	0.01
579.372	0.01
579.564	-0.03
579.755	0.01
579.947	0.01
580.139	0.01
580.33	-0.04
580.522	-0.03
580.713	-0.06
580.905	-0
581.096	0.01
581.287	-0.02
581.479	-0
581.67	-0.01
581.862	-0
582.053	-0.02
582.244	-0.05
582.436	0
582.627	-0.02
582.818	-0.03
583.01	-0.04
583.201	0.03
583.392	0.01
583.583	0.02
583.775	-0.01
583.966	-0.01
584.157	-0.01
584.348	-0.01
584.54	-0.05
584.731	0.03
584.922	0.01
585.113	-0.02
585.304	0.01
585.495	0.03
585.686	0.03
585.877	0.03
586.068	0.02
586.259	0.01
586.45	-0.01
586.641	-0.01
586.832	-0.04
587.023	0
587.214	0
587.405	-0.01
587.596	-0.03
587.787	0.03
587.978	0.02
588.169	-0.04
588.36	-0.03
588.551	0.01
588.742	-0.02
588.932	0.02
589.123	-0
589.314	0.02
589.505	0.01
589.696	0.02
589.886	-0.02
590.077	-0.05
590.268	0.01
590.458	-0.04
590.649	-0.04
590.84	0.03
591.03	-0.02
591.221	-0.03
591.412	-0.03
591.602	0.02
591.793	0.04
591.984	-0.03
592.174	-0.01
592.365	0.05
592.555	-0.02
592.746	0.03
592.936	0.02
593.127	-0
593.317	0.04
593.508	-0.01
593.698	-0.02
593.889	-0
594.079	-0.01
594.269	-0.04
594.46	0.01
594.65	-0
594.84	-0
595.031	-0.04
595.221	-0.01
595.411	-0.06
595.602	0.01
595.792	0.01
595.982	-0.03
596.172	0.05
596.363	0.01
596.553	0.03
596.743	0.02
596.933	-0
597.123	0.02
597.314	-0.03
597.504	-0.03
597.694	0.03
597.884	-0.01
598.074	0.02
598.264	-0
598.454	-0.01
598.644	0.02
598.834	-0.01
599.024	-0.06
599.214	-0
599.404	0.03
599.594	0
599.784	-0.03
599.974	0.08
600.164	0.03
600.354	-0.01
600.544	-0.02
600.734	0.02
600.924	0.04
601.114	-0.01
601.303	-0.01
601.493	0.05
601.683	0.01
601.873	0.01
602.063	-0.01
602.252	0.02
602.442	-0.03
602.632	-0.02
602.821	-0.02
603.011	0.02
603.201	0.02
603.39	-0.01
603.58	0.01
603.77	0.02
603.959	0.06
604.149	0.01
604.339	0.01
604.528	0.03
604.718	0.06
604.907	0.02
605.097	0.01
605.286	-0.02
605.476	0.03
605.665	0.06
605.855	0
606.044	0.07
606.234	0.05
606.423	0.01
606.612	-0.01
606.802	0.04
606.991	0.03
607.181	0.05
607.37	0.01
607.559	0.01
607.749	-0.01
607.938	0.02
608.127	-0.01
608.316	0
608.506	0.05
608.695	0.02
608.884	0
609.073	0.02
609.263	0.04
609.452	0.07
609.641	0.04
609.83	0.02
610.019	0.04
610.208	0.02
610.397	0.03
610.586	0.05
610.775	0.04
610.965	0.06
611.154	0.02
611.343	0.05
611.532	0.05
611.721	-0.01
611.91	0.03
612.099	0.08
612.287	0.05
612.476	0.02
612.665	0.08
612.854	0.07
613.043	0.09
613.232	0.04
613.421	0.02
613.61	0.08
613.798	0.06
613.987	0.1
614.176	0.07
614.365	0.1
614.554	0.07
614.742	0.09
614.931	0.04
615.12	0.11
615.309	0.07
615.497	0.09
615.686	0.05
615.875	0.07
616.063	0.09
616.252	0.08
616.44	0.1
616.629	0.11
616.818	0.09
617.006	0.1
617.195	0.09
617.383	0.11
617.572	0.11
617.76	0.09
617.949	0.07
618.137	0.12
618.326	0.12
618.514	0.08
618.703	0.1
618.891	0.16
619.079	0.05
619.268	0.13
619.456	0.1
619.644	0.17
619.833	0.14
620.021	0.14
620.209	0.09
620.398	0.17
620.586	0.16
620.774	0.15
620.962	0.13
621.151	0.22
621.339	0.16
621.527	0.16
621.715	0.12
621.903	0.13
622.092	0.17
622.28	0.17
622.468	0.17
622.656	0.18
622.844	0.23
623.032	0.15
623.22	0.13
623.408	0.24
623.596	0.19
623.784	0.24
623.972	0.16
624.16	0.2
624.348	0.26
624.536	0.2
624.724	0.22
624.912	0.28
625.1	0.24
625.288	0.23
625.476	0.23
625.664	0.28
625.851	0.22
626.039	0.28
626.227	0.29
626.415	0.28
626.603	0.24
626.79	0.29
626.978	0.28
627.166	0.29
627.354	0.28
627.541	0.27
627.729	0.26
627.917	0.31
628.104	0.36
628.292	0.32
628.48	0.34
628.667	0.34
628.855	0.36
629.042	0.33
629.23	0.33
629.418	0.37
629.605	0.37
629.793	0.38
629.98	0.37
630.168	0.39
630.355	0.39
630.543	0.46
630.73	0.38
630.917	0.43
631.105	0.51
631.292	0.44
631.48	0.44
631.667	0.52
631.854	0.45
632.042	0.45
632.229	0.45
632.416	0.51
632.604	0.53
632.791	0.46
632.978	0.58
633.165	0.52
633.353	0.59
633.54	0.62
633.727	0.51
633.914	0.55
634.101	0.52
634.289	0.66
634.476	0.58
634.663	0.58
634.85	0.61
635.037	0.59
635.224	0.6
635.411	0.66
635.598	0.7
635.785	0.69
635.972	0.69
636.159	0.73
636.346	0.68
636.533	0.7
636.72	0.73
636.907	0.78
637.094	0.8
637.281	0.72
637.468	0.78
637.655	0.83
637.842	0.82
638.029	0.82
638.215	0.87
638.402	0.86
638.589	0.86
638.776	0.88
638.963	0.87
639.149	0.98
639.336	0.98
639.523	0.97
639.709	0.93
639.896	1
640.083	1.02
640.27	1.06
640.456	1.02
640.643	1.08
640.829	1.07
641.016	1.1
641.203	1.09
641.389	1.21
641.576	1.19
641.762	1.18
641.949	1.19
642.135	1.25
642.322	1.29
642.508	1.24
642.695	1.34
642.881	1.32
643.068	1.32
643.254	1.42
643.441	1.39
643.627	1.48
643.813	1.42
644	1.53
644.186	1.48
644.372	1.58
644.559	1.57
644.745	1.59
644.931	1.6
645.118	1.66
645.304	1.74
645.49	1.76
645.676	1.75
645.862	1.85
646.049	1.9
646.235	1.87
646.421	2.05
646.607	2.03
646.793	1.99
646.979	2.01
647.165	2.08
647.352	2.11
647.538	2.12
647.724	2.14
647.91	2.18
648.096	2.24
648.282	2.35
648.468	2.33
648.654	2.42
648.84	2.41
649.026	2.51
649.212	2.51
649.397	2.54
649.583	2.55
649.769	2.68
649.955	2.66
650.141	2.82
650.327	2.89
650.513	2.84
650.698	2.95
650.884	2.85
651.07	2.98
651.256	3
651.442	3.09
651.627	3.07
651.813	3.25
651.999	3.21
652.184	3.31
652.37	3.29
652.556	3.35
652.741	3.43
652.927	3.28
653.113	3.51
653.298	3.54
653.484	3.58
653.669	3.61
653.855	3.65
654.04	3.76
654.226	3.78
654.412	3.79
654.597	3.81
654.782	3.98
654.968	3.94
655.153	4.01
655.339	4.06
655.524	4.09
655.71	4.24
655.895	4.19
656.08	4.32
656.266	4.38
656.451	4.31
656.636	4.36
656.822	4.46
657.007	4.44
657.192	4.49
657.378	4.49
657.563	4.44
657.748	4.53
657.933	4.6
658.118	4.4
658.304	4.51
658.489	4.53
658.674	4.43
658.859	4.35
659.044	4.41
659.229	4.34
659.414	4.32
659.599	4.27
659.785	4.15
659.97	4.07
660.155	4.11
660.34	4.02
660.525	3.91
660.71	3.77
660.895	3.74
661.08	3.63
661.264	3.55
661.449	3.53
661.634	3.35
661.819	3.34
662.004	3.13
662.189	3
662.374	2.94
662.559	2.84
662.743	2.61
662.928	2.64
663.113	2.54
663.298	2.39
663.483	2.38
663.667	2.33
663.852	2.17
664.037	2.13
664.221	1.98
664.406	1.98
664.591	1.88
664.775	1.77
664.96	1.71
665.145	1.6
665.329	1.61
665.514	1.52
665.698	1.46
665.883	1.34
666.068	1.39
666.252	1.29
666.437	1.23
666.621	1.17
666.806	1.12
666.99	1.1
667.174	1.04
667.359	1.03
667.543	0.91
667.728	0.92
667.912	0.84
668.096	0.87
668.281	0.83
668.465	0.83
668.649	0.74
668.834	0.71
669.018	0.74
669.202	0.68
669.387	0.62
669.571	0.69
669.755	0.61
669.939	0.6
670.124	0.56
670.308	0.6
670.492	0.61
670.676	0.5
670.86	0.5
671.044	0.44
671.228	0.51
671.413	0.45
671.597	0.38
671.781	0.41
671.965	0.43
672.149	0.36
672.333	0.34
672.517	0.32
672.701	0.38
672.885	0.3
673.069	0.28
673.253	0.38
673.437	0.28
673.621	0.27
673.804	0.27
673.988	0.28
674.172	0.25
674.356	0.2
674.54	0.22
674.724	0.29
674.908	0.24
675.091	0.24
675.275	0.22
675.459	0.24
675.643	0.26
675.826	0.16
676.01	0.16
676.194	0.19
676.377	0.22
676.561	0.2
676.745	0.14
676.928	0.18
677.112	0.17
677.296	0.14
677.479	0.14
677.663	0.1
677.846	0.19
678.03	0.17
678.213	0.13
678.397	0.18
678.58	0.14
678.764	0.11
678.947	0.07
679.131	0.06
679.314	0.14
679.498	0.12
679.681	0.12
679.865	0.16
680.048	0.09
680.231	0.08
680.415	0.1
680.598	0.07
680.781	0.04
680.965	0.03
681.148	0.08
681.331	0.08
681.514	0.06
681.698	0.04
681.881	0.07
682.064	0.05
682.247	0.1
682.43	-0.01
682.614	0.08
682.797	0.11
682.98	0.09
683.163	0
683.346	0.08
683.529	0.04
683.712	0
683.895	0.06
684.078	-0.03
684.261	0.01
684.444	0.05
684.627	0.05
684.81	-0.01
684.993	0.06
685.176	0.08
685.359	-0.04
685.542	0.03
685.725	0.11
685.908	0.04
686.091	0.02
686.274	0.03
686.457	0.05
686.639	0.06
686.822	0.12
687.005	0.05
687.188	0.06
687.371	0.1
687.553	0.05
687.736	0.06
687.919	0.06
688.102	0.07
688.284	0.01
688.467	-0.01
688.65	0.05
688.832	-0.01
689.015	0.04
689.197	-0.03
689.38	0.14
689.563	0.12
689.745	0
689.928	-0.06
690.11	0.01
690.293	0.07
690.475	-0.07
690.658	0.04
690.84	0.03
691.023	0.06
691.205	0
691.388	0.01
691.57	0.03
691.752	0.04
691.935	-0.04
692.117	-0.02
692.3	0.04
692.482	0.05
692.664	0.01
692.847	0.03
693.029	0.06
693.211	-0.03
693.393	0.02
693.576	0
693.758	0.04
693.94	0
694.122	0.01
694.304	0.02
694.487	0.01
694.669	0.05
694.851	-0.02
695.033	-0.03
695.215	-0.04
695.397	-0.06
695.579	0.04
695.761	-0.04
695.943	-0.05
696.125	0.07
696.308	0.02
696.49	-0.1
696.671	0.14
696.853	0.05
697.035	0.12
697.217	0.02
697.399	0.04
697.581	-0.03
697.763	-0.03
697.945	-0.04
698.127	-0
698.309	0
698.491	0.04
698.672	0.03
698.854	0.07
699.036	0.05
699.218	-0.05
699.399	0.01
699.581	0.04
699.763	-0.04
699.945	-0.03
700.126	-0.02
700.308	-0.04
700.49	0.03
700.671	-0.09
700.853	-0.04
701.035	-0.02
701.216	-0.03
701.398	-0.02
701.579	-0.04
701.761	0.09
701.943	-0.1
702.124	-0.04
702.306	-0.04
702.487	0.08
702.669	-0.04
702.85	0.01
703.031	-0.08
703.213	0.1
703.394	0.04
703.576	-0.03
703.757	0.09
703.938	0.03
704.12	0.12
704.301	-0.01
704.483	-0.1
704.664	0.03
704.845	0.08
705.026	0.06
705.208	-0.04
705.389	-0.04
705.57	-0.05
705.751	-0.02
705.933	-0.02
706.114	0.07
706.295	0.05
706.476	-0.08
706.657	0.13
706.838	0.02
707.02	0.09
707.201	-0.1
707.382	-0.03
707.563	0.03
707.744	-0.05
707.925	-0.05
708.106	-0.02
708.287	0
708.468	0.06
708.649	-0.02
708.83	0.06
709.011	0.01
709.192	0.07
709.373	-0.06
709.554	-0.01
709.734	0.1
709.915	0.07
710.096	0.01
710.277	-0.16
710.458	0.02
710.639	0.05
710.819	-0.07
711	0.02
711.181	0.07
711.362	0.03
711.542	0.06
711.723	-0.01
711.904	0.09
712.085	0
712.265	0.02
712.446	-0.02
712.627	-0.01
712.807	0.01
712.988	0.05
713.168	-0.08
713.349	0.02
713.53	-0.17
713.71	-0.1
713.891	-0.08
714.071	-0.03
714.252	-0.01
714.432	0.02
714.613	-0.08
714.793	0.01
714.974	0.02
715.154	0.07
715.334	0.09
715.515	0.05
715.695	-0.07
715.876	0.02
716.056	-0.02
716.236	-0.08
716.417	-0.02
716.597	-0.04
716.777	0.05
716.957	0.03
717.138	-0.04
717.318	0.02
717.498	-0.16
717.678	0.01
717.859	-0.03
718.039	-0.08
718.219	0.08
718.399	-0
718.579	-0.13
718.759	-0.05
718.939	0.02
719.12	-0.02
719.3	0
719.48	-0.09
719.66	-0.14
719.84	0.11
720.02	-0.08
720.2	-0.06
720.38	-0.02
720.56	0.06
720.74	-0.08
720.92	0.01
721.1	-0
721.279	-0
721.459	-0.03
721.639	-0.04
721.819	-0.05
721.999	-0.02
722.179	0.04
722.359	-0.11
722.538	0.07
722.718	-0.02
722.898	-0.11
723.078	-0.05
723.257	0
723.437	-0.08
723.617	-0.03
723.797	-0.06
723.976	-0.03
724.156	0.01
724.336	0.09
724.515	0.08
724.695	-0.19
724.874	-0.05
725.054	0.02
725.234	-0
725.413	-0.03
725.593	-0.01
725.772	-0.04
725.952	0.05
726.131	-0
726.311	-0.02
726.49	-0.01
726.67	-0.06
726.849	-0.05
727.028	-0.02
727.208	0.04
727.387	-0.02
727.567	-0.14
727.746	-0.07
727.925	-0.13
728.105	-0.1
728.284	-0.05
728.463	-0.03
728.643	0.1
728.822	-0.11
729.001	-0.04
729.18	-0.02
729.359	0.01
729.539	-0.03
729.718	0.03
729.897	0.05
730.076	-0.11
730.255	-0.12
730.434	0.07
730.614	0.05
730.793	0.1
730.972	0.02
731.151	0.04
731.33	0.08
731.509	0.03
731.688	0
731.867	0
732.046	-0.09
732.225	0.16
732.404	-0.02
732.583	-0.11
732.762	0.02
732.941	0.08
733.12	0.11
733.298	-0.02
733.477	0.06
733.656	-0.05
733.835	-0.16
734.014	0.06
734.193	-0.05
734.371	0.14
734.55	-0.04
734.729	-0.11
734.908	-0.03
735.086	0.06
735.265	0.09
735.444	-0.17
735.623	-0.17
735.801	-0.12
735.98	0.02
736.159	-0
736.337	0.07
736.516	-0.08
736.694	-0.03
736.873	0
737.052	0.13
737.23	0.09
737.409	-0.09
737.587	0.16
737.766	-0.12
737.944	-0.15
738.123	0.04
738.301	0.02
738.479	-0.11
738.658	-0.01
738.836	-0.25
739.015	0.02
739.193	0.05
739.371	-0.09
739.55	-0.1
739.728	-0.22
739.906	0.08
740.085	0.02
740.263	-0.05
740.441	-0.14
740.62	0.11
740.798	0.01
740.976	-0.06
741.154	-0.15
741.332	0.01
741.511	-0.09
741.689	-0
741.867	0.08
742.045	0.03
742.223	0.02
742.401	-0.11
742.579	-0.07
742.757	-0.04
742.935	-0.05
743.114	-0.1
743.292	-0.07
743.47	-0.13
743.648	0.02
743.826	-0.29
744.004	0.09
744.181	0.09
744.359	-0.01
744.537	-0.11
744.715	-0.11
744.893	-0.08
745.071	-0.02
745.249	-0.03
745.427	0.06
745.605	0.05
745.782	-0.04
745.96	-0.02
746.138	-0.07
746.316	0.12
746.493	-0.02
746.671	0.04
746.849	-0.05
747.027	0.07
747.204	-0.09
747.382	-0.02
747.56	-0.11
747.737	-0
747.915	-0.03
748.093	0.03
748.27	-0.04
748.448	-0.02
748.625	-0.19
748.803	-0.12
748.98	-0.16
749.158	0.06
749.335	0.07
749.513	0.05
749.69	-0.11
749.868	-0.09
750.045	-0.01
750.223	-0.02
750.4	-0.17
750.578	0.11
750.755	-0.04
750.932	-0.23
751.11	-0
751.287	-0.17
751.464	0.13
751.642	-0.06
751.819	0.04
751.996	-0.05
752.173	-0.09
752.351	-0.15
752.528	0.03
752.705	-0.14
752.882	-0.03
753.06	0.02
753.237	0.04
753.414	0.04
753.591	0.08
753.768	-0.05
753.945	-0.04
754.122	-0.13
754.299	0.07
754.476	-0.1
754.654	-0.01
754.831	0.06
755.008	0.08
755.185	-0.06
755.362	-0.08
755.539	0.03
755.716	-0.14
755.892	-0.04
756.069	-0.01
756.246	-0.11
756.423	-0.13
756.6	0.18
756.777	-0.08
756.954	0.04
757.131	-0.12
757.307	-0.2
757.484	-0.08
757.661	0.04
757.838	-0.04
758.015	-0.11
758.191	0.03
758.368	-0.01
758.545	0.15
758.721	0.07
758.898	-0.2
759.075	0.03
759.251	-0.03
759.428	0.01
759.605	-0.11
759.781	-0.01
759.958	0.05
760.134	0
760.311	-0.12
760.488	0.08
760.664	-0
760.841	-0.16
761.017	-0.08
761.194	-0.02
761.37	-0.03
761.547	0.01
761.723	-0.03
761.899	0.18
762.076	-0.14
762.252	0.02
762.429	-0.06
762.605	0.04
762.781	-0.06
762.958	0.2
763.134	0.04
763.31	-0.15
763.486	0.07
763.663	-0.22
763.839	-0.02
764.015	-0.25
764.191	-0.12
764.368	-0.06
764.544	-0.01
764.72	-0.07
764.896	0.06
765.072	0.04
765.248	-0.03
765.425	0.02
765.601	0.07
765.777	-0.01
765.953	-0.15
766.129	0
766.305	0.02
766.481	-0.03
766.657	0.11
766.833	0.15
767.009	-0.22
767.185	-0.04
767.361	-0.11
767.537	-0.09
767.713	0.03
767.889	-0.01
768.065	-0.03
768.24	0.08
768.416	0.01
768.592	-0.08
768.768	-0.03
768.944	0.08
769.12	-0.08
769.295	-0.02
769.471	-0.17
769.647	-0.07
769.823	0.19
769.998	-0.03
770.174	-0.07
770.35	0.23
770.525	0.25
770.701	0.07
770.877	-0.05
771.052	-0.17
771.228	0.19
771.403	0.05
771.579	0.03
771.755	0.1
771.93	-0.1
772.106	-0.19
772.281	-0.28
772.457	-0.04
772.632	-0.08
772.808	-0.28
772.983	-0.1
773.159	-0.14
773.334	0.01
773.509	-0.01
773.685	-0.07
773.86	0.26
774.036	0.15
774.211	-0.02
774.386	-0.14
774.562	-0
774.737	0.13
774.912	-0.08
775.087	0.04
775.263	-0.13
775.438	-0.04
775.613	-0.26
775.788	-0.01
775.964	-0.02
776.139	0.31
776.314	-0.27
776.489	0.12
776.664	0.11
776.839	-0.08
777.014	0.05
777.19	0.12
777.365	0.12
777.54	0.1
777.715	-0.06
777.89	-0.09
778.065	-0.08
778.24	-0.12
778.415	0.23
778.59	-0.2
778.765	-0.07
778.94	-0.04
779.115	-0.06
779.289	-0.07
779.464	-0.16
779.639	-0.09
779.814	-0.18
779.989	-0.25
780.164	0.1
780.339	0.05
780.513	-0.26
780.688	-0.23
780.863	-0.09
781.038	-0.05
781.212	-0.14
781.387	0.12
781.562	0.22
781.737	-0.18
781.911	0.11
782.086	-0.09
782.261	-0.24
782.435	0.14
782.61	-0.13
782.784	-0.09
782.959	0.1
783.134	-0.08
783.308	-0.23
783.483	0.03
783.657	0.4
783.832	0.05
784.006	-0.46
784.181	-0.09
784.355	0.2
784.53	-0.39
784.704	-0.33
784.878	0.23
785.053	0.03
785.227	0.16
785.402	0.19
785.576	-0.23
785.75	-0.08
785.925	-0.1
786.099	-0.23
786.273	-0.09
786.448	-0.05
786.622	0.08
786.796	0.12
786.97	-0.21
787.145	0.04
787.319	-0.36
787.493	-0.06
787.667	-0.4
787.841	-0.1
788.015	0.2
788.19	-0.12
788.364	0.09
788.538	0.17
788.712	0.12
788.886	-0.16
789.06	0.34
789.234	0.27
789.408	-0.16
789.582	-0.21
789.756	-0.13
789.93	-0.28
790.104	-0.06
790.278	-0.13
790.452	-0.17
790.626	0.21
790.8	-0.23
790.973	0.19
791.147	0.3
791.321	0.14
791.495	0.13
791.669	0.02
791.843	0.17
792.016	0.05
792.19	0.31
792.364	-0.36
792.538	0.37
792.711	0.37
792.885	-0.25
793.059	-0.2
793.233	-0.65
793.406	0.21
793.58	0.03
793.754	0.19
793.927	-0.11
794.101	0.31
794.274	-0.23
794.448	0.19
794.622	-0.16
794.795	0.19
794.969	-0.31
795.142	0.3
795.316	-0.28
795.489	0
795.663	0.13
795.836	-0.02
796.009	-0.23
796.183	0.3
796.356	-0.01
796.53	0.08
796.703	-0.1
796.876	0.58
797.05	-0.16
797.223	-0.02
797.396	-0.01
797.57	0.22
797.743	0.19
797.916	-0.08
798.09	0.03
798.263	0.16
798.436	0.18
798.609	-0.31
798.782	-0.06
798.956	0.25
799.129	-0.1
799.302	-0.17
799.475	-0.2
799.648	-0.11
799.821	-0.35
799.994	-0.04
800.167	-0.42
800.34	0.13
800.514	0.03
800.687	-0.14
800.86	-0.24
801.033	-0.35
801.206	-0.02
801.379	-0.26
801.551	0.38
801.724	-0.03
801.897	0.44
802.07	-0.14
802.243	-0.29
802.416	-0.1
802.589	-0.16
802.762	-0.03
802.935	-0.28
803.107	0.13
803.28	0.01
803.453	0.17
803.626	-0.37
803.798	0.07
803.971	-0.26
804.144	-0.01
804.317	0.11
804.489	0.23
804.662	-0.13
804.835	0.18
805.007	-0.39
805.18	0.58
805.353	0.05
805.525	-0.28
805.698	-0.26
805.87	0.1
806.043	0.22
806.215	-0.29
806.388	-0.33
806.56	-0.21
806.733	0.22
806.905	0.35
807.078	-0.26
807.25	-0.37
807.423	-0.03
807.595	0.17
807.768	-0
807.94	0.49
808.112	0.13
808.285	-0.1
808.457	-0.14
808.629	-0.09
808.802	0.43
808.974	-0.31
809.146	-0.27
809.318	-0.29
809.491	-0.12
809.663	0.05
809.835	-0.55
810.007	-0.04
810.18	-0.2
810.352	-0.26
810.524	-0.26
810.696	0.08
810.868	0.24
811.04	-0.26
811.212	-0.43
811.384	0.19
811.556	-0.16
811.728	-0.24
811.901	0.5
812.073	-0.12
812.245	0.31
812.417	0.15
812.589	-0.6
812.76	0.23
812.932	0.2
813.104	0.33
813.276	0.06
813.448	0.09
813.62	-0.19
813.792	0.26
813.964	0.04
814.136	0.1
814.307	-0.24
814.479	-0.43
814.651	-0.39
814.823	0.84
814.995	-0.13
815.166	0.05
815.338	-0.07
815.51	-0.5
815.681	0.78
815.853	0.15
816.025	-0.1
816.196	0.08
816.368	0.3
816.54	-0.39
816.711	-0.44
816.883	0.08
817.054	0.66
817.226	-1.13
817.398	-0.19
817.569	-0.42
817.741	0.4
817.912	-0.03
818.084	-0.22
818.255	0.08
818.426	-0.21
818.598	-0.29
818.769	-0.71
818.941	0.06
819.112	0.39
819.283	0.26
819.455	-0.52
819.626	0.12
819.798	0.11
819.969	0.13
820.14	-0.07
820.311	-0.03
820.483	0.33
820.654	-0.09
820.825	0.19
820.996	-0.1
821.168	-0.56
821.339	0.17
821.51	-0.9
821.681	-0.52
821.852	-0.17
822.023	-0.21
822.195	-0.47
822.366	0.26
822.537	-0.23
822.708	0.7
822.879	-0.46
823.05	0.39
823.221	-0.04
823.392	0.6
823.563	0.04
823.734	-0.04
823.905	-0.09
824.076	0.03
824.247	-0.33
824.418	-0.52
824.589	0.16
824.759	-0.39
824.93	-0.35
825.101	-0.74
825.272	0.24
825.443	0.51
825.614	-0.02
825.784	-0.94
825.955	0.6
826.126	0.62
826.297	-0.33
826.467	0.26
826.638	0.25
826.809	-0.72
826.98	-0.15
827.15	-0.94
827.321	0.45
827.492	0.09
827.662	0.25
827.833	0.34
828.003	0.03
828.174	-0.22
828.345	-0.78
828.515	0.46
828.686	0.33
828.856	-0.2
829.027	-0.36
829.197	0.05
829.368	0.51
829.538	-0.31
829.709	-0.33
829.879	0.01
830.049	-0.73
830.22	-0.29
830.39	-0.34
830.56	0.65
830.731	-0.16
830.901	0.04
831.072	-0.1
831.242	-0.33
831.412	0.13
831.582	-0.43
831.753	-0.72
831.923	0.11
832.093	-0.01
832.263	-0.12
832.434	-0.55
832.604	-0.46
832.774	0.29
832.944	-0.92
833.114	-0.73
833.284	0.37
833.454	-0.96
833.624	-0.46
833.795	-1.26
833.965	1.35
834.135	0.35
834.305	-0.88
834.475	-0.51
834.645	0.35
834.815	-0.83
834.985	-0.13
835.155	-0.3
835.325	0.12
835.494	-0.55
835.664	-0.34
835.834	-0.54
836.004	0.12
836.174	0.36
836.344	-0.32
836.514	-1.57
836.684	0.06
836.853	0.01
837.023	0.25
837.193	-0.49
837.363	0.82
837.532	-0
837.702	-0.57
837.872	-0.44
838.041	0.97
838.211	1.31
838.381	-1
838.55	-0.21
838.72	1.49
838.89	1.5
839.059	-0.58
839.229	-0.72
839.398	0.99
839.568	-0.33
839.738	0.21
839.907	0.56
840.077	0.1
840.246	-0.44
840.416	-0.94
840.585	-1.09
840.755	1.39
840.924	1.12
841.093	-0.71
841.263	0.01
841.432	0.03
841.602	-0.68
841.771	-0.33
841.94	-0.07
842.11	1.32
842.279	1.24
842.448	-0.82
842.617	-0.7
842.787	0.86
842.956	-0.32
843.125	-0.83
843.294	-0.04
843.464	0.33
843.633	-0.47
843.802	-0.88
843.971	0.06
844.14	0.43
844.309	0.74
844.479	-1.15
844.648	-0.24
844.817	-1.07
844.986	-0.39
845.155	-0.71
845.324	0.15
845.493	-0.23
845.662	-0.76
845.831	0.48
846	0.41
846.169	-0.68
846.338	1.14
846.507	0.8
846.676	0.38
846.844	-1.2
847.013	0.75
847.182	0.05
847.351	-1.22
847.52	0.43
847.689	0.22
847.858	0.35
848.026	-0.78
848.195	-0.92
848.364	-0.68
848.533	-0.92
848.701	-1.25
848.87	-0.77
849.039	-0.11
849.207	0.47
849.376	0.57
849.545	1.46
849.713	-0.61
849.882	0.25
850.051	0.18
850.219	0.56
850.388	0.74
850.556	-1.15
850.725	-0.44
850.893	-0.12
851.062	-0.31
851.23	1.6
851.399	-1.35
851.567	-0.77
851.736	-0.12
851.904	-0.84
852.073	-0.3
852.241	0.51
852.41	0.03
852.578	-0.53
852.746	-0.09
852.915	-0.45
853.083	-0.57
853.251	-1.18
853.42	-0.82
853.588	-0.01
853.756	0.26
853.924	-0.08
854.093	-0.89
854.261	0.11
854.429	-0.97
854.597	0.37
854.765	-1.1
854.934	-0.19
855.102	1.07
855.27	-0.51
855.438	0.24
855.606	0.32
855.774	1.16
855.942	-1.52
856.11	-1.84
856.278	-0.42
856.446	0.69
856.614	-0.32
856.782	-0.55
856.95	0.82
857.118	-0.17
857.286	-0.67
857.454	-0.06
857.622	-0.06
857.79	0.55
857.958	-0.33
858.126	-0.84
858.294	-2.57
858.462	1.32
858.629	-0.2
858.797	-1.22
858.965	-0.09
859.133	-0.41
859.301	0.24
859.468	0.3
859.636	-0.05
859.804	1.24
859.971	0.56
860.139	-0.71
860.307	1.89
860.474	0.4
860.642	-0.68
860.81	-0.47
860.977	-1.88
861.145	-0.06
861.313	-0.41
861.48	0.65
861.648	0.24
861.815	-0
861.983	-1.1
862.15	-0.12
862.318	0.18
862.485	1.34
862.653	-0.73
862.82	-1.02
862.988	0.96
863.155	0.21
863.322	0.05
863.49	-2.63
863.657	-0.9
863.824	2.46
863.992	0.92
864.159	-0.64
864.326	1.16
864.494	-0.8
864.661	2.57
864.828	-1.4
864.996	0.14
865.163	0.01
865.33	0.24
865.497	-3.46
865.664	-0.95
865.832	-1.32
865.999	-1.86
866.166	-1.35
866.333	-1.1
866.5	-0.15
866.667	-1.35
866.834	-1.27
867.001	1.28
867.168	-1.8
867.335	-0.76
867.502	-1.63
867.669	0.12
867.836	2.47
868.003	0.35
868.17	0.03
868.337	2.91
868.504	1.95
868.671	-3.29
868.838	-1.99
869.005	0.79
869.172	-1.23
869.339	0.31
869.505	-0.27
869.672	-0.44
869.839	1.54
870.006	0.41
870.173	-1.8
870.339	0.6
870.506	2.52
870.673	-2.42
870.84	0.66
871.006	0.08
871.173	0.65
871.34	-1.15
871.506	-1.33
871.673	-0.93
871.839	-1.42
872.006	-1.23
872.173	-0.48
872.339	1.38
872.506	1.99
872.672	0.1
872.839	-1.15
873.005	0.35
873.172	2.35
873.338	0.57
873.505	-0.12
873.671	-1.01
873.838	1.1
874.004	-0.94
874.171	-2.41
874.337	-0.07
874.503	1.08
874.67	-0.83
874.836	-1.02
875.002	3.4
875.169	0.22
875.335	-0.79
875.501	-0.18
875.668	1
875.834	0.12
876	-1.25
876.166	1.04
876.332	-0.54
876.499	2.13
876.665	-2.43
876.831	-1.02
876.997	1.79
877.163	-1.2
877.329	-2.82
877.495	0.22
877.662	2.07
877.828	0.44
877.994	-1.25
878.16	-3.12
878.326	-1.18
878.492	-0.19
878.658	-2.32
878.824	1.37
878.99	2.47
879.156	-1.12
879.322	1.88
879.487	-1.96
879.653	0.43
879.819	1.04
879.985	0.44
880.151	1.85
880.317	-0.62
880.483	-0.54
880.648	1.47
880.814	-1.49
880.98	-0.43
881.146	-2.99
881.312	-0.62
881.477	-1.79
881.643	1.6
881.809	3.07
881.974	0.36
882.14	-2.8
882.306	-2.35
882.471	2.62
882.637	0.56
882.803	-0.23
882.968	2.35
883.134	2.11
883.299	-0.67
883.465	-0.67
883.63	1.27
883.796	0.8
883.961	0.19
884.127	-0.67
884.292	-4.25
884.458	-2.48
884.623	-2.47
