Data from Apollo_Calib_20240827__AbsoluteIrradiance__630__09-39-00-926.txt Node

Date: Wed Aug 28 09:39:00 BST 2024
User: biology
Spectrometer: FLMT08252
Trigger mode: 0
Integration Time (sec): 5.000000E-1
Scans to average: 5
Electric dark correction enabled: true
Nonlinearity correction enabled: false
Boxcar width: 0
XAxis mode: Wavelengths
Number of Pixels in Spectrum: 3648
>>>>>Begin Spectral Data<<<<<
179.588	-0
179.809	-0
180.03	-0
180.251	-0
180.473	-0
180.694	0
180.915	0
181.136	-0
181.357	0
181.578	-0
181.799	-0
182.02	-0
182.241	0
182.462	-0
182.683	0
182.904	-0
183.125	-0
183.346	0
183.567	0
183.788	-0
184.009	-0
184.23	-0
184.451	0
184.672	-0
184.892	-0
185.113	-0
185.334	0
185.555	-0
185.776	-0
185.996	0
186.217	0
186.438	0
186.659	-0
186.879	0
187.1	-0
187.321	-0
187.541	-0
187.762	-0
187.983	0
188.203	-0
188.424	0
188.644	-0
188.865	-0
189.086	-0
189.306	-0
189.527	0
189.747	-0
189.968	-0
190.188	0
190.409	-0
190.629	0
190.849	-0
191.07	-0
191.29	-0
191.511	0
191.731	-0
191.951	-0
192.172	-0
192.392	-0
192.612	-0
192.833	-0
193.053	-0
193.273	0
193.493	-0
193.714	-0
193.934	0
194.154	0
194.374	0
194.594	-0
194.815	-0
195.035	0
195.255	-0
195.475	-0
195.695	0
195.915	-0
196.135	-0
196.355	0
196.575	0
196.795	0
197.015	-0
197.235	-0
197.455	-0
197.675	-0
197.895	-0
198.115	-0
198.335	0
198.555	-0
198.775	0
198.995	-0
199.214	0
199.434	-0
199.654	-0
199.874	-0
200.094	1.19
200.313	-0.69
200.533	-0.48
200.753	-0.57
200.973	0.34
201.192	0.41
201.412	-1.07
201.632	-0.34
201.851	0.51
202.071	-0.57
202.291	-0.6
202.51	-0.88
202.73	0.53
202.95	-0.02
203.169	-0.7
203.389	-0.05
203.608	0.09
203.828	-0.51
204.047	-0.45
204.267	0.04
204.486	-0.29
204.706	-0.17
204.925	-0.32
205.145	-0.28
205.364	0.29
205.583	0.83
205.803	-0.24
206.022	-0.56
206.242	0.17
206.461	0.21
206.68	-0.28
206.9	0.12
207.119	0.3
207.338	0.24
207.557	-0.1
207.777	-0.01
207.996	-0.31
208.215	0.25
208.434	-0.13
208.654	-0.59
208.873	0.09
209.092	0.46
209.311	-0.31
209.53	-0.15
209.749	-0.12
209.968	-0.29
210.187	-0.18
210.407	-0.26
210.626	-0.28
210.845	0.2
211.064	-0.19
211.283	-0.16
211.502	0.09
211.721	0.08
211.94	-0.16
212.159	0.25
212.377	0.13
212.596	0.04
212.815	-0.14
213.034	0.19
213.253	0.21
213.472	0.25
213.691	-0.34
213.91	-0.29
214.128	-0.06
214.347	0.23
214.566	-0.49
214.785	-0.28
215.003	0.12
215.222	0.04
215.441	-0.03
215.66	-0.36
215.878	-0.18
216.097	0.22
216.316	-0.37
216.534	-0.42
216.753	0.04
216.972	0.01
217.19	-0.08
217.409	-0.23
217.627	-0.27
217.846	-0.19
218.064	0.06
218.283	-0.2
218.501	0.44
218.72	0.08
218.938	-0.22
219.157	-0.14
219.375	-0
219.594	0.11
219.812	-0.28
220.031	-0.07
220.249	0.21
220.467	0.25
220.686	-0.19
220.904	-0.3
221.122	-0.16
221.341	0.27
221.559	-0.08
221.777	-0.28
221.995	-0.14
222.214	-0.01
222.432	-0.1
222.65	0.23
222.868	0.08
223.086	-0.05
223.305	0.1
223.523	-0.01
223.741	0.17
223.959	-0.06
224.177	-0.36
224.395	-0.09
224.613	-0.03
224.831	0.05
225.049	-0.17
225.267	0.06
225.485	0
225.703	-0.11
225.921	0.07
226.139	-0.15
226.357	-0.06
226.575	0.1
226.793	-0.15
227.011	0.3
227.229	-0.07
227.447	-0.02
227.665	-0.13
227.883	-0.23
228.1	-0.07
228.318	-0.09
228.536	-0.24
228.754	-0.14
228.972	-0.09
229.189	0.02
229.407	-0.16
229.625	0.04
229.843	0.11
230.06	-0.1
230.278	-0.12
230.496	-0.03
230.713	-0.04
230.931	0.11
231.149	-0
231.366	-0.34
231.584	-0.06
231.801	0.22
232.019	-0.02
232.236	-0.22
232.454	-0.19
232.671	0.03
232.889	-0.12
233.106	-0.17
233.324	-0.08
233.541	-0.06
233.759	-0.01
233.976	-0.01
234.194	-0.06
234.411	-0.07
234.628	-0.24
234.846	0.03
235.063	0.02
235.28	0.05
235.498	-0.03
235.715	-0.21
235.932	0.09
236.149	-0.07
236.367	-0.06
236.584	-0.08
236.801	-0.06
237.018	0.06
237.236	0.04
237.453	-0.17
237.67	0.12
237.887	-0.13
238.104	-0
238.321	-0.11
238.538	-0.06
238.755	-0.01
238.973	-0.16
239.19	0
239.407	0.1
239.624	0.05
239.841	-0.19
240.058	-0.16
240.275	-0.04
240.492	-0.1
240.709	-0.03
240.925	-0.08
241.142	-0.07
241.359	-0.1
241.576	-0.12
241.793	-0.12
242.01	-0.01
242.227	0.05
242.444	-0.03
242.66	0
242.877	-0.01
243.094	-0.16
243.311	0.04
243.527	-0.02
243.744	-0.01
243.961	-0.02
244.178	-0.15
244.394	-0.05
244.611	0.09
244.828	0.07
245.044	-0.13
245.261	-0.05
245.477	-0.04
245.694	-0.05
245.911	-0.07
246.127	0
246.344	0.05
246.56	-0.02
246.777	-0.04
246.993	-0.07
247.21	0.02
247.426	0.17
247.643	-0.03
247.859	-0.11
248.076	-0.08
248.292	0.18
248.508	-0
248.725	-0.05
248.941	0.04
249.157	0.05
249.374	-0.07
249.59	-0.03
249.806	0.02
250.023	-0
250.239	-0.11
250.455	-0.15
250.671	-0.09
250.888	0.07
251.104	-0.01
251.32	-0.14
251.536	-0.01
251.752	-0.07
251.969	-0.11
252.185	0.01
252.401	0.13
252.617	0.01
252.833	-0.02
253.049	-0.04
253.265	0.05
253.481	-0.03
253.697	-0.06
253.913	-0.05
254.129	-0.02
254.345	-0.05
254.561	-0.06
254.777	-0.05
254.993	0.02
255.209	-0
255.425	-0.06
255.641	-0.05
255.857	0.11
256.073	-0.03
256.288	-0.06
256.504	-0.09
256.72	0.01
256.936	0.13
257.152	-0.05
257.367	-0.1
257.583	-0
257.799	0.08
258.015	-0.08
258.23	-0.08
258.446	0.08
258.662	-0.06
258.877	-0.06
259.093	-0.06
259.309	0.02
259.524	-0.01
259.74	0.02
259.955	-0.1
260.171	0.02
260.387	-0.07
260.602	0.06
260.818	0.02
261.033	-0.13
261.249	-0.03
261.464	-0.13
261.68	-0.13
261.895	-0.04
262.11	0.07
262.326	0
262.541	-0.15
262.757	0.06
262.972	0.01
263.187	0.01
263.403	-0.05
263.618	0.09
263.833	-0
264.049	-0.09
264.264	-0.07
264.479	0.02
264.694	0.01
264.91	-0.07
265.125	-0.04
265.34	-0.01
265.555	0.11
265.77	-0.04
265.986	-0.03
266.201	0.06
266.416	0.1
266.631	-0.07
266.846	-0.05
267.061	0.02
267.276	0.04
267.491	-0.12
267.706	0.02
267.921	0.06
268.136	-0.02
268.351	-0.04
268.566	-0.07
268.781	0.07
268.996	0.1
269.211	-0.03
269.426	-0.07
269.641	-0.01
269.856	0.05
270.071	-0.02
270.285	-0.13
270.5	0.08
270.715	0.12
270.93	-0.03
271.145	0.01
271.359	-0.03
271.574	-0.05
271.789	-0.04
272.004	-0.1
272.218	-0.01
272.433	0.01
272.648	-0.07
272.862	-0.01
273.077	-0.01
273.292	-0.01
273.506	-0.05
273.721	-0.07
273.936	0.05
274.15	0.09
274.365	-0.07
274.579	0.06
274.794	0.02
275.008	0.01
275.223	-0.07
275.437	-0.03
275.652	0.05
275.866	-0.05
276.081	-0.06
276.295	0.08
276.509	0.06
276.724	0.01
276.938	-0.08
277.153	-0.01
277.367	0.03
277.581	-0.05
277.796	-0.05
278.01	-0.07
278.224	-0.01
278.438	0.14
278.653	-0.1
278.867	-0.09
279.081	-0.15
279.295	-0.04
279.51	0.01
279.724	-0.16
279.938	0.07
280.152	0.01
280.366	-0.02
280.58	0.02
280.794	0.12
281.008	0.01
281.222	0.02
281.437	0.07
281.651	-0.03
281.865	0.06
282.079	-0.06
282.293	-0.1
282.507	-0.04
282.721	-0.03
282.935	-0.04
283.148	-0.07
283.362	-0.07
283.576	-0.03
283.79	-0.02
284.004	-0.04
284.218	0.05
284.432	-0.03
284.646	-0.04
284.859	-0.01
285.073	-0.01
285.287	-0.04
285.501	0.03
285.714	0.01
285.928	-0.01
286.142	-0.02
286.356	-0.04
286.569	-0.05
286.783	0.06
286.997	0.04
287.21	0.03
287.424	-0.02
287.637	-0.03
287.851	-0.07
288.065	0.04
288.278	-0.04
288.492	0
288.705	-0.04
288.919	0.03
289.132	-0.04
289.346	0.06
289.559	-0.08
289.773	-0.04
289.986	-0.02
290.2	-0.03
290.413	0.09
290.626	-0.08
290.84	-0.03
291.053	-0.02
291.267	0.06
291.48	0.05
291.693	0.02
291.906	-0.06
292.12	-0.01
292.333	-0.06
292.546	-0.03
292.76	0.05
292.973	0.06
293.186	0.02
293.399	-0.04
293.612	0.05
293.826	-0.03
294.039	-0.03
294.252	-0.04
294.465	0.02
294.678	0.02
294.891	-0.02
295.104	-0.02
295.317	-0.03
295.53	0.02
295.743	-0.03
295.956	-0.02
296.169	0.04
296.382	0.03
296.595	-0.02
296.808	-0.03
297.021	0.06
297.234	0.05
297.447	-0.03
297.66	0.04
297.873	0.06
298.086	0.02
298.299	-0.02
298.511	-0.09
298.724	-0.03
298.937	-0.02
299.15	-0.05
299.363	-0
299.575	0.02
299.788	0.04
300.001	-0.03
300.213	-0.05
300.426	-0.04
300.639	-0.05
300.852	0
301.064	0.07
301.277	0.05
301.489	0.04
301.702	0.03
301.915	-0.01
302.127	0.03
302.34	0.04
302.552	0.01
302.765	-0.04
302.977	0.06
303.19	-0.05
303.402	0.01
303.615	-0.01
303.827	-0
304.04	-0.01
304.252	-0.05
304.464	-0.01
304.677	0.11
304.889	0.03
305.102	-0.01
305.314	-0
305.526	-0.01
305.739	0.02
305.951	-0.05
306.163	-0.03
306.375	0.05
306.588	-0.07
306.8	-0.04
307.012	-0.08
307.224	0.03
307.436	0.05
307.649	-0.06
307.861	0.02
308.073	0.02
308.285	-0.03
308.497	-0.04
308.709	-0.04
308.921	-0.02
309.133	0.05
309.346	-0.01
309.558	-0
309.77	0.03
309.982	0.05
310.194	0.03
310.406	-0.05
310.617	0.05
310.829	0.02
311.041	0.01
311.253	-0.02
311.465	-0.02
311.677	-0.03
311.889	-0.04
312.101	-0.03
312.313	0.03
312.524	0.03
312.736	-0.03
312.948	-0.05
313.16	0.06
313.372	0.06
313.583	-0
313.795	0.01
314.007	-0.05
314.218	0.01
314.43	-0.03
314.642	-0.05
314.853	-0.09
315.065	0.04
315.277	-0.03
315.488	0.04
315.7	0.03
315.912	-0.01
316.123	-0.04
316.335	-0.02
316.546	0.09
316.758	-0.07
316.969	-0.04
317.181	-0.01
317.392	-0.01
317.604	0.03
317.815	-0.04
318.026	-0.05
318.238	-0
318.449	0.02
318.661	-0.07
318.872	-0.07
319.083	-0.09
319.295	-0.01
319.506	-0.01
319.717	-0.02
319.929	-0.01
320.14	-0.01
320.351	0.01
320.562	-0.01
320.774	-0.01
320.985	-0.02
321.196	-0.07
321.407	-0.11
321.618	0.01
321.829	-0.03
322.041	-0
322.252	-0
322.463	0.02
322.674	0.02
322.885	-0.02
323.096	-0.03
323.307	-0.01
323.518	0.03
323.729	-0.04
323.94	-0.03
324.151	-0.04
324.362	-0.02
324.573	-0
324.784	-0.08
324.995	0.02
325.206	0
325.417	-0.02
325.628	-0.03
325.838	0.01
326.049	-0.02
326.26	0.04
326.471	-0.03
326.682	0.01
326.892	-0.01
327.103	-0.06
327.314	-0.07
327.525	0.03
327.735	-0.04
327.946	-0.04
328.157	-0.01
328.368	-0.01
328.578	-0.04
328.789	0.02
328.999	0.02
329.21	-0.04
329.421	0.01
329.631	-0.02
329.842	-0.06
330.052	0.02
330.263	-0
330.473	0.02
330.684	-0.01
330.894	-0.01
331.105	-0.03
331.315	0.03
331.526	-0.02
331.736	0.07
331.947	0.05
332.157	0.02
332.367	-0.05
332.578	0.02
332.788	0.07
332.999	0.02
333.209	-0.01
333.419	-0.08
333.629	0
333.84	0.02
334.05	-0.03
334.26	0.04
334.47	-0.07
334.681	0.06
334.891	-0.03
335.101	-0
335.311	0.07
335.521	-0.01
335.732	0.01
335.942	-0
336.152	0.03
336.362	0.03
336.572	-0.03
336.782	0.03
336.992	-0.02
337.202	0.01
337.412	-0.03
337.622	0.03
337.832	0.01
338.042	-0.01
338.252	-0.03
338.462	-0.08
338.672	-0
338.882	-0.01
339.092	-0
339.302	0.06
339.511	0
339.721	-0.02
339.931	-0.03
340.141	0.03
340.351	0.04
340.561	0.02
340.77	-0.03
340.98	0.01
341.19	0.03
341.4	-0.02
341.609	-0.04
341.819	0
342.029	-0.08
342.238	-0.05
342.448	-0.03
342.658	0.01
342.867	0
343.077	-0.01
343.286	0.02
343.496	0
343.706	0.03
343.915	-0.05
344.125	0.01
344.334	-0.01
344.544	-0.05
344.753	-0.01
344.963	-0.01
345.172	-0.04
345.381	-0.01
345.591	-0.05
345.8	0.01
346.01	0.07
346.219	0.04
346.428	-0.12
346.638	0.01
346.847	-0.02
347.056	0.07
347.266	-0.05
347.475	-0.06
347.684	0.01
347.893	0.02
348.103	0.04
348.312	-0.03
348.521	-0.02
348.73	0.01
348.94	0.02
349.149	-0.01
349.358	-0.02
349.567	-0.04
349.776	-0.01
349.985	-0.03
350.194	0.05
350.403	0.07
350.612	-0.05
350.821	-0.01
351.03	-0.04
351.239	-0.06
351.448	0.01
351.657	-0.02
351.866	0.09
352.075	0
352.284	0.01
352.493	-0.05
352.702	0.09
352.911	0.04
353.12	-0
353.329	-0.04
353.538	0.01
353.746	-0.02
353.955	-0.03
354.164	0.03
354.373	-0.01
354.582	0.01
354.79	0
354.999	0.05
355.208	-0.01
355.416	0.02
355.625	-0.06
355.834	-0.06
356.042	-0.03
356.251	0.01
356.46	-0.05
356.668	0.02
356.877	0.04
357.085	-0.01
357.294	-0.1
357.503	0.03
357.711	-0.06
357.92	0.07
358.128	-0.02
358.337	-0.04
358.545	0.02
358.754	-0.06
358.962	-0
359.17	-0
359.379	0.02
359.587	0.02
359.796	0.03
360.004	0.04
360.212	-0.01
360.421	0.03
360.629	-0.03
360.837	-0.03
361.046	0.04
361.254	0.07
361.462	-0.03
361.67	-0.03
361.879	-0.01
362.087	0.02
362.295	-0.02
362.503	-0
362.711	-0.04
362.92	-0.03
363.128	-0.06
363.336	-0.06
363.544	-0.07
363.752	-0.02
363.96	-0.02
364.168	-0.04
364.376	-0.03
364.584	-0
364.792	0
365	0.04
365.208	-0
365.416	0.01
365.624	0.01
365.832	-0.06
366.04	0.09
366.248	-0
366.456	-0.01
366.664	-0
366.872	-0.04
367.079	-0.04
367.287	0.01
367.495	0.01
367.703	-0
367.911	-0.01
368.118	-0.02
368.326	-0.03
368.534	-0.08
368.742	0.05
368.949	-0.08
369.157	-0.03
369.365	0.04
369.572	-0.04
369.78	-0.01
369.988	0.03
370.195	0.03
370.403	0
370.61	-0.01
370.818	0.01
371.026	0.03
371.233	-0.08
371.441	0.02
371.648	-0.02
371.856	-0
372.063	0.01
372.271	-0.02
372.478	-0.02
372.685	-0.07
372.893	0.02
373.1	-0.03
373.308	-0.05
373.515	0.07
373.722	0.04
373.93	0.01
374.137	0
374.344	0.07
374.552	0.03
374.759	-0.01
374.966	-0
375.173	-0.01
375.381	-0.03
375.588	-0
375.795	-0.07
376.002	-0.05
376.209	-0.07
376.417	-0
376.624	-0.05
376.831	0
377.038	-0.01
377.245	-0.07
377.452	0.01
377.659	0.01
377.866	-0.04
378.073	-0.04
378.28	0.01
378.487	0.04
378.694	0.08
378.901	-0.01
379.108	-0.01
379.315	-0
379.522	0.04
379.729	-0.01
379.936	-0.04
380.143	-0.02
380.35	0.01
380.557	-0.03
380.763	0.05
380.97	0
381.177	0.02
381.384	0
381.591	-0.07
381.797	0
382.004	-0.01
382.211	0.02
382.418	-0.1
382.624	0.05
382.831	0.02
383.038	0
383.244	0
383.451	-0.03
383.658	0.03
383.864	-0.04
384.071	-0.03
384.277	0.07
384.484	-0.05
384.69	0.04
384.897	-0.03
385.103	-0.07
385.31	-0.04
385.516	-0.02
385.723	-0.05
385.929	0.02
386.136	-0.02
386.342	0.04
386.549	-0.04
386.755	0.05
386.961	-0
387.168	-0.05
387.374	0.02
387.58	0.04
387.787	0.01
387.993	0.01
388.199	-0.06
388.406	0.01
388.612	0.01
388.818	-0.04
389.024	-0.02
389.231	0.02
389.437	0.07
389.643	0.01
389.849	-0.02
390.055	-0.02
390.261	0.01
390.467	0.01
390.674	-0.05
390.88	-0.02
391.086	0.01
391.292	-0.04
391.498	0.01
391.704	-0.04
391.91	-0.02
392.116	-0.03
392.322	-0.1
392.528	0.03
392.734	-0.03
392.94	0.01
393.146	-0.04
393.352	0
393.557	-0.03
393.763	-0.02
393.969	0.04
394.175	-0.02
394.381	-0.02
394.587	-0.03
394.792	-0.02
394.998	0.02
395.204	0.06
395.41	-0.06
395.615	0.02
395.821	0.01
396.027	0.02
396.233	-0.05
396.438	0.02
396.644	0.06
396.85	0.01
397.055	-0.02
397.261	-0.02
397.466	0.06
397.672	-0
397.878	0.02
398.083	0.02
398.289	-0.01
398.494	0.03
398.7	0.01
398.905	-0.09
399.111	0.09
399.316	-0.08
399.522	-0.04
399.727	-0.03
399.932	-0.03
400.138	-0.02
400.343	0.06
400.549	0.03
400.754	-0.01
400.959	-0.01
401.165	-0.01
401.37	0.02
401.575	0.1
401.78	-0.02
401.986	-0.05
402.191	-0.01
402.396	-0.04
402.601	0.02
402.807	0.05
403.012	-0.02
403.217	0.05
403.422	-0.04
403.627	-0.01
403.832	-0.02
404.037	0.03
404.243	0.01
404.448	-0.01
404.653	0.01
404.858	-0.02
405.063	0.04
405.268	-0.02
405.473	-0.04
405.678	-0.02
405.883	0.11
406.088	0.02
406.293	-0.04
406.498	-0.05
406.703	0.02
406.907	-0.03
407.112	-0.04
407.317	-0.03
407.522	0.02
407.727	-0.03
407.932	-0.02
408.136	0.08
408.341	0.01
408.546	-0.01
408.751	0.02
408.956	-0.04
409.16	0.01
409.365	-0.01
409.57	-0.04
409.774	-0.02
409.979	0.07
410.184	-0.01
410.388	-0.04
410.593	0.03
410.798	0
411.002	-0.01
411.207	0.03
411.411	0.02
411.616	-0.02
411.82	-0.01
412.025	-0.02
412.229	-0.03
412.434	0.04
412.638	-0
412.843	-0
413.047	-0
413.252	-0.06
413.456	0.01
413.66	0.03
413.865	-0.06
414.069	0.08
414.273	-0.07
414.478	0
414.682	0
414.886	-0.02
415.091	-0.06
415.295	-0.12
415.499	-0.02
415.703	-0.04
415.908	0.02
416.112	-0.11
416.316	0.05
416.52	-0.03
416.724	-0.07
416.929	-0.05
417.133	0.06
417.337	-0.03
417.541	-0.02
417.745	-0.01
417.949	-0.01
418.153	-0.07
418.357	-0.03
418.561	0.06
418.765	-0.02
418.969	0.07
419.173	0.01
419.377	-0.01
419.581	0.04
419.785	-0.06
419.989	-0.07
420.193	0.02
420.397	-0.07
420.601	0.01
420.804	0.04
421.008	-0.02
421.212	0.01
421.416	0.06
421.62	-0.07
421.823	-0.04
422.027	0.08
422.231	0.03
422.435	-0.05
422.638	0.05
422.842	-0.04
423.046	-0.05
423.249	0.01
423.453	0
423.657	-0
423.86	-0.04
424.064	-0.01
424.268	0.06
424.471	-0.03
424.675	0.06
424.878	0.04
425.082	-0.03
425.285	0.05
425.489	-0.01
425.692	-0.01
425.896	-0.03
426.099	0.05
426.303	-0.05
426.506	-0.09
426.71	0.03
426.913	0.06
427.116	0.07
427.32	-0
427.523	-0.04
427.726	0.04
427.93	-0.09
428.133	-0.04
428.336	-0.06
428.54	-0.09
428.743	-0.01
428.946	0.03
429.149	-0.02
429.353	-0.02
429.556	-0.05
429.759	-0.03
429.962	-0.04
430.165	-0.03
430.368	-0.02
430.571	-0.04
430.775	0
430.978	-0.02
431.181	0.02
431.384	0.02
431.587	-0.04
431.79	-0.04
431.993	0.01
432.196	-0.02
432.399	-0.03
432.602	0.08
432.805	-0.02
433.008	-0.03
433.211	-0.02
433.414	0.03
433.616	0
433.819	-0.07
434.022	-0.07
434.225	0.02
434.428	0
434.631	0.07
434.833	0.01
435.036	0
435.239	0.06
435.442	0.01
435.645	-0.02
435.847	-0.03
436.05	0.05
436.253	0.01
436.455	-0.06
436.658	-0.04
436.861	0.06
437.063	0.01
437.266	0
437.468	0.02
437.671	0.14
437.874	-0.02
438.076	-0.05
438.279	-0.03
438.481	-0
438.684	-0.03
438.886	0.02
439.089	-0.13
439.291	-0.01
439.494	0.04
439.696	-0.09
439.899	0.01
440.101	0.01
440.303	-0.06
440.506	0.02
440.708	-0.02
440.91	-0
441.113	-0.05
441.315	0.01
441.517	-0.06
441.72	-0.01
441.922	-0.06
442.124	-0.09
442.326	-0.01
442.529	0.04
442.731	-0.06
442.933	0.08
443.135	0.01
443.337	-0.07
443.539	-0.02
443.742	-0.02
443.944	-0.01
444.146	-0.05
444.348	-0.03
444.55	-0.06
444.752	-0.05
444.954	-0.07
445.156	-0.02
445.358	-0.08
445.56	0.02
445.762	-0.06
445.964	-0.01
446.166	-0.03
446.368	-0.02
446.57	0.06
446.772	0.04
446.974	-0
447.175	0.01
447.377	-0.06
447.579	-0.03
447.781	-0.06
447.983	0.03
448.184	-0.01
448.386	-0.02
448.588	-0.1
448.79	0
448.991	-0.01
449.193	-0.06
449.395	-0.03
449.597	0.07
449.798	-0.02
450	0.01
450.202	-0.01
450.403	-0.02
450.605	-0.02
450.806	-0.04
451.008	-0.1
451.21	-0.03
451.411	0.02
451.613	0.01
451.814	0.01
452.016	0.01
452.217	0.01
452.419	0.03
452.62	-0.01
452.821	-0
453.023	0.05
453.224	-0.02
453.426	0
453.627	0.04
453.828	0.04
454.03	-0.04
454.231	0.03
454.432	-0.07
454.634	0.05
454.835	-0.03
455.036	-0.03
455.238	0.03
455.439	0.05
455.64	-0.04
455.841	-0.05
456.042	0.07
456.244	0
456.445	-0.06
456.646	-0.1
456.847	-0.04
457.048	0.01
457.249	0.06
457.45	0.18
457.651	-0.06
457.852	0.07
458.054	0.02
458.255	-0.01
458.456	0.03
458.657	0.02
458.858	-0.05
459.058	-0.01
459.259	0.06
459.46	-0.04
459.661	-0.04
459.862	0.13
460.063	-0.05
460.264	0.01
460.465	-0.05
460.666	0.12
460.866	-0.02
461.067	0
461.268	0.01
461.469	-0.08
461.67	-0.03
461.87	0.01
462.071	-0.01
462.272	-0.02
462.473	-0
462.673	0.03
462.874	-0.03
463.075	-0.04
463.275	-0.08
463.476	0
463.676	-0.01
463.877	-0.01
464.078	-0.05
464.278	0.04
464.479	-0.08
464.679	-0.03
464.88	-0.03
465.08	0.05
465.281	-0.05
465.481	-0.04
465.682	-0.04
465.882	0.07
466.083	-0.05
466.283	0.02
466.483	-0.03
466.684	-0.08
466.884	-0.03
467.085	-0.02
467.285	0.07
467.485	-0.03
467.686	-0.01
467.886	-0.05
468.086	-0.03
468.286	0.02
468.487	0.02
468.687	-0.06
468.887	-0.03
469.087	0.02
469.287	-0
469.488	-0.04
469.688	0.04
469.888	0.04
470.088	-0.01
470.288	0.02
470.488	0.02
470.688	-0.06
470.888	-0.02
471.088	-0.05
471.288	0.03
471.488	0.02
471.688	-0.02
471.888	-0
472.088	0.05
472.288	-0.01
472.488	-0.05
472.688	-0.05
472.888	-0.02
473.088	-0.02
473.288	0.01
473.488	-0.04
473.688	0.04
473.887	-0
474.087	-0.03
474.287	0.02
474.487	-0.01
474.687	0.03
474.886	-0.06
475.086	0
475.286	-0.02
475.486	-0.02
475.685	0
475.885	-0.03
476.085	-0.04
476.284	0.02
476.484	-0.02
476.684	0.05
476.883	0.03
477.083	-0.03
477.282	-0.01
477.482	0.05
477.681	0.01
477.881	-0.01
478.08	-0.04
478.28	-0.03
478.479	-0
478.679	0.06
478.878	-0.06
479.078	-0.04
479.277	-0.03
479.477	-0.01
479.676	0.02
479.875	0.01
480.075	-0.08
480.274	-0
480.473	0
480.673	-0.02
480.872	0.03
481.071	0.03
481.271	0.02
481.47	-0
481.669	-0.02
481.868	-0.03
482.067	-0.04
482.267	-0.05
482.466	-0.04
482.665	-0.03
482.864	-0.06
483.063	-0.02
483.262	0.01
483.461	0.04
483.661	0.03
483.86	-0
484.059	-0.01
484.258	-0.02
484.457	-0.02
484.656	-0.02
484.855	0.04
485.054	-0.03
485.253	-0.03
485.452	-0.02
485.651	-0.02
485.849	0
486.048	-0.05
486.247	-0.05
486.446	-0
486.645	-0.05
486.844	-0.02
487.043	-0.01
487.241	0.01
487.44	-0.03
487.639	-0.05
487.838	0.04
488.037	-0
488.235	0.04
488.434	0
488.633	0
488.831	-0
489.03	0.04
489.229	0.01
489.427	0
489.626	0.02
489.825	0.01
490.023	-0
490.222	-0.01
490.42	0.01
490.619	0.02
490.817	0.02
491.016	-0.02
491.214	0.02
491.413	-0.01
491.611	-0.01
491.81	0.01
492.008	0.01
492.207	0.02
492.405	0.01
492.604	-0.02
492.802	0.01
493	-0.01
493.199	-0.01
493.397	0.01
493.595	-0
493.794	-0.02
493.992	0.06
494.19	0.01
494.388	0
494.587	-0.01
494.785	-0
494.983	-0.05
495.181	0.01
495.379	0
495.578	-0.03
495.776	-0.01
495.974	0
496.172	0.01
496.37	-0.01
496.568	-0.01
496.766	-0.03
496.964	0.02
497.162	-0
497.36	-0.04
497.558	-0.02
497.756	-0
497.954	-0.02
498.152	-0.01
498.35	-0.02
498.548	-0.01
498.746	-0.01
498.944	-0.01
499.142	-0.01
499.34	-0.04
499.538	-0.02
499.736	-0.02
499.933	0.04
500.131	0.01
500.329	-0.01
500.527	0.01
500.725	0.01
500.922	0
501.12	0.01
501.318	0.02
501.516	-0.03
501.713	-0.01
501.911	-0.01
502.109	-0.04
502.306	-0
502.504	0.01
502.701	-0.02
502.899	-0.02
503.097	0
503.294	-0.02
503.492	-0
503.689	0.01
503.887	0.01
504.084	0.03
504.282	0.01
504.479	-0.02
504.677	0.01
504.874	-0.04
505.072	-0.02
505.269	-0.02
505.466	0.01
505.664	-0
505.861	-0.04
506.059	-0.06
506.256	0.02
506.453	-0.02
506.651	0.01
506.848	0.01
507.045	0.01
507.242	0.02
507.44	-0.02
507.637	0
507.834	-0.02
508.031	0.03
508.229	-0.03
508.426	0.01
508.623	0.02
508.82	-0
509.017	-0.03
509.214	-0.02
509.411	0
509.608	-0.01
509.805	0
510.003	-0.01
510.2	-0.02
510.397	0.01
510.594	-0.02
510.791	-0.02
510.988	-0.02
511.184	0
511.381	-0
511.578	-0.03
511.775	0.02
511.972	-0.03
512.169	-0.03
512.366	-0.02
512.563	0.01
512.76	-0.02
512.956	0.01
513.153	-0
513.35	-0.01
513.547	-0.04
513.744	-0.03
513.94	-0.04
514.137	0.02
514.334	-0.01
514.53	-0.01
514.727	0
514.924	0.01
515.12	-0.01
515.317	-0.01
515.514	-0.01
515.71	-0.03
515.907	-0.01
516.103	-0.02
516.3	0.01
516.497	-0.01
516.693	0.03
516.89	-0
517.086	-0.02
517.283	0.04
517.479	0.01
517.676	-0.01
517.872	-0
518.068	-0
518.265	-0.01
518.461	-0.03
518.658	-0.01
518.854	-0.01
519.05	0.01
519.247	-0.04
519.443	0
519.639	-0.01
519.836	-0
520.032	-0.01
520.228	0.01
520.424	0.03
520.621	0.02
520.817	-0
521.013	0.02
521.209	-0.01
521.405	0.03
521.601	0.01
521.798	0.01
521.994	0.01
522.19	-0.03
522.386	-0.07
522.582	-0.03
522.778	-0.03
522.974	-0.03
523.17	-0.01
523.366	-0.01
523.562	0
523.758	-0
523.954	-0.03
524.15	-0.03
524.346	0.02
524.542	-0.01
524.738	-0.01
524.934	-0.03
525.129	0
525.325	-0
525.521	-0.02
525.717	0
525.913	0.01
526.109	0.02
526.304	-0.02
526.5	0.01
526.696	0.03
526.892	-0.01
527.087	-0.01
527.283	-0.05
527.479	0
527.674	-0.02
527.87	-0.02
528.066	-0.01
528.261	0.01
528.457	-0
528.653	-0.02
528.848	0
529.044	0
529.239	0
529.435	0.04
529.63	-0.01
529.826	0.04
530.021	0.02
530.217	0.01
530.412	-0.01
530.608	-0.02
530.803	0
530.999	-0
531.194	-0.03
531.389	-0.01
531.585	-0.05
531.78	-0
531.975	-0.02
532.171	0
532.366	-0.01
532.561	0.01
532.757	-0.05
532.952	0.01
533.147	0.02
533.342	0.01
533.538	-0.03
533.733	0.01
533.928	0
534.123	-0.02
534.318	-0.01
534.513	-0.01
534.709	0
534.904	-0.02
535.099	-0.02
535.294	0.01
535.489	-0.01
535.684	-0.03
535.879	-0.04
536.074	0
536.269	-0.03
536.464	0.01
536.659	-0.02
536.854	-0.02
537.049	-0.01
537.244	-0
537.439	-0.02
537.634	0.03
537.828	0
538.023	0.01
538.218	-0.05
538.413	-0.01
538.608	-0.01
538.803	-0.01
538.997	-0.02
539.192	0.03
539.387	0.02
539.582	0.01
539.776	0
539.971	-0.01
540.166	-0.02
540.36	-0.02
540.555	-0.01
540.75	-0.02
540.944	-0.01
541.139	-0.04
541.334	-0.03
541.528	-0.01
541.723	0.01
541.917	-0.02
542.112	-0.05
542.306	-0.01
542.501	-0.02
542.695	0.01
542.89	-0.02
543.084	0
543.279	-0.02
543.473	0
543.668	-0
543.862	-0.01
544.056	-0
544.251	-0.02
544.445	-0.01
544.64	-0
544.834	-0.04
545.028	-0
545.222	0.01
545.417	0.03
545.611	0.01
545.805	-0.02
546	-0.01
546.194	0
546.388	0
546.582	-0
546.776	-0.01
546.97	-0.02
547.165	0.01
547.359	-0.01
547.553	-0.03
547.747	0
547.941	-0.01
548.135	-0
548.329	0.02
548.523	-0.01
548.717	-0.04
548.911	-0.02
549.105	-0.02
549.299	-0
549.493	0.02
549.687	0
549.881	-0.01
550.075	-0.01
550.269	-0.03
550.463	-0.01
550.657	-0.03
550.85	0
551.044	-0.02
551.238	-0.01
551.432	-0.01
551.626	-0
551.82	-0
552.013	-0.01
552.207	-0.01
552.401	0.01
552.594	-0.01
552.788	-0.03
552.982	-0.01
553.176	-0
553.369	-0.01
553.563	-0
553.756	-0.04
553.95	-0.02
554.144	-0.02
554.337	0.01
554.531	0.01
554.724	-0.01
554.918	-0.01
555.111	0.03
555.305	-0
555.498	0.02
555.692	0.01
555.885	-0.02
556.079	-0.01
556.272	0
556.466	0.02
556.659	-0.03
556.852	-0.02
557.046	-0.02
557.239	0.04
557.432	-0.04
557.626	-0.03
557.819	0.02
558.012	0.02
558.206	0.02
558.399	0
558.592	0
558.785	-0.01
558.979	0.01
559.172	0.02
559.365	-0
559.558	0
559.751	0.01
559.944	0.03
560.138	-0.01
560.331	-0.02
560.524	-0.02
560.717	0.01
560.91	0.01
561.103	0.02
561.296	-0
561.489	0.01
561.682	-0
561.875	0.03
562.068	-0
562.261	-0.01
562.454	0.03
562.647	0.01
562.84	0.01
563.032	-0.02
563.225	-0
563.418	-0.03
563.611	-0.02
563.804	-0.01
563.997	-0.03
564.19	-0.04
564.382	-0.05
564.575	-0.01
564.768	-0.01
564.961	-0
565.153	-0.02
565.346	-0
565.539	0.01
565.731	0.02
565.924	0.02
566.117	0.02
566.309	0.01
566.502	-0.03
566.695	-0.01
566.887	-0
567.08	-0.05
567.272	-0.02
567.465	-0.04
567.657	-0.01
567.85	0.01
568.042	0.02
568.235	0.03
568.427	-0.02
568.62	-0
568.812	-0
569.005	-0.02
569.197	-0.04
569.389	-0.02
569.582	-0
569.774	-0
569.966	-0.05
570.159	-0.04
570.351	0
570.543	-0.01
570.736	-0
570.928	-0.03
571.12	0
571.312	-0.02
571.505	-0.02
571.697	0.01
571.889	-0.03
572.081	0.01
572.273	-0.04
572.465	0.01
572.658	-0.02
572.85	-0
573.042	-0
573.234	-0.02
573.426	0.02
573.618	-0.03
573.81	-0.01
574.002	0.03
574.194	0.03
574.386	-0.05
574.578	-0.05
574.77	-0.04
574.962	-0.03
575.154	-0.03
575.346	-0.04
575.538	0.02
575.729	-0.02
575.921	-0.04
576.113	-0.02
576.305	0.02
576.497	0.01
576.689	-0.01
576.88	-0.03
577.072	0.01
577.264	-0.04
577.456	-0.01
577.647	-0.08
577.839	-0
578.031	0.03
578.223	-0.03
578.414	-0.05
578.606	0
578.798	-0
578.989	-0.04
579.181	-0.02
579.372	-0.02
579.564	-0.03
579.755	-0
579.947	-0
580.139	0.02
580.33	-0.06
580.522	-0.03
580.713	-0.08
580.905	-0.01
581.096	0.02
581.287	-0.02
581.479	-0.01
581.67	0.01
581.862	-0.03
582.053	-0.01
582.244	-0.05
582.436	-0.02
582.627	0.01
582.818	-0.03
583.01	-0.04
583.201	0.02
583.392	0.01
583.583	-0.02
583.775	-0.04
583.966	-0.01
584.157	-0.02
584.348	-0.02
584.54	-0.03
584.731	0
584.922	-0.03
585.113	-0.06
585.304	-0
585.495	0.02
585.686	0.02
585.877	0.01
586.068	-0.01
586.259	0
586.45	-0
586.641	-0.05
586.832	-0.06
587.023	0
587.214	-0.01
587.405	-0.02
587.596	-0.03
587.787	0.02
587.978	-0.01
588.169	-0.05
588.36	-0
588.551	-0
588.742	-0.04
588.932	0
589.123	0.01
589.314	0.03
589.505	0.04
589.696	-0.01
589.886	-0.04
590.077	-0.04
590.268	-0.01
590.458	-0.05
590.649	-0.05
590.84	0.01
591.03	-0.01
591.221	-0.04
591.412	-0.05
591.602	0.02
591.793	0
591.984	-0.05
592.174	-0.01
592.365	0.03
592.555	-0.02
592.746	0
592.936	-0.02
593.127	0.01
593.317	0.01
593.508	-0.02
593.698	-0.01
593.889	-0.02
594.079	-0.01
594.269	-0.06
594.46	0
594.65	-0.01
594.84	0
595.031	-0.05
595.221	-0.01
595.411	-0.07
595.602	0.04
595.792	-0.01
595.982	-0.01
596.172	0.08
596.363	-0.01
596.553	-0
596.743	-0.01
596.933	-0
597.123	0.01
597.314	-0.03
597.504	-0.05
597.694	-0.01
597.884	0.01
598.074	-0.01
598.264	-0.04
598.454	0.01
598.644	-0.02
598.834	0
599.024	-0.02
599.214	-0.02
599.404	0.02
599.594	-0.03
599.784	-0.06
599.974	0.04
600.164	-0.01
600.354	-0.04
600.544	-0.05
600.734	-0.02
600.924	0.03
601.114	-0.02
601.303	0
601.493	0
601.683	-0.03
601.873	0
602.063	-0.06
602.252	0.03
602.442	-0.08
602.632	-0.03
602.821	-0.02
603.011	0.05
603.201	-0
603.39	-0.04
603.58	-0.06
603.77	-0.02
603.959	0.01
604.149	-0.01
604.339	-0.04
604.528	0.03
604.718	0.01
604.907	-0.03
605.097	-0.04
605.286	-0.03
605.476	-0.01
605.665	0.03
605.855	-0.02
606.044	0.04
606.234	-0.01
606.423	-0.01
606.612	-0.06
606.802	0.01
606.991	0.01
607.181	-0.03
607.37	-0.06
607.559	-0.03
607.749	-0.06
607.938	-0.03
608.127	-0.03
608.316	-0.02
608.506	-0.02
608.695	-0.04
608.884	-0.03
609.073	-0
609.263	-0.01
609.452	0.01
609.641	0
609.83	-0.05
610.019	-0.01
610.208	-0.04
610.397	0.01
610.586	-0.01
610.775	-0.02
610.965	-0.03
611.154	-0.05
611.343	-0.02
611.532	-0.03
611.721	-0.04
611.91	0
612.099	0.02
612.287	-0.02
612.476	-0.05
612.665	-0.01
612.854	-0.03
613.043	0.03
613.232	-0.04
613.421	-0.06
613.61	0.01
613.798	-0.03
613.987	0.01
614.176	0
614.365	0.04
614.554	-0.02
614.742	0
614.931	-0.03
615.12	0.03
615.309	-0.04
615.497	-0.01
615.686	-0.01
615.875	-0.05
616.063	-0.03
616.252	-0.01
616.44	-0.04
616.629	-0.02
616.818	0.04
617.006	-0.01
617.195	-0.01
617.383	0.02
617.572	-0.01
617.76	-0.02
617.949	-0.01
618.137	0.03
618.326	-0
618.514	-0.04
618.703	0
618.891	0.05
619.079	-0.05
619.268	0.01
619.456	-0.04
619.644	0.03
619.833	-0.02
620.021	-0.02
620.209	-0.07
620.398	-0.02
620.586	-0
620.774	-0.01
620.962	-0.03
621.151	0.02
621.339	-0.01
621.527	-0.07
621.715	-0.07
621.903	-0.03
622.092	-0.03
622.28	-0.02
622.468	-0.01
622.656	0.01
622.844	0.02
623.032	-0.03
623.22	-0.06
623.408	-0.01
623.596	-0
623.784	-0.01
623.972	-0.02
624.16	-0.02
624.348	0
624.536	-0.04
624.724	-0.03
624.912	0.03
625.1	0.04
625.288	-0.02
625.476	-0.05
625.664	-0.01
625.851	-0.05
626.039	-0.02
626.227	0.02
626.415	-0.02
626.603	-0.07
626.79	-0.02
626.978	-0
627.166	0
627.354	-0.02
627.541	-0.04
627.729	-0.06
627.917	-0.01
628.104	0.03
628.292	-0.02
628.48	-0.01
628.667	-0.02
628.855	-0.01
629.042	-0.02
629.23	-0.07
629.418	-0.02
629.605	-0.05
629.793	-0.02
629.98	-0.04
630.168	-0.01
630.355	-0.03
630.543	-0.01
630.73	-0.02
630.917	0.02
631.105	0.04
631.292	-0.03
631.48	-0.01
631.667	0.06
631.854	-0
632.042	-0.03
632.229	-0.08
632.416	-0.04
632.604	0.01
632.791	-0.07
632.978	0.03
633.165	0.01
633.353	0.05
633.54	-0.01
633.727	-0.06
633.914	-0.03
634.101	-0.11
634.289	0.03
634.476	-0.03
634.663	-0.04
634.85	-0.01
635.037	-0.06
635.224	-0.05
635.411	0
635.598	0.03
635.785	-0.04
635.972	-0.01
636.159	0.03
636.346	-0.04
636.533	-0.02
636.72	-0.02
636.907	-0.02
637.094	-0.01
637.281	-0.03
637.468	0
637.655	-0.01
637.842	-0.02
638.029	-0.02
638.215	0.02
638.402	-0.01
638.589	-0.01
638.776	-0.01
638.963	-0.05
639.149	-0.02
639.336	0.05
639.523	-0.03
639.709	0.01
639.896	-0.01
640.083	0.02
640.27	-0.01
640.456	-0.04
640.643	-0.03
640.829	-0.04
641.016	-0.01
641.203	-0.06
641.389	0.01
641.576	0
641.762	-0.04
641.949	-0.04
642.135	-0
642.322	0.01
642.508	-0.07
642.695	0.02
642.881	-0.01
643.068	-0.04
643.254	-0.04
643.441	0.05
643.627	-0.02
643.813	-0.03
644	0.04
644.186	-0.03
644.372	-0.01
644.559	0.03
644.745	-0.01
644.931	-0.02
645.118	-0.02
645.304	-0.02
645.49	-0.05
645.676	0
645.862	0.01
646.049	0.02
646.235	0
646.421	0.03
646.607	0.06
646.793	-0.02
646.979	-0.04
647.165	-0
647.352	0
647.538	0.02
647.724	-0.02
647.91	-0.02
648.096	0.01
648.282	-0.02
648.468	-0.04
648.654	-0.01
648.84	0
649.026	-0.02
649.212	-0.05
649.397	-0.04
649.583	-0.06
649.769	0.03
649.955	-0.01
650.141	0
650.327	0.02
650.513	-0.06
650.698	-0.01
650.884	-0.08
651.07	0.01
651.256	0.01
651.442	-0.04
651.627	0
651.813	-0.01
651.999	-0.01
652.184	-0
652.37	-0
652.556	-0.05
652.741	0.03
652.927	-0.1
653.113	0.01
653.298	-0.01
653.484	-0.04
653.669	-0.1
653.855	-0.01
654.04	0
654.226	-0.02
654.412	-0.03
654.597	-0.04
654.782	-0.01
654.968	0.02
655.153	-0.01
655.339	-0.02
655.524	-0.07
655.71	-0.01
655.895	-0.02
656.08	-0.02
656.266	0.02
656.451	0.02
656.636	-0.06
656.822	-0.01
657.007	-0.05
657.192	-0.07
657.378	-0.06
657.563	-0.03
657.748	0.01
657.933	-0.02
658.118	-0.04
658.304	-0.07
658.489	0
658.674	0.02
658.859	-0.05
659.044	0.01
659.229	0.01
659.414	-0.04
659.599	-0
659.785	-0.05
659.97	-0.06
660.155	0.01
660.34	0.01
660.525	-0.02
660.71	-0.06
660.895	0
661.08	-0.07
661.264	-0
661.449	0.04
661.634	0.03
661.819	0.01
662.004	0.04
662.189	-0.06
662.374	-0.04
662.559	-0.07
662.743	-0.08
662.928	-0.01
663.113	-0.04
663.298	-0.06
663.483	-0.01
663.667	-0.03
663.852	-0.04
664.037	0
664.221	-0.06
664.406	0.03
664.591	0.06
664.775	-0.06
664.96	-0.03
665.145	0.01
665.329	-0.05
665.514	-0.02
665.698	-0.05
665.883	-0.08
666.068	0.05
666.252	-0.02
666.437	-0.03
666.621	-0.03
666.806	0.01
666.99	-0.03
667.174	-0.04
667.359	0.05
667.543	-0.02
667.728	-0
667.912	-0.08
668.096	0.05
668.281	-0.01
668.465	-0.05
668.649	-0.04
668.834	-0.04
669.018	-0.04
669.202	-0.01
669.387	-0.01
669.571	0.03
669.755	-0.03
669.939	-0.02
670.124	-0.06
670.308	0.04
670.492	0
670.676	-0
670.86	-0.07
671.044	-0.08
671.228	0.03
671.413	-0.04
671.597	-0.02
671.781	-0.08
671.965	0.03
672.149	-0.02
672.333	-0.03
672.517	-0.05
672.701	-0
672.885	-0.01
673.069	-0.08
673.253	0
673.437	-0.02
673.621	-0.02
673.804	-0.02
673.988	-0.02
674.172	0.02
674.356	-0.04
674.54	-0.02
674.724	0.08
674.908	-0
675.091	0.01
675.275	-0.02
675.459	0.02
675.643	0.08
675.826	0.03
676.01	-0.02
676.194	-0.02
676.377	0.02
676.561	-0
676.745	-0.01
676.928	0.01
677.112	0.02
677.296	-0.01
677.479	-0.05
677.663	-0.07
677.846	-0
678.03	-0.02
678.213	-0.01
678.397	-0.03
678.58	0.02
678.764	-0.05
678.947	-0.04
679.131	0
679.314	0.06
679.498	-0.05
679.681	0.01
679.865	0.04
680.048	-0.02
680.231	-0.02
680.415	-0.04
680.598	-0.01
680.781	-0
680.965	-0.01
681.148	0.01
681.331	-0.01
681.514	-0.03
681.698	-0.04
681.881	0.01
682.064	0.02
682.247	0.03
682.43	-0.05
682.614	-0.01
682.797	0.02
682.98	0.02
683.163	-0.04
683.346	0.04
683.529	-0.05
683.712	-0.05
683.895	0.04
684.078	-0.07
684.261	-0.03
684.444	-0.03
684.627	-0.06
684.81	-0.05
684.993	-0.01
685.176	0.04
685.359	-0.02
685.542	-0.02
685.725	0.01
685.908	-0.01
686.091	-0.04
686.274	0.05
686.457	-0
686.639	-0.03
686.822	0.04
687.005	-0.03
687.188	-0.03
687.371	0.07
687.553	-0.01
687.736	0.02
687.919	0.02
688.102	0.07
688.284	-0.03
688.467	0.03
688.65	-0.01
688.832	-0.01
689.015	-0.01
689.197	-0.06
689.38	0.08
689.563	0.08
689.745	-0.01
689.928	-0.03
690.11	-0.02
690.293	0.03
690.475	-0.05
690.658	-0.01
690.84	-0.03
691.023	-0.05
691.205	-0.02
691.388	0.01
691.57	0.04
691.752	0.01
691.935	-0.11
692.117	0
692.3	0.02
692.482	-0.03
692.664	0.02
692.847	-0.02
693.029	0.02
693.211	-0
693.393	0.03
693.576	-0.05
693.758	0.03
693.94	-0
694.122	-0.01
694.304	-0.01
694.487	0
694.669	0.08
694.851	-0.04
695.033	0.01
695.215	0.03
695.397	0
695.579	0.01
695.761	-0.03
695.943	-0.04
696.125	0.07
696.308	0.04
696.49	-0.07
696.671	0.07
696.853	-0.03
697.035	0.18
697.217	-0.06
697.399	0.03
697.581	-0.04
697.763	0.02
697.945	-0.01
698.127	0
698.309	-0.11
698.491	0.01
698.672	0.03
698.854	0.11
699.036	0.05
699.218	-0.03
699.399	0.08
699.581	0.08
699.763	0
699.945	0
700.126	0.03
700.308	-0
700.49	-0.01
700.671	-0.06
700.853	0.01
701.035	-0.01
701.216	0.02
701.398	-0.03
701.579	0.01
701.761	0.07
701.943	0.01
702.124	-0.05
702.306	-0
702.487	0.12
702.669	0.04
702.85	0.01
703.031	0
703.213	0.14
703.394	0.08
703.576	-0.02
703.757	0.07
703.938	0.04
704.12	0.14
704.301	0.02
704.483	0.03
704.664	0.07
704.845	0.09
705.026	0.08
705.208	0.08
705.389	0.01
705.57	0.03
705.751	0.06
705.933	0.11
706.114	0.09
706.295	0.03
706.476	-0.07
706.657	0.1
706.838	0.08
707.02	0.11
707.201	0.03
707.382	-0.01
707.563	0.03
707.744	-0.02
707.925	-0.02
708.106	-0.05
708.287	0.07
708.468	0.07
708.649	0.07
708.83	0.11
709.011	-0.02
709.192	0.12
709.373	-0.02
709.554	0.04
709.734	0.06
709.915	0.09
710.096	0.03
710.277	-0.03
710.458	0.03
710.639	0.12
710.819	-0.04
711	0.03
711.181	0.12
711.362	0.17
711.542	0.12
711.723	0.03
711.904	0.18
712.085	0.05
712.265	0.11
712.446	-0.01
712.627	0.05
712.807	0.07
712.988	0.08
713.168	0.04
713.349	0.12
713.53	-0.05
713.71	0.03
713.891	0.04
714.071	0.05
714.252	0.05
714.432	0.08
714.613	0.04
714.793	0.12
714.974	0.18
715.154	0.19
715.334	0.15
715.515	0.15
715.695	0.03
715.876	0.09
716.056	0
716.236	0.07
716.417	0.14
716.597	0.04
716.777	0.21
716.957	0.1
717.138	0.07
717.318	0.15
717.498	0.05
717.678	0.14
717.859	0.16
718.039	-0.03
718.219	0.15
718.399	0.12
718.579	0.05
718.759	0.04
718.939	0.2
719.12	0.11
719.3	0.17
719.48	-0.04
719.66	0.03
719.84	0.18
720.02	0.07
720.2	0.06
720.38	0.13
720.56	0.19
720.74	0.12
720.92	0.2
721.1	0.24
721.279	0.18
721.459	0.15
721.639	0.06
721.819	0.22
721.999	0.13
722.179	0.22
722.359	0.02
722.538	0.19
722.718	0.18
722.898	0.14
723.078	0.18
723.257	0.15
723.437	0.18
723.617	0.2
723.797	0.14
723.976	0.23
724.156	0.21
724.336	0.24
724.515	0.33
724.695	0.07
724.874	0.22
725.054	0.29
725.234	0.16
725.413	0.22
725.593	0.18
725.772	0.23
725.952	0.27
726.131	0.26
726.311	0.25
726.49	0.24
726.67	0.12
726.849	0.2
727.028	0.26
727.208	0.25
727.387	0.26
727.567	0.17
727.746	0.25
727.925	0.16
728.105	0.11
728.284	0.23
728.463	0.3
728.643	0.28
728.822	0.28
729.001	0.24
729.18	0.35
729.359	0.31
729.539	0.25
729.718	0.38
729.897	0.35
730.076	0.23
730.255	0.24
730.434	0.35
730.614	0.35
730.793	0.38
730.972	0.29
731.151	0.3
731.33	0.44
731.509	0.45
731.688	0.35
731.867	0.28
732.046	0.31
732.225	0.52
732.404	0.34
732.583	0.28
732.762	0.39
732.941	0.43
733.12	0.43
733.298	0.32
733.477	0.42
733.656	0.33
733.835	0.21
734.014	0.45
734.193	0.37
734.371	0.43
734.55	0.46
734.729	0.35
734.908	0.39
735.086	0.42
735.265	0.48
735.444	0.24
735.623	0.27
735.801	0.23
735.98	0.45
736.159	0.34
736.337	0.43
736.516	0.42
736.694	0.4
736.873	0.37
737.052	0.57
737.23	0.52
737.409	0.34
737.587	0.59
737.766	0.25
737.944	0.37
738.123	0.46
738.301	0.51
738.479	0.3
738.658	0.39
738.836	0.17
739.015	0.43
739.193	0.48
739.371	0.2
739.55	0.32
739.728	0.17
739.906	0.34
740.085	0.48
740.263	0.37
740.441	0.12
740.62	0.37
740.798	0.36
740.976	0.07
741.154	0.17
741.332	0.38
741.511	0.15
741.689	0.38
741.867	0.35
742.045	0.18
742.223	0.25
742.401	0.16
742.579	0.11
742.757	0.15
742.935	0.15
743.114	0.05
743.292	0.12
743.47	0.22
743.648	0.17
743.826	0.19
744.004	0.21
744.181	0.27
744.359	0.05
744.537	0.11
744.715	0.19
744.893	0.05
745.071	0.17
745.249	0.06
745.427	0.06
745.605	0.18
745.782	0.08
745.96	0.13
746.138	0.23
746.316	0.21
746.493	-0.01
746.671	0.11
746.849	0.02
747.027	0.25
747.204	0.03
747.382	0.17
747.56	-0.09
747.737	0.04
747.915	-0.06
748.093	0.07
748.27	-0.02
748.448	0.04
748.625	-0.04
748.803	0.02
748.98	-0
749.158	0.11
749.335	0.13
749.513	0.05
749.69	-0.01
749.868	0.04
750.045	0.08
750.223	0.03
750.4	-0.15
750.578	0.18
750.755	0.1
750.932	-0.14
751.11	0.24
751.287	-0.06
751.464	0.1
751.642	-0.05
751.819	0.11
751.996	0.06
752.173	0
752.351	-0.09
752.528	0.07
752.705	0.01
752.882	-0.02
753.06	0.01
753.237	0.04
753.414	0.15
753.591	0.09
753.768	0.1
753.945	0.04
754.122	-0.01
754.299	0.02
754.476	-0.06
754.654	-0.02
754.831	0.08
755.008	-0.02
755.185	-0.06
755.362	-0.14
755.539	0.1
755.716	-0.03
755.892	-0.06
756.069	0.06
756.246	-0.07
756.423	-0.05
756.6	0.11
756.777	-0.05
756.954	0.1
757.131	0.04
757.307	-0.18
757.484	-0.24
757.661	0.06
757.838	-0.06
758.015	-0.08
758.191	0.05
758.368	0.14
758.545	0.13
758.721	0.03
758.898	-0.11
759.075	-0
759.251	0.04
759.428	0.07
759.605	-0.15
759.781	-0.07
759.958	0.04
760.134	0.02
760.311	-0.01
760.488	0.11
760.664	0.12
760.841	-0.02
761.017	-0.06
761.194	0.01
761.37	0.04
761.547	0
761.723	-0.02
761.899	0.05
762.076	-0.13
762.252	-0.15
762.429	-0.09
762.605	0.09
762.781	-0.11
762.958	0.06
763.134	-0.09
763.31	-0.09
763.486	0.17
763.663	-0.22
763.839	0.06
764.015	-0.16
764.191	-0.13
764.368	-0.11
764.544	-0.04
764.72	0.08
764.896	0.11
765.072	-0.03
765.248	-0.08
765.425	0.02
765.601	0.09
765.777	-0.02
765.953	-0.25
766.129	-0
766.305	-0.2
766.481	-0.02
766.657	-0.04
766.833	0.13
767.009	-0.05
767.185	-0.15
767.361	-0.13
767.537	-0.05
767.713	0.06
767.889	-0.15
768.065	-0.01
768.24	0.08
768.416	-0.04
768.592	-0.09
768.768	-0.03
768.944	0.01
769.12	-0.17
769.295	-0.13
769.471	-0.02
769.647	-0.04
769.823	0.08
769.998	-0.05
770.174	-0.09
770.35	0.26
770.525	0.17
770.701	-0.02
770.877	0.02
771.052	0.1
771.228	0.12
771.403	0.04
771.579	-0
771.755	0.32
771.93	-0.16
772.106	-0.04
772.281	-0.31
772.457	-0.03
772.632	-0
772.808	-0.09
772.983	-0.24
773.159	-0.01
773.334	0.03
773.509	0.04
773.685	0.04
773.86	0.3
774.036	0.13
774.211	0.02
774.386	-0.11
774.562	-0.03
774.737	0.06
774.912	-0.1
775.087	0.18
775.263	0
775.438	0.06
775.613	-0.02
775.788	-0.08
775.964	-0.01
776.139	0.32
776.314	-0.12
776.489	-0.07
776.664	-0.02
776.839	-0.05
777.014	0.06
777.19	0.03
777.365	0.18
777.54	0.31
777.715	-0.2
777.89	-0.03
778.065	-0.16
778.24	0.08
778.415	0.29
778.59	-0.25
778.765	-0.04
778.94	0.01
779.115	-0.28
779.289	-0.18
779.464	-0.14
779.639	0.02
779.814	-0.32
779.989	-0.22
780.164	0.12
780.339	0.07
780.513	-0.09
780.688	-0.21
780.863	-0.05
781.038	0.08
781.212	-0.13
781.387	-0.08
781.562	0.26
781.737	-0.05
781.911	-0.01
782.086	-0.07
782.261	-0.08
782.435	0.36
782.61	0.04
782.784	-0.1
782.959	0.17
783.134	-0.24
783.308	-0.27
783.483	-0.01
783.657	0.25
783.832	0.04
784.006	-0.37
784.181	-0.13
784.355	0.04
784.53	-0.34
784.704	-0.13
784.878	0.16
785.053	0.02
785.227	0.18
785.402	0.31
785.576	-0.24
785.75	0.01
785.925	0.08
786.099	-0.01
786.273	0.21
786.448	-0.05
786.622	0.27
786.796	-0.28
786.97	-0.19
787.145	0.38
787.319	-0.38
787.493	-0.14
787.667	-0.24
787.841	0.06
788.015	0.1
788.19	0.07
788.364	-0.02
788.538	0.14
788.712	-0.01
788.886	-0.14
789.06	0.26
789.234	0.15
789.408	-0.39
789.582	0.11
789.756	-0.1
789.93	-0.25
790.104	-0.02
790.278	-0.33
790.452	-0.22
790.626	0.09
790.8	-0.14
790.973	0.12
791.147	0.23
791.321	0.16
791.495	0.15
791.669	0.12
791.843	0.23
792.016	0.12
792.19	0.41
792.364	-0.31
792.538	0.37
792.711	0.44
792.885	-0.13
793.059	-0.29
793.233	-0.75
793.406	0.19
793.58	-0.08
793.754	0.2
793.927	-0.14
794.101	0.19
794.274	-0.15
794.448	0.15
794.622	-0.27
794.795	0.24
794.969	-0.04
795.142	0.18
795.316	-0.26
795.489	-0.41
795.663	0.41
795.836	0.12
796.009	-0.11
796.183	0.31
796.356	0.29
796.53	-0.02
796.703	0.08
796.876	0.29
797.05	0
797.223	-0.05
797.396	0.19
797.57	0.14
797.743	0.46
797.916	-0.14
798.09	-0.13
798.263	-0.03
798.436	0.17
798.609	-0.12
798.782	-0.08
798.956	-0.03
799.129	-0.11
799.302	-0.08
799.475	-0.01
799.648	-0.43
799.821	-0.01
799.994	0.14
800.167	-0.41
800.34	-0.06
800.514	0.05
800.687	0.07
800.86	-0.33
801.033	0.05
801.206	-0.03
801.379	-0.12
801.551	0.25
801.724	0.13
801.897	0.21
802.07	-0.2
802.243	-0.35
802.416	-0.06
802.589	-0.11
802.762	0.05
802.935	-0.27
803.107	0.13
803.28	0.39
803.453	0.75
803.626	0
803.798	-0.08
803.971	-0.28
804.144	-0.03
804.317	0
804.489	0.23
804.662	-0.17
804.835	0.32
805.007	0.02
805.18	0.28
805.353	-0.32
805.525	-0.17
805.698	-0.33
805.87	0.19
806.043	0.28
806.215	-0.44
806.388	-0.31
806.56	0.36
806.733	0.22
806.905	0.02
807.078	-0.35
807.25	0
807.423	0.27
807.595	0.11
807.768	0.08
807.94	0.69
808.112	0.48
808.285	0.06
808.457	-0.26
808.629	-0.17
808.802	0.32
808.974	-0.08
809.146	-0.34
809.318	-0.19
809.491	-0.15
809.663	0.43
809.835	-0.29
810.007	0.24
810.18	-0.15
810.352	-0.5
810.524	-0.24
810.696	0.08
810.868	0.35
811.04	0.07
811.212	-0.26
811.384	-0
811.556	0.2
811.728	-0.13
811.901	0.33
812.073	-0.11
812.245	0.14
812.417	0.12
812.589	-0.72
812.76	-0.14
812.932	0.29
813.104	0.35
813.276	-0.27
813.448	0.23
813.62	-0.14
813.792	0.21
813.964	-0.06
814.136	0.07
814.307	-0.27
814.479	-0.19
814.651	-0.3
814.823	0.37
814.995	-0.1
815.166	0.22
815.338	-0.37
815.51	-0.35
815.681	0.54
815.853	0.2
816.025	-0.36
816.196	0.36
816.368	0.61
816.54	-0.3
816.711	-0.28
816.883	-0.28
817.054	0.87
817.226	-0.61
817.398	-0.12
817.569	-0.66
817.741	-0.5
817.912	0.07
818.084	0.08
818.255	-0.03
818.426	-0.13
818.598	-0.09
818.769	-0.36
818.941	-0
819.112	0.22
819.283	-0
819.455	-0.22
819.626	-0.1
819.798	0.06
819.969	-0.16
820.14	-0.13
820.311	-0.14
820.483	0.22
820.654	0.14
820.825	0.36
820.996	0.18
821.168	-0.25
821.339	-0.33
821.51	0.17
821.681	-0.42
821.852	-0.05
822.023	-0.72
822.195	-0.4
822.366	0.56
822.537	-0.14
822.708	0.46
822.879	0.05
823.05	0.41
823.221	-0.25
823.392	0.31
823.563	0.06
823.734	0.06
823.905	-0.4
824.076	-0.48
824.247	-0.55
824.418	-0.37
824.589	0.85
824.759	-0.51
824.93	0.06
825.101	-0.82
825.272	0.3
825.443	0.72
825.614	0.4
825.784	-1.24
825.955	0.25
826.126	1.07
826.297	-0.05
826.467	0.31
826.638	0.53
826.809	-0.64
826.98	0.02
827.15	0.01
827.321	-0.24
827.492	0.44
827.662	-0.46
827.833	0.79
828.003	0.28
828.174	-0.51
828.345	-1.09
828.515	-0.02
828.686	-0.54
828.856	-0.26
829.027	-0.02
829.197	-0.32
829.368	0.23
829.538	-0.32
829.709	-0.3
829.879	0.09
830.049	-0.89
830.22	-0.16
830.39	0.2
830.56	0.29
830.731	-0.32
830.901	-0.4
831.072	-0.52
831.242	0.05
831.412	0.02
831.582	-0.32
831.753	-0.73
831.923	-0.13
832.093	-0.28
832.263	-0.35
832.434	-0.3
832.604	-0.5
832.774	0.18
832.944	-0.04
833.114	-0.14
833.284	-0.29
833.454	-0.06
833.624	-0.1
833.795	-1.11
833.965	1.33
834.135	0.26
834.305	-1.2
834.475	-0.42
834.645	0.48
834.815	-0.36
834.985	-0.67
835.155	-0.44
835.325	0.06
835.494	0.27
835.664	0.05
835.834	-0.95
836.004	-0.29
836.174	0.28
836.344	-0.47
836.514	-0.98
836.684	-0.44
836.853	-0.06
837.023	-0.09
837.193	-0.5
837.363	-0.24
837.532	0.6
837.702	-0.24
837.872	-0.79
838.041	0.36
838.211	0.65
838.381	-0.52
838.55	0.16
838.72	1.55
838.89	0.92
839.059	-0.25
839.229	-0.24
839.398	0.79
839.568	0.47
839.738	-0.37
839.907	0.92
840.077	0.33
840.246	-0.55
840.416	-0.72
840.585	-0.98
840.755	1.16
840.924	-0.07
841.093	-0.55
841.263	-0.56
841.432	-0.17
841.602	-0.75
841.771	-0.98
841.94	0.22
842.11	2.09
842.279	1.38
842.448	-0.92
842.617	-0.95
842.787	0.72
842.956	-0.19
843.125	-0.2
843.294	-0.11
843.464	1.38
843.633	0.25
843.802	-0.76
843.971	-0.37
844.14	0.1
844.309	0.08
844.479	-0.81
844.648	-0.52
844.817	-0.75
844.986	0.38
845.155	-0.36
845.324	0.47
845.493	-0.67
845.662	-0.25
845.831	0.66
846	-0.02
846.169	-0.54
846.338	1.8
846.507	0.36
846.676	1.17
846.844	-0.09
847.013	1.62
847.182	-0.07
847.351	-0.53
847.52	-0.33
847.689	0.89
847.858	-0.1
848.026	-0.49
848.195	-0.13
848.364	-0.61
848.533	-0.47
848.701	-0.1
848.87	0.36
849.039	1.84
849.207	1
849.376	1.8
849.545	0.79
849.713	-0.45
849.882	-0.43
850.051	-0.35
850.219	-0.47
850.388	0.86
850.556	-1.19
850.725	-0.49
850.893	-0.49
851.062	0.74
851.23	-0.16
851.399	-0.73
851.567	-0.32
851.736	-0.87
851.904	-0.3
852.073	-0.02
852.241	0.03
852.41	-0.08
852.578	0.03
852.746	-0.76
852.915	0.24
853.083	0.43
853.251	-1.51
853.42	-0.12
853.588	0.65
853.756	0.75
853.924	0.08
854.093	-0.47
854.261	-1.23
854.429	-1.69
854.597	-1.19
854.765	-0.76
854.934	-0.38
855.102	1.33
855.27	0.09
855.438	0.84
855.606	-0.22
855.774	1.62
855.942	-1.26
856.11	-1.37
856.278	-0.42
856.446	0.09
856.614	-0.72
856.782	-0.73
856.95	0.56
857.118	1.32
857.286	0.77
857.454	-1.44
857.622	0.86
857.79	0.97
857.958	-0.61
858.126	-0.04
858.294	-2.83
858.462	0.15
858.629	-0.35
858.797	-1.29
858.965	-0.4
859.133	0.38
859.301	-0.3
859.468	0.42
859.636	-0.77
859.804	2.5
859.971	0.7
860.139	0.01
860.307	0.51
860.474	0.69
860.642	-0.59
860.81	-1.68
860.977	0.27
861.145	0.79
861.313	-0.87
861.48	-0.19
861.648	1.4
861.815	-0.95
861.983	-1.14
862.15	-0.45
862.318	-0.09
862.485	0.82
862.653	-1.9
862.82	0.08
862.988	1.81
863.155	0.71
863.322	-1.13
863.49	-1.06
863.657	-0.64
863.824	0.73
863.992	0.51
864.159	0.11
864.326	1.15
864.494	-0.64
864.661	1.63
864.828	-1.92
864.996	1.34
865.163	0.61
865.33	-0.97
865.497	-3.05
865.664	0.9
865.832	-1.64
865.999	0.09
866.166	-1.38
866.333	0.06
866.5	-0.5
866.667	-0.11
866.834	-1.11
867.001	1.37
867.168	-0.69
867.335	-0.21
867.502	-2.77
867.669	0.07
867.836	0.96
868.003	-0.48
868.17	0.4
868.337	1.46
868.504	2.75
868.671	-1.73
868.838	-0.47
869.005	0.09
869.172	-0.45
869.339	0.78
869.505	-0.14
869.672	-0.3
869.839	1.57
870.006	0.27
870.173	-2.95
870.339	-0.03
870.506	3.22
870.673	-0.55
870.84	1.53
871.006	-0.29
871.173	-0.62
871.34	-0.88
871.506	-0.43
871.673	0.21
871.839	-0.95
872.006	0.64
872.173	0.31
872.339	0.05
872.506	0.02
872.672	-1.08
872.839	-2.12
873.005	-0.62
873.172	3.58
873.338	0.5
873.505	-0.44
873.671	1.48
873.838	0.74
874.004	-1.16
874.171	-1.9
874.337	1.85
874.503	0.36
874.67	-0.24
874.836	-1.31
875.002	2.56
875.169	-0.57
875.335	-0.7
875.501	-0.58
875.668	1.72
875.834	0.85
876	-0.45
876.166	0.82
876.332	-1.26
876.499	1.08
876.665	-1.6
876.831	0.29
876.997	2.4
877.163	1.78
877.329	-0.68
877.495	0.11
877.662	0.29
877.828	-0.9
877.994	-1.62
878.16	-0.57
878.326	-1.46
878.492	0.67
878.658	0.17
878.824	-0.09
878.99	-0.08
879.156	-2.11
879.322	1.25
879.487	1.53
879.653	-1.27
879.819	-1.53
879.985	-0.15
880.151	0.5
880.317	0.97
880.483	-0.19
880.648	0.5
880.814	-4.76
880.98	1.22
881.146	-2.12
881.312	-0.73
881.477	0.11
881.643	-0.23
881.809	3.33
881.974	1.35
882.14	-3.23
882.306	-1.09
882.471	2.71
882.637	-0.41
882.803	1.01
882.968	1.57
883.134	3.36
883.299	-1.14
883.465	-0.62
883.63	1.98
883.796	2.25
883.961	1.92
884.127	0.15
884.292	-5.87
884.458	-4.08
884.623	-4.08
