Data from Apollo_Calib_20240827__AbsoluteIrradiance__377__05-26-00-705.txt Node

Date: Wed Aug 28 05:26:00 BST 2024
User: biology
Spectrometer: FLMT08252
Trigger mode: 0
Integration Time (sec): 5.000000E-1
Scans to average: 5
Electric dark correction enabled: true
Nonlinearity correction enabled: false
Boxcar width: 0
XAxis mode: Wavelengths
Number of Pixels in Spectrum: 3648
>>>>>Begin Spectral Data<<<<<
179.588	-0
179.809	-0
180.03	-0
180.251	-0
180.473	-0
180.694	0
180.915	0
181.136	-0
181.357	0
181.578	0
181.799	-0
182.02	-0
182.241	0
182.462	-0
182.683	0
182.904	-0
183.125	-0
183.346	0
183.567	0
183.788	-0
184.009	-0
184.23	-0
184.451	0
184.672	-0
184.892	-0
185.113	0
185.334	0
185.555	-0
185.776	-0
185.996	-0
186.217	0
186.438	-0
186.659	-0
186.879	-0
187.1	-0
187.321	-0
187.541	-0
187.762	-0
187.983	-0
188.203	-0
188.424	-0
188.644	-0
188.865	-0
189.086	-0
189.306	-0
189.527	-0
189.747	0
189.968	-0
190.188	0
190.409	-0
190.629	0
190.849	-0
191.07	-0
191.29	0
191.511	-0
191.731	-0
191.951	-0
192.172	-0
192.392	-0
192.612	-0
192.833	-0
193.053	0
193.273	-0
193.493	-0
193.714	-0
193.934	0
194.154	0
194.374	-0
194.594	-0
194.815	-0
195.035	-0
195.255	0
195.475	-0
195.695	0
195.915	0
196.135	-0
196.355	0
196.575	0
196.795	-0
197.015	-0
197.235	-0
197.455	-0
197.675	-0
197.895	-0
198.115	-0
198.335	0
198.555	-0
198.775	-0
198.995	-0
199.214	0
199.434	-0
199.654	-0
199.874	-0
200.094	0.46
200.313	-0.57
200.533	-0.63
200.753	-1.21
200.973	0.47
201.192	0.09
201.412	-1.22
201.632	-0.36
201.851	0.53
202.071	-0.64
202.291	-0.57
202.51	-0.97
202.73	-0.08
202.95	-0.96
203.169	-0.9
203.389	-0.22
203.608	-0.2
203.828	-0.95
204.047	-0.55
204.267	0.45
204.486	0.2
204.706	0.17
204.925	-0.57
205.145	-0.07
205.364	0.38
205.583	0.46
205.803	-0.56
206.022	-0.91
206.242	-0.27
206.461	0.18
206.68	-0.74
206.9	0.01
207.119	0.22
207.338	0.62
207.557	-0.35
207.777	-0.13
207.996	-0.27
208.215	0.28
208.434	-0.15
208.654	-0.51
208.873	0.03
209.092	0.58
209.311	-0.45
209.53	-0.47
209.749	-0.25
209.968	-0.25
210.187	-0.1
210.407	-0.61
210.626	-0.2
210.845	0.12
211.064	-0.1
211.283	-0.43
211.502	-0.09
211.721	-0.03
211.94	-0.03
212.159	0.02
212.377	0.02
212.596	0.36
212.815	0.04
213.034	-0.08
213.253	0.15
213.472	0.14
213.691	-0.25
213.91	-0.26
214.128	-0.3
214.347	0.26
214.566	-0.41
214.785	-0.49
215.003	0.09
215.222	-0.02
215.441	-0.18
215.66	-0.53
215.878	-0.2
216.097	0.04
216.316	-0.38
216.534	-0.1
216.753	-0.04
216.972	-0.05
217.19	-0.07
217.409	-0.32
217.627	-0.16
217.846	-0.09
218.064	-0.07
218.283	-0.33
218.501	0.41
218.72	0.01
218.938	-0.27
219.157	-0.28
219.375	0.08
219.594	0.14
219.812	-0.31
220.031	-0.18
220.249	0.22
220.467	0.17
220.686	-0.18
220.904	-0.39
221.122	-0.32
221.341	0.4
221.559	0
221.777	-0.23
221.995	-0.08
222.214	0.14
222.432	-0.22
222.65	-0.02
222.868	-0.13
223.086	-0.17
223.305	0.16
223.523	-0.23
223.741	0.15
223.959	-0.06
224.177	-0.35
224.395	-0.19
224.613	-0.1
224.831	0.14
225.049	-0.32
225.267	-0.18
225.485	-0.05
225.703	-0.24
225.921	0.01
226.139	-0.06
226.357	0.04
226.575	0.01
226.793	-0.11
227.011	0.57
227.229	-0.07
227.447	0.1
227.665	-0.11
227.883	-0.25
228.1	-0.03
228.318	-0.03
228.536	-0.34
228.754	-0.2
228.972	-0.01
229.189	0.01
229.407	-0.15
229.625	-0.08
229.843	0.12
230.06	-0.06
230.278	-0.11
230.496	-0.04
230.713	-0.01
230.931	0.08
231.149	-0.08
231.366	-0.28
231.584	-0.17
231.801	0.32
232.019	-0.07
232.236	-0.23
232.454	-0.28
232.671	0.03
232.889	-0.08
233.106	-0.1
233.324	-0.08
233.541	-0.12
233.759	-0.01
233.976	-0.11
234.194	0
234.411	-0.1
234.628	-0.22
234.846	-0.18
235.063	-0.08
235.28	-0.07
235.498	-0.12
235.715	-0.22
235.932	0.14
236.149	-0.06
236.367	-0.21
236.584	0.03
236.801	-0.18
237.018	0.04
237.236	-0.11
237.453	-0.2
237.67	0.15
237.887	-0.07
238.104	-0.08
238.321	-0.16
238.538	-0.11
238.755	0.05
238.973	-0.3
239.19	-0.1
239.407	0.02
239.624	-0.03
239.841	-0.16
240.058	-0.21
240.275	0.06
240.492	-0.05
240.709	-0.05
240.925	-0.14
241.142	-0.02
241.359	-0.1
241.576	-0.12
241.793	-0.18
242.01	-0.06
242.227	0.05
242.444	-0.05
242.66	0.09
242.877	0.01
243.094	-0.07
243.311	-0.05
243.527	-0.09
243.744	0.01
243.961	0.02
244.178	-0.1
244.394	-0.12
244.611	0.12
244.828	0.08
245.044	-0.17
245.261	-0.05
245.477	-0.02
245.694	-0.02
245.911	-0.11
246.127	-0
246.344	0.08
246.56	0.04
246.777	-0.04
246.993	-0.08
247.21	-0.04
247.426	0.07
247.643	-0.11
247.859	-0.12
248.076	-0.03
248.292	0.16
248.508	-0.07
248.725	-0.04
248.941	-0.05
249.157	0.07
249.374	-0.15
249.59	-0.07
249.806	-0.03
250.023	-0.13
250.239	-0.07
250.455	-0.14
250.671	-0.11
250.888	0.05
251.104	-0.05
251.32	-0.09
251.536	-0.1
251.752	-0.06
251.969	-0.01
252.185	-0.11
252.401	0.17
252.617	-0.02
252.833	-0.05
253.049	-0.03
253.265	-0.02
253.481	-0.04
253.697	-0.1
253.913	-0.12
254.129	-0
254.345	-0.04
254.561	-0.06
254.777	-0.09
254.993	0.02
255.209	0.01
255.425	-0.09
255.641	-0.13
255.857	0.06
256.073	0.01
256.288	-0.13
256.504	-0.08
256.72	-0.03
256.936	0.1
257.152	-0.13
257.367	-0.16
257.583	-0.06
257.799	0.07
258.015	-0.09
258.23	-0.04
258.446	0.04
258.662	0.04
258.877	-0.02
259.093	-0.11
259.309	-0
259.524	-0.07
259.74	-0.11
259.955	-0.16
260.171	-0.07
260.387	-0.01
260.602	0.01
260.818	0.04
261.033	-0.09
261.249	-0
261.464	-0.15
261.68	-0.17
261.895	-0.01
262.11	0.05
262.326	-0.02
262.541	-0.16
262.757	0.03
262.972	-0.06
263.187	-0.02
263.403	-0.07
263.618	0.07
263.833	-0.01
264.049	-0.12
264.264	-0.03
264.479	0.05
264.694	0.11
264.91	-0.11
265.125	-0.04
265.34	-0.02
265.555	0.16
265.77	0.02
265.986	-0.03
266.201	0
266.416	0.04
266.631	-0.04
266.846	-0.06
267.061	0.03
267.276	0.01
267.491	-0.12
267.706	0.01
267.921	0.03
268.136	0.03
268.351	-0.05
268.566	-0.11
268.781	0.07
268.996	0.01
269.211	-0.01
269.426	-0.12
269.641	-0.05
269.856	0.05
270.071	-0.04
270.285	-0.13
270.5	0.05
270.715	-0
270.93	-0.1
271.145	-0.1
271.359	0.04
271.574	-0.03
271.789	-0.01
272.004	-0.11
272.218	-0.1
272.433	0.02
272.648	-0.08
272.862	0.04
273.077	-0.08
273.292	-0.06
273.506	-0.09
273.721	-0.03
273.936	-0.02
274.15	0.04
274.365	-0.04
274.579	-0.01
274.794	0.04
275.008	0.03
275.223	-0.1
275.437	-0.04
275.652	0.05
275.866	-0
276.081	0.01
276.295	-0.01
276.509	-0.06
276.724	-0.03
276.938	0.01
277.153	0.02
277.367	0.03
277.581	-0.04
277.796	-0.01
278.01	-0.09
278.224	-0.02
278.438	0.11
278.653	-0.11
278.867	-0.09
279.081	-0.23
279.295	-0.06
279.51	-0.03
279.724	-0.13
279.938	0.03
280.152	0.01
280.366	-0.12
280.58	0.01
280.794	0.07
281.008	0.01
281.222	0.01
281.437	0.1
281.651	-0
281.865	0.03
282.079	-0.06
282.293	-0.09
282.507	-0.07
282.721	-0.02
282.935	-0.03
283.148	-0.12
283.362	-0.04
283.576	-0.08
283.79	-0.02
284.004	-0.09
284.218	0.05
284.432	-0.05
284.646	-0.02
284.859	-0.06
285.073	-0.03
285.287	0.01
285.501	-0.04
285.714	-0.05
285.928	0.01
286.142	-0.03
286.356	-0.08
286.569	-0.1
286.783	0.08
286.997	0.05
287.21	-0
287.424	-0.01
287.637	-0.01
287.851	-0.02
288.065	-0.02
288.278	-0
288.492	-0.03
288.705	-0.03
288.919	-0.02
289.132	-0.08
289.346	0.07
289.559	-0.07
289.773	-0.09
289.986	-0.01
290.2	-0.06
290.413	0.07
290.626	-0.09
290.84	-0
291.053	0.01
291.267	0.03
291.48	-0.02
291.693	-0.01
291.906	-0.06
292.12	-0
292.333	-0.05
292.546	-0.03
292.76	0.08
292.973	0
293.186	0.03
293.399	-0.07
293.612	0.08
293.826	-0.02
294.039	-0.05
294.252	0
294.465	0.06
294.678	-0
294.891	-0.02
295.104	-0.08
295.317	-0.06
295.53	-0.01
295.743	-0.05
295.956	-0.02
296.169	0.07
296.382	-0.01
296.595	-0.05
296.808	-0.08
297.021	0.06
297.234	-0.01
297.447	-0.04
297.66	0.06
297.873	0.05
298.086	0.05
298.299	-0.08
298.511	-0.1
298.724	-0.04
298.937	-0.09
299.15	-0.05
299.363	-0.06
299.575	0.06
299.788	0.05
300.001	-0.04
300.213	-0.03
300.426	-0.04
300.639	-0.03
300.852	-0.06
301.064	0.05
301.277	0.04
301.489	0.05
301.702	-0.04
301.915	-0.02
302.127	-0.01
302.34	-0.01
302.552	0.01
302.765	-0.05
302.977	0.01
303.19	-0.07
303.402	-0.06
303.615	-0.03
303.827	-0.06
304.04	-0.01
304.252	0.01
304.464	-0.03
304.677	0.08
304.889	0.02
305.102	-0.05
305.314	-0.04
305.526	-0
305.739	0.03
305.951	-0.08
306.163	-0.02
306.375	0.08
306.588	-0.03
306.8	-0.04
307.012	-0.11
307.224	-0.02
307.436	0.07
307.649	-0.08
307.861	0
308.073	0.02
308.285	-0.06
308.497	-0.06
308.709	-0.06
308.921	0.04
309.133	-0
309.346	-0.01
309.558	-0.02
309.77	0.07
309.982	0.07
310.194	0.01
310.406	-0.06
310.617	0.03
310.829	-0.03
311.041	0.02
311.253	-0.1
311.465	0
311.677	-0.02
311.889	-0.02
312.101	-0.05
312.313	0.04
312.524	0.04
312.736	-0.08
312.948	-0.02
313.16	0.06
313.372	-0.01
313.583	0.03
313.795	-0.01
314.007	-0.03
314.218	-0
314.43	-0.01
314.642	-0.06
314.853	-0.08
315.065	0.06
315.277	-0.06
315.488	-0.01
315.7	0.01
315.912	-0.01
316.123	-0.02
316.335	-0.06
316.546	0.11
316.758	-0.03
316.969	-0.06
317.181	-0.02
317.392	-0.03
317.604	0.01
317.815	-0.05
318.026	-0.02
318.238	-0.03
318.449	-0.01
318.661	-0.09
318.872	-0.08
319.083	-0.11
319.295	-0.02
319.506	-0.05
319.717	-0.01
319.929	0.01
320.14	0.01
320.351	-0.02
320.562	-0.08
320.774	-0.02
320.985	0
321.196	-0.06
321.407	-0.06
321.618	0.02
321.829	0.03
322.041	0.04
322.252	0.01
322.463	0.02
322.674	0.04
322.885	-0.07
323.096	-0
323.307	0.02
323.518	0.01
323.729	-0.05
323.94	-0.04
324.151	-0
324.362	0.02
324.573	0.01
324.784	-0.06
324.995	0.02
325.206	0
325.417	-0.02
325.628	-0.03
325.838	-0.05
326.049	-0.02
326.26	-0.01
326.471	-0.02
326.682	-0.02
326.892	0.03
327.103	-0.12
327.314	-0.03
327.525	0.05
327.735	-0.04
327.946	-0.03
328.157	-0.05
328.368	-0
328.578	-0.02
328.789	0.03
328.999	-0.01
329.21	-0.07
329.421	0.03
329.631	-0.09
329.842	-0.03
330.052	-0.01
330.263	-0
330.473	0.01
330.684	-0.04
330.894	-0.03
331.105	0.01
331.315	-0.02
331.526	-0.11
331.736	0.04
331.947	0.02
332.157	0.04
332.367	-0.09
332.578	0.03
332.788	0.01
332.999	0.01
333.209	-0.02
333.419	-0.06
333.629	-0.02
333.84	0.01
334.05	-0.04
334.26	0.05
334.47	0.03
334.681	0.04
334.891	-0.04
335.101	0.02
335.311	0.04
335.521	-0.01
335.732	-0.07
335.942	0.02
336.152	0.01
336.362	0.01
336.572	-0
336.782	0
336.992	-0.05
337.202	-0.01
337.412	-0.06
337.622	0.04
337.832	-0.02
338.042	-0.04
338.252	-0.02
338.462	-0.08
338.672	-0.01
338.882	-0.08
339.092	-0.01
339.302	0.06
339.511	-0.05
339.721	-0.08
339.931	-0.07
340.141	0
340.351	0.02
340.561	0.01
340.77	-0.01
340.98	-0.01
341.19	0.02
341.4	-0.01
341.609	-0.07
341.819	-0.05
342.029	-0.04
342.238	0.01
342.448	-0.04
342.658	0
342.867	-0.01
343.077	0.01
343.286	0.02
343.496	0
343.706	0.04
343.915	-0.05
344.125	-0.03
344.334	0.02
344.544	-0.06
344.753	-0.06
344.963	-0.04
345.172	-0.02
345.381	-0.02
345.591	-0.06
345.8	-0
346.01	0.05
346.219	0
346.428	-0.16
346.638	-0.02
346.847	-0.03
347.056	0.05
347.266	-0.04
347.475	0.02
347.684	0.02
347.893	0.03
348.103	-0
348.312	-0.04
348.521	-0.04
348.73	-0.03
348.94	-0.03
349.149	-0.02
349.358	-0.05
349.567	-0.05
349.776	-0.06
349.985	-0.04
350.194	-0
350.403	0.02
350.612	-0.08
350.821	-0.04
351.03	-0.01
351.239	-0.03
351.448	-0.02
351.657	-0.01
351.866	0.01
352.075	-0.03
352.284	-0.08
352.493	-0.09
352.702	0.03
352.911	0.02
353.12	0.01
353.329	-0.06
353.538	0.01
353.746	-0.02
353.955	-0.06
354.164	-0
354.373	-0.03
354.582	0.03
354.79	-0.02
354.999	-0.03
355.208	-0
355.416	0.04
355.625	-0.11
355.834	-0.05
356.042	-0.02
356.251	-0.02
356.46	-0.06
356.668	-0.02
356.877	0.06
357.085	0.01
357.294	-0.09
357.503	0.03
357.711	-0.06
357.92	0.09
358.128	0.03
358.337	-0.02
358.545	0.02
358.754	-0.04
358.962	0
359.17	-0.05
359.379	0.01
359.587	-0.02
359.796	-0.01
360.004	0.01
360.212	0.02
360.421	0.03
360.629	-0.02
360.837	-0.03
361.046	0.04
361.254	0.09
361.462	0
361.67	-0.04
361.879	-0.04
362.087	0.01
362.295	-0.01
362.503	-0.03
362.711	-0.05
362.92	-0
363.128	-0.03
363.336	-0.07
363.544	-0.06
363.752	-0.02
363.96	-0.05
364.168	-0.03
364.376	-0.01
364.584	0.02
364.792	0.01
365	-0.02
365.208	-0.01
365.416	0.05
365.624	0.01
365.832	-0.02
366.04	0.05
366.248	-0.03
366.456	0
366.664	-0.03
366.872	-0.01
367.079	0
367.287	-0.01
367.495	-0
367.703	-0.03
367.911	-0.04
368.118	0
368.326	0
368.534	-0.06
368.742	0.04
368.949	-0.07
369.157	-0.02
369.365	0.03
369.572	-0.01
369.78	-0.07
369.988	0
370.195	-0.01
370.403	0.01
370.61	-0.02
370.818	0
371.026	0.01
371.233	-0.06
371.441	0.01
371.648	-0.07
371.856	0.01
372.063	-0.03
372.271	-0.05
372.478	-0.04
372.685	-0.03
372.893	-0.01
373.1	-0.02
373.308	-0.08
373.515	0.08
373.722	0.08
373.93	-0.02
374.137	0.01
374.344	0.08
374.552	-0.01
374.759	-0
374.966	-0.03
375.173	-0.02
375.381	0.02
375.588	-0.04
375.795	-0.08
376.002	-0.04
376.209	-0.06
376.417	-0.04
376.624	0.01
376.831	-0.03
377.038	0.02
377.245	-0.1
377.452	-0.01
377.659	-0
377.866	-0.05
378.073	-0.04
378.28	-0.06
378.487	0.03
378.694	-0.02
378.901	-0.04
379.108	0
379.315	-0
379.522	0.02
379.729	-0.03
379.936	-0.03
380.143	-0.01
380.35	-0.02
380.557	-0.04
380.763	-0.01
380.97	-0.02
381.177	-0.04
381.384	-0.01
381.591	-0.07
381.797	-0.04
382.004	0
382.211	0.01
382.418	-0.03
382.624	0.02
382.831	0.03
383.038	0
383.244	-0.03
383.451	-0.04
383.658	-0.01
383.864	-0.03
384.071	-0.04
384.277	0.06
384.484	0
384.69	0.04
384.897	-0.05
385.103	-0.01
385.31	-0.06
385.516	-0.09
385.723	-0.05
385.929	-0.03
386.136	-0.05
386.342	0.01
386.549	-0.02
386.755	0.01
386.961	-0.01
387.168	-0.06
387.374	-0.01
387.58	-0.01
387.787	-0.03
387.993	-0.03
388.199	-0.05
388.406	-0.02
388.612	-0.01
388.818	-0.07
389.024	-0.08
389.231	-0.02
389.437	0.03
389.643	-0.03
389.849	0.01
390.055	0.03
390.261	0
390.467	0.03
390.674	-0.07
390.88	-0.04
391.086	-0.03
391.292	-0.07
391.498	-0.02
391.704	-0.03
391.91	-0.03
392.116	-0.08
392.322	-0.08
392.528	-0.01
392.734	-0.01
392.94	-0.06
393.146	-0.02
393.352	-0.02
393.557	-0.04
393.763	-0.03
393.969	0.02
394.175	0.01
394.381	0.01
394.587	-0.03
394.792	-0.02
394.998	-0.02
395.204	0.03
395.41	-0.05
395.615	-0
395.821	-0.04
396.027	-0
396.233	-0.06
396.438	-0.03
396.644	0
396.85	0.02
397.055	-0.01
397.261	0.02
397.466	0.09
397.672	0.01
397.878	-0.02
398.083	-0.02
398.289	-0.07
398.494	-0.02
398.7	0
398.905	-0.12
399.111	0.02
399.316	-0.04
399.522	-0.03
399.727	-0.04
399.932	-0.05
400.138	-0.05
400.343	0.04
400.549	-0.02
400.754	-0.01
400.959	0.01
401.165	-0.04
401.37	-0
401.575	0.03
401.78	-0.03
401.986	-0.07
402.191	-0.07
402.396	-0.05
402.601	0
402.807	-0.02
403.012	-0.01
403.217	0.01
403.422	0.01
403.627	-0.03
403.832	-0.04
404.037	-0.01
404.243	-0
404.448	-0.04
404.653	-0.06
404.858	-0.03
405.063	0.02
405.268	-0.06
405.473	-0.06
405.678	-0.04
405.883	0.11
406.088	-0.01
406.293	-0.07
406.498	-0.09
406.703	-0.01
406.907	-0.03
407.112	-0.03
407.317	-0.05
407.522	-0.01
407.727	-0.09
407.932	-0.03
408.136	0.03
408.341	0.01
408.546	-0.01
408.751	0.03
408.956	-0.01
409.16	0
409.365	-0.1
409.57	-0.02
409.774	0
409.979	0.02
410.184	-0.01
410.388	-0.04
410.593	0.05
410.798	-0.03
411.002	-0.06
411.207	0.03
411.411	-0.01
411.616	-0.05
411.82	-0.04
412.025	0
412.229	-0.04
412.434	0.04
412.638	0.01
412.843	-0.06
413.047	-0
413.252	-0.07
413.456	-0.03
413.66	0.02
413.865	-0.05
414.069	0.04
414.273	-0.08
414.478	-0.04
414.682	-0.04
414.886	-0.02
415.091	-0.08
415.295	-0.11
415.499	0
415.703	-0.02
415.908	-0.01
416.112	-0.11
416.316	0.01
416.52	-0.05
416.724	-0.08
416.929	-0.07
417.133	0.09
417.337	-0.03
417.541	-0.03
417.745	-0.07
417.949	-0.04
418.153	-0.02
418.357	-0.09
418.561	0.07
418.765	-0.05
418.969	0.05
419.173	-0.01
419.377	-0.05
419.581	0.05
419.785	-0.04
419.989	-0.04
420.193	-0.07
420.397	-0.06
420.601	0.08
420.804	0.04
421.008	-0.05
421.212	0.01
421.416	-0
421.62	-0.06
421.823	-0.03
422.027	0.08
422.231	0.01
422.435	-0.02
422.638	-0.02
422.842	0.01
423.046	-0.03
423.249	-0.02
423.453	0
423.657	-0.01
423.86	-0.02
424.064	-0.06
424.268	-0
424.471	-0.04
424.675	0.04
424.878	0.05
425.082	-0.09
425.285	-0
425.489	-0.01
425.692	0.03
425.896	-0.07
426.099	0.05
426.303	-0.08
426.506	-0.12
426.71	-0.01
426.913	0.03
427.116	-0.02
427.32	-0.01
427.523	-0
427.726	0.06
427.93	-0.11
428.133	-0.02
428.336	-0.06
428.54	-0.04
428.743	0.01
428.946	0.02
429.149	-0.07
429.353	-0.06
429.556	-0.04
429.759	-0.05
429.962	-0.03
430.165	-0.02
430.368	0
430.571	-0.06
430.775	-0.02
430.978	-0
431.181	-0.02
431.384	-0.02
431.587	-0.03
431.79	-0.02
431.993	0
432.196	-0.04
432.399	-0.03
432.602	0.05
432.805	0.02
433.008	-0.05
433.211	-0.09
433.414	0.02
433.616	0.08
433.819	-0
434.022	-0.13
434.225	0.02
434.428	-0.03
434.631	0.06
434.833	-0.02
435.036	-0.06
435.239	0.02
435.442	0.01
435.645	-0.02
435.847	-0.01
436.05	-0.02
436.253	0.01
436.455	-0.07
436.658	-0.05
436.861	0.07
437.063	-0.07
437.266	-0
437.468	0.04
437.671	0.09
437.874	-0.03
438.076	-0.05
438.279	-0.09
438.481	-0.07
438.684	-0.08
438.886	0.01
439.089	-0.13
439.291	-0.03
439.494	0.02
439.696	-0.08
439.899	-0.04
440.101	-0.03
440.303	-0.08
440.506	-0.02
440.708	-0.02
440.91	-0
441.113	-0.06
441.315	0.06
441.517	-0.1
441.72	-0
441.922	-0.06
442.124	-0.07
442.326	0.01
442.529	0.05
442.731	-0.05
442.933	0.04
443.135	-0.02
443.337	-0.08
443.539	-0.06
443.742	-0.03
443.944	-0.01
444.146	-0.08
444.348	-0.02
444.55	-0.07
444.752	-0.06
444.954	-0.03
445.156	0.01
445.358	-0.05
445.56	-0.01
445.762	-0.06
445.964	-0.03
446.166	-0.04
446.368	-0.05
446.57	0.04
446.772	-0.02
446.974	-0.06
447.175	-0.02
447.377	-0.06
447.579	-0.04
447.781	-0.13
447.983	0.07
448.184	-0.03
448.386	-0.02
448.588	-0.13
448.79	-0
448.991	-0.04
449.193	0
449.395	-0.08
449.597	0
449.798	-0.07
450	-0.01
450.202	-0.01
450.403	-0.03
450.605	0.03
450.806	0.01
451.008	-0.12
451.21	-0.03
451.411	-0.05
451.613	-0.09
451.814	-0.06
452.016	0.05
452.217	-0.01
452.419	0.01
452.62	-0.06
452.821	-0.03
453.023	0.06
453.224	0.02
453.426	-0.02
453.627	-0.01
453.828	0.03
454.03	-0.04
454.231	-0.01
454.432	-0.07
454.634	0.13
454.835	-0.07
455.036	-0.11
455.238	0.04
455.439	0.02
455.64	-0.11
455.841	-0.04
456.042	0.01
456.244	0.02
456.445	-0.07
456.646	-0.08
456.847	-0.08
457.048	-0.03
457.249	0.04
457.45	0.22
457.651	-0.08
457.852	0.04
458.054	-0.04
458.255	-0.04
458.456	-0.02
458.657	0.02
458.858	-0.09
459.058	-0
459.259	0.03
459.46	-0.04
459.661	-0.03
459.862	0.07
460.063	-0.07
460.264	0.03
460.465	-0.11
460.666	0.06
460.866	-0.04
461.067	-0.02
461.268	-0.02
461.469	-0.06
461.67	-0.02
461.87	-0.03
462.071	-0.06
462.272	-0.09
462.473	-0.04
462.673	-0.01
462.874	-0.07
463.075	0
463.275	-0.06
463.476	-0.02
463.676	0.01
463.877	-0.04
464.078	-0.02
464.278	0
464.479	-0.06
464.679	-0.05
464.88	-0.03
465.08	0.05
465.281	-0.06
465.481	-0.04
465.682	-0.06
465.882	0.01
466.083	-0.01
466.283	-0.04
466.483	-0.04
466.684	-0.07
466.884	-0.02
467.085	-0.03
467.285	0.03
467.485	-0.06
467.686	-0.05
467.886	-0.03
468.086	-0.03
468.286	-0.04
468.487	-0.02
468.687	-0.06
468.887	-0.03
469.087	-0.01
469.287	-0.04
469.488	-0.02
469.688	0.02
469.888	-0.01
470.088	0.02
470.288	0.01
470.488	0.04
470.688	-0.04
470.888	-0.06
471.088	-0.06
471.288	0.01
471.488	0.01
471.688	-0.02
471.888	-0.02
472.088	0.03
472.288	0.04
472.488	-0.03
472.688	-0.08
472.888	-0.01
473.088	-0.03
473.288	-0.06
473.488	-0.05
473.688	0.07
473.887	0.04
474.087	-0.06
474.287	-0.02
474.487	-0.06
474.687	0.02
474.886	-0.03
475.086	-0.04
475.286	0
475.486	-0.01
475.685	-0.03
475.885	-0.02
476.085	-0
476.284	0.03
476.484	-0.03
476.684	0.04
476.883	0.05
477.083	0
477.282	-0.05
477.482	0.03
477.681	0.04
477.881	0.02
478.08	-0.05
478.28	-0.06
478.479	0.01
478.679	0.06
478.878	-0.03
479.078	-0.03
479.277	-0.04
479.477	-0.02
479.676	0.01
479.875	0
480.075	-0.06
480.274	-0.01
480.473	0.02
480.673	-0.05
480.872	0.03
481.071	-0
481.271	0.01
481.47	-0.04
481.669	-0.05
481.868	-0.03
482.067	-0.04
482.267	-0.02
482.466	-0.05
482.665	-0.07
482.864	-0.04
483.063	-0.03
483.262	0.03
483.461	0.02
483.661	0.05
483.86	-0.03
484.059	-0.03
484.258	-0.02
484.457	-0.03
484.656	-0.01
484.855	0.04
485.054	-0.06
485.253	-0.03
485.452	-0.06
485.651	-0.01
485.849	-0.01
486.048	-0.06
486.247	-0.04
486.446	-0.02
486.645	-0.03
486.844	-0.06
487.043	-0.03
487.241	-0
487.44	-0.04
487.639	-0.03
487.838	0.02
488.037	-0.01
488.235	0.02
488.434	-0.02
488.633	-0.03
488.831	0
489.03	0.02
489.229	-0
489.427	-0.02
489.626	0.03
489.825	0.03
490.023	-0.02
490.222	-0.04
490.42	0
490.619	0.02
490.817	-0.01
491.016	-0.02
491.214	0.02
491.413	-0.02
491.611	-0.03
491.81	-0
492.008	0.02
492.207	0
492.405	-0.01
492.604	-0.03
492.802	-0.04
493	-0
493.199	-0.03
493.397	-0.01
493.595	-0.01
493.794	-0.01
493.992	0.03
494.19	-0.03
494.388	-0.01
494.587	0
494.785	-0.01
494.983	-0.05
495.181	-0.01
495.379	-0.01
495.578	-0.02
495.776	-0
495.974	-0.01
496.172	-0.01
496.37	-0.01
496.568	-0.03
496.766	-0.04
496.964	0.02
497.162	-0.01
497.36	-0.04
497.558	0.02
497.756	0.02
497.954	-0.02
498.152	-0.04
498.35	-0.02
498.548	-0.02
498.746	0
498.944	-0.03
499.142	-0.01
499.34	-0.05
499.538	0
499.736	-0.02
499.933	0.04
500.131	0.03
500.329	-0.02
500.527	0.02
500.725	0.02
500.922	0.01
501.12	-0.03
501.318	0
501.516	-0.03
501.713	0.02
501.911	-0.01
502.109	-0.04
502.306	-0.01
502.504	-0.01
502.701	-0.03
502.899	-0.01
503.097	0.03
503.294	0.01
503.492	-0.03
503.689	0.01
503.887	0.01
504.084	0.05
504.282	-0.01
504.479	-0.02
504.677	0.03
504.874	-0.03
505.072	-0
505.269	-0.02
505.466	-0.01
505.664	0.01
505.861	-0.06
506.059	-0.03
506.256	0.03
506.453	-0.03
506.651	0.04
506.848	0.02
507.045	0.01
507.242	-0
507.44	-0.02
507.637	0
507.834	-0.01
508.031	0.01
508.229	-0.03
508.426	0.01
508.623	0.01
508.82	-0.03
509.017	-0.05
509.214	0
509.411	-0
509.608	-0.04
509.805	0
510.003	-0.03
510.2	-0.03
510.397	0.01
510.594	-0.02
510.791	-0.02
510.988	-0.02
511.184	0.02
511.381	-0
511.578	-0.03
511.775	0.01
511.972	-0.01
512.169	-0.01
512.366	-0.02
512.563	0
512.76	-0.02
512.956	0.03
513.153	-0.01
513.35	0.01
513.547	-0.03
513.744	-0.02
513.94	-0.03
514.137	0.02
514.334	-0.01
514.53	-0
514.727	-0
514.924	0.04
515.12	-0.02
515.317	-0.02
515.514	-0.02
515.71	0.01
515.907	0
516.103	0
516.3	0.02
516.497	0.02
516.693	0.06
516.89	0.02
517.086	-0.02
517.283	0.01
517.479	0.02
517.676	-0.03
517.872	0
518.068	-0.01
518.265	0
518.461	-0.01
518.658	-0.02
518.854	0.01
519.05	0
519.247	-0.01
519.443	0
519.639	0.01
519.836	0
520.032	-0
520.228	0
520.424	0.05
520.621	0.04
520.817	-0.01
521.013	0.01
521.209	0.01
521.405	0.06
521.601	-0.01
521.798	0.02
521.994	0.05
522.19	-0.02
522.386	-0.03
522.582	0
522.778	-0
522.974	-0.01
523.17	-0.01
523.366	0.01
523.562	0.04
523.758	0.01
523.954	0
524.15	-0.02
524.346	0.03
524.542	-0.01
524.738	-0.01
524.934	0.02
525.129	-0.06
525.325	-0.01
525.521	0
525.717	0.03
525.913	0.01
526.109	0
526.304	-0
526.5	0.01
526.696	0.02
526.892	0.01
527.087	0.03
527.283	-0.02
527.479	0.03
527.674	-0.01
527.87	0.01
528.066	-0.01
528.261	0.02
528.457	0.02
528.653	0
528.848	-0
529.044	0.02
529.239	0
529.435	0.04
529.63	-0
529.826	0.06
530.021	-0
530.217	0.02
530.412	-0.01
530.608	-0.03
530.803	0
530.999	0.01
531.194	-0.04
531.389	0.02
531.585	-0.02
531.78	-0.01
531.975	-0
532.171	0.04
532.366	0.01
532.561	0.01
532.757	0
532.952	-0.02
533.147	0.03
533.342	-0
533.538	-0.02
533.733	0.03
533.928	0.01
534.123	0.02
534.318	-0.02
534.513	0.01
534.709	-0.01
534.904	-0.02
535.099	-0.01
535.294	0
535.489	-0.01
535.684	-0.01
535.879	-0.03
536.074	0.01
536.269	-0.01
536.464	0.02
536.659	-0.01
536.854	-0.01
537.049	0.01
537.244	0
537.439	-0.01
537.634	0.01
537.828	0
538.023	-0
538.218	-0.04
538.413	-0.01
538.608	-0.03
538.803	0.01
538.997	-0.01
539.192	0.03
539.387	0.02
539.582	0.01
539.776	0.01
539.971	-0.01
540.166	-0.02
540.36	-0.03
540.555	-0
540.75	-0.01
540.944	-0
541.139	-0.03
541.334	-0.01
541.528	0.03
541.723	0.01
541.917	-0.01
542.112	-0.04
542.306	-0
542.501	-0.01
542.695	0
542.89	-0.03
543.084	-0
543.279	-0.01
543.473	-0.01
543.668	-0.02
543.862	-0.01
544.056	0.01
544.251	-0.01
544.445	0.01
544.64	-0.02
544.834	-0.03
545.028	-0.01
545.222	0.01
545.417	0.02
545.611	0.02
545.805	-0
546	-0
546.194	-0.01
546.388	-0.02
546.582	0.02
546.776	-0.01
546.97	-0.02
547.165	-0
547.359	0.02
547.553	-0.02
547.747	-0
547.941	-0.02
548.135	-0
548.329	0.01
548.523	0
548.717	-0.01
548.911	-0.02
549.105	-0.01
549.299	-0.01
549.493	0
549.687	-0.01
549.881	-0.01
550.075	-0.03
550.269	-0.03
550.463	0.02
550.657	-0.03
550.85	-0.02
551.044	-0.03
551.238	0
551.432	-0.01
551.626	-0.05
551.82	0.01
552.013	-0.02
552.207	0.01
552.401	-0.01
552.594	-0.01
552.788	-0.01
552.982	0.01
553.176	-0.02
553.369	-0.01
553.563	0
553.756	-0.06
553.95	-0.01
554.144	-0
554.337	-0
554.531	-0
554.724	-0.01
554.918	-0.02
555.111	0.01
555.305	-0.01
555.498	0.03
555.692	0.02
555.885	-0
556.079	0.01
556.272	-0.04
556.466	0.04
556.659	-0
556.852	-0.03
557.046	-0.01
557.239	0.02
557.432	-0.04
557.626	-0.02
557.819	0
558.012	0
558.206	-0
558.399	-0.01
558.592	-0
558.785	-0.02
558.979	0.01
559.172	-0.01
559.365	-0
559.558	0.01
559.751	-0.02
559.944	0
560.138	-0.04
560.331	-0.02
560.524	-0.04
560.717	-0.02
560.91	-0.03
561.103	-0.01
561.296	0.01
561.489	0.01
561.682	-0.02
561.875	0.04
562.068	0.02
562.261	-0.01
562.454	0.04
562.647	0.01
562.84	-0
563.032	-0.03
563.225	0.01
563.418	-0.01
563.611	-0.02
563.804	-0.02
563.997	-0.02
564.19	-0.05
564.382	-0.01
564.575	-0
564.768	-0
564.961	-0.01
565.153	-0.03
565.346	0.04
565.539	0.01
565.731	0.01
565.924	0.01
566.117	0.01
566.309	0.01
566.502	-0.03
566.695	0.02
566.887	-0.01
567.08	-0.03
567.272	-0.01
567.465	-0.02
567.657	0
567.85	-0.01
568.042	0
568.235	0.02
568.427	-0.01
568.62	-0.01
568.812	0.02
569.005	-0.02
569.197	-0.04
569.389	-0
569.582	0.03
569.774	-0.01
569.966	-0.05
570.159	-0
570.351	-0
570.543	-0.03
570.736	-0.01
570.928	-0.05
571.12	0
571.312	-0.03
571.505	-0.05
571.697	0.04
571.889	-0.02
572.081	-0.01
572.273	-0.03
572.465	0.01
572.658	-0
572.85	0.01
573.042	-0.01
573.234	-0.02
573.426	0.06
573.618	-0.04
573.81	-0.01
574.002	0.03
574.194	0.02
574.386	-0.06
574.578	-0.08
574.77	-0.04
574.962	-0.02
575.154	-0.04
575.346	-0
575.538	-0.01
575.729	-0.04
575.921	-0.05
576.113	-0.02
576.305	0.02
576.497	-0.02
576.689	-0.02
576.88	-0.04
577.072	0.01
577.264	-0.03
577.456	-0.02
577.647	-0.09
577.839	0.01
578.031	0.03
578.223	-0.04
578.414	-0.04
578.606	-0.01
578.798	-0
578.989	-0.03
579.181	-0.05
579.372	-0.02
579.564	-0.04
579.755	-0
579.947	0.01
580.139	0.01
580.33	-0.03
580.522	-0.04
580.713	-0.09
580.905	-0.02
581.096	-0
581.287	-0.03
581.479	-0
581.67	0.02
581.862	-0.02
582.053	-0.04
582.244	-0.06
582.436	0
582.627	-0.01
582.818	-0.03
583.01	-0.05
583.201	0
583.392	0.01
583.583	0
583.775	-0.03
583.966	-0.03
584.157	-0.02
584.348	-0.02
584.54	-0.05
584.731	0.01
584.922	-0.02
585.113	-0.05
585.304	-0.02
585.495	0.01
585.686	0
585.877	-0
586.068	0.02
586.259	-0.01
586.45	-0
586.641	-0.05
586.832	-0.08
587.023	-0.01
587.214	-0.03
587.405	0.01
587.596	-0.04
587.787	-0
587.978	-0.03
588.169	-0.04
588.36	-0.05
588.551	0.02
588.742	-0.03
588.932	0
589.123	-0.03
589.314	0.02
589.505	-0
589.696	-0
589.886	-0.04
590.077	-0.06
590.268	-0.01
590.458	-0.05
590.649	-0.06
590.84	0.03
591.03	-0.04
591.221	-0.05
591.412	-0.06
591.602	0.02
591.793	0.04
591.984	-0.07
592.174	-0.03
592.365	0.05
592.555	-0.03
592.746	-0.01
592.936	0
593.127	-0
593.317	0.03
593.508	-0.04
593.698	-0.05
593.889	-0.04
594.079	-0.02
594.269	-0.02
594.46	0
594.65	-0.02
594.84	-0
595.031	-0.04
595.221	-0.02
595.411	-0.05
595.602	0.02
595.792	-0.03
595.982	-0.05
596.172	0.02
596.363	0
596.553	-0
596.743	-0.02
596.933	-0.02
597.123	0.03
597.314	-0.04
597.504	-0.05
597.694	0.02
597.884	-0.01
598.074	-0.05
598.264	-0.05
598.454	0.02
598.644	-0.03
598.834	-0.04
599.024	-0.1
599.214	-0.03
599.404	-0.01
599.594	-0.03
599.784	-0.04
599.974	-0.01
600.164	-0.01
600.354	-0.04
600.544	-0.05
600.734	-0.02
600.924	0.03
601.114	-0.01
601.303	-0.02
601.493	0.02
601.683	-0.05
601.873	-0
602.063	-0.06
602.252	0.03
602.442	-0.08
602.632	-0.05
602.821	-0.07
603.011	-0.01
603.201	-0.03
603.39	-0.04
603.58	-0.06
603.77	-0.03
603.959	-0.01
604.149	-0.01
604.339	-0.04
604.528	0.02
604.718	-0.02
604.907	-0.03
605.097	-0.03
605.286	-0.03
605.476	0.01
605.665	-0
605.855	-0.04
606.044	0.04
606.234	-0.01
606.423	-0.03
606.612	-0.04
606.802	0
606.991	0.01
607.181	-0
607.37	-0.06
607.559	-0.02
607.749	-0.07
607.938	-0.01
608.127	-0.04
608.316	-0.04
608.506	0
608.695	-0.03
608.884	-0.05
609.073	-0.03
609.263	0.04
609.452	0.02
609.641	-0.03
609.83	-0.05
610.019	-0.03
610.208	-0.04
610.397	-0.02
610.586	0.02
610.775	-0.03
610.965	-0.06
611.154	-0.04
611.343	-0.05
611.532	0
611.721	-0.06
611.91	-0.06
612.099	-0.01
612.287	-0.03
612.476	-0.06
612.665	-0.03
612.854	-0.03
613.043	0.01
613.232	-0.03
613.421	-0.06
613.61	-0.02
613.798	-0.03
613.987	0.01
614.176	-0.03
614.365	0.01
614.554	-0.01
614.742	0.02
614.931	-0.01
615.12	0.02
615.309	-0.02
615.497	-0.02
615.686	-0.03
615.875	-0.01
616.063	0
616.252	-0.03
616.44	-0.05
616.629	0.03
616.818	0
617.006	-0.01
617.195	-0.02
617.383	-0.02
617.572	-0.01
617.76	-0.03
617.949	-0.04
618.137	0.01
618.326	0.01
618.514	-0.03
618.703	-0.04
618.891	0.05
619.079	-0.09
619.268	0
619.456	-0.07
619.644	-0.01
619.833	0.01
620.021	-0.03
620.209	-0.08
620.398	0.01
620.586	-0.02
620.774	-0.03
620.962	-0.04
621.151	0.03
621.339	-0.01
621.527	-0.06
621.715	-0.03
621.903	-0.07
622.092	-0.07
622.28	-0.03
622.468	-0.03
622.656	-0.06
622.844	0
623.032	-0.04
623.22	-0.06
623.408	0.03
623.596	-0
623.784	-0
623.972	-0.02
624.16	-0.03
624.348	0.04
624.536	-0.04
624.724	-0.05
624.912	0.01
625.1	-0.02
625.288	-0.07
625.476	-0.04
625.664	-0
625.851	-0.08
626.039	-0.04
626.227	0.01
626.415	-0.04
626.603	-0.08
626.79	-0.03
626.978	-0.04
627.166	-0
627.354	-0.02
627.541	-0.05
627.729	-0.06
627.917	-0.01
628.104	0.02
628.292	-0
628.48	-0.02
628.667	-0.01
628.855	-0.03
629.042	-0
629.23	-0.06
629.418	-0.02
629.605	-0.01
629.793	-0.05
629.98	-0.04
630.168	-0.02
630.355	-0.03
630.543	-0
630.73	-0.05
630.917	-0
631.105	0.07
631.292	-0.02
631.48	-0.03
631.667	0.05
631.854	0.02
632.042	-0.01
632.229	-0.08
632.416	-0.02
632.604	-0.05
632.791	-0.08
632.978	-0
633.165	0.01
633.353	0.05
633.54	0.01
633.727	-0.1
633.914	-0.05
634.101	-0.06
634.289	0.04
634.476	-0.04
634.663	-0.06
634.85	0
635.037	-0.08
635.224	-0.1
635.411	0.01
635.598	0
635.785	-0.04
635.972	-0
636.159	0.02
636.346	-0.03
636.533	-0
636.72	-0.02
636.907	-0.04
637.094	0
637.281	-0.03
637.468	0.01
637.655	-0.02
637.842	0.01
638.029	-0.05
638.215	-0.02
638.402	-0.02
638.589	-0.05
638.776	-0.03
638.963	-0.04
639.149	-0.03
639.336	0.06
639.523	-0.03
639.709	-0.04
639.896	-0.01
640.083	0.03
640.27	-0.01
640.456	-0.07
640.643	-0.01
640.829	-0.09
641.016	-0.08
641.203	-0.08
641.389	0.04
641.576	0
641.762	0.01
641.949	-0.03
642.135	-0.01
642.322	0.01
642.508	-0.07
642.695	-0.02
642.881	-0.03
643.068	-0.02
643.254	-0.03
643.441	0.01
643.627	-0.01
643.813	-0.05
644	0.04
644.186	-0.04
644.372	-0
644.559	0.01
644.745	-0.02
644.931	-0.02
645.118	-0.03
645.304	-0.01
645.49	-0.04
645.676	-0.03
645.862	0.01
646.049	0.05
646.235	-0.03
646.421	0.06
646.607	0.05
646.793	-0.03
646.979	-0.05
647.165	-0.02
647.352	-0.01
647.538	0.01
647.724	-0.01
647.91	-0.01
648.096	0.01
648.282	-0.02
648.468	-0.05
648.654	0
648.84	-0.02
649.026	-0.03
649.212	0.01
649.397	-0.06
649.583	-0.09
649.769	0.03
649.955	-0.04
650.141	0.02
650.327	0.06
650.513	-0.07
650.698	0.01
650.884	-0.08
651.07	0.01
651.256	-0.03
651.442	-0.01
651.627	-0.05
651.813	-0.01
651.999	-0.03
652.184	-0.01
652.37	-0.03
652.556	-0.03
652.741	0.01
652.927	-0.09
653.113	-0.02
653.298	-0.01
653.484	-0.01
653.669	-0.07
653.855	-0.05
654.04	0.02
654.226	-0.01
654.412	-0.04
654.597	-0.08
654.782	-0
654.968	0.02
655.153	-0.03
655.339	-0.04
655.524	-0.08
655.71	0.01
655.895	-0.05
656.08	-0.02
656.266	-0.01
656.451	-0.01
656.636	-0.03
656.822	-0.02
657.007	-0.07
657.192	-0.04
657.378	-0.07
657.563	-0.02
657.748	0.01
657.933	0.01
658.118	-0.04
658.304	-0.03
658.489	0
658.674	-0.01
658.859	-0.08
659.044	-0.03
659.229	-0.02
659.414	-0.04
659.599	-0.04
659.785	-0.08
659.97	-0.04
660.155	0.02
660.34	-0
660.525	0.01
660.71	-0.05
660.895	-0
661.08	-0.04
661.264	-0.04
661.449	0.01
661.634	0.03
661.819	-0.04
662.004	0
662.189	-0.1
662.374	-0.02
662.559	-0.07
662.743	-0.09
662.928	-0.06
663.113	-0.06
663.298	-0.11
663.483	-0.03
663.667	-0.03
663.852	-0.05
664.037	0.02
664.221	-0.05
664.406	0.01
664.591	-0.04
664.775	-0.03
664.96	-0.01
665.145	-0
665.329	0.02
665.514	-0.04
665.698	-0.02
665.883	-0.14
666.068	0.03
666.252	-0.02
666.437	-0.07
666.621	-0.04
666.806	0.04
666.99	-0.06
667.174	-0.08
667.359	0.04
667.543	-0.06
667.728	-0.04
667.912	-0.08
668.096	0.02
668.281	-0.05
668.465	-0.04
668.649	0.02
668.834	-0.04
669.018	-0.03
669.202	-0.07
669.387	-0.06
669.571	0
669.755	-0.08
669.939	-0.03
670.124	-0.02
670.308	0.07
670.492	-0
670.676	-0.03
670.86	-0.02
671.044	-0.06
671.228	0.03
671.413	-0.06
671.597	-0.06
671.781	-0.06
671.965	0.02
672.149	-0.02
672.333	-0.06
672.517	-0.06
672.701	0.01
672.885	-0.02
673.069	-0.07
673.253	0.03
673.437	-0.05
673.621	-0.05
673.804	-0.02
673.988	-0.01
674.172	-0.01
674.356	-0.06
674.54	-0.01
674.724	0.08
674.908	-0.02
675.091	0.03
675.275	-0.05
675.459	0.01
675.643	0.02
675.826	0
676.01	-0.02
676.194	-0.03
676.377	0.02
676.561	0.03
676.745	0.02
676.928	-0.04
677.112	0.02
677.296	-0.03
677.479	-0.07
677.663	-0.03
677.846	-0.02
678.03	0.01
678.213	-0.03
678.397	-0.01
678.58	-0.03
678.764	-0.02
678.947	-0.08
679.131	-0.04
679.314	0
679.498	-0.05
679.681	0.03
679.865	-0.01
680.048	-0.04
680.231	-0.03
680.415	-0.03
680.598	-0.05
680.781	-0.04
680.965	-0.03
681.148	-0.01
681.331	-0.03
681.514	0.01
681.698	0.01
681.881	-0
682.064	-0.01
682.247	-0.05
682.43	-0.09
682.614	-0.02
682.797	-0
682.98	0
683.163	-0.07
683.346	-0
683.529	-0.05
683.712	-0.06
683.895	0
684.078	-0.11
684.261	-0.04
684.444	-0.01
684.627	-0.02
684.81	-0.04
684.993	-0.04
685.176	0
685.359	-0.1
685.542	-0.03
685.725	0.06
685.908	-0.04
686.091	-0.07
686.274	0
686.457	0.01
686.639	-0.02
686.822	-0.02
687.005	-0.02
687.188	0.04
687.371	0.04
687.553	-0.06
687.736	-0.03
687.919	0.12
688.102	0.01
688.284	-0.02
688.467	-0.02
688.65	0.01
688.832	-0.05
689.015	-0.04
689.197	-0.11
689.38	0.08
689.563	0.05
689.745	-0.08
689.928	-0.05
690.11	-0.04
690.293	0.01
690.475	-0.08
690.658	-0.06
690.84	-0.05
691.023	-0.11
691.205	-0.06
691.388	-0
691.57	0.06
691.752	0.02
691.935	-0.11
692.117	-0.07
692.3	-0.04
692.482	-0.03
692.664	-0.08
692.847	0
693.029	0.01
693.211	0.05
693.393	-0.05
693.576	-0.06
693.758	-0.01
693.94	-0.04
694.122	-0.07
694.304	-0.03
694.487	-0.07
694.669	0.03
694.851	-0.08
695.033	-0.01
695.215	-0.08
695.397	-0.07
695.579	-0.04
695.761	-0.03
695.943	-0.13
696.125	0.01
696.308	-0.01
696.49	-0.14
696.671	0.05
696.853	0.02
697.035	0.07
697.217	-0.01
697.399	-0.01
697.581	-0.03
697.763	-0.03
697.945	-0.05
698.127	-0.02
698.309	-0.12
698.491	-0.04
698.672	0.01
698.854	0.02
699.036	0.08
699.218	-0.03
699.399	0
699.581	0.04
699.763	-0.05
699.945	-0.02
700.126	-0.09
700.308	0.03
700.49	-0.08
700.671	-0.12
700.853	-0.11
701.035	-0.07
701.216	-0.04
701.398	-0.07
701.579	-0.06
701.761	0.03
701.943	-0.08
702.124	-0.11
702.306	-0.03
702.487	0.08
702.669	-0.02
702.85	-0.09
703.031	-0.11
703.213	0.07
703.394	0.04
703.576	-0.06
703.757	0.04
703.938	-0.03
704.12	0.22
704.301	-0.05
704.483	-0.06
704.664	0.02
704.845	0.14
705.026	0
705.208	-0.01
705.389	-0.02
705.57	-0.03
705.751	-0.08
705.933	0.01
706.114	0.05
706.295	-0.06
706.476	-0.04
706.657	0.05
706.838	-0
707.02	0.06
707.201	-0.1
707.382	-0.08
707.563	0.03
707.744	-0.04
707.925	-0.14
708.106	-0.1
708.287	-0.04
708.468	0.07
708.649	-0.08
708.83	0.07
709.011	-0.07
709.192	0.01
709.373	-0.09
709.554	-0.05
709.734	-0.01
709.915	0.01
710.096	-0.02
710.277	-0.16
710.458	0.03
710.639	0.03
710.819	-0.12
711	-0.06
711.181	0.01
711.362	0.05
711.542	-0.05
711.723	-0.03
711.904	0.07
712.085	0.08
712.265	0
712.446	-0.07
712.627	-0.12
712.807	-0.02
712.988	-0.12
713.168	-0.09
713.349	-0.02
713.53	-0.12
713.71	-0.1
713.891	-0.07
714.071	-0.02
714.252	-0.03
714.432	-0.05
714.613	-0.11
714.793	-0.03
714.974	0.12
715.154	0.01
715.334	0.03
715.515	0.05
715.695	-0.05
715.876	-0
716.056	-0.1
716.236	-0.1
716.417	0
716.597	-0.11
716.777	0.14
716.957	-0.01
717.138	0.04
717.318	-0.01
717.498	-0.13
717.678	-0.01
717.859	-0.05
718.039	-0.1
718.219	-0.02
718.399	-0.03
718.579	-0.05
718.759	-0.05
718.939	-0.03
719.12	-0.09
719.3	-0.02
719.48	-0.1
719.66	-0.15
719.84	-0.01
720.02	-0.06
720.2	-0.06
720.38	-0.01
720.56	0.04
720.74	-0.04
720.92	0.02
721.1	0.04
721.279	0.11
721.459	-0.04
721.639	-0.11
721.819	-0.07
721.999	-0.02
722.179	-0.04
722.359	-0.18
722.538	-0.02
722.718	-0.05
722.898	-0.09
723.078	-0.1
723.257	-0.07
723.437	-0.05
723.617	0.04
723.797	-0.1
723.976	-0.13
724.156	0.02
724.336	0.03
724.515	0.1
724.695	-0.18
724.874	-0.05
725.054	0.03
725.234	-0.13
725.413	0.01
725.593	-0.05
725.772	-0.08
725.952	-0.06
726.131	-0.07
726.311	-0.03
726.49	-0.1
726.67	-0.11
726.849	-0.07
727.028	-0.03
727.208	-0.04
727.387	0.01
727.567	-0.17
727.746	-0.03
727.925	-0.06
728.105	-0.12
728.284	-0.01
728.463	-0.05
728.643	0.02
728.822	-0.21
729.001	-0.14
729.18	-0.03
729.359	0.04
729.539	-0.09
729.718	-0.08
729.897	0.01
730.076	-0.08
730.255	-0.12
730.434	0.07
730.614	0.05
730.793	0.09
730.972	-0.13
731.151	-0.04
731.33	0.07
731.509	0.02
731.688	-0.07
731.867	-0.06
732.046	-0.11
732.225	0.23
732.404	-0.11
732.583	-0.13
732.762	-0.04
732.941	-0.03
733.12	0.01
733.298	-0.1
733.477	0.11
733.656	-0.1
733.835	-0.1
734.014	-0
734.193	-0.22
734.371	-0.03
734.55	0.03
734.729	-0.18
734.908	-0
735.086	0.04
735.265	-0.04
735.444	-0.1
735.623	-0.19
735.801	-0.18
735.98	-0.01
736.159	-0.01
736.337	0
736.516	-0.06
736.694	-0.07
736.873	-0.13
737.052	-0.02
737.23	0.03
737.409	-0.12
737.587	0.12
737.766	-0.23
737.944	-0.16
738.123	0.08
738.301	0.05
738.479	0.06
738.658	-0.02
738.836	-0.22
739.015	-0.01
739.193	-0.01
739.371	-0.17
739.55	-0.13
739.728	-0.11
739.906	-0
740.085	0.12
740.263	0.03
740.441	-0.16
740.62	0.22
740.798	0.03
740.976	-0.12
741.154	-0.12
741.332	0.11
741.511	-0.15
741.689	0.01
741.867	-0.01
742.045	-0.03
742.223	0.06
742.401	-0.11
742.579	-0.25
742.757	0.01
742.935	-0.18
743.114	-0.08
743.292	-0.12
743.47	-0.11
743.648	-0.06
743.826	-0.03
744.004	0.05
744.181	0.02
744.359	-0.01
744.537	-0.04
744.715	-0.1
744.893	-0.09
745.071	-0.03
745.249	-0.03
745.427	-0.08
745.605	0.04
745.782	-0.02
745.96	0.01
746.138	-0.02
746.316	-0.03
746.493	-0.03
746.671	0.02
746.849	-0.06
747.027	0.11
747.204	-0.07
747.382	0.06
747.56	-0.12
747.737	0.02
747.915	-0.13
748.093	-0.01
748.27	-0.16
748.448	-0.11
748.625	-0.19
748.803	-0.12
748.98	-0.23
749.158	0
749.335	0
749.513	-0.03
749.69	-0.04
749.868	0.01
750.045	-0.03
750.223	-0.06
750.4	-0.21
750.578	0.05
750.755	-0.06
750.932	-0.15
751.11	0.01
751.287	-0.1
751.464	0.07
751.642	-0.09
751.819	-0.01
751.996	-0.03
752.173	-0.2
752.351	-0.14
752.528	-0.02
752.705	-0.07
752.882	-0.17
753.06	-0.03
753.237	0.1
753.414	0.15
753.591	0.05
753.768	-0.07
753.945	-0.07
754.122	-0.04
754.299	0.06
754.476	-0.16
754.654	-0.02
754.831	0.02
755.008	0.03
755.185	-0.07
755.362	-0.22
755.539	-0.07
755.716	-0.07
755.892	0.02
756.069	-0.1
756.246	-0.06
756.423	-0.15
756.6	0.11
756.777	-0.06
756.954	0.08
757.131	-0.05
757.307	-0.21
757.484	-0.19
757.661	-0.02
757.838	0.06
758.015	-0.19
758.191	-0
758.368	0.06
758.545	0.07
758.721	-0.01
758.898	-0.12
759.075	-0.03
759.251	-0.02
759.428	0.02
759.605	-0.08
759.781	-0.04
759.958	-0.02
760.134	-0.07
760.311	-0.14
760.488	0.01
760.664	-0.02
760.841	-0.17
761.017	-0.24
761.194	0.04
761.37	0.06
761.547	-0.04
761.723	0.02
761.899	0.12
762.076	-0.13
762.252	-0.15
762.429	-0.11
762.605	0
762.781	-0
762.958	0.13
763.134	-0.07
763.31	-0.16
763.486	0.11
763.663	-0.26
763.839	-0.05
764.015	-0.15
764.191	-0.14
764.368	-0.03
764.544	-0.06
764.72	0.02
764.896	0.04
765.072	-0.05
765.248	-0.13
765.425	-0.07
765.601	0.03
765.777	-0.01
765.953	-0.34
766.129	-0.12
766.305	-0.12
766.481	-0.03
766.657	-0.02
766.833	0.13
767.009	-0.18
767.185	-0.05
767.361	-0.06
767.537	-0.14
767.713	0.04
767.889	-0.15
768.065	-0.05
768.24	-0.12
768.416	0.05
768.592	-0.13
768.768	-0.08
768.944	-0.06
769.12	-0.19
769.295	-0.01
769.471	-0.08
769.647	-0.05
769.823	0.1
769.998	-0.11
770.174	-0.18
770.35	0.24
770.525	0.19
770.701	-0.12
770.877	-0.2
771.052	-0.13
771.228	0.03
771.403	0.03
771.579	-0.04
771.755	0.28
771.93	-0.11
772.106	-0.2
772.281	-0.12
772.457	-0
772.632	0.03
772.808	-0.23
772.983	-0.17
773.159	-0.25
773.334	0.22
773.509	-0.19
773.685	-0.23
773.86	0.26
774.036	-0
774.211	0.01
774.386	-0.1
774.562	-0.04
774.737	0.03
774.912	-0.13
775.087	0.01
775.263	-0.17
775.438	-0.17
775.613	-0.08
775.788	-0.05
775.964	0.28
776.139	0.36
776.314	-0.14
776.489	-0.06
776.664	-0.06
776.839	-0.19
777.014	-0.04
777.19	-0.02
777.365	0.1
777.54	0.11
777.715	-0.11
777.89	-0.16
778.065	0
778.24	-0.06
778.415	0.04
778.59	-0.25
778.765	-0.14
778.94	-0.04
779.115	-0.1
779.289	-0.17
779.464	0
779.639	-0.09
779.814	-0.34
779.989	-0.11
780.164	0.03
780.339	-0.08
780.513	-0.07
780.688	-0.16
780.863	-0.01
781.038	0.04
781.212	-0.03
781.387	0.06
781.562	0.29
781.737	-0.15
781.911	0.16
782.086	-0.22
782.261	-0.15
782.435	0.18
782.61	-0.06
782.784	-0.05
782.959	0.23
783.134	-0.25
783.308	-0.33
783.483	-0.06
783.657	0.3
783.832	0.14
784.006	-0.25
784.181	-0.18
784.355	0.07
784.53	-0.2
784.704	-0.16
784.878	0.08
785.053	-0.06
785.227	0.03
785.402	0.35
785.576	-0.3
785.75	-0.15
785.925	-0.21
786.099	-0.17
786.273	0.02
786.448	0.15
786.622	0.08
786.796	-0.28
786.97	-0.17
787.145	0.39
787.319	-0.42
787.493	-0.31
787.667	-0.39
787.841	0.21
788.015	0.07
788.19	-0.22
788.364	-0
788.538	-0.08
788.712	0.08
788.886	-0.05
789.06	0.27
789.234	0.18
789.408	-0.34
789.582	-0.09
789.756	-0.13
789.93	-0.31
790.104	-0.09
790.278	-0.27
790.452	-0.26
790.626	-0.05
790.8	-0.16
790.973	-0.16
791.147	0.16
791.321	0.21
791.495	0.12
791.669	-0.04
791.843	-0.01
792.016	0.03
792.19	0.49
792.364	-0.4
792.538	0.53
792.711	0.18
792.885	0.08
793.059	-0.37
793.233	-0.3
793.406	0.12
793.58	-0.03
793.754	0.05
793.927	-0.07
794.101	0.25
794.274	-0.13
794.448	0.2
794.622	-0.29
794.795	0.23
794.969	-0.22
795.142	0.37
795.316	0.12
795.489	-0.39
795.663	0.29
795.836	-0.04
796.009	-0.41
796.183	0.38
796.356	0.08
796.53	0.21
796.703	-0.22
796.876	0.45
797.05	-0.16
797.223	-0.2
797.396	0.06
797.57	-0.24
797.743	0.25
797.916	0.09
798.09	0.09
798.263	0.21
798.436	0.05
798.609	-0.26
798.782	-0.35
798.956	-0.09
799.129	-0.08
799.302	-0.3
799.475	-0.24
799.648	-0.31
799.821	-0.23
799.994	-0.12
800.167	-0.48
800.34	-0.12
800.514	-0.16
800.687	-0.24
800.86	-0.26
801.033	-0.04
801.206	-0.14
801.379	-0.31
801.551	0.14
801.724	0.14
801.897	0.15
802.07	-0.29
802.243	-0.46
802.416	-0.4
802.589	0.01
802.762	0.03
802.935	-0.16
803.107	0.09
803.28	0.12
803.453	0.04
803.626	-0.26
803.798	-0.1
803.971	-0.02
804.144	-0.04
804.317	0.19
804.489	0.02
804.662	-0.22
804.835	-0.13
805.007	-0.45
805.18	0.12
805.353	-0.24
805.525	-0.24
805.698	-0.17
805.87	0.13
806.043	-0.21
806.215	-0.44
806.388	-0.5
806.56	-0.11
806.733	0.35
806.905	0.17
807.078	-0.42
807.25	-0.46
807.423	0.06
807.595	-0.32
807.768	-0.2
807.94	0.01
808.112	-0.24
808.285	-0.21
808.457	-0.44
808.629	-0.16
808.802	0.19
808.974	-0.07
809.146	-0.22
809.318	-0.28
809.491	-0.08
809.663	-0.08
809.835	-0.16
810.007	0.12
810.18	-0.3
810.352	-0.41
810.524	-0.61
810.696	0.42
810.868	0.23
811.04	-0.07
811.212	-0.45
811.384	0.13
811.556	0.19
811.728	-0.16
811.901	0.62
812.073	-0.23
812.245	0.17
812.417	-0.27
812.589	-0.95
812.76	-0.08
812.932	-0.01
813.104	0.05
813.276	-0.3
813.448	0.24
813.62	-0.26
813.792	0.16
813.964	-0.19
814.136	-0.14
814.307	-0.7
814.479	-0.09
814.651	-0.33
814.823	0.64
814.995	-0.05
815.166	0.07
815.338	-0.38
815.51	-0.38
815.681	0.82
815.853	-0.18
816.025	-0.33
816.196	0.46
816.368	0.46
816.54	-0.56
816.711	-0.42
816.883	0.25
817.054	0.56
817.226	-0.95
817.398	0.48
817.569	-0.44
817.741	0.2
817.912	-0.22
818.084	-0.38
818.255	0.13
818.426	-0.42
818.598	-0.35
818.769	-0.07
818.941	-0.03
819.112	0.36
819.283	-0.05
819.455	-0.68
819.626	-0.15
819.798	-0.04
819.969	-0.42
820.14	-0.39
820.311	-0.32
820.483	0.22
820.654	0.1
820.825	-0.24
820.996	-0.28
821.168	-0.88
821.339	0.05
821.51	-0.75
821.681	1.13
821.852	-0.21
822.023	-0.63
822.195	-0.33
822.366	0.15
822.537	-0.28
822.708	-0.29
822.879	-0.34
823.05	0.21
823.221	-0.53
823.392	0.14
823.563	-0.25
823.734	-0.54
823.905	-0.41
824.076	-0.5
824.247	-0.63
824.418	-0.41
824.589	0.49
824.759	-0.41
824.93	-0.15
825.101	-0.95
825.272	0.08
825.443	0.24
825.614	0.06
825.784	-0.9
825.955	0.7
826.126	0.09
826.297	-0.37
826.467	0.54
826.638	0.27
826.809	-0.46
826.98	-0.04
827.15	0.26
827.321	-0.75
827.492	0.37
827.662	-0.53
827.833	0.68
828.003	-0.02
828.174	-0.67
828.345	-0.84
828.515	0.51
828.686	-0.47
828.856	-0.23
829.027	-0.12
829.197	0.49
829.368	0.44
829.538	0.04
829.709	-0.85
829.879	0.07
830.049	-0.23
830.22	-0.74
830.39	0.03
830.56	0.14
830.731	-0.25
830.901	-0.94
831.072	-0.5
831.242	-0.45
831.412	0.34
831.582	-0.58
831.753	-0.81
831.923	0.28
832.093	0.08
832.263	-0.03
832.434	-0.9
832.604	-0.36
832.774	-0.32
832.944	-0.51
833.114	-0.54
833.284	-0.22
833.454	-0.63
833.624	-0.72
833.795	-0.24
833.965	0.51
834.135	0.69
834.305	-0.88
834.475	-1.08
834.645	-0.27
834.815	-0.46
834.985	-0.79
835.155	-0.11
835.325	0.75
835.494	0.33
835.664	-0
835.834	-1.06
836.004	-0.41
836.174	0.2
836.344	-0.97
836.514	-1.21
836.684	-1.08
836.853	0.02
837.023	0.04
837.193	-0.2
837.363	0.64
837.532	0.25
837.702	-0.49
837.872	-0.82
838.041	0.21
838.211	1.41
838.381	-1.33
838.55	-0.36
838.72	1.8
838.89	1.08
839.059	-0.58
839.229	-0.77
839.398	1.27
839.568	-0.2
839.738	-0.52
839.907	0.75
840.077	-0.37
840.246	-0.51
840.416	-1.47
840.585	-0.62
840.755	1.48
840.924	0.42
841.093	-0.99
841.263	-0.33
841.432	0.37
841.602	-0.75
841.771	-0.17
841.94	-0.45
842.11	1.44
842.279	1.01
842.448	-0.44
842.617	-0.74
842.787	0.67
842.956	-1.59
843.125	0.31
843.294	0.31
843.464	0.95
843.633	-0.65
843.802	-1.02
843.971	-0.52
844.14	0.15
844.309	0.79
844.479	-1.3
844.648	-0.67
844.817	0.15
844.986	0.26
845.155	-0.35
845.324	-0.55
845.493	-0.57
845.662	-0.73
845.831	-0.07
846	0.17
846.169	-0.32
846.338	0.95
846.507	-0.11
846.676	-0.59
846.844	-1.02
847.013	0.81
847.182	-0.14
847.351	-1
847.52	-0.12
847.689	0.29
847.858	-1.17
848.026	-0.08
848.195	-0.17
848.364	-0.93
848.533	-0.69
848.701	-0.38
848.87	-0.76
849.039	0.93
849.207	0.16
849.376	-0.45
849.545	1.46
849.713	-0.67
849.882	-0.44
850.051	0.04
850.219	0.43
850.388	0.56
850.556	-0.66
850.725	-1.09
850.893	-0.08
851.062	-0.68
851.23	-0.34
851.399	-1.3
851.567	-1.49
851.736	-0.15
851.904	-0.78
852.073	-0.6
852.241	0.64
852.41	-0.53
852.578	-1.02
852.746	-1.21
852.915	0.09
853.083	-0.21
853.251	-0.64
853.42	-0.4
853.588	0.29
853.756	1.31
853.924	-0.24
854.093	-1.63
854.261	-1.1
854.429	-1.61
854.597	0.74
854.765	-0.59
854.934	0.64
855.102	0.95
855.27	-1.19
855.438	-0.78
855.606	0.97
855.774	0.57
855.942	-1.85
856.11	-0.47
856.278	-0.22
856.446	-0.44
856.614	-0.73
856.782	-1.05
856.95	0.96
857.118	0.11
857.286	0.58
857.454	-0.91
857.622	1.37
857.79	-0.82
857.958	-0.96
858.126	-2
858.294	-2.86
858.462	-1.05
858.629	-1.24
858.797	-0.96
858.965	0.05
859.133	-0.96
859.301	-0.18
859.468	0.16
859.636	-0.49
859.804	1.83
859.971	0.25
860.139	-1.55
860.307	0.26
860.474	-0.09
860.642	-1.88
860.81	-0.63
860.977	-0.5
861.145	0.98
861.313	-0.71
861.48	-0.82
861.648	-0.17
861.815	-0.41
861.983	-0.88
862.15	-1.1
862.318	0.31
862.485	0.94
862.653	-2.3
862.82	-1.74
862.988	1.88
863.155	-0.09
863.322	-0.95
863.49	-2.28
863.657	-0.44
863.824	1.59
863.992	-0.1
864.159	0.45
864.326	1.03
864.494	-1.8
864.661	2.67
864.828	-1.6
864.996	0.85
865.163	0.44
865.33	-1.33
865.497	-2.38
865.664	-0.65
865.832	-2.73
865.999	-0.21
866.166	-1.2
866.333	-1.74
866.5	-1.07
866.667	-0.04
866.834	-0.94
867.001	1.84
867.168	-0.83
867.335	-0.32
867.502	-2.18
867.669	1.03
867.836	1.5
868.003	-2.35
868.17	1.21
868.337	-1.65
868.504	2.29
868.671	-3.55
868.838	0.19
869.005	-0.3
869.172	1.14
869.339	-1.2
869.505	-1.55
869.672	-0.69
869.839	2.12
870.006	-0.56
870.173	-1.58
870.339	0.53
870.506	2.66
870.673	-1.84
870.84	-0.04
871.006	0.18
871.173	-1.22
871.34	0.85
871.506	-2.13
871.673	0.61
871.839	-2.67
872.006	-0.16
872.173	-0.63
872.339	-2.17
872.506	1.75
872.672	-0.39
872.839	-2.52
873.005	-0.61
873.172	3.56
873.338	0.96
873.505	-1.11
873.671	1.51
873.838	0.57
874.004	-3.38
874.171	-1.46
874.337	-0.16
874.503	2.17
874.67	-2.11
874.836	-0.16
875.002	1.56
875.169	0.5
875.335	-1.21
875.501	-0.68
875.668	0.27
875.834	-0.31
876	-1.84
876.166	0.1
876.332	-0.37
876.499	2.72
876.665	-0.32
876.831	0.25
876.997	3.83
877.163	-0.62
877.329	-1.35
877.495	-0.17
877.662	0.63
877.828	-0.19
877.994	1.06
878.16	-2.6
878.326	-1.19
878.492	-1.03
878.658	-2.14
878.824	0.29
878.99	0.05
879.156	-2.47
879.322	1
879.487	-0.92
879.653	-1.32
879.819	-0.89
879.985	-2.43
880.151	-0.59
880.317	1.41
880.483	1.02
880.648	1
880.814	-2.08
880.98	-0.68
881.146	-2.86
881.312	-1.6
881.477	-1.14
881.643	-1.33
881.809	1.16
881.974	1.59
882.14	-2.71
882.306	-0.08
882.471	1.48
882.637	-2.25
882.803	0.33
882.968	1.02
883.134	3.26
883.299	1.02
883.465	0.03
883.63	1.45
883.796	0.07
883.961	0.18
884.127	1.48
884.292	-4.24
884.458	-1.74
884.623	-1.74
