Data from Apollo_Calib_20240827__AbsoluteIrradiance__96__00-45-00-058.txt Node

Date: Wed Aug 28 00:45:00 BST 2024
User: biology
Spectrometer: FLMT08252
Trigger mode: 0
Integration Time (sec): 5.000000E-1
Scans to average: 5
Electric dark correction enabled: true
Nonlinearity correction enabled: false
Boxcar width: 0
XAxis mode: Wavelengths
Number of Pixels in Spectrum: 3648
>>>>>Begin Spectral Data<<<<<
179.588	-0
179.809	-0
180.03	-0
180.251	-0
180.473	-0
180.694	0
180.915	0
181.136	-0
181.357	0
181.578	-0
181.799	-0
182.02	-0
182.241	0
182.462	-0
182.683	0
182.904	-0
183.125	-0
183.346	0
183.567	0
183.788	-0
184.009	-0
184.23	0
184.451	0
184.672	-0
184.892	-0
185.113	0
185.334	0
185.555	-0
185.776	-0
185.996	0
186.217	0
186.438	0
186.659	-0
186.879	0
187.1	-0
187.321	-0
187.541	-0
187.762	0
187.983	0
188.203	0
188.424	0
188.644	0
188.865	-0
189.086	0
189.306	0
189.527	0
189.747	0
189.968	-0
190.188	0
190.409	0
190.629	0
190.849	0
191.07	-0
191.29	0
191.511	-0
191.731	-0
191.951	-0
192.172	0
192.392	-0
192.612	-0
192.833	-0
193.053	0
193.273	0
193.493	-0
193.714	-0
193.934	0
194.154	0
194.374	-0
194.594	0
194.815	0
195.035	-0
195.255	-0
195.475	-0
195.695	0
195.915	0
196.135	-0
196.355	0
196.575	0
196.795	0
197.015	-0
197.235	-0
197.455	0
197.675	0
197.895	-0
198.115	-0
198.335	0
198.555	-0
198.775	0
198.995	0
199.214	0
199.434	0
199.654	-0
199.874	0
200.094	0.61
200.313	0.23
200.533	-0.56
200.753	-0.58
200.973	1.1
201.192	0.13
201.412	-0.72
201.632	-0.29
201.851	0.92
202.071	-0.81
202.291	-0.5
202.51	-0.42
202.73	0.35
202.95	0.27
203.169	-0.4
203.389	0.04
203.608	0.07
203.828	0.19
204.047	-0.1
204.267	0.1
204.486	-0.11
204.706	0.02
204.925	0.02
205.145	-0.02
205.364	0.48
205.583	0.63
205.803	0.04
206.022	-0.26
206.242	0.05
206.461	-0.34
206.68	-0.51
206.9	0.32
207.119	0.49
207.338	0.58
207.557	-0.23
207.777	0.11
207.996	-0.14
208.215	0.42
208.434	-0.05
208.654	-0.22
208.873	0.1
209.092	0.61
209.311	-0.06
209.53	-0.26
209.749	-0.03
209.968	-0.24
210.187	-0.09
210.407	-0.35
210.626	-0.09
210.845	0.29
211.064	-0.04
211.283	-0.13
211.502	0.28
211.721	-0.07
211.94	0.11
212.159	0.22
212.377	0.12
212.596	0.48
212.815	-0.01
213.034	0.09
213.253	0.04
213.472	0.07
213.691	-0.09
213.91	-0.37
214.128	0.12
214.347	0.35
214.566	-0.35
214.785	-0.15
215.003	0.07
215.222	0.17
215.441	-0.07
215.66	-0.22
215.878	0.1
216.097	0.22
216.316	-0.33
216.534	-0.27
216.753	-0.2
216.972	-0.22
217.19	0.14
217.409	-0.17
217.627	0
217.846	-0.04
218.064	-0.02
218.283	-0.13
218.501	0.4
218.72	0.12
218.938	-0.06
219.157	-0.08
219.375	0.15
219.594	-0.05
219.812	-0.08
220.031	-0.08
220.249	0.39
220.467	0.31
220.686	-0.18
220.904	-0.06
221.122	-0.18
221.341	0.32
221.559	0.04
221.777	-0.08
221.995	-0.13
222.214	0.08
222.432	-0.02
222.65	0.12
222.868	-0.03
223.086	0.21
223.305	0.05
223.523	0.04
223.741	0.19
223.959	-0.12
224.177	-0.19
224.395	-0.08
224.613	-0.06
224.831	0.23
225.049	-0.21
225.267	-0.07
225.485	0.04
225.703	-0.04
225.921	-0.05
226.139	-0.1
226.357	0.3
226.575	-0.01
226.793	-0.12
227.011	0.39
227.229	0.03
227.447	0.38
227.665	-0.04
227.883	-0.24
228.1	0.08
228.318	0.08
228.536	-0.18
228.754	-0.13
228.972	0.08
229.189	0.12
229.407	-0.03
229.625	-0.06
229.843	0.13
230.06	0.12
230.278	-0.11
230.496	-0.08
230.713	0.06
230.931	0.12
231.149	-0.11
231.366	-0.21
231.584	-0.11
231.801	0.35
232.019	-0.06
232.236	-0.18
232.454	-0.03
232.671	0.04
232.889	0.05
233.106	-0.06
233.324	-0.07
233.541	0.05
233.759	0.13
233.976	-0.17
234.194	-0.06
234.411	0.04
234.628	-0.1
234.846	0.05
235.063	0.02
235.28	0.07
235.498	0.07
235.715	-0.18
235.932	0.11
236.149	-0
236.367	-0.07
236.584	0.01
236.801	-0.03
237.018	0.12
237.236	0.01
237.453	-0.15
237.67	0.06
237.887	0.04
238.104	0.11
238.321	-0.17
238.538	-0.09
238.755	0.12
238.973	-0.16
239.19	-0.01
239.407	0.07
239.624	0.08
239.841	-0.13
240.058	-0.05
240.275	0.11
240.492	-0.03
240.709	0.03
240.925	0.03
241.142	0.04
241.359	-0.1
241.576	0.01
241.793	0.02
242.01	-0.04
242.227	0.14
242.444	-0.03
242.66	0.08
242.877	0.01
243.094	-0.01
243.311	-0.03
243.527	0.01
243.744	0.02
243.961	0.05
244.178	-0.08
244.394	-0.02
244.611	0.15
244.828	0.12
245.044	-0.06
245.261	0.06
245.477	0.09
245.694	0.11
245.911	-0.06
246.127	-0.01
246.344	0.05
246.56	0.11
246.777	-0.03
246.993	0.09
247.21	-0.03
247.426	0.04
247.643	-0.02
247.859	-0.05
248.076	-0.07
248.292	0.18
248.508	-0.05
248.725	0.04
248.941	0.04
249.157	0.09
249.374	0
249.59	-0.02
249.806	-0.01
250.023	0.04
250.239	-0.15
250.455	-0.08
250.671	0.01
250.888	0.04
251.104	0.03
251.32	-0.02
251.536	0.04
251.752	0.03
251.969	-0.01
252.185	0.09
252.401	0.2
252.617	-0.02
252.833	-0.04
253.049	-0.03
253.265	-0.01
253.481	0.03
253.697	-0
253.913	-0.08
254.129	-0.04
254.345	-0.05
254.561	-0.03
254.777	-0.01
254.993	0.04
255.209	0.03
255.425	-0.01
255.641	-0.05
255.857	0.07
256.073	0.03
256.288	-0.07
256.504	-0
256.72	0.02
256.936	0.17
257.152	-0.03
257.367	0
257.583	0.01
257.799	0.11
258.015	-0.07
258.23	-0.01
258.446	0.17
258.662	0.08
258.877	-0.04
259.093	-0.01
259.309	-0.02
259.524	0.02
259.74	-0.01
259.955	-0.07
260.171	-0
260.387	0.03
260.602	0.13
260.818	0.1
261.033	-0.08
261.249	-0.03
261.464	-0.03
261.68	-0.12
261.895	-0.02
262.11	0.06
262.326	-0.06
262.541	-0.14
262.757	0.01
262.972	0.07
263.187	-0.05
263.403	-0.01
263.618	0.08
263.833	-0.04
264.049	-0.05
264.264	0.03
264.479	0.05
264.694	0.1
264.91	-0.1
265.125	0
265.34	0.02
265.555	0.14
265.77	0.01
265.986	0.01
266.201	0.07
266.416	0.13
266.631	-0.01
266.846	0.03
267.061	0.01
267.276	0
267.491	-0.12
267.706	0.02
267.921	0.06
268.136	0.08
268.351	0.09
268.566	-0.01
268.781	0.09
268.996	0.06
269.211	-0.03
269.426	-0.03
269.641	0.02
269.856	0.05
270.071	-0.05
270.285	-0.09
270.5	0.04
270.715	0.08
270.93	-0.03
271.145	0
271.359	0.01
271.574	-0.04
271.789	-0.04
272.004	-0.04
272.218	0.03
272.433	0.07
272.648	-0.02
272.862	0.06
273.077	-0
273.292	0.05
273.506	-0.06
273.721	-0.06
273.936	0.09
274.15	0.02
274.365	0.05
274.579	0.02
274.794	0.09
275.008	0.08
275.223	-0.11
275.437	-0.03
275.652	0.04
275.866	0.02
276.081	0.02
276.295	0.1
276.509	-0.02
276.724	0.03
276.938	0
277.153	0.04
277.367	0.02
277.581	-0.04
277.796	0.02
278.01	-0.05
278.224	0.07
278.438	0.14
278.653	0
278.867	-0.02
279.081	0.03
279.295	-0.02
279.51	0
279.724	-0.03
279.938	0.05
280.152	0.03
280.366	-0.01
280.58	0.04
280.794	0.09
281.008	0.07
281.222	0.07
281.437	0.12
281.651	0.04
281.865	0.09
282.079	-0.04
282.293	-0.1
282.507	-0.06
282.721	-0
282.935	-0.07
283.148	-0.08
283.362	-0.04
283.576	-0.04
283.79	0.06
284.004	-0.01
284.218	0.07
284.432	0
284.646	0.04
284.859	0.01
285.073	-0.01
285.287	0.03
285.501	0.05
285.714	0.04
285.928	0.02
286.142	-0.01
286.356	-0.03
286.569	-0.06
286.783	0.01
286.997	0.06
287.21	-0.01
287.424	0.03
287.637	0.02
287.851	-0.01
288.065	0.04
288.278	-0
288.492	0.07
288.705	0.04
288.919	0.02
289.132	-0.04
289.346	0.02
289.559	-0.06
289.773	-0.06
289.986	0.06
290.2	0.03
290.413	0.04
290.626	-0.08
290.84	-0.02
291.053	-0.01
291.267	0.06
291.48	0.05
291.693	-0.01
291.906	0.03
292.12	-0.02
292.333	-0.09
292.546	-0.02
292.76	0.08
292.973	0.06
293.186	0.07
293.399	-0.01
293.612	0.05
293.826	0.03
294.039	-0
294.252	0.01
294.465	0.01
294.678	0.03
294.891	0.04
295.104	-0.03
295.317	0.01
295.53	-0.03
295.743	-0.03
295.956	0.02
296.169	0.06
296.382	0.03
296.595	0.01
296.808	-0.01
297.021	0.04
297.234	0.05
297.447	0.01
297.66	0.02
297.873	0.05
298.086	0.08
298.299	-0.06
298.511	0.03
298.724	-0.02
298.937	-0.03
299.15	0.01
299.363	-0.02
299.575	0.06
299.788	0.05
300.001	0.01
300.213	-0.01
300.426	-0
300.639	-0.04
300.852	-0.04
301.064	0.03
301.277	0.07
301.489	0.05
301.702	0.08
301.915	0.02
302.127	-0.01
302.34	0.03
302.552	0.01
302.765	-0.02
302.977	0.04
303.19	-0.02
303.402	-0
303.615	0
303.827	-0.04
304.04	-0
304.252	-0
304.464	-0.02
304.677	0.12
304.889	0.04
305.102	-0.01
305.314	-0.05
305.526	0.02
305.739	0.04
305.951	0
306.163	-0.04
306.375	0.05
306.588	-0.03
306.8	-0.03
307.012	-0.01
307.224	0.03
307.436	0.02
307.649	-0.05
307.861	0.05
308.073	0.01
308.285	-0.01
308.497	-0.01
308.709	-0.02
308.921	0.01
309.133	0.06
309.346	-0.05
309.558	0.03
309.77	0.06
309.982	0.05
310.194	0.08
310.406	0.01
310.617	0.11
310.829	0.05
311.041	0.05
311.253	-0.02
311.465	-0.04
311.677	0
311.889	0.02
312.101	-0.01
312.313	0.07
312.524	0.05
312.736	-0.04
312.948	0.02
313.16	0.07
313.372	0.03
313.583	0.05
313.795	-0.01
314.007	0.01
314.218	0.05
314.43	-0
314.642	-0.03
314.853	-0.03
315.065	0.02
315.277	0.01
315.488	0.01
315.7	0.06
315.912	0
316.123	0.01
316.335	0.01
316.546	0.12
316.758	0.06
316.969	0.02
317.181	-0
317.392	0.02
317.604	0.06
317.815	-0.03
318.026	-0.01
318.238	-0
318.449	0.04
318.661	-0.05
318.872	-0.06
319.083	-0.03
319.295	0.05
319.506	-0.03
319.717	0.01
319.929	0.06
320.14	0
320.351	0.05
320.562	0
320.774	0
320.985	0.07
321.196	-0.04
321.407	-0.04
321.618	0.05
321.829	0.03
322.041	0.02
322.252	0.04
322.463	0.02
322.674	0.03
322.885	-0.03
323.096	-0.02
323.307	0.01
323.518	0.02
323.729	-0.04
323.94	0.02
324.151	0.02
324.362	0.01
324.573	0.05
324.784	-0
324.995	0.07
325.206	0.06
325.417	0.03
325.628	0.02
325.838	0.01
326.049	0.03
326.26	0.07
326.471	-0.01
326.682	0.07
326.892	0
327.103	-0.02
327.314	-0.02
327.525	0.07
327.735	0.02
327.946	0.01
328.157	-0.03
328.368	0.01
328.578	-0.03
328.789	0.05
328.999	0
329.21	-0.01
329.421	0.02
329.631	-0.05
329.842	-0.03
330.052	0.02
330.263	0.06
330.473	0.05
330.684	0.01
330.894	0.03
331.105	0.07
331.315	-0
331.526	-0.05
331.736	0.09
331.947	0.05
332.157	0.06
332.367	-0.04
332.578	0.03
332.788	0.04
332.999	0.02
333.209	0.03
333.419	-0.02
333.629	0.04
333.84	0.03
334.05	0.01
334.26	0.04
334.47	0.02
334.681	0.07
334.891	0.01
335.101	0.06
335.311	0.08
335.521	0.01
335.732	-0.03
335.942	0.09
336.152	0.02
336.362	0.01
336.572	0.02
336.782	0.04
336.992	0.01
337.202	-0.03
337.412	-0.04
337.622	0.03
337.832	0.02
338.042	0.03
338.252	-0.04
338.462	0
338.672	0
338.882	0.01
339.092	-0.01
339.302	0.08
339.511	0
339.721	-0.05
339.931	-0.01
340.141	0.03
340.351	0.05
340.561	0.04
340.77	0.05
340.98	0
341.19	0.02
341.4	-0.01
341.609	0.01
341.819	0.01
342.029	-0.03
342.238	0.02
342.448	-0.03
342.658	0.06
342.867	-0.01
343.077	0.05
343.286	0.06
343.496	0.01
343.706	0.08
343.915	-0.03
344.125	-0.01
344.334	-0.01
344.544	-0.07
344.753	0.04
344.963	-0.01
345.172	-0.01
345.381	-0.02
345.591	0
345.8	0.01
346.01	0.05
346.219	0.09
346.428	-0.12
346.638	0.03
346.847	-0.01
347.056	0.07
347.266	0.02
347.475	-0.03
347.684	0.02
347.893	-0.01
348.103	0.03
348.312	-0.01
348.521	0.02
348.73	0.01
348.94	-0
349.149	0
349.358	0.02
349.567	0.01
349.776	-0.03
349.985	0.03
350.194	0.01
350.403	0.04
350.612	0
350.821	-0.03
351.03	-0.01
351.239	-0.04
351.448	0.05
351.657	-0.01
351.866	0.06
352.075	0.02
352.284	0.06
352.493	-0.03
352.702	0.06
352.911	0.04
353.12	0.02
353.329	0
353.538	0.07
353.746	0.03
353.955	0.01
354.164	-0.01
354.373	0.04
354.582	0.05
354.79	0.02
354.999	0.04
355.208	-0.03
355.416	0.08
355.625	-0.03
355.834	0.02
356.042	-0.03
356.251	-0
356.46	-0.01
356.668	0.04
356.877	0.09
357.085	0.05
357.294	-0.1
357.503	0.01
357.711	0
357.92	0.14
358.128	0.04
358.337	0.01
358.545	0
358.754	0.01
358.962	0.05
359.17	0.01
359.379	-0.02
359.587	0.04
359.796	0
360.004	0.07
360.212	0.04
360.421	0.04
360.629	-0
360.837	0.01
361.046	0.05
361.254	0.06
361.462	0.02
361.67	-0.04
361.879	0.02
362.087	0.07
362.295	0.01
362.503	0.01
362.711	-0
362.92	-0.02
363.128	0.01
363.336	-0.03
363.544	-0
363.752	-0.02
363.96	0.01
364.168	0.02
364.376	0.03
364.584	0.06
364.792	0.07
365	0.05
365.208	-0
365.416	0.08
365.624	0.05
365.832	-0.02
366.04	0.1
366.248	0.06
366.456	0.06
366.664	0.02
366.872	0.03
367.079	0.02
367.287	0.05
367.495	0.02
367.703	0.04
367.911	0.02
368.118	0.06
368.326	0.04
368.534	0.02
368.742	0.13
368.949	0.06
369.157	0.07
369.365	0.13
369.572	0.06
369.78	0.03
369.988	0.16
370.195	0.16
370.403	0.16
370.61	0.13
370.818	0.14
371.026	0.24
371.233	0.12
371.441	0.14
371.648	0.19
371.856	0.23
372.063	0.26
372.271	0.22
372.478	0.22
372.685	0.28
372.893	0.36
373.1	0.31
373.308	0.34
373.515	0.43
373.722	0.41
373.93	0.4
374.137	0.49
374.344	0.56
374.552	0.5
374.759	0.51
374.966	0.58
375.173	0.6
375.381	0.63
375.588	0.58
375.795	0.6
376.002	0.71
376.209	0.71
376.417	0.76
376.624	0.84
376.831	0.91
377.038	0.86
377.245	0.86
377.452	0.95
377.659	1.02
377.866	1.05
378.073	1.16
378.28	1.18
378.487	1.24
378.694	1.35
378.901	1.42
379.108	1.42
379.315	1.56
379.522	1.63
379.729	1.64
379.936	1.68
380.143	1.77
380.35	1.84
380.557	1.91
380.763	1.97
380.97	1.99
381.177	2.08
381.384	2.2
381.591	2.19
381.797	2.25
382.004	2.29
382.211	2.4
382.418	2.4
382.624	2.48
382.831	2.44
383.038	2.41
383.244	2.45
383.451	2.34
383.658	2.4
383.864	2.39
384.071	2.25
384.277	2.35
384.484	2.2
384.69	2.22
384.897	2.03
385.103	2.01
385.31	1.96
385.516	1.85
385.723	1.79
385.929	1.81
386.136	1.63
386.342	1.64
386.549	1.51
386.755	1.53
386.961	1.46
387.168	1.36
387.374	1.28
387.58	1.25
387.787	1.21
387.993	1.17
388.199	1.1
388.406	1.02
388.612	0.94
388.818	0.91
389.024	0.91
389.231	0.9
389.437	0.94
389.643	0.89
389.849	0.83
390.055	0.77
390.261	0.74
390.467	0.77
390.674	0.75
390.88	0.67
391.086	0.68
391.292	0.66
391.498	0.72
391.704	0.68
391.91	0.61
392.116	0.59
392.322	0.49
392.528	0.59
392.734	0.53
392.94	0.51
393.146	0.56
393.352	0.49
393.557	0.47
393.763	0.42
393.969	0.45
394.175	0.44
394.381	0.43
394.587	0.41
394.792	0.37
394.998	0.4
395.204	0.44
395.41	0.33
395.615	0.34
395.821	0.31
396.027	0.33
396.233	0.32
396.438	0.32
396.644	0.37
396.85	0.3
397.055	0.27
397.261	0.28
397.466	0.36
397.672	0.25
397.878	0.25
398.083	0.29
398.289	0.2
398.494	0.21
398.7	0.21
398.905	0.13
399.111	0.26
399.316	0.14
399.522	0.13
399.727	0.19
399.932	0.14
400.138	0.18
400.343	0.17
400.549	0.17
400.754	0.12
400.959	0.15
401.165	0.16
401.37	0.12
401.575	0.24
401.78	0.16
401.986	0.15
402.191	0.12
402.396	0.15
402.601	0.15
402.807	0.14
403.012	0.12
403.217	0.16
403.422	0.13
403.627	0.12
403.832	0.12
404.037	0.09
404.243	0.18
404.448	0.1
404.653	0.1
404.858	0.12
405.063	0.14
405.268	0.06
405.473	0.04
405.678	0.07
405.883	0.24
406.088	0.16
406.293	0.06
406.498	0.04
406.703	0.11
406.907	0.12
407.112	0.05
407.317	0.1
407.522	0.11
407.727	0.04
407.932	0.09
408.136	0.15
408.341	0.09
408.546	0.05
408.751	0.12
408.956	0.05
409.16	0.05
409.365	0.05
409.57	0.04
409.774	0.09
409.979	0.11
410.184	0.07
410.388	0.03
410.593	0.09
410.798	0.09
411.002	-0.03
411.207	0.06
411.411	0.07
411.616	0.03
411.82	0.03
412.025	0.06
412.229	0.01
412.434	0.06
412.638	0.06
412.843	0.06
413.047	0.1
413.252	-0
413.456	0
413.66	0.07
413.865	0.04
414.069	0.1
414.273	0.1
414.478	0.05
414.682	0.04
414.886	0
415.091	-0.02
415.295	0
415.499	0.09
415.703	-0.01
415.908	0.07
416.112	-0.05
416.316	0.06
416.52	0.01
416.724	-0.01
416.929	-0.01
417.133	0.14
417.337	0.01
417.541	0.02
417.745	0.03
417.949	0.03
418.153	0.05
418.357	0.01
418.561	0.13
418.765	0.04
418.969	0.15
419.173	0.07
419.377	0.01
419.581	0.11
419.785	-0
419.989	-0.03
420.193	0.01
420.397	0.02
420.601	0.07
420.804	0.06
421.008	0.04
421.212	0.04
421.416	0.06
421.62	0
421.823	0.05
422.027	0.15
422.231	0.02
422.435	0.03
422.638	0.07
422.842	-0.01
423.046	0.03
423.249	0.11
423.453	0.07
423.657	0.08
423.86	0.02
424.064	0.05
424.268	0.07
424.471	0.02
424.675	0.07
424.878	0.1
425.082	0.01
425.285	0.08
425.489	0.05
425.692	0.06
425.896	-0.02
426.099	0.1
426.303	-0
426.506	-0.01
426.71	0.02
426.913	0.1
427.116	0.08
427.32	0.07
427.523	0.05
427.726	0.12
427.93	-0.01
428.133	-0
428.336	-0.03
428.54	-0.02
428.743	0.03
428.946	0.09
429.149	0
429.353	0.09
429.556	0.06
429.759	0.01
429.962	0
430.165	0.07
430.368	-0
430.571	-0.03
430.775	0.09
430.978	0.03
431.181	0.07
431.384	0.07
431.587	0.01
431.79	0.05
431.993	0.06
432.196	0.03
432.399	0.01
432.602	0.09
432.805	-0
433.008	0.03
433.211	-0.01
433.414	0.05
433.616	0.04
433.819	0.05
434.022	-0.02
434.225	0.13
434.428	0.07
434.631	0.15
434.833	0.05
435.036	0.06
435.239	0.06
435.442	0.1
435.645	0.01
435.847	0.06
436.05	0.13
436.253	0.05
436.455	-0
436.658	0.04
436.861	0.15
437.063	0
437.266	0.04
437.468	0.08
437.671	0.18
437.874	0.08
438.076	-0.01
438.279	-0.02
438.481	0.05
438.684	0
438.886	0.08
439.089	-0.03
439.291	0.01
439.494	0.08
439.696	0.03
439.899	0.08
440.101	0.09
440.303	-0.02
440.506	0.09
440.708	0.02
440.91	0.1
441.113	0.04
441.315	0.08
441.517	0.06
441.72	0.12
441.922	0.01
442.124	0.02
442.326	0.1
442.529	0.09
442.731	0.01
442.933	0.17
443.135	0.1
443.337	0.06
443.539	0.05
443.742	0.05
443.944	0.04
444.146	0.06
444.348	0.06
444.55	0
444.752	0.08
444.954	0.03
445.156	0.09
445.358	0.01
445.56	0.16
445.762	0.08
445.964	0.1
446.166	0.09
446.368	0.03
446.57	0.14
446.772	0.05
446.974	0.07
447.175	0.13
447.377	0.02
447.579	0.08
447.781	0.02
447.983	0.18
448.184	0.07
448.386	0.1
448.588	0.07
448.79	0.11
448.991	0.02
449.193	0.07
449.395	0.08
449.597	0.13
449.798	0.11
450	0.1
450.202	0.08
450.403	0.09
450.605	0.09
450.806	0.11
451.008	0.03
451.21	0.12
451.411	0.08
451.613	0.06
451.814	0.06
452.016	0.09
452.217	0.1
452.419	0.13
452.62	0.06
452.821	0.13
453.023	0.14
453.224	0.13
453.426	0.06
453.627	0.13
453.828	0.12
454.03	0.07
454.231	0.1
454.432	0.08
454.634	0.11
454.835	0.07
455.036	0.03
455.238	0.07
455.439	0.12
455.64	0.01
455.841	0.05
456.042	0.12
456.244	0.1
456.445	0.03
456.646	0.02
456.847	0.09
457.048	0.08
457.249	0.16
457.45	0.26
457.651	0.04
457.852	0.12
458.054	0.09
458.255	0.03
458.456	0.07
458.657	0.05
458.858	0.01
459.058	0.08
459.259	0.06
459.46	0.01
459.661	0
459.862	0.16
460.063	0.02
460.264	0.1
460.465	-0.01
460.666	0.16
460.866	0.01
461.067	-0
461.268	0.04
461.469	0.03
461.67	0.05
461.87	0.04
462.071	0.01
462.272	-0
462.473	0.04
462.673	0.1
462.874	0
463.075	0.04
463.275	0.03
463.476	0.01
463.676	0.06
463.877	0.05
464.078	0.06
464.278	0.08
464.479	0.04
464.679	0.02
464.88	0.01
465.08	0.08
465.281	-0
465.481	-0.01
465.682	0.03
465.882	0.03
466.083	0.04
466.283	0.06
466.483	0.06
466.684	0.01
466.884	0
467.085	0.04
467.285	0.07
467.485	0.02
467.686	0.01
467.886	0.01
468.086	0.03
468.286	0.03
468.487	0.05
468.687	-0.03
468.887	-0
469.087	0.05
469.287	0.01
469.488	-0.06
469.688	0.06
469.888	0.08
470.088	0.06
470.288	0.05
470.488	0.07
470.688	-0.04
470.888	-0.01
471.088	-0.02
471.288	0.05
471.488	0.03
471.688	0.05
471.888	-0.02
472.088	0.11
472.288	0.06
472.488	-0.02
472.688	0
472.888	-0.03
473.088	0.03
473.288	0.04
473.488	0.01
473.688	0.12
473.887	0.02
474.087	0.02
474.287	0.05
474.487	-0.03
474.687	0.04
474.886	-0
475.086	-0.01
475.286	0.04
475.486	0.04
475.685	0.03
475.885	0.02
476.085	0.01
476.284	0.07
476.484	-0
476.684	0.05
476.883	0.05
477.083	0.03
477.282	0.01
477.482	0.06
477.681	0.09
477.881	0.02
478.08	-0.03
478.28	-0.04
478.479	0.04
478.679	0.1
478.878	0.01
479.078	-0.02
479.277	0.04
479.477	0.01
479.676	0.06
479.875	0.02
480.075	-0.05
480.274	0.02
480.473	0.06
480.673	-0.02
480.872	0.04
481.071	0.02
481.271	0.03
481.47	0.04
481.669	-0
481.868	-0.04
482.067	-0.02
482.267	-0.01
482.466	-0.03
482.665	-0
482.864	-0.01
483.063	-0.02
483.262	0.04
483.461	0.06
483.661	0
483.86	0.01
484.059	0.03
484.258	0.02
484.457	0.02
484.656	0.01
484.855	0.04
485.054	-0.04
485.253	-0
485.452	-0.02
485.651	-0.01
485.849	0.03
486.048	-0.01
486.247	-0.01
486.446	0.03
486.645	-0.01
486.844	-0.01
487.043	-0
487.241	0.02
487.44	0
487.639	-0.01
487.838	0.03
488.037	0.04
488.235	0.08
488.434	0.02
488.633	-0.01
488.831	0.03
489.03	0.02
489.229	0
489.427	-0.02
489.626	0.05
489.825	0.04
490.023	0
490.222	0.01
490.42	0.03
490.619	0.04
490.817	0.02
491.016	0.01
491.214	0.03
491.413	-0
491.611	-0
491.81	0.01
492.008	0.03
492.207	0.04
492.405	0.04
492.604	-0.04
492.802	-0.02
493	0.02
493.199	-0.02
493.397	0.03
493.595	0.01
493.794	-0.02
493.992	0.05
494.19	0
494.388	0.01
494.587	-0.01
494.785	0
494.983	-0.02
495.181	0.01
495.379	-0
495.578	0.01
495.776	0.04
495.974	0.04
496.172	0.01
496.37	0
496.568	-0.03
496.766	-0.02
496.964	0.04
497.162	0.02
497.36	-0.02
497.558	0.01
497.756	0.02
497.954	0.01
498.152	-0
498.35	0.01
498.548	-0
498.746	0.02
498.944	-0.02
499.142	0.01
499.34	-0.03
499.538	0.02
499.736	-0.02
499.933	0.03
500.131	0.04
500.329	0.01
500.527	0.03
500.725	0.05
500.922	0.02
501.12	0.02
501.318	0.01
501.516	-0.03
501.713	0.03
501.911	0
502.109	-0.02
502.306	0.02
502.504	-0
502.701	-0.01
502.899	0.01
503.097	0.03
503.294	0
503.492	0.01
503.689	-0.01
503.887	0.03
504.084	0.03
504.282	0.01
504.479	-0.01
504.677	0.02
504.874	-0.02
505.072	-0.01
505.269	-0.01
505.466	0.01
505.664	0.02
505.861	-0.02
506.059	-0.01
506.256	0.01
506.453	0
506.651	0.06
506.848	0.01
507.045	0.01
507.242	0.04
507.44	-0
507.637	0.04
507.834	-0.01
508.031	0.06
508.229	-0.02
508.426	0.03
508.623	-0
508.82	-0
509.017	-0.02
509.214	-0.01
509.411	-0
509.608	-0.01
509.805	0.01
510.003	0.01
510.2	-0.01
510.397	0.03
510.594	0
510.791	0
510.988	0
511.184	0.02
511.381	0.01
511.578	-0.02
511.775	0.02
511.972	-0.01
512.169	-0.02
512.366	0.01
512.563	0.02
512.76	0
512.956	-0.01
513.153	-0.01
513.35	0.02
513.547	0
513.744	-0.02
513.94	-0.01
514.137	0.01
514.334	0.02
514.53	-0.01
514.727	0.01
514.924	0.04
515.12	-0.01
515.317	-0.04
515.514	0
515.71	-0.02
515.907	0
516.103	-0.01
516.3	0.01
516.497	0.06
516.693	0.05
516.89	0.01
517.086	-0.02
517.283	0.05
517.479	0.02
517.676	0.01
517.872	0.01
518.068	-0.01
518.265	-0.02
518.461	-0
518.658	-0.01
518.854	0.02
519.05	-0.01
519.247	-0.01
519.443	0.02
519.639	-0
519.836	0.02
520.032	0.01
520.228	0.01
520.424	0.06
520.621	0.02
520.817	0.01
521.013	0.03
521.209	0.04
521.405	0.03
521.601	-0
521.798	0.01
521.994	0.06
522.19	-0
522.386	-0.01
522.582	-0
522.778	-0
522.974	0
523.17	0
523.366	-0.01
523.562	0.05
523.758	-0.01
523.954	0
524.15	0.01
524.346	0.02
524.542	-0.01
524.738	0.02
524.934	0.01
525.129	-0.01
525.325	0.01
525.521	-0.02
525.717	0.04
525.913	0.01
526.109	0.03
526.304	0.02
526.5	0.01
526.696	0.02
526.892	0.01
527.087	0.01
527.283	-0.01
527.479	0.03
527.674	-0.03
527.87	0
528.066	0.01
528.261	0.02
528.457	0.01
528.653	0.02
528.848	-0
529.044	0.03
529.239	0.02
529.435	0.02
529.63	0.01
529.826	0.06
530.021	0.01
530.217	0.05
530.412	0.01
530.608	-0
530.803	0.02
530.999	-0.01
531.194	-0.04
531.389	0.03
531.585	-0.05
531.78	0.01
531.975	0.01
532.171	0.03
532.366	0.02
532.561	0.01
532.757	-0.02
532.952	-0
533.147	0.02
533.342	0.01
533.538	0.01
533.733	0.03
533.928	-0.01
534.123	0
534.318	-0.01
534.513	-0
534.709	0.02
534.904	-0.01
535.099	-0.01
535.294	-0.01
535.489	0.01
535.684	0.01
535.879	-0.02
536.074	0.01
536.269	-0.02
536.464	-0
536.659	0.01
536.854	-0
537.049	0.01
537.244	0.02
537.439	-0.02
537.634	0.02
537.828	0
538.023	-0.01
538.218	-0.03
538.413	-0.01
538.608	-0.02
538.803	-0
538.997	-0.01
539.192	0.01
539.387	0.02
539.582	0
539.776	0.02
539.971	0
540.166	-0.01
540.36	-0.03
540.555	0
540.75	-0
540.944	0.01
541.139	-0.03
541.334	0.01
541.528	0.02
541.723	0.03
541.917	0
542.112	-0.04
542.306	-0.01
542.501	0.01
542.695	0.01
542.89	-0.01
543.084	0
543.279	0.01
543.473	0
543.668	0.02
543.862	0.01
544.056	0.02
544.251	0.01
544.445	0.01
544.64	0.01
544.834	-0.01
545.028	0
545.222	0.03
545.417	0.02
545.611	0.01
545.805	0.01
546	0.01
546.194	0
546.388	-0.02
546.582	0.02
546.776	0
546.97	-0.01
547.165	0.03
547.359	0.02
547.553	-0
547.747	-0.01
547.941	-0
548.135	0.01
548.329	0.01
548.523	0.01
548.717	-0
548.911	-0
549.105	-0.01
549.299	0.02
549.493	0.02
549.687	0.05
549.881	0.02
550.075	0
550.269	-0.01
550.463	0.02
550.657	-0.03
550.85	-0.01
551.044	0.01
551.238	0.01
551.432	0
551.626	-0.02
551.82	0.01
552.013	-0.01
552.207	0.02
552.401	0.02
552.594	0.01
552.788	0
552.982	0.02
553.176	-0.02
553.369	0.03
553.563	0.04
553.756	-0.02
553.95	-0.02
554.144	0
554.337	0.02
554.531	0
554.724	0.01
554.918	-0.01
555.111	0
555.305	0.01
555.498	0.04
555.692	0.02
555.885	-0.03
556.079	0
556.272	-0.01
556.466	0.04
556.659	0.01
556.852	0
557.046	0.02
557.239	0.04
557.432	-0
557.626	0
557.819	0.01
558.012	0.02
558.206	0.01
558.399	0.02
558.592	0.02
558.785	-0.01
558.979	0.01
559.172	0.01
559.365	0.02
559.558	0.01
559.751	0
559.944	0.02
560.138	0.02
560.331	-0.01
560.524	-0.01
560.717	0.01
560.91	0
561.103	0.01
561.296	0.01
561.489	0.01
561.682	0.01
561.875	0.02
562.068	0.02
562.261	-0
562.454	0.05
562.647	0.03
562.84	0.03
563.032	0
563.225	0.04
563.418	0.01
563.611	-0.02
563.804	0.02
563.997	-0.02
564.19	-0.03
564.382	-0
564.575	-0
564.768	0.03
564.961	-0.03
565.153	0
565.346	0.01
565.539	0.03
565.731	0.02
565.924	0.01
566.117	0
566.309	0.02
566.502	0
566.695	0
566.887	0.02
567.08	-0.01
567.272	0
567.465	-0.02
567.657	0
567.85	0.02
568.042	0.01
568.235	0.03
568.427	-0.01
568.62	0.03
568.812	0.01
569.005	0.01
569.197	-0.03
569.389	0.01
569.582	0.01
569.774	0.02
569.966	-0.01
570.159	-0.03
570.351	0.02
570.543	-0.01
570.736	0
570.928	0.01
571.12	-0
571.312	-0.01
571.505	-0.03
571.697	0.04
571.889	-0.02
572.081	0.01
572.273	-0.01
572.465	0.04
572.658	-0.01
572.85	0.02
573.042	-0.01
573.234	0.01
573.426	0.03
573.618	-0.03
573.81	0.02
574.002	0.04
574.194	0.04
574.386	-0.02
574.578	-0.06
574.77	-0.02
574.962	-0.01
575.154	-0.04
575.346	-0
575.538	0.01
575.729	-0.02
575.921	0
576.113	-0.02
576.305	0.04
576.497	0.01
576.689	-0.01
576.88	-0.01
577.072	0.01
577.264	-0.01
577.456	-0.01
577.647	-0.08
577.839	0.01
578.031	0.04
578.223	-0.02
578.414	-0.01
578.606	-0
578.798	0.01
578.989	-0.02
579.181	0
579.372	0.01
579.564	0.01
579.755	0.02
579.947	0
580.139	0.02
580.33	-0.05
580.522	0
580.713	-0.05
580.905	-0
581.096	0.02
581.287	0.01
581.479	0.02
581.67	0.01
581.862	0.01
582.053	-0.01
582.244	-0.04
582.436	-0.01
582.627	0.01
582.818	-0.02
583.01	-0.03
583.201	0.04
583.392	0.01
583.583	0.03
583.775	-0.01
583.966	-0.01
584.157	-0
584.348	0
584.54	-0.02
584.731	0.03
584.922	0
585.113	-0.03
585.304	0.03
585.495	0.06
585.686	-0
585.877	-0.01
586.068	0
586.259	0.03
586.45	-0
586.641	-0
586.832	-0.04
587.023	0.03
587.214	-0.02
587.405	0.01
587.596	0
587.787	0.03
587.978	0.02
588.169	-0.03
588.36	-0
588.551	0.02
588.742	-0.02
588.932	0.02
589.123	-0.01
589.314	0.04
589.505	0.02
589.696	0.02
589.886	-0.03
590.077	-0.01
590.268	0.01
590.458	-0.03
590.649	-0.02
590.84	0.04
591.03	0
591.221	-0.04
591.412	-0.03
591.602	0.01
591.793	0.06
591.984	-0.03
592.174	-0
592.365	0.06
592.555	-0.03
592.746	0.02
592.936	0.02
593.127	0.03
593.317	0.03
593.508	-0.03
593.698	-0.02
593.889	0.02
594.079	0.01
594.269	-0
594.46	-0.01
594.65	0.01
594.84	0.02
595.031	-0.02
595.221	0.01
595.411	-0.03
595.602	0.02
595.792	0.01
595.982	-0.02
596.172	0.03
596.363	0.01
596.553	0.03
596.743	-0
596.933	0.03
597.123	0.02
597.314	-0.02
597.504	-0.03
597.694	0.04
597.884	0.03
598.074	0.01
598.264	-0.01
598.454	0.04
598.644	0
598.834	-0.01
599.024	-0.06
599.214	0.01
599.404	0.02
599.594	0.01
599.784	-0.03
599.974	0.02
600.164	0.04
600.354	-0.01
600.544	-0.03
600.734	0
600.924	0.05
601.114	-0.01
601.303	0.01
601.493	0.01
601.683	-0.01
601.873	-0.01
602.063	-0.04
602.252	0
602.442	-0.04
602.632	-0.02
602.821	-0.03
603.011	0.03
603.201	-0
603.39	0.01
603.58	-0.01
603.77	0.04
603.959	0.04
604.149	0.01
604.339	-0.01
604.528	0.05
604.718	0.03
604.907	0.02
605.097	-0.02
605.286	0.02
605.476	0.02
605.665	0.03
605.855	-0
606.044	0.06
606.234	0.02
606.423	0.01
606.612	-0.05
606.802	0
606.991	0.01
607.181	0.02
607.37	-0.03
607.559	0
607.749	-0.02
607.938	-0.02
608.127	-0
608.316	-0.03
608.506	0
608.695	0
608.884	-0.03
609.073	0.04
609.263	0.01
609.452	0.01
609.641	0.02
609.83	-0.03
610.019	0.01
610.208	-0.02
610.397	-0.01
610.586	0.02
610.775	0
610.965	-0.01
611.154	-0.02
611.343	-0.01
611.532	0
611.721	-0.02
611.91	-0
612.099	0.03
612.287	-0.01
612.476	-0.02
612.665	0.02
612.854	-0.02
613.043	0.03
613.232	-0.02
613.421	-0.01
613.61	0.02
613.798	-0.04
613.987	0.06
614.176	-0.03
614.365	0.01
614.554	-0
614.742	0.02
614.931	-0.01
615.12	0.03
615.309	-0.01
615.497	0.03
615.686	-0.04
615.875	0.02
616.063	0.01
616.252	-0.01
616.44	0.02
616.629	-0.02
616.818	0.01
617.006	0.01
617.195	0.01
617.383	0.02
617.572	0.02
617.76	-0.01
617.949	0
618.137	0.03
618.326	0.03
618.514	-0.02
618.703	-0.02
618.891	0.06
619.079	-0.04
619.268	0.01
619.456	0.02
619.644	0.04
619.833	-0.02
620.021	-0
620.209	-0.05
620.398	0.01
620.586	0.01
620.774	0.02
620.962	-0.01
621.151	0.04
621.339	0.01
621.527	-0.04
621.715	-0.03
621.903	-0
622.092	-0.04
622.28	0.01
622.468	-0.01
622.656	-0
622.844	0.02
623.032	-0.01
623.22	-0
623.408	0.01
623.596	0.04
623.784	0.01
623.972	-0.02
624.16	-0.04
624.348	0.06
624.536	-0.01
624.724	-0.05
624.912	0.04
625.1	0.04
625.288	-0.02
625.476	-0.01
625.664	0.04
625.851	-0.03
626.039	-0.01
626.227	0.03
626.415	-0
626.603	-0.04
626.79	-0.02
626.978	-0.02
627.166	0
627.354	0.01
627.541	-0.02
627.729	-0.04
627.917	0.05
628.104	0.03
628.292	0.02
628.48	-0.01
628.667	0.04
628.855	0.04
629.042	0.04
629.23	-0
629.418	0.02
629.605	0.01
629.793	0.01
629.98	-0
630.168	-0
630.355	0
630.543	0.04
630.73	-0
630.917	0.06
631.105	0.09
631.292	-0.02
631.48	-0
631.667	0.05
631.854	0.02
632.042	0.01
632.229	-0.01
632.416	-0.01
632.604	0.02
632.791	-0.01
632.978	0.05
633.165	0.02
633.353	0.08
633.54	0.01
633.727	-0.06
633.914	-0.02
634.101	-0.06
634.289	0.09
634.476	-0.02
634.663	-0.03
634.85	0.04
635.037	-0.04
635.224	-0.01
635.411	0.04
635.598	0.03
635.785	0.02
635.972	0.03
636.159	0.05
636.346	0
636.533	0.04
636.72	-0
636.907	0.03
637.094	0.06
637.281	0.05
637.468	0.03
637.655	0.06
637.842	0.03
638.029	0
638.215	0.03
638.402	0.01
638.589	-0.01
638.776	0.02
638.963	-0.01
639.149	0.04
639.336	0.07
639.523	0.02
639.709	0.05
639.896	0.01
640.083	0.04
640.27	0.05
640.456	0.03
640.643	0.04
640.829	-0
641.016	0.01
641.203	-0
641.389	0.07
641.576	0.03
641.762	0.04
641.949	-0.02
642.135	0.06
642.322	0.03
642.508	-0.02
642.695	0.05
642.881	-0
643.068	0.02
643.254	0.01
643.441	0.06
643.627	0.01
643.813	0.03
644	0.06
644.186	-0.02
644.372	0.06
644.559	0.06
644.745	0.02
644.931	0.05
645.118	0.04
645.304	0.04
645.49	0.03
645.676	0.03
645.862	0.03
646.049	0.08
646.235	0.07
646.421	0.09
646.607	0.09
646.793	0.02
646.979	0.04
647.165	0.1
647.352	0.06
647.538	0.08
647.724	0.07
647.91	0.1
648.096	0.08
648.282	0.07
648.468	0.09
648.654	0.08
648.84	0.06
649.026	0.06
649.212	0.07
649.397	0.02
649.583	0.03
649.769	0.05
649.955	0.06
650.141	0.09
650.327	0.14
650.513	0.07
650.698	0.07
650.884	-0
651.07	0.07
651.256	0.1
651.442	0.08
651.627	0.04
651.813	0.1
651.999	0.12
652.184	0.12
652.37	0.06
652.556	0.04
652.741	0.11
652.927	0.01
653.113	0.11
653.298	0.1
653.484	0.09
653.669	0.05
653.855	0.1
654.04	0.09
654.226	0.09
654.412	0.09
654.597	0.07
654.782	0.08
654.968	0.1
655.153	0.1
655.339	0.07
655.524	0.08
655.71	0.1
655.895	0.09
656.08	0.08
656.266	0.15
656.451	0.11
656.636	0.07
656.822	0.11
657.007	0.07
657.192	0.13
657.378	0.08
657.563	0.11
657.748	0.12
657.933	0.13
658.118	0.09
658.304	0.1
658.489	0.14
658.674	0.15
658.859	0.08
659.044	0.12
659.229	0.13
659.414	0.09
659.599	0.12
659.785	0.05
659.97	0.14
660.155	0.11
660.34	0.14
660.525	0.11
660.71	0.09
660.895	0.14
661.08	0.08
661.264	0.08
661.449	0.13
661.634	0.12
661.819	0.11
662.004	0.13
662.189	0.02
662.374	0.04
662.559	0.03
662.743	0.04
662.928	0.06
663.113	0.06
663.298	-0
663.483	0.06
663.667	0.08
663.852	0.02
664.037	0.11
664.221	0.07
664.406	0.05
664.591	0.05
664.775	0.05
664.96	0.02
665.145	0.06
665.329	0.06
665.514	0.02
665.698	0.07
665.883	-0
666.068	0.09
666.252	0.01
666.437	-0.02
666.621	0.04
666.806	0.04
666.99	0.03
667.174	0
667.359	0.07
667.543	0.03
667.728	-0.01
667.912	0.01
668.096	0.04
668.281	0.03
668.465	0.03
668.649	0
668.834	0.05
669.018	0
669.202	0.03
669.387	-0.01
669.571	0.05
669.755	0.02
669.939	0.04
670.124	-0.02
670.308	0.03
670.492	0.06
670.676	0.01
670.86	0
671.044	-0.03
671.228	0.06
671.413	-0.01
671.597	0.01
671.781	-0.01
671.965	0.04
672.149	-0.01
672.333	0.03
672.517	-0.01
672.701	0.02
672.885	0.01
673.069	-0.02
673.253	0.03
673.437	-0.01
673.621	-0.03
673.804	-0
673.988	0.02
674.172	0
674.356	-0.04
674.54	0.01
674.724	0.08
674.908	0.04
675.091	0.04
675.275	-0.02
675.459	0.04
675.643	0.05
675.826	0.02
676.01	-0.01
676.194	-0.04
676.377	0.07
676.561	0.01
676.745	0.03
676.928	0.02
677.112	0.09
677.296	-0
677.479	-0.01
677.663	0
677.846	0.01
678.03	-0
678.213	-0.01
678.397	0
678.58	-0.01
678.764	-0.03
678.947	-0.03
679.131	-0.05
679.314	0.02
679.498	-0.02
679.681	0.02
679.865	0.11
680.048	0.01
680.231	0.01
680.415	0.03
680.598	-0.02
680.781	-0.02
680.965	-0.02
681.148	0.04
681.331	0.06
681.514	0.04
681.698	-0.04
681.881	0.03
682.064	-0.01
682.247	-0.03
682.43	-0.06
682.614	0.05
682.797	0.04
682.98	-0
683.163	-0.01
683.346	0.02
683.529	0
683.712	0.01
683.895	0.03
684.078	-0.03
684.261	-0
684.444	0.03
684.627	0.02
684.81	-0.04
684.993	-0.01
685.176	0.03
685.359	-0.05
685.542	-0
685.725	0.09
685.908	0.03
686.091	-0.01
686.274	0.05
686.457	0.04
686.639	-0
686.822	0.05
687.005	-0
687.188	0
687.371	0.06
687.553	0.02
687.736	0.01
687.919	0.06
688.102	0.07
688.284	-0.01
688.467	0.01
688.65	-0
688.832	-0.05
689.015	0.05
689.197	-0.06
689.38	0.14
689.563	0.07
689.745	0.01
689.928	-0.03
690.11	-0.02
690.293	0.01
690.475	-0.08
690.658	-0.03
690.84	-0
691.023	-0.02
691.205	0.02
691.388	-0
691.57	0.02
691.752	0.08
691.935	-0.07
692.117	-0.01
692.3	0.03
692.482	-0.03
692.664	-0.05
692.847	0.05
693.029	0.07
693.211	0.07
693.393	0.01
693.576	-0.03
693.758	0.02
693.94	-0.05
694.122	-0.03
694.304	-0.04
694.487	0.02
694.669	0.08
694.851	-0.05
695.033	0.02
695.215	-0.03
695.397	-0.03
695.579	0.01
695.761	-0.05
695.943	-0.1
696.125	0.09
696.308	0.04
696.49	-0.11
696.671	0.09
696.853	0.02
697.035	0.06
697.217	0.03
697.399	0.01
697.581	-0.05
697.763	-0.04
697.945	-0.02
698.127	0.02
698.309	0.1
698.491	0.02
698.672	0.03
698.854	0.04
699.036	0.05
699.218	-0.03
699.399	0.04
699.581	0.06
699.763	0.07
699.945	-0.04
700.126	-0
700.308	0.01
700.49	0.01
700.671	-0.1
700.853	-0.03
701.035	-0
701.216	0.04
701.398	-0.04
701.579	0.03
701.761	0.09
701.943	-0.05
702.124	-0.09
702.306	0
702.487	0.13
702.669	-0.02
702.85	-0.05
703.031	-0.04
703.213	0.14
703.394	0.06
703.576	0.04
703.757	0.05
703.938	0.03
704.12	0.13
704.301	-0.02
704.483	0.01
704.664	0.03
704.845	0.07
705.026	0.03
705.208	-0.03
705.389	0.01
705.57	-0.05
705.751	0
705.933	0.01
706.114	0.12
706.295	0.01
706.476	-0.05
706.657	0.11
706.838	-0.03
707.02	0.08
707.201	0
707.382	0.01
707.563	0.08
707.744	0.02
707.925	-0.04
708.106	-0.08
708.287	0.02
708.468	0.1
708.649	0.01
708.83	0.02
709.011	-0.04
709.192	0.07
709.373	0
709.554	0.04
709.734	0.11
709.915	-0.02
710.096	0.04
710.277	-0.11
710.458	-0.01
710.639	0.06
710.819	-0.03
711	-0.03
711.181	0.12
711.362	0.07
711.542	-0.03
711.723	0.05
711.904	0.05
712.085	0.06
712.265	0.04
712.446	-0.08
712.627	-0.04
712.807	0.06
712.988	0.08
713.168	-0.03
713.349	0.07
713.53	-0.09
713.71	-0.01
713.891	-0.02
714.071	0.02
714.252	-0.03
714.432	0.03
714.613	-0.06
714.793	-0
714.974	0.15
715.154	0.08
715.334	0.07
715.515	0.09
715.695	-0.01
715.876	0.08
716.056	0.01
716.236	-0.03
716.417	0.06
716.597	-0.02
716.777	0.17
716.957	0.04
717.138	0.02
717.318	0.08
717.498	-0.08
717.678	0.09
717.859	0.14
718.039	-0.09
718.219	0.04
718.399	0.1
718.579	-0.04
718.759	-0.01
718.939	0.05
719.12	0.07
719.3	0.08
719.48	-0.07
719.66	-0.09
719.84	0.13
720.02	0.08
720.2	0.03
720.38	0.12
720.56	0.19
720.74	-0.05
720.92	-0.03
721.1	0.2
721.279	0.09
721.459	0.06
721.639	-0.06
721.819	0.09
721.999	0.02
722.179	0.13
722.359	-0.05
722.538	0.12
722.718	0.08
722.898	0
723.078	-0.03
723.257	0.07
723.437	-0.04
723.617	0.01
723.797	0.07
723.976	0.16
724.156	0.11
724.336	0.11
724.515	0.15
724.695	-0.01
724.874	0
725.054	0.1
725.234	-0.03
725.413	0.05
725.593	-0.01
725.772	0.04
725.952	0.08
726.131	0.09
726.311	0.12
726.49	0.01
726.67	0.01
726.849	-0.02
727.028	0.16
727.208	-0.03
727.387	0.09
727.567	0.04
727.746	0.06
727.925	0
728.105	-0.01
728.284	0
728.463	0.06
728.643	0.05
728.822	-0.04
729.001	0.1
729.18	0.04
729.359	0.1
729.539	0.1
729.718	0.09
729.897	0.15
730.076	-0.01
730.255	-0.07
730.434	0.05
730.614	0.08
730.793	0.15
730.972	0.02
731.151	0.1
731.33	0.18
731.509	0.11
731.688	0.16
731.867	0.09
732.046	-0.06
732.225	0.19
732.404	0.06
732.583	-0.04
732.762	0.11
732.941	0.15
733.12	0.1
733.298	0.11
733.477	0.14
733.656	0.21
733.835	0.04
734.014	0.12
734.193	0.12
734.371	0.14
734.55	0.22
734.729	0
734.908	0.13
735.086	0.14
735.265	0.19
735.444	-0.02
735.623	-0.01
735.801	-0.04
735.98	0.09
736.159	0.12
736.337	0.24
736.516	0.18
736.694	0.13
736.873	0.05
737.052	0.25
737.23	0.13
737.409	0.15
737.587	0.3
737.766	0.01
737.944	0.03
738.123	0.22
738.301	0.12
738.479	0.03
738.658	0.19
738.836	-0.06
739.015	0.1
739.193	0.18
739.371	0.03
739.55	0.02
739.728	0.03
739.906	0.2
740.085	0.34
740.263	0.13
740.441	-0.06
740.62	0.25
740.798	0.22
740.976	0
741.154	-0.01
741.332	0.14
741.511	-0.06
741.689	0.18
741.867	0.13
742.045	0.01
742.223	0.1
742.401	-0.05
742.579	0.01
742.757	0.06
742.935	-0.06
743.114	-0
743.292	0.09
743.47	0.05
743.648	0.11
743.826	0.05
744.004	0.15
744.181	0.09
744.359	0
744.537	0.04
744.715	0.11
744.893	0.06
745.071	0.08
745.249	-0.07
745.427	0.07
745.605	0.01
745.782	-0.01
745.96	0.06
746.138	0.03
746.316	0.06
746.493	0.01
746.671	0.06
746.849	-0
747.027	0.09
747.204	-0.05
747.382	0.03
747.56	-0.08
747.737	0.02
747.915	0.02
748.093	0.07
748.27	-0.03
748.448	0.01
748.625	-0
748.803	-0.07
748.98	0.03
749.158	0.09
749.335	0.05
749.513	0.03
749.69	0.08
749.868	-0.05
750.045	-0.02
750.223	0.04
750.4	-0.09
750.578	0.16
750.755	0.07
750.932	-0.14
751.11	0.14
751.287	-0.16
751.464	0.04
751.642	-0.07
751.819	0.17
751.996	0.11
752.173	0.04
752.351	-0
752.528	0.04
752.705	-0.01
752.882	-0.06
753.06	0.08
753.237	0.07
753.414	0.02
753.591	0.07
753.768	0.02
753.945	-0.13
754.122	-0.03
754.299	0.09
754.476	-0.01
754.654	0.05
754.831	0.07
755.008	0
755.185	0
755.362	0.02
755.539	-0.04
755.716	-0.07
755.892	0.02
756.069	-0.08
756.246	-0
756.423	-0.03
756.6	0.12
756.777	0.02
756.954	0.16
757.131	0.08
757.307	0.04
757.484	-0.03
757.661	-0.02
757.838	0.05
758.015	-0.05
758.191	-0.02
758.368	0.11
758.545	0.13
758.721	0.11
758.898	-0.09
759.075	0.04
759.251	0.13
759.428	0.1
759.605	-0.15
759.781	0.08
759.958	0.06
760.134	0.05
760.311	-0.08
760.488	0.08
760.664	0.26
760.841	-0.01
761.017	-0.14
761.194	0.14
761.37	0.01
761.547	-0.02
761.723	-0
761.899	0.11
762.076	-0.1
762.252	-0.16
762.429	0.02
762.605	-0
762.781	0.03
762.958	0.13
763.134	-0.02
763.31	0.05
763.486	0.17
763.663	-0.1
763.839	0.01
764.015	-0.1
764.191	-0.06
764.368	0
764.544	-0.07
764.72	0.09
764.896	0.04
765.072	-0.07
765.248	0
765.425	0.04
765.601	0.07
765.777	0.13
765.953	-0.18
766.129	-0.04
766.305	-0.01
766.481	0.01
766.657	0.02
766.833	0.17
767.009	-0.1
767.185	-0.04
767.361	-0.03
767.537	-0.16
767.713	0.04
767.889	-0.1
768.065	-0.08
768.24	0.16
768.416	0.15
768.592	-0.1
768.768	-0.04
768.944	-0.1
769.12	-0.19
769.295	-0.08
769.471	0.02
769.647	-0.08
769.823	0.12
769.998	0.02
770.174	-0.02
770.35	0.38
770.525	0.2
770.701	0.05
770.877	-0.03
771.052	0.05
771.228	0.14
771.403	0.01
771.579	0.07
771.755	0.46
771.93	-0.1
772.106	-0.16
772.281	-0.16
772.457	0.11
772.632	0.01
772.808	-0.02
772.983	-0.05
773.159	-0.11
773.334	0.12
773.509	-0.06
773.685	-0.04
773.86	0.24
774.036	0.24
774.211	0.1
774.386	0.04
774.562	0.09
774.737	0.11
774.912	-0.12
775.087	0.05
775.263	-0.02
775.438	0.06
775.613	-0
775.788	-0.05
775.964	0.11
776.139	0.3
776.314	0.01
776.489	0.13
776.664	0.15
776.839	-0.07
777.014	0.12
777.19	0.11
777.365	0.19
777.54	0.24
777.715	-0.07
777.89	0.1
778.065	-0.1
778.24	-0.01
778.415	0.1
778.59	-0.16
778.765	-0.1
778.94	0.08
779.115	-0.02
779.289	-0.12
779.464	-0.07
779.639	-0
779.814	-0.1
779.989	-0.23
780.164	0.26
780.339	-0.06
780.513	-0.19
780.688	-0.01
780.863	0.11
781.038	0.11
781.212	-0.03
781.387	-0.07
781.562	0.11
781.737	0.13
781.911	0.2
782.086	-0.03
782.261	-0.02
782.435	0.38
782.61	-0.04
782.784	-0.11
782.959	0.04
783.134	-0.01
783.308	-0.19
783.483	0.08
783.657	0.32
783.832	0.07
784.006	-0.23
784.181	0.03
784.355	-0.02
784.53	0.07
784.704	-0.13
784.878	0.14
785.053	0.18
785.227	0.14
785.402	0.38
785.576	-0.13
785.75	0.09
785.925	-0.08
786.099	-0.03
786.273	-0.07
786.448	0.13
786.622	0.36
786.796	-0.1
786.97	0.04
787.145	0.35
787.319	-0.13
787.493	-0.15
787.667	-0.33
787.841	0.08
788.015	0.18
788.19	0.04
788.364	0.06
788.538	0.17
788.712	0.09
788.886	-0.07
789.06	0.01
789.234	0.06
789.408	-0.25
789.582	-0.13
789.756	-0.08
789.93	0.03
790.104	0.11
790.278	0.08
790.452	0.02
790.626	0.04
790.8	0.09
790.973	0.06
791.147	0.22
791.321	0.31
791.495	0.24
791.669	0.13
791.843	0.07
792.016	0.09
792.19	0.35
792.364	-0.15
792.538	0.38
792.711	0.2
792.885	-0.08
793.059	-0.1
793.233	-0.46
793.406	0.22
793.58	-0.03
793.754	0.19
793.927	-0.08
794.101	0.36
794.274	0.29
794.448	0.42
794.622	-0.1
794.795	0.54
794.969	-0.09
795.142	0.31
795.316	0.05
795.489	-0.05
795.663	0.37
795.836	-0.1
796.009	-0.2
796.183	0.41
796.356	0.12
796.53	0.05
796.703	0.17
796.876	0.57
797.05	-0.25
797.223	0.15
797.396	-0.04
797.57	0.2
797.743	0.55
797.916	0.04
798.09	0.3
798.263	0.08
798.436	0.23
798.609	-0.22
798.782	-0.12
798.956	0.24
799.129	-0.11
799.302	0.03
799.475	-0.15
799.648	-0.04
799.821	0.01
799.994	0.3
800.167	-0.26
800.34	0.16
800.514	0.14
800.687	0.26
800.86	-0.21
801.033	0.02
801.206	-0.17
801.379	-0.25
801.551	0.34
801.724	0.27
801.897	0.46
802.07	-0.09
802.243	-0.39
802.416	0.15
802.589	0.15
802.762	-0.03
802.935	-0.11
803.107	0.41
803.28	0.3
803.453	0.29
803.626	-0.35
803.798	-0.02
803.971	0.03
804.144	0.09
804.317	0.03
804.489	0
804.662	0.12
804.835	0
805.007	0.04
805.18	0.31
805.353	0.23
805.525	0.05
805.698	-0.14
805.87	0.17
806.043	0.15
806.215	-0.43
806.388	0.02
806.56	-0.01
806.733	0.38
806.905	0.18
807.078	-0.13
807.25	-0.12
807.423	0.1
807.595	-0.06
807.768	0.04
807.94	0.14
808.112	0.34
808.285	0.01
808.457	-0.07
808.629	0.2
808.802	0
808.974	0.28
809.146	-0.19
809.318	-0.18
809.491	0.19
809.663	-0.08
809.835	-0.36
810.007	0.22
810.18	0.07
810.352	-0.26
810.524	-0.09
810.696	-0.02
810.868	0.46
811.04	0.02
811.212	-0.05
811.384	0.59
811.556	0.46
811.728	0.15
811.901	0.52
812.073	-0.05
812.245	0.4
812.417	-0.09
812.589	-0.49
812.76	0.16
812.932	0.41
813.104	0.15
813.276	0.05
813.448	0.41
813.62	-0.33
813.792	0.58
813.964	0.06
814.136	0
814.307	-0.22
814.479	-0.17
814.651	0.11
814.823	0.6
814.995	-0.01
815.166	0.4
815.338	-0.22
815.51	-0.54
815.681	0.56
815.853	0.05
816.025	-0.6
816.196	0.29
816.368	0.36
816.54	-0.38
816.711	-0.17
816.883	0.09
817.054	1.17
817.226	-0.18
817.398	-0.02
817.569	-0.25
817.741	-0.18
817.912	-0.28
818.084	-0.18
818.255	0.14
818.426	-0.58
818.598	0.04
818.769	-0.19
818.941	0.33
819.112	0.6
819.283	0.54
819.455	-0.03
819.626	0.07
819.798	0.52
819.969	0.18
820.14	-0.15
820.311	-0.19
820.483	-0.12
820.654	0.12
820.825	0.25
820.996	-0.07
821.168	-0.53
821.339	-0.22
821.51	0.23
821.681	-0.26
821.852	-0.04
822.023	-0.47
822.195	-0.26
822.366	0.8
822.537	-0.11
822.708	0.37
822.879	-0.35
823.05	0.66
823.221	-0.17
823.392	0.53
823.563	-0.04
823.734	-0.1
823.905	0.59
824.076	-0.44
824.247	-0.67
824.418	-0.09
824.589	0.32
824.759	-0.35
824.93	0.64
825.101	-0.73
825.272	1.17
825.443	0.21
825.614	0.57
825.784	-1.02
825.955	1.44
826.126	1.24
826.297	0.13
826.467	0.96
826.638	0.67
826.809	-0.7
826.98	-0.04
827.15	0.43
827.321	-0.26
827.492	0.45
827.662	-0.18
827.833	0.86
828.003	-0.03
828.174	-0.13
828.345	-0.59
828.515	1
828.686	0.49
828.856	-0.07
829.027	0.24
829.197	0.13
829.368	0.24
829.538	-0.08
829.709	-0.12
829.879	-0.26
830.049	0.16
830.22	-0.6
830.39	-0.03
830.56	0.17
830.731	-0.15
830.901	-0.49
831.072	0.23
831.242	0.33
831.412	0.73
831.582	0.11
831.753	-0.78
831.923	0.98
832.093	0.14
832.263	-0.02
832.434	-0.77
832.604	-0.2
832.774	0.5
832.944	0.63
833.114	-0.23
833.284	0.4
833.454	-0.67
833.624	-0.58
833.795	0.06
833.965	0.1
834.135	0.68
834.305	-0.63
834.475	-0.11
834.645	-0.32
834.815	-0.05
834.985	0.32
835.155	-0.02
835.325	-0.12
835.494	0.18
835.664	-0.62
835.834	-0.75
836.004	0.37
836.174	0.2
836.344	0.08
836.514	-0.51
836.684	0.36
836.853	0.05
837.023	0.24
837.193	0.15
837.363	-0.16
837.532	0.37
837.702	0.29
837.872	-0.34
838.041	0.91
838.211	1.21
838.381	-0.45
838.55	0.36
838.72	1.46
838.89	1.48
839.059	0.16
839.229	-0.07
839.398	0.94
839.568	0.04
839.738	-0.08
839.907	1.09
840.077	0.01
840.246	0.3
840.416	-0.06
840.585	-0.35
840.755	1.59
840.924	0.75
841.093	-0.54
841.263	-0.05
841.432	0.17
841.602	-1.12
841.771	-0.26
841.94	0.15
842.11	0.95
842.279	1.24
842.448	0.04
842.617	-0.1
842.787	0.79
842.956	-0.3
843.125	0.56
843.294	0.26
843.464	0.61
843.633	-0.18
843.802	-0.82
843.971	-0.11
844.14	0.52
844.309	1.04
844.479	-0.85
844.648	-0.24
844.817	-0.9
844.986	0.61
845.155	0.15
845.324	-0.6
845.493	-0.07
845.662	-1.13
845.831	0.76
846	0.69
846.169	-0.7
846.338	1.52
846.507	1.26
846.676	0.29
846.844	-0.3
847.013	1.26
847.182	-0.05
847.351	-0.44
847.52	0.46
847.689	0.34
847.858	0.25
848.026	0.1
848.195	0.06
848.364	-0.73
848.533	-0.94
848.701	-0.56
848.87	0.39
849.039	-0.27
849.207	1.16
849.376	0.69
849.545	1.07
849.713	-0.15
849.882	0.43
850.051	-0.66
850.219	0.92
850.388	1.15
850.556	-1.47
850.725	-1.01
850.893	-0.19
851.062	-0.07
851.23	0.57
851.399	-1.19
851.567	-0.43
851.736	0.31
851.904	-0.43
852.073	0.21
852.241	1.04
852.41	0.54
852.578	0.89
852.746	0.15
852.915	-0.22
853.083	0.17
853.251	-1.23
853.42	0.38
853.588	-0.58
853.756	1.2
853.924	0.29
854.093	-0.14
854.261	-0.57
854.429	-0.82
854.597	0
854.765	-0.53
854.934	0.49
855.102	1.65
855.27	0.29
855.438	0.53
855.606	1.43
855.774	1.13
855.942	-0.58
856.11	-2.17
856.278	-0.11
856.446	1.05
856.614	-0.54
856.782	-0.2
856.95	0.97
857.118	0.16
857.286	0.43
857.454	-0.69
857.622	0.34
857.79	0.29
857.958	-0.89
858.126	-0.77
858.294	-2.28
858.462	0.62
858.629	0.66
858.797	-0.63
858.965	1.87
859.133	-0.79
859.301	0.47
859.468	-0.08
859.636	-0.88
859.804	0.39
859.971	1.66
860.139	-0.69
860.307	1.27
860.474	0.21
860.642	0.39
860.81	0.16
860.977	-0.33
861.145	1.19
861.313	-0.51
861.48	-0.34
861.648	0.86
861.815	0.74
861.983	0.09
862.15	0.84
862.318	0.74
862.485	0.82
862.653	-0.43
862.82	-0.07
862.988	1.24
863.155	-0.05
863.322	-0.26
863.49	-0.91
863.657	-0.42
863.824	3.26
863.992	1.45
864.159	2.03
864.326	1.88
864.494	-1.32
864.661	2.64
864.828	-0.57
864.996	1.44
865.163	2.19
865.33	-0.51
865.497	-2.27
865.664	-1.11
865.832	-1.71
865.999	-0.61
866.166	-0.19
866.333	-1.37
866.5	0.06
866.667	0.35
866.834	-0.39
867.001	2.1
867.168	-1.23
867.335	0.59
867.502	-1.32
867.669	0.13
867.836	2.71
868.003	-1.04
868.17	2.08
868.337	0.52
868.504	1.87
868.671	0.21
868.838	-1.79
869.005	0.8
869.172	0.23
869.339	0.92
869.505	0.49
869.672	0.41
869.839	2.34
870.006	1.18
870.173	-1.34
870.339	1.09
870.506	2.29
870.673	-1.93
870.84	2.13
871.006	0.9
871.173	-0.53
871.34	-0.69
871.506	-1.44
871.673	1.46
871.839	-0.75
872.006	1.55
872.173	0.44
872.339	1.11
872.506	1.87
872.672	-1.05
872.839	-1.86
873.005	2.11
873.172	1.07
873.338	0.77
873.505	-0.35
873.671	1.23
873.838	0.51
874.004	-2.06
874.171	-0.7
874.337	0.51
874.503	1.6
874.67	0.5
874.836	0.97
875.002	1.3
875.169	1.67
875.335	1.15
875.501	-0.14
875.668	0.28
875.834	-0.74
876	-1.39
876.166	0.66
876.332	0.7
876.499	3.68
876.665	-0.27
876.831	1.39
876.997	2.47
877.163	2.26
877.329	-0.7
877.495	0.97
877.662	1.96
877.828	2.47
877.994	1.01
878.16	-1.53
878.326	-1.05
878.492	1.46
878.658	1.57
878.824	0.22
878.99	0.61
879.156	-0.07
879.322	1.06
879.487	-0.69
879.653	0.62
879.819	0
879.985	-0.97
880.151	1.92
880.317	-0.65
880.483	0.19
880.648	1.2
880.814	-2.07
880.98	0.96
881.146	-0.73
881.312	-1.48
881.477	1.39
881.643	-1.37
881.809	1.71
881.974	0.55
882.14	-0.54
882.306	1.11
882.471	5.12
882.637	-0.88
882.803	1.39
882.968	1.68
883.134	3.68
883.299	1.31
883.465	0.45
883.63	0.78
883.796	2.29
883.961	1.17
884.127	1.54
884.292	-3.64
884.458	-2.05
884.623	-2.05
