Data from Apollo_Calib_20240827__AbsoluteIrradiance__204__02-33-02-999.txt Node

Date: Wed Aug 28 02:33:02 BST 2024
User: biology
Spectrometer: FLMT08252
Trigger mode: 0
Integration Time (sec): 5.000000E-1
Scans to average: 5
Electric dark correction enabled: true
Nonlinearity correction enabled: false
Boxcar width: 0
XAxis mode: Wavelengths
Number of Pixels in Spectrum: 3648
>>>>>Begin Spectral Data<<<<<
179.588	-0
179.809	-0
180.03	-0
180.251	-0
180.473	-0
180.694	0
180.915	0
181.136	-0
181.357	0
181.578	-0
181.799	-0
182.02	-0
182.241	0
182.462	-0
182.683	0
182.904	-0
183.125	-0
183.346	0
183.567	0
183.788	0
184.009	-0
184.23	0
184.451	0
184.672	-0
184.892	-0
185.113	0
185.334	0
185.555	-0
185.776	-0
185.996	0
186.217	0
186.438	0
186.659	-0
186.879	0
187.1	0
187.321	0
187.541	-0
187.762	0
187.983	0
188.203	0
188.424	0
188.644	0
188.865	0
189.086	0
189.306	0
189.527	0
189.747	0
189.968	-0
190.188	0
190.409	0
190.629	0
190.849	-0
191.07	0
191.29	0
191.511	0
191.731	-0
191.951	-0
192.172	0
192.392	0
192.612	0
192.833	0
193.053	0
193.273	0
193.493	0
193.714	0
193.934	0
194.154	0
194.374	-0
194.594	0
194.815	0
195.035	0
195.255	0
195.475	-0
195.695	0
195.915	0
196.135	-0
196.355	0
196.575	0
196.795	0
197.015	-0
197.235	-0
197.455	0
197.675	0
197.895	-0
198.115	-0
198.335	0
198.555	0
198.775	0
198.995	0
199.214	0
199.434	0
199.654	-0
199.874	0
200.094	2.01
200.313	-0.07
200.533	0.21
200.753	-0.28
200.973	1.27
201.192	1.34
201.412	-0.16
201.632	0.11
201.851	1.51
202.071	0.12
202.291	-0.19
202.51	-0.24
202.73	0.8
202.95	0.28
203.169	-0.44
203.389	0.15
203.608	0.34
203.828	-0.17
204.047	0.2
204.267	0.54
204.486	0.27
204.706	0.77
204.925	0.17
205.145	0.06
205.364	0.7
205.583	1.39
205.803	0.06
206.022	-0.45
206.242	0.36
206.461	0.27
206.68	0.11
206.9	0.06
207.119	1.1
207.338	0.8
207.557	-0.17
207.777	0.09
207.996	0.13
208.215	0.77
208.434	0.02
208.654	-0.31
208.873	0.47
209.092	0.8
209.311	-0.11
209.53	-0.01
209.749	0.26
209.968	0.28
210.187	0.14
210.407	-0.3
210.626	-0.19
210.845	0.45
211.064	0.24
211.283	-0.07
211.502	0.67
211.721	-0.01
211.94	0.16
212.159	0.31
212.377	0.37
212.596	0.5
212.815	-0.07
213.034	0.25
213.253	0.39
213.472	0.15
213.691	0.29
213.91	-0.15
214.128	-0.11
214.347	0.45
214.566	-0.42
214.785	-0.04
215.003	0.33
215.222	0.26
215.441	0.11
215.66	-0.05
215.878	0.01
216.097	0.45
216.316	-0.07
216.534	-0.07
216.753	0.12
216.972	0
217.19	0.07
217.409	-0.11
217.627	-0.08
217.846	0.04
218.064	0.14
218.283	-0.1
218.501	0.64
218.72	0.28
218.938	-0.17
219.157	-0.05
219.375	0.3
219.594	0.2
219.812	-0.01
220.031	-0.14
220.249	0.37
220.467	0.48
220.686	-0.01
220.904	-0.11
221.122	-0.13
221.341	0.5
221.559	0.24
221.777	-0.11
221.995	0.2
222.214	0.34
222.432	-0.16
222.65	0.5
222.868	0.15
223.086	0.26
223.305	0.21
223.523	0.11
223.741	0.52
223.959	-0.1
224.177	-0.15
224.395	0.07
224.613	0.03
224.831	0.28
225.049	-0.06
225.267	0.04
225.485	0.08
225.703	0.17
225.921	0.01
226.139	-0.01
226.357	0.31
226.575	0.14
226.793	-0.06
227.011	0.79
227.229	0.19
227.447	0.32
227.665	-0.04
227.883	-0.12
228.1	0.13
228.318	0.12
228.536	-0.17
228.754	-0.04
228.972	0.1
229.189	0.24
229.407	-0.02
229.625	-0.09
229.843	0.3
230.06	0.3
230.278	0.06
230.496	0.02
230.713	0.2
230.931	0.13
231.149	-0.03
231.366	-0.17
231.584	0.14
231.801	0.51
232.019	-0.1
232.236	-0.08
232.454	0
232.671	0.12
232.889	0.01
233.106	0.02
233.324	0.06
233.541	0.08
233.759	0.11
233.976	0.02
234.194	0.15
234.411	0.03
234.628	-0.02
234.846	0.05
235.063	0.07
235.28	0.05
235.498	0.12
235.715	-0.07
235.932	0.21
236.149	0.16
236.367	-0.15
236.584	0.06
236.801	0.12
237.018	0.16
237.236	-0.03
237.453	-0.09
237.67	0.24
237.887	-0.03
238.104	0.08
238.321	-0.12
238.538	-0.01
238.755	0.2
238.973	-0.09
239.19	0.13
239.407	0.14
239.624	0.11
239.841	-0.09
240.058	-0.04
240.275	0.05
240.492	0.02
240.709	-0.01
240.925	0.02
241.142	0.05
241.359	-0.07
241.576	-0.08
241.793	-0.07
242.01	-0.01
242.227	0.25
242.444	0.14
242.66	0.19
242.877	0.04
243.094	0.07
243.311	0.1
243.527	0.05
243.744	0.11
243.961	0.15
244.178	-0.05
244.394	0.07
244.611	0.17
244.828	0.27
245.044	0.02
245.261	0.05
245.477	0.12
245.694	0.13
245.911	-0.02
246.127	0.03
246.344	0.25
246.56	0.17
246.777	-0.04
246.993	0.08
247.21	0.13
247.426	0.19
247.643	0
247.859	-0.1
248.076	0
248.292	0.27
248.508	-0
248.725	0.07
248.941	0.06
249.157	0.15
249.374	-0.04
249.59	0.04
249.806	0.09
250.023	0.2
250.239	-0.07
250.455	-0.01
250.671	0.08
250.888	0.08
251.104	0.05
251.32	0.11
251.536	0.06
251.752	0.08
251.969	0.09
252.185	0.1
252.401	0.23
252.617	0.13
252.833	-0.02
253.049	0.08
253.265	0.05
253.481	0.09
253.697	-0.03
253.913	-0.02
254.129	0.13
254.345	0.12
254.561	0.07
254.777	0.02
254.993	0.12
255.209	0.12
255.425	0.01
255.641	-0.01
255.857	0.15
256.073	0.12
256.288	0.07
256.504	0.03
256.72	0.12
256.936	0.16
257.152	0.08
257.367	-0.03
257.583	0.14
257.799	0.11
258.015	0.04
258.23	0.06
258.446	0.2
258.662	0.04
258.877	-0.02
259.093	0.02
259.309	0.05
259.524	0.06
259.74	0.02
259.955	-0.01
260.171	0.1
260.387	0.05
260.602	0.07
260.818	0.09
261.033	-0.07
261.249	-0.01
261.464	0.01
261.68	-0.02
261.895	0.1
262.11	0.16
262.326	0.05
262.541	-0.06
262.757	0.11
262.972	0.18
263.187	0.08
263.403	0.03
263.618	0.12
263.833	0.08
264.049	0.02
264.264	0.06
264.479	0.09
264.694	0.18
264.91	-0.01
265.125	-0.01
265.34	0.11
265.555	0.24
265.77	0.06
265.986	-0
266.201	0.14
266.416	0.16
266.631	0.05
266.846	0
267.061	0.18
267.276	0.11
267.491	-0.06
267.706	0.07
267.921	0.08
268.136	0.06
268.351	0.04
268.566	0.01
268.781	0.15
268.996	0.15
269.211	0.04
269.426	-0.06
269.641	0.01
269.856	0.13
270.071	-0.01
270.285	-0.07
270.5	0.12
270.715	0.08
270.93	0.05
271.145	0.1
271.359	0.14
271.574	-0
271.789	0.04
272.004	0.04
272.218	0.01
272.433	0.12
272.648	0.02
272.862	0.15
273.077	0.05
273.292	0.06
273.506	-0.05
273.721	0.05
273.936	0.11
274.15	0.13
274.365	0.02
274.579	0.07
274.794	0.11
275.008	0.06
275.223	0.01
275.437	0.07
275.652	0.11
275.866	0.16
276.081	0.07
276.295	0.08
276.509	0.11
276.724	0.06
276.938	0.04
277.153	0.1
277.367	0.11
277.581	0.02
277.796	0.04
278.01	-0.04
278.224	0.09
278.438	0.16
278.653	0
278.867	0.06
279.081	0.13
279.295	-0
279.51	0.11
279.724	-0.04
279.938	0.04
280.152	0.11
280.366	-0.02
280.58	0.06
280.794	0.12
281.008	0.08
281.222	0.07
281.437	0.14
281.651	0.06
281.865	0.11
282.079	0.07
282.293	-0.05
282.507	-0.01
282.721	0.07
282.935	0.09
283.148	-0.03
283.362	0.07
283.576	0.01
283.79	0.02
284.004	-0.03
284.218	0.17
284.432	-0.02
284.646	0.05
284.859	0.01
285.073	0.04
285.287	0.1
285.501	0.02
285.714	0.03
285.928	0.04
286.142	0.07
286.356	0.01
286.569	0.02
286.783	0.15
286.997	0.11
287.21	0.07
287.424	0.05
287.637	0.06
287.851	0.08
288.065	0.12
288.278	0.05
288.492	0.04
288.705	0.01
288.919	0.04
289.132	-0.02
289.346	0.1
289.559	-0.03
289.773	0.05
289.986	0.04
290.2	-0
290.413	0.12
290.626	-0.01
290.84	0.07
291.053	0.02
291.267	0.17
291.48	0.04
291.693	0.02
291.906	0.01
292.12	0.04
292.333	-0.02
292.546	0.02
292.76	0.09
292.973	0.06
293.186	0.1
293.399	0.03
293.612	0.05
293.826	0.05
294.039	-0
294.252	0.07
294.465	0.06
294.678	0.08
294.891	-0.02
295.104	0
295.317	0
295.53	0.03
295.743	0.06
295.956	0.04
296.169	0.11
296.382	0.14
296.595	0.04
296.808	-0
297.021	0.11
297.234	0.12
297.447	0.08
297.66	0.06
297.873	0.15
298.086	0.12
298.299	0.02
298.511	-0.02
298.724	0.01
298.937	0.03
299.15	0.03
299.363	0.04
299.575	0.11
299.788	0.05
300.001	0.02
300.213	-0.03
300.426	0.02
300.639	0.02
300.852	0.03
301.064	0.07
301.277	0.16
301.489	0.08
301.702	0.06
301.915	0
302.127	0.05
302.34	0.04
302.552	0.07
302.765	0.03
302.977	0.13
303.19	-0.01
303.402	0.03
303.615	0.04
303.827	0.05
304.04	0.01
304.252	0.06
304.464	-0
304.677	0.16
304.889	0.1
305.102	0.06
305.314	-0.01
305.526	0.08
305.739	0.09
305.951	0.02
306.163	0.04
306.375	0.13
306.588	0.05
306.8	0.05
307.012	0.01
307.224	0.04
307.436	0.09
307.649	-0.04
307.861	0.07
308.073	0.07
308.285	0.01
308.497	0.02
308.709	0
308.921	0.04
309.133	0.12
309.346	0.06
309.558	0.01
309.77	0.1
309.982	0.11
310.194	0.09
310.406	0.02
310.617	0.14
310.829	0.07
311.041	0.06
311.253	0.02
311.465	0.05
311.677	0.03
311.889	0.01
312.101	0.04
312.313	0.1
312.524	0.13
312.736	-0.01
312.948	0.02
313.16	0.15
313.372	0.08
313.583	0.09
313.795	0.04
314.007	0.02
314.218	0.07
314.43	0.07
314.642	0.02
314.853	0.01
315.065	0.11
315.277	0.04
315.488	0.1
315.7	0.11
315.912	0.14
316.123	0.02
316.335	0.04
316.546	0.14
316.758	0.07
316.969	0.01
317.181	0.06
317.392	0.05
317.604	0.11
317.815	0.03
318.026	-0.01
318.238	0.04
318.449	0.12
318.661	-0.01
318.872	-0.01
319.083	-0.01
319.295	0.11
319.506	0.03
319.717	0.06
319.929	0.06
320.14	0.06
320.351	0.06
320.562	0.02
320.774	0.08
320.985	0.05
321.196	-0
321.407	-0.02
321.618	0.13
321.829	0.08
322.041	0.09
322.252	0.03
322.463	0.1
322.674	0.07
322.885	0.02
323.096	0.04
323.307	0.06
323.518	0.07
323.729	0.02
323.94	0.06
324.151	0.03
324.362	0.1
324.573	0.06
324.784	0.06
324.995	0.07
325.206	0.09
325.417	0.03
325.628	0.06
325.838	0.11
326.049	0.12
326.26	0.09
326.471	0.06
326.682	0.12
326.892	0.06
327.103	0.03
327.314	0.01
327.525	0.17
327.735	0.07
327.946	0.04
328.157	0.01
328.368	0.06
328.578	0.05
328.789	0.12
328.999	0.06
329.21	0.07
329.421	0.13
329.631	0.04
329.842	0.05
330.052	0.08
330.263	0.07
330.473	0.1
330.684	0.04
330.894	0.03
331.105	0.1
331.315	0.01
331.526	-0.03
331.736	0.14
331.947	0.1
332.157	0.06
332.367	0
332.578	0.12
332.788	0.13
332.999	0.09
333.209	0.04
333.419	-0.04
333.629	0.12
333.84	0.09
334.05	0.05
334.26	0.13
334.47	0.06
334.681	0.11
334.891	0.05
335.101	0.09
335.311	0.18
335.521	0.07
335.732	0.01
335.942	0.11
336.152	0.07
336.362	0.11
336.572	0.1
336.782	0.12
336.992	0.08
337.202	0.06
337.412	0.04
337.622	0.13
337.832	0.05
338.042	0.06
338.252	0.05
338.462	0.05
338.672	0.08
338.882	0.09
339.092	0.07
339.302	0.14
339.511	0.09
339.721	0.05
339.931	0.02
340.141	0.11
340.351	0.14
340.561	0.08
340.77	0.09
340.98	0.06
341.19	0.14
341.4	0.05
341.609	0.03
341.819	0.07
342.029	0
342.238	0.08
342.448	0.07
342.658	0.1
342.867	0.07
343.077	0.07
343.286	0.08
343.496	0.02
343.706	0.08
343.915	0.03
344.125	0.1
344.334	0.09
344.544	0.01
344.753	0.02
344.963	0.03
345.172	0.04
345.381	0.05
345.591	0.01
345.8	0.09
346.01	0.12
346.219	0.14
346.428	-0.03
346.638	0.03
346.847	0.08
347.056	0.14
347.266	0.03
347.475	0.02
347.684	0.12
347.893	0.11
348.103	0.06
348.312	0.03
348.521	0.01
348.73	0.06
348.94	0.03
349.149	0.06
349.358	0.05
349.567	0.04
349.776	-0.01
349.985	0.09
350.194	0.07
350.403	0.13
350.612	-0.04
350.821	0.02
351.03	0.09
351.239	0.02
351.448	0.08
351.657	0.05
351.866	0.17
352.075	0.07
352.284	0.02
352.493	0.03
352.702	0.14
352.911	0.08
353.12	0.09
353.329	0.09
353.538	0.11
353.746	0.04
353.955	0.06
354.164	0.1
354.373	0.07
354.582	0.1
354.79	0.08
354.999	0.13
355.208	0.08
355.416	0.15
355.625	0.05
355.834	0.08
356.042	0.1
356.251	0.06
356.46	0.02
356.668	0.07
356.877	0.18
357.085	0.1
357.294	-0.03
357.503	0.1
357.711	0.07
357.92	0.2
358.128	0.09
358.337	0.06
358.545	0.13
358.754	0.04
358.962	0.1
359.17	0.05
359.379	0.07
359.587	0.08
359.796	0.03
360.004	0.13
360.212	0.1
360.421	0.11
360.629	0.02
360.837	0.1
361.046	0.08
361.254	0.15
361.462	0.05
361.67	0.06
361.879	0.08
362.087	0.13
362.295	0.09
362.503	0.07
362.711	0.02
362.92	0.05
363.128	0.06
363.336	0.03
363.544	0.03
363.752	0.11
363.96	0.03
364.168	0.05
364.376	0.1
364.584	0.05
364.792	0.11
365	0.1
365.208	0.09
365.416	0.08
365.624	0.11
365.832	0.07
366.04	0.16
366.248	0.05
366.456	0.06
366.664	0.1
366.872	0.11
367.079	0.07
367.287	0.1
367.495	0.09
367.703	0.07
367.911	0.06
368.118	0.08
368.326	0.08
368.534	0.06
368.742	0.13
368.949	0.02
369.157	0.04
369.365	0.13
369.572	0.04
369.78	0.05
369.988	0.11
370.195	0.11
370.403	0.15
370.61	0.1
370.818	0.11
371.026	0.17
371.233	0.04
371.441	0.11
371.648	0.05
371.856	0.09
372.063	0.13
372.271	0.07
372.478	0.08
372.685	0.05
372.893	0.11
373.1	0.1
373.308	0.07
373.515	0.16
373.722	0.13
373.93	0.08
374.137	0.17
374.344	0.16
374.552	0.15
374.759	0.12
374.966	0.1
375.173	0.08
375.381	0.17
375.588	0.13
375.795	0.01
376.002	0.09
376.209	0.1
376.417	0.08
376.624	0.12
376.831	0.15
377.038	0.05
377.245	0.04
377.452	0.1
377.659	0.12
377.866	0.11
378.073	0.12
378.28	0.09
378.487	0.15
378.694	0.16
378.901	0.15
379.108	0.11
379.315	0.17
379.522	0.27
379.729	0.14
379.936	0.12
380.143	0.15
380.35	0.17
380.557	0.16
380.763	0.14
380.97	0.18
381.177	0.19
381.384	0.19
381.591	0.11
381.797	0.21
382.004	0.17
382.211	0.22
382.418	0.19
382.624	0.21
382.831	0.23
383.038	0.14
383.244	0.24
383.451	0.18
383.658	0.2
383.864	0.19
384.071	0.19
384.277	0.31
384.484	0.25
384.69	0.28
384.897	0.21
385.103	0.27
385.31	0.27
385.516	0.26
385.723	0.26
385.929	0.31
386.136	0.35
386.342	0.37
386.549	0.31
386.755	0.4
386.961	0.41
387.168	0.38
387.374	0.42
387.58	0.47
387.787	0.39
387.993	0.47
388.199	0.49
388.406	0.47
388.612	0.49
388.818	0.52
389.024	0.52
389.231	0.6
389.437	0.67
389.643	0.7
389.849	0.65
390.055	0.71
390.261	0.8
390.467	0.79
390.674	0.82
390.88	0.86
391.086	0.89
391.292	0.96
391.498	1.05
391.704	1.06
391.91	1.1
392.116	1.12
392.322	1.07
392.528	1.29
392.734	1.29
392.94	1.42
393.146	1.47
393.352	1.53
393.557	1.53
393.763	1.63
393.969	1.83
394.175	1.82
394.381	1.94
394.587	1.95
394.792	2.13
394.998	2.29
395.204	2.41
395.41	2.37
395.615	2.61
395.821	2.69
396.027	2.76
396.233	3.01
396.438	3.05
396.644	3.37
396.85	3.47
397.055	3.69
397.261	3.82
397.466	4.05
397.672	4.11
397.878	4.35
398.083	4.47
398.289	4.53
398.494	4.8
398.7	5
398.905	5.05
399.111	5.45
399.316	5.42
399.522	5.71
399.727	6.02
399.932	6.17
400.138	6.4
400.343	6.76
400.549	6.75
400.754	7.31
400.959	7.65
401.165	7.97
401.37	8.29
401.575	8.85
401.78	8.79
401.986	9.24
402.191	9.66
402.396	10.01
402.601	10.36
402.807	10.7
403.012	11
403.217	11.78
403.422	11.84
403.627	12.4
403.832	12.9
404.037	13.08
404.243	13.24
404.448	13.8
404.653	14.2
404.858	14.5
405.063	14.26
405.268	14.93
405.473	15.07
405.678	15.37
405.883	16
406.088	16.16
406.293	16.23
406.498	16.68
406.703	16.53
406.907	17.12
407.112	17.57
407.317	18.12
407.522	18.26
407.727	18.62
407.932	18.74
408.136	19.15
408.341	18.71
408.546	18.84
408.751	18.92
408.956	18.7
409.16	19.13
409.365	19.09
409.57	18.55
409.774	18.51
409.979	18.52
410.184	18.08
410.388	18.02
410.593	18.17
410.798	18.09
411.002	18.17
411.207	17.57
411.411	17.42
411.616	17.04
411.82	16.99
412.025	16.47
412.229	16.42
412.434	15.81
412.638	15.42
412.843	15.12
413.047	14.75
413.252	14.17
413.456	14.39
413.66	13.87
413.865	13.4
414.069	12.93
414.273	12.76
414.478	12.31
414.682	12.16
414.886	11.77
415.091	11.36
415.295	11.24
415.499	10.93
415.703	10.35
415.908	10.43
416.112	9.93
416.316	9.93
416.52	9.56
416.724	9.2
416.929	8.99
417.133	9.13
417.337	8.59
417.541	8.62
417.745	8.28
417.949	8.08
418.153	8
418.357	7.81
418.561	7.76
418.765	7.47
418.969	7.27
419.173	7.45
419.377	7.11
419.581	7.1
419.785	6.87
419.989	6.6
420.193	6.59
420.397	6.54
420.601	6.32
420.804	6.27
421.008	5.99
421.212	6.01
421.416	5.63
421.62	5.45
421.823	5.31
422.027	5.19
422.231	4.88
422.435	4.82
422.638	4.61
422.842	4.55
423.046	4.37
423.249	4.4
423.453	4.17
423.657	4.1
423.86	3.95
424.064	3.86
424.268	3.78
424.471	3.68
424.675	3.66
424.878	3.57
425.082	3.37
425.285	3.54
425.489	3.26
425.692	3.16
425.896	3.04
426.099	3.04
426.303	2.91
426.506	2.9
426.71	2.94
426.913	2.81
427.116	2.84
427.32	2.64
427.523	2.54
427.726	2.59
427.93	2.52
428.133	2.51
428.336	2.42
428.54	2.36
428.743	2.41
428.946	2.38
429.149	2.32
429.353	2.22
429.556	2.14
429.759	2.08
429.962	1.99
430.165	2.01
430.368	1.84
430.571	1.74
430.775	1.73
430.978	1.68
431.181	1.61
431.384	1.68
431.587	1.53
431.79	1.57
431.993	1.59
432.196	1.57
432.399	1.57
432.602	1.6
432.805	1.47
433.008	1.51
433.211	1.4
433.414	1.54
433.616	1.42
433.819	1.32
434.022	1.29
434.225	1.44
434.428	1.34
434.631	1.46
434.833	1.28
435.036	1.23
435.239	1.32
435.442	1.26
435.645	1.16
435.847	1.22
436.05	1.22
436.253	1.18
436.455	1.08
436.658	1.13
436.861	1.16
437.063	1.07
437.266	1.05
437.468	1.03
437.671	1.14
437.874	1.04
438.076	0.91
438.279	0.94
438.481	0.95
438.684	0.95
438.886	0.95
439.089	0.83
439.291	0.89
439.494	0.96
439.696	0.82
439.899	0.82
440.101	0.88
440.303	0.82
440.506	0.97
440.708	0.85
440.91	0.9
441.113	0.75
441.315	0.86
441.517	0.73
441.72	0.86
441.922	0.7
442.124	0.64
442.326	0.8
442.529	0.76
442.731	0.61
442.933	0.77
443.135	0.6
443.337	0.6
443.539	0.62
443.742	0.53
443.944	0.66
444.146	0.55
444.348	0.58
444.55	0.54
444.752	0.57
444.954	0.46
445.156	0.55
445.358	0.54
445.56	0.6
445.762	0.51
445.964	0.56
446.166	0.49
446.368	0.46
446.57	0.55
446.772	0.48
446.974	0.42
447.175	0.49
447.377	0.42
447.579	0.5
447.781	0.31
447.983	0.45
448.184	0.44
448.386	0.44
448.588	0.4
448.79	0.42
448.991	0.43
449.193	0.37
449.395	0.38
449.597	0.42
449.798	0.37
450	0.42
450.202	0.38
450.403	0.34
450.605	0.42
450.806	0.37
451.008	0.31
451.21	0.4
451.411	0.34
451.613	0.29
451.814	0.33
452.016	0.37
452.217	0.32
452.419	0.38
452.62	0.33
452.821	0.4
453.023	0.41
453.224	0.34
453.426	0.33
453.627	0.34
453.828	0.37
454.03	0.29
454.231	0.41
454.432	0.31
454.634	0.45
454.835	0.31
455.036	0.25
455.238	0.35
455.439	0.44
455.64	0.25
455.841	0.29
456.042	0.45
456.244	0.35
456.445	0.31
456.646	0.21
456.847	0.31
457.048	0.33
457.249	0.33
457.45	0.62
457.651	0.24
457.852	0.4
458.054	0.29
458.255	0.27
458.456	0.3
458.657	0.29
458.858	0.28
459.058	0.28
459.259	0.33
459.46	0.36
459.661	0.24
459.862	0.4
460.063	0.27
460.264	0.34
460.465	0.26
460.666	0.4
460.866	0.23
461.067	0.25
461.268	0.25
461.469	0.23
461.67	0.28
461.87	0.22
462.071	0.24
462.272	0.23
462.473	0.27
462.673	0.3
462.874	0.24
463.075	0.31
463.275	0.25
463.476	0.3
463.676	0.33
463.877	0.29
464.078	0.29
464.278	0.31
464.479	0.3
464.679	0.28
464.88	0.27
465.08	0.31
465.281	0.28
465.481	0.29
465.682	0.23
465.882	0.29
466.083	0.29
466.283	0.22
466.483	0.25
466.684	0.19
466.884	0.24
467.085	0.29
467.285	0.35
467.485	0.25
467.686	0.22
467.886	0.2
468.086	0.22
468.286	0.2
468.487	0.25
468.687	0.17
468.887	0.25
469.087	0.29
469.287	0.21
469.488	0.23
469.688	0.29
469.888	0.29
470.088	0.26
470.288	0.28
470.488	0.29
470.688	0.18
470.888	0.25
471.088	0.17
471.288	0.26
471.488	0.29
471.688	0.26
471.888	0.23
472.088	0.29
472.288	0.26
472.488	0.22
472.688	0.2
472.888	0.22
473.088	0.19
473.288	0.23
473.488	0.2
473.688	0.33
473.887	0.23
474.087	0.19
474.287	0.24
474.487	0.13
474.687	0.21
474.886	0.19
475.086	0.21
475.286	0.21
475.486	0.2
475.685	0.19
475.885	0.16
476.085	0.14
476.284	0.21
476.484	0.2
476.684	0.2
476.883	0.23
477.083	0.21
477.282	0.18
477.482	0.22
477.681	0.26
477.881	0.2
478.08	0.12
478.28	0.13
478.479	0.2
478.679	0.26
478.878	0.09
479.078	0.12
479.277	0.14
479.477	0.13
479.676	0.14
479.875	0.13
480.075	0.08
480.274	0.19
480.473	0.16
480.673	0.11
480.872	0.18
481.071	0.12
481.271	0.15
481.47	0.14
481.669	0.13
481.868	0.13
482.067	0.11
482.267	0.13
482.466	0.1
482.665	0.12
482.864	0.09
483.063	0.11
483.262	0.16
483.461	0.18
483.661	0.15
483.86	0.13
484.059	0.12
484.258	0.11
484.457	0.12
484.656	0.13
484.855	0.15
485.054	0.07
485.253	0.08
485.452	0.06
485.651	0.12
485.849	0.12
486.048	0.07
486.247	0.08
486.446	0.1
486.645	0.1
486.844	0.09
487.043	0.11
487.241	0.11
487.44	0.07
487.639	0.1
487.838	0.13
488.037	0.11
488.235	0.16
488.434	0.13
488.633	0.08
488.831	0.12
489.03	0.12
489.229	0.11
489.427	0.08
489.626	0.14
489.825	0.17
490.023	0.11
490.222	0.08
490.42	0.1
490.619	0.12
490.817	0.12
491.016	0.09
491.214	0.14
491.413	0.08
491.611	0.11
491.81	0.09
492.008	0.13
492.207	0.12
492.405	0.1
492.604	0.03
492.802	0.06
493	0.1
493.199	0.1
493.397	0.09
493.595	0.09
493.794	0.08
493.992	0.14
494.19	0.1
494.388	0.11
494.587	0.06
494.785	0.1
494.983	0.05
495.181	0.1
495.379	0.09
495.578	0.08
495.776	0.1
495.974	0.12
496.172	0.08
496.37	0.08
496.568	0.05
496.766	0.06
496.964	0.12
497.162	0.11
497.36	0.05
497.558	0.11
497.756	0.13
497.954	0.08
498.152	0.05
498.35	0.09
498.548	0.09
498.746	0.08
498.944	0.07
499.142	0.08
499.34	0.06
499.538	0.06
499.736	0.07
499.933	0.12
500.131	0.12
500.329	0.07
500.527	0.1
500.725	0.11
500.922	0.14
501.12	0.07
501.318	0.07
501.516	0.06
501.713	0.08
501.911	0.07
502.109	0.04
502.306	0.07
502.504	0.09
502.701	0.05
502.899	0.08
503.097	0.12
503.294	0.1
503.492	0.07
503.689	0.07
503.887	0.11
504.084	0.13
504.282	0.08
504.479	0.04
504.677	0.09
504.874	0.07
505.072	0.06
505.269	0.07
505.466	0.1
505.664	0.09
505.861	0.06
506.059	0.06
506.256	0.09
506.453	0.06
506.651	0.13
506.848	0.12
507.045	0.08
507.242	0.08
507.44	0.08
507.637	0.06
507.834	0.05
508.031	0.09
508.229	0.05
508.426	0.09
508.623	0.09
508.82	0.06
509.017	0.02
509.214	0.05
509.411	0.09
509.608	0.04
509.805	0.07
510.003	0.06
510.2	0.06
510.397	0.07
510.594	0.04
510.791	0.04
510.988	0.07
511.184	0.09
511.381	0.07
511.578	0.04
511.775	0.08
511.972	0.06
512.169	0.05
512.366	0.08
512.563	0.09
512.76	0.04
512.956	0.05
513.153	0.05
513.35	0.06
513.547	0.04
513.744	0.04
513.94	0.01
514.137	0.06
514.334	0.06
514.53	0.05
514.727	0.06
514.924	0.1
515.12	0.05
515.317	0.02
515.514	0.02
515.71	0.01
515.907	0.05
516.103	0.05
516.3	0.08
516.497	0.06
516.693	0.1
516.89	0.04
517.086	0
517.283	0.07
517.479	0.04
517.676	0.03
517.872	0.04
518.068	0.04
518.265	0.04
518.461	0.03
518.658	0.03
518.854	0.06
519.05	0.04
519.247	0.04
519.443	0.06
519.639	0.07
519.836	0.07
520.032	0.06
520.228	0.05
520.424	0.1
520.621	0.07
520.817	0.04
521.013	0.07
521.209	0.05
521.405	0.11
521.601	0.05
521.798	0.02
521.994	0.11
522.19	0.05
522.386	0.02
522.582	0.06
522.778	0.04
522.974	0.03
523.17	0.04
523.366	0.07
523.562	0.09
523.758	0.03
523.954	0.03
524.15	0.03
524.346	0.08
524.542	0.04
524.738	0.02
524.934	0.05
525.129	0.03
525.325	0.04
525.521	0.05
525.717	0.07
525.913	0.05
526.109	0.05
526.304	0.03
526.5	0.05
526.696	0.05
526.892	0.03
527.087	0.04
527.283	0.02
527.479	0.07
527.674	0.05
527.87	0.05
528.066	0.03
528.261	0.06
528.457	0.05
528.653	0.04
528.848	0.05
529.044	0.04
529.239	0.02
529.435	0.07
529.63	0.03
529.826	0.09
530.021	0.06
530.217	0.06
530.412	0.02
530.608	0.02
530.803	0.04
530.999	0.01
531.194	0
531.389	0.05
531.585	-0.01
531.78	0.03
531.975	0.03
532.171	0.06
532.366	0.01
532.561	0.04
532.757	0.01
532.952	0.03
533.147	0.06
533.342	0.02
533.538	0.04
533.733	0.07
533.928	0.02
534.123	0.02
534.318	0.01
534.513	0.02
534.709	0.06
534.904	0.01
535.099	0.03
535.294	0.06
535.489	0.05
535.684	0.05
535.879	-0.02
536.074	0.05
536.269	0
536.464	0.04
536.659	0.04
536.854	0.02
537.049	0.04
537.244	0.05
537.439	0.03
537.634	0.07
537.828	0.04
538.023	0.02
538.218	-0
538.413	0.04
538.608	0.01
538.803	0.04
538.997	-0
539.192	0.06
539.387	0.05
539.582	0.01
539.776	0.04
539.971	0.02
540.166	0.04
540.36	0.01
540.555	0.02
540.75	0.03
540.944	0.06
541.139	-0.01
541.334	0.01
541.528	0.05
541.723	0.06
541.917	0.01
542.112	-0.01
542.306	0.03
542.501	0.03
542.695	0.03
542.89	0.02
543.084	0.04
543.279	0.03
543.473	0.02
543.668	0.04
543.862	0.02
544.056	0.05
544.251	0.04
544.445	0.04
544.64	0.04
544.834	0.01
545.028	0.03
545.222	0.04
545.417	0.06
545.611	0.05
545.805	0.04
546	0.03
546.194	0.04
546.388	0.02
546.582	0.05
546.776	0.05
546.97	0.04
547.165	0.06
547.359	0.05
547.553	-0.01
547.747	0.02
547.941	0.05
548.135	0.04
548.329	0.04
548.523	0.03
548.717	0.02
548.911	0.03
549.105	0.03
549.299	0.02
549.493	0.05
549.687	0.04
549.881	0.05
550.075	0.02
550.269	-0.01
550.463	0.05
550.657	0.02
550.85	0.04
551.044	-0.02
551.238	0.04
551.432	0
551.626	0.01
551.82	0.04
552.013	0.02
552.207	0.01
552.401	0.06
552.594	0.03
552.788	0.02
552.982	0.03
553.176	0.02
553.369	0.04
553.563	0.04
553.756	-0.02
553.95	-0
554.144	0.02
554.337	0.04
554.531	0.04
554.724	0.03
554.918	0.01
555.111	0.05
555.305	0.02
555.498	0.06
555.692	0.05
555.885	0.03
556.079	0.05
556.272	0
556.466	0.04
556.659	0.03
556.852	0.01
557.046	0.02
557.239	0.06
557.432	0
557.626	0.02
557.819	0.04
558.012	0.04
558.206	0.06
558.399	0.02
558.592	0.06
558.785	0.01
558.979	0.06
559.172	0.02
559.365	0.03
559.558	0.06
559.751	0.03
559.944	0.02
560.138	0.02
560.331	0
560.524	0.02
560.717	0.03
560.91	0.03
561.103	0.04
561.296	0.03
561.489	0.04
561.682	0.03
561.875	0.06
562.068	0.04
562.261	0.03
562.454	0.08
562.647	0
562.84	0.05
563.032	0.02
563.225	0.04
563.418	0.02
563.611	0.02
563.804	0.01
563.997	0
564.19	0.01
564.382	0.02
564.575	0.04
564.768	0.02
564.961	-0.01
565.153	0.01
565.346	0.04
565.539	0.05
565.731	0.06
565.924	0.04
566.117	0.05
566.309	0.03
566.502	0.02
566.695	0.03
566.887	0.02
567.08	-0.01
567.272	0.03
567.465	0.01
567.657	0.02
567.85	0.06
568.042	0.05
568.235	0.04
568.427	0.02
568.62	0.02
568.812	0.04
569.005	0.01
569.197	-0.01
569.389	0.03
569.582	0.05
569.774	0.04
569.966	-0.01
570.159	0
570.351	0.06
570.543	0.01
570.736	0.02
570.928	0
571.12	0.04
571.312	0
571.505	-0.01
571.697	0.05
571.889	0.01
572.081	0.01
572.273	-0
572.465	0.06
572.658	0.01
572.85	0.04
573.042	0.01
573.234	0.03
573.426	0.06
573.618	-0.01
573.81	0.01
574.002	0.06
574.194	0.07
574.386	-0.03
574.578	-0.06
574.77	-0.01
574.962	0.02
575.154	-0.02
575.346	-0.01
575.538	0.02
575.729	0.01
575.921	0.01
576.113	0
576.305	0.04
576.497	0.01
576.689	0.03
576.88	-0.01
577.072	0.06
577.264	-0.01
577.456	0.01
577.647	-0.04
577.839	0.03
578.031	0.06
578.223	-0.01
578.414	-0.01
578.606	0.03
578.798	0.03
578.989	0.01
579.181	0.02
579.372	0.02
579.564	0.01
579.755	0
579.947	0.01
580.139	0.06
580.33	-0.02
580.522	-0
580.713	-0.03
580.905	-0.01
581.096	0.04
581.287	0.01
581.479	-0
581.67	0.03
581.862	0.04
582.053	0.01
582.244	-0.03
582.436	0
582.627	0.04
582.818	0.01
583.01	0
583.201	0.03
583.392	0.05
583.583	0.03
583.775	0.01
583.966	0.02
584.157	0.01
584.348	0.01
584.54	-0
584.731	0.02
584.922	0.02
585.113	-0
585.304	0.04
585.495	0.07
585.686	0.03
585.877	0.05
586.068	0.03
586.259	0.02
586.45	0.02
586.641	-0.02
586.832	-0.04
587.023	0.01
587.214	0.04
587.405	0.04
587.596	-0
587.787	0.07
587.978	0.01
588.169	-0.02
588.36	-0.01
588.551	0.04
588.742	0.01
588.932	0.02
589.123	0.01
589.314	0.04
589.505	0.04
589.696	0.02
589.886	0
590.077	-0.03
590.268	0.02
590.458	-0.03
590.649	-0.03
590.84	0.05
591.03	-0.01
591.221	-0.01
591.412	-0.02
591.602	0.07
591.793	0.04
591.984	-0.01
592.174	0.01
592.365	0.1
592.555	-0.02
592.746	0.03
592.936	0.03
593.127	0.06
593.317	0.06
593.508	-0.01
593.698	0
593.889	0.01
594.079	0.02
594.269	-0.03
594.46	0.02
594.65	-0
594.84	0.02
595.031	-0.01
595.221	-0.01
595.411	-0.04
595.602	0.05
595.792	-0.01
595.982	0
596.172	0.06
596.363	0.02
596.553	0.01
596.743	0
596.933	-0
597.123	0.05
597.314	0.01
597.504	-0.01
597.694	0.05
597.884	0.03
598.074	-0.01
598.264	-0.02
598.454	0.02
598.644	0.03
598.834	0.02
599.024	-0.05
599.214	0
599.404	0.05
599.594	0.01
599.784	0.01
599.974	0.07
600.164	0.06
600.354	-0.01
600.544	-0
600.734	0.02
600.924	0.03
601.114	-0.01
601.303	0.02
601.493	0.02
601.683	0.02
601.873	0.02
602.063	-0.04
602.252	0.04
602.442	-0.04
602.632	-0
602.821	-0
603.011	0.01
603.201	0.01
603.39	-0.05
603.58	-0.04
603.77	0.01
603.959	0.05
604.149	0.04
604.339	-0.01
604.528	0.04
604.718	0.02
604.907	0.02
605.097	-0.02
605.286	-0.02
605.476	0.01
605.665	0.06
605.855	0.03
606.044	0.06
606.234	0.05
606.423	0.01
606.612	-0.01
606.802	0.02
606.991	0.04
607.181	0.02
607.37	-0.02
607.559	0.01
607.749	-0
607.938	0.01
608.127	-0
608.316	0.01
608.506	0.01
608.695	-0
608.884	-0.03
609.073	0.03
609.263	0.03
609.452	0.05
609.641	0.04
609.83	-0.04
610.019	0.01
610.208	-0.01
610.397	0.03
610.586	0.07
610.775	0
610.965	-0.01
611.154	-0.02
611.343	-0.01
611.532	0.02
611.721	-0.02
611.91	-0.01
612.099	0.05
612.287	-0
612.476	-0.02
612.665	0.01
612.854	-0.02
613.043	0.06
613.232	-0.01
613.421	-0.03
613.61	0.03
613.798	-0.02
613.987	0.04
614.176	0.01
614.365	0.06
614.554	0.02
614.742	0.03
614.931	-0.01
615.12	0.06
615.309	-0.01
615.497	0.02
615.686	-0.01
615.875	0.03
616.063	0.04
616.252	-0.02
616.44	-0.02
616.629	0.01
616.818	0.05
617.006	0.02
617.195	-0
617.383	0.01
617.572	0.04
617.76	-0.02
617.949	0
618.137	0.04
618.326	0.08
618.514	-0.01
618.703	-0.02
618.891	0.08
619.079	-0.05
619.268	0.04
619.456	0
619.644	0.08
619.833	0.01
620.021	-0.03
620.209	-0.01
620.398	0.04
620.586	0.03
620.774	0.04
620.962	0.03
621.151	0.06
621.339	0.02
621.527	-0.06
621.715	0.01
621.903	-0.03
622.092	-0
622.28	0.02
622.468	-0
622.656	-0
622.844	0.04
623.032	0
623.22	-0.06
623.408	0.07
623.596	0.02
623.784	0.05
623.972	0
624.16	-0.01
624.348	0.06
624.536	0.02
624.724	-0.03
624.912	0.07
625.1	0.06
625.288	0
625.476	-0.02
625.664	0.04
625.851	-0.02
626.039	-0.01
626.227	0.03
626.415	-0
626.603	-0.07
626.79	0.04
626.978	0.03
627.166	0.04
627.354	0.01
627.541	-0.02
627.729	-0.03
627.917	0.04
628.104	0.05
628.292	0.01
628.48	0
628.667	0.01
628.855	0.01
629.042	0.06
629.23	-0.02
629.418	-0.01
629.605	0
629.793	0.01
629.98	0.01
630.168	0.03
630.355	0.02
630.543	0
630.73	-0.02
630.917	0.04
631.105	0.06
631.292	-0
631.48	-0.01
631.667	0.11
631.854	0.01
632.042	-0
632.229	-0.02
632.416	0.04
632.604	0.01
632.791	-0.02
632.978	0.01
633.165	0.07
633.353	0.09
633.54	0.03
633.727	-0.07
633.914	-0.02
634.101	-0.04
634.289	0.04
634.476	-0.01
634.663	-0.05
634.85	0.03
635.037	-0.04
635.224	-0.05
635.411	-0
635.598	0.05
635.785	-0
635.972	0
636.159	0.06
636.346	-0.02
636.533	0.02
636.72	-0.01
636.907	0.01
637.094	0.05
637.281	0
637.468	0.04
637.655	0.02
637.842	0.01
638.029	-0.04
638.215	0.05
638.402	0.03
638.589	-0.02
638.776	-0.02
638.963	-0.01
639.149	0.05
639.336	0.09
639.523	-0.01
639.709	0.01
639.896	0.01
640.083	0.05
640.27	0.05
640.456	0
640.643	0.03
640.829	-0.02
641.016	-0.01
641.203	-0.04
641.389	0.02
641.576	0.03
641.762	-0.03
641.949	-0.01
642.135	0.06
642.322	0.04
642.508	-0.05
642.695	0.04
642.881	0
643.068	0
643.254	-0.01
643.441	0.04
643.627	-0.01
643.813	-0.01
644	0.03
644.186	-0.01
644.372	0.01
644.559	0.03
644.745	0
644.931	-0.03
645.118	-0
645.304	0.02
645.49	-0.04
645.676	-0.02
645.862	0.01
646.049	0.08
646.235	0
646.421	0.11
646.607	0.1
646.793	-0.01
646.979	-0.03
647.165	0.01
647.352	0.04
647.538	0.04
647.724	0.02
647.91	0.04
648.096	0.03
648.282	0.07
648.468	0.03
648.654	0.01
648.84	-0.01
649.026	0
649.212	-0
649.397	0
649.583	-0.04
649.769	0.03
649.955	0
650.141	0.03
650.327	0.07
650.513	0.01
650.698	0.03
650.884	-0.05
651.07	0.02
651.256	0.01
651.442	0.02
651.627	0
651.813	-0
651.999	0.02
652.184	0.03
652.37	0.01
652.556	-0.01
652.741	0.04
652.927	-0.07
653.113	0.02
653.298	0.01
653.484	0.02
653.669	-0.05
653.855	-0.01
654.04	0.04
654.226	0
654.412	-0.04
654.597	-0.04
654.782	0.03
654.968	0.07
655.153	0.02
655.339	-0.01
655.524	-0.06
655.71	0.02
655.895	0.01
656.08	0.02
656.266	0.04
656.451	0.02
656.636	-0.03
656.822	-0.01
657.007	-0.04
657.192	0.01
657.378	-0.04
657.563	0.01
657.748	0.04
657.933	0.04
658.118	-0.02
658.304	-0.01
658.489	0.03
658.674	-0
658.859	-0.01
659.044	0.02
659.229	0.03
659.414	-0.01
659.599	-0.01
659.785	-0.04
659.97	-0
660.155	0.02
660.34	-0
660.525	0
660.71	0
660.895	0.02
661.08	-0.01
661.264	-0.01
661.449	0.07
661.634	0.05
661.819	0.02
662.004	0.04
662.189	-0.06
662.374	0.02
662.559	-0.04
662.743	-0.04
662.928	-0.04
663.113	0.01
663.298	-0.09
663.483	0
663.667	-0.02
663.852	-0.03
664.037	0.02
664.221	-0.03
664.406	0.03
664.591	0.03
664.775	0.03
664.96	-0.02
665.145	0.01
665.329	0.04
665.514	-0.04
665.698	0
665.883	-0.06
666.068	0.05
666.252	0.01
666.437	-0.06
666.621	0.01
666.806	0.05
666.99	-0.01
667.174	-0.01
667.359	0.07
667.543	-0.03
667.728	0.01
667.912	-0.06
668.096	0.07
668.281	-0.01
668.465	0.01
668.649	0.01
668.834	-0.01
669.018	0.01
669.202	-0.04
669.387	-0.05
669.571	0.02
669.755	-0.04
669.939	-0.03
670.124	0.02
670.308	0.08
670.492	0.06
670.676	0.02
670.86	0
671.044	-0
671.228	0.05
671.413	-0.04
671.597	-0.04
671.781	-0.01
671.965	0.08
672.149	-0.01
672.333	0.01
672.517	-0.04
672.701	0.01
672.885	0.01
673.069	-0.07
673.253	0.09
673.437	-0.03
673.621	-0.03
673.804	-0.02
673.988	0.01
674.172	0.03
674.356	-0.07
674.54	0.01
674.724	0.06
674.908	0.02
675.091	0.03
675.275	0.01
675.459	0.03
675.643	0.06
675.826	0.02
676.01	0
676.194	0.02
676.377	0.08
676.561	0.04
676.745	-0
676.928	0.03
677.112	0.02
677.296	-0.03
677.479	-0.04
677.663	0
677.846	0.03
678.03	-0.01
678.213	-0.03
678.397	0.04
678.58	0
678.764	-0
678.947	-0.05
679.131	-0.02
679.314	0.08
679.498	0.03
679.681	-0.02
679.865	0.05
680.048	-0.01
680.231	0.03
680.415	-0.04
680.598	0.01
680.781	-0.04
680.965	0.01
681.148	-0
681.331	-0
681.514	0.01
681.698	-0.02
681.881	0.01
682.064	0.02
682.247	-0.01
682.43	-0.07
682.614	0.02
682.797	0.08
682.98	0.02
683.163	-0.07
683.346	-0.02
683.529	0.02
683.712	-0.03
683.895	0.02
684.078	-0.04
684.261	-0.01
684.444	0.08
684.627	0.02
684.81	-0
684.993	-0.01
685.176	0.02
685.359	-0.02
685.542	-0.05
685.725	0.06
685.908	0.02
686.091	0.02
686.274	0.08
686.457	0.02
686.639	0.02
686.822	0.07
687.005	-0
687.188	0.04
687.371	0.12
687.553	0.02
687.736	0.04
687.919	0.1
688.102	0.09
688.284	-0.02
688.467	-0
688.65	0.02
688.832	-0.02
689.015	-0.02
689.197	-0.04
689.38	0.07
689.563	0.1
689.745	-0.01
689.928	-0.02
690.11	0.01
690.293	0.1
690.475	-0.07
690.658	0.05
690.84	0.02
691.023	-0.02
691.205	-0.04
691.388	0
691.57	0.04
691.752	0.05
691.935	-0.06
692.117	-0.04
692.3	0.04
692.482	0.02
692.664	-0.01
692.847	0.02
693.029	0.1
693.211	0.05
693.393	-0.01
693.576	-0
693.758	0.03
693.94	-0.03
694.122	-0.02
694.304	-0.03
694.487	-0.03
694.669	0.11
694.851	-0.05
695.033	0.02
695.215	-0.01
695.397	0.02
695.579	0.05
695.761	-0.03
695.943	-0.02
696.125	0.07
696.308	0.06
696.49	-0.08
696.671	0.14
696.853	-0.02
697.035	0.15
697.217	0.02
697.399	0.06
697.581	-0.07
697.763	0.03
697.945	-0.05
698.127	0.01
698.309	0.05
698.491	0.01
698.672	0.04
698.854	0.08
699.036	0.02
699.218	-0.06
699.399	0.06
699.581	0.04
699.763	0.04
699.945	-0.04
700.126	-0
700.308	-0.03
700.49	0.02
700.671	-0.11
700.853	-0.03
701.035	-0.03
701.216	-0.01
701.398	-0.01
701.579	0.01
701.761	0.07
701.943	-0.03
702.124	-0.04
702.306	-0.04
702.487	0.17
702.669	0.02
702.85	-0.01
703.031	-0.03
703.213	0.09
703.394	0.1
703.576	-0.01
703.757	0.13
703.938	0.04
704.12	0.2
704.301	-0.06
704.483	-0.02
704.664	0.05
704.845	0.1
705.026	-0
705.208	0.03
705.389	0.01
705.57	0.06
705.751	0.04
705.933	-0.01
706.114	0.12
706.295	0.06
706.476	-0.09
706.657	0.07
706.838	0.11
707.02	0.1
707.201	-0.07
707.382	-0.01
707.563	0.01
707.744	0.03
707.925	-0.06
708.106	-0.05
708.287	0.05
708.468	0.07
708.649	-0.06
708.83	0.04
709.011	-0.04
709.192	0.14
709.373	-0.09
709.554	-0.08
709.734	0.05
709.915	0.07
710.096	-0.01
710.277	-0.14
710.458	0.05
710.639	0.06
710.819	-0.03
711	0.01
711.181	0.06
711.362	0.08
711.542	0
711.723	0
711.904	0.06
712.085	0.01
712.265	0.01
712.446	-0.09
712.627	0.02
712.807	-0.03
712.988	0
713.168	-0.05
713.349	0.1
713.53	-0.12
713.71	-0.02
713.891	-0.09
714.071	0.06
714.252	0.02
714.432	-0.08
714.613	-0.05
714.793	0.04
714.974	0.11
715.154	0.08
715.334	0.08
715.515	0.15
715.695	-0.05
715.876	-0.01
716.056	0.01
716.236	-0.04
716.417	0.02
716.597	-0.06
716.777	0.13
716.957	0.02
717.138	0.04
717.318	0.01
717.498	-0.07
717.678	0.01
717.859	-0.01
718.039	-0.09
718.219	0
718.399	0.07
718.579	-0.06
718.759	-0.01
718.939	0.03
719.12	0.08
719.3	-0.05
719.48	-0.12
719.66	-0.08
719.84	0.08
720.02	-0.03
720.2	-0.01
720.38	0.01
720.56	0.15
720.74	0.06
720.92	0.01
721.1	0.04
721.279	0.03
721.459	0.03
721.639	-0.09
721.819	0.04
721.999	0
722.179	0.1
722.359	-0.13
722.538	0.02
722.718	0.02
722.898	-0.08
723.078	0.02
723.257	-0.03
723.437	-0.01
723.617	0.08
723.797	-0.06
723.976	-0.08
724.156	0.13
724.336	0.15
724.515	0.16
724.695	-0.11
724.874	0.03
725.054	0.13
725.234	-0.03
725.413	0.03
725.593	-0.06
725.772	-0.06
725.952	-0.01
726.131	0.05
726.311	0.01
726.49	-0.02
726.67	-0.11
726.849	-0.08
727.028	0.04
727.208	-0.06
727.387	-0.02
727.567	-0.14
727.746	-0.01
727.925	-0.05
728.105	0.01
728.284	-0.06
728.463	-0.08
728.643	0.01
728.822	-0.07
729.001	-0.06
729.18	0.02
729.359	0.08
729.539	-0.02
729.718	-0.01
729.897	0.09
730.076	-0.1
730.255	-0.13
730.434	0.07
730.614	0.15
730.793	0.11
730.972	-0.07
731.151	0.03
731.33	0.08
731.509	0.02
731.688	0.07
731.867	-0.04
732.046	-0.13
732.225	0.24
732.404	-0.09
732.583	-0.07
732.762	0.01
732.941	0.1
733.12	0.02
733.298	-0.13
733.477	0.07
733.656	-0.06
733.835	-0.11
734.014	0.07
734.193	-0.08
734.371	0.07
734.55	0.07
734.729	-0.08
734.908	0.05
735.086	0.05
735.265	0.14
735.444	-0.23
735.623	-0.1
735.801	-0.04
735.98	0.04
736.159	-0.06
736.337	0.07
736.516	0.05
736.694	0.01
736.873	-0.08
737.052	0.15
737.23	0.15
737.409	-0.09
737.587	0.22
737.766	-0.09
737.944	-0.01
738.123	0.04
738.301	0.04
738.479	0.06
738.658	0.09
738.836	-0.14
739.015	0.16
739.193	0.05
739.371	-0.07
739.55	0.01
739.728	-0.06
739.906	0.14
740.085	0.15
740.263	0.09
740.441	-0.15
740.62	0.15
740.798	0.13
740.976	-0.06
741.154	-0.13
741.332	0.05
741.511	-0.06
741.689	0.04
741.867	0.05
742.045	0.01
742.223	-0.01
742.401	-0.08
742.579	-0.05
742.757	0.08
742.935	-0.03
743.114	0.01
743.292	-0.01
743.47	0.06
743.648	-0.02
743.826	-0.04
744.004	0.05
744.181	0.08
744.359	-0.03
744.537	0.02
744.715	-0.05
744.893	0.07
745.071	-0.07
745.249	-0.12
745.427	-0
745.605	0.09
745.782	0.02
745.96	0.19
746.138	0.01
746.316	0.13
746.493	-0.15
746.671	0.01
746.849	-0.05
747.027	0.16
747.204	0.03
747.382	0.08
747.56	-0.15
747.737	-0.04
747.915	-0.03
748.093	0.13
748.27	-0.04
748.448	0.06
748.625	-0.17
748.803	-0.04
748.98	-0.02
749.158	-0.01
749.335	0.04
749.513	-0.04
749.69	0.04
749.868	0.04
750.045	0.06
750.223	-0.01
750.4	-0.21
750.578	0.05
750.755	-0.06
750.932	-0.09
751.11	0.1
751.287	-0.12
751.464	0.11
751.642	-0.18
751.819	0.11
751.996	0.04
752.173	0.06
752.351	-0.13
752.528	-0.08
752.705	0.05
752.882	-0.09
753.06	0.01
753.237	0.06
753.414	0.23
753.591	0.24
753.768	-0.01
753.945	-0.05
754.122	-0.08
754.299	0.15
754.476	-0.05
754.654	0
754.831	0.13
755.008	0.05
755.185	-0.1
755.362	-0.17
755.539	0.14
755.716	-0.23
755.892	-0.04
756.069	0.1
756.246	0.02
756.423	0.04
756.6	0.23
756.777	-0.01
756.954	0.14
757.131	-0
757.307	-0.07
757.484	-0.13
757.661	0.1
757.838	0.02
758.015	-0.14
758.191	0.01
758.368	-0.03
758.545	0.21
758.721	0.16
758.898	-0.27
759.075	-0.01
759.251	0.13
759.428	0.07
759.605	-0.09
759.781	0.03
759.958	0.06
760.134	0.08
760.311	-0.07
760.488	0.19
760.664	0.14
760.841	0.01
761.017	-0.11
761.194	0
761.37	0.17
761.547	0.1
761.723	0.03
761.899	0.18
762.076	-0.02
762.252	-0.15
762.429	-0.03
762.605	-0.01
762.781	0.01
762.958	-0.04
763.134	-0.02
763.31	0.03
763.486	0.16
763.663	-0.19
763.839	0.07
764.015	-0.13
764.191	-0.12
764.368	-0.04
764.544	-0.05
764.72	0.18
764.896	0.05
765.072	-0
765.248	0.05
765.425	-0.09
765.601	-0.03
765.777	0.1
765.953	-0.24
766.129	-0.03
766.305	0.01
766.481	0.09
766.657	0
766.833	0.18
767.009	-0.16
767.185	-0.07
767.361	0.06
767.537	-0.05
767.713	0.11
767.889	-0.06
768.065	0.04
768.24	-0.03
768.416	0.21
768.592	-0.15
768.768	0.04
768.944	0.11
769.12	-0.13
769.295	-0.05
769.471	0.01
769.647	-0.07
769.823	0.19
769.998	-0.07
770.174	0.01
770.35	0.3
770.525	0.3
770.701	-0.03
770.877	0.02
771.052	-0.07
771.228	0.14
771.403	0.02
771.579	0.12
771.755	0.3
771.93	-0.07
772.106	-0.08
772.281	-0.14
772.457	0.03
772.632	0.05
772.808	-0.06
772.983	-0.08
773.159	-0.12
773.334	0.23
773.509	0.04
773.685	-0.15
773.86	0.51
774.036	0.21
774.211	0.06
774.386	-0.02
774.562	0.04
774.737	0.09
774.912	-0.15
775.087	0.17
775.263	-0.1
775.438	0.13
775.613	-0.13
775.788	-0.04
775.964	0.26
776.139	0.33
776.314	-0.19
776.489	0.11
776.664	0.04
776.839	-0.14
777.014	0.16
777.19	-0
777.365	0.39
777.54	0.25
777.715	-0.14
777.89	-0.05
778.065	-0.05
778.24	-0.19
778.415	0.11
778.59	-0.14
778.765	-0.04
778.94	0.09
779.115	-0.07
779.289	-0.03
779.464	-0.07
779.639	-0.06
779.814	-0.17
779.989	-0.1
780.164	0.18
780.339	0.16
780.513	-0.1
780.688	-0.23
780.863	-0.08
781.038	0.18
781.212	-0.21
781.387	0.06
781.562	0.44
781.737	0.02
781.911	0.14
782.086	-0.06
782.261	0.04
782.435	0.23
782.61	-0.03
782.784	-0.03
782.959	0.3
783.134	-0.13
783.308	-0.2
783.483	-0.2
783.657	0.24
783.832	0.13
784.006	-0.34
784.181	-0.04
784.355	0.25
784.53	0.18
784.704	-0.28
784.878	0.09
785.053	0.31
785.227	0.18
785.402	0.42
785.576	-0.18
785.75	0.02
785.925	-0.05
786.099	0.12
786.273	-0.2
786.448	0.08
786.622	0.13
786.796	0.11
786.97	-0.1
787.145	0.43
787.319	-0.12
787.493	0.08
787.667	-0.35
787.841	0.02
788.015	0.26
788.19	-0.14
788.364	0.03
788.538	0.37
788.712	0.29
788.886	-0.04
789.06	0.29
789.234	0.04
789.408	-0.19
789.582	-0.05
789.756	0.03
789.93	-0.06
790.104	-0.16
790.278	-0.12
790.452	-0.15
790.626	0.15
790.8	-0.2
790.973	0.13
791.147	0.15
791.321	0.21
791.495	0.33
791.669	0.1
791.843	-0.03
792.016	0.11
792.19	0.39
792.364	-0.09
792.538	0.59
792.711	0.3
792.885	-0.11
793.059	-0.13
793.233	-0.44
793.406	0.33
793.58	0.06
793.754	-0.12
793.927	-0.16
794.101	0.28
794.274	0.18
794.448	0.31
794.622	-0.08
794.795	0.39
794.969	-0.33
795.142	0.27
795.316	-0.01
795.489	-0.02
795.663	0.47
795.836	-0.03
796.009	-0.09
796.183	0.49
796.356	0.13
796.53	0.3
796.703	0.01
796.876	0.57
797.05	-0.02
797.223	0.05
797.396	0.05
797.57	0.16
797.743	0.3
797.916	0
798.09	0.06
798.263	0.6
798.436	0.25
798.609	-0.22
798.782	-0.14
798.956	0.02
799.129	-0.16
799.302	0.1
799.475	0.06
799.648	0.04
799.821	-0.12
799.994	-0.02
800.167	-0.21
800.34	0.12
800.514	-0.06
800.687	-0.26
800.86	-0.02
801.033	0.09
801.206	0
801.379	-0.44
801.551	0.33
801.724	0.26
801.897	0.61
802.07	0.16
802.243	-0.28
802.416	-0.17
802.589	-0.05
802.762	-0.01
802.935	-0.08
803.107	0.22
803.28	0.32
803.453	0.36
803.626	-0.24
803.798	-0.01
803.971	0.12
804.144	0.02
804.317	0.15
804.489	0.49
804.662	-0.08
804.835	0.21
805.007	-0.29
805.18	0.67
805.353	0.01
805.525	-0.06
805.698	-0.39
805.87	0.22
806.043	0.6
806.215	-0.25
806.388	0.08
806.56	0.32
806.733	0.53
806.905	0.42
807.078	-0.26
807.25	-0.17
807.423	0.17
807.595	0.12
807.768	-0.36
807.94	0.46
808.112	0.16
808.285	0.23
808.457	-0.1
808.629	-0.25
808.802	-0.06
808.974	-0.15
809.146	-0.05
809.318	-0.44
809.491	-0.08
809.663	0.31
809.835	-0.19
810.007	0.33
810.18	-0.04
810.352	-0.25
810.524	0.17
810.696	0.33
810.868	0.52
811.04	-0.11
811.212	0.01
811.384	0.34
811.556	0.12
811.728	0.17
811.901	0.69
812.073	0.11
812.245	0.25
812.417	-0.07
812.589	-0.46
812.76	-0.09
812.932	0.38
813.104	0.31
813.276	0.11
813.448	0.63
813.62	0.22
813.792	0.1
813.964	0.27
814.136	0.18
814.307	-0.2
814.479	-0.03
814.651	-0.17
814.823	1.2
814.995	-0.11
815.166	0.38
815.338	-0.09
815.51	-0.34
815.681	0.92
815.853	0
816.025	0.05
816.196	0.38
816.368	0.15
816.54	-0.76
816.711	-0.37
816.883	0.35
817.054	0.82
817.226	-0.32
817.398	0.4
817.569	-0.22
817.741	-0.13
817.912	0.16
818.084	-0.36
818.255	-0.13
818.426	0.01
818.598	-0.12
818.769	0.05
818.941	0.6
819.112	1.09
819.283	0.04
819.455	-0.59
819.626	-0
819.798	0.03
819.969	0.1
820.14	-0.05
820.311	0.27
820.483	0.27
820.654	-0.04
820.825	-0.14
820.996	0.03
821.168	-0.58
821.339	-0.4
821.51	-0.14
821.681	0.17
821.852	0.18
822.023	-0.37
822.195	-0.29
822.366	0.37
822.537	0.13
822.708	0.41
822.879	-0.23
823.05	0.48
823.221	-0.57
823.392	0.1
823.563	-0.02
823.734	0.25
823.905	-0.17
824.076	-0.14
824.247	0.05
824.418	-0.36
824.589	1.11
824.759	-0.13
824.93	-0.15
825.101	-0.83
825.272	0.67
825.443	0.91
825.614	0.74
825.784	-1.25
825.955	1.12
826.126	0.67
826.297	0.09
826.467	0.63
826.638	0.87
826.809	-0.53
826.98	-0.26
827.15	0.44
827.321	-0.35
827.492	0.97
827.662	-0.28
827.833	1.53
828.003	-0.03
828.174	-1.27
828.345	-0.36
828.515	0.35
828.686	0.46
828.856	-0.33
829.027	-0.43
829.197	-0
829.368	0.47
829.538	-0.52
829.709	-0.35
829.879	0.13
830.049	0.12
830.22	0.16
830.39	0.09
830.56	0.56
830.731	-0.5
830.901	-0.1
831.072	-0.09
831.242	0.28
831.412	0.31
831.582	0.3
831.753	-0.83
831.923	0.28
832.093	0.4
832.263	-0.26
832.434	-0.83
832.604	-0.45
832.774	0.14
832.944	0.12
833.114	-0.13
833.284	0.7
833.454	-0.59
833.624	-0.15
833.795	-0.58
833.965	0.58
834.135	1.02
834.305	-0.7
834.475	-0.93
834.645	0.38
834.815	0.1
834.985	-0.44
835.155	-0.16
835.325	0.44
835.494	0.38
835.664	-0.16
835.834	-0.91
836.004	-0.22
836.174	0.39
836.344	-0.11
836.514	-0.77
836.684	-0.76
836.853	0.38
837.023	-0.01
837.193	-0.38
837.363	0.34
837.532	1.02
837.702	-0.16
837.872	-0.36
838.041	0.88
838.211	1.39
838.381	-0.5
838.55	-0.16
838.72	1.91
838.89	1.58
839.059	-0.44
839.229	-0.51
839.398	1.05
839.568	0.68
839.738	-0.34
839.907	1.29
840.077	0.87
840.246	-0.07
840.416	-0.18
840.585	-0.83
840.755	1.27
840.924	1.44
841.093	-0.48
841.263	-0.33
841.432	-0.1
841.602	-0.12
841.771	-0.03
841.94	0.39
842.11	1.47
842.279	1.5
842.448	-0.54
842.617	-0.26
842.787	1.71
842.956	-0.99
843.125	0.34
843.294	0.63
843.464	1.14
843.633	0.05
843.802	-0.31
843.971	0.58
844.14	-0.04
844.309	0.77
844.479	-0.13
844.648	-0.95
844.817	-1.01
844.986	0.89
845.155	-0.66
845.324	0.1
845.493	0.14
845.662	-0.3
845.831	0.69
846	0.94
846.169	-1.25
846.338	1.65
846.507	0.78
846.676	0.29
846.844	0.31
847.013	1.11
847.182	0.71
847.351	-0.77
847.52	0.2
847.689	0.7
847.858	0.31
848.026	-0.89
848.195	-0.3
848.364	-0.45
848.533	-0.73
848.701	-1.02
848.87	-0.01
849.039	1.23
849.207	1.02
849.376	1.4
849.545	0.78
849.713	-1.06
849.882	-0.03
850.051	0.58
850.219	0.49
850.388	0.53
850.556	-0.73
850.725	-0.57
850.893	-0.7
851.062	0.22
851.23	0.64
851.399	-0.83
851.567	0
851.736	-0.13
851.904	-1.07
852.073	0.13
852.241	0.38
852.41	-0.32
852.578	-0.42
852.746	-0.32
852.915	1
853.083	0.31
853.251	-2.25
853.42	0.44
853.588	1.37
853.756	1.44
853.924	-1.49
854.093	-0.11
854.261	-0.31
854.429	-0.84
854.597	-0.39
854.765	0.11
854.934	0.4
855.102	0.72
855.27	-0.31
855.438	0.12
855.606	0.76
855.774	2.5
855.942	-0.05
856.11	-1.46
856.278	-0.32
856.446	0.57
856.614	1.37
856.782	-0.32
856.95	0.98
857.118	0.92
857.286	0.16
857.454	-0.18
857.622	1.09
857.79	0.9
857.958	-1.26
858.126	-0.91
858.294	-3.23
858.462	0.34
858.629	-0.55
858.797	-0.52
858.965	-0.03
859.133	0.84
859.301	0.56
859.468	0.44
859.636	-0.45
859.804	1.18
859.971	0.67
860.139	-0.7
860.307	1.07
860.474	0.57
860.642	-0.39
860.81	-0.69
860.977	-0.17
861.145	1.84
861.313	0.21
861.48	0.23
861.648	2.1
861.815	-0.79
861.983	-1.13
862.15	-1.5
862.318	0.97
862.485	0.74
862.653	-1.84
862.82	-1.42
862.988	1.85
863.155	0.42
863.322	-0.35
863.49	-1.47
863.657	-0.01
863.824	2.88
863.992	1.37
864.159	-0.36
864.326	1.35
864.494	-0.63
864.661	3.31
864.828	-1.7
864.996	2.07
865.163	2.61
865.33	-1.78
865.497	-1.3
865.664	-0.25
865.832	-2.25
865.999	-0.45
866.166	-0.54
866.333	0.48
866.5	-1.97
866.667	0.08
866.834	-0.43
867.001	2.23
867.168	-3.22
867.335	0.26
867.502	-1.8
867.669	0.7
867.836	2.97
868.003	0.2
868.17	2.44
868.337	-1.28
868.504	3.24
868.671	-2.34
868.838	-1.23
869.005	1.18
869.172	1.19
869.339	0.35
869.505	0.02
869.672	0.91
869.839	2.02
870.006	2.92
870.173	0.67
870.339	1.88
870.506	1.9
870.673	-0.79
870.84	1.69
871.006	-0.14
871.173	-0.76
871.34	-0.04
871.506	-0.22
871.673	0.65
871.839	-3.2
872.006	0.09
872.173	-0.21
872.339	1.29
872.506	2.29
872.672	-0.63
872.839	-1.73
873.005	0.47
873.172	5.31
873.338	1.67
873.505	0.22
873.671	1.77
873.838	2
874.004	-2.61
874.171	-2.83
874.337	2.69
874.503	0.98
874.67	0.11
874.836	1.54
875.002	3.31
875.169	1.57
875.335	-1.58
875.501	0.39
875.668	0.74
875.834	0.54
876	-0.08
876.166	1.9
876.332	1.87
876.499	3.45
876.665	-1.17
876.831	-0.23
876.997	3.65
877.163	2.06
877.329	0.08
877.495	0.02
877.662	0.08
877.828	0.77
877.994	-0.29
878.16	-1.99
878.326	-0.86
878.492	0.91
878.658	-1.46
878.824	-0.2
878.99	1.73
879.156	-0.93
879.322	2.6
879.487	0.98
879.653	2.36
879.819	1.63
879.985	-1.31
880.151	1.07
880.317	-0.03
880.483	-1.38
880.648	1.55
880.814	-0.44
880.98	0.72
881.146	-3.43
881.312	-1.36
881.477	-1.22
881.643	0.61
881.809	2.13
881.974	0.61
882.14	-1.57
882.306	1.28
882.471	3.64
882.637	0.55
882.803	0.12
882.968	3.13
883.134	3.86
883.299	-0.09
883.465	0.99
883.63	2.13
883.796	1.83
883.961	0.98
884.127	0.27
884.292	-3.91
884.458	-3.78
884.623	-3.77
