Data from Apollo_Calib_20240827__AbsoluteIrradiance__186__02-15-01-441.txt Node

Date: Wed Aug 28 02:15:01 BST 2024
User: biology
Spectrometer: FLMT08252
Trigger mode: 0
Integration Time (sec): 5.000000E-1
Scans to average: 5
Electric dark correction enabled: true
Nonlinearity correction enabled: false
Boxcar width: 0
XAxis mode: Wavelengths
Number of Pixels in Spectrum: 3648
>>>>>Begin Spectral Data<<<<<
179.588	-0
179.809	-0
180.03	-0
180.251	-0
180.473	-0
180.694	0
180.915	0
181.136	-0
181.357	0
181.578	-0
181.799	0
182.02	-0
182.241	-0
182.462	-0
182.683	0
182.904	-0
183.125	-0
183.346	0
183.567	0
183.788	-0
184.009	-0
184.23	0
184.451	0
184.672	-0
184.892	-0
185.113	0
185.334	0
185.555	-0
185.776	-0
185.996	0
186.217	0
186.438	0
186.659	-0
186.879	0
187.1	0
187.321	-0
187.541	-0
187.762	0
187.983	0
188.203	-0
188.424	0
188.644	-0
188.865	0
189.086	-0
189.306	0
189.527	-0
189.747	0
189.968	-0
190.188	0
190.409	0
190.629	0
190.849	-0
191.07	-0
191.29	0
191.511	0
191.731	-0
191.951	-0
192.172	-0
192.392	0
192.612	-0
192.833	0
193.053	-0
193.273	0
193.493	-0
193.714	-0
193.934	0
194.154	0
194.374	0
194.594	-0
194.815	0
195.035	-0
195.255	0
195.475	-0
195.695	0
195.915	0
196.135	-0
196.355	0
196.575	0
196.795	0
197.015	-0
197.235	-0
197.455	-0
197.675	0
197.895	-0
198.115	-0
198.335	0
198.555	-0
198.775	0
198.995	-0
199.214	0
199.434	0
199.654	-0
199.874	0
200.094	1.29
200.313	0
200.533	0.08
200.753	-0.61
200.973	1.09
201.192	0.41
201.412	-0.84
201.632	-0.16
201.851	0.8
202.071	-0.37
202.291	-0.25
202.51	-0.63
202.73	0.4
202.95	0.06
203.169	-0.78
203.389	0.01
203.608	0.04
203.828	-0.46
204.047	-0.21
204.267	0.37
204.486	0.11
204.706	0.29
204.925	-0.06
205.145	-0.4
205.364	0.22
205.583	0.54
205.803	-0.17
206.022	-0.66
206.242	-0.24
206.461	-0.23
206.68	0.03
206.9	0
207.119	0.65
207.338	0.47
207.557	-0.02
207.777	-0.1
207.996	-0.16
208.215	0.6
208.434	-0.37
208.654	-0.61
208.873	0.17
209.092	0.69
209.311	-0.26
209.53	-0.13
209.749	-0.03
209.968	-0.11
210.187	-0.13
210.407	-0.26
210.626	-0.01
210.845	0.08
211.064	-0.08
211.283	-0.15
211.502	0.29
211.721	0.2
211.94	-0.13
212.159	0.35
212.377	0.34
212.596	0.51
212.815	0.01
213.034	0.09
213.253	0.2
213.472	0.24
213.691	0.17
213.91	-0.16
214.128	0.01
214.347	0.44
214.566	-0.41
214.785	-0.39
215.003	0.21
215.222	-0.03
215.441	-0.06
215.66	-0.29
215.878	0.14
216.097	0.17
216.316	-0.14
216.534	-0.03
216.753	0.15
216.972	-0.04
217.19	0
217.409	-0.18
217.627	-0.12
217.846	-0.19
218.064	0.17
218.283	-0.21
218.501	0.55
218.72	0.15
218.938	-0.34
219.157	-0.1
219.375	0.39
219.594	0.11
219.812	-0.39
220.031	-0.05
220.249	0.27
220.467	0.29
220.686	-0.17
220.904	-0.13
221.122	-0.15
221.341	0.41
221.559	0.02
221.777	-0.14
221.995	0.16
222.214	0.11
222.432	-0.14
222.65	0.1
222.868	0.03
223.086	0.3
223.305	0.15
223.523	0.03
223.741	0.43
223.959	-0.16
224.177	-0.28
224.395	-0.05
224.613	0.04
224.831	0.24
225.049	-0.14
225.267	0.06
225.485	0.07
225.703	-0.07
225.921	-0.03
226.139	-0.07
226.357	0.14
226.575	0.06
226.793	-0.1
227.011	0.55
227.229	0.03
227.447	0.09
227.665	-0.1
227.883	-0.24
228.1	0.06
228.318	0.08
228.536	-0.28
228.754	-0.05
228.972	0.08
229.189	0.19
229.407	-0.03
229.625	-0.02
229.843	0.17
230.06	0.09
230.278	-0.1
230.496	-0.07
230.713	0.17
230.931	0.14
231.149	-0.12
231.366	-0.2
231.584	0.03
231.801	0.42
232.019	-0.13
232.236	-0.14
232.454	-0.2
232.671	0.06
232.889	-0.03
233.106	-0.1
233.324	-0.06
233.541	0.02
233.759	-0.05
233.976	-0.14
234.194	-0.03
234.411	0.03
234.628	-0.09
234.846	-0.07
235.063	0
235.28	-0
235.498	0.06
235.715	-0.15
235.932	0.11
236.149	0
236.367	-0.15
236.584	0.04
236.801	-0.01
237.018	0.2
237.236	-0.01
237.453	-0.21
237.67	0.15
237.887	0.01
238.104	-0.08
238.321	-0.11
238.538	-0.11
238.755	0.18
238.973	-0.14
239.19	0.02
239.407	0.16
239.624	0.12
239.841	-0.19
240.058	-0.07
240.275	0.02
240.492	-0.08
240.709	-0.03
240.925	0.05
241.142	-0.11
241.359	-0.09
241.576	-0.11
241.793	0.02
242.01	0.03
242.227	0.13
242.444	0.09
242.66	0.07
242.877	0.03
243.094	-0.02
243.311	0.01
243.527	0.03
243.744	0.04
243.961	0.06
244.178	-0.08
244.394	-0
244.611	0.14
244.828	0.13
245.044	-0.08
245.261	-0.01
245.477	0.03
245.694	0.07
245.911	-0.14
246.127	0.09
246.344	0.16
246.56	0.1
246.777	0.06
246.993	-0.03
247.21	0.06
247.426	0.02
247.643	-0.05
247.859	-0.05
248.076	0.03
248.292	0.24
248.508	0.02
248.725	0.03
248.941	0.03
249.157	0.15
249.374	-0.05
249.59	0
249.806	-0.02
250.023	0.2
250.239	-0.1
250.455	-0.06
250.671	0
250.888	0.01
251.104	0.08
251.32	-0.03
251.536	0.01
251.752	-0.02
251.969	0.04
252.185	0.01
252.401	0.19
252.617	-0.02
252.833	-0.03
253.049	0.06
253.265	-0.01
253.481	0.1
253.697	-0.04
253.913	-0.09
254.129	0.06
254.345	0.05
254.561	-0.05
254.777	-0.04
254.993	0.02
255.209	0.01
255.425	-0.06
255.641	-0.02
255.857	0.1
256.073	0.05
256.288	-0.12
256.504	-0.03
256.72	-0
256.936	0.19
257.152	0.02
257.367	-0.04
257.583	-0.03
257.799	0.02
258.015	-0.02
258.23	-0.01
258.446	0.22
258.662	-0.02
258.877	-0.08
259.093	-0.05
259.309	0.04
259.524	0.06
259.74	-0.05
259.955	-0.12
260.171	0.01
260.387	0.09
260.602	0.13
260.818	-0.02
261.033	-0.05
261.249	-0.01
261.464	-0.02
261.68	-0.19
261.895	0.09
262.11	0.12
262.326	-0.11
262.541	-0.07
262.757	0.03
262.972	0.01
263.187	0.01
263.403	-0.04
263.618	0.04
263.833	0.01
264.049	-0.09
264.264	-0.01
264.479	0
264.694	0.1
264.91	-0.05
265.125	0.02
265.34	0.15
265.555	0.13
265.77	0.03
265.986	-0.03
266.201	0.08
266.416	0.09
266.631	-0.01
266.846	-0.04
267.061	0.06
267.276	0.05
267.491	-0.1
267.706	0.03
267.921	0.03
268.136	0.02
268.351	0.04
268.566	-0.07
268.781	0.06
268.996	0
269.211	0
269.426	-0.05
269.641	-0.06
269.856	0.07
270.071	-0.01
270.285	-0.09
270.5	0.1
270.715	0.09
270.93	0.01
271.145	-0.06
271.359	0.01
271.574	-0.04
271.789	0.05
272.004	-0.04
272.218	-0.04
272.433	0.06
272.648	-0
272.862	0.06
273.077	0
273.292	-0.04
273.506	-0.01
273.721	-0.06
273.936	0.05
274.15	0.07
274.365	-0.01
274.579	0.07
274.794	0.11
275.008	0.04
275.223	-0.04
275.437	0.08
275.652	0.08
275.866	0.09
276.081	-0.04
276.295	0.04
276.509	0.09
276.724	0.02
276.938	0.05
277.153	0.05
277.367	0.07
277.581	-0.02
277.796	0.01
278.01	-0.04
278.224	0.01
278.438	0.12
278.653	-0.07
278.867	-0.01
279.081	0.03
279.295	0.02
279.51	0.04
279.724	-0.06
279.938	0.11
280.152	0.03
280.366	-0.03
280.58	-0.03
280.794	0.14
281.008	0.04
281.222	0.08
281.437	0.13
281.651	0.04
281.865	0.12
282.079	0.01
282.293	-0.07
282.507	-0.08
282.721	-0.02
282.935	0.01
283.148	-0.08
283.362	-0
283.576	-0.07
283.79	0.02
284.004	-0.02
284.218	0.08
284.432	0.01
284.646	0.03
284.859	-0.03
285.073	-0.03
285.287	0.06
285.501	0.02
285.714	0.01
285.928	0.02
286.142	0.02
286.356	-0.02
286.569	-0.05
286.783	0.11
286.997	0.08
287.21	0.07
287.424	0.01
287.637	-0
287.851	-0.03
288.065	0.01
288.278	-0.01
288.492	0
288.705	-0.02
288.919	0.03
289.132	-0.07
289.346	0.1
289.559	-0.05
289.773	-0.02
289.986	-0.01
290.2	0.03
290.413	0.09
290.626	0.02
290.84	-0.04
291.053	0.02
291.267	0.07
291.48	0.04
291.693	0.01
291.906	0.03
292.12	0.01
292.333	-0.04
292.546	-0.02
292.76	0.06
292.973	0
293.186	0.04
293.399	-0.01
293.612	0.08
293.826	0.01
294.039	0
294.252	-0.03
294.465	0.1
294.678	0.11
294.891	0.02
295.104	-0.01
295.317	0.05
295.53	0.06
295.743	0
295.956	0.01
296.169	0.13
296.382	0.06
296.595	0.02
296.808	0.01
297.021	0.09
297.234	0.07
297.447	0.01
297.66	0.06
297.873	0.09
298.086	0.09
298.299	-0.02
298.511	-0.03
298.724	0.05
298.937	-0.04
299.15	-0.02
299.363	0.04
299.575	0.01
299.788	-0.01
300.001	-0.01
300.213	-0.07
300.426	-0.02
300.639	-0.03
300.852	0.01
301.064	0.05
301.277	0.11
301.489	0.03
301.702	0.07
301.915	0.01
302.127	0
302.34	0.02
302.552	0.07
302.765	-0.03
302.977	0.07
303.19	-0.01
303.402	0.01
303.615	0.06
303.827	-0.03
304.04	-0.02
304.252	0.07
304.464	-0.01
304.677	0.14
304.889	0.06
305.102	-0.03
305.314	0.02
305.526	0.1
305.739	0.04
305.951	-0.05
306.163	-0
306.375	0.08
306.588	0.01
306.8	-0
307.012	-0.04
307.224	0.05
307.436	0.12
307.649	-0.08
307.861	0.02
308.073	0.07
308.285	-0
308.497	-0.01
308.709	-0.02
308.921	0.02
309.133	0.08
309.346	-0.01
309.558	0.02
309.77	0.06
309.982	0.09
310.194	0.05
310.406	-0.01
310.617	0.07
310.829	0.05
311.041	0.04
311.253	-0.04
311.465	0.03
311.677	0.05
311.889	0.03
312.101	-0.01
312.313	0.07
312.524	0.08
312.736	-0.04
312.948	0.03
313.16	0.07
313.372	0.08
313.583	0.06
313.795	0
314.007	-0.03
314.218	0.05
314.43	0.11
314.642	-0.01
314.853	-0.03
315.065	0.06
315.277	0.06
315.488	0.02
315.7	0.08
315.912	0.09
316.123	0.04
316.335	0.05
316.546	0.14
316.758	0.02
316.969	-0.02
317.181	0.04
317.392	0.01
317.604	0.09
317.815	-0.05
318.026	-0.01
318.238	0.02
318.449	0.08
318.661	-0.05
318.872	-0.05
319.083	-0
319.295	0.05
319.506	0.02
319.717	0.01
319.929	0.1
320.14	0.03
320.351	0.01
320.562	-0.01
320.774	0.04
320.985	0.03
321.196	-0.05
321.407	-0.02
321.618	0.06
321.829	0.06
322.041	0.08
322.252	0.04
322.463	0.06
322.674	0.05
322.885	-0.03
323.096	-0.05
323.307	-0.01
323.518	0.06
323.729	0.03
323.94	-0.01
324.151	0.01
324.362	0.06
324.573	0.04
324.784	-0
324.995	0.08
325.206	0.07
325.417	-0.03
325.628	0.01
325.838	0.04
326.049	0.02
326.26	0.01
326.471	-0.02
326.682	0.07
326.892	-0
327.103	-0.03
327.314	-0.05
327.525	0.12
327.735	0.02
327.946	0.02
328.157	0
328.368	0.05
328.578	-0.01
328.789	0.08
328.999	0.04
329.21	-0.01
329.421	0.04
329.631	-0.01
329.842	0.02
330.052	0.04
330.263	0.09
330.473	0.07
330.684	0.02
330.894	0.01
331.105	0.05
331.315	0.02
331.526	-0.05
331.736	0.12
331.947	0.08
332.157	0.01
332.367	-0.05
332.578	0.08
332.788	0.12
332.999	0.01
333.209	0.05
333.419	0.01
333.629	0.06
333.84	0.04
334.05	-0.01
334.26	0.1
334.47	-0.01
334.681	0.07
334.891	0.02
335.101	0.08
335.311	0.1
335.521	0.07
335.732	-0.03
335.942	0.07
336.152	0.06
336.362	0.06
336.572	0.04
336.782	0.09
336.992	-0.02
337.202	-0.01
337.412	-0.02
337.622	-0
337.832	0.03
338.042	0.03
338.252	-0.01
338.462	0.02
338.672	0.03
338.882	-0.03
339.092	0.01
339.302	0.11
339.511	0.08
339.721	-0.01
339.931	-0.03
340.141	0.08
340.351	0.05
340.561	0.03
340.77	0.02
340.98	0.06
341.19	0.06
341.4	-0.01
341.609	-0.02
341.819	0.02
342.029	-0.01
342.238	-0
342.448	-0.01
342.658	0.03
342.867	0.04
343.077	0.04
343.286	0.04
343.496	0.04
343.706	0.12
343.915	0.01
344.125	0.04
344.334	0.03
344.544	-0.02
344.753	0
344.963	0.01
345.172	0.04
345.381	0.01
345.591	-0.03
345.8	0.03
346.01	0.07
346.219	0.04
346.428	-0.09
346.638	0.01
346.847	0.01
347.056	0.08
347.266	-0.01
347.475	0.02
347.684	0.04
347.893	0.07
348.103	0.03
348.312	0.03
348.521	0.04
348.73	0.03
348.94	0.06
349.149	0.02
349.358	0.03
349.567	0.02
349.776	-0.03
349.985	0.01
350.194	0.09
350.403	0.06
350.612	-0.03
350.821	0.02
351.03	0.06
351.239	-0.01
351.448	0.03
351.657	-0.02
351.866	0.13
352.075	0.04
352.284	0
352.493	0
352.702	0.08
352.911	0.07
353.12	0.03
353.329	0.03
353.538	0.07
353.746	0.05
353.955	-0.02
354.164	0.03
354.373	0.03
354.582	0.08
354.79	0.05
354.999	0.05
355.208	0.03
355.416	0.1
355.625	-0.03
355.834	0.03
356.042	0.05
356.251	0.04
356.46	-0
356.668	0.04
356.877	0.1
357.085	0.09
357.294	-0.07
357.503	0.05
357.711	0.04
357.92	0.16
358.128	0.07
358.337	-0.02
358.545	0.06
358.754	0.06
358.962	0.07
359.17	0.04
359.379	0.05
359.587	0.07
359.796	0.05
360.004	0.11
360.212	0.06
360.421	0.11
360.629	0.02
360.837	0.01
361.046	0.07
361.254	0.12
361.462	0.04
361.67	0.02
361.879	0.05
362.087	0.15
362.295	0.03
362.503	0.02
362.711	0.01
362.92	0.02
363.128	0.01
363.336	0.01
363.544	-0
363.752	0
363.96	0.05
364.168	0.01
364.376	0.06
364.584	0.06
364.792	0.1
365	0.07
365.208	0.06
365.416	0.05
365.624	0.07
365.832	0.01
366.04	0.1
366.248	0.03
366.456	0.03
366.664	0.08
366.872	0.04
367.079	0.03
367.287	0.06
367.495	0.07
367.703	0.07
367.911	0.01
368.118	0.04
368.326	0.05
368.534	-0
368.742	0.1
368.949	0.01
369.157	0
369.365	0.07
369.572	0
369.78	0
369.988	0.1
370.195	0.06
370.403	0.09
370.61	0.02
370.818	0.07
371.026	0.13
371.233	0.03
371.441	0.08
371.648	0.05
371.856	0.05
372.063	0.04
372.271	0.04
372.478	0.04
372.685	0.02
372.893	0.11
373.1	0
373.308	0.06
373.515	0.13
373.722	0.06
373.93	0.03
374.137	0.06
374.344	0.14
374.552	0.15
374.759	0.11
374.966	0.05
375.173	0.02
375.381	0.09
375.588	0.04
375.795	0.03
376.002	0.05
376.209	0.02
376.417	0.06
376.624	0.02
376.831	0.07
377.038	0.08
377.245	-0.04
377.452	0.05
377.659	0.09
377.866	0.05
378.073	0.04
378.28	0.05
378.487	0.11
378.694	0.08
378.901	0.06
379.108	0.06
379.315	0.1
379.522	0.2
379.729	0.1
379.936	0.08
380.143	0.1
380.35	0.1
380.557	0.08
380.763	0.09
380.97	0.09
381.177	0.12
381.384	0.09
381.591	0.06
381.797	0.08
382.004	0.11
382.211	0.08
382.418	0.12
382.624	0.12
382.831	0.16
383.038	0.08
383.244	0.11
383.451	0.12
383.658	0.17
383.864	0.11
384.071	0.13
384.277	0.2
384.484	0.15
384.69	0.18
384.897	0.09
385.103	0.11
385.31	0.14
385.516	0.09
385.723	0.13
385.929	0.18
386.136	0.12
386.342	0.21
386.549	0.19
386.755	0.25
386.961	0.25
387.168	0.24
387.374	0.21
387.58	0.27
387.787	0.26
387.993	0.28
388.199	0.29
388.406	0.26
388.612	0.28
388.818	0.27
389.024	0.29
389.231	0.35
389.437	0.46
389.643	0.47
389.849	0.42
390.055	0.4
390.261	0.44
390.467	0.53
390.674	0.49
390.88	0.47
391.086	0.56
391.292	0.56
391.498	0.65
391.704	0.65
391.91	0.69
392.116	0.68
392.322	0.62
392.528	0.83
392.734	0.75
392.94	0.9
393.146	0.92
393.352	0.93
393.557	0.93
393.763	1.04
393.969	1.13
394.175	1.14
394.381	1.21
394.587	1.2
394.792	1.29
394.998	1.46
395.204	1.55
395.41	1.55
395.615	1.71
395.821	1.74
396.027	1.84
396.233	1.98
396.438	2.1
396.644	2.3
396.85	2.3
397.055	2.36
397.261	2.49
397.466	2.71
397.672	2.74
397.878	2.9
398.083	2.99
398.289	3.01
398.494	3.22
398.7	3.36
398.905	3.3
399.111	3.74
399.316	3.67
399.522	3.92
399.727	4.06
399.932	4.22
400.138	4.36
400.343	4.61
400.549	4.62
400.754	5
400.959	5.16
401.165	5.42
401.37	5.68
401.575	6.1
401.78	6.11
401.986	6.36
402.191	6.58
402.396	7.03
402.601	7.21
402.807	7.51
403.012	7.79
403.217	8.21
403.422	8.24
403.627	8.64
403.832	9.11
404.037	9.22
404.243	9.28
404.448	9.71
404.653	9.89
404.858	10.08
405.063	10.04
405.268	10.46
405.473	10.55
405.678	10.9
405.883	11.29
406.088	11.29
406.293	11.25
406.498	11.71
406.703	11.52
406.907	11.89
407.112	12.28
407.317	12.53
407.522	12.75
407.727	12.86
407.932	12.88
408.136	13.21
408.341	12.81
408.546	12.77
408.751	12.83
408.956	12.67
409.16	12.98
409.365	12.82
409.57	12.54
409.774	12.31
409.979	12.37
410.184	12.15
410.388	11.89
410.593	11.94
410.798	11.82
411.002	11.77
411.207	11.46
411.411	11.41
411.616	10.87
411.82	10.82
412.025	10.49
412.229	10.4
412.434	10.12
412.638	9.69
412.843	9.59
413.047	9.33
413.252	8.93
413.456	8.99
413.66	8.61
413.865	8.4
414.069	8.07
414.273	7.96
414.478	7.65
414.682	7.48
414.886	7.26
415.091	6.95
415.295	6.79
415.499	6.83
415.703	6.4
415.908	6.38
416.112	5.93
416.316	6.09
416.52	5.86
416.724	5.62
416.929	5.55
417.133	5.6
417.337	5.31
417.541	5.32
417.745	5.11
417.949	4.93
418.153	4.97
418.357	4.74
418.561	4.8
418.765	4.6
418.969	4.61
419.173	4.54
419.377	4.31
419.581	4.35
419.785	4.22
419.989	4.03
420.193	4.07
420.397	4
420.601	3.94
420.804	3.91
421.008	3.66
421.212	3.65
421.416	3.5
421.62	3.25
421.823	3.16
422.027	3.25
422.231	3.01
422.435	2.88
422.638	2.83
422.842	2.73
423.046	2.62
423.249	2.65
423.453	2.45
423.657	2.49
423.86	2.32
424.064	2.37
424.268	2.34
424.471	2.19
424.675	2.19
424.878	2.08
425.082	2.05
425.285	2.05
425.489	1.92
425.692	1.91
425.896	1.74
426.099	1.78
426.303	1.66
426.506	1.67
426.71	1.66
426.913	1.67
427.116	1.67
427.32	1.55
427.523	1.43
427.726	1.57
427.93	1.47
428.133	1.48
428.336	1.35
428.54	1.35
428.743	1.34
428.946	1.44
429.149	1.28
429.353	1.31
429.556	1.22
429.759	1.22
429.962	1.08
430.165	1.18
430.368	1.06
430.571	1.07
430.775	1.01
430.978	0.95
431.181	0.97
431.384	0.94
431.587	0.93
431.79	0.93
431.993	0.85
432.196	0.92
432.399	0.91
432.602	0.96
432.805	0.88
433.008	0.88
433.211	0.8
433.414	0.94
433.616	0.88
433.819	0.85
434.022	0.75
434.225	0.9
434.428	0.74
434.631	0.93
434.833	0.76
435.036	0.72
435.239	0.78
435.442	0.75
435.645	0.72
435.847	0.7
436.05	0.79
436.253	0.7
436.455	0.6
436.658	0.68
436.861	0.77
437.063	0.63
437.266	0.55
437.468	0.65
437.671	0.68
437.874	0.63
438.076	0.52
438.279	0.5
438.481	0.61
438.684	0.55
438.886	0.59
439.089	0.48
439.291	0.61
439.494	0.53
439.696	0.44
439.899	0.5
440.101	0.57
440.303	0.44
440.506	0.57
440.708	0.56
440.91	0.55
441.113	0.44
441.315	0.46
441.517	0.41
441.72	0.49
441.922	0.4
442.124	0.36
442.326	0.42
442.529	0.47
442.731	0.35
442.933	0.51
443.135	0.36
443.337	0.36
443.539	0.36
443.742	0.34
443.944	0.37
444.146	0.33
444.348	0.36
444.55	0.35
444.752	0.29
444.954	0.28
445.156	0.29
445.358	0.29
445.56	0.35
445.762	0.33
445.964	0.34
446.166	0.27
446.368	0.25
446.57	0.29
446.772	0.24
446.974	0.26
447.175	0.27
447.377	0.2
447.579	0.26
447.781	0.14
447.983	0.36
448.184	0.24
448.386	0.23
448.588	0.18
448.79	0.26
448.991	0.21
449.193	0.18
449.395	0.22
449.597	0.27
449.798	0.26
450	0.27
450.202	0.25
450.403	0.24
450.605	0.23
450.806	0.2
451.008	0.17
451.21	0.22
451.411	0.25
451.613	0.18
451.814	0.16
452.016	0.21
452.217	0.24
452.419	0.25
452.62	0.21
452.821	0.2
453.023	0.27
453.224	0.17
453.426	0.14
453.627	0.25
453.828	0.24
454.03	0.21
454.231	0.25
454.432	0.18
454.634	0.31
454.835	0.16
455.036	0.11
455.238	0.24
455.439	0.27
455.64	0.15
455.841	0.12
456.042	0.28
456.244	0.24
456.445	0.15
456.646	0.14
456.847	0.19
457.048	0.26
457.249	0.23
457.45	0.41
457.651	0.14
457.852	0.21
458.054	0.18
458.255	0.16
458.456	0.22
458.657	0.18
458.858	0.17
459.058	0.16
459.259	0.24
459.46	0.15
459.661	0.17
459.862	0.29
460.063	0.14
460.264	0.21
460.465	0.11
460.666	0.28
460.866	0.16
461.067	0.15
461.268	0.13
461.469	0.14
461.67	0.19
461.87	0.15
462.071	0.14
462.272	0.1
462.473	0.18
462.673	0.2
462.874	0.11
463.075	0.21
463.275	0.12
463.476	0.18
463.676	0.18
463.877	0.21
464.078	0.18
464.278	0.25
464.479	0.13
464.679	0.19
464.88	0.15
465.08	0.23
465.281	0.15
465.481	0.15
465.682	0.18
465.882	0.2
466.083	0.17
466.283	0.17
466.483	0.17
466.684	0.13
466.884	0.09
467.085	0.12
467.285	0.17
467.485	0.13
467.686	0.14
467.886	0.11
468.086	0.09
468.286	0.17
468.487	0.19
468.687	0.12
468.887	0.12
469.087	0.16
469.287	0.14
469.488	0.05
469.688	0.14
469.888	0.17
470.088	0.16
470.288	0.19
470.488	0.19
470.688	0.12
470.888	0.11
471.088	0.08
471.288	0.15
471.488	0.16
471.688	0.12
471.888	0.15
472.088	0.22
472.288	0.14
472.488	0.09
472.688	0.07
472.888	0.17
473.088	0.15
473.288	0.14
473.488	0.14
473.688	0.2
473.887	0.1
474.087	0.1
474.287	0.14
474.487	0.07
474.687	0.14
474.886	0.11
475.086	0.1
475.286	0.12
475.486	0.1
475.685	0.1
475.885	0.12
476.085	0.11
476.284	0.13
476.484	0.11
476.684	0.14
476.883	0.14
477.083	0.13
477.282	0.11
477.482	0.14
477.681	0.19
477.881	0.11
478.08	0.05
478.28	0.06
478.479	0.11
478.679	0.17
478.878	0.06
479.078	0.07
479.277	0.06
479.477	0.11
479.676	0.13
479.875	0.1
480.075	0.03
480.274	0.1
480.473	0.1
480.673	0.07
480.872	0.09
481.071	0.08
481.271	0.09
481.47	0.06
481.669	0.07
481.868	0.06
482.067	0.05
482.267	0.03
482.466	0.05
482.665	0.04
482.864	0.02
483.063	0.01
483.262	0.1
483.461	0.13
483.661	0.13
483.86	0.08
484.059	0.09
484.258	0.07
484.457	0.08
484.656	0.07
484.855	0.1
485.054	0.04
485.253	0.04
485.452	0.03
485.651	0.08
485.849	0.08
486.048	0.05
486.247	0.05
486.446	0.07
486.645	0.02
486.844	0.05
487.043	0.01
487.241	0.08
487.44	0.05
487.639	0.06
487.838	0.09
488.037	0.07
488.235	0.12
488.434	0.07
488.633	0.04
488.831	0.07
489.03	0.1
489.229	0.06
489.427	0.08
489.626	0.12
489.825	0.1
490.023	0.06
490.222	0.05
490.42	0.09
490.619	0.1
490.817	0.08
491.016	0.05
491.214	0.09
491.413	0.05
491.611	0.05
491.81	0.05
492.008	0.08
492.207	0.05
492.405	0.09
492.604	0.02
492.802	0.05
493	0.08
493.199	0.04
493.397	0.06
493.595	0.04
493.794	0.04
493.992	0.11
494.19	0.06
494.388	0.07
494.587	0.04
494.785	0.07
494.983	0
495.181	0.08
495.379	0.06
495.578	0.04
495.776	0.08
495.974	0.08
496.172	0.04
496.37	0.03
496.568	0.04
496.766	0.02
496.964	0.08
497.162	0.06
497.36	0.01
497.558	0.08
497.756	0.08
497.954	0.06
498.152	0.03
498.35	0.03
498.548	0.04
498.746	0.07
498.944	0.02
499.142	0.04
499.34	0.03
499.538	0.06
499.736	0.04
499.933	0.08
500.131	0.08
500.329	0.05
500.527	0.07
500.725	0.09
500.922	0.08
501.12	0.04
501.318	0.07
501.516	0.03
501.713	0.04
501.911	0.03
502.109	0.02
502.306	0.05
502.504	0.03
502.701	0.02
502.899	0.04
503.097	0.07
503.294	0.05
503.492	0.02
503.689	0.08
503.887	0.06
504.084	0.1
504.282	0.04
504.479	0.02
504.677	0.08
504.874	0.03
505.072	0.04
505.269	0.05
505.466	0.07
505.664	0.06
505.861	-0
506.059	0.04
506.256	0.08
506.453	0.05
506.651	0.08
506.848	0.08
507.045	0.05
507.242	0.05
507.44	0.02
507.637	0.03
507.834	0.03
508.031	0.08
508.229	-0
508.426	0.04
508.623	0.07
508.82	0.02
509.017	0.01
509.214	0.04
509.411	0.03
509.608	0.01
509.805	0.04
510.003	0.02
510.2	0.03
510.397	0.07
510.594	0.02
510.791	-0.01
510.988	0.04
511.184	0.05
511.381	0.04
511.578	0.01
511.775	0.08
511.972	0.02
512.169	0.03
512.366	0.02
512.563	0.05
512.76	0.01
512.956	0.05
513.153	0.02
513.35	0.04
513.547	0.02
513.744	0.02
513.94	0.01
514.137	0.03
514.334	0.05
514.53	0.04
514.727	0.03
514.924	0.06
515.12	0.02
515.317	-0.02
515.514	0.01
515.71	-0.01
515.907	0.02
516.103	0.04
516.3	0.05
516.497	0.04
516.693	0.07
516.89	0.02
517.086	-0.01
517.283	0.02
517.479	0.02
517.676	0.03
517.872	0.02
518.068	0.01
518.265	0.01
518.461	0.01
518.658	0.02
518.854	0.02
519.05	0.02
519.247	0.01
519.443	0.06
519.639	0.04
519.836	0.03
520.032	0.01
520.228	0.05
520.424	0.08
520.621	0.04
520.817	0.02
521.013	0.02
521.209	0.04
521.405	0.06
521.601	0.01
521.798	0.03
521.994	0.09
522.19	0
522.386	-0.03
522.582	0.01
522.778	0.03
522.974	-0
523.17	0.02
523.366	0.03
523.562	0.03
523.758	0.03
523.954	-0
524.15	0.01
524.346	0.04
524.542	0.02
524.738	-0.02
524.934	-0
525.129	0.03
525.325	0.02
525.521	-0
525.717	0.05
525.913	0.03
526.109	0.03
526.304	0
526.5	0.04
526.696	0.04
526.892	0.01
527.087	0.03
527.283	-0
527.479	0.03
527.674	-0.01
527.87	0.01
528.066	0.01
528.261	0.04
528.457	0.02
528.653	-0
528.848	-0.01
529.044	0.02
529.239	0.01
529.435	0.05
529.63	0.02
529.826	0.07
530.021	0.02
530.217	0.05
530.412	0.02
530.608	-0.02
530.803	0.03
530.999	0.02
531.194	-0.03
531.389	0.02
531.585	-0.01
531.78	0.01
531.975	0.01
532.171	0.05
532.366	-0.01
532.561	0.03
532.757	0.01
532.952	0.02
533.147	0.04
533.342	0.02
533.538	0.01
533.733	0.06
533.928	0.01
534.123	0.01
534.318	-0.02
534.513	0
534.709	0.02
534.904	0.01
535.099	-0
535.294	0.04
535.489	0.03
535.684	0.01
535.879	-0
536.074	0.01
536.269	-0.03
536.464	0.03
536.659	-0
536.854	0.02
537.049	0.01
537.244	0.03
537.439	0.02
537.634	0.05
537.828	0.03
538.023	0.02
538.218	-0.04
538.413	0.03
538.608	-0
538.803	0.04
538.997	-0.02
539.192	0.04
539.387	0.04
539.582	0.05
539.776	0.03
539.971	0.01
540.166	0
540.36	-0.01
540.555	0.01
540.75	0.02
540.944	0.02
541.139	0
541.334	0.01
541.528	0.03
541.723	0.05
541.917	0.02
542.112	-0.02
542.306	0.01
542.501	0.01
542.695	0.01
542.89	0
543.084	0.01
543.279	0.02
543.473	0
543.668	-0.01
543.862	0.01
544.056	0.06
544.251	0.01
544.445	0.02
544.64	0.01
544.834	-0.02
545.028	0.02
545.222	0.04
545.417	0.04
545.611	0.02
545.805	0.01
546	0.01
546.194	0.01
546.388	0.01
546.582	0.03
546.776	-0
546.97	0
547.165	0.03
547.359	0.02
547.553	-0.01
547.747	0.02
547.941	0.04
548.135	0.01
548.329	0.06
548.523	0.03
548.717	0.01
548.911	-0
549.105	0.01
549.299	-0
549.493	0.03
549.687	0.04
549.881	0.05
550.075	0.03
550.269	-0.01
550.463	0.02
550.657	-0.02
550.85	0.03
551.044	-0.01
551.238	0.03
551.432	-0.01
551.626	-0.03
551.82	0.02
552.013	-0.01
552.207	0.02
552.401	0.03
552.594	0.03
552.788	0.02
552.982	0.02
553.176	-0.01
553.369	0.02
553.563	0.03
553.756	-0.04
553.95	-0.02
554.144	-0
554.337	0.03
554.531	0.03
554.724	0.03
554.918	0
555.111	0.03
555.305	0.01
555.498	0.06
555.692	0.03
555.885	-0.02
556.079	0.02
556.272	0.02
556.466	0.06
556.659	0.02
556.852	0.02
557.046	-0.01
557.239	0.04
557.432	-0.05
557.626	-0.02
557.819	0.02
558.012	0.03
558.206	0.01
558.399	0.03
558.592	0.02
558.785	0
558.979	0.04
559.172	0.02
559.365	0.04
559.558	0.01
559.751	0.03
559.944	0.02
560.138	0.02
560.331	-0.02
560.524	0
560.717	0.02
560.91	0
561.103	0.01
561.296	-0.01
561.489	0.02
561.682	0.01
561.875	0.03
562.068	0.01
562.261	0.02
562.454	0.06
562.647	0.02
562.84	-0
563.032	0
563.225	0.02
563.418	0.01
563.611	0.02
563.804	0.01
563.997	-0.03
564.19	-0.01
564.382	0
564.575	0.01
564.768	0.03
564.961	-0
565.153	-0
565.346	0.02
565.539	0.02
565.731	0.02
565.924	0.02
566.117	0.03
566.309	0.02
566.502	0
566.695	-0
566.887	0.01
567.08	-0.02
567.272	-0.01
567.465	-0
567.657	0.02
567.85	0.04
568.042	0.04
568.235	0.03
568.427	-0
568.62	0
568.812	0.03
569.005	-0
569.197	-0.04
569.389	0.02
569.582	0.01
569.774	0.01
569.966	-0.03
570.159	-0.04
570.351	0.03
570.543	-0.01
570.736	0.03
570.928	-0.03
571.12	0.01
571.312	-0.01
571.505	-0.03
571.697	0.04
571.889	-0.02
572.081	0
572.273	-0.01
572.465	0.05
572.658	-0.01
572.85	0.01
573.042	-0.01
573.234	-0
573.426	0.05
573.618	-0.03
573.81	-0
574.002	0.05
574.194	0.04
574.386	-0.04
574.578	-0.04
574.77	-0.01
574.962	0.02
575.154	-0.03
575.346	-0.01
575.538	0.01
575.729	0.01
575.921	0
576.113	-0
576.305	0.04
576.497	-0.01
576.689	0.01
576.88	-0.02
577.072	0.03
577.264	0.01
577.456	-0.01
577.647	-0.07
577.839	-0.01
578.031	0.04
578.223	-0.02
578.414	-0.04
578.606	0.04
578.798	0.01
578.989	-0
579.181	0.01
579.372	-0.01
579.564	-0
579.755	-0
579.947	0.01
580.139	0.04
580.33	-0.05
580.522	-0.01
580.713	-0.05
580.905	0.01
581.096	0.03
581.287	0
581.479	0.01
581.67	0.05
581.862	0.01
582.053	-0.02
582.244	-0.04
582.436	-0.02
582.627	-0
582.818	-0.03
583.01	-0.04
583.201	0.01
583.392	0.03
583.583	0.01
583.775	0.01
583.966	-0
584.157	-0
584.348	-0.02
584.54	-0.03
584.731	0.01
584.922	-0
585.113	-0.03
585.304	0.02
585.495	0.04
585.686	-0
585.877	0.02
586.068	0.01
586.259	0.03
586.45	0
586.641	-0.02
586.832	-0.07
587.023	0.02
587.214	0.02
587.405	0.02
587.596	-0.02
587.787	0.05
587.978	0.01
588.169	-0.05
588.36	-0.03
588.551	0.02
588.742	-0.02
588.932	0
589.123	0.01
589.314	0.03
589.505	0
589.696	0.02
589.886	-0.03
590.077	-0.04
590.268	0.01
590.458	-0.06
590.649	-0.05
590.84	0.04
591.03	-0.01
591.221	-0.04
591.412	-0.02
591.602	0.02
591.793	0.05
591.984	-0.05
592.174	-0.01
592.365	0.05
592.555	-0.01
592.746	-0
592.936	0.02
593.127	0.04
593.317	0.04
593.508	-0.03
593.698	-0.02
593.889	0
594.079	0.01
594.269	0.01
594.46	0
594.65	-0.03
594.84	0.02
595.031	-0.03
595.221	-0.01
595.411	-0.04
595.602	0.02
595.792	-0.01
595.982	-0.01
596.172	0.07
596.363	-0
596.553	-0.01
596.743	0.01
596.933	-0.01
597.123	0.04
597.314	-0.03
597.504	-0.02
597.694	0.04
597.884	0.01
598.074	-0.02
598.264	-0.04
598.454	0.01
598.644	0
598.834	-0
599.024	-0.04
599.214	-0.03
599.404	0.02
599.594	-0.01
599.784	-0.01
599.974	0.03
600.164	0.02
600.354	-0.04
600.544	-0.04
600.734	-0.01
600.924	0.03
601.114	-0.03
601.303	-0.01
601.493	0
601.683	0.01
601.873	0.01
602.063	-0.04
602.252	0
602.442	-0.06
602.632	-0.03
602.821	-0.04
603.011	0.03
603.201	-0.01
603.39	-0.03
603.58	-0.04
603.77	0.03
603.959	0.04
604.149	0.01
604.339	-0.01
604.528	0.03
604.718	0.04
604.907	0
605.097	-0.01
605.286	-0.04
605.476	0.02
605.665	0.03
605.855	-0.02
606.044	0.04
606.234	0.02
606.423	-0.02
606.612	-0.04
606.802	0.01
606.991	0.02
607.181	0.01
607.37	-0.04
607.559	0.02
607.749	-0.04
607.938	-0.03
608.127	-0.01
608.316	-0.03
608.506	0.01
608.695	0
608.884	-0.03
609.073	0.02
609.263	-0
609.452	0.04
609.641	0.01
609.83	-0.04
610.019	-0.02
610.208	-0.04
610.397	-0.03
610.586	0.02
610.775	-0.01
610.965	-0.01
611.154	-0.05
611.343	0.01
611.532	0
611.721	-0.03
611.91	-0.02
612.099	0.03
612.287	-0.01
612.476	-0.03
612.665	0.01
612.854	-0.01
613.043	0.04
613.232	-0.02
613.421	-0.05
613.61	-0
613.798	-0.04
613.987	0.02
614.176	0
614.365	0.01
614.554	0.01
614.742	0.02
614.931	-0.02
615.12	0.02
615.309	-0.01
615.497	0.01
615.686	-0.06
615.875	-0.03
616.063	0
616.252	-0.02
616.44	-0.03
616.629	-0.01
616.818	0.02
617.006	-0
617.195	0.01
617.383	0.03
617.572	-0
617.76	-0.02
617.949	-0.01
618.137	0.02
618.326	0.03
618.514	-0.03
618.703	-0.02
618.891	0.03
619.079	-0.06
619.268	0.01
619.456	-0.04
619.644	0.04
619.833	-0.02
620.021	-0
620.209	-0.05
620.398	0.01
620.586	-0.02
620.774	0.04
620.962	-0.03
621.151	0.04
621.339	-0
621.527	-0.03
621.715	-0.02
621.903	-0.02
622.092	-0.02
622.28	0.01
622.468	-0
622.656	-0.03
622.844	0.04
623.032	-0.02
623.22	-0.07
623.408	0.01
623.596	0.02
623.784	0.02
623.972	-0.04
624.16	-0.02
624.348	0.04
624.536	-0.04
624.724	-0
624.912	0.02
625.1	0.02
625.288	-0.05
625.476	-0.05
625.664	0.05
625.851	-0.05
626.039	0.01
626.227	0.01
626.415	-0.02
626.603	-0.06
626.79	0.02
626.978	0
627.166	0
627.354	0.01
627.541	-0.01
627.729	-0.07
627.917	0.03
628.104	0.02
628.292	-0
628.48	-0
628.667	0.01
628.855	0.01
629.042	0.01
629.23	-0.05
629.418	-0.02
629.605	0
629.793	-0.02
629.98	-0.02
630.168	-0.01
630.355	0.01
630.543	0
630.73	-0.06
630.917	0.02
631.105	0.05
631.292	-0.01
631.48	-0.02
631.667	0.04
631.854	-0
632.042	0.01
632.229	-0.05
632.416	-0.02
632.604	-0
632.791	-0.06
632.978	0.01
633.165	0.02
633.353	0.07
633.54	-0.02
633.727	-0.08
633.914	-0.02
634.101	-0.08
634.289	0.03
634.476	-0.01
634.663	-0.05
634.85	-0.02
635.037	-0.05
635.224	-0.05
635.411	0.04
635.598	0.02
635.785	-0.04
635.972	-0.03
636.159	0.03
636.346	-0.07
636.533	-0.01
636.72	-0.02
636.907	-0.03
637.094	0.02
637.281	-0.01
637.468	0.01
637.655	-0
637.842	0.01
638.029	-0.01
638.215	0.04
638.402	0.02
638.589	-0.03
638.776	-0.01
638.963	-0.03
639.149	0.01
639.336	0.06
639.523	-0.04
639.709	-0.03
639.896	-0.02
640.083	0.05
640.27	0.01
640.456	-0.03
640.643	-0
640.829	-0.05
641.016	0
641.203	-0.06
641.389	0.02
641.576	0.02
641.762	-0
641.949	-0.05
642.135	0.03
642.322	-0.01
642.508	-0.04
642.695	-0
642.881	0
643.068	-0.02
643.254	-0.03
643.441	0.06
643.627	-0.01
643.813	-0.03
644	0.04
644.186	-0.04
644.372	0.01
644.559	0.02
644.745	-0.03
644.931	-0.04
645.118	-0.04
645.304	-0.04
645.49	-0.03
645.676	-0
645.862	-0.01
646.049	0.03
646.235	-0.02
646.421	0.06
646.607	0.05
646.793	-0.03
646.979	-0.04
647.165	-0
647.352	-0.02
647.538	0.04
647.724	0.01
647.91	-0.01
648.096	0.04
648.282	0.05
648.468	-0
648.654	0
648.84	-0
649.026	0.03
649.212	-0
649.397	-0.02
649.583	-0.05
649.769	0.01
649.955	-0.02
650.141	0.02
650.327	0.03
650.513	-0.05
650.698	0.01
650.884	-0.02
651.07	0
651.256	0.01
651.442	0
651.627	-0
651.813	0
651.999	0
652.184	0.01
652.37	0
652.556	-0.05
652.741	0.03
652.927	-0.07
653.113	-0.01
653.298	0.01
653.484	-0.02
653.669	-0.04
653.855	-0.04
654.04	0.02
654.226	0
654.412	-0.04
654.597	-0.04
654.782	-0.01
654.968	0.02
655.153	0.03
655.339	0
655.524	-0.06
655.71	0.02
655.895	-0.02
656.08	-0.02
656.266	0.05
656.451	0.03
656.636	-0.04
656.822	-0.01
657.007	-0.01
657.192	-0.02
657.378	-0.05
657.563	0.01
657.748	0.05
657.933	0.02
658.118	-0.04
658.304	-0.03
658.489	0.01
658.674	0.01
658.859	-0.03
659.044	0.01
659.229	0.01
659.414	-0.04
659.599	-0.05
659.785	-0.05
659.97	0.01
660.155	0.02
660.34	-0.02
660.525	-0.02
660.71	-0.02
660.895	0.02
661.08	-0.02
661.264	-0.04
661.449	0.07
661.634	0.04
661.819	-0.01
662.004	0.04
662.189	-0.08
662.374	-0.04
662.559	-0.04
662.743	-0.09
662.928	-0.02
663.113	-0.02
663.298	-0.1
663.483	-0.02
663.667	-0.03
663.852	-0.03
664.037	0.01
664.221	-0.02
664.406	0.01
664.591	-0
664.775	-0.02
664.96	-0.03
665.145	-0.01
665.329	0.03
665.514	-0.06
665.698	-0.02
665.883	-0.05
666.068	0.06
666.252	-0.01
666.437	-0.06
666.621	-0.03
666.806	0.03
666.99	-0.02
667.174	-0.06
667.359	0.03
667.543	-0.02
667.728	-0.01
667.912	-0.11
668.096	0.02
668.281	-0.03
668.465	-0
668.649	0.03
668.834	-0.06
669.018	-0.02
669.202	-0.02
669.387	-0.09
669.571	0.02
669.755	-0.04
669.939	0.01
670.124	-0.03
670.308	0.06
670.492	0.04
670.676	-0.01
670.86	0
671.044	-0.03
671.228	0.02
671.413	-0.03
671.597	-0.02
671.781	-0.07
671.965	0.04
672.149	-0.02
672.333	-0.01
672.517	-0.04
672.701	0.04
672.885	-0.03
673.069	-0.08
673.253	0.07
673.437	-0.01
673.621	0
673.804	-0.03
673.988	-0.04
674.172	-0.02
674.356	-0.02
674.54	-0.02
674.724	0.08
674.908	0
675.091	-0
675.275	0
675.459	0.05
675.643	0.07
675.826	-0.02
676.01	0
676.194	0
676.377	0.02
676.561	0.01
676.745	-0
676.928	0.01
677.112	0.05
677.296	-0.08
677.479	-0.03
677.663	-0.01
677.846	0.02
678.03	-0.05
678.213	-0.01
678.397	0.03
678.58	-0.01
678.764	-0.06
678.947	-0.06
679.131	-0.02
679.314	0.04
679.498	-0.05
679.681	0.03
679.865	0.06
680.048	-0.07
680.231	-0.04
680.415	-0.03
680.598	-0.05
680.781	-0.04
680.965	-0.03
681.148	-0.01
681.331	-0.01
681.514	0.04
681.698	-0.06
681.881	0.02
682.064	0.01
682.247	-0.02
682.43	-0.1
682.614	0.01
682.797	0.06
682.98	0.04
683.163	-0.07
683.346	0.01
683.529	-0.07
683.712	-0.07
683.895	0.01
684.078	-0.1
684.261	-0.04
684.444	-0.02
684.627	-0.01
684.81	-0
684.993	-0.03
685.176	0.01
685.359	-0.08
685.542	-0.04
685.725	0.03
685.908	-0.01
686.091	-0.05
686.274	0.03
686.457	0.02
686.639	-0.04
686.822	0.02
687.005	0
687.188	0.04
687.371	0.06
687.553	0.02
687.736	0.03
687.919	0.04
688.102	0.06
688.284	0
688.467	0
688.65	-0.06
688.832	-0.05
689.015	-0.02
689.197	-0.06
689.38	0.05
689.563	0.07
689.745	-0.06
689.928	-0.08
690.11	-0.02
690.293	0
690.475	-0.13
690.658	0.03
690.84	-0.01
691.023	-0.01
691.205	-0.04
691.388	0.01
691.57	-0.01
691.752	0.04
691.935	-0.1
692.117	-0.03
692.3	-0.03
692.482	0.03
692.664	-0.01
692.847	-0.05
693.029	0.07
693.211	0.02
693.393	-0.05
693.576	-0.01
693.758	-0.03
693.94	-0.03
694.122	-0.07
694.304	-0.02
694.487	-0.03
694.669	0.06
694.851	-0.09
695.033	-0.02
695.215	-0.06
695.397	-0.05
695.579	0.03
695.761	-0.02
695.943	-0.07
696.125	0.07
696.308	-0.01
696.49	-0.08
696.671	0.17
696.853	-0
697.035	0.1
697.217	0
697.399	0.05
697.581	0
697.763	0.03
697.945	-0.01
698.127	-0.01
698.309	0.03
698.491	-0.04
698.672	0
698.854	0.06
699.036	0.08
699.218	-0.03
699.399	0.03
699.581	0.04
699.763	-0.08
699.945	0.03
700.126	-0.12
700.308	0.01
700.49	-0.07
700.671	-0.11
700.853	-0.13
701.035	-0.04
701.216	-0.02
701.398	-0.1
701.579	-0.01
701.761	0.03
701.943	-0.07
702.124	-0.06
702.306	0.02
702.487	0.09
702.669	0.01
702.85	-0.08
703.031	-0.08
703.213	0.1
703.394	0.05
703.576	-0.03
703.757	0.09
703.938	0.02
704.12	0.12
704.301	0
704.483	-0.06
704.664	0.02
704.845	0.11
705.026	-0.02
705.208	-0.03
705.389	-0.02
705.57	-0.01
705.751	-0.05
705.933	-0.02
706.114	0.09
706.295	-0.03
706.476	-0.09
706.657	0.06
706.838	0.05
707.02	0.05
707.201	-0.02
707.382	-0.05
707.563	-0.01
707.744	-0.07
707.925	-0.02
708.106	-0.05
708.287	0
708.468	0.08
708.649	-0.03
708.83	0.03
709.011	-0.06
709.192	0.01
709.373	-0.1
709.554	-0.01
709.734	-0.05
709.915	-0.03
710.096	-0.02
710.277	-0.1
710.458	0.02
710.639	-0.01
710.819	-0.14
711	-0.06
711.181	0.02
711.362	0.03
711.542	0.02
711.723	-0.05
711.904	0.01
712.085	0
712.265	-0.02
712.446	-0.15
712.627	-0.09
712.807	-0.03
712.988	-0.01
713.168	-0.11
713.349	0.06
713.53	-0.15
713.71	-0.08
713.891	-0.07
714.071	-0.06
714.252	-0.07
714.432	-0.06
714.613	-0.14
714.793	-0.07
714.974	0.13
715.154	0.06
715.334	0.03
715.515	0.1
715.695	-0.16
715.876	-0.02
716.056	-0.06
716.236	-0.05
716.417	-0.02
716.597	-0.07
716.777	0.12
716.957	-0.01
717.138	0.01
717.318	-0.04
717.498	-0.12
717.678	-0.04
717.859	0.04
718.039	-0.08
718.219	-0.03
718.399	0.03
718.579	-0.08
718.759	-0.1
718.939	-0.05
719.12	0.08
719.3	0.01
719.48	-0.16
719.66	-0.16
719.84	0.1
720.02	-0.05
720.2	-0.02
720.38	-0.06
720.56	0.03
720.74	-0.08
720.92	0.01
721.1	0.07
721.279	0.09
721.459	-0.05
721.639	-0.11
721.819	0.01
721.999	0.01
722.179	0.04
722.359	-0.05
722.538	-0.05
722.718	-0.02
722.898	-0.12
723.078	-0.09
723.257	-0.05
723.437	-0.01
723.617	0.01
723.797	-0.04
723.976	0.02
724.156	-0.02
724.336	0.08
724.515	0.11
724.695	-0.14
724.874	-0.07
725.054	0.05
725.234	-0.1
725.413	0.03
725.593	-0.01
725.772	-0.02
725.952	-0
726.131	-0.07
726.311	-0.05
726.49	-0.05
726.67	-0.14
726.849	-0.07
727.028	0.02
727.208	-0.04
727.387	0.01
727.567	-0.15
727.746	0.02
727.925	-0.04
728.105	-0.12
728.284	-0.08
728.463	-0.08
728.643	0.05
728.822	-0.11
729.001	-0.08
729.18	-0.05
729.359	-0.02
729.539	-0.03
729.718	-0.04
729.897	0.06
730.076	-0.02
730.255	-0.21
730.434	-0.04
730.614	0.05
730.793	0.1
730.972	-0.03
731.151	-0.07
731.33	0.1
731.509	-0.02
731.688	0.03
731.867	0.01
732.046	-0.14
732.225	0.2
732.404	-0.08
732.583	-0.16
732.762	-0.02
732.941	0.04
733.12	-0.01
733.298	-0.09
733.477	0.09
733.656	-0.06
733.835	-0.08
734.014	0.07
734.193	-0.1
734.371	0.03
734.55	-0.04
734.729	-0.15
734.908	0.01
735.086	-0.03
735.265	-0.05
735.444	-0.15
735.623	-0.21
735.801	-0.1
735.98	-0.02
736.159	-0.05
736.337	0.07
736.516	-0.03
736.694	-0.05
736.873	-0.06
737.052	0.16
737.23	0.03
737.409	-0.15
737.587	0.14
737.766	-0.15
737.944	-0.07
738.123	-0.07
738.301	0.1
738.479	-0.07
738.658	0.01
738.836	-0.23
739.015	0.01
739.193	0.06
739.371	-0.17
739.55	-0.06
739.728	-0.11
739.906	0.09
740.085	0.07
740.263	-0.04
740.441	-0.29
740.62	0.16
740.798	0.11
740.976	-0.13
741.154	-0.12
741.332	0.06
741.511	-0.04
741.689	0.05
741.867	0.03
742.045	0.01
742.223	-0.07
742.401	-0.12
742.579	-0.1
742.757	-0.05
742.935	-0.18
743.114	-0.08
743.292	-0.12
743.47	-0.06
743.648	0
743.826	-0.15
744.004	0.01
744.181	-0.02
744.359	-0.09
744.537	-0.1
744.715	-0.05
744.893	0.01
745.071	0.03
745.249	-0.17
745.427	-0.11
745.605	0.09
745.782	0.01
745.96	0.09
746.138	0.03
746.316	0.13
746.493	-0.03
746.671	-0.1
746.849	-0.07
747.027	0.11
747.204	-0.06
747.382	0.05
747.56	-0.18
747.737	-0.07
747.915	-0.06
748.093	-0.01
748.27	-0.11
748.448	-0.01
748.625	-0.17
748.803	-0.12
748.98	-0.06
749.158	-0.04
749.335	0.05
749.513	-0.05
749.69	-0.07
749.868	-0.07
750.045	-0.09
750.223	-0.05
750.4	-0.27
750.578	0.17
750.755	0.01
750.932	-0.19
751.11	0.09
751.287	-0.14
751.464	0.08
751.642	-0.02
751.819	-0.03
751.996	-0.07
752.173	0.05
752.351	-0.11
752.528	-0.14
752.705	-0.13
752.882	-0.16
753.06	-0.02
753.237	0.04
753.414	0.21
753.591	0.11
753.768	0.11
753.945	-0.09
754.122	-0.2
754.299	0.05
754.476	-0.09
754.654	0.02
754.831	0.09
755.008	-0.03
755.185	-0.07
755.362	-0.05
755.539	-0.02
755.716	-0.01
755.892	-0.11
756.069	-0
756.246	-0.04
756.423	-0.01
756.6	0.1
756.777	-0.02
756.954	0.04
757.131	-0.12
757.307	-0.13
757.484	-0.08
757.661	-0.06
757.838	-0
758.015	-0.18
758.191	0.06
758.368	-0.1
758.545	0.14
758.721	0.01
758.898	-0.01
759.075	0.05
759.251	0.08
759.428	0.04
759.605	-0.14
759.781	-0.07
759.958	0.07
760.134	0.1
760.311	-0.1
760.488	-0.02
760.664	0.04
760.841	0.01
761.017	-0.1
761.194	0.1
761.37	0.1
761.547	0.1
761.723	-0.05
761.899	0.03
762.076	-0.1
762.252	-0.13
762.429	-0.06
762.605	-0.01
762.781	-0.02
762.958	-0.03
763.134	-0.16
763.31	-0.09
763.486	0.1
763.663	-0.12
763.839	-0.01
764.015	-0.28
764.191	-0.2
764.368	0.05
764.544	-0.09
764.72	-0.04
764.896	0.03
765.072	-0.09
765.248	-0.02
765.425	-0.05
765.601	-0.03
765.777	-0.01
765.953	-0.31
766.129	-0.05
766.305	-0.17
766.481	0.17
766.657	-0.01
766.833	0.06
767.009	-0.05
767.185	-0.14
767.361	-0.06
767.537	-0.16
767.713	0.07
767.889	-0.16
768.065	-0.04
768.24	-0.11
768.416	0.03
768.592	-0.11
768.768	-0.04
768.944	0.17
769.12	-0.12
769.295	-0.14
769.471	0.02
769.647	-0.01
769.823	0.1
769.998	-0.07
770.174	-0.1
770.35	0.28
770.525	0.2
770.701	-0.05
770.877	-0.19
771.052	-0.14
771.228	0.15
771.403	0.04
771.579	-0.04
771.755	0.23
771.93	-0.05
772.106	-0.09
772.281	-0.36
772.457	-0.08
772.632	0.09
772.808	-0.1
772.983	-0.13
773.159	-0.09
773.334	0.05
773.509	-0.02
773.685	-0.2
773.86	0.23
774.036	0.19
774.211	-0.06
774.386	-0
774.562	0
774.737	0.22
774.912	-0.12
775.087	0.16
775.263	0.03
775.438	-0.01
775.613	-0.19
775.788	-0.08
775.964	0.22
776.139	0.3
776.314	-0.2
776.489	-0.06
776.664	0.02
776.839	-0.14
777.014	0.05
777.19	0.23
777.365	0.09
777.54	0.27
777.715	-0.07
777.89	-0.19
778.065	-0.27
778.24	0.04
778.415	0.17
778.59	-0.31
778.765	-0.2
778.94	0.08
779.115	-0.06
779.289	-0.08
779.464	-0.01
779.639	-0.04
779.814	-0.32
779.989	-0.39
780.164	0.12
780.339	0.01
780.513	-0.14
780.688	-0.12
780.863	-0.05
781.038	0.19
781.212	-0.28
781.387	-0.01
781.562	0.37
781.737	0.1
781.911	0.19
782.086	-0.05
782.261	-0.05
782.435	0.15
782.61	-0.18
782.784	-0.11
782.959	0.09
783.134	-0.1
783.308	-0.35
783.483	-0.06
783.657	0.4
783.832	0.14
784.006	-0.21
784.181	0.01
784.355	0.07
784.53	-0.03
784.704	-0.19
784.878	0.04
785.053	-0.03
785.227	0.15
785.402	0.61
785.576	-0.16
785.75	-0.06
785.925	-0.16
786.099	-0.12
786.273	0.03
786.448	0.14
786.622	0.16
786.796	0.28
786.97	0.05
787.145	0.5
787.319	-0.48
787.493	-0.31
787.667	-0.42
787.841	-0.08
788.015	0.18
788.19	-0.27
788.364	0.01
788.538	0
788.712	0.16
788.886	-0.16
789.06	0.32
789.234	-0.01
789.408	-0.23
789.582	-0.18
789.756	-0.12
789.93	-0.17
790.104	-0.15
790.278	-0.03
790.452	-0.37
790.626	-0.02
790.8	0.05
790.973	0.16
791.147	0.16
791.321	0.13
791.495	0.16
791.669	0.07
791.843	0.11
792.016	0
792.19	0.29
792.364	-0.27
792.538	0.35
792.711	0.14
792.885	-0.12
793.059	-0.41
793.233	-0.55
793.406	0.17
793.58	0.14
793.754	-0.2
793.927	-0.17
794.101	0.18
794.274	0.07
794.448	0.26
794.622	-0.34
794.795	0.16
794.969	-0.26
795.142	0.2
795.316	-0.23
795.489	-0.16
795.663	0.35
795.836	-0.01
796.009	-0.29
796.183	0.22
796.356	-0.02
796.53	-0.05
796.703	0.05
796.876	0.49
797.05	-0.21
797.223	-0.28
797.396	-0.03
797.57	0.08
797.743	0.12
797.916	0.12
798.09	-0.15
798.263	0.22
798.436	-0.02
798.609	-0.27
798.782	-0.08
798.956	-0.03
799.129	0.18
799.302	-0.04
799.475	-0.07
799.648	-0.1
799.821	-0.05
799.994	-0.13
800.167	-0.47
800.34	-0.15
800.514	0
800.687	-0.32
800.86	-0.13
801.033	-0.22
801.206	-0.09
801.379	-0.42
801.551	-0.06
801.724	-0.04
801.897	0.27
802.07	-0.13
802.243	-0.68
802.416	-0.09
802.589	-0.14
802.762	0.14
802.935	-0.06
803.107	0.18
803.28	0.49
803.453	0.13
803.626	-0.52
803.798	-0.2
803.971	-0.48
804.144	0.07
804.317	0.13
804.489	0.09
804.662	-0.04
804.835	-0.09
805.007	-0.02
805.18	0.28
805.353	-0.01
805.525	-0.23
805.698	-0.35
805.87	0.04
806.043	0.55
806.215	-0.52
806.388	-0.07
806.56	0.03
806.733	0.4
806.905	-0.02
807.078	-0.34
807.25	-0.12
807.423	0.02
807.595	-0.08
807.768	0.06
807.94	0.39
808.112	-0.1
808.285	-0.27
808.457	-0.13
808.629	-0.29
808.802	0.37
808.974	-0.19
809.146	-0.18
809.318	-0.68
809.491	0.08
809.663	0.03
809.835	-0.24
810.007	0.11
810.18	-0.02
810.352	-0.51
810.524	-0.21
810.696	0.05
810.868	0.41
811.04	-0.09
811.212	-0.1
811.384	0.27
811.556	-0.25
811.728	0.1
811.901	0.58
812.073	-0.32
812.245	0.28
812.417	-0.12
812.589	-0.39
812.76	0.3
812.932	0.48
813.104	0.44
813.276	0.08
813.448	0.2
813.62	0.07
813.792	0.06
813.964	0.1
814.136	-0.14
814.307	-0.41
814.479	-0.49
814.651	0.03
814.823	0.62
814.995	-0.07
815.166	0.26
815.338	-0.48
815.51	-0.32
815.681	0.74
815.853	-0.09
816.025	-0.21
816.196	0.76
816.368	0.2
816.54	-0.47
816.711	-0.69
816.883	0.01
817.054	0.24
817.226	-0.81
817.398	-0.02
817.569	-0.17
817.741	-0.23
817.912	-0.09
818.084	0.01
818.255	0.15
818.426	-0.44
818.598	-0.13
818.769	-0.19
818.941	0.54
819.112	0.43
819.283	-0.24
819.455	-0.5
819.626	0.07
819.798	0.3
819.969	-0.17
820.14	-0.02
820.311	-0.07
820.483	0.25
820.654	-0.05
820.825	-0.21
820.996	-0.24
821.168	-0.42
821.339	-0.56
821.51	-0.66
821.681	-0.36
821.852	0.26
822.023	-0.75
822.195	-0.99
822.366	0.25
822.537	-0.27
822.708	-0.18
822.879	-0.7
823.05	0.29
823.221	-0.09
823.392	-0.22
823.563	-0.13
823.734	0.13
823.905	-0.04
824.076	-0.37
824.247	-0.4
824.418	-0.44
824.589	0.51
824.759	-0.09
824.93	-0.5
825.101	-0.52
825.272	0.62
825.443	0.32
825.614	0.42
825.784	-1.21
825.955	0.78
826.126	0.42
826.297	-0.24
826.467	0.81
826.638	0.73
826.809	-0.85
826.98	-0.22
827.15	0.13
827.321	-0.06
827.492	0.61
827.662	-0.08
827.833	1.27
828.003	0.59
828.174	-0.34
828.345	-1.07
828.515	0.71
828.686	0.31
828.856	-0.26
829.027	-0.11
829.197	0.08
829.368	0.43
829.538	-0.69
829.709	-0.72
829.879	0.39
830.049	-0.33
830.22	0.64
830.39	0.04
830.56	0.25
830.731	-0.37
830.901	-0.02
831.072	0.12
831.242	-0.17
831.412	0.11
831.582	-0.8
831.753	-1.05
831.923	0.13
832.093	-0.41
832.263	-0.18
832.434	-0.96
832.604	-0.63
832.774	0.38
832.944	0.09
833.114	-0.17
833.284	0.26
833.454	-1.14
833.624	-0.5
833.795	-0.22
833.965	0.28
834.135	1.02
834.305	-0.83
834.475	-0.77
834.645	0.42
834.815	-0.94
834.985	-1.29
835.155	-0.28
835.325	0.19
835.494	0.04
835.664	-0.4
835.834	-1.42
836.004	0
836.174	0.58
836.344	0.24
836.514	-0.74
836.684	-0.54
836.853	-0.55
837.023	-0.05
837.193	-0.58
837.363	0.34
837.532	0.68
837.702	-0.22
837.872	-0.81
838.041	0.55
838.211	1.17
838.381	-0.4
838.55	-0.13
838.72	2.22
838.89	1.06
839.059	0.22
839.229	-0.6
839.398	0.86
839.568	-0.03
839.738	-0.21
839.907	0.34
840.077	0.58
840.246	-0.18
840.416	-0.68
840.585	-0.5
840.755	1
840.924	0.61
841.093	-0.63
841.263	-0.29
841.432	-0.97
841.602	-0.56
841.771	-0.69
841.94	-0.24
842.11	1.82
842.279	1.48
842.448	-0.96
842.617	-0.51
842.787	0.91
842.956	-0.62
843.125	-0.12
843.294	0.28
843.464	1.02
843.633	-0.11
843.802	-0.76
843.971	-0.1
844.14	0.41
844.309	0.91
844.479	-0.82
844.648	-0.51
844.817	-0.78
844.986	-0.62
845.155	-0.51
845.324	-0.13
845.493	0.54
845.662	-1.13
845.831	-0.24
846	0.23
846.169	-0.92
846.338	0.25
846.507	0.11
846.676	0.39
846.844	0.14
847.013	0.52
847.182	0.22
847.351	-0.02
847.52	-0.02
847.689	0.47
847.858	0.18
848.026	-0.37
848.195	0.37
848.364	-0.47
848.533	-1.31
848.701	-0.2
848.87	-0.21
849.039	0.59
849.207	0.24
849.376	0.75
849.545	0.32
849.713	-0.46
849.882	-0.38
850.051	-0.03
850.219	-0.77
850.388	0.12
850.556	-1.08
850.725	0.27
850.893	0.26
851.062	0.34
851.23	1.06
851.399	-1
851.567	-0.19
851.736	-0.31
851.904	-1.84
852.073	0.04
852.241	-0.05
852.41	0.48
852.578	-0.01
852.746	-0.86
852.915	0.7
853.083	-0.06
853.251	-0.94
853.42	-1.25
853.588	0
853.756	0.97
853.924	-0.55
854.093	-0.07
854.261	-0.74
854.429	-1.34
854.597	-0.51
854.765	-0.39
854.934	0.36
855.102	0.42
855.27	-0.31
855.438	1.14
855.606	0.36
855.774	1.03
855.942	-1.98
856.11	-1.39
856.278	-0.53
856.446	0.41
856.614	-0.32
856.782	-0.69
856.95	0.01
857.118	0.91
857.286	0.18
857.454	-1.01
857.622	0.91
857.79	0.74
857.958	-1.86
858.126	0.1
858.294	-2.32
858.462	0.74
858.629	-0.01
858.797	-0.81
858.965	-0.02
859.133	-0.33
859.301	0.33
859.468	0.37
859.636	-2.15
859.804	1.09
859.971	-0.48
860.139	-0.8
860.307	0.12
860.474	-0.15
860.642	-2.05
860.81	-0.87
860.977	0.26
861.145	1.63
861.313	-0.32
861.48	-0.49
861.648	1.33
861.815	-0.2
861.983	-1.67
862.15	-0.41
862.318	1.03
862.485	1.03
862.653	-1.99
862.82	-0.67
862.988	1.3
863.155	1.25
863.322	-1.47
863.49	-1.84
863.657	-0.01
863.824	1.83
863.992	0.33
864.159	1.69
864.326	1.62
864.494	0.29
864.661	1.29
864.828	-1.86
864.996	1.02
865.163	1.13
865.33	-1.74
865.497	-3.03
865.664	-0.82
865.832	-2.23
865.999	-0.23
866.166	-2.02
866.333	-1.19
866.5	-1.27
866.667	-0.01
866.834	-0.37
867.001	1.73
867.168	-1.96
867.335	-0.03
867.502	-2.75
867.669	-0.5
867.836	2.3
868.003	-1.21
868.17	0.88
868.337	1.27
868.504	1.61
868.671	-1.6
868.838	-1.51
869.005	0.97
869.172	0.7
869.339	-0.64
869.505	-1.94
869.672	0.06
869.839	1.89
870.006	-0.25
870.173	-3.23
870.339	0.29
870.506	1.37
870.673	-2.7
870.84	0.65
871.006	-0.3
871.173	-1.37
871.34	-1.18
871.506	-1.59
871.673	0.68
871.839	-1.65
872.006	-0.36
872.173	-0.8
872.339	0.38
872.506	0.66
872.672	-0.36
872.839	-2.45
873.005	-0.3
873.172	3.97
873.338	0.59
873.505	0.12
873.671	1.43
873.838	1.2
874.004	-2.72
874.171	-2.13
874.337	1.2
874.503	0.77
874.67	0.1
874.836	0.67
875.002	4.06
875.169	1.88
875.335	-0.42
875.501	-0.72
875.668	1.46
875.834	-1.15
876	-1.88
876.166	-0.5
876.332	0.13
876.499	3.68
876.665	-1.2
876.831	0.59
876.997	3.52
877.163	0.39
877.329	-1.08
877.495	-0.91
877.662	0.42
877.828	-0.04
877.994	-0.02
878.16	-1.98
878.326	-1.79
878.492	0.65
878.658	-1.07
878.824	0.11
878.99	0.69
879.156	-0.22
879.322	1.25
879.487	-0.73
879.653	-0.95
879.819	-0.99
879.985	-1.63
880.151	0.11
880.317	1.68
880.483	0.28
880.648	-0.11
880.814	-3.79
880.98	0.96
881.146	-3.38
881.312	-2.29
881.477	-0.47
881.643	0.02
881.809	2.11
881.974	1.34
882.14	-4.96
882.306	-0.36
882.471	3.98
882.637	-1.65
882.803	-0.86
882.968	1.48
883.134	3.55
883.299	-0.35
883.465	-1.57
883.63	0.95
883.796	0.21
883.961	-0.21
884.127	-0.95
884.292	-4.82
884.458	-1.94
884.623	-1.93
