Data from Apollo_Calib_20240827__AbsoluteIrradiance__506__07-35-01-207.txt Node

Date: Wed Aug 28 07:35:01 BST 2024
User: biology
Spectrometer: FLMT08252
Trigger mode: 0
Integration Time (sec): 5.000000E-1
Scans to average: 5
Electric dark correction enabled: true
Nonlinearity correction enabled: false
Boxcar width: 0
XAxis mode: Wavelengths
Number of Pixels in Spectrum: 3648
>>>>>Begin Spectral Data<<<<<
179.588	-0
179.809	-0
180.03	-0
180.251	-0
180.473	-0
180.694	0
180.915	0
181.136	-0
181.357	-0
181.578	0
181.799	0
182.02	-0
182.241	0
182.462	-0
182.683	0
182.904	-0
183.125	-0
183.346	0
183.567	0
183.788	-0
184.009	-0
184.23	-0
184.451	0
184.672	-0
184.892	-0
185.113	0
185.334	0
185.555	-0
185.776	-0
185.996	0
186.217	0
186.438	0
186.659	-0
186.879	0
187.1	0
187.321	-0
187.541	-0
187.762	0
187.983	-0
188.203	0
188.424	-0
188.644	0
188.865	-0
189.086	-0
189.306	-0
189.527	0
189.747	0
189.968	-0
190.188	0
190.409	0
190.629	0
190.849	-0
191.07	-0
191.29	0
191.511	0
191.731	-0
191.951	-0
192.172	-0
192.392	-0
192.612	-0
192.833	-0
193.053	0
193.273	0
193.493	-0
193.714	-0
193.934	0
194.154	0
194.374	0
194.594	-0
194.815	-0
195.035	0
195.255	-0
195.475	-0
195.695	0
195.915	0
196.135	0
196.355	0
196.575	0
196.795	0
197.015	-0
197.235	-0
197.455	-0
197.675	0
197.895	-0
198.115	-0
198.335	-0
198.555	0
198.775	-0
198.995	0
199.214	0
199.434	-0
199.654	-0
199.874	0
200.094	0.5
200.313	-0.17
200.533	-0.21
200.753	-0.76
200.973	0.55
201.192	0.98
201.412	-0.37
201.632	-0.65
201.851	0.57
202.071	-0.39
202.291	-0.42
202.51	-0.64
202.73	0.12
202.95	-0.15
203.169	-0.5
203.389	-0.27
203.608	-0.07
203.828	-0.5
204.047	-0.21
204.267	-0.07
204.486	0.01
204.706	-0.08
204.925	0.1
205.145	-0.2
205.364	0.46
205.583	0.72
205.803	-0.05
206.022	-0.61
206.242	0.01
206.461	-0.16
206.68	-0.46
206.9	0.22
207.119	0.54
207.338	0.39
207.557	-0.48
207.777	-0.02
207.996	0.05
208.215	0.3
208.434	-0.24
208.654	-0.53
208.873	-0.34
209.092	0.54
209.311	-0.1
209.53	-0.1
209.749	-0.18
209.968	-0.07
210.187	-0.18
210.407	-0.54
210.626	-0.25
210.845	0.09
211.064	-0.27
211.283	-0.56
211.502	0.18
211.721	0.01
211.94	-0.16
212.159	0.12
212.377	0.22
212.596	0.32
212.815	0.08
213.034	0.2
213.253	-0.04
213.472	-0.07
213.691	-0.14
213.91	-0.31
214.128	-0.07
214.347	0.21
214.566	-0.25
214.785	-0.27
215.003	0.11
215.222	-0.05
215.441	-0.1
215.66	-0.24
215.878	-0.14
216.097	0.25
216.316	-0.39
216.534	0.03
216.753	-0.01
216.972	-0.02
217.19	-0.03
217.409	-0.3
217.627	-0.29
217.846	-0.07
218.064	0.11
218.283	-0.39
218.501	0.48
218.72	0.03
218.938	-0.36
219.157	-0.07
219.375	0.06
219.594	0.07
219.812	-0.28
220.031	-0.1
220.249	0.34
220.467	0.07
220.686	-0.24
220.904	-0.21
221.122	-0.22
221.341	0.48
221.559	0.1
221.777	-0.17
221.995	0.01
222.214	0.17
222.432	-0.12
222.65	-0.01
222.868	0.02
223.086	0.08
223.305	0.09
223.523	-0.09
223.741	0.15
223.959	-0.14
224.177	-0.17
224.395	-0.1
224.613	-0.07
224.831	0.17
225.049	-0.16
225.267	-0.1
225.485	0.03
225.703	-0.15
225.921	-0.02
226.139	-0
226.357	0.21
226.575	-0.04
226.793	-0.11
227.011	0.42
227.229	-0.03
227.447	0.11
227.665	-0.15
227.883	-0.25
228.1	0.09
228.318	0.07
228.536	-0.29
228.754	-0.17
228.972	0.14
229.189	0.07
229.407	-0.13
229.625	-0.06
229.843	0.15
230.06	0.15
230.278	-0.12
230.496	0.02
230.713	-0.09
230.931	0.21
231.149	-0.05
231.366	-0.19
231.584	-0.09
231.801	0.34
232.019	-0.11
232.236	-0.04
232.454	-0.05
232.671	-0
232.889	0.06
233.106	-0.13
233.324	-0.09
233.541	-0.08
233.759	-0.01
233.976	-0.17
234.194	0
234.411	-0.05
234.628	-0.08
234.846	-0.06
235.063	0.03
235.28	-0.02
235.498	0.02
235.715	-0.07
235.932	0.13
236.149	-0.05
236.367	-0.05
236.584	-0.05
236.801	-0.09
237.018	0.09
237.236	0.02
237.453	-0.21
237.67	0.06
237.887	0.04
238.104	-0.02
238.321	-0.18
238.538	-0.11
238.755	0.15
238.973	-0.14
239.19	0.01
239.407	-0.04
239.624	-0.05
239.841	-0.22
240.058	-0.15
240.275	0.13
240.492	0.02
240.709	0.02
240.925	-0.06
241.142	0.02
241.359	-0.12
241.576	0.03
241.793	-0.02
242.01	-0.07
242.227	0.03
242.444	-0.02
242.66	0.01
242.877	0.04
243.094	-0.04
243.311	0.01
243.527	-0.02
243.744	0.01
243.961	0.05
244.178	-0.06
244.394	-0.01
244.611	0.07
244.828	0.17
245.044	-0.08
245.261	-0.02
245.477	-0.06
245.694	0.13
245.911	-0.06
246.127	-0.06
246.344	0.22
246.56	0.05
246.777	-0.05
246.993	0.02
247.21	-0
247.426	-0.06
247.643	-0.07
247.859	-0.14
248.076	-0.02
248.292	0.25
248.508	-0.07
248.725	0.05
248.941	0.06
249.157	0.06
249.374	-0.04
249.59	-0.04
249.806	-0.05
250.023	0.04
250.239	-0.05
250.455	0
250.671	-0.01
250.888	-0.08
251.104	0.06
251.32	-0.03
251.536	-0.03
251.752	-0.03
251.969	0.06
252.185	-0.08
252.401	0.17
252.617	0.01
252.833	-0.14
253.049	0.04
253.265	-0
253.481	0.06
253.697	-0.06
253.913	-0.07
254.129	-0
254.345	-0.02
254.561	-0.03
254.777	-0.05
254.993	0.03
255.209	-0.01
255.425	-0.04
255.641	-0.07
255.857	0.04
256.073	-0.04
256.288	-0.08
256.504	-0.06
256.72	-0.04
256.936	0.13
257.152	-0.04
257.367	-0.05
257.583	-0.04
257.799	0.02
258.015	-0.04
258.23	-0.02
258.446	0.12
258.662	-0.03
258.877	-0.11
259.093	-0.09
259.309	0.04
259.524	0.07
259.74	-0.08
259.955	-0.1
260.171	0.01
260.387	-0.04
260.602	0.13
260.818	0.01
261.033	-0.05
261.249	-0.01
261.464	0.03
261.68	-0.07
261.895	0.04
262.11	0.08
262.326	-0.03
262.541	-0.11
262.757	0.05
262.972	-0.02
263.187	-0.03
263.403	-0
263.618	0.06
263.833	0.03
264.049	-0.06
264.264	-0.01
264.479	0.04
264.694	0.09
264.91	-0.07
265.125	-0.04
265.34	-0.02
265.555	0.08
265.77	0.01
265.986	-0.05
266.201	0
266.416	0.09
266.631	-0.08
266.846	0.01
267.061	-0.04
267.276	0.02
267.491	-0.17
267.706	0.04
267.921	0.01
268.136	0.01
268.351	0.02
268.566	-0.13
268.781	0.06
268.996	0.02
269.211	0.02
269.426	-0.05
269.641	0.03
269.856	0.03
270.071	-0.05
270.285	-0.07
270.5	0
270.715	0.08
270.93	-0.04
271.145	-0.03
271.359	0.03
271.574	-0.08
271.789	-0.03
272.004	-0.03
272.218	0.01
272.433	0
272.648	-0.06
272.862	0.07
273.077	-0.01
273.292	0.06
273.506	-0.04
273.721	-0.09
273.936	0.01
274.15	0.04
274.365	-0.04
274.579	0.02
274.794	0.08
275.008	0.05
275.223	-0.07
275.437	-0.01
275.652	0.02
275.866	-0.01
276.081	-0.03
276.295	0.05
276.509	0.02
276.724	0.01
276.938	0.02
277.153	-0.03
277.367	0.06
277.581	-0.04
277.796	-0.01
278.01	-0.07
278.224	0.09
278.438	0.11
278.653	-0.03
278.867	0.02
279.081	-0.17
279.295	-0.01
279.51	0.01
279.724	-0.07
279.938	0.05
280.152	0.04
280.366	-0.04
280.58	0.02
280.794	0.06
281.008	0.07
281.222	0.08
281.437	0.09
281.651	0.05
281.865	0.1
282.079	0.03
282.293	-0.1
282.507	-0.06
282.721	0.02
282.935	0.05
283.148	-0.09
283.362	-0.01
283.576	-0.09
283.79	0.02
284.004	-0.01
284.218	0.09
284.432	-0.04
284.646	-0
284.859	-0.01
285.073	0.01
285.287	0.05
285.501	-0.05
285.714	0.01
285.928	0.05
286.142	0
286.356	-0.01
286.569	-0.06
286.783	0.06
286.997	0.08
287.21	0.01
287.424	0.06
287.637	-0.01
287.851	0.02
288.065	0.03
288.278	-0.01
288.492	-0
288.705	-0.02
288.919	0.02
289.132	-0.06
289.346	0.06
289.559	-0.07
289.773	-0.07
289.986	-0.01
290.2	-0.03
290.413	0.05
290.626	-0.02
290.84	-0.01
291.053	0.02
291.267	0.02
291.48	-0.02
291.693	-0.02
291.906	-0.01
292.12	-0.01
292.333	-0.03
292.546	-0.02
292.76	0.08
292.973	0.03
293.186	-0.01
293.399	-0.04
293.612	0.06
293.826	-0.02
294.039	-0.02
294.252	0.02
294.465	0.04
294.678	0.02
294.891	0.03
295.104	-0.01
295.317	-0.04
295.53	-0.04
295.743	-0.02
295.956	0.04
296.169	0.08
296.382	0.01
296.595	-0.03
296.808	-0.01
297.021	0.02
297.234	0.04
297.447	0.01
297.66	-0.01
297.873	0.06
298.086	0.03
298.299	-0.07
298.511	-0.07
298.724	0.03
298.937	-0.05
299.15	0.01
299.363	-0.01
299.575	0.07
299.788	0.03
300.001	-0.02
300.213	-0.05
300.426	-0.01
300.639	0.01
300.852	-0.05
301.064	0.06
301.277	0.04
301.489	0.01
301.702	0.02
301.915	0
302.127	0.03
302.34	0
302.552	0.03
302.765	-0.01
302.977	0.01
303.19	-0.05
303.402	0.01
303.615	-0.01
303.827	-0.02
304.04	-0.02
304.252	-0
304.464	0.01
304.677	0.14
304.889	0.02
305.102	0.01
305.314	-0
305.526	0
305.739	0.05
305.951	-0.04
306.163	0
306.375	0.05
306.588	-0.03
306.8	0.02
307.012	-0.02
307.224	0.04
307.436	0.05
307.649	-0.07
307.861	-0.02
308.073	0.05
308.285	-0
308.497	-0.04
308.709	0.03
308.921	0.02
309.133	0.05
309.346	-0.01
309.558	-0.01
309.77	0.06
309.982	0.04
310.194	0.02
310.406	-0.05
310.617	0.07
310.829	0.01
311.041	0.02
311.253	-0.02
311.465	-0.02
311.677	0.01
311.889	-0.02
312.101	0
312.313	0.03
312.524	0.05
312.736	-0.07
312.948	-0.02
313.16	0.08
313.372	0.04
313.583	0.02
313.795	0.02
314.007	-0
314.218	0.03
314.43	-0.02
314.642	-0.03
314.853	-0.05
315.065	0.03
315.277	-0.03
315.488	0.04
315.7	0.02
315.912	0.02
316.123	0
316.335	-0
316.546	0.08
316.758	-0.02
316.969	-0.01
317.181	0.03
317.392	-0.02
317.604	0.04
317.815	-0.1
318.026	-0.04
318.238	-0
318.449	-0.01
318.661	-0.05
318.872	-0.05
319.083	-0.06
319.295	0.02
319.506	-0.04
319.717	0.03
319.929	-0.01
320.14	0
320.351	-0.01
320.562	-0.01
320.774	0
320.985	-0.03
321.196	-0.08
321.407	-0.11
321.618	-0
321.829	0.04
322.041	0
322.252	-0.01
322.463	-0.01
322.674	-0
322.885	-0
323.096	-0.04
323.307	-0.04
323.518	0.01
323.729	-0.02
323.94	-0.02
324.151	-0.02
324.362	-0.01
324.573	-0
324.784	-0.02
324.995	0.02
325.206	0
325.417	0.01
325.628	-0.02
325.838	-0.02
326.049	-0.01
326.26	0.05
326.471	-0.02
326.682	0.02
326.892	0.02
327.103	-0.05
327.314	-0.03
327.525	0.03
327.735	-0.02
327.946	-0.04
328.157	-0.01
328.368	0.03
328.578	-0.05
328.789	0.03
328.999	0.03
329.21	-0.05
329.421	0.01
329.631	-0.02
329.842	-0.05
330.052	0.01
330.263	0.03
330.473	0.03
330.684	0.01
330.894	-0.04
331.105	0.01
331.315	0.02
331.526	-0.08
331.736	0.05
331.947	0.02
332.157	0.02
332.367	-0.05
332.578	0.03
332.788	0.04
332.999	0.03
333.209	-0.01
333.419	-0.04
333.629	0.02
333.84	0.01
334.05	-0.05
334.26	0.04
334.47	0.07
334.681	0.05
334.891	0
335.101	0.04
335.311	0.07
335.521	0.02
335.732	-0.04
335.942	0.11
336.152	0.02
336.362	0
336.572	0.03
336.782	0.03
336.992	-0.03
337.202	-0.04
337.412	-0.02
337.622	0
337.832	0.01
338.042	-0.04
338.252	-0.03
338.462	-0.01
338.672	-0.03
338.882	-0
339.092	-0.01
339.302	0.06
339.511	0.03
339.721	-0.01
339.931	-0.04
340.141	0.05
340.351	0.08
340.561	0.01
340.77	0.03
340.98	-0.01
341.19	-0.01
341.4	-0.01
341.609	-0
341.819	0.01
342.029	-0.01
342.238	0
342.448	-0.02
342.658	0.06
342.867	-0.04
343.077	0.01
343.286	-0.01
343.496	0.02
343.706	0.02
343.915	-0.04
344.125	0.01
344.334	0.04
344.544	-0.06
344.753	-0.02
344.963	0
345.172	-0
345.381	0.02
345.591	-0.04
345.8	0.03
346.01	0.04
346.219	0.02
346.428	-0.12
346.638	0
346.847	0.02
347.056	0.06
347.266	-0.01
347.475	-0.01
347.684	0.02
347.893	0.04
348.103	0.01
348.312	-0.01
348.521	0
348.73	-0
348.94	0.01
349.149	-0.03
349.358	-0.02
349.567	-0.04
349.776	-0.04
349.985	-0.03
350.194	0.03
350.403	0.05
350.612	-0.05
350.821	-0.03
351.03	0.01
351.239	-0.08
351.448	-0.05
351.657	-0.02
351.866	0.07
352.075	-0.03
352.284	0.05
352.493	-0.03
352.702	0.04
352.911	-0
353.12	0.02
353.329	-0.01
353.538	0
353.746	0.02
353.955	-0.03
354.164	0.01
354.373	0.04
354.582	0.03
354.79	0.01
354.999	0.04
355.208	0
355.416	0.06
355.625	-0.05
355.834	-0.01
356.042	0.03
356.251	-0
356.46	-0.02
356.668	0.03
356.877	0.08
357.085	0.03
357.294	-0.06
357.503	0.06
357.711	0
357.92	0.06
358.128	0.02
358.337	-0.04
358.545	0.01
358.754	-0.05
358.962	0.06
359.17	-0
359.379	0
359.587	0.02
359.796	0.04
360.004	0.04
360.212	0.03
360.421	0.03
360.629	-0.04
360.837	-0.04
361.046	0.03
361.254	0.09
361.462	-0
361.67	-0.01
361.879	-0.02
362.087	0.09
362.295	-0.03
362.503	0.03
362.711	-0.05
362.92	-0.02
363.128	0.01
363.336	-0
363.544	-0.03
363.752	-0.02
363.96	-0.04
364.168	-0.03
364.376	0.02
364.584	0.01
364.792	0.04
365	0.03
365.208	-0
365.416	-0.01
365.624	0.02
365.832	-0.04
366.04	0.02
366.248	-0
366.456	0.04
366.664	0.04
366.872	-0.02
367.079	-0.01
367.287	-0.03
367.495	0
367.703	-0.01
367.911	-0.02
368.118	0.03
368.326	-0.03
368.534	-0.09
368.742	0.08
368.949	-0.02
369.157	-0.04
369.365	0.02
369.572	0.01
369.78	-0.03
369.988	0.04
370.195	0.02
370.403	0.07
370.61	-0.02
370.818	0
371.026	0.05
371.233	-0.02
371.441	0.02
371.648	-0.04
371.856	0.03
372.063	0
372.271	-0.03
372.478	-0.04
372.685	-0.01
372.893	0.06
373.1	0.02
373.308	-0.02
373.515	0.06
373.722	0.04
373.93	-0.01
374.137	0.07
374.344	0.05
374.552	0.05
374.759	0.01
374.966	-0.01
375.173	0.02
375.381	0.03
375.588	-0.01
375.795	-0.1
376.002	0.03
376.209	-0.03
376.417	-0.01
376.624	0.02
376.831	-0.02
377.038	0.03
377.245	-0.05
377.452	0.01
377.659	-0
377.866	-0.06
378.073	0
378.28	-0
378.487	0
378.694	0.03
378.901	-0
379.108	0
379.315	0.04
379.522	0.09
379.729	0.01
379.936	0.03
380.143	-0.02
380.35	0.01
380.557	-0.01
380.763	0.04
380.97	-0.01
381.177	0.01
381.384	0.02
381.591	0.03
381.797	-0.02
382.004	0.01
382.211	0.03
382.418	-0.02
382.624	-0
382.831	0.01
383.038	-0.01
383.244	0
383.451	-0.01
383.658	0.01
383.864	-0.04
384.071	-0.01
384.277	0.05
384.484	-0.03
384.69	0.06
384.897	-0.04
385.103	0.01
385.31	-0.01
385.516	-0.01
385.723	-0.05
385.929	0.02
386.136	-0.01
386.342	0.02
386.549	0
386.755	0.08
386.961	-0.01
387.168	0.01
387.374	-0.02
387.58	0.04
387.787	-0
387.993	0.02
388.199	-0.01
388.406	-0.04
388.612	-0.01
388.818	-0
389.024	-0.06
389.231	0
389.437	0.04
389.643	0.01
389.849	-0
390.055	-0.01
390.261	-0.01
390.467	0.03
390.674	-0.01
390.88	-0.01
391.086	0.05
391.292	-0.04
391.498	0.01
391.704	0.03
391.91	0
392.116	-0.05
392.322	-0.11
392.528	0.02
392.734	-0.03
392.94	-0.02
393.146	-0.02
393.352	0.03
393.557	-0.02
393.763	-0.02
393.969	0
394.175	0.01
394.381	0
394.587	-0.04
394.792	-0.01
394.998	0.04
395.204	-0
395.41	-0.05
395.615	-0.02
395.821	0.04
396.027	0.01
396.233	-0.06
396.438	0.02
396.644	0.05
396.85	0.02
397.055	-0.03
397.261	-0.03
397.466	-0.02
397.672	-0.01
397.878	0.03
398.083	-0.02
398.289	-0.01
398.494	0.03
398.7	0.02
398.905	-0.06
399.111	0.05
399.316	-0.04
399.522	0.02
399.727	0.01
399.932	0.04
400.138	0
400.343	0.02
400.549	-0.01
400.754	-0.01
400.959	0
401.165	0.01
401.37	0.01
401.575	0.06
401.78	0.02
401.986	-0.04
402.191	-0.04
402.396	-0.06
402.601	0.02
402.807	0.02
403.012	0.02
403.217	0.03
403.422	-0.02
403.627	-0.05
403.832	-0.05
404.037	-0.02
404.243	-0.03
404.448	-0
404.653	-0.01
404.858	0.02
405.063	0.04
405.268	-0
405.473	-0.04
405.678	-0.03
405.883	0.09
406.088	0
406.293	-0.04
406.498	-0.07
406.703	0.03
406.907	0.02
407.112	-0.02
407.317	0.03
407.522	0.02
407.727	-0.07
407.932	-0.03
408.136	0.09
408.341	-0.03
408.546	-0.01
408.751	0
408.956	-0.01
409.16	-0.03
409.365	0.03
409.57	-0.01
409.774	-0
409.979	0.03
410.184	-0.01
410.388	-0.01
410.593	0.04
410.798	0.03
411.002	-0.01
411.207	-0.03
411.411	0.03
411.616	-0.03
411.82	0.01
412.025	0.05
412.229	-0.03
412.434	0.07
412.638	-0.01
412.843	-0.01
413.047	0.03
413.252	-0.05
413.456	-0.01
413.66	0.01
413.865	-0.01
414.069	0.04
414.273	-0
414.478	-0.03
414.682	-0.02
414.886	-0.02
415.091	-0.05
415.295	-0.11
415.499	0.02
415.703	0
415.908	0.02
416.112	-0.09
416.316	0
416.52	-0.03
416.724	-0.07
416.929	-0.04
417.133	0.08
417.337	0.02
417.541	0
417.745	-0.04
417.949	-0.02
418.153	0.04
418.357	-0.03
418.561	0.1
418.765	0.01
418.969	0.06
419.173	0.03
419.377	-0.03
419.581	0.07
419.785	-0.05
419.989	-0.07
420.193	-0.03
420.397	-0.01
420.601	0.01
420.804	0.05
421.008	0.02
421.212	0.01
421.416	0.1
421.62	-0.07
421.823	0
422.027	0.09
422.231	0.03
422.435	-0.05
422.638	0.02
422.842	0.01
423.046	-0.03
423.249	-0
423.453	0.06
423.657	-0.03
423.86	0
424.064	-0.02
424.268	0.04
424.471	0.03
424.675	0.04
424.878	0.1
425.082	0
425.285	0.05
425.489	-0.05
425.692	0.02
425.896	-0.02
426.099	-0
426.303	-0.05
426.506	-0.07
426.71	-0
426.913	-0
427.116	0.01
427.32	0.02
427.523	0.03
427.726	0.06
427.93	-0.04
428.133	-0.01
428.336	-0.05
428.54	-0
428.743	-0.01
428.946	0.04
429.149	-0.04
429.353	0.02
429.556	0.03
429.759	0.01
429.962	-0.03
430.165	-0.01
430.368	-0.05
430.571	0
430.775	0.05
430.978	-0.03
431.181	0.05
431.384	0.02
431.587	0
431.79	-0.02
431.993	-0.07
432.196	-0.05
432.399	0.03
432.602	0.07
432.805	0.03
433.008	-0.04
433.211	-0.04
433.414	-0.02
433.616	0.03
433.819	-0.01
434.022	-0.1
434.225	0.07
434.428	0.02
434.631	0.04
434.833	-0.02
435.036	-0.01
435.239	0.01
435.442	0.01
435.645	-0.05
435.847	0.01
436.05	0.04
436.253	0.01
436.455	-0.06
436.658	0.01
436.861	0.07
437.063	0.01
437.266	-0.04
437.468	-0.04
437.671	0.12
437.874	0.02
438.076	-0.04
438.279	-0.07
438.481	0.01
438.684	-0.07
438.886	-0
439.089	-0.1
439.291	-0.08
439.494	-0.01
439.696	-0.01
439.899	-0.06
440.101	0.02
440.303	-0.11
440.506	0.02
440.708	-0
440.91	0.01
441.113	-0.09
441.315	0.01
441.517	-0.06
441.72	0.03
441.922	-0.04
442.124	-0.01
442.326	-0.03
442.529	0.07
442.731	-0.04
442.933	0.06
443.135	0.01
443.337	-0.05
443.539	0
443.742	-0.03
443.944	0
444.146	-0.03
444.348	-0.04
444.55	-0.04
444.752	-0.05
444.954	-0.03
445.156	0.05
445.358	-0.04
445.56	0.02
445.762	-0.07
445.964	0.04
446.166	-0.01
446.368	-0.08
446.57	0.04
446.772	-0.02
446.974	-0.02
447.175	-0.05
447.377	-0.07
447.579	-0.04
447.781	-0.1
447.983	0.07
448.184	-0.06
448.386	-0
448.588	-0.09
448.79	0.01
448.991	-0.03
449.193	-0.06
449.395	-0
449.597	-0.01
449.798	-0.02
450	-0
450.202	-0.07
450.403	-0.02
450.605	0
450.806	-0
451.008	-0.12
451.21	0
451.411	0.03
451.613	0.01
451.814	0.02
452.016	0.01
452.217	-0
452.419	0.04
452.62	0.04
452.821	-0.01
453.023	0.03
453.224	0.01
453.426	-0.03
453.627	0.03
453.828	0
454.03	-0.02
454.231	0
454.432	-0.04
454.634	0.08
454.835	-0.01
455.036	-0.04
455.238	0.04
455.439	-0
455.64	-0.03
455.841	-0.06
456.042	0.08
456.244	0.04
456.445	-0.03
456.646	-0
456.847	-0.04
457.048	0.08
457.249	0.03
457.45	0.17
457.651	-0.1
457.852	0.06
458.054	0.01
458.255	-0.06
458.456	0.03
458.657	-0.02
458.858	-0.04
459.058	0
459.259	0.03
459.46	-0.02
459.661	-0.05
459.862	0.08
460.063	-0.01
460.264	0.01
460.465	-0.1
460.666	0.09
460.866	-0.02
461.067	-0.04
461.268	-0.03
461.469	0.01
461.67	0.01
461.87	-0.05
462.071	-0.02
462.272	-0.05
462.473	0.01
462.673	0.04
462.874	-0.07
463.075	-0.01
463.275	-0.07
463.476	0.03
463.676	-0.01
463.877	-0
464.078	-0.05
464.278	0.02
464.479	-0.03
464.679	0.05
464.88	-0
465.08	0.06
465.281	-0
465.481	-0.04
465.682	-0.01
465.882	0
466.083	0.01
466.283	0
466.483	-0.02
466.684	-0.08
466.884	0
467.085	-0
467.285	0.06
467.485	-0.02
467.686	-0.02
467.886	-0.07
468.086	-0.04
468.286	-0.03
468.487	0
468.687	-0.06
468.887	-0.01
469.087	-0
469.287	-0.04
469.488	-0.07
469.688	0.03
469.888	0.03
470.088	0.01
470.288	0.05
470.488	0.04
470.688	-0.05
470.888	-0.01
471.088	-0.01
471.288	0.06
471.488	0
471.688	0.01
471.888	-0.04
472.088	0.05
472.288	-0.01
472.488	-0.02
472.688	-0
472.888	0
473.088	-0.01
473.288	0.04
473.488	0.01
473.688	0.05
473.887	0.02
474.087	-0.01
474.287	0.04
474.487	-0.01
474.687	0.02
474.886	-0.03
475.086	-0.03
475.286	0.01
475.486	0.04
475.685	-0.03
475.885	-0.01
476.085	-0.02
476.284	0.02
476.484	0
476.684	-0
476.883	0.05
477.083	0.02
477.282	-0.01
477.482	0.03
477.681	0.04
477.881	0.04
478.08	0.01
478.28	-0.03
478.479	0.01
478.679	0.06
478.878	-0.04
479.078	-0.02
479.277	-0
479.477	-0.01
479.676	0.02
479.875	0.02
480.075	-0.01
480.274	0.01
480.473	0.01
480.673	-0.02
480.872	0.01
481.071	-0
481.271	0.03
481.47	-0.01
481.669	-0.02
481.868	-0.02
482.067	-0.03
482.267	-0.01
482.466	-0
482.665	-0.06
482.864	-0.05
483.063	-0.03
483.262	0.01
483.461	0.05
483.661	0.02
483.86	0.01
484.059	0.01
484.258	0
484.457	-0.02
484.656	0
484.855	0.02
485.054	-0.04
485.253	-0.03
485.452	-0.03
485.651	0.01
485.849	0.02
486.048	-0.01
486.247	-0.03
486.446	-0
486.645	-0.05
486.844	-0.04
487.043	0
487.241	0.01
487.44	-0.04
487.639	-0.03
487.838	0.02
488.037	0
488.235	0.02
488.434	0.01
488.633	-0.03
488.831	0.01
489.03	0.01
489.229	0.02
489.427	-0.01
489.626	0.01
489.825	0.04
490.023	-0.03
490.222	-0.04
490.42	0.03
490.619	0.02
490.817	-0.01
491.016	-0.04
491.214	0.02
491.413	-0.02
491.611	-0.02
491.81	0.02
492.008	0.01
492.207	0.03
492.405	0
492.604	-0.04
492.802	-0.01
493	0.02
493.199	-0.03
493.397	0.01
493.595	-0.01
493.794	-0.04
493.992	0.06
494.19	-0.01
494.388	0.03
494.587	-0.01
494.785	-0.01
494.983	-0.04
495.181	-0
495.379	-0.01
495.578	-0.01
495.776	0.03
495.974	0
496.172	-0
496.37	-0.02
496.568	-0.03
496.766	-0.01
496.964	0.03
497.162	-0.01
497.36	-0.02
497.558	0.02
497.756	0.01
497.954	-0
498.152	-0.03
498.35	0.01
498.548	-0.03
498.746	0
498.944	-0.03
499.142	-0
499.34	-0.05
499.538	-0.01
499.736	-0.02
499.933	0.03
500.131	0.03
500.329	0
500.527	0.03
500.725	0.02
500.922	0
501.12	-0
501.318	0.01
501.516	-0.02
501.713	0.01
501.911	-0.01
502.109	-0.04
502.306	0.01
502.504	-0.02
502.701	-0.01
502.899	-0.01
503.097	0.02
503.294	0.02
503.492	-0.01
503.689	0.02
503.887	0.03
504.084	0.06
504.282	0
504.479	-0.01
504.677	0
504.874	-0.03
505.072	0.01
505.269	-0.02
505.466	0.02
505.664	-0
505.861	-0.05
506.059	-0.04
506.256	0
506.453	-0.01
506.651	0.04
506.848	0.01
507.045	0
507.242	0.01
507.44	-0.02
507.637	0.01
507.834	-0
508.031	0.02
508.229	-0.01
508.426	0
508.623	0.02
508.82	0
509.017	-0.03
509.214	-0.02
509.411	0.01
509.608	-0.02
509.805	-0.02
510.003	-0.02
510.2	-0
510.397	0.03
510.594	0.01
510.791	-0.03
510.988	-0.01
511.184	0.02
511.381	-0.01
511.578	-0.02
511.775	0.02
511.972	-0.02
512.169	-0.01
512.366	-0
512.563	0.01
512.76	-0.01
512.956	0
513.153	-0.01
513.35	0
513.547	-0.01
513.744	-0.04
513.94	-0.01
514.137	0.01
514.334	0.03
514.53	-0.02
514.727	-0.02
514.924	0.04
515.12	-0.01
515.317	-0.04
515.514	-0.02
515.71	-0.05
515.907	-0.02
516.103	0.01
516.3	0.01
516.497	0.01
516.693	0.03
516.89	-0
517.086	-0.01
517.283	0.02
517.479	-0.01
517.676	-0.02
517.872	0
518.068	-0.02
518.265	-0.02
518.461	0
518.658	-0.02
518.854	0.02
519.05	-0.02
519.247	-0.04
519.443	0.02
519.639	0.01
519.836	0.01
520.032	-0.02
520.228	0
520.424	0.05
520.621	0.03
520.817	-0
521.013	0.01
521.209	0
521.405	0.02
521.601	0.01
521.798	-0
521.994	0.03
522.19	-0.03
522.386	-0.02
522.582	-0
522.778	-0.01
522.974	-0
523.17	0.01
523.366	0.01
523.562	0.02
523.758	0
523.954	-0.02
524.15	-0
524.346	0
524.542	-0.02
524.738	-0.02
524.934	-0.01
525.129	0.01
525.325	0.01
525.521	-0
525.717	-0
525.913	-0
526.109	-0
526.304	-0.01
526.5	0.02
526.696	0.02
526.892	0.01
527.087	-0.01
527.283	-0.02
527.479	0.03
527.674	-0.01
527.87	0
528.066	-0.01
528.261	0.01
528.457	0.02
528.653	0
528.848	-0.01
529.044	0.01
529.239	0
529.435	0.02
529.63	0.02
529.826	0.03
530.021	-0.01
530.217	0.01
530.412	-0.01
530.608	-0.02
530.803	-0
530.999	-0.02
531.194	-0.03
531.389	0.01
531.585	-0.05
531.78	-0
531.975	0.01
532.171	0.01
532.366	-0
532.561	0.01
532.757	-0.03
532.952	-0.02
533.147	0.04
533.342	-0
533.538	-0
533.733	0.03
533.928	-0
534.123	-0
534.318	-0.01
534.513	-0.01
534.709	-0.02
534.904	-0.03
535.099	-0.01
535.294	-0.01
535.489	0.01
535.684	-0
535.879	-0.04
536.074	0
536.269	-0.01
536.464	0.01
536.659	-0
536.854	-0.02
537.049	0.01
537.244	-0
537.439	0
537.634	0.05
537.828	-0
538.023	-0.01
538.218	-0.03
538.413	0.01
538.608	-0.02
538.803	0.01
538.997	-0.03
539.192	0.03
539.387	0.02
539.582	0.02
539.776	-0.01
539.971	-0
540.166	0
540.36	-0.02
540.555	-0.02
540.75	-0.01
540.944	-0.01
541.139	-0.02
541.334	-0.02
541.528	0.02
541.723	0.03
541.917	-0.01
542.112	-0.03
542.306	-0
542.501	-0.02
542.695	-0
542.89	-0.01
543.084	0.02
543.279	-0.01
543.473	-0.01
543.668	0.01
543.862	-0
544.056	0.01
544.251	0.01
544.445	0
544.64	0
544.834	-0.04
545.028	0.01
545.222	0.02
545.417	0.03
545.611	0.02
545.805	-0.01
546	-0
546.194	-0.02
546.388	-0.02
546.582	0.02
546.776	0
546.97	0.02
547.165	0
547.359	0.01
547.553	-0.03
547.747	-0.01
547.941	0.01
548.135	-0
548.329	0.04
548.523	0.02
548.717	0
548.911	-0.02
549.105	0
549.299	0.01
549.493	0.02
549.687	0.02
549.881	0.02
550.075	0.01
550.269	-0.02
550.463	0.02
550.657	-0.02
550.85	0.01
551.044	-0.01
551.238	0.01
551.432	-0.01
551.626	-0.02
551.82	0
552.013	-0.01
552.207	0.02
552.401	-0
552.594	0
552.788	0.02
552.982	0.02
553.176	-0.02
553.369	0.03
553.563	0.01
553.756	-0.05
553.95	-0.03
554.144	-0.02
554.337	0.03
554.531	-0
554.724	0.01
554.918	-0.01
555.111	0.04
555.305	0.01
555.498	0.05
555.692	0.03
555.885	0.01
556.079	0.01
556.272	-0.01
556.466	0.02
556.659	-0
556.852	0.01
557.046	0
557.239	0.05
557.432	-0.02
557.626	-0
557.819	0.01
558.012	0.03
558.206	0.02
558.399	0
558.592	0.01
558.785	-0.01
558.979	0.02
559.172	0.02
559.365	0.03
559.558	0.02
559.751	-0
559.944	0.01
560.138	0.01
560.331	0
560.524	-0.01
560.717	0.01
560.91	-0.01
561.103	0.01
561.296	0
561.489	0.02
561.682	0.02
561.875	0.04
562.068	0
562.261	0.01
562.454	0.05
562.647	0.02
562.84	0.03
563.032	-0.01
563.225	0.02
563.418	-0
563.611	0
563.804	0
563.997	-0
564.19	-0.02
564.382	-0.05
564.575	0.01
564.768	0.01
564.961	0
565.153	-0.01
565.346	0.03
565.539	0.02
565.731	0.03
565.924	0.03
566.117	-0
566.309	0.03
566.502	-0
566.695	0.03
566.887	0.02
567.08	-0.01
567.272	0.01
567.465	0.02
567.657	0.03
567.85	0.03
568.042	0.04
568.235	0.05
568.427	-0.01
568.62	-0
568.812	0.04
569.005	0.03
569.197	-0.03
569.389	0.02
569.582	0.04
569.774	0.03
569.966	0.01
570.159	-0.03
570.351	0.04
570.543	-0.02
570.736	0
570.928	-0
571.12	0.01
571.312	-0.01
571.505	-0.01
571.697	0.05
571.889	-0.01
572.081	0.01
572.273	-0.01
572.465	0.06
572.658	0.02
572.85	0.04
573.042	0.04
573.234	0.01
573.426	0.05
573.618	-0.01
573.81	0.03
574.002	0.04
574.194	0.07
574.386	-0.01
574.578	-0.02
574.77	0.02
574.962	0.01
575.154	0
575.346	0.02
575.538	0.05
575.729	0.03
575.921	0.02
576.113	0.03
576.305	0.07
576.497	0.03
576.689	0.03
576.88	0.03
577.072	0.04
577.264	0.03
577.456	0.04
577.647	-0.02
577.839	0.04
578.031	0.07
578.223	-0
578.414	0
578.606	0.04
578.798	0.03
578.989	0.04
579.181	0.04
579.372	0.06
579.564	0.06
579.755	0.07
579.947	0.07
580.139	0.06
580.33	0.01
580.522	0.07
580.713	0.01
580.905	0.06
581.096	0.06
581.287	0.07
581.479	0.06
581.67	0.11
581.862	0.04
582.053	0.06
582.244	0.03
582.436	0.07
582.627	0.08
582.818	0.05
583.01	0.07
583.201	0.09
583.392	0.12
583.583	0.11
583.775	0.08
583.966	0.07
584.157	0.1
584.348	0.1
584.54	0.05
584.731	0.12
584.922	0.11
585.113	0.09
585.304	0.13
585.495	0.13
585.686	0.12
585.877	0.12
586.068	0.16
586.259	0.13
586.45	0.12
586.641	0.14
586.832	0.07
587.023	0.14
587.214	0.14
587.405	0.15
587.596	0.13
587.787	0.19
587.978	0.18
588.169	0.13
588.36	0.13
588.551	0.16
588.742	0.14
588.932	0.18
589.123	0.19
589.314	0.22
589.505	0.19
589.696	0.2
589.886	0.17
590.077	0.15
590.268	0.19
590.458	0.16
590.649	0.17
590.84	0.23
591.03	0.21
591.221	0.19
591.412	0.18
591.602	0.25
591.793	0.27
591.984	0.21
592.174	0.25
592.365	0.32
592.555	0.24
592.746	0.25
592.936	0.27
593.127	0.28
593.317	0.31
593.508	0.27
593.698	0.28
593.889	0.31
594.079	0.29
594.269	0.31
594.46	0.29
594.65	0.34
594.84	0.32
595.031	0.3
595.221	0.35
595.411	0.32
595.602	0.39
595.792	0.37
595.982	0.34
596.172	0.46
596.363	0.36
596.553	0.39
596.743	0.4
596.933	0.41
597.123	0.44
597.314	0.4
597.504	0.42
597.694	0.46
597.884	0.46
598.074	0.44
598.264	0.46
598.454	0.51
598.644	0.47
598.834	0.52
599.024	0.42
599.214	0.5
599.404	0.56
599.594	0.54
599.784	0.52
599.974	0.57
600.164	0.58
600.354	0.53
600.544	0.57
600.734	0.62
600.924	0.66
601.114	0.62
601.303	0.65
601.493	0.66
601.683	0.66
601.873	0.69
602.063	0.66
602.252	0.72
602.442	0.65
602.632	0.7
602.821	0.7
603.011	0.78
603.201	0.75
603.39	0.75
603.58	0.71
603.77	0.82
603.959	0.84
604.149	0.84
604.339	0.82
604.528	0.94
604.718	0.9
604.907	0.87
605.097	0.91
605.286	0.9
605.476	0.95
605.665	1.03
605.855	0.96
606.044	1.01
606.234	1
606.423	1.01
606.612	1.03
606.802	1.05
606.991	1.12
607.181	1.14
607.37	1.11
607.559	1.11
607.749	1.16
607.938	1.19
608.127	1.19
608.316	1.23
608.506	1.22
608.695	1.29
608.884	1.25
609.073	1.33
609.263	1.42
609.452	1.4
609.641	1.38
609.83	1.38
610.019	1.46
610.208	1.46
610.397	1.46
610.586	1.55
610.775	1.54
610.965	1.53
611.154	1.55
611.343	1.64
611.532	1.65
611.721	1.71
611.91	1.72
612.099	1.74
612.287	1.76
612.476	1.77
612.665	1.91
612.854	1.86
613.043	1.96
613.232	1.99
613.421	1.97
613.61	2.06
613.798	2.09
613.987	2.17
614.176	2.17
614.365	2.22
614.554	2.23
614.742	2.39
614.931	2.3
615.12	2.44
615.309	2.46
615.497	2.5
615.686	2.48
615.875	2.58
616.063	2.6
616.252	2.64
616.44	2.7
616.629	2.75
616.818	2.79
617.006	2.86
617.195	2.89
617.383	2.91
617.572	3.02
617.76	3.1
617.949	3.08
618.137	3.24
618.326	3.29
618.514	3.18
618.703	3.23
618.891	3.39
619.079	3.38
619.268	3.53
619.456	3.45
619.644	3.66
619.833	3.63
620.021	3.69
620.209	3.62
620.398	3.8
620.586	3.78
620.774	3.95
620.962	4.01
621.151	4.1
621.339	4.04
621.527	4.11
621.715	4.2
621.903	4.23
622.092	4.18
622.28	4.43
622.468	4.22
622.656	4.37
622.844	4.41
623.032	4.53
623.22	4.48
623.408	4.64
623.596	4.61
623.784	4.77
623.972	4.63
624.16	4.72
624.348	4.78
624.536	4.8
624.724	4.72
624.912	4.82
625.1	4.9
625.288	4.88
625.476	4.79
625.664	4.98
625.851	4.87
626.039	4.88
626.227	4.84
626.415	4.91
626.603	4.78
626.79	4.86
626.978	4.84
627.166	4.88
627.354	4.71
627.541	4.78
627.729	4.58
627.917	4.82
628.104	4.71
628.292	4.56
628.48	4.61
628.667	4.53
628.855	4.56
629.042	4.49
629.23	4.34
629.418	4.24
629.605	4.2
629.793	4.12
629.98	4.06
630.168	3.92
630.355	3.88
630.543	3.77
630.73	3.62
630.917	3.56
631.105	3.59
631.292	3.49
631.48	3.37
631.667	3.35
631.854	3.19
632.042	3.09
632.229	2.96
632.416	2.92
632.604	2.83
632.791	2.65
632.978	2.7
633.165	2.56
633.353	2.53
633.54	2.45
633.727	2.26
633.914	2.25
634.101	2.11
634.289	2.19
634.476	2.03
634.663	1.95
634.85	1.87
635.037	1.85
635.224	1.69
635.411	1.72
635.598	1.65
635.785	1.56
635.972	1.48
636.159	1.51
636.346	1.43
636.533	1.38
636.72	1.34
636.907	1.28
637.094	1.22
637.281	1.15
637.468	1.14
637.655	1.06
637.842	1.04
638.029	1
638.215	0.94
638.402	0.98
638.589	0.91
638.776	0.9
638.963	0.81
639.149	0.86
639.336	0.9
639.523	0.72
639.709	0.77
639.896	0.69
640.083	0.73
640.27	0.67
640.456	0.62
640.643	0.64
640.829	0.54
641.016	0.57
641.203	0.51
641.389	0.56
641.576	0.53
641.762	0.51
641.949	0.44
642.135	0.5
642.322	0.48
642.508	0.39
642.695	0.43
642.881	0.38
643.068	0.38
643.254	0.37
643.441	0.44
643.627	0.35
643.813	0.31
644	0.39
644.186	0.32
644.372	0.34
644.559	0.37
644.745	0.29
644.931	0.28
645.118	0.26
645.304	0.28
645.49	0.22
645.676	0.24
645.862	0.27
646.049	0.26
646.235	0.23
646.421	0.32
646.607	0.29
646.793	0.21
646.979	0.16
647.165	0.22
647.352	0.21
647.538	0.23
647.724	0.19
647.91	0.19
648.096	0.18
648.282	0.23
648.468	0.12
648.654	0.16
648.84	0.15
649.026	0.12
649.212	0.14
649.397	0.09
649.583	0.09
649.769	0.14
649.955	0.1
650.141	0.13
650.327	0.14
650.513	0.09
650.698	0.14
650.884	0.03
651.07	0.08
651.256	0.11
651.442	0.08
651.627	0.09
651.813	0.07
651.999	0.11
652.184	0.11
652.37	0.09
652.556	0.1
652.741	0.13
652.927	-0
653.113	0.03
653.298	0.09
653.484	0.05
653.669	0.02
653.855	0.08
654.04	0.1
654.226	0.07
654.412	0
654.597	0.03
654.782	0.07
654.968	0.1
655.153	0.08
655.339	0.03
655.524	0.03
655.71	0.1
655.895	0.04
656.08	0.05
656.266	0.1
656.451	0.05
656.636	0.02
656.822	0.04
657.007	0.03
657.192	0.01
657.378	0
657.563	0.06
657.748	0.06
657.933	0.03
658.118	0
658.304	0
658.489	0.09
658.674	0.06
658.859	-0.02
659.044	0.05
659.229	0.07
659.414	0.02
659.599	0.04
659.785	0
659.97	0.01
660.155	0.08
660.34	0.07
660.525	0.02
660.71	0.01
660.895	0.02
661.08	-0.01
661.264	0
661.449	0.04
661.634	0.09
661.819	0.04
662.004	0.04
662.189	-0.05
662.374	0.01
662.559	0.01
662.743	-0.05
662.928	0.02
663.113	0.01
663.298	-0.03
663.483	-0.01
663.667	0
663.852	-0.06
664.037	0.09
664.221	-0.02
664.406	0.05
664.591	0.04
664.775	0.03
664.96	-0.03
665.145	0.03
665.329	0.04
665.514	-0.01
665.698	0.01
665.883	-0.04
666.068	0.05
666.252	-0.01
666.437	-0.02
666.621	0.01
666.806	0.03
666.99	0.06
667.174	-0.02
667.359	0.06
667.543	-0
667.728	-0
667.912	-0.02
668.096	0.02
668.281	0.02
668.465	0.01
668.649	-0.02
668.834	0.02
669.018	0.01
669.202	-0.03
669.387	-0.03
669.571	0.03
669.755	-0.03
669.939	0.01
670.124	0.02
670.308	0.03
670.492	0.03
670.676	-0.02
670.86	0
671.044	-0.03
671.228	0.03
671.413	-0.01
671.597	0.01
671.781	-0.03
671.965	0.03
672.149	0.01
672.333	-0.05
672.517	-0.02
672.701	0.03
672.885	-0.01
673.069	-0.07
673.253	0.01
673.437	-0
673.621	-0.03
673.804	-0.01
673.988	-0.01
674.172	-0.01
674.356	-0.05
674.54	-0.01
674.724	0.08
674.908	0.04
675.091	0.05
675.275	0
675.459	0.04
675.643	0.08
675.826	0.08
676.01	0.02
676.194	-0.01
676.377	0.07
676.561	0.02
676.745	0.02
676.928	0.02
677.112	0.03
677.296	-0.04
677.479	-0.02
677.663	-0.04
677.846	0.06
678.03	0.03
678.213	-0.05
678.397	-0.01
678.58	0.02
678.764	0.01
678.947	0.01
679.131	0.01
679.314	0.04
679.498	0.01
679.681	-0.01
679.865	0.04
680.048	0.01
680.231	-0.04
680.415	-0.01
680.598	-0.05
680.781	-0.01
680.965	-0.03
681.148	0.01
681.331	-0.02
681.514	0.01
681.698	-0.05
681.881	-0
682.064	0.03
682.247	0.02
682.43	-0.08
682.614	0.05
682.797	0.07
682.98	0.03
683.163	-0.06
683.346	0.07
683.529	-0.01
683.712	-0.03
683.895	0.02
684.078	-0.03
684.261	-0.01
684.444	0.03
684.627	0.02
684.81	-0.02
684.993	-0.06
685.176	0.03
685.359	-0.05
685.542	-0.02
685.725	0.06
685.908	0.06
686.091	-0.03
686.274	0.03
686.457	0.01
686.639	-0.02
686.822	0.05
687.005	-0.01
687.188	0.05
687.371	0.05
687.553	0.04
687.736	0.04
687.919	0.11
688.102	0.07
688.284	-0.06
688.467	-0.04
688.65	-0.03
688.832	-0.03
689.015	-0.05
689.197	-0.03
689.38	0.11
689.563	0.07
689.745	-0.03
689.928	-0.03
690.11	0
690.293	-0.03
690.475	-0.02
690.658	0.04
690.84	-0.02
691.023	0.02
691.205	-0.01
691.388	-0.03
691.57	-0.04
691.752	-0.01
691.935	-0.05
692.117	-0.06
692.3	0.02
692.482	0.01
692.664	-0.02
692.847	-0.01
693.029	0.06
693.211	0.03
693.393	0.01
693.576	-0.06
693.758	0.02
693.94	0.01
694.122	0
694.304	0.05
694.487	0.01
694.669	0.04
694.851	-0.05
695.033	0.02
695.215	-0.08
695.397	-0.06
695.579	0.04
695.761	-0.02
695.943	-0.05
696.125	0.06
696.308	0.04
696.49	-0.08
696.671	0.08
696.853	0
697.035	0.07
697.217	0.01
697.399	0.04
697.581	-0.02
697.763	-0.01
697.945	-0.06
698.127	-0.06
698.309	0.07
698.491	0.01
698.672	0.03
698.854	0.01
699.036	0.09
699.218	-0.04
699.399	0.08
699.581	0.02
699.763	-0.01
699.945	-0.03
700.126	-0.07
700.308	0.06
700.49	0.03
700.671	-0.06
700.853	-0.06
701.035	-0
701.216	-0.01
701.398	-0.07
701.579	-0.01
701.761	0.04
701.943	-0.06
702.124	-0.03
702.306	-0.03
702.487	0.13
702.669	-0.03
702.85	-0.01
703.031	-0.07
703.213	0.06
703.394	0.09
703.576	-0
703.757	0.06
703.938	0.05
704.12	0.15
704.301	-0.02
704.483	-0.03
704.664	-0.03
704.845	0.11
705.026	0.04
705.208	-0.04
705.389	0.01
705.57	0
705.751	-0.02
705.933	-0.01
706.114	0.06
706.295	-0.03
706.476	-0.05
706.657	0.11
706.838	0.01
707.02	0.02
707.201	-0.08
707.382	-0.05
707.563	-0.01
707.744	-0.05
707.925	-0.08
708.106	-0.03
708.287	0.04
708.468	0.12
708.649	0.05
708.83	0.05
709.011	-0.02
709.192	0.06
709.373	-0.09
709.554	-0.02
709.734	0.03
709.915	0.07
710.096	-0.01
710.277	-0.06
710.458	0.05
710.639	0.04
710.819	-0.11
711	-0.02
711.181	0.06
711.362	0.07
711.542	-0.02
711.723	0.01
711.904	0.09
712.085	0.04
712.265	0.04
712.446	-0.1
712.627	-0.01
712.807	-0
712.988	-0.04
713.168	-0.08
713.349	0.03
713.53	-0.12
713.71	-0.07
713.891	-0.09
714.071	0
714.252	-0.08
714.432	-0.03
714.613	-0.11
714.793	0
714.974	0.04
715.154	0.01
715.334	0.04
715.515	0.01
715.695	-0.08
715.876	0.02
716.056	-0.02
716.236	-0.05
716.417	0.04
716.597	-0.05
716.777	0.12
716.957	-0.01
717.138	-0.01
717.318	0.04
717.498	-0.06
717.678	-0.01
717.859	-0.03
718.039	-0.13
718.219	0
718.399	0.1
718.579	-0.04
718.759	-0.1
718.939	-0
719.12	0
719.3	-0.04
719.48	-0.16
719.66	-0.1
719.84	0.05
720.02	0.01
720.2	-0.01
720.38	0.01
720.56	0.07
720.74	-0.09
720.92	0.01
721.1	0.14
721.279	0.01
721.459	0.03
721.639	-0.09
721.819	-0.06
721.999	-0.04
722.179	0.01
722.359	-0.13
722.538	-0.05
722.718	-0.04
722.898	-0.01
723.078	-0.06
723.257	-0.03
723.437	-0.08
723.617	-0.03
723.797	-0.07
723.976	-0.09
724.156	0.04
724.336	0.04
724.515	0.11
724.695	-0.1
724.874	-0.05
725.054	0.05
725.234	-0.04
725.413	-0.02
725.593	-0
725.772	-0.01
725.952	-0.06
726.131	0.07
726.311	0.04
726.49	0.02
726.67	-0.04
726.849	-0.02
727.028	0.02
727.208	0.05
727.387	-0.01
727.567	-0.14
727.746	-0.1
727.925	-0.14
728.105	-0.12
728.284	-0.05
728.463	-0.06
728.643	0.02
728.822	-0.03
729.001	-0.02
729.18	0.02
729.359	0.03
729.539	-0.11
729.718	-0.05
729.897	0.01
730.076	0.02
730.255	-0.03
730.434	-0.01
730.614	0.13
730.793	0.02
730.972	-0.01
731.151	-0.12
731.33	0.04
731.509	-0.01
731.688	0.01
731.867	0.04
732.046	-0.14
732.225	0.22
732.404	-0.07
732.583	-0.06
732.762	0
732.941	0.02
733.12	0.03
733.298	-0.08
733.477	0.08
733.656	-0.05
733.835	-0.1
734.014	0.06
734.193	-0.04
734.371	0.05
734.55	-0.04
734.729	-0.13
734.908	-0.04
735.086	0.1
735.265	-0.05
735.444	-0.12
735.623	-0.11
735.801	-0.09
735.98	-0.03
736.159	-0.03
736.337	0.03
736.516	0.07
736.694	-0.02
736.873	-0.06
737.052	0.19
737.23	0.05
737.409	-0.08
737.587	0.1
737.766	-0.15
737.944	-0.11
738.123	0.03
738.301	0.01
738.479	-0.09
738.658	0.05
738.836	-0.22
739.015	-0.01
739.193	0.13
739.371	-0.11
739.55	-0.12
739.728	-0.09
739.906	-0.06
740.085	0.03
740.263	0.1
740.441	-0.2
740.62	0.17
740.798	0.05
740.976	-0.15
741.154	-0.14
741.332	0.29
741.511	-0.09
741.689	-0.08
741.867	0.14
742.045	-0.03
742.223	0.01
742.401	-0.1
742.579	-0.16
742.757	-0.01
742.935	-0.05
743.114	-0.07
743.292	-0.01
743.47	-0.06
743.648	0.02
743.826	-0.06
744.004	0.03
744.181	-0.01
744.359	-0.04
744.537	-0.02
744.715	-0.06
744.893	0
745.071	-0.03
745.249	-0.03
745.427	-0.07
745.605	0.05
745.782	0.01
745.96	0.07
746.138	0
746.316	-0
746.493	-0.06
746.671	-0.06
746.849	-0.07
747.027	0.15
747.204	-0.09
747.382	-0.01
747.56	-0.14
747.737	-0.01
747.915	-0.19
748.093	0
748.27	-0.07
748.448	-0.15
748.625	-0.12
748.803	-0.2
748.98	-0.09
749.158	-0.05
749.335	0.11
749.513	-0.07
749.69	-0.11
749.868	-0.03
750.045	0.07
750.223	0.01
750.4	-0.23
750.578	0.11
750.755	-0.02
750.932	-0.16
751.11	0.08
751.287	-0.16
751.464	0.08
751.642	-0.17
751.819	0
751.996	-0.09
752.173	0.04
752.351	-0.12
752.528	-0.02
752.705	-0.04
752.882	-0.04
753.06	0.05
753.237	0.04
753.414	0.14
753.591	0.14
753.768	0
753.945	0.03
754.122	-0.16
754.299	0.05
754.476	-0.11
754.654	-0.04
754.831	-0.05
755.008	0.05
755.185	0.04
755.362	-0.06
755.539	0.14
755.716	-0.14
755.892	-0.06
756.069	-0.03
756.246	0.13
756.423	-0.03
756.6	0.17
756.777	-0.04
756.954	0.09
757.131	-0.02
757.307	-0.2
757.484	-0.11
757.661	-0.04
757.838	0.01
758.015	-0.16
758.191	0.08
758.368	-0.09
758.545	0.05
758.721	0
758.898	-0.03
759.075	-0.02
759.251	0.06
759.428	0.1
759.605	-0.14
759.781	0.03
759.958	-0.05
760.134	0.05
760.311	-0.07
760.488	0.07
760.664	0.09
760.841	-0.01
761.017	-0.08
761.194	-0.06
761.37	0.02
761.547	-0.04
761.723	-0.03
761.899	0.06
762.076	-0.18
762.252	-0.21
762.429	-0.13
762.605	-0.1
762.781	-0.15
762.958	0.14
763.134	-0.06
763.31	0.02
763.486	0.07
763.663	-0.24
763.839	0.08
764.015	-0.25
764.191	-0.22
764.368	0
764.544	-0.06
764.72	-0.03
764.896	0
765.072	-0.09
765.248	-0.19
765.425	-0.11
765.601	0.07
765.777	-0.13
765.953	-0.18
766.129	-0.13
766.305	-0.1
766.481	0.09
766.657	-0.04
766.833	0.07
767.009	-0.11
767.185	0.01
767.361	-0.08
767.537	-0.19
767.713	0.03
767.889	-0.08
768.065	-0.07
768.24	-0.17
768.416	-0
768.592	-0.07
768.768	0.03
768.944	0
769.12	-0.09
769.295	-0.01
769.471	-0.06
769.647	0
769.823	0.16
769.998	-0.14
770.174	-0.18
770.35	0.17
770.525	0.1
770.701	-0.02
770.877	-0.07
771.052	-0.01
771.228	-0.1
771.403	-0.08
771.579	0.06
771.755	0.14
771.93	0.03
772.106	-0.1
772.281	-0.2
772.457	0
772.632	-0.02
772.808	-0.15
772.983	-0.05
773.159	-0.12
773.334	0.17
773.509	0.15
773.685	-0.08
773.86	0.39
774.036	0.12
774.211	-0.13
774.386	-0.06
774.562	-0
774.737	0.09
774.912	-0.09
775.087	0.04
775.263	0.12
775.438	-0.16
775.613	-0.06
775.788	-0.13
775.964	0.05
776.139	0.26
776.314	-0.09
776.489	0.06
776.664	0.03
776.839	-0.14
777.014	0.12
777.19	0.1
777.365	-0.03
777.54	0.21
777.715	-0.05
777.89	-0.07
778.065	-0.09
778.24	0.13
778.415	0.09
778.59	-0.19
778.765	0.01
778.94	-0.04
779.115	0.01
779.289	-0.04
779.464	-0.16
779.639	-0.06
779.814	-0.35
779.989	-0.1
780.164	0.18
780.339	0.05
780.513	-0.19
780.688	-0.15
780.863	0.02
781.038	0.1
781.212	-0.13
781.387	0.03
781.562	0.2
781.737	-0.07
781.911	0.05
782.086	-0.22
782.261	-0.17
782.435	0.02
782.61	0.1
782.784	-0.09
782.959	0.02
783.134	-0.15
783.308	-0.27
783.483	-0.14
783.657	0.37
783.832	0.06
784.006	-0.46
784.181	0.02
784.355	0.04
784.53	-0.29
784.704	-0.22
784.878	0.24
785.053	0.11
785.227	0.1
785.402	0.34
785.576	-0.26
785.75	-0.19
785.925	-0.03
786.099	0.02
786.273	0
786.448	0.24
786.622	0.07
786.796	-0.1
786.97	-0.22
787.145	0.35
787.319	-0.56
787.493	-0.17
787.667	-0.41
787.841	-0.07
788.015	0.21
788.19	0.08
788.364	-0.09
788.538	0.06
788.712	-0.1
788.886	-0.07
789.06	0.09
789.234	0.22
789.408	-0.4
789.582	-0.37
789.756	0.01
789.93	-0.19
790.104	-0.07
790.278	-0
790.452	-0.11
790.626	0.1
790.8	0.05
790.973	0.05
791.147	0.02
791.321	0.19
791.495	0.08
791.669	-0.09
791.843	-0.04
792.016	-0.2
792.19	0.31
792.364	-0.41
792.538	0.38
792.711	0.24
792.885	-0.03
793.059	-0.22
793.233	-0.5
793.406	0.07
793.58	-0.06
793.754	0.21
793.927	-0.12
794.101	0.18
794.274	-0.24
794.448	0.2
794.622	-0.26
794.795	0.41
794.969	-0.2
795.142	0.28
795.316	-0.22
795.489	-0.13
795.663	0.33
795.836	0.12
796.009	-0.25
796.183	0.29
796.356	-0.14
796.53	-0.15
796.703	0.16
796.876	0.36
797.05	0.08
797.223	-0.04
797.396	-0.03
797.57	0.06
797.743	0.11
797.916	0.06
798.09	-0.13
798.263	0.17
798.436	-0.02
798.609	-0.12
798.782	-0.16
798.956	-0.06
799.129	0.08
799.302	-0.08
799.475	-0.15
799.648	0
799.821	-0.18
799.994	-0.13
800.167	-0.42
800.34	-0.21
800.514	-0.15
800.687	-0.07
800.86	-0.32
801.033	0.13
801.206	0.27
801.379	-0.43
801.551	0.18
801.724	0.22
801.897	0.4
802.07	-0.22
802.243	-0.49
802.416	-0.03
802.589	-0.18
802.762	0.2
802.935	0.05
803.107	0.37
803.28	-0.09
803.453	0.15
803.626	-0.09
803.798	0
803.971	0.11
804.144	0.08
804.317	0.24
804.489	0.32
804.662	-0.3
804.835	-0.03
805.007	-0.25
805.18	0.2
805.353	-0.17
805.525	-0.28
805.698	-0.21
805.87	0.3
806.043	0.14
806.215	-0.43
806.388	-0.13
806.56	-0.02
806.733	0.14
806.905	0.15
807.078	-0.46
807.25	-0.45
807.423	0.02
807.595	-0.01
807.768	-0.36
807.94	0.1
808.112	0.04
808.285	0.13
808.457	-0
808.629	-0.02
808.802	0.17
808.974	0.39
809.146	-0.21
809.318	-0.52
809.491	-0.07
809.663	0.17
809.835	-0.01
810.007	0.12
810.18	0.14
810.352	-0.44
810.524	0.08
810.696	0.35
810.868	0.05
811.04	-0.39
811.212	0.01
811.384	0.19
811.556	0.22
811.728	0.1
811.901	0.67
812.073	-0.3
812.245	-0.54
812.417	0.05
812.589	-0.5
812.76	-0.15
812.932	0.16
813.104	0.15
813.276	0.02
813.448	0.32
813.62	-0.09
813.792	0.12
813.964	0.08
814.136	0.07
814.307	-0.15
814.479	-0.18
814.651	-0.13
814.823	0.61
814.995	-0.4
815.166	0.21
815.338	-0.15
815.51	-0.66
815.681	0.63
815.853	0.02
816.025	0.06
816.196	0.37
816.368	0.22
816.54	-0.58
816.711	-0.65
816.883	0.16
817.054	0.29
817.226	-0.92
817.398	0.04
817.569	-0.39
817.741	0.23
817.912	-0.52
818.084	0.2
818.255	0.02
818.426	-0.11
818.598	-0.13
818.769	-0.32
818.941	0
819.112	0.11
819.283	-0.03
819.455	-0.39
819.626	-0.07
819.798	0.19
819.969	-0.57
820.14	-0.1
820.311	-0.28
820.483	0.04
820.654	0.35
820.825	0.48
820.996	-0.14
821.168	-0.58
821.339	-0.26
821.51	-0.51
821.681	-0.38
821.852	-0.01
822.023	-0.2
822.195	-0.06
822.366	0.74
822.537	-0.13
822.708	-0.13
822.879	-0.24
823.05	0.31
823.221	-0.43
823.392	0.22
823.563	-0.17
823.734	0.16
823.905	-0.06
824.076	-0.1
824.247	-0.52
824.418	-0.75
824.589	0.32
824.759	-0.21
824.93	0.17
825.101	-0.3
825.272	0.35
825.443	0.6
825.614	0.64
825.784	-1
825.955	1.37
826.126	0.53
826.297	-0.09
826.467	0.81
826.638	0.69
826.809	-1.04
826.98	0.35
827.15	0.08
827.321	-0.04
827.492	0.54
827.662	0.02
827.833	0.27
828.003	0.33
828.174	-1
828.345	-0.94
828.515	0.43
828.686	0.29
828.856	0.25
829.027	0.05
829.197	-0.36
829.368	0.55
829.538	-0.53
829.709	-0.44
829.879	0.16
830.049	0.04
830.22	-0.37
830.39	-0.03
830.56	-0.09
830.731	-0.38
830.901	-0.31
831.072	-0.17
831.242	0
831.412	-0
831.582	-0.04
831.753	-0.85
831.923	0.29
832.093	-0.26
832.263	0.1
832.434	-0.46
832.604	-0.6
832.774	0.01
832.944	-0.11
833.114	-0.4
833.284	0.36
833.454	-0.51
833.624	-0.1
833.795	-0.45
833.965	0.69
834.135	0.75
834.305	-1.38
834.475	-0.83
834.645	-0.36
834.815	-0.64
834.985	-0.77
835.155	-0.17
835.325	0.27
835.494	0.02
835.664	-0.62
835.834	-1.15
836.004	-0.04
836.174	0.13
836.344	0.12
836.514	-0.74
836.684	-0.46
836.853	-0.18
837.023	-0.01
837.193	0.27
837.363	0.61
837.532	0.66
837.702	-0.23
837.872	-0.26
838.041	0.98
838.211	1.25
838.381	-0.72
838.55	0.34
838.72	0.93
838.89	1.04
839.059	-0.15
839.229	-0.63
839.398	0.75
839.568	0.08
839.738	0.1
839.907	0.9
840.077	-0.07
840.246	-0.75
840.416	-0.39
840.585	-1.18
840.755	1.39
840.924	0.34
841.093	-1.12
841.263	-0.22
841.432	0.36
841.602	-0.72
841.771	-0.35
841.94	-0.51
842.11	0.65
842.279	1.44
842.448	-0.27
842.617	-0.23
842.787	0.56
842.956	-1.11
843.125	-0.12
843.294	0.09
843.464	0.63
843.633	0.04
843.802	-1.6
843.971	-0.59
844.14	0.21
844.309	0.35
844.479	-0.65
844.648	-0.25
844.817	-0.33
844.986	-0.03
845.155	-0.94
845.324	-0.51
845.493	-0.36
845.662	-1.18
845.831	0.3
846	0.62
846.169	-0.02
846.338	0.59
846.507	0.25
846.676	0.11
846.844	-0.04
847.013	0.57
847.182	0.07
847.351	-0.34
847.52	-0.71
847.689	0.05
847.858	-0.09
848.026	-0.37
848.195	-0.66
848.364	0.41
848.533	-0.25
848.701	-1.28
848.87	0.2
849.039	0.18
849.207	-0.14
849.376	0.48
849.545	0.24
849.713	0.05
849.882	0.15
850.051	0.51
850.219	-0.53
850.388	-0.01
850.556	-0.9
850.725	-0.51
850.893	0.85
851.062	-0.49
851.23	0.57
851.399	-1.51
851.567	-1.34
851.736	-0.02
851.904	-0.34
852.073	-0.4
852.241	0.18
852.41	0.71
852.578	0.34
852.746	-0.92
852.915	0.35
853.083	-0.15
853.251	-1.08
853.42	-1
853.588	0.49
853.756	0.86
853.924	-0.1
854.093	0.26
854.261	-0.14
854.429	-1.09
854.597	-0.45
854.765	-2
854.934	0.65
855.102	1.59
855.27	0.2
855.438	0.58
855.606	1.88
855.774	0.44
855.942	-1.04
856.11	-2.34
856.278	0.44
856.446	0.65
856.614	-0.47
856.782	-0.47
856.95	1.09
857.118	0.01
857.286	0.38
857.454	-1.61
857.622	1.93
857.79	0.77
857.958	-0.34
858.126	0.04
858.294	-2.61
858.462	-0.62
858.629	-1.47
858.797	-0.82
858.965	0.01
859.133	-0.35
859.301	-1.66
859.468	-0.53
859.636	-0.83
859.804	0.87
859.971	1.67
860.139	-0.23
860.307	1.71
860.474	-0.08
860.642	-1.15
860.81	0.09
860.977	-1.19
861.145	-0.45
861.313	0.08
861.48	0.55
861.648	0.92
861.815	0
861.983	-0.39
862.15	-1.5
862.318	0.66
862.485	-0.1
862.653	-0.74
862.82	-0.74
862.988	1.33
863.155	0.32
863.322	-1.2
863.49	-1.36
863.657	-2.38
863.824	1.32
863.992	0.69
864.159	0.04
864.326	2.51
864.494	-0.62
864.661	2.53
864.828	-1.08
864.996	0.55
865.163	1.13
865.33	-0.32
865.497	-2.43
865.664	0.1
865.832	-2.62
865.999	-0.66
866.166	-1.61
866.333	-1.26
866.5	0.59
866.667	0.99
866.834	-1.33
867.001	0.38
867.168	-1.14
867.335	-0.19
867.502	-1.32
867.669	0.55
867.836	2.46
868.003	-1.7
868.17	0.29
868.337	-1.97
868.504	2.24
868.671	-1.54
868.838	-0.41
869.005	-0.97
869.172	0.64
869.339	-1.67
869.505	-0.25
869.672	-0.11
869.839	0.47
870.006	-0.44
870.173	-2.43
870.339	-0.08
870.506	1.99
870.673	-2.68
870.84	1.91
871.006	1.81
871.173	0.07
871.34	0.03
871.506	-1.62
871.673	-0.32
871.839	-0.1
872.006	0.1
872.173	-0.33
872.339	0.88
872.506	0.95
872.672	-0.3
872.839	-2.41
873.005	0.1
873.172	2.02
873.338	0.6
873.505	0.79
873.671	-0.74
873.838	-0.42
874.004	-2.63
874.171	-0.1
874.337	-0.58
874.503	-0.17
874.67	-1.27
874.836	-1.72
875.002	2.44
875.169	1.69
875.335	1.08
875.501	-1.65
875.668	-0.82
875.834	0.18
876	0.27
876.166	2.92
876.332	0.15
876.499	2.06
876.665	1.15
876.831	0.35
876.997	2.03
877.163	1.23
877.329	0.28
877.495	1.63
877.662	-0.18
877.828	0.55
877.994	-0.94
878.16	-3.45
878.326	-1.29
878.492	0.26
878.658	1.43
878.824	0.91
878.99	0.78
879.156	-0.46
879.322	2.92
879.487	-2.16
879.653	1.29
879.819	-0.3
879.985	-2.15
880.151	-0.5
880.317	-0.86
880.483	-1.25
880.648	0.73
880.814	-1.68
880.98	1.28
881.146	-2.59
881.312	-2
881.477	-1.33
881.643	1.21
881.809	1.72
881.974	2.33
882.14	-2.65
882.306	0.94
882.471	-0.05
882.637	-1.2
882.803	-1.16
882.968	3.76
883.134	2.73
883.299	0.83
883.465	-0.11
883.63	-0.3
883.796	1.08
883.961	0.15
884.127	-0.69
884.292	-3.6
884.458	-2.29
884.623	-2.28
