Data from Apollo_Calib_20240827__AbsoluteIrradiance__734__11-23-00-688.txt Node

Date: Wed Aug 28 11:23:00 BST 2024
User: biology
Spectrometer: FLMT08252
Trigger mode: 0
Integration Time (sec): 5.000000E-1
Scans to average: 5
Electric dark correction enabled: true
Nonlinearity correction enabled: false
Boxcar width: 0
XAxis mode: Wavelengths
Number of Pixels in Spectrum: 3648
>>>>>Begin Spectral Data<<<<<
179.588	-0
179.809	-0
180.03	-0
180.251	-0
180.473	-0
180.694	0
180.915	0
181.136	-0
181.357	0
181.578	-0
181.799	-0
182.02	-0
182.241	0
182.462	-0
182.683	0
182.904	0
183.125	-0
183.346	0
183.567	0
183.788	0
184.009	0
184.23	0
184.451	0
184.672	0
184.892	0
185.113	0
185.334	0
185.555	0
185.776	0
185.996	0
186.217	0
186.438	0
186.659	-0
186.879	0
187.1	0
187.321	0
187.541	0
187.762	0
187.983	0
188.203	0
188.424	0
188.644	0
188.865	0
189.086	0
189.306	0
189.527	0
189.747	0
189.968	0
190.188	0
190.409	0
190.629	0
190.849	0
191.07	0
191.29	0
191.511	0
191.731	-0
191.951	0
192.172	0
192.392	0
192.612	0
192.833	0
193.053	0
193.273	0
193.493	0
193.714	0
193.934	0
194.154	0
194.374	0
194.594	0
194.815	0
195.035	0
195.255	0
195.475	0
195.695	0
195.915	0
196.135	0
196.355	0
196.575	0
196.795	0
197.015	-0
197.235	0
197.455	0
197.675	0
197.895	0
198.115	-0
198.335	0
198.555	0
198.775	0
198.995	0
199.214	0
199.434	0
199.654	0
199.874	0
200.094	2.03
200.313	0.73
200.533	0.96
200.753	-0.01
200.973	1.44
201.192	1.4
201.412	0.06
201.632	0.61
201.851	1.85
202.071	0.6
202.291	0.04
202.51	0.15
202.73	1.21
202.95	0.86
203.169	0.51
203.389	0.64
203.608	0.64
203.828	0.43
204.047	0.6
204.267	0.98
204.486	0.61
204.706	0.7
204.925	0.67
205.145	0.65
205.364	1.08
205.583	1.37
205.803	0.4
206.022	0.38
206.242	0.37
206.461	0.72
206.68	0.34
206.9	0.59
207.119	1.28
207.338	1.36
207.557	0.5
207.777	0.54
207.996	0.6
208.215	1.27
208.434	0.27
208.654	0.2
208.873	0.59
209.092	1.1
209.311	0.43
209.53	0.35
209.749	0.55
209.968	0.29
210.187	0.37
210.407	0.04
210.626	0.4
210.845	0.94
211.064	0.38
211.283	0.1
211.502	0.58
211.721	0.59
211.94	0.47
212.159	0.38
212.377	0.92
212.596	0.92
212.815	0.64
213.034	0.63
213.253	0.66
213.472	0.85
213.691	0.32
213.91	0.29
214.128	0.22
214.347	0.86
214.566	0.06
214.785	0.01
215.003	0.62
215.222	0.29
215.441	0.47
215.66	0.02
215.878	0.29
216.097	0.76
216.316	-0.09
216.534	0.17
216.753	0.69
216.972	0.45
217.19	0.34
217.409	-0.04
217.627	0.26
217.846	0.31
218.064	0.48
218.283	0.1
218.501	0.9
218.72	0.54
218.938	0.06
219.157	0.31
219.375	0.52
219.594	0.57
219.812	0.08
220.031	0.14
220.249	0.57
220.467	0.63
220.686	0.3
220.904	0.05
221.122	0.27
221.341	0.7
221.559	0.25
221.777	0.18
221.995	0.29
222.214	0.42
222.432	0.14
222.65	0.42
222.868	0.38
223.086	0.47
223.305	0.34
223.523	0.28
223.741	0.6
223.959	0.17
224.177	-0.05
224.395	0.25
224.613	0.25
224.831	0.47
225.049	0.06
225.267	0.11
225.485	0.36
225.703	0.14
225.921	0.29
226.139	0.14
226.357	0.36
226.575	0.38
226.793	0.15
227.011	0.92
227.229	0.31
227.447	0.37
227.665	0.22
227.883	0.12
228.1	0.35
228.318	0.38
228.536	0.04
228.754	-0.01
228.972	0.4
229.189	0.41
229.407	0.08
229.625	0.16
229.843	0.39
230.06	0.31
230.278	0.12
230.496	0.25
230.713	0.21
230.931	0.42
231.149	0.18
231.366	0.08
231.584	0.21
231.801	0.63
232.019	0.23
232.236	0.21
232.454	0.12
232.671	0.34
232.889	0.17
233.106	0.12
233.324	0.18
233.541	0.36
233.759	0.18
233.976	0.12
234.194	0.22
234.411	0.22
234.628	0.05
234.846	0.15
235.063	0.17
235.28	0.17
235.498	0.12
235.715	0.12
235.932	0.36
236.149	0.22
236.367	0.06
236.584	0.3
236.801	0.1
237.018	0.24
237.236	0.2
237.453	0.14
237.67	0.34
237.887	0.26
238.104	0.22
238.321	0.08
238.538	0.15
238.755	0.37
238.973	0.01
239.19	0.16
239.407	0.18
239.624	0.31
239.841	0.02
240.058	0.05
240.275	0.2
240.492	0.19
240.709	0.22
240.925	0.15
241.142	0.28
241.359	0.02
241.576	0.05
241.793	0.1
242.01	0.24
242.227	0.33
242.444	0.19
242.66	0.32
242.877	0.17
243.094	0.15
243.311	0.2
243.527	0.13
243.744	0.17
243.961	0.21
244.178	0.09
244.394	0.19
244.611	0.26
244.828	0.33
245.044	0.08
245.261	0.26
245.477	0.18
245.694	0.21
245.911	0.11
246.127	0.14
246.344	0.38
246.56	0.29
246.777	0.13
246.993	0.15
247.21	0.28
247.426	0.31
247.643	0.13
247.859	0.06
248.076	0.11
248.292	0.44
248.508	0.19
248.725	0.18
248.941	0.23
249.157	0.25
249.374	0.08
249.59	0.12
249.806	0.15
250.023	0.33
250.239	0.06
250.455	0.1
250.671	0.1
250.888	0.19
251.104	0.22
251.32	0.15
251.536	0.15
251.752	0.15
251.969	0.22
252.185	0.16
252.401	0.37
252.617	0.19
252.833	0.15
253.049	0.13
253.265	0.25
253.481	0.18
253.697	0.14
253.913	0.08
254.129	0.14
254.345	0.18
254.561	0.13
254.777	0.14
254.993	0.25
255.209	0.19
255.425	0.11
255.641	0.07
255.857	0.29
256.073	0.17
256.288	0.06
256.504	0.11
256.72	0.18
256.936	0.31
257.152	0.11
257.367	0.08
257.583	0.18
257.799	0.22
258.015	0.12
258.23	0.1
258.446	0.3
258.662	0.14
258.877	0.11
259.093	0.06
259.309	0.11
259.524	0.23
259.74	0.13
259.955	0.06
260.171	0.17
260.387	0.17
260.602	0.28
260.818	0.21
261.033	0.08
261.249	0.17
261.464	0.13
261.68	0.07
261.895	0.12
262.11	0.21
262.326	0.13
262.541	0.04
262.757	0.22
262.972	0.19
263.187	0.18
263.403	0.2
263.618	0.19
263.833	0.11
264.049	0.06
264.264	0.1
264.479	0.12
264.694	0.22
264.91	0.06
265.125	0.12
265.34	0.22
265.555	0.32
265.77	0.12
265.986	0.1
266.201	0.17
266.416	0.2
266.631	0.1
266.846	0.08
267.061	0.12
267.276	0.19
267.491	0.05
267.706	0.14
267.921	0.17
268.136	0.18
268.351	0.13
268.566	0.05
268.781	0.27
268.996	0.21
269.211	0.11
269.426	0
269.641	0.09
269.856	0.2
270.071	0.13
270.285	0.06
270.5	0.23
270.715	0.26
270.93	0.11
271.145	0.17
271.359	0.2
271.574	0.08
271.789	0.11
272.004	0.11
272.218	0.08
272.433	0.22
272.648	0.12
272.862	0.18
273.077	0.17
273.292	0.1
273.506	0.09
273.721	0.13
273.936	0.17
274.15	0.23
274.365	0.04
274.579	0.17
274.794	0.17
275.008	0.16
275.223	0.04
275.437	0.12
275.652	0.2
275.866	0.16
276.081	0.1
276.295	0.15
276.509	0.11
276.724	0.18
276.938	0.09
277.153	0.17
277.367	0.21
277.581	0.14
277.796	0.06
278.01	0.02
278.224	0.12
278.438	0.22
278.653	0.14
278.867	0.1
279.081	0.01
279.295	0.12
279.51	0.11
279.724	0.02
279.938	0.16
280.152	0.17
280.366	0.09
280.58	0.15
280.794	0.25
281.008	0.15
281.222	0.17
281.437	0.2
281.651	0.11
281.865	0.22
282.079	0.1
282.293	0.02
282.507	0.07
282.721	0.12
282.935	0.12
283.148	0.06
283.362	0.11
283.576	0.12
283.79	0.11
284.004	0.03
284.218	0.16
284.432	0.14
284.646	0.15
284.859	0.15
285.073	0.07
285.287	0.16
285.501	0.18
285.714	0.09
285.928	0.12
286.142	0.13
286.356	0.07
286.569	0.07
286.783	0.18
286.997	0.12
287.21	0.09
287.424	0.13
287.637	0.12
287.851	0.14
288.065	0.13
288.278	0.11
288.492	0.11
288.705	0.06
288.919	0.15
289.132	0.07
289.346	0.21
289.559	0.06
289.773	0.08
289.986	0.11
290.2	0.12
290.413	0.2
290.626	0.06
290.84	0.1
291.053	0.1
291.267	0.17
291.48	0.09
291.693	0.11
291.906	0.08
292.12	0.06
292.333	0.03
292.546	0.04
292.76	0.16
292.973	0.11
293.186	0.13
293.399	0.1
293.612	0.16
293.826	0.12
294.039	0.1
294.252	0.06
294.465	0.16
294.678	0.15
294.891	0.14
295.104	0.04
295.317	0.07
295.53	0.17
295.743	0.07
295.956	0.07
296.169	0.18
296.382	0.17
296.595	0.11
296.808	0.06
297.021	0.14
297.234	0.18
297.447	0.1
297.66	0.09
297.873	0.13
298.086	0.15
298.299	0.11
298.511	0.05
298.724	0.11
298.937	0.1
299.15	0.09
299.363	0.1
299.575	0.18
299.788	0.12
300.001	0.07
300.213	0.12
300.426	0.1
300.639	0.06
300.852	0.08
301.064	0.12
301.277	0.17
301.489	0.13
301.702	0.13
301.915	0.08
302.127	0.11
302.34	0.14
302.552	0.14
302.765	0.1
302.977	0.13
303.19	0.1
303.402	0.07
303.615	0.11
303.827	0.08
304.04	0.06
304.252	0.17
304.464	0.07
304.677	0.22
304.889	0.16
305.102	0.07
305.314	0.09
305.526	0.2
305.739	0.13
305.951	0.06
306.163	0.06
306.375	0.17
306.588	0.06
306.8	0.08
307.012	0.05
307.224	0.07
307.436	0.17
307.649	0.05
307.861	0.11
308.073	0.15
308.285	0.04
308.497	0.06
308.709	0.08
308.921	0.13
309.133	0.18
309.346	0.12
309.558	0.08
309.77	0.16
309.982	0.14
310.194	0.13
310.406	0.06
310.617	0.21
310.829	0.11
311.041	0.16
311.253	0.07
311.465	0.14
311.677	0.1
311.889	0.14
312.101	0.09
312.313	0.14
312.524	0.18
312.736	0.07
312.948	0.1
313.16	0.18
313.372	0.15
313.583	0.12
313.795	0.1
314.007	0.08
314.218	0.08
314.43	0.11
314.642	0.13
314.853	0.05
315.065	0.13
315.277	0.11
315.488	0.11
315.7	0.16
315.912	0.14
316.123	0.12
316.335	0.09
316.546	0.23
316.758	0.09
316.969	0.11
317.181	0.1
317.392	0.12
317.604	0.18
317.815	0.04
318.026	0.12
318.238	0.1
318.449	0.14
318.661	0.05
318.872	-0
319.083	0.05
319.295	0.12
319.506	0.05
319.717	0.17
319.929	0.16
320.14	0.12
320.351	0.11
320.562	0.06
320.774	0.17
320.985	0.12
321.196	0.02
321.407	0.05
321.618	0.15
321.829	0.12
322.041	0.12
322.252	0.09
322.463	0.15
322.674	0.15
322.885	0.08
323.096	0.08
323.307	0.12
323.518	0.11
323.729	0.14
323.94	0.05
324.151	0.12
324.362	0.12
324.573	0.08
324.784	0.09
324.995	0.14
325.206	0.17
325.417	0.08
325.628	0.06
325.838	0.14
326.049	0.1
326.26	0.13
326.471	0.08
326.682	0.09
326.892	0.12
327.103	0.06
327.314	0.05
327.525	0.18
327.735	0.11
327.946	0.11
328.157	0.09
328.368	0.13
328.578	0.07
328.789	0.11
328.999	0.1
329.21	0.11
329.421	0.16
329.631	0.07
329.842	0.06
330.052	0.15
330.263	0.15
330.473	0.15
330.684	0.11
330.894	0.12
331.105	0.15
331.315	0.1
331.526	0.09
331.736	0.21
331.947	0.13
332.157	0.14
332.367	0.06
332.578	0.11
332.788	0.15
332.999	0.1
333.209	0.11
333.419	0.02
333.629	0.1
333.84	0.14
334.05	0.08
334.26	0.17
334.47	0.09
334.681	0.16
334.891	0.1
335.101	0.13
335.311	0.19
335.521	0.12
335.732	0.05
335.942	0.18
336.152	0.14
336.362	0.12
336.572	0.11
336.782	0.13
336.992	0.06
337.202	0.08
337.412	0.07
337.622	0.15
337.832	0.13
338.042	0.08
338.252	0.05
338.462	0.1
338.672	0.12
338.882	0.11
339.092	0.05
339.302	0.16
339.511	0.16
339.721	0.07
339.931	0.09
340.141	0.17
340.351	0.19
340.561	0.12
340.77	0.12
340.98	0.11
341.19	0.09
341.4	0.14
341.609	0.05
341.819	0.12
342.029	0.05
342.238	0.1
342.448	0.07
342.658	0.12
342.867	0.13
343.077	0.08
343.286	0.12
343.496	0.09
343.706	0.17
343.915	0.06
344.125	0.13
344.334	0.1
344.544	0.08
344.753	0.06
344.963	0.08
345.172	0.09
345.381	0.07
345.591	0.03
345.8	0.1
346.01	0.16
346.219	0.12
346.428	-0.04
346.638	0.11
346.847	0.1
347.056	0.13
347.266	0.07
347.475	0.07
347.684	0.13
347.893	0.07
348.103	0.12
348.312	0.08
348.521	0.11
348.73	0.08
348.94	0.1
349.149	0.07
349.358	0.1
349.567	0.07
349.776	0.02
349.985	0.09
350.194	0.15
350.403	0.14
350.612	0.05
350.821	0.09
351.03	0.11
351.239	0.02
351.448	0.09
351.657	0.06
351.866	0.17
352.075	0.17
352.284	0.14
352.493	0.07
352.702	0.14
352.911	0.13
353.12	0.12
353.329	0.09
353.538	0.14
353.746	0.12
353.955	0.08
354.164	0.11
354.373	0.09
354.582	0.14
354.79	0.1
354.999	0.13
355.208	0.11
355.416	0.14
355.625	0.03
355.834	0.07
356.042	0.1
356.251	0.07
356.46	0.07
356.668	0.11
356.877	0.21
357.085	0.14
357.294	0.02
357.503	0.16
357.711	0.08
357.92	0.21
358.128	0.13
358.337	0.11
358.545	0.11
358.754	0.11
358.962	0.12
359.17	0.1
359.379	0.14
359.587	0.15
359.796	0.12
360.004	0.17
360.212	0.13
360.421	0.14
360.629	0.05
360.837	0.08
361.046	0.15
361.254	0.19
361.462	0.08
361.67	0.1
361.879	0.11
362.087	0.17
362.295	0.12
362.503	0.1
362.711	0.05
362.92	0.08
363.128	0.07
363.336	0.06
363.544	0.02
363.752	0.06
363.96	0.08
364.168	0.05
364.376	0.14
364.584	0.13
364.792	0.14
365	0.12
365.208	0.09
365.416	0.13
365.624	0.13
365.832	0.07
366.04	0.17
366.248	0.12
366.456	0.08
366.664	0.1
366.872	0.09
367.079	0.08
367.287	0.11
367.495	0.09
367.703	0.13
367.911	0.09
368.118	0.07
368.326	0.1
368.534	0.04
368.742	0.15
368.949	0.05
369.157	0.06
369.365	0.11
369.572	0.09
369.78	0.06
369.988	0.14
370.195	0.11
370.403	0.15
370.61	0.07
370.818	0.11
371.026	0.16
371.233	0.05
371.441	0.09
371.648	0.08
371.856	0.1
372.063	0.11
372.271	0.09
372.478	0.11
372.685	0.07
372.893	0.17
373.1	0.09
373.308	0.06
373.515	0.23
373.722	0.13
373.93	0.05
374.137	0.12
374.344	0.15
374.552	0.18
374.759	0.15
374.966	0.13
375.173	0.1
375.381	0.14
375.588	0.09
375.795	-0
376.002	0.07
376.209	0.09
376.417	0.09
376.624	0.09
376.831	0.14
377.038	0.09
377.245	0.01
377.452	0.12
377.659	0.11
377.866	0.05
378.073	0.09
378.28	0.12
378.487	0.18
378.694	0.1
378.901	0.09
379.108	0.1
379.315	0.18
379.522	0.2
379.729	0.1
379.936	0.13
380.143	0.11
380.35	0.11
380.557	0.08
380.763	0.08
380.97	0.12
381.177	0.14
381.384	0.15
381.591	0.06
381.797	0.14
382.004	0.13
382.211	0.1
382.418	0.11
382.624	0.14
382.831	0.1
383.038	0.08
383.244	0.14
383.451	0.08
383.658	0.16
383.864	0.12
384.071	0.09
384.277	0.14
384.484	0.07
384.69	0.16
384.897	0.1
385.103	0.11
385.31	0.14
385.516	0.09
385.723	0.07
385.929	0.14
386.136	0.05
386.342	0.14
386.549	0.09
386.755	0.13
386.961	0.15
387.168	0.08
387.374	0.09
387.58	0.1
387.787	0.09
387.993	0.14
388.199	0.14
388.406	0.07
388.612	0.1
388.818	0.12
389.024	0.08
389.231	0.13
389.437	0.2
389.643	0.16
389.849	0.11
390.055	0.11
390.261	0.13
390.467	0.16
390.674	0.11
390.88	0.14
391.086	0.14
391.292	0.1
391.498	0.17
391.704	0.14
391.91	0.16
392.116	0.12
392.322	-0
392.528	0.13
392.734	0.11
392.94	0.06
393.146	0.09
393.352	0.14
393.557	0.13
393.763	0.13
393.969	0.14
394.175	0.14
394.381	0.12
394.587	0.11
394.792	0.1
394.998	0.2
395.204	0.19
395.41	0.12
395.615	0.16
395.821	0.13
396.027	0.17
396.233	0.07
396.438	0.11
396.644	0.14
396.85	0.19
397.055	0.13
397.261	0.14
397.466	0.16
397.672	0.17
397.878	0.17
398.083	0.19
398.289	0.06
398.494	0.11
398.7	0.14
398.905	0.08
399.111	0.21
399.316	0.15
399.522	0.1
399.727	0.11
399.932	0.12
400.138	0.1
400.343	0.2
400.549	0.13
400.754	0.11
400.959	0.11
401.165	0.14
401.37	0.15
401.575	0.22
401.78	0.16
401.986	0.11
402.191	0.12
402.396	0.17
402.601	0.17
402.807	0.24
403.012	0.14
403.217	0.2
403.422	0.2
403.627	0.12
403.832	0.15
404.037	0.22
404.243	0.19
404.448	0.16
404.653	0.17
404.858	0.17
405.063	0.18
405.268	0.17
405.473	0.1
405.678	0.18
405.883	0.36
406.088	0.25
406.293	0.11
406.498	0.17
406.703	0.22
406.907	0.15
407.112	0.15
407.317	0.21
407.522	0.24
407.727	0.09
407.932	0.23
408.136	0.28
408.341	0.25
408.546	0.26
408.751	0.24
408.956	0.2
409.16	0.3
409.365	0.26
409.57	0.24
409.774	0.25
409.979	0.3
410.184	0.29
410.388	0.25
410.593	0.27
410.798	0.25
411.002	0.24
411.207	0.35
411.411	0.29
411.616	0.23
411.82	0.31
412.025	0.35
412.229	0.3
412.434	0.37
412.638	0.38
412.843	0.33
413.047	0.33
413.252	0.36
413.456	0.39
413.66	0.42
413.865	0.37
414.069	0.4
414.273	0.36
414.478	0.36
414.682	0.44
414.886	0.45
415.091	0.42
415.295	0.42
415.499	0.52
415.703	0.5
415.908	0.59
416.112	0.47
416.316	0.59
416.52	0.59
416.724	0.56
416.929	0.59
417.133	0.79
417.337	0.59
417.541	0.64
417.745	0.71
417.949	0.77
418.153	0.77
418.357	0.73
418.561	0.93
418.765	0.8
418.969	0.94
419.173	0.96
419.377	0.88
419.581	1.1
419.785	0.95
419.989	1.03
420.193	1.05
420.397	1.13
420.601	1.24
420.804	1.27
421.008	1.1
421.212	1.34
421.416	1.29
421.62	1.28
421.823	1.34
422.027	1.44
422.231	1.34
422.435	1.35
422.638	1.37
422.842	1.43
423.046	1.48
423.249	1.59
423.453	1.6
423.657	1.6
423.86	1.71
424.064	1.66
424.268	1.8
424.471	1.76
424.675	1.94
424.878	1.92
425.082	1.91
425.285	2.03
425.489	1.96
425.692	2.06
425.896	2.04
426.099	2.15
426.303	2.17
426.506	2.25
426.71	2.33
426.913	2.5
427.116	2.58
427.32	2.5
427.523	2.49
427.726	2.71
427.93	2.63
428.133	2.78
428.336	2.86
428.54	2.91
428.743	2.97
428.946	3.13
429.149	3.09
429.353	3.16
429.556	3.16
429.759	3.15
429.962	3.26
430.165	3.25
430.368	3.13
430.571	3.12
430.775	3.2
430.978	3.11
431.181	3.22
431.384	3.26
431.587	3.24
431.79	3.5
431.993	3.32
432.196	3.51
432.399	3.67
432.602	3.68
432.805	3.76
433.008	3.97
433.211	3.85
433.414	4.07
433.616	4.13
433.819	4.08
434.022	4.08
434.225	4.24
434.428	4.23
434.631	4.51
434.833	4.29
435.036	4.46
435.239	4.49
435.442	4.53
435.645	4.44
435.847	4.69
436.05	4.68
436.253	4.82
436.455	4.75
436.658	4.8
436.861	4.99
437.063	5.07
437.266	5.07
437.468	5.16
437.671	5.32
437.874	5.33
438.076	5.14
438.279	5.44
438.481	5.43
438.684	5.81
438.886	5.67
439.089	5.81
439.291	5.92
439.494	6.07
439.696	5.98
439.899	6.24
440.101	6.49
440.303	6.5
440.506	6.96
440.708	6.87
440.91	6.91
441.113	7
441.315	7.12
441.517	7.04
441.72	7.41
441.922	7.13
442.124	7.08
442.326	7.47
442.529	7.49
442.731	7.38
442.933	7.75
443.135	7.62
443.337	7.57
443.539	7.85
443.742	7.79
443.944	8.04
444.146	7.88
444.348	7.92
444.55	7.85
444.752	8.09
444.954	7.98
445.156	8
445.358	8.23
445.56	8.33
445.762	8.36
445.964	8.49
446.166	8.38
446.368	8.51
446.57	8.45
446.772	8.22
446.974	8.16
447.175	8.45
447.377	8.24
447.579	8.36
447.781	8.33
447.983	8.19
448.184	7.95
448.386	8.21
448.588	7.93
448.79	7.9
448.991	8.03
449.193	8.14
449.395	7.91
449.597	7.74
449.798	7.68
450	7.49
450.202	7.42
450.403	7.43
450.605	7.32
450.806	7.14
451.008	7.04
451.21	7.07
451.411	6.84
451.613	6.49
451.814	6.61
452.016	6.52
452.217	6.21
452.419	6.28
452.62	6.1
452.821	5.85
453.023	5.94
453.224	5.73
453.426	5.48
453.627	5.1
453.828	5.21
454.03	5.23
454.231	5.22
454.432	5.08
454.634	5.05
454.835	4.84
455.036	4.76
455.238	4.59
455.439	4.51
455.64	4.31
455.841	4.22
456.042	4.44
456.244	4.22
456.445	3.93
456.646	3.85
456.847	3.81
457.048	3.86
457.249	3.84
457.45	3.84
457.651	3.43
457.852	3.38
458.054	3.21
458.255	3.15
458.456	3.31
458.657	3.13
458.858	2.97
459.058	2.95
459.259	2.99
459.46	2.82
459.661	2.83
459.862	2.95
460.063	2.79
460.264	2.83
460.465	2.58
460.666	2.75
460.866	2.53
461.067	2.45
461.268	2.45
461.469	2.43
461.67	2.4
461.87	2.3
462.071	2.27
462.272	2.24
462.473	2.22
462.673	2.36
462.874	2.28
463.075	2.27
463.275	2.15
463.476	2.28
463.676	2.24
463.877	2.15
464.078	2.18
464.278	2.22
464.479	2.13
464.679	2.06
464.88	2.1
465.08	2.14
465.281	1.98
465.481	1.92
465.682	1.79
465.882	1.82
466.083	1.81
466.283	1.79
466.483	1.69
466.684	1.61
466.884	1.55
467.085	1.59
467.285	1.65
467.485	1.6
467.686	1.51
467.886	1.5
468.086	1.49
468.286	1.44
468.487	1.51
468.687	1.38
468.887	1.41
469.087	1.45
469.287	1.41
469.488	1.3
469.688	1.39
469.888	1.38
470.088	1.42
470.288	1.37
470.488	1.34
470.688	1.2
470.888	1.23
471.088	1.14
471.288	1.2
471.488	1.21
471.688	1.19
471.888	1.09
472.088	1.2
472.288	1.16
472.488	1.06
472.688	1.07
472.888	1.1
473.088	1.09
473.288	1.07
473.488	1.06
473.688	1.16
473.887	1.04
474.087	0.99
474.287	1.03
474.487	1.03
474.687	1.02
474.886	0.97
475.086	0.96
475.286	1.04
475.486	0.95
475.685	0.95
475.885	0.94
476.085	1.03
476.284	0.95
476.484	0.98
476.684	0.95
476.883	1
477.083	0.94
477.282	0.88
477.482	0.92
477.681	0.95
477.881	0.9
478.08	0.87
478.28	0.83
478.479	0.91
478.679	0.92
478.878	0.84
479.078	0.85
479.277	0.88
479.477	0.87
479.676	0.83
479.875	0.88
480.075	0.8
480.274	0.86
480.473	0.91
480.673	0.86
480.872	0.9
481.071	0.89
481.271	0.87
481.47	0.82
481.669	0.85
481.868	0.8
482.067	0.84
482.267	0.76
482.466	0.84
482.665	0.8
482.864	0.83
483.063	0.8
483.262	0.85
483.461	0.88
483.661	0.93
483.86	0.85
484.059	0.87
484.258	0.85
484.457	0.85
484.656	0.85
484.855	0.91
485.054	0.81
485.253	0.84
485.452	0.82
485.651	0.87
485.849	0.83
486.048	0.86
486.247	0.88
486.446	0.92
486.645	0.86
486.844	0.86
487.043	0.85
487.241	0.88
487.44	0.88
487.639	0.93
487.838	0.9
488.037	0.9
488.235	0.99
488.434	0.9
488.633	0.85
488.831	0.96
489.03	0.97
489.229	0.94
489.427	0.95
489.626	1.01
489.825	1.02
490.023	1
490.222	0.97
490.42	1
490.619	1.04
490.817	1.01
491.016	0.99
491.214	1.07
491.413	1.04
491.611	1
491.81	1.01
492.008	1.06
492.207	1.12
492.405	1.08
492.604	1.06
492.802	1.12
493	1.14
493.199	1.14
493.397	1.16
493.595	1.16
493.794	1.13
493.992	1.24
494.19	1.2
494.388	1.25
494.587	1.16
494.785	1.22
494.983	1.18
495.181	1.26
495.379	1.29
495.578	1.31
495.776	1.32
495.974	1.29
496.172	1.28
496.37	1.36
496.568	1.35
496.766	1.32
496.964	1.4
497.162	1.39
497.36	1.41
497.558	1.45
497.756	1.45
497.954	1.45
498.152	1.48
498.35	1.55
498.548	1.47
498.746	1.5
498.944	1.51
499.142	1.53
499.34	1.55
499.538	1.63
499.736	1.58
499.933	1.66
500.131	1.62
500.329	1.66
500.527	1.68
500.725	1.72
500.922	1.74
501.12	1.73
501.318	1.77
501.516	1.75
501.713	1.82
501.911	1.79
502.109	1.78
502.306	1.82
502.504	1.75
502.701	1.81
502.899	1.86
503.097	1.97
503.294	1.9
503.492	1.93
503.689	1.96
503.887	1.97
504.084	2.02
504.282	2
504.479	1.93
504.677	2.06
504.874	2.02
505.072	2.04
505.269	2.1
505.466	2.11
505.664	2.16
505.861	2.05
506.059	2.14
506.256	2.2
506.453	2.18
506.651	2.28
506.848	2.25
507.045	2.25
507.242	2.27
507.44	2.29
507.637	2.26
507.834	2.33
508.031	2.35
508.229	2.31
508.426	2.3
508.623	2.39
508.82	2.41
509.017	2.34
509.214	2.42
509.411	2.46
509.608	2.45
509.805	2.49
510.003	2.5
510.2	2.51
510.397	2.57
510.594	2.5
510.791	2.52
510.988	2.59
511.184	2.53
511.381	2.54
511.578	2.56
511.775	2.7
511.972	2.62
512.169	2.65
512.366	2.65
512.563	2.73
512.76	2.71
512.956	2.73
513.153	2.7
513.35	2.68
513.547	2.7
513.744	2.73
513.94	2.7
514.137	2.81
514.334	2.78
514.53	2.82
514.727	2.88
514.924	2.91
515.12	2.81
515.317	2.85
515.514	2.84
515.71	2.8
515.907	2.99
516.103	2.94
516.3	2.88
516.497	2.97
516.693	2.94
516.89	2.97
517.086	2.96
517.283	2.98
517.479	2.94
517.676	3.03
517.872	3.04
518.068	3.05
518.265	3.01
518.461	3.01
518.658	3.02
518.854	3.09
519.05	3.1
519.247	3.12
519.443	3.11
519.639	3.14
519.836	3.08
520.032	3.09
520.228	3.14
520.424	3.19
520.621	3.19
520.817	3.19
521.013	3.14
521.209	3.26
521.405	3.22
521.601	3.23
521.798	3.21
521.994	3.25
522.19	3.18
522.386	3.17
522.582	3.27
522.778	3.32
522.974	3.2
523.17	3.26
523.366	3.22
523.562	3.3
523.758	3.27
523.954	3.2
524.15	3.29
524.346	3.31
524.542	3.34
524.738	3.31
524.934	3.4
525.129	3.33
525.325	3.27
525.521	3.3
525.717	3.4
525.913	3.33
526.109	3.37
526.304	3.42
526.5	3.41
526.696	3.44
526.892	3.37
527.087	3.52
527.283	3.42
527.479	3.44
527.674	3.34
527.87	3.4
528.066	3.4
528.261	3.41
528.457	3.41
528.653	3.48
528.848	3.46
529.044	3.47
529.239	3.41
529.435	3.43
529.63	3.44
529.826	3.46
530.021	3.47
530.217	3.51
530.412	3.47
530.608	3.5
530.803	3.44
530.999	3.41
531.194	3.43
531.389	3.52
531.585	3.48
531.78	3.6
531.975	3.57
532.171	3.59
532.366	3.53
532.561	3.56
532.757	3.51
532.952	3.62
533.147	3.49
533.342	3.56
533.538	3.51
533.733	3.64
533.928	3.42
534.123	3.58
534.318	3.58
534.513	3.52
534.709	3.6
534.904	3.58
535.099	3.59
535.294	3.62
535.489	3.59
535.684	3.54
535.879	3.52
536.074	3.68
536.269	3.6
536.464	3.61
536.659	3.62
536.854	3.55
537.049	3.63
537.244	3.58
537.439	3.61
537.634	3.62
537.828	3.64
538.023	3.62
538.218	3.59
538.413	3.58
538.608	3.6
538.803	3.6
538.997	3.55
539.192	3.61
539.387	3.63
539.582	3.61
539.776	3.57
539.971	3.6
540.166	3.64
540.36	3.62
540.555	3.66
540.75	3.67
540.944	3.63
541.139	3.64
541.334	3.63
541.528	3.69
541.723	3.67
541.917	3.69
542.112	3.6
542.306	3.6
542.501	3.6
542.695	3.67
542.89	3.59
543.084	3.64
543.279	3.65
543.473	3.69
543.668	3.71
543.862	3.58
544.056	3.63
544.251	3.68
544.445	3.69
544.64	3.7
544.834	3.51
545.028	3.48
545.222	3.67
545.417	3.77
545.611	3.69
545.805	3.7
546	3.62
546.194	3.67
546.388	3.69
546.582	3.61
546.776	3.63
546.97	3.66
547.165	3.67
547.359	3.67
547.553	3.58
547.747	3.65
547.941	3.74
548.135	3.63
548.329	3.67
548.523	3.7
548.717	3.64
548.911	3.6
549.105	3.62
549.299	3.7
549.493	3.68
549.687	3.62
549.881	3.68
550.075	3.69
550.269	3.55
550.463	3.71
550.657	3.66
550.85	3.66
551.044	3.68
551.238	3.67
551.432	3.65
551.626	3.69
551.82	3.68
552.013	3.6
552.207	3.69
552.401	3.76
552.594	3.68
552.788	3.63
552.982	3.64
553.176	3.58
553.369	3.72
553.563	3.62
553.756	3.63
553.95	3.71
554.144	3.73
554.337	3.71
554.531	3.59
554.724	3.69
554.918	3.7
555.111	3.67
555.305	3.73
555.498	3.7
555.692	3.75
555.885	3.71
556.079	3.63
556.272	3.68
556.466	3.69
556.659	3.67
556.852	3.66
557.046	3.66
557.239	3.61
557.432	3.63
557.626	3.71
557.819	3.71
558.012	3.69
558.206	3.73
558.399	3.68
558.592	3.69
558.785	3.65
558.979	3.67
559.172	3.64
559.365	3.69
559.558	3.67
559.751	3.62
559.944	3.77
560.138	3.63
560.331	3.71
560.524	3.7
560.717	3.67
560.91	3.67
561.103	3.67
561.296	3.61
561.489	3.68
561.682	3.73
561.875	3.72
562.068	3.77
562.261	3.64
562.454	3.79
562.647	3.65
562.84	3.71
563.032	3.66
563.225	3.64
563.418	3.65
563.611	3.7
563.804	3.68
563.997	3.61
564.19	3.55
564.382	3.69
564.575	3.65
564.768	3.6
564.961	3.7
565.153	3.68
565.346	3.65
565.539	3.71
565.731	3.64
565.924	3.77
566.117	3.76
566.309	3.72
566.502	3.63
566.695	3.61
566.887	3.68
567.08	3.69
567.272	3.7
567.465	3.62
567.657	3.63
567.85	3.61
568.042	3.7
568.235	3.71
568.427	3.56
568.62	3.65
568.812	3.7
569.005	3.73
569.197	3.58
569.389	3.65
569.582	3.63
569.774	3.67
569.966	3.57
570.159	3.6
570.351	3.62
570.543	3.64
570.736	3.63
570.928	3.58
571.12	3.61
571.312	3.61
571.505	3.52
571.697	3.65
571.889	3.63
572.081	3.65
572.273	3.57
572.465	3.65
572.658	3.63
572.85	3.64
573.042	3.68
573.234	3.61
573.426	3.63
573.618	3.57
573.81	3.68
574.002	3.64
574.194	3.66
574.386	3.59
574.578	3.52
574.77	3.59
574.962	3.61
575.154	3.48
575.346	3.58
575.538	3.58
575.729	3.55
575.921	3.62
576.113	3.64
576.305	3.64
576.497	3.6
576.689	3.53
576.88	3.49
577.072	3.61
577.264	3.57
577.456	3.59
577.647	3.53
577.839	3.64
578.031	3.61
578.223	3.55
578.414	3.49
578.606	3.57
578.798	3.59
578.989	3.57
579.181	3.58
579.372	3.59
579.564	3.54
579.755	3.54
579.947	3.51
580.139	3.55
580.33	3.47
580.522	3.57
580.713	3.48
580.905	3.55
581.096	3.58
581.287	3.49
581.479	3.51
581.67	3.54
581.862	3.5
582.053	3.51
582.244	3.43
582.436	3.55
582.627	3.47
582.818	3.44
583.01	3.43
583.201	3.51
583.392	3.52
583.583	3.48
583.775	3.35
583.966	3.43
584.157	3.47
584.348	3.51
584.54	3.46
584.731	3.48
584.922	3.4
585.113	3.39
585.304	3.45
585.495	3.47
585.686	3.5
585.877	3.49
586.068	3.49
586.259	3.44
586.45	3.41
586.641	3.4
586.832	3.42
587.023	3.4
587.214	3.38
587.405	3.51
587.596	3.38
587.787	3.38
587.978	3.43
588.169	3.37
588.36	3.28
588.551	3.39
588.742	3.36
588.932	3.43
589.123	3.3
589.314	3.44
589.505	3.4
589.696	3.36
589.886	3.33
590.077	3.32
590.268	3.31
590.458	3.32
590.649	3.25
590.84	3.32
591.03	3.37
591.221	3.33
591.412	3.26
591.602	3.38
591.793	3.29
591.984	3.29
592.174	3.29
592.365	3.4
592.555	3.2
592.746	3.25
592.936	3.29
593.127	3.3
593.317	3.3
593.508	3.26
593.698	3.24
593.889	3.3
594.079	3.23
594.269	3.2
594.46	3.22
594.65	3.22
594.84	3.24
595.031	3.16
595.221	3.15
595.411	3.16
595.602	3.25
595.792	3.18
595.982	3.12
596.172	3.23
596.363	3.16
596.553	3.14
596.743	3.13
596.933	3.1
597.123	3.12
597.314	3.05
597.504	3.1
597.694	3.2
597.884	3.12
598.074	3.12
598.264	3.07
598.454	3.09
598.644	3.08
598.834	3.07
599.024	3
599.214	3.05
599.404	3.08
599.594	3.09
599.784	3.03
599.974	3.1
600.164	3.11
600.354	3.02
600.544	2.95
600.734	3.08
600.924	3.02
601.114	2.97
601.303	2.99
601.493	2.99
601.683	2.97
601.873	2.97
602.063	2.88
602.252	2.96
602.442	2.87
602.632	2.9
602.821	2.89
603.011	2.97
603.201	2.91
603.39	2.91
603.58	2.85
603.77	2.93
603.959	2.96
604.149	2.91
604.339	2.92
604.528	2.97
604.718	2.91
604.907	2.86
605.097	2.83
605.286	2.87
605.476	2.85
605.665	2.88
605.855	2.8
606.044	2.89
606.234	2.86
606.423	2.81
606.612	2.8
606.802	2.79
606.991	2.83
607.181	2.86
607.37	2.73
607.559	2.68
607.749	2.74
607.938	2.71
608.127	2.79
608.316	2.76
608.506	2.71
608.695	2.75
608.884	2.67
609.073	2.78
609.263	2.75
609.452	2.77
609.641	2.69
609.83	2.61
610.019	2.75
610.208	2.61
610.397	2.65
610.586	2.67
610.775	2.64
610.965	2.66
611.154	2.54
611.343	2.61
611.532	2.62
611.721	2.68
611.91	2.6
612.099	2.59
612.287	2.56
612.476	2.53
612.665	2.64
612.854	2.52
613.043	2.53
613.232	2.56
613.421	2.46
613.61	2.52
613.798	2.5
613.987	2.6
614.176	2.49
614.365	2.52
614.554	2.51
614.742	2.53
614.931	2.43
615.12	2.59
615.309	2.45
615.497	2.45
615.686	2.39
615.875	2.46
616.063	2.43
616.252	2.43
616.44	2.4
616.629	2.46
616.818	2.4
617.006	2.37
617.195	2.34
617.383	2.39
617.572	2.33
617.76	2.34
617.949	2.31
618.137	2.37
618.326	2.4
618.514	2.24
618.703	2.24
618.891	2.39
619.079	2.26
619.268	2.41
619.456	2.22
619.644	2.36
619.833	2.24
620.021	2.26
620.209	2.2
620.398	2.26
620.586	2.2
620.774	2.29
620.962	2.21
621.151	2.31
621.339	2.22
621.527	2.15
621.715	2.18
621.903	2.17
622.092	2.17
622.28	2.24
622.468	2.08
622.656	2.18
622.844	2.15
623.032	2.17
623.22	2.07
623.408	2.21
623.596	2.11
623.784	2.19
623.972	2.07
624.16	2.09
624.348	2.09
624.536	2.12
624.724	2.05
624.912	2.09
625.1	2.07
625.288	2.02
625.476	1.97
625.664	2.1
625.851	2.04
626.039	2.02
626.227	2.04
626.415	1.99
626.603	1.96
626.79	2.08
626.978	1.98
627.166	2.05
627.354	1.94
627.541	1.97
627.729	1.88
627.917	2.04
628.104	2.02
628.292	1.91
628.48	1.9
628.667	1.91
628.855	1.99
629.042	1.98
629.23	1.91
629.418	1.95
629.605	1.92
629.793	1.86
629.98	1.87
630.168	1.9
630.355	1.89
630.543	1.9
630.73	1.83
630.917	1.83
631.105	1.92
631.292	1.8
631.48	1.78
631.667	1.89
631.854	1.8
632.042	1.79
632.229	1.73
632.416	1.81
632.604	1.81
632.791	1.71
632.978	1.83
633.165	1.78
633.353	1.79
633.54	1.85
633.727	1.63
633.914	1.69
634.101	1.67
634.289	1.79
634.476	1.68
634.663	1.67
634.85	1.7
635.037	1.67
635.224	1.57
635.411	1.76
635.598	1.68
635.785	1.68
635.972	1.64
636.159	1.69
636.346	1.62
636.533	1.67
636.72	1.61
636.907	1.61
637.094	1.61
637.281	1.6
637.468	1.63
637.655	1.63
637.842	1.63
638.029	1.6
638.215	1.63
638.402	1.58
638.589	1.51
638.776	1.54
638.963	1.51
639.149	1.63
639.336	1.63
639.523	1.53
639.709	1.55
639.896	1.51
640.083	1.57
640.27	1.53
640.456	1.44
640.643	1.49
640.829	1.43
641.016	1.46
641.203	1.39
641.389	1.49
641.576	1.44
641.762	1.46
641.949	1.43
642.135	1.46
642.322	1.42
642.508	1.35
642.695	1.45
642.881	1.39
643.068	1.34
643.254	1.4
643.441	1.41
643.627	1.4
643.813	1.35
644	1.38
644.186	1.34
644.372	1.39
644.559	1.37
644.745	1.37
644.931	1.31
645.118	1.34
645.304	1.3
645.49	1.28
645.676	1.32
645.862	1.32
646.049	1.39
646.235	1.37
646.421	1.38
646.607	1.4
646.793	1.25
646.979	1.22
647.165	1.33
647.352	1.28
647.538	1.28
647.724	1.22
647.91	1.2
648.096	1.26
648.282	1.27
648.468	1.21
648.654	1.28
648.84	1.26
649.026	1.21
649.212	1.18
649.397	1.14
649.583	1.2
649.769	1.21
649.955	1.22
650.141	1.23
650.327	1.18
650.513	1.13
650.698	1.2
650.884	1.1
651.07	1.17
651.256	1.15
651.442	1.13
651.627	1.08
651.813	1.17
651.999	1.14
652.184	1.13
652.37	1.07
652.556	1.09
652.741	1.17
652.927	1.04
653.113	1.07
653.298	1.07
653.484	1.04
653.669	1.05
653.855	1.03
654.04	1.1
654.226	1.1
654.412	1.05
654.597	1.01
654.782	1.07
654.968	1.11
655.153	1.03
655.339	1
655.524	1.03
655.71	1.04
655.895	1
656.08	1
656.266	1.03
656.451	1.03
656.636	0.94
656.822	0.98
657.007	0.99
657.192	0.98
657.378	0.91
657.563	1
657.748	1.02
657.933	0.99
658.118	0.94
658.304	0.95
658.489	1.02
658.674	0.99
658.859	0.94
659.044	0.95
659.229	0.97
659.414	0.89
659.599	0.93
659.785	0.88
659.97	0.92
660.155	0.94
660.34	0.93
660.525	0.92
660.71	0.9
660.895	0.95
661.08	0.92
661.264	0.89
661.449	0.93
661.634	0.9
661.819	0.89
662.004	0.89
662.189	0.79
662.374	0.82
662.559	0.81
662.743	0.81
662.928	0.84
663.113	0.84
663.298	0.8
663.483	0.83
663.667	0.88
663.852	0.8
664.037	0.89
664.221	0.85
664.406	0.89
664.591	0.88
664.775	0.86
664.96	0.83
665.145	0.81
665.329	0.85
665.514	0.76
665.698	0.78
665.883	0.68
666.068	0.83
666.252	0.84
666.437	0.73
666.621	0.78
666.806	0.78
666.99	0.74
667.174	0.72
667.359	0.85
667.543	0.76
667.728	0.78
667.912	0.68
668.096	0.76
668.281	0.72
668.465	0.74
668.649	0.71
668.834	0.71
669.018	0.75
669.202	0.68
669.387	0.68
669.571	0.74
669.755	0.66
669.939	0.73
670.124	0.72
670.308	0.76
670.492	0.75
670.676	0.69
670.86	0.71
671.044	0.66
671.228	0.71
671.413	0.66
671.597	0.68
671.781	0.66
671.965	0.74
672.149	0.66
672.333	0.67
672.517	0.65
672.701	0.72
672.885	0.64
673.069	0.59
673.253	0.7
673.437	0.62
673.621	0.59
673.804	0.67
673.988	0.66
674.172	0.64
674.356	0.59
674.54	0.66
674.724	0.72
674.908	0.61
675.091	0.69
675.275	0.63
675.459	0.65
675.643	0.56
675.826	0.61
676.01	0.62
676.194	0.61
676.377	0.67
676.561	0.64
676.745	0.62
676.928	0.62
677.112	0.63
677.296	0.6
677.479	0.59
677.663	0.57
677.846	0.61
678.03	0.59
678.213	0.53
678.397	0.61
678.58	0.58
678.764	0.54
678.947	0.51
679.131	0.58
679.314	0.61
679.498	0.56
679.681	0.62
679.865	0.56
680.048	0.56
680.231	0.54
680.415	0.51
680.598	0.56
680.781	0.51
680.965	0.57
681.148	0.53
681.331	0.48
681.514	0.58
681.698	0.51
681.881	0.53
682.064	0.51
682.247	0.51
682.43	0.5
682.614	0.53
682.797	0.58
682.98	0.55
683.163	0.47
683.346	0.56
683.529	0.5
683.712	0.5
683.895	0.57
684.078	0.47
684.261	0.48
684.444	0.53
684.627	0.51
684.81	0.44
684.993	0.46
685.176	0.53
685.359	0.47
685.542	0.5
685.725	0.55
685.908	0.44
686.091	0.41
686.274	0.54
686.457	0.48
686.639	0.49
686.822	0.55
687.005	0.48
687.188	0.48
687.371	0.58
687.553	0.47
687.736	0.51
687.919	0.54
688.102	0.48
688.284	0.44
688.467	0.48
688.65	0.5
688.832	0.37
689.015	0.45
689.197	0.37
689.38	0.57
689.563	0.52
689.745	0.38
689.928	0.39
690.11	0.41
690.293	0.46
690.475	0.36
690.658	0.47
690.84	0.39
691.023	0.39
691.205	0.4
691.388	0.42
691.57	0.5
691.752	0.44
691.935	0.41
692.117	0.36
692.3	0.41
692.482	0.35
692.664	0.43
692.847	0.41
693.029	0.47
693.211	0.44
693.393	0.41
693.576	0.35
693.758	0.44
693.94	0.35
694.122	0.43
694.304	0.4
694.487	0.4
694.669	0.52
694.851	0.34
695.033	0.37
695.215	0.36
695.397	0.35
695.579	0.4
695.761	0.32
695.943	0.28
696.125	0.49
696.308	0.4
696.49	0.3
696.671	0.5
696.853	0.38
697.035	0.5
697.217	0.39
697.399	0.47
697.581	0.36
697.763	0.38
697.945	0.32
698.127	0.41
698.309	0.35
698.491	0.39
698.672	0.4
698.854	0.37
699.036	0.44
699.218	0.35
699.399	0.4
699.581	0.41
699.763	0.34
699.945	0.3
700.126	0.29
700.308	0.34
700.49	0.35
700.671	0.32
700.853	0.33
701.035	0.34
701.216	0.36
701.398	0.28
701.579	0.25
701.761	0.36
701.943	0.25
702.124	0.28
702.306	0.32
702.487	0.51
702.669	0.35
702.85	0.25
703.031	0.22
703.213	0.42
703.394	0.41
703.576	0.3
703.757	0.45
703.938	0.33
704.12	0.5
704.301	0.3
704.483	0.29
704.664	0.31
704.845	0.45
705.026	0.33
705.208	0.39
705.389	0.36
705.57	0.36
705.751	0.34
705.933	0.37
706.114	0.41
706.295	0.27
706.476	0.22
706.657	0.43
706.838	0.3
707.02	0.35
707.201	0.27
707.382	0.23
707.563	0.33
707.744	0.31
707.925	0.28
708.106	0.24
708.287	0.33
708.468	0.48
708.649	0.29
708.83	0.32
709.011	0.25
709.192	0.36
709.373	0.26
709.554	0.32
709.734	0.38
709.915	0.3
710.096	0.24
710.277	0.16
710.458	0.26
710.639	0.3
710.819	0.19
711	0.28
711.181	0.3
711.362	0.31
711.542	0.28
711.723	0.25
711.904	0.38
712.085	0.32
712.265	0.31
712.446	0.21
712.627	0.26
712.807	0.34
712.988	0.3
713.168	0.26
713.349	0.34
713.53	0.11
713.71	0.23
713.891	0.15
714.071	0.24
714.252	0.25
714.432	0.25
714.613	0.14
714.793	0.21
714.974	0.32
715.154	0.26
715.334	0.33
715.515	0.42
715.695	0.23
715.876	0.25
716.056	0.19
716.236	0.22
716.417	0.23
716.597	0.16
716.777	0.42
716.957	0.2
717.138	0.25
717.318	0.23
717.498	0.17
717.678	0.27
717.859	0.22
718.039	0.12
718.219	0.27
718.399	0.28
718.579	0.2
718.759	0.16
718.939	0.26
719.12	0.27
719.3	0.26
719.48	0.09
719.66	0.09
719.84	0.35
720.02	0.25
720.2	0.1
720.38	0.28
720.56	0.34
720.74	0.2
720.92	0.25
721.1	0.4
721.279	0.28
721.459	0.25
721.639	0.11
721.819	0.18
721.999	0.21
722.179	0.22
722.359	0.1
722.538	0.27
722.718	0.29
722.898	0.19
723.078	0.23
723.257	0.17
723.437	0.27
723.617	0.26
723.797	0.19
723.976	0.27
724.156	0.24
724.336	0.32
724.515	0.4
724.695	0.1
724.874	0.24
725.054	0.26
725.234	0.18
725.413	0.18
725.593	0.22
725.772	0.18
725.952	0.13
726.131	0.18
726.311	0.2
726.49	0.2
726.67	0.11
726.849	0.14
727.028	0.24
727.208	0.11
727.387	0.22
727.567	0.05
727.746	0.24
727.925	0.15
728.105	0.16
728.284	0.14
728.463	0.08
728.643	0.26
728.822	0.13
729.001	0.1
729.18	0.22
729.359	0.29
729.539	0.21
729.718	0.26
729.897	0.31
730.076	0.22
730.255	0.16
730.434	0.25
730.614	0.28
730.793	0.28
730.972	0.14
731.151	0.16
731.33	0.28
731.509	0.3
731.688	0.18
731.867	0.23
732.046	0.02
732.225	0.36
732.404	0.09
732.583	0.04
732.762	0.21
732.941	0.26
733.12	0.28
733.298	0.13
733.477	0.3
733.656	0.17
733.835	0.04
734.014	0.26
734.193	0.2
734.371	0.23
734.55	0.29
734.729	0.07
734.908	0.26
735.086	0.25
735.265	0.27
735.444	-0.01
735.623	0.18
735.801	0.2
735.98	0.16
736.159	0.17
736.337	0.32
736.516	0.19
736.694	0.22
736.873	0.16
737.052	0.29
737.23	0.34
737.409	0.05
737.587	0.42
737.766	0.17
737.944	0.16
738.123	0.23
738.301	0.24
738.479	0.16
738.658	0.21
738.836	-0.07
739.015	0.13
739.193	0.27
739.371	0.11
739.55	0.11
739.728	0.17
739.906	0.4
740.085	0.44
740.263	0.15
740.441	0.03
740.62	0.35
740.798	0.31
740.976	0.09
741.154	0.15
741.332	0.42
741.511	0.21
741.689	0.28
741.867	0.23
742.045	0.18
742.223	0.25
742.401	0.04
742.579	0.14
742.757	0.28
742.935	-0.01
743.114	0.13
743.292	0.17
743.47	0.19
743.648	0.14
743.826	0.28
744.004	0.26
744.181	0.24
744.359	0.13
744.537	0.18
744.715	0.13
744.893	0.25
745.071	0.24
745.249	0.16
745.427	0.22
745.605	0.22
745.782	0.21
745.96	0.26
746.138	0.28
746.316	0.36
746.493	0.13
746.671	0.31
746.849	0.12
747.027	0.35
747.204	0.12
747.382	0.24
747.56	-0.03
747.737	0.14
747.915	0.13
748.093	0.18
748.27	0.08
748.448	0.16
748.625	0.12
748.803	0.08
748.98	0.11
749.158	0.24
749.335	0.32
749.513	0.12
749.69	0.1
749.868	0.17
750.045	0.27
750.223	0.21
750.4	-0.07
750.578	0.33
750.755	0.07
750.932	0.04
751.11	0.42
751.287	-0.08
751.464	0.22
751.642	0.19
751.819	0.24
751.996	0.16
752.173	0.18
752.351	0.02
752.528	0.13
752.705	0.23
752.882	0.02
753.06	0.2
753.237	0.23
753.414	0.38
753.591	0.35
753.768	0.14
753.945	0.19
754.122	0.17
754.299	0.26
754.476	0.01
754.654	0.12
754.831	0.19
755.008	0.34
755.185	0.16
755.362	-0.07
755.539	0.19
755.716	0.12
755.892	0.17
756.069	0.16
756.246	0.15
756.423	0.04
756.6	0.36
756.777	0.2
756.954	0.23
757.131	0.07
757.307	0.15
757.484	0.07
757.661	0.17
757.838	0.14
758.015	-0
758.191	0.19
758.368	0.19
758.545	0.32
758.721	0.18
758.898	0.1
759.075	0.19
759.251	0.26
759.428	0.13
759.605	0.05
759.781	0.2
759.958	0.21
760.134	0.26
760.311	0.1
760.488	0.22
760.664	0.34
760.841	0.2
761.017	0.03
761.194	0.19
761.37	0.25
761.547	0.18
761.723	0.22
761.899	0.29
762.076	0.12
762.252	0.01
762.429	0.21
762.605	0.25
762.781	0.06
762.958	0.24
763.134	0.02
763.31	0.03
763.486	0.23
763.663	-0.05
763.839	0.27
764.015	-0.04
764.191	0.04
764.368	0.14
764.544	0.08
764.72	0.2
764.896	0.22
765.072	0.17
765.248	0.22
765.425	0.1
765.601	0.23
765.777	0.17
765.953	0.01
766.129	0.1
766.305	0.03
766.481	0.18
766.657	0.14
766.833	0.32
767.009	0.06
767.185	-0.08
767.361	0.05
767.537	-0.02
767.713	0.21
767.889	0.11
768.065	0.21
768.24	0.06
768.416	0.23
768.592	0.22
768.768	0
768.944	0.37
769.12	0.09
769.295	0.05
769.471	0.2
769.647	0.08
769.823	0.39
769.998	0.02
770.174	0.1
770.35	0.45
770.525	0.41
770.701	0.24
770.877	0.15
771.052	0.03
771.228	0.31
771.403	0.12
771.579	0.15
771.755	0.4
771.93	0.22
772.106	-0.05
772.281	-0.17
772.457	0.13
772.632	0.28
772.808	-0.05
772.983	-0
773.159	-0.07
773.334	0.32
773.509	0.26
773.685	0.07
773.86	0.57
774.036	0.23
774.211	0.17
774.386	0.05
774.562	0.17
774.737	0.17
774.912	0.05
775.087	0.2
775.263	0.1
775.438	0.13
775.613	0.1
775.788	0.06
775.964	0.28
776.139	0.42
776.314	0
776.489	0.22
776.664	0.04
776.839	-0.12
777.014	0.32
777.19	0.31
777.365	0.43
777.54	0.41
777.715	0.02
777.89	0.28
778.065	0.06
778.24	0.01
778.415	0.34
778.59	0.08
778.765	-0.04
778.94	0.27
779.115	0.1
779.289	0.17
779.464	0.1
779.639	0.11
779.814	0.07
779.989	-0.05
780.164	0.32
780.339	0.19
780.513	-0.11
780.688	-0.05
780.863	0.09
781.038	0.19
781.212	0.04
781.387	0.13
781.562	0.26
781.737	-0.02
781.911	0.37
782.086	0.06
782.261	0.17
782.435	0.44
782.61	0.04
782.784	0.03
782.959	0.42
783.134	0.13
783.308	-0.05
783.483	0.11
783.657	0.46
783.832	0.4
784.006	-0.25
784.181	0.08
784.355	0.33
784.53	-0.08
784.704	-0.21
784.878	0.45
785.053	0.11
785.227	0.63
785.402	0.7
785.576	-0.23
785.75	0.22
785.925	0.15
786.099	0.34
786.273	0.32
786.448	0.41
786.622	0.39
786.796	0.02
786.97	0.21
787.145	0.55
787.319	-0.25
787.493	-0.04
787.667	0.03
787.841	0.15
788.015	0.43
788.19	0.06
788.364	0.21
788.538	0.32
788.712	0.37
788.886	0.12
789.06	0.31
789.234	0.47
789.408	-0.05
789.582	0.23
789.756	-0.15
789.93	-0.15
790.104	0.16
790.278	-0.08
790.452	0.06
790.626	0.15
790.8	0.04
790.973	0.3
791.147	0.38
791.321	0.32
791.495	0.37
791.669	0.29
791.843	0.29
792.016	0.23
792.19	0.53
792.364	-0.28
792.538	0.82
792.711	0.79
792.885	0.1
793.059	-0.08
793.233	-0.01
793.406	0.52
793.58	-0.02
793.754	0.4
793.927	0.22
794.101	0.28
794.274	-0.15
794.448	0.39
794.622	-0.09
794.795	0.66
794.969	-0.15
795.142	0.42
795.316	0.11
795.489	0.09
795.663	0.52
795.836	0.37
796.009	0.03
796.183	0.54
796.356	0.54
796.53	0.21
796.703	0.14
796.876	0.79
797.05	0.14
797.223	0.1
797.396	0.41
797.57	0.31
797.743	0.61
797.916	0.24
798.09	0.11
798.263	0.58
798.436	0.26
798.609	0.06
798.782	0.23
798.956	0.35
799.129	0.08
799.302	-0.08
799.475	0.02
799.648	-0.06
799.821	-0
799.994	0.15
800.167	-0.2
800.34	0.39
800.514	0.03
800.687	0.12
800.86	-0.09
801.033	0.26
801.206	0.13
801.379	-0.23
801.551	0.53
801.724	0.36
801.897	0.53
802.07	0.26
802.243	-0.07
802.416	-0.06
802.589	0.32
802.762	0.31
802.935	0.3
803.107	0.05
803.28	0.62
803.453	0.36
803.626	-0.04
803.798	0.3
803.971	-0.19
804.144	0.29
804.317	0.37
804.489	0.38
804.662	0.28
804.835	0.43
805.007	-0.04
805.18	0.77
805.353	0.18
805.525	-0.27
805.698	-0.18
805.87	0.51
806.043	0.66
806.215	0.04
806.388	-0.04
806.56	0.6
806.733	0.67
806.905	0.37
807.078	-0.12
807.25	-0.18
807.423	0.52
807.595	0.21
807.768	-0.1
807.94	0.43
808.112	0.37
808.285	0.2
808.457	-0.08
808.629	0.22
808.802	0.59
808.974	0.13
809.146	0.31
809.318	-0.02
809.491	0.4
809.663	0.64
809.835	0.37
810.007	0.12
810.18	0.29
810.352	-0.23
810.524	-0.27
810.696	0.52
810.868	0.73
811.04	0.03
811.212	-0.02
811.384	0.22
811.556	0.34
811.728	0.02
811.901	0.87
812.073	0.13
812.245	0.39
812.417	0.12
812.589	-0.32
812.76	0.52
812.932	0.74
813.104	0.92
813.276	0.29
813.448	0.59
813.62	0.37
813.792	0.5
813.964	0.3
814.136	0.38
814.307	0.03
814.479	0.44
814.651	-0.15
814.823	1.03
814.995	-0.01
815.166	0.13
815.338	-0.18
815.51	-0.18
815.681	0.95
815.853	0.22
816.025	-0.14
816.196	0.89
816.368	0.6
816.54	-0.23
816.711	-0.04
816.883	0.37
817.054	1.09
817.226	-0.33
817.398	0.35
817.569	0.05
817.741	0.7
817.912	0.39
818.084	0.27
818.255	0.52
818.426	0.39
818.598	0.25
818.769	-0.36
818.941	0.58
819.112	0.71
819.283	0.2
819.455	0.09
819.626	0.49
819.798	1.01
819.969	0.22
820.14	0.1
820.311	0.32
820.483	0.22
820.654	0.65
820.825	0.06
820.996	0.46
821.168	-0.5
821.339	0.27
821.51	-0.28
821.681	0.01
821.852	-0.12
822.023	0.04
822.195	-0.65
822.366	0.47
822.537	0.53
822.708	0.26
822.879	-0.24
823.05	0.9
823.221	-0.02
823.392	0.97
823.563	0.82
823.734	0.51
823.905	0.12
824.076	-0.09
824.247	-0.19
824.418	0.04
824.589	0.85
824.759	0.48
824.93	-0.02
825.101	-0.43
825.272	0.27
825.443	0.81
825.614	1.08
825.784	-0.26
825.955	1.33
826.126	1.33
826.297	-0.04
826.467	1.07
826.638	1.13
826.809	-0.42
826.98	-0.25
827.15	0.47
827.321	0.33
827.492	1.42
827.662	0.21
827.833	1.75
828.003	1.01
828.174	0.09
828.345	-0.46
828.515	0.93
828.686	-0.03
828.856	0.18
829.027	0.44
829.197	0.45
829.368	1.09
829.538	0.02
829.709	-0.1
829.879	0.92
830.049	0.93
830.22	0.12
830.39	0.45
830.56	0.64
830.731	0.5
830.901	0.13
831.072	0.28
831.242	0.33
831.412	0.19
831.582	-0.19
831.753	-0.4
831.923	0.88
832.093	0.28
832.263	-0.14
832.434	0.14
832.604	0.17
832.774	0.5
832.944	0.55
833.114	-0.32
833.284	1.07
833.454	-0.02
833.624	0.22
833.795	0.16
833.965	1.31
834.135	0.68
834.305	-1.14
834.475	-0.29
834.645	0.49
834.815	0.15
834.985	0.13
835.155	-0.36
835.325	1.07
835.494	0.57
835.664	-0.02
835.834	-0.52
836.004	0.22
836.174	0.65
836.344	0.46
836.514	-0.2
836.684	0.3
836.853	0.31
837.023	0.76
837.193	-0.21
837.363	1.45
837.532	0.36
837.702	0.27
837.872	-0.2
838.041	1.15
838.211	2.18
838.381	-0.58
838.55	0.65
838.72	2.08
838.89	2.04
839.059	-0.37
839.229	-0.67
839.398	1.75
839.568	0.87
839.738	0.41
839.907	1.13
840.077	0.63
840.246	-0.06
840.416	-0.4
840.585	-0.5
840.755	2.16
840.924	0.93
841.093	-0.51
841.263	0.12
841.432	0.28
841.602	-0.47
841.771	-0.26
841.94	0.43
842.11	2.13
842.279	1.45
842.448	-0.53
842.617	-0.61
842.787	1.65
842.956	-0.58
843.125	0.12
843.294	0.16
843.464	1.21
843.633	0.47
843.802	-1.23
843.971	0.14
844.14	0.87
844.309	1.3
844.479	-1.18
844.648	0.08
844.817	-0.44
844.986	1.06
845.155	0.31
845.324	0.31
845.493	0.35
845.662	0.16
845.831	0.41
846	0.88
846.169	0.31
846.338	1.83
846.507	1.09
846.676	0.75
846.844	0.49
847.013	0.42
847.182	0.03
847.351	0.04
847.52	0.73
847.689	0.61
847.858	0.76
848.026	-0.31
848.195	0.23
848.364	-0.51
848.533	-0.13
848.701	0.5
848.87	-0.03
849.039	1.4
849.207	1.48
849.376	2.02
849.545	1.43
849.713	-0.43
849.882	-0.07
850.051	-0.15
850.219	0.95
850.388	1.21
850.556	0.27
850.725	0.45
850.893	1.36
851.062	0.85
851.23	1.61
851.399	-1.01
851.567	-0.05
851.736	-0.23
851.904	-0.88
852.073	0.95
852.241	0.86
852.41	0.81
852.578	0.56
852.746	-0.42
852.915	0.09
853.083	0.07
853.251	-1.14
853.42	0.66
853.588	1.32
853.756	0.43
853.924	0.24
854.093	0.37
854.261	0.1
854.429	-0.33
854.597	0.69
854.765	0
854.934	2
855.102	0.92
855.27	0.72
855.438	1.55
855.606	2.14
855.774	1.5
855.942	-1.57
856.11	-1.4
856.278	0.41
856.446	1.01
856.614	0.96
856.782	-0.67
856.95	2.63
857.118	1.74
857.286	1.68
857.454	0.26
857.622	1.41
857.79	1.28
857.958	-0.9
858.126	0.78
858.294	-1.42
858.462	0.59
858.629	-0.06
858.797	-1.1
858.965	0.77
859.133	0.47
859.301	-0.07
859.468	0.55
859.636	0.22
859.804	2.88
859.971	0.66
860.139	-0.74
860.307	2.15
860.474	1.01
860.642	0.63
860.81	-0.02
860.977	-0.98
861.145	2.2
861.313	0.15
861.48	2.05
861.648	1.12
861.815	0.85
861.983	-0.76
862.15	0.42
862.318	0.25
862.485	2.63
862.653	0.28
862.82	0.83
862.988	1.42
863.155	0.94
863.322	-0.86
863.49	-0.73
863.657	0.44
863.824	1.91
863.992	1.8
864.159	1.52
864.326	0.28
864.494	-0.19
864.661	2.12
864.828	-1.58
864.996	2.07
865.163	3.54
865.33	-0.59
865.497	-0.93
865.664	1.21
865.832	0.18
865.999	0.88
866.166	-1.45
866.333	-0.12
866.5	1.53
866.667	1.19
866.834	1.58
867.001	1.57
867.168	-1.2
867.335	1.54
867.502	-1.46
867.669	0.98
867.836	4.12
868.003	0.31
868.17	0.87
868.337	-1.06
868.504	3.61
868.671	-1.54
868.838	-0.24
869.005	1.11
869.172	2.42
869.339	0.24
869.505	0.66
869.672	-0.17
869.839	3.12
870.006	0.51
870.173	-0.63
870.339	0.18
870.506	4
870.673	-0.49
870.84	0.67
871.006	0.75
871.173	0.03
871.34	1.36
871.506	0.03
871.673	1.69
871.839	-1.57
872.006	0.64
872.173	-0.21
872.339	-0.29
872.506	2.5
872.672	1.7
872.839	-1.88
873.005	1.68
873.172	1.77
873.338	2.07
873.505	1.83
873.671	1.28
873.838	1.14
874.004	-2.53
874.171	-0.29
874.337	1.63
874.503	1.98
874.67	-0.82
874.836	0.23
875.002	3.62
875.169	2.35
875.335	1.5
875.501	0.58
875.668	2.49
875.834	1.97
876	0.32
876.166	2.01
876.332	1.31
876.499	5.36
876.665	-0.29
876.831	1.35
876.997	5.44
877.163	1.25
877.329	-0.14
877.495	1.08
877.662	2.09
877.828	3.46
877.994	1
878.16	-1.4
878.326	0.58
878.492	2
878.658	-1.52
878.824	1.66
878.99	2.44
879.156	0.71
879.322	2.84
879.487	0.88
879.653	0.69
879.819	1.55
879.985	-0.93
880.151	0.39
880.317	1.65
880.483	0.96
880.648	2.02
880.814	-0.33
880.98	1.05
881.146	-1.46
881.312	0.23
881.477	1.15
881.643	1
881.809	2.15
881.974	4.85
882.14	-0.82
882.306	2.83
882.471	2.68
882.637	-0.88
882.803	0.9
882.968	3.28
883.134	4.79
883.299	0.88
883.465	3.91
883.63	1.07
883.796	2.31
883.961	1.08
884.127	2.92
884.292	-3.47
884.458	-2.62
884.623	-2.61
