Data from Apollo_Calib_20240827__AbsoluteIrradiance__346__04-55-01-575.txt Node

Date: Wed Aug 28 04:55:01 BST 2024
User: biology
Spectrometer: FLMT08252
Trigger mode: 0
Integration Time (sec): 5.000000E-1
Scans to average: 5
Electric dark correction enabled: true
Nonlinearity correction enabled: false
Boxcar width: 0
XAxis mode: Wavelengths
Number of Pixels in Spectrum: 3648
>>>>>Begin Spectral Data<<<<<
179.588	-0
179.809	-0
180.03	-0
180.251	-0
180.473	-0
180.694	0
180.915	0
181.136	-0
181.357	0
181.578	0
181.799	-0
182.02	-0
182.241	0
182.462	-0
182.683	0
182.904	-0
183.125	-0
183.346	0
183.567	0
183.788	-0
184.009	-0
184.23	0
184.451	0
184.672	-0
184.892	-0
185.113	0
185.334	0
185.555	-0
185.776	-0
185.996	0
186.217	0
186.438	0
186.659	-0
186.879	0
187.1	0
187.321	-0
187.541	-0
187.762	0
187.983	0
188.203	0
188.424	0
188.644	-0
188.865	0
189.086	-0
189.306	0
189.527	0
189.747	0
189.968	-0
190.188	0
190.409	0
190.629	0
190.849	0
191.07	-0
191.29	0
191.511	0
191.731	-0
191.951	-0
192.172	0
192.392	0
192.612	-0
192.833	0
193.053	0
193.273	0
193.493	-0
193.714	0
193.934	0
194.154	0
194.374	0
194.594	0
194.815	0
195.035	0
195.255	0
195.475	-0
195.695	0
195.915	0
196.135	0
196.355	0
196.575	0
196.795	0
197.015	-0
197.235	-0
197.455	0
197.675	0
197.895	-0
198.115	-0
198.335	0
198.555	0
198.775	0
198.995	0
199.214	0
199.434	0
199.654	-0
199.874	0
200.094	1.12
200.313	0.12
200.533	-0.06
200.753	-0.62
200.973	1.06
201.192	0.55
201.412	-0.24
201.632	0.01
201.851	0.84
202.071	-0.28
202.291	-0.19
202.51	-0.33
202.73	0.5
202.95	0.18
203.169	-0.52
203.389	0.16
203.608	0.13
203.828	-0.05
204.047	0.11
204.267	0.48
204.486	0.2
204.706	0.5
204.925	0.34
205.145	-0.29
205.364	0.48
205.583	0.8
205.803	0.28
206.022	-0.31
206.242	0.22
206.461	0.36
206.68	-0.28
206.9	0.07
207.119	0.89
207.338	0.78
207.557	0.25
207.777	0.02
207.996	0.31
208.215	0.88
208.434	-0.17
208.654	-0.37
208.873	0.36
209.092	0.88
209.311	0.04
209.53	0.26
209.749	0.14
209.968	-0.02
210.187	-0.02
210.407	-0.12
210.626	0.01
210.845	0.61
211.064	0.14
211.283	-0.19
211.502	0.44
211.721	0.16
211.94	0.14
212.159	0.38
212.377	0.53
212.596	0.34
212.815	0.11
213.034	-0.1
213.253	0.59
213.472	0.38
213.691	0.16
213.91	-0.17
214.128	-0.05
214.347	0.55
214.566	-0.17
214.785	-0.3
215.003	0.21
215.222	0.23
215.441	0.24
215.66	-0.16
215.878	0.26
216.097	0.43
216.316	-0.11
216.534	0.08
216.753	0.03
216.972	0.13
217.19	0.04
217.409	-0.03
217.627	0.01
217.846	0
218.064	0.1
218.283	0.06
218.501	0.6
218.72	0.27
218.938	-0.24
219.157	0.06
219.375	0.33
219.594	0.2
219.812	-0.02
220.031	-0.09
220.249	0.44
220.467	0.47
220.686	0.05
220.904	-0.26
221.122	-0.03
221.341	0.53
221.559	0.18
221.777	-0.2
221.995	0.04
222.214	0.11
222.432	-0.03
222.65	0.36
222.868	0.16
223.086	0.15
223.305	0.36
223.523	0.13
223.741	0.32
223.959	-0.05
224.177	-0.17
224.395	-0.08
224.613	0.22
224.831	0.39
225.049	-0.01
225.267	0.16
225.485	0.23
225.703	0.06
225.921	0.1
226.139	0.02
226.357	0.25
226.575	0.19
226.793	0
227.011	0.7
227.229	0.23
227.447	0.32
227.665	0.01
227.883	-0.15
228.1	0.13
228.318	0.25
228.536	-0.16
228.754	-0.15
228.972	0.15
229.189	0.28
229.407	0.02
229.625	0.01
229.843	0.3
230.06	0.04
230.278	-0.03
230.496	0
230.713	0.09
230.931	0.2
231.149	0.05
231.366	-0.04
231.584	0.08
231.801	0.38
232.019	0.04
232.236	-0.01
232.454	-0.06
232.671	0.14
232.889	0
233.106	-0.05
233.324	0.1
233.541	0.01
233.759	0.1
233.976	0.01
234.194	0.13
234.411	0.07
234.628	-0.04
234.846	0.04
235.063	0.09
235.28	0.02
235.498	0.09
235.715	0.03
235.932	0.2
236.149	0.12
236.367	-0.01
236.584	0.13
236.801	0.04
237.018	0.23
237.236	0.04
237.453	-0.02
237.67	0.21
237.887	0.15
238.104	0.01
238.321	-0.03
238.538	0.05
238.755	0.23
238.973	-0.05
239.19	0.12
239.407	0.11
239.624	0.15
239.841	-0.13
240.058	-0.05
240.275	0.16
240.492	0.01
240.709	0.11
240.925	-0.01
241.142	0.17
241.359	0.06
241.576	-0.01
241.793	0.03
242.01	0.09
242.227	0.25
242.444	0.21
242.66	0.13
242.877	0.15
243.094	0.04
243.311	0.08
243.527	0.03
243.744	0.16
243.961	0.12
244.178	-0.08
244.394	0.06
244.611	0.24
244.828	0.29
245.044	-0.04
245.261	0.08
245.477	0.05
245.694	0.27
245.911	0
246.127	0.12
246.344	0.3
246.56	0.18
246.777	0.09
246.993	0.12
247.21	0.11
247.426	0.15
247.643	0.08
247.859	0.04
248.076	0.03
248.292	0.45
248.508	0.01
248.725	0.1
248.941	0.12
249.157	0.21
249.374	-0.02
249.59	-0
249.806	0.12
250.023	0.21
250.239	0.03
250.455	0.03
250.671	0.11
250.888	0.14
251.104	0.09
251.32	-0.03
251.536	0.05
251.752	0.04
251.969	0.06
252.185	0.06
252.401	0.27
252.617	0.1
252.833	-0.05
253.049	0.13
253.265	0.05
253.481	0.04
253.697	0.1
253.913	-0.02
254.129	0.15
254.345	0.11
254.561	0.04
254.777	0.04
254.993	0.11
255.209	0.08
255.425	0.07
255.641	0.04
255.857	0.19
256.073	0.07
256.288	-0.01
256.504	0.03
256.72	0.08
256.936	0.15
257.152	0.06
257.367	-0.01
257.583	-0.01
257.799	0.11
258.015	0.05
258.23	0.04
258.446	0.22
258.662	0.01
258.877	-0.06
259.093	0.01
259.309	0.04
259.524	0.05
259.74	-0.01
259.955	-0.03
260.171	0.09
260.387	0.09
260.602	0.16
260.818	0.09
261.033	-0.03
261.249	-0.01
261.464	0.04
261.68	-0.03
261.895	0.16
262.11	0.12
262.326	0.13
262.541	-0.04
262.757	0.14
262.972	0.09
263.187	0.05
263.403	0.09
263.618	0.11
263.833	0.08
264.049	-0.09
264.264	0.06
264.479	0.15
264.694	0.14
264.91	0.01
265.125	0.12
265.34	0.1
265.555	0.23
265.77	0.12
265.986	0.05
266.201	0.11
266.416	0.11
266.631	0.1
266.846	0.03
267.061	0.12
267.276	0.09
267.491	-0.12
267.706	0.07
267.921	0.12
268.136	0.09
268.351	0.08
268.566	-0.01
268.781	0.13
268.996	0.12
269.211	0.06
269.426	0.02
269.641	0.04
269.856	0.16
270.071	-0.02
270.285	-0.01
270.5	0.14
270.715	0.15
270.93	0.08
271.145	0.07
271.359	0.09
271.574	0.01
271.789	0.05
272.004	0.06
272.218	0.08
272.433	0.17
272.648	-0
272.862	0.14
273.077	0.15
273.292	0.09
273.506	-0.02
273.721	0.04
273.936	0.11
274.15	0.14
274.365	0
274.579	0.12
274.794	0.14
275.008	0.09
275.223	-0.01
275.437	0.01
275.652	0.16
275.866	0.07
276.081	-0.01
276.295	0.11
276.509	0.12
276.724	0.07
276.938	0.05
277.153	0.06
277.367	0.12
277.581	0.09
277.796	0.05
278.01	0
278.224	0.13
278.438	0.14
278.653	0.07
278.867	-0.01
279.081	-0.1
279.295	0.04
279.51	0.09
279.724	0.01
279.938	0.13
280.152	0.13
280.366	-0.01
280.58	0.11
280.794	0.22
281.008	0.08
281.222	0.13
281.437	0.2
281.651	0.14
281.865	0.15
282.079	0.04
282.293	-0.03
282.507	-0.01
282.721	0.11
282.935	0.08
283.148	0.01
283.362	0.02
283.576	0.01
283.79	0.06
284.004	0.03
284.218	0.1
284.432	0.04
284.646	0.09
284.859	0.05
285.073	0.07
285.287	0.05
285.501	0.07
285.714	0.03
285.928	0.1
286.142	0.07
286.356	0.03
286.569	-0.03
286.783	0.19
286.997	0.13
287.21	0.07
287.424	0.12
287.637	0.03
287.851	0.1
288.065	0.08
288.278	0.06
288.492	0.07
288.705	0.04
288.919	0.07
289.132	0.04
289.346	0.08
289.559	-0.03
289.773	0.04
289.986	0.04
290.2	0.09
290.413	0.13
290.626	0.08
290.84	0.05
291.053	0.07
291.267	0.13
291.48	0.12
291.693	0.07
291.906	0.04
292.12	0.09
292.333	0.04
292.546	0.02
292.76	0.2
292.973	0.03
293.186	0.14
293.399	0.08
293.612	0.12
293.826	0.05
294.039	0.06
294.252	0.1
294.465	0.12
294.678	0.11
294.891	0.08
295.104	0.03
295.317	0.08
295.53	0.09
295.743	0.06
295.956	0.06
296.169	0.15
296.382	0.14
296.595	0.07
296.808	0.03
297.021	0.17
297.234	0.07
297.447	0.08
297.66	0.11
297.873	0.09
298.086	0.08
298.299	0.06
298.511	0.01
298.724	0.02
298.937	0.03
299.15	0.03
299.363	0.08
299.575	0.13
299.788	0.08
300.001	0.04
300.213	0.03
300.426	0.03
300.639	0.05
300.852	0.01
301.064	0.09
301.277	0.11
301.489	0.14
301.702	0.14
301.915	0.06
302.127	0.05
302.34	0.09
302.552	0.11
302.765	0.03
302.977	0.16
303.19	0.03
303.402	0.06
303.615	0.03
303.827	0.03
304.04	0.06
304.252	0.16
304.464	0.03
304.677	0.21
304.889	0.12
305.102	0.04
305.314	0.04
305.526	0.15
305.739	0.11
305.951	0.05
306.163	0.07
306.375	0.12
306.588	0.04
306.8	0.04
307.012	0
307.224	0.12
307.436	0.13
307.649	-0
307.861	0.07
308.073	0.1
308.285	0.07
308.497	0.02
308.709	0
308.921	0.07
309.133	0.11
309.346	0.04
309.558	0.04
309.77	0.13
309.982	0.17
310.194	0.11
310.406	0.07
310.617	0.14
310.829	0.09
311.041	0.09
311.253	0.06
311.465	0.06
311.677	0.08
311.889	0.08
312.101	0.05
312.313	0.11
312.524	0.12
312.736	-0
312.948	0.07
313.16	0.16
313.372	0.08
313.583	0.07
313.795	0.07
314.007	0.03
314.218	0.11
314.43	0.05
314.642	0.08
314.853	-0
315.065	0.12
315.277	0.07
315.488	0.11
315.7	0.15
315.912	0.12
316.123	0.02
316.335	0.1
316.546	0.18
316.758	0.07
316.969	0.05
317.181	0.1
317.392	0.1
317.604	0.11
317.815	0.05
318.026	0.05
318.238	0.04
318.449	0.1
318.661	0.03
318.872	0.01
319.083	0.04
319.295	0.08
319.506	0.03
319.717	0.07
319.929	0.09
320.14	0.03
320.351	0.09
320.562	0.03
320.774	0.08
320.985	0.07
321.196	0
321.407	-0.01
321.618	0.11
321.829	0.08
322.041	0.07
322.252	0.08
322.463	0.05
322.674	0.11
322.885	0.03
323.096	0.06
323.307	0.06
323.518	0.13
323.729	0.05
323.94	0.1
324.151	0.07
324.362	0.09
324.573	0.08
324.784	0.07
324.995	0.17
325.206	0.08
325.417	0.05
325.628	0.06
325.838	0.04
326.049	0.15
326.26	0.09
326.471	0.05
326.682	0.12
326.892	0.09
327.103	-0.01
327.314	0.02
327.525	0.16
327.735	0.08
327.946	0.07
328.157	0.1
328.368	0.12
328.578	0.03
328.789	0.12
328.999	0.1
329.21	0.02
329.421	0.11
329.631	0.02
329.842	-0
330.052	0.12
330.263	0.12
330.473	0.09
330.684	0.07
330.894	0.06
331.105	0.06
331.315	0.07
331.526	-0.03
331.736	0.17
331.947	0.08
332.157	0.07
332.367	0.01
332.578	0.14
332.788	0.17
332.999	0.09
333.209	0.08
333.419	-0
333.629	0.13
333.84	0.11
334.05	0.08
334.26	0.12
334.47	0.09
334.681	0.13
334.891	0.05
335.101	0.14
335.311	0.11
335.521	0.06
335.732	-0.01
335.942	0.15
336.152	0.11
336.362	0.09
336.572	0.09
336.782	0.14
336.992	0.06
337.202	0.09
337.412	0.02
337.622	0.11
337.832	0.11
338.042	0.1
338.252	0.01
338.462	0.07
338.672	0.09
338.882	0.08
339.092	0.08
339.302	0.16
339.511	0.13
339.721	0.04
339.931	0.05
340.141	0.14
340.351	0.16
340.561	0.08
340.77	0.08
340.98	0.1
341.19	0.06
341.4	0.04
341.609	-0.02
341.819	0.07
342.029	0.02
342.238	0.08
342.448	0.1
342.658	0.12
342.867	0.06
343.077	0.07
343.286	0.06
343.496	0.1
343.706	0.15
343.915	0.01
344.125	0.05
344.334	0.11
344.544	0
344.753	0.06
344.963	0.05
345.172	0.03
345.381	0.05
345.591	0.04
345.8	0.06
346.01	0.08
346.219	0.15
346.428	-0.06
346.638	0.07
346.847	0.09
347.056	0.15
347.266	0.02
347.475	0.06
347.684	0.12
347.893	0.09
348.103	0.1
348.312	0.08
348.521	0.09
348.73	0.07
348.94	0.12
349.149	0.07
349.358	0.08
349.567	0.06
349.776	0.03
349.985	0.08
350.194	0.16
350.403	0.13
350.612	0
350.821	0.01
351.03	0.06
351.239	0.02
351.448	0.09
351.657	0.04
351.866	0.14
352.075	0.09
352.284	0.08
352.493	0
352.702	0.14
352.911	0.07
353.12	0.07
353.329	0.05
353.538	0.08
353.746	0.09
353.955	0.07
354.164	0.07
354.373	0.07
354.582	0.1
354.79	0.04
354.999	0.11
355.208	0.09
355.416	0.15
355.625	0.02
355.834	0.05
356.042	0.08
356.251	0.06
356.46	0.02
356.668	0.12
356.877	0.19
357.085	0.11
357.294	-0.01
357.503	0.08
357.711	0.06
357.92	0.19
358.128	0.1
358.337	0.07
358.545	0.13
358.754	0.04
358.962	0.08
359.17	0.05
359.379	0.11
359.587	0.11
359.796	0.1
360.004	0.12
360.212	0.08
360.421	0.09
360.629	0.06
360.837	0.05
361.046	0.07
361.254	0.12
361.462	0.06
361.67	0.06
361.879	0.09
362.087	0.15
362.295	0.07
362.503	0.04
362.711	-0.03
362.92	0.03
363.128	0.04
363.336	0.03
363.544	-0
363.752	0.05
363.96	0.02
364.168	0.05
364.376	0.09
364.584	0.09
364.792	0.12
365	0.14
365.208	0.09
365.416	0.1
365.624	0.09
365.832	0.06
366.04	0.15
366.248	0.1
366.456	0.1
366.664	0.1
366.872	0.06
367.079	0.09
367.287	0.07
367.495	0.1
367.703	0.05
367.911	0.06
368.118	0.08
368.326	0.1
368.534	0.06
368.742	0.11
368.949	0.01
369.157	0.02
369.365	0.09
369.572	0.09
369.78	0.06
369.988	0.09
370.195	0.09
370.403	0.15
370.61	-0.02
370.818	0.08
371.026	0.12
371.233	0.04
371.441	0.08
371.648	0.06
371.856	0.07
372.063	0.12
372.271	0.06
372.478	0.04
372.685	0.04
372.893	0.11
373.1	0.08
373.308	0.06
373.515	0.15
373.722	0.12
373.93	0.07
374.137	0.07
374.344	0.16
374.552	0.15
374.759	0.09
374.966	0.06
375.173	0.07
375.381	0.08
375.588	0.09
375.795	0.01
376.002	0.04
376.209	0.04
376.417	0.1
376.624	0.07
376.831	0.1
377.038	0.06
377.245	0.03
377.452	0.05
377.659	0.07
377.866	0.08
378.073	0.08
378.28	0.07
378.487	0.11
378.694	0.07
378.901	0.08
379.108	0.08
379.315	0.14
379.522	0.13
379.729	0.09
379.936	0.07
380.143	0.05
380.35	0.09
380.557	0.06
380.763	0.09
380.97	0.12
381.177	0.09
381.384	0.06
381.591	0.04
381.797	0.11
382.004	0.11
382.211	0.12
382.418	0.1
382.624	0.1
382.831	0.12
383.038	0.06
383.244	0.08
383.451	0.08
383.658	0.12
383.864	0.06
384.071	0.09
384.277	0.14
384.484	0.06
384.69	0.1
384.897	0.07
385.103	0.05
385.31	0.08
385.516	0.09
385.723	0.07
385.929	0.1
386.136	0.08
386.342	0.1
386.549	0.05
386.755	0.18
386.961	0.1
387.168	0.05
387.374	0.08
387.58	0.11
387.787	0.1
387.993	0.09
388.199	0.08
388.406	0.08
388.612	0.08
388.818	0.08
389.024	0.05
389.231	0.1
389.437	0.14
389.643	0.09
389.849	0.1
390.055	0.08
390.261	0.09
390.467	0.1
390.674	0.08
390.88	0.07
391.086	0.16
391.292	0.03
391.498	0.17
391.704	0.1
391.91	0.1
392.116	0.06
392.322	-0.01
392.528	0.12
392.734	0.08
392.94	0.12
393.146	0.06
393.352	0.08
393.557	0.06
393.763	0.09
393.969	0.14
394.175	0.08
394.381	0.12
394.587	0.05
394.792	0.07
394.998	0.15
395.204	0.13
395.41	0.04
395.615	0.13
395.821	0.14
396.027	0.11
396.233	0.06
396.438	0.13
396.644	0.19
396.85	0.11
397.055	0.11
397.261	0.12
397.466	0.06
397.672	0.13
397.878	0.15
398.083	0.11
398.289	0.06
398.494	0.14
398.7	0.2
398.905	0.05
399.111	0.16
399.316	0.02
399.522	0.12
399.727	0.11
399.932	0.11
400.138	0.12
400.343	0.15
400.549	0.13
400.754	0.1
400.959	0.15
401.165	0.12
401.37	0.12
401.575	0.24
401.78	0.12
401.986	0.09
402.191	0.09
402.396	0.09
402.601	0.13
402.807	0.17
403.012	0.14
403.217	0.2
403.422	0.12
403.627	0.15
403.832	0.09
404.037	0.19
404.243	0.18
404.448	0.12
404.653	0.11
404.858	0.18
405.063	0.2
405.268	0.08
405.473	0.09
405.678	0.09
405.883	0.3
406.088	0.19
406.293	0.1
406.498	0.17
406.703	0.2
406.907	0.14
407.112	0.14
407.317	0.16
407.522	0.19
407.727	0.09
407.932	0.21
408.136	0.29
408.341	0.15
408.546	0.17
408.751	0.2
408.956	0.15
409.16	0.25
409.365	0.23
409.57	0.17
409.774	0.22
409.979	0.26
410.184	0.19
410.388	0.2
410.593	0.29
410.798	0.27
411.002	0.21
411.207	0.31
411.411	0.24
411.616	0.21
411.82	0.29
412.025	0.3
412.229	0.29
412.434	0.37
412.638	0.34
412.843	0.31
413.047	0.34
413.252	0.28
413.456	0.33
413.66	0.43
413.865	0.33
414.069	0.43
414.273	0.38
414.478	0.38
414.682	0.4
414.886	0.42
415.091	0.36
415.295	0.4
415.499	0.51
415.703	0.46
415.908	0.5
416.112	0.45
416.316	0.6
416.52	0.56
416.724	0.55
416.929	0.59
417.133	0.75
417.337	0.64
417.541	0.61
417.745	0.68
417.949	0.76
418.153	0.77
418.357	0.74
418.561	0.9
418.765	0.83
418.969	0.99
419.173	0.91
419.377	0.97
419.581	1.09
419.785	1
419.989	1.07
420.193	1.1
420.397	1.19
420.601	1.32
420.804	1.28
421.008	1.33
421.212	1.43
421.416	1.44
421.62	1.43
421.823	1.5
422.027	1.56
422.231	1.56
422.435	1.55
422.638	1.63
422.842	1.69
423.046	1.73
423.249	1.85
423.453	1.86
423.657	1.98
423.86	2.03
424.064	2.11
424.268	2.28
424.471	2.23
424.675	2.37
424.878	2.4
425.082	2.51
425.285	2.69
425.489	2.68
425.692	2.7
425.896	2.73
426.099	3
426.303	2.99
426.506	3.09
426.71	3.32
426.913	3.38
427.116	3.53
427.32	3.57
427.523	3.65
427.726	3.83
427.93	3.91
428.133	4.19
428.336	4.2
428.54	4.34
428.743	4.44
428.946	4.68
429.149	4.71
429.353	4.77
429.556	4.76
429.759	4.93
429.962	4.94
430.165	5.17
430.368	4.95
430.571	5
430.775	5.07
430.978	5.01
431.181	5.1
431.384	5.29
431.587	5.28
431.79	5.52
431.993	5.61
432.196	5.76
432.399	6
432.602	6.13
432.805	6.19
433.008	6.63
433.211	6.53
433.414	6.84
433.616	6.92
433.819	6.82
434.022	6.96
434.225	7.23
434.428	7.2
434.631	7.67
434.833	7.41
435.036	7.78
435.239	7.83
435.442	8.03
435.645	7.97
435.847	8.14
436.05	8.51
436.253	8.73
436.455	8.73
436.658	8.64
436.861	9.03
437.063	9.09
437.266	9.22
437.468	9.51
437.671	9.88
437.874	9.89
438.076	9.86
438.279	10.4
438.481	10.5
438.684	11.15
438.886	10.91
439.089	11.3
439.291	11.37
439.494	11.75
439.696	12.04
439.899	12.56
440.101	13.13
440.303	13.31
440.506	14.07
440.708	14.15
440.91	14.32
441.113	14.78
441.315	15.12
441.517	15.06
441.72	15.69
441.922	15.49
442.124	15.55
442.326	16.2
442.529	16.48
442.731	16.7
442.933	17.11
443.135	17.1
443.337	17.34
443.539	18
443.742	17.9
443.944	18.66
444.146	18.56
444.348	18.67
444.55	18.75
444.752	19.16
444.954	19.38
445.156	19.48
445.358	20.09
445.56	20.52
445.762	20.47
445.964	20.96
446.166	20.92
446.368	20.91
446.57	21.18
446.772	20.99
446.974	20.8
447.175	21.25
447.377	21.06
447.579	21.59
447.781	21.34
447.983	21.16
448.184	20.78
448.386	21.25
448.588	21.04
448.79	20.76
448.991	21.47
449.193	21.52
449.395	20.7
449.597	20.1
449.798	20.08
450	19.6
450.202	19.55
450.403	19.54
450.605	19.37
450.806	18.96
451.008	18.97
451.21	18.51
451.411	17.91
451.613	17.08
451.814	17.24
452.016	17.24
452.217	16.29
452.419	16.36
452.62	15.85
452.821	15.77
453.023	15.46
453.224	14.86
453.426	14.38
453.627	13.4
453.828	13.58
454.03	13.57
454.231	13.48
454.432	13.26
454.634	12.83
454.835	12.42
455.036	12.32
455.238	11.79
455.439	11.38
455.64	11.24
455.841	10.91
456.042	11.05
456.244	10.68
456.445	10.31
456.646	9.92
456.847	9.79
457.048	9.63
457.249	9.63
457.45	9.36
457.651	8.61
457.852	8.56
458.054	8.14
458.255	8.13
458.456	8.22
458.657	8.02
458.858	7.51
459.058	7.51
459.259	7.53
459.46	7.2
459.661	7.06
459.862	7.14
460.063	7.03
460.264	6.86
460.465	6.67
460.666	6.63
460.866	6.37
461.067	6.07
461.268	6.07
461.469	5.89
461.67	5.83
461.87	5.61
462.071	5.52
462.272	5.47
462.473	5.4
462.673	5.64
462.874	5.4
463.075	5.36
463.275	5.3
463.476	5.42
463.676	5.33
463.877	5.16
464.078	4.96
464.278	5.04
464.479	4.9
464.679	4.71
464.88	4.65
465.08	4.59
465.281	4.41
465.481	4.18
465.682	3.92
465.882	4.05
466.083	3.89
466.283	3.82
466.483	3.65
466.684	3.47
466.884	3.28
467.085	3.33
467.285	3.38
467.485	3.2
467.686	3.09
467.886	2.9
468.086	2.92
468.286	2.88
468.487	2.9
468.687	2.71
468.887	2.65
469.087	2.72
469.287	2.6
469.488	2.42
469.688	2.54
469.888	2.48
470.088	2.42
470.288	2.26
470.488	2.22
470.688	2.12
470.888	2.11
471.088	1.97
471.288	1.98
471.488	1.94
471.688	1.9
471.888	1.86
472.088	1.94
472.288	1.85
472.488	1.73
472.688	1.66
472.888	1.66
473.088	1.62
473.288	1.56
473.488	1.51
473.688	1.57
473.887	1.53
474.087	1.43
474.287	1.46
474.487	1.31
474.687	1.38
474.886	1.31
475.086	1.28
475.286	1.27
475.486	1.25
475.685	1.19
475.885	1.17
476.085	1.2
476.284	1.14
476.484	1.16
476.684	1.1
476.883	1.14
477.083	1.07
477.282	0.98
477.482	1.09
477.681	0.99
477.881	0.99
478.08	0.93
478.28	0.89
478.479	0.91
478.679	1
478.878	0.86
479.078	0.82
479.277	0.84
479.477	0.8
479.676	0.84
479.875	0.81
480.075	0.71
480.274	0.77
480.473	0.79
480.673	0.72
480.872	0.75
481.071	0.76
481.271	0.74
481.47	0.65
481.669	0.65
481.868	0.62
482.067	0.61
482.267	0.57
482.466	0.58
482.665	0.54
482.864	0.55
483.063	0.51
483.262	0.57
483.461	0.57
483.661	0.54
483.86	0.53
484.059	0.52
484.258	0.51
484.457	0.47
484.656	0.49
484.855	0.51
485.054	0.4
485.253	0.39
485.452	0.37
485.651	0.41
485.849	0.4
486.048	0.39
486.247	0.36
486.446	0.4
486.645	0.32
486.844	0.33
487.043	0.33
487.241	0.39
487.44	0.31
487.639	0.32
487.838	0.32
488.037	0.29
488.235	0.38
488.434	0.32
488.633	0.28
488.831	0.32
489.03	0.31
489.229	0.28
489.427	0.26
489.626	0.28
489.825	0.3
490.023	0.29
490.222	0.23
490.42	0.28
490.619	0.26
490.817	0.23
491.016	0.22
491.214	0.28
491.413	0.22
491.611	0.19
491.81	0.22
492.008	0.22
492.207	0.22
492.405	0.22
492.604	0.15
492.802	0.2
493	0.2
493.199	0.17
493.397	0.18
493.595	0.18
493.794	0.18
493.992	0.21
494.19	0.16
494.388	0.19
494.587	0.16
494.785	0.2
494.983	0.13
495.181	0.16
495.379	0.16
495.578	0.15
495.776	0.17
495.974	0.18
496.172	0.11
496.37	0.11
496.568	0.11
496.766	0.13
496.964	0.15
497.162	0.15
497.36	0.11
497.558	0.14
497.756	0.16
497.954	0.13
498.152	0.09
498.35	0.12
498.548	0.11
498.746	0.14
498.944	0.11
499.142	0.09
499.34	0.09
499.538	0.12
499.736	0.08
499.933	0.15
500.131	0.15
500.329	0.09
500.527	0.14
500.725	0.13
500.922	0.14
501.12	0.11
501.318	0.1
501.516	0.08
501.713	0.12
501.911	0.09
502.109	0.07
502.306	0.12
502.504	0.09
502.701	0.09
502.899	0.1
503.097	0.12
503.294	0.12
503.492	0.08
503.689	0.1
503.887	0.08
504.084	0.15
504.282	0.12
504.479	0.05
504.677	0.11
504.874	0.05
505.072	0.07
505.269	0.07
505.466	0.11
505.664	0.09
505.861	0.05
506.059	0.07
506.256	0.11
506.453	0.07
506.651	0.14
506.848	0.1
507.045	0.08
507.242	0.07
507.44	0.05
507.637	0.05
507.834	0.08
508.031	0.1
508.229	0.03
508.426	0.05
508.623	0.09
508.82	0.07
509.017	0.03
509.214	0.06
509.411	0.08
509.608	0.04
509.805	0.05
510.003	0.05
510.2	0.04
510.397	0.1
510.594	0.05
510.791	0.04
510.988	0.05
511.184	0.08
511.381	0.04
511.578	0.05
511.775	0.09
511.972	0.01
512.169	0.06
512.366	0.04
512.563	0.07
512.76	0.06
512.956	0.08
513.153	0.05
513.35	0.08
513.547	0.04
513.744	0.03
513.94	0.05
514.137	0.05
514.334	0.04
514.53	0.05
514.727	0.05
514.924	0.11
515.12	0.04
515.317	0.01
515.514	0.03
515.71	0.02
515.907	0.06
516.103	0.05
516.3	0.05
516.497	0.06
516.693	0.07
516.89	0.05
517.086	0.02
517.283	0.06
517.479	0.07
517.676	0.06
517.872	0.05
518.068	0.03
518.265	0.05
518.461	0.03
518.658	0.01
518.854	0.06
519.05	0.02
519.247	0.03
519.443	0.07
519.639	0.07
519.836	0.04
520.032	0.05
520.228	0.03
520.424	0.1
520.621	0.06
520.817	0.05
521.013	0.08
521.209	0.06
521.405	0.1
521.601	0.06
521.798	0.04
521.994	0.09
522.19	0.03
522.386	0
522.582	0.04
522.778	0.05
522.974	0.05
523.17	0.05
523.366	0.04
523.562	0.07
523.758	0.04
523.954	0.01
524.15	0.03
524.346	0.07
524.542	0.02
524.738	0.02
524.934	0.03
525.129	0.02
525.325	0.06
525.521	0.06
525.717	0.06
525.913	0.04
526.109	0.06
526.304	0.03
526.5	0.05
526.696	0.08
526.892	0.05
527.087	0.04
527.283	0.03
527.479	0.06
527.674	-0
527.87	0.02
528.066	0.03
528.261	0.07
528.457	0.03
528.653	0.03
528.848	0.03
529.044	0.05
529.239	0.02
529.435	0.07
529.63	0.03
529.826	0.08
530.021	0.06
530.217	0.06
530.412	0.03
530.608	0.04
530.803	0.04
530.999	0.03
531.194	-0.02
531.389	0.03
531.585	-0.01
531.78	0.06
531.975	0.05
532.171	0.05
532.366	0.05
532.561	0.02
532.757	0.01
532.952	0.05
533.147	0.05
533.342	0.02
533.538	0.04
533.733	0.06
533.928	0.03
534.123	0.03
534.318	-0
534.513	0.02
534.709	0.03
534.904	0.01
535.099	0.03
535.294	0.04
535.489	0.06
535.684	0.01
535.879	0.01
536.074	0.06
536.269	0.01
536.464	0.04
536.659	0.04
536.854	0.03
537.049	0.05
537.244	0.04
537.439	0.02
537.634	0.06
537.828	0.03
538.023	0.02
538.218	0.01
538.413	0.02
538.608	0.01
538.803	0.05
538.997	0.02
539.192	0.03
539.387	0.05
539.582	0.03
539.776	0.04
539.971	0.02
540.166	0.04
540.36	0.01
540.555	0.02
540.75	0.01
540.944	0.04
541.139	-0.01
541.334	0.03
541.528	0.07
541.723	0.05
541.917	0.04
542.112	-0.02
542.306	0.01
542.501	0.02
542.695	0.02
542.89	0
543.084	0.02
543.279	0.01
543.473	-0.01
543.668	0.01
543.862	0.03
544.056	0.04
544.251	0.02
544.445	0.02
544.64	0.02
544.834	-0
545.028	0.02
545.222	0.03
545.417	0.07
545.611	0.04
545.805	0.02
546	0.02
546.194	0.02
546.388	0.03
546.582	0.03
546.776	0.01
546.97	0.04
547.165	0.04
547.359	0.06
547.553	0
547.747	0.04
547.941	0.05
548.135	0.04
548.329	0.07
548.523	0.05
548.717	0.04
548.911	-0.01
549.105	0.03
549.299	0.04
549.493	0.03
549.687	0.04
549.881	0.03
550.075	-0
550.269	-0.01
550.463	0.05
550.657	0.02
550.85	0.03
551.044	0.01
551.238	0.02
551.432	0
551.626	0
551.82	0.05
552.013	-0
552.207	0.01
552.401	0.06
552.594	0.03
552.788	0.03
552.982	0.03
553.176	0.02
553.369	0.05
553.563	0.02
553.756	-0.03
553.95	0.02
554.144	0.02
554.337	0.03
554.531	0.04
554.724	0.03
554.918	0.01
555.111	0.05
555.305	0.02
555.498	0.06
555.692	0.03
555.885	0.01
556.079	0.02
556.272	-0
556.466	0.04
556.659	0.03
556.852	0
557.046	0.01
557.239	0.07
557.432	0.02
557.626	0.02
557.819	0.02
558.012	0.06
558.206	0.05
558.399	0.04
558.592	0.03
558.785	0
558.979	0.05
559.172	0.04
559.365	0.06
559.558	0.03
559.751	0.02
559.944	0.01
560.138	0.03
560.331	0.03
560.524	0.01
560.717	0.03
560.91	0
561.103	0.03
561.296	0.01
561.489	0.03
561.682	0.04
561.875	0.06
562.068	0.04
562.261	0.06
562.454	0.05
562.647	0.05
562.84	0.05
563.032	-0
563.225	0.05
563.418	0.02
563.611	0.02
563.804	0.03
563.997	0.01
564.19	-0.02
564.382	0.04
564.575	0.02
564.768	0.04
564.961	0.02
565.153	0.01
565.346	0.04
565.539	0.05
565.731	0.04
565.924	0.06
566.117	0.03
566.309	0.02
566.502	-0.02
566.695	0.02
566.887	0.02
567.08	0.01
567.272	0.02
567.465	0.01
567.657	0.02
567.85	0.06
568.042	0.05
568.235	0.06
568.427	0.01
568.62	0.03
568.812	0.03
569.005	0.02
569.197	-0.02
569.389	0.02
569.582	0.03
569.774	0.01
569.966	0.01
570.159	-0.02
570.351	0.04
570.543	0
570.736	0.02
570.928	-0.01
571.12	0.03
571.312	0.02
571.505	-0.01
571.697	0.06
571.889	-0.02
572.081	0.01
572.273	0
572.465	0.05
572.658	0.01
572.85	0.03
573.042	0
573.234	0.03
573.426	0.06
573.618	-0
573.81	0.02
574.002	0.06
574.194	0.06
574.386	0
574.578	-0.03
574.77	0
574.962	0.03
575.154	-0.02
575.346	0.02
575.538	0.04
575.729	-0.02
575.921	0.03
576.113	-0.01
576.305	0.03
576.497	0.02
576.689	0
576.88	0.01
577.072	0.06
577.264	0.01
577.456	0
577.647	-0.06
577.839	0.02
578.031	0.07
578.223	-0.02
578.414	-0.02
578.606	0.04
578.798	0.03
578.989	-0.01
579.181	0.03
579.372	0.02
579.564	0
579.755	0.05
579.947	0.02
580.139	0.07
580.33	-0.03
580.522	0
580.713	-0.06
580.905	0.02
581.096	0.04
581.287	0
581.479	0.02
581.67	0.05
581.862	0.03
582.053	0.01
582.244	-0.05
582.436	0.03
582.627	0.02
582.818	-0.02
583.01	-0.02
583.201	0.06
583.392	0.02
583.583	0.02
583.775	0.02
583.966	0
584.157	0.02
584.348	0.03
584.54	-0
584.731	0.02
584.922	0
585.113	-0.03
585.304	-0
585.495	0.03
585.686	-0
585.877	0.03
586.068	0.01
586.259	0.03
586.45	0.03
586.641	-0.01
586.832	-0.03
587.023	0.03
587.214	0.02
587.405	0.01
587.596	-0.01
587.787	0.05
587.978	0.04
588.169	-0.01
588.36	-0.01
588.551	0.04
588.742	-0
588.932	0.04
589.123	0.02
589.314	0.05
589.505	0.03
589.696	0.01
589.886	-0.02
590.077	-0.02
590.268	0.02
590.458	-0.01
590.649	-0.04
590.84	0.07
591.03	0.01
591.221	-0.02
591.412	-0.02
591.602	0.03
591.793	0.04
591.984	-0.01
592.174	0
592.365	0.08
592.555	0.01
592.746	0.01
592.936	0.06
593.127	0.03
593.317	0.07
593.508	0.01
593.698	0.01
593.889	0.02
594.079	0.02
594.269	-0.01
594.46	0.02
594.65	0.02
594.84	0.02
595.031	-0.01
595.221	0.02
595.411	-0.06
595.602	0.05
595.792	0
595.982	-0.01
596.172	0.04
596.363	0.05
596.553	0.04
596.743	0.01
596.933	-0.02
597.123	0.05
597.314	0.02
597.504	-0
597.694	0.07
597.884	0.03
598.074	0
598.264	-0.01
598.454	0.04
598.644	0.04
598.834	-0.01
599.024	-0.06
599.214	-0.01
599.404	0.05
599.594	-0.01
599.784	-0
599.974	0.06
600.164	0.05
600.354	-0.01
600.544	-0.01
600.734	0.02
600.924	0.07
601.114	-0.02
601.303	0.01
601.493	0.05
601.683	0.01
601.873	0
602.063	-0.02
602.252	0.05
602.442	-0.02
602.632	0.01
602.821	-0.03
603.011	0.06
603.201	-0.02
603.39	-0.03
603.58	-0
603.77	0.06
603.959	0.08
604.149	0.03
604.339	0.01
604.528	0.06
604.718	0.02
604.907	0.01
605.097	0.01
605.286	-0
605.476	0.04
605.665	0.01
605.855	-0
606.044	0.08
606.234	0.03
606.423	0.01
606.612	-0.04
606.802	0
606.991	0.06
607.181	0.03
607.37	-0.03
607.559	-0
607.749	-0.03
607.938	0.02
608.127	-0.02
608.316	-0.01
608.506	0.03
608.695	0.02
608.884	-0
609.073	0.02
609.263	0.03
609.452	0.05
609.641	0.06
609.83	-0
610.019	0.02
610.208	0
610.397	0.02
610.586	0.03
610.775	-0.01
610.965	-0.02
611.154	-0
611.343	0.04
611.532	0.04
611.721	-0.03
611.91	-0.01
612.099	0.03
612.287	-0
612.476	-0.02
612.665	0.02
612.854	-0
613.043	0.04
613.232	-0.01
613.421	-0.03
613.61	0.01
613.798	0
613.987	0.05
614.176	-0.01
614.365	0.04
614.554	0.01
614.742	0.02
614.931	-0.03
615.12	0.06
615.309	0.02
615.497	0.03
615.686	-0.01
615.875	-0.01
616.063	0.04
616.252	-0
616.44	0
616.629	0.03
616.818	0.05
617.006	-0.02
617.195	0.03
617.383	0.04
617.572	-0
617.76	-0.01
617.949	-0
618.137	0.02
618.326	0.04
618.514	-0.03
618.703	-0.02
618.891	0.08
619.079	-0.07
619.268	0.04
619.456	-0.01
619.644	0.05
619.833	0.02
620.021	0
620.209	-0.03
620.398	0.04
620.586	0.03
620.774	0.05
620.962	0.02
621.151	0.07
621.339	0.02
621.527	-0.03
621.715	-0.04
621.903	-0.02
622.092	-0.04
622.28	0.02
622.468	0.02
622.656	0.04
622.844	0.04
623.032	-0.01
623.22	0
623.408	0.05
623.596	0.04
623.784	0.05
623.972	-0.04
624.16	-0.01
624.348	0.1
624.536	0.01
624.724	-0.01
624.912	0.05
625.1	0.04
625.288	0
625.476	-0.02
625.664	0.05
625.851	-0.03
626.039	0.03
626.227	0.04
626.415	0.02
626.603	-0.07
626.79	0.01
626.978	-0.01
627.166	0.01
627.354	0.01
627.541	-0.02
627.729	-0.07
627.917	0.06
628.104	0.05
628.292	0.04
628.48	0.01
628.667	0.01
628.855	0.03
629.042	0.04
629.23	-0.02
629.418	0.03
629.605	0.01
629.793	-0.01
629.98	-0.02
630.168	0.01
630.355	0.02
630.543	0.02
630.73	-0.01
630.917	0.01
631.105	0.09
631.292	-0.01
631.48	-0.01
631.667	0.08
631.854	0.03
632.042	-0.01
632.229	-0.04
632.416	0.04
632.604	0.01
632.791	-0.02
632.978	0.04
633.165	0.02
633.353	0.09
633.54	0.07
633.727	-0.05
633.914	-0.03
634.101	-0.06
634.289	0.06
634.476	-0
634.663	-0.02
634.85	0.03
635.037	-0.03
635.224	-0.06
635.411	0.05
635.598	0.02
635.785	0.01
635.972	0.02
636.159	0.06
636.346	-0.01
636.533	0.03
636.72	-0.01
636.907	-0.02
637.094	0.04
637.281	-0.01
637.468	0.05
637.655	-0.02
637.842	-0.02
638.029	-0.01
638.215	0.03
638.402	0.05
638.589	0
638.776	-0.02
638.963	-0.01
639.149	0.05
639.336	0.08
639.523	-0
639.709	-0.01
639.896	-0.01
640.083	0.06
640.27	0.02
640.456	-0.01
640.643	0.04
640.829	-0.04
641.016	0.01
641.203	-0.06
641.389	0.01
641.576	0.03
641.762	-0.03
641.949	-0.02
642.135	0.02
642.322	0.01
642.508	-0.02
642.695	-0.02
642.881	-0.02
643.068	0
643.254	-0.02
643.441	0.02
643.627	-0.01
643.813	-0.02
644	0.07
644.186	0
644.372	0.04
644.559	0.03
644.745	-0.04
644.931	0
645.118	0.02
645.304	-0.02
645.49	0.01
645.676	-0.02
645.862	0.05
646.049	0.05
646.235	-0.01
646.421	0.09
646.607	0.05
646.793	0.01
646.979	-0.02
647.165	0.03
647.352	0.02
647.538	0.06
647.724	-0
647.91	0.04
648.096	0.05
648.282	0.04
648.468	-0
648.654	0.02
648.84	0.01
649.026	0.02
649.212	-0
649.397	-0.03
649.583	0
649.769	0.02
649.955	0.02
650.141	0.01
650.327	0.04
650.513	-0.02
650.698	0.05
650.884	-0.08
651.07	0.06
651.256	-0
651.442	0.01
651.627	0.01
651.813	0.05
651.999	0.03
652.184	0.05
652.37	0.03
652.556	-0.01
652.741	0.07
652.927	-0.05
653.113	0
653.298	0.01
653.484	-0.01
653.669	-0.03
653.855	0.02
654.04	0.03
654.226	0.01
654.412	-0.02
654.597	-0.04
654.782	0.04
654.968	0.04
655.153	0.04
655.339	-0.02
655.524	-0.05
655.71	0.04
655.895	0
656.08	-0.01
656.266	0.07
656.451	0.02
656.636	-0.03
656.822	0.01
657.007	-0
657.192	-0.02
657.378	-0.04
657.563	0.01
657.748	0.04
657.933	0.02
658.118	-0.02
658.304	-0
658.489	0.02
658.674	0.02
658.859	-0.03
659.044	0.04
659.229	0.03
659.414	-0.01
659.599	-0
659.785	-0.04
659.97	-0.03
660.155	0.01
660.34	0.02
660.525	-0.02
660.71	-0.03
660.895	0.06
661.08	-0
661.264	-0
661.449	0.07
661.634	0.03
661.819	-0
662.004	0.04
662.189	-0.07
662.374	-0.03
662.559	-0.04
662.743	-0.03
662.928	0.01
663.113	-0.04
663.298	-0.05
663.483	-0.01
663.667	0.02
663.852	-0.05
664.037	0.03
664.221	0
664.406	0.06
664.591	0.04
664.775	0.03
664.96	-0.07
665.145	0.05
665.329	0.06
665.514	0.03
665.698	0
665.883	-0.04
666.068	0.1
666.252	0.05
666.437	-0.03
666.621	-0.01
666.806	0.06
666.99	0
667.174	-0.03
667.359	0.07
667.543	-0
667.728	0
667.912	-0.08
668.096	0.03
668.281	0.02
668.465	-0.01
668.649	0.02
668.834	-0.01
669.018	0.02
669.202	-0.02
669.387	-0.06
669.571	0.06
669.755	-0.01
669.939	0
670.124	-0.01
670.308	0.08
670.492	0.06
670.676	0.04
670.86	0.02
671.044	-0.01
671.228	0.04
671.413	-0.01
671.597	-0.04
671.781	-0.02
671.965	0
672.149	0.01
672.333	0.02
672.517	-0
672.701	0.04
672.885	0.01
673.069	-0.02
673.253	0.06
673.437	-0.01
673.621	-0.04
673.804	-0.02
673.988	0.01
674.172	0.01
674.356	-0.04
674.54	-0.02
674.724	0.11
674.908	-0.01
675.091	0
675.275	-0.01
675.459	0.05
675.643	0.04
675.826	0
676.01	0.02
676.194	0.04
676.377	0.05
676.561	0.03
676.745	0.02
676.928	0.06
677.112	0.05
677.296	-0.03
677.479	-0.03
677.663	0.01
677.846	0.1
678.03	0.01
678.213	-0.04
678.397	0.04
678.58	-0.02
678.764	0.01
678.947	-0.02
679.131	0.01
679.314	0.03
679.498	0.01
679.681	0.02
679.865	0.05
680.048	-0.01
680.231	0.01
680.415	0
680.598	-0.04
680.781	-0.01
680.965	-0.02
681.148	0.02
681.331	0.03
681.514	0.06
681.698	0.01
681.881	0.03
682.064	-0.02
682.247	0.04
682.43	-0.07
682.614	0.05
682.797	0.07
682.98	0.05
683.163	-0.01
683.346	0.02
683.529	0.03
683.712	-0.04
683.895	0.04
684.078	-0.06
684.261	0.03
684.444	0.03
684.627	0.03
684.81	0
684.993	0.01
685.176	0.06
685.359	-0.07
685.542	0.03
685.725	0.07
685.908	0.05
686.091	-0.02
686.274	0.06
686.457	0.05
686.639	-0.01
686.822	0.03
687.005	0.04
687.188	0.01
687.371	0.05
687.553	-0.03
687.736	0.06
687.919	0.13
688.102	0.08
688.284	0.03
688.467	0.01
688.65	-0.03
688.832	-0.04
689.015	0.01
689.197	-0.05
689.38	0.11
689.563	0.12
689.745	-0.04
689.928	-0.09
690.11	-0
690.293	0.02
690.475	-0.03
690.658	0.02
690.84	0.02
691.023	0.04
691.205	-0.02
691.388	0.05
691.57	0.09
691.752	0.05
691.935	-0.07
692.117	-0.05
692.3	0.01
692.482	-0
692.664	0.01
692.847	0.01
693.029	0.09
693.211	-0.01
693.393	-0.01
693.576	0.02
693.758	0.05
693.94	0.01
694.122	-0
694.304	-0.01
694.487	0.01
694.669	0.09
694.851	-0.06
695.033	0.01
695.215	-0.01
695.397	-0.04
695.579	0.04
695.761	-0.01
695.943	-0.07
696.125	0.06
696.308	0.03
696.49	-0.06
696.671	0.13
696.853	0.02
697.035	0.12
697.217	-0.01
697.399	0.1
697.581	-0.07
697.763	0.03
697.945	-0.07
698.127	0
698.309	0.1
698.491	-0.03
698.672	0.03
698.854	0.04
699.036	0.07
699.218	-0.02
699.399	0.09
699.581	0.06
699.763	0.02
699.945	-0.08
700.126	-0.1
700.308	0.06
700.49	0.05
700.671	-0.08
700.853	-0.04
701.035	-0.06
701.216	0
701.398	-0.08
701.579	-0
701.761	0.05
701.943	-0.06
702.124	-0.01
702.306	-0
702.487	0.13
702.669	0.01
702.85	-0.05
703.031	-0.06
703.213	0.11
703.394	0.09
703.576	-0.05
703.757	0.13
703.938	0.07
704.12	0.16
704.301	-0.01
704.483	-0.01
704.664	0.02
704.845	0.09
705.026	0.05
705.208	0.01
705.389	0.03
705.57	0
705.751	0.03
705.933	0.02
706.114	0.08
706.295	0.03
706.476	-0.04
706.657	0.1
706.838	0.02
707.02	0.08
707.201	0.01
707.382	-0.04
707.563	0.03
707.744	-0.04
707.925	-0.08
708.106	-0.04
708.287	0.05
708.468	0.08
708.649	-0.01
708.83	0.1
709.011	0.03
709.192	0.06
709.373	-0.05
709.554	0.03
709.734	0.06
709.915	0.11
710.096	0.02
710.277	-0.05
710.458	0.04
710.639	0.05
710.819	-0.08
711	-0.02
711.181	0.1
711.362	0.11
711.542	0.06
711.723	-0.04
711.904	0.1
712.085	0.03
712.265	0.04
712.446	-0.01
712.627	-0.04
712.807	-0.06
712.988	0.07
713.168	-0.08
713.349	0.02
713.53	-0.15
713.71	0.01
713.891	-0.11
714.071	0.04
714.252	-0.09
714.432	0.01
714.613	-0.09
714.793	0.04
714.974	0.04
715.154	0.06
715.334	0.05
715.515	0.09
715.695	-0.06
715.876	0.04
716.056	0.02
716.236	-0.03
716.417	-0
716.597	-0.03
716.777	0.14
716.957	0.02
717.138	-0.04
717.318	-0.01
717.498	-0.08
717.678	-0.02
717.859	0.01
718.039	-0.06
718.219	0.02
718.399	0.08
718.579	-0.06
718.759	-0.07
718.939	0.06
719.12	-0.03
719.3	-0
719.48	-0.15
719.66	-0.08
719.84	0.1
720.02	-0
720.2	-0.01
720.38	0.06
720.56	0.13
720.74	0.05
720.92	-0.02
721.1	0.07
721.279	0.11
721.459	0.01
721.639	-0.06
721.819	0.05
721.999	0.04
722.179	0.05
722.359	-0.02
722.538	0.07
722.718	0.05
722.898	-0.05
723.078	0.01
723.257	0.01
723.437	0.05
723.617	-0.04
723.797	-0.04
723.976	-0.04
724.156	0.02
724.336	0.05
724.515	0.15
724.695	-0.14
724.874	0.02
725.054	0.09
725.234	0.01
725.413	0.03
725.593	0.03
725.772	0.02
725.952	-0
726.131	0.04
726.311	0.03
726.49	0.02
726.67	-0.13
726.849	-0.05
727.028	0.04
727.208	0.06
727.387	0.04
727.567	-0.09
727.746	0.01
727.925	-0
728.105	-0.08
728.284	-0
728.463	-0.06
728.643	0.07
728.822	-0.09
729.001	-0.05
729.18	0.03
729.359	0.03
729.539	0.04
729.718	0.06
729.897	0.09
730.076	-0.06
730.255	-0.12
730.434	0.02
730.614	0.04
730.793	0.16
730.972	-0.02
731.151	-0.01
731.33	0.08
731.509	0.04
731.688	0.03
731.867	0.04
732.046	-0.12
732.225	0.2
732.404	-0.02
732.583	-0.04
732.762	-0.03
732.941	0.04
733.12	-0.03
733.298	-0.08
733.477	0.1
733.656	-0.02
733.835	0.01
734.014	0.08
734.193	-0.05
734.371	0.11
734.55	0.06
734.729	-0.01
734.908	0.04
735.086	0.08
735.265	0.11
735.444	-0.1
735.623	-0.05
735.801	-0.06
735.98	0.02
736.159	0
736.337	0.06
736.516	0.03
736.694	0.11
736.873	0.03
737.052	0.31
737.23	0.21
737.409	0.03
737.587	0.13
737.766	-0.12
737.944	-0.13
738.123	0.13
738.301	-0.04
738.479	-0.09
738.658	0.1
738.836	-0.2
739.015	0.08
739.193	0.14
739.371	-0.07
739.55	-0.04
739.728	-0.07
739.906	0.17
740.085	0.15
740.263	0.09
740.441	-0.12
740.62	0.19
740.798	0.17
740.976	-0.03
741.154	-0.16
741.332	0.17
741.511	0.03
741.689	0.06
741.867	0.12
742.045	0.12
742.223	0
742.401	0
742.579	-0.04
742.757	0.1
742.935	-0.08
743.114	0.06
743.292	0.01
743.47	-0.02
743.648	0.04
743.826	-0
744.004	0.11
744.181	0.13
744.359	-0
744.537	0.09
744.715	0
744.893	-0.01
745.071	-0.04
745.249	-0.02
745.427	0.01
745.605	0.16
745.782	-0.01
745.96	0.21
746.138	0.08
746.316	0.12
746.493	-0.02
746.671	-0.08
746.849	0.05
747.027	0.18
747.204	-0.14
747.382	0.07
747.56	-0.1
747.737	-0.07
747.915	-0.02
748.093	0.03
748.27	-0.09
748.448	0.02
748.625	-0.15
748.803	0.04
748.98	-0.05
749.158	0.03
749.335	0.08
749.513	0.05
749.69	-0.07
749.868	0.06
750.045	0.1
750.223	0.05
750.4	-0.23
750.578	0.2
750.755	0.04
750.932	-0.15
751.11	0.18
751.287	-0.18
751.464	0.16
751.642	-0.1
751.819	-0.04
751.996	0.09
752.173	0.05
752.351	-0.2
752.528	0.03
752.705	0
752.882	0
753.06	0.09
753.237	0.12
753.414	0.24
753.591	0.22
753.768	0.01
753.945	-0.06
754.122	-0.08
754.299	0.02
754.476	0.01
754.654	-0
754.831	0.07
755.008	0.02
755.185	-0.09
755.362	-0.03
755.539	0.1
755.716	-0.04
755.892	-0.01
756.069	-0.07
756.246	-0.06
756.423	-0.02
756.6	0.08
756.777	-0.02
756.954	0.15
757.131	0.07
757.307	-0.11
757.484	-0.02
757.661	0.02
757.838	0.06
758.015	-0.1
758.191	0.07
758.368	0.13
758.545	0.29
758.721	0.07
758.898	-0.09
759.075	0.15
759.251	0.06
759.428	0.05
759.605	0.01
759.781	-0.03
759.958	0.06
760.134	0.01
760.311	-0.03
760.488	0.1
760.664	0.17
760.841	0.01
761.017	-0.06
761.194	0.08
761.37	0.12
761.547	0.11
761.723	0.09
761.899	0.01
762.076	0.04
762.252	-0.1
762.429	0.01
762.605	0.01
762.781	0.02
762.958	0.05
763.134	-0.09
763.31	-0.12
763.486	0.18
763.663	-0.17
763.839	0.08
764.015	-0.18
764.191	-0.19
764.368	-0.07
764.544	-0.15
764.72	0.05
764.896	0.11
765.072	0.03
765.248	0.02
765.425	-0.11
765.601	0.04
765.777	-0
765.953	-0.13
766.129	-0.04
766.305	0.02
766.481	0.11
766.657	0.01
766.833	0.14
767.009	-0
767.185	0.07
767.361	0.08
767.537	-0.18
767.713	0.05
767.889	-0.14
768.065	0.13
768.24	0.14
768.416	0.09
768.592	0
768.768	-0.09
768.944	0.02
769.12	-0.05
769.295	0.09
769.471	-0.03
769.647	0.11
769.823	0.16
769.998	0.08
770.174	-0.09
770.35	0.14
770.525	0.32
770.701	0.08
770.877	-0.15
771.052	0.07
771.228	0.06
771.403	0.1
771.579	0.08
771.755	0.33
771.93	-0.06
772.106	-0.18
772.281	-0.11
772.457	-0.04
772.632	0
772.808	-0.15
772.983	-0.1
773.159	-0.24
773.334	0.23
773.509	-0.11
773.685	-0.12
773.86	0.35
774.036	0.19
774.211	0.21
774.386	-0.07
774.562	-0.01
774.737	0.45
774.912	-0.17
775.087	-0.01
775.263	0
775.438	0.1
775.613	0.01
775.788	0.03
775.964	0.21
776.139	0.54
776.314	-0.2
776.489	0.17
776.664	0.07
776.839	0.01
777.014	0.27
777.19	0.21
777.365	0.22
777.54	0.33
777.715	-0.18
777.89	0.09
778.065	-0.05
778.24	0.1
778.415	0.07
778.59	-0.04
778.765	0.03
778.94	0.12
779.115	-0.07
779.289	-0.09
779.464	0.05
779.639	-0.13
779.814	-0.14
779.989	-0.18
780.164	0.19
780.339	0.1
780.513	-0.08
780.688	-0.18
780.863	-0.02
781.038	0.25
781.212	-0.01
781.387	-0.02
781.562	0.34
781.737	-0.01
781.911	0.11
782.086	-0.08
782.261	-0.07
782.435	0.43
782.61	-0.06
782.784	-0.13
782.959	0.21
783.134	0.06
783.308	-0.14
783.483	-0.18
783.657	0.38
783.832	0.14
784.006	-0.22
784.181	0.08
784.355	0.18
784.53	-0.13
784.704	-0.24
784.878	0.23
785.053	0.36
785.227	0.18
785.402	0.3
785.576	-0.14
785.75	0.14
785.925	0.1
786.099	0.16
786.273	0.15
786.448	0.31
786.622	0.25
786.796	0.12
786.97	0.08
787.145	0.6
787.319	-0.21
787.493	-0.08
787.667	-0.3
787.841	-0.06
788.015	0.25
788.19	-0.14
788.364	0.26
788.538	0.27
788.712	0.21
788.886	0.01
789.06	0.36
789.234	0.22
789.408	-0.18
789.582	0.1
789.756	-0.02
789.93	0.11
790.104	-0.05
790.278	-0.19
790.452	-0.11
790.626	0.22
790.8	-0.07
790.973	0.05
791.147	0.33
791.321	0.33
791.495	0.26
791.669	0.17
791.843	0.2
792.016	0.04
792.19	0.51
792.364	-0.02
792.538	0.65
792.711	0.37
792.885	-0.03
793.059	-0.13
793.233	-0.29
793.406	0.27
793.58	0.08
793.754	0.04
793.927	0.19
794.101	0.2
794.274	-0.01
794.448	0.27
794.622	-0.2
794.795	0.22
794.969	-0.17
795.142	0.18
795.316	0.01
795.489	-0.25
795.663	0.5
795.836	0.16
796.009	-0
796.183	0.37
796.356	0.21
796.53	0.17
796.703	-0.03
796.876	0.66
797.05	-0.05
797.223	0.14
797.396	0.07
797.57	0.05
797.743	0.51
797.916	0.17
798.09	-0.01
798.263	0.22
798.436	0.16
798.609	-0.03
798.782	0.09
798.956	0.13
799.129	0.06
799.302	-0.14
799.475	-0.27
799.648	-0.09
799.821	-0.19
799.994	0.22
800.167	-0.45
800.34	-0.17
800.514	-0.05
800.687	-0.2
800.86	-0.04
801.033	0.21
801.206	0.15
801.379	-0.2
801.551	0.23
801.724	0.25
801.897	0.18
802.07	-0.04
802.243	-0.73
802.416	0.06
802.589	-0.07
802.762	0.08
802.935	0.16
803.107	0.31
803.28	0.23
803.453	0.09
803.626	-0.01
803.798	-0.02
803.971	-0.02
804.144	0.14
804.317	0.19
804.489	0.31
804.662	0.05
804.835	-0.16
805.007	-0.19
805.18	0.31
805.353	0.13
805.525	-0.3
805.698	-0.14
805.87	0.32
806.043	0.25
806.215	-0.26
806.388	-0.33
806.56	0.21
806.733	0.49
806.905	0.22
807.078	-0.22
807.25	-0.13
807.423	0.01
807.595	0.14
807.768	0.49
807.94	0.45
808.112	0.49
808.285	0.02
808.457	-0.1
808.629	-0.23
808.802	0.33
808.974	0.13
809.146	-0.15
809.318	-0.29
809.491	0.13
809.663	0.27
809.835	-0.27
810.007	0.18
810.18	0.13
810.352	-0.49
810.524	-0.12
810.696	0.21
810.868	0.41
811.04	0.05
811.212	0.17
811.384	0.31
811.556	-0.22
811.728	0.07
811.901	0.93
812.073	-0.04
812.245	0.46
812.417	0.01
812.589	-0.38
812.76	0.01
812.932	0.17
813.104	0.32
813.276	-0.14
813.448	0.31
813.62	-0.08
813.792	0.18
813.964	-0.15
814.136	-0
814.307	-0.47
814.479	-0.43
814.651	-0.39
814.823	0.69
814.995	-0.43
815.166	0.2
815.338	-0.47
815.51	-0.39
815.681	0.67
815.853	0.17
816.025	0.09
816.196	0.19
816.368	0.68
816.54	-0.53
816.711	-0.08
816.883	0.44
817.054	0.66
817.226	-0.55
817.398	-0.12
817.569	-0.32
817.741	-0
817.912	-0.04
818.084	-0.32
818.255	0.24
818.426	-0.41
818.598	0.08
818.769	-0.38
818.941	-0.17
819.112	0.93
819.283	0.41
819.455	-0.24
819.626	0.18
819.798	0.26
819.969	-0.09
820.14	0.06
820.311	0.02
820.483	0.13
820.654	0.06
820.825	0.19
820.996	0.21
821.168	-0.29
821.339	0.1
821.51	-0.7
821.681	-0.54
821.852	0.34
822.023	-0.71
822.195	-0.01
822.366	0.45
822.537	-0.12
822.708	-0.03
822.879	-0.11
823.05	0.76
823.221	-0.03
823.392	0.22
823.563	0.11
823.734	0.1
823.905	-0.27
824.076	-0.13
824.247	-0.28
824.418	0.14
824.589	1.06
824.759	-0.08
824.93	-0.19
825.101	-0.64
825.272	0.59
825.443	0.48
825.614	0.62
825.784	-0.59
825.955	0.34
826.126	0.77
826.297	0.23
826.467	0.79
826.638	0.67
826.809	-0.54
826.98	-0.22
827.15	0.72
827.321	-0.11
827.492	0.72
827.662	0.71
827.833	1.34
828.003	-0.01
828.174	-0.8
828.345	-0.95
828.515	1.03
828.686	0.03
828.856	0.1
829.027	0.27
829.197	0.05
829.368	0.49
829.538	-0.14
829.709	-0.24
829.879	-0.01
830.049	0.3
830.22	-0.29
830.39	-0.03
830.56	0.66
830.731	0.05
830.901	-0.2
831.072	-0.16
831.242	0.49
831.412	-0.01
831.582	0.05
831.753	-0.35
831.923	0.79
832.093	0.06
832.263	0.77
832.434	-0.03
832.604	-0.52
832.774	0.56
832.944	0.07
833.114	-0.58
833.284	0.33
833.454	-0.4
833.624	-0.3
833.795	-0.07
833.965	0.34
834.135	1.08
834.305	-1.49
834.475	-0.55
834.645	0.12
834.815	-0.75
834.985	-0.32
835.155	-0.26
835.325	0.45
835.494	0.02
835.664	0.03
835.834	-0.28
836.004	0.06
836.174	0.17
836.344	0.06
836.514	-0.44
836.684	-0.17
836.853	-0.09
837.023	0.62
837.193	-0.4
837.363	0.46
837.532	1.26
837.702	-0.08
837.872	-0.43
838.041	0.85
838.211	1.67
838.381	-1.07
838.55	-0.18
838.72	1.66
838.89	1.1
839.059	-0.6
839.229	-0.71
839.398	1.82
839.568	0.35
839.738	0.09
839.907	0.51
840.077	0.46
840.246	-0.17
840.416	-0.41
840.585	-0.49
840.755	1.58
840.924	1.3
841.093	-0.53
841.263	0.41
841.432	0.18
841.602	-0.72
841.771	-0.29
841.94	0.49
842.11	1.51
842.279	1.23
842.448	-0.3
842.617	-0.31
842.787	1.61
842.956	-0.89
843.125	-0.13
843.294	0.24
843.464	0.67
843.633	0.4
843.802	-0.27
843.971	-0.09
844.14	0.26
844.309	0.87
844.479	-0.74
844.648	-0.38
844.817	-1.22
844.986	-0.52
845.155	-0.79
845.324	0.58
845.493	0.36
845.662	-0.88
845.831	0.48
846	0.57
846.169	-0.32
846.338	1.31
846.507	0.41
846.676	0.1
846.844	0.14
847.013	1.51
847.182	0.38
847.351	-0.67
847.52	-0.13
847.689	0.19
847.858	-0.24
848.026	-0.27
848.195	0.73
848.364	-0.32
848.533	-0.92
848.701	-0.04
848.87	0.54
849.039	0.27
849.207	1.88
849.376	1.36
849.545	1.37
849.713	-0.62
849.882	-0.26
850.051	0.19
850.219	-0.37
850.388	0.56
850.556	-0.5
850.725	-1.68
850.893	0.57
851.062	-1
851.23	1.31
851.399	-0.77
851.567	-0.44
851.736	-0.66
851.904	-0.69
852.073	0.35
852.241	1.55
852.41	0.13
852.578	-0.17
852.746	-0.43
852.915	0.76
853.083	0.28
853.251	-0.95
853.42	-0.46
853.588	1.12
853.756	1.51
853.924	0.3
854.093	-0.2
854.261	-0.08
854.429	-0.06
854.597	0.11
854.765	-1.57
854.934	0.32
855.102	0.68
855.27	0.3
855.438	-0.33
855.606	1.82
855.774	2.16
855.942	-1.77
856.11	-1.5
856.278	0.51
856.446	0.32
856.614	-1.17
856.782	-0.33
856.95	0.7
857.118	1.57
857.286	1.01
857.454	-0.32
857.622	1.75
857.79	0.12
857.958	-1.78
858.126	-0.09
858.294	-2.62
858.462	0.02
858.629	-1.25
858.797	-0.87
858.965	0.72
859.133	-0.05
859.301	-0.55
859.468	1.05
859.636	-1.22
859.804	2.26
859.971	0.25
860.139	-1.33
860.307	1.45
860.474	-0.09
860.642	-0.56
860.81	-0.01
860.977	-0.87
861.145	1.86
861.313	0.85
861.48	-0.28
861.648	0.49
861.815	0.25
861.983	-0.25
862.15	-0.26
862.318	-0.24
862.485	1.4
862.653	-1.33
862.82	-0.81
862.988	1.41
863.155	1.14
863.322	-2.62
863.49	-1.12
863.657	-0.78
863.824	1.57
863.992	1.88
864.159	-0.27
864.326	2.25
864.494	-0.31
864.661	1.46
864.828	-0.7
864.996	-0.4
865.163	2.52
865.33	-0.53
865.497	-1.67
865.664	0.94
865.832	-1.32
865.999	-0.93
866.166	-0.3
866.333	-0.93
866.5	-1.54
866.667	-0.04
866.834	-0.04
867.001	1.93
867.168	-2.42
867.335	1.15
867.502	-1.49
867.669	-0.19
867.836	2.23
868.003	-1.15
868.17	0.56
868.337	-0.81
868.504	2.91
868.671	-1.11
868.838	-1.99
869.005	1.23
869.172	0.13
869.339	0.18
869.505	-2.26
869.672	-0.23
869.839	-0.4
870.006	1.03
870.173	-1.08
870.339	4.39
870.506	2.63
870.673	1.15
870.84	0.64
871.006	1.97
871.173	0.14
871.34	-0.5
871.506	-1.97
871.673	0.22
871.839	-2.21
872.006	-0.47
872.173	-0.21
872.339	1.41
872.506	0.64
872.672	1.31
872.839	-2.22
873.005	0.57
873.172	3.73
873.338	0.69
873.505	-1.15
873.671	0.83
873.838	1.53
874.004	-2
874.171	-0.76
874.337	2.01
874.503	0.28
874.67	1.28
874.836	-0.61
875.002	2.98
875.169	1.8
875.335	-0.01
875.501	-0.06
875.668	1.56
875.834	0.36
876	0.31
876.166	0.89
876.332	0.67
876.499	2.77
876.665	-0.43
876.831	0.9
876.997	3.47
877.163	1.42
877.329	-2.63
877.495	0.36
877.662	1.16
877.828	2.57
877.994	-1.74
878.16	-2.58
878.326	-1.3
878.492	-0.94
878.658	-0.66
878.824	-0.01
878.99	0.7
879.156	-1.93
879.322	1.71
879.487	-0.53
879.653	0.93
879.819	-0.64
879.985	-1.2
880.151	0.2
880.317	1.45
880.483	0.76
880.648	1.5
880.814	-1.69
880.98	-0.68
881.146	-2.88
881.312	-1.94
881.477	0.38
881.643	1.74
881.809	1.8
881.974	2.43
882.14	-1.64
882.306	-0.29
882.471	3.89
882.637	-0.78
882.803	0.87
882.968	4.12
883.134	2.96
883.299	0.51
883.465	1.62
883.63	0.94
883.796	1.37
883.961	0.27
884.127	0.66
884.292	-5.15
884.458	-2.24
884.623	-2.24
