Data from Apollo_Calib_20240827__AbsoluteIrradiance__78__00-27-01-693.txt Node

Date: Wed Aug 28 00:27:01 BST 2024
User: biology
Spectrometer: FLMT08252
Trigger mode: 0
Integration Time (sec): 5.000000E-1
Scans to average: 5
Electric dark correction enabled: true
Nonlinearity correction enabled: false
Boxcar width: 0
XAxis mode: Wavelengths
Number of Pixels in Spectrum: 3648
>>>>>Begin Spectral Data<<<<<
179.588	-0
179.809	-0
180.03	-0
180.251	-0
180.473	-0
180.694	0
180.915	0
181.136	-0
181.357	0
181.578	0
181.799	-0
182.02	-0
182.241	0
182.462	0
182.683	0
182.904	-0
183.125	-0
183.346	0
183.567	0
183.788	-0
184.009	-0
184.23	0
184.451	-0
184.672	-0
184.892	-0
185.113	-0
185.334	0
185.555	-0
185.776	-0
185.996	0
186.217	-0
186.438	-0
186.659	-0
186.879	0
187.1	-0
187.321	-0
187.541	-0
187.762	-0
187.983	-0
188.203	0
188.424	0
188.644	-0
188.865	-0
189.086	-0
189.306	-0
189.527	-0
189.747	-0
189.968	-0
190.188	0
190.409	-0
190.629	0
190.849	-0
191.07	-0
191.29	0
191.511	-0
191.731	-0
191.951	-0
192.172	-0
192.392	-0
192.612	0
192.833	-0
193.053	0
193.273	0
193.493	-0
193.714	-0
193.934	0
194.154	0
194.374	0
194.594	0
194.815	-0
195.035	0
195.255	-0
195.475	-0
195.695	0
195.915	-0
196.135	-0
196.355	0
196.575	0
196.795	-0
197.015	-0
197.235	-0
197.455	-0
197.675	0
197.895	-0
198.115	-0
198.335	-0
198.555	-0
198.775	0
198.995	-0
199.214	0
199.434	-0
199.654	-0
199.874	-0
200.094	1.04
200.313	-0.43
200.533	-0.38
200.753	-0.87
200.973	0.14
201.192	0.29
201.412	-1.1
201.632	-0.6
201.851	0.82
202.071	-0.63
202.291	-0.58
202.51	-0.95
202.73	0.08
202.95	-0.22
203.169	-0.7
203.389	-0.49
203.608	-0.23
203.828	-0.78
204.047	-0.24
204.267	0.13
204.486	-0.32
204.706	-0.13
204.925	-0.45
205.145	-0.5
205.364	-0.04
205.583	0.46
205.803	-0.37
206.022	-0.84
206.242	0.09
206.461	0.14
206.68	-0.34
206.9	-0.1
207.119	0.43
207.338	0.25
207.557	-0.34
207.777	-0.02
207.996	-0.33
208.215	0.23
208.434	-0.45
208.654	-0.52
208.873	0.02
209.092	0.31
209.311	-0.23
209.53	-0.18
209.749	-0.14
209.968	-0.19
210.187	-0.35
210.407	-0.62
210.626	-0.29
210.845	0.33
211.064	-0.2
211.283	-0.45
211.502	0.09
211.721	-0.14
211.94	-0.07
212.159	0.02
212.377	0.13
212.596	0.29
212.815	0.03
213.034	0.13
213.253	0.1
213.472	0.11
213.691	-0.11
213.91	-0.37
214.128	-0.18
214.347	0.27
214.566	-0.35
214.785	-0.55
215.003	0.16
215.222	0.08
215.441	-0.05
215.66	-0.29
215.878	-0.07
216.097	0.09
216.316	-0.46
216.534	-0.09
216.753	-0.1
216.972	-0.25
217.19	-0.14
217.409	-0.21
217.627	-0.22
217.846	-0.2
218.064	0
218.283	-0.27
218.501	0.4
218.72	-0.08
218.938	-0.24
219.157	-0.15
219.375	0.03
219.594	0.14
219.812	-0.31
220.031	-0.26
220.249	0.2
220.467	0.18
220.686	-0.21
220.904	-0.22
221.122	-0.17
221.341	0.28
221.559	-0.14
221.777	-0.22
221.995	-0.11
222.214	0.15
222.432	-0.18
222.65	0.1
222.868	-0.03
223.086	-0
223.305	0.04
223.523	-0.15
223.741	0.16
223.959	-0.11
224.177	-0.25
224.395	-0.21
224.613	0.05
224.831	0.06
225.049	-0.19
225.267	-0.11
225.485	-0.13
225.703	-0.17
225.921	-0.02
226.139	-0.13
226.357	-0.01
226.575	-0.09
226.793	-0.19
227.011	0.42
227.229	0.06
227.447	0.07
227.665	-0.05
227.883	-0.26
228.1	-0.07
228.318	-0.02
228.536	-0.29
228.754	-0.17
228.972	0.02
229.189	-0.04
229.407	-0.19
229.625	-0.18
229.843	0.05
230.06	0.12
230.278	-0.03
230.496	-0.07
230.713	-0.06
230.931	0.08
231.149	-0.08
231.366	-0.14
231.584	-0.05
231.801	0.3
232.019	-0.2
232.236	-0.25
232.454	-0.25
232.671	0.1
232.889	-0.19
233.106	-0.19
233.324	0.02
233.541	-0.06
233.759	-0.06
233.976	-0.13
234.194	-0.07
234.411	0.05
234.628	-0.15
234.846	-0.11
235.063	-0.03
235.28	-0.1
235.498	-0.12
235.715	-0.13
235.932	0.07
236.149	-0
236.367	-0.14
236.584	-0.04
236.801	-0
237.018	0.05
237.236	0.03
237.453	-0.13
237.67	0.12
237.887	-0.1
238.104	-0.05
238.321	-0.17
238.538	-0.04
238.755	0.09
238.973	-0.18
239.19	0.05
239.407	-0.01
239.624	-0.04
239.841	-0.16
240.058	-0.11
240.275	0.02
240.492	-0.1
240.709	-0.04
240.925	-0.07
241.142	0.02
241.359	-0.11
241.576	-0.11
241.793	-0.04
242.01	-0.02
242.227	0.09
242.444	-0.01
242.66	0.08
242.877	-0
243.094	-0.15
243.311	0.02
243.527	-0.09
243.744	-0.04
243.961	0.12
244.178	-0.09
244.394	-0.02
244.611	0.04
244.828	0.11
245.044	-0.06
245.261	-0.07
245.477	0
245.694	-0.02
245.911	0.01
246.127	0.01
246.344	0.04
246.56	0.07
246.777	-0.06
246.993	0.01
247.21	-0.01
247.426	0.02
247.643	-0.05
247.859	-0.11
248.076	-0.06
248.292	0.23
248.508	-0.1
248.725	0.06
248.941	-0.04
249.157	0.05
249.374	-0.06
249.59	-0.04
249.806	-0.03
250.023	0.03
250.239	-0.09
250.455	-0.05
250.671	-0.09
250.888	0.05
251.104	-0.04
251.32	-0.09
251.536	-0.05
251.752	-0.15
251.969	-0.02
252.185	0.08
252.401	0.19
252.617	-0.01
252.833	-0.05
253.049	0.01
253.265	-0.12
253.481	-0.01
253.697	-0.03
253.913	-0.11
254.129	0.04
254.345	-0.04
254.561	-0.07
254.777	-0.07
254.993	0.04
255.209	-0.03
255.425	-0.1
255.641	-0.06
255.857	0.01
256.073	-0.01
256.288	-0.1
256.504	-0.03
256.72	-0.03
256.936	0.05
257.152	-0.06
257.367	-0.09
257.583	-0.05
257.799	0.08
258.015	-0.07
258.23	-0.02
258.446	0.12
258.662	-0.04
258.877	-0.07
259.093	-0.13
259.309	-0.07
259.524	0.03
259.74	-0.12
259.955	-0.13
260.171	0.02
260.387	0
260.602	0.02
260.818	0.04
261.033	-0.11
261.249	-0.1
261.464	-0.06
261.68	-0.1
261.895	0.04
262.11	0.08
262.326	-0.12
262.541	-0.05
262.757	0.02
262.972	-0.01
263.187	-0
263.403	-0.02
263.618	0.04
263.833	0.01
264.049	-0.09
264.264	-0.07
264.479	-0.01
264.694	0.01
264.91	-0.13
265.125	0
265.34	0.03
265.555	0.08
265.77	-0.01
265.986	-0.09
266.201	-0.01
266.416	0.05
266.631	-0.01
266.846	-0.05
267.061	-0.05
267.276	0.08
267.491	-0.13
267.706	0.05
267.921	-0.02
268.136	-0.01
268.351	-0.02
268.566	-0.1
268.781	0.06
268.996	-0.03
269.211	-0.04
269.426	-0.03
269.641	-0.02
269.856	0.06
270.071	-0.08
270.285	-0.1
270.5	0.03
270.715	0.07
270.93	-0.04
271.145	0.02
271.359	0.06
271.574	-0.04
271.789	-0.05
272.004	-0.04
272.218	-0.06
272.433	-0.01
272.648	-0.08
272.862	0.03
273.077	-0.01
273.292	-0.04
273.506	-0.09
273.721	-0.04
273.936	0.03
274.15	0.09
274.365	-0.07
274.579	0.07
274.794	0.03
275.008	0.01
275.223	-0.1
275.437	-0.05
275.652	0.04
275.866	0.02
276.081	-0.05
276.295	0.03
276.509	-0.05
276.724	-0.02
276.938	-0.01
277.153	-0.01
277.367	-0
277.581	-0.09
277.796	-0.03
278.01	-0.08
278.224	0.05
278.438	0.05
278.653	-0.06
278.867	-0.05
279.081	-0.2
279.295	-0.04
279.51	0.04
279.724	-0.1
279.938	-0.03
280.152	0.01
280.366	-0.06
280.58	-0.02
280.794	0.06
281.008	-0.04
281.222	0.08
281.437	0.11
281.651	0
281.865	0.03
282.079	-0.03
282.293	-0.1
282.507	-0.02
282.721	-0.01
282.935	-0.02
283.148	-0.08
283.362	-0.07
283.576	-0.07
283.79	0.03
284.004	-0.05
284.218	0.03
284.432	-0.05
284.646	-0.02
284.859	-0.03
285.073	-0.04
285.287	0.02
285.501	-0.01
285.714	-0.01
285.928	-0
286.142	0
286.356	-0.02
286.569	-0.04
286.783	0.06
286.997	-0.03
287.21	-0.04
287.424	-0.05
287.637	-0
287.851	-0.05
288.065	0.01
288.278	0.03
288.492	-0.02
288.705	-0.04
288.919	0.05
289.132	-0.04
289.346	0.03
289.559	-0.05
289.773	-0.09
289.986	-0.05
290.2	-0.02
290.413	0.01
290.626	-0.07
290.84	-0.02
291.053	-0.01
291.267	0.06
291.48	-0
291.693	0.01
291.906	-0.05
292.12	0.01
292.333	-0.01
292.546	-0.07
292.76	0.05
292.973	0.03
293.186	0.03
293.399	-0.06
293.612	0.04
293.826	-0.01
294.039	0.01
294.252	-0
294.465	0.01
294.678	0.02
294.891	0.04
295.104	-0.03
295.317	-0.03
295.53	0.01
295.743	-0.03
295.956	0
296.169	0.06
296.382	0.03
296.595	-0.01
296.808	-0.01
297.021	0.04
297.234	0.04
297.447	-0.02
297.66	0.04
297.873	0.05
298.086	0.03
298.299	-0.03
298.511	-0.09
298.724	0.02
298.937	-0.03
299.15	0
299.363	-0.02
299.575	0.01
299.788	0.08
300.001	-0.04
300.213	-0.05
300.426	-0.01
300.639	-0.02
300.852	-0.04
301.064	0.01
301.277	0.06
301.489	-0.01
301.702	0.02
301.915	0.02
302.127	-0.06
302.34	0.03
302.552	0.01
302.765	-0.03
302.977	0.04
303.19	-0.03
303.402	-0.03
303.615	-0.01
303.827	-0.06
304.04	-0.07
304.252	-0
304.464	-0.03
304.677	0.09
304.889	0.04
305.102	-0.04
305.314	-0.06
305.526	0.01
305.739	-0.01
305.951	-0.07
306.163	-0.03
306.375	0.04
306.588	-0.04
306.8	-0.03
307.012	-0.06
307.224	-0
307.436	0.02
307.649	-0.08
307.861	0.02
308.073	0.06
308.285	-0.02
308.497	-0.06
308.709	-0
308.921	-0.01
309.133	0.06
309.346	-0.02
309.558	-0.01
309.77	0.02
309.982	-0.06
310.194	0.03
310.406	-0.03
310.617	0.05
310.829	0.01
311.041	-0.02
311.253	-0.05
311.465	-0.01
311.677	-0.01
311.889	-0
312.101	-0.04
312.313	0.03
312.524	0.05
312.736	-0.1
312.948	0
313.16	0.07
313.372	0.04
313.583	0
313.795	-0.01
314.007	-0.02
314.218	0
314.43	0.01
314.642	-0.03
314.853	-0.05
315.065	-0.01
315.277	-0
315.488	-0.01
315.7	0.06
315.912	0.03
316.123	-0.01
316.335	-0.02
316.546	0.05
316.758	0.03
316.969	0.02
317.181	-0.01
317.392	-0.01
317.604	0.02
317.815	-0.07
318.026	-0.03
318.238	-0.02
318.449	0.02
318.661	-0.03
318.872	-0.04
319.083	-0.07
319.295	-0.01
319.506	-0.01
319.717	-0.03
319.929	0.05
320.14	0.01
320.351	-0.02
320.562	-0.02
320.774	-0.05
320.985	-0.01
321.196	-0.04
321.407	-0.1
321.618	-0
321.829	0.01
322.041	0.02
322.252	-0.02
322.463	-0.02
322.674	0.05
322.885	-0.04
323.096	-0.02
323.307	0.01
323.518	-0.01
323.729	-0.02
323.94	-0.03
324.151	-0.03
324.362	0.01
324.573	0
324.784	-0.1
324.995	0.06
325.206	0.03
325.417	-0.03
325.628	-0.03
325.838	-0.04
326.049	-0.02
326.26	0.02
326.471	-0.01
326.682	0.02
326.892	-0.01
327.103	-0.07
327.314	-0.04
327.525	0.06
327.735	-0.05
327.946	-0.05
328.157	-0.05
328.368	0.03
328.578	-0.02
328.789	-0.02
328.999	-0.04
329.21	-0.05
329.421	0.03
329.631	-0.05
329.842	-0.04
330.052	0.01
330.263	0.05
330.473	0.01
330.684	0.03
330.894	-0.03
331.105	0
331.315	0.02
331.526	-0.07
331.736	0.04
331.947	-0.02
332.157	0
332.367	-0.05
332.578	-0
332.788	0.02
332.999	0.02
333.209	0.03
333.419	-0.05
333.629	-0.03
333.84	0.03
334.05	-0
334.26	0.04
334.47	0
334.681	0.03
334.891	-0.03
335.101	0.03
335.311	0.06
335.521	0.02
335.732	-0.05
335.942	0.06
336.152	0.01
336.362	0.02
336.572	-0.01
336.782	0.02
336.992	-0.01
337.202	-0.01
337.412	-0.04
337.622	0.04
337.832	0.01
338.042	0.01
338.252	-0.05
338.462	-0.05
338.672	-0.03
338.882	0.02
339.092	-0.06
339.302	0.1
339.511	0.05
339.721	-0.03
339.931	-0.03
340.141	-0.01
340.351	0.02
340.561	-0.01
340.77	0.01
340.98	0.01
341.19	-0.03
341.4	-0.07
341.609	-0
341.819	-0.01
342.029	-0.03
342.238	0
342.448	-0.02
342.658	-0.01
342.867	-0
343.077	-0
343.286	0.02
343.496	0
343.706	0.03
343.915	-0.05
344.125	-0
344.334	0.05
344.544	-0.05
344.753	-0.03
344.963	0.01
345.172	-0.03
345.381	-0.03
345.591	-0.05
345.8	0.02
346.01	0.07
346.219	0.02
346.428	-0.15
346.638	-0.03
346.847	-0.01
347.056	0.07
347.266	-0.04
347.475	0.01
347.684	0
347.893	-0.02
348.103	-0.01
348.312	-0.01
348.521	-0.04
348.73	0.01
348.94	0
349.149	-0.02
349.358	-0.04
349.567	-0.04
349.776	-0.09
349.985	-0.05
350.194	0.01
350.403	0.02
350.612	-0.02
350.821	-0.04
351.03	0.03
351.239	-0.09
351.448	-0.02
351.657	-0.03
351.866	0.05
352.075	0.02
352.284	0.07
352.493	-0.06
352.702	0.02
352.911	0.06
353.12	0
353.329	-0.05
353.538	0.03
353.746	-0.02
353.955	-0.02
354.164	-0
354.373	-0.03
354.582	0.08
354.79	0.01
354.999	0.06
355.208	-0.03
355.416	0.01
355.625	-0.05
355.834	-0.04
356.042	0.03
356.251	-0.03
356.46	-0
356.668	0.02
356.877	0.1
357.085	0
357.294	-0.11
357.503	0.02
357.711	-0.03
357.92	0.13
358.128	0.02
358.337	-0.05
358.545	-0.01
358.754	0
358.962	0.02
359.17	0.02
359.379	0.03
359.587	0.02
359.796	0.02
360.004	0.03
360.212	-0
360.421	0.03
360.629	-0.03
360.837	0
361.046	0.05
361.254	0.06
361.462	0.02
361.67	-0.05
361.879	0
362.087	0.07
362.295	0.02
362.503	0
362.711	-0.06
362.92	0
363.128	-0.03
363.336	-0.03
363.544	-0.03
363.752	-0.01
363.96	-0.03
364.168	-0.03
364.376	-0.01
364.584	0.03
364.792	0.02
365	0
365.208	0
365.416	0.04
365.624	0.01
365.832	-0.03
366.04	0.04
366.248	0.02
366.456	0.04
366.664	0.04
366.872	0.03
367.079	-0.03
367.287	0
367.495	0.03
367.703	-0
367.911	0.02
368.118	0.01
368.326	-0.01
368.534	-0
368.742	0.09
368.949	-0.05
369.157	-0.02
369.365	0.03
369.572	0.02
369.78	-0.01
369.988	0.08
370.195	0.05
370.403	0.08
370.61	0
370.818	0.02
371.026	0.09
371.233	0.04
371.441	0.05
371.648	0.05
371.856	0.04
372.063	0.05
372.271	0.04
372.478	0.06
372.685	0.07
372.893	0.1
373.1	0.09
373.308	0.09
373.515	0.2
373.722	0.12
373.93	0.11
374.137	0.14
374.344	0.19
374.552	0.18
374.759	0.16
374.966	0.12
375.173	0.13
375.381	0.22
375.588	0.17
375.795	0.12
376.002	0.17
376.209	0.19
376.417	0.19
376.624	0.21
376.831	0.23
377.038	0.23
377.245	0.16
377.452	0.27
377.659	0.34
377.866	0.27
378.073	0.36
378.28	0.3
378.487	0.34
378.694	0.39
378.901	0.39
379.108	0.4
379.315	0.48
379.522	0.54
379.729	0.46
379.936	0.5
380.143	0.48
380.35	0.54
380.557	0.51
380.763	0.57
380.97	0.56
381.177	0.6
381.384	0.61
381.591	0.65
381.797	0.63
382.004	0.67
382.211	0.71
382.418	0.65
382.624	0.67
382.831	0.61
383.038	0.63
383.244	0.64
383.451	0.65
383.658	0.66
383.864	0.58
384.071	0.52
384.277	0.61
384.484	0.52
384.69	0.56
384.897	0.45
385.103	0.46
385.31	0.39
385.516	0.39
385.723	0.33
385.929	0.36
386.136	0.31
386.342	0.39
386.549	0.32
386.755	0.4
386.961	0.35
387.168	0.3
387.374	0.32
387.58	0.33
387.787	0.28
387.993	0.28
388.199	0.24
388.406	0.23
388.612	0.18
388.818	0.21
389.024	0.19
389.231	0.22
389.437	0.27
389.643	0.21
389.849	0.16
390.055	0.21
390.261	0.18
390.467	0.17
390.674	0.11
390.88	0.16
391.086	0.15
391.292	0.12
391.498	0.15
391.704	0.17
391.91	0.12
392.116	0.12
392.322	0.07
392.528	0.13
392.734	0.09
392.94	0.14
393.146	0.07
393.352	0.11
393.557	0.09
393.763	0.08
393.969	0.11
394.175	0.07
394.381	0.14
394.587	0.04
394.792	0.06
394.998	0.1
395.204	0.12
395.41	0.04
395.615	0.09
395.821	0.07
396.027	0.08
396.233	0.01
396.438	0.01
396.644	0.12
396.85	0.01
397.055	0.03
397.261	0.07
397.466	0.14
397.672	0.01
397.878	0.08
398.083	0.1
398.289	0.02
398.494	0.1
398.7	0.06
398.905	-0.04
399.111	0.11
399.316	0.01
399.522	0.04
399.727	0.06
399.932	0.03
400.138	-0
400.343	0.09
400.549	0.05
400.754	0.01
400.959	0.06
401.165	0.02
401.37	0.04
401.575	0.08
401.78	0.02
401.986	-0.03
402.191	0.04
402.396	-0.02
402.601	0.04
402.807	0.05
403.012	0.04
403.217	0.07
403.422	0.07
403.627	-0
403.832	-0
404.037	0.08
404.243	0.02
404.448	-0.04
404.653	-0.04
404.858	0
405.063	0.04
405.268	-0.05
405.473	-0.03
405.678	-0.02
405.883	0.16
406.088	0.05
406.293	-0.02
406.498	-0.02
406.703	0.05
406.907	0.04
407.112	-0.03
407.317	0.05
407.522	0.01
407.727	-0.06
407.932	0.02
408.136	0.09
408.341	0.02
408.546	0.02
408.751	-0.01
408.956	-0.04
409.16	0.04
409.365	0.01
409.57	-0.02
409.774	0
409.979	0.04
410.184	0.02
410.388	-0.05
410.593	0.04
410.798	0.01
411.002	0.03
411.207	0.03
411.411	0.03
411.616	-0.03
411.82	0
412.025	-0.01
412.229	-0.02
412.434	0.07
412.638	0.05
412.843	0
413.047	-0.01
413.252	-0.03
413.456	-0.01
413.66	0.03
413.865	-0.02
414.069	0.1
414.273	-0
414.478	-0.07
414.682	-0.03
414.886	-0.05
415.091	-0.07
415.295	-0.06
415.499	0.05
415.703	-0.03
415.908	0.06
416.112	-0.06
416.316	0.03
416.52	-0.03
416.724	-0.04
416.929	-0.02
417.133	0.08
417.337	-0.04
417.541	-0.02
417.745	-0.01
417.949	0.03
418.153	0.01
418.357	-0.1
418.561	0.06
418.765	-0
418.969	0.08
419.173	0.04
419.377	-0.05
419.581	0.06
419.785	0.04
419.989	-0.08
420.193	-0.01
420.397	-0.04
420.601	0.03
420.804	0.03
421.008	-0.01
421.212	-0.01
421.416	-0.01
421.62	-0.04
421.823	-0.04
422.027	0.08
422.231	0.03
422.435	-0.02
422.638	0.02
422.842	0.07
423.046	-0.04
423.249	0.01
423.453	0.06
423.657	0.04
423.86	-0
424.064	0.01
424.268	0.03
424.471	-0.01
424.675	0.05
424.878	0.04
425.082	-0.01
425.285	0.05
425.489	0.01
425.692	0.02
425.896	-0.07
426.099	-0.04
426.303	-0.06
426.506	-0.08
426.71	0.02
426.913	0.03
427.116	0.03
427.32	-0.02
427.523	0.01
427.726	0.11
427.93	0.01
428.133	0.01
428.336	-0.01
428.54	-0.04
428.743	0.03
428.946	0.07
429.149	-0.02
429.353	0.03
429.556	-0.01
429.759	-0.04
429.962	-0.01
430.165	0.01
430.368	0.01
430.571	-0.03
430.775	-0
430.978	-0.03
431.181	0.02
431.384	-0
431.587	0.01
431.79	-0.02
431.993	-0.01
432.196	-0.02
432.399	-0.02
432.602	0.09
432.805	-0.03
433.008	-0.05
433.211	-0.11
433.414	0.06
433.616	0.01
433.819	0.02
434.022	-0.07
434.225	0.09
434.428	0.03
434.631	0.1
434.833	0.03
435.036	-0.01
435.239	0.05
435.442	0.06
435.645	0.02
435.847	0.02
436.05	0.02
436.253	0
436.455	-0.01
436.658	0.02
436.861	0.12
437.063	-0.01
437.266	-0.03
437.468	0.05
437.671	0.12
437.874	0.04
438.076	-0.1
438.279	-0.12
438.481	0.04
438.684	-0.02
438.886	0.04
439.089	-0.05
439.291	0.02
439.494	0.07
439.696	-0.05
439.899	-0.05
440.101	0.03
440.303	-0.11
440.506	0.08
440.708	0.01
440.91	0.03
441.113	-0.01
441.315	0.04
441.517	-0
441.72	0.06
441.922	0
442.124	-0.01
442.326	0.05
442.529	0.12
442.731	0
442.933	0.1
443.135	0.05
443.337	0.04
443.539	0.04
443.742	0.03
443.944	0.02
444.146	0.04
444.348	0.02
444.55	0.06
444.752	0.07
444.954	0.03
445.156	0.07
445.358	0.01
445.56	0.07
445.762	0.02
445.964	0.08
446.166	0.02
446.368	0
446.57	0.08
446.772	0.07
446.974	0.03
447.175	0.07
447.377	0.03
447.579	0.04
447.781	-0.06
447.983	0.12
448.184	0.06
448.386	0.07
448.588	-0.04
448.79	0.02
448.991	0.07
449.193	0.06
449.395	0.07
449.597	0.09
449.798	0.08
450	0.07
450.202	0.02
450.403	0.07
450.605	0.07
450.806	0.07
451.008	-0.02
451.21	0.06
451.411	0.03
451.613	0.03
451.814	0.07
452.016	0.08
452.217	0.08
452.419	0.11
452.62	0.04
452.821	0.06
453.023	0.13
453.224	0.09
453.426	0.07
453.627	0.05
453.828	0.07
454.03	0.03
454.231	0.11
454.432	0
454.634	0.16
454.835	-0.01
455.036	0.02
455.238	0.11
455.439	0.06
455.64	-0.02
455.841	-0.02
456.042	0.16
456.244	0.07
456.445	-0.03
456.646	-0.04
456.847	0.02
457.048	0.07
457.249	0.09
457.45	0.18
457.651	-0.01
457.852	0.05
458.054	0.02
458.255	0.05
458.456	0.11
458.657	0.04
458.858	-0.04
459.058	0.01
459.259	0.05
459.46	0.03
459.661	-0.02
459.862	0.11
460.063	0.02
460.264	0.12
460.465	-0.06
460.666	0.13
460.866	0.02
461.067	0.01
461.268	0.02
461.469	-0.04
461.67	0.03
461.87	-0.04
462.071	-0.03
462.272	0.01
462.473	0.03
462.673	0.03
462.874	-0.03
463.075	0.01
463.275	-0.02
463.476	0.02
463.676	0.02
463.877	0.03
464.078	0.03
464.278	0.1
464.479	-0.04
464.679	0.01
464.88	-0.02
465.08	0.07
465.281	-0.03
465.481	0.01
465.682	0.01
465.882	0.01
466.083	0.04
466.283	0.01
466.483	-0.01
466.684	-0.03
466.884	-0.01
467.085	0
467.285	0.03
467.485	-0.03
467.686	-0.01
467.886	-0.03
468.086	0.03
468.286	0.02
468.487	0.03
468.687	-0.02
468.887	-0.01
469.087	0.04
469.287	-0.02
469.488	-0.07
469.688	0.06
469.888	0.01
470.088	0.01
470.288	0.04
470.488	0.06
470.688	-0.04
470.888	-0.03
471.088	-0.02
471.288	0.01
471.488	0.02
471.688	0.01
471.888	-0.06
472.088	0.06
472.288	0.04
472.488	-0.01
472.688	-0.03
472.888	-0.03
473.088	-0.01
473.288	-0.01
473.488	0.01
473.688	0.05
473.887	0.01
474.087	-0.02
474.287	-0.01
474.487	-0.02
474.687	0.05
474.886	-0.01
475.086	-0.01
475.286	0.01
475.486	-0.03
475.685	-0
475.885	-0.01
476.085	0.01
476.284	0.03
476.484	-0.04
476.684	0.03
476.883	0.04
477.083	0.01
477.282	-0.02
477.482	0.04
477.681	0.07
477.881	0.02
478.08	-0.02
478.28	-0.03
478.479	0.02
478.679	0.09
478.878	0
479.078	-0.02
479.277	-0.02
479.477	-0.01
479.676	0.03
479.875	-0.01
480.075	-0.05
480.274	0.01
480.473	0.02
480.673	-0.02
480.872	0.02
481.071	0.02
481.271	-0.01
481.47	-0.03
481.669	-0.01
481.868	-0.04
482.067	-0.03
482.267	-0.05
482.466	-0.01
482.665	-0.05
482.864	-0.04
483.063	-0.04
483.262	-0
483.461	0.04
483.661	0.02
483.86	-0.01
484.059	0.01
484.258	-0.02
484.457	0.01
484.656	-0.02
484.855	0.03
485.054	-0.05
485.253	-0
485.452	-0.03
485.651	-0.02
485.849	0.02
486.048	-0.04
486.247	-0.04
486.446	-0.03
486.645	-0.04
486.844	-0.04
487.043	-0.01
487.241	0.02
487.44	-0.01
487.639	-0.02
487.838	0
488.037	-0
488.235	0.03
488.434	-0.01
488.633	-0.01
488.831	-0.01
489.03	0.03
489.229	0.02
489.427	-0.04
489.626	0.02
489.825	0.04
490.023	-0.01
490.222	-0.02
490.42	0.02
490.619	0.02
490.817	-0.01
491.016	0
491.214	0.01
491.413	-0.02
491.611	0
491.81	-0
492.008	0.02
492.207	0.01
492.405	0
492.604	-0.04
492.802	-0.02
493	-0.02
493.199	-0.01
493.397	-0
493.595	0
493.794	0.01
493.992	0.05
494.19	-0.01
494.388	0.01
494.587	0.01
494.785	0
494.983	-0.05
495.181	-0.01
495.379	-0.01
495.578	-0.01
495.776	0.01
495.974	0.01
496.172	0
496.37	-0.02
496.568	-0.03
496.766	-0.04
496.964	0.01
497.162	-0
497.36	-0.02
497.558	-0.01
497.756	0.01
497.954	-0.01
498.152	-0.01
498.35	-0.02
498.548	-0
498.746	-0.02
498.944	-0.04
499.142	-0.01
499.34	-0.03
499.538	-0
499.736	-0.03
499.933	0.04
500.131	0.03
500.329	-0.02
500.527	0.01
500.725	0.01
500.922	0.01
501.12	0.01
501.318	-0
501.516	-0.02
501.713	0.01
501.911	0
502.109	-0.04
502.306	0.01
502.504	-0.01
502.701	-0.02
502.899	-0.02
503.097	0.02
503.294	-0
503.492	-0.01
503.689	-0.01
503.887	0.03
504.084	0.05
504.282	0
504.479	-0.03
504.677	-0.01
504.874	-0.04
505.072	0
505.269	-0.01
505.466	0.03
505.664	0
505.861	-0.02
506.059	-0.02
506.256	0.01
506.453	-0.03
506.651	0.02
506.848	0.03
507.045	-0
507.242	0.02
507.44	-0.01
507.637	-0.02
507.834	-0.02
508.031	0.01
508.229	-0.03
508.426	0
508.623	0.01
508.82	-0.03
509.017	-0.03
509.214	-0
509.411	0.01
509.608	-0.04
509.805	-0
510.003	-0.02
510.2	-0.04
510.397	0.02
510.594	-0.03
510.791	-0
510.988	-0.02
511.184	0.03
511.381	-0
511.578	-0.03
511.775	0.02
511.972	-0.01
512.169	-0.01
512.366	-0
512.563	0.04
512.76	-0.01
512.956	0.02
513.153	-0.01
513.35	0.01
513.547	-0.04
513.744	-0.02
513.94	-0.02
514.137	0.01
514.334	-0.02
514.53	-0.01
514.727	-0.01
514.924	0.02
515.12	-0.03
515.317	-0.05
515.514	-0.02
515.71	-0.03
515.907	-0.03
516.103	-0.01
516.3	0.01
516.497	0.01
516.693	0.01
516.89	0
517.086	-0.03
517.283	-0
517.479	-0.02
517.676	-0.02
517.872	-0.01
518.068	-0.01
518.265	-0.02
518.461	-0.02
518.658	-0.03
518.854	-0.02
519.05	-0.01
519.247	-0.03
519.443	0.02
519.639	0.01
519.836	-0
520.032	-0
520.228	-0.01
520.424	0.02
520.621	0
520.817	-0.01
521.013	0.01
521.209	-0
521.405	0.03
521.601	-0
521.798	0
521.994	0.06
522.19	-0.01
522.386	-0.05
522.582	0
522.778	0
522.974	-0.02
523.17	-0.02
523.366	0.01
523.562	0.03
523.758	0
523.954	-0.03
524.15	-0.01
524.346	0.02
524.542	-0.01
524.738	0
524.934	-0.01
525.129	-0.01
525.325	-0.01
525.521	0.01
525.717	0
525.913	-0
526.109	-0.01
526.304	0
526.5	-0
526.696	0.02
526.892	0
527.087	0
527.283	-0.03
527.479	0
527.674	-0.02
527.87	0.01
528.066	-0.02
528.261	0.03
528.457	0.01
528.653	-0
528.848	-0.01
529.044	-0
529.239	-0.01
529.435	0.01
529.63	-0.02
529.826	0.06
530.021	0
530.217	0.02
530.412	-0.02
530.608	-0.03
530.803	-0.01
530.999	-0.01
531.194	-0.04
531.389	-0
531.585	-0.05
531.78	-0
531.975	0.01
532.171	0
532.366	-0
532.561	-0.01
532.757	-0.01
532.952	-0.02
533.147	0
533.342	-0.01
533.538	-0.03
533.733	0.01
533.928	-0
534.123	-0.01
534.318	-0.03
534.513	-0.01
534.709	-0
534.904	-0.03
535.099	-0.03
535.294	0
535.489	-0.01
535.684	-0.03
535.879	-0.04
536.074	-0.01
536.269	-0.04
536.464	0.01
536.659	0
536.854	-0.02
537.049	0.02
537.244	0
537.439	-0.01
537.634	0.04
537.828	-0.01
538.023	-0.02
538.218	-0.02
538.413	-0
538.608	-0.04
538.803	0.01
538.997	-0.03
539.192	0.01
539.387	0.01
539.582	0.02
539.776	-0.01
539.971	-0.03
540.166	-0.03
540.36	-0.04
540.555	-0.01
540.75	-0.02
540.944	0.01
541.139	-0.04
541.334	0.01
541.528	0.01
541.723	-0.01
541.917	-0.01
542.112	-0.03
542.306	-0.01
542.501	-0.01
542.695	-0.01
542.89	-0.02
543.084	-0.01
543.279	-0
543.473	-0.01
543.668	-0.01
543.862	-0.01
544.056	0.02
544.251	-0
544.445	-0
544.64	-0.03
544.834	-0.03
545.028	-0
545.222	0.02
545.417	0.02
545.611	0
545.805	0
546	-0.03
546.194	-0.01
546.388	-0.01
546.582	0
546.776	-0.01
546.97	-0.01
547.165	-0.01
547.359	0.01
547.553	-0.01
547.747	0
547.941	-0.01
548.135	-0.01
548.329	0.03
548.523	0.02
548.717	-0.03
548.911	-0.03
549.105	-0.01
549.299	-0.01
549.493	0.02
549.687	0
549.881	0
550.075	-0.02
550.269	-0.04
550.463	-0.01
550.657	-0.04
550.85	0
551.044	-0.01
551.238	-0.01
551.432	-0.03
551.626	-0.04
551.82	-0.01
552.013	-0.03
552.207	0.02
552.401	0.02
552.594	-0.02
552.788	-0.02
552.982	0.02
553.176	-0.01
553.369	0
553.563	0.03
553.756	-0.05
553.95	-0.01
554.144	0
554.337	0
554.531	-0
554.724	0
554.918	-0.01
555.111	0
555.305	0.01
555.498	0.04
555.692	-0
555.885	-0.01
556.079	-0.02
556.272	-0.01
556.466	0.03
556.659	-0.01
556.852	-0.02
557.046	-0.01
557.239	0.03
557.432	-0.01
557.626	-0.03
557.819	-0.01
558.012	0.03
558.206	0.01
558.399	-0
558.592	-0.02
558.785	-0.02
558.979	0.02
559.172	0
559.365	0.03
559.558	0.01
559.751	-0.02
559.944	-0.01
560.138	0.02
560.331	-0.01
560.524	-0.01
560.717	-0.03
560.91	-0.01
561.103	-0
561.296	0.03
561.489	0
561.682	-0.02
561.875	0.01
562.068	0
562.261	-0.01
562.454	0.03
562.647	0.01
562.84	-0
563.032	0.01
563.225	0.01
563.418	-0.03
563.611	-0.01
563.804	-0.02
563.997	-0.03
564.19	-0.05
564.382	0
564.575	-0.02
564.768	-0.03
564.961	-0.01
565.153	-0.01
565.346	0.01
565.539	0.02
565.731	0.01
565.924	0.01
566.117	0
566.309	0.01
566.502	-0.02
566.695	-0.01
566.887	-0.01
567.08	-0.01
567.272	-0.02
567.465	-0.05
567.657	0
567.85	-0.01
568.042	-0.02
568.235	0.03
568.427	0.01
568.62	0
568.812	0.01
569.005	-0
569.197	-0.02
569.389	0
569.582	0
569.774	0
569.966	-0.04
570.159	-0.03
570.351	-0.01
570.543	-0.02
570.736	-0.01
570.928	-0.04
571.12	-0.02
571.312	-0.03
571.505	-0.02
571.697	0.04
571.889	-0.04
572.081	-0.01
572.273	-0.05
572.465	0.01
572.658	-0.03
572.85	0.01
573.042	-0.01
573.234	0.01
573.426	0.04
573.618	-0.04
573.81	0
574.002	0.04
574.194	0.01
574.386	-0.05
574.578	-0.08
574.77	-0.04
574.962	-0.03
575.154	-0.03
575.346	0
575.538	-0.01
575.729	-0.04
575.921	-0.03
576.113	-0.01
576.305	0.01
576.497	-0
576.689	0.01
576.88	-0.03
577.072	-0
577.264	0
577.456	-0.02
577.647	-0.07
577.839	-0.02
578.031	0.04
578.223	-0.04
578.414	-0.04
578.606	0.03
578.798	0.01
578.989	-0.03
579.181	-0.01
579.372	-0
579.564	-0.01
579.755	-0.01
579.947	0.02
580.139	0.03
580.33	-0.04
580.522	-0.01
580.713	-0.05
580.905	-0.02
581.096	-0.01
581.287	-0.02
581.479	-0.01
581.67	0.01
581.862	0
582.053	-0.02
582.244	-0.06
582.436	-0.01
582.627	-0.01
582.818	-0.03
583.01	-0.03
583.201	0.02
583.392	0
583.583	-0.01
583.775	-0.01
583.966	-0.02
584.157	-0.01
584.348	-0.02
584.54	-0.06
584.731	0
584.922	-0.03
585.113	-0.04
585.304	0.02
585.495	0.02
585.686	-0.01
585.877	-0
586.068	-0
586.259	0.02
586.45	-0
586.641	-0.04
586.832	-0.08
587.023	-0.01
587.214	-0.01
587.405	0
587.596	-0.03
587.787	0.02
587.978	-0.01
588.169	-0.04
588.36	-0.01
588.551	-0
588.742	-0.03
588.932	-0.02
589.123	-0.01
589.314	0.03
589.505	-0.02
589.696	0.02
589.886	-0.04
590.077	-0.03
590.268	0.01
590.458	-0.04
590.649	-0.05
590.84	0.01
591.03	-0.05
591.221	-0.05
591.412	-0.03
591.602	0.02
591.793	0
591.984	-0.04
592.174	-0.01
592.365	0.05
592.555	-0.04
592.746	0.03
592.936	0
593.127	0.01
593.317	0.03
593.508	-0.03
593.698	-0.03
593.889	0.01
594.079	-0.01
594.269	-0.03
594.46	-0.01
594.65	-0.02
594.84	-0.02
595.031	-0.02
595.221	-0.04
595.411	-0.05
595.602	0
595.792	-0.01
595.982	-0.02
596.172	0.03
596.363	-0.01
596.553	-0
596.743	-0.02
596.933	0.01
597.123	0.02
597.314	-0.02
597.504	-0.03
597.694	0.01
597.884	-0.01
598.074	-0.02
598.264	0
598.454	0.01
598.644	0.01
598.834	-0.01
599.024	-0.08
599.214	-0.01
599.404	0.03
599.594	-0.01
599.784	-0.02
599.974	0.01
600.164	0.01
600.354	-0.04
600.544	-0.04
600.734	0.01
600.924	0.01
601.114	-0.02
601.303	-0.01
601.493	0.01
601.683	-0.04
601.873	-0
602.063	-0.03
602.252	0.02
602.442	-0.07
602.632	-0.05
602.821	-0.03
603.011	0
603.201	-0.01
603.39	-0.02
603.58	-0.02
603.77	-0.03
603.959	-0
604.149	0
604.339	-0.04
604.528	0.01
604.718	0
604.907	-0.03
605.097	-0
605.286	0.01
605.476	-0.01
605.665	0.02
605.855	-0.04
606.044	0.01
606.234	-0.02
606.423	-0.01
606.612	-0.02
606.802	0.02
606.991	0
607.181	-0.02
607.37	-0.05
607.559	-0.02
607.749	-0.07
607.938	-0.01
608.127	-0.02
608.316	-0.04
608.506	0
608.695	-0.01
608.884	-0.03
609.073	-0.01
609.263	0.03
609.452	0.01
609.641	0.01
609.83	-0.03
610.019	-0.02
610.208	-0.03
610.397	-0.03
610.586	0.01
610.775	-0.04
610.965	-0.03
611.154	-0.01
611.343	0.01
611.532	-0.03
611.721	-0.03
611.91	-0.03
612.099	0.03
612.287	-0.03
612.476	-0.04
612.665	0.01
612.854	-0.03
613.043	0.03
613.232	-0.01
613.421	-0.05
613.61	0.01
613.798	-0.03
613.987	0.04
614.176	0.01
614.365	-0
614.554	0.01
614.742	0.01
614.931	-0.01
615.12	0.03
615.309	0.01
615.497	0
615.686	-0.03
615.875	-0.02
616.063	0
616.252	-0.01
616.44	-0.01
616.629	0.01
616.818	0.01
617.006	-0.02
617.195	-0.01
617.383	0.01
617.572	-0.02
617.76	-0.03
617.949	-0.02
618.137	0.01
618.326	0.03
618.514	-0.03
618.703	-0.04
618.891	0
619.079	-0.08
619.268	0.03
619.456	-0.04
619.644	0.01
619.833	-0
620.021	-0.02
620.209	-0.02
620.398	0.01
620.586	-0.01
620.774	-0.02
620.962	-0
621.151	0.03
621.339	-0.03
621.527	-0.02
621.715	-0.06
621.903	-0.04
622.092	-0.04
622.28	0.01
622.468	-0.04
622.656	0
622.844	0.04
623.032	-0.01
623.22	-0.06
623.408	0.04
623.596	0.01
623.784	0.02
623.972	-0.05
624.16	-0.05
624.348	0.06
624.536	-0.01
624.724	-0.03
624.912	0.03
625.1	0.03
625.288	-0.04
625.476	-0.04
625.664	0.01
625.851	-0.03
626.039	0
626.227	0.01
626.415	0.01
626.603	-0.05
626.79	-0.03
626.978	-0.01
627.166	0.03
627.354	0
627.541	-0.02
627.729	-0.06
627.917	0.02
628.104	0.02
628.292	0
628.48	0.01
628.667	0.04
628.855	-0.03
629.042	0.02
629.23	-0.03
629.418	0
629.605	-0.02
629.793	-0.04
629.98	0.01
630.168	-0.03
630.355	-0.01
630.543	0.03
630.73	-0.03
630.917	0.02
631.105	0.03
631.292	-0.03
631.48	-0.04
631.667	0.07
631.854	-0
632.042	0
632.229	-0.03
632.416	0.02
632.604	-0.01
632.791	-0.06
632.978	0.03
633.165	0.02
633.353	0.07
633.54	0.01
633.727	-0.05
633.914	-0.05
634.101	-0.06
634.289	0.05
634.476	-0.04
634.663	-0.03
634.85	0.01
635.037	-0.02
635.224	-0.06
635.411	0.03
635.598	0.08
635.785	0.01
635.972	-0.02
636.159	0.01
636.346	-0.02
636.533	0.02
636.72	-0.01
636.907	-0.05
637.094	0.03
637.281	-0
637.468	0.02
637.655	0.02
637.842	0.02
638.029	0
638.215	0.03
638.402	-0
638.589	-0.02
638.776	-0.02
638.963	-0.04
639.149	0.03
639.336	0.08
639.523	-0.01
639.709	0
639.896	0.01
640.083	0.05
640.27	0
640.456	-0.02
640.643	0.01
640.829	0
641.016	0.01
641.203	-0.02
641.389	0.04
641.576	0.05
641.762	0.03
641.949	-0.03
642.135	0.03
642.322	0.02
642.508	-0.03
642.695	0.02
642.881	0.02
643.068	0.04
643.254	0.03
643.441	0.04
643.627	0.02
643.813	-0
644	0.05
644.186	0
644.372	0.02
644.559	0.04
644.745	0.06
644.931	-0.02
645.118	0.02
645.304	0.03
645.49	-0.01
645.676	-0.01
645.862	0.04
646.049	0.06
646.235	0
646.421	0.06
646.607	0.08
646.793	0.03
646.979	-0.02
647.165	0.05
647.352	0.03
647.538	0.07
647.724	0.01
647.91	0.04
648.096	0.05
648.282	0.01
648.468	0.01
648.654	0.07
648.84	0.04
649.026	0.04
649.212	0.05
649.397	0.02
649.583	-0.01
649.769	0.05
649.955	0.04
650.141	0.08
650.327	0.11
650.513	0.02
650.698	0.07
650.884	-0.03
651.07	0.08
651.256	0.06
651.442	0.05
651.627	0.04
651.813	0.04
651.999	0.06
652.184	0.08
652.37	0.05
652.556	0.03
652.741	0.15
652.927	-0.02
653.113	0.06
653.298	0.06
653.484	0.06
653.669	0.03
653.855	0.04
654.04	0.08
654.226	0.08
654.412	0.03
654.597	0.06
654.782	0.06
654.968	0.11
655.153	0.06
655.339	0.04
655.524	0.04
655.71	0.11
655.895	0.02
656.08	0.05
656.266	0.12
656.451	0.11
656.636	0.02
656.822	0.07
657.007	0.04
657.192	0.08
657.378	0.04
657.563	0.09
657.748	0.11
657.933	0.12
658.118	0.09
658.304	0.06
658.489	0.14
658.674	0.09
658.859	0.09
659.044	0.08
659.229	0.11
659.414	0.07
659.599	0.03
659.785	0.07
659.97	0.07
660.155	0.1
660.34	0.08
660.525	0.1
660.71	0.07
660.895	0.07
661.08	0.06
661.264	0.1
661.449	0.14
661.634	0.13
661.819	0.07
662.004	0.09
662.189	0.01
662.374	0.04
662.559	0.04
662.743	0.01
662.928	0.04
663.113	0.04
663.298	0.01
663.483	0.05
663.667	0.08
663.852	0.04
664.037	0.09
664.221	0.04
664.406	0.06
664.591	0.05
664.775	0.04
664.96	0.03
665.145	0.07
665.329	0.08
665.514	-0
665.698	0.06
665.883	-0.01
666.068	0.12
666.252	0.03
666.437	0.04
666.621	0.01
666.806	0.04
666.99	0.02
667.174	-0.02
667.359	0.09
667.543	-0.03
667.728	0.01
667.912	-0.01
668.096	0.04
668.281	-0.02
668.465	0.03
668.649	0
668.834	-0.01
669.018	0.01
669.202	-0.01
669.387	-0.03
669.571	0.03
669.755	-0.04
669.939	-0.01
670.124	-0.02
670.308	0.04
670.492	0.06
670.676	0.03
670.86	-0
671.044	-0.05
671.228	0.02
671.413	-0.02
671.597	-0.03
671.781	-0.01
671.965	0.01
672.149	-0.02
672.333	-0.01
672.517	-0.03
672.701	0.02
672.885	-0.02
673.069	-0.07
673.253	0.06
673.437	-0.03
673.621	-0.03
673.804	0
673.988	-0.02
674.172	-0
674.356	-0.05
674.54	-0.08
674.724	0.09
674.908	-0.02
675.091	0.01
675.275	-0.02
675.459	0.05
675.643	0.06
675.826	0.01
676.01	-0.01
676.194	-0.03
676.377	0.04
676.561	0
676.745	-0.01
676.928	0.01
677.112	0.03
677.296	-0.04
677.479	-0.06
677.663	-0.03
677.846	0.04
678.03	-0.04
678.213	0.01
678.397	-0
678.58	-0.01
678.764	-0.02
678.947	-0.05
679.131	-0.04
679.314	0.03
679.498	-0.04
679.681	0.02
679.865	0.05
680.048	-0
680.231	0.03
680.415	-0.02
680.598	-0.03
680.781	-0.01
680.965	-0.03
681.148	0.01
681.331	0
681.514	0.02
681.698	-0.04
681.881	0
682.064	-0.03
682.247	-0.02
682.43	-0.06
682.614	0.03
682.797	0.05
682.98	0.03
683.163	-0.07
683.346	0.04
683.529	-0.02
683.712	-0.06
683.895	-0.02
684.078	-0.05
684.261	-0.07
684.444	-0.02
684.627	0.02
684.81	-0.04
684.993	-0.02
685.176	-0
685.359	-0.04
685.542	-0.07
685.725	0.04
685.908	-0
686.091	-0.05
686.274	0.03
686.457	0.05
686.639	-0.01
686.822	-0.01
687.005	0
687.188	0.01
687.371	0.07
687.553	0
687.736	0.03
687.919	0.05
688.102	0.02
688.284	-0.02
688.467	-0.04
688.65	0.01
688.832	-0.02
689.015	-0.06
689.197	-0.06
689.38	0.1
689.563	0.06
689.745	-0.02
689.928	-0.04
690.11	0.01
690.293	0.01
690.475	-0.05
690.658	0.01
690.84	-0.01
691.023	0.02
691.205	0.01
691.388	-0.04
691.57	0.01
691.752	-0.02
691.935	-0.15
692.117	-0.05
692.3	0.02
692.482	-0.02
692.664	-0.06
692.847	0.02
693.029	0.08
693.211	0.05
693.393	-0.03
693.576	-0.05
693.758	-0.07
693.94	-0.04
694.122	-0.01
694.304	-0.03
694.487	-0.08
694.669	0.09
694.851	-0.08
695.033	-0.04
695.215	-0.02
695.397	-0.04
695.579	0.02
695.761	-0.06
695.943	-0.11
696.125	0.04
696.308	-0.02
696.49	-0.12
696.671	0.12
696.853	0.03
697.035	0.13
697.217	-0
697.399	0
697.581	-0.03
697.763	-0.05
697.945	-0.06
698.127	-0.01
698.309	0.03
698.491	0
698.672	0
698.854	0.02
699.036	0.03
699.218	0.01
699.399	0.06
699.581	0.01
699.763	0
699.945	-0.06
700.126	-0.02
700.308	-0.03
700.49	0.03
700.671	-0.07
700.853	-0.05
701.035	0.03
701.216	-0.08
701.398	-0.03
701.579	-0.01
701.761	0.05
701.943	-0.03
702.124	-0.1
702.306	-0.02
702.487	0.07
702.669	-0.02
702.85	-0.08
703.031	-0.05
703.213	0.07
703.394	0.01
703.576	-0.04
703.757	0.08
703.938	0.02
704.12	0.11
704.301	-0.02
704.483	-0.05
704.664	0.01
704.845	0.13
705.026	0.05
705.208	-0.01
705.389	0.04
705.57	-0.07
705.751	-0.05
705.933	-0.01
706.114	0.09
706.295	0.02
706.476	-0.02
706.657	0.08
706.838	0.01
707.02	0.06
707.201	-0.05
707.382	-0.04
707.563	-0.01
707.744	-0.01
707.925	-0.01
708.106	0.01
708.287	0.04
708.468	0.07
708.649	-0.01
708.83	0.06
709.011	0.01
709.192	0.09
709.373	-0.07
709.554	-0.03
709.734	0.06
709.915	0.05
710.096	-0.01
710.277	-0.08
710.458	-0.02
710.639	0.04
710.819	-0.07
711	0.01
711.181	0.01
711.362	0.1
711.542	0
711.723	-0.03
711.904	0.1
712.085	-0.04
712.265	0.01
712.446	-0.13
712.627	-0.01
712.807	-0.06
712.988	0.03
713.168	-0.09
713.349	-0
713.53	-0.09
713.71	-0.07
713.891	-0.09
714.071	-0.05
714.252	-0.01
714.432	-0.03
714.613	-0.04
714.793	0.01
714.974	0.05
715.154	0.03
715.334	0.02
715.515	0.04
715.695	-0.07
715.876	-0
716.056	-0
716.236	-0.04
716.417	-0.02
716.597	0
716.777	0.15
716.957	0.04
717.138	0.01
717.318	0.03
717.498	-0.04
717.678	0.02
717.859	0.03
718.039	-0.02
718.219	0
718.399	0.04
718.579	-0.02
718.759	-0.03
718.939	0.04
719.12	0.02
719.3	0.01
719.48	-0.1
719.66	-0.07
719.84	0.08
720.02	0.02
720.2	-0.03
720.38	0.01
720.56	0.17
720.74	0.06
720.92	0.01
721.1	0.07
721.279	0.08
721.459	-0.02
721.639	-0.04
721.819	0.06
721.999	0.04
722.179	0.05
722.359	-0.02
722.538	0.03
722.718	0.03
722.898	-0.06
723.078	-0.04
723.257	0
723.437	0.04
723.617	0.05
723.797	0.02
723.976	0.02
724.156	-0.04
724.336	0.13
724.515	0.16
724.695	-0.13
724.874	-0
725.054	0.12
725.234	-0.07
725.413	0.07
725.593	-0.04
725.772	-0
725.952	0.04
726.131	0.03
726.311	0.04
726.49	-0.06
726.67	0.01
726.849	0.02
727.028	0.14
727.208	-0.05
727.387	-0
727.567	0.02
727.746	-0
727.925	0.05
728.105	-0.07
728.284	-0.01
728.463	-0
728.643	0.04
728.822	-0.13
729.001	0.07
729.18	0.1
729.359	0.1
729.539	0.03
729.718	0.04
729.897	0.1
730.076	0.06
730.255	-0.04
730.434	0.1
730.614	0.11
730.793	0.19
730.972	-0.04
731.151	0.09
731.33	0.2
731.509	0.15
731.688	0.13
731.867	0.03
732.046	-0.02
732.225	0.24
732.404	-0.03
732.583	-0.01
732.762	0.09
732.941	0.13
733.12	0.15
733.298	0
733.477	0.18
733.656	-0
733.835	-0.03
734.014	0.05
734.193	0.04
734.371	0.13
734.55	0.13
734.729	0.04
734.908	0.15
735.086	0.1
735.265	0.12
735.444	-0.02
735.623	-0.05
735.801	0.03
735.98	0.09
736.159	0.04
736.337	0.11
736.516	0.08
736.694	0.09
736.873	0.09
737.052	0.17
737.23	0.13
737.409	0.06
737.587	0.14
737.766	-0.09
737.944	0.08
738.123	0.17
738.301	0.04
738.479	0.09
738.658	0.03
738.836	-0.07
739.015	0.06
739.193	0.18
739.371	-0.02
739.55	0.07
739.728	-0.08
739.906	0.2
740.085	0.14
740.263	0.01
740.441	-0.05
740.62	0.16
740.798	0.08
740.976	-0.05
741.154	-0.03
741.332	0.19
741.511	-0
741.689	0.07
741.867	0.08
742.045	0.03
742.223	0.08
742.401	0.02
742.579	0.07
742.757	0.1
742.935	-0.06
743.114	0.01
743.292	-0.02
743.47	0.03
743.648	0.06
743.826	-0.09
744.004	0.02
744.181	0.03
744.359	-0.02
744.537	0.15
744.715	0.03
744.893	-0.03
745.071	0.03
745.249	-0.11
745.427	-0.08
745.605	0.11
745.782	0.03
745.96	0.13
746.138	0.07
746.316	0.01
746.493	0.01
746.671	0.06
746.849	0.01
747.027	0.04
747.204	-0.18
747.382	0.01
747.56	-0.09
747.737	0.01
747.915	-0.08
748.093	0.05
748.27	-0.06
748.448	0.05
748.625	-0.05
748.803	-0.11
748.98	-0.03
749.158	0.1
749.335	0.1
749.513	-0.09
749.69	0.09
749.868	-0.03
750.045	0.13
750.223	-0.06
750.4	-0.28
750.578	0.24
750.755	0.05
750.932	-0.13
751.11	0.11
751.287	-0.16
751.464	0.14
751.642	-0.09
751.819	0.04
751.996	0.02
752.173	-0.07
752.351	-0.07
752.528	-0.05
752.705	-0.04
752.882	-0.06
753.06	0.01
753.237	0.06
753.414	0.16
753.591	0.08
753.768	0.07
753.945	-0.05
754.122	-0.12
754.299	0.17
754.476	-0.09
754.654	-0.01
754.831	0.1
755.008	0
755.185	-0.08
755.362	-0.16
755.539	0.07
755.716	-0.06
755.892	-0.03
756.069	-0.06
756.246	-0.06
756.423	-0.05
756.6	0.11
756.777	-0.01
756.954	0.07
757.131	-0.06
757.307	-0.15
757.484	-0.11
757.661	-0.02
757.838	0.05
758.015	-0.15
758.191	0.02
758.368	-0.04
758.545	0.08
758.721	0.08
758.898	-0.18
759.075	0.02
759.251	-0.01
759.428	0.06
759.605	-0.16
759.781	-0.1
759.958	-0.01
760.134	-0.03
760.311	-0.01
760.488	-0.03
760.664	0.09
760.841	0.07
761.017	-0.22
761.194	-0.03
761.37	-0.01
761.547	0.02
761.723	-0.12
761.899	0.05
762.076	-0.04
762.252	-0.26
762.429	-0.12
762.605	-0.03
762.781	-0.08
762.958	0.11
763.134	-0.06
763.31	-0.06
763.486	0.08
763.663	-0.12
763.839	0.03
764.015	-0.23
764.191	-0.12
764.368	-0.11
764.544	-0.07
764.72	0
764.896	0
765.072	-0.04
765.248	-0.01
765.425	-0.01
765.601	-0.12
765.777	-0.11
765.953	-0.21
766.129	-0.03
766.305	-0.16
766.481	0.04
766.657	0.03
766.833	0.15
767.009	-0.23
767.185	-0.07
767.361	-0.03
767.537	-0.12
767.713	0.04
767.889	-0.15
768.065	0.03
768.24	-0.29
768.416	-0.02
768.592	-0
768.768	-0.05
768.944	-0.01
769.12	-0.22
769.295	-0.09
769.471	-0
769.647	0.02
769.823	0.09
769.998	-0.12
770.174	-0.25
770.35	0.22
770.525	0.23
770.701	0.01
770.877	-0.05
771.052	-0.12
771.228	0.12
771.403	0.04
771.579	0.14
771.755	0.12
771.93	-0.09
772.106	-0.25
772.281	-0.2
772.457	-0.06
772.632	0.1
772.808	-0.18
772.983	-0.13
773.159	-0.19
773.334	0.06
773.509	-0.11
773.685	-0
773.86	0.27
774.036	0.15
774.211	0.06
774.386	-0.11
774.562	-0.02
774.737	0.02
774.912	-0.17
775.087	-0.03
775.263	-0.01
775.438	0.08
775.613	-0.03
775.788	-0.1
775.964	0.09
776.139	0.28
776.314	-0.17
776.489	-0
776.664	0.01
776.839	-0.09
777.014	0.08
777.19	0.15
777.365	0.2
777.54	0.08
777.715	-0.14
777.89	-0.06
778.065	-0.09
778.24	-0.13
778.415	0.34
778.59	-0.23
778.765	-0.18
778.94	0.04
779.115	0.03
779.289	-0.11
779.464	-0.03
779.639	-0.01
779.814	-0.19
779.989	-0.07
780.164	0.19
780.339	-0.15
780.513	-0.02
780.688	-0.09
780.863	0.07
781.038	0.03
781.212	-0
781.387	-0.02
781.562	0.23
781.737	-0.06
781.911	0.16
782.086	0.03
782.261	0.03
782.435	0.17
782.61	-0.22
782.784	-0.01
782.959	0.14
783.134	-0.04
783.308	-0.13
783.483	-0.08
783.657	0.32
783.832	0.19
784.006	-0.32
784.181	-0.05
784.355	0.13
784.53	-0.02
784.704	-0.24
784.878	0.18
785.053	0.14
785.227	0.32
785.402	0.08
785.576	-0.31
785.75	-0.02
785.925	-0.08
786.099	0.24
786.273	-0.03
786.448	0.02
786.622	-0.04
786.796	0.12
786.97	-0.17
787.145	0.53
787.319	-0.08
787.493	0.06
787.667	-0.58
787.841	-0.21
788.015	0.21
788.19	-0.28
788.364	-0.08
788.538	0.12
788.712	-0.11
788.886	-0.08
789.06	0.04
789.234	0.22
789.408	-0.32
789.582	0.07
789.756	-0.1
789.93	-0.1
790.104	0.01
790.278	-0.09
790.452	-0.24
790.626	-0.1
790.8	-0.37
790.973	0.07
791.147	0.14
791.321	0.15
791.495	0
791.669	-0.11
791.843	-0.04
792.016	0.23
792.19	0.16
792.364	0.01
792.538	0.29
792.711	0.24
792.885	-0.25
793.059	-0.23
793.233	-0.68
793.406	0.08
793.58	-0.04
793.754	-0.19
793.927	-0.01
794.101	0.2
794.274	0.1
794.448	0.16
794.622	-0.14
794.795	0.28
794.969	-0.46
795.142	0.31
795.316	-0.22
795.489	-0.18
795.663	0.34
795.836	-0.1
796.009	-0.26
796.183	0.19
796.356	-0.09
796.53	-0.17
796.703	-0.09
796.876	0.18
797.05	-0.22
797.223	-0.1
797.396	-0.07
797.57	-0.04
797.743	0.2
797.916	-0.03
798.09	-0.09
798.263	0.11
798.436	-0.01
798.609	-0.12
798.782	-0.2
798.956	-0.21
799.129	0.13
799.302	-0.18
799.475	-0.13
799.648	-0.21
799.821	-0.39
799.994	-0.08
800.167	-0.28
800.34	-0.02
800.514	-0.07
800.687	0.13
800.86	-0.28
801.033	-0.22
801.206	-0.13
801.379	-0.27
801.551	0.05
801.724	0.11
801.897	0.23
802.07	0.07
802.243	-0.76
802.416	-0.4
802.589	-0.66
802.762	-0.07
802.935	-0.06
803.107	0.25
803.28	0.32
803.453	0.03
803.626	-0.2
803.798	-0.12
803.971	-0.38
804.144	0.02
804.317	-0.03
804.489	0.21
804.662	0.03
804.835	0.05
805.007	-0.29
805.18	0.37
805.353	0.11
805.525	-0.37
805.698	-0.35
805.87	0.21
806.043	0.11
806.215	-0.5
806.388	-0.13
806.56	0.09
806.733	0.29
806.905	-0.01
807.078	-0.38
807.25	-0.15
807.423	0.1
807.595	-0.01
807.768	0.2
807.94	0.1
808.112	-0.2
808.285	-0.21
808.457	0.22
808.629	-0.2
808.802	-0.01
808.974	0.05
809.146	-0.16
809.318	-0.38
809.491	0.04
809.663	0.3
809.835	-0.3
810.007	-0.25
810.18	-0.14
810.352	-0.43
810.524	-0.12
810.696	-0.19
810.868	0.41
811.04	-0.15
811.212	-0.18
811.384	0.53
811.556	0.04
811.728	0.08
811.901	0.72
812.073	-0.07
812.245	0.52
812.417	-0.23
812.589	-0.64
812.76	0.42
812.932	0.12
813.104	0.38
813.276	-0.29
813.448	0.32
813.62	-0.19
813.792	0.35
813.964	-0.1
814.136	0.04
814.307	-0.38
814.479	-0.44
814.651	-0.05
814.823	0.31
814.995	-0.08
815.166	-0.07
815.338	-0.5
815.51	-0.76
815.681	0.79
815.853	-0.01
816.025	-0.29
816.196	0.37
816.368	0.04
816.54	-0.54
816.711	-0.75
816.883	0.2
817.054	1.02
817.226	-0.48
817.398	-0.12
817.569	-0.16
817.741	-0.21
817.912	0.16
818.084	-0.28
818.255	0.45
818.426	-0.66
818.598	0.18
818.769	-0.12
818.941	-0.05
819.112	0.49
819.283	0.33
819.455	-0.33
819.626	-0.28
819.798	0.16
819.969	0.11
820.14	0.08
820.311	-0.45
820.483	0.13
820.654	0.12
820.825	-0.03
820.996	-0.21
821.168	-0.71
821.339	-0.4
821.51	-0.81
821.681	-0.53
821.852	-0.26
822.023	-0.33
822.195	-0.75
822.366	0.39
822.537	-0.15
822.708	0.12
822.879	-0.32
823.05	0.04
823.221	-0.52
823.392	0.42
823.563	-0.34
823.734	0.34
823.905	-0.22
824.076	-0.6
824.247	-0.62
824.418	-0.52
824.589	0.25
824.759	-0.42
824.93	-0.24
825.101	-0.55
825.272	0.38
825.443	0.43
825.614	-0.18
825.784	-1.14
825.955	0.31
826.126	0.6
826.297	0.33
826.467	1.68
826.638	0.86
826.809	-1.03
826.98	-0.25
827.15	0.13
827.321	0.24
827.492	0.63
827.662	0.56
827.833	0.02
828.003	0.42
828.174	-0.4
828.345	-0.54
828.515	0.35
828.686	0.13
828.856	-0.19
829.027	0.02
829.197	-0.37
829.368	0
829.538	-0.76
829.709	-0.9
829.879	0.14
830.049	-0.45
830.22	-0.56
830.39	-0.26
830.56	-0.04
830.731	-0.2
830.901	-0.37
831.072	-0.62
831.242	0.35
831.412	-0.04
831.582	-0.73
831.753	-0.7
831.923	0.68
832.093	-0.16
832.263	-0.49
832.434	-0.76
832.604	-0.37
832.774	0.5
832.944	-0.52
833.114	-0.08
833.284	-0.09
833.454	-0.28
833.624	-0.68
833.795	-0.45
833.965	0.39
834.135	0.61
834.305	-0.68
834.475	-0.49
834.645	-0.07
834.815	-0.57
834.985	-0.23
835.155	-0.25
835.325	0.11
835.494	0.61
835.664	-0.27
835.834	-1.23
836.004	-0.03
836.174	0.34
836.344	-0.06
836.514	-0.96
836.684	-0.36
836.853	-0.15
837.023	0.12
837.193	-0.34
837.363	-0.09
837.532	0.66
837.702	-0.22
837.872	-1
838.041	0.37
838.211	0.97
838.381	-0.67
838.55	-0.44
838.72	1.15
838.89	0.9
839.059	-0.22
839.229	-0.02
839.398	1.03
839.568	-0.18
839.738	0.37
839.907	0.42
840.077	0.38
840.246	-0.63
840.416	-0.7
840.585	-0.84
840.755	0.76
840.924	0.48
841.093	-0.81
841.263	0.16
841.432	-0
841.602	-0.83
841.771	-0.5
841.94	0.24
842.11	0.97
842.279	0.51
842.448	-0.79
842.617	-0.42
842.787	0.76
842.956	-1.33
843.125	0.13
843.294	0.01
843.464	0.81
843.633	-0.24
843.802	-1.06
843.971	-0.06
844.14	0.47
844.309	0.23
844.479	-0.43
844.648	-0.58
844.817	-0.37
844.986	-0.23
845.155	-0.63
845.324	-0.51
845.493	-0.5
845.662	-0.63
845.831	0.2
846	0.62
846.169	-0.19
846.338	0.61
846.507	0.26
846.676	-0.48
846.844	-0.65
847.013	0.85
847.182	-0.52
847.351	-0.89
847.52	0.08
847.689	0.41
847.858	-0.19
848.026	-0.32
848.195	-0.45
848.364	0.07
848.533	-0.59
848.701	-0.75
848.87	0.61
849.039	0.5
849.207	1.27
849.376	-0.1
849.545	1.08
849.713	-0.06
849.882	-0.83
850.051	-0.26
850.219	-0.6
850.388	0.11
850.556	0.05
850.725	-0.28
850.893	0.17
851.062	-0.5
851.23	0.72
851.399	-1.67
851.567	-0.2
851.736	-0.33
851.904	-0.22
852.073	0.65
852.241	0.49
852.41	-0.24
852.578	-0.52
852.746	-1.34
852.915	0.74
853.083	-0.33
853.251	-1.06
853.42	-0.05
853.588	0.82
853.756	-0.09
853.924	0.17
854.093	-0.99
854.261	-0.38
854.429	-2.21
854.597	-0.51
854.765	-0.65
854.934	-0.11
855.102	1.16
855.27	-1.08
855.438	0.1
855.606	1.71
855.774	1.09
855.942	-1.26
856.11	-1.7
856.278	-1.28
856.446	0.34
856.614	-0.59
856.782	-2.28
856.95	1.21
857.118	0.8
857.286	0.26
857.454	-1.81
857.622	0.52
857.79	-0.18
857.958	-1.45
858.126	-0.9
858.294	-1.61
858.462	-0.27
858.629	-0.27
858.797	-2.03
858.965	-0.54
859.133	0.35
859.301	-1.07
859.468	-0
859.636	-1.93
859.804	1.82
859.971	1.74
860.139	-1.73
860.307	0.27
860.474	0.47
860.642	-1.46
860.81	-0.54
860.977	-0
861.145	1.04
861.313	-0.57
861.48	-0.03
861.648	0.42
861.815	-0.78
861.983	-1.57
862.15	-0.79
862.318	0.71
862.485	1.67
862.653	-0.42
862.82	-1.51
862.988	2
863.155	1.06
863.322	-2.13
863.49	-1.34
863.657	0.18
863.824	1.1
863.992	0.66
864.159	-1.01
864.326	2.6
864.494	-0.95
864.661	1.2
864.828	-0.89
864.996	2.67
865.163	1.08
865.33	-0.84
865.497	-2.59
865.664	-0.25
865.832	-3.72
865.999	-0.56
866.166	-2.04
866.333	-1.33
866.5	-1.5
866.667	-0.53
866.834	-0.81
867.001	1.3
867.168	-2.49
867.335	0.19
867.502	-2.86
867.669	1.69
867.836	2.41
868.003	-0.61
868.17	-0.18
868.337	2.71
868.504	2.39
868.671	-1.53
868.838	-1.3
869.005	1.51
869.172	0.92
869.339	0.14
869.505	-0.02
869.672	-0.1
869.839	2.08
870.006	0.2
870.173	-2.32
870.339	0.53
870.506	2.84
870.673	-2.18
870.84	-0.21
871.006	1.3
871.173	-0.94
871.34	-1.02
871.506	-2.42
871.673	-0.63
871.839	-1.72
872.006	1.16
872.173	-1.07
872.339	-0.03
872.506	1.8
872.672	-1.4
872.839	-2.61
873.005	-0.38
873.172	3.77
873.338	1.3
873.505	0.87
873.671	1.56
873.838	0.51
874.004	-3.49
874.171	-2.6
874.337	0.44
874.503	0.62
874.67	-1.22
874.836	-0.48
875.002	1.97
875.169	1.15
875.335	-1.48
875.501	-0.42
875.668	1.07
875.834	-0.8
876	-1.64
876.166	1.13
876.332	0.57
876.499	1.84
876.665	-1.4
876.831	0.05
876.997	2.56
877.163	1.58
877.329	-1.8
877.495	-0.64
877.662	1.35
877.828	1.24
877.994	0.05
878.16	-1.7
878.326	-1.66
878.492	-0.09
878.658	-0.76
878.824	-1.49
878.99	3.08
879.156	-1.7
879.322	3.21
879.487	-1.4
879.653	1.18
879.819	-0.58
879.985	0.67
880.151	-0.84
880.317	0.28
880.483	1.08
880.648	-0.51
880.814	-2.99
880.98	0.86
881.146	-3.87
881.312	-0.4
881.477	-0.51
881.643	0.02
881.809	2.13
881.974	2.01
882.14	-3.21
882.306	-0.38
882.471	4.27
882.637	0.49
882.803	0.62
882.968	0.35
883.134	3.96
883.299	-0.62
883.465	-0.75
883.63	1.19
883.796	-0.24
883.961	0.88
884.127	-0.99
884.292	-4.47
884.458	-2.18
884.623	-2.18
