Data from Apollo_Calib_20240827__AbsoluteIrradiance__106__00-55-01-625.txt Node

Date: Wed Aug 28 00:55:01 BST 2024
User: biology
Spectrometer: FLMT08252
Trigger mode: 0
Integration Time (sec): 5.000000E-1
Scans to average: 5
Electric dark correction enabled: true
Nonlinearity correction enabled: false
Boxcar width: 0
XAxis mode: Wavelengths
Number of Pixels in Spectrum: 3648
>>>>>Begin Spectral Data<<<<<
179.588	-0
179.809	-0
180.03	-0
180.251	-0
180.473	-0
180.694	0
180.915	0
181.136	-0
181.357	0
181.578	0
181.799	-0
182.02	-0
182.241	0
182.462	-0
182.683	0
182.904	-0
183.125	-0
183.346	-0
183.567	0
183.788	-0
184.009	-0
184.23	-0
184.451	0
184.672	-0
184.892	-0
185.113	0
185.334	0
185.555	-0
185.776	-0
185.996	0
186.217	-0
186.438	-0
186.659	-0
186.879	0
187.1	-0
187.321	-0
187.541	-0
187.762	-0
187.983	-0
188.203	-0
188.424	0
188.644	-0
188.865	0
189.086	-0
189.306	-0
189.527	-0
189.747	-0
189.968	-0
190.188	0
190.409	0
190.629	0
190.849	-0
191.07	-0
191.29	0
191.511	-0
191.731	-0
191.951	-0
192.172	-0
192.392	-0
192.612	-0
192.833	-0
193.053	-0
193.273	0
193.493	-0
193.714	0
193.934	0
194.154	0
194.374	-0
194.594	0
194.815	0
195.035	0
195.255	-0
195.475	-0
195.695	0
195.915	0
196.135	-0
196.355	0
196.575	0
196.795	-0
197.015	-0
197.235	-0
197.455	-0
197.675	-0
197.895	-0
198.115	-0
198.335	-0
198.555	-0
198.775	-0
198.995	0
199.214	0
199.434	-0
199.654	-0
199.874	-0
200.094	0.28
200.313	-0.85
200.533	-0.48
200.753	-1.18
200.973	0.24
201.192	0.16
201.412	-0.94
201.632	-0.66
201.851	0.57
202.071	-0.59
202.291	-0.67
202.51	-0.61
202.73	0.4
202.95	-0.11
203.169	-0.85
203.389	0.09
203.608	-0.09
203.828	-0.78
204.047	-0.79
204.267	-0.03
204.486	-0.35
204.706	0.06
204.925	-0.13
205.145	-0.26
205.364	0.37
205.583	0.16
205.803	-0.68
206.022	-0.87
206.242	-0.14
206.461	-0.4
206.68	-0.75
206.9	-0.05
207.119	0.14
207.338	0.15
207.557	-0.24
207.777	-0.07
207.996	-0.08
208.215	0.15
208.434	-0.33
208.654	-0.54
208.873	0.08
209.092	0.05
209.311	-0.19
209.53	-0.14
209.749	-0.04
209.968	-0.37
210.187	-0.38
210.407	-0.51
210.626	-0.32
210.845	-0.1
211.064	-0.19
211.283	-0.55
211.502	0.11
211.721	-0.06
211.94	-0.09
212.159	0.09
212.377	0.16
212.596	0.19
212.815	-0.01
213.034	0.05
213.253	0.02
213.472	0.24
213.691	-0.23
213.91	-0.41
214.128	-0.26
214.347	0.19
214.566	-0.35
214.785	-0.22
215.003	0.09
215.222	-0.1
215.441	-0.18
215.66	-0.33
215.878	0.09
216.097	0.13
216.316	-0.32
216.534	-0.22
216.753	-0.12
216.972	-0.14
217.19	-0.08
217.409	-0.17
217.627	-0.24
217.846	-0.08
218.064	0
218.283	-0.2
218.501	0.35
218.72	0.15
218.938	-0.33
219.157	-0.3
219.375	0.15
219.594	0.01
219.812	-0.39
220.031	-0.33
220.249	0.15
220.467	0.07
220.686	-0.15
220.904	-0.48
221.122	-0.07
221.341	0.21
221.559	-0.04
221.777	-0.21
221.995	0.02
222.214	-0.03
222.432	-0.2
222.65	0.07
222.868	0.1
223.086	0.08
223.305	-0.02
223.523	-0.08
223.741	0.26
223.959	-0.29
224.177	-0.4
224.395	-0.24
224.613	0.11
224.831	0.01
225.049	-0.22
225.267	-0.12
225.485	-0.1
225.703	-0.15
225.921	-0.07
226.139	-0.03
226.357	-0.01
226.575	-0.05
226.793	-0.19
227.011	0.4
227.229	-0.03
227.447	0.09
227.665	-0.2
227.883	-0.24
228.1	-0.03
228.318	-0.04
228.536	-0.24
228.754	-0.12
228.972	0.13
229.189	-0.05
229.407	-0.08
229.625	-0.13
229.843	0.08
230.06	-0.04
230.278	-0.12
230.496	-0.04
230.713	-0.05
230.931	0.2
231.149	-0.12
231.366	-0.24
231.584	-0.03
231.801	0.27
232.019	-0.13
232.236	-0.16
232.454	-0.16
232.671	-0.04
232.889	-0.1
233.106	-0.13
233.324	-0.07
233.541	-0.07
233.759	-0.04
233.976	-0.12
234.194	-0.06
234.411	-0.12
234.628	-0.19
234.846	-0.07
235.063	-0.03
235.28	-0.06
235.498	-0.02
235.715	-0.19
235.932	0.12
236.149	0.02
236.367	-0.02
236.584	0.04
236.801	-0.18
237.018	-0
237.236	0
237.453	-0.29
237.67	0.02
237.887	-0.1
238.104	-0.05
238.321	-0.19
238.538	-0.15
238.755	0.06
238.973	-0.19
239.19	-0.05
239.407	0.02
239.624	0.05
239.841	-0.12
240.058	-0.14
240.275	0.03
240.492	-0.08
240.709	-0.08
240.925	-0.07
241.142	0.05
241.359	-0.2
241.576	-0.11
241.793	-0.13
242.01	0.03
242.227	0.05
242.444	0.09
242.66	0.12
242.877	-0.06
243.094	-0.1
243.311	-0.03
243.527	-0.03
243.744	-0.03
243.961	-0.02
244.178	-0.1
244.394	-0.11
244.611	0.14
244.828	0.08
245.044	-0.17
245.261	-0.01
245.477	-0.04
245.694	0.02
245.911	-0.14
246.127	-0.04
246.344	0.04
246.56	0.05
246.777	-0.11
246.993	0
247.21	-0.03
247.426	0.02
247.643	-0.09
247.859	-0.1
248.076	-0.01
248.292	0.12
248.508	0.01
248.725	0.01
248.941	0.03
249.157	0.08
249.374	-0.08
249.59	0.02
249.806	-0
250.023	0
250.239	-0.11
250.455	-0.06
250.671	-0.03
250.888	0.03
251.104	0.06
251.32	-0.07
251.536	-0.03
251.752	-0.11
251.969	-0.05
252.185	-0
252.401	0.11
252.617	-0.06
252.833	-0.03
253.049	-0.02
253.265	-0.04
253.481	0.01
253.697	-0.08
253.913	-0.13
254.129	-0.06
254.345	-0.05
254.561	-0.03
254.777	0.02
254.993	0.06
255.209	-0.03
255.425	-0.02
255.641	-0.05
255.857	0.07
256.073	-0.02
256.288	-0.1
256.504	-0.11
256.72	-0.1
256.936	0.03
257.152	-0.1
257.367	-0.05
257.583	-0.01
257.799	0
258.015	-0.08
258.23	-0.09
258.446	0.09
258.662	0.02
258.877	-0.12
259.093	-0.1
259.309	0.04
259.524	-0.01
259.74	-0.04
259.955	-0.22
260.171	-0
260.387	-0.04
260.602	0.03
260.818	-0.02
261.033	-0.08
261.249	-0.06
261.464	-0.09
261.68	-0.09
261.895	-0.04
262.11	0.04
262.326	-0.06
262.541	-0.17
262.757	0.05
262.972	-0.04
263.187	-0.01
263.403	-0.02
263.618	0.03
263.833	-0.07
264.049	-0.08
264.264	-0
264.479	0.01
264.694	0.08
264.91	-0.09
265.125	-0.08
265.34	0.03
265.555	0.06
265.77	0.03
265.986	-0.01
266.201	0
266.416	0.07
266.631	-0.04
266.846	-0.05
267.061	0
267.276	0.03
267.491	-0.17
267.706	-0.02
267.921	0.03
268.136	-0.05
268.351	-0.04
268.566	-0.07
268.781	0.11
268.996	0.03
269.211	-0.06
269.426	-0.07
269.641	-0.01
269.856	-0.03
270.071	-0.09
270.285	-0.06
270.5	0.03
270.715	0.05
270.93	-0.06
271.145	-0.02
271.359	-0.01
271.574	-0.06
271.789	-0.03
272.004	-0.08
272.218	-0.05
272.433	0
272.648	-0.11
272.862	-0.02
273.077	0.01
273.292	-0.05
273.506	-0.1
273.721	0
273.936	-0
274.15	0.01
274.365	-0.03
274.579	0.08
274.794	-0.02
275.008	0.04
275.223	-0.09
275.437	-0.02
275.652	0.08
275.866	-0.03
276.081	-0.03
276.295	0.09
276.509	-0.05
276.724	-0.01
276.938	0.01
277.153	0.01
277.367	0.04
277.581	-0.02
277.796	0.01
278.01	-0.14
278.224	0.05
278.438	0.08
278.653	-0.03
278.867	-0.06
279.081	-0.04
279.295	-0.01
279.51	0.03
279.724	-0.1
279.938	0.01
280.152	0.01
280.366	-0.05
280.58	0.03
280.794	0.06
281.008	-0.04
281.222	0.05
281.437	0.09
281.651	0.01
281.865	-0.01
282.079	-0.03
282.293	-0.11
282.507	-0.01
282.721	0
282.935	-0.01
283.148	-0.09
283.362	-0.03
283.576	-0.08
283.79	-0.08
284.004	-0.06
284.218	0.05
284.432	-0.07
284.646	-0.03
284.859	0
285.073	-0.07
285.287	-0.04
285.501	-0.05
285.714	-0.02
285.928	0.02
286.142	-0.02
286.356	-0.04
286.569	-0.04
286.783	0.04
286.997	0.04
287.21	0.01
287.424	0.02
287.637	0
287.851	-0.06
288.065	0
288.278	-0.05
288.492	0.02
288.705	-0.02
288.919	0.05
289.132	-0.05
289.346	0.06
289.559	-0.06
289.773	-0.03
289.986	-0.04
290.2	-0.02
290.413	0.05
290.626	-0.04
290.84	-0.03
291.053	-0.05
291.267	0.07
291.48	-0.03
291.693	-0.01
291.906	-0.07
292.12	-0.03
292.333	-0.05
292.546	-0.03
292.76	0.07
292.973	-0.01
293.186	-0.01
293.399	-0.03
293.612	0.05
293.826	-0.04
294.039	-0.04
294.252	-0.03
294.465	-0.03
294.678	0.05
294.891	-0.01
295.104	-0.06
295.317	-0.05
295.53	0.02
295.743	-0.01
295.956	-0.02
296.169	0.03
296.382	-0.01
296.595	0.01
296.808	-0.05
297.021	0.06
297.234	0.01
297.447	0
297.66	0.01
297.873	0
298.086	0.05
298.299	-0.08
298.511	-0.04
298.724	-0.03
298.937	-0.07
299.15	-0.02
299.363	0
299.575	0.01
299.788	0.03
300.001	-0.02
300.213	-0.04
300.426	-0.05
300.639	-0.04
300.852	-0.04
301.064	0.01
301.277	0.08
301.489	0.03
301.702	0.01
301.915	-0
302.127	0.01
302.34	0.03
302.552	0.01
302.765	-0.01
302.977	0.04
303.19	-0.05
303.402	-0.03
303.615	0.01
303.827	-0.04
304.04	-0.02
304.252	0.04
304.464	-0.04
304.677	0.08
304.889	0.01
305.102	-0.06
305.314	-0.04
305.526	0.03
305.739	0.01
305.951	0.02
306.163	-0.01
306.375	0.07
306.588	-0.07
306.8	-0.07
307.012	-0.05
307.224	0.01
307.436	0.02
307.649	-0.06
307.861	0.02
308.073	0.01
308.285	0.01
308.497	-0.04
308.709	-0.04
308.921	-0.02
309.133	0.05
309.346	-0.03
309.558	0
309.77	0.03
309.982	-0.02
310.194	0.01
310.406	-0.02
310.617	0.07
310.829	-0
311.041	0.04
311.253	-0.06
311.465	-0.07
311.677	-0.02
311.889	0
312.101	0
312.313	-0.02
312.524	0.03
312.736	-0.06
312.948	-0.01
313.16	0.04
313.372	-0.01
313.583	0.01
313.795	0.02
314.007	-0.03
314.218	0.02
314.43	-0
314.642	-0.07
314.853	-0.04
315.065	0.04
315.277	-0.04
315.488	-0.01
315.7	0.03
315.912	-0.02
316.123	-0.03
316.335	-0.01
316.546	0.08
316.758	-0.06
316.969	-0.03
317.181	0.01
317.392	0.01
317.604	0.01
317.815	-0.05
318.026	-0.05
318.238	-0.03
318.449	0.02
318.661	-0.05
318.872	-0.08
319.083	-0.07
319.295	0.01
319.506	-0.03
319.717	-0.01
319.929	0.04
320.14	-0.05
320.351	0
320.562	-0.05
320.774	-0
320.985	-0.01
321.196	-0.1
321.407	-0.05
321.618	0.04
321.829	0.02
322.041	-0
322.252	0.01
322.463	-0.03
322.674	0.05
322.885	-0.09
323.096	-0.02
323.307	-0.05
323.518	0
323.729	-0.02
323.94	-0.02
324.151	-0.03
324.362	-0
324.573	0
324.784	-0.09
324.995	0.05
325.206	-0.01
325.417	-0.03
325.628	-0.01
325.838	-0.01
326.049	-0.02
326.26	-0.01
326.471	0
326.682	0.01
326.892	-0.01
327.103	-0.07
327.314	-0.03
327.525	0.1
327.735	-0.05
327.946	-0.01
328.157	-0.05
328.368	0.01
328.578	-0.05
328.789	-0
328.999	-0.01
329.21	-0.05
329.421	0.02
329.631	-0.01
329.842	-0.05
330.052	-0
330.263	0.02
330.473	0.06
330.684	0.01
330.894	-0.02
331.105	-0.01
331.315	-0.02
331.526	-0.03
331.736	0.06
331.947	0.05
332.157	0.06
332.367	-0.04
332.578	0.02
332.788	0.04
332.999	0.02
333.209	0.03
333.419	-0.03
333.629	0.01
333.84	0.04
334.05	-0.02
334.26	0.02
334.47	-0.03
334.681	0.05
334.891	-0
335.101	-0.02
335.311	0.08
335.521	0.01
335.732	-0.03
335.942	0.01
336.152	0
336.362	0.03
336.572	0.01
336.782	0.01
336.992	-0.03
337.202	-0.01
337.412	-0.05
337.622	-0.02
337.832	-0.03
338.042	-0.02
338.252	-0.01
338.462	-0.06
338.672	-0.03
338.882	0.02
339.092	0.01
339.302	0.07
339.511	-0.02
339.721	-0.03
339.931	-0.07
340.141	-0
340.351	0.03
340.561	0.03
340.77	-0.02
340.98	-0.01
341.19	0.02
341.4	-0.01
341.609	-0.04
341.819	-0.01
342.029	-0.08
342.238	0.04
342.448	-0.05
342.658	0.02
342.867	-0
343.077	-0.01
343.286	0.02
343.496	0.04
343.706	0.06
343.915	-0.05
344.125	-0
344.334	0.05
344.544	-0.06
344.753	-0.02
344.963	0
345.172	-0.03
345.381	-0.02
345.591	-0.05
345.8	0
346.01	0.06
346.219	0.02
346.428	-0.14
346.638	0.01
346.847	-0.01
347.056	0.03
347.266	-0.01
347.475	-0
347.684	0.02
347.893	0.01
348.103	-0.02
348.312	-0.01
348.521	-0.03
348.73	0
348.94	-0.01
349.149	0.01
349.358	-0.03
349.567	-0.03
349.776	-0.07
349.985	-0
350.194	0.01
350.403	0.03
350.612	-0.06
350.821	-0.01
351.03	-0.03
351.239	-0.06
351.448	-0.05
351.657	-0.03
351.866	0.04
352.075	-0.03
352.284	0.01
352.493	-0.04
352.702	0.05
352.911	0.07
353.12	-0.01
353.329	-0.02
353.538	0.02
353.746	0.01
353.955	-0.02
354.164	0.03
354.373	0.02
354.582	0.01
354.79	0.02
354.999	0.03
355.208	-0.01
355.416	0.01
355.625	-0.01
355.834	-0.02
356.042	0.01
356.251	-0
356.46	-0.04
356.668	0.01
356.877	0.03
357.085	0.04
357.294	-0.07
357.503	0.02
357.711	-0.03
357.92	0.14
358.128	0.01
358.337	-0
358.545	0.03
358.754	-0
358.962	0.03
359.17	-0.02
359.379	-0
359.587	0
359.796	0.01
360.004	0.04
360.212	0.03
360.421	-0.01
360.629	-0.01
360.837	0.02
361.046	0.01
361.254	0.06
361.462	0.02
361.67	-0
361.879	0
362.087	0.08
362.295	0.05
362.503	-0.01
362.711	-0.01
362.92	-0.06
363.128	-0.02
363.336	-0.05
363.544	-0.05
363.752	-0.02
363.96	-0.04
364.168	-0.01
364.376	-0.04
364.584	0.02
364.792	0
365	0.02
365.208	0.06
365.416	0.05
365.624	0.04
365.832	-0.01
366.04	0.08
366.248	0.02
366.456	0.03
366.664	0.04
366.872	0.01
367.079	0.02
367.287	0.03
367.495	0.06
367.703	0.05
367.911	0.01
368.118	0.01
368.326	0.06
368.534	0.04
368.742	0.13
368.949	0.06
369.157	0.03
369.365	0.12
369.572	0.07
369.78	0.06
369.988	0.15
370.195	0.2
370.403	0.17
370.61	0.12
370.818	0.15
371.026	0.26
371.233	0.16
371.441	0.19
371.648	0.24
371.856	0.26
372.063	0.3
372.271	0.29
372.478	0.33
372.685	0.3
372.893	0.39
373.1	0.38
373.308	0.41
373.515	0.51
373.722	0.51
373.93	0.5
374.137	0.55
374.344	0.6
374.552	0.64
374.759	0.67
374.966	0.68
375.173	0.72
375.381	0.81
375.588	0.79
375.795	0.77
376.002	0.88
376.209	0.86
376.417	1.01
376.624	1
376.831	1.11
377.038	1.1
377.245	1.16
377.452	1.25
377.659	1.37
377.866	1.33
378.073	1.45
378.28	1.49
378.487	1.65
378.694	1.65
378.901	1.71
379.108	1.83
379.315	1.91
379.522	2.05
379.729	2.05
379.936	2.11
380.143	2.26
380.35	2.31
380.557	2.45
380.763	2.53
380.97	2.5
381.177	2.64
381.384	2.83
381.591	2.87
381.797	2.84
382.004	3.07
382.211	3.09
382.418	3.09
382.624	3.18
382.831	3.21
383.038	3.23
383.244	3.26
383.451	3.2
383.658	3.14
383.864	3.17
384.071	3.09
384.277	3.15
384.484	2.99
384.69	3.04
384.897	2.89
385.103	2.87
385.31	2.7
385.516	2.68
385.723	2.59
385.929	2.53
386.136	2.38
386.342	2.38
386.549	2.19
386.755	2.15
386.961	2.15
387.168	2.05
387.374	1.88
387.58	1.87
387.787	1.77
387.993	1.69
388.199	1.54
388.406	1.52
388.612	1.49
388.818	1.42
389.024	1.33
389.231	1.27
389.437	1.27
389.643	1.3
389.849	1.19
390.055	1.16
390.261	1.1
390.467	1.06
390.674	1.01
390.88	1.03
391.086	1.01
391.292	0.96
391.498	0.96
391.704	0.9
391.91	0.9
392.116	0.79
392.322	0.79
392.528	0.8
392.734	0.73
392.94	0.74
393.146	0.68
393.352	0.68
393.557	0.65
393.763	0.64
393.969	0.63
394.175	0.64
394.381	0.62
394.587	0.52
394.792	0.49
394.998	0.53
395.204	0.58
395.41	0.43
395.615	0.43
395.821	0.46
396.027	0.44
396.233	0.41
396.438	0.45
396.644	0.46
396.85	0.45
397.055	0.37
397.261	0.35
397.466	0.43
397.672	0.35
397.878	0.34
398.083	0.31
398.289	0.32
398.494	0.31
398.7	0.32
398.905	0.2
399.111	0.3
399.316	0.21
399.522	0.24
399.727	0.26
399.932	0.21
400.138	0.15
400.343	0.23
400.549	0.21
400.754	0.2
400.959	0.24
401.165	0.19
401.37	0.23
401.575	0.22
401.78	0.17
401.986	0.18
402.191	0.17
402.396	0.16
402.601	0.21
402.807	0.21
403.012	0.16
403.217	0.2
403.422	0.14
403.627	0.17
403.832	0.13
404.037	0.15
404.243	0.16
404.448	0.09
404.653	0.13
404.858	0.14
405.063	0.16
405.268	0.1
405.473	0.08
405.678	0.13
405.883	0.23
406.088	0.14
406.293	0.06
406.498	0.09
406.703	0.17
406.907	0.08
407.112	0.05
407.317	0.11
407.522	0.15
407.727	0.04
407.932	0.09
408.136	0.18
408.341	0.07
408.546	0.07
408.751	0.09
408.956	0.07
409.16	0.13
409.365	0.09
409.57	0.07
409.774	0.1
409.979	0.08
410.184	0.04
410.388	-0.01
410.593	0.11
410.798	0.07
411.002	0.06
411.207	0.08
411.411	0.1
411.616	0.07
411.82	0.02
412.025	0.08
412.229	0.02
412.434	0.12
412.638	0.06
412.843	0.01
413.047	0.05
413.252	-0.01
413.456	0.03
413.66	0.08
413.865	-0.02
414.069	0.12
414.273	0.01
414.478	0.04
414.682	0.02
414.886	0.05
415.091	-0.01
415.295	-0.02
415.499	0.01
415.703	0.03
415.908	0.07
416.112	-0.05
416.316	0.04
416.52	0.02
416.724	-0.01
416.929	0.02
417.133	0.1
417.337	0.01
417.541	0.03
417.745	0.04
417.949	0.07
418.153	0.05
418.357	0
418.561	0.12
418.765	0.03
418.969	0.13
419.173	0.09
419.377	-0.02
419.581	0.1
419.785	-0.03
419.989	-0.05
420.193	-0.03
420.397	-0.02
420.601	0.03
420.804	0.09
421.008	0.02
421.212	0.03
421.416	0.07
421.62	-0.02
421.823	0.03
422.027	0.1
422.231	0.01
422.435	-0.01
422.638	0.01
422.842	-0.03
423.046	0.01
423.249	0.06
423.453	0.08
423.657	0.04
423.86	0.01
424.064	-0.02
424.268	0.06
424.471	-0.03
424.675	0.12
424.878	0.05
425.082	0.04
425.285	0.1
425.489	0.04
425.692	0.02
425.896	-0.02
426.099	0.04
426.303	0.01
426.506	-0.01
426.71	0.04
426.913	0.11
427.116	0.08
427.32	0.01
427.523	0.05
427.726	0.13
427.93	0.01
428.133	0.01
428.336	-0.01
428.54	-0.04
428.743	0.03
428.946	0.12
429.149	-0.01
429.353	0.1
429.556	0.03
429.759	0.01
429.962	-0
430.165	-0.01
430.368	0.03
430.571	0.01
430.775	0.06
430.978	0.03
431.181	0.08
431.384	0.03
431.587	-0.01
431.79	0.09
431.993	-0.06
432.196	0.03
432.399	-0
432.602	0.1
432.805	0
433.008	0
433.211	-0.05
433.414	0.08
433.616	0.07
433.819	-0.01
434.022	-0.06
434.225	0.1
434.428	-0
434.631	0.09
434.833	0
435.036	0.03
435.239	0.07
435.442	0.05
435.645	0.05
435.847	0
436.05	0.07
436.253	0.03
436.455	0.04
436.658	0.02
436.861	0.09
437.063	0.02
437.266	0.02
437.468	0.04
437.671	0.12
437.874	0.02
438.076	0.02
438.279	-0.07
438.481	0.04
438.684	0.01
438.886	0.11
439.089	-0.01
439.291	-0.01
439.494	0.06
439.696	-0.01
439.899	0.05
440.101	0.07
440.303	-0.04
440.506	0.08
440.708	0.06
440.91	0.13
441.113	0.03
441.315	0.1
441.517	0.03
441.72	0.08
441.922	0.06
442.124	-0.01
442.326	0.06
442.529	0.1
442.731	0.03
442.933	0.13
443.135	0.05
443.337	0.02
443.539	0.08
443.742	0.08
443.944	0.03
444.146	0.02
444.348	0.05
444.55	0.05
444.752	0.08
444.954	-0.02
445.156	0.08
445.358	0.04
445.56	0.13
445.762	0.04
445.964	0.04
446.166	0.02
446.368	0.12
446.57	0.11
446.772	0.04
446.974	0.05
447.175	0.07
447.377	0.02
447.579	0.03
447.781	-0.03
447.983	0.09
448.184	0.05
448.386	0.11
448.588	0.01
448.79	0.07
448.991	0.06
449.193	0.06
449.395	0.07
449.597	0.11
449.798	0.11
450	0.1
450.202	0.09
450.403	0.07
450.605	0.14
450.806	0.05
451.008	0.02
451.21	0.08
451.411	0.06
451.613	0.06
451.814	0.1
452.016	0.09
452.217	0.06
452.419	0.1
452.62	0.04
452.821	0.11
453.023	0.11
453.224	0.12
453.426	0.06
453.627	0.03
453.828	0.09
454.03	0.06
454.231	0.05
454.432	0.01
454.634	0.11
454.835	-0.01
455.036	-0.02
455.238	0.1
455.439	0.1
455.64	-0
455.841	0.01
456.042	0.12
456.244	0.01
456.445	0.04
456.646	-0.03
456.847	-0.01
457.048	0.08
457.249	0.08
457.45	0.2
457.651	0.02
457.852	0.1
458.054	0.09
458.255	0.03
458.456	0.06
458.657	0.04
458.858	0.05
459.058	0.09
459.259	0.08
459.46	0
459.661	0.01
459.862	0.09
460.063	-0
460.264	0.1
460.465	-0.07
460.666	0.11
460.866	0.02
461.067	0.02
461.268	0.01
461.469	0.05
461.67	0.03
461.87	0.01
462.071	-0.01
462.272	-0.02
462.473	0
462.673	0.05
462.874	-0.03
463.075	0.03
463.275	-0.04
463.476	0.03
463.676	0.06
463.877	0.04
464.078	-0.01
464.278	0.09
464.479	0.02
464.679	0.03
464.88	0.02
465.08	0.07
465.281	0.01
465.481	-0.02
465.682	0.01
465.882	0.04
466.083	0.03
466.283	0.03
466.483	0.02
466.684	-0.01
466.884	-0.02
467.085	0.04
467.285	0.04
467.485	-0.03
467.686	0
467.886	-0.02
468.086	-0.01
468.286	0.02
468.487	0.05
468.687	-0.02
468.887	0.02
469.087	0.05
469.287	0.01
469.488	-0.06
469.688	0.03
469.888	0.01
470.088	0.02
470.288	0.03
470.488	0.07
470.688	-0.04
470.888	-0
471.088	-0.01
471.288	0.03
471.488	0.01
471.688	0.02
471.888	0
472.088	0.1
472.288	-0.01
472.488	0.01
472.688	-0
472.888	-0.01
473.088	0.01
473.288	0
473.488	0.03
473.688	0.09
473.887	0.02
474.087	0.01
474.287	0.04
474.487	-0.02
474.687	0.02
474.886	-0.02
475.086	0
475.286	-0.01
475.486	0.01
475.685	0
475.885	0.02
476.085	-0.01
476.284	0.02
476.484	0.02
476.684	0.02
476.883	0.07
477.083	0.02
477.282	-0.03
477.482	0.06
477.681	0.06
477.881	-0
478.08	-0.03
478.28	0
478.479	0.04
478.679	0.08
478.878	-0.03
479.078	-0.01
479.277	-0
479.477	-0.01
479.676	0.05
479.875	0.03
480.075	-0.05
480.274	0.02
480.473	0.02
480.673	-0.04
480.872	0.04
481.071	-0.02
481.271	-0.01
481.47	-0.01
481.669	-0.01
481.868	-0.02
482.067	-0.01
482.267	-0.03
482.466	-0.02
482.665	0
482.864	-0.03
483.063	-0.01
483.262	0.03
483.461	0.05
483.661	0.01
483.86	0.01
484.059	0
484.258	0.02
484.457	0.01
484.656	-0.02
484.855	0.01
485.054	-0.06
485.253	-0.02
485.452	-0.01
485.651	0.01
485.849	0.01
486.048	0
486.247	-0.02
486.446	0
486.645	-0.02
486.844	-0.02
487.043	0.01
487.241	0.01
487.44	-0.04
487.639	-0.02
487.838	0.01
488.037	0.03
488.235	0.02
488.434	0.02
488.633	-0.01
488.831	0.02
489.03	0.03
489.229	-0.01
489.427	0
489.626	0.03
489.825	0.03
490.023	-0.01
490.222	-0.02
490.42	0.01
490.619	0.03
490.817	0.02
491.016	-0.01
491.214	0.03
491.413	-0.01
491.611	-0.02
491.81	0.01
492.008	0.02
492.207	0.03
492.405	0
492.604	-0.07
492.802	-0.02
493	0.02
493.199	-0.01
493.397	-0.01
493.595	-0
493.794	0
493.992	0.03
494.19	0
494.388	-0
494.587	-0.03
494.785	0.01
494.983	-0.02
495.181	0.01
495.379	-0.01
495.578	-0.02
495.776	0.02
495.974	0.02
496.172	0
496.37	-0.02
496.568	-0.02
496.766	-0.03
496.964	0.02
497.162	0.01
497.36	-0.02
497.558	0
497.756	0.02
497.954	-0
498.152	-0.03
498.35	-0.01
498.548	-0
498.746	0.01
498.944	-0.01
499.142	-0.03
499.34	-0.03
499.538	0.03
499.736	-0
499.933	0.02
500.131	0.02
500.329	-0
500.527	0.03
500.725	0.02
500.922	0.01
501.12	-0
501.318	0.01
501.516	-0.02
501.713	-0.01
501.911	-0
502.109	-0.04
502.306	-0
502.504	-0.01
502.701	-0.01
502.899	-0.02
503.097	0.05
503.294	-0.02
503.492	-0
503.689	0.02
503.887	0.04
504.084	0.03
504.282	0.02
504.479	-0.02
504.677	0
504.874	-0.02
505.072	-0
505.269	-0.01
505.466	0.01
505.664	0.01
505.861	-0.03
506.059	0
506.256	0.03
506.453	-0.03
506.651	0.04
506.848	0.03
507.045	0
507.242	0
507.44	-0.02
507.637	-0
507.834	-0.01
508.031	0
508.229	-0.03
508.426	-0.01
508.623	0.01
508.82	-0.03
509.017	-0.04
509.214	-0.02
509.411	-0.02
509.608	-0.02
509.805	-0.02
510.003	-0.01
510.2	-0.01
510.397	0.03
510.594	-0.01
510.791	-0.03
510.988	-0.01
511.184	0.01
511.381	-0.01
511.578	-0.03
511.775	0.03
511.972	-0.01
512.169	0
512.366	-0.03
512.563	-0.01
512.76	-0.03
512.956	0.01
513.153	-0.01
513.35	-0.01
513.547	-0.02
513.744	-0.03
513.94	-0.05
514.137	0.01
514.334	-0
514.53	0.01
514.727	0
514.924	0.04
515.12	-0.02
515.317	-0.03
515.514	-0.05
515.71	-0.02
515.907	-0.01
516.103	-0.01
516.3	-0
516.497	0.02
516.693	0.02
516.89	-0.01
517.086	-0.03
517.283	0.04
517.479	-0
517.676	-0.01
517.872	-0
518.068	-0.01
518.265	-0.01
518.461	-0.01
518.658	-0.03
518.854	-0.01
519.05	-0.01
519.247	-0.01
519.443	0.02
519.639	0.02
519.836	-0
520.032	0
520.228	0.02
520.424	0.02
520.621	0.03
520.817	0.01
521.013	0
521.209	-0
521.405	0.02
521.601	0.01
521.798	-0
521.994	0.02
522.19	-0
522.386	-0.02
522.582	-0
522.778	0.01
522.974	-0.01
523.17	-0.01
523.366	0
523.562	0
523.758	-0.02
523.954	-0.01
524.15	-0.02
524.346	0.02
524.542	-0.04
524.738	-0.01
524.934	0
525.129	-0.01
525.325	0.03
525.521	-0.01
525.717	-0
525.913	0.01
526.109	0.01
526.304	-0.01
526.5	-0.01
526.696	-0
526.892	-0.01
527.087	-0
527.283	-0.03
527.479	0.01
527.674	-0.01
527.87	-0.01
528.066	-0.01
528.261	0
528.457	-0.01
528.653	-0.01
528.848	-0.02
529.044	0
529.239	0.02
529.435	0.02
529.63	0.01
529.826	0.05
530.021	0.02
530.217	0.02
530.412	0.01
530.608	-0.02
530.803	0.01
530.999	0
531.194	-0.05
531.389	-0.01
531.585	-0.04
531.78	-0.01
531.975	-0.02
532.171	0.02
532.366	-0.01
532.561	0.02
532.757	-0.01
532.952	-0.02
533.147	-0.01
533.342	-0
533.538	-0
533.733	-0
533.928	-0.01
534.123	-0.02
534.318	-0.04
534.513	-0.01
534.709	0
534.904	-0.03
535.099	-0.02
535.294	-0.03
535.489	0.01
535.684	-0.01
535.879	-0.02
536.074	0.01
536.269	-0.02
536.464	0.03
536.659	0
536.854	-0.01
537.049	0
537.244	-0.01
537.439	-0.01
537.634	0.01
537.828	0
538.023	-0.01
538.218	-0.02
538.413	0.01
538.608	-0.03
538.803	0.01
538.997	-0.04
539.192	0.01
539.387	0
539.582	-0.01
539.776	-0
539.971	-0
540.166	0.01
540.36	-0.01
540.555	-0
540.75	-0.02
540.944	0.01
541.139	-0.06
541.334	-0.01
541.528	0.03
541.723	0.02
541.917	0.01
542.112	-0.04
542.306	-0.02
542.501	-0.01
542.695	0.02
542.89	-0.01
543.084	0
543.279	-0.02
543.473	-0.01
543.668	0.01
543.862	0
544.056	0.01
544.251	-0.01
544.445	0.01
544.64	-0.03
544.834	-0.04
545.028	0.01
545.222	0.01
545.417	0
545.611	0
545.805	-0.01
546	-0.03
546.194	0.01
546.388	-0.02
546.582	0
546.776	-0.01
546.97	-0.02
547.165	0.03
547.359	0.01
547.553	-0.02
547.747	-0.01
547.941	-0
548.135	0.01
548.329	0
548.523	0.02
548.717	-0.01
548.911	-0.03
549.105	0
549.299	-0.02
549.493	0
549.687	0.01
549.881	0.02
550.075	-0.01
550.269	-0.03
550.463	0
550.657	-0.02
550.85	-0.02
551.044	-0.02
551.238	0.01
551.432	-0.01
551.626	-0.03
551.82	-0.02
552.013	-0.03
552.207	-0
552.401	-0.01
552.594	0
552.788	-0.02
552.982	-0
553.176	-0.02
553.369	0.01
553.563	0.03
553.756	-0.04
553.95	-0.03
554.144	-0.02
554.337	0.03
554.531	-0.01
554.724	-0.02
554.918	-0.01
555.111	0.01
555.305	0
555.498	0.02
555.692	0.01
555.885	0
556.079	0.01
556.272	-0.02
556.466	-0
556.659	-0.01
556.852	-0.01
557.046	-0.02
557.239	0.01
557.432	-0.03
557.626	-0.04
557.819	-0.02
558.012	0.01
558.206	0.01
558.399	0.01
558.592	-0.01
558.785	-0.01
558.979	0.02
559.172	0.02
559.365	0.01
559.558	0.01
559.751	0
559.944	0.02
560.138	-0.03
560.331	-0.03
560.524	-0.01
560.717	-0.02
560.91	-0.01
561.103	0.01
561.296	0
561.489	-0.01
561.682	0.01
561.875	0.02
562.068	0.02
562.261	0.02
562.454	0.01
562.647	0.01
562.84	0
563.032	-0.02
563.225	0.01
563.418	-0
563.611	-0.03
563.804	0
563.997	-0.02
564.19	-0.04
564.382	0
564.575	0
564.768	-0
564.961	0
565.153	-0.03
565.346	0.02
565.539	0.03
565.731	0.01
565.924	0.02
566.117	0.01
566.309	0.01
566.502	-0.02
566.695	0.02
566.887	0.01
567.08	-0.03
567.272	-0.02
567.465	-0.04
567.657	-0.03
567.85	-0.01
568.042	0.01
568.235	0.02
568.427	0.01
568.62	0.01
568.812	0.02
569.005	-0
569.197	-0.03
569.389	-0
569.582	0
569.774	0.02
569.966	-0.02
570.159	-0
570.351	0.01
570.543	-0.03
570.736	-0.02
570.928	-0.03
571.12	0.01
571.312	-0.01
571.505	-0.04
571.697	0.03
571.889	-0.04
572.081	-0
572.273	-0.01
572.465	0.04
572.658	0
572.85	0
573.042	-0.01
573.234	-0.03
573.426	0.02
573.618	-0.05
573.81	0.01
574.002	0.05
574.194	0.02
574.386	-0.02
574.578	-0.1
574.77	-0.05
574.962	0
575.154	-0.05
575.346	-0.01
575.538	0.02
575.729	-0.03
575.921	-0.02
576.113	-0.03
576.305	0.02
576.497	-0.01
576.689	-0.01
576.88	-0
577.072	0.02
577.264	-0.02
577.456	-0.01
577.647	-0.06
577.839	0
578.031	0.05
578.223	-0.03
578.414	-0.04
578.606	0.01
578.798	-0.01
578.989	-0.02
579.181	-0.02
579.372	0.01
579.564	-0.03
579.755	-0.01
579.947	0.02
580.139	-0
580.33	-0.04
580.522	-0.03
580.713	-0.08
580.905	-0
581.096	0
581.287	-0
581.479	-0.02
581.67	0.01
581.862	0.01
582.053	-0.03
582.244	-0.04
582.436	-0.02
582.627	-0.02
582.818	0
583.01	-0.04
583.201	0
583.392	0.02
583.583	-0.02
583.775	-0.03
583.966	-0.01
584.157	-0.01
584.348	-0.03
584.54	-0.04
584.731	0
584.922	0
585.113	-0.02
585.304	0.02
585.495	0.03
585.686	-0.02
585.877	0.01
586.068	0.02
586.259	0.02
586.45	-0.01
586.641	-0.01
586.832	-0.08
587.023	0
587.214	-0.02
587.405	0.01
587.596	-0.03
587.787	0.01
587.978	0
588.169	-0.03
588.36	-0
588.551	-0
588.742	-0.02
588.932	0.01
589.123	-0
589.314	0.03
589.505	0.02
589.696	-0
589.886	-0.03
590.077	-0.05
590.268	0.02
590.458	-0.04
590.649	-0.04
590.84	0.03
591.03	-0.05
591.221	-0.06
591.412	-0.03
591.602	0.01
591.793	0.03
591.984	-0.02
592.174	-0
592.365	0.02
592.555	-0.04
592.746	0
592.936	0.01
593.127	-0.02
593.317	0.01
593.508	-0.03
593.698	-0.02
593.889	0
594.079	-0.01
594.269	-0.05
594.46	-0
594.65	-0.02
594.84	-0.02
595.031	-0.03
595.221	-0.02
595.411	-0.04
595.602	0
595.792	-0.02
595.982	-0.02
596.172	0.03
596.363	0.01
596.553	-0.01
596.743	-0.02
596.933	-0.01
597.123	0.01
597.314	-0.05
597.504	-0.01
597.694	0.01
597.884	0.01
598.074	-0
598.264	-0.01
598.454	0.02
598.644	-0.03
598.834	-0.01
599.024	-0.06
599.214	-0.05
599.404	0.01
599.594	-0.03
599.784	-0.03
599.974	-0.03
600.164	-0.01
600.354	-0.02
600.544	-0.04
600.734	-0.01
600.924	0.01
601.114	-0.04
601.303	-0.02
601.493	0.01
601.683	-0.02
601.873	-0.01
602.063	-0.03
602.252	0.02
602.442	-0.07
602.632	-0.03
602.821	-0.05
603.011	0.02
603.201	-0.02
603.39	-0.04
603.58	-0.02
603.77	0.01
603.959	0.01
604.149	-0.01
604.339	0
604.528	0.04
604.718	0.01
604.907	-0
605.097	-0.03
605.286	-0.07
605.476	0.02
605.665	-0.01
605.855	-0.01
606.044	0.03
606.234	0
606.423	-0.02
606.612	-0.05
606.802	-0.02
606.991	0.02
607.181	-0.01
607.37	-0.05
607.559	-0.01
607.749	-0.07
607.938	-0.02
608.127	-0.03
608.316	-0.04
608.506	-0.01
608.695	-0.01
608.884	-0.02
609.073	0.02
609.263	0.03
609.452	0.01
609.641	-0.03
609.83	-0.04
610.019	-0.02
610.208	-0.04
610.397	-0.02
610.586	0.02
610.775	-0.03
610.965	-0.06
611.154	-0.05
611.343	0
611.532	0
611.721	-0.04
611.91	-0.02
612.099	0
612.287	-0.05
612.476	-0.03
612.665	-0.01
612.854	-0.02
613.043	0.01
613.232	-0
613.421	-0.04
613.61	-0.01
613.798	-0.05
613.987	0.01
614.176	-0.01
614.365	0.03
614.554	-0.01
614.742	0.04
614.931	-0.02
615.12	-0
615.309	-0.03
615.497	-0
615.686	-0.06
615.875	-0.03
616.063	-0.02
616.252	-0.02
616.44	-0.02
616.629	-0.01
616.818	0.03
617.006	-0.02
617.195	-0.03
617.383	0.01
617.572	-0.01
617.76	-0.03
617.949	-0.03
618.137	-0
618.326	0.01
618.514	-0.04
618.703	-0.03
618.891	0.03
619.079	-0.05
619.268	-0.01
619.456	-0.03
619.644	0.03
619.833	0.01
620.021	-0.01
620.209	-0.05
620.398	-0
620.586	0.01
620.774	0.01
620.962	-0.01
621.151	0.06
621.339	-0.03
621.527	-0.05
621.715	-0.05
621.903	-0.04
622.092	-0.04
622.28	-0.01
622.468	-0.02
622.656	-0.05
622.844	0.01
623.032	-0
623.22	-0.06
623.408	-0.01
623.596	0.01
623.784	0
623.972	-0.05
624.16	-0.03
624.348	0.04
624.536	-0.03
624.724	-0.03
624.912	0.02
625.1	0.05
625.288	-0.03
625.476	-0.04
625.664	0.01
625.851	-0.03
626.039	-0.03
626.227	-0.02
626.415	0.01
626.603	-0.05
626.79	0.03
626.978	-0.01
627.166	0
627.354	0.03
627.541	-0.02
627.729	-0.06
627.917	0.04
628.104	0.01
628.292	0
628.48	-0.03
628.667	-0
628.855	0.01
629.042	0
629.23	-0.02
629.418	-0.01
629.605	-0
629.793	-0.03
629.98	-0.03
630.168	0.01
630.355	-0.06
630.543	0.04
630.73	-0.03
630.917	0.01
631.105	0.06
631.292	-0.05
631.48	-0
631.667	0.05
631.854	0.02
632.042	0.01
632.229	-0.03
632.416	0.02
632.604	-0.01
632.791	-0.03
632.978	0.02
633.165	0
633.353	0.02
633.54	0.03
633.727	-0.04
633.914	-0.01
634.101	-0.06
634.289	0.03
634.476	-0.03
634.663	-0.05
634.85	-0.01
635.037	-0.02
635.224	-0.07
635.411	0.03
635.598	0.04
635.785	0
635.972	-0.01
636.159	0.02
636.346	-0.03
636.533	-0.02
636.72	-0
636.907	0.01
637.094	0.05
637.281	-0.02
637.468	0.01
637.655	0.02
637.842	-0
638.029	-0.03
638.215	0.01
638.402	-0.02
638.589	0
638.776	-0
638.963	-0.02
639.149	-0
639.336	0.07
639.523	-0
639.709	-0.01
639.896	-0
640.083	0.06
640.27	0.02
640.456	-0.01
640.643	0.02
640.829	-0.05
641.016	0.02
641.203	-0.06
641.389	0.03
641.576	0.01
641.762	-0
641.949	-0
642.135	0.02
642.322	0.02
642.508	-0.01
642.695	0.02
642.881	0.01
643.068	0.03
643.254	0.04
643.441	0.03
643.627	0
643.813	0
644	0.07
644.186	0.01
644.372	0.04
644.559	0.03
644.745	0
644.931	0.01
645.118	0.01
645.304	0.02
645.49	0.01
645.676	-0.01
645.862	0.05
646.049	0.11
646.235	0.02
646.421	0.09
646.607	0.09
646.793	-0.02
646.979	-0.01
647.165	0.04
647.352	0.05
647.538	0.08
647.724	0.04
647.91	0.06
648.096	0.06
648.282	0.08
648.468	0.05
648.654	0.06
648.84	0.06
649.026	0.01
649.212	0.03
649.397	-0.01
649.583	0.03
649.769	0.05
649.955	0.03
650.141	0.05
650.327	0.1
650.513	0.04
650.698	0.07
650.884	-0.01
651.07	0.05
651.256	0.06
651.442	0.06
651.627	0.03
651.813	0.01
651.999	0.02
652.184	0.09
652.37	0.05
652.556	0.05
652.741	0.12
652.927	-0.02
653.113	0.06
653.298	0.08
653.484	0.07
653.669	0.01
653.855	0.07
654.04	0.13
654.226	0.13
654.412	0.03
654.597	0.02
654.782	0.1
654.968	0.1
655.153	0.09
655.339	0.07
655.524	0.03
655.71	0.1
655.895	0.09
656.08	0.08
656.266	0.13
656.451	0.08
656.636	0.04
656.822	0.07
657.007	0.04
657.192	0.05
657.378	0.06
657.563	0.11
657.748	0.1
657.933	0.13
658.118	0.07
658.304	0.07
658.489	0.12
658.674	0.12
658.859	0.04
659.044	0.12
659.229	0.12
659.414	0.07
659.599	0.08
659.785	0.04
659.97	0.09
660.155	0.1
660.34	0.08
660.525	0.05
660.71	0.07
660.895	0.11
661.08	0.07
661.264	0.07
661.449	0.16
661.634	0.12
661.819	0.11
662.004	0.1
662.189	-0.02
662.374	0.07
662.559	0.04
662.743	0.01
662.928	0.03
663.113	0.05
663.298	0.01
663.483	0.05
663.667	0.08
663.852	-0
664.037	0.07
664.221	0.04
664.406	0.06
664.591	0.05
664.775	0.01
664.96	0
665.145	0.05
665.329	0.04
665.514	0
665.698	0.02
665.883	0
666.068	0.08
666.252	0.02
666.437	-0.04
666.621	0.04
666.806	0.02
666.99	0
667.174	-0.03
667.359	0.02
667.543	-0.01
667.728	0.04
667.912	-0.05
668.096	0.02
668.281	-0.02
668.465	0.02
668.649	-0.01
668.834	0.04
669.018	-0
669.202	-0.01
669.387	-0.03
669.571	0.04
669.755	-0.05
669.939	0.01
670.124	-0.02
670.308	0.06
670.492	0.02
670.676	-0.02
670.86	0.02
671.044	-0.03
671.228	0.01
671.413	-0.02
671.597	-0.02
671.781	-0.05
671.965	0.01
672.149	-0.03
672.333	-0.04
672.517	-0.04
672.701	0.02
672.885	-0.08
673.069	-0.08
673.253	0.03
673.437	-0.02
673.621	-0.02
673.804	0
673.988	-0.02
674.172	0
674.356	-0.07
674.54	-0.02
674.724	0.06
674.908	-0.03
675.091	0
675.275	0.01
675.459	0.03
675.643	-0.03
675.826	0
676.01	-0.05
676.194	-0.02
676.377	0.03
676.561	0.04
676.745	-0.04
676.928	0
677.112	0.04
677.296	-0.03
677.479	-0.05
677.663	-0.03
677.846	-0
678.03	-0.03
678.213	-0.04
678.397	-0.02
678.58	-0.04
678.764	-0.03
678.947	-0.04
679.131	-0.03
679.314	-0.03
679.498	-0.05
679.681	-0.02
679.865	0.04
680.048	-0.01
680.231	-0.03
680.415	-0.03
680.598	-0.03
680.781	-0.03
680.965	0
681.148	0.01
681.331	-0.03
681.514	-0.01
681.698	-0.05
681.881	0.01
682.064	-0.02
682.247	-0.05
682.43	-0.06
682.614	-0.02
682.797	0.03
682.98	0.02
683.163	-0.06
683.346	0.03
683.529	0.02
683.712	-0.06
683.895	0.02
684.078	-0.06
684.261	-0.02
684.444	-0.01
684.627	0.04
684.81	-0.03
684.993	-0.04
685.176	0.01
685.359	-0.06
685.542	-0.04
685.725	0.02
685.908	-0.06
686.091	-0.06
686.274	-0.02
686.457	0.02
686.639	-0.01
686.822	0.05
687.005	0.01
687.188	-0.02
687.371	0.02
687.553	-0.03
687.736	0.05
687.919	0.08
688.102	0.04
688.284	-0.03
688.467	0
688.65	-0.04
688.832	0
689.015	-0.01
689.197	-0.09
689.38	0.04
689.563	0.08
689.745	-0.02
689.928	-0.04
690.11	-0.02
690.293	0.01
690.475	-0.06
690.658	0
690.84	-0.04
691.023	-0.04
691.205	-0.07
691.388	-0.04
691.57	0.01
691.752	-0.03
691.935	-0.1
692.117	-0.03
692.3	0.02
692.482	-0.04
692.664	-0.02
692.847	-0
693.029	0.01
693.211	0.04
693.393	-0.01
693.576	-0.03
693.758	-0.03
693.94	-0.06
694.122	-0.03
694.304	-0.04
694.487	-0.05
694.669	0.06
694.851	-0.05
695.033	0
695.215	-0.04
695.397	-0.08
695.579	-0.03
695.761	-0.07
695.943	-0.13
696.125	0.06
696.308	-0.03
696.49	-0.14
696.671	0.08
696.853	-0.02
697.035	0.12
697.217	-0.04
697.399	0.02
697.581	-0.1
697.763	-0.01
697.945	-0
698.127	0
698.309	0.07
698.491	0.06
698.672	0.01
698.854	-0.01
699.036	0.06
699.218	-0.05
699.399	0
699.581	0.03
699.763	-0.04
699.945	-0.02
700.126	-0.05
700.308	-0.02
700.49	0.01
700.671	-0.1
700.853	-0.04
701.035	-0.09
701.216	-0.02
701.398	-0.13
701.579	-0.08
701.761	0.04
701.943	-0.07
702.124	-0.06
702.306	-0.06
702.487	0.05
702.669	-0.05
702.85	-0.05
703.031	-0.08
703.213	0.05
703.394	0.03
703.576	-0.03
703.757	0.02
703.938	-0.01
704.12	0.12
704.301	0.01
704.483	-0.03
704.664	0
704.845	0.05
705.026	0.02
705.208	-0.01
705.389	-0.03
705.57	0.03
705.751	-0.03
705.933	-0.03
706.114	0.09
706.295	-0.01
706.476	-0.1
706.657	0.09
706.838	0
707.02	0.08
707.201	-0.04
707.382	0.02
707.563	0.03
707.744	-0.05
707.925	-0.05
708.106	-0.09
708.287	0.04
708.468	0.06
708.649	-0.03
708.83	0.05
709.011	-0.05
709.192	0.09
709.373	-0.08
709.554	0.03
709.734	0.04
709.915	-0.02
710.096	-0.03
710.277	-0.1
710.458	-0.07
710.639	-0
710.819	-0.08
711	-0.04
711.181	0.08
711.362	-0.01
711.542	0.01
711.723	-0.05
711.904	0.01
712.085	0.01
712.265	-0.07
712.446	-0.13
712.627	0
712.807	-0.05
712.988	0.02
713.168	-0.13
713.349	-0.04
713.53	-0.12
713.71	-0.05
713.891	-0.07
714.071	0
714.252	-0.05
714.432	-0.04
714.613	-0.11
714.793	-0.01
714.974	0.09
715.154	0.04
715.334	-0.01
715.515	0.12
715.695	-0.03
715.876	-0.03
716.056	-0.04
716.236	-0.07
716.417	-0.01
716.597	0
716.777	0.08
716.957	-0.02
717.138	-0.02
717.318	0.04
717.498	-0.1
717.678	0.02
717.859	0.01
718.039	-0.03
718.219	-0.03
718.399	0.1
718.579	-0.09
718.759	-0.04
718.939	0.06
719.12	-0.05
719.3	0.01
719.48	-0.11
719.66	-0.12
719.84	0.05
720.02	-0.04
720.2	-0.04
720.38	0.03
720.56	0.2
720.74	0
720.92	0.04
721.1	0.08
721.279	0.13
721.459	0.04
721.639	-0.13
721.819	0.04
721.999	-0
722.179	0.02
722.359	-0.09
722.538	-0.05
722.718	-0.01
722.898	-0.06
723.078	-0.01
723.257	-0.04
723.437	0.06
723.617	0.05
723.797	-0.02
723.976	-0
724.156	0.01
724.336	0.06
724.515	0.17
724.695	-0.01
724.874	0.05
725.054	0.04
725.234	-0.01
725.413	0.07
725.593	0.05
725.772	-0.01
725.952	-0.03
726.131	0.03
726.311	-0.03
726.49	0.02
726.67	0
726.849	0.03
727.028	0
727.208	0.01
727.387	0.08
727.567	-0.07
727.746	0.05
727.925	-0.03
728.105	-0.1
728.284	-0.1
728.463	-0.07
728.643	0.1
728.822	-0.01
729.001	0
729.18	-0.02
729.359	0.05
729.539	0.04
729.718	0.06
729.897	0.16
730.076	0.02
730.255	-0.09
730.434	0.06
730.614	0.08
730.793	0.06
730.972	0.03
731.151	0.03
731.33	0.06
731.509	0.12
731.688	0.04
731.867	0.03
732.046	-0.11
732.225	0.18
732.404	-0.04
732.583	-0.04
732.762	-0
732.941	0.24
733.12	0.13
733.298	0.04
733.477	0.05
733.656	0.02
733.835	-0.12
734.014	0.1
734.193	0.03
734.371	0.03
734.55	0.11
734.729	-0.02
734.908	0.03
735.086	0.13
735.265	0.2
735.444	-0.11
735.623	-0.05
735.801	0.01
735.98	0.03
736.159	-0.01
736.337	0.09
736.516	0.05
736.694	0.13
736.873	-0.02
737.052	0.19
737.23	0.05
737.409	0.06
737.587	0.2
737.766	-0.03
737.944	-0.03
738.123	0.05
738.301	0.12
738.479	0
738.658	-0.04
738.836	-0.14
739.015	0.08
739.193	0.16
739.371	-0.02
739.55	0.11
739.728	-0.22
739.906	0.09
740.085	0.12
740.263	0.06
740.441	-0.14
740.62	0.17
740.798	0.07
740.976	-0.08
741.154	-0.04
741.332	0.11
741.511	0.09
741.689	0.1
741.867	0.16
742.045	0.02
742.223	0.04
742.401	0.1
742.579	-0.01
742.757	0.02
742.935	-0.16
743.114	0.02
743.292	-0.02
743.47	-0.05
743.648	-0.06
743.826	0.1
744.004	0.06
744.181	0.05
744.359	0.03
744.537	0.04
744.715	-0.01
744.893	0.09
745.071	-0.02
745.249	-0.02
745.427	-0.06
745.605	0.04
745.782	0.08
745.96	0
746.138	0.03
746.316	0.02
746.493	-0.01
746.671	0.03
746.849	-0.03
747.027	0.02
747.204	-0.11
747.382	0.03
747.56	-0.16
747.737	-0.02
747.915	-0.17
748.093	0.08
748.27	-0.17
748.448	-0.05
748.625	-0.18
748.803	-0.14
748.98	-0.1
749.158	-0.05
749.335	-0
749.513	-0.08
749.69	-0.06
749.868	-0.02
750.045	0
750.223	-0.16
750.4	-0.21
750.578	0.15
750.755	-0.05
750.932	-0.11
751.11	0.25
751.287	-0.21
751.464	0.08
751.642	0
751.819	0.01
751.996	-0
752.173	-0.02
752.351	-0.14
752.528	-0.05
752.705	-0.02
752.882	-0.05
753.06	-0.02
753.237	0.16
753.414	0.13
753.591	0.15
753.768	-0.07
753.945	-0.05
754.122	-0.05
754.299	-0.02
754.476	-0.16
754.654	-0.08
754.831	-0.09
755.008	-0.04
755.185	-0.06
755.362	-0.14
755.539	0.04
755.716	-0.15
755.892	-0.01
756.069	-0.11
756.246	-0.11
756.423	-0.06
756.6	0.05
756.777	-0.01
756.954	0.19
757.131	-0.05
757.307	-0.11
757.484	-0.08
757.661	0.02
757.838	-0.17
758.015	-0.19
758.191	0.03
758.368	-0.06
758.545	0.13
758.721	0.08
758.898	-0.03
759.075	0.04
759.251	0.04
759.428	0.08
759.605	-0.15
759.781	0.04
759.958	0.04
760.134	0
760.311	-0.1
760.488	0.11
760.664	0.04
760.841	-0.13
761.017	-0.08
761.194	-0.03
761.37	0.05
761.547	-0.01
761.723	-0.09
761.899	0.12
762.076	-0.09
762.252	-0.16
762.429	-0.09
762.605	0.06
762.781	-0.1
762.958	-0.08
763.134	-0.06
763.31	-0.18
763.486	0.03
763.663	-0.2
763.839	0.07
764.015	-0.22
764.191	-0.25
764.368	-0.13
764.544	-0.04
764.72	0.02
764.896	0.03
765.072	-0.03
765.248	-0.11
765.425	-0.08
765.601	-0.09
765.777	-0.04
765.953	-0.21
766.129	-0.08
766.305	-0.16
766.481	0.08
766.657	-0
766.833	0.19
767.009	-0.18
767.185	-0.1
767.361	-0.07
767.537	-0.14
767.713	0.1
767.889	-0.11
768.065	0.03
768.24	-0.28
768.416	0.06
768.592	-0.13
768.768	-0.09
768.944	-0.01
769.12	-0.17
769.295	-0.2
769.471	-0.11
769.647	-0.13
769.823	0.03
769.998	-0.1
770.174	-0.3
770.35	0.21
770.525	0.28
770.701	0
770.877	-0.13
771.052	-0.22
771.228	0.08
771.403	-0.06
771.579	0.03
771.755	0.18
771.93	-0.13
772.106	-0.12
772.281	-0.25
772.457	-0.12
772.632	-0.05
772.808	-0.27
772.983	-0.1
773.159	-0.12
773.334	0.07
773.509	-0.25
773.685	-0.18
773.86	0.14
774.036	0.13
774.211	-0.09
774.386	-0.04
774.562	-0.15
774.737	-0.09
774.912	-0.16
775.087	-0.03
775.263	-0.04
775.438	-0.03
775.613	-0.04
775.788	-0.19
775.964	0.04
776.139	0.22
776.314	-0.06
776.489	-0.1
776.664	0.05
776.839	-0.24
777.014	-0.02
777.19	0.09
777.365	0.04
777.54	0.24
777.715	-0.2
777.89	-0.06
778.065	-0.05
778.24	-0.13
778.415	0.15
778.59	-0.26
778.765	-0.02
778.94	0.02
779.115	-0.17
779.289	-0.13
779.464	-0.13
779.639	-0.12
779.814	-0.27
779.989	-0.24
780.164	0.13
780.339	-0.08
780.513	-0.1
780.688	-0.03
780.863	-0.1
781.038	-0.05
781.212	-0.1
781.387	-0.11
781.562	0.21
781.737	-0.02
781.911	0.11
782.086	-0.16
782.261	-0.08
782.435	-0.02
782.61	-0.11
782.784	-0.12
782.959	0.04
783.134	-0.11
783.308	-0.29
783.483	-0.1
783.657	0.19
783.832	0.15
784.006	-0.56
784.181	0.01
784.355	0.1
784.53	-0.07
784.704	-0.28
784.878	0.15
785.053	-0.31
785.227	0.09
785.402	0.19
785.576	-0.22
785.75	-0.16
785.925	-0.16
786.099	-0.08
786.273	0.04
786.448	0.18
786.622	0.06
786.796	-0.14
786.97	-0.07
787.145	0.22
787.319	-0.26
787.493	0.02
787.667	-0.35
787.841	-0.04
788.015	-0.1
788.19	-0.24
788.364	-0.07
788.538	0.08
788.712	-0.16
788.886	-0
789.06	-0.02
789.234	0.11
789.408	-0.28
789.582	-0.29
789.756	-0.04
789.93	-0.04
790.104	0.1
790.278	-0.25
790.452	-0.15
790.626	0.22
790.8	0.17
790.973	0.2
791.147	0
791.321	0.14
791.495	-0
791.669	0.01
791.843	0.08
792.016	-0.07
792.19	0.27
792.364	-0.55
792.538	0.38
792.711	0.17
792.885	-0.32
793.059	-0.26
793.233	-0.5
793.406	0.02
793.58	-0.1
793.754	0.08
793.927	-0.24
794.101	0.08
794.274	-0.08
794.448	0.07
794.622	-0.18
794.795	0.05
794.969	-0.28
795.142	0.14
795.316	-0.1
795.489	-0.3
795.663	0.19
795.836	-0.12
796.009	-0.33
796.183	0.11
796.356	0.08
796.53	0.09
796.703	-0.04
796.876	0.44
797.05	-0.13
797.223	-0.15
797.396	0.07
797.57	0.11
797.743	0.19
797.916	-0.02
798.09	-0.06
798.263	0.04
798.436	-0.05
798.609	-0.15
798.782	0.09
798.956	0.15
799.129	0.06
799.302	0.2
799.475	-0.35
799.648	-0.28
799.821	-0.12
799.994	0.03
800.167	-0.46
800.34	-0.45
800.514	-0.04
800.687	-0.11
800.86	-0.12
801.033	-0.09
801.206	-0.32
801.379	-0.29
801.551	0.11
801.724	0.18
801.897	0.29
802.07	-0.32
802.243	-0.74
802.416	-0.17
802.589	-0.16
802.762	-0.26
802.935	-0.29
803.107	0.17
803.28	0.06
803.453	0.12
803.626	-0.22
803.798	-0.07
803.971	-0.41
804.144	-0.05
804.317	0.28
804.489	-0.03
804.662	0.17
804.835	-0.01
805.007	-0.4
805.18	0.33
805.353	-0.01
805.525	-0.25
805.698	-0.31
805.87	0.17
806.043	0.13
806.215	-0.35
806.388	-0.33
806.56	0.09
806.733	0.04
806.905	0.2
807.078	-0.48
807.25	-0.41
807.423	-0.18
807.595	-0.14
807.768	-0.11
807.94	0.3
808.112	0.23
808.285	0.18
808.457	0.01
808.629	-0.06
808.802	0.26
808.974	-0.3
809.146	-0.18
809.318	-0.49
809.491	-0.16
809.663	-0.14
809.835	-0.15
810.007	0.01
810.18	0.12
810.352	-0.52
810.524	-0.34
810.696	-0.47
810.868	0.11
811.04	0.05
811.212	-0.27
811.384	-0.12
811.556	-0.23
811.728	0.01
811.901	0.79
812.073	-0.28
812.245	0.19
812.417	-0.27
812.589	-0.83
812.76	-0.09
812.932	-0.03
813.104	0.22
813.276	-0.13
813.448	0.31
813.62	-0.14
813.792	-0.12
813.964	-0.18
814.136	-0.08
814.307	0.15
814.479	-0.24
814.651	-0.1
814.823	0.37
814.995	-0.57
815.166	-0.13
815.338	-0.35
815.51	-0.51
815.681	0.78
815.853	-0.32
816.025	-0.62
816.196	0.29
816.368	0.18
816.54	-0.68
816.711	-0.61
816.883	-0.1
817.054	0.66
817.226	-0.99
817.398	0.3
817.569	-0.31
817.741	0
817.912	-0.27
818.084	-0.31
818.255	-0.05
818.426	-0.72
818.598	-0.46
818.769	0.15
818.941	-0.27
819.112	0.42
819.283	0.63
819.455	-0.88
819.626	0.09
819.798	0.09
819.969	-0.3
820.14	-0.37
820.311	-0.02
820.483	0.1
820.654	-0.22
820.825	-0.15
820.996	-0.33
821.168	-0.53
821.339	-0.27
821.51	-0.64
821.681	-0.2
821.852	-0.26
822.023	-0.54
822.195	-0.61
822.366	0.23
822.537	-0.07
822.708	-0.14
822.879	-0.46
823.05	0.11
823.221	-0.41
823.392	0.18
823.563	-0.31
823.734	-0.26
823.905	-0.24
824.076	-0.63
824.247	-0.39
824.418	-0.35
824.589	0.42
824.759	-0.22
824.93	0.02
825.101	-0.7
825.272	-0.03
825.443	0.09
825.614	0.08
825.784	-1.52
825.955	0.56
826.126	0.2
826.297	0.18
826.467	0.4
826.638	0.7
826.809	-1.13
826.98	-0.28
827.15	0.05
827.321	-0.43
827.492	0.77
827.662	0.46
827.833	1.4
828.003	-0.38
828.174	-0.62
828.345	-0.83
828.515	0.54
828.686	-0.02
828.856	-0.65
829.027	0.34
829.197	-0.25
829.368	0.07
829.538	-0.93
829.709	-0.65
829.879	0.23
830.049	-0.25
830.22	0.11
830.39	-0.29
830.56	-0.29
830.731	-0.23
830.901	-0.6
831.072	-0.09
831.242	-0.04
831.412	-0.24
831.582	-0.13
831.753	-1.11
831.923	0.18
832.093	-0.59
832.263	-0.17
832.434	-0.77
832.604	-0.4
832.774	0.05
832.944	-0.12
833.114	-0.44
833.284	0.3
833.454	-0.51
833.624	-0.74
833.795	-0.17
833.965	0.62
834.135	0.78
834.305	-0.82
834.475	-1.19
834.645	-0.52
834.815	-0.59
834.985	-0.3
835.155	-0.59
835.325	0.06
835.494	0.15
835.664	-0.09
835.834	-0.75
836.004	-0.1
836.174	-0.24
836.344	-0.44
836.514	-0.61
836.684	0.01
836.853	-0.26
837.023	-0.71
837.193	-0.51
837.363	0.17
837.532	-0.31
837.702	-0.18
837.872	-0.47
838.041	0.06
838.211	0.7
838.381	-0.89
838.55	0.07
838.72	0.67
838.89	1.08
839.059	-0.3
839.229	-0.83
839.398	0.87
839.568	-0.01
839.738	0.4
839.907	-0.01
840.077	-0.17
840.246	-0.79
840.416	-0.77
840.585	-1.06
840.755	0.24
840.924	1.05
841.093	-0.58
841.263	-0.64
841.432	-0.65
841.602	-1.55
841.771	-0.08
841.94	-0.24
842.11	1.98
842.279	1.54
842.448	-1.72
842.617	-0.63
842.787	0.7
842.956	-0.79
843.125	0.65
843.294	-0.17
843.464	0.53
843.633	-0.38
843.802	-0.59
843.971	-0.27
844.14	-0.16
844.309	-0.19
844.479	-1.12
844.648	-1.17
844.817	-0.91
844.986	-0.55
845.155	-0.43
845.324	-0.12
845.493	-0.18
845.662	-1.74
845.831	0.49
846	0.01
846.169	-0.85
846.338	0.22
846.507	-0.19
846.676	-0.14
846.844	-0.89
847.013	0.08
847.182	-0.17
847.351	-0.9
847.52	-0.89
847.689	-0.06
847.858	0.08
848.026	-0.49
848.195	-0.38
848.364	-0.53
848.533	-0.48
848.701	-1.2
848.87	-0.13
849.039	0.06
849.207	0.61
849.376	-0.33
849.545	0.38
849.713	-0.92
849.882	-0.77
850.051	0.6
850.219	0
850.388	0.23
850.556	-1.21
850.725	-0.19
850.893	0.3
851.062	-0.54
851.23	0.49
851.399	-2.15
851.567	-0.15
851.736	-0.37
851.904	-1.02
852.073	-0.44
852.241	0.23
852.41	-0.09
852.578	0.04
852.746	-0.8
852.915	0.04
853.083	-0.09
853.251	-1.23
853.42	-0.18
853.588	-0.33
853.756	0.07
853.924	-0.32
854.093	-0.45
854.261	-0.97
854.429	-1.53
854.597	0.02
854.765	-1.71
854.934	0.34
855.102	-0.13
855.27	-0.6
855.438	0.67
855.606	-0.38
855.774	0.69
855.942	-2.49
856.11	-2.61
856.278	-0.66
856.446	0.61
856.614	-0.26
856.782	-1.7
856.95	0.98
857.118	-0.18
857.286	-0.28
857.454	-0.69
857.622	-0.53
857.79	0.42
857.958	-1.41
858.126	-0.46
858.294	-2.52
858.462	-0.5
858.629	0.38
858.797	-0.81
858.965	-0.23
859.133	-1.29
859.301	-1.15
859.468	0.3
859.636	-2.35
859.804	0.51
859.971	0.89
860.139	-1.23
860.307	0.72
860.474	-0.62
860.642	-0.35
860.81	-0.6
860.977	-0.89
861.145	-0.35
861.313	0.04
861.48	-0.17
861.648	-0.2
861.815	-0.35
861.983	-1.77
862.15	-0.16
862.318	0.75
862.485	0.74
862.653	-0.84
862.82	-0.25
862.988	0.32
863.155	0.5
863.322	-0.27
863.49	-2.05
863.657	-1.99
863.824	0.92
863.992	-0.51
864.159	-0.55
864.326	0.39
864.494	-1.82
864.661	2.23
864.828	-1.68
864.996	2.02
865.163	-0.22
865.33	-1.25
865.497	-2.3
865.664	-0.74
865.832	-2.07
865.999	-1.87
866.166	-2.85
866.333	0.26
866.5	-1.03
866.667	0.59
866.834	0.05
867.001	1.21
867.168	-1.78
867.335	0.11
867.502	-2.09
867.669	0.2
867.836	2.37
868.003	0.58
868.17	0.11
868.337	0.38
868.504	3
868.671	-1.57
868.838	-0.44
869.005	-0.32
869.172	1.2
869.339	-0.28
869.505	-0.23
869.672	-2.04
869.839	1.28
870.006	0.03
870.173	-1.78
870.339	0.6
870.506	1.36
870.673	-1.36
870.84	1.03
871.006	0.48
871.173	-0.25
871.34	-1.42
871.506	-2.23
871.673	-0.29
871.839	-2.32
872.006	1.36
872.173	-0.16
872.339	-1.47
872.506	-0.26
872.672	-1.09
872.839	-1.48
873.005	-0.01
873.172	2
873.338	0.5
873.505	-0.18
873.671	-0.28
873.838	1.6
874.004	-1.41
874.171	-1.67
874.337	-0.39
874.503	-0.6
874.67	-0.86
874.836	-0.48
875.002	1.11
875.169	-1.16
875.335	-0.59
875.501	-1.49
875.668	2.4
875.834	-1.34
876	-0.37
876.166	0.09
876.332	1.08
876.499	3.29
876.665	-0.09
876.831	0.55
876.997	2.44
877.163	-0.69
877.329	-0.23
877.495	-2.01
877.662	-0.29
877.828	0.42
877.994	-0.49
878.16	-1.96
878.326	-0.63
878.492	-0.05
878.658	-1.98
878.824	-0.09
878.99	1.79
879.156	-1.47
879.322	1.37
879.487	-1.04
879.653	0.34
879.819	-1.28
879.985	-2.23
880.151	1.66
880.317	0.3
880.483	0.68
880.648	1.93
880.814	-2.89
880.98	0.81
881.146	-2.04
881.312	-1.2
881.477	0.53
881.643	-0.65
881.809	0.91
881.974	0.1
882.14	-2.48
882.306	-2.12
882.471	2.66
882.637	-0.54
882.803	-0.97
882.968	2.47
883.134	3.89
883.299	-1.1
883.465	1.09
883.63	-0.48
883.796	0.8
883.961	0.93
884.127	0.11
884.292	-3.63
884.458	-2.97
884.623	-2.97
