Data from Apollo_Calib_20240827__AbsoluteIrradiance__336__04-45-03-195.txt Node

Date: Wed Aug 28 04:45:03 BST 2024
User: biology
Spectrometer: FLMT08252
Trigger mode: 0
Integration Time (sec): 5.000000E-1
Scans to average: 5
Electric dark correction enabled: true
Nonlinearity correction enabled: false
Boxcar width: 0
XAxis mode: Wavelengths
Number of Pixels in Spectrum: 3648
>>>>>Begin Spectral Data<<<<<
179.588	-0
179.809	-0
180.03	-0
180.251	-0
180.473	-0
180.694	0
180.915	0
181.136	-0
181.357	0
181.578	-0
181.799	0
182.02	-0
182.241	0
182.462	-0
182.683	0
182.904	-0
183.125	-0
183.346	0
183.567	0
183.788	0
184.009	-0
184.23	0
184.451	0
184.672	-0
184.892	-0
185.113	0
185.334	0
185.555	0
185.776	-0
185.996	0
186.217	0
186.438	0
186.659	-0
186.879	0
187.1	-0
187.321	-0
187.541	-0
187.762	0
187.983	-0
188.203	0
188.424	-0
188.644	-0
188.865	0
189.086	-0
189.306	-0
189.527	0
189.747	0
189.968	-0
190.188	0
190.409	0
190.629	0
190.849	-0
191.07	-0
191.29	0
191.511	0
191.731	-0
191.951	-0
192.172	0
192.392	0
192.612	-0
192.833	0
193.053	0
193.273	0
193.493	0
193.714	-0
193.934	0
194.154	0
194.374	0
194.594	0
194.815	0
195.035	0
195.255	0
195.475	-0
195.695	0
195.915	0
196.135	0
196.355	0
196.575	0
196.795	0
197.015	-0
197.235	-0
197.455	-0
197.675	0
197.895	-0
198.115	-0
198.335	0
198.555	-0
198.775	0
198.995	0
199.214	0
199.434	-0
199.654	-0
199.874	-0
200.094	1.66
200.313	0.26
200.533	-0.29
200.753	-0.24
200.973	0.54
201.192	0.46
201.412	-1.12
201.632	-0.08
201.851	0.68
202.071	-0.29
202.291	-0.21
202.51	-0.55
202.73	0.53
202.95	-0.06
203.169	-0.64
203.389	0.39
203.608	0.47
203.828	-0.21
204.047	-0.08
204.267	0.55
204.486	0.1
204.706	-0.34
204.925	0.35
205.145	-0
205.364	0.84
205.583	0.59
205.803	0.01
206.022	-0.33
206.242	-0.01
206.461	0.31
206.68	-0.13
206.9	0.17
207.119	0.81
207.338	0.85
207.557	-0.39
207.777	0.04
207.996	0.05
208.215	0.59
208.434	-0.04
208.654	-0.31
208.873	-0
209.092	0.67
209.311	-0.09
209.53	-0.15
209.749	0.04
209.968	-0.22
210.187	-0.02
210.407	-0.17
210.626	0.27
210.845	0.53
211.064	0.07
211.283	-0.12
211.502	0.2
211.721	0.25
211.94	-0.12
212.159	0.18
212.377	0.36
212.596	0.34
212.815	0.17
213.034	0.31
213.253	0.1
213.472	0.4
213.691	0.04
213.91	0.01
214.128	-0
214.347	0.42
214.566	-0.53
214.785	-0.22
215.003	0.32
215.222	0.31
215.441	-0.14
215.66	-0.33
215.878	0.19
216.097	0.26
216.316	-0.2
216.534	0.06
216.753	-0.09
216.972	-0.07
217.19	-0.15
217.409	-0.2
217.627	0.02
217.846	0.09
218.064	0.12
218.283	-0.25
218.501	0.54
218.72	0.14
218.938	-0.22
219.157	-0.08
219.375	0.17
219.594	0.35
219.812	-0.27
220.031	-0.01
220.249	0.33
220.467	0.37
220.686	-0.09
220.904	-0.26
221.122	-0.11
221.341	0.49
221.559	0.18
221.777	-0.08
221.995	0.04
222.214	0.07
222.432	-0.16
222.65	0.25
222.868	0.18
223.086	0.18
223.305	0.18
223.523	-0.02
223.741	0.27
223.959	-0.15
224.177	-0.27
224.395	-0.14
224.613	0.18
224.831	0.22
225.049	-0.22
225.267	0.09
225.485	0.1
225.703	0.02
225.921	-0.13
226.139	-0.06
226.357	0.26
226.575	-0.01
226.793	-0.03
227.011	0.75
227.229	0.09
227.447	0.27
227.665	0.08
227.883	-0.23
228.1	0.06
228.318	0.13
228.536	-0.2
228.754	-0.18
228.972	0.09
229.189	0.23
229.407	-0.02
229.625	-0.05
229.843	0.22
230.06	0.08
230.278	-0.02
230.496	-0.02
230.713	0.2
230.931	0.18
231.149	-0.01
231.366	-0.16
231.584	0.03
231.801	0.3
232.019	-0.04
232.236	-0.07
232.454	-0.03
232.671	0.18
232.889	-0.05
233.106	-0.04
233.324	0.04
233.541	0.07
233.759	0.1
233.976	-0.06
234.194	0.07
234.411	0.08
234.628	-0.12
234.846	-0.07
235.063	0.03
235.28	0.05
235.498	-0.04
235.715	-0.05
235.932	0.18
236.149	0.13
236.367	-0.02
236.584	0.03
236.801	-0.02
237.018	0.09
237.236	-0
237.453	-0.17
237.67	0.17
237.887	0.03
238.104	-0.07
238.321	-0.07
238.538	-0.08
238.755	0.2
238.973	-0.16
239.19	0.1
239.407	0.09
239.624	0.16
239.841	-0.08
240.058	-0.03
240.275	0.06
240.492	0.04
240.709	0.03
240.925	-0.03
241.142	0.15
241.359	0.02
241.576	-0.05
241.793	0.05
242.01	0.05
242.227	0.06
242.444	0.13
242.66	0.15
242.877	0.12
243.094	-0
243.311	0.13
243.527	0.07
243.744	0.11
243.961	0.1
244.178	0.07
244.394	0.1
244.611	0.1
244.828	0.29
245.044	0.01
245.261	0.04
245.477	0.06
245.694	0.14
245.911	0.01
246.127	0.05
246.344	0.19
246.56	0.22
246.777	-0.07
246.993	0.03
247.21	0.13
247.426	0.08
247.643	-0.05
247.859	-0.09
248.076	0.04
248.292	0.24
248.508	-0.01
248.725	0.03
248.941	0.02
249.157	0.14
249.374	-0.09
249.59	0.02
249.806	0.05
250.023	0.21
250.239	-0.01
250.455	-0.13
250.671	0.02
250.888	0.07
251.104	0.1
251.32	0.01
251.536	0.08
251.752	0.03
251.969	0.09
252.185	0.01
252.401	0.26
252.617	0.1
252.833	0.03
253.049	0.07
253.265	0.06
253.481	0.01
253.697	0.01
253.913	-0.08
254.129	0.07
254.345	0.08
254.561	0.02
254.777	0.03
254.993	0.1
255.209	0.11
255.425	-0.02
255.641	-0.02
255.857	0.16
256.073	0.16
256.288	-0.07
256.504	0.01
256.72	0.06
256.936	0.13
257.152	-0
257.367	-0.1
257.583	0.07
257.799	0.18
258.015	-0.02
258.23	0.06
258.446	0.28
258.662	0.08
258.877	0.03
259.093	-0.02
259.309	0.07
259.524	0.1
259.74	-0.01
259.955	-0.07
260.171	0.06
260.387	0.03
260.602	0.07
260.818	0.11
261.033	-0.08
261.249	-0.05
261.464	-0.01
261.68	-0.1
261.895	0.13
262.11	0.08
262.326	0.02
262.541	-0.02
262.757	0.09
262.972	0.11
263.187	0.06
263.403	-0.02
263.618	0.13
263.833	0.02
264.049	-0.01
264.264	0.08
264.479	0.14
264.694	0.26
264.91	-0.05
265.125	-0.01
265.34	0.08
265.555	0.25
265.77	0.08
265.986	0.03
266.201	0.1
266.416	0.14
266.631	0.01
266.846	0
267.061	0.14
267.276	0.11
267.491	-0.1
267.706	0.09
267.921	0.07
268.136	0.09
268.351	0.12
268.566	-0.07
268.781	0.18
268.996	0.04
269.211	0.05
269.426	-0.07
269.641	0.04
269.856	0.14
270.071	-0.06
270.285	-0.04
270.5	0.1
270.715	0.1
270.93	0.01
271.145	0.03
271.359	0.1
271.574	0.02
271.789	0.02
272.004	-0.01
272.218	0.03
272.433	0.13
272.648	-0.01
272.862	0.06
273.077	0.05
273.292	0.09
273.506	-0.01
273.721	-0.02
273.936	0.12
274.15	0.08
274.365	-0.01
274.579	0.05
274.794	0.12
275.008	0.08
275.223	-0.01
275.437	0.07
275.652	0.11
275.866	0.1
276.081	-0
276.295	0.07
276.509	0.09
276.724	0.1
276.938	0.06
277.153	0.11
277.367	0.13
277.581	0.02
277.796	0.01
278.01	-0.02
278.224	0.11
278.438	0.2
278.653	0.01
278.867	0.01
279.081	-0.14
279.295	0.05
279.51	0.07
279.724	-0.09
279.938	0.09
280.152	0.06
280.366	-0.02
280.58	0.06
280.794	0.14
281.008	0.07
281.222	0.15
281.437	0.15
281.651	0.07
281.865	0.12
282.079	0.02
282.293	-0.07
282.507	0.02
282.721	0.02
282.935	0.04
283.148	-0.03
283.362	0.04
283.576	0.01
283.79	0.02
284.004	0.02
284.218	0.09
284.432	0.06
284.646	-0.02
284.859	0.03
285.073	-0
285.287	0.09
285.501	0.02
285.714	0.04
285.928	0.08
286.142	0.05
286.356	0.01
286.569	-0.05
286.783	0.1
286.997	0.09
287.21	0.05
287.424	0.04
287.637	0.01
287.851	0.02
288.065	0.09
288.278	0.05
288.492	0.05
288.705	0.01
288.919	0.11
289.132	-0.03
289.346	0.09
289.559	-0.06
289.773	-0.01
289.986	0.04
290.2	0.02
290.413	0.1
290.626	-0.02
290.84	0.05
291.053	0.03
291.267	0.1
291.48	0.02
291.693	0.06
291.906	0.01
292.12	0.04
292.333	-0
292.546	0.02
292.76	0.13
292.973	0.11
293.186	0.07
293.399	0.04
293.612	0.08
293.826	0.07
294.039	0.04
294.252	0.04
294.465	0.12
294.678	0.07
294.891	0.03
295.104	0.01
295.317	0.06
295.53	0.08
295.743	0.04
295.956	0.05
296.169	0.12
296.382	0.1
296.595	0.06
296.808	0.03
297.021	0.07
297.234	0.09
297.447	0.04
297.66	0.11
297.873	0.09
298.086	0.12
298.299	0
298.511	-0.01
298.724	0.01
298.937	0.03
299.15	0.03
299.363	-0
299.575	0.08
299.788	0.08
300.001	0.03
300.213	0
300.426	0.01
300.639	-0.02
300.852	0.03
301.064	0.06
301.277	0.15
301.489	0.09
301.702	0.1
301.915	0.06
302.127	0.04
302.34	0.06
302.552	0.08
302.765	0.04
302.977	0.09
303.19	0.03
303.402	0.02
303.615	0.02
303.827	0.03
304.04	0.01
304.252	0.12
304.464	0
304.677	0.15
304.889	0.09
305.102	0.01
305.314	-0.01
305.526	0.08
305.739	0.08
305.951	0.03
306.163	0.06
306.375	0.08
306.588	0.02
306.8	0.02
307.012	0
307.224	0.06
307.436	0.14
307.649	-0.03
307.861	0.06
308.073	0.11
308.285	0.05
308.497	0.03
308.709	0.05
308.921	0.01
309.133	0.11
309.346	0.02
309.558	0.02
309.77	0.08
309.982	0.12
310.194	0.11
310.406	-0
310.617	0.14
310.829	0.06
311.041	0.05
311.253	-0
311.465	0.05
311.677	0.05
311.889	0.04
312.101	0.05
312.313	0.1
312.524	0.11
312.736	-0.01
312.948	0.03
313.16	0.12
313.372	0.07
313.583	0.09
313.795	0.05
314.007	0.03
314.218	0.07
314.43	0.08
314.642	0.02
314.853	-0.01
315.065	0.09
315.277	0.02
315.488	0.06
315.7	0.11
315.912	0.07
316.123	0.06
316.335	0.05
316.546	0.17
316.758	0.05
316.969	0.01
317.181	0.06
317.392	0.05
317.604	0.11
317.815	0.03
318.026	-0.01
318.238	0.04
318.449	0.09
318.661	-0
318.872	0.01
319.083	0.02
319.295	0.07
319.506	0.01
319.717	0.02
319.929	0.07
320.14	0.07
320.351	0.06
320.562	0
320.774	0.06
320.985	0.02
321.196	0.01
321.407	-0.06
321.618	0.1
321.829	0.03
322.041	0.11
322.252	0.07
322.463	0.05
322.674	0.07
322.885	0.03
323.096	0.04
323.307	0.02
323.518	0.1
323.729	0.04
323.94	0.04
324.151	0.03
324.362	0.07
324.573	0.1
324.784	0.03
324.995	0.13
325.206	0.09
325.417	0.01
325.628	0.05
325.838	0.05
326.049	0.05
326.26	0.09
326.471	0.05
326.682	0.12
326.892	0.05
327.103	-0.02
327.314	-0.01
327.525	0.1
327.735	0.09
327.946	0.06
328.157	0
328.368	0.14
328.578	0.05
328.789	0.07
328.999	0.03
329.21	0.02
329.421	0.1
329.631	0.02
329.842	0.05
330.052	0.05
330.263	0.06
330.473	0.06
330.684	0.02
330.894	0.08
331.105	0.07
331.315	0.07
331.526	-0.02
331.736	0.13
331.947	0.11
332.157	0.06
332.367	0.02
332.578	0.06
332.788	0.09
332.999	0.05
333.209	0.04
333.419	-0.01
333.629	0.06
333.84	0.07
334.05	0.07
334.26	0.09
334.47	0.05
334.681	0.08
334.891	0.04
335.101	0.1
335.311	0.16
335.521	0.04
335.732	0.02
335.942	0.11
336.152	0.12
336.362	0.08
336.572	0.05
336.782	0.09
336.992	0.01
337.202	0.01
337.412	0.02
337.622	0.1
337.832	0.06
338.042	0.05
338.252	0.03
338.462	0.03
338.672	0.06
338.882	0.03
339.092	0.05
339.302	0.1
339.511	0.08
339.721	0.01
339.931	0.04
340.141	0.09
340.351	0.1
340.561	0.07
340.77	0.11
340.98	0.05
341.19	0.12
341.4	0.04
341.609	-0.01
341.819	0.06
342.029	0.02
342.238	0.09
342.448	0.02
342.658	0.07
342.867	0.05
343.077	0.05
343.286	0.04
343.496	0.05
343.706	0.14
343.915	0.01
344.125	0.04
344.334	0.07
344.544	-0.01
344.753	0
344.963	0.05
345.172	-0.01
345.381	0.05
345.591	0.03
345.8	0.06
346.01	0.13
346.219	0.07
346.428	-0.11
346.638	0.02
346.847	0.04
347.056	0.1
347.266	0.01
347.475	0.03
347.684	0.11
347.893	0.04
348.103	0.07
348.312	0.02
348.521	0.01
348.73	0.08
348.94	0.04
349.149	0.03
349.358	0.05
349.567	0.01
349.776	-0.03
349.985	0.02
350.194	0.08
350.403	0.12
350.612	-0.01
350.821	0.03
351.03	0.06
351.239	-0.01
351.448	0.03
351.657	0.03
351.866	0.11
352.075	0.07
352.284	0.08
352.493	0.01
352.702	0.13
352.911	0.08
353.12	0.06
353.329	0.03
353.538	0.06
353.746	0.03
353.955	0
354.164	0.08
354.373	0.07
354.582	0.06
354.79	0.05
354.999	0.12
355.208	0.03
355.416	0.14
355.625	-0.01
355.834	0.01
356.042	0.09
356.251	0.06
356.46	0
356.668	0.05
356.877	0.14
357.085	0.08
357.294	-0.01
357.503	0.1
357.711	0.02
357.92	0.19
358.128	0.06
358.337	0.05
358.545	0.07
358.754	-0
358.962	0.09
359.17	0.01
359.379	0.07
359.587	0.09
359.796	0.04
360.004	0.06
360.212	0.08
360.421	0.14
360.629	0.05
360.837	0.06
361.046	0.08
361.254	0.16
361.462	0.05
361.67	-0
361.879	0.03
362.087	0.15
362.295	0.08
362.503	0.04
362.711	0.05
362.92	0
363.128	0.05
363.336	0.01
363.544	-0
363.752	0.05
363.96	0.01
364.168	0.06
364.376	0.03
364.584	0.05
364.792	0.07
365	0.04
365.208	0.09
365.416	0.07
365.624	0.06
365.832	0.04
366.04	0.13
366.248	0.08
366.456	0.04
366.664	0.05
366.872	0.07
367.079	0.08
367.287	0.04
367.495	0.04
367.703	0.03
367.911	0.06
368.118	0.04
368.326	0.05
368.534	0.06
368.742	0.1
368.949	-0.02
369.157	0.06
369.365	0.08
369.572	0.01
369.78	0.01
369.988	0.1
370.195	0.05
370.403	0.08
370.61	0.06
370.818	0.05
371.026	0.08
371.233	0.01
371.441	0.02
371.648	0.04
371.856	0.04
372.063	0.07
372.271	0.05
372.478	0.01
372.685	0.02
372.893	0.1
373.1	0.05
373.308	0.02
373.515	0.13
373.722	0.08
373.93	0.06
374.137	0.11
374.344	0.13
374.552	0.09
374.759	0.08
374.966	0.04
375.173	0.05
375.381	0.09
375.588	0.08
375.795	-0.02
376.002	0.04
376.209	0.04
376.417	0.01
376.624	0.05
376.831	0.1
377.038	0.04
377.245	-0.04
377.452	0.03
377.659	0.09
377.866	0.01
378.073	0.06
378.28	0.05
378.487	0.12
378.694	0.1
378.901	0.03
379.108	0.03
379.315	0.09
379.522	0.14
379.729	0.07
379.936	0.07
380.143	0.06
380.35	0.05
380.557	0.04
380.763	0.06
380.97	0.07
381.177	0.04
381.384	0.08
381.591	0.08
381.797	0.06
382.004	0.05
382.211	0.04
382.418	0.06
382.624	0.09
382.831	0.08
383.038	0.06
383.244	0.08
383.451	0.05
383.658	0.09
383.864	0.05
384.071	-0
384.277	0.14
384.484	0.02
384.69	0.08
384.897	0.03
385.103	0.04
385.31	0.02
385.516	0.01
385.723	0.06
385.929	0.03
386.136	0
386.342	0.05
386.549	0.03
386.755	0.11
386.961	0.07
387.168	0.04
387.374	0.06
387.58	0.08
387.787	0.05
387.993	0.09
388.199	0.07
388.406	0
388.612	0.06
388.818	0.02
389.024	0.02
389.231	0.1
389.437	0.12
389.643	0.07
389.849	0.03
390.055	0.07
390.261	0.05
390.467	0.08
390.674	0.05
390.88	0.1
391.086	0.1
391.292	0.01
391.498	0.1
391.704	0.08
391.91	0.06
392.116	0.04
392.322	-0.06
392.528	0.09
392.734	0.04
392.94	0.05
393.146	0.05
393.352	0.08
393.557	0.01
393.763	0.05
393.969	0.09
394.175	0.07
394.381	0.08
394.587	0.04
394.792	0.09
394.998	0.14
395.204	0.12
395.41	0.02
395.615	0.13
395.821	0.11
396.027	0.09
396.233	0.07
396.438	0.08
396.644	0.1
396.85	0.12
397.055	0.03
397.261	0.06
397.466	0.14
397.672	0.11
397.878	0.1
398.083	0.1
398.289	0.05
398.494	0.1
398.7	0.12
398.905	0.02
399.111	0.14
399.316	0.03
399.522	0.04
399.727	0.03
399.932	0.08
400.138	0.03
400.343	0.1
400.549	0.06
400.754	0.09
400.959	0.1
401.165	0.07
401.37	0.08
401.575	0.16
401.78	0.11
401.986	0.08
402.191	0.09
402.396	0.07
402.601	0.1
402.807	0.09
403.012	0.09
403.217	0.14
403.422	0.09
403.627	0.1
403.832	0.08
404.037	0.11
404.243	0.12
404.448	0.11
404.653	0.13
404.858	0.14
405.063	0.14
405.268	0.08
405.473	0.05
405.678	0.06
405.883	0.25
406.088	0.16
406.293	0.04
406.498	0.06
406.703	0.15
406.907	0.13
407.112	0.08
407.317	0.12
407.522	0.16
407.727	0.08
407.932	0.11
408.136	0.17
408.341	0.11
408.546	0.13
408.751	0.14
408.956	0.09
409.16	0.2
409.365	0.13
409.57	0.13
409.774	0.14
409.979	0.16
410.184	0.21
410.388	0.11
410.593	0.18
410.798	0.2
411.002	0.12
411.207	0.18
411.411	0.23
411.616	0.13
411.82	0.13
412.025	0.25
412.229	0.13
412.434	0.26
412.638	0.2
412.843	0.19
413.047	0.24
413.252	0.17
413.456	0.22
413.66	0.25
413.865	0.23
414.069	0.31
414.273	0.24
414.478	0.23
414.682	0.26
414.886	0.28
415.091	0.22
415.295	0.21
415.499	0.33
415.703	0.28
415.908	0.34
416.112	0.26
416.316	0.45
416.52	0.37
416.724	0.34
416.929	0.39
417.133	0.54
417.337	0.44
417.541	0.4
417.745	0.45
417.949	0.49
418.153	0.52
418.357	0.45
418.561	0.66
418.765	0.52
418.969	0.7
419.173	0.6
419.377	0.6
419.581	0.79
419.785	0.72
419.989	0.69
420.193	0.73
420.397	0.76
420.601	0.89
420.804	0.88
421.008	0.89
421.212	0.85
421.416	0.94
421.62	0.9
421.823	0.93
422.027	1.11
422.231	1.04
422.435	1.04
422.638	1.13
422.842	1.03
423.046	1.14
423.249	1.2
423.453	1.32
423.657	1.31
423.86	1.34
424.064	1.41
424.268	1.51
424.471	1.46
424.675	1.6
424.878	1.67
425.082	1.62
425.285	1.8
425.489	1.73
425.692	1.83
425.896	1.85
426.099	1.99
426.303	2.04
426.506	2.07
426.71	2.22
426.913	2.3
427.116	2.43
427.32	2.44
427.523	2.31
427.726	2.68
427.93	2.56
428.133	2.81
428.336	2.8
428.54	2.84
428.743	3.02
428.946	3.11
429.149	3.22
429.353	3.24
429.556	3.25
429.759	3.3
429.962	3.33
430.165	3.38
430.368	3.33
430.571	3.31
430.775	3.39
430.978	3.42
431.181	3.4
431.384	3.6
431.587	3.54
431.79	3.78
431.993	3.7
432.196	3.92
432.399	4.08
432.602	4.13
432.805	4.19
433.008	4.52
433.211	4.36
433.414	4.65
433.616	4.66
433.819	4.72
434.022	4.71
434.225	4.9
434.428	4.91
434.631	5.18
434.833	5
435.036	5.14
435.239	5.37
435.442	5.41
435.645	5.44
435.847	5.53
436.05	5.75
436.253	5.99
436.455	5.91
436.658	5.89
436.861	6.13
437.063	6.28
437.266	6.34
437.468	6.56
437.671	6.82
437.874	6.84
438.076	6.75
438.279	7.13
438.481	7.3
438.684	7.65
438.886	7.56
439.089	7.73
439.291	7.91
439.494	8.16
439.696	8.33
439.899	8.85
440.101	9.06
440.303	9.35
440.506	9.83
440.708	9.82
440.91	10.12
441.113	10.32
441.315	10.57
441.517	10.51
441.72	11.07
441.922	11.07
442.124	11.08
442.326	11.42
442.529	11.71
442.731	11.74
442.933	12.28
443.135	12.25
443.337	12.37
443.539	13
443.742	12.81
443.944	13.44
444.146	13.4
444.348	13.54
444.55	13.6
444.752	13.86
444.954	13.93
445.156	14.16
445.358	14.52
445.56	15.05
445.762	14.91
445.964	15.39
446.166	15.2
446.368	15.42
446.57	15.56
446.772	15.35
446.974	15.42
447.175	15.7
447.377	15.52
447.579	16.18
447.781	15.88
447.983	15.65
448.184	15.48
448.386	15.82
448.588	15.59
448.79	15.57
448.991	15.89
449.193	15.95
449.395	15.43
449.597	15.13
449.798	15
450	14.76
450.202	14.68
450.403	14.55
450.605	14.59
450.806	14.26
451.008	14
451.21	13.9
451.411	13.47
451.613	12.78
451.814	13.06
452.016	12.99
452.217	12.25
452.419	12.33
452.62	11.91
452.821	11.62
453.023	11.52
453.224	11.17
453.426	10.79
453.627	10.14
453.828	10.1
454.03	10.11
454.231	10.06
454.432	9.79
454.634	9.53
454.835	9.28
455.036	9.22
455.238	8.73
455.439	8.57
455.64	8.28
455.841	7.99
456.042	8.21
456.244	7.87
456.445	7.68
456.646	7.27
456.847	7.25
457.048	7.18
457.249	7.15
457.45	7.04
457.651	6.43
457.852	6.25
458.054	6.01
458.255	5.9
458.456	5.98
458.657	6
458.858	5.51
459.058	5.46
459.259	5.49
459.46	5.25
459.661	5.19
459.862	5.28
460.063	5.06
460.264	4.99
460.465	4.77
460.666	4.84
460.866	4.59
461.067	4.36
461.268	4.41
461.469	4.35
461.67	4.25
461.87	4.13
462.071	4.08
462.272	4.11
462.473	3.95
462.673	4.09
462.874	3.93
463.075	4
463.275	3.97
463.476	3.97
463.676	3.91
463.877	3.71
464.078	3.68
464.278	3.69
464.479	3.62
464.679	3.47
464.88	3.49
465.08	3.42
465.281	3.24
465.481	3.08
465.682	2.88
465.882	2.92
466.083	2.87
466.283	2.82
466.483	2.64
466.684	2.5
466.884	2.49
467.085	2.4
467.285	2.51
467.485	2.36
467.686	2.24
467.886	2.18
468.086	2.13
468.286	2.08
468.487	2.08
468.687	1.98
468.887	1.92
469.087	1.94
469.287	1.88
469.488	1.71
469.688	1.84
469.888	1.85
470.088	1.73
470.288	1.72
470.488	1.63
470.688	1.5
470.888	1.49
471.088	1.35
471.288	1.45
471.488	1.4
471.688	1.36
471.888	1.32
472.088	1.4
472.288	1.3
472.488	1.2
472.688	1.19
472.888	1.23
473.088	1.17
473.288	1.13
473.488	1.05
473.688	1.2
473.887	1.05
474.087	1.03
474.287	0.99
474.487	0.97
474.687	1.01
474.886	0.94
475.086	0.91
475.286	0.92
475.486	0.85
475.685	0.84
475.885	0.79
476.085	0.81
476.284	0.83
476.484	0.83
476.684	0.8
476.883	0.86
477.083	0.76
477.282	0.69
477.482	0.72
477.681	0.72
477.881	0.7
478.08	0.65
478.28	0.59
478.479	0.68
478.679	0.7
478.878	0.57
479.078	0.57
479.277	0.59
479.477	0.61
479.676	0.59
479.875	0.55
480.075	0.48
480.274	0.57
480.473	0.57
480.673	0.5
480.872	0.55
481.071	0.52
481.271	0.48
481.47	0.45
481.669	0.45
481.868	0.4
482.067	0.42
482.267	0.39
482.466	0.39
482.665	0.38
482.864	0.34
483.063	0.37
483.262	0.44
483.461	0.41
483.661	0.4
483.86	0.38
484.059	0.38
484.258	0.34
484.457	0.35
484.656	0.33
484.855	0.38
485.054	0.26
485.253	0.3
485.452	0.23
485.651	0.3
485.849	0.3
486.048	0.28
486.247	0.26
486.446	0.29
486.645	0.22
486.844	0.22
487.043	0.23
487.241	0.29
487.44	0.22
487.639	0.22
487.838	0.25
488.037	0.2
488.235	0.28
488.434	0.19
488.633	0.15
488.831	0.22
489.03	0.24
489.229	0.21
489.427	0.19
489.626	0.23
489.825	0.26
490.023	0.15
490.222	0.14
490.42	0.19
490.619	0.18
490.817	0.19
491.016	0.16
491.214	0.19
491.413	0.12
491.611	0.13
491.81	0.16
492.008	0.17
492.207	0.17
492.405	0.12
492.604	0.07
492.802	0.14
493	0.14
493.199	0.12
493.397	0.13
493.595	0.12
493.794	0.12
493.992	0.15
494.19	0.11
494.388	0.14
494.587	0.07
494.785	0.12
494.983	0.09
495.181	0.12
495.379	0.11
495.578	0.09
495.776	0.11
495.974	0.13
496.172	0.11
496.37	0.09
496.568	0.07
496.766	0.08
496.964	0.11
497.162	0.1
497.36	0.07
497.558	0.11
497.756	0.12
497.954	0.07
498.152	0.08
498.35	0.06
498.548	0.07
498.746	0.09
498.944	0.04
499.142	0.06
499.34	0.05
499.538	0.07
499.736	0.05
499.933	0.11
500.131	0.12
500.329	0.08
500.527	0.11
500.725	0.11
500.922	0.12
501.12	0.07
501.318	0.08
501.516	0.05
501.713	0.07
501.911	0.09
502.109	0.04
502.306	0.05
502.504	0.04
502.701	0.04
502.899	0.07
503.097	0.12
503.294	0.07
503.492	0.06
503.689	0.07
503.887	0.09
504.084	0.1
504.282	0.07
504.479	0.02
504.677	0.05
504.874	0.05
505.072	0.07
505.269	0.05
505.466	0.06
505.664	0.08
505.861	0.03
506.059	0.04
506.256	0.1
506.453	0.04
506.651	0.1
506.848	0.09
507.045	0.06
507.242	0.06
507.44	0.05
507.637	0.03
507.834	0.04
508.031	0.08
508.229	0.03
508.426	0.06
508.623	0.07
508.82	0.05
509.017	0.02
509.214	0.04
509.411	0.04
509.608	0.02
509.805	0.02
510.003	0.03
510.2	0.04
510.397	0.06
510.594	0.02
510.791	0.02
510.988	0.05
511.184	0.08
511.381	0.05
511.578	0.02
511.775	0.06
511.972	0.02
512.169	0.02
512.366	0.04
512.563	0.07
512.76	0.03
512.956	0.04
513.153	0.01
513.35	0.03
513.547	0
513.744	0.02
513.94	0
514.137	0.05
514.334	0.05
514.53	0.02
514.727	0.05
514.924	0.1
515.12	0.01
515.317	0.01
515.514	0.02
515.71	-0
515.907	0.03
516.103	0.04
516.3	0.04
516.497	0.08
516.693	0.07
516.89	0.03
517.086	0.02
517.283	0.04
517.479	0.04
517.676	0.01
517.872	0.04
518.068	0.02
518.265	-0
518.461	0.01
518.658	0.01
518.854	0.02
519.05	0.03
519.247	0.01
519.443	0.04
519.639	0.02
519.836	0.04
520.032	0.03
520.228	0.04
520.424	0.08
520.621	0.05
520.817	0.02
521.013	0.04
521.209	0.05
521.405	0.07
521.601	0.04
521.798	0.04
521.994	0.08
522.19	0.03
522.386	0
522.582	0.03
522.778	0.01
522.974	-0
523.17	0.03
523.366	0.04
523.562	0.06
523.758	0.02
523.954	0.02
524.15	0.02
524.346	0.05
524.542	0.03
524.738	0.02
524.934	0.02
525.129	0.03
525.325	0.04
525.521	0.04
525.717	0.05
525.913	0.01
526.109	0.03
526.304	0.04
526.5	0.04
526.696	0.05
526.892	0.04
527.087	0.02
527.283	0
527.479	0.04
527.674	0
527.87	0.01
528.066	0.03
528.261	0.05
528.457	0.04
528.653	0.02
528.848	0.01
529.044	0.05
529.239	0.01
529.435	0.04
529.63	0.03
529.826	0.06
530.021	0.03
530.217	0.04
530.412	0.02
530.608	0.01
530.803	0.03
530.999	0.02
531.194	-0
531.389	0.04
531.585	-0.04
531.78	0.01
531.975	0.01
532.171	0.05
532.366	0.03
532.561	0.02
532.757	0
532.952	0
533.147	0.05
533.342	0.02
533.538	0.01
533.733	0.06
533.928	0.01
534.123	0
534.318	-0.01
534.513	0.01
534.709	0.02
534.904	0
535.099	0.02
535.294	0.03
535.489	0.04
535.684	0.02
535.879	-0.02
536.074	0.03
536.269	0
536.464	0.04
536.659	0.01
536.854	-0
537.049	0.04
537.244	0.01
537.439	0.02
537.634	0.05
537.828	0.03
538.023	-0
538.218	-0.02
538.413	0.03
538.608	-0
538.803	0.03
538.997	-0
539.192	0.06
539.387	0.03
539.582	0.04
539.776	0.04
539.971	-0.01
540.166	0.02
540.36	-0.03
540.555	0.02
540.75	0.02
540.944	0.03
541.139	-0.04
541.334	0.01
541.528	0.04
541.723	0.05
541.917	0.01
542.112	-0.01
542.306	0.03
542.501	0.01
542.695	0.04
542.89	0.01
543.084	0.04
543.279	-0.01
543.473	0.01
543.668	0.02
543.862	0.03
544.056	0.05
544.251	0.03
544.445	0.04
544.64	0.01
544.834	-0.01
545.028	-0
545.222	0.02
545.417	0.03
545.611	0.01
545.805	0.01
546	0
546.194	0.02
546.388	-0.01
546.582	0.04
546.776	0.02
546.97	0.02
547.165	0.01
547.359	0.04
547.553	0.01
547.747	0.02
547.941	0.03
548.135	0.02
548.329	0.04
548.523	0.03
548.717	0.02
548.911	-0.01
549.105	0.02
549.299	0.03
549.493	0.04
549.687	0.04
549.881	0.06
550.075	0.04
550.269	-0.02
550.463	0.03
550.657	0.01
550.85	0.01
551.044	0.01
551.238	0.04
551.432	0.01
551.626	0
551.82	0.04
552.013	0
552.207	0.01
552.401	0.05
552.594	0.03
552.788	0.02
552.982	0.01
553.176	0.01
553.369	0.03
553.563	0.04
553.756	-0.03
553.95	-0.01
554.144	0.02
554.337	0.06
554.531	0.03
554.724	0.03
554.918	-0
555.111	0.04
555.305	-0.01
555.498	0.04
555.692	0.02
555.885	-0
556.079	0.02
556.272	-0.01
556.466	0.06
556.659	0.02
556.852	-0
557.046	-0
557.239	0.04
557.432	-0
557.626	-0.02
557.819	0.01
558.012	0.05
558.206	0.03
558.399	0.02
558.592	0.01
558.785	-0
558.979	0.04
559.172	0.01
559.365	0.05
559.558	0.03
559.751	0.04
559.944	-0.01
560.138	-0.01
560.331	0
560.524	0
560.717	0.02
560.91	0.01
561.103	0.03
561.296	0.02
561.489	0.02
561.682	0.03
561.875	0.05
562.068	0.03
562.261	0
562.454	0.06
562.647	0.05
562.84	0.04
563.032	0
563.225	0.02
563.418	-0.01
563.611	0.01
563.804	0.03
563.997	-0.01
564.19	-0.04
564.382	0.02
564.575	0.01
564.768	0.02
564.961	-0.01
565.153	0.01
565.346	0.04
565.539	0.03
565.731	0.06
565.924	0.05
566.117	0.04
566.309	0.03
566.502	0
566.695	0.02
566.887	0.02
567.08	-0
567.272	0.01
567.465	0
567.657	0.02
567.85	0.06
568.042	0.03
568.235	0.06
568.427	0
568.62	0.01
568.812	0.04
569.005	0
569.197	-0.03
569.389	0.01
569.582	0.03
569.774	0.02
569.966	-0.02
570.159	0.01
570.351	0.02
570.543	0.01
570.736	0.02
570.928	-0.01
571.12	0.03
571.312	-0
571.505	-0.03
571.697	0.06
571.889	0
572.081	0.01
572.273	-0
572.465	0.05
572.658	0.01
572.85	0.02
573.042	-0.02
573.234	-0.02
573.426	0.04
573.618	-0.03
573.81	0.03
574.002	0.05
574.194	0.06
574.386	-0.01
574.578	-0.06
574.77	-0.02
574.962	0.02
575.154	-0.01
575.346	0.01
575.538	0.02
575.729	-0.03
575.921	-0
576.113	-0.01
576.305	0.04
576.497	0.01
576.689	0
576.88	-0.02
577.072	0.03
577.264	0.02
577.456	-0.01
577.647	-0.07
577.839	0
578.031	0.06
578.223	-0.05
578.414	-0.01
578.606	0.03
578.798	0.04
578.989	0.01
579.181	0.02
579.372	-0
579.564	0.02
579.755	-0
579.947	0.01
580.139	0.03
580.33	-0.04
580.522	0
580.713	-0.05
580.905	0
581.096	0.02
581.287	0
581.479	-0.02
581.67	0.03
581.862	0.01
582.053	-0
582.244	-0.05
582.436	0
582.627	0.01
582.818	-0
583.01	-0.03
583.201	0.04
583.392	0.04
583.583	-0
583.775	0
583.966	-0.02
584.157	0.01
584.348	-0
584.54	-0.02
584.731	0.04
584.922	0
585.113	0
585.304	0
585.495	0.04
585.686	0.01
585.877	0.04
586.068	0.03
586.259	0.04
586.45	0.03
586.641	0
586.832	-0.04
587.023	0.03
587.214	0.01
587.405	0
587.596	-0.01
587.787	0.06
587.978	-0
588.169	-0.02
588.36	-0.01
588.551	0.04
588.742	-0.02
588.932	0.03
589.123	-0.01
589.314	0.05
589.505	0.03
589.696	0.02
589.886	-0.01
590.077	-0.02
590.268	0.02
590.458	-0.03
590.649	-0.06
590.84	0.04
591.03	-0.03
591.221	-0.03
591.412	-0.04
591.602	0.02
591.793	0.04
591.984	-0.05
592.174	-0.02
592.365	0.08
592.555	0.01
592.746	0.02
592.936	0.01
593.127	0.04
593.317	0.05
593.508	-0
593.698	0
593.889	0.03
594.079	0.01
594.269	0.01
594.46	0.02
594.65	0.02
594.84	0.01
595.031	-0.03
595.221	-0.01
595.411	-0.06
595.602	0.01
595.792	0.02
595.982	-0.01
596.172	0.07
596.363	0.03
596.553	0.01
596.743	-0.02
596.933	-0.01
597.123	0.08
597.314	-0.02
597.504	-0.01
597.694	0.03
597.884	0.02
598.074	0.02
598.264	-0.04
598.454	0.02
598.644	0.01
598.834	-0
599.024	-0.03
599.214	0
599.404	0.04
599.594	-0.01
599.784	-0.02
599.974	0.05
600.164	0.05
600.354	-0.02
600.544	-0.01
600.734	0.03
600.924	0.05
601.114	-0.01
601.303	0.02
601.493	0.02
601.683	0
601.873	0.01
602.063	-0.04
602.252	0.05
602.442	-0.06
602.632	-0.03
602.821	-0.05
603.011	0.04
603.201	0.02
603.39	-0.02
603.58	-0.04
603.77	0.02
603.959	0.04
604.149	0
604.339	-0.03
604.528	0.02
604.718	0.03
604.907	-0.01
605.097	-0.03
605.286	-0.04
605.476	0.03
605.665	0.02
605.855	0.02
606.044	0.04
606.234	0.02
606.423	-0.02
606.612	-0.02
606.802	-0.02
606.991	0.04
607.181	0
607.37	-0.02
607.559	0
607.749	-0.01
607.938	0.01
608.127	0
608.316	-0.03
608.506	0.05
608.695	0.02
608.884	-0
609.073	-0.01
609.263	0.03
609.452	0.02
609.641	0
609.83	0
610.019	-0.02
610.208	-0.04
610.397	0.02
610.586	0
610.775	-0.02
610.965	-0.01
611.154	-0
611.343	0.01
611.532	-0.03
611.721	-0.05
611.91	-0.02
612.099	0.03
612.287	-0.01
612.476	-0.02
612.665	0.01
612.854	0
613.043	0.02
613.232	-0.01
613.421	-0.04
613.61	0.04
613.798	0
613.987	0.04
614.176	-0.01
614.365	0.01
614.554	0.01
614.742	0
614.931	-0.03
615.12	0.06
615.309	0
615.497	0
615.686	-0.03
615.875	-0.03
616.063	0.01
616.252	-0.03
616.44	-0.03
616.629	0.02
616.818	0.06
617.006	-0.01
617.195	-0.01
617.383	0.04
617.572	-0.01
617.76	-0.04
617.949	0.01
618.137	0.04
618.326	0.02
618.514	-0.01
618.703	-0.04
618.891	0.06
619.079	-0.04
619.268	0.04
619.456	-0.03
619.644	0.04
619.833	0.01
620.021	-0.02
620.209	-0.04
620.398	0.02
620.586	0.02
620.774	0.03
620.962	-0.01
621.151	0.06
621.339	0.05
621.527	-0.04
621.715	-0.03
621.903	-0.01
622.092	-0.01
622.28	0.03
622.468	0.02
622.656	-0.02
622.844	0.05
623.032	0.02
623.22	-0.06
623.408	0.05
623.596	0.01
623.784	0.02
623.972	-0.04
624.16	-0.01
624.348	0.06
624.536	-0.02
624.724	-0.01
624.912	0.04
625.1	0.04
625.288	-0.04
625.476	-0.04
625.664	0.04
625.851	-0.04
626.039	-0
626.227	-0
626.415	-0.02
626.603	-0.07
626.79	-0
626.978	-0.04
627.166	0.02
627.354	0.01
627.541	-0.05
627.729	-0.07
627.917	0.04
628.104	0.04
628.292	0.01
628.48	0.02
628.667	0.02
628.855	0.04
629.042	0.02
629.23	-0.01
629.418	0.03
629.605	-0
629.793	-0.01
629.98	-0.04
630.168	-0.01
630.355	0
630.543	0.03
630.73	-0.02
630.917	0.01
631.105	0.06
631.292	-0.02
631.48	-0.01
631.667	0.09
631.854	-0
632.042	-0.03
632.229	-0.03
632.416	-0.01
632.604	-0.02
632.791	-0.06
632.978	-0.01
633.165	0.03
633.353	0.09
633.54	0.04
633.727	-0.08
633.914	-0.01
634.101	-0.06
634.289	0.03
634.476	-0.03
634.663	-0.02
634.85	0.02
635.037	-0.07
635.224	-0.04
635.411	0.04
635.598	0.08
635.785	-0
635.972	-0.03
636.159	0.03
636.346	-0.03
636.533	0.02
636.72	0
636.907	-0.01
637.094	0.07
637.281	-0.03
637.468	0.01
637.655	0.02
637.842	0.03
638.029	-0.04
638.215	0.03
638.402	0
638.589	-0.02
638.776	-0.02
638.963	-0.02
639.149	0.03
639.336	0.06
639.523	-0.02
639.709	-0
639.896	-0.02
640.083	0.04
640.27	0.02
640.456	-0.02
640.643	-0
640.829	-0.03
641.016	-0.01
641.203	-0.09
641.389	0.05
641.576	0.04
641.762	-0.01
641.949	-0.03
642.135	0.04
642.322	0.04
642.508	-0.03
642.695	-0.04
642.881	-0.01
643.068	-0.01
643.254	-0.02
643.441	0.05
643.627	-0.01
643.813	-0.02
644	0.06
644.186	-0.03
644.372	0.04
644.559	0.04
644.745	-0.01
644.931	-0.02
645.118	0.01
645.304	-0.01
645.49	-0.01
645.676	-0.02
645.862	0.02
646.049	0.04
646.235	-0.01
646.421	0.08
646.607	0.07
646.793	-0.01
646.979	-0.02
647.165	0.01
647.352	-0
647.538	0.06
647.724	0.01
647.91	0.02
648.096	0.05
648.282	0.07
648.468	-0.02
648.654	0.01
648.84	-0.02
649.026	-0.01
649.212	0.01
649.397	-0.03
649.583	-0.04
649.769	0.01
649.955	-0.01
650.141	0.03
650.327	0.05
650.513	-0.03
650.698	0.01
650.884	-0.07
651.07	0.01
651.256	0.03
651.442	-0
651.627	-0.04
651.813	-0
651.999	0.01
652.184	0.02
652.37	0
652.556	0
652.741	0.05
652.927	-0.06
653.113	-0.02
653.298	-0.02
653.484	-0.01
653.669	-0.06
653.855	-0
654.04	0.02
654.226	0.04
654.412	-0.04
654.597	-0.03
654.782	0.01
654.968	0.03
655.153	0
655.339	0.01
655.524	-0.06
655.71	0
655.895	-0.01
656.08	0.01
656.266	0.02
656.451	0.03
656.636	-0.06
656.822	-0
657.007	-0.02
657.192	0.01
657.378	-0.03
657.563	0.01
657.748	0.02
657.933	0.01
658.118	-0.03
658.304	-0.03
658.489	0.03
658.674	0.01
658.859	-0.04
659.044	0.02
659.229	0.02
659.414	-0.02
659.599	0.01
659.785	-0.06
659.97	-0
660.155	0.04
660.34	0.01
660.525	-0.02
660.71	-0.01
660.895	0.04
661.08	0.02
661.264	-0.04
661.449	0.05
661.634	0.06
661.819	0.03
662.004	0.01
662.189	-0.05
662.374	-0.01
662.559	-0.06
662.743	-0.07
662.928	0.02
663.113	-0.03
663.298	-0.09
663.483	-0.03
663.667	0.03
663.852	-0.03
664.037	0.01
664.221	-0.04
664.406	0.03
664.591	0.02
664.775	0.02
664.96	-0.08
665.145	0
665.329	0.05
665.514	-0.03
665.698	0.01
665.883	-0.1
666.068	0.03
666.252	0.01
666.437	-0.04
666.621	0.06
666.806	0.05
666.99	-0.02
667.174	-0.06
667.359	0.03
667.543	-0.03
667.728	-0.02
667.912	-0.07
668.096	0.05
668.281	-0
668.465	0.03
668.649	-0.01
668.834	-0.02
669.018	-0.01
669.202	-0.01
669.387	-0.07
669.571	0.06
669.755	-0.06
669.939	0.02
670.124	-0
670.308	0.08
670.492	0.06
670.676	-0.01
670.86	-0
671.044	-0.03
671.228	0.03
671.413	-0
671.597	-0.02
671.781	0
671.965	0.06
672.149	0.02
672.333	-0.02
672.517	-0.03
672.701	0.05
672.885	-0
673.069	-0.04
673.253	0.05
673.437	0.01
673.621	-0.05
673.804	-0
673.988	0.01
674.172	-0.04
674.356	-0.05
674.54	-0
674.724	0.12
674.908	-0.03
675.091	0.04
675.275	-0.01
675.459	0.05
675.643	-0.04
675.826	0.01
676.01	-0.01
676.194	0.02
676.377	0.05
676.561	0.01
676.745	0
676.928	0.03
677.112	0.05
677.296	-0.02
677.479	-0.03
677.663	-0.02
677.846	0.01
678.03	-0.02
678.213	-0.04
678.397	0.03
678.58	-0.01
678.764	-0.01
678.947	-0.06
679.131	0.01
679.314	0.03
679.498	-0.03
679.681	0.04
679.865	0.06
680.048	-0.03
680.231	-0.02
680.415	0.01
680.598	-0.03
680.781	-0.01
680.965	-0.05
681.148	0.01
681.331	-0
681.514	-0.02
681.698	0
681.881	-0.02
682.064	0.02
682.247	-0.01
682.43	-0.09
682.614	0.01
682.797	0.06
682.98	0.03
683.163	-0.05
683.346	0.02
683.529	-0.02
683.712	-0.02
683.895	0.03
684.078	-0.08
684.261	-0.04
684.444	-0
684.627	-0.01
684.81	-0.05
684.993	-0.04
685.176	0.08
685.359	-0.07
685.542	-0
685.725	0.04
685.908	0.02
686.091	0.01
686.274	0.08
686.457	0.04
686.639	0.02
686.822	0.03
687.005	0.04
687.188	0.02
687.371	0.11
687.553	0.03
687.736	0.03
687.919	0.07
688.102	0.07
688.284	0.03
688.467	-0.01
688.65	-0.02
688.832	-0.07
689.015	0.01
689.197	-0.04
689.38	0.09
689.563	0.08
689.745	-0.01
689.928	-0.03
690.11	0.03
690.293	0.04
690.475	-0.02
690.658	-0.01
690.84	-0.01
691.023	-0.01
691.205	0.04
691.388	0.01
691.57	0.06
691.752	0.05
691.935	-0.09
692.117	-0.06
692.3	0.03
692.482	-0
692.664	-0.04
692.847	0.02
693.029	0.12
693.211	0.05
693.393	-0.03
693.576	-0.01
693.758	0.02
693.94	0.01
694.122	0.01
694.304	-0.01
694.487	-0.03
694.669	0.08
694.851	-0.07
695.033	0.01
695.215	-0.04
695.397	-0
695.579	0.03
695.761	-0
695.943	-0.06
696.125	0.06
696.308	-0
696.49	-0.12
696.671	0.15
696.853	-0.02
697.035	0.13
697.217	-0
697.399	0.05
697.581	-0.06
697.763	0.02
697.945	-0.03
698.127	0.01
698.309	0.11
698.491	0.03
698.672	0.01
698.854	0.03
699.036	0.05
699.218	-0.02
699.399	0.11
699.581	0.03
699.763	0.08
699.945	-0.1
700.126	-0.06
700.308	0.04
700.49	-0.02
700.671	-0.02
700.853	0.02
701.035	-0.03
701.216	0.04
701.398	-0.04
701.579	-0.04
701.761	0.05
701.943	-0.05
702.124	-0.04
702.306	0
702.487	0.14
702.669	0.02
702.85	-0.05
703.031	-0.09
703.213	0.12
703.394	0.01
703.576	-0.02
703.757	0.02
703.938	0.02
704.12	0.18
704.301	-0.02
704.483	-0.04
704.664	0.03
704.845	0.13
705.026	0.01
705.208	-0.03
705.389	-0.01
705.57	0
705.751	-0.02
705.933	0.03
706.114	0.17
706.295	-0.03
706.476	-0.03
706.657	0.06
706.838	-0.01
707.02	0.03
707.201	0.01
707.382	-0.02
707.563	-0
707.744	-0
707.925	-0.07
708.106	-0.07
708.287	0.08
708.468	0.07
708.649	-0.04
708.83	0.1
709.011	-0
709.192	0.03
709.373	-0.05
709.554	0.03
709.734	0.08
709.915	0.09
710.096	-0.02
710.277	-0.12
710.458	0.03
710.639	0.08
710.819	-0.08
711	-0.02
711.181	0.03
711.362	0.07
711.542	0.03
711.723	0.02
711.904	0.05
712.085	-0
712.265	0.08
712.446	-0.1
712.627	0
712.807	-0.02
712.988	0.03
713.168	-0.09
713.349	0.03
713.53	-0.13
713.71	-0.09
713.891	-0.03
714.071	0.05
714.252	-0.06
714.432	-0.07
714.613	-0.11
714.793	-0.07
714.974	0.08
715.154	0.08
715.334	-0
715.515	0.11
715.695	-0.09
715.876	0.06
716.056	-0
716.236	-0.01
716.417	-0.02
716.597	-0.07
716.777	0.11
716.957	-0.03
717.138	-0.06
717.318	0
717.498	-0.13
717.678	0.01
717.859	0.08
718.039	-0.08
718.219	0.02
718.399	0.03
718.579	-0.04
718.759	-0.04
718.939	0.05
719.12	0.04
719.3	0.02
719.48	-0.13
719.66	-0.05
719.84	0.09
720.02	0.06
720.2	-0.1
720.38	0.01
720.56	0.13
720.74	-0.01
720.92	0.09
721.1	0.15
721.279	0.09
721.459	0.1
721.639	-0.03
721.819	0
721.999	-0.12
722.179	0
722.359	-0.06
722.538	0.05
722.718	0.04
722.898	0.03
723.078	-0.01
723.257	-0.03
723.437	0.02
723.617	-0.05
723.797	-0.03
723.976	0.03
724.156	0
724.336	0.1
724.515	0.17
724.695	-0.11
724.874	0.03
725.054	0.05
725.234	-0.08
725.413	-0.01
725.593	0.09
725.772	-0.02
725.952	0
726.131	0
726.311	-0
726.49	-0.01
726.67	-0.11
726.849	-0.07
727.028	-0.04
727.208	0.02
727.387	0.09
727.567	-0.11
727.746	-0.02
727.925	-0.05
728.105	-0.07
728.284	-0.04
728.463	-0.03
728.643	0.1
728.822	-0.16
729.001	-0.08
729.18	-0.01
729.359	0.07
729.539	0.04
729.718	0.03
729.897	0.01
730.076	-0.08
730.255	-0.13
730.434	-0.02
730.614	0.04
730.793	0.1
730.972	-0.08
731.151	0
731.33	0.1
731.509	0.05
731.688	0.02
731.867	-0.06
732.046	-0.17
732.225	0.23
732.404	-0.04
732.583	-0.14
732.762	0.1
732.941	0.01
733.12	0.01
733.298	-0.03
733.477	0.16
733.656	0.02
733.835	-0.07
734.014	0.12
734.193	-0
734.371	0.09
734.55	0.04
734.729	-0.16
734.908	-0
735.086	-0.01
735.265	-0.01
735.444	-0.14
735.623	0.01
735.801	-0.07
735.98	-0.05
736.159	0.01
736.337	0.01
736.516	-0
736.694	-0.01
736.873	-0.01
737.052	0.19
737.23	0.14
737.409	0
737.587	0.2
737.766	-0.17
737.944	-0.1
738.123	0.06
738.301	0.06
738.479	-0.01
738.658	0.04
738.836	-0.17
739.015	0.02
739.193	0.08
739.371	-0.23
739.55	-0.03
739.728	-0.18
739.906	0.12
740.085	0.13
740.263	0.03
740.441	-0.13
740.62	0.22
740.798	0.08
740.976	-0.15
741.154	-0.04
741.332	0.18
741.511	-0.07
741.689	0.05
741.867	0.09
742.045	-0.01
742.223	-0.02
742.401	-0
742.579	-0.08
742.757	0.1
742.935	-0.09
743.114	-0.02
743.292	-0.01
743.47	-0.06
743.648	0.01
743.826	-0.01
744.004	0.03
744.181	0.13
744.359	0
744.537	0.03
744.715	-0.06
744.893	-0.06
745.071	0.07
745.249	-0.04
745.427	-0.06
745.605	0.1
745.782	0.05
745.96	0.05
746.138	0.02
746.316	0.06
746.493	-0.01
746.671	-0
746.849	-0.08
747.027	0.19
747.204	-0.04
747.382	0.03
747.56	-0.04
747.737	0.01
747.915	-0.11
748.093	0.09
748.27	0.01
748.448	-0
748.625	-0.13
748.803	0.01
748.98	-0.04
749.158	0.01
749.335	0.13
749.513	0.03
749.69	-0.06
749.868	0.04
750.045	-0.09
750.223	-0.04
750.4	-0.18
750.578	0.11
750.755	-0.01
750.932	-0.2
751.11	0.1
751.287	-0.05
751.464	0.17
751.642	-0.02
751.819	0.02
751.996	0.03
752.173	-0.09
752.351	-0.05
752.528	0.07
752.705	0
752.882	-0.05
753.06	0.04
753.237	0.02
753.414	0.13
753.591	0.19
753.768	-0
753.945	0.03
754.122	0
754.299	0.1
754.476	-0.1
754.654	0.06
754.831	0.02
755.008	0.07
755.185	-0.11
755.362	-0.13
755.539	0.03
755.716	-0.08
755.892	-0.13
756.069	-0.04
756.246	0.04
756.423	-0.05
756.6	0.07
756.777	-0.08
756.954	0.1
757.131	-0.07
757.307	-0.2
757.484	-0.16
757.661	-0.12
757.838	0.08
758.015	-0.19
758.191	0.05
758.368	-0.06
758.545	0.34
758.721	0.01
758.898	-0.18
759.075	0.06
759.251	0.07
759.428	0.04
759.605	-0.17
759.781	-0.01
759.958	0.07
760.134	0.05
760.311	-0.15
760.488	0.09
760.664	0.16
760.841	-0.08
761.017	0
761.194	0.03
761.37	0.11
761.547	0.06
761.723	-0.03
761.899	0.14
762.076	-0.19
762.252	-0.16
762.429	-0.11
762.605	0.12
762.781	0.06
762.958	0.12
763.134	-0.08
763.31	-0.09
763.486	0.18
763.663	-0.2
763.839	0.09
764.015	-0.09
764.191	-0.14
764.368	-0.08
764.544	-0.12
764.72	-0.02
764.896	0.02
765.072	0.1
765.248	-0.12
765.425	-0.11
765.601	0.11
765.777	0.04
765.953	-0.14
766.129	-0
766.305	-0.06
766.481	0.14
766.657	0.02
766.833	0.19
767.009	-0.17
767.185	-0.09
767.361	0.02
767.537	-0.08
767.713	0.21
767.889	-0.13
768.065	0.09
768.24	0.05
768.416	0.16
768.592	-0.02
768.768	-0.04
768.944	0.05
769.12	-0.22
769.295	-0.13
769.471	0.03
769.647	0.02
769.823	0.13
769.998	-0.16
770.174	-0.03
770.35	0.2
770.525	0.3
770.701	0.02
770.877	0.01
771.052	-0.23
771.228	0.02
771.403	-0.08
771.579	0.1
771.755	0.3
771.93	0.1
772.106	-0.25
772.281	-0.15
772.457	0
772.632	0.01
772.808	-0.17
772.983	0.05
773.159	-0.16
773.334	0.15
773.509	-0.02
773.685	-0.06
773.86	0.3
774.036	0.31
774.211	-0
774.386	-0.05
774.562	0.04
774.737	0.07
774.912	-0
775.087	0.04
775.263	-0.05
775.438	-0
775.613	-0.07
775.788	0.01
775.964	0.24
776.139	0.31
776.314	-0.2
776.489	0.13
776.664	0.1
776.839	-0.08
777.014	0.15
777.19	0.05
777.365	0.31
777.54	0.2
777.715	-0.12
777.89	-0.02
778.065	-0.2
778.24	0.1
778.415	0.09
778.59	-0.16
778.765	0.02
778.94	-0.05
779.115	-0.16
779.289	0.01
779.464	0.03
779.639	0.01
779.814	-0.19
779.989	-0.25
780.164	0.15
780.339	0.03
780.513	-0.17
780.688	-0.24
780.863	0.01
781.038	0.16
781.212	-0.09
781.387	0.09
781.562	0.31
781.737	0.02
781.911	0.03
782.086	-0.15
782.261	-0.22
782.435	0.28
782.61	-0.14
782.784	-0.07
782.959	0.37
783.134	-0.17
783.308	-0.24
783.483	-0.03
783.657	0.41
783.832	-0
784.006	-0.46
784.181	0.08
784.355	0.01
784.53	-0.13
784.704	-0.29
784.878	0.13
785.053	0.11
785.227	0.38
785.402	0.32
785.576	-0.07
785.75	0.01
785.925	-0.03
786.099	0.1
786.273	0.09
786.448	0.26
786.622	0.09
786.796	-0.1
786.97	0.09
787.145	0.33
787.319	-0.01
787.493	-0.06
787.667	-0.46
787.841	-0.09
788.015	0.12
788.19	-0.19
788.364	0.06
788.538	0.22
788.712	0.22
788.886	0.08
789.06	0.3
789.234	0.01
789.408	-0.01
789.582	-0.01
789.756	-0.2
789.93	-0.1
790.104	-0.07
790.278	-0.11
790.452	-0.26
790.626	0.03
790.8	-0.12
790.973	0.11
791.147	0.05
791.321	0.22
791.495	0.33
791.669	-0.06
791.843	0.16
792.016	0.28
792.19	0.21
792.364	-0.17
792.538	0.32
792.711	0.49
792.885	-0.12
793.059	-0.17
793.233	-0.66
793.406	0.28
793.58	0.11
793.754	-0
793.927	-0.07
794.101	0.23
794.274	-0.03
794.448	0.06
794.622	-0.24
794.795	0.38
794.969	-0.12
795.142	0.31
795.316	-0.15
795.489	-0.14
795.663	0.42
795.836	0.19
796.009	-0.39
796.183	0.32
796.356	0.1
796.53	0.05
796.703	-0.18
796.876	0.6
797.05	-0.16
797.223	-0.02
797.396	-0.06
797.57	-0.08
797.743	0.36
797.916	-0.02
798.09	-0.03
798.263	0.23
798.436	0.08
798.609	-0.33
798.782	-0.02
798.956	0.17
799.129	-0.03
799.302	-0.2
799.475	-0.3
799.648	-0.17
799.821	-0.28
799.994	0.06
800.167	-0.38
800.34	-0.05
800.514	0.05
800.687	-0.21
800.86	-0.1
801.033	-0.27
801.206	0.31
801.379	-0.41
801.551	0.21
801.724	0.5
801.897	0.44
802.07	0.01
802.243	-0.57
802.416	-0.23
802.589	-0.16
802.762	-0.22
802.935	0.07
803.107	0.18
803.28	0.37
803.453	0.26
803.626	-0.18
803.798	0.18
803.971	-0.12
804.144	-0.23
804.317	-0.01
804.489	0.28
804.662	0.19
804.835	0.04
805.007	-0.55
805.18	0.21
805.353	0.05
805.525	-0.32
805.698	-0.32
805.87	0.06
806.043	0.16
806.215	-0.39
806.388	-0.36
806.56	0.19
806.733	0.46
806.905	-0.02
807.078	-0.3
807.25	-0.02
807.423	0.26
807.595	-0.1
807.768	-0.04
807.94	0.06
808.112	0.27
808.285	0.1
808.457	-0.02
808.629	0.02
808.802	-0.13
808.974	-0.24
809.146	0.07
809.318	-0.2
809.491	0.05
809.663	0.31
809.835	-0.11
810.007	0.11
810.18	0.15
810.352	-0.4
810.524	-0.42
810.696	0.33
810.868	0.56
811.04	-0.12
811.212	-0.1
811.384	0.21
811.556	0.42
811.728	-0.2
811.901	0.52
812.073	-0.24
812.245	-0.35
812.417	-0.03
812.589	-0.56
812.76	0.02
812.932	0.18
813.104	0.37
813.276	-0.31
813.448	0.63
813.62	0.27
813.792	0.05
813.964	0.04
814.136	0.26
814.307	-0.26
814.479	-0.44
814.651	-0.32
814.823	0.61
814.995	-0.59
815.166	0.13
815.338	0.07
815.51	-1.03
815.681	0.89
815.853	0.25
816.025	-0.09
816.196	0.51
816.368	0.3
816.54	-0.36
816.711	-0.23
816.883	-0.3
817.054	1.06
817.226	-0.57
817.398	-0.07
817.569	-0.48
817.741	0.03
817.912	-0.07
818.084	-0.3
818.255	0.69
818.426	-0.3
818.598	0.07
818.769	-0.4
818.941	0.17
819.112	0.58
819.283	0.28
819.455	-0.2
819.626	0.18
819.798	0.26
819.969	0.06
820.14	0.24
820.311	-0.2
820.483	0.34
820.654	0.3
820.825	-0.03
820.996	0.05
821.168	-0.4
821.339	-0.17
821.51	-0.74
821.681	-0.33
821.852	-0.04
822.023	-0.58
822.195	-1.04
822.366	0.18
822.537	0.12
822.708	0.13
822.879	-0.81
823.05	0.67
823.221	0.15
823.392	0.48
823.563	0.03
823.734	0.05
823.905	0.09
824.076	0.14
824.247	-0.08
824.418	-0.9
824.589	0.58
824.759	-0.22
824.93	-0.22
825.101	-0.3
825.272	0.98
825.443	0.55
825.614	0.8
825.784	-0.79
825.955	0.55
826.126	0.76
826.297	-0.27
826.467	0.63
826.638	0.61
826.809	-0.96
826.98	-0.13
827.15	0.33
827.321	-0.28
827.492	0.56
827.662	0.04
827.833	0.61
828.003	0.75
828.174	-0.41
828.345	-0.63
828.515	1.2
828.686	0.49
828.856	-0.11
829.027	0.43
829.197	0.05
829.368	0.25
829.538	-0.44
829.709	-1.04
829.879	-0.07
830.049	-0.08
830.22	-0.5
830.39	-0.08
830.56	1.3
830.731	-0.77
830.901	-0.16
831.072	-0.46
831.242	-0.08
831.412	-0.36
831.582	-0.13
831.753	-0.76
831.923	0.4
832.093	0.48
832.263	-0.02
832.434	-0.85
832.604	0.36
832.774	0.25
832.944	-0.27
833.114	-0.68
833.284	0.13
833.454	-1.09
833.624	-0.39
833.795	-0.36
833.965	0.55
834.135	0.73
834.305	-0.82
834.475	-0.68
834.645	0.24
834.815	0.3
834.985	-0.2
835.155	-0.17
835.325	0.65
835.494	0.38
835.664	-0.21
835.834	-0.52
836.004	0.18
836.174	0.14
836.344	-0.33
836.514	-0.98
836.684	-0.39
836.853	0.04
837.023	-0.07
837.193	-0.61
837.363	0.42
837.532	0.59
837.702	-0.25
837.872	-1.17
838.041	0.71
838.211	1.39
838.381	-1.03
838.55	0.23
838.72	2.28
838.89	1.59
839.059	-0.29
839.229	-0.5
839.398	0.97
839.568	-0.09
839.738	-0.17
839.907	0.89
840.077	0.06
840.246	-0.58
840.416	-0.39
840.585	-0.93
840.755	1.42
840.924	0.79
841.093	-0.32
841.263	-0.33
841.432	-0.06
841.602	-0.4
841.771	-0.76
841.94	-0.07
842.11	1.49
842.279	1.2
842.448	-1.12
842.617	-0.44
842.787	0.77
842.956	-0.77
843.125	-0.2
843.294	-0.48
843.464	1.08
843.633	0.19
843.802	-0.75
843.971	-0.34
844.14	0.64
844.309	0.66
844.479	-1.08
844.648	-0.68
844.817	-0.64
844.986	0.26
845.155	-0.24
845.324	0.18
845.493	-0.43
845.662	-0.24
845.831	0.49
846	0.57
846.169	-0.2
846.338	1.2
846.507	0.84
846.676	0.69
846.844	-0.26
847.013	1.16
847.182	0.47
847.351	-1.36
847.52	0.73
847.689	0.29
847.858	0.5
848.026	-0.52
848.195	-0.07
848.364	-0.78
848.533	-1.38
848.701	-0.62
848.87	-0.25
849.039	0.5
849.207	0.76
849.376	0.42
849.545	1.39
849.713	-0.54
849.882	0.19
850.051	-0.68
850.219	-0.19
850.388	0.77
850.556	-0.57
850.725	-0.6
850.893	0.27
851.062	0.22
851.23	1.41
851.399	-1.17
851.567	-0.37
851.736	-0.44
851.904	-0.94
852.073	-0.65
852.241	0.56
852.41	-0.55
852.578	-0.92
852.746	-1.14
852.915	1.08
853.083	0.2
853.251	-1.8
853.42	0.13
853.588	-0.53
853.756	1.44
853.924	-1.3
854.093	0.25
854.261	0.49
854.429	-1.78
854.597	-0.41
854.765	-0.52
854.934	1.63
855.102	0.74
855.27	0.01
855.438	0.85
855.606	1.61
855.774	1.21
855.942	-2.05
856.11	-1.57
856.278	0.41
856.446	0.77
856.614	0.43
856.782	-0.28
856.95	0.16
857.118	1
857.286	1.04
857.454	-0.88
857.622	1.22
857.79	0.26
857.958	-0.9
858.126	-1.46
858.294	-2.4
858.462	0.1
858.629	-1.02
858.797	-0.48
858.965	0.64
859.133	0.2
859.301	0.53
859.468	-0.86
859.636	0.43
859.804	2.63
859.971	1.41
860.139	-0.49
860.307	1.46
860.474	0.01
860.642	-1.94
860.81	-1.54
860.977	-1.22
861.145	0.52
861.313	0.41
861.48	0.45
861.648	1.04
861.815	-0.51
861.983	-1.79
862.15	-0.33
862.318	1.05
862.485	0.69
862.653	-1.13
862.82	-1.76
862.988	1.54
863.155	0.81
863.322	0.01
863.49	-0.34
863.657	-0.59
863.824	1.43
863.992	1.63
864.159	-0.69
864.326	1.96
864.494	-1.81
864.661	1.89
864.828	-2.14
864.996	0.53
865.163	2.45
865.33	-0.9
865.497	-2.59
865.664	-1.88
865.832	-1.46
865.999	-0.56
866.166	-2.1
866.333	-0.15
866.5	-0.41
866.667	-0.02
866.834	0.01
867.001	1.31
867.168	-1.36
867.335	-1.28
867.502	-1.29
867.669	-0.31
867.836	1.23
868.003	-1.22
868.17	1.59
868.337	-0.5
868.504	2.46
868.671	-1.47
868.838	-2.49
869.005	0.17
869.172	-0.73
869.339	0.26
869.505	0.85
869.672	1.56
869.839	0.99
870.006	0.55
870.173	-2.38
870.339	1.68
870.506	2.92
870.673	-1.44
870.84	1.39
871.006	0.55
871.173	0.62
871.34	-1.44
871.506	-2.59
871.673	0.83
871.839	-2.62
872.006	0.42
872.173	0.16
872.339	0.72
872.506	0.66
872.672	-0.92
872.839	-3.07
873.005	3.23
873.172	3.95
873.338	1.9
873.505	-0.27
873.671	0.99
873.838	1.22
874.004	-1.57
874.171	-1.3
874.337	-0.59
874.503	0.25
874.67	-0.11
874.836	-0.83
875.002	1.9
875.169	1
875.335	-0.18
875.501	0.45
875.668	1.46
875.834	-0.73
876	-1.35
876.166	0.82
876.332	-0.49
876.499	4.87
876.665	-0.18
876.831	-0.04
876.997	3.07
877.163	0.69
877.329	0.73
877.495	0.36
877.662	1.83
877.828	0.75
877.994	0.37
878.16	-3.2
878.326	-1.26
878.492	0.85
878.658	-1.95
878.824	0.74
878.99	1.37
879.156	-0.15
879.322	1.1
879.487	-2.04
879.653	1.45
879.819	0.31
879.985	-1.71
880.151	0.74
880.317	1.19
880.483	0.8
880.648	0.48
880.814	-2.84
880.98	-0.42
881.146	-3.49
881.312	-1.13
881.477	-0.66
881.643	-0.27
881.809	1.94
881.974	1.71
882.14	-1.47
882.306	-0.61
882.471	2.14
882.637	-0.75
882.803	-0.55
882.968	3.91
883.134	4.2
883.299	0.18
883.465	0.48
883.63	1.69
883.796	1.04
883.961	0.81
884.127	0.8
884.292	-3.6
884.458	-2.44
884.623	-2.44
