Data from Apollo_Calib_20240827__AbsoluteIrradiance__597__09-06-00-200.txt Node

Date: Wed Aug 28 09:06:00 BST 2024
User: biology
Spectrometer: FLMT08252
Trigger mode: 0
Integration Time (sec): 5.000000E-1
Scans to average: 5
Electric dark correction enabled: true
Nonlinearity correction enabled: false
Boxcar width: 0
XAxis mode: Wavelengths
Number of Pixels in Spectrum: 3648
>>>>>Begin Spectral Data<<<<<
179.588	-0
179.809	-0
180.03	-0
180.251	-0
180.473	-0
180.694	0
180.915	0
181.136	-0
181.357	0
181.578	0
181.799	-0
182.02	-0
182.241	-0
182.462	0
182.683	0
182.904	-0
183.125	-0
183.346	0
183.567	0
183.788	0
184.009	-0
184.23	0
184.451	0
184.672	0
184.892	-0
185.113	0
185.334	0
185.555	-0
185.776	0
185.996	0
186.217	0
186.438	0
186.659	0
186.879	0
187.1	0
187.321	0
187.541	0
187.762	0
187.983	0
188.203	0
188.424	0
188.644	0
188.865	0
189.086	0
189.306	0
189.527	0
189.747	0
189.968	-0
190.188	0
190.409	0
190.629	0
190.849	0
191.07	0
191.29	0
191.511	0
191.731	0
191.951	0
192.172	0
192.392	0
192.612	-0
192.833	0
193.053	0
193.273	0
193.493	0
193.714	0
193.934	0
194.154	0
194.374	0
194.594	0
194.815	0
195.035	0
195.255	0
195.475	0
195.695	0
195.915	0
196.135	0
196.355	0
196.575	0
196.795	0
197.015	0
197.235	0
197.455	0
197.675	0
197.895	-0
198.115	0
198.335	0
198.555	0
198.775	0
198.995	0
199.214	0
199.434	0
199.654	0
199.874	0
200.094	1.67
200.313	0.55
200.533	0.5
200.753	0.06
200.973	1.36
201.192	0.95
201.412	-0.46
201.632	0.39
201.851	1.15
202.071	0.22
202.291	0.59
202.51	0.33
202.73	1.41
202.95	0.43
203.169	-0.06
203.389	0.61
203.608	0.83
203.828	0.3
204.047	0.26
204.267	0.98
204.486	0.93
204.706	0.56
204.925	0.25
205.145	-0.03
205.364	0.71
205.583	0.72
205.803	0.09
206.022	0.16
206.242	0.06
206.461	0.19
206.68	0.14
206.9	0.56
207.119	1.14
207.338	0.84
207.557	0.2
207.777	0.33
207.996	0.29
208.215	0.72
208.434	0.11
208.654	0.15
208.873	0.36
209.092	0.86
209.311	0.32
209.53	0.29
209.749	0.28
209.968	0.31
210.187	0.31
210.407	-0.12
210.626	0.09
210.845	0.37
211.064	0.56
211.283	0.17
211.502	0.55
211.721	0.26
211.94	0.4
212.159	0.54
212.377	0.52
212.596	0.55
212.815	0.54
213.034	0.35
213.253	0.31
213.472	0.47
213.691	0.1
213.91	0.13
214.128	0.09
214.347	0.47
214.566	-0.09
214.785	-0.13
215.003	0.63
215.222	0.41
215.441	0.27
215.66	-0.13
215.878	0.35
216.097	0.39
216.316	0.08
216.534	0.04
216.753	0.22
216.972	0.12
217.19	0.2
217.409	0.11
217.627	0.2
217.846	0.16
218.064	0.24
218.283	0.07
218.501	0.4
218.72	0.42
218.938	-0.01
219.157	0.23
219.375	0.33
219.594	0.31
219.812	-0.05
220.031	0.09
220.249	0.49
220.467	0.45
220.686	0.08
220.904	-0.11
221.122	0.06
221.341	0.63
221.559	0.26
221.777	-0.01
221.995	0.32
222.214	0.38
222.432	0.04
222.65	0.37
222.868	0.36
223.086	0.18
223.305	0.33
223.523	0.23
223.741	0.46
223.959	0.09
224.177	-0.07
224.395	0.12
224.613	0.2
224.831	0.25
225.049	0.01
225.267	0.3
225.485	0.17
225.703	0.25
225.921	0.22
226.139	0.07
226.357	0.45
226.575	0.18
226.793	0.09
227.011	0.58
227.229	0.22
227.447	0.31
227.665	0.15
227.883	-0.14
228.1	0.16
228.318	0.11
228.536	-0.1
228.754	0.07
228.972	0.22
229.189	0.33
229.407	0.15
229.625	0.18
229.843	0.44
230.06	0.23
230.278	-0
230.496	0.19
230.713	0.14
230.931	0.3
231.149	0.01
231.366	-0.03
231.584	0.06
231.801	0.45
232.019	0.04
232.236	-0.05
232.454	0.07
232.671	0.29
232.889	0.12
233.106	0.05
233.324	0.07
233.541	0.29
233.759	0.1
233.976	0.13
234.194	0.11
234.411	0.16
234.628	0.04
234.846	-0.01
235.063	0.11
235.28	0.05
235.498	0.13
235.715	0.07
235.932	0.16
236.149	0.11
236.367	-0.07
236.584	0.18
236.801	0.09
237.018	0.25
237.236	0.22
237.453	-0.09
237.67	0.36
237.887	0.08
238.104	0.14
238.321	0.07
238.538	0.08
238.755	0.34
238.973	-0.12
239.19	0.14
239.407	0.11
239.624	0.2
239.841	0.01
240.058	0.04
240.275	0.12
240.492	0.13
240.709	0.19
240.925	0.06
241.142	0.14
241.359	0.1
241.576	0.04
241.793	-0.03
242.01	0.1
242.227	0.27
242.444	0.19
242.66	0.15
242.877	0.17
243.094	0.06
243.311	0.09
243.527	0.14
243.744	0.11
243.961	0.21
244.178	0.01
244.394	0.09
244.611	0.3
244.828	0.25
245.044	-0.02
245.261	0.02
245.477	0.18
245.694	0.15
245.911	0.02
246.127	0.17
246.344	0.2
246.56	0.15
246.777	0.1
246.993	-0.01
247.21	0.21
247.426	0.15
247.643	-0.02
247.859	0.11
248.076	0.16
248.292	0.25
248.508	0.04
248.725	0.12
248.941	0.11
249.157	0.25
249.374	0.12
249.59	0.12
249.806	0.06
250.023	0.15
250.239	0.1
250.455	0.04
250.671	0.05
250.888	0.15
251.104	0.16
251.32	0.03
251.536	0.05
251.752	0.07
251.969	0.1
252.185	0.13
252.401	0.33
252.617	0.11
252.833	0.1
253.049	0.13
253.265	0.07
253.481	0.17
253.697	0.06
253.913	0.05
254.129	0.17
254.345	0.07
254.561	0.1
254.777	0.08
254.993	0.14
255.209	0.11
255.425	0.08
255.641	0.01
255.857	0.2
256.073	0.07
256.288	0.07
256.504	0.08
256.72	0.04
256.936	0.19
257.152	0.1
257.367	0.1
257.583	0.12
257.799	0.1
258.015	0.01
258.23	0.04
258.446	0.2
258.662	0.08
258.877	-0
259.093	0.09
259.309	0.07
259.524	0.11
259.74	0.11
259.955	-0.08
260.171	0.11
260.387	0.1
260.602	0.1
260.818	0.12
261.033	0.05
261.249	0.08
261.464	0.1
261.68	0.01
261.895	0.16
262.11	0.25
262.326	0.09
262.541	-0.03
262.757	0.16
262.972	0.08
263.187	0.15
263.403	0.13
263.618	0.1
263.833	0.09
264.049	0.1
264.264	0.1
264.479	0.11
264.694	0.19
264.91	-0.03
265.125	0.06
265.34	0.21
265.555	0.29
265.77	0.06
265.986	0.06
266.201	0.15
266.416	0.12
266.631	0.07
266.846	0.08
267.061	0.14
267.276	0.09
267.491	-0.02
267.706	0.07
267.921	0.14
268.136	0.06
268.351	0.07
268.566	-0.03
268.781	0.23
268.996	0.12
269.211	0.01
269.426	-0.01
269.641	0.08
269.856	0.06
270.071	0
270.285	-0.05
270.5	0.1
270.715	0.15
270.93	0.07
271.145	0.15
271.359	0.12
271.574	0.05
271.789	0.11
272.004	0.06
272.218	0.03
272.433	0.07
272.648	-0.02
272.862	0.12
273.077	0.07
273.292	0.08
273.506	0.02
273.721	0.07
273.936	0.12
274.15	0.13
274.365	0.04
274.579	0.12
274.794	0.13
275.008	0.13
275.223	-0
275.437	0.02
275.652	0.15
275.866	0.1
276.081	0.03
276.295	0.16
276.509	0.12
276.724	0.08
276.938	0.03
277.153	0.13
277.367	0.09
277.581	0.09
277.796	0.03
278.01	-0.02
278.224	0.11
278.438	0.21
278.653	-0
278.867	0.06
279.081	0.11
279.295	0.07
279.51	0.07
279.724	-0.04
279.938	0.09
280.152	0.13
280.366	0.05
280.58	0.09
280.794	0.16
281.008	0.13
281.222	0.1
281.437	0.16
281.651	0.11
281.865	0.09
282.079	0.05
282.293	-0.01
282.507	0.04
282.721	0.05
282.935	0.04
283.148	-0.04
283.362	-0.02
283.576	0.01
283.79	0.02
284.004	0.02
284.218	0.13
284.432	0.07
284.646	0.14
284.859	0.06
285.073	0.06
285.287	0.03
285.501	0.02
285.714	0.04
285.928	0.07
286.142	0.08
286.356	-0.02
286.569	0.02
286.783	0.12
286.997	0.09
287.21	0.09
287.424	0.02
287.637	0.03
287.851	0.02
288.065	0.1
288.278	0.08
288.492	0.08
288.705	0.1
288.919	0.07
289.132	-0.01
289.346	0.14
289.559	0.02
289.773	-0.06
289.986	0.04
290.2	0.08
290.413	0.13
290.626	0.01
290.84	0.07
291.053	0.09
291.267	0.15
291.48	0.03
291.693	0.07
291.906	0.01
292.12	0.05
292.333	0.03
292.546	0.06
292.76	0.07
292.973	0.03
293.186	0.06
293.399	0.04
293.612	0.16
293.826	0.1
294.039	0.07
294.252	0.03
294.465	0.1
294.678	0.09
294.891	0.07
295.104	0.01
295.317	0.02
295.53	0.05
295.743	0.07
295.956	0.05
296.169	0.12
296.382	0.1
296.595	0.06
296.808	-0.01
297.021	0.11
297.234	0.11
297.447	0.09
297.66	0.07
297.873	0.14
298.086	0.06
298.299	0.02
298.511	0.03
298.724	0.06
298.937	-0.01
299.15	-0
299.363	0.09
299.575	0.14
299.788	0.08
300.001	0
300.213	0.02
300.426	0.02
300.639	0.03
300.852	0.03
301.064	0.09
301.277	0.14
301.489	0.1
301.702	0.08
301.915	0.07
302.127	0.04
302.34	0.05
302.552	0.07
302.765	0.02
302.977	0.09
303.19	0.04
303.402	0.03
303.615	0.07
303.827	0.06
304.04	0.04
304.252	0.06
304.464	0.03
304.677	0.15
304.889	0.07
305.102	0.04
305.314	0.03
305.526	0.08
305.739	0.09
305.951	-0
306.163	0.02
306.375	0.12
306.588	0.02
306.8	0.05
307.012	0.01
307.224	0.07
307.436	0.11
307.649	-0.04
307.861	0.05
308.073	0.09
308.285	0.03
308.497	0
308.709	0.03
308.921	0.05
309.133	0.13
309.346	0.03
309.558	0.06
309.77	0.08
309.982	0.15
310.194	0.1
310.406	0.03
310.617	0.09
310.829	0.06
311.041	0.04
311.253	0.03
311.465	0.05
311.677	0.05
311.889	0.06
312.101	0.02
312.313	0.11
312.524	0.08
312.736	0.01
312.948	0.05
313.16	0.16
313.372	0.06
313.583	0.05
313.795	0.02
314.007	0.04
314.218	0.08
314.43	0.09
314.642	0.04
314.853	0.02
315.065	0.13
315.277	0.08
315.488	0.06
315.7	0.09
315.912	0.08
316.123	0.02
316.335	0.05
316.546	0.16
316.758	0.07
316.969	0.06
317.181	0.07
317.392	0.03
317.604	0.13
317.815	0.05
318.026	0.01
318.238	0.04
318.449	0.07
318.661	-0.01
318.872	0.02
319.083	-0
319.295	0.05
319.506	0.05
319.717	0.07
319.929	0.1
320.14	0.02
320.351	0.04
320.562	0.01
320.774	0.06
320.985	0.09
321.196	-0.02
321.407	0.02
321.618	0.04
321.829	0.05
322.041	0.06
322.252	0.08
322.463	0.05
322.674	0.08
322.885	0.03
323.096	0.01
323.307	0.07
323.518	0.07
323.729	0.02
323.94	0.04
324.151	0.09
324.362	0.08
324.573	0.05
324.784	0.04
324.995	0.12
325.206	0.11
325.417	0.05
325.628	0.05
325.838	0.03
326.049	0.06
326.26	0.11
326.471	0.04
326.682	0.06
326.892	0.06
327.103	-0.02
327.314	-0.01
327.525	0.12
327.735	0.05
327.946	0.1
328.157	0.04
328.368	0.08
328.578	0.06
328.789	0.08
328.999	0.04
329.21	0.05
329.421	0.05
329.631	0.03
329.842	-0.03
330.052	0.1
330.263	0.09
330.473	0.11
330.684	0.04
330.894	0.04
331.105	0.03
331.315	0.03
331.526	-0.01
331.736	0.14
331.947	0.06
332.157	0.06
332.367	0.02
332.578	0.04
332.788	0.1
332.999	0.08
333.209	0.06
333.419	0.02
333.629	0.09
333.84	0.08
334.05	0.01
334.26	0.11
334.47	0.05
334.681	0.12
334.891	0.02
335.101	0.07
335.311	0.18
335.521	0.07
335.732	0.02
335.942	0.14
336.152	0.07
336.362	0.08
336.572	0.08
336.782	0.09
336.992	0.01
337.202	0.03
337.412	0.01
337.622	0.05
337.832	0.05
338.042	0.09
338.252	0.04
338.462	0.04
338.672	0.03
338.882	0.09
339.092	0.07
339.302	0.1
339.511	0.04
339.721	0.05
339.931	0.02
340.141	0.07
340.351	0.12
340.561	0.08
340.77	0.09
340.98	0.03
341.19	0.07
341.4	0.01
341.609	-0
341.819	0.04
342.029	-0
342.238	0.09
342.448	0.04
342.658	0.08
342.867	0.06
343.077	0.03
343.286	0.07
343.496	0.06
343.706	0.06
343.915	0
344.125	0.07
344.334	0.09
344.544	0.01
344.753	0.03
344.963	0
345.172	0.05
345.381	0.03
345.591	-0.01
345.8	0.11
346.01	0.09
346.219	0.12
346.428	0.02
346.638	0.07
346.847	0.06
347.056	0.14
347.266	0.02
347.475	0.01
347.684	0.08
347.893	0.11
348.103	0.07
348.312	0.08
348.521	0.04
348.73	0.05
348.94	0.07
349.149	0.02
349.358	0.05
349.567	0.04
349.776	-0.01
349.985	0.04
350.194	0.09
350.403	0.09
350.612	-0.01
350.821	0.04
351.03	0.04
351.239	0.04
351.448	0.04
351.657	-0.03
351.866	0.1
352.075	0.03
352.284	0.14
352.493	0.01
352.702	0.1
352.911	0.06
353.12	0.09
353.329	0.02
353.538	0.08
353.746	0.06
353.955	-0
354.164	0.08
354.373	0.05
354.582	0.08
354.79	0.04
354.999	0.13
355.208	0.03
355.416	0.09
355.625	0.01
355.834	0.05
356.042	0.08
356.251	0.06
356.46	0.02
356.668	0.03
356.877	0.12
357.085	0.08
357.294	-0.02
357.503	0.06
357.711	0.04
357.92	0.15
358.128	0.07
358.337	0.02
358.545	0.08
358.754	0.02
358.962	0.07
359.17	0.03
359.379	0.04
359.587	0.05
359.796	0.04
360.004	0.08
360.212	0.06
360.421	0.12
360.629	0.01
360.837	0.04
361.046	0.08
361.254	0.09
361.462	0.05
361.67	0.02
361.879	0.07
362.087	0.13
362.295	0.08
362.503	0.06
362.711	-0.01
362.92	0.01
363.128	0.03
363.336	0.02
363.544	0.01
363.752	0.04
363.96	0.02
364.168	0.07
364.376	0.03
364.584	0.05
364.792	0.11
365	0.07
365.208	0.05
365.416	0.07
365.624	0.07
365.832	-0.01
366.04	0.09
366.248	0.06
366.456	0.06
366.664	0.09
366.872	0.05
367.079	0.06
367.287	0.06
367.495	0.06
367.703	0.04
367.911	0.03
368.118	0.04
368.326	0.01
368.534	0
368.742	0.09
368.949	0.02
369.157	0.04
369.365	0.07
369.572	-0.01
369.78	0.01
369.988	0.05
370.195	0.08
370.403	0.07
370.61	0.04
370.818	0.08
371.026	0.1
371.233	0.04
371.441	0.05
371.648	0.04
371.856	0.04
372.063	0.05
372.271	0.05
372.478	0.02
372.685	-0.01
372.893	0.11
373.1	0.01
373.308	0.06
373.515	0.06
373.722	0.06
373.93	0.03
374.137	0.07
374.344	0.11
374.552	0.05
374.759	0.05
374.966	0.06
375.173	0.03
375.381	0.13
375.588	0.01
375.795	-0.01
376.002	0.02
376.209	0.01
376.417	0.07
376.624	0.02
376.831	0.08
377.038	0.05
377.245	-0.03
377.452	0.07
377.659	0.07
377.866	0.02
378.073	0.03
378.28	0.06
378.487	0.08
378.694	0.02
378.901	0.01
379.108	0.03
379.315	0.09
379.522	0.15
379.729	0.02
379.936	0.03
380.143	0.03
380.35	0.06
380.557	0.05
380.763	0.05
380.97	0.06
381.177	0.06
381.384	0.05
381.591	0.03
381.797	0.03
382.004	0.07
382.211	0.08
382.418	-0.01
382.624	0.08
382.831	0.04
383.038	0.06
383.244	0.07
383.451	0.06
383.658	0.11
383.864	0.02
384.071	0.01
384.277	0.11
384.484	0.02
384.69	0.07
384.897	0.03
385.103	0.1
385.31	0.01
385.516	0.05
385.723	-0.01
385.929	0.03
386.136	0.07
386.342	0.07
386.549	0.02
386.755	0.1
386.961	0.1
387.168	0.08
387.374	0.04
387.58	0.03
387.787	0.05
387.993	0.1
388.199	0.03
388.406	0.02
388.612	0.02
388.818	0.04
389.024	0.03
389.231	0.06
389.437	0.08
389.643	0.12
389.849	0.05
390.055	0.05
390.261	0.06
390.467	0.07
390.674	-0
390.88	0.05
391.086	0.09
391.292	-0
391.498	0.07
391.704	0.04
391.91	0.05
392.116	0
392.322	-0
392.528	0.06
392.734	0.03
392.94	0.05
393.146	0.05
393.352	0.1
393.557	0.03
393.763	0.03
393.969	0.09
394.175	0.05
394.381	0.04
394.587	0
394.792	0.04
394.998	0.09
395.204	0.11
395.41	0.04
395.615	0.09
395.821	0.06
396.027	0.08
396.233	-0.01
396.438	0.14
396.644	0.13
396.85	0.07
397.055	0.04
397.261	0.05
397.466	0.02
397.672	0.03
397.878	0.07
398.083	0.11
398.289	0.07
398.494	0.07
398.7	0.08
398.905	-0.02
399.111	0.14
399.316	0.04
399.522	0.03
399.727	0.02
399.932	0.02
400.138	0.03
400.343	0.04
400.549	0.08
400.754	0.05
400.959	0.08
401.165	0.04
401.37	0.04
401.575	0.1
401.78	0.07
401.986	-0
402.191	0.01
402.396	0.02
402.601	0.06
402.807	0.07
403.012	0.03
403.217	0.13
403.422	0.04
403.627	0.02
403.832	0.01
404.037	0.07
404.243	0.08
404.448	0.01
404.653	0.01
404.858	0.05
405.063	0.1
405.268	-0.01
405.473	-0.01
405.678	0.02
405.883	0.14
406.088	0.04
406.293	0.03
406.498	0.05
406.703	0.09
406.907	0.01
407.112	-0.01
407.317	0.08
407.522	0.1
407.727	-0.04
407.932	0.04
408.136	0.11
408.341	0.03
408.546	0.07
408.751	0.06
408.956	0.02
409.16	0.11
409.365	0.07
409.57	0.03
409.774	0.04
409.979	0.08
410.184	0.07
410.388	0.01
410.593	0.12
410.798	0.05
411.002	0.01
411.207	0.06
411.411	0.09
411.616	0.01
411.82	0.03
412.025	0.04
412.229	0.02
412.434	0.08
412.638	0.08
412.843	0.04
413.047	0.07
413.252	0.01
413.456	0.02
413.66	0.08
413.865	-0.03
414.069	0.1
414.273	0.04
414.478	0.03
414.682	0.03
414.886	0.01
415.091	-0.02
415.295	-0.02
415.499	0.02
415.703	0.02
415.908	0.06
416.112	-0.03
416.316	0.07
416.52	-0.04
416.724	0.01
416.929	-0.02
417.133	0.14
417.337	0.07
417.541	0.01
417.745	0.07
417.949	0.05
418.153	0.07
418.357	0.01
418.561	0.15
418.765	0.03
418.969	0.16
419.173	0.07
419.377	0.03
419.581	0.09
419.785	0.02
419.989	-0.01
420.193	0.02
420.397	0.05
420.601	0.13
420.804	0.07
421.008	0.07
421.212	0.06
421.416	0.1
421.62	0.05
421.823	0.1
422.027	0.05
422.231	0.07
422.435	0.05
422.638	0.01
422.842	0.07
423.046	0.04
423.249	0.1
423.453	0.12
423.657	0.02
423.86	0.03
424.064	0.03
424.268	0.14
424.471	0.01
424.675	0.16
424.878	0.11
425.082	0.04
425.285	0.08
425.489	0.08
425.692	0.05
425.896	0.02
426.099	0.09
426.303	-0.02
426.506	0.03
426.71	0.05
426.913	0.06
427.116	0.08
427.32	0.05
427.523	0.03
427.726	0.17
427.93	-0.01
428.133	0.04
428.336	0.02
428.54	0
428.743	0.07
428.946	0.08
429.149	0.04
429.353	0.07
429.556	0.02
429.759	0.07
429.962	-0.02
430.165	0.02
430.368	0.02
430.571	0.08
430.775	0.03
430.978	0.03
431.181	0.07
431.384	0.07
431.587	0
431.79	0.05
431.993	-0.02
432.196	0.05
432.399	-0
432.602	0.11
432.805	0.05
433.008	0.01
433.211	-0.02
433.414	0.08
433.616	0.06
433.819	0.03
434.022	-0.02
434.225	0.11
434.428	0.03
434.631	0.13
434.833	0.03
435.036	0.06
435.239	0.09
435.442	0.05
435.645	-0
435.847	0.07
436.05	0.03
436.253	0.07
436.455	-0.01
436.658	0.02
436.861	0.22
437.063	0.03
437.266	0.05
437.468	0.06
437.671	0.19
437.874	0.08
438.076	0.03
438.279	-0.01
438.481	0.03
438.684	-0.01
438.886	0.09
439.089	-0.02
439.291	0.06
439.494	0.1
439.696	0.02
439.899	0.03
440.101	0.05
440.303	-0.03
440.506	0.08
440.708	0
440.91	0.06
441.113	0
441.315	0.08
441.517	-0.06
441.72	0.11
441.922	0.01
442.124	-0.02
442.326	0.08
442.529	0.12
442.731	0.01
442.933	0.14
443.135	0.01
443.337	0.05
443.539	0.02
443.742	-0
443.944	0.11
444.146	0.04
444.348	0.01
444.55	-0.02
444.752	0.03
444.954	-0.01
445.156	0.07
445.358	0.01
445.56	0.12
445.762	0.06
445.964	0.06
446.166	0.01
446.368	0.01
446.57	0.06
446.772	0.07
446.974	0.01
447.175	0.04
447.377	0.01
447.579	-0.02
447.781	0.03
447.983	0.1
448.184	0.03
448.386	0.06
448.588	-0.04
448.79	0.04
448.991	-0.01
449.193	0.01
449.395	0.03
449.597	0.07
449.798	0.08
450	0.07
450.202	0.03
450.403	0.08
450.605	0.12
450.806	0.06
451.008	-0.06
451.21	0.08
451.411	0.02
451.613	0.03
451.814	0.03
452.016	0.11
452.217	0.06
452.419	0.11
452.62	0.07
452.821	0.06
453.023	0.11
453.224	0.12
453.426	0.09
453.627	0.06
453.828	0.13
454.03	0.05
454.231	0.07
454.432	0.03
454.634	0.14
454.835	0.01
455.036	-0.01
455.238	0.11
455.439	0.09
455.64	-0.02
455.841	0.04
456.042	0.15
456.244	0.08
456.445	0.02
456.646	-0.01
456.847	-0
457.048	0.09
457.249	0.06
457.45	0.29
457.651	0.03
457.852	0.1
458.054	0.11
458.255	0.02
458.456	0.13
458.657	0.06
458.858	0.01
459.058	0.07
459.259	0.08
459.46	0.04
459.661	0.04
459.862	0.12
460.063	0.04
460.264	0.12
460.465	-0
460.666	0.16
460.866	0
461.067	0.07
461.268	0.03
461.469	0.05
461.67	0.06
461.87	0.02
462.071	-0.02
462.272	0.02
462.473	0.07
462.673	0.07
462.874	-0.02
463.075	0.1
463.275	0.02
463.476	0.04
463.676	0.04
463.877	0.05
464.078	0.06
464.278	0.08
464.479	0.02
464.679	0.01
464.88	0.06
465.08	0.11
465.281	0.05
465.481	-0.03
465.682	0.04
465.882	0.05
466.083	0.05
466.283	0.06
466.483	0.05
466.684	0.04
466.884	0.01
467.085	0.03
467.285	0.11
467.485	0.01
467.686	0.04
467.886	-0.02
468.086	0.02
468.286	0.02
468.487	0.02
468.687	-0.01
468.887	0.01
469.087	0.11
469.287	0.07
469.488	-0.02
469.688	0.08
469.888	0.09
470.088	0.07
470.288	0.1
470.488	0.09
470.688	-0
470.888	0.04
471.088	0.05
471.288	0.09
471.488	0.1
471.688	0.05
471.888	0.03
472.088	0.11
472.288	0.07
472.488	0.01
472.688	0.02
472.888	0.04
473.088	0.04
473.288	0.07
473.488	0.03
473.688	0.09
473.887	0.07
474.087	0.03
474.287	0.05
474.487	0.05
474.687	0.12
474.886	0.02
475.086	0.05
475.286	0.07
475.486	0.04
475.685	0.04
475.885	0.02
476.085	0.03
476.284	0.05
476.484	0
476.684	0.04
476.883	0.1
477.083	0.07
477.282	0.03
477.482	0.09
477.681	0.09
477.881	0.04
478.08	-0.01
478.28	0.03
478.479	0.08
478.679	0.12
478.878	0
479.078	0.01
479.277	0.02
479.477	0.01
479.676	0.08
479.875	0.03
480.075	-0.02
480.274	0.05
480.473	0.07
480.673	0.03
480.872	0.1
481.071	0.06
481.271	0.07
481.47	0
481.669	0.03
481.868	0
482.067	-0.01
482.267	0.01
482.466	0
482.665	0.02
482.864	-0.03
483.063	-0.01
483.262	0.06
483.461	0.07
483.661	0.02
483.86	0.02
484.059	0.04
484.258	0
484.457	0.03
484.656	0.02
484.855	0.06
485.054	-0.04
485.253	-0.02
485.452	0
485.651	0.06
485.849	0.01
486.048	0
486.247	0.02
486.446	0.02
486.645	-0.02
486.844	0.01
487.043	-0.01
487.241	0.05
487.44	0.01
487.639	0.02
487.838	0.03
488.037	0.04
488.235	0.08
488.434	0.03
488.633	0.01
488.831	0.05
489.03	0.06
489.229	0.03
489.427	0.01
489.626	0.06
489.825	0.08
490.023	0.02
490.222	-0
490.42	0.04
490.619	0.06
490.817	0.02
491.016	0.01
491.214	0.03
491.413	0.02
491.611	0.02
491.81	0.01
492.008	0.06
492.207	0.05
492.405	0.02
492.604	0.02
492.802	0.01
493	0.03
493.199	0.01
493.397	0.01
493.595	0.02
493.794	0.04
493.992	0.08
494.19	0.03
494.388	0.03
494.587	0.01
494.785	0.04
494.983	-0.01
495.181	-0.01
495.379	0.02
495.578	0.02
495.776	0.04
495.974	0.04
496.172	0.02
496.37	-0
496.568	-0.01
496.766	0.02
496.964	0.06
497.162	0.03
497.36	-0.01
497.558	0.04
497.756	0.02
497.954	0.03
498.152	0.02
498.35	0.02
498.548	-0
498.746	0.01
498.944	-0.01
499.142	-0
499.34	-0
499.538	0.01
499.736	-0.01
499.933	0.05
500.131	0.03
500.329	0.04
500.527	0.04
500.725	0.06
500.922	0.04
501.12	0.01
501.318	0.01
501.516	0.01
501.713	0.05
501.911	0.02
502.109	-0.02
502.306	0.04
502.504	0.02
502.701	0
502.899	0.02
503.097	0.05
503.294	0.04
503.492	0.02
503.689	0.05
503.887	0.04
504.084	0.09
504.282	0.06
504.479	-0.01
504.677	0.03
504.874	-0.01
505.072	0.03
505.269	0.03
505.466	0.03
505.664	0.02
505.861	-0
506.059	-0
506.256	0.04
506.453	-0
506.651	0.05
506.848	0.07
507.045	0.02
507.242	0.02
507.44	-0.01
507.637	0.02
507.834	0.01
508.031	0.03
508.229	-0
508.426	0.02
508.623	0.04
508.82	0.02
509.017	-0.01
509.214	0.02
509.411	0.02
509.608	0.02
509.805	0.02
510.003	-0
510.2	0.01
510.397	0.06
510.594	-0.01
510.791	0
510.988	0.01
511.184	0.05
511.381	0.01
511.578	0.01
511.775	0.05
511.972	0
512.169	0.04
512.366	0.02
512.563	0.02
512.76	0.01
512.956	0.03
513.153	0.02
513.35	0.05
513.547	0
513.744	0
513.94	-0.02
514.137	0.04
514.334	0.02
514.53	0
514.727	0.02
514.924	0.06
515.12	0.02
515.317	-0.02
515.514	0.02
515.71	-0.01
515.907	0.01
516.103	0.02
516.3	0.04
516.497	0.05
516.693	0.04
516.89	0.02
517.086	-0
517.283	0.05
517.479	0.04
517.676	0.02
517.872	0.02
518.068	-0.01
518.265	0.01
518.461	0.01
518.658	0
518.854	0.03
519.05	0.04
519.247	0.01
519.443	0.04
519.639	0.03
519.836	0.02
520.032	0.02
520.228	0.02
520.424	0.07
520.621	0.02
520.817	0.02
521.013	0.05
521.209	0.03
521.405	0.07
521.601	0.04
521.798	0.05
521.994	0.04
522.19	0.01
522.386	-0.01
522.582	0.02
522.778	0.02
522.974	-0
523.17	0.01
523.366	0.02
523.562	0.04
523.758	0.01
523.954	0.02
524.15	0.01
524.346	0.04
524.542	-0.01
524.738	0.01
524.934	0.03
525.129	-0.05
525.325	0.02
525.521	0.05
525.717	0.04
525.913	0.02
526.109	0.03
526.304	0.01
526.5	0.02
526.696	0.04
526.892	0.03
527.087	0.04
527.283	-0
527.479	0.04
527.674	0.02
527.87	0.01
528.066	0.01
528.261	0.04
528.457	0.03
528.653	0.03
528.848	-0.01
529.044	0.04
529.239	0.01
529.435	0.05
529.63	0.02
529.826	0.05
530.021	0.03
530.217	0.04
530.412	0
530.608	-0
530.803	0.02
530.999	0.01
531.194	-0.02
531.389	0.02
531.585	-0
531.78	0.02
531.975	0.03
532.171	0.04
532.366	0.02
532.561	0.02
532.757	0.02
532.952	0.02
533.147	0.05
533.342	0.03
533.538	0.03
533.733	0.05
533.928	0.02
534.123	0.02
534.318	0
534.513	0.03
534.709	0.04
534.904	-0
535.099	-0
535.294	0.03
535.489	0.03
535.684	0.03
535.879	-0
536.074	0.01
536.269	0
536.464	0.03
536.659	0.03
536.854	0.02
537.049	0.05
537.244	0.01
537.439	0
537.634	0.04
537.828	0.03
538.023	0.04
538.218	-0.04
538.413	0.03
538.608	-0.01
538.803	0.06
538.997	-0.03
539.192	0.05
539.387	0.02
539.582	0.03
539.776	0.03
539.971	0.01
540.166	0.01
540.36	0.01
540.555	0.02
540.75	0.01
540.944	0.03
541.139	-0.02
541.334	0.02
541.528	0.03
541.723	0.05
541.917	0.04
542.112	-0
542.306	0
542.501	0.01
542.695	0.02
542.89	0
543.084	0.04
543.279	0.04
543.473	0.02
543.668	0.01
543.862	0.01
544.056	0.04
544.251	0.03
544.445	0.05
544.64	0.03
544.834	0
545.028	0.04
545.222	0.04
545.417	0.04
545.611	0.05
545.805	0.02
546	0.01
546.194	0.02
546.388	-0.02
546.582	0.04
546.776	0.03
546.97	0.03
547.165	0.03
547.359	0.05
547.553	0.01
547.747	0.06
547.941	0.03
548.135	0.03
548.329	0.06
548.523	0.02
548.717	0.03
548.911	0.01
549.105	0.04
549.299	0.03
549.493	0.05
549.687	0.02
549.881	0.05
550.075	0.04
550.269	0
550.463	0.03
550.657	0
550.85	0.06
551.044	0.01
551.238	0.03
551.432	0.02
551.626	-0.01
551.82	0.04
552.013	0.02
552.207	0.03
552.401	0.04
552.594	0.03
552.788	0.04
552.982	0.04
553.176	0.01
553.369	0.05
553.563	0.04
553.756	-0.01
553.95	-0
554.144	0.03
554.337	0.06
554.531	0.05
554.724	0.05
554.918	0.03
555.111	0.04
555.305	0.03
555.498	0.07
555.692	0.06
555.885	0.01
556.079	0.03
556.272	0
556.466	0.05
556.659	0.03
556.852	0.01
557.046	0.02
557.239	0.05
557.432	0.01
557.626	0.02
557.819	0.03
558.012	0.06
558.206	0.05
558.399	0.03
558.592	0.04
558.785	0.02
558.979	0.04
559.172	0.04
559.365	0.05
559.558	0.02
559.751	0.03
559.944	0.07
560.138	-0
560.331	0.04
560.524	0.02
560.717	0.04
560.91	0.03
561.103	0.04
561.296	0.03
561.489	0.05
561.682	0.04
561.875	0.04
562.068	0.04
562.261	0.06
562.454	0.08
562.647	0.05
562.84	0.07
563.032	0.02
563.225	0.05
563.418	0.02
563.611	0.02
563.804	0.04
563.997	-0
564.19	0.02
564.382	-0
564.575	0.03
564.768	0.05
564.961	0.02
565.153	0.04
565.346	0.06
565.539	0.06
565.731	0.06
565.924	0.06
566.117	0.06
566.309	0.04
566.502	0.04
566.695	0.04
566.887	0.05
567.08	0
567.272	0.03
567.465	0.03
567.657	0.03
567.85	0.08
568.042	0.06
568.235	0.07
568.427	0.03
568.62	0.04
568.812	0.05
569.005	0.04
569.197	0.01
569.389	0.05
569.582	0.05
569.774	0.04
569.966	-0
570.159	-0
570.351	0.05
570.543	0.01
570.736	0.04
570.928	0.01
571.12	0.06
571.312	0.02
571.505	0.03
571.697	0.06
571.889	0.03
572.081	0.03
572.273	0.03
572.465	0.08
572.658	0.03
572.85	0.06
573.042	0.05
573.234	0.02
573.426	0.08
573.618	-0.01
573.81	0.05
574.002	0.06
574.194	0.08
574.386	0.02
574.578	-0.02
574.77	0.04
574.962	0.03
575.154	-0
575.346	0.02
575.538	0.06
575.729	0.03
575.921	0.03
576.113	0.02
576.305	0.06
576.497	0.04
576.689	0.03
576.88	0.02
577.072	0.08
577.264	0.06
577.456	0.03
577.647	-0.04
577.839	0.05
578.031	0.07
578.223	0
578.414	0.01
578.606	0.06
578.798	0.05
578.989	0.04
579.181	0.05
579.372	0.05
579.564	0.02
579.755	0.08
579.947	0.04
580.139	0.07
580.33	-0.02
580.522	0.03
580.713	-0.02
580.905	0.06
581.096	0.07
581.287	0.05
581.479	0.04
581.67	0.07
581.862	0.05
582.053	0.03
582.244	-0
582.436	0.06
582.627	0.08
582.818	0.04
583.01	0.03
583.201	0.09
583.392	0.08
583.583	0.07
583.775	0.05
583.966	0.03
584.157	0.04
584.348	0.05
584.54	0.01
584.731	0.07
584.922	0.06
585.113	0.04
585.304	0.08
585.495	0.11
585.686	0.08
585.877	0.09
586.068	0.07
586.259	0.07
586.45	0.09
586.641	0.06
586.832	0.02
587.023	0.08
587.214	0.04
587.405	0.06
587.596	0.06
587.787	0.1
587.978	0.09
588.169	0.04
588.36	0.04
588.551	0.11
588.742	0.05
588.932	0.08
589.123	0.07
589.314	0.09
589.505	0.1
589.696	0.06
589.886	0.06
590.077	0.04
590.268	0.06
590.458	0.04
590.649	0.05
590.84	0.11
591.03	0.07
591.221	0.04
591.412	0.04
591.602	0.1
591.793	0.11
591.984	0.05
592.174	0.07
592.365	0.14
592.555	0.08
592.746	0.1
592.936	0.14
593.127	0.11
593.317	0.1
593.508	0.1
593.698	0.08
593.889	0.1
594.079	0.09
594.269	0.09
594.46	0.08
594.65	0.09
594.84	0.11
595.031	0.08
595.221	0.12
595.411	0.09
595.602	0.14
595.792	0.12
595.982	0.08
596.172	0.14
596.363	0.12
596.553	0.09
596.743	0.1
596.933	0.12
597.123	0.14
597.314	0.06
597.504	0.11
597.694	0.15
597.884	0.15
598.074	0.12
598.264	0.12
598.454	0.13
598.644	0.15
598.834	0.12
599.024	0.13
599.214	0.11
599.404	0.15
599.594	0.13
599.784	0.11
599.974	0.19
600.164	0.15
600.354	0.09
600.544	0.11
600.734	0.13
600.924	0.2
601.114	0.16
601.303	0.17
601.493	0.17
601.683	0.12
601.873	0.18
602.063	0.13
602.252	0.19
602.442	0.12
602.632	0.15
602.821	0.15
603.011	0.2
603.201	0.16
603.39	0.14
603.58	0.16
603.77	0.2
603.959	0.21
604.149	0.2
604.339	0.19
604.528	0.22
604.718	0.21
604.907	0.2
605.097	0.19
605.286	0.18
605.476	0.23
605.665	0.24
605.855	0.2
606.044	0.27
606.234	0.22
606.423	0.22
606.612	0.21
606.802	0.25
606.991	0.26
607.181	0.27
607.37	0.22
607.559	0.27
607.749	0.22
607.938	0.27
608.127	0.26
608.316	0.25
608.506	0.29
608.695	0.29
608.884	0.3
609.073	0.28
609.263	0.34
609.452	0.33
609.641	0.31
609.83	0.28
610.019	0.33
610.208	0.32
610.397	0.31
610.586	0.39
610.775	0.33
610.965	0.34
611.154	0.36
611.343	0.38
611.532	0.35
611.721	0.37
611.91	0.38
612.099	0.43
612.287	0.36
612.476	0.37
612.665	0.45
612.854	0.41
613.043	0.47
613.232	0.46
613.421	0.41
613.61	0.47
613.798	0.45
613.987	0.49
614.176	0.52
614.365	0.53
614.554	0.51
614.742	0.58
614.931	0.51
615.12	0.59
615.309	0.56
615.497	0.54
615.686	0.55
615.875	0.58
616.063	0.59
616.252	0.59
616.44	0.6
616.629	0.65
616.818	0.66
617.006	0.65
617.195	0.67
617.383	0.69
617.572	0.68
617.76	0.72
617.949	0.74
618.137	0.75
618.326	0.76
618.514	0.69
618.703	0.72
618.891	0.83
619.079	0.75
619.268	0.9
619.456	0.79
619.644	0.9
619.833	0.86
620.021	0.89
620.209	0.84
620.398	0.96
620.586	0.92
620.774	1.01
620.962	1.01
621.151	1.06
621.339	1.02
621.527	1.01
621.715	1.01
621.903	1.07
622.092	1.01
622.28	1.14
622.468	1.1
622.656	1.15
622.844	1.17
623.032	1.2
623.22	1.15
623.408	1.32
623.596	1.28
623.784	1.29
623.972	1.3
624.16	1.35
624.348	1.38
624.536	1.4
624.724	1.36
624.912	1.49
625.1	1.51
625.288	1.51
625.476	1.48
625.664	1.58
625.851	1.56
626.039	1.64
626.227	1.66
626.415	1.72
626.603	1.65
626.79	1.77
626.978	1.77
627.166	1.79
627.354	1.82
627.541	1.87
627.729	1.83
627.917	2.01
628.104	2.04
628.292	1.98
628.48	2.05
628.667	2.09
628.855	2.17
629.042	2.26
629.23	2.21
629.418	2.23
629.605	2.28
629.793	2.33
629.98	2.38
630.168	2.47
630.355	2.47
630.543	2.47
630.73	2.52
630.917	2.63
631.105	2.69
631.292	2.69
631.48	2.69
631.667	2.86
631.854	2.8
632.042	2.84
632.229	2.85
632.416	3
632.604	2.97
632.791	3.02
632.978	3.17
633.165	3.16
633.353	3.17
633.54	3.35
633.727	3.3
633.914	3.41
634.101	3.4
634.289	3.59
634.476	3.55
634.663	3.57
634.85	3.7
635.037	3.62
635.224	3.73
635.411	3.87
635.598	3.84
635.785	3.89
635.972	3.95
636.159	4.02
636.346	4.11
636.533	4.15
636.72	4.26
636.907	4.31
637.094	4.32
637.281	4.31
637.468	4.58
637.655	4.6
637.842	4.62
638.029	4.71
638.215	4.76
638.402	4.87
638.589	4.91
638.776	5.04
638.963	5.04
639.149	5.16
639.336	5.29
639.523	5.38
639.709	5.34
639.896	5.48
640.083	5.55
640.27	5.68
640.456	5.7
640.643	5.78
640.829	5.79
641.016	5.95
641.203	6.04
641.389	6.13
641.576	6.3
641.762	6.33
641.949	6.36
642.135	6.52
642.322	6.63
642.508	6.65
642.695	6.96
642.881	6.97
643.068	6.99
643.254	7.15
643.441	7.31
643.627	7.5
643.813	7.4
644	7.7
644.186	7.73
644.372	7.96
644.559	7.96
644.745	8.08
644.931	8.16
645.118	8.44
645.304	8.54
645.49	8.71
645.676	8.82
645.862	8.93
646.049	9.24
646.235	9.23
646.421	9.55
646.607	9.78
646.793	9.73
646.979	9.78
647.165	10.09
647.352	10.27
647.538	10.33
647.724	10.6
647.91	10.59
648.096	10.9
648.282	11.06
648.468	11.2
648.654	11.52
648.84	11.59
649.026	11.69
649.212	11.83
649.397	12.15
649.583	12.43
649.769	12.47
649.955	12.6
650.141	13.16
650.327	13.07
650.513	13.3
650.698	13.51
650.884	13.58
651.07	13.99
651.256	14.05
651.442	14.35
651.627	14.26
651.813	14.87
651.999	14.8
652.184	15.07
652.37	15.45
652.556	15.6
652.741	15.81
652.927	15.72
653.113	16.27
653.298	16.48
653.484	16.69
653.669	16.85
653.855	17
654.04	17.3
654.226	17.44
654.412	17.65
654.597	17.61
654.782	18.05
654.968	18.28
655.153	18.46
655.339	18.71
655.524	18.83
655.71	18.99
655.895	19.48
656.08	19.63
656.266	19.8
656.451	19.61
656.636	19.91
656.822	20.07
657.007	20.3
657.192	20.44
657.378	20.56
657.563	20.6
657.748	20.86
657.933	21.17
658.118	20.8
658.304	21.43
658.489	21.49
658.674	21.46
658.859	21.43
659.044	21.58
659.229	21.7
659.414	21.82
659.599	21.78
659.785	21.74
659.97	21.68
660.155	21.62
660.34	21.79
660.525	21.58
660.71	21.39
660.895	21.44
661.08	21.3
661.264	20.82
661.449	20.76
661.634	20.47
661.819	20.67
662.004	19.92
662.189	19.91
662.374	19.73
662.559	19.05
662.743	18.9
662.928	18.57
663.113	18.23
663.298	17.78
663.483	17.55
663.667	17.03
663.852	16.76
664.037	16.46
664.221	16.09
664.406	15.47
664.591	15.22
664.775	14.67
664.96	14.3
665.145	13.72
665.329	13.48
665.514	13.05
665.698	12.51
665.883	12.2
666.068	11.98
666.252	11.62
666.437	11.08
666.621	10.71
666.806	10.42
666.99	10.09
667.174	9.78
667.359	9.43
667.543	9.1
667.728	8.81
667.912	8.33
668.096	8.09
668.281	7.79
668.465	7.71
668.649	7.48
668.834	6.96
669.018	6.91
669.202	6.7
669.387	6.34
669.571	6.24
669.755	5.95
669.939	5.78
670.124	5.6
670.308	5.45
670.492	5.22
670.676	4.98
670.86	4.84
671.044	4.63
671.228	4.62
671.413	4.36
671.597	4.21
671.781	4.06
671.965	4.04
672.149	3.9
672.333	3.72
672.517	3.57
672.701	3.54
672.885	3.4
673.069	3.24
673.253	3.29
673.437	3.07
673.621	2.95
673.804	2.94
673.988	2.84
674.172	2.67
674.356	2.54
674.54	2.56
674.724	2.54
674.908	2.36
675.091	2.44
675.275	2.23
675.459	2.17
675.643	2.19
675.826	2.06
676.01	1.94
676.194	1.92
676.377	1.86
676.561	1.92
676.745	1.76
676.928	1.72
677.112	1.7
677.296	1.57
677.479	1.53
677.663	1.47
677.846	1.49
678.03	1.41
678.213	1.33
678.397	1.33
678.58	1.25
678.764	1.25
678.947	1.16
679.131	1.15
679.314	1.21
679.498	1.11
679.681	1.07
679.865	1.11
680.048	1.01
680.231	0.96
680.415	0.92
680.598	0.9
680.781	0.82
680.965	0.86
681.148	0.86
681.331	0.79
681.514	0.84
681.698	0.75
681.881	0.78
682.064	0.75
682.247	0.74
682.43	0.64
682.614	0.74
682.797	0.71
682.98	0.69
683.163	0.59
683.346	0.69
683.529	0.56
683.712	0.54
683.895	0.55
684.078	0.48
684.261	0.55
684.444	0.55
684.627	0.55
684.81	0.47
684.993	0.49
685.176	0.51
685.359	0.52
685.542	0.49
685.725	0.5
685.908	0.43
686.091	0.4
686.274	0.47
686.457	0.47
686.639	0.41
686.822	0.43
687.005	0.4
687.188	0.4
687.371	0.47
687.553	0.42
687.736	0.44
687.919	0.43
688.102	0.43
688.284	0.38
688.467	0.39
688.65	0.34
688.832	0.32
689.015	0.32
689.197	0.27
689.38	0.39
689.563	0.35
689.745	0.3
689.928	0.31
690.11	0.25
690.293	0.37
690.475	0.22
690.658	0.3
690.84	0.28
691.023	0.27
691.205	0.26
691.388	0.23
691.57	0.32
691.752	0.26
691.935	0.17
692.117	0.2
692.3	0.26
692.482	0.24
692.664	0.27
692.847	0.23
693.029	0.3
693.211	0.22
693.393	0.24
693.576	0.22
693.758	0.16
693.94	0.22
694.122	0.17
694.304	0.16
694.487	0.15
694.669	0.24
694.851	0.14
695.033	0.19
695.215	0.16
695.397	0.13
695.579	0.2
695.761	0.14
695.943	0.13
696.125	0.25
696.308	0.2
696.49	0.05
696.671	0.29
696.853	0.14
697.035	0.32
697.217	0.15
697.399	0.2
697.581	0.18
697.763	0.09
697.945	0.09
698.127	0.22
698.309	0.22
698.491	0.21
698.672	0.2
698.854	0.2
699.036	0.2
699.218	0.15
699.399	0.17
699.581	0.17
699.763	0.15
699.945	0.13
700.126	0.05
700.308	0.17
700.49	0.15
700.671	0.03
700.853	0.11
701.035	0.16
701.216	0.09
701.398	0.1
701.579	0.12
701.761	0.16
701.943	0.1
702.124	0.05
702.306	0.13
702.487	0.21
702.669	0.13
702.85	0.11
703.031	0.05
703.213	0.21
703.394	0.21
703.576	0.08
703.757	0.2
703.938	0.16
704.12	0.3
704.301	0.21
704.483	0.13
704.664	0.15
704.845	0.14
705.026	0.14
705.208	0.15
705.389	0.14
705.57	0.14
705.751	0.13
705.933	0.12
706.114	0.23
706.295	0.11
706.476	0.06
706.657	0.23
706.838	0.17
707.02	0.17
707.201	0.08
707.382	0.12
707.563	0.17
707.744	0.06
707.925	0.03
708.106	0.12
708.287	0.15
708.468	0.18
708.649	0.12
708.83	0.15
709.011	0.1
709.192	0.14
709.373	0.01
709.554	0.07
709.734	0.2
709.915	0.14
710.096	0.14
710.277	0.02
710.458	0.08
710.639	0.1
710.819	0.03
711	0.13
711.181	0.21
711.362	0.12
711.542	0.11
711.723	0.1
711.904	0.18
712.085	0.19
712.265	0.15
712.446	0.07
712.627	0.08
712.807	0.12
712.988	0.1
713.168	-0.01
713.349	0.18
713.53	0
713.71	0.04
713.891	-0.01
714.071	0.09
714.252	0.06
714.432	0.1
714.613	-0
714.793	0.12
714.974	0.18
715.154	0.15
715.334	0.15
715.515	0.18
715.695	-0.02
715.876	0.06
716.056	0.12
716.236	0.02
716.417	0.09
716.597	0.03
716.777	0.21
716.957	0.1
717.138	0.08
717.318	0.11
717.498	0.03
717.678	0.11
717.859	0.11
718.039	0.04
718.219	0.09
718.399	0.14
718.579	0.05
718.759	0.04
718.939	0.11
719.12	0.1
719.3	0.11
719.48	-0.06
719.66	-0.05
719.84	0.18
720.02	0.07
720.2	0.05
720.38	0.05
720.56	0.14
720.74	0.06
720.92	0.07
721.1	0.18
721.279	0.13
721.459	0.02
721.639	0.04
721.819	0.1
721.999	0.05
722.179	0.2
722.359	0.07
722.538	0.09
722.718	0.08
722.898	0.12
723.078	0.12
723.257	0.01
723.437	0.03
723.617	0.13
723.797	0.08
723.976	0.08
724.156	0.2
724.336	0.14
724.515	0.21
724.695	0
724.874	0.07
725.054	0.17
725.234	0.11
725.413	0.15
725.593	0.12
725.772	0.13
725.952	0.08
726.131	0.04
726.311	0.11
726.49	0.12
726.67	0.03
726.849	0
727.028	0.15
727.208	0.04
727.387	0.14
727.567	-0.02
727.746	0.07
727.925	0.07
728.105	-0.03
728.284	0.07
728.463	-0.15
728.643	0.1
728.822	-0.03
729.001	0.02
729.18	0.11
729.359	0.14
729.539	0.05
729.718	0.17
729.897	0.11
730.076	0.04
730.255	-0.01
730.434	0.13
730.614	0.13
730.793	0.11
730.972	0.02
731.151	0.1
731.33	0.26
731.509	0.09
731.688	0.09
731.867	0.11
732.046	-0.03
732.225	0.34
732.404	0.01
732.583	-0
732.762	0.02
732.941	0.13
733.12	0.18
733.298	0.06
733.477	0.15
733.656	0.06
733.835	0.05
734.014	0.17
734.193	0.19
734.371	0.15
734.55	0.13
734.729	-0
734.908	0.11
735.086	0.14
735.265	0.19
735.444	-0.12
735.623	0.03
735.801	0.03
735.98	0.13
736.159	0.04
736.337	0.18
736.516	0.02
736.694	0.09
736.873	0.12
737.052	0.28
737.23	0.18
737.409	-0.01
737.587	0.18
737.766	-0.05
737.944	-0.03
738.123	0.19
738.301	0.22
738.479	0.23
738.658	0.08
738.836	-0.11
739.015	0.07
739.193	0.2
739.371	0.04
739.55	0.12
739.728	0.02
739.906	0.19
740.085	0.28
740.263	0.08
740.441	-0.04
740.62	0.26
740.798	0.19
740.976	-0.14
741.154	-0.01
741.332	0.31
741.511	0
741.689	0.13
741.867	0.14
742.045	0.16
742.223	0.11
742.401	0.06
742.579	0.05
742.757	0.12
742.935	-0.03
743.114	0.07
743.292	0.08
743.47	0.11
743.648	0.08
743.826	0.04
744.004	0.17
744.181	0.15
744.359	0.05
744.537	0.11
744.715	0.11
744.893	0.05
745.071	0.1
745.249	0.01
745.427	0.06
745.605	0.11
745.782	0.03
745.96	0.18
746.138	0.15
746.316	0.16
746.493	0.02
746.671	0.05
746.849	0.06
747.027	0.24
747.204	0
747.382	0.12
747.56	0
747.737	-0.02
747.915	-0.03
748.093	0.13
748.27	0.03
748.448	0.02
748.625	0.05
748.803	-0.01
748.98	0.07
749.158	0.16
749.335	0.18
749.513	0.04
749.69	0.02
749.868	0.05
750.045	0.18
750.223	0.03
750.4	-0.07
750.578	0.3
750.755	0.04
750.932	-0.05
751.11	0.22
751.287	0.01
751.464	0.19
751.642	0.09
751.819	0.09
751.996	-0.04
752.173	-0.02
752.351	-0.01
752.528	0.15
752.705	0.03
752.882	0.03
753.06	0.09
753.237	0.2
753.414	0.36
753.591	0.26
753.768	0.09
753.945	0.11
754.122	-0.04
754.299	0.12
754.476	-0.02
754.654	0.1
754.831	0.11
755.008	0.11
755.185	0.02
755.362	0.04
755.539	0.21
755.716	0.02
755.892	0.02
756.069	0.15
756.246	0.05
756.423	-0.03
756.6	0.17
756.777	-0.04
756.954	0.15
757.131	-0.04
757.307	-0.06
757.484	-0.03
757.661	0.03
757.838	0.01
758.015	-0.04
758.191	0.16
758.368	0.16
758.545	0.13
758.721	0.16
758.898	-0.08
759.075	0.09
759.251	0.19
759.428	0.11
759.605	0.06
759.781	0.02
759.958	0.08
760.134	0.13
760.311	-0.05
760.488	0.17
760.664	0.33
760.841	0.06
761.017	-0.02
761.194	0.15
761.37	0.17
761.547	0.03
761.723	0.18
761.899	0.06
762.076	-0.04
762.252	0.05
762.429	0.12
762.605	0.17
762.781	0.01
762.958	0.19
763.134	-0.02
763.31	-0.07
763.486	0.18
763.663	-0.14
763.839	0.12
764.015	-0.08
764.191	-0.04
764.368	0.01
764.544	0.01
764.72	0.13
764.896	0.18
765.072	0.05
765.248	-0.04
765.425	0.01
765.601	0.1
765.777	0.18
765.953	-0.2
766.129	-0.05
766.305	-0.02
766.481	0.11
766.657	0.16
766.833	0.26
767.009	-0.01
767.185	0.1
767.361	0.05
767.537	0.01
767.713	0.14
767.889	-0.1
768.065	0.08
768.24	-0.13
768.416	0.14
768.592	0.13
768.768	0.12
768.944	0.12
769.12	-0.08
769.295	0.07
769.471	0.01
769.647	0.06
769.823	0.22
769.998	0.08
770.174	-0.04
770.35	0.35
770.525	0.31
770.701	0.09
770.877	0.11
771.052	0.11
771.228	0.2
771.403	0.19
771.579	0.15
771.755	0.31
771.93	0.01
772.106	-0.07
772.281	-0.12
772.457	0.11
772.632	0.1
772.808	-0.09
772.983	-0.02
773.159	-0.07
773.334	0.22
773.509	0.08
773.685	-0.08
773.86	0.28
774.036	0.21
774.211	0.12
774.386	-0.02
774.562	0.09
774.737	0.18
774.912	0.08
775.087	0.14
775.263	0.09
775.438	-0.07
775.613	-0
775.788	-0.1
775.964	0.09
776.139	0.51
776.314	0.05
776.489	0.08
776.664	0.13
776.839	-0.11
777.014	0.29
777.19	0.29
777.365	0.22
777.54	0.17
777.715	0.16
777.89	0.28
778.065	-0.03
778.24	0.03
778.415	0.11
778.59	0.04
778.765	-0.02
778.94	0.15
779.115	-0.01
779.289	0.16
779.464	0.09
779.639	0.16
779.814	-0.08
779.989	-0.2
780.164	0.23
780.339	-0.06
780.513	0.08
780.688	-0.06
780.863	0.19
781.038	0.27
781.212	-0.05
781.387	0.15
781.562	0.38
781.737	0
781.911	0.33
782.086	-0.12
782.261	0.04
782.435	0.5
782.61	0.07
782.784	0.13
782.959	0.25
783.134	0.1
783.308	-0.19
783.483	0.16
783.657	0.61
783.832	0.28
784.006	-0.17
784.181	0.1
784.355	0.28
784.53	-0.1
784.704	-0.13
784.878	0.39
785.053	0.36
785.227	0.24
785.402	0.42
785.576	-0.09
785.75	0.04
785.925	0.17
786.099	0.23
786.273	0.09
786.448	0.26
786.622	0.27
786.796	-0.1
786.97	0.05
787.145	0.65
787.319	-0.27
787.493	-0.01
787.667	-0.23
787.841	0.13
788.015	0.14
788.19	0.15
788.364	0.1
788.538	0.32
788.712	0.39
788.886	0.18
789.06	0.28
789.234	0.28
789.408	-0.04
789.582	-0.06
789.756	0.25
789.93	-0.02
790.104	0.08
790.278	0.03
790.452	-0.18
790.626	0.3
790.8	0.09
790.973	0.13
791.147	0.32
791.321	0.2
791.495	0.17
791.669	0.08
791.843	0.24
792.016	0.2
792.19	0.5
792.364	-0.01
792.538	0.53
792.711	0.26
792.885	-0.14
793.059	-0.13
793.233	-0.3
793.406	0.4
793.58	0.08
793.754	0.13
793.927	0.03
794.101	0.24
794.274	-0.06
794.448	0.39
794.622	-0.03
794.795	0.47
794.969	0.05
795.142	0.34
795.316	0.22
795.489	0.05
795.663	0.66
795.836	0.19
796.009	-0.22
796.183	0.25
796.356	0.21
796.53	-0.03
796.703	0.08
796.876	0.76
797.05	-0.01
797.223	0.23
797.396	0.25
797.57	0.14
797.743	0.45
797.916	0.13
798.09	0.04
798.263	0.57
798.436	0.25
798.609	0.07
798.782	0.07
798.956	0.24
799.129	0.1
799.302	0.06
799.475	-0.11
799.648	0.07
799.821	0.1
799.994	0.19
800.167	-0.51
800.34	-0
800.514	0.07
800.687	0.1
800.86	-0.05
801.033	0.01
801.206	0.14
801.379	0.11
801.551	0.2
801.724	0.39
801.897	0.54
802.07	-0.11
802.243	-0.54
802.416	0.18
802.589	-0.11
802.762	0.29
802.935	0.02
803.107	0.37
803.28	0.56
803.453	0.43
803.626	0.07
803.798	0.21
803.971	0.26
804.144	0.3
804.317	0.02
804.489	0.46
804.662	0.32
804.835	0.22
805.007	0.05
805.18	0.26
805.353	0.34
805.525	-0.04
805.698	-0.36
805.87	0.28
806.043	0.65
806.215	-0.18
806.388	-0.04
806.56	0.2
806.733	0.62
806.905	0.38
807.078	0.1
807.25	0.19
807.423	0.37
807.595	0.06
807.768	0.43
807.94	0.51
808.112	0.17
808.285	0.09
808.457	0.19
808.629	0.12
808.802	-0.01
808.974	0.33
809.146	-0.03
809.318	-0.02
809.491	0.17
809.663	0.42
809.835	0.09
810.007	0.39
810.18	0.47
810.352	-0.12
810.524	-0.25
810.696	0.34
810.868	0.34
811.04	0.05
811.212	0.03
811.384	0.38
811.556	0.06
811.728	0.18
811.901	0.57
812.073	-0.02
812.245	0.64
812.417	0.29
812.589	-0.5
812.76	0.13
812.932	0.29
813.104	0.24
813.276	-0.22
813.448	0.59
813.62	0.27
813.792	0.28
813.964	0.24
814.136	0.26
814.307	-0.12
814.479	-0.28
814.651	0.27
814.823	0.67
814.995	-0.05
815.166	0.21
815.338	-0.04
815.51	-0.26
815.681	0.76
815.853	0.2
816.025	0.06
816.196	0.1
816.368	0.73
816.54	-0.1
816.711	-0.13
816.883	0.6
817.054	1.28
817.226	-0.63
817.398	0.66
817.569	0.05
817.741	0.31
817.912	-0.06
818.084	0.27
818.255	0.19
818.426	-0.1
818.598	-0.01
818.769	-0.13
818.941	0.25
819.112	0.66
819.283	0.02
819.455	-0.33
819.626	0.15
819.798	0.13
819.969	0.37
820.14	-0.36
820.311	-0.25
820.483	0.12
820.654	0.29
820.825	0.24
820.996	0
821.168	0.21
821.339	0.11
821.51	-0.38
821.681	0.24
821.852	0.03
822.023	-0.32
822.195	-0.38
822.366	0.78
822.537	0.07
822.708	0.51
822.879	0.24
823.05	0.6
823.221	0.04
823.392	0.64
823.563	0.04
823.734	0.44
823.905	0.29
824.076	-0.22
824.247	-0.48
824.418	-0.14
824.589	0.44
824.759	-0.06
824.93	0.72
825.101	-0.22
825.272	1.18
825.443	1.28
825.614	0.23
825.784	-0.76
825.955	1.05
826.126	0.96
826.297	0.2
826.467	1.05
826.638	1.35
826.809	-0.6
826.98	-0.39
827.15	0.69
827.321	0.67
827.492	1.04
827.662	0.22
827.833	1.03
828.003	0.55
828.174	-0.57
828.345	-0.67
828.515	0.85
828.686	-0.22
828.856	0.07
829.027	0.2
829.197	0.43
829.368	0.72
829.538	0.17
829.709	0.13
829.879	0.51
830.049	0.06
830.22	0.26
830.39	0.17
830.56	0.7
830.731	0.32
830.901	0.84
831.072	0.82
831.242	0
831.412	0.19
831.582	0.48
831.753	0.05
831.923	0.61
832.093	0.07
832.263	0.33
832.434	-0.34
832.604	-0.14
832.774	0.52
832.944	-0.04
833.114	-0.04
833.284	0.23
833.454	-0.1
833.624	-0.41
833.795	-0.4
833.965	1.04
834.135	0.88
834.305	-0.68
834.475	-0.65
834.645	0.24
834.815	-0.03
834.985	-0.3
835.155	-0.24
835.325	0.71
835.494	1.43
835.664	0.01
835.834	-0.68
836.004	-0.08
836.174	1
836.344	0.55
836.514	-0.37
836.684	-0.06
836.853	-0
837.023	-0.07
837.193	0.34
837.363	1.19
837.532	1.13
837.702	0.34
837.872	0.23
838.041	1.02
838.211	1.74
838.381	-0.27
838.55	0.63
838.72	1.73
838.89	1.57
839.059	0.06
839.229	-0.52
839.398	1.85
839.568	-0.05
839.738	0.15
839.907	1.31
840.077	0.65
840.246	-0.29
840.416	0.06
840.585	-0.26
840.755	2.14
840.924	0.51
841.093	0.33
841.263	-0.15
841.432	0.18
841.602	-0.5
841.771	0.48
841.94	0.64
842.11	1.97
842.279	2.25
842.448	-0.53
842.617	0.29
842.787	1.66
842.956	-0.4
843.125	0.27
843.294	0.78
843.464	1.3
843.633	-0.01
843.802	-0.65
843.971	0.33
844.14	0.94
844.309	0.7
844.479	-0.73
844.648	0.08
844.817	-0.41
844.986	0.12
845.155	0.88
845.324	-0.28
845.493	0.64
845.662	0.3
845.831	-0.02
846	0.28
846.169	0.37
846.338	2.05
846.507	0.72
846.676	0.89
846.844	-0.07
847.013	1.22
847.182	1.09
847.351	0.09
847.52	0.43
847.689	1.07
847.858	0.15
848.026	0.53
848.195	0.29
848.364	0.25
848.533	-0.4
848.701	-0.03
848.87	-0.56
849.039	1.86
849.207	1.17
849.376	1.79
849.545	1.82
849.713	0.53
849.882	-0.33
850.051	0.79
850.219	1.27
850.388	0.61
850.556	-0.34
850.725	0.43
850.893	0.54
851.062	-0.54
851.23	1.65
851.399	-0.74
851.567	0.05
851.736	-0.57
851.904	-1.5
852.073	0.51
852.241	0.89
852.41	-0.11
852.578	0.12
852.746	0.9
852.915	0.83
853.083	0.53
853.251	-1.23
853.42	-0.2
853.588	0.91
853.756	1.29
853.924	-0.25
854.093	0.39
854.261	-0.71
854.429	-1.11
854.597	0.47
854.765	0.59
854.934	-0.21
855.102	1.52
855.27	0.41
855.438	0.92
855.606	1.73
855.774	1.3
855.942	-0.7
856.11	-0.86
856.278	-0.2
856.446	1.82
856.614	0.91
856.782	0.66
856.95	2.58
857.118	0.65
857.286	-0.59
857.454	0.4
857.622	1.69
857.79	0.81
857.958	0.37
858.126	-0.72
858.294	-1.87
858.462	1.61
858.629	0.25
858.797	-0.25
858.965	-0.18
859.133	0.35
859.301	1.43
859.468	0.51
859.636	-1.28
859.804	1.17
859.971	0.78
860.139	-0.63
860.307	1.33
860.474	0.45
860.642	-0.35
860.81	-1.12
860.977	0.17
861.145	1.03
861.313	-0.44
861.48	1.18
861.648	2
861.815	1.08
861.983	-1.2
862.15	0.13
862.318	1.59
862.485	2.19
862.653	0.4
862.82	0.48
862.988	3.05
863.155	1.64
863.322	-0.53
863.49	-0.63
863.657	-1.33
863.824	1.29
863.992	1.03
864.159	0.37
864.326	2.32
864.494	-0.2
864.661	2.2
864.828	-0.15
864.996	2.79
865.163	2.76
865.33	-0.8
865.497	-1.52
865.664	-0.29
865.832	-1.19
865.999	0.01
866.166	0.67
866.333	0.07
866.5	-0.64
866.667	-0.34
866.834	-0.08
867.001	1.74
867.168	-0.92
867.335	0.24
867.502	-0.57
867.669	1.03
867.836	2.38
868.003	-0.26
868.17	1.21
868.337	-1.17
868.504	4.85
868.671	-0.39
868.838	-0.15
869.005	-0.52
869.172	1.41
869.339	0.63
869.505	1.46
869.672	0.94
869.839	1.52
870.006	0.53
870.173	-2.72
870.339	-0.75
870.506	2.85
870.673	-2.69
870.84	1.51
871.006	1.75
871.173	1.01
871.34	1.43
871.506	-0.63
871.673	1
871.839	-2.08
872.006	1.04
872.173	-0.16
872.339	0.02
872.506	2.77
872.672	0.17
872.839	-1.89
873.005	0.27
873.172	4.08
873.338	1.93
873.505	0.91
873.671	0.26
873.838	2.08
874.004	-0.81
874.171	-0.11
874.337	1.21
874.503	1.68
874.67	1.94
874.836	-0.37
875.002	1.29
875.169	0.91
875.335	2.52
875.501	-0.71
875.668	0.98
875.834	-0.97
876	1.31
876.166	3.33
876.332	2.45
876.499	4.03
876.665	-0.26
876.831	0.16
876.997	4.79
877.163	3.02
877.329	0.87
877.495	0.47
877.662	2.13
877.828	1.44
877.994	0.08
878.16	-0.34
878.326	0.73
878.492	0.01
878.658	-1.68
878.824	1.98
878.99	-0.55
879.156	1.22
879.322	3.61
879.487	-0.05
879.653	0.53
879.819	1.03
879.985	-0.83
880.151	1.87
880.317	0.81
880.483	0.68
880.648	2.18
880.814	-3.26
880.98	0.89
881.146	-2.17
881.312	0.35
881.477	-0.38
881.643	1.01
881.809	1.01
881.974	2.1
882.14	-1.72
882.306	0.35
882.471	3.57
882.637	-1.19
882.803	0.2
882.968	2.5
883.134	1.9
883.299	1.08
883.465	0.83
883.63	2.81
883.796	1.69
883.961	2.31
884.127	1.78
884.292	-3.74
884.458	-1.65
884.623	-1.65
