Data from Apollo_Calib_20240827__AbsoluteIrradiance__195__02-24-02-220.txt Node

Date: Wed Aug 28 02:24:02 BST 2024
User: biology
Spectrometer: FLMT08252
Trigger mode: 0
Integration Time (sec): 5.000000E-1
Scans to average: 5
Electric dark correction enabled: true
Nonlinearity correction enabled: false
Boxcar width: 0
XAxis mode: Wavelengths
Number of Pixels in Spectrum: 3648
>>>>>Begin Spectral Data<<<<<
179.588	-0
179.809	-0
180.03	-0
180.251	-0
180.473	-0
180.694	0
180.915	0
181.136	-0
181.357	-0
181.578	-0
181.799	0
182.02	-0
182.241	0
182.462	0
182.683	0
182.904	-0
183.125	-0
183.346	0
183.567	0
183.788	-0
184.009	-0
184.23	0
184.451	0
184.672	-0
184.892	-0
185.113	0
185.334	0
185.555	-0
185.776	-0
185.996	0
186.217	0
186.438	-0
186.659	-0
186.879	0
187.1	-0
187.321	-0
187.541	-0
187.762	0
187.983	-0
188.203	0
188.424	0
188.644	-0
188.865	0
189.086	-0
189.306	-0
189.527	0
189.747	0
189.968	-0
190.188	0
190.409	0
190.629	0
190.849	-0
191.07	0
191.29	0
191.511	0
191.731	-0
191.951	-0
192.172	-0
192.392	-0
192.612	-0
192.833	-0
193.053	0
193.273	0
193.493	-0
193.714	-0
193.934	0
194.154	0
194.374	0
194.594	0
194.815	0
195.035	-0
195.255	0
195.475	-0
195.695	0
195.915	0
196.135	-0
196.355	0
196.575	0
196.795	0
197.015	-0
197.235	-0
197.455	-0
197.675	0
197.895	-0
198.115	-0
198.335	0
198.555	-0
198.775	0
198.995	0
199.214	0
199.434	0
199.654	-0
199.874	0
200.094	1.47
200.313	-0.41
200.533	-0.71
200.753	-0.82
200.973	0.78
201.192	0.92
201.412	-0.84
201.632	-0.53
201.851	1.22
202.071	-0.13
202.291	-0.39
202.51	-0.61
202.73	0.79
202.95	-0.35
203.169	-0.36
203.389	0.3
203.608	0.64
203.828	-0.52
204.047	-0.06
204.267	0.39
204.486	0.16
204.706	0.26
204.925	0.41
205.145	-0.07
205.364	0.09
205.583	0.61
205.803	0.04
206.022	-0.4
206.242	0.21
206.461	0.41
206.68	-0.3
206.9	0.32
207.119	0.75
207.338	0.78
207.557	0.12
207.777	-0.16
207.996	-0.43
208.215	0.57
208.434	-0.2
208.654	-0.61
208.873	0.19
209.092	0.54
209.311	-0.13
209.53	0.19
209.749	0.11
209.968	-0.17
210.187	-0.04
210.407	-0.48
210.626	0.02
210.845	0.14
211.064	-0.03
211.283	-0.43
211.502	0.42
211.721	-0.09
211.94	-0.04
212.159	0.08
212.377	0.2
212.596	0.37
212.815	-0.11
213.034	-0.02
213.253	0.25
213.472	0.34
213.691	-0.03
213.91	-0.24
214.128	-0.18
214.347	0.3
214.566	-0.35
214.785	-0.1
215.003	0.37
215.222	0.09
215.441	0.1
215.66	-0.29
215.878	0.06
216.097	0.43
216.316	-0.08
216.534	-0.09
216.753	0.15
216.972	0.16
217.19	-0.11
217.409	-0.19
217.627	-0.01
217.846	-0
218.064	-0.04
218.283	-0.18
218.501	0.7
218.72	0.23
218.938	-0.21
219.157	-0.06
219.375	0.11
219.594	0.19
219.812	-0.16
220.031	-0.24
220.249	0.35
220.467	0.31
220.686	-0.07
220.904	-0.37
221.122	-0.08
221.341	0.34
221.559	-0
221.777	-0.23
221.995	0.03
222.214	0.09
222.432	-0.01
222.65	0.19
222.868	0.02
223.086	0.11
223.305	0.11
223.523	-0.06
223.741	0.25
223.959	-0.24
224.177	-0.22
224.395	-0.14
224.613	0.08
224.831	0.17
225.049	-0.12
225.267	-0.04
225.485	0.19
225.703	-0.01
225.921	-0.04
226.139	-0.02
226.357	0.18
226.575	0.01
226.793	-0.06
227.011	0.58
227.229	0.09
227.447	0.2
227.665	-0.03
227.883	-0.32
228.1	-0.07
228.318	0.17
228.536	-0.25
228.754	-0.03
228.972	0.19
229.189	0.29
229.407	-0.09
229.625	-0.1
229.843	0.28
230.06	0.14
230.278	-0.03
230.496	-0.02
230.713	0.15
230.931	0.22
231.149	0
231.366	-0.22
231.584	-0.03
231.801	0.32
232.019	0.08
232.236	-0.11
232.454	-0.1
232.671	0.07
232.889	-0.02
233.106	-0.18
233.324	-0
233.541	0.02
233.759	0.04
233.976	-0.08
234.194	0.06
234.411	-0.04
234.628	-0.08
234.846	-0.04
235.063	-0.03
235.28	-0.07
235.498	-0.03
235.715	-0.07
235.932	0.13
236.149	0.04
236.367	0.03
236.584	0.08
236.801	-0.1
237.018	0.19
237.236	0.06
237.453	-0.08
237.67	0.09
237.887	0.04
238.104	-0.14
238.321	-0.05
238.538	-0.04
238.755	0.19
238.973	-0.19
239.19	0.08
239.407	0.07
239.624	0.16
239.841	-0.1
240.058	-0.08
240.275	0.18
240.492	-0.01
240.709	0.02
240.925	-0.03
241.142	0.02
241.359	-0.12
241.576	-0.13
241.793	-0.08
242.01	0.03
242.227	0.01
242.444	0.07
242.66	0.17
242.877	-0.06
243.094	0.04
243.311	0.01
243.527	0.01
243.744	0.08
243.961	0.03
244.178	-0
244.394	-0.06
244.611	0.16
244.828	0.1
245.044	-0.05
245.261	0
245.477	0.03
245.694	0.19
245.911	-0.03
246.127	0.08
246.344	0.22
246.56	0.09
246.777	-0.05
246.993	0.06
247.21	0
247.426	0.08
247.643	-0.04
247.859	-0.12
248.076	-0.06
248.292	0.27
248.508	-0.06
248.725	-0.01
248.941	0.09
249.157	0.13
249.374	-0.04
249.59	0.01
249.806	-0.02
250.023	0.19
250.239	-0.05
250.455	-0.02
250.671	0.06
250.888	0.05
251.104	0.1
251.32	0
251.536	0.01
251.752	-0.03
251.969	0.07
252.185	0.14
252.401	0.25
252.617	0.03
252.833	-0.08
253.049	0.02
253.265	-0.01
253.481	-0
253.697	-0.01
253.913	-0
254.129	0.08
254.345	0.08
254.561	0.07
254.777	0.02
254.993	0.03
255.209	0.07
255.425	0
255.641	-0.04
255.857	0.14
256.073	0.01
256.288	-0.09
256.504	-0.02
256.72	0.06
256.936	0.22
257.152	0.04
257.367	-0.07
257.583	0.05
257.799	0.04
258.015	-0.05
258.23	-0.08
258.446	0.13
258.662	0.02
258.877	-0.02
259.093	-0.05
259.309	0.03
259.524	0.07
259.74	-0.12
259.955	-0.04
260.171	0.02
260.387	0.02
260.602	0.07
260.818	0.05
261.033	-0.07
261.249	-0.04
261.464	-0.04
261.68	-0.05
261.895	0.11
262.11	0.06
262.326	0
262.541	-0.11
262.757	0.07
262.972	0.05
263.187	0.06
263.403	0.01
263.618	0.14
263.833	-0.01
264.049	-0.06
264.264	0.09
264.479	0.02
264.694	0.19
264.91	-0.04
265.125	-0.06
265.34	0.11
265.555	0.19
265.77	0.04
265.986	0.02
266.201	0.12
266.416	0.14
266.631	0.05
266.846	0.03
267.061	0.09
267.276	0.16
267.491	-0.09
267.706	0.07
267.921	0.1
268.136	0.07
268.351	0.01
268.566	-0.03
268.781	0.06
268.996	0.11
269.211	0.02
269.426	-0.05
269.641	0.02
269.856	0.13
270.071	-0.02
270.285	-0.08
270.5	0.06
270.715	0.1
270.93	0.05
271.145	0.1
271.359	0.09
271.574	-0.01
271.789	0.01
272.004	-0.05
272.218	-0.05
272.433	0.08
272.648	-0.08
272.862	0.11
273.077	0
273.292	0.02
273.506	-0.03
273.721	0
273.936	0.08
274.15	0.11
274.365	-0.05
274.579	-0.01
274.794	0.07
275.008	0.09
275.223	-0.05
275.437	0.04
275.652	0.06
275.866	0.01
276.081	0.02
276.295	0.1
276.509	0.05
276.724	0.01
276.938	-0.04
277.153	0.07
277.367	0.09
277.581	-0.07
277.796	-0.02
278.01	-0.05
278.224	0.07
278.438	0.11
278.653	-0.02
278.867	-0.05
279.081	0.03
279.295	0.01
279.51	0.03
279.724	-0.05
279.938	0.05
280.152	0.02
280.366	-0.02
280.58	0.04
280.794	0.16
281.008	0.07
281.222	0.04
281.437	0.15
281.651	0.03
281.865	0.08
282.079	0.08
282.293	-0.06
282.507	-0.04
282.721	0.04
282.935	-0.01
283.148	-0.04
283.362	0.01
283.576	-0.07
283.79	0.02
284.004	-0.02
284.218	0.1
284.432	-0.05
284.646	-0.01
284.859	0.01
285.073	0.06
285.287	0.04
285.501	0.01
285.714	0.04
285.928	0.03
286.142	0.08
286.356	-0.03
286.569	-0.01
286.783	0.11
286.997	0.09
287.21	-0.01
287.424	0.06
287.637	0.07
287.851	0.01
288.065	0.07
288.278	-0
288.492	0.06
288.705	0.01
288.919	0.05
289.132	-0.06
289.346	0.08
289.559	-0.02
289.773	-0.03
289.986	0.02
290.2	0.02
290.413	0.07
290.626	0
290.84	0.01
291.053	-0.01
291.267	0.12
291.48	0.04
291.693	0.02
291.906	-0.01
292.12	-0.02
292.333	-0.01
292.546	0.01
292.76	0.13
292.973	0.12
293.186	0.04
293.399	-0.01
293.612	0.07
293.826	0.02
294.039	-0.03
294.252	0.05
294.465	0.07
294.678	0.04
294.891	0.04
295.104	-0.02
295.317	0.01
295.53	0.01
295.743	-0.02
295.956	-0.01
296.169	0.09
296.382	0.04
296.595	0.01
296.808	-0.04
297.021	0.08
297.234	0.11
297.447	0.06
297.66	0.06
297.873	0.08
298.086	0.05
298.299	-0
298.511	-0.04
298.724	0
298.937	-0.05
299.15	0.03
299.363	0.02
299.575	0.09
299.788	0.03
300.001	-0.01
300.213	-0.03
300.426	0.01
300.639	0
300.852	0.01
301.064	0.02
301.277	0.07
301.489	0.08
301.702	0.06
301.915	-0
302.127	0.02
302.34	0.03
302.552	0.06
302.765	0.01
302.977	0.11
303.19	0.02
303.402	-0.01
303.615	0.02
303.827	0.04
304.04	0.01
304.252	0.06
304.464	0.01
304.677	0.11
304.889	0.02
305.102	-0
305.314	-0.06
305.526	0.06
305.739	0.09
305.951	-0.02
306.163	-0
306.375	0.12
306.588	0.02
306.8	0.02
307.012	-0.04
307.224	0.02
307.436	0.05
307.649	-0.05
307.861	0.04
308.073	0.07
308.285	0.04
308.497	-0.03
308.709	0
308.921	0.05
309.133	0.1
309.346	0.03
309.558	0.01
309.77	0.07
309.982	0.12
310.194	0.08
310.406	0.01
310.617	0.13
310.829	0.03
311.041	0.06
311.253	-0.01
311.465	0.03
311.677	0.03
311.889	-0
312.101	-0.01
312.313	0.06
312.524	0.1
312.736	-0.04
312.948	-0
313.16	0.08
313.372	0.03
313.583	0.02
313.795	0.05
314.007	0
314.218	0.05
314.43	0.02
314.642	0
314.853	-0.02
315.065	0.09
315.277	0.03
315.488	0.1
315.7	0.05
315.912	0.09
316.123	0.01
316.335	0.01
316.546	0.12
316.758	0.07
316.969	-0.02
317.181	0.04
317.392	0.01
317.604	0.09
317.815	-0.03
318.026	-0.04
318.238	-0.01
318.449	0.05
318.661	-0.03
318.872	0
319.083	-0.03
319.295	0.06
319.506	-0.01
319.717	0.03
319.929	0.05
320.14	0.06
320.351	0.02
320.562	0.03
320.774	0
320.985	0.07
321.196	0.05
321.407	-0.05
321.618	0.07
321.829	0.07
322.041	0.06
322.252	0.07
322.463	0.03
322.674	0.04
322.885	-0.02
323.096	0.01
323.307	0.05
323.518	0.08
323.729	0.01
323.94	0.05
324.151	0.03
324.362	0.03
324.573	0.02
324.784	0.01
324.995	0.08
325.206	0.03
325.417	0.01
325.628	0.03
325.838	0.07
326.049	0.02
326.26	0.04
326.471	0.02
326.682	0.07
326.892	0.06
327.103	-0.03
327.314	-0.04
327.525	0.11
327.735	0.03
327.946	-0.03
328.157	0.03
328.368	0.04
328.578	-0.01
328.789	0.09
328.999	0.02
329.21	0
329.421	0.08
329.631	0.02
329.842	0
330.052	0.04
330.263	0.04
330.473	0.07
330.684	0.01
330.894	0.03
331.105	0.06
331.315	0.09
331.526	-0
331.736	0.17
331.947	0.08
332.157	0.04
332.367	-0.01
332.578	0.08
332.788	0.09
332.999	0.05
333.209	0.01
333.419	-0.04
333.629	0.05
333.84	0.08
334.05	0.02
334.26	0.09
334.47	0.02
334.681	0.08
334.891	0
335.101	0.06
335.311	0.11
335.521	0.01
335.732	-0.01
335.942	0.08
336.152	0.07
336.362	0.06
336.572	0.06
336.782	0.07
336.992	0
337.202	0.03
337.412	0.03
337.622	0.07
337.832	0.08
338.042	0.04
338.252	0.02
338.462	0.01
338.672	0.06
338.882	0.07
339.092	0.06
339.302	0.08
339.511	0.1
339.721	0.03
339.931	-0.03
340.141	0.1
340.351	0.09
340.561	0.05
340.77	0.05
340.98	0.07
341.19	0.09
341.4	0.05
341.609	0.01
341.819	0.01
342.029	-0.01
342.238	0.09
342.448	0.01
342.658	0.08
342.867	0.06
343.077	0.06
343.286	0.04
343.496	0.04
343.706	0.09
343.915	0
344.125	0.03
344.334	0.04
344.544	0.01
344.753	0.03
344.963	0.01
345.172	-0.04
345.381	0.02
345.591	-0.01
345.8	-0.02
346.01	0.11
346.219	0.08
346.428	-0.06
346.638	0.03
346.847	0.04
347.056	0.09
347.266	-0
347.475	0.06
347.684	0.06
347.893	0.06
348.103	0.07
348.312	0.04
348.521	0.04
348.73	0.05
348.94	0.08
349.149	0.03
349.358	0.05
349.567	0.08
349.776	0.01
349.985	0.03
350.194	0.08
350.403	0.12
350.612	-0.02
350.821	-0
351.03	0.05
351.239	0.01
351.448	0.04
351.657	0.01
351.866	0.13
352.075	0.06
352.284	0.06
352.493	0
352.702	0.1
352.911	0.05
353.12	0.06
353.329	0.05
353.538	0.07
353.746	0.07
353.955	-0.01
354.164	0.06
354.373	0.05
354.582	0.1
354.79	0.04
354.999	0.11
355.208	0.03
355.416	0.09
355.625	0.03
355.834	0.02
356.042	0.05
356.251	0.06
356.46	0
356.668	0.05
356.877	0.17
357.085	0.09
357.294	-0.05
357.503	0.06
357.711	0.04
357.92	0.17
358.128	0.02
358.337	0.07
358.545	0.04
358.754	-0
358.962	0.08
359.17	0.01
359.379	0.1
359.587	0.09
359.796	0.02
360.004	0.06
360.212	0.09
360.421	0.11
360.629	0.06
360.837	0.04
361.046	0.07
361.254	0.19
361.462	0.04
361.67	0.03
361.879	0.06
362.087	0.12
362.295	0.07
362.503	0.03
362.711	-0
362.92	0.03
363.128	0.03
363.336	0.03
363.544	-0.01
363.752	0.04
363.96	0.02
364.168	0.07
364.376	0.09
364.584	0.07
364.792	0.09
365	0.06
365.208	0.08
365.416	0.06
365.624	0.09
365.832	0.04
366.04	0.13
366.248	0.04
366.456	0.07
366.664	0.09
366.872	0.11
367.079	0.04
367.287	0.05
367.495	0.08
367.703	0.05
367.911	0.06
368.118	0.06
368.326	0.08
368.534	0.03
368.742	0.13
368.949	0.02
369.157	0.03
369.365	0.08
369.572	0.02
369.78	0.02
369.988	0.13
370.195	0.1
370.403	0.06
370.61	0.02
370.818	0.07
371.026	0.14
371.233	0.02
371.441	0.11
371.648	0.05
371.856	0.11
372.063	0.09
372.271	0.03
372.478	0.02
372.685	0.04
372.893	0.14
373.1	0.09
373.308	0.05
373.515	0.12
373.722	0.1
373.93	0.03
374.137	0.1
374.344	0.14
374.552	0.09
374.759	0.08
374.966	0.09
375.173	0.05
375.381	0.13
375.588	0.06
375.795	-0.01
376.002	0.06
376.209	0.07
376.417	0.08
376.624	0.07
376.831	0.11
377.038	0.05
377.245	0.04
377.452	0.07
377.659	0.13
377.866	0.08
378.073	0.06
378.28	0.11
378.487	0.1
378.694	0.12
378.901	0.07
379.108	0.09
379.315	0.13
379.522	0.22
379.729	0.12
379.936	0.1
380.143	0.09
380.35	0.12
380.557	0.1
380.763	0.13
380.97	0.1
381.177	0.11
381.384	0.12
381.591	0.1
381.797	0.16
382.004	0.16
382.211	0.16
382.418	0.16
382.624	0.19
382.831	0.22
383.038	0.12
383.244	0.16
383.451	0.17
383.658	0.22
383.864	0.12
384.071	0.14
384.277	0.23
384.484	0.18
384.69	0.25
384.897	0.16
385.103	0.18
385.31	0.2
385.516	0.18
385.723	0.17
385.929	0.23
386.136	0.2
386.342	0.29
386.549	0.2
386.755	0.34
386.961	0.33
387.168	0.31
387.374	0.32
387.58	0.36
387.787	0.36
387.993	0.34
388.199	0.36
388.406	0.37
388.612	0.39
388.818	0.37
389.024	0.4
389.231	0.47
389.437	0.56
389.643	0.54
389.849	0.53
390.055	0.58
390.261	0.61
390.467	0.62
390.674	0.65
390.88	0.68
391.086	0.73
391.292	0.75
391.498	0.83
391.704	0.9
391.91	0.91
392.116	0.93
392.322	0.83
392.528	1.05
392.734	0.99
392.94	1.13
393.146	1.15
393.352	1.23
393.557	1.27
393.763	1.28
393.969	1.42
394.175	1.48
394.381	1.55
394.587	1.52
394.792	1.7
394.998	1.87
395.204	1.99
395.41	1.97
395.615	2.13
395.821	2.24
396.027	2.35
396.233	2.53
396.438	2.58
396.644	2.89
396.85	2.95
397.055	3.09
397.261	3.19
397.466	3.33
397.672	3.42
397.878	3.63
398.083	3.71
398.289	3.88
398.494	3.98
398.7	4.24
398.905	4.27
399.111	4.7
399.316	4.67
399.522	4.8
399.727	5.14
399.932	5.3
400.138	5.37
400.343	5.78
400.549	5.79
400.754	6.16
400.959	6.44
401.165	6.81
401.37	7.03
401.575	7.67
401.78	7.55
401.986	7.81
402.191	8.23
402.396	8.6
402.601	8.87
402.807	9.19
403.012	9.49
403.217	10.15
403.422	10.25
403.627	10.58
403.832	11.04
404.037	11.28
404.243	11.49
404.448	11.84
404.653	12.24
404.858	12.52
405.063	12.36
405.268	12.87
405.473	12.99
405.678	13.21
405.883	14.02
406.088	13.86
406.293	13.94
406.498	14.39
406.703	14.17
406.907	14.67
407.112	15.07
407.317	15.48
407.522	15.61
407.727	15.86
407.932	15.99
408.136	16.35
408.341	15.98
408.546	15.93
408.751	16.14
408.956	15.9
409.16	16.27
409.365	15.98
409.57	15.63
409.774	15.52
409.979	15.56
410.184	15.21
410.388	14.99
410.593	15.07
410.798	14.96
411.002	14.95
411.207	14.56
411.411	14.44
411.616	13.96
411.82	13.92
412.025	13.5
412.229	13.31
412.434	13.03
412.638	12.51
412.843	12.32
413.047	11.97
413.252	11.49
413.456	11.69
413.66	11.27
413.865	10.84
414.069	10.51
414.273	10.31
414.478	9.95
414.682	9.68
414.886	9.6
415.091	9.07
415.295	8.91
415.499	8.9
415.703	8.38
415.908	8.41
416.112	7.91
416.316	7.92
416.52	7.72
416.724	7.39
416.929	7.23
417.133	7.36
417.337	6.97
417.541	6.87
417.745	6.62
417.949	6.47
418.153	6.45
418.357	6.22
418.561	6.28
418.765	5.96
418.969	5.98
419.173	5.88
419.377	5.6
419.581	5.7
419.785	5.62
419.989	5.39
420.193	5.36
420.397	5.25
420.601	5.13
420.804	4.98
421.008	4.76
421.212	4.81
421.416	4.55
421.62	4.31
421.823	4.25
422.027	4.13
422.231	3.95
422.435	3.85
422.638	3.67
422.842	3.48
423.046	3.48
423.249	3.52
423.453	3.23
423.657	3.26
423.86	3.17
424.064	3.09
424.268	3.04
424.471	2.84
424.675	2.95
424.878	2.84
425.082	2.73
425.285	2.73
425.489	2.58
425.692	2.54
425.896	2.36
426.099	2.39
426.303	2.26
426.506	2.22
426.71	2.25
426.913	2.23
427.116	2.16
427.32	2.07
427.523	2.04
427.726	2.11
427.93	1.87
428.133	1.98
428.336	1.84
428.54	1.81
428.743	1.86
428.946	1.92
429.149	1.75
429.353	1.72
429.556	1.66
429.759	1.66
429.962	1.56
430.165	1.57
430.368	1.45
430.571	1.39
430.775	1.41
430.978	1.31
431.181	1.32
431.384	1.31
431.587	1.25
431.79	1.24
431.993	1.23
432.196	1.24
432.399	1.19
432.602	1.25
432.805	1.09
433.008	1.24
433.211	1.17
433.414	1.17
433.616	1.16
433.819	1.06
434.022	1.03
434.225	1.16
434.428	1.06
434.631	1.23
434.833	1.01
435.036	1.02
435.239	0.99
435.442	0.95
435.645	0.97
435.847	0.95
436.05	0.96
436.253	0.96
436.455	0.83
436.658	0.89
436.861	0.93
437.063	0.86
437.266	0.79
437.468	0.85
437.671	0.92
437.874	0.77
438.076	0.74
438.279	0.71
438.481	0.76
438.684	0.71
438.886	0.75
439.089	0.58
439.291	0.68
439.494	0.77
439.696	0.61
439.899	0.68
440.101	0.69
440.303	0.55
440.506	0.69
440.708	0.7
440.91	0.65
441.113	0.61
441.315	0.65
441.517	0.52
441.72	0.67
441.922	0.55
442.124	0.54
442.326	0.56
442.529	0.6
442.731	0.5
442.933	0.6
443.135	0.47
443.337	0.45
443.539	0.5
443.742	0.45
443.944	0.5
444.146	0.44
444.348	0.39
444.55	0.4
444.752	0.42
444.954	0.43
445.156	0.44
445.358	0.38
445.56	0.48
445.762	0.4
445.964	0.4
446.166	0.33
446.368	0.34
446.57	0.45
446.772	0.38
446.974	0.32
447.175	0.37
447.377	0.33
447.579	0.33
447.781	0.24
447.983	0.43
448.184	0.36
448.386	0.33
448.588	0.24
448.79	0.29
448.991	0.3
449.193	0.3
449.395	0.31
449.597	0.37
449.798	0.32
450	0.32
450.202	0.29
450.403	0.26
450.605	0.32
450.806	0.27
451.008	0.18
451.21	0.31
451.411	0.26
451.613	0.22
451.814	0.31
452.016	0.31
452.217	0.25
452.419	0.31
452.62	0.25
452.821	0.27
453.023	0.33
453.224	0.32
453.426	0.28
453.627	0.26
453.828	0.34
454.03	0.29
454.231	0.28
454.432	0.2
454.634	0.36
454.835	0.19
455.036	0.19
455.238	0.25
455.439	0.33
455.64	0.19
455.841	0.22
456.042	0.34
456.244	0.26
456.445	0.2
456.646	0.18
456.847	0.19
457.048	0.28
457.249	0.24
457.45	0.48
457.651	0.18
457.852	0.27
458.054	0.24
458.255	0.2
458.456	0.28
458.657	0.24
458.858	0.16
459.058	0.25
459.259	0.3
459.46	0.23
459.661	0.25
459.862	0.38
460.063	0.18
460.264	0.32
460.465	0.17
460.666	0.37
460.866	0.17
461.067	0.24
461.268	0.22
461.469	0.16
461.67	0.26
461.87	0.15
462.071	0.21
462.272	0.2
462.473	0.22
462.673	0.22
462.874	0.13
463.075	0.2
463.275	0.22
463.476	0.25
463.676	0.21
463.877	0.19
464.078	0.2
464.278	0.25
464.479	0.23
464.679	0.24
464.88	0.22
465.08	0.31
465.281	0.2
465.481	0.17
465.682	0.19
465.882	0.28
466.083	0.18
466.283	0.22
466.483	0.21
466.684	0.15
466.884	0.14
467.085	0.18
467.285	0.23
467.485	0.13
467.686	0.17
467.886	0.16
468.086	0.15
468.286	0.18
468.487	0.24
468.687	0.12
468.887	0.17
469.087	0.21
469.287	0.16
469.488	0.14
469.688	0.22
469.888	0.26
470.088	0.2
470.288	0.21
470.488	0.24
470.688	0.18
470.888	0.17
471.088	0.16
471.288	0.21
471.488	0.15
471.688	0.17
471.888	0.14
472.088	0.21
472.288	0.24
472.488	0.13
472.688	0.11
472.888	0.21
473.088	0.16
473.288	0.16
473.488	0.16
473.688	0.25
473.887	0.19
474.087	0.1
474.287	0.2
474.487	0.13
474.687	0.16
474.886	0.12
475.086	0.14
475.286	0.13
475.486	0.14
475.685	0.15
475.885	0.14
476.085	0.13
476.284	0.16
476.484	0.14
476.684	0.15
476.883	0.19
477.083	0.17
477.282	0.11
477.482	0.22
477.681	0.19
477.881	0.16
478.08	0.06
478.28	0.11
478.479	0.14
478.679	0.21
478.878	0.1
479.078	0.11
479.277	0.15
479.477	0.1
479.676	0.15
479.875	0.09
480.075	0.04
480.274	0.15
480.473	0.14
480.673	0.1
480.872	0.18
481.071	0.11
481.271	0.11
481.47	0.1
481.669	0.11
481.868	0.1
482.067	0.05
482.267	0.1
482.466	0.1
482.665	0.08
482.864	0.07
483.063	0.07
483.262	0.12
483.461	0.17
483.661	0.13
483.86	0.1
484.059	0.08
484.258	0.1
484.457	0.07
484.656	0.11
484.855	0.12
485.054	0.06
485.253	0.1
485.452	0.04
485.651	0.06
485.849	0.07
486.048	0.09
486.247	0.07
486.446	0.09
486.645	0.02
486.844	0.06
487.043	0.07
487.241	0.1
487.44	0.04
487.639	0.07
487.838	0.11
488.037	0.08
488.235	0.14
488.434	0.09
488.633	0.04
488.831	0.08
489.03	0.1
489.229	0.09
489.427	0.06
489.626	0.13
489.825	0.12
490.023	0.07
490.222	0.06
490.42	0.11
490.619	0.13
490.817	0.06
491.016	0.05
491.214	0.11
491.413	0.04
491.611	0.08
491.81	0.08
492.008	0.08
492.207	0.09
492.405	0.08
492.604	0.03
492.802	0.05
493	0.09
493.199	0.06
493.397	0.07
493.595	0.06
493.794	0.05
493.992	0.11
494.19	0.05
494.388	0.09
494.587	0.06
494.785	0.11
494.983	0.02
495.181	0.08
495.379	0.08
495.578	0.03
495.776	0.06
495.974	0.06
496.172	0.06
496.37	0.07
496.568	0.03
496.766	0.06
496.964	0.07
497.162	0.07
497.36	0.03
497.558	0.07
497.756	0.09
497.954	0.05
498.152	0.04
498.35	0.07
498.548	0.04
498.746	0.06
498.944	0.05
499.142	0.06
499.34	0.03
499.538	0.06
499.736	0.04
499.933	0.11
500.131	0.11
500.329	0.07
500.527	0.1
500.725	0.09
500.922	0.08
501.12	0.07
501.318	0.08
501.516	0.03
501.713	0.05
501.911	0.05
502.109	0.04
502.306	0.09
502.504	0.07
502.701	0.04
502.899	0.05
503.097	0.11
503.294	0.06
503.492	0.04
503.689	0.07
503.887	0.09
504.084	0.11
504.282	0.05
504.479	0.05
504.677	0.08
504.874	0.02
505.072	0.05
505.269	0.04
505.466	0.07
505.664	0.06
505.861	0.01
506.059	0.05
506.256	0.07
506.453	0.04
506.651	0.1
506.848	0.08
507.045	0.06
507.242	0.04
507.44	0.03
507.637	0.04
507.834	0.04
508.031	0.07
508.229	0.03
508.426	0.05
508.623	0.07
508.82	0.01
509.017	0.02
509.214	0.04
509.411	0.06
509.608	0.02
509.805	0.04
510.003	0.03
510.2	0.03
510.397	0.07
510.594	0.01
510.791	0.03
510.988	0.01
511.184	0.05
511.381	0.03
511.578	0.01
511.775	0.07
511.972	0.03
512.169	0.06
512.366	0.04
512.563	0.07
512.76	0.02
512.956	0.07
513.153	0.04
513.35	0.04
513.547	0.02
513.744	0.02
513.94	-0
514.137	0.06
514.334	0.07
514.53	0.06
514.727	0.06
514.924	0.09
515.12	0.02
515.317	0
515.514	0.03
515.71	-0.02
515.907	0.03
516.103	0.05
516.3	0.04
516.497	0.06
516.693	0.07
516.89	0.03
517.086	0.01
517.283	0.04
517.479	0.05
517.676	0.02
517.872	0.02
518.068	0.04
518.265	0.02
518.461	0.02
518.658	0.02
518.854	0.03
519.05	0.02
519.247	0
519.443	0.04
519.639	0.03
519.836	0.04
520.032	0.04
520.228	0.04
520.424	0.1
520.621	0.04
520.817	0.03
521.013	0.04
521.209	0.03
521.405	0.05
521.601	0.03
521.798	0.01
521.994	0.07
522.19	-0.01
522.386	0.01
522.582	0.04
522.778	0.03
522.974	0.02
523.17	0.02
523.366	0.02
523.562	0.08
523.758	0.03
523.954	0.02
524.15	0.01
524.346	0.05
524.542	0.01
524.738	0.02
524.934	0.02
525.129	0.02
525.325	0.03
525.521	0.04
525.717	0.05
525.913	0.02
526.109	0.02
526.304	0.05
526.5	0.03
526.696	0.05
526.892	0.01
527.087	0.03
527.283	0
527.479	0.04
527.674	0.01
527.87	0.01
528.066	0.01
528.261	0.05
528.457	0.02
528.653	0.02
528.848	0.02
529.044	0.04
529.239	0.02
529.435	0.04
529.63	0.04
529.826	0.07
530.021	0.03
530.217	0.04
530.412	0
530.608	0
530.803	0.02
530.999	0.04
531.194	-0
531.389	0.01
531.585	-0.03
531.78	0.03
531.975	0.01
532.171	0.04
532.366	0.01
532.561	0.03
532.757	0.01
532.952	0.02
533.147	0.05
533.342	0.02
533.538	0.01
533.733	0.05
533.928	0.02
534.123	0
534.318	-0.01
534.513	0.03
534.709	0.05
534.904	-0
535.099	0.01
535.294	0.03
535.489	0.04
535.684	0.01
535.879	0
536.074	0.03
536.269	-0
536.464	0.01
536.659	0.05
536.854	0.03
537.049	0.04
537.244	0.02
537.439	0
537.634	0.05
537.828	0.04
538.023	0.02
538.218	-0
538.413	-0
538.608	-0.01
538.803	0.04
538.997	-0.01
539.192	0.05
539.387	0.02
539.582	0.03
539.776	0.04
539.971	0.03
540.166	0.01
540.36	-0.02
540.555	0.04
540.75	0.03
540.944	0.01
541.139	-0.01
541.334	0.01
541.528	0.03
541.723	0.04
541.917	-0
542.112	-0.01
542.306	0.01
542.501	0.02
542.695	0.03
542.89	0.02
543.084	0.02
543.279	0.01
543.473	0.01
543.668	0
543.862	0.02
544.056	0.05
544.251	-0
544.445	0.03
544.64	0.01
544.834	-0.02
545.028	0.02
545.222	0.04
545.417	0.03
545.611	0.03
545.805	0.01
546	0
546.194	0.01
546.388	0.01
546.582	0.03
546.776	0.02
546.97	0.02
547.165	0.01
547.359	0.03
547.553	0.01
547.747	0.02
547.941	0.04
548.135	0.01
548.329	0.03
548.523	0.02
548.717	0.01
548.911	-0.01
549.105	0.01
549.299	0.03
549.493	0.05
549.687	0.04
549.881	0.03
550.075	-0
550.269	-0
550.463	0.03
550.657	-0.01
550.85	0.02
551.044	-0.01
551.238	0.03
551.432	-0.01
551.626	-0.02
551.82	-0.01
552.013	-0
552.207	0.03
552.401	0.03
552.594	0.02
552.788	0.02
552.982	0
553.176	-0
553.369	0.04
553.563	0.02
553.756	0.02
553.95	0
554.144	0.02
554.337	0.05
554.531	0.01
554.724	0.03
554.918	0.03
555.111	0.04
555.305	0.02
555.498	0.06
555.692	0.01
555.885	0.01
556.079	0.02
556.272	0.01
556.466	0.04
556.659	0.02
556.852	0
557.046	0.01
557.239	0.04
557.432	-0
557.626	0.01
557.819	0.01
558.012	0.05
558.206	0.01
558.399	0.03
558.592	0.05
558.785	0
558.979	0.03
559.172	0.03
559.365	0.05
559.558	0.02
559.751	0.02
559.944	-0.01
560.138	0.02
560.331	-0
560.524	0.01
560.717	0.01
560.91	0.01
561.103	0.04
561.296	0.01
561.489	0.02
561.682	0.01
561.875	0.04
562.068	0.03
562.261	0.01
562.454	0.06
562.647	0.03
562.84	0.03
563.032	0.03
563.225	0.02
563.418	-0.01
563.611	0.01
563.804	0.02
563.997	-0.04
564.19	-0.01
564.382	0.01
564.575	0.02
564.768	-0
564.961	0.02
565.153	-0
565.346	0.04
565.539	0.03
565.731	0.03
565.924	0.04
566.117	0.06
566.309	0.02
566.502	0
566.695	0.02
566.887	0.03
567.08	-0.01
567.272	0.01
567.465	-0.01
567.657	0.01
567.85	0
568.042	0.02
568.235	0.02
568.427	-0
568.62	0.04
568.812	0.03
569.005	-0
569.197	-0.03
569.389	-0
569.582	0.01
569.774	0.01
569.966	-0.02
570.159	-0.02
570.351	0.03
570.543	-0.02
570.736	-0
570.928	-0.01
571.12	0.02
571.312	-0
571.505	-0.03
571.697	0.06
571.889	-0.03
572.081	-0.01
572.273	-0.01
572.465	0.04
572.658	0.01
572.85	0
573.042	0.01
573.234	-0.01
573.426	0.05
573.618	-0.02
573.81	0.03
574.002	0.05
574.194	0.04
574.386	-0.03
574.578	-0.05
574.77	-0.01
574.962	0.01
575.154	-0.03
575.346	0
575.538	0.04
575.729	-0.01
575.921	0.01
576.113	0
576.305	0.01
576.497	0.02
576.689	-0.02
576.88	-0.02
577.072	0.03
577.264	-0
577.456	0.01
577.647	-0.04
577.839	0.02
578.031	0.04
578.223	-0.02
578.414	-0.02
578.606	0.04
578.798	-0
578.989	-0.01
579.181	-0.01
579.372	0.01
579.564	-0.01
579.755	0
579.947	-0
580.139	0.01
580.33	-0.04
580.522	-0.01
580.713	-0.05
580.905	0.01
581.096	0.03
581.287	0.01
581.479	0.01
581.67	0.03
581.862	0.02
582.053	-0.01
582.244	-0.03
582.436	0
582.627	0.01
582.818	-0.01
583.01	-0.03
583.201	0.03
583.392	0.03
583.583	0.01
583.775	-0.01
583.966	-0.04
584.157	-0.01
584.348	0
584.54	-0.03
584.731	0.03
584.922	-0
585.113	-0
585.304	0.03
585.495	0.03
585.686	0.01
585.877	0.01
586.068	0.03
586.259	0.02
586.45	0.01
586.641	-0.02
586.832	-0.06
587.023	0.02
587.214	0.02
587.405	0.01
587.596	-0.02
587.787	0.04
587.978	0.01
588.169	-0.01
588.36	-0.03
588.551	0.02
588.742	-0.02
588.932	0.01
589.123	-0.01
589.314	0.04
589.505	0.02
589.696	0.03
589.886	-0.04
590.077	-0.03
590.268	0.03
590.458	-0.04
590.649	-0.03
590.84	0.06
591.03	-0
591.221	-0.03
591.412	-0.04
591.602	0.03
591.793	0.03
591.984	-0.04
592.174	0
592.365	0.09
592.555	0
592.746	0.01
592.936	0.01
593.127	0.02
593.317	0.04
593.508	-0.01
593.698	-0.02
593.889	-0.02
594.079	0
594.269	-0.02
594.46	-0
594.65	-0
594.84	0.01
595.031	-0.02
595.221	-0.01
595.411	-0.05
595.602	0.04
595.792	-0.03
595.982	-0.02
596.172	0.04
596.363	0.01
596.553	0.01
596.743	0.02
596.933	0.02
597.123	0.04
597.314	-0.01
597.504	-0.02
597.694	0.04
597.884	0.04
598.074	-0
598.264	-0
598.454	0.01
598.644	0.01
598.834	-0.03
599.024	-0.05
599.214	-0.02
599.404	0.03
599.594	-0.02
599.784	-0.01
599.974	0.05
600.164	0.02
600.354	-0.04
600.544	-0.05
600.734	0.03
600.924	0.03
601.114	-0.01
601.303	0.01
601.493	0
601.683	-0.03
601.873	0.01
602.063	-0.03
602.252	0.04
602.442	-0.05
602.632	-0.04
602.821	-0.05
603.011	0.01
603.201	0.01
603.39	-0.03
603.58	-0.04
603.77	0.02
603.959	0.05
604.149	0.01
604.339	-0.02
604.528	0.04
604.718	0.03
604.907	0
605.097	-0.02
605.286	-0.04
605.476	0.02
605.665	0.02
605.855	-0.02
606.044	0.05
606.234	0.03
606.423	-0.01
606.612	-0.04
606.802	0.01
606.991	0.06
607.181	-0
607.37	-0.05
607.559	0
607.749	-0.04
607.938	-0.02
608.127	-0.02
608.316	-0
608.506	0.04
608.695	-0.02
608.884	-0.03
609.073	0.01
609.263	0.02
609.452	0.03
609.641	0
609.83	-0.04
610.019	-0.02
610.208	-0.03
610.397	-0
610.586	0.02
610.775	-0.01
610.965	-0.01
611.154	-0.03
611.343	0.01
611.532	0.02
611.721	-0.04
611.91	-0.02
612.099	0.03
612.287	-0.01
612.476	-0.06
612.665	-0.01
612.854	0
613.043	0.05
613.232	-0.02
613.421	-0.06
613.61	0
613.798	-0.05
613.987	0.05
614.176	-0.01
614.365	0.03
614.554	-0.02
614.742	0.03
614.931	-0.02
615.12	0.05
615.309	-0.03
615.497	-0
615.686	-0.03
615.875	-0
616.063	0.01
616.252	-0.02
616.44	-0.01
616.629	0.01
616.818	0.05
617.006	0
617.195	-0.01
617.383	0.02
617.572	0.03
617.76	-0.01
617.949	-0.01
618.137	0.02
618.326	-0.01
618.514	-0.04
618.703	-0.03
618.891	0.03
619.079	-0.02
619.268	0.01
619.456	-0.03
619.644	0.04
619.833	-0.01
620.021	-0.03
620.209	-0.06
620.398	0.02
620.586	0.02
620.774	0.02
620.962	0
621.151	0.06
621.339	-0
621.527	-0.03
621.715	-0.05
621.903	-0.01
622.092	0
622.28	0
622.468	-0.02
622.656	-0.03
622.844	-0
623.032	-0.03
623.22	-0.03
623.408	0.05
623.596	0.02
623.784	0.04
623.972	-0.05
624.16	0.03
624.348	0.04
624.536	-0.04
624.724	0
624.912	0.04
625.1	0.04
625.288	-0.06
625.476	-0
625.664	0.02
625.851	0
626.039	-0.04
626.227	0.03
626.415	-0.03
626.603	-0.06
626.79	0
626.978	-0.03
627.166	0.01
627.354	0.03
627.541	-0.03
627.729	-0.06
627.917	0.04
628.104	0.06
628.292	0.02
628.48	0.01
628.667	0.01
628.855	-0
629.042	0.01
629.23	-0.03
629.418	-0.01
629.605	-0.02
629.793	-0.02
629.98	-0.01
630.168	-0.01
630.355	-0.03
630.543	-0.02
630.73	-0.04
630.917	0.02
631.105	0.05
631.292	-0.01
631.48	-0.04
631.667	0.08
631.854	-0.03
632.042	0.01
632.229	-0.07
632.416	-0
632.604	-0.01
632.791	-0.02
632.978	0.02
633.165	0.01
633.353	0.05
633.54	0.02
633.727	-0.1
633.914	-0.02
634.101	-0.08
634.289	0.03
634.476	-0
634.663	-0.05
634.85	0
635.037	-0.01
635.224	-0.06
635.411	0.01
635.598	0.03
635.785	0.01
635.972	0
636.159	0.03
636.346	-0.01
636.533	-0.01
636.72	-0.01
636.907	-0.03
637.094	-0
637.281	-0.01
637.468	0.02
637.655	-0.01
637.842	-0.02
638.029	-0.03
638.215	0.04
638.402	-0
638.589	-0.01
638.776	-0.04
638.963	-0.01
639.149	0.04
639.336	0.04
639.523	-0.02
639.709	-0
639.896	-0
640.083	0.08
640.27	0.01
640.456	-0.02
640.643	0
640.829	-0.05
641.016	-0.02
641.203	-0.06
641.389	0.02
641.576	0.04
641.762	-0.01
641.949	-0.03
642.135	0.01
642.322	-0.01
642.508	-0.05
642.695	-0.03
642.881	-0.02
643.068	-0.03
643.254	-0.01
643.441	0.01
643.627	-0.05
643.813	-0.05
644	0.02
644.186	-0.03
644.372	-0.01
644.559	0.03
644.745	-0.01
644.931	-0.03
645.118	-0.03
645.304	-0
645.49	-0.04
645.676	-0.04
645.862	0.02
646.049	0.07
646.235	-0.01
646.421	0.08
646.607	0.07
646.793	-0.03
646.979	-0.05
647.165	-0
647.352	-0
647.538	0.01
647.724	-0.03
647.91	0
648.096	0.01
648.282	0.03
648.468	-0
648.654	-0.01
648.84	-0
649.026	-0
649.212	-0.03
649.397	-0.01
649.583	-0.03
649.769	0
649.955	-0.01
650.141	0
650.327	0.05
650.513	-0.04
650.698	0
650.884	-0.06
651.07	0.01
651.256	-0.01
651.442	-0.02
651.627	-0.02
651.813	-0.02
651.999	-0.02
652.184	-0
652.37	-0.01
652.556	-0.02
652.741	0.05
652.927	-0.08
653.113	-0.03
653.298	-0.04
653.484	0
653.669	-0.05
653.855	-0.02
654.04	0.02
654.226	0.03
654.412	-0.01
654.597	-0.07
654.782	0.01
654.968	0.04
655.153	0
655.339	-0.04
655.524	-0.03
655.71	0.01
655.895	-0.02
656.08	-0.03
656.266	0.01
656.451	-0
656.636	-0.02
656.822	-0.01
657.007	-0.04
657.192	-0.04
657.378	-0.06
657.563	-0.01
657.748	0.01
657.933	-0.01
658.118	-0.03
658.304	-0.03
658.489	0.03
658.674	-0.02
658.859	-0.04
659.044	-0.03
659.229	0.01
659.414	-0.02
659.599	-0.02
659.785	-0.05
659.97	-0.02
660.155	0.04
660.34	0.02
660.525	-0.04
660.71	-0.05
660.895	0.02
661.08	-0.04
661.264	-0.01
661.449	0.04
661.634	0.03
661.819	0.01
662.004	0.02
662.189	-0.1
662.374	-0.06
662.559	-0.04
662.743	-0.04
662.928	-0.01
663.113	-0.05
663.298	-0.07
663.483	-0.05
663.667	-0
663.852	-0.06
664.037	0.04
664.221	-0.03
664.406	0
664.591	0.05
664.775	-0
664.96	-0.05
665.145	-0.01
665.329	0
665.514	-0.04
665.698	-0.02
665.883	-0.04
666.068	0.07
666.252	-0.02
666.437	-0.04
666.621	-0
666.806	0.04
666.99	-0.05
667.174	-0.08
667.359	0.05
667.543	-0.06
667.728	-0.01
667.912	-0.06
668.096	0
668.281	-0.03
668.465	-0.04
668.649	-0
668.834	-0.04
669.018	-0.03
669.202	-0.05
669.387	-0.04
669.571	0.04
669.755	-0.07
669.939	-0
670.124	-0.01
670.308	0.01
670.492	0.02
670.676	-0.02
670.86	-0.01
671.044	-0.04
671.228	0.05
671.413	-0.03
671.597	-0.03
671.781	-0.02
671.965	0.02
672.149	-0.04
672.333	0
672.517	-0.04
672.701	0.01
672.885	-0.01
673.069	-0.09
673.253	0.02
673.437	-0.06
673.621	-0.05
673.804	0.02
673.988	-0.01
674.172	-0
674.356	-0.06
674.54	-0.06
674.724	0.1
674.908	-0.01
675.091	-0.01
675.275	-0.05
675.459	0.07
675.643	0.06
675.826	0.03
676.01	-0.01
676.194	-0.02
676.377	0.05
676.561	0.01
676.745	0.02
676.928	0.04
677.112	0.05
677.296	-0.07
677.479	-0.04
677.663	-0.04
677.846	-0
678.03	-0.01
678.213	-0.05
678.397	0.01
678.58	-0.01
678.764	-0.03
678.947	-0.06
679.131	-0.03
679.314	0.01
679.498	-0.03
679.681	-0.01
679.865	0.06
680.048	-0.03
680.231	-0.01
680.415	-0.02
680.598	-0.03
680.781	-0.01
680.965	-0.05
681.148	-0.02
681.331	-0.01
681.514	-0.02
681.698	-0.03
681.881	-0
682.064	-0.02
682.247	-0.04
682.43	-0.07
682.614	-0.01
682.797	0.02
682.98	0.02
683.163	-0.07
683.346	0.05
683.529	-0.06
683.712	-0.05
683.895	0
684.078	-0.04
684.261	-0.07
684.444	0.02
684.627	-0.02
684.81	-0.05
684.993	-0.07
685.176	-0.03
685.359	-0.07
685.542	-0.06
685.725	0.02
685.908	-0.01
686.091	-0.01
686.274	-0
686.457	-0.01
686.639	-0.02
686.822	0.01
687.005	-0
687.188	0.03
687.371	0.05
687.553	-0.01
687.736	-0.03
687.919	0.08
688.102	0.05
688.284	-0.08
688.467	0
688.65	-0.01
688.832	-0.02
689.015	-0.02
689.197	-0.07
689.38	0.08
689.563	0.12
689.745	-0.08
689.928	-0.04
690.11	-0.04
690.293	0.03
690.475	-0.04
690.658	-0
690.84	-0.02
691.023	-0.02
691.205	-0.02
691.388	-0.01
691.57	0.02
691.752	0.02
691.935	-0.11
692.117	-0
692.3	0.02
692.482	-0.01
692.664	-0.01
692.847	0.02
693.029	0.09
693.211	-0.01
693.393	-0.01
693.576	-0.11
693.758	0.02
693.94	-0.03
694.122	-0
694.304	-0.01
694.487	-0.03
694.669	0.06
694.851	-0.09
695.033	-0.06
695.215	-0.05
695.397	-0.05
695.579	-0.04
695.761	-0.07
695.943	-0.06
696.125	0.07
696.308	0.02
696.49	-0.11
696.671	0.11
696.853	-0.05
697.035	0.11
697.217	0.01
697.399	0.07
697.581	-0.07
697.763	-0.04
697.945	-0.06
698.127	-0.02
698.309	0.07
698.491	0.01
698.672	0.03
698.854	0.11
699.036	0.03
699.218	-0.11
699.399	0.05
699.581	0.04
699.763	-0.01
699.945	-0.06
700.126	-0.13
700.308	-0.02
700.49	-0.11
700.671	-0.09
700.853	-0.06
701.035	-0.08
701.216	-0
701.398	-0.05
701.579	-0.01
701.761	0.04
701.943	-0.06
702.124	-0.08
702.306	-0.01
702.487	0.13
702.669	-0.02
702.85	-0.06
703.031	-0.07
703.213	0.11
703.394	0.04
703.576	-0.07
703.757	0.04
703.938	0.02
704.12	0.21
704.301	-0.04
704.483	-0.07
704.664	0.03
704.845	0.06
705.026	0.06
705.208	-0.01
705.389	0.04
705.57	0.06
705.751	-0.03
705.933	-0.02
706.114	0.12
706.295	0.02
706.476	-0.11
706.657	0.1
706.838	-0.03
707.02	0.04
707.201	-0.07
707.382	-0.07
707.563	0.02
707.744	-0.01
707.925	-0.05
708.106	-0.1
708.287	0.05
708.468	0.08
708.649	-0.02
708.83	-0
709.011	-0.02
709.192	0.03
709.373	-0.07
709.554	-0.05
709.734	0.03
709.915	0.06
710.096	-0.09
710.277	-0.16
710.458	-0
710.639	-0.01
710.819	-0.13
711	0.03
711.181	0
711.362	0.05
711.542	-0.05
711.723	0.01
711.904	0.09
712.085	0.09
712.265	-0.02
712.446	-0.08
712.627	-0.06
712.807	-0.07
712.988	0.03
713.168	-0.13
713.349	0.02
713.53	-0.15
713.71	-0.09
713.891	-0.11
714.071	-0.02
714.252	-0.08
714.432	-0.05
714.613	-0.1
714.793	-0.03
714.974	0.05
715.154	0.09
715.334	-0.04
715.515	0.07
715.695	-0.12
715.876	-0.07
716.056	0.02
716.236	-0.06
716.417	-0.06
716.597	-0.06
716.777	0.14
716.957	-0.03
717.138	-0.04
717.318	-0.05
717.498	-0.13
717.678	-0
717.859	0
718.039	-0.07
718.219	-0.03
718.399	0.06
718.579	-0.11
718.759	-0.1
718.939	0
719.12	0.03
719.3	0.04
719.48	-0.1
719.66	-0.18
719.84	0.13
720.02	-0.02
720.2	-0.08
720.38	0.05
720.56	0.08
720.74	-0.05
720.92	-0.05
721.1	0.02
721.279	0.06
721.459	0.01
721.639	-0.15
721.819	0.07
721.999	-0.01
722.179	0.05
722.359	-0.14
722.538	0.01
722.718	-0
722.898	-0.06
723.078	-0.05
723.257	-0.1
723.437	0.04
723.617	-0.07
723.797	-0.05
723.976	-0.01
724.156	0.08
724.336	0.09
724.515	0.13
724.695	-0.22
724.874	-0.07
725.054	0.01
725.234	-0.13
725.413	-0.04
725.593	-0.02
725.772	-0.04
725.952	-0.05
726.131	-0.06
726.311	-0.11
726.49	-0.04
726.67	-0.08
726.849	-0.08
727.028	0
727.208	-0.02
727.387	0.09
727.567	-0.09
727.746	0.02
727.925	-0.05
728.105	-0.1
728.284	-0.08
728.463	-0.07
728.643	0.06
728.822	-0.15
729.001	-0.05
729.18	0.07
729.359	-0.03
729.539	-0.03
729.718	-0.03
729.897	-0.01
730.076	-0
730.255	-0.12
730.434	0.02
730.614	0
730.793	0.1
730.972	-0.07
731.151	0.04
731.33	0.08
731.509	0.05
731.688	-0.02
731.867	-0.02
732.046	-0.19
732.225	0.21
732.404	-0.13
732.583	-0.11
732.762	-0.04
732.941	0.01
733.12	0.01
733.298	-0.08
733.477	0.09
733.656	0
733.835	-0.01
734.014	0.07
734.193	-0.07
734.371	0.01
734.55	0.06
734.729	-0.11
734.908	-0
735.086	0.04
735.265	0.02
735.444	-0.21
735.623	-0.19
735.801	-0.12
735.98	-0.04
736.159	-0.04
736.337	0.1
736.516	-0.03
736.694	-0.07
736.873	-0
737.052	0.1
737.23	0.13
737.409	-0.13
737.587	0.17
737.766	-0.15
737.944	-0.05
738.123	-0.05
738.301	-0.03
738.479	-0.05
738.658	-0.02
738.836	-0.23
739.015	0.04
739.193	0.09
739.371	-0.17
739.55	0
739.728	-0.19
739.906	0.1
740.085	0.18
740.263	-0.01
740.441	-0.24
740.62	0.19
740.798	0.1
740.976	-0.06
741.154	-0.14
741.332	0.09
741.511	-0.07
741.689	0.09
741.867	0.07
742.045	-0.02
742.223	-0.04
742.401	-0.22
742.579	-0.04
742.757	0.11
742.935	-0.1
743.114	-0.06
743.292	-0.14
743.47	0.02
743.648	-0.03
743.826	-0.01
744.004	0.04
744.181	0.15
744.359	-0.13
744.537	0.1
744.715	0.04
744.893	0.02
745.071	0.06
745.249	-0.1
745.427	-0.03
745.605	0
745.782	0.09
745.96	0.05
746.138	0.06
746.316	0.09
746.493	-0
746.671	0.06
746.849	-0.08
747.027	0.13
747.204	-0.06
747.382	0.01
747.56	-0.18
747.737	0
747.915	-0.17
748.093	0.04
748.27	-0.08
748.448	-0.09
748.625	-0.13
748.803	-0.19
748.98	-0.08
749.158	-0.09
749.335	0.11
749.513	0.01
749.69	-0.06
749.868	-0.11
750.045	0.12
750.223	-0.05
750.4	-0.22
750.578	0.13
750.755	0.05
750.932	-0.24
751.11	0.06
751.287	-0.22
751.464	0.15
751.642	-0.06
751.819	-0.03
751.996	-0.01
752.173	-0.08
752.351	-0.21
752.528	-0.08
752.705	-0.13
752.882	-0.03
753.06	0.02
753.237	0.09
753.414	0.09
753.591	0.22
753.768	-0.02
753.945	-0.08
754.122	-0.15
754.299	0.07
754.476	-0.02
754.654	-0.03
754.831	0.01
755.008	0.13
755.185	-0.05
755.362	-0.17
755.539	-0.07
755.716	-0.08
755.892	0.02
756.069	-0.03
756.246	-0.05
756.423	-0.04
756.6	0.14
756.777	-0
756.954	0
757.131	0.03
757.307	-0.14
757.484	-0.09
757.661	-0.02
757.838	-0.01
758.015	-0.08
758.191	0.03
758.368	0.02
758.545	0.15
758.721	0.14
758.898	-0.13
759.075	0.04
759.251	0.13
759.428	0.09
759.605	-0.12
759.781	-0
759.958	0.08
760.134	0.01
760.311	-0.07
760.488	0.14
760.664	0.2
760.841	-0.04
761.017	-0.17
761.194	0.01
761.37	0.11
761.547	0.06
761.723	-0.05
761.899	0
762.076	-0.06
762.252	-0.14
762.429	-0.07
762.605	0.08
762.781	-0.06
762.958	0.07
763.134	-0.04
763.31	-0.16
763.486	0.09
763.663	-0.23
763.839	0
764.015	-0.22
764.191	-0.19
764.368	-0.07
764.544	-0.1
764.72	-0.1
764.896	0.02
765.072	0.07
765.248	-0.11
765.425	-0.07
765.601	0.02
765.777	-0
765.953	-0.18
766.129	-0.09
766.305	-0.13
766.481	0.01
766.657	-0.01
766.833	0.15
767.009	-0.08
767.185	-0.15
767.361	-0.14
767.537	-0.08
767.713	0.16
767.889	-0.04
768.065	-0.04
768.24	-0.21
768.416	0.08
768.592	-0.03
768.768	-0.08
768.944	0.14
769.12	-0.23
769.295	-0.11
769.471	-0.06
769.647	-0.04
769.823	0.12
769.998	-0.14
770.174	-0.11
770.35	0.23
770.525	0.15
770.701	0.07
770.877	0.05
771.052	-0
771.228	0.25
771.403	0.01
771.579	-0
771.755	0.37
771.93	-0.14
772.106	-0.12
772.281	-0.23
772.457	-0.01
772.632	-0.09
772.808	-0.2
772.983	-0.11
773.159	-0
773.334	0.21
773.509	-0.04
773.685	-0.13
773.86	0.27
774.036	0.1
774.211	-0.04
774.386	-0.11
774.562	0.03
774.737	0.06
774.912	-0.17
775.087	0.06
775.263	-0.11
775.438	0.05
775.613	-0.13
775.788	-0.25
775.964	0.02
776.139	0.39
776.314	-0.08
776.489	-0.08
776.664	-0.04
776.839	-0.06
777.014	0.17
777.19	0.17
777.365	0.08
777.54	0.19
777.715	-0.17
777.89	-0.06
778.065	-0.06
778.24	-0.03
778.415	0.02
778.59	-0.23
778.765	-0.05
778.94	-0.04
779.115	-0.17
779.289	-0.03
779.464	-0.15
779.639	-0.06
779.814	-0.22
779.989	-0.33
780.164	0.19
780.339	-0.05
780.513	-0.15
780.688	-0.2
780.863	-0.09
781.038	0.15
781.212	-0.23
781.387	-0.11
781.562	0.21
781.737	0.06
781.911	0.15
782.086	-0.12
782.261	-0.02
782.435	0.07
782.61	-0.22
782.784	-0.08
782.959	0.18
783.134	0.01
783.308	-0.22
783.483	-0.2
783.657	0.39
783.832	0.13
784.006	-0.3
784.181	-0.17
784.355	0.13
784.53	0.03
784.704	-0.2
784.878	0.12
785.053	0.16
785.227	0.09
785.402	0.18
785.576	-0.26
785.75	0.04
785.925	-0.24
786.099	-0.01
786.273	0.04
786.448	0.03
786.622	0.15
786.796	-0.12
786.97	-0.11
787.145	0.4
787.319	-0.14
787.493	-0.12
787.667	-0.35
787.841	-0.09
788.015	0.2
788.19	-0.26
788.364	-0.07
788.538	-0
788.712	0.17
788.886	0.01
789.06	0.1
789.234	0.13
789.408	-0.11
789.582	-0.03
789.756	-0.13
789.93	-0.13
790.104	-0.29
790.278	-0.31
790.452	-0.41
790.626	0
790.8	-0.04
790.973	0.18
791.147	0.24
791.321	0.3
791.495	0.11
791.669	-0.01
791.843	0.06
792.016	-0
792.19	0.51
792.364	-0.26
792.538	0.48
792.711	0.3
792.885	0.07
793.059	-0.11
793.233	-0.56
793.406	0.27
793.58	-0.07
793.754	0.11
793.927	-0.04
794.101	0.09
794.274	-0
794.448	0.19
794.622	-0.36
794.795	0.47
794.969	-0.18
795.142	0.25
795.316	-0.18
795.489	-0.11
795.663	0.34
795.836	-0.09
796.009	-0.51
796.183	0.61
796.356	-0.06
796.53	-0
796.703	-0.27
796.876	0.58
797.05	-0.22
797.223	0.23
797.396	-0.14
797.57	0.11
797.743	0.4
797.916	-0.03
798.09	-0.23
798.263	0.31
798.436	0.06
798.609	-0.14
798.782	-0.15
798.956	-0.06
799.129	-0.09
799.302	-0.1
799.475	-0.17
799.648	-0.29
799.821	-0.35
799.994	-0.09
800.167	-0.62
800.34	-0.04
800.514	0.12
800.687	-0.21
800.86	-0.37
801.033	0.08
801.206	-0.1
801.379	-0.51
801.551	0.01
801.724	-0.07
801.897	0.35
802.07	0.05
802.243	-0.44
802.416	-0.01
802.589	-0.29
802.762	0.25
802.935	-0.14
803.107	0.17
803.28	0.59
803.453	-0.11
803.626	-0.11
803.798	-0.32
803.971	-0.31
804.144	-0.02
804.317	0.12
804.489	0.27
804.662	-0.19
804.835	0.05
805.007	-0.33
805.18	-0.03
805.353	0.01
805.525	-0.22
805.698	-0.07
805.87	0.17
806.043	0.14
806.215	-0.17
806.388	-0.36
806.56	0.12
806.733	0.6
806.905	-0.28
807.078	-0.11
807.25	-0.31
807.423	0.2
807.595	-0.09
807.768	-0.06
807.94	0.47
808.112	0.14
808.285	-0.12
808.457	-0.35
808.629	-0.12
808.802	-0.03
808.974	-0.06
809.146	-0.39
809.318	-0.42
809.491	-0.3
809.663	0.07
809.835	-0.19
810.007	0.2
810.18	0.02
810.352	-0.46
810.524	-0.32
810.696	-0.11
810.868	0.16
811.04	-0.13
811.212	-0.37
811.384	0.19
811.556	0.06
811.728	-0.09
811.901	0.45
812.073	-0.17
812.245	-0.21
812.417	-0.38
812.589	-0.73
812.76	-0.13
812.932	0.12
813.104	0.37
813.276	-0.08
813.448	0.19
813.62	-0.04
813.792	0.43
813.964	-0.43
814.136	0.42
814.307	-0.29
814.479	-0.49
814.651	-0.42
814.823	0.89
814.995	0.39
815.166	-0.16
815.338	-0.04
815.51	-0.68
815.681	1.31
815.853	0.03
816.025	-0.39
816.196	0.43
816.368	-0.06
816.54	-0.34
816.711	-0.26
816.883	0.28
817.054	1.27
817.226	-0.55
817.398	0.48
817.569	-0.48
817.741	-0.12
817.912	-0.04
818.084	-0.18
818.255	-0.01
818.426	-0.57
818.598	-0.26
818.769	-0.4
818.941	0.2
819.112	0.43
819.283	0.08
819.455	-0.58
819.626	-0.03
819.798	0.42
819.969	0.02
820.14	0.1
820.311	-0.06
820.483	0.09
820.654	-0.04
820.825	0.09
820.996	-0.35
821.168	-0.46
821.339	-0.19
821.51	-0.66
821.681	-0.28
821.852	-0.3
822.023	-0.17
822.195	-0.39
822.366	0.42
822.537	-0.11
822.708	-0.07
822.879	-0.37
823.05	0.77
823.221	-0.31
823.392	0.2
823.563	-0.04
823.734	-0.18
823.905	-0.3
824.076	-0.25
824.247	-0.56
824.418	-0.2
824.589	0.51
824.759	-0.45
824.93	-0.44
825.101	-0.82
825.272	0.21
825.443	0.58
825.614	0.4
825.784	-1.14
825.955	0.79
826.126	0.65
826.297	-0.38
826.467	0.75
826.638	0.4
826.809	-0.82
826.98	-0.18
827.15	0.16
827.321	0.13
827.492	0.45
827.662	-0.44
827.833	0.74
828.003	0.8
828.174	-0.79
828.345	-0.34
828.515	0.02
828.686	-0.13
828.856	-0.83
829.027	-0.46
829.197	-0.13
829.368	0.54
829.538	-0.32
829.709	-0.4
829.879	0.56
830.049	-0.08
830.22	-0.47
830.39	-0.36
830.56	0.57
830.731	-0.17
830.901	-0.32
831.072	-0.27
831.242	-0.02
831.412	-0.03
831.582	-0.15
831.753	-0.72
831.923	0.17
832.093	0.04
832.263	-0.15
832.434	-1.3
832.604	-0.28
832.774	0.12
832.944	-0.67
833.114	-0.71
833.284	-0.21
833.454	-0.74
833.624	-0.45
833.795	-0.5
833.965	0.48
834.135	0.8
834.305	-0.95
834.475	-0.75
834.645	-0.16
834.815	-0.33
834.985	-1.16
835.155	-1.07
835.325	-0.18
835.494	-0.11
835.664	-0.27
835.834	-0.85
836.004	-0.61
836.174	-0.13
836.344	-0.48
836.514	-0.46
836.684	-0.32
836.853	-0.91
837.023	0.21
837.193	-0.96
837.363	-0.4
837.532	0.11
837.702	-0.47
837.872	-0.66
838.041	0.34
838.211	0.75
838.381	-0.87
838.55	-0.18
838.72	1.43
838.89	1.07
839.059	0.07
839.229	-0.29
839.398	0.84
839.568	0.48
839.738	-0.29
839.907	0.98
840.077	-0.11
840.246	-1.03
840.416	-1.17
840.585	-0.67
840.755	0.87
840.924	0.93
841.093	-1.15
841.263	-0.31
841.432	-0.66
841.602	-0.69
841.771	-0.54
841.94	-0.33
842.11	1.73
842.279	1.41
842.448	-1
842.617	-0.58
842.787	0.25
842.956	-0.63
843.125	-0.06
843.294	-0.49
843.464	1.09
843.633	-0.3
843.802	-0.95
843.971	-0.47
844.14	-0.25
844.309	0.3
844.479	-0.67
844.648	-1.74
844.817	-0.08
844.986	0.15
845.155	-0.84
845.324	-0.67
845.493	-0.69
845.662	-0.48
845.831	0.01
846	0.88
846.169	-0.77
846.338	1.34
846.507	-0.18
846.676	-0.21
846.844	-1.09
847.013	0.7
847.182	-0.47
847.351	-0.87
847.52	-0.52
847.689	0.17
847.858	-0.22
848.026	-0.86
848.195	0.2
848.364	-1.49
848.533	-1.07
848.701	-0.16
848.87	-0.04
849.039	0.95
849.207	0.51
849.376	0.59
849.545	1.2
849.713	-0.41
849.882	-0.09
850.051	0.38
850.219	0.06
850.388	0.56
850.556	-1.28
850.725	-1.26
850.893	0.43
851.062	-0.78
851.23	0.66
851.399	-1.17
851.567	-1.07
851.736	-0.69
851.904	-0.93
852.073	-1.23
852.241	0.85
852.41	-0.07
852.578	0.56
852.746	-1.78
852.915	0.35
853.083	-0.86
853.251	-1.32
853.42	-1.33
853.588	-0.55
853.756	1.07
853.924	0.23
854.093	-0.58
854.261	-0.68
854.429	-1.25
854.597	0.05
854.765	-1.63
854.934	-0.69
855.102	1.32
855.27	-0.19
855.438	0
855.606	0.8
855.774	1.13
855.942	-1.48
856.11	-1.89
856.278	0.34
856.446	-0.06
856.614	0.17
856.782	-1.27
856.95	0.81
857.118	0.62
857.286	-0.24
857.454	-0.55
857.622	1.36
857.79	0.01
857.958	-0.87
858.126	-1.43
858.294	-3.12
858.462	-0.54
858.629	-1.6
858.797	-1.56
858.965	0.69
859.133	0.13
859.301	0.02
859.468	0.2
859.636	-1.3
859.804	2.04
859.971	-0.58
860.139	-0.74
860.307	0.6
860.474	0.38
860.642	-0.68
860.81	-1.11
860.977	0
861.145	1.35
861.313	-0.05
861.48	0.7
861.648	0.88
861.815	0.19
861.983	-1.6
862.15	-0.79
862.318	0.91
862.485	0.38
862.653	-1.05
862.82	-0.05
862.988	2.84
863.155	-0.21
863.322	-0.26
863.49	-2.4
863.657	-0.99
863.824	1.36
863.992	1.38
864.159	-0.43
864.326	0.36
864.494	-1.09
864.661	1.64
864.828	-0.69
864.996	0.36
865.163	0.51
865.33	-0.58
865.497	-2.53
865.664	0.32
865.832	-2.89
865.999	-1.46
866.166	-1.97
866.333	-1.46
866.5	-0.55
866.667	0.77
866.834	-1.77
867.001	2.25
867.168	-1.77
867.335	0.34
867.502	-1.95
867.669	-0.58
867.836	1.45
868.003	-0.7
868.17	0.67
868.337	-0.3
868.504	2.35
868.671	-2.62
868.838	-1.02
869.005	0.02
869.172	0.79
869.339	-0.75
869.505	-0.49
869.672	-1.15
869.839	2.44
870.006	-0.22
870.173	-1.78
870.339	1.61
870.506	1.89
870.673	-0.09
870.84	0.16
871.006	0.78
871.173	-0.88
871.34	-0.48
871.506	-0.47
871.673	0.15
871.839	-2.91
872.006	-1.54
872.173	-1.33
872.339	1.29
872.506	2.07
872.672	-1.68
872.839	-2.56
873.005	0.05
873.172	2.87
873.338	0.43
873.505	0.59
873.671	0.66
873.838	1.36
874.004	-1.72
874.171	-1.33
874.337	0.94
874.503	0.55
874.67	-0.05
874.836	-2.05
875.002	2.42
875.169	0.9
875.335	-0.52
875.501	-2.21
875.668	0.65
875.834	1.52
876	-1.03
876.166	0.73
876.332	1.29
876.499	2.81
876.665	-1.6
876.831	-1.7
876.997	1.98
877.163	1.36
877.329	-1.19
877.495	-0.91
877.662	2.05
877.828	-0.02
877.994	-0.61
878.16	-2.46
878.326	-0.61
878.492	-1.7
878.658	-0.59
878.824	-1.28
878.99	1.54
879.156	-1.56
879.322	2.41
879.487	-1.79
879.653	-0.19
879.819	-0.45
879.985	0.71
880.151	1.72
880.317	-0.43
880.483	-0.54
880.648	0.41
880.814	-3.96
880.98	1.54
881.146	-3.87
881.312	-2.25
881.477	-2.85
881.643	-0.7
881.809	1.26
881.974	2.48
882.14	-1.78
882.306	0.66
882.471	3.65
882.637	-0.66
882.803	0.3
882.968	2.92
883.134	3.38
883.299	-1.31
883.465	-0.84
883.63	2.24
883.796	0.3
883.961	1.11
884.127	0.5
884.292	-4.27
884.458	-3.12
884.623	-3.12
