Data from Apollo_Calib_20240827__AbsoluteIrradiance__199__02-28-02-211.txt Node

Date: Wed Aug 28 02:28:02 BST 2024
User: biology
Spectrometer: FLMT08252
Trigger mode: 0
Integration Time (sec): 5.000000E-1
Scans to average: 5
Electric dark correction enabled: true
Nonlinearity correction enabled: false
Boxcar width: 0
XAxis mode: Wavelengths
Number of Pixels in Spectrum: 3648
>>>>>Begin Spectral Data<<<<<
179.588	-0
179.809	-0
180.03	-0
180.251	-0
180.473	-0
180.694	0
180.915	0
181.136	-0
181.357	0
181.578	-0
181.799	0
182.02	-0
182.241	0
182.462	-0
182.683	0
182.904	-0
183.125	-0
183.346	0
183.567	0
183.788	-0
184.009	-0
184.23	0
184.451	0
184.672	-0
184.892	-0
185.113	0
185.334	0
185.555	-0
185.776	-0
185.996	0
186.217	0
186.438	-0
186.659	-0
186.879	0
187.1	0
187.321	0
187.541	-0
187.762	0
187.983	0
188.203	0
188.424	0
188.644	-0
188.865	0
189.086	-0
189.306	-0
189.527	0
189.747	0
189.968	-0
190.188	0
190.409	-0
190.629	0
190.849	-0
191.07	-0
191.29	0
191.511	0
191.731	-0
191.951	-0
192.172	0
192.392	0
192.612	-0
192.833	0
193.053	0
193.273	0
193.493	-0
193.714	0
193.934	0
194.154	0
194.374	0
194.594	0
194.815	0
195.035	0
195.255	-0
195.475	-0
195.695	0
195.915	0
196.135	-0
196.355	0
196.575	0
196.795	0
197.015	-0
197.235	-0
197.455	0
197.675	0
197.895	-0
198.115	-0
198.335	0
198.555	-0
198.775	0
198.995	0
199.214	0
199.434	-0
199.654	-0
199.874	0
200.094	0.97
200.313	-0.25
200.533	-0.46
200.753	-0.53
200.973	1.24
201.192	0.9
201.412	-0.39
201.632	-0.13
201.851	0.88
202.071	-0.32
202.291	-0.58
202.51	-0.17
202.73	0.37
202.95	-0.33
203.169	-0.42
203.389	0.22
203.608	0.51
203.828	-0.21
204.047	0.16
204.267	0.27
204.486	0.79
204.706	0.26
204.925	0.06
205.145	-0.74
205.364	0.74
205.583	1.13
205.803	-0.34
206.022	-0.47
206.242	-0.01
206.461	0.21
206.68	-0.34
206.9	0.53
207.119	0.54
207.338	0.65
207.557	-0.16
207.777	0.07
207.996	-0.2
208.215	0.45
208.434	-0.16
208.654	-0.67
208.873	0.59
209.092	0.46
209.311	0.12
209.53	0.19
209.749	-0.21
209.968	-0.22
210.187	-0.19
210.407	-0.47
210.626	-0.01
210.845	0.37
211.064	0.06
211.283	-0.31
211.502	0.32
211.721	0.01
211.94	-0.22
212.159	0.16
212.377	0.36
212.596	0.37
212.815	0.17
213.034	-0.01
213.253	0.21
213.472	0.19
213.691	-0.05
213.91	-0.38
214.128	-0.14
214.347	0.32
214.566	-0.36
214.785	-0.41
215.003	0.27
215.222	0.16
215.441	0.05
215.66	-0.27
215.878	-0
216.097	0.29
216.316	-0.42
216.534	0.04
216.753	0.11
216.972	-0.03
217.19	-0
217.409	-0.09
217.627	-0.05
217.846	-0
218.064	0.12
218.283	-0.23
218.501	0.67
218.72	0.13
218.938	-0.15
219.157	-0.2
219.375	0.3
219.594	0.31
219.812	-0.12
220.031	-0.18
220.249	0.48
220.467	0.41
220.686	0.01
220.904	-0.13
221.122	-0.01
221.341	0.32
221.559	0.08
221.777	-0.23
221.995	-0.03
222.214	0.18
222.432	-0.1
222.65	0.21
222.868	0.04
223.086	0
223.305	-0.03
223.523	0.12
223.741	0.33
223.959	-0.09
224.177	-0.16
224.395	-0.07
224.613	0.01
224.831	0.19
225.049	-0.11
225.267	-0.01
225.485	0.1
225.703	0.06
225.921	0.07
226.139	-0.12
226.357	0.11
226.575	0.19
226.793	0
227.011	0.56
227.229	0.01
227.447	0.07
227.665	-0.03
227.883	-0.19
228.1	-0.06
228.318	0.06
228.536	-0.17
228.754	-0.15
228.972	0.15
229.189	0.11
229.407	-0.08
229.625	0.04
229.843	0.15
230.06	0.13
230.278	-0.13
230.496	-0.1
230.713	0.05
230.931	0.24
231.149	-0.02
231.366	-0.19
231.584	0.01
231.801	0.41
232.019	-0.01
232.236	-0.06
232.454	-0.09
232.671	0.06
232.889	-0.09
233.106	-0.12
233.324	0.06
233.541	0.02
233.759	0.03
233.976	-0.22
234.194	-0.03
234.411	0.07
234.628	-0.02
234.846	0.07
235.063	0.12
235.28	0.09
235.498	-0.05
235.715	-0.1
235.932	0.18
236.149	-0.01
236.367	-0.08
236.584	0.13
236.801	-0.11
237.018	0.09
237.236	0.09
237.453	-0.12
237.67	0.25
237.887	0.06
238.104	0.02
238.321	-0.11
238.538	-0.08
238.755	0.22
238.973	-0.14
239.19	0.01
239.407	0.08
239.624	0.03
239.841	-0.14
240.058	-0.09
240.275	0.12
240.492	-0.02
240.709	0.05
240.925	-0
241.142	0.06
241.359	-0.09
241.576	-0.09
241.793	-0.07
242.01	0.02
242.227	0.19
242.444	0.08
242.66	0.11
242.877	0.06
243.094	-0.09
243.311	0.03
243.527	-0.08
243.744	0.08
243.961	0.11
244.178	0.03
244.394	0
244.611	0.2
244.828	0.2
245.044	-0.05
245.261	0.12
245.477	0.11
245.694	0.17
245.911	-0.05
246.127	-0.02
246.344	0.18
246.56	0.1
246.777	0.06
246.993	-0.04
247.21	0.05
247.426	0.05
247.643	-0.05
247.859	0.03
248.076	-0.06
248.292	0.21
248.508	-0.03
248.725	0.09
248.941	0.12
249.157	0.2
249.374	0.03
249.59	0.02
249.806	-0.02
250.023	0.22
250.239	-0.01
250.455	0.04
250.671	0.05
250.888	0.02
251.104	0.07
251.32	-0.04
251.536	-0
251.752	0.07
251.969	-0.01
252.185	-0
252.401	0.24
252.617	0.04
252.833	-0.06
253.049	0.06
253.265	0.03
253.481	0.04
253.697	0.01
253.913	-0.03
254.129	0.09
254.345	0.12
254.561	-0.05
254.777	0.04
254.993	0.15
255.209	0.04
255.425	0.01
255.641	-0.05
255.857	0.11
256.073	0.05
256.288	-0.02
256.504	-0.04
256.72	0.09
256.936	0.18
257.152	0.05
257.367	-0
257.583	0.11
257.799	0.03
258.015	-0.05
258.23	0.02
258.446	0.16
258.662	0.03
258.877	-0.05
259.093	-0.03
259.309	0.01
259.524	0.07
259.74	-0.02
259.955	-0.09
260.171	0.02
260.387	0.07
260.602	0.1
260.818	-0
261.033	-0.04
261.249	0.02
261.464	-0.05
261.68	-0.1
261.895	0.06
262.11	0.09
262.326	-0.05
262.541	-0.07
262.757	0.07
262.972	0.11
263.187	0.05
263.403	-0
263.618	0.12
263.833	0.02
264.049	0
264.264	0.03
264.479	0.04
264.694	0.14
264.91	-0.12
265.125	-0.03
265.34	0.13
265.555	0.23
265.77	0.06
265.986	-0
266.201	0.09
266.416	0.17
266.631	0.01
266.846	0.03
267.061	0.11
267.276	0
267.491	-0.13
267.706	-0
267.921	0.05
268.136	0.05
268.351	-0.01
268.566	-0.07
268.781	0.08
268.996	0.08
269.211	0.02
269.426	-0.1
269.641	-0.03
269.856	0.1
270.071	-0.07
270.285	-0.06
270.5	0.1
270.715	0.15
270.93	-0.05
271.145	0.02
271.359	0.08
271.574	-0.05
271.789	-0.01
272.004	-0.08
272.218	0.04
272.433	0.04
272.648	-0
272.862	0.16
273.077	-0.02
273.292	0.06
273.506	-0
273.721	0.04
273.936	0.08
274.15	0.11
274.365	0.02
274.579	0.06
274.794	0.1
275.008	0.09
275.223	-0.08
275.437	0.06
275.652	0.14
275.866	0.04
276.081	-0.01
276.295	0.07
276.509	0.1
276.724	0.03
276.938	-0.02
277.153	0.04
277.367	0.13
277.581	-0.03
277.796	0.02
278.01	-0.01
278.224	0.06
278.438	0.2
278.653	0.01
278.867	-0.03
279.081	0.13
279.295	-0
279.51	0.07
279.724	-0.1
279.938	0.08
280.152	0.04
280.366	-0.02
280.58	0
280.794	0.03
281.008	0.07
281.222	0.1
281.437	0.19
281.651	0.06
281.865	0.13
282.079	0.02
282.293	-0.11
282.507	0.04
282.721	0.02
282.935	0.01
283.148	-0.06
283.362	0.04
283.576	-0.04
283.79	0.01
284.004	-0.03
284.218	0.08
284.432	-0.01
284.646	0
284.859	-0.03
285.073	0.04
285.287	0.04
285.501	0.01
285.714	0.02
285.928	0.05
286.142	0.05
286.356	0.02
286.569	-0.03
286.783	0.08
286.997	0.09
287.21	0.03
287.424	0.07
287.637	0.03
287.851	0.03
288.065	0.03
288.278	0.04
288.492	0.04
288.705	-0.01
288.919	0.06
289.132	-0.05
289.346	0.11
289.559	-0.03
289.773	-0.04
289.986	0.03
290.2	0.01
290.413	0.11
290.626	-0.03
290.84	-0
291.053	0.02
291.267	0.07
291.48	-0.01
291.693	0.09
291.906	0.01
292.12	0.04
292.333	0.01
292.546	0.01
292.76	0.12
292.973	0.05
293.186	0.03
293.399	-0
293.612	0.09
293.826	0.03
294.039	0.06
294.252	0.04
294.465	0.05
294.678	0.03
294.891	0.04
295.104	0.01
295.317	0.06
295.53	0.04
295.743	0.06
295.956	0.05
296.169	0.09
296.382	0.05
296.595	0.07
296.808	-0.02
297.021	0.08
297.234	0.1
297.447	0.02
297.66	0.08
297.873	0.09
298.086	0.11
298.299	-0.03
298.511	-0.03
298.724	0.02
298.937	-0.03
299.15	-0.02
299.363	0.01
299.575	0.09
299.788	0.03
300.001	-0.01
300.213	-0.01
300.426	0.02
300.639	-0
300.852	0.01
301.064	0.04
301.277	0.1
301.489	0.05
301.702	0.04
301.915	0.03
302.127	-0
302.34	0.07
302.552	0.05
302.765	-0.03
302.977	0.12
303.19	0.01
303.402	-0.03
303.615	0.02
303.827	0
304.04	0.01
304.252	0.06
304.464	0.02
304.677	0.15
304.889	0.08
305.102	-0.01
305.314	0.04
305.526	0.07
305.739	0.02
305.951	-0
306.163	0.02
306.375	0.1
306.588	0.01
306.8	0.02
307.012	-0.04
307.224	0.02
307.436	0.09
307.649	-0.04
307.861	0.05
308.073	0.05
308.285	0.02
308.497	-0.02
308.709	-0
308.921	0.03
309.133	0.09
309.346	0.03
309.558	0.04
309.77	0.08
309.982	0.12
310.194	0.07
310.406	-0
310.617	0.09
310.829	0.06
311.041	0.05
311.253	0
311.465	0.01
311.677	0.06
311.889	0.03
312.101	0.01
312.313	0.12
312.524	0.06
312.736	-0.01
312.948	0.01
313.16	0.08
313.372	0.09
313.583	0.08
313.795	0.01
314.007	-0.03
314.218	0.09
314.43	0.06
314.642	0.03
314.853	-0.02
315.065	0.11
315.277	0
315.488	0.06
315.7	0.1
315.912	0.08
316.123	0.01
316.335	0.04
316.546	0.13
316.758	0.05
316.969	0
317.181	0.05
317.392	0.06
317.604	0.08
317.815	-0.02
318.026	-0.05
318.238	0.03
318.449	0.05
318.661	-0.04
318.872	0.01
319.083	-0.02
319.295	0.02
319.506	0.02
319.717	0.01
319.929	0.04
320.14	0.04
320.351	0.03
320.562	0
320.774	0.08
320.985	0.06
321.196	-0.03
321.407	-0.04
321.618	0.03
321.829	0.03
322.041	0.05
322.252	0.06
322.463	0.05
322.674	0.03
322.885	0.03
323.096	0.02
323.307	-0.02
323.518	0.03
323.729	-0.03
323.94	0.04
324.151	0.02
324.362	0.08
324.573	0.05
324.784	-0
324.995	0.09
325.206	0.04
325.417	0
325.628	0
325.838	-0.04
326.049	0.03
326.26	0.11
326.471	-0.01
326.682	0.09
326.892	0.07
327.103	-0.06
327.314	-0.03
327.525	0.11
327.735	0.08
327.946	0.01
328.157	-0.02
328.368	0.07
328.578	-0.01
328.789	0.08
328.999	0.07
329.21	0.05
329.421	0.06
329.631	-0.02
329.842	-0.03
330.052	0.08
330.263	0.07
330.473	0.06
330.684	0.01
330.894	0.02
331.105	0.06
331.315	0.04
331.526	0.02
331.736	0.12
331.947	0.07
332.157	0.09
332.367	0.02
332.578	0.03
332.788	0.12
332.999	0.09
333.209	0.06
333.419	-0.02
333.629	0.06
333.84	0.06
334.05	0.04
334.26	0.09
334.47	0.02
334.681	0.09
334.891	0.01
335.101	0.1
335.311	0.11
335.521	0.05
335.732	0
335.942	0.1
336.152	0.04
336.362	0.09
336.572	0.05
336.782	0.06
336.992	-0.02
337.202	0.04
337.412	0.05
337.622	0.05
337.832	0.06
338.042	0
338.252	0.01
338.462	-0.03
338.672	0.05
338.882	0.08
339.092	0.03
339.302	0.12
339.511	0.1
339.721	0.01
339.931	-0.04
340.141	0.08
340.351	0.1
340.561	0.05
340.77	0.12
340.98	0.01
341.19	0.05
341.4	0.02
341.609	-0.01
341.819	0.04
342.029	0.04
342.238	0.03
342.448	0.03
342.658	0.1
342.867	0.07
343.077	0.05
343.286	0.06
343.496	0.03
343.706	0.11
343.915	-0.03
344.125	0.01
344.334	0.08
344.544	0.02
344.753	0.01
344.963	0.02
345.172	-0.01
345.381	0.05
345.591	-0.01
345.8	0.02
346.01	0.1
346.219	0.08
346.428	-0.08
346.638	0.03
346.847	0.02
347.056	0.14
347.266	0.02
347.475	0.06
347.684	0.08
347.893	0.09
348.103	0.05
348.312	0.04
348.521	0.03
348.73	0.07
348.94	0.06
349.149	0.03
349.358	0.01
349.567	0.02
349.776	0.01
349.985	0.02
350.194	0.12
350.403	0.08
350.612	-0.03
350.821	0.03
351.03	0.02
351.239	-0.05
351.448	0.03
351.657	0.01
351.866	0.1
352.075	0.05
352.284	0.05
352.493	-0.05
352.702	0.09
352.911	0.06
353.12	0.05
353.329	0.02
353.538	0.1
353.746	0.07
353.955	0
354.164	0.03
354.373	0.08
354.582	0.07
354.79	0.05
354.999	0.1
355.208	0.05
355.416	0.14
355.625	-0.02
355.834	0.05
356.042	0.07
356.251	0
356.46	0.01
356.668	0.1
356.877	0.15
357.085	0.1
357.294	-0.04
357.503	0.06
357.711	0.07
357.92	0.2
358.128	0.05
358.337	0.04
358.545	0.06
358.754	0.05
358.962	0.11
359.17	0.04
359.379	0.04
359.587	0.08
359.796	0.05
360.004	0.06
360.212	0.05
360.421	0.11
360.629	0.03
360.837	0.03
361.046	0.08
361.254	0.16
361.462	0.07
361.67	-0
361.879	0.07
362.087	0.13
362.295	0.06
362.503	0.04
362.711	0.02
362.92	0.02
363.128	0
363.336	0.04
363.544	0.02
363.752	0.04
363.96	0.05
364.168	0.05
364.376	0.05
364.584	0.1
364.792	0.1
365	0.05
365.208	0.1
365.416	0.06
365.624	0.09
365.832	0.05
366.04	0.09
366.248	0.08
366.456	0.07
366.664	0.1
366.872	0.07
367.079	0.05
367.287	0.04
367.495	0.08
367.703	0.03
367.911	0.04
368.118	0.04
368.326	0.05
368.534	0.02
368.742	0.13
368.949	0.04
369.157	0.04
369.365	0.1
369.572	0.08
369.78	0.03
369.988	0.12
370.195	0.08
370.403	0.11
370.61	0.05
370.818	0.07
371.026	0.1
371.233	0.01
371.441	0.1
371.648	0.1
371.856	0.09
372.063	0.13
372.271	0.03
372.478	0.08
372.685	0.08
372.893	0.15
373.1	0.06
373.308	0.06
373.515	0.2
373.722	0.15
373.93	0.07
374.137	0.1
374.344	0.13
374.552	0.15
374.759	0.13
374.966	0.11
375.173	0.04
375.381	0.17
375.588	0.05
375.795	0.03
376.002	0.08
376.209	0.07
376.417	0.09
376.624	0.08
376.831	0.15
377.038	0.07
377.245	0.03
377.452	0.08
377.659	0.09
377.866	0.09
378.073	0.1
378.28	0.09
378.487	0.12
378.694	0.12
378.901	0.1
379.108	0.11
379.315	0.17
379.522	0.22
379.729	0.15
379.936	0.13
380.143	0.16
380.35	0.16
380.557	0.15
380.763	0.15
380.97	0.14
381.177	0.16
381.384	0.16
381.591	0.08
381.797	0.18
382.004	0.16
382.211	0.17
382.418	0.11
382.624	0.17
382.831	0.22
383.038	0.19
383.244	0.18
383.451	0.19
383.658	0.22
383.864	0.21
384.071	0.13
384.277	0.27
384.484	0.18
384.69	0.26
384.897	0.2
385.103	0.25
385.31	0.2
385.516	0.23
385.723	0.22
385.929	0.26
386.136	0.26
386.342	0.34
386.549	0.27
386.755	0.38
386.961	0.37
387.168	0.3
387.374	0.35
387.58	0.44
387.787	0.41
387.993	0.43
388.199	0.45
388.406	0.41
388.612	0.4
388.818	0.45
389.024	0.45
389.231	0.54
389.437	0.61
389.643	0.59
389.849	0.61
390.055	0.62
390.261	0.67
390.467	0.73
390.674	0.71
390.88	0.8
391.086	0.85
391.292	0.82
391.498	0.92
391.704	0.95
391.91	0.99
392.116	0.97
392.322	0.95
392.528	1.16
392.734	1.15
392.94	1.2
393.146	1.29
393.352	1.37
393.557	1.42
393.763	1.51
393.969	1.63
394.175	1.64
394.381	1.78
394.587	1.73
394.792	1.91
394.998	2.04
395.204	2.19
395.41	2.15
395.615	2.32
395.821	2.44
396.027	2.58
396.233	2.71
396.438	2.87
396.644	3.15
396.85	3.22
397.055	3.34
397.261	3.51
397.466	3.74
397.672	3.76
397.878	3.98
398.083	4.14
398.289	4.17
398.494	4.4
398.7	4.59
398.905	4.72
399.111	5.07
399.316	5.04
399.522	5.29
399.727	5.53
399.932	5.73
400.138	5.98
400.343	6.29
400.549	6.35
400.754	6.79
400.959	7
401.165	7.4
401.37	7.69
401.575	8.26
401.78	8.27
401.986	8.52
402.191	8.91
402.396	9.28
402.601	9.7
402.807	9.95
403.012	10.28
403.217	11
403.422	11.11
403.627	11.56
403.832	12.06
404.037	12.32
404.243	12.36
404.448	12.87
404.653	13.25
404.858	13.54
405.063	13.32
405.268	13.96
405.473	14.14
405.678	14.49
405.883	15.07
406.088	15.16
406.293	15.2
406.498	15.65
406.703	15.47
406.907	15.89
407.112	16.33
407.317	16.84
407.522	17.01
407.727	17.27
407.932	17.47
408.136	17.75
408.341	17.35
408.546	17.53
408.751	17.36
408.956	17.31
409.16	17.71
409.365	17.53
409.57	17
409.774	17.14
409.979	16.92
410.184	16.78
410.388	16.6
410.593	16.69
410.798	16.39
411.002	16.37
411.207	16.14
411.411	15.91
411.616	15.52
411.82	15.44
412.025	15.03
412.229	14.88
412.434	14.44
412.638	13.96
412.843	13.61
413.047	13.27
413.252	12.79
413.456	12.92
413.66	12.48
413.865	12
414.069	11.59
414.273	11.58
414.478	11.09
414.682	10.8
414.886	10.64
415.091	10.19
415.295	10.03
415.499	9.88
415.703	9.37
415.908	9.27
416.112	8.95
416.316	8.82
416.52	8.62
416.724	8.27
416.929	8.1
417.133	8.17
417.337	7.77
417.541	7.69
417.745	7.44
417.949	7.27
418.153	7.22
418.357	6.97
418.561	7.1
418.765	6.74
418.969	6.65
419.173	6.66
419.377	6.31
419.581	6.34
419.785	6.23
419.989	5.93
420.193	6
420.397	5.81
420.601	5.7
420.804	5.57
421.008	5.33
421.212	5.36
421.416	5.05
421.62	4.94
421.823	4.82
422.027	4.73
422.231	4.46
422.435	4.27
422.638	4.14
422.842	4.03
423.046	3.95
423.249	3.94
423.453	3.69
423.657	3.66
423.86	3.52
424.064	3.5
424.268	3.5
424.471	3.28
424.675	3.27
424.878	3.23
425.082	3.04
425.285	3.12
425.489	2.87
425.692	2.81
425.896	2.72
426.099	2.67
426.303	2.61
426.506	2.6
426.71	2.53
426.913	2.56
427.116	2.56
427.32	2.33
427.523	2.22
427.726	2.32
427.93	2.21
428.133	2.2
428.336	2.16
428.54	2.07
428.743	2.09
428.946	2.11
429.149	1.94
429.353	2.01
429.556	1.94
429.759	1.88
429.962	1.73
430.165	1.77
430.368	1.66
430.571	1.59
430.775	1.53
430.978	1.49
431.181	1.47
431.384	1.4
431.587	1.36
431.79	1.44
431.993	1.29
432.196	1.4
432.399	1.35
432.602	1.41
432.805	1.3
433.008	1.33
433.211	1.28
433.414	1.38
433.616	1.37
433.819	1.26
434.022	1.18
434.225	1.29
434.428	1.24
434.631	1.33
434.833	1.1
435.036	1.14
435.239	1.24
435.442	1.07
435.645	1.01
435.847	1.06
436.05	1.15
436.253	1.04
436.455	0.94
436.658	0.97
436.861	1.03
437.063	0.93
437.266	0.91
437.468	0.97
437.671	1.07
437.874	0.91
438.076	0.78
438.279	0.79
438.481	0.84
438.684	0.81
438.886	0.83
439.089	0.7
439.291	0.81
439.494	0.85
439.696	0.71
439.899	0.77
440.101	0.83
440.303	0.67
440.506	0.78
440.708	0.74
440.91	0.8
441.113	0.7
441.315	0.69
441.517	0.65
441.72	0.75
441.922	0.64
442.124	0.59
442.326	0.63
442.529	0.7
442.731	0.58
442.933	0.68
443.135	0.57
443.337	0.54
443.539	0.51
443.742	0.5
443.944	0.54
444.146	0.45
444.348	0.48
444.55	0.46
444.752	0.52
444.954	0.42
445.156	0.49
445.358	0.46
445.56	0.48
445.762	0.43
445.964	0.48
446.166	0.39
446.368	0.4
446.57	0.51
446.772	0.45
446.974	0.4
447.175	0.39
447.377	0.36
447.579	0.47
447.781	0.33
447.983	0.44
448.184	0.39
448.386	0.43
448.588	0.31
448.79	0.37
448.991	0.34
449.193	0.33
449.395	0.33
449.597	0.42
449.798	0.35
450	0.34
450.202	0.29
450.403	0.31
450.605	0.38
450.806	0.29
451.008	0.26
451.21	0.28
451.411	0.32
451.613	0.27
451.814	0.3
452.016	0.35
452.217	0.34
452.419	0.33
452.62	0.31
452.821	0.3
453.023	0.34
453.224	0.31
453.426	0.29
453.627	0.28
453.828	0.34
454.03	0.23
454.231	0.32
454.432	0.24
454.634	0.34
454.835	0.26
455.036	0.18
455.238	0.3
455.439	0.36
455.64	0.22
455.841	0.21
456.042	0.36
456.244	0.29
456.445	0.23
456.646	0.18
456.847	0.26
457.048	0.33
457.249	0.32
457.45	0.53
457.651	0.19
457.852	0.35
458.054	0.27
458.255	0.23
458.456	0.31
458.657	0.23
458.858	0.2
459.058	0.26
459.259	0.27
459.46	0.25
459.661	0.2
459.862	0.36
460.063	0.18
460.264	0.29
460.465	0.2
460.666	0.34
460.866	0.24
461.067	0.24
461.268	0.23
461.469	0.25
461.67	0.23
461.87	0.18
462.071	0.2
462.272	0.21
462.473	0.23
462.673	0.27
462.874	0.18
463.075	0.2
463.275	0.17
463.476	0.29
463.676	0.25
463.877	0.24
464.078	0.27
464.278	0.28
464.479	0.26
464.679	0.25
464.88	0.2
465.08	0.34
465.281	0.22
465.481	0.23
465.682	0.19
465.882	0.27
466.083	0.26
466.283	0.21
466.483	0.22
466.684	0.17
466.884	0.23
467.085	0.2
467.285	0.25
467.485	0.17
467.686	0.23
467.886	0.19
468.086	0.21
468.286	0.2
468.487	0.27
468.687	0.19
468.887	0.19
469.087	0.26
469.287	0.19
469.488	0.11
469.688	0.22
469.888	0.23
470.088	0.24
470.288	0.25
470.488	0.25
470.688	0.13
470.888	0.18
471.088	0.18
471.288	0.22
471.488	0.26
471.688	0.22
471.888	0.14
472.088	0.24
472.288	0.28
472.488	0.15
472.688	0.19
472.888	0.17
473.088	0.17
473.288	0.15
473.488	0.15
473.688	0.26
473.887	0.17
474.087	0.14
474.287	0.21
474.487	0.13
474.687	0.19
474.886	0.15
475.086	0.12
475.286	0.19
475.486	0.17
475.685	0.14
475.885	0.12
476.085	0.12
476.284	0.16
476.484	0.13
476.684	0.16
476.883	0.19
477.083	0.18
477.282	0.1
477.482	0.2
477.681	0.2
477.881	0.15
478.08	0.09
478.28	0.06
478.479	0.14
478.679	0.21
478.878	0.09
479.078	0.12
479.277	0.14
479.477	0.12
479.676	0.12
479.875	0.1
480.075	0.08
480.274	0.12
480.473	0.13
480.673	0.09
480.872	0.15
481.071	0.13
481.271	0.15
481.47	0.11
481.669	0.08
481.868	0.08
482.067	0.11
482.267	0.08
482.466	0.07
482.665	0.09
482.864	0.06
483.063	0.06
483.262	0.13
483.461	0.15
483.661	0.11
483.86	0.1
484.059	0.1
484.258	0.12
484.457	0.11
484.656	0.1
484.855	0.13
485.054	0.04
485.253	0.07
485.452	0.06
485.651	0.07
485.849	0.11
486.048	0.06
486.247	0.1
486.446	0.1
486.645	0.06
486.844	0.06
487.043	0.12
487.241	0.11
487.44	0.06
487.639	0.06
487.838	0.1
488.037	0.13
488.235	0.14
488.434	0.09
488.633	0.05
488.831	0.1
489.03	0.11
489.229	0.08
489.427	0.07
489.626	0.13
489.825	0.13
490.023	0.08
490.222	0.06
490.42	0.11
490.619	0.11
490.817	0.08
491.016	0.07
491.214	0.09
491.413	0.08
491.611	0.06
491.81	0.07
492.008	0.09
492.207	0.11
492.405	0.11
492.604	0.03
492.802	0.07
493	0.1
493.199	0.06
493.397	0.08
493.595	0.08
493.794	0.07
493.992	0.12
494.19	0.07
494.388	0.09
494.587	0.05
494.785	0.1
494.983	0.04
495.181	0.07
495.379	0.06
495.578	0.07
495.776	0.1
495.974	0.08
496.172	0.06
496.37	0.08
496.568	0.05
496.766	0.05
496.964	0.08
497.162	0.09
497.36	0.05
497.558	0.09
497.756	0.07
497.954	0.04
498.152	0.05
498.35	0.08
498.548	0.06
498.746	0.07
498.944	0.05
499.142	0.05
499.34	0.02
499.538	0.08
499.736	0.07
499.933	0.1
500.131	0.11
500.329	0.07
500.527	0.1
500.725	0.12
500.922	0.11
501.12	0.07
501.318	0.07
501.516	0.04
501.713	0.07
501.911	0.07
502.109	0.04
502.306	0.09
502.504	0.06
502.701	0.02
502.899	0.07
503.097	0.11
503.294	0.07
503.492	0.04
503.689	0.08
503.887	0.08
504.084	0.13
504.282	0.04
504.479	0.02
504.677	0.06
504.874	0.06
505.072	0.05
505.269	0.06
505.466	0.06
505.664	0.06
505.861	0.02
506.059	0.06
506.256	0.09
506.453	0.05
506.651	0.11
506.848	0.09
507.045	0.06
507.242	0.06
507.44	0.05
507.637	0.05
507.834	0.05
508.031	0.08
508.229	0.05
508.426	0.04
508.623	0.08
508.82	0.04
509.017	0.03
509.214	0.05
509.411	0.06
509.608	0.03
509.805	0.05
510.003	0.03
510.2	0.05
510.397	0.07
510.594	0.03
510.791	0
510.988	0.04
511.184	0.08
511.381	0.06
511.578	0.02
511.775	0.07
511.972	0.03
512.169	0.04
512.366	0.05
512.563	0.05
512.76	0.03
512.956	0.06
513.153	0.02
513.35	0.06
513.547	0.04
513.744	0.01
513.94	0.02
514.137	0.03
514.334	0.02
514.53	0.05
514.727	0.05
514.924	0.1
515.12	0.04
515.317	0.02
515.514	0.01
515.71	0.01
515.907	0.04
516.103	0.03
516.3	0.05
516.497	0.07
516.693	0.07
516.89	0.04
517.086	0
517.283	0.05
517.479	0.03
517.676	0.03
517.872	0.04
518.068	0.04
518.265	0.02
518.461	0.05
518.658	-0.01
518.854	0.05
519.05	0.02
519.247	0.01
519.443	0.04
519.639	0.04
519.836	0.04
520.032	0.03
520.228	0.03
520.424	0.08
520.621	0.05
520.817	0.02
521.013	0.04
521.209	0.05
521.405	0.08
521.601	0.06
521.798	0.04
521.994	0.1
522.19	0.03
522.386	0
522.582	0.04
522.778	0.05
522.974	0.03
523.17	0.03
523.366	0.06
523.562	0.05
523.758	0.03
523.954	-0.01
524.15	0.04
524.346	0.05
524.542	0.02
524.738	0.01
524.934	0.01
525.129	0.03
525.325	0.05
525.521	0.02
525.717	0.06
525.913	0.06
526.109	0.05
526.304	0.03
526.5	0.05
526.696	0.07
526.892	0.03
527.087	0.03
527.283	-0
527.479	0.05
527.674	0.02
527.87	0.04
528.066	0.02
528.261	0.06
528.457	0.05
528.653	0.03
528.848	0.02
529.044	0.06
529.239	0.03
529.435	0.06
529.63	0.04
529.826	0.06
530.021	0.05
530.217	0.04
530.412	0
530.608	0.03
530.803	0.03
530.999	0.03
531.194	-0.02
531.389	0.05
531.585	-0.03
531.78	0.01
531.975	0.02
532.171	0.04
532.366	0.02
532.561	0.04
532.757	0.01
532.952	0.03
533.147	0.06
533.342	0.03
533.538	0.02
533.733	0.05
533.928	0.02
534.123	0.03
534.318	0.01
534.513	0.02
534.709	0.02
534.904	0.02
535.099	0
535.294	0.02
535.489	0.04
535.684	0.01
535.879	0
536.074	0.05
536.269	0.02
536.464	0.06
536.659	0.04
536.854	0.03
537.049	0.05
537.244	0.05
537.439	0.02
537.634	0.05
537.828	0.05
538.023	0.03
538.218	0
538.413	0.03
538.608	-0
538.803	0.04
538.997	-0.01
539.192	0.05
539.387	0.06
539.582	0.03
539.776	0.03
539.971	0.02
540.166	0.03
540.36	-0.01
540.555	0.03
540.75	0.01
540.944	0.02
541.139	0
541.334	0
541.528	0.04
541.723	0.05
541.917	0
542.112	-0.01
542.306	0.02
542.501	0.02
542.695	0.03
542.89	0.02
543.084	0.03
543.279	0
543.473	0.03
543.668	0.03
543.862	0.04
544.056	0.03
544.251	0.03
544.445	0.02
544.64	0.02
544.834	0.01
545.028	0.03
545.222	0.03
545.417	0.05
545.611	0.03
545.805	0.02
546	0.02
546.194	0.02
546.388	-0
546.582	0.03
546.776	0.01
546.97	0.04
547.165	0.03
547.359	0.05
547.553	0.01
547.747	0.03
547.941	0.04
548.135	0.01
548.329	0.04
548.523	0.04
548.717	0.02
548.911	0.01
549.105	0.01
549.299	0.02
549.493	0.05
549.687	0.01
549.881	0.02
550.075	0.04
550.269	-0.01
550.463	0.03
550.657	0
550.85	-0.01
551.044	-0.01
551.238	0.01
551.432	0.01
551.626	-0.02
551.82	0.02
552.013	0
552.207	0.03
552.401	0.03
552.594	0.02
552.788	0.01
552.982	0.02
553.176	0.01
553.369	0.03
553.563	0.02
553.756	-0.01
553.95	0
554.144	0.01
554.337	0.05
554.531	0.04
554.724	0.02
554.918	-0
555.111	0.03
555.305	0.04
555.498	0.07
555.692	0.05
555.885	-0
556.079	0.03
556.272	-0
556.466	0.02
556.659	0.04
556.852	0.02
557.046	0.03
557.239	0.05
557.432	-0.01
557.626	-0.01
557.819	0.05
558.012	0.03
558.206	0.03
558.399	0.04
558.592	0.02
558.785	0.01
558.979	0.02
559.172	0
559.365	0.03
559.558	0.03
559.751	0.01
559.944	0.03
560.138	-0
560.331	-0.01
560.524	-0.01
560.717	0.02
560.91	0.03
561.103	0.03
561.296	-0.01
561.489	0.03
561.682	0.02
561.875	0.03
562.068	0.02
562.261	0.03
562.454	0.04
562.647	0.03
562.84	0.04
563.032	0.01
563.225	0.03
563.418	0.01
563.611	0
563.804	0.02
563.997	-0
564.19	-0.01
564.382	0.03
564.575	0
564.768	0.01
564.961	0.01
565.153	0
565.346	0.03
565.539	0.02
565.731	0.04
565.924	0.05
566.117	0.04
566.309	0.03
566.502	0.01
566.695	-0.01
566.887	0.02
567.08	0.02
567.272	0.01
567.465	-0.01
567.657	0.02
567.85	0.04
568.042	0.05
568.235	0.05
568.427	0.01
568.62	0.03
568.812	0.02
569.005	-0
569.197	-0.03
569.389	0.03
569.582	0.02
569.774	0.03
569.966	-0.02
570.159	-0.02
570.351	0.03
570.543	0
570.736	-0.01
570.928	0.01
571.12	0.02
571.312	-0
571.505	-0.01
571.697	0.06
571.889	-0.03
572.081	0.02
572.273	-0.02
572.465	0.03
572.658	0.02
572.85	0.03
573.042	-0.02
573.234	0.02
573.426	0.04
573.618	-0.02
573.81	0.01
574.002	0.07
574.194	0.06
574.386	-0.02
574.578	-0.07
574.77	-0.02
574.962	-0
575.154	-0.03
575.346	-0.01
575.538	0.04
575.729	-0
575.921	-0.01
576.113	-0
576.305	0.03
576.497	-0.01
576.689	0
576.88	-0.02
577.072	0.05
577.264	0
577.456	0.01
577.647	-0.06
577.839	0.02
578.031	0.07
578.223	-0.02
578.414	-0.03
578.606	0.04
578.798	0.02
578.989	-0.01
579.181	0.02
579.372	-0
579.564	0.01
579.755	0.01
579.947	0.01
580.139	0.04
580.33	-0.05
580.522	0
580.713	-0.06
580.905	0.01
581.096	0.03
581.287	-0
581.479	0.01
581.67	0.04
581.862	0.01
582.053	0.03
582.244	-0.04
582.436	0
582.627	0.03
582.818	-0.01
583.01	-0.02
583.201	0.01
583.392	0.04
583.583	-0.01
583.775	-0.03
583.966	-0.01
584.157	0.04
584.348	-0.01
584.54	-0.01
584.731	0.04
584.922	-0.02
585.113	-0.01
585.304	0.03
585.495	0.03
585.686	0.01
585.877	0.03
586.068	0.03
586.259	0.02
586.45	0.02
586.641	-0
586.832	-0.04
587.023	0.02
587.214	0
587.405	0.01
587.596	-0.04
587.787	0.06
587.978	0.01
588.169	-0.02
588.36	-0.02
588.551	0.05
588.742	-0.02
588.932	0.03
589.123	0
589.314	0.02
589.505	0.03
589.696	0.01
589.886	-0.02
590.077	-0.02
590.268	0.01
590.458	-0.01
590.649	-0.05
590.84	0.04
591.03	-0.02
591.221	-0.02
591.412	-0.02
591.602	0.01
591.793	0.04
591.984	-0.03
592.174	0.01
592.365	0.06
592.555	0
592.746	-0.05
592.936	0
593.127	0.03
593.317	0.03
593.508	-0.02
593.698	-0.02
593.889	0.02
594.079	0.04
594.269	0.01
594.46	-0.01
594.65	0.02
594.84	0.01
595.031	-0.03
595.221	-0
595.411	-0.03
595.602	0.06
595.792	0.02
595.982	0
596.172	0.07
596.363	0.02
596.553	-0.01
596.743	0.01
596.933	-0.01
597.123	0.02
597.314	-0.03
597.504	-0.03
597.694	0.07
597.884	0.02
598.074	0
598.264	-0.02
598.454	0.02
598.644	0
598.834	0
599.024	-0.07
599.214	-0.01
599.404	0.03
599.594	-0.02
599.784	-0.02
599.974	0.07
600.164	0.03
600.354	-0.04
600.544	-0.06
600.734	-0
600.924	0.09
601.114	-0.05
601.303	0.03
601.493	0.03
601.683	0
601.873	0
602.063	-0.04
602.252	0.06
602.442	-0.06
602.632	-0.01
602.821	-0.02
603.011	0.02
603.201	-0.01
603.39	-0.01
603.58	-0.01
603.77	0.03
603.959	0.07
604.149	0.01
604.339	0.01
604.528	0.03
604.718	0.01
604.907	0.01
605.097	-0.01
605.286	-0.02
605.476	0.04
605.665	0.03
605.855	-0.01
606.044	0.05
606.234	0.04
606.423	0.02
606.612	-0.04
606.802	0.01
606.991	0.03
607.181	0.02
607.37	-0.06
607.559	-0.01
607.749	-0.04
607.938	-0.02
608.127	0
608.316	-0.01
608.506	0.02
608.695	0.01
608.884	-0.03
609.073	-0.01
609.263	0
609.452	0.02
609.641	0.02
609.83	-0.04
610.019	-0.01
610.208	-0.01
610.397	0.01
610.586	0.04
610.775	-0
610.965	-0
611.154	-0.03
611.343	0.03
611.532	0.02
611.721	-0.03
611.91	-0.01
612.099	0.04
612.287	-0.02
612.476	-0.05
612.665	-0.01
612.854	0.01
613.043	0.02
613.232	0.01
613.421	-0.06
613.61	0.01
613.798	-0.02
613.987	0.04
614.176	0.01
614.365	0.02
614.554	0.01
614.742	0.03
614.931	-0.02
615.12	0.05
615.309	-0.01
615.497	0.02
615.686	-0.02
615.875	-0.02
616.063	0
616.252	-0.02
616.44	-0.03
616.629	0.01
616.818	0.05
617.006	0.01
617.195	0
617.383	0.01
617.572	0
617.76	-0.02
617.949	-0.02
618.137	-0
618.326	0.04
618.514	-0
618.703	-0.02
618.891	0.06
619.079	-0.04
619.268	0.02
619.456	-0.01
619.644	0.08
619.833	-0.02
620.021	-0.02
620.209	-0.03
620.398	0.04
620.586	-0
620.774	-0
620.962	0.02
621.151	0.06
621.339	0.02
621.527	-0.05
621.715	-0.04
621.903	-0.03
622.092	-0.05
622.28	-0.01
622.468	-0
622.656	0
622.844	0.05
623.032	-0.01
623.22	-0.07
623.408	0.02
623.596	0.02
623.784	0.03
623.972	-0.04
624.16	-0.02
624.348	0.06
624.536	-0.03
624.724	-0.06
624.912	0.01
625.1	0.05
625.288	-0.02
625.476	-0
625.664	0.01
625.851	-0.01
626.039	0.03
626.227	0.02
626.415	-0
626.603	-0.06
626.79	-0.01
626.978	0
627.166	0.02
627.354	0
627.541	-0.01
627.729	-0.06
627.917	0
628.104	0.02
628.292	-0.02
628.48	-0
628.667	0.01
628.855	0.02
629.042	0
629.23	-0.03
629.418	-0
629.605	0.01
629.793	-0.03
629.98	-0.05
630.168	-0.02
630.355	0.05
630.543	0.03
630.73	-0.03
630.917	0.05
631.105	0.05
631.292	-0.02
631.48	-0.02
631.667	0.06
631.854	0.01
632.042	0.01
632.229	-0.07
632.416	0.01
632.604	0.01
632.791	-0.05
632.978	0.01
633.165	-0.01
633.353	0.07
633.54	-0.01
633.727	-0.05
633.914	-0.03
634.101	0.04
634.289	0.02
634.476	-0.05
634.663	-0.05
634.85	0.02
635.037	-0.05
635.224	-0.05
635.411	0.04
635.598	0.03
635.785	0.03
635.972	0.01
636.159	0.01
636.346	-0.04
636.533	0
636.72	-0.05
636.907	-0
637.094	0.04
637.281	-0.01
637.468	-0
637.655	-0.03
637.842	0.02
638.029	-0.02
638.215	0.04
638.402	0.01
638.589	-0.02
638.776	-0.02
638.963	-0.02
639.149	0.04
639.336	0.07
639.523	-0.01
639.709	-0.05
639.896	-0.02
640.083	0.04
640.27	0.04
640.456	-0.02
640.643	0.02
640.829	-0.05
641.016	0.01
641.203	-0.05
641.389	0.03
641.576	0.03
641.762	-0.01
641.949	-0.04
642.135	0.02
642.322	-0
642.508	-0.05
642.695	0.01
642.881	-0.01
643.068	-0.01
643.254	-0.02
643.441	0.03
643.627	0.03
643.813	-0
644	0.03
644.186	-0.04
644.372	0.02
644.559	0.02
644.745	-0.02
644.931	-0.04
645.118	0
645.304	-0.01
645.49	-0.05
645.676	-0.04
645.862	-0.01
646.049	0.08
646.235	0
646.421	0.05
646.607	0.05
646.793	-0.02
646.979	0
647.165	-0
647.352	-0
647.538	0.03
647.724	-0
647.91	-0.01
648.096	0.03
648.282	0.06
648.468	-0.01
648.654	0.02
648.84	0
649.026	-0.01
649.212	-0.03
649.397	-0.05
649.583	-0.04
649.769	-0
649.955	-0.02
650.141	0.03
650.327	0.03
650.513	-0.03
650.698	0.02
650.884	-0.07
651.07	-0
651.256	-0
651.442	-0.02
651.627	-0.01
651.813	0
651.999	0.02
652.184	0.02
652.37	-0.01
652.556	-0.02
652.741	0.06
652.927	-0.08
653.113	-0.01
653.298	0.02
653.484	-0.01
653.669	-0.1
653.855	0
654.04	0.03
654.226	-0.02
654.412	-0.03
654.597	-0.05
654.782	0.03
654.968	0.02
655.153	-0.01
655.339	-0.04
655.524	-0.04
655.71	0.06
655.895	0.01
656.08	-0.02
656.266	0.04
656.451	0.01
656.636	-0.01
656.822	-0.03
657.007	-0.03
657.192	0
657.378	-0.06
657.563	0
657.748	0.03
657.933	0.04
658.118	-0.04
658.304	-0.03
658.489	0.02
658.674	0.02
658.859	-0.04
659.044	-0.01
659.229	0.01
659.414	-0.03
659.599	-0
659.785	-0.08
659.97	-0.03
660.155	0.03
660.34	-0.01
660.525	-0.02
660.71	-0.04
660.895	0.03
661.08	0.01
661.264	-0.05
661.449	0.05
661.634	0.06
661.819	0.03
662.004	0.03
662.189	-0.07
662.374	-0.06
662.559	-0.06
662.743	-0.07
662.928	-0.01
663.113	-0.05
663.298	-0.05
663.483	-0.01
663.667	0.01
663.852	-0.06
664.037	0.01
664.221	-0.02
664.406	0.01
664.591	0.01
664.775	0.04
664.96	-0.01
665.145	0.01
665.329	0
665.514	-0.02
665.698	-0.03
665.883	-0.04
666.068	0.08
666.252	-0.01
666.437	-0.06
666.621	-0.02
666.806	0.01
666.99	-0.02
667.174	-0.06
667.359	0.07
667.543	-0.02
667.728	-0.01
667.912	-0.07
668.096	0.01
668.281	-0.01
668.465	0
668.649	0.02
668.834	-0.03
669.018	-0.02
669.202	-0.01
669.387	-0.05
669.571	0.08
669.755	-0.05
669.939	-0.02
670.124	-0.01
670.308	0.05
670.492	0.03
670.676	-0
670.86	-0
671.044	-0.03
671.228	0.03
671.413	-0.05
671.597	-0.05
671.781	-0.01
671.965	-0
672.149	-0.02
672.333	0.02
672.517	-0.05
672.701	0.01
672.885	-0.04
673.069	-0.08
673.253	0.03
673.437	0
673.621	-0.03
673.804	-0.01
673.988	0.05
674.172	-0.01
674.356	-0.06
674.54	-0.04
674.724	0.05
674.908	-0.03
675.091	0.05
675.275	-0.03
675.459	0.03
675.643	-0.07
675.826	-0.02
676.01	0.02
676.194	-0.05
676.377	0.04
676.561	0.04
676.745	0.02
676.928	0.04
677.112	0.07
677.296	-0.02
677.479	-0.02
677.663	-0.03
677.846	0.03
678.03	-0.06
678.213	-0.03
678.397	0
678.58	-0.03
678.764	0.01
678.947	-0.07
679.131	-0.07
679.314	0.03
679.498	-0.02
679.681	-0.03
679.865	0.07
680.048	0.01
680.231	-0.02
680.415	-0
680.598	-0.01
680.781	-0.06
680.965	-0.03
681.148	-0.01
681.331	-0.05
681.514	0.02
681.698	-0.03
681.881	0.03
682.064	-0.01
682.247	0.06
682.43	-0.07
682.614	-0.02
682.797	0.08
682.98	0.01
683.163	-0.08
683.346	0
683.529	0.01
683.712	-0.04
683.895	-0
684.078	-0.07
684.261	-0.02
684.444	0.02
684.627	0
684.81	-0
684.993	-0
685.176	0.04
685.359	-0.03
685.542	-0.06
685.725	0.09
685.908	0.01
686.091	-0.06
686.274	0.03
686.457	0.04
686.639	-0.02
686.822	0
687.005	0.01
687.188	0.05
687.371	0.1
687.553	-0.01
687.736	-0
687.919	0.06
688.102	0.06
688.284	0.01
688.467	0
688.65	-0.03
688.832	-0.03
689.015	0.03
689.197	-0.08
689.38	0.08
689.563	0.11
689.745	-0.06
689.928	-0.04
690.11	-0.05
690.293	0
690.475	-0.07
690.658	-0
690.84	-0
691.023	-0.09
691.205	0
691.388	-0.01
691.57	0.01
691.752	0.05
691.935	-0.03
692.117	-0.04
692.3	-0.01
692.482	-0
692.664	-0.04
692.847	0.06
693.029	0.05
693.211	-0
693.393	-0.02
693.576	-0.02
693.758	-0.01
693.94	-0.04
694.122	-0.01
694.304	0
694.487	-0.04
694.669	0.06
694.851	-0.1
695.033	-0.03
695.215	-0.03
695.397	-0.02
695.579	0.04
695.761	-0.08
695.943	-0.11
696.125	0.05
696.308	-0.02
696.49	-0.12
696.671	0.06
696.853	-0.01
697.035	0.09
697.217	-0.02
697.399	0
697.581	-0.05
697.763	-0.02
697.945	-0.03
698.127	0
698.309	0.08
698.491	-0.03
698.672	-0.01
698.854	0.04
699.036	0
699.218	-0.02
699.399	0.02
699.581	0.07
699.763	0.01
699.945	-0.07
700.126	-0.06
700.308	-0.01
700.49	-0.05
700.671	-0.1
700.853	-0.04
701.035	-0.05
701.216	-0.01
701.398	-0.07
701.579	-0.03
701.761	0.05
701.943	-0.05
702.124	-0.04
702.306	-0.01
702.487	0.08
702.669	-0.05
702.85	-0.05
703.031	-0.08
703.213	0.07
703.394	0.02
703.576	-0.06
703.757	0.03
703.938	0.04
704.12	0.18
704.301	0
704.483	-0.04
704.664	0.03
704.845	0.12
705.026	0.04
705.208	-0.03
705.389	0
705.57	0.04
705.751	-0.05
705.933	-0
706.114	0
706.295	-0.04
706.476	-0.09
706.657	0.07
706.838	0.02
707.02	0
707.201	-0.06
707.382	-0.04
707.563	0.03
707.744	-0.01
707.925	-0.07
708.106	-0.11
708.287	0.04
708.468	0.02
708.649	0.01
708.83	0.06
709.011	-0.08
709.192	0.08
709.373	-0.15
709.554	-0.04
709.734	-0.01
709.915	0.02
710.096	-0.06
710.277	-0.16
710.458	-0.04
710.639	0.04
710.819	-0.09
711	0.02
711.181	0.03
711.362	0.02
711.542	-0.01
711.723	-0.03
711.904	0.06
712.085	0.03
712.265	0.01
712.446	-0.1
712.627	-0.04
712.807	-0
712.988	-0.01
713.168	-0.09
713.349	0.02
713.53	-0.07
713.71	-0.06
713.891	-0.13
714.071	0.03
714.252	-0.07
714.432	-0.07
714.613	-0.1
714.793	0.05
714.974	0.07
715.154	0.11
715.334	0.02
715.515	0.08
715.695	-0.09
715.876	-0.02
716.056	-0.02
716.236	-0.06
716.417	-0.09
716.597	-0.03
716.777	0.12
716.957	-0.01
717.138	-0.04
717.318	-0.03
717.498	-0.12
717.678	-0.06
717.859	0.02
718.039	-0.07
718.219	-0.05
718.399	0.02
718.579	-0.07
718.759	-0.12
718.939	0.05
719.12	-0.01
719.3	-0.09
719.48	-0.18
719.66	-0.18
719.84	0.07
720.02	0.03
720.2	-0.08
720.38	-0.05
720.56	0.11
720.74	-0.05
720.92	0.06
721.1	0.1
721.279	0.04
721.459	-0.02
721.639	-0.14
721.819	0.04
721.999	-0.08
722.179	0.01
722.359	-0.11
722.538	0.02
722.718	-0.06
722.898	-0.03
723.078	-0.09
723.257	-0.06
723.437	0.01
723.617	-0.03
723.797	-0.01
723.976	-0.05
724.156	0.02
724.336	0.12
724.515	0.18
724.695	-0.11
724.874	-0.02
725.054	0.05
725.234	-0.09
725.413	-0.07
725.593	-0.12
725.772	-0
725.952	0.01
726.131	-0.11
726.311	-0.06
726.49	-0.02
726.67	-0.14
726.849	-0.05
727.028	-0.05
727.208	-0.02
727.387	-0.06
727.567	-0.13
727.746	-0.05
727.925	-0.05
728.105	-0.14
728.284	-0.04
728.463	-0.05
728.643	0.02
728.822	-0.17
729.001	-0.11
729.18	-0.01
729.359	0.05
729.539	-0.06
729.718	-0.04
729.897	0.03
730.076	-0.1
730.255	-0.17
730.434	0.04
730.614	-0
730.793	-0.02
730.972	-0.08
731.151	-0.02
731.33	0.09
731.509	0.11
731.688	-0.04
731.867	-0.05
732.046	-0.14
732.225	0.13
732.404	-0.09
732.583	-0.11
732.762	0.09
732.941	0.09
733.12	0.03
733.298	-0.07
733.477	0.06
733.656	0.01
733.835	-0.07
734.014	0.07
734.193	-0.06
734.371	0.01
734.55	-0.05
734.729	-0.15
734.908	-0.01
735.086	0
735.265	0.07
735.444	-0.13
735.623	-0.2
735.801	-0.08
735.98	-0.11
736.159	-0.04
736.337	0.05
736.516	-0.01
736.694	-0.03
736.873	-0.05
737.052	0.04
737.23	0.08
737.409	-0.09
737.587	0.19
737.766	-0.17
737.944	-0.01
738.123	0.06
738.301	0.08
738.479	-0.01
738.658	-0.02
738.836	-0.22
739.015	-0.01
739.193	0.07
739.371	-0.03
739.55	-0.06
739.728	-0.17
739.906	0.12
740.085	0.1
740.263	-0.04
740.441	-0.25
740.62	0.13
740.798	0.01
740.976	-0.14
741.154	0.04
741.332	0.13
741.511	-0.05
741.689	-0.02
741.867	0.06
742.045	-0
742.223	-0.03
742.401	-0.05
742.579	-0.03
742.757	0.11
742.935	-0.14
743.114	-0.07
743.292	-0.02
743.47	0.07
743.648	-0
743.826	0.01
744.004	-0.03
744.181	0.06
744.359	-0.05
744.537	0.06
744.715	0
744.893	-0.08
745.071	-0.05
745.249	-0.05
745.427	-0.05
745.605	0.07
745.782	0.09
745.96	-0.02
746.138	0.07
746.316	0.04
746.493	-0.08
746.671	0.03
746.849	0.01
747.027	0.13
747.204	-0.13
747.382	0.01
747.56	-0.23
747.737	-0
747.915	-0.09
748.093	0.04
748.27	-0.09
748.448	0.04
748.625	-0.18
748.803	-0.11
748.98	-0.07
749.158	-0.01
749.335	-0.02
749.513	-0.05
749.69	-0
749.868	-0.03
750.045	0.02
750.223	-0.02
750.4	-0.29
750.578	0.22
750.755	-0.14
750.932	-0.17
751.11	0.11
751.287	-0.06
751.464	-0.02
751.642	-0.15
751.819	0.01
751.996	0
752.173	-0.04
752.351	-0.13
752.528	-0.08
752.705	-0.01
752.882	-0.02
753.06	-0.04
753.237	-0.02
753.414	0.17
753.591	0.21
753.768	-0.06
753.945	-0.06
754.122	-0.14
754.299	0.03
754.476	-0.03
754.654	0.04
754.831	0.09
755.008	0.04
755.185	-0.13
755.362	-0.05
755.539	0.17
755.716	-0.06
755.892	-0.15
756.069	-0.04
756.246	-0.04
756.423	-0.05
756.6	0.1
756.777	-0
756.954	-0.02
757.131	-0.01
757.307	-0.14
757.484	-0.07
757.661	-0.05
757.838	0.02
758.015	-0.17
758.191	-0.07
758.368	0.06
758.545	0.12
758.721	0.01
758.898	-0.05
759.075	-0.07
759.251	0.07
759.428	0.07
759.605	-0.17
759.781	-0
759.958	-0.01
760.134	-0.07
760.311	-0.15
760.488	0.18
760.664	0.06
760.841	-0.02
761.017	-0.03
761.194	0.02
761.37	0.03
761.547	-0.07
761.723	-0.04
761.899	0.01
762.076	-0.13
762.252	-0.1
762.429	-0.05
762.605	0.01
762.781	-0.03
762.958	0.11
763.134	-0.16
763.31	-0.09
763.486	0.13
763.663	-0.24
763.839	0.06
764.015	-0.27
764.191	-0.13
764.368	-0.01
764.544	-0.09
764.72	-0.04
764.896	0.06
765.072	-0.08
765.248	-0.04
765.425	-0.1
765.601	0.03
765.777	0.01
765.953	-0.27
766.129	-0.11
766.305	0
766.481	-0.02
766.657	0.03
766.833	0.16
767.009	-0.12
767.185	-0.04
767.361	-0.13
767.537	-0.08
767.713	-0
767.889	-0.07
768.065	-0.14
768.24	-0.08
768.416	-0.04
768.592	-0.08
768.768	0.01
768.944	-0.09
769.12	-0.07
769.295	-0.16
769.471	-0
769.647	-0.03
769.823	0.08
769.998	-0.06
770.174	-0.05
770.35	0.32
770.525	0.24
770.701	-0.02
770.877	-0.14
771.052	-0.13
771.228	0.08
771.403	0.11
771.579	-0.04
771.755	0.43
771.93	-0.05
772.106	-0.18
772.281	-0.25
772.457	-0.09
772.632	0.01
772.808	-0.17
772.983	-0.05
773.159	-0.09
773.334	0.09
773.509	-0.08
773.685	-0.13
773.86	0.26
774.036	0.18
774.211	-0.05
774.386	-0.13
774.562	-0.07
774.737	0.02
774.912	-0.04
775.087	0.02
775.263	0.07
775.438	-0.05
775.613	-0.07
775.788	0.08
775.964	0.28
776.139	0.3
776.314	-0.13
776.489	0.14
776.664	-0.07
776.839	-0.18
777.014	0.09
777.19	0.09
777.365	0.33
777.54	0.36
777.715	0
777.89	0.03
778.065	-0.06
778.24	-0.01
778.415	0.01
778.59	-0.32
778.765	-0.08
778.94	0.01
779.115	-0.04
779.289	-0.04
779.464	-0.08
779.639	-0.16
779.814	-0.26
779.989	-0.33
780.164	0.03
780.339	-0.02
780.513	-0.08
780.688	-0.15
780.863	0.05
781.038	0.21
781.212	-0.19
781.387	-0.14
781.562	0.27
781.737	0.03
781.911	0.08
782.086	-0.02
782.261	-0.12
782.435	0.35
782.61	-0.1
782.784	-0.09
782.959	0.11
783.134	-0.25
783.308	-0.18
783.483	-0.12
783.657	0.34
783.832	0.05
784.006	-0.26
784.181	0.01
784.355	0.3
784.53	0.06
784.704	-0.21
784.878	0.21
785.053	0.05
785.227	0.06
785.402	0.28
785.576	-0.23
785.75	0.1
785.925	-0
786.099	-0.13
786.273	0.07
786.448	-0.1
786.622	0.26
786.796	-0.01
786.97	-0.3
787.145	0.66
787.319	-0.3
787.493	-0.26
787.667	-0.23
787.841	0.05
788.015	0.07
788.19	-0.03
788.364	0.15
788.538	0.31
788.712	0.06
788.886	-0.23
789.06	0.24
789.234	0.04
789.408	-0.25
789.582	-0.09
789.756	0.05
789.93	-0.03
790.104	-0.22
790.278	-0.26
790.452	-0.22
790.626	-0.02
790.8	-0
790.973	0.09
791.147	0.12
791.321	0.19
791.495	0.21
791.669	0.22
791.843	0.23
792.016	-0.09
792.19	0.35
792.364	-0.25
792.538	0.28
792.711	0.21
792.885	-0.05
793.059	-0.22
793.233	-0.65
793.406	0.32
793.58	-0.19
793.754	0.19
793.927	-0.11
794.101	0.38
794.274	0.36
794.448	0.13
794.622	-0.16
794.795	0.47
794.969	0.07
795.142	0.23
795.316	-0.16
795.489	-0.06
795.663	0.19
795.836	0.08
796.009	-0.18
796.183	0.33
796.356	0.01
796.53	-0.03
796.703	-0.25
796.876	0.58
797.05	-0.05
797.223	0.05
797.396	0.17
797.57	-0.08
797.743	0.39
797.916	-0.2
798.09	-0.36
798.263	0.6
798.436	0.32
798.609	-0.36
798.782	0.1
798.956	-0.09
799.129	0.19
799.302	-0.05
799.475	-0.26
799.648	-0.1
799.821	-0.19
799.994	0.08
800.167	-0.43
800.34	-0.17
800.514	-0
800.687	0.03
800.86	-0.25
801.033	0.04
801.206	0.07
801.379	-0.35
801.551	0.18
801.724	0.31
801.897	0.4
802.07	-0.06
802.243	-0.39
802.416	0.02
802.589	-0.29
802.762	0.33
802.935	-0.13
803.107	0.15
803.28	0.16
803.453	0.15
803.626	-0.19
803.798	0.03
803.971	-0.09
804.144	0.01
804.317	-0.25
804.489	0.01
804.662	0.07
804.835	-0.12
805.007	-0.45
805.18	0.27
805.353	-0.06
805.525	-0.33
805.698	-0.08
805.87	0.38
806.043	0.24
806.215	-0.74
806.388	-0.27
806.56	0.07
806.733	0.66
806.905	0.11
807.078	-0.26
807.25	-0.35
807.423	0.29
807.595	-0.12
807.768	-0.24
807.94	0.05
808.112	-0.12
808.285	0.02
808.457	-0.31
808.629	-0.15
808.802	0.29
808.974	0.16
809.146	-0.25
809.318	-0.39
809.491	0.35
809.663	0.39
809.835	-0.21
810.007	-0.01
810.18	-0.19
810.352	-0.39
810.524	-0.4
810.696	0.14
810.868	0.17
811.04	-0.36
811.212	-0.4
811.384	0.37
811.556	-0.56
811.728	-0.33
811.901	0.67
812.073	0.1
812.245	0.54
812.417	-0.1
812.589	-0.71
812.76	-0.18
812.932	-0.05
813.104	-0.04
813.276	-0.32
813.448	0.42
813.62	0.04
813.792	0.16
813.964	-0.27
814.136	0.12
814.307	-0.42
814.479	-0.45
814.651	0.2
814.823	0.64
814.995	0.02
815.166	0.14
815.338	-0.43
815.51	-0.25
815.681	0.97
815.853	-0.14
816.025	-0.57
816.196	0.31
816.368	0.08
816.54	-0.72
816.711	-0.23
816.883	0.11
817.054	0.68
817.226	-0.69
817.398	-0.2
817.569	-0.48
817.741	0.21
817.912	-0
818.084	-0.24
818.255	0.13
818.426	-0.41
818.598	0.05
818.769	-0.03
818.941	0.71
819.112	0.34
819.283	-0.19
819.455	-0.36
819.626	-0.13
819.798	0.22
819.969	0.21
820.14	-0.38
820.311	-0.17
820.483	0
820.654	0.15
820.825	-0
820.996	-0.26
821.168	-0.51
821.339	-0.35
821.51	-0.74
821.681	-0.31
821.852	0.3
822.023	-0.76
822.195	-0.71
822.366	-0
822.537	0.09
822.708	0.16
822.879	-0.25
823.05	0.65
823.221	-0.01
823.392	0.37
823.563	-0.25
823.734	0.13
823.905	-0.25
824.076	-0.2
824.247	-0.18
824.418	-0.4
824.589	0.62
824.759	0.46
824.93	-0.81
825.101	-0.66
825.272	0.05
825.443	0.02
825.614	0.7
825.784	-0.95
825.955	0.73
826.126	0.83
826.297	-0.14
826.467	1
826.638	0.57
826.809	-0.86
826.98	0.29
827.15	0.29
827.321	0.08
827.492	0.1
827.662	-0.24
827.833	0.95
828.003	0.44
828.174	-0.74
828.345	-0.77
828.515	1.06
828.686	0.5
828.856	-0.07
829.027	-0.26
829.197	-0.03
829.368	0.72
829.538	-0.34
829.709	-0.57
829.879	0.5
830.049	-0.18
830.22	0.11
830.39	-0.5
830.56	0.66
830.731	0.06
830.901	-0.38
831.072	0.05
831.242	-0.04
831.412	-0.64
831.582	0.26
831.753	-1
831.923	0.46
832.093	0.27
832.263	-0.09
832.434	-1.08
832.604	-0.2
832.774	0.28
832.944	-0.53
833.114	-0.66
833.284	0.02
833.454	-0.66
833.624	-0.56
833.795	-0.69
833.965	0.44
834.135	0.43
834.305	-1.68
834.475	-0.85
834.645	0.12
834.815	-0.33
834.985	-0.37
835.155	-0.52
835.325	0.54
835.494	0.16
835.664	-0.37
835.834	-0.83
836.004	-0.04
836.174	-0.22
836.344	0.22
836.514	-0.43
836.684	-0.21
836.853	-0.25
837.023	0.11
837.193	-0.78
837.363	0.68
837.532	0.74
837.702	-0.23
837.872	-0.71
838.041	0.97
838.211	1.45
838.381	-0.79
838.55	-0.35
838.72	1.73
838.89	0.97
839.059	-0.54
839.229	-0.58
839.398	1.9
839.568	0.21
839.738	0.29
839.907	0.49
840.077	0.62
840.246	-0.51
840.416	-0.55
840.585	-0.86
840.755	1.23
840.924	1.28
841.093	-0.77
841.263	-0.58
841.432	0.62
841.602	-1.17
841.771	-0.6
841.94	-0.45
842.11	1.61
842.279	0.86
842.448	-0.67
842.617	-1.22
842.787	1.05
842.956	-0.4
843.125	0.73
843.294	0.53
843.464	0.9
843.633	0.14
843.802	-1.49
843.971	-0.35
844.14	0.6
844.309	0.32
844.479	-0.72
844.648	-0.73
844.817	-1.36
844.986	0.39
845.155	-0.64
845.324	-1.44
845.493	-0.17
845.662	-0.09
845.831	-0.02
846	0.54
846.169	0.5
846.338	0.49
846.507	-0.09
846.676	0.03
846.844	-0.15
847.013	0.63
847.182	0.1
847.351	-1.21
847.52	-0.8
847.689	-0.18
847.858	-0.15
848.026	-0.33
848.195	-0.02
848.364	-0.92
848.533	-1.17
848.701	-0.25
848.87	-0.23
849.039	1.28
849.207	0.3
849.376	1.7
849.545	1.81
849.713	-0.99
849.882	-0.98
850.051	-0.41
850.219	0.59
850.388	0.58
850.556	-1.34
850.725	-0.65
850.893	-0.25
851.062	-0.77
851.23	0.41
851.399	-1.51
851.567	-0.56
851.736	0.32
851.904	-0.95
852.073	1.19
852.241	0.44
852.41	-1.04
852.578	0.21
852.746	-1.03
852.915	0.59
853.083	-1.13
853.251	-1.83
853.42	-0.91
853.588	0.07
853.756	1.49
853.924	-0.07
854.093	-0.24
854.261	-0.28
854.429	-1.28
854.597	0.03
854.765	-0.61
854.934	1.08
855.102	0.83
855.27	-0.08
855.438	-0.14
855.606	0.92
855.774	1.2
855.942	-2.61
856.11	-1.88
856.278	0.06
856.446	1.21
856.614	-0.32
856.782	-1.64
856.95	0.73
857.118	0.53
857.286	0.52
857.454	-1.59
857.622	0.33
857.79	-1.41
857.958	-1.78
858.126	-1.41
858.294	-2.1
858.462	0.68
858.629	-1.45
858.797	-0.98
858.965	-1.09
859.133	-0.2
859.301	0.24
859.468	0.53
859.636	-1.24
859.804	2.3
859.971	-0.08
860.139	-0.93
860.307	0.18
860.474	0.5
860.642	-1.23
860.81	-0.35
860.977	-0.38
861.145	0.54
861.313	-0.65
861.48	0.66
861.648	1.55
861.815	-0.23
861.983	-1.91
862.15	-2.11
862.318	0.98
862.485	0.15
862.653	-0.99
862.82	-0.85
862.988	2
863.155	0.61
863.322	-1.51
863.49	-2.14
863.657	-1.3
863.824	2.12
863.992	1.35
864.159	-0.85
864.326	0.63
864.494	-1.57
864.661	1.47
864.828	-0.62
864.996	0.72
865.163	2.18
865.33	-1.4
865.497	-2.55
865.664	-0.51
865.832	-1.58
865.999	-0.34
866.166	-1.1
866.333	-1.32
866.5	-1.97
866.667	0.34
866.834	-0.02
867.001	1.4
867.168	-3.09
867.335	-0.29
867.502	-1.59
867.669	0.29
867.836	1.21
868.003	-0.38
868.17	0.87
868.337	2.54
868.504	2.04
868.671	-1.81
868.838	-0.5
869.005	2.68
869.172	2.52
869.339	-1.2
869.505	-1.06
869.672	0.04
869.839	2.49
870.006	-1.09
870.173	-1.43
870.339	1.02
870.506	2.28
870.673	0.64
870.84	1.22
871.006	0.69
871.173	0.65
871.34	0.71
871.506	-1.24
871.673	0.32
871.839	-3.98
872.006	-0.79
872.173	-0.42
872.339	0.65
872.506	0.89
872.672	-0.54
872.839	-1.89
873.005	0.26
873.172	2.98
873.338	0.88
873.505	1.12
873.671	1.47
873.838	0.35
874.004	-1.67
874.171	-1.65
874.337	-0.2
874.503	0.7
874.67	0.04
874.836	-0.52
875.002	2.57
875.169	1.05
875.335	-0.16
875.501	-1.02
875.668	1.49
875.834	0.51
876	-0.7
876.166	1.1
876.332	1.48
876.499	2.14
876.665	-0.3
876.831	-0.68
876.997	3.32
877.163	0.19
877.329	-1.53
877.495	-0.7
877.662	-0.32
877.828	1.16
877.994	-1
878.16	-3.02
878.326	-0.21
878.492	-1.62
878.658	-1.56
878.824	-0.34
878.99	1.16
879.156	-1.33
879.322	0.44
879.487	-0.38
879.653	1.47
879.819	-0.66
879.985	-1.05
880.151	0.74
880.317	0.74
880.483	-0.34
880.648	2.1
880.814	-2.86
880.98	0.14
881.146	-1.81
881.312	-0.05
881.477	-0.51
881.643	-0.83
881.809	2.63
881.974	2
882.14	-2.96
882.306	0.99
882.471	3.29
882.637	-2.34
882.803	0.57
882.968	2.27
883.134	3.04
883.299	0.74
883.465	-1.22
883.63	-0.08
883.796	1.88
883.961	-0.33
884.127	-0.79
884.292	-4.81
884.458	-2.54
884.623	-2.53
