Data from Apollo_Calib_20240827__AbsoluteIrradiance__416__06-05-03-014.txt Node

Date: Wed Aug 28 06:05:03 BST 2024
User: biology
Spectrometer: FLMT08252
Trigger mode: 0
Integration Time (sec): 5.000000E-1
Scans to average: 5
Electric dark correction enabled: true
Nonlinearity correction enabled: false
Boxcar width: 0
XAxis mode: Wavelengths
Number of Pixels in Spectrum: 3648
>>>>>Begin Spectral Data<<<<<
179.588	-0
179.809	-0
180.03	-0
180.251	-0
180.473	-0
180.694	0
180.915	0
181.136	-0
181.357	-0
181.578	-0
181.799	-0
182.02	0
182.241	-0
182.462	-0
182.683	0
182.904	-0
183.125	-0
183.346	0
183.567	0
183.788	-0
184.009	-0
184.23	0
184.451	0
184.672	0
184.892	-0
185.113	0
185.334	0
185.555	-0
185.776	0
185.996	0
186.217	0
186.438	0
186.659	-0
186.879	0
187.1	0
187.321	0
187.541	-0
187.762	0
187.983	0
188.203	0
188.424	0
188.644	-0
188.865	0
189.086	0
189.306	0
189.527	0
189.747	0
189.968	-0
190.188	0
190.409	0
190.629	0
190.849	0
191.07	0
191.29	0
191.511	0
191.731	0
191.951	-0
192.172	0
192.392	0
192.612	0
192.833	0
193.053	0
193.273	0
193.493	0
193.714	0
193.934	0
194.154	0
194.374	0
194.594	0
194.815	0
195.035	0
195.255	0
195.475	0
195.695	0
195.915	0
196.135	0
196.355	0
196.575	0
196.795	0
197.015	-0
197.235	0
197.455	0
197.675	0
197.895	-0
198.115	0
198.335	0
198.555	0
198.775	0
198.995	0
199.214	0
199.434	0
199.654	-0
199.874	0
200.094	1.56
200.313	0.42
200.533	0.37
200.753	-0.43
200.973	1.64
201.192	0.84
201.412	-0.57
201.632	0.27
201.851	1.36
202.071	-0.13
202.291	0.04
202.51	0.07
202.73	0.86
202.95	0.29
203.169	0.05
203.389	0.42
203.608	0.74
203.828	0.24
204.047	0.08
204.267	0.67
204.486	0.49
204.706	0.37
204.925	0.48
205.145	-0.07
205.364	0.92
205.583	1.35
205.803	-0.16
206.022	0.19
206.242	0.09
206.461	0.6
206.68	0.33
206.9	0.82
207.119	0.79
207.338	0.92
207.557	-0.04
207.777	0.33
207.996	0.37
208.215	0.56
208.434	0.09
208.654	-0.35
208.873	0.17
209.092	0.98
209.311	-0.01
209.53	0.16
209.749	0.08
209.968	-0.13
210.187	0.4
210.407	-0.09
210.626	0.36
210.845	0.58
211.064	0.15
211.283	0.01
211.502	0.41
211.721	0.39
211.94	0.16
212.159	0.49
212.377	0.43
212.596	0.81
212.815	0.18
213.034	0.41
213.253	0.4
213.472	0.42
213.691	0.08
213.91	-0.08
214.128	0.22
214.347	0.64
214.566	-0.07
214.785	-0.06
215.003	0.35
215.222	0.28
215.441	0.16
215.66	-0.19
215.878	0.22
216.097	0.3
216.316	0.07
216.534	-0.06
216.753	0.11
216.972	0.08
217.19	0.17
217.409	0.14
217.627	-0.03
217.846	0.12
218.064	0.25
218.283	-0.04
218.501	0.65
218.72	0.45
218.938	0.06
219.157	-0.06
219.375	0.19
219.594	0.33
219.812	-0.07
220.031	-0.05
220.249	0.5
220.467	0.21
220.686	0.16
220.904	0.06
221.122	0.21
221.341	0.57
221.559	0.06
221.777	-0.04
221.995	0.18
222.214	0.39
222.432	-0.01
222.65	0.25
222.868	0.13
223.086	0.22
223.305	0.34
223.523	0.26
223.741	0.48
223.959	0
224.177	-0.11
224.395	0.05
224.613	0.09
224.831	0.24
225.049	-0.01
225.267	0.05
225.485	0.13
225.703	0.14
225.921	0.18
226.139	0.05
226.357	0.22
226.575	0.14
226.793	0.09
227.011	0.67
227.229	0.25
227.447	0.21
227.665	0.09
227.883	-0.08
228.1	0.05
228.318	0.16
228.536	-0.14
228.754	-0.05
228.972	0.27
229.189	0.22
229.407	0.07
229.625	0.12
229.843	0.37
230.06	0.2
230.278	0.13
230.496	0.25
230.713	0.16
230.931	0.35
231.149	0.07
231.366	-0.02
231.584	0.14
231.801	0.46
232.019	0.05
232.236	-0.04
232.454	0.07
232.671	0.2
232.889	0.13
233.106	0.04
233.324	0.16
233.541	0.18
233.759	0.13
233.976	-0.02
234.194	0.04
234.411	0.22
234.628	-0.03
234.846	-0.02
235.063	0.14
235.28	0.05
235.498	0.1
235.715	0.02
235.932	0.22
236.149	0.07
236.367	-0.01
236.584	0.16
236.801	0.06
237.018	0.21
237.236	0.12
237.453	-0.07
237.67	0.22
237.887	0.14
238.104	0.1
238.321	0.01
238.538	0.05
238.755	0.27
238.973	-0.1
239.19	0.12
239.407	0.15
239.624	0.21
239.841	-0.06
240.058	-0.1
240.275	0.18
240.492	0.15
240.709	0.11
240.925	0.03
241.142	0.24
241.359	-0.01
241.576	0.12
241.793	0.13
242.01	0.14
242.227	0.13
242.444	0.11
242.66	0.24
242.877	0.15
243.094	0.03
243.311	0.05
243.527	0.13
243.744	0.17
243.961	0.23
244.178	0.04
244.394	0.06
244.611	0.25
244.828	0.19
245.044	-0.04
245.261	0.13
245.477	0.12
245.694	0.06
245.911	0
246.127	0.09
246.344	0.27
246.56	0.14
246.777	0.07
246.993	0.11
247.21	0.23
247.426	0.23
247.643	0.14
247.859	0.02
248.076	0.05
248.292	0.28
248.508	0.1
248.725	0.17
248.941	0.11
249.157	0.19
249.374	0.01
249.59	0.11
249.806	0.15
250.023	0.22
250.239	0.01
250.455	-0.03
250.671	0.12
250.888	0.17
251.104	0.12
251.32	0.07
251.536	0.08
251.752	0.06
251.969	0.16
252.185	0.13
252.401	0.24
252.617	0.01
252.833	0.1
253.049	0.01
253.265	0.14
253.481	0.13
253.697	0.06
253.913	0.02
254.129	0.14
254.345	0.13
254.561	0.02
254.777	0.1
254.993	0.2
255.209	0.07
255.425	0.02
255.641	-0.07
255.857	0.23
256.073	0.14
256.288	-0.01
256.504	0.06
256.72	0.09
256.936	0.22
257.152	0.05
257.367	0.08
257.583	0.13
257.799	0.18
258.015	-0
258.23	0.07
258.446	0.24
258.662	0.15
258.877	0.03
259.093	-0.02
259.309	0.02
259.524	0.06
259.74	0.08
259.955	-0.08
260.171	0.08
260.387	0.08
260.602	0.15
260.818	0.11
261.033	-0.03
261.249	0.03
261.464	0.04
261.68	-0.01
261.895	0.14
262.11	0.14
262.326	0.04
262.541	-0.06
262.757	0.17
262.972	0.1
263.187	0.08
263.403	0.08
263.618	0.13
263.833	0.1
264.049	0.02
264.264	0.05
264.479	0.17
264.694	0.17
264.91	-0
265.125	0.1
265.34	0.13
265.555	0.22
265.77	0.07
265.986	0.09
266.201	0.1
266.416	0.16
266.631	0.06
266.846	0.03
267.061	0.17
267.276	0.11
267.491	-0.07
267.706	0.14
267.921	0.21
268.136	0.08
268.351	0.05
268.566	-0.01
268.781	0.18
268.996	0.14
269.211	0.12
269.426	-0
269.641	0.04
269.856	0.11
270.071	-0.01
270.285	0.02
270.5	0.1
270.715	0.2
270.93	0.07
271.145	0.13
271.359	0.13
271.574	0.01
271.789	0.07
272.004	-0.04
272.218	0.04
272.433	0.11
272.648	0.01
272.862	0.1
273.077	0.12
273.292	0.05
273.506	0.02
273.721	0.04
273.936	0.11
274.15	0.15
274.365	0.07
274.579	0.13
274.794	0.05
275.008	0.15
275.223	0.02
275.437	0.08
275.652	0.12
275.866	0.12
276.081	0.11
276.295	0.1
276.509	0.02
276.724	0.1
276.938	0.1
277.153	0.06
277.367	0.13
277.581	0.05
277.796	0.04
278.01	-0.02
278.224	0.14
278.438	0.2
278.653	-0.01
278.867	0.08
279.081	-0.08
279.295	0.05
279.51	0.09
279.724	-0.02
279.938	0.14
280.152	0.09
280.366	0.02
280.58	0.09
280.794	0.14
281.008	0.05
281.222	0.11
281.437	0.18
281.651	0.06
281.865	0.15
282.079	0.05
282.293	0.01
282.507	0.03
282.721	0.07
282.935	0.08
283.148	-0.03
283.362	0.03
283.576	0.06
283.79	0.07
284.004	0.07
284.218	0.09
284.432	0.07
284.646	0.03
284.859	0.08
285.073	0.05
285.287	0.06
285.501	0.05
285.714	0.06
285.928	0.04
286.142	0.04
286.356	0.05
286.569	0.05
286.783	0.19
286.997	0.14
287.21	0
287.424	0.11
287.637	0.09
287.851	0.07
288.065	0.1
288.278	0.06
288.492	0.09
288.705	0.09
288.919	0.13
289.132	-0.02
289.346	0.12
289.559	0.01
289.773	0.02
289.986	0.09
290.2	0.09
290.413	0.15
290.626	0.01
290.84	0.05
291.053	0.12
291.267	0.11
291.48	0.06
291.693	0.06
291.906	0
292.12	0.06
292.333	-0.01
292.546	0.06
292.76	0.17
292.973	0.04
293.186	0.07
293.399	0.04
293.612	0.14
293.826	0.08
294.039	0.06
294.252	0.08
294.465	0.1
294.678	0.11
294.891	0.09
295.104	0.04
295.317	0.08
295.53	0.1
295.743	0.05
295.956	0.12
296.169	0.13
296.382	0.1
296.595	0.05
296.808	0.04
297.021	0.16
297.234	0.07
297.447	0.1
297.66	0.09
297.873	0.12
298.086	0.08
298.299	0.03
298.511	0.03
298.724	0.02
298.937	0.01
299.15	0.06
299.363	0.07
299.575	0.07
299.788	0.12
300.001	0
300.213	-0
300.426	0.05
300.639	0.01
300.852	-0.02
301.064	0.06
301.277	0.1
301.489	0.11
301.702	0.08
301.915	0.06
302.127	0.08
302.34	0.09
302.552	0.09
302.765	0.06
302.977	0.11
303.19	0.06
303.402	0.07
303.615	0.04
303.827	0.07
304.04	0.04
304.252	0.09
304.464	0.03
304.677	0.14
304.889	0.11
305.102	0.01
305.314	0.04
305.526	0.09
305.739	0.11
305.951	0
306.163	0.01
306.375	0.09
306.588	0.05
306.8	0.03
307.012	0.03
307.224	0.1
307.436	0.13
307.649	0.02
307.861	0.09
308.073	0.04
308.285	0.02
308.497	0.03
308.709	0.03
308.921	0.03
309.133	0.12
309.346	0.05
309.558	0.03
309.77	0.09
309.982	0.14
310.194	0.13
310.406	0.04
310.617	0.08
310.829	0.07
311.041	0.1
311.253	0.04
311.465	0.05
311.677	0.03
311.889	0.06
312.101	0.04
312.313	0.14
312.524	0.12
312.736	-0.01
312.948	0.04
313.16	0.16
313.372	0.09
313.583	0.06
313.795	0.05
314.007	0.05
314.218	0.12
314.43	0.06
314.642	0.03
314.853	-0
315.065	0.09
315.277	0.04
315.488	0.08
315.7	0.1
315.912	0.05
316.123	0.05
316.335	0.04
316.546	0.17
316.758	0.04
316.969	0.01
317.181	0.06
317.392	0.06
317.604	0.13
317.815	0.02
318.026	0.05
318.238	0.06
318.449	0.1
318.661	-0.01
318.872	0.03
319.083	0.03
319.295	0.09
319.506	0.01
319.717	0.13
319.929	0.1
320.14	0.05
320.351	0.11
320.562	0.04
320.774	0.05
320.985	0.09
321.196	0.02
321.407	-0.04
321.618	0.08
321.829	0.02
322.041	0.1
322.252	0.02
322.463	0.03
322.674	0.11
322.885	0
323.096	0.03
323.307	0.05
323.518	0.08
323.729	0.05
323.94	0.08
324.151	0.04
324.362	0.08
324.573	0.07
324.784	-0.02
324.995	0.14
325.206	0.09
325.417	0.08
325.628	0.04
325.838	0.04
326.049	0.08
326.26	0.11
326.471	0.03
326.682	0.07
326.892	0.05
327.103	0.01
327.314	-0.01
327.525	0.11
327.735	0.04
327.946	0.06
328.157	0
328.368	0.1
328.578	-0
328.789	0.12
328.999	0.11
329.21	0.04
329.421	0.09
329.631	-0.01
329.842	0.02
330.052	0.09
330.263	0.04
330.473	0.1
330.684	0.05
330.894	0.02
331.105	0.06
331.315	0.09
331.526	0
331.736	0.15
331.947	0.09
332.157	0.07
332.367	0.01
332.578	0.07
332.788	0.11
332.999	0.06
333.209	0.04
333.419	-0.02
333.629	0.06
333.84	0.01
334.05	0.06
334.26	0.12
334.47	0.04
334.681	0.14
334.891	0.01
335.101	0.12
335.311	0.15
335.521	0.08
335.732	0.03
335.942	0.1
336.152	0.07
336.362	0.09
336.572	0.06
336.782	0.09
336.992	0.04
337.202	0.06
337.412	0
337.622	0.12
337.832	0.07
338.042	0.04
338.252	0.01
338.462	0.05
338.672	0.06
338.882	-0.01
339.092	0.07
339.302	0.12
339.511	0.08
339.721	0.06
339.931	0
340.141	0.12
340.351	0.11
340.561	0.05
340.77	0.08
340.98	0.05
341.19	0.04
341.4	0.04
341.609	0.02
341.819	0.07
342.029	-0
342.238	0.09
342.448	0.04
342.658	0.06
342.867	0.07
343.077	0.05
343.286	0.07
343.496	0.05
343.706	0.11
343.915	0.02
344.125	0.05
344.334	0.09
344.544	-0
344.753	0.06
344.963	0
345.172	0.07
345.381	0.03
345.591	0.01
345.8	0.06
346.01	0.14
346.219	0.05
346.428	-0.1
346.638	0.03
346.847	0.04
347.056	0.13
347.266	0.03
347.475	0.05
347.684	0.07
347.893	0.09
348.103	0.1
348.312	0.04
348.521	0.05
348.73	0.08
348.94	0.07
349.149	0.05
349.358	0.04
349.567	0.01
349.776	0.02
349.985	0.03
350.194	0.06
350.403	0.1
350.612	-0.02
350.821	0.05
351.03	0.09
351.239	0.02
351.448	0.05
351.657	-0
351.866	0.09
352.075	0.06
352.284	0.07
352.493	0.01
352.702	0.08
352.911	0.07
353.12	0.04
353.329	0.03
353.538	0.09
353.746	0.05
353.955	0.01
354.164	0.08
354.373	0.04
354.582	0.08
354.79	0.07
354.999	0.07
355.208	0.06
355.416	0.11
355.625	0.03
355.834	0.02
356.042	0.1
356.251	0.05
356.46	0.01
356.668	0.04
356.877	0.19
357.085	0.09
357.294	-0.04
357.503	0.07
357.711	0.05
357.92	0.18
358.128	0.07
358.337	0.03
358.545	0.06
358.754	0.02
358.962	0.08
359.17	0.06
359.379	0.06
359.587	0.07
359.796	0.08
360.004	0.08
360.212	0.08
360.421	0.14
360.629	0.04
360.837	0.04
361.046	0.1
361.254	0.15
361.462	0.09
361.67	0.05
361.879	0.03
362.087	0.09
362.295	0.05
362.503	0.04
362.711	0.04
362.92	0.01
363.128	0.07
363.336	0.02
363.544	0.01
363.752	0.04
363.96	-0
364.168	0.05
364.376	0.06
364.584	0.08
364.792	0.09
365	0.13
365.208	0.07
365.416	0.07
365.624	0.12
365.832	0.04
366.04	0.08
366.248	0.06
366.456	0.06
366.664	0.06
366.872	0.03
367.079	0.08
367.287	0.09
367.495	0.06
367.703	0.03
367.911	0.07
368.118	0.07
368.326	0.05
368.534	0.02
368.742	0.12
368.949	0.02
369.157	-0.01
369.365	0.1
369.572	0.08
369.78	0.01
369.988	0.1
370.195	0.05
370.403	0.1
370.61	0.05
370.818	0.06
371.026	0.11
371.233	0.02
371.441	0.05
371.648	0.02
371.856	0.07
372.063	0.07
372.271	0.08
372.478	0.08
372.685	0.03
372.893	0.09
373.1	0.03
373.308	0.03
373.515	0.13
373.722	0.05
373.93	0.07
374.137	0.06
374.344	0.14
374.552	0.07
374.759	0.08
374.966	0.07
375.173	0.04
375.381	0.11
375.588	0.04
375.795	0
376.002	-0
376.209	0.02
376.417	0.05
376.624	0.06
376.831	0.08
377.038	0.06
377.245	-0
377.452	0.06
377.659	0.06
377.866	0.05
378.073	0.05
378.28	0.06
378.487	0.1
378.694	0.09
378.901	0.07
379.108	0.08
379.315	0.08
379.522	0.11
379.729	0.07
379.936	0.06
380.143	0.11
380.35	0.07
380.557	0.05
380.763	0.05
380.97	0.06
381.177	0.06
381.384	0.08
381.591	0.03
381.797	0.04
382.004	0.05
382.211	0.1
382.418	0.06
382.624	0.11
382.831	0.09
383.038	0.05
383.244	0.11
383.451	0.07
383.658	0.06
383.864	0.05
384.071	0.03
384.277	0.18
384.484	0.06
384.69	0.12
384.897	0.04
385.103	0.05
385.31	0.06
385.516	0.04
385.723	-0
385.929	0.05
386.136	0.04
386.342	0.08
386.549	0.03
386.755	0.07
386.961	0.11
387.168	0.05
387.374	0.09
387.58	0.12
387.787	0.07
387.993	0.09
388.199	0.04
388.406	0.04
388.612	0.09
388.818	0.08
389.024	0.04
389.231	0.09
389.437	0.14
389.643	0.11
389.849	0.07
390.055	0.06
390.261	0.08
390.467	0.09
390.674	-0
390.88	0.07
391.086	0.08
391.292	0.01
391.498	0.12
391.704	0.09
391.91	0.04
392.116	0.05
392.322	-0.01
392.528	0.06
392.734	0.05
392.94	0.04
393.146	0.03
393.352	0.06
393.557	0.07
393.763	0.09
393.969	0.11
394.175	0.05
394.381	0.05
394.587	0.03
394.792	0.02
394.998	0.12
395.204	0.14
395.41	0.04
395.615	0.1
395.821	0.12
396.027	0.1
396.233	0.08
396.438	0.1
396.644	0.12
396.85	0.1
397.055	0.04
397.261	0.06
397.466	0.04
397.672	0.09
397.878	0.12
398.083	0.08
398.289	0.07
398.494	0.13
398.7	0.1
398.905	-0.02
399.111	0.12
399.316	0.01
399.522	0.05
399.727	0.07
399.932	0.05
400.138	0.02
400.343	0.14
400.549	0.08
400.754	0.08
400.959	0.07
401.165	0.08
401.37	0.12
401.575	0.15
401.78	0.12
401.986	0.02
402.191	0.07
402.396	0.05
402.601	0.08
402.807	0.05
403.012	0.07
403.217	0.08
403.422	0.09
403.627	0.05
403.832	0.01
404.037	0.11
404.243	0.14
404.448	0.04
404.653	0.1
404.858	0.1
405.063	0.09
405.268	0.09
405.473	0.02
405.678	0.08
405.883	0.2
406.088	0.09
406.293	0.05
406.498	0.09
406.703	0.1
406.907	0.05
407.112	0.04
407.317	0.07
407.522	0.12
407.727	0.04
407.932	0.08
408.136	0.17
408.341	0.08
408.546	0.1
408.751	0.08
408.956	0.08
409.16	0.15
409.365	0.08
409.57	0.08
409.774	0.04
409.979	0.1
410.184	0.07
410.388	0.06
410.593	0.13
410.798	0.12
411.002	0.06
411.207	0.1
411.411	0.14
411.616	0.08
411.82	0.06
412.025	0.08
412.229	0.07
412.434	0.14
412.638	0.08
412.843	0.04
413.047	0.09
413.252	0.01
413.456	0.04
413.66	0.12
413.865	0.02
414.069	0.12
414.273	0.04
414.478	0.05
414.682	0.1
414.886	0.05
415.091	0.05
415.295	0.01
415.499	0.09
415.703	0.07
415.908	0.07
416.112	-0.02
416.316	0.12
416.52	0.06
416.724	0.02
416.929	0.06
417.133	0.17
417.337	0.07
417.541	0.08
417.745	0.08
417.949	0.09
418.153	0.13
418.357	0.08
418.561	0.18
418.765	0.09
418.969	0.19
419.173	0.12
419.377	0.04
419.581	0.17
419.785	0.04
419.989	0.04
420.193	0.08
420.397	0.09
420.601	0.17
420.804	0.16
421.008	0.09
421.212	0.12
421.416	0.15
421.62	0.05
421.823	0.08
422.027	0.19
422.231	0.12
422.435	0.08
422.638	0.12
422.842	0.07
423.046	0.04
423.249	0.13
423.453	0.14
423.657	0.14
423.86	0.1
424.064	0.1
424.268	0.19
424.471	0.15
424.675	0.21
424.878	0.17
425.082	0.09
425.285	0.15
425.489	0.12
425.692	0.11
425.896	0.07
426.099	0.12
426.303	0.08
426.506	0.03
426.71	0.12
426.913	0.19
427.116	0.17
427.32	0.1
427.523	0.11
427.726	0.22
427.93	0.09
428.133	0.1
428.336	0.05
428.54	0.09
428.743	0.11
428.946	0.15
429.149	0.08
429.353	0.12
429.556	0.07
429.759	0.08
429.962	0.06
430.165	0.09
430.368	0.08
430.571	0.05
430.775	0.12
430.978	0.09
431.181	0.13
431.384	0.11
431.587	0.1
431.79	0.08
431.993	0.1
432.196	0.12
432.399	0.04
432.602	0.21
432.805	0.04
433.008	0.12
433.211	0.03
433.414	0.17
433.616	0.16
433.819	0.05
434.022	0.06
434.225	0.16
434.428	0.12
434.631	0.26
434.833	0.12
435.036	0.08
435.239	0.18
435.442	0.08
435.645	0.06
435.847	0.11
436.05	0.15
436.253	0.12
436.455	0.08
436.658	0.11
436.861	0.19
437.063	0.05
437.266	0.1
437.468	0.11
437.671	0.22
437.874	0.11
438.076	0.02
438.279	0.05
438.481	0.16
438.684	0.04
438.886	0.18
439.089	0.04
439.291	0.13
439.494	0.15
439.696	0.06
439.899	0.06
440.101	0.12
440.303	0.09
440.506	0.12
440.708	0.11
440.91	0.12
441.113	0.01
441.315	0.15
441.517	0.03
441.72	0.1
441.922	0.06
442.124	0.05
442.326	0.13
442.529	0.16
442.731	0.07
442.933	0.25
443.135	0.13
443.337	0.08
443.539	0.12
443.742	0.08
443.944	0.13
444.146	0.05
444.348	0.11
444.55	0.1
444.752	0.13
444.954	0.09
445.156	0.1
445.358	0.1
445.56	0.19
445.762	0.09
445.964	0.09
446.166	0.09
446.368	0.09
446.57	0.17
446.772	0.1
446.974	0.09
447.175	0.17
447.377	0.05
447.579	0.1
447.781	0.03
447.983	0.18
448.184	0.12
448.386	0.15
448.588	0
448.79	0.12
448.991	0.13
449.193	0.1
449.395	0.11
449.597	0.15
449.798	0.13
450	0.15
450.202	0.14
450.403	0.13
450.605	0.2
450.806	0.13
451.008	0.06
451.21	0.13
451.411	0.15
451.613	0.11
451.814	0.12
452.016	0.18
452.217	0.13
452.419	0.17
452.62	0.11
452.821	0.16
453.023	0.22
453.224	0.25
453.426	0.09
453.627	0.14
453.828	0.18
454.03	0.1
454.231	0.18
454.432	0.11
454.634	0.19
454.835	0.08
455.036	0.05
455.238	0.15
455.439	0.23
455.64	0.09
455.841	0.1
456.042	0.2
456.244	0.19
456.445	0.1
456.646	0.01
456.847	0.1
457.048	0.17
457.249	0.22
457.45	0.33
457.651	0.08
457.852	0.24
458.054	0.16
458.255	0.11
458.456	0.16
458.657	0.14
458.858	0.11
459.058	0.13
459.259	0.17
459.46	0.18
459.661	0.08
459.862	0.22
460.063	0.13
460.264	0.17
460.465	0.06
460.666	0.27
460.866	0.12
461.067	0.13
461.268	0.12
461.469	0.13
461.67	0.13
461.87	0.12
462.071	0.05
462.272	0.13
462.473	0.15
462.673	0.18
462.874	0.08
463.075	0.15
463.275	0.13
463.476	0.16
463.676	0.2
463.877	0.19
464.078	0.12
464.278	0.21
464.479	0.15
464.679	0.17
464.88	0.21
465.08	0.21
465.281	0.16
465.481	0.12
465.682	0.17
465.882	0.21
466.083	0.16
466.283	0.17
466.483	0.17
466.684	0.12
466.884	0.13
467.085	0.16
467.285	0.26
467.485	0.12
467.686	0.13
467.886	0.13
468.086	0.19
468.286	0.24
468.487	0.2
468.687	0.12
468.887	0.16
469.087	0.22
469.287	0.15
469.488	0.12
469.688	0.18
469.888	0.21
470.088	0.24
470.288	0.27
470.488	0.22
470.688	0.12
470.888	0.15
471.088	0.18
471.288	0.26
471.488	0.25
471.688	0.17
471.888	0.2
472.088	0.23
472.288	0.24
472.488	0.18
472.688	0.18
472.888	0.27
473.088	0.2
473.288	0.2
473.488	0.26
473.688	0.36
473.887	0.24
474.087	0.21
474.287	0.22
474.487	0.2
474.687	0.28
474.886	0.24
475.086	0.25
475.286	0.27
475.486	0.24
475.685	0.25
475.885	0.25
476.085	0.26
476.284	0.32
476.484	0.28
476.684	0.3
476.883	0.32
477.083	0.3
477.282	0.27
477.482	0.33
477.681	0.36
477.881	0.32
478.08	0.28
478.28	0.27
478.479	0.33
478.679	0.38
478.878	0.3
479.078	0.3
479.277	0.35
479.477	0.3
479.676	0.35
479.875	0.35
480.075	0.31
480.274	0.37
480.473	0.38
480.673	0.37
480.872	0.41
481.071	0.41
481.271	0.44
481.47	0.39
481.669	0.38
481.868	0.38
482.067	0.4
482.267	0.4
482.466	0.42
482.665	0.39
482.864	0.39
483.063	0.42
483.262	0.51
483.461	0.52
483.661	0.53
483.86	0.53
484.059	0.54
484.258	0.54
484.457	0.55
484.656	0.52
484.855	0.64
485.054	0.51
485.253	0.54
485.452	0.53
485.651	0.6
485.849	0.63
486.048	0.61
486.247	0.61
486.446	0.67
486.645	0.61
486.844	0.66
487.043	0.67
487.241	0.74
487.44	0.69
487.639	0.74
487.838	0.76
488.037	0.73
488.235	0.85
488.434	0.83
488.633	0.76
488.831	0.83
489.03	0.86
489.229	0.87
489.427	0.87
489.626	0.94
489.825	0.96
490.023	0.96
490.222	0.94
490.42	0.99
490.619	1.02
490.817	0.99
491.016	0.99
491.214	1.09
491.413	1.07
491.611	1.06
491.81	1.1
492.008	1.1
492.207	1.21
492.405	1.2
492.604	1.14
492.802	1.23
493	1.28
493.199	1.25
493.397	1.29
493.595	1.37
493.794	1.33
493.992	1.44
494.19	1.43
494.388	1.48
494.587	1.45
494.785	1.49
494.983	1.49
495.181	1.57
495.379	1.57
495.578	1.66
495.776	1.7
495.974	1.66
496.172	1.69
496.37	1.82
496.568	1.81
496.766	1.82
496.964	1.94
497.162	1.96
497.36	1.97
497.558	2.01
497.756	2.04
497.954	2.06
498.152	2.13
498.35	2.23
498.548	2.19
498.746	2.23
498.944	2.26
499.142	2.32
499.34	2.35
499.538	2.49
499.736	2.43
499.933	2.56
500.131	2.61
500.329	2.68
500.527	2.72
500.725	2.81
500.922	2.83
501.12	2.92
501.318	2.97
501.516	3.01
501.713	3.12
501.911	3.11
502.109	3.15
502.306	3.26
502.504	3.25
502.701	3.32
502.899	3.42
503.097	3.59
503.294	3.57
503.492	3.74
503.689	3.81
503.887	3.76
504.084	3.9
504.282	3.92
504.479	3.93
504.677	4.15
504.874	4.18
505.072	4.13
505.269	4.36
505.466	4.45
505.664	4.54
505.861	4.53
506.059	4.57
506.256	4.7
506.453	4.81
506.651	4.96
506.848	5.05
507.045	5.1
507.242	5.15
507.44	5.22
507.637	5.36
507.834	5.38
508.031	5.58
508.229	5.55
508.426	5.51
508.623	5.85
508.82	5.94
509.017	5.93
509.214	5.96
509.411	6.25
509.608	6.16
509.805	6.41
510.003	6.43
510.2	6.5
510.397	6.8
510.594	6.7
510.791	6.9
510.988	6.93
511.184	6.95
511.381	6.87
511.578	7.15
511.775	7.34
511.972	7.32
512.169	7.49
512.366	7.49
512.563	7.75
512.76	7.85
512.956	7.96
513.153	7.9
513.35	7.86
513.547	7.98
513.744	8.29
513.94	8.27
514.137	8.42
514.334	8.51
514.53	8.59
514.727	8.87
514.924	8.69
515.12	8.78
515.317	8.94
515.514	8.89
515.71	8.85
515.907	9.29
516.103	9.33
516.3	9.14
516.497	9.32
516.693	9.4
516.89	9.5
517.086	9.56
517.283	9.64
517.479	9.45
517.676	9.76
517.872	9.86
518.068	9.83
518.265	9.84
518.461	9.78
518.658	10.06
518.854	10
519.05	10.15
519.247	10.25
519.443	10.16
519.639	10.33
519.836	10.17
520.032	10.12
520.228	10.37
520.424	10.24
520.621	10.34
520.817	10.42
521.013	10.24
521.209	10.52
521.405	10.53
521.601	10.43
521.798	10.33
521.994	10.23
522.19	10.18
522.386	10.31
522.582	10.4
522.778	10.46
522.974	10.28
523.17	10.28
523.366	10.15
523.562	10.23
523.758	10.25
523.954	10
524.15	10.19
524.346	10.22
524.542	10.19
524.738	10.06
524.934	10.16
525.129	10.01
525.325	9.82
525.521	9.85
525.717	10.03
525.913	9.78
526.109	9.74
526.304	9.85
526.5	9.77
526.696	9.65
526.892	9.46
527.087	9.76
527.283	9.55
527.479	9.38
527.674	9.1
527.87	9.3
528.066	9.17
528.261	9.14
528.457	8.98
528.653	9.1
528.848	8.98
529.044	8.98
529.239	8.73
529.435	8.66
529.63	8.51
529.826	8.53
530.021	8.46
530.217	8.49
530.412	8.25
530.608	8.23
530.803	8.13
530.999	7.99
531.194	7.93
531.389	8
531.585	7.85
531.78	7.93
531.975	7.69
532.171	7.72
532.366	7.58
532.561	7.53
532.757	7.37
532.952	7.55
533.147	7.13
533.342	7.2
533.538	7.05
533.733	7.19
533.928	6.77
534.123	6.89
534.318	6.86
534.513	6.69
534.709	6.76
534.904	6.66
535.099	6.54
535.294	6.52
535.489	6.5
535.684	6.36
535.879	6.28
536.074	6.25
536.269	6.17
536.464	6.16
536.659	5.99
536.854	5.96
537.049	5.94
537.244	5.89
537.439	5.77
537.634	5.69
537.828	5.67
538.023	5.6
538.218	5.54
538.413	5.43
538.608	5.38
538.803	5.4
538.997	5.3
539.192	5.24
539.387	5.19
539.582	5.12
539.776	5.06
539.971	5.05
540.166	4.97
540.36	4.88
540.555	4.95
540.75	4.83
540.944	4.74
541.139	4.73
541.334	4.64
541.528	4.62
541.723	4.58
541.917	4.56
542.112	4.41
542.306	4.31
542.501	4.3
542.695	4.27
542.89	4.2
543.084	4.25
543.279	4.17
543.473	4.15
543.668	4.11
543.862	3.98
544.056	3.94
544.251	3.98
544.445	3.96
544.64	3.89
544.834	3.7
545.028	3.57
545.222	3.7
545.417	3.8
545.611	3.65
545.805	3.62
546	3.46
546.194	3.49
546.388	3.5
546.582	3.43
546.776	3.35
546.97	3.39
547.165	3.27
547.359	3.27
547.553	3.17
547.747	3.16
547.941	3.22
548.135	3.08
548.329	3.1
548.523	3.09
548.717	3
548.911	2.96
549.105	2.95
549.299	2.94
549.493	2.88
549.687	2.77
549.881	2.83
550.075	2.77
550.269	2.67
550.463	2.72
550.657	2.62
550.85	2.64
551.044	2.57
551.238	2.57
551.432	2.51
551.626	2.48
551.82	2.46
552.013	2.37
552.207	2.42
552.401	2.36
552.594	2.34
552.788	2.26
552.982	2.27
553.176	2.21
553.369	2.24
553.563	2.23
553.756	2.12
553.95	2.12
554.144	2.11
554.337	2.12
554.531	2.01
554.724	2.03
554.918	1.98
555.111	1.94
555.305	1.89
555.498	1.95
555.692	1.92
555.885	1.86
556.079	1.85
556.272	1.78
556.466	1.8
556.659	1.75
556.852	1.73
557.046	1.68
557.239	1.64
557.432	1.65
557.626	1.64
557.819	1.66
558.012	1.63
558.206	1.62
558.399	1.58
558.592	1.54
558.785	1.48
558.979	1.51
559.172	1.49
559.365	1.47
559.558	1.45
559.751	1.39
559.944	1.43
560.138	1.38
560.331	1.35
560.524	1.32
560.717	1.33
560.91	1.32
561.103	1.28
561.296	1.28
561.489	1.25
561.682	1.28
561.875	1.23
562.068	1.24
562.261	1.2
562.454	1.24
562.647	1.17
562.84	1.18
563.032	1.18
563.225	1.1
563.418	1.08
563.611	1.1
563.804	1.08
563.997	1.05
564.19	1
564.382	1.07
564.575	1.02
564.768	0.98
564.961	1
565.153	0.96
565.346	0.98
565.539	0.98
565.731	0.95
565.924	0.96
566.117	0.98
566.309	0.89
566.502	0.89
566.695	0.87
566.887	0.91
567.08	0.85
567.272	0.85
567.465	0.82
567.657	0.85
567.85	0.85
568.042	0.83
568.235	0.86
568.427	0.76
568.62	0.82
568.812	0.82
569.005	0.79
569.197	0.71
569.389	0.76
569.582	0.74
569.774	0.77
569.966	0.69
570.159	0.69
570.351	0.7
570.543	0.69
570.736	0.7
570.928	0.63
571.12	0.69
571.312	0.61
571.505	0.59
571.697	0.69
571.889	0.61
572.081	0.64
572.273	0.58
572.465	0.68
572.658	0.58
572.85	0.6
573.042	0.58
573.234	0.56
573.426	0.58
573.618	0.55
573.81	0.55
574.002	0.57
574.194	0.57
574.386	0.48
574.578	0.42
574.77	0.5
574.962	0.51
575.154	0.47
575.346	0.48
575.538	0.47
575.729	0.46
575.921	0.49
576.113	0.48
576.305	0.5
576.497	0.45
576.689	0.43
576.88	0.45
577.072	0.48
577.264	0.44
577.456	0.45
577.647	0.37
577.839	0.43
578.031	0.49
578.223	0.39
578.414	0.37
578.606	0.44
578.798	0.42
578.989	0.38
579.181	0.37
579.372	0.37
579.564	0.37
579.755	0.37
579.947	0.38
580.139	0.38
580.33	0.3
580.522	0.32
580.713	0.3
580.905	0.36
581.096	0.36
581.287	0.35
581.479	0.32
581.67	0.38
581.862	0.32
582.053	0.32
582.244	0.27
582.436	0.31
582.627	0.31
582.818	0.25
583.01	0.28
583.201	0.29
583.392	0.29
583.583	0.29
583.775	0.24
583.966	0.27
584.157	0.3
584.348	0.26
584.54	0.25
584.731	0.29
584.922	0.26
585.113	0.24
585.304	0.29
585.495	0.31
585.686	0.27
585.877	0.28
586.068	0.25
586.259	0.25
586.45	0.26
586.641	0.23
586.832	0.19
587.023	0.24
587.214	0.22
587.405	0.25
587.596	0.23
587.787	0.29
587.978	0.24
588.169	0.2
588.36	0.19
588.551	0.24
588.742	0.17
588.932	0.25
589.123	0.19
589.314	0.26
589.505	0.21
589.696	0.22
589.886	0.17
590.077	0.15
590.268	0.19
590.458	0.15
590.649	0.13
590.84	0.19
591.03	0.17
591.221	0.15
591.412	0.15
591.602	0.2
591.793	0.22
591.984	0.14
592.174	0.15
592.365	0.24
592.555	0.17
592.746	0.19
592.936	0.18
593.127	0.21
593.317	0.2
593.508	0.15
593.698	0.15
593.889	0.17
594.079	0.17
594.269	0.11
594.46	0.16
594.65	0.16
594.84	0.15
595.031	0.1
595.221	0.12
595.411	0.11
595.602	0.16
595.792	0.15
595.982	0.12
596.172	0.19
596.363	0.16
596.553	0.16
596.743	0.16
596.933	0.14
597.123	0.17
597.314	0.11
597.504	0.13
597.694	0.15
597.884	0.13
598.074	0.13
598.264	0.13
598.454	0.14
598.644	0.12
598.834	0.13
599.024	0.09
599.214	0.14
599.404	0.13
599.594	0.1
599.784	0.08
599.974	0.16
600.164	0.14
600.354	0.08
600.544	0.1
600.734	0.13
600.924	0.15
601.114	0.09
601.303	0.1
601.493	0.12
601.683	0.08
601.873	0.12
602.063	0.06
602.252	0.15
602.442	0.08
602.632	0.08
602.821	0.09
603.011	0.11
603.201	0.09
603.39	0.11
603.58	0.1
603.77	0.1
603.959	0.13
604.149	0.08
604.339	0.11
604.528	0.14
604.718	0.15
604.907	0.08
605.097	0.07
605.286	0.09
605.476	0.12
605.665	0.12
605.855	0.1
606.044	0.15
606.234	0.12
606.423	0.07
606.612	0.05
606.802	0.1
606.991	0.11
607.181	0.13
607.37	0.04
607.559	0.08
607.749	0.05
607.938	0.09
608.127	0.08
608.316	0.07
608.506	0.12
608.695	0.08
608.884	0.05
609.073	0.1
609.263	0.1
609.452	0.14
609.641	0.1
609.83	0.05
610.019	0.11
610.208	0.06
610.397	0.1
610.586	0.11
610.775	0.07
610.965	0.09
611.154	0.06
611.343	0.09
611.532	0.07
611.721	0.04
611.91	0.04
612.099	0.1
612.287	0.08
612.476	0.04
612.665	0.09
612.854	0.07
613.043	0.13
613.232	0.08
613.421	0.05
613.61	0.09
613.798	0.08
613.987	0.1
614.176	0.1
614.365	0.11
614.554	0.08
614.742	0.11
614.931	0.07
615.12	0.13
615.309	0.09
615.497	0.09
615.686	0.04
615.875	0.04
616.063	0.09
616.252	0.07
616.44	0.07
616.629	0.09
616.818	0.1
617.006	0.09
617.195	0.05
617.383	0.09
617.572	0.08
617.76	0.08
617.949	0.05
618.137	0.08
618.326	0.13
618.514	0.06
618.703	0.05
618.891	0.14
619.079	0.02
619.268	0.09
619.456	0.05
619.644	0.09
619.833	0.07
620.021	0.04
620.209	0.03
620.398	0.08
620.586	0.09
620.774	0.11
620.962	0.09
621.151	0.1
621.339	0.06
621.527	0.05
621.715	0.03
621.903	0.02
622.092	0.05
622.28	0.08
622.468	0.05
622.656	0.05
622.844	0.09
623.032	0.05
623.22	0.01
623.408	0.1
623.596	0.11
623.784	0.09
623.972	0.04
624.16	0.04
624.348	0.11
624.536	0.05
624.724	0.06
624.912	0.09
625.1	0.09
625.288	0.01
625.476	0.03
625.664	0.1
625.851	0.01
626.039	0.07
626.227	0.08
626.415	0.04
626.603	0.01
626.79	0.09
626.978	0.07
627.166	0.09
627.354	0.04
627.541	0.06
627.729	0.01
627.917	0.09
628.104	0.1
628.292	0.09
628.48	0.05
628.667	0.08
628.855	0.09
629.042	0.11
629.23	0.05
629.418	0.05
629.605	0.07
629.793	0.03
629.98	0.04
630.168	0.05
630.355	0.04
630.543	0.07
630.73	0.01
630.917	0.09
631.105	0.13
631.292	0.04
631.48	0.06
631.667	0.13
631.854	0.08
632.042	0.04
632.229	0
632.416	0.06
632.604	0.06
632.791	0.03
632.978	0.05
633.165	0.07
633.353	0.12
633.54	0.07
633.727	-0.01
633.914	0.03
634.101	-0.03
634.289	0.09
634.476	0.04
634.663	-0
634.85	0.04
635.037	0.03
635.224	-0.02
635.411	0.1
635.598	0.11
635.785	0
635.972	0.04
636.159	0.09
636.346	0.03
636.533	0.05
636.72	0.04
636.907	0.03
637.094	0.1
637.281	0.06
637.468	0.08
637.655	0.05
637.842	0.09
638.029	0.03
638.215	0.11
638.402	0.05
638.589	0.01
638.776	0.02
638.963	-0.01
639.149	0.1
639.336	0.13
639.523	0.04
639.709	0.06
639.896	0.06
640.083	0.11
640.27	0.07
640.456	0.06
640.643	0.07
640.829	0.03
641.016	0.05
641.203	0.04
641.389	0.1
641.576	0.07
641.762	0.06
641.949	-0
642.135	0.07
642.322	0.07
642.508	0.01
642.695	0.05
642.881	0.04
643.068	0.02
643.254	0.07
643.441	0.05
643.627	0.01
643.813	0.01
644	0.1
644.186	0.03
644.372	0.01
644.559	0.07
644.745	0.04
644.931	0.03
645.118	0.04
645.304	0.04
645.49	0.05
645.676	0.03
645.862	0.06
646.049	0.1
646.235	0.03
646.421	0.13
646.607	0.11
646.793	0.04
646.979	0.03
647.165	0.07
647.352	0.06
647.538	0.09
647.724	0.05
647.91	0.06
648.096	0.07
648.282	0.1
648.468	0.04
648.654	0.05
648.84	0.04
649.026	0.05
649.212	0.05
649.397	0.05
649.583	0.01
649.769	0.07
649.955	0.04
650.141	0.08
650.327	0.1
650.513	0.01
650.698	0.05
650.884	-0.02
651.07	0.06
651.256	0.05
651.442	0.04
651.627	0.05
651.813	0.08
651.999	0.08
652.184	0.06
652.37	0.04
652.556	0.01
652.741	0.07
652.927	-0.02
653.113	0.06
653.298	0.03
653.484	0.06
653.669	0.02
653.855	0.05
654.04	0.07
654.226	0.05
654.412	0.06
654.597	0
654.782	0.04
654.968	0.06
655.153	0.09
655.339	0.02
655.524	0.01
655.71	0.07
655.895	0.05
656.08	0.04
656.266	0.1
656.451	0.04
656.636	0
656.822	0.05
657.007	0.03
657.192	0.04
657.378	0.03
657.563	0.04
657.748	0.02
657.933	0.07
658.118	-0
658.304	0.05
658.489	0.11
658.674	0.08
658.859	0.04
659.044	0.08
659.229	0.05
659.414	0.03
659.599	0.03
659.785	0.02
659.97	0.04
660.155	0.09
660.34	0.06
660.525	0.04
660.71	0.01
660.895	0.06
661.08	-0
661.264	0.05
661.449	0.1
661.634	0.1
661.819	0.09
662.004	0.08
662.189	-0.02
662.374	0.05
662.559	0.04
662.743	-0.01
662.928	0.05
663.113	0.01
663.298	0
663.483	0.05
663.667	0.04
663.852	0.03
664.037	0.1
664.221	0.04
664.406	0.09
664.591	0.09
664.775	0.07
664.96	0.08
665.145	0.05
665.329	0.06
665.514	0.01
665.698	0.04
665.883	-0.05
666.068	0.16
666.252	0.05
666.437	-0
666.621	0.09
666.806	0.08
666.99	0.03
667.174	0
667.359	0.1
667.543	0.06
667.728	0.08
667.912	-0.02
668.096	0.06
668.281	0.02
668.465	0.05
668.649	0.07
668.834	0.05
669.018	0.05
669.202	0.03
669.387	0.04
669.571	0.13
669.755	0.02
669.939	0.03
670.124	0.06
670.308	0.11
670.492	0.11
670.676	0.08
670.86	0.04
671.044	0.02
671.228	0.03
671.413	0.04
671.597	0.06
671.781	0.05
671.965	0.08
672.149	0.07
672.333	0.05
672.517	0.05
672.701	0.1
672.885	0.03
673.069	-0.04
673.253	0.12
673.437	0.05
673.621	0.02
673.804	0.04
673.988	0.06
674.172	0.04
674.356	0.03
674.54	0.07
674.724	0.13
674.908	0.05
675.091	0.09
675.275	0.06
675.459	0.13
675.643	0.14
675.826	0.09
676.01	0.05
676.194	0.03
676.377	0.07
676.561	0.1
676.745	0.08
676.928	0.05
677.112	0.1
677.296	0.06
677.479	0.08
677.663	0.07
677.846	0.09
678.03	0.03
678.213	0.03
678.397	0.07
678.58	0.02
678.764	0.07
678.947	-0.01
679.131	0.02
679.314	0.11
679.498	0.06
679.681	0.06
679.865	0.14
680.048	0.08
680.231	0.06
680.415	0.06
680.598	0.05
680.781	0.07
680.965	0.09
681.148	0.07
681.331	0.05
681.514	0.08
681.698	0.08
681.881	0.06
682.064	0.07
682.247	0.07
682.43	0.01
682.614	0.13
682.797	0.11
682.98	0.09
683.163	0.06
683.346	0.08
683.529	0.08
683.712	0.01
683.895	0.1
684.078	0.01
684.261	0.01
684.444	0.13
684.627	0.07
684.81	0.03
684.993	0.05
685.176	0.08
685.359	0.04
685.542	0.04
685.725	0.1
685.908	0.05
686.091	0.03
686.274	0.09
686.457	0.11
686.639	0.03
686.822	0.11
687.005	0.05
687.188	0.09
687.371	0.18
687.553	0.09
687.736	0.08
687.919	0.15
688.102	0.14
688.284	0.07
688.467	0.06
688.65	0.01
688.832	0.01
689.015	0.02
689.197	0
689.38	0.18
689.563	0.16
689.745	0
689.928	-0.01
690.11	0.07
690.293	0.05
690.475	0.05
690.658	0.08
690.84	0.09
691.023	0.04
691.205	0.07
691.388	0.04
691.57	0.09
691.752	0.11
691.935	-0.06
692.117	0.04
692.3	0.07
692.482	0.09
692.664	0.09
692.847	0.09
693.029	0.1
693.211	0.09
693.393	0.09
693.576	0.03
693.758	0.05
693.94	0.06
694.122	0.03
694.304	0.04
694.487	0.04
694.669	0.13
694.851	0.02
695.033	0.04
695.215	0.03
695.397	0.04
695.579	0.09
695.761	0.02
695.943	0.01
696.125	0.14
696.308	0.08
696.49	-0.06
696.671	0.19
696.853	0.1
697.035	0.23
697.217	0.05
697.399	0.09
697.581	0.03
697.763	0.02
697.945	-0.01
698.127	0.08
698.309	0.12
698.491	0.1
698.672	0.12
698.854	0.12
699.036	0.13
699.218	-0.01
699.399	0.06
699.581	0.12
699.763	0.08
699.945	0.02
700.126	0.01
700.308	0.08
700.49	0.02
700.671	-0.06
700.853	0.02
701.035	0
701.216	0.06
701.398	0.02
701.579	0.08
701.761	0.16
701.943	-0.01
702.124	0.07
702.306	0.07
702.487	0.14
702.669	0.1
702.85	0.02
703.031	0.02
703.213	0.15
703.394	0.06
703.576	0.07
703.757	0.17
703.938	0.13
704.12	0.17
704.301	0.09
704.483	0.07
704.664	0.09
704.845	0.18
705.026	0.11
705.208	0.05
705.389	0.02
705.57	0.02
705.751	0.08
705.933	0.09
706.114	0.21
706.295	0.09
706.476	-0.02
706.657	0.14
706.838	0.1
707.02	0.13
707.201	0.02
707.382	-0.01
707.563	0.09
707.744	-0.02
707.925	0.07
708.106	-0.01
708.287	0.08
708.468	0.13
708.649	0.1
708.83	0.1
709.011	0.09
709.192	0.07
709.373	-0.04
709.554	0.05
709.734	0.1
709.915	0.13
710.096	0.03
710.277	-0.02
710.458	0.04
710.639	0.14
710.819	-0.01
711	0.04
711.181	0.06
711.362	0.15
711.542	0.08
711.723	0.07
711.904	0.1
712.085	0.11
712.265	0.05
712.446	-0.02
712.627	0.07
712.807	0.05
712.988	0.06
713.168	-0.04
713.349	0.05
713.53	-0.02
713.71	-0.02
713.891	0.03
714.071	0.07
714.252	-0.01
714.432	-0.01
714.613	-0.01
714.793	0.1
714.974	0.11
715.154	0.1
715.334	0.06
715.515	0.17
715.695	0
715.876	0.07
716.056	0.01
716.236	-0.02
716.417	0.05
716.597	-0
716.777	0.18
716.957	0.01
717.138	0.07
717.318	0.07
717.498	-0.04
717.678	0.07
717.859	0.08
718.039	0.04
718.219	0.08
718.399	0.17
718.579	0.01
718.759	-0
718.939	0.04
719.12	0.07
719.3	0.04
719.48	-0.06
719.66	-0.08
719.84	0.13
720.02	0.02
720.2	0.06
720.38	0.08
720.56	0.18
720.74	-0.01
720.92	0.07
721.1	0.15
721.279	0.14
721.459	-0.01
721.639	-0.08
721.819	0.04
721.999	0.08
722.179	0.2
722.359	0.01
722.538	0.08
722.718	0.01
722.898	0.06
723.078	0.02
723.257	0
723.437	0.08
723.617	0.11
723.797	0.08
723.976	-0.02
724.156	0.08
724.336	0.19
724.515	0.19
724.695	-0.08
724.874	0.01
725.054	0.07
725.234	-0.01
725.413	0.08
725.593	0.05
725.772	0.1
725.952	0.02
726.131	0.07
726.311	0.07
726.49	0.11
726.67	-0.09
726.849	0.04
727.028	0.12
727.208	0.06
727.387	0.12
727.567	-0.06
727.746	0
727.925	0.01
728.105	-0.01
728.284	0.09
728.463	0.05
728.643	0.11
728.822	-0.06
729.001	0
729.18	0.08
729.359	0.17
729.539	-0.02
729.718	0.06
729.897	0.14
730.076	-0.04
730.255	-0.04
730.434	0.12
730.614	0.15
730.793	0.09
730.972	0.02
731.151	0.05
731.33	0.19
731.509	0.16
731.688	0.01
731.867	0.02
732.046	-0.06
732.225	0.28
732.404	0.02
732.583	0.01
732.762	0.14
732.941	0.13
733.12	-0
733.298	-0.03
733.477	0.14
733.656	0
733.835	-0.1
734.014	0.1
734.193	0
734.371	0.12
734.55	0.03
734.729	-0.07
734.908	0.1
735.086	0.17
735.265	0.15
735.444	0.01
735.623	0.04
735.801	-0.07
735.98	0.01
736.159	0.03
736.337	0.16
736.516	0.06
736.694	0.09
736.873	0.01
737.052	0.14
737.23	0.19
737.409	0.07
737.587	0.17
737.766	-0.09
737.944	0.06
738.123	0.19
738.301	0.16
738.479	0.04
738.658	0.09
738.836	-0
739.015	0.15
739.193	0.13
739.371	0.04
739.55	0.09
739.728	0.01
739.906	0.19
740.085	0.24
740.263	0.06
740.441	-0.03
740.62	0.12
740.798	0.16
740.976	-0.06
741.154	0.09
741.332	0.2
741.511	0.02
741.689	0.13
741.867	0.08
742.045	0.06
742.223	0.04
742.401	0.06
742.579	0
742.757	0.1
742.935	-0.01
743.114	0.04
743.292	0.05
743.47	0.02
743.648	0.02
743.826	-0.05
744.004	0.14
744.181	0.19
744.359	-0.06
744.537	0.02
744.715	0.11
744.893	0.09
745.071	0.04
745.249	0.05
745.427	-0.03
745.605	0.24
745.782	0.12
745.96	0.21
746.138	0.08
746.316	0.25
746.493	-0.01
746.671	0.1
746.849	0.1
747.027	0.16
747.204	0.02
747.382	-0.04
747.56	-0.07
747.737	-0.03
747.915	-0.05
748.093	0.12
748.27	-0.01
748.448	0.1
748.625	-0.06
748.803	-0.09
748.98	-0.01
749.158	0.06
749.335	0.16
749.513	0.05
749.69	-0.01
749.868	0.07
750.045	0.11
750.223	0.06
750.4	-0.1
750.578	0.29
750.755	0.03
750.932	-0.1
751.11	0.17
751.287	-0.15
751.464	0.14
751.642	0.03
751.819	-0.04
751.996	0.02
752.173	0
752.351	-0.03
752.528	0.08
752.705	0.16
752.882	0.1
753.06	0.11
753.237	0.12
753.414	0.26
753.591	0.24
753.768	0.01
753.945	0.07
754.122	-0
754.299	0.16
754.476	-0.01
754.654	-0
754.831	0.07
755.008	0.21
755.185	-0.08
755.362	-0.05
755.539	-0.04
755.716	0.03
755.892	0.06
756.069	0.02
756.246	-0.09
756.423	-0.04
756.6	0.24
756.777	0.02
756.954	0.18
757.131	-0.05
757.307	-0.09
757.484	-0.09
757.661	0.06
757.838	0.1
758.015	-0.14
758.191	0.16
758.368	0.15
758.545	0.07
758.721	0.04
758.898	0.07
759.075	0.11
759.251	0.27
759.428	0.17
759.605	-0.05
759.781	0.1
759.958	0.13
760.134	-0.01
760.311	0.04
760.488	0.13
760.664	0.15
760.841	-0.04
761.017	0.07
761.194	0.06
761.37	0.08
761.547	-0.04
761.723	0.02
761.899	0.12
762.076	0.08
762.252	0.09
762.429	-0.04
762.605	0.14
762.781	0.09
762.958	0.15
763.134	-0.03
763.31	-0
763.486	0.17
763.663	-0.02
763.839	0.11
764.015	-0.15
764.191	-0.13
764.368	0.07
764.544	-0.01
764.72	0.14
764.896	0.08
765.072	0.07
765.248	0.05
765.425	0.09
765.601	0.01
765.777	0.08
765.953	-0.09
766.129	-0.03
766.305	0.06
766.481	0.13
766.657	0.08
766.833	0.25
767.009	-0.04
767.185	0.01
767.361	0.05
767.537	0.01
767.713	0.18
767.889	0.05
768.065	-0.06
768.24	-0.02
768.416	0.09
768.592	-0.04
768.768	0.07
768.944	-0.02
769.12	-0.04
769.295	-0.02
769.471	0.05
769.647	0.01
769.823	0.22
769.998	0.07
770.174	-0.09
770.35	0.37
770.525	0.34
770.701	0.15
770.877	0.02
771.052	0.02
771.228	0.27
771.403	0.12
771.579	0.21
771.755	0.37
771.93	0.03
772.106	-0.09
772.281	-0.11
772.457	0.04
772.632	0.14
772.808	0
772.983	-0.01
773.159	-0.22
773.334	0.12
773.509	0
773.685	-0.03
773.86	0.44
774.036	0.26
774.211	0.05
774.386	0
774.562	0.05
774.737	0.12
774.912	0.05
775.087	0.21
775.263	-0.07
775.438	0.03
775.613	-0.1
775.788	-0.13
775.964	0.28
776.139	0.44
776.314	-0.08
776.489	0.14
776.664	0.17
776.839	-0.12
777.014	0.14
777.19	0.12
777.365	0.32
777.54	0.3
777.715	-0.02
777.89	0.08
778.065	-0.15
778.24	0.14
778.415	0.25
778.59	-0.06
778.765	-0.01
778.94	0.05
779.115	0.05
779.289	0.19
779.464	0.15
779.639	0.08
779.814	-0.07
779.989	-0.16
780.164	0.18
780.339	0.05
780.513	-0.21
780.688	-0.11
780.863	0.06
781.038	0.19
781.212	-0.09
781.387	0.03
781.562	0.39
781.737	-0.01
781.911	0.24
782.086	-0.05
782.261	-0.07
782.435	0.32
782.61	0.06
782.784	0.01
782.959	0.34
783.134	0.04
783.308	-0.02
783.483	-0.05
783.657	0.43
783.832	0.23
784.006	-0.28
784.181	0.06
784.355	0.25
784.53	-0.04
784.704	0.01
784.878	0.39
785.053	0.08
785.227	0.46
785.402	0.33
785.576	-0.26
785.75	0.23
785.925	0.24
786.099	0.04
786.273	0.27
786.448	0.14
786.622	0.13
786.796	0.14
786.97	0.11
787.145	0.54
787.319	-0.23
787.493	-0
787.667	-0.35
787.841	0.21
788.015	0.2
788.19	0.03
788.364	0.25
788.538	0.17
788.712	0.34
788.886	-0.02
789.06	0.26
789.234	0.05
789.408	-0.11
789.582	-0
789.756	0.03
789.93	-0.05
790.104	0.05
790.278	0.01
790.452	-0.05
790.626	0.21
790.8	-0.07
790.973	0.17
791.147	0.36
791.321	0.3
791.495	0.24
791.669	-0.04
791.843	0.16
792.016	0.06
792.19	0.29
792.364	-0.15
792.538	0.64
792.711	0.21
792.885	0.07
793.059	-0.06
793.233	-0.15
793.406	0.43
793.58	0.14
793.754	0.09
793.927	0.12
794.101	0.38
794.274	0.06
794.448	0.33
794.622	-0.14
794.795	0.31
794.969	-0.1
795.142	0.45
795.316	0.01
795.489	0.1
795.663	0.56
795.836	0.04
796.009	-0.19
796.183	0.55
796.356	0.04
796.53	0.24
796.703	0.31
796.876	0.66
797.05	0.2
797.223	0.07
797.396	0.31
797.57	0.2
797.743	0.23
797.916	0.15
798.09	-0.02
798.263	0.23
798.436	0.18
798.609	-0.05
798.782	-0.02
798.956	0.21
799.129	0.02
799.302	0.12
799.475	0.09
799.648	-0.07
799.821	0.09
799.994	0.11
800.167	-0.42
800.34	0.02
800.514	0.11
800.687	0.1
800.86	0.04
801.033	0.14
801.206	0.32
801.379	0.02
801.551	0.03
801.724	0.17
801.897	0.51
802.07	0.12
802.243	-0.2
802.416	-0.01
802.589	0.05
802.762	0.31
802.935	0.22
803.107	0.36
803.28	0.11
803.453	0.3
803.626	-0.02
803.798	-0.15
803.971	-0.05
804.144	0.23
804.317	0.22
804.489	0.38
804.662	0.26
804.835	-0.11
805.007	-0.12
805.18	0.56
805.353	0.53
805.525	-0.04
805.698	0.09
805.87	0.75
806.043	0.32
806.215	-0.09
806.388	-0.12
806.56	0.39
806.733	0.49
806.905	0.17
807.078	-0.04
807.25	-0.43
807.423	0.28
807.595	-0.01
807.768	0.18
807.94	0.33
808.112	0.62
808.285	0.17
808.457	-0.1
808.629	0.11
808.802	0.23
808.974	-0.06
809.146	0.12
809.318	-0.36
809.491	0.22
809.663	0.41
809.835	0.21
810.007	0.14
810.18	-0.05
810.352	-0.17
810.524	0.13
810.696	0.27
810.868	0.58
811.04	0.08
811.212	0.22
811.384	0.35
811.556	0.43
811.728	0.17
811.901	0.81
812.073	0.07
812.245	0.6
812.417	0.3
812.589	-0.47
812.76	0.36
812.932	0.21
813.104	0.77
813.276	0.1
813.448	0.63
813.62	0.29
813.792	0.1
813.964	0.22
814.136	0.16
814.307	0.25
814.479	-0.01
814.651	-0.17
814.823	0.57
814.995	0
815.166	0.07
815.338	-0.1
815.51	-0.27
815.681	0.95
815.853	0.08
816.025	0.42
816.196	0.64
816.368	0.44
816.54	-0.48
816.711	-0.03
816.883	0.51
817.054	0.91
817.226	-0.41
817.398	0.6
817.569	0.02
817.741	0.39
817.912	-0.01
818.084	0.06
818.255	0.37
818.426	-0.25
818.598	0.14
818.769	-0.44
818.941	0.51
819.112	0.72
819.283	0.49
819.455	-0.35
819.626	0.12
819.798	0.65
819.969	-0.07
820.14	0.09
820.311	-0.04
820.483	-0.14
820.654	0.33
820.825	0.28
820.996	-0
821.168	0.04
821.339	0.2
821.51	-0.4
821.681	-0.24
821.852	-0.01
822.023	-0.23
822.195	-0.32
822.366	0.39
822.537	-0.33
822.708	-0.11
822.879	-0.2
823.05	0.83
823.221	-0
823.392	0.33
823.563	0.15
823.734	0.07
823.905	0.22
824.076	-0.36
824.247	-0.39
824.418	0.07
824.589	0.7
824.759	0.2
824.93	-0.06
825.101	-0.64
825.272	0.7
825.443	0.73
825.614	0.55
825.784	-0.64
825.955	0.76
826.126	0.44
826.297	0.34
826.467	0.67
826.638	0.48
826.809	0.02
826.98	-0.21
827.15	0.47
827.321	0.12
827.492	0.92
827.662	0.51
827.833	0.84
828.003	0.84
828.174	0.01
828.345	-0.29
828.515	0.89
828.686	0.18
828.856	-0.04
829.027	0.19
829.197	-0.39
829.368	0.88
829.538	-0.28
829.709	-0.3
829.879	0.33
830.049	0.17
830.22	-0.03
830.39	0.02
830.56	0.63
830.731	0.06
830.901	0.18
831.072	0.56
831.242	0.22
831.412	0.05
831.582	0.46
831.753	-0.4
831.923	0.74
832.093	0.1
832.263	0.16
832.434	-0.2
832.604	-0.17
832.774	0.31
832.944	-0.22
833.114	0.04
833.284	0.36
833.454	-0.45
833.624	-0.03
833.795	0.01
833.965	0.8
834.135	1
834.305	-0.7
834.475	-0.58
834.645	0.18
834.815	-0.2
834.985	0.18
835.155	0.22
835.325	0.1
835.494	0.3
835.664	-0.37
835.834	-0.53
836.004	-0.13
836.174	0.58
836.344	-0.11
836.514	-1.07
836.684	-0.18
836.853	0.13
837.023	-0.1
837.193	-0.47
837.363	1.14
837.532	0.71
837.702	0.44
837.872	-0.28
838.041	0.61
838.211	1.57
838.381	-0.39
838.55	-0.12
838.72	2.18
838.89	0.67
839.059	0.05
839.229	-0.24
839.398	0.89
839.568	-0.03
839.738	0.17
839.907	0.54
840.077	0.48
840.246	0.02
840.416	0.03
840.585	-0.61
840.755	1.71
840.924	1.72
841.093	-0.6
841.263	0.03
841.432	0.95
841.602	0.56
841.771	-0.09
841.94	-0.07
842.11	1.76
842.279	1.29
842.448	0.08
842.617	-0.58
842.787	1.18
842.956	-0.48
843.125	0.24
843.294	0.05
843.464	0.74
843.633	0.15
843.802	-0.9
843.971	0.67
844.14	0.22
844.309	1.09
844.479	-0.28
844.648	-1.27
844.817	-0.86
844.986	0.07
845.155	-0.23
845.324	0.01
845.493	-0.12
845.662	-1.13
845.831	1.29
846	0.16
846.169	0.24
846.338	1.43
846.507	0.78
846.676	0.55
846.844	-0.71
847.013	1.1
847.182	0.03
847.351	0.01
847.52	0.21
847.689	1.1
847.858	-0.46
848.026	0.3
848.195	-0.04
848.364	0.53
848.533	-1.46
848.701	-0.52
848.87	0.62
849.039	1.32
849.207	0.91
849.376	1.59
849.545	1.27
849.713	0.1
849.882	-0.35
850.051	0.18
850.219	1.54
850.388	0.21
850.556	-0.56
850.725	-0.76
850.893	-0.26
851.062	-0.24
851.23	0.24
851.399	-0.42
851.567	-0.11
851.736	0.6
851.904	-1.04
852.073	0.08
852.241	0.74
852.41	0.75
852.578	0.1
852.746	-0.01
852.915	1.14
853.083	0.58
853.251	-1.36
853.42	-0.73
853.588	0.29
853.756	2.02
853.924	0.33
854.093	0.22
854.261	0.83
854.429	-0.86
854.597	0.49
854.765	-0.93
854.934	0.15
855.102	0.65
855.27	0.57
855.438	0.08
855.606	0.38
855.774	1.36
855.942	-2.85
856.11	-2.1
856.278	1.1
856.446	0.99
856.614	-0.24
856.782	0.18
856.95	1.7
857.118	1.75
857.286	-0.04
857.454	-0.05
857.622	1.22
857.79	1.06
857.958	0.16
858.126	-0.36
858.294	-1.14
858.462	1.4
858.629	-0.65
858.797	-0.88
858.965	1.38
859.133	0.59
859.301	-0.31
859.468	0.5
859.636	-0.3
859.804	3.1
859.971	1.21
860.139	0.21
860.307	1.09
860.474	1.4
860.642	-0.75
860.81	-0.42
860.977	-0.26
861.145	0.47
861.313	0.63
861.48	-0.19
861.648	1.62
861.815	0.34
861.983	-0.39
862.15	-0.06
862.318	0.83
862.485	2.69
862.653	-0.41
862.82	-0.41
862.988	1.45
863.155	1.78
863.322	-1.02
863.49	-0.77
863.657	-0.53
863.824	1.77
863.992	0.5
864.159	0.35
864.326	1.09
864.494	0.39
864.661	2.65
864.828	-1.25
864.996	2.46
865.163	2.5
865.33	-0.57
865.497	-1.76
865.664	-0.33
865.832	-1.46
865.999	-0.42
866.166	-1.88
866.333	-1.8
866.5	0.07
866.667	-0.2
866.834	-0.16
867.001	2.42
867.168	-0.94
867.335	0.07
867.502	-0.59
867.669	0.53
867.836	2.8
868.003	0.34
868.17	2.1
868.337	-0.57
868.504	2.17
868.671	-1.8
868.838	-0.37
869.005	-0.48
869.172	0.75
869.339	0.77
869.505	-0.57
869.672	0.81
869.839	3.07
870.006	1.21
870.173	-0.49
870.339	1.12
870.506	3.81
870.673	-0.54
870.84	0.49
871.006	1.76
871.173	0.05
871.34	0.22
871.506	-1.27
871.673	0.94
871.839	-1.5
872.006	0.72
872.173	0.76
872.339	0.28
872.506	2.73
872.672	0
872.839	-1.63
873.005	-0.73
873.172	4
873.338	1.07
873.505	0.45
873.671	-1.11
873.838	1.74
874.004	-0.53
874.171	-2.03
874.337	0.41
874.503	2.01
874.67	0.12
874.836	-0.86
875.002	2.52
875.169	0.26
875.335	-0.63
875.501	0.3
875.668	1.76
875.834	0.66
876	0.68
876.166	1.07
876.332	0.7
876.499	3.32
876.665	-0.22
876.831	-0.97
876.997	3.28
877.163	2.64
877.329	-0.16
877.495	0.84
877.662	1.23
877.828	0.62
877.994	0.22
878.16	-1.2
878.326	-1.42
878.492	-1.24
878.658	-0.74
878.824	0.69
878.99	2.18
879.156	-0.86
879.322	4.11
879.487	0.86
879.653	1.12
879.819	-1.55
879.985	-0.2
880.151	1.03
880.317	0.13
880.483	1.55
880.648	2.35
880.814	-1.47
880.98	2.61
881.146	-2.93
881.312	-1.61
881.477	-0.68
881.643	0.24
881.809	1.94
881.974	1.35
882.14	-0.79
882.306	1.02
882.471	3.3
882.637	-1.18
882.803	1.4
882.968	3.48
883.134	5.24
883.299	1.33
883.465	0.34
883.63	3.92
883.796	2.39
883.961	1.71
884.127	2.44
884.292	-3.08
884.458	-1.9
884.623	-1.9
