Data from Apollo_Calib_20240827__AbsoluteIrradiance__182__02-11-01-449.txt Node

Date: Wed Aug 28 02:11:01 BST 2024
User: biology
Spectrometer: FLMT08252
Trigger mode: 0
Integration Time (sec): 5.000000E-1
Scans to average: 5
Electric dark correction enabled: true
Nonlinearity correction enabled: false
Boxcar width: 0
XAxis mode: Wavelengths
Number of Pixels in Spectrum: 3648
>>>>>Begin Spectral Data<<<<<
179.588	-0
179.809	-0
180.03	-0
180.251	-0
180.473	-0
180.694	0
180.915	0
181.136	-0
181.357	0
181.578	0
181.799	-0
182.02	-0
182.241	-0
182.462	-0
182.683	0
182.904	-0
183.125	-0
183.346	0
183.567	0
183.788	-0
184.009	-0
184.23	0
184.451	0
184.672	-0
184.892	-0
185.113	-0
185.334	0
185.555	-0
185.776	-0
185.996	0
186.217	-0
186.438	0
186.659	-0
186.879	0
187.1	-0
187.321	-0
187.541	-0
187.762	0
187.983	0
188.203	0
188.424	0
188.644	-0
188.865	0
189.086	-0
189.306	-0
189.527	0
189.747	-0
189.968	-0
190.188	0
190.409	0
190.629	0
190.849	-0
191.07	-0
191.29	0
191.511	0
191.731	-0
191.951	-0
192.172	0
192.392	-0
192.612	0
192.833	-0
193.053	0
193.273	0
193.493	0
193.714	-0
193.934	0
194.154	0
194.374	0
194.594	0
194.815	0
195.035	0
195.255	0
195.475	-0
195.695	0
195.915	0
196.135	0
196.355	0
196.575	0
196.795	0
197.015	-0
197.235	-0
197.455	0
197.675	0
197.895	-0
198.115	-0
198.335	0
198.555	-0
198.775	0
198.995	0
199.214	0
199.434	-0
199.654	-0
199.874	0
200.094	1.48
200.313	-0.14
200.533	-0.43
200.753	-0.52
200.973	0.98
201.192	0.6
201.412	-0.44
201.632	0.18
201.851	0.96
202.071	-0.3
202.291	-0.76
202.51	-0.36
202.73	0.38
202.95	-0.01
203.169	-1.06
203.389	-0.01
203.608	0.52
203.828	-0.3
204.047	-0.38
204.267	-0.04
204.486	0.46
204.706	0.8
204.925	-0.04
205.145	-0.29
205.364	0.63
205.583	0.9
205.803	-0.26
206.022	-0.5
206.242	0.26
206.461	0.16
206.68	-0.41
206.9	-0.2
207.119	0.52
207.338	0.89
207.557	-0.4
207.777	0.05
207.996	-0.19
208.215	0.7
208.434	-0.06
208.654	-0.36
208.873	0.48
209.092	0.77
209.311	0.06
209.53	0.08
209.749	-0.22
209.968	-0.23
210.187	-0.17
210.407	-0.5
210.626	0.21
210.845	0.28
211.064	0.02
211.283	-0.33
211.502	0.43
211.721	0.01
211.94	0.19
212.159	0.06
212.377	0.18
212.596	0.32
212.815	0.17
213.034	0.24
213.253	0.28
213.472	0.34
213.691	-0.14
213.91	-0.21
214.128	-0.23
214.347	0.56
214.566	-0.23
214.785	-0.39
215.003	0.2
215.222	0.14
215.441	0.11
215.66	-0.18
215.878	0.01
216.097	0.08
216.316	0
216.534	0.03
216.753	0.09
216.972	-0.01
217.19	-0.01
217.409	-0.19
217.627	-0.07
217.846	0.02
218.064	0.04
218.283	-0.17
218.501	0.43
218.72	0.21
218.938	-0.11
219.157	-0.18
219.375	0.15
219.594	0.08
219.812	-0.13
220.031	-0.33
220.249	0.41
220.467	0.31
220.686	-0.12
220.904	-0.07
221.122	-0.16
221.341	0.27
221.559	0.01
221.777	-0.2
221.995	0.06
222.214	0.04
222.432	0.07
222.65	0.04
222.868	0.08
223.086	0.18
223.305	0.14
223.523	-0.06
223.741	0.36
223.959	-0.17
224.177	-0.2
224.395	-0.17
224.613	-0.03
224.831	0.18
225.049	-0.11
225.267	-0.02
225.485	0.03
225.703	-0.16
225.921	0
226.139	-0.24
226.357	0.12
226.575	0.06
226.793	-0.16
227.011	0.74
227.229	0.1
227.447	0.2
227.665	-0.15
227.883	-0.2
228.1	0.03
228.318	0.05
228.536	-0.25
228.754	-0.01
228.972	0.12
229.189	0.1
229.407	-0.03
229.625	-0.03
229.843	0.28
230.06	0.16
230.278	-0.13
230.496	-0.06
230.713	0.01
230.931	0.15
231.149	-0.01
231.366	-0.14
231.584	0.02
231.801	0.39
232.019	-0.03
232.236	-0.15
232.454	-0.03
232.671	0.11
232.889	-0.04
233.106	-0.16
233.324	0.08
233.541	0.05
233.759	-0
233.976	-0.04
234.194	0.05
234.411	-0.02
234.628	-0.12
234.846	0.03
235.063	0.01
235.28	-0.01
235.498	-0.1
235.715	-0.13
235.932	0.14
236.149	0.04
236.367	-0
236.584	0.08
236.801	0
237.018	0.08
237.236	-0.03
237.453	-0.15
237.67	0.08
237.887	0.04
238.104	0.01
238.321	-0.04
238.538	-0.02
238.755	0.2
238.973	-0.27
239.19	0
239.407	0.02
239.624	-0.05
239.841	-0.14
240.058	-0.1
240.275	0.09
240.492	0
240.709	0.01
240.925	-0.03
241.142	0.04
241.359	-0.03
241.576	-0.13
241.793	-0.08
242.01	0.05
242.227	0.12
242.444	-0
242.66	0.14
242.877	0.02
243.094	-0.02
243.311	0.04
243.527	-0.02
243.744	0.04
243.961	0.13
244.178	-0.07
244.394	0.05
244.611	0.09
244.828	0.16
245.044	-0.08
245.261	-0.09
245.477	0.11
245.694	0.06
245.911	-0.06
246.127	0.04
246.344	0.2
246.56	0.16
246.777	0.02
246.993	0.04
247.21	0.04
247.426	0.03
247.643	0.02
247.859	-0.02
248.076	-0.03
248.292	0.18
248.508	-0.01
248.725	0.03
248.941	0.09
249.157	0.12
249.374	-0.04
249.59	-0.09
249.806	0.08
250.023	0.14
250.239	-0.07
250.455	-0.06
250.671	0.02
250.888	0.03
251.104	0.1
251.32	-0.06
251.536	0.05
251.752	-0.01
251.969	0.01
252.185	0.06
252.401	0.13
252.617	0.06
252.833	-0
253.049	-0.02
253.265	0.06
253.481	0.05
253.697	0.02
253.913	-0.05
254.129	0.01
254.345	0.08
254.561	-0.01
254.777	-0.03
254.993	0.04
255.209	-0.03
255.425	-0.04
255.641	-0.08
255.857	0.07
256.073	0.03
256.288	-0.01
256.504	-0.06
256.72	0.03
256.936	0.17
257.152	0
257.367	-0.08
257.583	-0.05
257.799	0.1
258.015	-0.07
258.23	-0.04
258.446	0.14
258.662	-0
258.877	-0.04
259.093	-0.05
259.309	0.02
259.524	0.02
259.74	-0.01
259.955	-0.1
260.171	0.07
260.387	0.03
260.602	0.11
260.818	0.04
261.033	-0.01
261.249	-0.06
261.464	0.01
261.68	-0.04
261.895	0.07
262.11	0.06
262.326	0
262.541	-0.07
262.757	0.03
262.972	0.02
263.187	0.01
263.403	0.06
263.618	0.09
263.833	-0.01
264.049	-0.05
264.264	0.02
264.479	0.07
264.694	0.11
264.91	-0.06
265.125	0.01
265.34	0.05
265.555	0.18
265.77	0.04
265.986	-0.04
266.201	0
266.416	0.11
266.631	0.03
266.846	0.02
267.061	0.05
267.276	0.08
267.491	-0.1
267.706	0.01
267.921	0.03
268.136	0.11
268.351	0.01
268.566	-0.04
268.781	0.11
268.996	0.03
269.211	0.04
269.426	-0.03
269.641	-0.01
269.856	0.1
270.071	-0.02
270.285	-0.12
270.5	0.11
270.715	0.07
270.93	0.01
271.145	0.04
271.359	0.13
271.574	-0.04
271.789	-0.02
272.004	-0.07
272.218	0.02
272.433	0.07
272.648	-0
272.862	0.06
273.077	-0.01
273.292	0.07
273.506	-0.04
273.721	0.01
273.936	0.1
274.15	0.08
274.365	0.01
274.579	0.09
274.794	0.05
275.008	0.06
275.223	-0.04
275.437	0.05
275.652	0.05
275.866	0.04
276.081	0.02
276.295	0.1
276.509	0.05
276.724	0.06
276.938	0.04
277.153	0.07
277.367	0.08
277.581	-0
277.796	0.05
278.01	-0.05
278.224	0.08
278.438	0.12
278.653	0.01
278.867	-0.05
279.081	-0.06
279.295	0.01
279.51	0.07
279.724	-0.04
279.938	0.1
280.152	0.02
280.366	-0.04
280.58	0.07
280.794	0.08
281.008	0.09
281.222	0.05
281.437	0.09
281.651	0.03
281.865	0.09
282.079	-0
282.293	-0.1
282.507	-0.04
282.721	0.03
282.935	0.03
283.148	-0.07
283.362	-0.02
283.576	-0.03
283.79	0.02
284.004	0
284.218	0.08
284.432	0.05
284.646	0.04
284.859	-0.01
285.073	0
285.287	0.04
285.501	-0.03
285.714	0.04
285.928	0.01
286.142	0.05
286.356	0.02
286.569	-0.02
286.783	0.11
286.997	0.03
287.21	0.04
287.424	0.02
287.637	-0.01
287.851	-0.02
288.065	0.1
288.278	0.01
288.492	0.02
288.705	0.05
288.919	0.06
289.132	-0.08
289.346	0.03
289.559	-0.09
289.773	-0.05
289.986	0.01
290.2	0.01
290.413	0.08
290.626	-0.08
290.84	-0.03
291.053	-0.03
291.267	0.11
291.48	0.02
291.693	-0
291.906	-0.02
292.12	0.02
292.333	0.01
292.546	-0
292.76	0.16
292.973	0.02
293.186	0.08
293.399	-0.01
293.612	0.09
293.826	-0.01
294.039	-0.01
294.252	0.02
294.465	0.07
294.678	0.06
294.891	0.06
295.104	-0.06
295.317	0.03
295.53	0.02
295.743	0.02
295.956	-0.04
296.169	0.1
296.382	0.07
296.595	0.04
296.808	-0.02
297.021	0.07
297.234	0.09
297.447	0.03
297.66	0.04
297.873	0.06
298.086	0.04
298.299	0.01
298.511	-0.01
298.724	0.05
298.937	-0.02
299.15	-0.04
299.363	0.01
299.575	0.13
299.788	0.05
300.001	0.04
300.213	-0.04
300.426	0.06
300.639	0.04
300.852	0.01
301.064	0.09
301.277	0.11
301.489	0.05
301.702	0.08
301.915	0.03
302.127	0
302.34	0.05
302.552	0.02
302.765	0.02
302.977	0.06
303.19	-0.03
303.402	0.03
303.615	-0.03
303.827	0.03
304.04	-0.01
304.252	0.06
304.464	0.01
304.677	0.16
304.889	0.03
305.102	-0.01
305.314	-0.03
305.526	0.09
305.739	0.06
305.951	-0.02
306.163	0.03
306.375	0.08
306.588	0.02
306.8	0.04
307.012	-0.01
307.224	0.06
307.436	0.11
307.649	-0.03
307.861	0.03
308.073	0.04
308.285	0
308.497	-0.02
308.709	-0
308.921	0.04
309.133	0.09
309.346	0.04
309.558	-0.01
309.77	0.04
309.982	0.09
310.194	0.07
310.406	-0.01
310.617	0.12
310.829	0.01
311.041	0.07
311.253	0.01
311.465	0.03
311.677	0.05
311.889	0.03
312.101	0
312.313	0.1
312.524	0.07
312.736	-0.02
312.948	0.01
313.16	0.12
313.372	0.05
313.583	0.05
313.795	0
314.007	0.03
314.218	0.04
314.43	0.06
314.642	-0.02
314.853	-0.07
315.065	0.07
315.277	0.01
315.488	0.05
315.7	0.08
315.912	0.06
316.123	0.03
316.335	0.01
316.546	0.14
316.758	0.04
316.969	-0
317.181	0.04
317.392	0.01
317.604	0.09
317.815	-0.04
318.026	-0.03
318.238	0.01
318.449	0.01
318.661	-0.03
318.872	-0.04
319.083	-0.03
319.295	0.06
319.506	-0.02
319.717	0.04
319.929	0.06
320.14	0.06
320.351	0.02
320.562	0.01
320.774	0.07
320.985	0.07
321.196	-0.04
321.407	-0.04
321.618	0.08
321.829	0.05
322.041	0.06
322.252	0.03
322.463	0.05
322.674	0.07
322.885	-0.03
323.096	0.04
323.307	0.01
323.518	0.02
323.729	0.04
323.94	0.02
324.151	0.04
324.362	0.04
324.573	0.06
324.784	-0.01
324.995	0.1
325.206	0.07
325.417	0.02
325.628	0.03
325.838	-0
326.049	0.02
326.26	0.05
326.471	0.02
326.682	0.01
326.892	0
327.103	0
327.314	-0.05
327.525	0.11
327.735	0.08
327.946	0.02
328.157	-0.02
328.368	0.09
328.578	-0.01
328.789	0.06
328.999	0.03
329.21	0.06
329.421	0.09
329.631	0.03
329.842	0.02
330.052	0.05
330.263	0.08
330.473	0.09
330.684	0.02
330.894	0.04
331.105	0.06
331.315	-0.01
331.526	-0.08
331.736	0.11
331.947	0.04
332.157	0.02
332.367	0.02
332.578	0.05
332.788	0.08
332.999	0.07
333.209	0.02
333.419	-0.02
333.629	0.03
333.84	0.06
334.05	0.07
334.26	0.12
334.47	0.02
334.681	0.06
334.891	0.01
335.101	0.09
335.311	0.11
335.521	0.05
335.732	-0.01
335.942	0.1
336.152	0.07
336.362	0.03
336.572	0.03
336.782	0.08
336.992	0.02
337.202	0.01
337.412	-0
337.622	0.04
337.832	0.04
338.042	0.01
338.252	0.03
338.462	0.01
338.672	0.01
338.882	0.04
339.092	-0.01
339.302	0.14
339.511	0.03
339.721	-0.01
339.931	0.02
340.141	0.07
340.351	0.11
340.561	0.06
340.77	0.03
340.98	0.03
341.19	0.06
341.4	0.04
341.609	-0.01
341.819	0.02
342.029	-0.02
342.238	0.05
342.448	-0
342.658	0.06
342.867	0.05
343.077	0.03
343.286	0.06
343.496	0.05
343.706	0.1
343.915	-0.03
344.125	0.03
344.334	0.04
344.544	-0.02
344.753	0.01
344.963	0.02
345.172	-0.01
345.381	0.03
345.591	-0.01
345.8	0.05
346.01	0.09
346.219	0.08
346.428	-0.1
346.638	0.02
346.847	-0
347.056	0.11
347.266	0.02
347.475	0.05
347.684	0.1
347.893	0.06
348.103	0.03
348.312	0.03
348.521	0.05
348.73	0.08
348.94	0.09
349.149	0.05
349.358	0.04
349.567	0.02
349.776	-0.01
349.985	-0.02
350.194	0.06
350.403	0.1
350.612	-0.03
350.821	0
351.03	0.07
351.239	-0
351.448	0.02
351.657	0
351.866	0.1
352.075	0.04
352.284	0.03
352.493	-0.01
352.702	0.09
352.911	0.05
353.12	0.02
353.329	0.02
353.538	0.07
353.746	0.04
353.955	-0.01
354.164	0.06
354.373	0.06
354.582	0.06
354.79	0.02
354.999	0.05
355.208	0.01
355.416	0.09
355.625	-0.03
355.834	0.01
356.042	0.06
356.251	0.03
356.46	-0
356.668	0.06
356.877	0.13
357.085	0.05
357.294	-0.03
357.503	0.05
357.711	0.03
357.92	0.17
358.128	0.02
358.337	0.09
358.545	0.02
358.754	0.05
358.962	0.06
359.17	0.01
359.379	0.07
359.587	0.07
359.796	0.05
360.004	0.08
360.212	0.09
360.421	0.06
360.629	0.02
360.837	0.04
361.046	0.05
361.254	0.16
361.462	0.05
361.67	0.07
361.879	0.07
362.087	0.07
362.295	0.05
362.503	0.02
362.711	0.03
362.92	0
363.128	-0
363.336	-0.01
363.544	-0.02
363.752	0.04
363.96	0.04
364.168	0.04
364.376	0.05
364.584	0.04
364.792	0.05
365	0.05
365.208	0.05
365.416	0.08
365.624	0.06
365.832	-0.04
366.04	0.12
366.248	0.05
366.456	0.08
366.664	0.07
366.872	0.04
367.079	0.16
367.287	0.04
367.495	0.04
367.703	0.03
367.911	0.03
368.118	0.07
368.326	0.04
368.534	0.03
368.742	0.09
368.949	0.04
369.157	-0.01
369.365	0.06
369.572	0
369.78	0.05
369.988	0.08
370.195	0.07
370.403	0.1
370.61	0.02
370.818	0.05
371.026	0.12
371.233	-0
371.441	0.07
371.648	0.04
371.856	0.09
372.063	0.08
372.271	0.03
372.478	0.08
372.685	0.07
372.893	0.07
373.1	0.05
373.308	-0.02
373.515	0.13
373.722	0.09
373.93	0.05
374.137	0.08
374.344	0.14
374.552	0.13
374.759	0.09
374.966	0.04
375.173	0.05
375.381	0.11
375.588	0.05
375.795	0.01
376.002	0.06
376.209	0.07
376.417	0.05
376.624	0.04
376.831	0.09
377.038	0.06
377.245	-0
377.452	0.05
377.659	0.04
377.866	0.07
378.073	0.04
378.28	0.05
378.487	0.09
378.694	0.11
378.901	0.05
379.108	0.09
379.315	0.11
379.522	0.17
379.729	0.09
379.936	0.08
380.143	0.09
380.35	0.11
380.557	0.06
380.763	0.11
380.97	0.08
381.177	0.07
381.384	0.11
381.591	0.06
381.797	0.11
382.004	0.13
382.211	0.08
382.418	0.13
382.624	0.13
382.831	0.19
383.038	0.1
383.244	0.11
383.451	0.1
383.658	0.16
383.864	0.14
384.071	0.07
384.277	0.22
384.484	0.11
384.69	0.2
384.897	0.14
385.103	0.16
385.31	0.13
385.516	0.18
385.723	0.12
385.929	0.17
386.136	0.15
386.342	0.21
386.549	0.19
386.755	0.28
386.961	0.25
387.168	0.22
387.374	0.23
387.58	0.31
387.787	0.22
387.993	0.25
388.199	0.26
388.406	0.3
388.612	0.3
388.818	0.29
389.024	0.29
389.231	0.37
389.437	0.45
389.643	0.46
389.849	0.43
390.055	0.45
390.261	0.48
390.467	0.53
390.674	0.43
390.88	0.49
391.086	0.58
391.292	0.54
391.498	0.66
391.704	0.63
391.91	0.66
392.116	0.69
392.322	0.65
392.528	0.83
392.734	0.76
392.94	0.9
393.146	0.9
393.352	0.95
393.557	0.98
393.763	0.99
393.969	1.12
394.175	1.11
394.381	1.22
394.587	1.26
394.792	1.35
394.998	1.46
395.204	1.55
395.41	1.54
395.615	1.67
395.821	1.78
396.027	1.85
396.233	1.94
396.438	2.05
396.644	2.29
396.85	2.27
397.055	2.37
397.261	2.55
397.466	2.74
397.672	2.76
397.878	3.02
398.083	2.99
398.289	3.04
398.494	3.23
398.7	3.35
398.905	3.36
399.111	3.7
399.316	3.69
399.522	3.91
399.727	4.06
399.932	4.26
400.138	4.31
400.343	4.59
400.549	4.67
400.754	5.1
400.959	5.19
401.165	5.55
401.37	5.69
401.575	6.21
401.78	6.14
401.986	6.41
402.191	6.7
402.396	6.96
402.601	7.24
402.807	7.58
403.012	7.76
403.217	8.36
403.422	8.32
403.627	8.73
403.832	9.07
404.037	9.27
404.243	9.3
404.448	9.62
404.653	9.97
404.858	10.17
405.063	10.11
405.268	10.56
405.473	10.59
405.678	10.75
405.883	11.44
406.088	11.39
406.293	11.37
406.498	11.69
406.703	11.62
406.907	11.9
407.112	12.27
407.317	12.56
407.522	12.77
407.727	12.79
407.932	12.84
408.136	13.21
408.341	12.83
408.546	12.84
408.751	12.93
408.956	12.73
409.16	13.05
409.365	12.93
409.57	12.37
409.774	12.45
409.979	12.38
410.184	12.09
410.388	11.85
410.593	11.89
410.798	11.9
411.002	11.76
411.207	11.51
411.411	11.29
411.616	10.94
411.82	10.87
412.025	10.61
412.229	10.43
412.434	10.09
412.638	9.69
412.843	9.48
413.047	9.24
413.252	8.92
413.456	9
413.66	8.68
413.865	8.39
414.069	8.04
414.273	7.96
414.478	7.59
414.682	7.35
414.886	7.26
415.091	7.01
415.295	6.78
415.499	6.69
415.703	6.35
415.908	6.31
416.112	6.03
416.316	6.1
416.52	5.87
416.724	5.67
416.929	5.51
417.133	5.58
417.337	5.27
417.541	5.19
417.745	5.09
417.949	4.98
418.153	4.94
418.357	4.7
418.561	4.88
418.765	4.59
418.969	4.54
419.173	4.56
419.377	4.24
419.581	4.39
419.785	4.21
419.989	4.06
420.193	4.14
420.397	4.03
420.601	3.98
420.804	3.83
421.008	3.7
421.212	3.66
421.416	3.45
421.62	3.33
421.823	3.24
422.027	3.22
422.231	2.96
422.435	2.87
422.638	2.82
422.842	2.72
423.046	2.61
423.249	2.63
423.453	2.52
423.657	2.49
423.86	2.4
424.064	2.31
424.268	2.3
424.471	2.12
424.675	2.18
424.878	2.2
425.082	2.05
425.285	2.13
425.489	1.9
425.692	1.9
425.896	1.8
426.099	1.81
426.303	1.8
426.506	1.66
426.71	1.69
426.913	1.68
427.116	1.65
427.32	1.54
427.523	1.56
427.726	1.57
427.93	1.39
428.133	1.42
428.336	1.35
428.54	1.31
428.743	1.37
428.946	1.41
429.149	1.24
429.353	1.33
429.556	1.24
429.759	1.15
429.962	1.14
430.165	1.22
430.368	1.11
430.571	1.03
430.775	1.03
430.978	0.99
431.181	0.99
431.384	0.98
431.587	0.94
431.79	0.95
431.993	0.91
432.196	0.87
432.399	0.84
432.602	0.95
432.805	0.89
433.008	0.91
433.211	0.78
433.414	0.86
433.616	0.88
433.819	0.85
434.022	0.73
434.225	0.85
434.428	0.82
434.631	0.95
434.833	0.71
435.036	0.72
435.239	0.85
435.442	0.74
435.645	0.77
435.847	0.73
436.05	0.82
436.253	0.71
436.455	0.62
436.658	0.64
436.861	0.69
437.063	0.6
437.266	0.59
437.468	0.63
437.671	0.71
437.874	0.57
438.076	0.51
438.279	0.52
438.481	0.63
438.684	0.55
438.886	0.61
439.089	0.43
439.291	0.55
439.494	0.56
439.696	0.48
439.899	0.52
440.101	0.53
440.303	0.45
440.506	0.59
440.708	0.52
440.91	0.49
441.113	0.46
441.315	0.47
441.517	0.38
441.72	0.46
441.922	0.43
442.124	0.37
442.326	0.47
442.529	0.44
442.731	0.37
442.933	0.52
443.135	0.38
443.337	0.4
443.539	0.4
443.742	0.33
443.944	0.42
444.146	0.33
444.348	0.37
444.55	0.3
444.752	0.33
444.954	0.24
445.156	0.32
445.358	0.29
445.56	0.35
445.762	0.28
445.964	0.28
446.166	0.23
446.368	0.24
446.57	0.35
446.772	0.28
446.974	0.24
447.175	0.27
447.377	0.26
447.579	0.26
447.781	0.2
447.983	0.34
448.184	0.24
448.386	0.25
448.588	0.21
448.79	0.29
448.991	0.25
449.193	0.23
449.395	0.28
449.597	0.23
449.798	0.31
450	0.22
450.202	0.21
450.403	0.23
450.605	0.27
450.806	0.26
451.008	0.15
451.21	0.25
451.411	0.21
451.613	0.2
451.814	0.21
452.016	0.27
452.217	0.16
452.419	0.24
452.62	0.24
452.821	0.21
453.023	0.29
453.224	0.22
453.426	0.13
453.627	0.19
453.828	0.27
454.03	0.19
454.231	0.2
454.432	0.18
454.634	0.27
454.835	0.18
455.036	0.11
455.238	0.22
455.439	0.25
455.64	0.14
455.841	0.18
456.042	0.29
456.244	0.23
456.445	0.17
456.646	0.16
456.847	0.17
457.048	0.18
457.249	0.24
457.45	0.41
457.651	0.17
457.852	0.27
458.054	0.15
458.255	0.16
458.456	0.23
458.657	0.17
458.858	0.15
459.058	0.2
459.259	0.23
459.46	0.13
459.661	0.16
459.862	0.31
460.063	0.1
460.264	0.23
460.465	0.11
460.666	0.32
460.866	0.12
461.067	0.17
461.268	0.14
461.469	0.12
461.67	0.14
461.87	0.15
462.071	0.16
462.272	0.14
462.473	0.2
462.673	0.21
462.874	0.14
463.075	0.19
463.275	0.14
463.476	0.19
463.676	0.17
463.877	0.15
464.078	0.13
464.278	0.26
464.479	0.15
464.679	0.16
464.88	0.17
465.08	0.26
465.281	0.09
465.481	0.16
465.682	0.15
465.882	0.17
466.083	0.19
466.283	0.17
466.483	0.13
466.684	0.13
466.884	0.13
467.085	0.13
467.285	0.17
467.485	0.11
467.686	0.16
467.886	0.11
468.086	0.13
468.286	0.19
468.487	0.16
468.687	0.13
468.887	0.09
469.087	0.2
469.287	0.17
469.488	0.07
469.688	0.2
469.888	0.19
470.088	0.23
470.288	0.21
470.488	0.22
470.688	0.1
470.888	0.12
471.088	0.1
471.288	0.15
471.488	0.11
471.688	0.11
471.888	0.11
472.088	0.22
472.288	0.18
472.488	0.06
472.688	0.11
472.888	0.13
473.088	0.14
473.288	0.15
473.488	0.13
473.688	0.23
473.887	0.12
474.087	0.09
474.287	0.12
474.487	0.07
474.687	0.12
474.886	0.11
475.086	0.1
475.286	0.15
475.486	0.13
475.685	0.12
475.885	0.11
476.085	0.15
476.284	0.16
476.484	0.11
476.684	0.14
476.883	0.12
477.083	0.14
477.282	0.1
477.482	0.19
477.681	0.18
477.881	0.12
478.08	0.04
478.28	0.06
478.479	0.13
478.679	0.19
478.878	0.1
479.078	0.08
479.277	0.09
479.477	0.09
479.676	0.13
479.875	0.08
480.075	0.06
480.274	0.12
480.473	0.12
480.673	0.08
480.872	0.15
481.071	0.12
481.271	0.13
481.47	0.07
481.669	0.1
481.868	0.06
482.067	0.06
482.267	0.08
482.466	0.05
482.665	0.05
482.864	0.05
483.063	0.07
483.262	0.09
483.461	0.11
483.661	0.1
483.86	0.08
484.059	0.09
484.258	0.07
484.457	0.07
484.656	0.09
484.855	0.12
485.054	0.03
485.253	0.05
485.452	0.03
485.651	0.07
485.849	0.07
486.048	0.06
486.247	0.03
486.446	0.08
486.645	0.03
486.844	0.05
487.043	0.07
487.241	0.09
487.44	0.06
487.639	0.06
487.838	0.09
488.037	0.05
488.235	0.13
488.434	0.05
488.633	0.05
488.831	0.09
489.03	0.08
489.229	0.06
489.427	0.07
489.626	0.11
489.825	0.1
490.023	0.08
490.222	0.04
490.42	0.07
490.619	0.1
490.817	0.09
491.016	0.05
491.214	0.08
491.413	0.04
491.611	0.03
491.81	0.04
492.008	0.08
492.207	0.07
492.405	0.05
492.604	0.02
492.802	0.03
493	0.05
493.199	0.03
493.397	0.05
493.595	0.04
493.794	0.07
493.992	0.09
494.19	0.05
494.388	0.1
494.587	0.06
494.785	0.06
494.983	0.02
495.181	0.07
495.379	0.08
495.578	0.04
495.776	0.07
495.974	0.07
496.172	0.03
496.37	0.04
496.568	0.03
496.766	0.04
496.964	0.08
497.162	0.05
497.36	0.02
497.558	0.06
497.756	0.08
497.954	0.05
498.152	0.02
498.35	0.04
498.548	0.05
498.746	0.04
498.944	0.03
499.142	0.03
499.34	0.01
499.538	0.04
499.736	0.04
499.933	0.1
500.131	0.09
500.329	0.04
500.527	0.08
500.725	0.08
500.922	0.05
501.12	0.07
501.318	0.06
501.516	0.03
501.713	0.06
501.911	0.05
502.109	0.03
502.306	0.06
502.504	0.04
502.701	0.03
502.899	0.05
503.097	0.09
503.294	0.05
503.492	0.03
503.689	0.05
503.887	0.08
504.084	0.09
504.282	0.06
504.479	-0.01
504.677	0.06
504.874	0.01
505.072	0.04
505.269	0.04
505.466	0.06
505.664	0.07
505.861	0
506.059	0.01
506.256	0.05
506.453	0.04
506.651	0.08
506.848	0.06
507.045	0.06
507.242	0.05
507.44	0.03
507.637	0.02
507.834	0.05
508.031	0.08
508.229	0.02
508.426	0.05
508.623	0.08
508.82	0.01
509.017	0.03
509.214	0.04
509.411	0.03
509.608	-0.01
509.805	0.05
510.003	0.03
510.2	0.03
510.397	0.07
510.594	0.01
510.791	0.02
510.988	0.02
511.184	0.07
511.381	0.03
511.578	-0
511.775	0.09
511.972	0.01
512.169	0.03
512.366	0.03
512.563	0.03
512.76	0
512.956	0.02
513.153	0.02
513.35	0.04
513.547	0.01
513.744	0.01
513.94	0.01
514.137	0.08
514.334	0.02
514.53	0.04
514.727	0.05
514.924	0.05
515.12	0.02
515.317	-0.01
515.514	0.01
515.71	-0
515.907	0.01
516.103	0.02
516.3	0.03
516.497	0.06
516.693	0.05
516.89	0.03
517.086	0.03
517.283	0.08
517.479	0.05
517.676	0.02
517.872	0.03
518.068	0.02
518.265	0.03
518.461	0.01
518.658	0.03
518.854	0.01
519.05	0.03
519.247	0.01
519.443	0.05
519.639	0.05
519.836	0.06
520.032	0.03
520.228	0.04
520.424	0.06
520.621	0.05
520.817	0.02
521.013	0.05
521.209	0.04
521.405	0.09
521.601	0.02
521.798	0.02
521.994	0.08
522.19	0.02
522.386	0
522.582	0.03
522.778	0.02
522.974	0.03
523.17	0.04
523.366	0.04
523.562	0.05
523.758	0.03
523.954	0
524.15	0.01
524.346	0.05
524.542	0.02
524.738	-0.01
524.934	0
525.129	0.01
525.325	0.04
525.521	0.03
525.717	0.04
525.913	0.02
526.109	0.03
526.304	0
526.5	0.04
526.696	0.07
526.892	0.04
527.087	0.03
527.283	-0
527.479	0.04
527.674	-0.01
527.87	0.01
528.066	0
528.261	0.05
528.457	0.03
528.653	0.02
528.848	0.02
529.044	0.02
529.239	0.02
529.435	0.04
529.63	0.01
529.826	0.08
530.021	0.03
530.217	0.04
530.412	0.04
530.608	0.01
530.803	0.03
530.999	0.01
531.194	-0.01
531.389	0.03
531.585	-0.04
531.78	0.01
531.975	0.03
532.171	0.05
532.366	0.01
532.561	0.01
532.757	0.01
532.952	0.01
533.147	0.03
533.342	0.04
533.538	-0.01
533.733	0.03
533.928	0.02
534.123	0.02
534.318	-0.01
534.513	0.02
534.709	0.02
534.904	0.01
535.099	0.01
535.294	0.01
535.489	0.03
535.684	0.01
535.879	-0.01
536.074	0.01
536.269	-0
536.464	0.01
536.659	0.04
536.854	0
537.049	0.02
537.244	0.02
537.439	0.02
537.634	0.06
537.828	0.03
538.023	0.01
538.218	-0.01
538.413	0.01
538.608	-0.02
538.803	0.03
538.997	-0.03
539.192	0.05
539.387	0.05
539.582	0.01
539.776	0.03
539.971	0
540.166	0.02
540.36	0
540.555	0.02
540.75	-0
540.944	0.04
541.139	-0.01
541.334	0.02
541.528	0.03
541.723	0.05
541.917	0.02
542.112	-0.02
542.306	-0
542.501	0.01
542.695	0.01
542.89	-0.01
543.084	0.04
543.279	0.01
543.473	0
543.668	0.01
543.862	0.02
544.056	0.05
544.251	0.01
544.445	0.02
544.64	0.01
544.834	-0.01
545.028	0.02
545.222	0.01
545.417	0.04
545.611	0.03
545.805	0.02
546	0.01
546.194	0.01
546.388	0.01
546.582	0.02
546.776	0.01
546.97	0.02
547.165	0.03
547.359	0.04
547.553	-0.01
547.747	0.03
547.941	0.02
548.135	0.02
548.329	0.02
548.523	0.04
548.717	0.03
548.911	0.01
549.105	0.03
549.299	0.03
549.493	0.05
549.687	0.04
549.881	0.02
550.075	0.03
550.269	-0.01
550.463	0.02
550.657	0
550.85	0.01
551.044	-0.01
551.238	0.01
551.432	-0.01
551.626	-0.01
551.82	0.02
552.013	0
552.207	0.02
552.401	0.02
552.594	0.03
552.788	-0
552.982	0.01
553.176	-0.01
553.369	0.05
553.563	0.01
553.756	-0.02
553.95	-0
554.144	0.01
554.337	0.06
554.531	0.02
554.724	0.02
554.918	0
555.111	0.03
555.305	0.02
555.498	0.06
555.692	0.04
555.885	-0
556.079	0.01
556.272	0
556.466	0.03
556.659	0.03
556.852	0.02
557.046	0
557.239	0.03
557.432	0
557.626	-0.01
557.819	0.02
558.012	0.01
558.206	0.03
558.399	0.02
558.592	0.02
558.785	0.01
558.979	0.02
559.172	0.01
559.365	0.02
559.558	0.01
559.751	-0
559.944	0.03
560.138	0.02
560.331	0.01
560.524	-0.02
560.717	0.03
560.91	0
561.103	0.03
561.296	0.03
561.489	0.03
561.682	0.02
561.875	0.06
562.068	0.03
562.261	0.03
562.454	0.08
562.647	0.02
562.84	0.01
563.032	0.01
563.225	-0
563.418	0.02
563.611	-0
563.804	0.02
563.997	-0.03
564.19	-0.02
564.382	0.02
564.575	0
564.768	0.01
564.961	-0
565.153	0
565.346	0.03
565.539	0.02
565.731	0.01
565.924	0.02
566.117	0.01
566.309	0.03
566.502	0
566.695	0.02
566.887	0.02
567.08	-0.02
567.272	-0.02
567.465	-0.03
567.657	0.03
567.85	0.02
568.042	0.02
568.235	0.06
568.427	0.01
568.62	0.02
568.812	0.03
569.005	0.01
569.197	-0.04
569.389	0.01
569.582	0.04
569.774	-0.01
569.966	-0.02
570.159	-0.01
570.351	0.03
570.543	-0.02
570.736	0.02
570.928	-0.01
571.12	0
571.312	-0
571.505	-0.03
571.697	0.05
571.889	0.01
572.081	-0
572.273	-0.03
572.465	0.04
572.658	0.01
572.85	0.02
573.042	-0.01
573.234	0
573.426	0.04
573.618	-0.04
573.81	0.02
574.002	0.01
574.194	0.05
574.386	-0.04
574.578	-0.05
574.77	-0.03
574.962	0
575.154	-0.03
575.346	-0
575.538	0.04
575.729	-0.02
575.921	-0.03
576.113	-0.02
576.305	0.03
576.497	-0.01
576.689	-0.02
576.88	-0.02
577.072	0.04
577.264	0.04
577.456	-0.01
577.647	-0.05
577.839	-0.01
578.031	0.04
578.223	-0.02
578.414	-0.04
578.606	0.05
578.798	0.02
578.989	-0.01
579.181	0
579.372	0.02
579.564	-0
579.755	-0.02
579.947	0.02
580.139	0.02
580.33	-0.04
580.522	-0.01
580.713	-0.06
580.905	-0.01
581.096	0.03
581.287	-0
581.479	-0.01
581.67	0.03
581.862	-0.01
582.053	-0.03
582.244	-0.02
582.436	0.01
582.627	0.01
582.818	-0.03
583.01	-0.02
583.201	0.03
583.392	0.01
583.583	-0.02
583.775	-0.01
583.966	-0.02
584.157	0.02
584.348	-0.03
584.54	-0.04
584.731	0.03
584.922	0.02
585.113	-0.02
585.304	0.02
585.495	0.04
585.686	0.02
585.877	0
586.068	0
586.259	-0.01
586.45	0.01
586.641	-0.02
586.832	-0.06
587.023	0
587.214	0
587.405	0.01
587.596	-0.03
587.787	0.04
587.978	0.01
588.169	-0.01
588.36	-0.01
588.551	-0
588.742	-0.01
588.932	0.01
589.123	0
589.314	0.02
589.505	0.04
589.696	0.02
589.886	-0.01
590.077	-0.04
590.268	-0
590.458	-0.01
590.649	-0.05
590.84	0.03
591.03	-0.02
591.221	-0.03
591.412	-0.03
591.602	0
591.793	0.04
591.984	-0.01
592.174	0
592.365	0.07
592.555	-0.02
592.746	0.03
592.936	0.04
593.127	0.02
593.317	0.06
593.508	-0.03
593.698	-0.02
593.889	-0.01
594.079	-0.01
594.269	-0.03
594.46	0.01
594.65	-0
594.84	0.01
595.031	-0.04
595.221	-0.02
595.411	-0.03
595.602	0.03
595.792	0.03
595.982	-0
596.172	0.07
596.363	0.01
596.553	-0.01
596.743	-0
596.933	0.03
597.123	0.04
597.314	-0.04
597.504	-0.03
597.694	0.04
597.884	0.03
598.074	0
598.264	-0.01
598.454	-0
598.644	0.01
598.834	0.01
599.024	-0.06
599.214	-0.02
599.404	0.04
599.594	-0
599.784	-0.03
599.974	0.06
600.164	0.03
600.354	-0.05
600.544	-0.02
600.734	-0.01
600.924	0.04
601.114	-0.02
601.303	0.01
601.493	0.02
601.683	-0.03
601.873	0.02
602.063	-0.06
602.252	0.01
602.442	-0.06
602.632	-0.02
602.821	-0.04
603.011	0.02
603.201	-0.01
603.39	-0.01
603.58	-0.04
603.77	0.02
603.959	0.03
604.149	-0.01
604.339	-0.01
604.528	0.03
604.718	0.01
604.907	-0.01
605.097	-0.01
605.286	-0
605.476	0.02
605.665	0.03
605.855	0.02
606.044	0.06
606.234	0.03
606.423	-0
606.612	-0.03
606.802	0.01
606.991	0.02
607.181	0
607.37	-0.05
607.559	0
607.749	-0.05
607.938	0
608.127	-0.02
608.316	-0.03
608.506	-0
608.695	-0
608.884	-0.02
609.073	0.01
609.263	0.03
609.452	0.02
609.641	0.01
609.83	-0.07
610.019	0.02
610.208	-0.04
610.397	-0.01
610.586	0.02
610.775	-0.01
610.965	-0.03
611.154	-0.01
611.343	-0.02
611.532	-0.02
611.721	-0.04
611.91	-0.02
612.099	-0
612.287	-0.01
612.476	-0.04
612.665	0
612.854	-0.02
613.043	0.04
613.232	-0.02
613.421	-0.05
613.61	0
613.798	-0.02
613.987	0.01
614.176	-0.01
614.365	0.01
614.554	0
614.742	0.05
614.931	-0
615.12	0.04
615.309	-0.02
615.497	0.02
615.686	-0.02
615.875	-0.03
616.063	0
616.252	-0.01
616.44	-0.03
616.629	-0.01
616.818	0.03
617.006	-0.01
617.195	-0
617.383	0.03
617.572	0.01
617.76	0
617.949	-0
618.137	0.03
618.326	0.04
618.514	-0.01
618.703	-0
618.891	0.04
619.079	-0.06
619.268	0.01
619.456	-0.03
619.644	0.03
619.833	-0.01
620.021	-0.02
620.209	-0.05
620.398	0.02
620.586	0
620.774	0.01
620.962	-0.02
621.151	0.06
621.339	0.02
621.527	0.01
621.715	-0.04
621.903	-0.05
622.092	-0.04
622.28	0.02
622.468	-0.02
622.656	0
622.844	0.04
623.032	-0
623.22	-0.05
623.408	0.04
623.596	0.01
623.784	0.02
623.972	-0.02
624.16	-0.03
624.348	0.04
624.536	0
624.724	-0.02
624.912	0.04
625.1	0.04
625.288	-0.03
625.476	-0.02
625.664	0.02
625.851	-0.03
626.039	0.01
626.227	0.01
626.415	0.02
626.603	-0.09
626.79	-0.03
626.978	-0
627.166	0.06
627.354	-0
627.541	-0.04
627.729	-0.07
627.917	0.03
628.104	0
628.292	0
628.48	-0.01
628.667	0
628.855	0.02
629.042	0.02
629.23	-0.01
629.418	-0.01
629.605	-0.02
629.793	-0.02
629.98	-0.01
630.168	-0
630.355	0.01
630.543	-0.01
630.73	-0.05
630.917	0.03
631.105	0.06
631.292	-0.02
631.48	0
631.667	0.08
631.854	0.03
632.042	-0.03
632.229	-0.05
632.416	0.03
632.604	-0.01
632.791	-0.03
632.978	0.02
633.165	0
633.353	0.05
633.54	0.03
633.727	-0.05
633.914	-0.01
634.101	-0.05
634.289	0.04
634.476	-0.04
634.663	-0.02
634.85	0.02
635.037	-0.04
635.224	-0.05
635.411	0.04
635.598	0.06
635.785	0.01
635.972	-0.02
636.159	0.06
636.346	-0.01
636.533	0.01
636.72	-0.01
636.907	-0.02
637.094	0.01
637.281	-0.02
637.468	-0.03
637.655	-0.01
637.842	-0.02
638.029	-0.02
638.215	0.03
638.402	-0.01
638.589	-0.04
638.776	-0.03
638.963	-0.05
639.149	0.06
639.336	0.04
639.523	-0.04
639.709	-0.02
639.896	-0.03
640.083	0.03
640.27	0.01
640.456	-0.04
640.643	0.01
640.829	-0.04
641.016	-0.03
641.203	-0.03
641.389	0.03
641.576	0.01
641.762	0.01
641.949	-0.03
642.135	0.01
642.322	-0.02
642.508	-0.04
642.695	-0.01
642.881	-0.01
643.068	-0.03
643.254	-0
643.441	0.04
643.627	-0
643.813	-0
644	0.02
644.186	-0.04
644.372	0.01
644.559	0.03
644.745	0.02
644.931	-0.04
645.118	-0.02
645.304	0.01
645.49	-0.05
645.676	-0.03
645.862	-0.02
646.049	0.06
646.235	-0.03
646.421	0.08
646.607	0.04
646.793	-0.03
646.979	-0.09
647.165	0.02
647.352	-0.01
647.538	0.01
647.724	-0.04
647.91	-0.01
648.096	0.01
648.282	0.03
648.468	-0.01
648.654	-0.01
648.84	0.02
649.026	-0.02
649.212	-0
649.397	-0.03
649.583	-0.05
649.769	0.02
649.955	-0.02
650.141	0.03
650.327	0.06
650.513	-0.04
650.698	0.02
650.884	-0.05
651.07	-0.03
651.256	0.01
651.442	0
651.627	0
651.813	-0.05
651.999	0.04
652.184	0.01
652.37	-0.02
652.556	-0.01
652.741	0.06
652.927	-0.05
653.113	-0
653.298	0.01
653.484	-0.01
653.669	-0.05
653.855	-0
654.04	0.01
654.226	-0.03
654.412	-0.01
654.597	-0.03
654.782	0.01
654.968	0.02
655.153	-0.01
655.339	-0.05
655.524	-0.06
655.71	0.03
655.895	-0.03
656.08	-0.03
656.266	0.06
656.451	0
656.636	-0.05
656.822	-0.03
657.007	-0.04
657.192	-0
657.378	-0.05
657.563	0.02
657.748	0.03
657.933	0.02
658.118	0.02
658.304	-0.05
658.489	0.05
658.674	0.04
658.859	-0.03
659.044	-0.01
659.229	0.01
659.414	-0.02
659.599	-0.01
659.785	-0.03
659.97	-0.04
660.155	0.04
660.34	-0.02
660.525	-0.01
660.71	-0.02
660.895	0.05
661.08	-0.04
661.264	-0.01
661.449	0.04
661.634	0.05
661.819	-0
662.004	0.02
662.189	-0.11
662.374	-0.02
662.559	-0.05
662.743	-0.06
662.928	0.01
663.113	-0.04
663.298	-0.05
663.483	-0.06
663.667	-0
663.852	-0.07
664.037	0.01
664.221	-0.02
664.406	0.04
664.591	0
664.775	-0.02
664.96	-0
665.145	0.04
665.329	0.03
665.514	-0.03
665.698	-0.05
665.883	-0.08
666.068	0.05
666.252	-0
666.437	-0.03
666.621	-0.03
666.806	0.03
666.99	-0.01
667.174	-0.07
667.359	0.04
667.543	0.01
667.728	0
667.912	-0.07
668.096	-0.01
668.281	0
668.465	-0.01
668.649	-0.03
668.834	0.03
669.018	0.01
669.202	-0.04
669.387	-0.04
669.571	0.04
669.755	-0.04
669.939	-0.02
670.124	0
670.308	0.02
670.492	0.01
670.676	-0.01
670.86	-0.02
671.044	-0.06
671.228	0.06
671.413	-0.02
671.597	0.02
671.781	-0.05
671.965	0.01
672.149	-0.01
672.333	-0.01
672.517	-0.04
672.701	0.01
672.885	-0.01
673.069	-0.07
673.253	0.05
673.437	0.01
673.621	-0.04
673.804	-0.03
673.988	-0.01
674.172	0.02
674.356	-0.08
674.54	-0.02
674.724	0.1
674.908	-0.03
675.091	0.03
675.275	-0.01
675.459	0.04
675.643	-0.01
675.826	-0
676.01	-0.04
676.194	-0
676.377	0.04
676.561	-0.03
676.745	-0.02
676.928	-0
677.112	0.04
677.296	-0.05
677.479	-0.05
677.663	-0.01
677.846	0.02
678.03	-0.01
678.213	-0.04
678.397	0.01
678.58	-0.01
678.764	0.01
678.947	-0.06
679.131	-0.01
679.314	0.02
679.498	-0.03
679.681	-0.01
679.865	0.07
680.048	0
680.231	0
680.415	0.03
680.598	-0.02
680.781	-0.01
680.965	-0.06
681.148	-0.02
681.331	0
681.514	0.03
681.698	-0.01
681.881	0
682.064	-0
682.247	0.04
682.43	-0.07
682.614	-0
682.797	0.01
682.98	0.04
683.163	-0.06
683.346	-0.04
683.529	-0.06
683.712	-0.04
683.895	0.02
684.078	-0.06
684.261	-0.03
684.444	0.03
684.627	0.02
684.81	-0.04
684.993	-0.01
685.176	0.04
685.359	-0.01
685.542	-0.07
685.725	0.05
685.908	-0
686.091	-0
686.274	-0.01
686.457	-0
686.639	-0.02
686.822	0.02
687.005	0.01
687.188	0.02
687.371	0.1
687.553	-0.02
687.736	0.01
687.919	0.06
688.102	0.08
688.284	-0.05
688.467	-0.02
688.65	-0.03
688.832	-0.04
689.015	-0.05
689.197	-0.03
689.38	-0
689.563	0.08
689.745	-0.05
689.928	-0.02
690.11	0.02
690.293	0.01
690.475	-0.02
690.658	0.05
690.84	0.01
691.023	0.03
691.205	-0.03
691.388	-0
691.57	0.05
691.752	-0
691.935	-0.09
692.117	-0
692.3	0.03
692.482	-0.03
692.664	-0.02
692.847	0.06
693.029	0.05
693.211	0.02
693.393	-0.04
693.576	-0.01
693.758	-0.03
693.94	0.03
694.122	-0.01
694.304	-0.02
694.487	-0.02
694.669	0.07
694.851	-0.03
695.033	-0.03
695.215	-0.06
695.397	-0.01
695.579	0.02
695.761	-0.02
695.943	-0.09
696.125	0.1
696.308	0.02
696.49	-0.11
696.671	0.06
696.853	-0
697.035	0.16
697.217	-0.05
697.399	0
697.581	-0.04
697.763	-0.01
697.945	-0.05
698.127	-0.01
698.309	0.08
698.491	0.03
698.672	-0.01
698.854	0
699.036	0.04
699.218	-0.07
699.399	0.04
699.581	0.02
699.763	0.01
699.945	-0.06
700.126	-0.03
700.308	0.02
700.49	-0.05
700.671	-0.09
700.853	-0.07
701.035	-0.05
701.216	0.04
701.398	-0.06
701.579	-0.02
701.761	0.07
701.943	-0.04
702.124	-0.01
702.306	-0.07
702.487	0.14
702.669	0.01
702.85	0.01
703.031	-0.07
703.213	0.15
703.394	0.07
703.576	-0.02
703.757	0.09
703.938	0.03
704.12	0.19
704.301	-0.01
704.483	-0.04
704.664	-0.01
704.845	0.02
705.026	0.03
705.208	-0.03
705.389	-0.05
705.57	0
705.751	0
705.933	-0.02
706.114	0.07
706.295	0.03
706.476	-0.03
706.657	0.08
706.838	0.03
707.02	-0.01
707.201	-0.05
707.382	-0.03
707.563	-0
707.744	-0.01
707.925	-0.06
708.106	-0.09
708.287	-0.04
708.468	0.13
708.649	-0.01
708.83	-0.01
709.011	-0.04
709.192	0
709.373	-0.07
709.554	0.02
709.734	-0.05
709.915	0.03
710.096	0.01
710.277	-0.13
710.458	0.01
710.639	0
710.819	-0.1
711	-0.06
711.181	0.07
711.362	0.04
711.542	0.01
711.723	-0.07
711.904	0.12
712.085	-0
712.265	0
712.446	-0.11
712.627	-0.04
712.807	-0.05
712.988	-0.02
713.168	-0.2
713.349	0.12
713.53	-0.18
713.71	-0.11
713.891	-0.1
714.071	-0.03
714.252	-0.06
714.432	-0.03
714.613	-0.11
714.793	0.01
714.974	0.06
715.154	0.08
715.334	0.05
715.515	0.07
715.695	-0.09
715.876	-0.01
716.056	-0.01
716.236	-0
716.417	-0.03
716.597	-0.08
716.777	0.13
716.957	-0.04
717.138	0.01
717.318	0.03
717.498	-0.13
717.678	0.02
717.859	0.02
718.039	-0.07
718.219	0.07
718.399	0.11
718.579	-0.06
718.759	-0.06
718.939	0.08
719.12	-0.02
719.3	0.06
719.48	-0.1
719.66	-0.05
719.84	0.08
720.02	0
720.2	-0.05
720.38	-0.02
720.56	0.07
720.74	-0.05
720.92	-0
721.1	0.09
721.279	0.1
721.459	-0.01
721.639	-0.09
721.819	-0.01
721.999	-0.06
722.179	0.02
722.359	-0.13
722.538	-0.02
722.718	-0.03
722.898	0
723.078	-0.03
723.257	-0.06
723.437	-0.02
723.617	-0.08
723.797	-0.05
723.976	0.02
724.156	0.04
724.336	0.08
724.515	0.12
724.695	-0.13
724.874	-0.07
725.054	0.06
725.234	-0.05
725.413	0.03
725.593	0.01
725.772	-0.04
725.952	-0
726.131	-0.03
726.311	-0.04
726.49	-0.03
726.67	0
726.849	-0.09
727.028	0.03
727.208	-0.08
727.387	-0.01
727.567	-0.08
727.746	-0.03
727.925	-0.13
728.105	-0.1
728.284	0.02
728.463	-0.09
728.643	0.03
728.822	-0.06
729.001	-0.12
729.18	-0.01
729.359	0.08
729.539	0.03
729.718	-0.04
729.897	0.02
730.076	-0.02
730.255	-0.14
730.434	0.01
730.614	-0.06
730.793	0.1
730.972	-0.06
731.151	-0.02
731.33	0.08
731.509	0.05
731.688	0.02
731.867	0.01
732.046	-0.16
732.225	0.25
732.404	-0.04
732.583	-0.14
732.762	-0.02
732.941	0.12
733.12	0.06
733.298	-0.06
733.477	0.1
733.656	-0.12
733.835	-0.07
734.014	0.06
734.193	-0.04
734.371	0
734.55	0.02
734.729	-0.11
734.908	0.04
735.086	-0.02
735.265	-0.02
735.444	-0.11
735.623	-0.16
735.801	-0.14
735.98	-0.07
736.159	-0.07
736.337	0.04
736.516	0
736.694	-0.08
736.873	-0.1
737.052	0.04
737.23	0.15
737.409	-0.02
737.587	0.11
737.766	-0.18
737.944	-0.02
738.123	0.07
738.301	-0.12
738.479	-0.15
738.658	0.07
738.836	-0.16
739.015	0.05
739.193	0.05
739.371	-0.11
739.55	-0.22
739.728	-0.14
739.906	0.04
740.085	0.11
740.263	0.01
740.441	-0.17
740.62	0.21
740.798	0.06
740.976	-0.05
741.154	-0.2
741.332	0.17
741.511	-0.06
741.689	0.04
741.867	0.09
742.045	-0.05
742.223	0.02
742.401	-0.07
742.579	-0.1
742.757	0.05
742.935	-0.1
743.114	-0.03
743.292	0.02
743.47	0.04
743.648	-0.01
743.826	-0.15
744.004	0.05
744.181	0.06
744.359	-0.01
744.537	0.05
744.715	-0.04
744.893	-0.01
745.071	0.02
745.249	-0.14
745.427	-0.05
745.605	-0.03
745.782	-0.01
745.96	0.03
746.138	0.03
746.316	0.13
746.493	0.06
746.671	-0.04
746.849	-0.08
747.027	0.16
747.204	-0.03
747.382	0.03
747.56	-0.18
747.737	-0.11
747.915	-0.02
748.093	0.07
748.27	-0.05
748.448	-0.03
748.625	-0.14
748.803	-0.06
748.98	-0.04
749.158	-0.1
749.335	0.14
749.513	-0.02
749.69	-0.01
749.868	0.04
750.045	0.03
750.223	-0.15
750.4	-0.22
750.578	0.17
750.755	0.08
750.932	-0.1
751.11	0.01
751.287	-0.1
751.464	0.07
751.642	-0.11
751.819	-0.03
751.996	-0.05
752.173	-0.09
752.351	-0.11
752.528	-0.07
752.705	-0.09
752.882	-0.01
753.06	0.01
753.237	0.08
753.414	0.17
753.591	0.17
753.768	-0.08
753.945	-0.09
754.122	-0.07
754.299	-0.02
754.476	-0.14
754.654	-0.06
754.831	0.03
755.008	0.01
755.185	-0.04
755.362	-0.13
755.539	-0.06
755.716	-0.08
755.892	-0.05
756.069	-0.01
756.246	-0.01
756.423	-0.15
756.6	0.04
756.777	0.01
756.954	0.08
757.131	-0.06
757.307	-0.08
757.484	-0.07
757.661	-0.02
757.838	-0
758.015	-0.18
758.191	-0.02
758.368	0.09
758.545	0.1
758.721	-0.03
758.898	-0.1
759.075	0.08
759.251	0.18
759.428	-0.05
759.605	-0.23
759.781	-0.12
759.958	0.08
760.134	0.02
760.311	0.04
760.488	0.13
760.664	0.16
760.841	0.06
761.017	-0.11
761.194	0.08
761.37	0.06
761.547	0.07
761.723	-0.08
761.899	0.09
762.076	-0.18
762.252	-0.12
762.429	-0.02
762.605	0.13
762.781	-0.06
762.958	0.04
763.134	0.01
763.31	-0.05
763.486	0.13
763.663	-0.19
763.839	0.1
764.015	-0.26
764.191	-0.13
764.368	0.01
764.544	-0.17
764.72	-0.04
764.896	0
765.072	-0.04
765.248	-0.02
765.425	-0.06
765.601	0.1
765.777	0.01
765.953	-0.22
766.129	-0.09
766.305	-0.1
766.481	-0.06
766.657	0.07
766.833	0.09
767.009	-0.21
767.185	-0.21
767.361	-0.02
767.537	-0.23
767.713	0.07
767.889	-0.2
768.065	0.08
768.24	0.07
768.416	0.2
768.592	0.07
768.768	0.01
768.944	0.08
769.12	-0.09
769.295	-0.09
769.471	-0.08
769.647	-0.01
769.823	0.12
769.998	-0.07
770.174	-0.17
770.35	0.37
770.525	0.15
770.701	0.12
770.877	-0.07
771.052	-0.1
771.228	0.22
771.403	0.02
771.579	0.04
771.755	0.35
771.93	0.02
772.106	-0.18
772.281	-0.17
772.457	-0.03
772.632	-0.07
772.808	-0.14
772.983	-0.09
773.159	-0.1
773.334	0.26
773.509	-0.12
773.685	-0.03
773.86	0.31
774.036	0.19
774.211	-0.02
774.386	-0.02
774.562	-0.03
774.737	0.25
774.912	-0.25
775.087	0.09
775.263	0.04
775.438	0.11
775.613	-0.16
775.788	-0.01
775.964	0.19
776.139	0.3
776.314	-0.3
776.489	-0.09
776.664	-0.06
776.839	-0.24
777.014	0.14
777.19	0.09
777.365	0.14
777.54	0.16
777.715	-0.14
777.89	-0.2
778.065	-0.1
778.24	-0.06
778.415	0.14
778.59	-0.2
778.765	-0.04
778.94	0.02
779.115	-0.13
779.289	-0.1
779.464	-0.15
779.639	-0.04
779.814	-0.16
779.989	-0.18
780.164	0.2
780.339	0.04
780.513	-0.11
780.688	-0.25
780.863	-0
781.038	0.03
781.212	0
781.387	-0.11
781.562	0.22
781.737	0.07
781.911	0.14
782.086	-0.19
782.261	-0.04
782.435	0.37
782.61	-0.09
782.784	0
782.959	0.24
783.134	-0.06
783.308	-0.2
783.483	0.03
783.657	0.34
783.832	0.22
784.006	-0.19
784.181	-0.12
784.355	0.07
784.53	0.06
784.704	-0.29
784.878	0.17
785.053	0.22
785.227	0.21
785.402	0.15
785.576	-0.35
785.75	-0.18
785.925	-0.05
786.099	-0.13
786.273	-0
786.448	0.25
786.622	0.16
786.796	-0.08
786.97	-0.01
787.145	0.57
787.319	-0.09
787.493	-0.08
787.667	-0.38
787.841	-0.19
788.015	0.06
788.19	-0.06
788.364	0.15
788.538	0.14
788.712	0.09
788.886	-0.01
789.06	0.1
789.234	0.27
789.408	-0.17
789.582	0.1
789.756	-0
789.93	-0.29
790.104	0.03
790.278	-0.22
790.452	-0.02
790.626	0.14
790.8	-0.15
790.973	0.18
791.147	0.55
791.321	0.33
791.495	0.42
791.669	0.12
791.843	0.23
792.016	-0.06
792.19	0.28
792.364	-0.53
792.538	0.46
792.711	0.22
792.885	-0.01
793.059	-0.15
793.233	-0.53
793.406	0.05
793.58	-0.02
793.754	0.15
793.927	-0.02
794.101	0.19
794.274	0.15
794.448	0.29
794.622	-0.35
794.795	0.27
794.969	0.12
795.142	0.11
795.316	-0.08
795.489	-0.19
795.663	0.36
795.836	-0.18
796.009	-0.27
796.183	-0.08
796.356	0.21
796.53	0.17
796.703	0.01
796.876	0.73
797.05	0.08
797.223	0.05
797.396	0.07
797.57	-0.13
797.743	0.35
797.916	-0.15
798.09	-0.09
798.263	0.25
798.436	-0.07
798.609	-0.04
798.782	-0.06
798.956	0.17
799.129	-0.01
799.302	-0.07
799.475	-0.18
799.648	-0.2
799.821	-0.04
799.994	0.08
800.167	-0.34
800.34	0.21
800.514	0.23
800.687	-0.2
800.86	-0.15
801.033	0.02
801.206	-0.18
801.379	-0.15
801.551	0.12
801.724	0.26
801.897	0.53
802.07	-0.1
802.243	-0.39
802.416	0.01
802.589	-0.06
802.762	0.04
802.935	0.08
803.107	0.15
803.28	0.21
803.453	0.01
803.626	0.08
803.798	0.18
803.971	-0.28
804.144	0.24
804.317	0.03
804.489	-0
804.662	-0.15
804.835	-0.2
805.007	-0.14
805.18	0.11
805.353	0.01
805.525	-0.31
805.698	-0.11
805.87	0.38
806.043	0.35
806.215	-0.14
806.388	-0.16
806.56	0.06
806.733	0.45
806.905	-0.06
807.078	0.04
807.25	-0.28
807.423	0.1
807.595	-0.2
807.768	-0.21
807.94	0.46
808.112	0.31
808.285	0.34
808.457	-0.15
808.629	-0.43
808.802	0.23
808.974	0.35
809.146	-0.2
809.318	-0.33
809.491	-0.2
809.663	0.51
809.835	-0.03
810.007	0.08
810.18	0.42
810.352	-0.58
810.524	-0.35
810.696	0.33
810.868	0.39
811.04	-0.12
811.212	-0.13
811.384	0.11
811.556	-0.04
811.728	-0.01
811.901	0.21
812.073	-0.09
812.245	0.59
812.417	-0.12
812.589	-0.5
812.76	0.29
812.932	0.5
813.104	0.18
813.276	-0.14
813.448	0.12
813.62	-0.03
813.792	0.15
813.964	-0.17
814.136	-0.07
814.307	-0.31
814.479	-0.31
814.651	-0.42
814.823	0.83
814.995	-0.12
815.166	-0.09
815.338	-0.24
815.51	-0.57
815.681	0.68
815.853	0.15
816.025	-0.07
816.196	0.55
816.368	0.5
816.54	-0.67
816.711	-0.48
816.883	0.09
817.054	1.13
817.226	-0.36
817.398	-0.18
817.569	-0.41
817.741	0.13
817.912	-0.23
818.084	-0.09
818.255	0.56
818.426	-0.4
818.598	-0.33
818.769	-0.4
818.941	0.8
819.112	0.57
819.283	0.06
819.455	-0.75
819.626	0.26
819.798	0.23
819.969	0.35
820.14	-0.21
820.311	-0.11
820.483	-0.3
820.654	0.12
820.825	-0.34
820.996	0.05
821.168	-0.49
821.339	-0.34
821.51	-0.36
821.681	-0.15
821.852	0.26
822.023	-0.19
822.195	-0.77
822.366	0.8
822.537	-0.37
822.708	-0.35
822.879	-0.37
823.05	0.51
823.221	-0.09
823.392	0.1
823.563	-0.44
823.734	0.08
823.905	0.08
824.076	-0.41
824.247	-0
824.418	-0.3
824.589	0.2
824.759	-0.01
824.93	-0.03
825.101	-0.26
825.272	0.78
825.443	0.28
825.614	0.76
825.784	-1.37
825.955	0.65
826.126	0.27
826.297	0.22
826.467	-0.02
826.638	0.96
826.809	-0.81
826.98	-0.01
827.15	0.46
827.321	0.16
827.492	1
827.662	0.01
827.833	1.02
828.003	0.69
828.174	-0.36
828.345	-0.96
828.515	0.44
828.686	-0.03
828.856	-0.21
829.027	-0.2
829.197	-0.22
829.368	0.57
829.538	-0.38
829.709	-0.69
829.879	-0.19
830.049	0.54
830.22	-0.48
830.39	-0.54
830.56	0.03
830.731	-0.12
830.901	-0.13
831.072	0.15
831.242	0.36
831.412	0.18
831.582	0.01
831.753	-0.89
831.923	0.81
832.093	-0.37
832.263	0.07
832.434	-0.72
832.604	-0.1
832.774	0.23
832.944	-0.47
833.114	-0
833.284	0.2
833.454	-0.65
833.624	-0.53
833.795	-0.34
833.965	0.56
834.135	0.04
834.305	-0.7
834.475	-1.03
834.645	0.07
834.815	-0.05
834.985	-0.97
835.155	-0.38
835.325	-0.05
835.494	0.77
835.664	-0.33
835.834	-1.46
836.004	0.28
836.174	0.45
836.344	-0.17
836.514	-1.24
836.684	-0.54
836.853	0.04
837.023	-0.46
837.193	-0.27
837.363	1.44
837.532	0.3
837.702	0.37
837.872	-0.85
838.041	0.82
838.211	1.32
838.381	-0.39
838.55	0.12
838.72	1.35
838.89	0.3
839.059	0.06
839.229	-0.59
839.398	1.27
839.568	-0.11
839.738	-0.57
839.907	0.9
840.077	0.02
840.246	-0.37
840.416	-0.75
840.585	-0.42
840.755	0.79
840.924	0.48
841.093	-0.43
841.263	-0.24
841.432	-0.01
841.602	-1
841.771	-0.2
841.94	0.51
842.11	1.03
842.279	1.35
842.448	-0.21
842.617	-0.67
842.787	1.13
842.956	-0.58
843.125	0.54
843.294	0.09
843.464	0.86
843.633	0.7
843.802	-1.31
843.971	-0.28
844.14	0.93
844.309	1.05
844.479	-0.42
844.648	-0.99
844.817	0.31
844.986	-0.52
845.155	0.22
845.324	-0.33
845.493	-0.59
845.662	-0.23
845.831	-0.15
846	0.08
846.169	-0.66
846.338	1.26
846.507	-0.73
846.676	0.33
846.844	-1.18
847.013	0.56
847.182	-0.71
847.351	-1.76
847.52	-0.68
847.689	0.73
847.858	-0.49
848.026	-0.24
848.195	0.86
848.364	-0.89
848.533	-0.81
848.701	-1.17
848.87	0.7
849.039	-0.04
849.207	0.76
849.376	0.84
849.545	1.63
849.713	-1.09
849.882	-0.69
850.051	0.64
850.219	0.86
850.388	0.62
850.556	-0.57
850.725	-0.11
850.893	-0.05
851.062	-0.07
851.23	0.57
851.399	-1.58
851.567	0.25
851.736	-0.16
851.904	-1.79
852.073	0.71
852.241	0.73
852.41	0.25
852.578	-0.44
852.746	-0.53
852.915	-0.04
853.083	-0.96
853.251	-1.44
853.42	-1.08
853.588	0.12
853.756	1.01
853.924	-0.73
854.093	-0.34
854.261	0.38
854.429	-1.83
854.597	-0.38
854.765	-1
854.934	0.15
855.102	1.08
855.27	-0.36
855.438	0.42
855.606	0.6
855.774	1.46
855.942	-1.68
856.11	-1.59
856.278	0.61
856.446	0.72
856.614	-0.45
856.782	-0.76
856.95	0.39
857.118	0.44
857.286	0.42
857.454	-1.1
857.622	0.93
857.79	1.47
857.958	-1.37
858.126	-0.44
858.294	-2.61
858.462	0.52
858.629	-0.54
858.797	-0.94
858.965	0.71
859.133	-0.14
859.301	-0.21
859.468	0.83
859.636	-0.9
859.804	1.39
859.971	0.11
860.139	-0.69
860.307	1.71
860.474	-0.06
860.642	-0.74
860.81	-0.08
860.977	-0.08
861.145	0.87
861.313	0.39
861.48	-0.23
861.648	1.19
861.815	-0.26
861.983	-0.74
862.15	0.51
862.318	-0.43
862.485	1.8
862.653	-1.03
862.82	-1.17
862.988	0.87
863.155	0.69
863.322	-1.49
863.49	-1.63
863.657	-1.69
863.824	2.04
863.992	0.4
864.159	-0.63
864.326	0.72
864.494	-0.59
864.661	1.33
864.828	-1.29
864.996	0.12
865.163	1.22
865.33	-1.43
865.497	-1.71
865.664	-2.44
865.832	-3.08
865.999	-0.68
866.166	-1.4
866.333	-1.08
866.5	0.17
866.667	-0.28
866.834	-0.71
867.001	2.51
867.168	-2.02
867.335	-0.1
867.502	-1.91
867.669	0.36
867.836	1.9
868.003	0.57
868.17	0.63
868.337	2.19
868.504	1.4
868.671	-1.8
868.838	-1.55
869.005	-0.67
869.172	0.53
869.339	0.85
869.505	-0.88
869.672	-0.14
869.839	1.22
870.006	0.19
870.173	-2.8
870.339	0.73
870.506	2.23
870.673	-1.37
870.84	0.78
871.006	-0.74
871.173	0.72
871.34	-0.47
871.506	-1.52
871.673	0.9
871.839	-1.79
872.006	-0.94
872.173	-2.12
872.339	-0.7
872.506	1.69
872.672	-0.28
872.839	-1.01
873.005	0.21
873.172	3.24
873.338	1.39
873.505	0.46
873.671	-1.31
873.838	1.34
874.004	-1.41
874.171	-1.79
874.337	1.74
874.503	0.68
874.67	-1.75
874.836	0.21
875.002	2.34
875.169	1.22
875.335	0.42
875.501	-0.77
875.668	0.66
875.834	-1.55
876	0.2
876.166	1.94
876.332	0.15
876.499	3.9
876.665	0.44
876.831	1.01
876.997	2.68
877.163	0.61
877.329	-1.97
877.495	0.26
877.662	1.18
877.828	-0.89
877.994	-0.18
878.16	-3.14
878.326	-2.04
878.492	0.06
878.658	1.04
878.824	0.56
878.99	1.27
879.156	-2.66
879.322	2.9
879.487	-0.18
879.653	1.52
879.819	-0.16
879.985	0.23
880.151	-0.12
880.317	0.68
880.483	-1.02
880.648	2.14
880.814	-2.33
880.98	2.05
881.146	-1.83
881.312	-1.21
881.477	-1.4
881.643	-1.46
881.809	1.7
881.974	1.25
882.14	-1.29
882.306	0.38
882.471	0.48
882.637	-1.4
882.803	2.12
882.968	2.61
883.134	2.74
883.299	-0.11
883.465	-0.63
883.63	0.64
883.796	0.83
883.961	1.72
884.127	0.95
884.292	-4.8
884.458	-2.3
884.623	-2.3
