Data from Apollo_Calib_20240827__AbsoluteIrradiance__555__08-24-01-896.txt Node

Date: Wed Aug 28 08:24:01 BST 2024
User: biology
Spectrometer: FLMT08252
Trigger mode: 0
Integration Time (sec): 5.000000E-1
Scans to average: 5
Electric dark correction enabled: true
Nonlinearity correction enabled: false
Boxcar width: 0
XAxis mode: Wavelengths
Number of Pixels in Spectrum: 3648
>>>>>Begin Spectral Data<<<<<
179.588	-0
179.809	-0
180.03	-0
180.251	-0
180.473	-0
180.694	0
180.915	0
181.136	-0
181.357	0
181.578	0
181.799	-0
182.02	-0
182.241	0
182.462	-0
182.683	0
182.904	-0
183.125	-0
183.346	0
183.567	0
183.788	-0
184.009	-0
184.23	-0
184.451	0
184.672	-0
184.892	-0
185.113	0
185.334	0
185.555	-0
185.776	-0
185.996	0
186.217	0
186.438	0
186.659	-0
186.879	0
187.1	-0
187.321	-0
187.541	-0
187.762	0
187.983	0
188.203	0
188.424	-0
188.644	0
188.865	0
189.086	-0
189.306	-0
189.527	-0
189.747	0
189.968	-0
190.188	0
190.409	-0
190.629	0
190.849	-0
191.07	-0
191.29	0
191.511	0
191.731	-0
191.951	-0
192.172	-0
192.392	-0
192.612	-0
192.833	-0
193.053	0
193.273	0
193.493	-0
193.714	-0
193.934	0
194.154	0
194.374	0
194.594	-0
194.815	-0
195.035	0
195.255	-0
195.475	-0
195.695	-0
195.915	0
196.135	-0
196.355	0
196.575	0
196.795	-0
197.015	-0
197.235	-0
197.455	-0
197.675	-0
197.895	-0
198.115	-0
198.335	0
198.555	-0
198.775	0
198.995	0
199.214	0
199.434	-0
199.654	-0
199.874	-0
200.094	0.7
200.313	-0.32
200.533	-0.45
200.753	-0.89
200.973	0.78
201.192	-0.3
201.412	-0.71
201.632	-0.91
201.851	0.52
202.071	-0.5
202.291	-0.4
202.51	-0.7
202.73	0.17
202.95	-0.39
203.169	-0.78
203.389	-0.01
203.608	0.21
203.828	-0.38
204.047	-0.16
204.267	0.43
204.486	-0.36
204.706	-0
204.925	0.05
205.145	-0.2
205.364	0.47
205.583	0.43
205.803	-0.46
206.022	-0.32
206.242	-0.18
206.461	-0.21
206.68	-0.58
206.9	-0.05
207.119	0.49
207.338	0.5
207.557	0.08
207.777	0.11
207.996	0.07
208.215	0.34
208.434	-0.19
208.654	-0.63
208.873	-0.1
209.092	0.59
209.311	-0.07
209.53	-0.11
209.749	-0.21
209.968	-0.3
210.187	-0.33
210.407	-0.42
210.626	-0.15
210.845	0.16
211.064	0.02
211.283	-0.36
211.502	0.34
211.721	0.08
211.94	-0.23
212.159	0.32
212.377	0.07
212.596	0.16
212.815	-0.02
213.034	0.07
213.253	0.34
213.472	0.21
213.691	-0.06
213.91	-0.22
214.128	-0.36
214.347	0.37
214.566	-0.22
214.785	-0.24
215.003	0.13
215.222	-0.02
215.441	-0.13
215.66	-0.31
215.878	-0.13
216.097	0.27
216.316	-0.36
216.534	-0.09
216.753	0.05
216.972	-0.15
217.19	-0.27
217.409	-0.34
217.627	-0.18
217.846	0.01
218.064	-0.12
218.283	-0.03
218.501	0.35
218.72	0.23
218.938	-0.24
219.157	-0.24
219.375	0.01
219.594	0.01
219.812	-0.19
220.031	-0.15
220.249	0.27
220.467	0.16
220.686	-0.18
220.904	-0.33
221.122	-0.28
221.341	0.21
221.559	-0.09
221.777	-0.19
221.995	-0.1
222.214	0.2
222.432	-0.17
222.65	0.11
222.868	0.15
223.086	0.11
223.305	0.05
223.523	0.03
223.741	0.12
223.959	-0.15
224.177	-0.22
224.395	-0.17
224.613	0.02
224.831	0.1
225.049	-0.21
225.267	-0.08
225.485	-0.03
225.703	-0.03
225.921	-0.12
226.139	-0.1
226.357	0.03
226.575	-0.02
226.793	-0.14
227.011	0.43
227.229	0
227.447	0.19
227.665	-0.11
227.883	-0.11
228.1	-0
228.318	-0.06
228.536	-0.26
228.754	-0.22
228.972	-0.03
229.189	0.07
229.407	-0.1
229.625	-0.26
229.843	0.19
230.06	0.08
230.278	-0.07
230.496	-0.09
230.713	-0.07
230.931	0.21
231.149	-0.09
231.366	-0.17
231.584	-0.04
231.801	0.31
232.019	-0.06
232.236	-0.16
232.454	-0.14
232.671	0.01
232.889	-0.04
233.106	-0.03
233.324	0.02
233.541	-0.11
233.759	-0.14
233.976	-0.27
234.194	-0.04
234.411	-0.08
234.628	-0.1
234.846	-0.13
235.063	-0.06
235.28	0.05
235.498	-0.08
235.715	-0.13
235.932	-0.01
236.149	-0.05
236.367	-0.04
236.584	-0.09
236.801	-0.15
237.018	-0.01
237.236	-0
237.453	-0.1
237.67	0.2
237.887	-0.08
238.104	-0.11
238.321	-0.15
238.538	-0.04
238.755	0.05
238.973	-0.14
239.19	0.04
239.407	-0.09
239.624	-0.07
239.841	-0.22
240.058	-0.02
240.275	0.03
240.492	0
240.709	-0.02
240.925	-0.08
241.142	0.04
241.359	-0.12
241.576	-0.13
241.793	0.01
242.01	-0.06
242.227	0.01
242.444	0.06
242.66	-0
242.877	0
243.094	-0.05
243.311	0.02
243.527	-0.09
243.744	0.01
243.961	0.05
244.178	-0.06
244.394	-0.07
244.611	0.05
244.828	0.12
245.044	-0.11
245.261	-0.06
245.477	0.03
245.694	0.07
245.911	-0.11
246.127	-0.04
246.344	0.16
246.56	0.02
246.777	-0.1
246.993	-0.05
247.21	0.06
247.426	-0.04
247.643	0
247.859	-0.11
248.076	-0.07
248.292	0.14
248.508	-0.1
248.725	0.04
248.941	0.1
249.157	-0.03
249.374	-0.03
249.59	-0.13
249.806	-0.01
250.023	0.09
250.239	-0.07
250.455	-0.06
250.671	0
250.888	-0.01
251.104	0.05
251.32	-0.07
251.536	-0.07
251.752	-0
251.969	-0.06
252.185	-0.02
252.401	0.18
252.617	0
252.833	-0.08
253.049	0.01
253.265	-0.05
253.481	0.1
253.697	-0.02
253.913	-0.08
254.129	-0.01
254.345	-0.04
254.561	-0.03
254.777	-0.04
254.993	0.05
255.209	0.06
255.425	-0.07
255.641	-0.07
255.857	-0.02
256.073	-0.03
256.288	-0.07
256.504	-0.03
256.72	-0.03
256.936	0.15
257.152	-0.08
257.367	-0.06
257.583	-0.02
257.799	0.03
258.015	-0.13
258.23	-0.08
258.446	0.08
258.662	-0.01
258.877	-0.05
259.093	-0.1
259.309	0.02
259.524	0.03
259.74	-0.04
259.955	-0.12
260.171	0.03
260.387	-0.05
260.602	0.06
260.818	0.03
261.033	-0.1
261.249	-0.03
261.464	-0.07
261.68	-0.15
261.895	-0.03
262.11	-0
262.326	-0.03
262.541	-0.14
262.757	0.1
262.972	0.02
263.187	0.03
263.403	-0.03
263.618	0
263.833	-0.02
264.049	-0.07
264.264	-0.07
264.479	0.02
264.694	0.15
264.91	-0.06
265.125	-0.01
265.34	0.05
265.555	0.11
265.77	0.02
265.986	0.01
266.201	-0
266.416	0.07
266.631	-0.09
266.846	-0.02
267.061	0.05
267.276	-0
267.491	-0.15
267.706	-0.04
267.921	0.03
268.136	0
268.351	-0.02
268.566	-0.11
268.781	0.07
268.996	0.05
269.211	-0
269.426	-0.08
269.641	-0.07
269.856	0.05
270.071	-0.08
270.285	-0.12
270.5	0.09
270.715	0.08
270.93	-0.02
271.145	0
271.359	0.07
271.574	-0.05
271.789	0.05
272.004	-0.11
272.218	-0.05
272.433	0.04
272.648	-0.06
272.862	0.04
273.077	-0.07
273.292	0.02
273.506	-0.07
273.721	-0.02
273.936	0.05
274.15	0.11
274.365	-0.05
274.579	0.04
274.794	0.03
275.008	0.03
275.223	-0.06
275.437	-0.06
275.652	0.03
275.866	0.05
276.081	-0.02
276.295	0.03
276.509	0
276.724	-0.02
276.938	-0.02
277.153	0.01
277.367	0.06
277.581	-0.06
277.796	0
278.01	-0.06
278.224	0.02
278.438	0.12
278.653	-0.02
278.867	-0.07
279.081	-0.15
279.295	-0.06
279.51	0.06
279.724	-0.16
279.938	0.03
280.152	0.03
280.366	-0.08
280.58	-0.03
280.794	0.1
281.008	0.01
281.222	0.04
281.437	0.09
281.651	0.03
281.865	0.1
282.079	-0.04
282.293	-0.11
282.507	-0.08
282.721	-0.01
282.935	0.02
283.148	-0.07
283.362	-0.07
283.576	-0.03
283.79	0.01
284.004	-0.06
284.218	0
284.432	-0.04
284.646	-0.05
284.859	0.01
285.073	-0.06
285.287	0.02
285.501	-0.06
285.714	-0.02
285.928	-0.01
286.142	-0.02
286.356	-0.05
286.569	-0.02
286.783	0.06
286.997	-0.02
287.21	-0.02
287.424	0.03
287.637	-0.02
287.851	-0.01
288.065	-0.01
288.278	-0.02
288.492	-0.01
288.705	-0.04
288.919	-0.01
289.132	-0.06
289.346	0.06
289.559	-0.05
289.773	-0.08
289.986	-0.03
290.2	-0.01
290.413	0.01
290.626	-0.02
290.84	-0.04
291.053	-0.03
291.267	0.03
291.48	-0.02
291.693	0.01
291.906	-0.07
292.12	-0.01
292.333	-0.05
292.546	-0.04
292.76	0.09
292.973	0.01
293.186	0.01
293.399	-0.03
293.612	0.01
293.826	0.02
294.039	-0.04
294.252	-0.01
294.465	0.05
294.678	0.02
294.891	0.02
295.104	-0.04
295.317	0
295.53	0.01
295.743	0
295.956	0.05
296.169	0.1
296.382	0.03
296.595	0.02
296.808	-0.06
297.021	-0.02
297.234	0.05
297.447	-0.01
297.66	0.03
297.873	0.02
298.086	0.02
298.299	-0.05
298.511	-0.02
298.724	0
298.937	-0.05
299.15	0.01
299.363	0.02
299.575	0.02
299.788	0.02
300.001	-0.03
300.213	-0.01
300.426	-0.01
300.639	-0.06
300.852	-0.03
301.064	0.04
301.277	0.04
301.489	0.01
301.702	0.06
301.915	-0.01
302.127	-0.01
302.34	-0
302.552	0.03
302.765	-0.02
302.977	0.01
303.19	-0.03
303.402	-0.03
303.615	-0.02
303.827	-0.01
304.04	0.02
304.252	0
304.464	-0.04
304.677	0.07
304.889	0.04
305.102	-0.02
305.314	-0.05
305.526	-0
305.739	0
305.951	-0.04
306.163	-0.01
306.375	0.07
306.588	0.01
306.8	-0.03
307.012	-0.04
307.224	0.02
307.436	0.04
307.649	-0.08
307.861	0.01
308.073	0.04
308.285	-0.05
308.497	-0
308.709	-0.02
308.921	-0.01
309.133	0.05
309.346	-0.02
309.558	0
309.77	0.03
309.982	0.06
310.194	0.02
310.406	-0.02
310.617	0.04
310.829	0
311.041	-0.01
311.253	-0.03
311.465	-0.02
311.677	-0.02
311.889	-0.02
312.101	-0.06
312.313	0.02
312.524	0.05
312.736	-0.07
312.948	-0.02
313.16	0.04
313.372	0.04
313.583	0.01
313.795	-0
314.007	-0.01
314.218	0.01
314.43	-0.04
314.642	-0.01
314.853	-0.03
315.065	0.03
315.277	-0.03
315.488	0.02
315.7	-0.01
315.912	0.02
316.123	-0.04
316.335	-0.02
316.546	0.11
316.758	-0.02
316.969	-0.02
317.181	-0
317.392	0.01
317.604	0.01
317.815	-0.03
318.026	-0.02
318.238	-0.05
318.449	-0.01
318.661	-0.08
318.872	-0.08
319.083	-0.03
319.295	0.04
319.506	-0.04
319.717	0.02
319.929	0.01
320.14	-0.04
320.351	-0.01
320.562	-0
320.774	0.02
320.985	-0.03
321.196	-0.05
321.407	-0.05
321.618	0
321.829	-0.03
322.041	0.03
322.252	0
322.463	0.04
322.674	0.01
322.885	-0.05
323.096	0.02
323.307	-0.03
323.518	-0.01
323.729	-0.03
323.94	-0.06
324.151	-0.04
324.362	0.01
324.573	0.01
324.784	-0.03
324.995	0.02
325.206	0.01
325.417	-0.02
325.628	-0.05
325.838	0
326.049	0.02
326.26	0.02
326.471	-0.07
326.682	-0.01
326.892	-0.03
327.103	-0.06
327.314	-0.05
327.525	0.07
327.735	-0.01
327.946	-0.04
328.157	-0.05
328.368	0.01
328.578	-0.06
328.789	0.02
328.999	0.04
329.21	0.01
329.421	0.01
329.631	-0.03
329.842	-0.02
330.052	-0.01
330.263	0.02
330.473	0
330.684	-0.02
330.894	-0.02
331.105	-0
331.315	-0.02
331.526	-0.08
331.736	0.04
331.947	-0.02
332.157	-0.01
332.367	-0.04
332.578	0.03
332.788	0.08
332.999	0.01
333.209	-0.02
333.419	-0.06
333.629	0.04
333.84	0.04
334.05	-0.01
334.26	0.04
334.47	-0.02
334.681	0.03
334.891	-0.03
335.101	0.02
335.311	0.08
335.521	0.02
335.732	-0.04
335.942	0.06
336.152	0.03
336.362	0.03
336.572	-0.01
336.782	0
336.992	-0.02
337.202	-0.01
337.412	-0.04
337.622	0.04
337.832	0.03
338.042	-0
338.252	-0.04
338.462	-0.03
338.672	0.02
338.882	-0.04
339.092	-0.04
339.302	0.07
339.511	-0.01
339.721	-0.01
339.931	-0.04
340.141	0.04
340.351	0.05
340.561	-0.02
340.77	0.01
340.98	-0
341.19	0.01
341.4	-0.06
341.609	-0.05
341.819	-0.02
342.029	-0.06
342.238	0.04
342.448	-0.01
342.658	0.01
342.867	-0.05
343.077	-0
343.286	0.03
343.496	-0
343.706	0.03
343.915	-0.07
344.125	-0.03
344.334	0.04
344.544	-0.06
344.753	-0.02
344.963	-0.02
345.172	-0.05
345.381	-0.03
345.591	-0.03
345.8	-0.02
346.01	0.04
346.219	0
346.428	-0.1
346.638	-0
346.847	-0.01
347.056	0.02
347.266	-0.01
347.475	-0.02
347.684	0
347.893	0.01
348.103	0.02
348.312	0.03
348.521	-0.01
348.73	-0
348.94	-0.02
349.149	-0.02
349.358	-0.04
349.567	-0.03
349.776	-0.04
349.985	-0.02
350.194	0.04
350.403	0.07
350.612	-0.05
350.821	0.01
351.03	0
351.239	-0.06
351.448	-0.01
351.657	-0.03
351.866	-0.01
352.075	-0.02
352.284	0.03
352.493	-0.03
352.702	0.06
352.911	-0.05
353.12	-0.01
353.329	-0.06
353.538	0
353.746	-0.01
353.955	-0.01
354.164	-0.02
354.373	-0.02
354.582	0.06
354.79	0.03
354.999	0.02
355.208	-0
355.416	0.01
355.625	-0
355.834	-0.03
356.042	0.01
356.251	-0.04
356.46	-0.03
356.668	-0.01
356.877	0.05
357.085	0.01
357.294	-0.06
357.503	0.01
357.711	0.01
357.92	0.11
358.128	0.02
358.337	-0.03
358.545	0.01
358.754	-0.01
358.962	0.01
359.17	-0.03
359.379	-0.01
359.587	0.02
359.796	-0.03
360.004	0.03
360.212	-0.01
360.421	0.02
360.629	-0.03
360.837	-0.09
361.046	0.03
361.254	0.06
361.462	0.01
361.67	-0.03
361.879	-0.01
362.087	0.03
362.295	0.03
362.503	0.01
362.711	-0.05
362.92	-0.04
363.128	-0.06
363.336	0
363.544	-0.07
363.752	-0.04
363.96	-0.04
364.168	-0.03
364.376	-0.04
364.584	0.01
364.792	0.03
365	0.04
365.208	0
365.416	0
365.624	0.01
365.832	-0.03
366.04	0.02
366.248	-0
366.456	0.01
366.664	0.04
366.872	0
367.079	0.02
367.287	0.03
367.495	0.01
367.703	0.03
367.911	-0
368.118	-0.01
368.326	-0.02
368.534	-0.05
368.742	0.06
368.949	-0.04
369.157	-0.02
369.365	0.05
369.572	-0.04
369.78	-0.01
369.988	0.04
370.195	0.03
370.403	0.04
370.61	-0.03
370.818	0.01
371.026	0.04
371.233	-0.03
371.441	0.03
371.648	-0.01
371.856	0.05
372.063	-0
372.271	-0.03
372.478	0.01
372.685	-0.04
372.893	0.02
373.1	-0.04
373.308	-0.04
373.515	0.07
373.722	0.02
373.93	-0.02
374.137	-0.02
374.344	0.04
374.552	0.05
374.759	0.04
374.966	0.02
375.173	-0.04
375.381	0
375.588	-0
375.795	-0.08
376.002	-0.04
376.209	-0.01
376.417	-0.02
376.624	0.01
376.831	0.02
377.038	0.01
377.245	-0.1
377.452	-0.03
377.659	-0.03
377.866	-0.03
378.073	-0.01
378.28	-0.03
378.487	0.01
378.694	-0
378.901	0.01
379.108	-0.04
379.315	0.01
379.522	0.08
379.729	0.01
379.936	-0
380.143	-0.01
380.35	0.02
380.557	-0
380.763	0.01
380.97	-0.01
381.177	-0.01
381.384	0.01
381.591	-0
381.797	0
382.004	0.02
382.211	0.02
382.418	-0.06
382.624	0.01
382.831	0.01
383.038	-0.05
383.244	0.01
383.451	0.04
383.658	0.03
383.864	-0.01
384.071	-0.02
384.277	0.05
384.484	-0.08
384.69	-0.01
384.897	-0.04
385.103	-0.03
385.31	-0.04
385.516	-0.04
385.723	-0.01
385.929	-0.02
386.136	-0.04
386.342	0.01
386.549	-0.04
386.755	0.08
386.961	0.03
387.168	-0.06
387.374	0.03
387.58	0.01
387.787	-0.02
387.993	-0.02
388.199	-0.03
388.406	-0.03
388.612	-0.04
388.818	-0.09
389.024	-0.01
389.231	0.01
389.437	0.05
389.643	0.06
389.849	0.02
390.055	-0.02
390.261	0.01
390.467	-0.01
390.674	-0.05
390.88	-0
391.086	0.08
391.292	-0.03
391.498	0.04
391.704	0.05
391.91	0.02
392.116	-0.05
392.322	-0.13
392.528	0
392.734	-0.02
392.94	-0.02
393.146	-0.05
393.352	-0.01
393.557	-0
393.763	-0.02
393.969	0
394.175	-0.04
394.381	-0.01
394.587	-0.06
394.792	-0
394.998	0.05
395.204	0.06
395.41	-0.04
395.615	0.01
395.821	0.05
396.027	0.01
396.233	-0.03
396.438	0.04
396.644	0.07
396.85	-0.02
397.055	-0.03
397.261	0.01
397.466	-0.02
397.672	-0.03
397.878	0
398.083	-0
398.289	0.03
398.494	0.04
398.7	0.01
398.905	-0.05
399.111	0.05
399.316	-0.06
399.522	-0.02
399.727	-0.03
399.932	-0.03
400.138	-0.04
400.343	0.02
400.549	0.01
400.754	0.01
400.959	0.04
401.165	-0.03
401.37	-0
401.575	-0.07
401.78	0
401.986	-0.01
402.191	-0.04
402.396	-0
402.601	0.04
402.807	-0.05
403.012	0.01
403.217	0.01
403.422	-0.01
403.627	-0.04
403.832	-0.05
404.037	0.03
404.243	0.01
404.448	-0.02
404.653	-0.04
404.858	-0.01
405.063	0.03
405.268	-0.02
405.473	-0.04
405.678	-0.06
405.883	0.11
406.088	0.02
406.293	-0.03
406.498	-0.05
406.703	-0.04
406.907	0.01
407.112	-0.07
407.317	0.03
407.522	0.02
407.727	-0.05
407.932	-0.02
408.136	0.08
408.341	-0.05
408.546	-0.02
408.751	0.04
408.956	-0
409.16	0.01
409.365	0.03
409.57	-0.04
409.774	-0.01
409.979	0.04
410.184	0.02
410.388	-0.05
410.593	0.05
410.798	0.01
411.002	-0.05
411.207	-0.02
411.411	0
411.616	-0.07
411.82	-0.06
412.025	-0.02
412.229	-0.06
412.434	0.04
412.638	0.03
412.843	-0.01
413.047	-0.01
413.252	-0.06
413.456	-0.02
413.66	0.01
413.865	-0.04
414.069	0.01
414.273	-0.02
414.478	-0.06
414.682	-0.06
414.886	-0.04
415.091	-0.09
415.295	-0.07
415.499	0.04
415.703	-0.03
415.908	0.01
416.112	-0.11
416.316	-0.02
416.52	-0.02
416.724	-0.1
416.929	-0.04
417.133	0.05
417.337	-0.04
417.541	0.04
417.745	-0
417.949	0.01
418.153	-0.01
418.357	-0.09
418.561	0.06
418.765	-0.03
418.969	0.06
419.173	0.03
419.377	-0.08
419.581	0.07
419.785	0.02
419.989	-0.09
420.193	-0
420.397	-0.02
420.601	0
420.804	0
421.008	-0.03
421.212	-0.01
421.416	0.03
421.62	-0.05
421.823	-0.01
422.027	0.07
422.231	-0.02
422.435	-0.02
422.638	0.03
422.842	-0.05
423.046	-0.01
423.249	-0.02
423.453	0
423.657	-0.02
423.86	0.03
424.064	-0.07
424.268	0.07
424.471	-0.07
424.675	0.04
424.878	0.08
425.082	-0
425.285	0.02
425.489	-0
425.692	-0.04
425.896	-0.06
426.099	0.03
426.303	-0.06
426.506	-0.06
426.71	-0.05
426.913	0.02
427.116	0.02
427.32	0.01
427.523	0.01
427.726	0.04
427.93	-0.11
428.133	0.04
428.336	-0.04
428.54	-0.07
428.743	-0.04
428.946	0.02
429.149	-0.04
429.353	-0.03
429.556	0
429.759	-0.01
429.962	-0.04
430.165	0.02
430.368	-0.02
430.571	-0.07
430.775	0.03
430.978	0
431.181	-0.02
431.384	0.03
431.587	-0.03
431.79	-0.05
431.993	-0.07
432.196	0.04
432.399	-0.03
432.602	0.04
432.805	-0.01
433.008	-0.02
433.211	-0.08
433.414	0.01
433.616	0.01
433.819	-0.03
434.022	-0.11
434.225	0.07
434.428	0.02
434.631	0.08
434.833	-0.05
435.036	-0.02
435.239	0.02
435.442	-0.03
435.645	-0.02
435.847	-0.02
436.05	0.05
436.253	0.02
436.455	-0.07
436.658	-0.01
436.861	0.02
437.063	-0.07
437.266	-0.01
437.468	0
437.671	0.1
437.874	0.01
438.076	-0.06
438.279	-0.06
438.481	-0.01
438.684	-0.05
438.886	0.02
439.089	-0.1
439.291	-0.03
439.494	0.01
439.696	-0.07
439.899	-0.01
440.101	0.01
440.303	-0.13
440.506	0.03
440.708	-0.05
440.91	-0
441.113	-0.01
441.315	0.02
441.517	-0.02
441.72	0.01
441.922	-0.06
442.124	-0.14
442.326	0.06
442.529	0.06
442.731	-0.03
442.933	0.03
443.135	-0.02
443.337	0.01
443.539	-0.04
443.742	-0.06
443.944	-0.03
444.146	-0.07
444.348	-0.07
444.55	-0.02
444.752	0.03
444.954	-0.06
445.156	0.04
445.358	-0.02
445.56	0.03
445.762	-0.02
445.964	-0
446.166	-0.03
446.368	-0.06
446.57	0.01
446.772	-0
446.974	-0
447.175	0.02
447.377	-0.06
447.579	-0.05
447.781	-0.06
447.983	0.04
448.184	0.03
448.386	0
448.588	-0.08
448.79	-0.03
448.991	-0.04
449.193	-0.04
449.395	-0.05
449.597	-0.01
449.798	-0.04
450	0.01
450.202	-0.06
450.403	0.02
450.605	0.01
450.806	0.01
451.008	-0.1
451.21	0.01
451.411	-0.02
451.613	-0.03
451.814	-0.02
452.016	0.04
452.217	0
452.419	0.04
452.62	0.01
452.821	0.02
453.023	0.03
453.224	0.08
453.426	-0.01
453.627	0.02
453.828	0.04
454.03	-0.03
454.231	0.02
454.432	-0.06
454.634	0.08
454.835	0.01
455.036	-0.03
455.238	0.07
455.439	0.09
455.64	-0.1
455.841	-0
456.042	0.01
456.244	0.01
456.445	-0.03
456.646	-0.1
456.847	-0.03
457.048	0.02
457.249	0.01
457.45	0.21
457.651	-0.1
457.852	-0
458.054	0
458.255	-0.01
458.456	-0.02
458.657	0.02
458.858	-0.02
459.058	0.01
459.259	0.03
459.46	-0.02
459.661	-0.07
459.862	0.07
460.063	-0
460.264	-0.03
460.465	-0.09
460.666	0.07
460.866	-0.03
461.067	-0.02
461.268	-0.03
461.469	-0.03
461.67	-0.01
461.87	0
462.071	-0.05
462.272	-0.07
462.473	0.01
462.673	0.05
462.874	-0.05
463.075	0.04
463.275	-0.08
463.476	0.01
463.676	0.04
463.877	0.01
464.078	0.01
464.278	0.04
464.479	-0.08
464.679	-0
464.88	-0.02
465.08	0.08
465.281	-0.01
465.481	-0.01
465.682	-0.07
465.882	0
466.083	-0.04
466.283	-0.01
466.483	-0.03
466.684	-0.08
466.884	-0.03
467.085	-0.07
467.285	0.04
467.485	-0.03
467.686	0
467.886	-0.06
468.086	-0.02
468.286	0.01
468.487	-0
468.687	-0.04
468.887	-0
469.087	0.01
469.287	-0.04
469.488	-0.04
469.688	0.01
469.888	-0.02
470.088	0.02
470.288	0.05
470.488	0.03
470.688	-0.06
470.888	-0.04
471.088	-0.02
471.288	-0
471.488	0.01
471.688	0.02
471.888	-0.04
472.088	-0
472.288	0
472.488	-0.06
472.688	-0.04
472.888	-0.04
473.088	-0.01
473.288	-0.05
473.488	0.01
473.688	0.07
473.887	-0.03
474.087	-0.04
474.287	0.02
474.487	-0.09
474.687	0.02
474.886	0.01
475.086	-0
475.286	0.01
475.486	-0.02
475.685	-0.02
475.885	-0.02
476.085	-0.04
476.284	0.05
476.484	-0.01
476.684	0.02
476.883	0.05
477.083	0.02
477.282	-0.02
477.482	0.05
477.681	0.04
477.881	0.01
478.08	-0.03
478.28	-0.05
478.479	0.03
478.679	0.04
478.878	-0.01
479.078	-0.05
479.277	-0.02
479.477	-0.02
479.676	0.01
479.875	-0.01
480.075	-0.05
480.274	0.01
480.473	0.04
480.673	-0.01
480.872	0.02
481.071	-0
481.271	-0
481.47	-0.02
481.669	0
481.868	-0.01
482.067	-0.04
482.267	-0.04
482.466	-0.03
482.665	-0.04
482.864	-0.02
483.063	-0.04
483.262	0.01
483.461	0.04
483.661	0.03
483.86	-0
484.059	-0.01
484.258	-0
484.457	0.01
484.656	0.01
484.855	0.04
485.054	-0.04
485.253	-0.04
485.452	-0.03
485.651	0.02
485.849	-0.02
486.048	-0.04
486.247	-0.05
486.446	-0
486.645	-0.01
486.844	-0.01
487.043	-0.01
487.241	-0.01
487.44	-0.05
487.639	-0.03
487.838	0
488.037	0.03
488.235	0.05
488.434	0.01
488.633	-0.04
488.831	0.02
489.03	0.01
489.229	0.01
489.427	-0.02
489.626	0.02
489.825	0.06
490.023	-0.03
490.222	-0.04
490.42	0
490.619	0.01
490.817	-0.02
491.016	-0
491.214	0.02
491.413	-0.01
491.611	-0.03
491.81	-0.02
492.008	-0
492.207	0.01
492.405	0
492.604	-0.03
492.802	-0.02
493	-0.01
493.199	-0.04
493.397	-0.01
493.595	-0.02
493.794	-0.01
493.992	0.04
494.19	-0.02
494.388	0.01
494.587	-0.02
494.785	0
494.983	-0.03
495.181	0.01
495.379	0.01
495.578	-0.01
495.776	0.02
495.974	0.01
496.172	-0.02
496.37	-0.02
496.568	-0.03
496.766	-0.03
496.964	0.01
497.162	-0.01
497.36	-0.02
497.558	0.02
497.756	0.01
497.954	-0.02
498.152	-0.03
498.35	-0.01
498.548	0
498.746	-0.01
498.944	-0.02
499.142	-0.02
499.34	-0.04
499.538	-0.01
499.736	-0.04
499.933	0.03
500.131	0.01
500.329	0.01
500.527	0.02
500.725	0.01
500.922	-0.01
501.12	0.01
501.318	0.02
501.516	-0.03
501.713	0
501.911	-0.01
502.109	-0.01
502.306	0
502.504	-0.01
502.701	-0.04
502.899	-0.01
503.097	0.02
503.294	0.02
503.492	-0.02
503.689	0.02
503.887	0.03
504.084	0.04
504.282	-0.02
504.479	-0.04
504.677	0
504.874	-0.03
505.072	-0
505.269	-0.01
505.466	0.02
505.664	0.02
505.861	-0.03
506.059	-0.05
506.256	0.01
506.453	-0.02
506.651	0.03
506.848	0.01
507.045	0.01
507.242	0.02
507.44	-0.01
507.637	-0.02
507.834	-0.01
508.031	-0.01
508.229	-0.04
508.426	-0
508.623	0.01
508.82	-0
509.017	-0.02
509.214	-0.03
509.411	0.01
509.608	-0.04
509.805	-0.01
510.003	-0.02
510.2	-0.03
510.397	0.02
510.594	-0.03
510.791	-0.02
510.988	-0.01
511.184	0.02
511.381	0
511.578	-0.03
511.775	0.01
511.972	-0.02
512.169	-0.03
512.366	0.01
512.563	0.03
512.76	-0.02
512.956	0.01
513.153	-0.02
513.35	-0.01
513.547	-0.01
513.744	-0.03
513.94	-0.05
514.137	0.01
514.334	-0
514.53	0.02
514.727	-0.01
514.924	0.05
515.12	-0.01
515.317	-0.04
515.514	0.01
515.71	-0.02
515.907	-0.01
516.103	0.01
516.3	0
516.497	0.01
516.693	0.04
516.89	-0
517.086	-0.02
517.283	0.05
517.479	0
517.676	-0
517.872	-0.01
518.068	-0
518.265	-0.02
518.461	-0.02
518.658	-0.03
518.854	0.01
519.05	-0.01
519.247	-0.01
519.443	-0.03
519.639	0.01
519.836	-0.01
520.032	-0.02
520.228	0.03
520.424	0.04
520.621	-0
520.817	-0.01
521.013	0.01
521.209	0.01
521.405	0.03
521.601	-0
521.798	-0.01
521.994	0.03
522.19	-0.01
522.386	-0.04
522.582	-0.01
522.778	-0.02
522.974	-0.01
523.17	0.02
523.366	-0
523.562	0.02
523.758	-0.01
523.954	-0.02
524.15	-0
524.346	0.02
524.542	-0.02
524.738	-0.02
524.934	-0.02
525.129	-0.02
525.325	0
525.521	-0.01
525.717	0
525.913	-0.02
526.109	0.01
526.304	-0
526.5	-0.01
526.696	0.01
526.892	-0.02
527.087	0.01
527.283	-0.04
527.479	-0.01
527.674	-0.02
527.87	-0.01
528.066	-0.02
528.261	-0
528.457	0.02
528.653	-0.01
528.848	-0.02
529.044	-0
529.239	-0.01
529.435	0.03
529.63	0
529.826	0.03
530.021	-0
530.217	-0.01
530.412	-0
530.608	0
530.803	0.02
530.999	-0
531.194	-0.03
531.389	0.01
531.585	-0.04
531.78	0.01
531.975	-0.02
532.171	0.01
532.366	0
532.561	0.01
532.757	0
532.952	-0
533.147	0.01
533.342	0.01
533.538	-0.01
533.733	0.01
533.928	-0.01
534.123	-0.01
534.318	-0.03
534.513	0
534.709	-0.03
534.904	-0.01
535.099	-0.02
535.294	0
535.489	-0.01
535.684	-0.01
535.879	-0.02
536.074	0
536.269	-0.02
536.464	0.02
536.659	-0.02
536.854	-0.01
537.049	0.03
537.244	-0.01
537.439	-0.02
537.634	0.01
537.828	-0.02
538.023	-0.01
538.218	-0.04
538.413	-0
538.608	-0.01
538.803	0.01
538.997	-0.04
539.192	0.01
539.387	0.02
539.582	0.01
539.776	0
539.971	-0.03
540.166	-0.04
540.36	-0.04
540.555	-0.01
540.75	-0.02
540.944	-0
541.139	-0.03
541.334	-0.02
541.528	-0
541.723	0.03
541.917	-0.02
542.112	-0.04
542.306	-0
542.501	-0.03
542.695	0.01
542.89	-0.03
543.084	-0
543.279	-0.01
543.473	-0.02
543.668	0.01
543.862	-0.01
544.056	0.02
544.251	-0
544.445	0.02
544.64	-0.03
544.834	-0.04
545.028	-0
545.222	-0
545.417	0.02
545.611	-0.01
545.805	-0.02
546	-0.02
546.194	-0.02
546.388	-0.02
546.582	0.01
546.776	-0.01
546.97	-0.01
547.165	-0
547.359	0.01
547.553	-0.01
547.747	-0.01
547.941	-0.02
548.135	-0.01
548.329	0.02
548.523	0.02
548.717	0.01
548.911	-0.04
549.105	-0.01
549.299	0
549.493	0.01
549.687	0
549.881	0
550.075	-0.02
550.269	-0.03
550.463	0.01
550.657	-0.02
550.85	-0.01
551.044	-0.01
551.238	0.01
551.432	-0.02
551.626	-0
551.82	-0.02
552.013	-0.01
552.207	-0.01
552.401	0.01
552.594	-0.01
552.788	-0.04
552.982	0
553.176	-0.03
553.369	0.02
553.563	0.01
553.756	-0.04
553.95	-0.03
554.144	-0.02
554.337	0.02
554.531	0.02
554.724	-0
554.918	-0.02
555.111	0.02
555.305	-0
555.498	0.05
555.692	0.01
555.885	-0.01
556.079	0
556.272	-0.02
556.466	0.02
556.659	-0.01
556.852	-0.02
557.046	-0.02
557.239	0.02
557.432	-0.03
557.626	-0.02
557.819	-0
558.012	0.03
558.206	0.02
558.399	-0.02
558.592	-0
558.785	-0.02
558.979	0
559.172	0.01
559.365	0.01
559.558	0
559.751	-0.01
559.944	0.04
560.138	0
560.331	-0.03
560.524	-0.01
560.717	-0.01
560.91	0.01
561.103	0.01
561.296	-0
561.489	0.01
561.682	-0.01
561.875	0
562.068	0.02
562.261	0
562.454	0.03
562.647	0
562.84	0.01
563.032	-0.02
563.225	0
563.418	-0.03
563.611	-0.01
563.804	-0.02
563.997	-0.02
564.19	-0.03
564.382	-0.05
564.575	-0.03
564.768	-0.01
564.961	-0
565.153	-0.03
565.346	0
565.539	-0.01
565.731	0
565.924	0.03
566.117	0.02
566.309	-0.01
566.502	-0.03
566.695	0.01
566.887	-0
567.08	-0.04
567.272	-0.01
567.465	-0.03
567.657	0.01
567.85	0
568.042	0.01
568.235	0.01
568.427	-0.01
568.62	-0.02
568.812	0
569.005	0
569.197	-0.03
569.389	-0
569.582	0.01
569.774	0.01
569.966	-0.03
570.159	-0.01
570.351	0.01
570.543	-0.03
570.736	-0.02
570.928	-0.02
571.12	-0.01
571.312	-0.02
571.505	-0.06
571.697	0.03
571.889	-0.04
572.081	-0
572.273	-0.02
572.465	0.03
572.658	0
572.85	0.01
573.042	-0.03
573.234	-0.02
573.426	0.02
573.618	-0.04
573.81	0
574.002	0.05
574.194	0.03
574.386	-0.04
574.578	-0.07
574.77	-0.04
574.962	-0.03
575.154	-0.04
575.346	-0.02
575.538	0.01
575.729	-0.02
575.921	-0.01
576.113	0.01
576.305	0.01
576.497	-0.01
576.689	0.01
576.88	-0.03
577.072	0.03
577.264	-0.01
577.456	-0.01
577.647	-0.05
577.839	-0.01
578.031	0.04
578.223	-0.04
578.414	-0
578.606	0
578.798	-0.02
578.989	-0.03
579.181	-0.01
579.372	-0.01
579.564	-0.02
579.755	0.01
579.947	0
580.139	0.01
580.33	-0.04
580.522	-0
580.713	-0.05
580.905	-0
581.096	0.02
581.287	0.01
581.479	-0.01
581.67	-0
581.862	0
582.053	0
582.244	-0.04
582.436	-0
582.627	0.01
582.818	-0.01
583.01	-0.01
583.201	0.02
583.392	0.01
583.583	0.01
583.775	-0.02
583.966	-0.03
584.157	-0.02
584.348	-0.03
584.54	-0.05
584.731	0.02
584.922	-0.01
585.113	-0.05
585.304	0
585.495	0.02
585.686	0.02
585.877	0.01
586.068	0.01
586.259	0.01
586.45	-0.02
586.641	-0.04
586.832	-0.06
587.023	-0.01
587.214	-0.04
587.405	-0.01
587.596	-0.03
587.787	0.02
587.978	0.02
588.169	-0.02
588.36	-0.01
588.551	-0.01
588.742	-0.01
588.932	0.01
589.123	-0.04
589.314	0.01
589.505	0.01
589.696	-0.01
589.886	-0.03
590.077	-0.05
590.268	0.01
590.458	-0.05
590.649	-0.05
590.84	0
591.03	-0.03
591.221	-0.02
591.412	-0.05
591.602	0
591.793	0.03
591.984	-0.06
592.174	-0.01
592.365	0.05
592.555	-0.01
592.746	0.01
592.936	0.02
593.127	0
593.317	0.05
593.508	-0.04
593.698	-0
593.889	-0.01
594.079	-0
594.269	-0.01
594.46	-0.01
594.65	-0.01
594.84	0
595.031	-0.03
595.221	-0.03
595.411	-0.05
595.602	-0
595.792	-0.01
595.982	-0.01
596.172	0.06
596.363	0
596.553	0.01
596.743	-0
596.933	0
597.123	-0
597.314	-0.05
597.504	-0.01
597.694	0.02
597.884	0.01
598.074	-0.02
598.264	-0.02
598.454	-0.01
598.644	0.02
598.834	-0.01
599.024	-0.06
599.214	-0
599.404	0.02
599.594	-0
599.784	-0.03
599.974	0.03
600.164	0.03
600.354	-0.02
600.544	-0.04
600.734	-0
600.924	0.01
601.114	-0
601.303	-0
601.493	0.01
601.683	-0.01
601.873	-0
602.063	-0.04
602.252	0.01
602.442	-0.06
602.632	-0.01
602.821	-0.04
603.011	0.03
603.201	0.01
603.39	-0.03
603.58	-0.02
603.77	-0.01
603.959	0.02
604.149	-0
604.339	-0.02
604.528	0.04
604.718	0.03
604.907	-0.02
605.097	-0.01
605.286	-0.03
605.476	-0
605.665	0.02
605.855	0.01
606.044	0.02
606.234	0.01
606.423	0.01
606.612	-0.02
606.802	-0.02
606.991	0.02
607.181	0.03
607.37	-0.03
607.559	0.01
607.749	-0.03
607.938	-0.01
608.127	0.02
608.316	-0.01
608.506	0.03
608.695	-0.02
608.884	0.01
609.073	0.02
609.263	0.02
609.452	0.05
609.641	0
609.83	-0.02
610.019	0.01
610.208	-0.03
610.397	0.02
610.586	0.04
610.775	-0.03
610.965	-0.01
611.154	-0.04
611.343	0.01
611.532	0.03
611.721	-0.01
611.91	-0.01
612.099	0.03
612.287	-0
612.476	-0.01
612.665	0.03
612.854	-0.01
613.043	0.05
613.232	0
613.421	-0.01
613.61	0.02
613.798	-0.01
613.987	0.02
614.176	0.02
614.365	0.02
614.554	0.02
614.742	0.03
614.931	0.01
615.12	0.04
615.309	0.02
615.497	0.04
615.686	-0.01
615.875	0.01
616.063	0.01
616.252	0.01
616.44	0.02
616.629	0.03
616.818	0.05
617.006	0.01
617.195	0.03
617.383	0.04
617.572	0.03
617.76	0.04
617.949	0
618.137	0.04
618.326	0.1
618.514	-0.01
618.703	0.01
618.891	0.09
619.079	-0
619.268	0.06
619.456	0.03
619.644	0.08
619.833	-0.02
620.021	0.03
620.209	-0.01
620.398	0.04
620.586	0.04
620.774	0.08
620.962	0.03
621.151	0.08
621.339	0.06
621.527	0.04
621.715	-0.01
621.903	0.02
622.092	0.03
622.28	0.08
622.468	0.06
622.656	0.12
622.844	0.05
623.032	0.05
623.22	0.03
623.408	0.06
623.596	0.09
623.784	0.09
623.972	0.07
624.16	0.06
624.348	0.11
624.536	0.07
624.724	0.05
624.912	0.11
625.1	0.12
625.288	0.08
625.476	0.03
625.664	0.1
625.851	0.03
626.039	0.08
626.227	0.11
626.415	0.09
626.603	0.05
626.79	0.11
626.978	0.1
627.166	0.12
627.354	0.08
627.541	0.07
627.729	0.08
627.917	0.11
628.104	0.13
628.292	0.11
628.48	0.13
628.667	0.1
628.855	0.12
629.042	0.13
629.23	0.12
629.418	0.14
629.605	0.15
629.793	0.1
629.98	0.1
630.168	0.14
630.355	0.14
630.543	0.17
630.73	0.13
630.917	0.18
631.105	0.19
631.292	0.11
631.48	0.15
631.667	0.24
631.854	0.13
632.042	0.15
632.229	0.12
632.416	0.17
632.604	0.17
632.791	0.14
632.978	0.18
633.165	0.18
633.353	0.25
633.54	0.19
633.727	0.13
633.914	0.2
634.101	0.13
634.289	0.24
634.476	0.15
634.663	0.19
634.85	0.24
635.037	0.13
635.224	0.19
635.411	0.25
635.598	0.27
635.785	0.21
635.972	0.22
636.159	0.3
636.346	0.23
636.533	0.27
636.72	0.26
636.907	0.24
637.094	0.3
637.281	0.25
637.468	0.3
637.655	0.27
637.842	0.29
638.029	0.27
638.215	0.33
638.402	0.34
638.589	0.28
638.776	0.3
638.963	0.29
639.149	0.34
639.336	0.39
639.523	0.33
639.709	0.31
639.896	0.34
640.083	0.39
640.27	0.38
640.456	0.34
640.643	0.37
640.829	0.36
641.016	0.35
641.203	0.34
641.389	0.43
641.576	0.42
641.762	0.41
641.949	0.37
642.135	0.45
642.322	0.45
642.508	0.38
642.695	0.45
642.881	0.45
643.068	0.45
643.254	0.48
643.441	0.51
643.627	0.48
643.813	0.45
644	0.55
644.186	0.51
644.372	0.54
644.559	0.6
644.745	0.54
644.931	0.55
645.118	0.57
645.304	0.59
645.49	0.6
645.676	0.59
645.862	0.68
646.049	0.68
646.235	0.62
646.421	0.78
646.607	0.75
646.793	0.68
646.979	0.68
647.165	0.72
647.352	0.72
647.538	0.79
647.724	0.81
647.91	0.8
648.096	0.8
648.282	0.86
648.468	0.78
648.654	0.84
648.84	0.87
649.026	0.88
649.212	0.93
649.397	0.88
649.583	0.9
649.769	0.99
649.955	0.99
650.141	1.04
650.327	1.03
650.513	0.96
650.698	1.06
650.884	1.02
651.07	1.12
651.256	1.08
651.442	1.11
651.627	1.08
651.813	1.13
651.999	1.14
652.184	1.17
652.37	1.2
652.556	1.2
652.741	1.27
652.927	1.14
653.113	1.26
653.298	1.28
653.484	1.26
653.669	1.25
653.855	1.3
654.04	1.34
654.226	1.38
654.412	1.4
654.597	1.34
654.782	1.37
654.968	1.49
655.153	1.51
655.339	1.46
655.524	1.48
655.71	1.55
655.895	1.5
656.08	1.5
656.266	1.59
656.451	1.57
656.636	1.52
656.822	1.58
657.007	1.58
657.192	1.62
657.378	1.57
657.563	1.59
657.748	1.7
657.933	1.67
658.118	1.52
658.304	1.63
658.489	1.65
658.674	1.59
658.859	1.59
659.044	1.64
659.229	1.6
659.414	1.51
659.599	1.51
659.785	1.43
659.97	1.4
660.155	1.46
660.34	1.44
660.525	1.32
660.71	1.39
660.895	1.33
661.08	1.25
661.264	1.23
661.449	1.24
661.634	1.13
661.819	1.18
662.004	1.12
662.189	1.04
662.374	0.95
662.559	0.94
662.743	0.85
662.928	0.89
663.113	0.84
663.298	0.78
663.483	0.77
663.667	0.8
663.852	0.7
664.037	0.73
664.221	0.64
664.406	0.66
664.591	0.66
664.775	0.58
664.96	0.51
665.145	0.56
665.329	0.54
665.514	0.53
665.698	0.51
665.883	0.43
666.068	0.56
666.252	0.45
666.437	0.4
666.621	0.37
666.806	0.41
666.99	0.35
667.174	0.31
667.359	0.4
667.543	0.3
667.728	0.26
667.912	0.24
668.096	0.31
668.281	0.26
668.465	0.27
668.649	0.25
668.834	0.21
669.018	0.24
669.202	0.24
669.387	0.18
669.571	0.2
669.755	0.17
669.939	0.22
670.124	0.16
670.308	0.18
670.492	0.18
670.676	0.19
670.86	0.18
671.044	0.1
671.228	0.22
671.413	0.09
671.597	0.1
671.781	0.11
671.965	0.16
672.149	0.12
672.333	0.11
672.517	0.12
672.701	0.14
672.885	0.1
673.069	0.08
673.253	0.15
673.437	0.1
673.621	0.07
673.804	0.05
673.988	0.11
674.172	0.07
674.356	0.02
674.54	0.08
674.724	0.12
674.908	0.03
675.091	0.1
675.275	0.06
675.459	0.07
675.643	0.03
675.826	0.02
676.01	0.08
676.194	0.01
676.377	0.1
676.561	0.09
676.745	0.04
676.928	0.02
677.112	0.1
677.296	0.01
677.479	0.01
677.663	0.02
677.846	0.09
678.03	0.06
678.213	0.01
678.397	0.08
678.58	0.02
678.764	-0
678.947	-0.02
679.131	0.01
679.314	0.03
679.498	-0
679.681	0.06
679.865	0.08
680.048	0.06
680.231	0.05
680.415	0.02
680.598	0.03
680.781	0.01
680.965	-0.02
681.148	0.01
681.331	0.04
681.514	0.06
681.698	-0.01
681.881	0.01
682.064	-0.02
682.247	0.02
682.43	-0.07
682.614	0.08
682.797	0.02
682.98	0.03
683.163	-0.01
683.346	0.06
683.529	-0.01
683.712	0.01
683.895	0.01
684.078	-0.05
684.261	-0.02
684.444	0.04
684.627	0.03
684.81	-0
684.993	-0.03
685.176	0.02
685.359	-0.07
685.542	-0.01
685.725	0.03
685.908	0.03
686.091	-0.01
686.274	0.05
686.457	0
686.639	0.01
686.822	0.02
687.005	-0.01
687.188	0.04
687.371	0.02
687.553	-0.01
687.736	0
687.919	0.09
688.102	0.01
688.284	-0.02
688.467	0.01
688.65	-0.03
688.832	-0.01
689.015	-0.01
689.197	-0.08
689.38	0.07
689.563	0.04
689.745	-0.05
689.928	-0.01
690.11	-0.02
690.293	-0.01
690.475	-0.04
690.658	0
690.84	-0.01
691.023	-0.04
691.205	-0.01
691.388	-0.01
691.57	0.04
691.752	0.03
691.935	-0.08
692.117	-0.02
692.3	0.04
692.482	0
692.664	-0.06
692.847	0.01
693.029	0.1
693.211	0.05
693.393	0
693.576	-0.02
693.758	0
693.94	0.03
694.122	-0.05
694.304	-0.03
694.487	-0.01
694.669	0.03
694.851	-0.06
695.033	0.02
695.215	-0.06
695.397	-0.08
695.579	0.02
695.761	-0.06
695.943	-0.14
696.125	0.06
696.308	-0
696.49	-0.1
696.671	0.05
696.853	-0
697.035	0.15
697.217	-0.01
697.399	0
697.581	-0.04
697.763	-0.01
697.945	-0.1
698.127	0.04
698.309	0.01
698.491	-0.01
698.672	-0
698.854	0.05
699.036	0.11
699.218	-0.04
699.399	0.09
699.581	0.02
699.763	-0.01
699.945	-0.06
700.126	-0.06
700.308	0.09
700.49	0.01
700.671	-0.08
700.853	-0.09
701.035	-0.01
701.216	-0
701.398	-0.1
701.579	0
701.761	0.08
701.943	-0.05
702.124	-0.06
702.306	-0.04
702.487	0.06
702.669	-0
702.85	-0.06
703.031	-0.07
703.213	0.1
703.394	0
703.576	-0.08
703.757	0.05
703.938	0.07
704.12	0.13
704.301	-0
704.483	-0.09
704.664	0.04
704.845	0.05
705.026	0.01
705.208	-0.02
705.389	0.04
705.57	-0.01
705.751	0.01
705.933	-0.04
706.114	0.09
706.295	-0
706.476	-0.05
706.657	0.06
706.838	0.04
707.02	0.05
707.201	-0.01
707.382	-0.06
707.563	0.04
707.744	-0.06
707.925	-0.03
708.106	-0.07
708.287	0.02
708.468	0.11
708.649	-0.04
708.83	0.03
709.011	-0.02
709.192	0.01
709.373	-0.08
709.554	-0.08
709.734	0.06
709.915	0.06
710.096	-0.01
710.277	-0.08
710.458	0
710.639	0.05
710.819	-0.14
711	-0
711.181	0.03
711.362	0.04
711.542	-0.01
711.723	-0.01
711.904	0.12
712.085	-0.01
712.265	-0.03
712.446	-0.09
712.627	0.01
712.807	-0.02
712.988	-0.02
713.168	-0.11
713.349	0.04
713.53	-0.11
713.71	-0.08
713.891	-0.06
714.071	-0.04
714.252	0.02
714.432	-0.03
714.613	-0.1
714.793	0.01
714.974	0.04
715.154	0.05
715.334	0.04
715.515	0.05
715.695	-0.06
715.876	-0
716.056	-0.01
716.236	0
716.417	-0.04
716.597	-0.05
716.777	0.15
716.957	-0.04
717.138	-0.01
717.318	0.04
717.498	-0.1
717.678	-0.03
717.859	0.04
718.039	-0.1
718.219	0.01
718.399	0.08
718.579	-0.09
718.759	-0.05
718.939	-0.05
719.12	-0.06
719.3	-0.1
719.48	-0.18
719.66	-0.06
719.84	0.14
720.02	0.01
720.2	-0.07
720.38	0
720.56	0.06
720.74	0.01
720.92	0.03
721.1	0.05
721.279	0.1
721.459	-0.04
721.639	-0.11
721.819	0.04
721.999	-0.03
722.179	0
722.359	-0.08
722.538	-0.04
722.718	-0
722.898	-0.08
723.078	-0.03
723.257	-0.08
723.437	0.01
723.617	-0
723.797	-0.04
723.976	-0.02
724.156	0.07
724.336	0.06
724.515	0.09
724.695	-0.11
724.874	-0.08
725.054	0.06
725.234	-0.12
725.413	0
725.593	-0.02
725.772	0
725.952	-0.04
726.131	-0.07
726.311	-0.01
726.49	-0.02
726.67	-0.12
726.849	0.01
727.028	-0.05
727.208	-0
727.387	-0.03
727.567	-0.11
727.746	-0.04
727.925	-0.07
728.105	-0.01
728.284	-0.02
728.463	-0.1
728.643	0
728.822	-0.12
729.001	-0
729.18	-0.01
729.359	0.03
729.539	-0.01
729.718	-0
729.897	-0.02
730.076	-0.09
730.255	-0.09
730.434	0
730.614	-0.02
730.793	-0.1
730.972	-0.02
731.151	-0.09
731.33	0.06
731.509	-0.01
731.688	-0.06
731.867	-0.08
732.046	-0.14
732.225	0.08
732.404	-0.08
732.583	-0.11
732.762	0.01
732.941	0.06
733.12	-0.03
733.298	-0.08
733.477	0
733.656	-0.04
733.835	-0
734.014	0.06
734.193	0.01
734.371	0.05
734.55	-0.04
734.729	-0.11
734.908	-0.02
735.086	0.04
735.265	0.08
735.444	-0.21
735.623	-0.1
735.801	-0.05
735.98	0.05
736.159	0.08
736.337	0.09
736.516	-0.03
736.694	-0.02
736.873	-0.02
737.052	-0.02
737.23	0.06
737.409	-0.07
737.587	0.04
737.766	-0.19
737.944	-0.14
738.123	0.06
738.301	-0.06
738.479	-0.03
738.658	-0.03
738.836	-0.26
739.015	0.09
739.193	0.08
739.371	-0.07
739.55	0
739.728	-0.17
739.906	0.12
740.085	0.06
740.263	-0.04
740.441	-0.22
740.62	0.12
740.798	0
740.976	-0.13
741.154	-0.08
741.332	0.18
741.511	-0.01
741.689	0.05
741.867	0.03
742.045	-0.09
742.223	0.03
742.401	-0.11
742.579	-0.1
742.757	-0.03
742.935	-0.14
743.114	-0.11
743.292	-0.03
743.47	-0.1
743.648	-0.03
743.826	0.06
744.004	0.08
744.181	0.08
744.359	-0.13
744.537	-0.04
744.715	-0.07
744.893	0.01
745.071	-0.05
745.249	0
745.427	0.04
745.605	0.07
745.782	0.05
745.96	0.05
746.138	-0.05
746.316	-0.02
746.493	-0.03
746.671	-0.04
746.849	-0.04
747.027	0.03
747.204	-0.06
747.382	-0.01
747.56	-0.16
747.737	0.01
747.915	-0.1
748.093	0.01
748.27	-0.1
748.448	-0.17
748.625	0.02
748.803	-0.11
748.98	-0.03
749.158	0.04
749.335	0.1
749.513	-0.06
749.69	-0.06
749.868	-0.11
750.045	-0.01
750.223	-0.05
750.4	-0.31
750.578	0.14
750.755	-0.15
750.932	-0.1
751.11	0.03
751.287	-0.09
751.464	0.07
751.642	-0.05
751.819	0
751.996	-0.06
752.173	-0.1
752.351	-0.27
752.528	0.02
752.705	-0.01
752.882	-0.1
753.06	-0.04
753.237	0.03
753.414	0.07
753.591	0.1
753.768	-0.03
753.945	-0.03
754.122	-0.05
754.299	0.13
754.476	-0.1
754.654	0.03
754.831	0.15
755.008	0.12
755.185	-0.14
755.362	-0.12
755.539	0.03
755.716	-0.06
755.892	-0.07
756.069	-0.07
756.246	0.01
756.423	0.11
756.6	0.15
756.777	-0.01
756.954	-0.01
757.131	-0.04
757.307	-0.16
757.484	-0.04
757.661	0.03
757.838	-0.08
758.015	-0.12
758.191	0.09
758.368	-0.07
758.545	0.12
758.721	0.04
758.898	-0.14
759.075	0.04
759.251	-0.03
759.428	-0.06
759.605	-0.18
759.781	-0.01
759.958	0.02
760.134	0
760.311	-0.02
760.488	0.02
760.664	0.06
760.841	-0.08
761.017	-0.18
761.194	-0.07
761.37	0.15
761.547	-0.06
761.723	-0
761.899	-0.01
762.076	-0.04
762.252	-0.16
762.429	-0.04
762.605	-0
762.781	-0.06
762.958	-0.01
763.134	-0.07
763.31	-0.03
763.486	0.14
763.663	-0.16
763.839	0.04
764.015	-0.23
764.191	-0.03
764.368	-0.06
764.544	0.04
764.72	-0.01
764.896	0.16
765.072	0.05
765.248	-0.09
765.425	-0.13
765.601	-0.08
765.777	0.03
765.953	-0.23
766.129	-0.09
766.305	-0.14
766.481	-0.03
766.657	0.04
766.833	0.17
767.009	-0.06
767.185	-0.15
767.361	-0.06
767.537	-0.17
767.713	0.12
767.889	-0.08
768.065	0.04
768.24	-0.22
768.416	-0.09
768.592	-0.07
768.768	-0.06
768.944	-0.17
769.12	-0.15
769.295	-0.03
769.471	-0.14
769.647	-0.2
769.823	0.09
769.998	-0.01
770.174	-0.13
770.35	0.34
770.525	0.25
770.701	0.1
770.877	0.02
771.052	0.04
771.228	0.08
771.403	0.16
771.579	0.07
771.755	0.21
771.93	-0.12
772.106	-0.16
772.281	-0.12
772.457	-0.08
772.632	-0.01
772.808	-0.09
772.983	-0.14
773.159	-0.2
773.334	0.11
773.509	-0.17
773.685	-0.13
773.86	0.3
774.036	0.06
774.211	-0.04
774.386	-0.09
774.562	-0
774.737	-0.07
774.912	-0.12
775.087	0.02
775.263	0.06
775.438	-0.02
775.613	-0.03
775.788	-0.06
775.964	0.22
776.139	0.22
776.314	-0.2
776.489	0
776.664	-0
776.839	-0.15
777.014	0.29
777.19	0.08
777.365	0.25
777.54	0.2
777.715	-0.13
777.89	-0.06
778.065	-0.1
778.24	-0.12
778.415	0.06
778.59	-0.15
778.765	0.01
778.94	-0
779.115	-0.09
779.289	0.01
779.464	-0.01
779.639	-0.05
779.814	-0.23
779.989	-0.16
780.164	0.13
780.339	0.16
780.513	-0.11
780.688	0.03
780.863	-0.13
781.038	-0.03
781.212	-0.15
781.387	0
781.562	0.16
781.737	-0.03
781.911	0.13
782.086	-0.11
782.261	-0.13
782.435	0.3
782.61	-0.16
782.784	-0.17
782.959	0.16
783.134	-0.08
783.308	-0.17
783.483	-0.1
783.657	0.14
783.832	0.12
784.006	-0.1
784.181	-0.05
784.355	0.28
784.53	-0.47
784.704	-0.18
784.878	0.07
785.053	0.03
785.227	0.08
785.402	0.16
785.576	-0.15
785.75	0.09
785.925	0.06
786.099	-0.06
786.273	0.04
786.448	-0.12
786.622	0.05
786.796	-0.04
786.97	-0.15
787.145	0.46
787.319	-0.42
787.493	-0.35
787.667	-0.26
787.841	-0.01
788.015	0
788.19	-0.01
788.364	0.07
788.538	0.09
788.712	0.36
788.886	-0.08
789.06	0.14
789.234	0.07
789.408	-0.3
789.582	-0.1
789.756	-0.19
789.93	-0.12
790.104	-0.06
790.278	-0.12
790.452	-0.25
790.626	0.09
790.8	-0.11
790.973	0.03
791.147	0.34
791.321	0.27
791.495	0.13
791.669	0.16
791.843	0.31
792.016	-0.03
792.19	0.54
792.364	-0.17
792.538	0.46
792.711	-0
792.885	0.12
793.059	-0.14
793.233	-0.66
793.406	0.36
793.58	-0.05
793.754	0.1
793.927	0.03
794.101	0.15
794.274	-0.02
794.448	0.04
794.622	-0.04
794.795	0.25
794.969	-0.06
795.142	0.22
795.316	0.04
795.489	-0.13
795.663	0.39
795.836	-0.12
796.009	-0.17
796.183	0.08
796.356	0.11
796.53	0.03
796.703	-0.14
796.876	0.36
797.05	-0.13
797.223	0.02
797.396	0.03
797.57	-0.08
797.743	0.37
797.916	0.02
798.09	0.08
798.263	0.14
798.436	0.16
798.609	-0.18
798.782	-0.27
798.956	0.13
799.129	-0.06
799.302	-0.09
799.475	0.11
799.648	-0.04
799.821	-0.45
799.994	0.07
800.167	-0.24
800.34	-0.03
800.514	0.04
800.687	-0.13
800.86	-0.04
801.033	-0.15
801.206	0.16
801.379	-0.58
801.551	0.1
801.724	-0.02
801.897	0.27
802.07	-0.04
802.243	-0.7
802.416	-0.21
802.589	-0.2
802.762	0.04
802.935	0.13
803.107	0.01
803.28	-0.03
803.453	-0.1
803.626	-0.16
803.798	0.13
803.971	-0.12
804.144	-0.1
804.317	-0.07
804.489	0.3
804.662	-0.14
804.835	-0.12
805.007	-0.47
805.18	0.58
805.353	-0.11
805.525	-0.29
805.698	-0.41
805.87	0.19
806.043	0.05
806.215	-0.35
806.388	-0.37
806.56	-0.02
806.733	0.24
806.905	0.3
807.078	-0.37
807.25	0.16
807.423	0.02
807.595	0.05
807.768	0.04
807.94	0.37
808.112	0.35
808.285	0.12
808.457	-0.19
808.629	-0.21
808.802	-0.21
808.974	-0.06
809.146	-0.1
809.318	-0.25
809.491	0.06
809.663	0.53
809.835	-0.1
810.007	0.24
810.18	0.02
810.352	-0.2
810.524	-0.24
810.696	-0.11
810.868	0.27
811.04	-0.09
811.212	-0.26
811.384	0.16
811.556	-0.15
811.728	0.16
811.901	0.43
812.073	-0.12
812.245	0.22
812.417	-0.13
812.589	-0.47
812.76	0.24
812.932	-0.21
813.104	0.36
813.276	-0.44
813.448	0.03
813.62	0.01
813.792	-0.22
813.964	-0.36
814.136	0.28
814.307	-0.07
814.479	-0.16
814.651	0.03
814.823	0.6
814.995	0.11
815.166	0.11
815.338	-0.48
815.51	-0.47
815.681	0.45
815.853	0.29
816.025	-0.18
816.196	-0
816.368	-0.11
816.54	-0.57
816.711	-0.29
816.883	-0.06
817.054	1.01
817.226	-0.05
817.398	0.18
817.569	-0.55
817.741	0.09
817.912	0.29
818.084	0.05
818.255	0.29
818.426	-0.43
818.598	0.02
818.769	-0.38
818.941	0.26
819.112	0.46
819.283	0.41
819.455	-0.21
819.626	-0.18
819.798	-0.02
819.969	-0.09
820.14	-0.38
820.311	-0.15
820.483	-0.24
820.654	0.19
820.825	0.03
820.996	-0.18
821.168	-0.62
821.339	-0.15
821.51	-0.53
821.681	-0.36
821.852	-0.03
822.023	-0.68
822.195	-0.44
822.366	-0.11
822.537	-0.3
822.708	0.09
822.879	-0.11
823.05	0.6
823.221	-0.15
823.392	0.27
823.563	-0.13
823.734	0.48
823.905	0.31
824.076	-0.49
824.247	-0.39
824.418	-0.15
824.589	0.26
824.759	-0.05
824.93	0.17
825.101	-0.71
825.272	0.75
825.443	0.53
825.614	0.18
825.784	-0.64
825.955	0.84
826.126	0.39
826.297	-0.22
826.467	0.33
826.638	1.22
826.809	-0.52
826.98	0.57
827.15	-0.05
827.321	0.07
827.492	0.76
827.662	0.42
827.833	0.37
828.003	-0.16
828.174	-0.51
828.345	-0.65
828.515	0.64
828.686	0.52
828.856	-0.22
829.027	-0.11
829.197	-0.22
829.368	0.33
829.538	-0.21
829.709	-0.53
829.879	-0.17
830.049	0.21
830.22	-0.33
830.39	-0.24
830.56	0.03
830.731	-0.72
830.901	-0.73
831.072	0.14
831.242	0.27
831.412	-0.03
831.582	-0.3
831.753	-0.88
831.923	0.26
832.093	-0.46
832.263	-0.42
832.434	-0.42
832.604	-0.36
832.774	0.18
832.944	-0.22
833.114	-0.48
833.284	0.46
833.454	-0.27
833.624	-0.29
833.795	-0.74
833.965	0.62
834.135	0.54
834.305	-0.94
834.475	-0.69
834.645	-0.42
834.815	-0.74
834.985	-0.53
835.155	-0.96
835.325	0.19
835.494	0.27
835.664	0.03
835.834	-1.31
836.004	0.45
836.174	-0.07
836.344	0.3
836.514	-0.6
836.684	-0.18
836.853	-0.36
837.023	0.02
837.193	-0.23
837.363	0.69
837.532	0.32
837.702	-0.16
837.872	-0.05
838.041	0.43
838.211	1.31
838.381	-0.49
838.55	0.07
838.72	1.58
838.89	0.56
839.059	-0.43
839.229	-0.11
839.398	0.8
839.568	0.34
839.738	-0.53
839.907	0.94
840.077	0.56
840.246	-0.24
840.416	-0.5
840.585	-0.26
840.755	1.46
840.924	0.44
841.093	-0.37
841.263	-0.4
841.432	-0.29
841.602	-0.59
841.771	-0.52
841.94	0
842.11	1.44
842.279	1.23
842.448	-0.72
842.617	-1.29
842.787	0.78
842.956	-0.86
843.125	-0.29
843.294	-0.52
843.464	0.77
843.633	-0.12
843.802	-1.04
843.971	0.02
844.14	0.27
844.309	-0.07
844.479	-0.57
844.648	-0.54
844.817	-0.34
844.986	0.16
845.155	-0.28
845.324	-0.29
845.493	0.62
845.662	-0.83
845.831	-0.5
846	0.07
846.169	0.04
846.338	0.64
846.507	0.37
846.676	0.52
846.844	-0.21
847.013	0.45
847.182	0.81
847.351	-0.03
847.52	-0.5
847.689	0.61
847.858	-0.52
848.026	-0.18
848.195	-0.25
848.364	-0.11
848.533	-0.06
848.701	0.18
848.87	0.06
849.039	0.82
849.207	1.1
849.376	1.35
849.545	0.5
849.713	-0.51
849.882	0.78
850.051	-0.3
850.219	0.21
850.388	0.22
850.556	-1.19
850.725	-0.64
850.893	-0.1
851.062	0.63
851.23	0.69
851.399	-0.29
851.567	-1.79
851.736	-0.25
851.904	-1.18
852.073	0.28
852.241	0.17
852.41	0.28
852.578	-0.17
852.746	-1.35
852.915	0.92
853.083	-1.35
853.251	-1.2
853.42	-0.76
853.588	0
853.756	1.44
853.924	-0.33
854.093	-0.06
854.261	-1.1
854.429	-0.89
854.597	0.09
854.765	-1.76
854.934	0.75
855.102	0.69
855.27	-0.42
855.438	0.8
855.606	0.3
855.774	0.16
855.942	-0.4
856.11	-1.95
856.278	-0.14
856.446	-0.26
856.614	0.6
856.782	-0.7
856.95	-0.35
857.118	-0.28
857.286	0.37
857.454	-0.89
857.622	1.57
857.79	1.1
857.958	-0.24
858.126	-0.42
858.294	-2.84
858.462	-0.3
858.629	-0.61
858.797	-0.55
858.965	-0.81
859.133	-0.16
859.301	-1.31
859.468	0.54
859.636	-0.71
859.804	0.62
859.971	1.32
860.139	-0.98
860.307	0.34
860.474	0.77
860.642	-1.44
860.81	-1.12
860.977	-0.87
861.145	1.23
861.313	-1.83
861.48	-1.04
861.648	0.92
861.815	-0.54
861.983	-1.56
862.15	-1.04
862.318	0.27
862.485	0.72
862.653	-1.36
862.82	-1.85
862.988	1.5
863.155	1.3
863.322	-1.45
863.49	-1.72
863.657	-2.03
863.824	1.8
863.992	1.93
864.159	0.32
864.326	0.54
864.494	-0.83
864.661	0.47
864.828	-1.62
864.996	1.44
865.163	1.75
865.33	-1.38
865.497	-3.07
865.664	-0.42
865.832	-2.17
865.999	-0.54
866.166	0.05
866.333	-0.01
866.5	0.18
866.667	-0.7
866.834	-1.02
867.001	0.55
867.168	-1.65
867.335	-0.84
867.502	-2.22
867.669	-0.24
867.836	2.71
868.003	-0.93
868.17	0.52
868.337	3.05
868.504	1.31
868.671	-1.09
868.838	-1.21
869.005	-0.42
869.172	1.39
869.339	0.25
869.505	-1.13
869.672	0.05
869.839	0.58
870.006	0.19
870.173	-2.62
870.339	-0.17
870.506	2.43
870.673	-0.25
870.84	1.37
871.006	0.51
871.173	-1.18
871.34	0.67
871.506	-0.18
871.673	2.28
871.839	-1.93
872.006	-0.62
872.173	0.22
872.339	-0.59
872.506	1.26
872.672	-2.31
872.839	-3.53
873.005	0.5
873.172	1.97
873.338	1.55
873.505	0.6
873.671	0.02
873.838	0.98
874.004	-2.29
874.171	0.22
874.337	-0.53
874.503	1.22
874.67	-0.05
874.836	0.43
875.002	1.38
875.169	1.77
875.335	0.72
875.501	-2.3
875.668	-0.46
875.834	1.31
876	-0.09
876.166	2.77
876.332	2.25
876.499	2.58
876.665	1.33
876.831	-0.62
876.997	1.54
877.163	-0.31
877.329	-0.99
877.495	1.03
877.662	0.55
877.828	0.97
877.994	-0.92
878.16	-3.68
878.326	-1.09
878.492	1.13
878.658	0.37
878.824	-1.08
878.99	0.54
879.156	1.08
879.322	3.01
879.487	-0.41
879.653	-0.32
879.819	-0.56
879.985	0.22
880.151	0.28
880.317	2
880.483	-0.63
880.648	-0.89
880.814	-2.48
880.98	1.22
881.146	-1.44
881.312	-1.8
881.477	-1.13
881.643	1.07
881.809	2.3
881.974	2.8
882.14	-2.4
882.306	-1.2
882.471	2.83
882.637	0.88
882.803	0.66
882.968	1.01
883.134	2.66
883.299	-0.48
883.465	-0.33
883.63	0.73
883.796	1.33
883.961	0.57
884.127	-0.09
884.292	-3.71
884.458	-1.01
884.623	-1.01
