Data from Apollo_Calib_20240827__AbsoluteIrradiance__123__01-12-02-388.txt Node

Date: Wed Aug 28 01:12:02 BST 2024
User: biology
Spectrometer: FLMT08252
Trigger mode: 0
Integration Time (sec): 5.000000E-1
Scans to average: 5
Electric dark correction enabled: true
Nonlinearity correction enabled: false
Boxcar width: 0
XAxis mode: Wavelengths
Number of Pixels in Spectrum: 3648
>>>>>Begin Spectral Data<<<<<
179.588	-0
179.809	-0
180.03	-0
180.251	-0
180.473	-0
180.694	0
180.915	0
181.136	-0
181.357	0
181.578	-0
181.799	-0
182.02	-0
182.241	0
182.462	-0
182.683	0
182.904	-0
183.125	-0
183.346	0
183.567	0
183.788	-0
184.009	-0
184.23	-0
184.451	0
184.672	-0
184.892	-0
185.113	0
185.334	0
185.555	-0
185.776	-0
185.996	0
186.217	0
186.438	0
186.659	-0
186.879	0
187.1	0
187.321	-0
187.541	-0
187.762	-0
187.983	0
188.203	-0
188.424	-0
188.644	-0
188.865	-0
189.086	-0
189.306	-0
189.527	-0
189.747	-0
189.968	-0
190.188	0
190.409	0
190.629	0
190.849	-0
191.07	-0
191.29	0
191.511	0
191.731	-0
191.951	-0
192.172	-0
192.392	-0
192.612	0
192.833	0
193.053	0
193.273	0
193.493	0
193.714	-0
193.934	0
194.154	0
194.374	0
194.594	-0
194.815	-0
195.035	-0
195.255	0
195.475	-0
195.695	0
195.915	0
196.135	0
196.355	0
196.575	0
196.795	0
197.015	-0
197.235	-0
197.455	-0
197.675	0
197.895	-0
198.115	-0
198.335	0
198.555	-0
198.775	0
198.995	-0
199.214	0
199.434	-0
199.654	-0
199.874	-0
200.094	1.32
200.313	0.27
200.533	-0.66
200.753	-1.03
200.973	1.22
201.192	0.42
201.412	-0.89
201.632	-0.34
201.851	0.86
202.071	-0.9
202.291	-0.6
202.51	-0.64
202.73	0.52
202.95	-0.04
203.169	-0.6
203.389	-0.32
203.608	-0.24
203.828	-0.67
204.047	-0.43
204.267	0.33
204.486	0.18
204.706	-0.3
204.925	-0.29
205.145	-0.34
205.364	0.18
205.583	0.26
205.803	-0.27
206.022	-0.72
206.242	0.17
206.461	0.13
206.68	-0.34
206.9	0.02
207.119	0.46
207.338	0.36
207.557	-0.43
207.777	-0.2
207.996	-0.24
208.215	0.54
208.434	-0.17
208.654	-0.57
208.873	-0.1
209.092	0.41
209.311	-0.38
209.53	-0.17
209.749	-0.06
209.968	-0.23
210.187	-0.27
210.407	-0.27
210.626	-0.54
210.845	0.29
211.064	0.13
211.283	-0.21
211.502	0.19
211.721	-0.03
211.94	-0.24
212.159	0.12
212.377	0.1
212.596	0.36
212.815	-0.04
213.034	-0.03
213.253	-0.1
213.472	0.15
213.691	-0.17
213.91	-0.31
214.128	0.04
214.347	0.13
214.566	-0.51
214.785	-0.35
215.003	0.06
215.222	0.08
215.441	-0.03
215.66	-0.3
215.878	-0.05
216.097	0.21
216.316	-0.44
216.534	-0.19
216.753	-0
216.972	-0.02
217.19	0.01
217.409	-0.35
217.627	-0.11
217.846	-0.08
218.064	0.05
218.283	-0.19
218.501	0.36
218.72	0.18
218.938	-0.22
219.157	-0.01
219.375	0.16
219.594	-0.29
219.812	-0.23
220.031	-0.2
220.249	0.29
220.467	0.13
220.686	-0.23
220.904	-0.09
221.122	-0.22
221.341	0.24
221.559	-0.01
221.777	-0.02
221.995	0.03
222.214	0.15
222.432	-0.25
222.65	-0.01
222.868	0.06
223.086	0.02
223.305	0.03
223.523	-0.07
223.741	0.06
223.959	-0.28
224.177	-0.3
224.395	-0.08
224.613	0.01
224.831	0.07
225.049	-0.27
225.267	-0.13
225.485	0.06
225.703	-0.05
225.921	-0.02
226.139	-0.09
226.357	0.19
226.575	0.04
226.793	-0.09
227.011	0.52
227.229	-0.02
227.447	0.18
227.665	-0.03
227.883	-0.25
228.1	-0.06
228.318	-0.01
228.536	-0.2
228.754	-0.11
228.972	0.01
229.189	0.09
229.407	0
229.625	-0.18
229.843	0.17
230.06	0.09
230.278	-0.19
230.496	-0.06
230.713	-0
230.931	0.15
231.149	-0.12
231.366	-0.17
231.584	-0.04
231.801	0.21
232.019	-0.1
232.236	-0.26
232.454	-0.11
232.671	-0
232.889	-0.01
233.106	-0.14
233.324	-0.08
233.541	-0.03
233.759	-0.05
233.976	-0.06
234.194	0.01
234.411	0.04
234.628	-0.14
234.846	-0.05
235.063	-0.02
235.28	-0.04
235.498	0.03
235.715	-0.11
235.932	0.14
236.149	0.02
236.367	-0.02
236.584	-0.06
236.801	-0.09
237.018	0.01
237.236	0.11
237.453	-0.14
237.67	0.08
237.887	-0.03
238.104	-0.07
238.321	-0.18
238.538	-0.04
238.755	0.04
238.973	-0.19
239.19	-0.05
239.407	0.03
239.624	0.07
239.841	-0.14
240.058	-0.12
240.275	0.05
240.492	-0.05
240.709	-0
240.925	-0.06
241.142	0.05
241.359	-0.06
241.576	-0.05
241.793	-0.02
242.01	-0.07
242.227	0.07
242.444	0.01
242.66	0.06
242.877	0.08
243.094	-0.12
243.311	0.04
243.527	0.02
243.744	0.09
243.961	0.01
244.178	-0.12
244.394	-0.09
244.611	0.01
244.828	0.08
245.044	-0.07
245.261	-0
245.477	0.01
245.694	0.06
245.911	-0.01
246.127	-0.03
246.344	0.16
246.56	0.01
246.777	-0.04
246.993	-0.03
247.21	-0
247.426	0.12
247.643	-0.01
247.859	-0.12
248.076	-0.06
248.292	0.16
248.508	-0.08
248.725	0.03
248.941	0.04
249.157	0.14
249.374	-0.08
249.59	-0.02
249.806	-0.01
250.023	0.05
250.239	0
250.455	-0.03
250.671	0.02
250.888	0.07
251.104	0.02
251.32	-0.03
251.536	0.01
251.752	-0.03
251.969	-0
252.185	0.03
252.401	0.05
252.617	0.07
252.833	-0.07
253.049	0.03
253.265	0.01
253.481	0.05
253.697	-0.05
253.913	-0.09
254.129	-0.06
254.345	-0.04
254.561	-0.04
254.777	0.02
254.993	0.17
255.209	0
255.425	-0.1
255.641	-0.09
255.857	0.01
256.073	0
256.288	-0.1
256.504	-0.09
256.72	-0.01
256.936	0.1
257.152	-0.03
257.367	-0.04
257.583	0.01
257.799	0.1
258.015	-0.03
258.23	-0.03
258.446	0.08
258.662	-0.02
258.877	-0.07
259.093	-0.07
259.309	0.02
259.524	0.04
259.74	0.04
259.955	-0.12
260.171	-0.04
260.387	-0.12
260.602	0.09
260.818	0.06
261.033	-0.07
261.249	-0.07
261.464	-0.01
261.68	-0.12
261.895	0.07
262.11	0.03
262.326	0.02
262.541	-0.1
262.757	0.1
262.972	-0
263.187	0.03
263.403	-0.03
263.618	0
263.833	0.06
264.049	-0.12
264.264	-0
264.479	0.1
264.694	0.07
264.91	-0.08
265.125	0.05
265.34	0.05
265.555	0.12
265.77	0.02
265.986	-0.03
266.201	0.09
266.416	0.1
266.631	0
266.846	-0.03
267.061	0.02
267.276	0.07
267.491	-0.05
267.706	0.04
267.921	0.02
268.136	-0
268.351	0
268.566	-0.07
268.781	0.06
268.996	0.03
269.211	-0.02
269.426	-0.06
269.641	-0.06
269.856	0.09
270.071	-0.06
270.285	-0.07
270.5	0.08
270.715	-0.01
270.93	0.04
271.145	-0.04
271.359	0
271.574	-0.03
271.789	-0.06
272.004	-0.07
272.218	0.04
272.433	0.04
272.648	-0.06
272.862	0.02
273.077	-0.04
273.292	-0.03
273.506	-0.04
273.721	-0.01
273.936	0.02
274.15	0.06
274.365	-0.02
274.579	0.05
274.794	0.06
275.008	0.11
275.223	-0.08
275.437	-0.02
275.652	0.06
275.866	0.08
276.081	-0.01
276.295	0.05
276.509	-0.04
276.724	-0.06
276.938	0.01
277.153	0.03
277.367	0.1
277.581	-0.05
277.796	-0.05
278.01	-0.06
278.224	0.06
278.438	0.15
278.653	-0.06
278.867	0.03
279.081	-0.21
279.295	-0.02
279.51	0.02
279.724	-0.06
279.938	0.05
280.152	-0.02
280.366	-0.07
280.58	0.07
280.794	0.07
281.008	0.03
281.222	0.07
281.437	0.13
281.651	0.02
281.865	0.05
282.079	-0.01
282.293	-0.09
282.507	-0.06
282.721	0.04
282.935	-0.02
283.148	-0.07
283.362	-0.01
283.576	-0.08
283.79	-0.01
284.004	-0.05
284.218	0.06
284.432	-0.04
284.646	-0.02
284.859	-0.01
285.073	-0.01
285.287	-0.03
285.501	-0.01
285.714	0.03
285.928	0
286.142	0.01
286.356	-0.01
286.569	-0.02
286.783	0.07
286.997	0.01
287.21	0.04
287.424	0.02
287.637	-0.02
287.851	0.02
288.065	0.05
288.278	0.02
288.492	-0.01
288.705	0.02
288.919	0.03
289.132	-0.03
289.346	0.04
289.559	-0.07
289.773	-0.06
289.986	0.02
290.2	-0
290.413	0.03
290.626	-0.06
290.84	-0.02
291.053	-0.01
291.267	0.05
291.48	0.04
291.693	0.04
291.906	-0.04
292.12	-0.07
292.333	-0.1
292.546	-0.05
292.76	0.08
292.973	-0.02
293.186	-0.01
293.399	-0.01
293.612	0.07
293.826	-0.02
294.039	-0.04
294.252	-0.02
294.465	0.01
294.678	0.04
294.891	-0
295.104	0
295.317	-0.01
295.53	-0.02
295.743	0.02
295.956	0
296.169	0.03
296.382	0.05
296.595	0
296.808	-0.02
297.021	0.02
297.234	0.05
297.447	-0.01
297.66	0.04
297.873	0.06
298.086	0.04
298.299	-0.03
298.511	-0.04
298.724	0.05
298.937	-0.04
299.15	-0.01
299.363	0.01
299.575	0.04
299.788	0.01
300.001	-0.01
300.213	-0.02
300.426	0.01
300.639	-0.01
300.852	-0.01
301.064	0.06
301.277	0.06
301.489	0.04
301.702	0.02
301.915	-0.01
302.127	0.03
302.34	0.03
302.552	-0.02
302.765	-0.03
302.977	0.03
303.19	-0.01
303.402	-0.01
303.615	-0.01
303.827	-0.01
304.04	0.03
304.252	0.04
304.464	-0.03
304.677	0.09
304.889	0.01
305.102	-0.05
305.314	-0.04
305.526	0.02
305.739	0.03
305.951	-0.05
306.163	-0.02
306.375	0.1
306.588	-0
306.8	-0.01
307.012	-0.03
307.224	0
307.436	0.05
307.649	-0.05
307.861	0.04
308.073	0.04
308.285	-0.03
308.497	-0.03
308.709	-0.05
308.921	0.01
309.133	0.04
309.346	-0.03
309.558	-0
309.77	0.04
309.982	0.07
310.194	0.03
310.406	-0.01
310.617	0.08
310.829	0.02
311.041	-0.03
311.253	-0.05
311.465	-0.02
311.677	0.01
311.889	-0.02
312.101	-0
312.313	0.03
312.524	0.04
312.736	-0.1
312.948	-0.03
313.16	0.08
313.372	0.02
313.583	0.03
313.795	-0.02
314.007	0.01
314.218	0.05
314.43	-0
314.642	-0.08
314.853	-0.02
315.065	0.01
315.277	-0.02
315.488	0.01
315.7	0.08
315.912	-0.01
316.123	0.03
316.335	-0
316.546	0.12
316.758	0
316.969	-0
317.181	-0
317.392	-0.01
317.604	0.05
317.815	-0.03
318.026	-0.04
318.238	-0.05
318.449	-0.01
318.661	-0.04
318.872	-0.04
319.083	-0.04
319.295	0.03
319.506	0
319.717	0.01
319.929	0.04
320.14	0.04
320.351	0.02
320.562	-0.02
320.774	-0.01
320.985	-0.01
321.196	-0.03
321.407	-0.02
321.618	0.08
321.829	0.02
322.041	0.02
322.252	-0.02
322.463	-0.01
322.674	0.05
322.885	-0.02
323.096	-0.02
323.307	-0.04
323.518	0.04
323.729	-0.03
323.94	0.03
324.151	-0.04
324.362	-0.02
324.573	-0
324.784	-0.03
324.995	0.06
325.206	0.04
325.417	-0.02
325.628	0.03
325.838	0.02
326.049	0.04
326.26	0.1
326.471	0.01
326.682	0.03
326.892	0.02
327.103	-0.07
327.314	-0.03
327.525	-0
327.735	-0.03
327.946	-0
328.157	-0.03
328.368	0.02
328.578	-0.04
328.789	0.02
328.999	-0.02
329.21	-0
329.421	0.04
329.631	-0.02
329.842	-0.01
330.052	0.02
330.263	0.05
330.473	0.04
330.684	0.04
330.894	-0.01
331.105	-0.01
331.315	-0.02
331.526	-0.11
331.736	0.11
331.947	-0.01
332.157	0.07
332.367	-0.06
332.578	0.03
332.788	0.07
332.999	0.01
333.209	0.04
333.419	-0.02
333.629	0.02
333.84	0.03
334.05	0.01
334.26	0.04
334.47	-0.03
334.681	0.02
334.891	-0
335.101	0.05
335.311	0.11
335.521	-0
335.732	-0.03
335.942	0.04
336.152	0.06
336.362	0.04
336.572	0.02
336.782	0.04
336.992	0.01
337.202	-0
337.412	-0.05
337.622	0.04
337.832	-0.01
338.042	-0.02
338.252	-0
338.462	-0.05
338.672	0.04
338.882	-0.03
339.092	0
339.302	0.1
339.511	0.03
339.721	-0
339.931	-0.03
340.141	0.02
340.351	0.05
340.561	0.03
340.77	0.01
340.98	-0.03
341.19	0.07
341.4	-0.01
341.609	-0.03
341.819	-0.02
342.029	-0.05
342.238	0.02
342.448	-0
342.658	0.06
342.867	0
343.077	0.05
343.286	0.01
343.496	-0.02
343.706	0.02
343.915	-0.04
344.125	-0
344.334	0.04
344.544	-0.04
344.753	0.02
344.963	-0.01
345.172	-0
345.381	-0.01
345.591	-0.03
345.8	0
346.01	0.04
346.219	0.05
346.428	-0.12
346.638	-0.02
346.847	-0.01
347.056	0.06
347.266	-0.02
347.475	0.05
347.684	0.07
347.893	-0.01
348.103	-0.01
348.312	-0
348.521	0.01
348.73	0.03
348.94	0.02
349.149	0.02
349.358	0.03
349.567	0.01
349.776	-0.03
349.985	0.03
350.194	0.03
350.403	0.06
350.612	-0.03
350.821	0.03
351.03	-0
351.239	-0.04
351.448	-0.02
351.657	0
351.866	0.09
352.075	-0.02
352.284	0.07
352.493	-0
352.702	0.03
352.911	0.04
353.12	0.02
353.329	0.01
353.538	0
353.746	0.01
353.955	-0
354.164	0.03
354.373	0.02
354.582	0.02
354.79	0.02
354.999	0.05
355.208	-0.02
355.416	0.09
355.625	-0.01
355.834	-0.02
356.042	0.03
356.251	0.02
356.46	-0.02
356.668	0.05
356.877	0.07
357.085	0.04
357.294	-0.07
357.503	0.03
357.711	0.02
357.92	0.12
358.128	0.04
358.337	-0.01
358.545	0.04
358.754	0.02
358.962	0.06
359.17	0.02
359.379	0.06
359.587	0.04
359.796	0.01
360.004	0.06
360.212	-0.01
360.421	0.05
360.629	0.03
360.837	0.02
361.046	0.07
361.254	0.14
361.462	0.04
361.67	0.01
361.879	-0.03
362.087	0.08
362.295	0.03
362.503	-0.01
362.711	-0
362.92	-0.01
363.128	-0.03
363.336	-0.02
363.544	0.01
363.752	0.02
363.96	0.03
364.168	0.02
364.376	0.01
364.584	-0.02
364.792	0.05
365	0.05
365.208	0.04
365.416	0.05
365.624	0.07
365.832	0.01
366.04	0.08
366.248	0.02
366.456	0.03
366.664	0.07
366.872	0.01
367.079	0.01
367.287	0.06
367.495	0.08
367.703	0.05
367.911	0.05
368.118	0.02
368.326	0.07
368.534	0.04
368.742	0.12
368.949	0.06
369.157	0.09
369.365	0.16
369.572	0.12
369.78	0.09
369.988	0.19
370.195	0.21
370.403	0.14
370.61	0.18
370.818	0.22
371.026	0.33
371.233	0.25
371.441	0.26
371.648	0.27
371.856	0.35
372.063	0.35
372.271	0.36
372.478	0.4
372.685	0.46
372.893	0.54
373.1	0.51
373.308	0.55
373.515	0.7
373.722	0.68
373.93	0.73
374.137	0.78
374.344	0.82
374.552	0.82
374.759	0.87
374.966	0.86
375.173	0.94
375.381	1.06
375.588	1.04
375.795	1.01
376.002	1.13
376.209	1.19
376.417	1.31
376.624	1.34
376.831	1.39
377.038	1.48
377.245	1.51
377.452	1.65
377.659	1.74
377.866	1.75
378.073	1.94
378.28	1.96
378.487	2.15
378.694	2.12
378.901	2.32
379.108	2.34
379.315	2.47
379.522	2.56
379.729	2.62
379.936	2.73
380.143	2.91
380.35	3.01
380.557	3.11
380.763	3.21
380.97	3.34
381.177	3.44
381.384	3.68
381.591	3.77
381.797	3.73
382.004	3.91
382.211	4.09
382.418	4.07
382.624	4.19
382.831	4.31
383.038	4.45
383.244	4.53
383.451	4.45
383.658	4.41
383.864	4.6
384.071	4.49
384.277	4.63
384.484	4.48
384.69	4.46
384.897	4.39
385.103	4.39
385.31	4.3
385.516	4.22
385.723	4.13
385.929	4.02
386.136	3.82
386.342	3.87
386.549	3.64
386.755	3.7
386.961	3.52
387.168	3.37
387.374	3.23
387.58	3.19
387.787	3
387.993	2.85
388.199	2.77
388.406	2.68
388.612	2.5
388.818	2.48
389.024	2.23
389.231	2.26
389.437	2.24
389.643	2.23
389.849	2.1
390.055	1.94
390.261	1.85
390.467	1.88
390.674	1.83
390.88	1.79
391.086	1.72
391.292	1.64
391.498	1.59
391.704	1.55
391.91	1.49
392.116	1.39
392.322	1.3
392.528	1.41
392.734	1.29
392.94	1.27
393.146	1.21
393.352	1.2
393.557	1.17
393.763	1.1
393.969	1.11
394.175	1.05
394.381	1.02
394.587	0.98
394.792	0.91
394.998	1.01
395.204	0.96
395.41	0.88
395.615	0.85
395.821	0.86
396.027	0.79
396.233	0.81
396.438	0.75
396.644	0.79
396.85	0.71
397.055	0.66
397.261	0.64
397.466	0.71
397.672	0.63
397.878	0.63
398.083	0.57
398.289	0.54
398.494	0.57
398.7	0.47
398.905	0.38
399.111	0.53
399.316	0.35
399.522	0.43
399.727	0.4
399.932	0.38
400.138	0.38
400.343	0.39
400.549	0.38
400.754	0.42
400.959	0.35
401.165	0.33
401.37	0.32
401.575	0.44
401.78	0.34
401.986	0.3
402.191	0.28
402.396	0.28
402.601	0.33
402.807	0.31
403.012	0.27
403.217	0.25
403.422	0.28
403.627	0.29
403.832	0.26
404.037	0.29
404.243	0.26
404.448	0.2
404.653	0.21
404.858	0.23
405.063	0.23
405.268	0.18
405.473	0.14
405.678	0.2
405.883	0.37
406.088	0.27
406.293	0.16
406.498	0.15
406.703	0.25
406.907	0.2
407.112	0.12
407.317	0.21
407.522	0.19
407.727	0.16
407.932	0.17
408.136	0.25
408.341	0.16
408.546	0.17
408.751	0.2
408.956	0.14
409.16	0.24
409.365	0.18
409.57	0.16
409.774	0.15
409.979	0.19
410.184	0.17
410.388	0.07
410.593	0.18
410.798	0.12
411.002	0.15
411.207	0.11
411.411	0.15
411.616	0.03
411.82	0.11
412.025	0.13
412.229	0.1
412.434	0.22
412.638	0.12
412.843	0.11
413.047	0.09
413.252	0.05
413.456	0.12
413.66	0.11
413.865	0.08
414.069	0.16
414.273	0.13
414.478	0.06
414.682	0.07
414.886	0.05
415.091	0.07
415.295	0.02
415.499	0.09
415.703	0.08
415.908	0.08
416.112	-0.01
416.316	0.12
416.52	0.07
416.724	0.03
416.929	0.04
417.133	0.14
417.337	0.07
417.541	0.06
417.745	0.05
417.949	0.09
418.153	0.09
418.357	-0.02
418.561	0.15
418.765	0.06
418.969	0.17
419.173	0.09
419.377	0.02
419.581	0.11
419.785	0.03
419.989	-0.03
420.193	0.01
420.397	0.02
420.601	0.15
420.804	0.08
421.008	0.07
421.212	0.05
421.416	0.13
421.62	0.05
421.823	0.04
422.027	0.15
422.231	0.06
422.435	0.02
422.638	0.05
422.842	0.06
423.046	0.02
423.249	0.08
423.453	0.05
423.657	0.07
423.86	-0
424.064	0.07
424.268	0.09
424.471	0.05
424.675	0.11
424.878	0.15
425.082	0.04
425.285	0.09
425.489	0.05
425.692	0.05
425.896	0.01
426.099	0.09
426.303	0.03
426.506	-0.03
426.71	0.06
426.913	0.1
427.116	0.12
427.32	0.07
427.523	0.06
427.726	0.15
427.93	0.07
428.133	0.1
428.336	0.04
428.54	0.01
428.743	0.06
428.946	0.11
429.149	0.07
429.353	0.08
429.556	0.02
429.759	0.03
429.962	0.07
430.165	0.08
430.368	0
430.571	0.02
430.775	0.09
430.978	0.05
431.181	0.08
431.384	0.09
431.587	0.03
431.79	0.06
431.993	0.05
432.196	0.03
432.399	-0
432.602	0.13
432.805	0.06
433.008	0.03
433.211	-0
433.414	0.07
433.616	0.11
433.819	0.07
434.022	-0.04
434.225	0.11
434.428	0.07
434.631	0.13
434.833	0.07
435.036	0
435.239	0.18
435.442	0.1
435.645	0.03
435.847	0.11
436.05	0.12
436.253	0.1
436.455	0.05
436.658	0.07
436.861	0.16
437.063	0.06
437.266	0.08
437.468	0.11
437.671	0.2
437.874	0.1
438.076	-0.02
438.279	0.02
438.481	0.1
438.684	-0.02
438.886	0.11
439.089	0.03
439.291	0.04
439.494	0.06
439.696	0.04
439.899	0.05
440.101	0.09
440.303	0.01
440.506	0.07
440.708	0.02
440.91	0.11
441.113	0.04
441.315	0.11
441.517	0.02
441.72	0.12
441.922	0.02
442.124	0
442.326	0.12
442.529	0.13
442.731	0.03
442.933	0.18
443.135	0.09
443.337	0.07
443.539	0.03
443.742	0.11
443.944	0.05
444.146	0.05
444.348	0.05
444.55	0.07
444.752	0.11
444.954	0.04
445.156	0.15
445.358	0.1
445.56	0.18
445.762	0.07
445.964	0.1
446.166	0.05
446.368	0.08
446.57	0.15
446.772	0.09
446.974	0.1
447.175	0.11
447.377	0.1
447.579	0.09
447.781	0.01
447.983	0.17
448.184	0.12
448.386	0.12
448.588	0.02
448.79	0.04
448.991	0.07
449.193	0.1
449.395	0.1
449.597	0.12
449.798	0.08
450	0.1
450.202	0.07
450.403	0.12
450.605	0.13
450.806	0.1
451.008	-0
451.21	0.06
451.411	0.07
451.613	0.08
451.814	0.15
452.016	0.11
452.217	0.12
452.419	0.14
452.62	0.08
452.821	0.1
453.023	0.13
453.224	0.11
453.426	0.07
453.627	0.11
453.828	0.08
454.03	0.1
454.231	0.08
454.432	0.06
454.634	0.16
454.835	0.04
455.036	-0.02
455.238	0.12
455.439	0.17
455.64	-0.01
455.841	0.04
456.042	0.14
456.244	0.12
456.445	0.04
456.646	0.05
456.847	0.01
457.048	0.09
457.249	0.1
457.45	0.21
457.651	0.01
457.852	0.11
458.054	0.11
458.255	0.05
458.456	0.06
458.657	0.07
458.858	0.01
459.058	0.06
459.259	0.09
459.46	0.06
459.661	0.04
459.862	0.16
460.063	0.01
460.264	0.09
460.465	-0.01
460.666	0.19
460.866	-0
461.067	0.04
461.268	0.07
461.469	0.05
461.67	0.1
461.87	0.05
462.071	0.01
462.272	-0.03
462.473	0.07
462.673	0.09
462.874	0.02
463.075	0.06
463.275	0
463.476	0.02
463.676	0.06
463.877	0.04
464.078	0.01
464.278	0.06
464.479	0.02
464.679	0.06
464.88	0.05
465.08	0.09
465.281	0
465.481	0.02
465.682	0.06
465.882	0.03
466.083	0.02
466.283	0.02
466.483	0.06
466.684	-0
466.884	0.01
467.085	0.02
467.285	0.08
467.485	0.05
467.686	-0.01
467.886	0
468.086	0.01
468.286	0.04
468.487	0.03
468.687	-0
468.887	0.01
469.087	0.03
469.287	0.02
469.488	-0.03
469.688	0.04
469.888	0.07
470.088	0.06
470.288	0.09
470.488	0.1
470.688	-0.03
470.888	0.01
471.088	0
471.288	0.08
471.488	0.07
471.688	0.06
471.888	0.01
472.088	0.08
472.288	0.06
472.488	0.02
472.688	-0.01
472.888	0.02
473.088	0.02
473.288	0.04
473.488	0.01
473.688	0.1
473.887	0.02
474.087	0.01
474.287	0.04
474.487	0
474.687	0.06
474.886	-0.01
475.086	0.02
475.286	0.03
475.486	-0
475.685	-0.01
475.885	0
476.085	0.02
476.284	0.06
476.484	-0.01
476.684	0.01
476.883	0.08
477.083	0.03
477.282	-0.01
477.482	0.08
477.681	0.06
477.881	0.02
478.08	-0.01
478.28	-0
478.479	0.04
478.679	0.06
478.878	-0.01
479.078	0.01
479.277	0.01
479.477	0.02
479.676	0.05
479.875	0.02
480.075	-0.03
480.274	0.06
480.473	0.03
480.673	0.02
480.872	0.04
481.071	0.01
481.271	0.03
481.47	0.01
481.669	0.01
481.868	-0.03
482.067	-0.01
482.267	0.02
482.466	-0.03
482.665	-0.01
482.864	-0.01
483.063	-0.02
483.262	0.03
483.461	0.06
483.661	0.03
483.86	0.03
484.059	0.03
484.258	0.01
484.457	0.01
484.656	-0
484.855	0.04
485.054	-0.01
485.253	0.01
485.452	-0.01
485.651	-0
485.849	-0
486.048	-0.04
486.247	-0.01
486.446	0.05
486.645	-0.02
486.844	-0.02
487.043	-0
487.241	0.04
487.44	0
487.639	0.01
487.838	0.04
488.037	0.02
488.235	0.06
488.434	0.01
488.633	0
488.831	0.03
489.03	0.05
489.229	0.01
489.427	0.02
489.626	0.03
489.825	0.07
490.023	0.01
490.222	-0
490.42	0.03
490.619	0.02
490.817	0.02
491.016	0.01
491.214	0.04
491.413	-0.01
491.611	0.01
491.81	0.01
492.008	0.02
492.207	0.04
492.405	0
492.604	-0.02
492.802	-0.01
493	0.02
493.199	-0.02
493.397	0.03
493.595	-0.01
493.794	-0.01
493.992	0.06
494.19	0.02
494.388	0.01
494.587	0
494.785	0.01
494.983	-0.01
495.181	0.01
495.379	0.01
495.578	0
495.776	0.02
495.974	0.03
496.172	-0.01
496.37	0
496.568	-0.01
496.766	-0.01
496.964	0.05
497.162	0.02
497.36	-0.02
497.558	0.02
497.756	0
497.954	0
498.152	-0.03
498.35	0.01
498.548	0.04
498.746	0.01
498.944	-0.01
499.142	-0.03
499.34	-0.02
499.538	-0.03
499.736	-0.02
499.933	0.04
500.131	0.04
500.329	-0.01
500.527	0.02
500.725	0.03
500.922	0.02
501.12	0.02
501.318	0
501.516	-0.02
501.713	0.02
501.911	0.01
502.109	-0.02
502.306	0.04
502.504	-0
502.701	0
502.899	0
503.097	0.04
503.294	-0.01
503.492	-0.01
503.689	0.02
503.887	0.03
504.084	0.04
504.282	-0
504.479	-0.02
504.677	0
504.874	-0.01
505.072	0
505.269	0.02
505.466	0.02
505.664	0.04
505.861	-0.02
506.059	-0.02
506.256	0.04
506.453	-0.01
506.651	0.04
506.848	0.02
507.045	0.02
507.242	0.02
507.44	-0.01
507.637	0.02
507.834	0
508.031	0.02
508.229	-0.03
508.426	-0.01
508.623	0.02
508.82	0
509.017	0
509.214	-0.01
509.411	0.01
509.608	-0.02
509.805	0
510.003	0.01
510.2	0.01
510.397	0.03
510.594	-0.01
510.791	-0.01
510.988	0.01
511.184	0.03
511.381	0.02
511.578	-0.01
511.775	0.04
511.972	-0.01
512.169	-0.01
512.366	0.02
512.563	0.01
512.76	-0
512.956	0.02
513.153	0.01
513.35	0.03
513.547	0.01
513.744	-0.02
513.94	-0.01
514.137	0.02
514.334	0.01
514.53	0
514.727	0.01
514.924	0.04
515.12	-0.01
515.317	-0.02
515.514	-0.02
515.71	-0.03
515.907	0.01
516.103	0.01
516.3	0.02
516.497	0.02
516.693	0.04
516.89	0
517.086	-0
517.283	0.04
517.479	0.02
517.676	-0.01
517.872	-0.01
518.068	-0
518.265	0.01
518.461	0
518.658	-0.02
518.854	0.03
519.05	0.01
519.247	-0.02
519.443	0.03
519.639	0.01
519.836	0.01
520.032	0.01
520.228	0
520.424	0.04
520.621	0.01
520.817	0
521.013	0.02
521.209	0.02
521.405	0.03
521.601	0
521.798	-0
521.994	0.04
522.19	-0.02
522.386	-0.02
522.582	0.02
522.778	0
522.974	0
523.17	0
523.366	0.03
523.562	0.03
523.758	0.01
523.954	-0.02
524.15	-0
524.346	0.03
524.542	0.01
524.738	-0.02
524.934	-0.01
525.129	0
525.325	0.03
525.521	-0.01
525.717	0.02
525.913	0
526.109	-0.01
526.304	0.01
526.5	0.02
526.696	0.02
526.892	-0.02
527.087	-0
527.283	-0.01
527.479	-0
527.674	-0.04
527.87	-0.01
528.066	0.01
528.261	0.02
528.457	0.02
528.653	-0.01
528.848	-0.01
529.044	0
529.239	0
529.435	0.03
529.63	0.04
529.826	0.03
530.021	0
530.217	0.03
530.412	-0.02
530.608	-0.01
530.803	0.02
530.999	-0.02
531.194	-0.02
531.389	0.02
531.585	-0.05
531.78	-0.01
531.975	0.01
532.171	0.01
532.366	0.02
532.561	0
532.757	-0.02
532.952	0.01
533.147	-0
533.342	-0.01
533.538	0.01
533.733	0.03
533.928	0.01
534.123	-0.01
534.318	-0.02
534.513	-0.02
534.709	0.01
534.904	-0.04
535.099	-0
535.294	-0
535.489	0.03
535.684	-0.01
535.879	0
536.074	0.01
536.269	-0.01
536.464	0.01
536.659	0
536.854	-0.01
537.049	0.02
537.244	-0
537.439	-0.01
537.634	0.03
537.828	0
538.023	-0.01
538.218	-0.03
538.413	0.01
538.608	-0.02
538.803	0.02
538.997	-0.01
539.192	0.05
539.387	-0
539.582	0.02
539.776	0.01
539.971	0.01
540.166	0.01
540.36	-0.01
540.555	0.02
540.75	0
540.944	0.01
541.139	-0.05
541.334	-0.01
541.528	0.02
541.723	0.02
541.917	0
542.112	-0.05
542.306	-0.01
542.501	-0.01
542.695	0
542.89	-0.02
543.084	0.03
543.279	-0.02
543.473	0
543.668	0.01
543.862	-0
544.056	0.03
544.251	0.01
544.445	0.01
544.64	0
544.834	-0.02
545.028	0.01
545.222	0.02
545.417	0.02
545.611	0.03
545.805	0.01
546	0
546.194	-0.01
546.388	-0.02
546.582	0.01
546.776	0.02
546.97	0.01
547.165	0.03
547.359	0.01
547.553	-0.02
547.747	0.03
547.941	0.01
548.135	0.02
548.329	0.03
548.523	0
548.717	-0.01
548.911	-0.01
549.105	-0
549.299	-0.01
549.493	0.04
549.687	0.02
549.881	0.01
550.075	0.01
550.269	-0.02
550.463	0.02
550.657	0.01
550.85	0
551.044	-0.01
551.238	0
551.432	-0
551.626	-0.04
551.82	-0.01
552.013	-0.03
552.207	0.01
552.401	0.04
552.594	0.02
552.788	0
552.982	0
553.176	-0.01
553.369	0.02
553.563	0.01
553.756	-0.02
553.95	-0.03
554.144	-0.02
554.337	0.03
554.531	0.01
554.724	0.01
554.918	-0
555.111	0.04
555.305	0.01
555.498	0.04
555.692	0.01
555.885	-0.02
556.079	0.01
556.272	-0.01
556.466	0.02
556.659	0
556.852	-0.02
557.046	-0.01
557.239	0.04
557.432	-0.03
557.626	-0.03
557.819	0.02
558.012	0.01
558.206	0.04
558.399	0.02
558.592	0.01
558.785	-0.01
558.979	0.02
559.172	0.01
559.365	0.02
559.558	0
559.751	0
559.944	0.01
560.138	-0.02
560.331	0.01
560.524	-0
560.717	-0.01
560.91	-0.01
561.103	-0.01
561.296	0.01
561.489	0.02
561.682	0.01
561.875	0.04
562.068	0.01
562.261	-0.02
562.454	0.03
562.647	0.02
562.84	0.03
563.032	-0.02
563.225	0.02
563.418	-0.01
563.611	-0.04
563.804	-0
563.997	0
564.19	-0
564.382	0.01
564.575	-0
564.768	0
564.961	-0
565.153	-0.02
565.346	0.03
565.539	0.01
565.731	0.02
565.924	0.02
566.117	0.03
566.309	-0.03
566.502	-0
566.695	-0
566.887	0
567.08	-0.02
567.272	0
567.465	-0.03
567.657	0.02
567.85	0.01
568.042	0.02
568.235	0.03
568.427	0.02
568.62	0.01
568.812	0.04
569.005	0
569.197	-0.03
569.389	0.02
569.582	0.01
569.774	0.02
569.966	-0.03
570.159	-0.04
570.351	0.01
570.543	-0
570.736	-0.01
570.928	-0.01
571.12	0.01
571.312	-0.02
571.505	-0.03
571.697	0.02
571.889	-0.03
572.081	-0.02
572.273	-0
572.465	0.04
572.658	0
572.85	0.02
573.042	0
573.234	-0.03
573.426	0.05
573.618	-0.03
573.81	-0
574.002	0.03
574.194	0.03
574.386	-0.05
574.578	-0.08
574.77	-0
574.962	0.01
575.154	-0.03
575.346	-0
575.538	0.02
575.729	-0.02
575.921	0.01
576.113	-0
576.305	0.05
576.497	0
576.689	-0.02
576.88	-0.02
577.072	0.01
577.264	0.01
577.456	-0.01
577.647	-0.09
577.839	0
578.031	0.04
578.223	-0.02
578.414	-0.05
578.606	0
578.798	-0.01
578.989	-0.03
579.181	-0.03
579.372	0
579.564	-0.01
579.755	0.03
579.947	0.02
580.139	0.02
580.33	-0.04
580.522	-0.02
580.713	-0.07
580.905	-0.02
581.096	0.01
581.287	-0.02
581.479	-0.01
581.67	0.03
581.862	-0
582.053	-0.02
582.244	-0.04
582.436	-0.02
582.627	0.01
582.818	-0.02
583.01	-0.03
583.201	0.04
583.392	0.02
583.583	0.01
583.775	-0.02
583.966	-0.01
584.157	-0.04
584.348	-0.02
584.54	-0.04
584.731	0.01
584.922	-0.01
585.113	-0.01
585.304	0.04
585.495	0.04
585.686	0.02
585.877	0.01
586.068	0.03
586.259	0
586.45	-0.01
586.641	-0.02
586.832	-0.05
587.023	0
587.214	-0
587.405	-0.01
587.596	-0
587.787	0.03
587.978	0.01
588.169	-0.01
588.36	-0.01
588.551	0.03
588.742	-0.02
588.932	0
589.123	0.01
589.314	0.02
589.505	0.01
589.696	0.02
589.886	-0.03
590.077	-0.03
590.268	0
590.458	-0.02
590.649	-0.05
590.84	0
591.03	-0.04
591.221	-0.04
591.412	-0.04
591.602	0.02
591.793	0.03
591.984	-0.02
592.174	0
592.365	0.07
592.555	-0.03
592.746	0.03
592.936	0.03
593.127	0.02
593.317	0.03
593.508	-0.01
593.698	-0.02
593.889	-0.02
594.079	-0.02
594.269	0
594.46	-0
594.65	0.01
594.84	-0.01
595.031	-0.01
595.221	-0.02
595.411	-0.03
595.602	0.02
595.792	-0.01
595.982	-0.02
596.172	0.06
596.363	-0.01
596.553	0.01
596.743	0.02
596.933	0.01
597.123	0.02
597.314	-0.01
597.504	-0.03
597.694	0.03
597.884	0.02
598.074	-0
598.264	-0.01
598.454	0.02
598.644	0.01
598.834	-0.02
599.024	-0.07
599.214	-0.02
599.404	-0
599.594	-0.01
599.784	-0.03
599.974	0.05
600.164	0.03
600.354	-0.03
600.544	-0.04
600.734	0.03
600.924	0.02
601.114	-0.03
601.303	-0
601.493	-0.01
601.683	-0
601.873	0.02
602.063	-0.05
602.252	0.06
602.442	-0.08
602.632	-0.02
602.821	-0.04
603.011	0.02
603.201	0
603.39	-0.05
603.58	-0.02
603.77	-0
603.959	0.06
604.149	-0.01
604.339	-0.03
604.528	0.02
604.718	0.04
604.907	-0.01
605.097	-0.02
605.286	-0.05
605.476	0.03
605.665	-0
605.855	-0.02
606.044	0.03
606.234	0.02
606.423	-0.03
606.612	-0.02
606.802	0
606.991	0.01
607.181	0.02
607.37	-0.05
607.559	-0.01
607.749	-0.03
607.938	-0.01
608.127	0.02
608.316	-0.02
608.506	0.01
608.695	-0.02
608.884	-0.04
609.073	0.02
609.263	0
609.452	0.03
609.641	0
609.83	-0.05
610.019	0.01
610.208	-0.01
610.397	-0
610.586	-0
610.775	-0.01
610.965	-0.03
611.154	-0.01
611.343	-0.01
611.532	-0.03
611.721	-0.01
611.91	-0.01
612.099	0.02
612.287	-0.02
612.476	-0.04
612.665	-0.02
612.854	-0.03
613.043	0.05
613.232	-0.01
613.421	-0.03
613.61	0.03
613.798	-0.01
613.987	0.02
614.176	-0.02
614.365	0.03
614.554	0
614.742	0.02
614.931	-0.01
615.12	0.03
615.309	0
615.497	-0.01
615.686	-0.02
615.875	-0
616.063	-0.02
616.252	-0.03
616.44	0
616.629	-0.01
616.818	0.01
617.006	-0.01
617.195	-0.06
617.383	0
617.572	-0.01
617.76	-0
617.949	-0.04
618.137	0.03
618.326	0.03
618.514	-0
618.703	-0.02
618.891	0.05
619.079	-0.05
619.268	-0
619.456	-0.02
619.644	0.01
619.833	-0.01
620.021	0
620.209	-0.03
620.398	-0
620.586	0.01
620.774	0.06
620.962	-0.02
621.151	0.02
621.339	0
621.527	-0.04
621.715	-0.02
621.903	-0.02
622.092	0.01
622.28	0.01
622.468	0.01
622.656	-0
622.844	-0
623.032	-0.03
623.22	-0.06
623.408	0.03
623.596	-0.01
623.784	0.01
623.972	-0.03
624.16	-0.02
624.348	0.03
624.536	-0.01
624.724	-0.04
624.912	0.03
625.1	0.05
625.288	-0.04
625.476	-0.01
625.664	0.04
625.851	-0.03
626.039	0.02
626.227	0
626.415	-0.02
626.603	-0.04
626.79	-0.02
626.978	-0.03
627.166	0.03
627.354	0
627.541	-0.02
627.729	-0.07
627.917	0.01
628.104	0.02
628.292	0.02
628.48	0.03
628.667	-0
628.855	0.02
629.042	0.03
629.23	-0
629.418	0
629.605	0.01
629.793	-0.04
629.98	-0.02
630.168	-0
630.355	-0.03
630.543	0.03
630.73	-0.04
630.917	0.03
631.105	0.05
631.292	-0.02
631.48	0.02
631.667	0.04
631.854	-0.01
632.042	-0.01
632.229	-0.03
632.416	0.02
632.604	0.01
632.791	-0.04
632.978	0.03
633.165	0.03
633.353	0.03
633.54	0.05
633.727	-0.05
633.914	0.03
634.101	-0.08
634.289	0.05
634.476	-0
634.663	-0.01
634.85	0.01
635.037	-0.03
635.224	-0.06
635.411	0.04
635.598	0.05
635.785	0.01
635.972	-0
636.159	0.03
636.346	-0.01
636.533	0.01
636.72	0
636.907	-0.01
637.094	0.01
637.281	0
637.468	0.01
637.655	-0
637.842	0.03
638.029	-0.02
638.215	0.07
638.402	0.01
638.589	-0.01
638.776	-0.01
638.963	0.02
639.149	0.07
639.336	0.08
639.523	0.01
639.709	0.01
639.896	0
640.083	0.06
640.27	0.04
640.456	0.01
640.643	0.03
640.829	-0.03
641.016	0.02
641.203	-0.02
641.389	0.03
641.576	0.03
641.762	0
641.949	-0.01
642.135	0.04
642.322	0.03
642.508	-0.02
642.695	0.04
642.881	0.01
643.068	0.01
643.254	0.04
643.441	0.05
643.627	-0
643.813	0.02
644	0.07
644.186	0.01
644.372	0.03
644.559	0.08
644.745	0.03
644.931	0.02
645.118	0.03
645.304	0.03
645.49	0.04
645.676	0.03
645.862	0.03
646.049	0.08
646.235	0.05
646.421	0.11
646.607	0.1
646.793	0.02
646.979	0.03
647.165	0.07
647.352	0.07
647.538	0.07
647.724	0.02
647.91	0.06
648.096	0.07
648.282	0.06
648.468	0.05
648.654	0.06
648.84	0.04
649.026	0.04
649.212	0.06
649.397	0.02
649.583	0.02
649.769	0.09
649.955	0.06
650.141	0.09
650.327	0.09
650.513	0.05
650.698	0.09
650.884	0
651.07	0.07
651.256	0.07
651.442	0.07
651.627	0.04
651.813	0.07
651.999	0.04
652.184	0.1
652.37	0.09
652.556	0.05
652.741	0.08
652.927	-0.02
653.113	0.09
653.298	0.08
653.484	0.09
653.669	0.05
653.855	0.08
654.04	0.1
654.226	0.13
654.412	0.07
654.597	0.09
654.782	0.11
654.968	0.13
655.153	0.1
655.339	0.08
655.524	0.03
655.71	0.11
655.895	0.1
656.08	0.09
656.266	0.12
656.451	0.06
656.636	0.08
656.822	0.09
657.007	0.09
657.192	0.07
657.378	0.1
657.563	0.1
657.748	0.17
657.933	0.12
658.118	0.06
658.304	0.12
658.489	0.13
658.674	0.12
658.859	0.08
659.044	0.14
659.229	0.12
659.414	0.09
659.599	0.13
659.785	0.03
659.97	0.12
660.155	0.12
660.34	0.11
660.525	0.11
660.71	0.1
660.895	0.11
661.08	0.08
661.264	0.07
661.449	0.11
661.634	0.1
661.819	0.11
662.004	0.11
662.189	0.01
662.374	0.06
662.559	0.03
662.743	0.02
662.928	0.08
663.113	0.06
663.298	0.03
663.483	0.05
663.667	0.1
663.852	0.03
664.037	0.08
664.221	0.04
664.406	0.08
664.591	0.08
664.775	0.08
664.96	-0.03
665.145	0.05
665.329	0.08
665.514	-0
665.698	0.04
665.883	0.01
666.068	0.09
666.252	0.03
666.437	-0.04
666.621	0.05
666.806	0.03
666.99	0.04
667.174	-0.03
667.359	0.08
667.543	0.03
667.728	-0.01
667.912	-0.06
668.096	0.03
668.281	-0.02
668.465	0.01
668.649	-0
668.834	-0.03
669.018	-0.02
669.202	0.01
669.387	-0.03
669.571	0.05
669.755	-0.03
669.939	0.01
670.124	0.03
670.308	0.04
670.492	0.09
670.676	0.02
670.86	-0.02
671.044	-0.03
671.228	0.06
671.413	-0.01
671.597	0.01
671.781	-0.04
671.965	0.04
672.149	0.01
672.333	0.01
672.517	-0
672.701	0
672.885	-0.02
673.069	-0.06
673.253	0.05
673.437	0
673.621	-0.01
673.804	-0
673.988	0
674.172	-0.02
674.356	-0.04
674.54	0.02
674.724	0.06
674.908	0.01
675.091	0.04
675.275	-0.04
675.459	0.05
675.643	0.05
675.826	-0
676.01	-0.06
676.194	-0.03
676.377	0.02
676.561	0.01
676.745	0.01
676.928	0.02
677.112	0.08
677.296	-0.06
677.479	-0.04
677.663	-0.03
677.846	-0.02
678.03	-0.02
678.213	-0.01
678.397	0.01
678.58	-0.02
678.764	0.04
678.947	-0.02
679.131	-0.04
679.314	0.03
679.498	-0.06
679.681	0.06
679.865	0.01
680.048	0.03
680.231	-0.01
680.415	-0.05
680.598	-0.01
680.781	-0.05
680.965	-0.02
681.148	0.01
681.331	-0.02
681.514	0.01
681.698	-0.04
681.881	0.05
682.064	-0
682.247	-0.02
682.43	-0.05
682.614	0.04
682.797	0.03
682.98	0.03
683.163	-0.02
683.346	0.02
683.529	-0.01
683.712	-0.02
683.895	0.01
684.078	-0.02
684.261	-0.04
684.444	0.01
684.627	0
684.81	-0.02
684.993	0.01
685.176	0.03
685.359	-0.02
685.542	-0.03
685.725	0.01
685.908	0.01
686.091	-0.04
686.274	0.05
686.457	0
686.639	-0.01
686.822	0.07
687.005	0.01
687.188	0.06
687.371	0.03
687.553	0.04
687.736	-0.01
687.919	0.07
688.102	0.09
688.284	-0.06
688.467	0
688.65	-0
688.832	-0.07
689.015	-0.01
689.197	-0.09
689.38	0.07
689.563	0.08
689.745	-0
689.928	-0.04
690.11	-0.01
690.293	0
690.475	-0.1
690.658	0
690.84	-0.05
691.023	0.04
691.205	0.01
691.388	0.01
691.57	0.04
691.752	0.03
691.935	-0.06
692.117	-0.08
692.3	0.02
692.482	-0.03
692.664	-0.04
692.847	0.03
693.029	0.04
693.211	0.05
693.393	0
693.576	-0.03
693.758	-0.03
693.94	-0.02
694.122	-0.04
694.304	0.02
694.487	-0
694.669	0.04
694.851	-0.03
695.033	0.03
695.215	-0.07
695.397	-0.07
695.579	0.02
695.761	-0.01
695.943	-0.09
696.125	0.03
696.308	0.01
696.49	-0.06
696.671	0.07
696.853	-0.03
697.035	0.12
697.217	0.02
697.399	-0.01
697.581	-0.05
697.763	0
697.945	-0.02
698.127	-0.04
698.309	0.01
698.491	-0.04
698.672	-0.01
698.854	0.04
699.036	0.04
699.218	-0.03
699.399	0.05
699.581	0.04
699.763	0.01
699.945	-0.02
700.126	-0.05
700.308	-0.02
700.49	0.05
700.671	-0.09
700.853	-0.05
701.035	0.01
701.216	-0
701.398	-0.04
701.579	-0
701.761	0.07
701.943	-0.04
702.124	-0.01
702.306	-0
702.487	0.09
702.669	0.02
702.85	-0.08
703.031	-0.1
703.213	0.06
703.394	0.04
703.576	-0.02
703.757	0.01
703.938	0.06
704.12	0.08
704.301	0.04
704.483	-0.01
704.664	-0.05
704.845	0.05
705.026	-0.03
705.208	-0.04
705.389	0.04
705.57	0.02
705.751	-0.03
705.933	0.01
706.114	-0
706.295	-0.01
706.476	-0.07
706.657	0.06
706.838	0.01
707.02	0.03
707.201	-0.05
707.382	-0.04
707.563	-0.01
707.744	-0.04
707.925	-0.08
708.106	-0.04
708.287	0.07
708.468	0.06
708.649	-0.01
708.83	0.03
709.011	-0.05
709.192	0.02
709.373	-0.06
709.554	-0.07
709.734	0.05
709.915	0.06
710.096	-0.03
710.277	-0.07
710.458	0.04
710.639	0.07
710.819	-0.08
711	-0.03
711.181	0.07
711.362	0.01
711.542	-0.03
711.723	0.01
711.904	0.04
712.085	0.01
712.265	0.02
712.446	-0.06
712.627	0
712.807	0.03
712.988	0.01
713.168	-0.03
713.349	0.05
713.53	-0.08
713.71	-0.09
713.891	-0.01
714.071	0.03
714.252	-0.04
714.432	-0.03
714.613	-0.08
714.793	-0.03
714.974	0.02
715.154	0.08
715.334	0.08
715.515	0.13
715.695	0.02
715.876	-0.02
716.056	0.01
716.236	-0.03
716.417	0.03
716.597	0.01
716.777	0.2
716.957	0.01
717.138	-0
717.318	0.02
717.498	-0.05
717.678	-0
717.859	0.08
718.039	-0.05
718.219	0.03
718.399	0.07
718.579	-0.1
718.759	-0.02
718.939	0.07
719.12	0.02
719.3	0.07
719.48	-0.13
719.66	-0.09
719.84	0.08
720.02	0.06
720.2	-0.05
720.38	-0.02
720.56	0.11
720.74	-0.05
720.92	0.04
721.1	0.09
721.279	0.14
721.459	0
721.639	-0.05
721.819	-0.01
721.999	0.01
722.179	0.05
722.359	-0.01
722.538	0.11
722.718	0.03
722.898	-0.05
723.078	0.01
723.257	-0.03
723.437	0.07
723.617	0.01
723.797	-0.03
723.976	0.08
724.156	-0
724.336	0.12
724.515	0.14
724.695	-0.05
724.874	0.03
725.054	0.09
725.234	0.02
725.413	0
725.593	0.01
725.772	-0.01
725.952	0.05
726.131	0.12
726.311	0.11
726.49	0.06
726.67	0.03
726.849	0
727.028	0.17
727.208	0.03
727.387	0.06
727.567	0.04
727.746	-0.02
727.925	0.01
728.105	-0.04
728.284	-0.02
728.463	0.07
728.643	-0.02
728.822	-0.03
729.001	0.02
729.18	0.04
729.359	0.13
729.539	0.07
729.718	0.05
729.897	0.02
730.076	0.06
730.255	-0.07
730.434	0.02
730.614	0.15
730.793	0.2
730.972	0.01
731.151	0.11
731.33	0.14
731.509	0.22
731.688	0.06
731.867	0.05
732.046	-0.02
732.225	0.28
732.404	0.02
732.583	0.12
732.762	0.03
732.941	0.16
733.12	0.03
733.298	-0.04
733.477	0.12
733.656	0.03
733.835	-0.08
734.014	0.13
734.193	0.07
734.371	0.19
734.55	0.13
734.729	0.04
734.908	0.06
735.086	0.15
735.265	0.14
735.444	-0.02
735.623	-0.06
735.801	0.03
735.98	0.13
736.159	0.13
736.337	0.13
736.516	0.07
736.694	0.09
736.873	0.12
737.052	0.25
737.23	0.18
737.409	-0.01
737.587	0.18
737.766	-0.09
737.944	0.03
738.123	0.15
738.301	0.11
738.479	0.06
738.658	-0.01
738.836	-0.06
739.015	0.22
739.193	0.09
739.371	-0.09
739.55	-0.06
739.728	0.07
739.906	0.15
740.085	0.22
740.263	-0.03
740.441	-0.06
740.62	0.29
740.798	0.11
740.976	0.01
741.154	0.06
741.332	0.14
741.511	0.03
741.689	0.07
741.867	0.09
742.045	0.1
742.223	0.11
742.401	-0
742.579	-0.11
742.757	0.12
742.935	-0.18
743.114	-0.01
743.292	0.07
743.47	0.04
743.648	0.13
743.826	-0.12
744.004	-0.03
744.181	0.05
744.359	-0.05
744.537	0.01
744.715	-0.06
744.893	0.09
745.071	0.04
745.249	-0.03
745.427	0.02
745.605	0.07
745.782	0.12
745.96	0.11
746.138	-0.03
746.316	0.06
746.493	0.04
746.671	0.08
746.849	0.06
747.027	0.02
747.204	-0.14
747.382	0.06
747.56	-0.11
747.737	0
747.915	0
748.093	0.09
748.27	-0.11
748.448	-0.06
748.625	-0.12
748.803	-0.03
748.98	-0.07
749.158	-0.07
749.335	0.1
749.513	-0.01
749.69	0.01
749.868	0.03
750.045	0.09
750.223	-0.07
750.4	-0.22
750.578	0.11
750.755	0.04
750.932	-0.21
751.11	0.04
751.287	-0.16
751.464	0.11
751.642	-0.15
751.819	0.06
751.996	-0.05
752.173	-0.06
752.351	-0.07
752.528	0.02
752.705	-0.06
752.882	-0.07
753.06	-0.07
753.237	0.02
753.414	0.16
753.591	0.11
753.768	0.07
753.945	-0.05
754.122	-0.1
754.299	0.03
754.476	-0.09
754.654	0.01
754.831	0
755.008	0.03
755.185	-0.02
755.362	-0.08
755.539	0.01
755.716	-0.12
755.892	-0
756.069	0.03
756.246	-0.11
756.423	0
756.6	0.08
756.777	-0.02
756.954	0.05
757.131	-0.03
757.307	-0.11
757.484	-0.06
757.661	0.03
757.838	-0.05
758.015	-0.17
758.191	0.06
758.368	0.06
758.545	0.16
758.721	0.01
758.898	-0.07
759.075	-0.02
759.251	0.11
759.428	0.06
759.605	-0.03
759.781	-0.04
759.958	0.04
760.134	0.08
760.311	-0.06
760.488	0.06
760.664	0.13
760.841	-0.04
761.017	-0.16
761.194	0
761.37	0.05
761.547	-0.01
761.723	-0.08
761.899	0.16
762.076	-0.05
762.252	-0.06
762.429	-0.1
762.605	0.04
762.781	0.04
762.958	0.17
763.134	0
763.31	-0.09
763.486	0.06
763.663	-0.22
763.839	-0.05
764.015	-0.14
764.191	-0.13
764.368	-0.04
764.544	-0.12
764.72	0.03
764.896	0.18
765.072	0.02
765.248	-0.1
765.425	0.07
765.601	0.01
765.777	0.04
765.953	-0.09
766.129	0.03
766.305	-0.08
766.481	0.07
766.657	-0.03
766.833	0.05
767.009	-0.15
767.185	-0.06
767.361	-0.06
767.537	-0.08
767.713	0.06
767.889	-0.07
768.065	0.05
768.24	-0.19
768.416	0.01
768.592	-0.08
768.768	-0.02
768.944	-0.05
769.12	-0.16
769.295	-0.04
769.471	-0.07
769.647	-0.06
769.823	0.22
769.998	-0.16
770.174	0.01
770.35	0.23
770.525	0.29
770.701	0.07
770.877	-0.02
771.052	-0
771.228	-0.05
771.403	-0.02
771.579	0
771.755	0.21
771.93	-0.1
772.106	-0.21
772.281	-0.22
772.457	-0.03
772.632	-0.02
772.808	-0.18
772.983	0.02
773.159	-0.14
773.334	-0.03
773.509	0
773.685	-0.16
773.86	0.29
774.036	0.06
774.211	0
774.386	-0.04
774.562	-0
774.737	-0.12
774.912	-0.17
775.087	0.15
775.263	-0.11
775.438	0.05
775.613	-0.11
775.788	-0.16
775.964	-0.05
776.139	0.38
776.314	-0.18
776.489	-0.04
776.664	0.09
776.839	-0.04
777.014	-0.01
777.19	0.08
777.365	0.12
777.54	0.05
777.715	-0
777.89	-0.07
778.065	0.03
778.24	-0.01
778.415	0.18
778.59	-0.17
778.765	-0.23
778.94	-0.07
779.115	-0.01
779.289	-0.18
779.464	0.1
779.639	-0.14
779.814	-0.22
779.989	-0.11
780.164	0.07
780.339	-0.05
780.513	-0.03
780.688	-0.17
780.863	-0.01
781.038	0.08
781.212	-0.18
781.387	0.01
781.562	0.22
781.737	-0.02
781.911	0.05
782.086	-0.14
782.261	-0.02
782.435	0.22
782.61	-0.08
782.784	0.18
782.959	0.05
783.134	-0.01
783.308	-0.21
783.483	-0.12
783.657	0.23
783.832	0.09
784.006	-0.28
784.181	0.1
784.355	0.13
784.53	-0.02
784.704	-0.13
784.878	0.23
785.053	-0.09
785.227	0.24
785.402	0.59
785.576	-0.08
785.75	-0.05
785.925	0.07
786.099	-0.07
786.273	-0.09
786.448	-0.01
786.622	-0.03
786.796	-0.05
786.97	-0.22
787.145	0.28
787.319	-0.32
787.493	-0.12
787.667	-0.27
787.841	0.14
788.015	0.11
788.19	-0.18
788.364	0.14
788.538	0.11
788.712	0.19
788.886	-0.03
789.06	0.04
789.234	0.05
789.408	-0.09
789.582	-0.11
789.756	-0.02
789.93	-0.09
790.104	0.01
790.278	-0.02
790.452	-0.14
790.626	0.14
790.8	-0.28
790.973	-0.12
791.147	0.2
791.321	0.3
791.495	0.12
791.669	0.1
791.843	0.15
792.016	-0.05
792.19	0.39
792.364	-0.37
792.538	0.46
792.711	0.2
792.885	-0.13
793.059	-0.33
793.233	-0.35
793.406	-0.03
793.58	-0.02
793.754	0.03
793.927	-0.12
794.101	0.38
794.274	-0.03
794.448	0.41
794.622	-0.2
794.795	0.2
794.969	-0.25
795.142	0.24
795.316	-0.12
795.489	-0.07
795.663	0.16
795.836	-0.1
796.009	-0.39
796.183	0.18
796.356	0.17
796.53	-0
796.703	-0.1
796.876	0.49
797.05	0.1
797.223	0.03
797.396	-0.08
797.57	-0.26
797.743	0.3
797.916	-0.06
798.09	0.02
798.263	0.16
798.436	-0.05
798.609	-0.22
798.782	-0.19
798.956	-0
799.129	0.06
799.302	-0.03
799.475	-0.11
799.648	-0.08
799.821	-0.3
799.994	0.16
800.167	-0.26
800.34	0
800.514	-0.03
800.687	-0.27
800.86	-0.15
801.033	-0.22
801.206	-0.11
801.379	-0.28
801.551	0.15
801.724	0.16
801.897	0.14
802.07	-0.21
802.243	-0.27
802.416	-0.25
802.589	0.13
802.762	0.18
802.935	-0.22
803.107	0.14
803.28	0.26
803.453	0.17
803.626	-0.3
803.798	-0.1
803.971	-0.23
804.144	0.04
804.317	0.18
804.489	0.01
804.662	-0.09
804.835	0.19
805.007	-0.38
805.18	0.27
805.353	-0.33
805.525	-0
805.698	-0.19
805.87	0.07
806.043	0.24
806.215	-0.46
806.388	-0.3
806.56	0.05
806.733	0.03
806.905	-0.07
807.078	-0.25
807.25	-0.3
807.423	0.1
807.595	0.01
807.768	-0.04
807.94	0.39
808.112	-0.01
808.285	-0.06
808.457	-0.04
808.629	0.08
808.802	0.01
808.974	-0.2
809.146	-0.27
809.318	-0.36
809.491	0.1
809.663	0.06
809.835	-0.28
810.007	0.22
810.18	-0.03
810.352	-0.36
810.524	-0.16
810.696	-0.1
810.868	0.32
811.04	-0.03
811.212	-0.27
811.384	-0.1
811.556	0.12
811.728	-0.1
811.901	0.39
812.073	-0.34
812.245	0.12
812.417	-0.11
812.589	-0.66
812.76	0.07
812.932	0.3
813.104	0.41
813.276	-0.04
813.448	0.36
813.62	0.16
813.792	0.15
813.964	-0.05
814.136	0.37
814.307	-0.25
814.479	-0.25
814.651	-0.2
814.823	0.7
814.995	-0.18
815.166	0.1
815.338	-0.47
815.51	-0.6
815.681	0.91
815.853	-0.17
816.025	-0.09
816.196	-0.02
816.368	-0.19
816.54	-0.45
816.711	-0.24
816.883	0.38
817.054	0.89
817.226	-0.89
817.398	-0.08
817.569	-0.2
817.741	0.06
817.912	-0.48
818.084	0.19
818.255	-0.03
818.426	-0.14
818.598	0.14
818.769	-0.1
818.941	0.22
819.112	0.4
819.283	0.37
819.455	-0.85
819.626	0.41
819.798	0.09
819.969	0.34
820.14	-0.13
820.311	-0.41
820.483	-0.22
820.654	0.16
820.825	-0.31
820.996	-0.1
821.168	-0.35
821.339	-0.4
821.51	-0.2
821.681	-0.31
821.852	-0.49
822.023	-0.26
822.195	-0.49
822.366	0.15
822.537	-0.33
822.708	0.67
822.879	-0.42
823.05	0.53
823.221	0.31
823.392	0.18
823.563	-0.35
823.734	0.07
823.905	-0.01
824.076	-0.18
824.247	0.09
824.418	-0.28
824.589	0.94
824.759	0.2
824.93	-0.02
825.101	-0.32
825.272	0.04
825.443	0.34
825.614	0.59
825.784	-1
825.955	0.39
826.126	0.37
826.297	0.11
826.467	0.52
826.638	0.33
826.809	-1.05
826.98	0.23
827.15	0.36
827.321	-0.19
827.492	0.7
827.662	-0.54
827.833	1.32
828.003	-0.25
828.174	-0.54
828.345	-0.87
828.515	0.2
828.686	0.43
828.856	-0.38
829.027	0.46
829.197	-0.17
829.368	-0.19
829.538	-0.38
829.709	-0.56
829.879	0.21
830.049	-0.19
830.22	-0.73
830.39	0.34
830.56	0.93
830.731	-0.49
830.901	-0.9
831.072	-0.14
831.242	-0.06
831.412	0.1
831.582	-0.12
831.753	-1.29
831.923	1.04
832.093	0.14
832.263	-0.04
832.434	-0.37
832.604	-0.26
832.774	0.16
832.944	-0.16
833.114	-0.43
833.284	0.26
833.454	-0.06
833.624	-0.27
833.795	0.02
833.965	0.2
834.135	0.23
834.305	-0.78
834.475	-0.8
834.645	-0.2
834.815	-0.64
834.985	-0.78
835.155	-0.9
835.325	0
835.494	0.08
835.664	-0.38
835.834	-0.53
836.004	0.14
836.174	0.01
836.344	0.34
836.514	-1.28
836.684	-0.56
836.853	0.2
837.023	0.32
837.193	-0.84
837.363	0.92
837.532	0.41
837.702	0.03
837.872	-0.88
838.041	0.59
838.211	1.46
838.381	-0.71
838.55	-0.34
838.72	1.4
838.89	0.59
839.059	-0.69
839.229	-0.22
839.398	1.61
839.568	0.43
839.738	0.24
839.907	0.89
840.077	0.34
840.246	-0.05
840.416	-1.67
840.585	-0.44
840.755	1.03
840.924	0.54
841.093	-1.17
841.263	-0.8
841.432	0.36
841.602	-1.07
841.771	-0.94
841.94	0.07
842.11	2.16
842.279	0.68
842.448	-0.63
842.617	-0.8
842.787	0.61
842.956	-0.3
843.125	0.21
843.294	0.36
843.464	0.55
843.633	0.18
843.802	-1.22
843.971	-0.6
844.14	0.69
844.309	0.48
844.479	-0.55
844.648	-1.01
844.817	-0.07
844.986	-0.21
845.155	-0.05
845.324	-0.01
845.493	0.15
845.662	-0.59
845.831	0.44
846	-0.06
846.169	0.18
846.338	0.48
846.507	-0.07
846.676	0.6
846.844	-0.82
847.013	0.41
847.182	0.13
847.351	-0.83
847.52	-0.6
847.689	0.52
847.858	-0.07
848.026	-1.2
848.195	-0.36
848.364	-0.76
848.533	-0.54
848.701	-0.19
848.87	-0.41
849.039	0.16
849.207	0.17
849.376	0.46
849.545	0.65
849.713	-0.34
849.882	-0.93
850.051	-0.85
850.219	0.29
850.388	0.76
850.556	-0.55
850.725	-0.59
850.893	0.78
851.062	0.04
851.23	0.34
851.399	-1.17
851.567	-1.27
851.736	-0.27
851.904	-0.57
852.073	-0.57
852.241	0.7
852.41	-0.7
852.578	-0.6
852.746	-0.94
852.915	0.25
853.083	-0.49
853.251	-0.67
853.42	0.15
853.588	0.5
853.756	0.77
853.924	-0.17
854.093	-0.69
854.261	0.2
854.429	-0.95
854.597	-0.12
854.765	-0.75
854.934	-0.54
855.102	0.85
855.27	-0.06
855.438	0.4
855.606	1.24
855.774	1.31
855.942	-0.8
856.11	-1.72
856.278	0.28
856.446	1.1
856.614	-0.96
856.782	-0.48
856.95	0.47
857.118	0.35
857.286	-0.03
857.454	-1.25
857.622	1.24
857.79	-0.18
857.958	-1.08
858.126	-0.91
858.294	-3.02
858.462	-1.09
858.629	0.42
858.797	-0.9
858.965	-0.25
859.133	0.16
859.301	0.16
859.468	0.71
859.636	0.34
859.804	1.47
859.971	1.28
860.139	-1.29
860.307	0.57
860.474	-0.64
860.642	-1.11
860.81	-0.8
860.977	-1.87
861.145	0.62
861.313	-0.05
861.48	-0.71
861.648	0.84
861.815	-1.15
861.983	-1.36
862.15	-0.3
862.318	0.18
862.485	1.24
862.653	-0.36
862.82	-0.95
862.988	2.31
863.155	0.91
863.322	-1.24
863.49	-1.23
863.657	-0.94
863.824	2.31
863.992	0.19
864.159	-0.13
864.326	2.28
864.494	-1.56
864.661	1.77
864.828	-0.43
864.996	1.28
865.163	1.45
865.33	-1.65
865.497	-1.81
865.664	0.21
865.832	-2.91
865.999	-0.3
866.166	-0.54
866.333	-1.3
866.5	0.61
866.667	0.58
866.834	-0.42
867.001	1.47
867.168	-2.09
867.335	0.26
867.502	-1.68
867.669	1.15
867.836	2.86
868.003	-0.95
868.17	1.66
868.337	1.52
868.504	1.37
868.671	-0.49
868.838	-1.87
869.005	-1.46
869.172	0.95
869.339	-1.37
869.505	0.5
869.672	-0.53
869.839	1.41
870.006	0.77
870.173	-1.8
870.339	1.92
870.506	2.62
870.673	-1.35
870.84	0.94
871.006	-0.21
871.173	0.9
871.34	0.46
871.506	-0.93
871.673	0.32
871.839	-1.82
872.006	0.49
872.173	-0.53
872.339	-2.33
872.506	1.27
872.672	-0.27
872.839	-0.84
873.005	-1.17
873.172	4.48
873.338	1.91
873.505	-0.57
873.671	-0.04
873.838	0.4
874.004	-2.74
874.171	-0.24
874.337	0.48
874.503	0.29
874.67	1.34
874.836	0.12
875.002	0.69
875.169	-0.53
875.335	1.01
875.501	-1.35
875.668	-3.05
875.834	0.05
876	-0.13
876.166	1.43
876.332	-0.6
876.499	2.31
876.665	-1.27
876.831	-1.1
876.997	3.18
877.163	0.27
877.329	-0.77
877.495	1.53
877.662	2.23
877.828	0.45
877.994	-0.32
878.16	-2.09
878.326	-2.24
878.492	0.66
878.658	-0.93
878.824	0.2
878.99	1.56
879.156	-1.16
879.322	1.82
879.487	-1.24
879.653	-0.73
879.819	-0.15
879.985	-1.29
880.151	0.7
880.317	-0.7
880.483	-1.31
880.648	0.69
880.814	-2.65
880.98	0.69
881.146	-2.69
881.312	-0.68
881.477	-0.91
881.643	-0.12
881.809	1.69
881.974	0.43
882.14	-2.18
882.306	-1.1
882.471	2.88
882.637	-1.15
882.803	1.59
882.968	2.35
883.134	1.02
883.299	-1.01
883.465	0.87
883.63	1.26
883.796	0.55
883.961	1.8
884.127	-0.08
884.292	-3.42
884.458	-1.67
884.623	-1.66
