Data from Apollo_Calib_20240827__AbsoluteIrradiance__52__00-01-00-152.txt Node

Date: Wed Aug 28 00:01:00 BST 2024
User: biology
Spectrometer: FLMT08252
Trigger mode: 0
Integration Time (sec): 5.000000E-1
Scans to average: 5
Electric dark correction enabled: true
Nonlinearity correction enabled: false
Boxcar width: 0
XAxis mode: Wavelengths
Number of Pixels in Spectrum: 3648
>>>>>Begin Spectral Data<<<<<
179.588	-0
179.809	-0
180.03	-0
180.251	-0
180.473	-0
180.694	0
180.915	0
181.136	-0
181.357	0
181.578	-0
181.799	0
182.02	-0
182.241	-0
182.462	-0
182.683	0
182.904	-0
183.125	-0
183.346	0
183.567	-0
183.788	-0
184.009	-0
184.23	0
184.451	0
184.672	-0
184.892	-0
185.113	-0
185.334	0
185.555	-0
185.776	-0
185.996	0
186.217	0
186.438	-0
186.659	-0
186.879	-0
187.1	0
187.321	-0
187.541	-0
187.762	0
187.983	-0
188.203	-0
188.424	-0
188.644	-0
188.865	-0
189.086	-0
189.306	-0
189.527	-0
189.747	0
189.968	-0
190.188	-0
190.409	0
190.629	0
190.849	-0
191.07	-0
191.29	0
191.511	0
191.731	-0
191.951	-0
192.172	-0
192.392	-0
192.612	-0
192.833	-0
193.053	0
193.273	0
193.493	-0
193.714	-0
193.934	0
194.154	0
194.374	0
194.594	-0
194.815	0
195.035	-0
195.255	-0
195.475	-0
195.695	0
195.915	0
196.135	-0
196.355	0
196.575	0
196.795	-0
197.015	-0
197.235	-0
197.455	-0
197.675	-0
197.895	-0
198.115	-0
198.335	0
198.555	-0
198.775	0
198.995	-0
199.214	0
199.434	-0
199.654	-0
199.874	-0
200.094	0.51
200.313	-0.28
200.533	-0.86
200.753	-1.02
200.973	0.65
201.192	0.76
201.412	-1.34
201.632	-0.94
201.851	0.43
202.071	-0.76
202.291	-0.49
202.51	-0.87
202.73	0.84
202.95	-0.38
203.169	-0.85
203.389	-0.46
203.608	0.02
203.828	-0.41
204.047	-0.46
204.267	-0.2
204.486	0.35
204.706	0.13
204.925	-0.38
205.145	-0.29
205.364	0.4
205.583	-0.01
205.803	-0.38
206.022	-0.21
206.242	-0.3
206.461	0.01
206.68	-0.44
206.9	0.02
207.119	0.7
207.338	0.37
207.557	-0.5
207.777	-0.31
207.996	-0.29
208.215	0.22
208.434	-0.4
208.654	-0.35
208.873	0.29
209.092	0.48
209.311	-0.17
209.53	-0.31
209.749	-0.12
209.968	-0.56
210.187	-0.1
210.407	-0.35
210.626	-0.15
210.845	0.08
211.064	-0.08
211.283	-0.23
211.502	0.41
211.721	0.06
211.94	-0.07
212.159	0.24
212.377	0
212.596	0.5
212.815	-0.1
213.034	-0.02
213.253	0.18
213.472	0.11
213.691	-0.16
213.91	-0.24
214.128	-0.26
214.347	0.38
214.566	-0.61
214.785	-0.52
215.003	-0.09
215.222	0.3
215.441	-0.08
215.66	-0.35
215.878	0.01
216.097	0.26
216.316	-0.41
216.534	-0.31
216.753	0.09
216.972	0.02
217.19	-0.15
217.409	-0.16
217.627	-0.22
217.846	-0.02
218.064	-0.16
218.283	-0.17
218.501	0.33
218.72	0.19
218.938	-0.28
219.157	-0.1
219.375	0.15
219.594	-0.12
219.812	-0.32
220.031	-0.29
220.249	0.2
220.467	0.25
220.686	-0.04
220.904	-0.27
221.122	-0.05
221.341	0.13
221.559	-0.12
221.777	-0.17
221.995	0.03
222.214	0.29
222.432	-0.29
222.65	0.08
222.868	-0.09
223.086	0.05
223.305	0.03
223.523	0
223.741	0.3
223.959	-0.34
224.177	-0.41
224.395	-0.18
224.613	0.08
224.831	0.17
225.049	-0.23
225.267	-0.06
225.485	0.03
225.703	-0.09
225.921	-0.11
226.139	-0.19
226.357	0.15
226.575	0.04
226.793	-0.14
227.011	0.46
227.229	0.06
227.447	0.14
227.665	-0.13
227.883	-0.23
228.1	-0.04
228.318	-0.03
228.536	-0.32
228.754	-0.12
228.972	0.04
229.189	0.13
229.407	-0.16
229.625	-0.14
229.843	0.02
230.06	0.05
230.278	-0.24
230.496	-0.02
230.713	-0.03
230.931	0.08
231.149	-0.05
231.366	-0.23
231.584	0.01
231.801	0.32
232.019	-0.14
232.236	-0.19
232.454	-0.06
232.671	-0.01
232.889	-0.08
233.106	-0.18
233.324	0
233.541	-0.07
233.759	-0.02
233.976	-0.16
234.194	-0.1
234.411	0.05
234.628	-0.12
234.846	-0.16
235.063	-0.03
235.28	0
235.498	-0.07
235.715	-0.2
235.932	0.2
236.149	-0.03
236.367	-0.09
236.584	-0.03
236.801	-0.06
237.018	0.11
237.236	-0.05
237.453	-0.22
237.67	0.04
237.887	-0.06
238.104	-0.06
238.321	-0.22
238.538	-0.18
238.755	0.1
238.973	-0.18
239.19	-0
239.407	-0.03
239.624	-0.04
239.841	-0.22
240.058	-0.14
240.275	0.05
240.492	-0.05
240.709	-0.07
240.925	-0.09
241.142	0.01
241.359	-0.12
241.576	-0.12
241.793	-0.04
242.01	-0.06
242.227	0.09
242.444	0.06
242.66	0.02
242.877	-0.02
243.094	-0.11
243.311	-0.09
243.527	-0.04
243.744	0.01
243.961	0.02
244.178	-0.19
244.394	-0.06
244.611	0.12
244.828	0.17
245.044	-0.16
245.261	-0.08
245.477	0.04
245.694	-0.04
245.911	-0.14
246.127	-0.05
246.344	0.09
246.56	0.09
246.777	0.03
246.993	-0.09
247.21	-0.02
247.426	0.04
247.643	-0.05
247.859	-0.14
248.076	-0.01
248.292	0.16
248.508	-0.06
248.725	-0.02
248.941	-0.02
249.157	0.09
249.374	-0.02
249.59	-0.05
249.806	-0.04
250.023	-0.03
250.239	-0.14
250.455	-0.06
250.671	-0.03
250.888	0.03
251.104	-0.05
251.32	-0.1
251.536	-0.07
251.752	-0.05
251.969	-0
252.185	-0.05
252.401	0.11
252.617	0.05
252.833	-0.13
253.049	-0.06
253.265	-0.04
253.481	-0.05
253.697	0
253.913	-0.12
254.129	0.04
254.345	0.08
254.561	-0.08
254.777	-0.09
254.993	0.06
255.209	-0.01
255.425	-0.05
255.641	-0.09
255.857	0.08
256.073	0.04
256.288	-0.07
256.504	-0.08
256.72	0.04
256.936	0.16
257.152	-0.06
257.367	-0.11
257.583	0.02
257.799	0.03
258.015	-0.06
258.23	-0.05
258.446	0.14
258.662	-0.03
258.877	-0.08
259.093	-0.12
259.309	0.01
259.524	-0.04
259.74	-0.02
259.955	-0.16
260.171	0.03
260.387	-0.05
260.602	0.05
260.818	0.06
261.033	-0.12
261.249	-0.03
261.464	-0.11
261.68	-0.15
261.895	-0.04
262.11	0.05
262.326	-0.05
262.541	-0.11
262.757	0.09
262.972	-0
263.187	0.01
263.403	-0.05
263.618	0.04
263.833	0.04
264.049	-0.1
264.264	-0.02
264.479	0.04
264.694	0.11
264.91	-0.05
265.125	-0.08
265.34	-0
265.555	0.15
265.77	0.01
265.986	-0.04
266.201	0.04
266.416	0.09
266.631	0.01
266.846	-0.08
267.061	0.04
267.276	0.06
267.491	-0.16
267.706	-0.01
267.921	0.04
268.136	0.07
268.351	-0.02
268.566	-0.08
268.781	0.09
268.996	0.06
269.211	0.02
269.426	-0.08
269.641	0.02
269.856	0.08
270.071	-0.08
270.285	-0.11
270.5	0.07
270.715	0.02
270.93	-0.04
271.145	0.08
271.359	0.03
271.574	-0.08
271.789	0.01
272.004	0.01
272.218	-0.02
272.433	0.01
272.648	-0.12
272.862	0.05
273.077	-0.01
273.292	-0.04
273.506	-0.03
273.721	-0.05
273.936	0.05
274.15	0.07
274.365	-0.1
274.579	0.03
274.794	0.02
275.008	0.09
275.223	-0.1
275.437	0
275.652	0.08
275.866	0.03
276.081	-0.01
276.295	0.05
276.509	-0.04
276.724	-0.07
276.938	0.03
277.153	0.03
277.367	0.05
277.581	-0.05
277.796	-0.1
278.01	-0.04
278.224	-0.02
278.438	0.11
278.653	-0.07
278.867	-0.07
279.081	0.07
279.295	-0.02
279.51	0
279.724	-0.11
279.938	0.05
280.152	-0.03
280.366	-0.07
280.58	-0.06
280.794	0.12
281.008	0.03
281.222	0.03
281.437	0.05
281.651	0
281.865	0.1
282.079	-0.06
282.293	-0.11
282.507	-0.08
282.721	-0.01
282.935	-0.02
283.148	-0.09
283.362	-0.08
283.576	-0.13
283.79	0.04
284.004	-0.05
284.218	0.04
284.432	-0.05
284.646	-0.07
284.859	-0.03
285.073	-0.04
285.287	0.05
285.501	-0.02
285.714	-0.08
285.928	-0
286.142	-0.03
286.356	-0.05
286.569	-0.08
286.783	0.06
286.997	0.05
287.21	0.02
287.424	-0.11
287.637	-0.02
287.851	-0.06
288.065	0
288.278	-0.04
288.492	-0.05
288.705	-0.05
288.919	0.04
289.132	-0.1
289.346	0.09
289.559	-0.06
289.773	-0.08
289.986	-0.06
290.2	-0.02
290.413	0.04
290.626	-0.03
290.84	-0.05
291.053	0.03
291.267	0.04
291.48	0.01
291.693	-0.02
291.906	-0.04
292.12	-0
292.333	-0.04
292.546	-0.03
292.76	0.09
292.973	0.02
293.186	0.05
293.399	-0.03
293.612	0.1
293.826	-0.02
294.039	0.02
294.252	-0.01
294.465	-0
294.678	0.06
294.891	-0.01
295.104	-0.03
295.317	-0.02
295.53	0.02
295.743	-0.03
295.956	-0.01
296.169	0.04
296.382	0.03
296.595	0.04
296.808	-0.06
297.021	0.06
297.234	0.04
297.447	-0.01
297.66	-0.02
297.873	0.05
298.086	0.03
298.299	-0.05
298.511	-0.09
298.724	0.01
298.937	-0.04
299.15	-0.01
299.363	-0.01
299.575	0.03
299.788	0.04
300.001	-0.01
300.213	-0.03
300.426	-0.03
300.639	-0.05
300.852	-0.05
301.064	0.02
301.277	0.01
301.489	0.03
301.702	0.02
301.915	0.03
302.127	-0.02
302.34	0.03
302.552	0.02
302.765	-0.02
302.977	0.06
303.19	-0.01
303.402	-0.06
303.615	-0.06
303.827	-0.06
304.04	-0.02
304.252	-0.02
304.464	-0.01
304.677	0.08
304.889	0.03
305.102	-0.03
305.314	-0.02
305.526	0.03
305.739	-0.02
305.951	-0.04
306.163	-0.06
306.375	0.09
306.588	-0.05
306.8	-0.05
307.012	-0.07
307.224	-0.03
307.436	0.06
307.649	-0.07
307.861	-0.04
308.073	0.01
308.285	-0.03
308.497	-0.05
308.709	-0.05
308.921	0.02
309.133	0.05
309.346	-0.06
309.558	-0.03
309.77	0.02
309.982	0.04
310.194	0.05
310.406	-0.07
310.617	0.05
310.829	-0.01
311.041	0.02
311.253	-0.06
311.465	-0.03
311.677	0.01
311.889	-0.01
312.101	-0.02
312.313	0.07
312.524	0.04
312.736	-0.06
312.948	-0.04
313.16	0.08
313.372	0.04
313.583	0.01
313.795	-0.05
314.007	-0.04
314.218	0.01
314.43	0
314.642	-0.05
314.853	-0.1
315.065	0.02
315.277	-0.03
315.488	-0.02
315.7	0.04
315.912	0.01
316.123	-0.03
316.335	-0.01
316.546	0.06
316.758	0.02
316.969	-0.02
317.181	-0
317.392	-0.02
317.604	0.03
317.815	-0.06
318.026	-0.04
318.238	-0.02
318.449	-0.01
318.661	-0.1
318.872	-0.04
319.083	-0.1
319.295	0.01
319.506	-0.05
319.717	-0.01
319.929	0.03
320.14	-0.03
320.351	0.04
320.562	-0.04
320.774	-0
320.985	-0
321.196	-0.04
321.407	-0.09
321.618	0.02
321.829	-0
322.041	0.02
322.252	-0.05
322.463	0.04
322.674	0.01
322.885	-0.04
323.096	-0.02
323.307	0.01
323.518	-0.01
323.729	0.02
323.94	-0.07
324.151	-0.04
324.362	-0.01
324.573	0.01
324.784	-0.04
324.995	0.03
325.206	0.04
325.417	-0.04
325.628	-0.05
325.838	0.01
326.049	-0.03
326.26	0.01
326.471	-0.03
326.682	0.05
326.892	0
327.103	-0.1
327.314	-0.07
327.525	0.05
327.735	-0.01
327.946	-0.01
328.157	-0.05
328.368	0.05
328.578	-0.04
328.789	-0
328.999	-0.03
329.21	-0.03
329.421	-0
329.631	-0.01
329.842	-0.07
330.052	0.02
330.263	0.01
330.473	0.04
330.684	-0.02
330.894	-0.01
331.105	0
331.315	0.07
331.526	-0.12
331.736	0.09
331.947	0.05
332.157	0.02
332.367	-0.05
332.578	0.03
332.788	0.06
332.999	0.02
333.209	-0.01
333.419	-0.05
333.629	0.03
333.84	0.02
334.05	-0.01
334.26	0.04
334.47	0.05
334.681	0.01
334.891	-0.01
335.101	0.06
335.311	0.05
335.521	-0.02
335.732	-0.03
335.942	0.04
336.152	0.01
336.362	0.02
336.572	-0.03
336.782	0.02
336.992	-0.05
337.202	-0
337.412	-0.04
337.622	0.04
337.832	-0.01
338.042	-0.03
338.252	-0.07
338.462	0.01
338.672	0
338.882	-0.09
339.092	-0.08
339.302	0.08
339.511	0.04
339.721	-0.04
339.931	-0.04
340.141	0.07
340.351	0.05
340.561	-0.01
340.77	0.01
340.98	0
341.19	0.01
341.4	-0.02
341.609	-0.02
341.819	-0.02
342.029	-0.05
342.238	0.04
342.448	-0.06
342.658	0.05
342.867	0.05
343.077	0
343.286	0.01
343.496	-0.01
343.706	0.07
343.915	-0.08
344.125	-0
344.334	0.01
344.544	-0.04
344.753	-0.04
344.963	-0.02
345.172	-0.02
345.381	-0.03
345.591	-0.04
345.8	0.01
346.01	0.03
346.219	0.02
346.428	-0.12
346.638	-0.01
346.847	-0.04
347.056	0.09
347.266	-0.03
347.475	-0.03
347.684	0.03
347.893	0
348.103	0.01
348.312	0
348.521	-0.07
348.73	0.01
348.94	0.05
349.149	-0.04
349.358	-0.01
349.567	-0.03
349.776	-0.06
349.985	-0.05
350.194	-0
350.403	0.02
350.612	-0.06
350.821	-0.03
351.03	-0.02
351.239	-0.04
351.448	-0.02
351.657	-0.04
351.866	0.04
352.075	0.02
352.284	0.02
352.493	-0.03
352.702	0.05
352.911	0
353.12	0.02
353.329	-0.03
353.538	0
353.746	-0.03
353.955	-0.02
354.164	0.01
354.373	-0.01
354.582	0.03
354.79	-0.03
354.999	0.05
355.208	-0
355.416	0.06
355.625	-0.05
355.834	-0.05
356.042	-0.05
356.251	-0.02
356.46	-0.04
356.668	0
356.877	0.09
357.085	0.05
357.294	-0.06
357.503	0.01
357.711	-0
357.92	0.13
358.128	0.01
358.337	-0.05
358.545	0.01
358.754	0.05
358.962	0
359.17	-0.04
359.379	-0.01
359.587	0.03
359.796	-0.02
360.004	0.03
360.212	0.03
360.421	0.05
360.629	-0.04
360.837	-0.03
361.046	0.06
361.254	0.08
361.462	0.04
361.67	-0.05
361.879	-0.03
362.087	0.05
362.295	-0.01
362.503	-0.02
362.711	-0.06
362.92	0.05
363.128	-0.02
363.336	-0.06
363.544	-0.06
363.752	-0.02
363.96	0
364.168	-0.01
364.376	0
364.584	-0
364.792	0.04
365	0.02
365.208	-0.03
365.416	0.02
365.624	0.03
365.832	-0.04
366.04	0.06
366.248	0.03
366.456	-0.01
366.664	-0.02
366.872	-0
367.079	-0.02
367.287	0.02
367.495	0.03
367.703	-0
367.911	-0.01
368.118	0
368.326	-0.04
368.534	-0.03
368.742	0.07
368.949	-0.07
369.157	-0.01
369.365	0.04
369.572	-0.01
369.78	-0.05
369.988	0.02
370.195	-0
370.403	0.01
370.61	-0.05
370.818	-0
371.026	0.06
371.233	-0.04
371.441	-0.03
371.648	-0.04
371.856	-0.01
372.063	0.01
372.271	-0.02
372.478	-0.02
372.685	-0.04
372.893	0.01
373.1	-0.04
373.308	-0.03
373.515	0.04
373.722	0.01
373.93	-0.04
374.137	0
374.344	0.05
374.552	0.05
374.759	-0
374.966	-0.01
375.173	-0.04
375.381	0.05
375.588	-0.04
375.795	-0.08
376.002	-0.02
376.209	-0.03
376.417	-0.03
376.624	-0.02
376.831	0.02
377.038	-0.02
377.245	-0.12
377.452	0.01
377.659	-0.05
377.866	0
378.073	-0.03
378.28	0
378.487	0.06
378.694	0
378.901	0
379.108	-0.04
379.315	0
379.522	0.07
379.729	0.01
379.936	-0.02
380.143	0.03
380.35	-0.01
380.557	-0.07
380.763	-0
380.97	0.02
381.177	-0.02
381.384	0.01
381.591	-0.04
381.797	-0.05
382.004	0.05
382.211	0.04
382.418	-0
382.624	-0
382.831	0.03
383.038	-0.05
383.244	0.01
383.451	-0
383.658	0
383.864	-0.01
384.071	-0.02
384.277	0.02
384.484	-0.05
384.69	0.02
384.897	-0.02
385.103	-0
385.31	-0.04
385.516	-0.04
385.723	-0.06
385.929	0.01
386.136	-0.01
386.342	0.01
386.549	-0.04
386.755	0.05
386.961	0.03
387.168	-0.06
387.374	-0.06
387.58	0.02
387.787	-0.03
387.993	0
388.199	0.01
388.406	-0.05
388.612	-0.02
388.818	-0.06
389.024	-0.03
389.231	0.01
389.437	0.06
389.643	-0.01
389.849	-0.04
390.055	-0.02
390.261	0.01
390.467	0.01
390.674	-0.06
390.88	-0.04
391.086	0.03
391.292	-0.07
391.498	0.02
391.704	0.04
391.91	-0.02
392.116	-0.03
392.322	-0.08
392.528	0.01
392.734	-0.01
392.94	0
393.146	-0.04
393.352	-0.01
393.557	-0.02
393.763	-0.03
393.969	0.04
394.175	-0.01
394.381	0.03
394.587	-0.07
394.792	-0.01
394.998	0.02
395.204	0.03
395.41	-0.06
395.615	0.04
395.821	-0.01
396.027	0.05
396.233	-0.05
396.438	0
396.644	0.06
396.85	0.03
397.055	-0.04
397.261	0.02
397.466	0.12
397.672	-0.03
397.878	0.05
398.083	-0.02
398.289	-0.04
398.494	0.02
398.7	0.04
398.905	-0.14
399.111	0.06
399.316	-0.03
399.522	0.04
399.727	-0.04
399.932	-0.01
400.138	0
400.343	0.05
400.549	0.03
400.754	-0
400.959	0.01
401.165	-0.03
401.37	0.03
401.575	0
401.78	-0.03
401.986	-0.05
402.191	-0.06
402.396	0.01
402.601	0.02
402.807	0.02
403.012	-0.02
403.217	0
403.422	-0.03
403.627	-0.04
403.832	-0.05
404.037	0.01
404.243	0.05
404.448	-0.07
404.653	-0.01
404.858	0.01
405.063	0.02
405.268	-0.09
405.473	-0.05
405.678	-0.03
405.883	0.14
406.088	0.01
406.293	-0.02
406.498	-0.02
406.703	0.05
406.907	-0.04
407.112	-0.08
407.317	-0.05
407.522	0.06
407.727	-0.05
407.932	0.04
408.136	0.07
408.341	0.01
408.546	0.03
408.751	0
408.956	-0.03
409.16	0.02
409.365	-0
409.57	0
409.774	-0.01
409.979	0.03
410.184	-0.01
410.388	-0.06
410.593	0.03
410.798	-0.03
411.002	-0.03
411.207	-0.11
411.411	0.03
411.616	-0.01
411.82	-0.02
412.025	0.03
412.229	-0.03
412.434	0.09
412.638	-0.01
412.843	-0.03
413.047	0.03
413.252	-0.02
413.456	-0.04
413.66	-0
413.865	-0.01
414.069	0.1
414.273	-0.02
414.478	-0.01
414.682	0.01
414.886	-0.03
415.091	-0.06
415.295	-0.08
415.499	-0
415.703	-0.02
415.908	0.02
416.112	-0.11
416.316	0.01
416.52	-0.04
416.724	-0.07
416.929	-0.03
417.133	0.06
417.337	-0.03
417.541	-0.05
417.745	-0.02
417.949	-0.04
418.153	0.02
418.357	-0.1
418.561	0.11
418.765	0.03
418.969	0.09
419.173	0.02
419.377	-0.07
419.581	0.07
419.785	-0.06
419.989	-0.07
420.193	-0.01
420.397	-0
420.601	0.01
420.804	0.03
421.008	-0.06
421.212	0.03
421.416	0.06
421.62	-0.08
421.823	-0.03
422.027	0.07
422.231	0.01
422.435	-0.03
422.638	-0.01
422.842	-0.05
423.046	-0.06
423.249	-0.02
423.453	0.04
423.657	0.03
423.86	-0.04
424.064	-0.03
424.268	0.07
424.471	0.02
424.675	0.05
424.878	0.06
425.082	-0.05
425.285	0.08
425.489	-0.04
425.692	0.05
425.896	-0.06
426.099	0.06
426.303	-0.03
426.506	-0.09
426.71	0.03
426.913	0.06
427.116	0.06
427.32	-0.03
427.523	-0.03
427.726	0.09
427.93	-0.04
428.133	-0
428.336	-0.11
428.54	-0.08
428.743	0.03
428.946	0.01
429.149	-0
429.353	0.03
429.556	-0.02
429.759	-0.01
429.962	-0.04
430.165	0
430.368	0.03
430.571	-0.04
430.775	0.04
430.978	-0
431.181	0.03
431.384	0.01
431.587	-0.04
431.79	-0.02
431.993	-0.06
432.196	-0.06
432.399	-0.01
432.602	0.08
432.805	-0.04
433.008	-0.03
433.211	-0.08
433.414	0.06
433.616	0.08
433.819	-0
434.022	-0.06
434.225	0.05
434.428	-0.01
434.631	0.12
434.833	-0
435.036	-0.05
435.239	0.05
435.442	-0
435.645	-0.02
435.847	0.03
436.05	0.02
436.253	-0.02
436.455	-0.02
436.658	0.01
436.861	0.07
437.063	-0.01
437.266	-0
437.468	0.04
437.671	0.15
437.874	0.01
438.076	-0.05
438.279	-0.07
438.481	0.01
438.684	-0.03
438.886	0.06
439.089	-0.08
439.291	0.03
439.494	0.05
439.696	0
439.899	-0.02
440.101	-0
440.303	-0.05
440.506	0.02
440.708	0.01
440.91	0.09
441.113	-0.02
441.315	0.02
441.517	-0.03
441.72	0.12
441.922	-0.01
442.124	-0.02
442.326	0.09
442.529	0.12
442.731	0.03
442.933	0.13
443.135	-0.02
443.337	0.04
443.539	0.04
443.742	0.02
443.944	0.11
444.146	-0.01
444.348	-0.01
444.55	0
444.752	0.03
444.954	0.01
445.156	0.06
445.358	0.04
445.56	0.11
445.762	0.02
445.964	0.04
446.166	0.01
446.368	0.01
446.57	0.11
446.772	0.06
446.974	0.02
447.175	0.08
447.377	0.02
447.579	0.05
447.781	-0.08
447.983	0.15
448.184	0.04
448.386	0.07
448.588	0.01
448.79	0.01
448.991	0.09
449.193	0.01
449.395	0.04
449.597	0.1
449.798	0.1
450	0.08
450.202	0.04
450.403	0.05
450.605	0.11
450.806	0.06
451.008	0.03
451.21	0.05
451.411	0.06
451.613	0.03
451.814	0.08
452.016	0.12
452.217	0.1
452.419	0.1
452.62	0.07
452.821	0.09
453.023	0.09
453.224	0.07
453.426	0.02
453.627	0.06
453.828	0.08
454.03	0.07
454.231	0.06
454.432	-0.01
454.634	0.1
454.835	-0.02
455.036	-0.06
455.238	0.12
455.439	0.14
455.64	-0.04
455.841	-0.01
456.042	0.11
456.244	0.06
456.445	-0.02
456.646	-0.06
456.847	0.04
457.048	0.05
457.249	0.07
457.45	0.23
457.651	-0.02
457.852	0.04
458.054	0.04
458.255	0.01
458.456	0.04
458.657	0.04
458.858	-0.03
459.058	0.03
459.259	0.05
459.46	0.03
459.661	-0.04
459.862	0.11
460.063	0.03
460.264	0.11
460.465	-0.03
460.666	0.09
460.866	-0
461.067	0.03
461.268	-0.03
461.469	-0.01
461.67	0.04
461.87	0.03
462.071	-0.03
462.272	-0.04
462.473	0.02
462.673	0.04
462.874	-0.03
463.075	0.01
463.275	-0.06
463.476	0.09
463.676	-0
463.877	0.01
464.078	-0.01
464.278	0.04
464.479	-0.04
464.679	0
464.88	-0
465.08	0.09
465.281	-0.04
465.481	-0.01
465.682	0.03
465.882	0.02
466.083	0.01
466.283	-0.06
466.483	-0.01
466.684	-0.04
466.884	-0.01
467.085	-0.01
467.285	0.08
467.485	0.02
467.686	-0
467.886	-0.06
468.086	-0
468.286	0.01
468.487	0.01
468.687	-0.04
468.887	0.01
469.087	0.02
469.287	-0.01
469.488	-0.06
469.688	0.02
469.888	0.04
470.088	0.08
470.288	0.07
470.488	0.07
470.688	-0.02
470.888	-0.03
471.088	-0.02
471.288	0.04
471.488	0.06
471.688	-0
471.888	0.01
472.088	0.08
472.288	0.08
472.488	-0.03
472.688	-0.03
472.888	-0.01
473.088	0.01
473.288	0.02
473.488	0.03
473.688	0.06
473.887	-0.02
474.087	-0.04
474.287	0.01
474.487	-0.03
474.687	0.02
474.886	-0.02
475.086	-0.02
475.286	-0
475.486	-0.01
475.685	-0.04
475.885	-0.04
476.085	-0.03
476.284	0.01
476.484	-0.02
476.684	0.01
476.883	0.06
477.083	0.03
477.282	-0.02
477.482	0.04
477.681	0.04
477.881	0.01
478.08	-0.04
478.28	-0.05
478.479	0.01
478.679	0.1
478.878	-0.04
479.078	-0.04
479.277	-0.03
479.477	-0
479.676	0.06
479.875	0
480.075	-0.04
480.274	0.03
480.473	0
480.673	-0.01
480.872	0.03
481.071	0.01
481.271	0.02
481.47	-0.02
481.669	-0
481.868	-0.04
482.067	-0.03
482.267	-0.02
482.466	-0.03
482.665	-0.03
482.864	-0.02
483.063	-0.05
483.262	0.03
483.461	0.03
483.661	0.01
483.86	-0.01
484.059	-0.01
484.258	0.02
484.457	-0.01
484.656	-0.02
484.855	0.04
485.054	-0.04
485.253	-0.03
485.452	-0.06
485.651	-0
485.849	-0.02
486.048	-0.03
486.247	-0.02
486.446	0.01
486.645	-0.05
486.844	-0.03
487.043	-0.02
487.241	0.02
487.44	-0.04
487.639	-0.01
487.838	-0
488.037	0.01
488.235	0.05
488.434	0.01
488.633	-0.04
488.831	0.01
489.03	0.01
489.229	0.02
489.427	-0
489.626	0.02
489.825	0.03
490.023	-0
490.222	-0.05
490.42	0.02
490.619	0.03
490.817	0.01
491.016	0
491.214	-0
491.413	-0.03
491.611	0.01
491.81	-0
492.008	0.02
492.207	0.03
492.405	-0
492.604	-0.05
492.802	-0.03
493	0.02
493.199	-0.01
493.397	-0
493.595	0
493.794	-0.01
493.992	0.02
494.19	-0.01
494.388	0.01
494.587	-0.01
494.785	-0.01
494.983	-0.05
495.181	0
495.379	-0
495.578	-0.03
495.776	0.02
495.974	0.03
496.172	-0
496.37	-0.03
496.568	-0.04
496.766	-0.03
496.964	0.05
497.162	-0.01
497.36	-0.03
497.558	0.01
497.756	0.01
497.954	-0.02
498.152	-0.02
498.35	0
498.548	-0.02
498.746	-0.02
498.944	-0.03
499.142	-0
499.34	-0.02
499.538	0.01
499.736	-0.04
499.933	0.04
500.131	0.05
500.329	0
500.527	0.03
500.725	0.03
500.922	0.03
501.12	-0
501.318	-0.01
501.516	-0.01
501.713	0.01
501.911	-0.02
502.109	-0.06
502.306	0
502.504	-0.02
502.701	-0.03
502.899	-0
503.097	0.04
503.294	0.01
503.492	-0
503.689	-0.02
503.887	0.01
504.084	0.02
504.282	0.01
504.479	-0.05
504.677	-0
504.874	-0.03
505.072	-0.01
505.269	0.01
505.466	0.03
505.664	0.02
505.861	-0.04
506.059	-0.03
506.256	0
506.453	-0.02
506.651	0.04
506.848	0.04
507.045	0.01
507.242	-0
507.44	-0.03
507.637	-0.02
507.834	-0
508.031	0.03
508.229	-0.02
508.426	-0.01
508.623	0.02
508.82	-0.01
509.017	-0.01
509.214	-0.03
509.411	0.01
509.608	-0.02
509.805	-0.02
510.003	-0.01
510.2	-0.04
510.397	0.02
510.594	-0.03
510.791	-0.04
510.988	-0.02
511.184	0.02
511.381	-0.01
511.578	-0.02
511.775	0.03
511.972	-0.03
512.169	-0.01
512.366	-0.03
512.563	-0.01
512.76	-0.03
512.956	0.03
513.153	-0.03
513.35	0.01
513.547	-0.01
513.744	-0.01
513.94	-0.02
514.137	0
514.334	0.01
514.53	0.01
514.727	-0
514.924	0.04
515.12	-0.01
515.317	-0.02
515.514	-0.02
515.71	-0.05
515.907	-0.03
516.103	-0.01
516.3	0.01
516.497	0.02
516.693	0.04
516.89	-0.01
517.086	-0.02
517.283	0.01
517.479	-0.01
517.676	-0.01
517.872	-0.01
518.068	-0.01
518.265	-0
518.461	-0.02
518.658	-0.02
518.854	0.01
519.05	0
519.247	-0.03
519.443	0.02
519.639	-0.01
519.836	0.02
520.032	-0
520.228	-0
520.424	0.05
520.621	-0.01
520.817	0.01
521.013	0.02
521.209	0.01
521.405	0.03
521.601	0.01
521.798	0
521.994	0.04
522.19	0
522.386	-0.01
522.582	-0.01
522.778	0
522.974	-0.02
523.17	-0
523.366	0.01
523.562	0.03
523.758	0.01
523.954	-0.03
524.15	-0.01
524.346	0.02
524.542	-0.01
524.738	-0.01
524.934	0
525.129	0.01
525.325	-0.01
525.521	-0.01
525.717	0.02
525.913	-0
526.109	-0
526.304	-0
526.5	-0
526.696	0.02
526.892	0
527.087	0.01
527.283	-0.03
527.479	0.01
527.674	-0.02
527.87	0
528.066	-0.02
528.261	0.01
528.457	0
528.653	-0.02
528.848	-0.03
529.044	0
529.239	-0
529.435	0.01
529.63	-0.01
529.826	0.06
530.021	0.01
530.217	-0
530.412	-0.01
530.608	-0.02
530.803	-0.01
530.999	-0.03
531.194	-0.04
531.389	0.01
531.585	-0.04
531.78	-0.01
531.975	0.01
532.171	0.02
532.366	-0
532.561	0.01
532.757	-0.02
532.952	-0.02
533.147	0.03
533.342	-0.01
533.538	-0.02
533.733	0.01
533.928	0
534.123	-0.02
534.318	-0.03
534.513	-0.01
534.709	0.01
534.904	-0.03
535.099	-0.01
535.294	-0.01
535.489	-0.01
535.684	0.01
535.879	-0.03
536.074	0
536.269	-0.01
536.464	0
536.659	0
536.854	-0
537.049	0.02
537.244	-0
537.439	-0.02
537.634	0
537.828	-0.01
538.023	-0.01
538.218	-0.04
538.413	0
538.608	-0.01
538.803	0.01
538.997	-0.04
539.192	0.02
539.387	0
539.582	0.03
539.776	-0
539.971	-0.01
540.166	-0
540.36	-0.03
540.555	-0
540.75	-0.03
540.944	-0.01
541.139	-0.05
541.334	-0.02
541.528	0.01
541.723	0.02
541.917	-0.02
542.112	-0.06
542.306	0.01
542.501	-0.03
542.695	0.01
542.89	-0.03
543.084	0
543.279	-0.01
543.473	-0.02
543.668	0.01
543.862	-0.02
544.056	0.04
544.251	-0
544.445	-0
544.64	-0.02
544.834	-0.01
545.028	-0
545.222	-0
545.417	0.02
545.611	-0.02
545.805	0.01
546	-0.02
546.194	-0.02
546.388	-0.01
546.582	0.01
546.776	0
546.97	-0
547.165	0.01
547.359	0.01
547.553	-0.02
547.747	-0.01
547.941	0.01
548.135	-0.02
548.329	0.02
548.523	0
548.717	0
548.911	-0.02
549.105	-0.01
549.299	0.01
549.493	0.01
549.687	-0
549.881	0.02
550.075	-0.02
550.269	-0.04
550.463	-0
550.657	-0.04
550.85	-0
551.044	-0.03
551.238	-0.01
551.432	-0.02
551.626	-0.05
551.82	0.01
552.013	-0.04
552.207	0.01
552.401	0.01
552.594	0.02
552.788	-0.02
552.982	-0.01
553.176	-0.02
553.369	0.01
553.563	0
553.756	-0.03
553.95	-0.03
554.144	0.01
554.337	0.04
554.531	-0.01
554.724	-0
554.918	-0.02
555.111	0.02
555.305	-0.01
555.498	0.05
555.692	0.01
555.885	-0.02
556.079	0.01
556.272	-0.02
556.466	0.01
556.659	0.01
556.852	-0.02
557.046	-0.02
557.239	0.02
557.432	-0.02
557.626	-0.02
557.819	-0
558.012	0.03
558.206	-0.01
558.399	-0
558.592	-0
558.785	-0.01
558.979	0.02
559.172	-0.01
559.365	-0
559.558	0.03
559.751	-0
559.944	0
560.138	-0.02
560.331	-0.02
560.524	-0.02
560.717	-0.02
560.91	-0.01
561.103	0.01
561.296	-0.02
561.489	0.01
561.682	-0.02
561.875	0.01
562.068	0
562.261	0.01
562.454	0.02
562.647	0.01
562.84	0
563.032	-0.01
563.225	-0.01
563.418	0
563.611	-0.02
563.804	-0.01
563.997	-0.01
564.19	-0.03
564.382	0
564.575	-0.01
564.768	-0.02
564.961	-0.02
565.153	0
565.346	-0
565.539	-0
565.731	0.02
565.924	0.02
566.117	0.03
566.309	-0
566.502	-0.02
566.695	0.01
566.887	-0.02
567.08	-0.04
567.272	-0.01
567.465	-0.03
567.657	-0
567.85	-0.01
568.042	0.01
568.235	0.01
568.427	-0.01
568.62	0
568.812	0
569.005	0
569.197	-0.02
569.389	0.02
569.582	0
569.774	-0
569.966	-0.04
570.159	-0.03
570.351	-0.01
570.543	-0.02
570.736	0.01
570.928	-0.04
571.12	0.01
571.312	-0.02
571.505	-0.06
571.697	0.03
571.889	-0.05
572.081	-0.01
572.273	-0.03
572.465	0.04
572.658	-0.01
572.85	0.01
573.042	-0.02
573.234	-0.01
573.426	0.02
573.618	-0.05
573.81	-0
574.002	0.02
574.194	0.03
574.386	-0.03
574.578	-0.08
574.77	-0.04
574.962	-0.01
575.154	-0.05
575.346	-0.02
575.538	0.01
575.729	-0.03
575.921	-0.02
576.113	-0.01
576.305	0.02
576.497	-0.03
576.689	0
576.88	-0.03
577.072	0.04
577.264	-0
577.456	-0.01
577.647	-0.06
577.839	-0.02
578.031	0.02
578.223	-0.04
578.414	-0.04
578.606	-0
578.798	0.02
578.989	-0.02
579.181	-0.01
579.372	-0.01
579.564	-0.03
579.755	0.02
579.947	-0.01
580.139	0.01
580.33	-0.03
580.522	-0.02
580.713	-0.08
580.905	-0.02
581.096	0.01
581.287	-0.01
581.479	-0
581.67	0.02
581.862	-0.01
582.053	-0.03
582.244	-0.07
582.436	-0.01
582.627	0.03
582.818	-0.03
583.01	-0.04
583.201	0.01
583.392	0.02
583.583	-0.01
583.775	-0.04
583.966	-0.03
584.157	-0.01
584.348	-0.02
584.54	-0.02
584.731	0.01
584.922	-0.01
585.113	-0.03
585.304	0.02
585.495	0.02
585.686	0
585.877	0
586.068	0
586.259	-0
586.45	-0.02
586.641	-0.04
586.832	-0.05
587.023	0
587.214	-0
587.405	-0.02
587.596	-0.04
587.787	0.04
587.978	0.02
588.169	-0.03
588.36	-0.03
588.551	-0.02
588.742	-0
588.932	-0.01
589.123	-0.01
589.314	0.01
589.505	0.01
589.696	0.02
589.886	-0.05
590.077	-0.05
590.268	0.02
590.458	-0.03
590.649	-0.06
590.84	0.03
591.03	-0.05
591.221	-0.05
591.412	-0.04
591.602	0.01
591.793	0.01
591.984	-0.07
592.174	0.01
592.365	0.04
592.555	-0.02
592.746	0.01
592.936	-0.02
593.127	0.04
593.317	0.03
593.508	-0.05
593.698	-0.04
593.889	-0.02
594.079	-0.01
594.269	-0.05
594.46	-0.05
594.65	-0.03
594.84	0
595.031	-0.06
595.221	-0.03
595.411	-0.04
595.602	0.02
595.792	-0.01
595.982	-0.02
596.172	0.03
596.363	-0
596.553	-0.02
596.743	-0.03
596.933	0.01
597.123	0.03
597.314	-0.04
597.504	-0.03
597.694	0.01
597.884	-0
598.074	-0.02
598.264	-0.03
598.454	0.02
598.644	-0.03
598.834	0
599.024	-0.02
599.214	-0
599.404	0
599.594	-0.03
599.784	-0.03
599.974	0.05
600.164	0.01
600.354	-0.04
600.544	-0.06
600.734	0
600.924	0.03
601.114	-0.03
601.303	-0.01
601.493	-0
601.683	-0.02
601.873	0.01
602.063	-0.07
602.252	0.02
602.442	-0.08
602.632	-0.02
602.821	-0.04
603.011	-0
603.201	-0.01
603.39	-0.03
603.58	-0.04
603.77	-0.01
603.959	0.01
604.149	-0.01
604.339	-0.04
604.528	0.02
604.718	0.02
604.907	-0.02
605.097	-0.02
605.286	0.01
605.476	0.02
605.665	-0.01
605.855	-0.03
606.044	0.02
606.234	0.02
606.423	-0.01
606.612	-0.06
606.802	0
606.991	0.02
607.181	0.02
607.37	-0.07
607.559	-0
607.749	-0.05
607.938	0.01
608.127	-0.03
608.316	-0.03
608.506	-0.01
608.695	0
608.884	-0.02
609.073	-0.02
609.263	-0.02
609.452	0.01
609.641	-0.01
609.83	-0.03
610.019	-0.02
610.208	-0.04
610.397	-0.02
610.586	0.01
610.775	-0.04
610.965	-0.06
611.154	-0.02
611.343	0
611.532	-0.03
611.721	-0.02
611.91	-0.03
612.099	0.04
612.287	-0.02
612.476	-0.05
612.665	-0.01
612.854	-0.01
613.043	0.03
613.232	-0.02
613.421	-0.08
613.61	-0.01
613.798	-0.05
613.987	0.03
614.176	0.01
614.365	0.01
614.554	-0.01
614.742	0.04
614.931	-0.03
615.12	0.02
615.309	-0.01
615.497	0.03
615.686	-0.03
615.875	-0.03
616.063	-0.01
616.252	-0.02
616.44	-0.04
616.629	0.03
616.818	0.03
617.006	-0.02
617.195	-0.02
617.383	0.04
617.572	-0.01
617.76	-0.01
617.949	-0.03
618.137	-0.02
618.326	0.08
618.514	-0.03
618.703	-0.03
618.891	0.02
619.079	-0.07
619.268	-0
619.456	-0.03
619.644	0.04
619.833	-0.01
620.021	-0.05
620.209	-0.05
620.398	0.01
620.586	-0.01
620.774	0.03
620.962	-0.02
621.151	0.08
621.339	-0
621.527	-0.05
621.715	-0.07
621.903	-0.03
622.092	-0.05
622.28	0.01
622.468	-0.01
622.656	-0.03
622.844	0.03
623.032	-0.03
623.22	-0.06
623.408	0.01
623.596	0
623.784	-0.01
623.972	-0.04
624.16	-0.01
624.348	0.02
624.536	-0.03
624.724	-0.02
624.912	0.03
625.1	0.02
625.288	-0.03
625.476	-0.04
625.664	0.01
625.851	-0.05
626.039	-0.01
626.227	0.01
626.415	-0.03
626.603	-0.07
626.79	0
626.978	-0.03
627.166	0
627.354	0.02
627.541	-0.02
627.729	-0.08
627.917	0.03
628.104	0.06
628.292	0.01
628.48	0
628.667	0.02
628.855	-0
629.042	0.01
629.23	-0.05
629.418	-0.01
629.605	-0.01
629.793	-0.05
629.98	-0.03
630.168	0.02
630.355	0.03
630.543	0.02
630.73	-0.02
630.917	0.05
631.105	0.08
631.292	-0.05
631.48	-0.02
631.667	0.08
631.854	-0.01
632.042	-0.03
632.229	-0.02
632.416	0
632.604	-0.03
632.791	-0.02
632.978	0.05
633.165	0.05
633.353	0.07
633.54	0.1
633.727	-0.06
633.914	-0.04
634.101	-0.08
634.289	0.04
634.476	-0.05
634.663	-0.05
634.85	0.03
635.037	-0.06
635.224	-0.04
635.411	0.05
635.598	0.03
635.785	-0.02
635.972	0
636.159	0.07
636.346	0.01
636.533	0
636.72	-0.01
636.907	-0
637.094	0.01
637.281	0
637.468	0.05
637.655	0.04
637.842	0
638.029	-0.02
638.215	0.04
638.402	0.01
638.589	0
638.776	-0
638.963	-0.01
639.149	0.05
639.336	0.06
639.523	0
639.709	0
639.896	0.02
640.083	0.06
640.27	0.02
640.456	0.03
640.643	0.03
640.829	-0.06
641.016	-0.01
641.203	-0.03
641.389	0.03
641.576	0.03
641.762	0.02
641.949	-0.01
642.135	0.01
642.322	0.02
642.508	-0.05
642.695	0.04
642.881	-0
643.068	0.02
643.254	0.02
643.441	0.08
643.627	0.05
643.813	0.01
644	0.07
644.186	0.02
644.372	0.06
644.559	0.03
644.745	0.01
644.931	0.02
645.118	0.05
645.304	0.05
645.49	-0.01
645.676	0.02
645.862	0.06
646.049	0.08
646.235	-0.01
646.421	0.11
646.607	0.1
646.793	0.01
646.979	-0.02
647.165	0.06
647.352	0.04
647.538	0.07
647.724	0.05
647.91	0.02
648.096	0.05
648.282	0.1
648.468	0.02
648.654	0.04
648.84	0.05
649.026	0.05
649.212	0.04
649.397	0.01
649.583	0.04
649.769	0.04
649.955	0.07
650.141	0.05
650.327	0.1
650.513	-0.01
650.698	0.08
650.884	-0.03
651.07	0.04
651.256	0.07
651.442	0.03
651.627	0.02
651.813	0.03
651.999	0.04
652.184	0.08
652.37	0.01
652.556	0.07
652.741	0.12
652.927	0
653.113	0.05
653.298	0.06
653.484	0.07
653.669	0.02
653.855	0.09
654.04	0.13
654.226	0.08
654.412	0.04
654.597	0.04
654.782	0.06
654.968	0.12
655.153	0.1
655.339	0.04
655.524	0.03
655.71	0.12
655.895	0.08
656.08	0.1
656.266	0.14
656.451	0.09
656.636	0.04
656.822	0.09
657.007	0.05
657.192	0.1
657.378	0.02
657.563	0.1
657.748	0.12
657.933	0.11
658.118	0.08
658.304	0.06
658.489	0.1
658.674	0.09
658.859	0.04
659.044	0.12
659.229	0.12
659.414	0.07
659.599	0.06
659.785	0.03
659.97	0.09
660.155	0.14
660.34	0.07
660.525	0.08
660.71	0.08
660.895	0.14
661.08	0.1
661.264	0.06
661.449	0.13
661.634	0.13
661.819	0.08
662.004	0.1
662.189	0.01
662.374	0.07
662.559	0.08
662.743	-0.02
662.928	0.06
663.113	0.05
663.298	0.01
663.483	0.04
663.667	0.08
663.852	-0.02
664.037	0.1
664.221	0.03
664.406	0.08
664.591	0.09
664.775	0.06
664.96	0.08
665.145	0.06
665.329	0.09
665.514	-0.01
665.698	0.01
665.883	-0
666.068	0.08
666.252	0.04
666.437	0.02
666.621	0.05
666.806	0.07
666.99	0.01
667.174	-0.03
667.359	0.06
667.543	0.04
667.728	-0
667.912	-0.05
668.096	0.08
668.281	0.03
668.465	0.02
668.649	-0.01
668.834	-0.05
669.018	-0.02
669.202	-0.02
669.387	0
669.571	0.05
669.755	-0.02
669.939	0.06
670.124	-0.02
670.308	0.04
670.492	0.01
670.676	-0.01
670.86	-0.02
671.044	-0.03
671.228	0.05
671.413	-0.03
671.597	-0.02
671.781	-0.06
671.965	0.05
672.149	-0.01
672.333	-0.03
672.517	-0.04
672.701	0.03
672.885	0.01
673.069	-0.01
673.253	0.08
673.437	-0.03
673.621	-0.04
673.804	-0.03
673.988	-0.03
674.172	0
674.356	-0.08
674.54	-0.03
674.724	0.1
674.908	-0.03
675.091	0.02
675.275	-0.03
675.459	0.03
675.643	-0.03
675.826	0.01
676.01	0.01
676.194	-0.06
676.377	0.05
676.561	0.04
676.745	-0.01
676.928	0.01
677.112	0.03
677.296	-0.05
677.479	-0.03
677.663	0.02
677.846	0.03
678.03	-0.03
678.213	-0.05
678.397	0.03
678.58	-0.05
678.764	-0.05
678.947	-0.01
679.131	-0.04
679.314	-0.01
679.498	-0.03
679.681	-0.03
679.865	-0.01
680.048	-0.05
680.231	-0.04
680.415	-0.02
680.598	-0.01
680.781	0
680.965	-0.02
681.148	0.03
681.331	-0.05
681.514	-0.01
681.698	-0.04
681.881	0.01
682.064	0
682.247	0.02
682.43	-0.08
682.614	0.02
682.797	-0
682.98	0.01
683.163	-0.02
683.346	-0.03
683.529	-0.02
683.712	-0.08
683.895	-0.01
684.078	-0.06
684.261	-0.06
684.444	0.02
684.627	-0.01
684.81	-0.01
684.993	-0.02
685.176	0.02
685.359	-0.06
685.542	-0.04
685.725	0.04
685.908	0
686.091	-0.04
686.274	0.03
686.457	-0
686.639	-0.03
686.822	0
687.005	-0.01
687.188	0.04
687.371	0.09
687.553	0.01
687.736	-0.01
687.919	0.07
688.102	0.05
688.284	-0.01
688.467	0.03
688.65	-0.03
688.832	-0.03
689.015	-0.01
689.197	-0.07
689.38	0.08
689.563	0.1
689.745	-0.06
689.928	-0.04
690.11	-0.01
690.293	0.04
690.475	-0.11
690.658	-0.01
690.84	-0.01
691.023	0.02
691.205	-0.05
691.388	-0.02
691.57	0.03
691.752	0.04
691.935	-0.13
692.117	-0.05
692.3	-0.02
692.482	-0.05
692.664	-0.02
692.847	0.03
693.029	0.08
693.211	0.01
693.393	-0.03
693.576	-0.01
693.758	0.03
693.94	-0.01
694.122	-0.05
694.304	-0.01
694.487	-0.04
694.669	0.06
694.851	-0.01
695.033	-0
695.215	-0.04
695.397	-0
695.579	0.01
695.761	-0.02
695.943	-0.11
696.125	0.04
696.308	0.01
696.49	-0.1
696.671	0.12
696.853	-0.06
697.035	0.12
697.217	-0.03
697.399	0.03
697.581	-0.06
697.763	0.01
697.945	-0.1
698.127	0
698.309	0.08
698.491	0.01
698.672	0.01
698.854	0.04
699.036	0.07
699.218	-0.01
699.399	0.05
699.581	0
699.763	-0.04
699.945	-0.07
700.126	-0.04
700.308	-0.01
700.49	-0.02
700.671	-0.12
700.853	-0.09
701.035	-0.01
701.216	0.02
701.398	-0.03
701.579	-0.02
701.761	0.02
701.943	0
702.124	-0.07
702.306	-0
702.487	0.08
702.669	-0.01
702.85	0.02
703.031	-0.08
703.213	0.07
703.394	0.02
703.576	-0.05
703.757	0.11
703.938	0.05
704.12	0.11
704.301	-0.03
704.483	-0.03
704.664	0.02
704.845	0.09
705.026	0.03
705.208	0.02
705.389	-0.02
705.57	0.04
705.751	-0.04
705.933	-0.01
706.114	0.1
706.295	-0.02
706.476	-0.09
706.657	0.09
706.838	-0
707.02	0.07
707.201	-0.03
707.382	0.04
707.563	0.08
707.744	-0.05
707.925	-0.01
708.106	-0.08
708.287	-0.01
708.468	0.12
708.649	0
708.83	0.03
709.011	-0.06
709.192	0.01
709.373	-0.02
709.554	-0
709.734	0.06
709.915	0.05
710.096	-0.08
710.277	-0.12
710.458	0.02
710.639	-0
710.819	-0.05
711	0.01
711.181	0.08
711.362	0.06
711.542	0.07
711.723	-0.03
711.904	0.04
712.085	0.04
712.265	-0.02
712.446	-0.03
712.627	-0
712.807	-0.02
712.988	0.01
713.168	-0.12
713.349	0.08
713.53	-0.19
713.71	-0.06
713.891	-0.05
714.071	-0.08
714.252	-0.01
714.432	-0.05
714.613	-0.05
714.793	0.06
714.974	0.09
715.154	0.09
715.334	0.1
715.515	0.09
715.695	-0.03
715.876	0.04
716.056	-0.04
716.236	-0.01
716.417	-0.07
716.597	-0.02
716.777	0.16
716.957	0.05
717.138	-0.01
717.318	-0.01
717.498	-0.13
717.678	0.02
717.859	0.02
718.039	-0.05
718.219	-0
718.399	0.12
718.579	-0.01
718.759	-0.06
718.939	0.03
719.12	0.01
719.3	0.05
719.48	-0.14
719.66	-0.11
719.84	0.07
720.02	-0.01
720.2	-0
720.38	-0.02
720.56	0.08
720.74	-0.04
720.92	0.02
721.1	0.13
721.279	0.09
721.459	0
721.639	-0.13
721.819	0
721.999	-0
722.179	0.06
722.359	-0.07
722.538	0.06
722.718	-0.01
722.898	0.06
723.078	0.07
723.257	0.02
723.437	0.08
723.617	0
723.797	0.01
723.976	0.05
724.156	0.14
724.336	0.13
724.515	0.16
724.695	-0.08
724.874	0
725.054	0.03
725.234	-0.04
725.413	0.09
725.593	0.08
725.772	0.07
725.952	-0.04
726.131	-0
726.311	0.02
726.49	0.04
726.67	-0.04
726.849	0.02
727.028	0.06
727.208	0.02
727.387	0.02
727.567	-0.12
727.746	0.07
727.925	-0.01
728.105	0.03
728.284	0
728.463	-0.03
728.643	0.14
728.822	-0.03
729.001	0.02
729.18	0.03
729.359	0.09
729.539	0.01
729.718	0.07
729.897	0.09
730.076	0.12
730.255	-0.02
730.434	0.05
730.614	0.06
730.793	0.12
730.972	0.03
731.151	0.02
731.33	0.25
731.509	0.07
731.688	-0.01
731.867	0.14
732.046	-0.07
732.225	0.3
732.404	0.01
732.583	0.04
732.762	0.07
732.941	0.12
733.12	0.09
733.298	0.03
733.477	0.15
733.656	0.05
733.835	-0.05
734.014	0.19
734.193	-0.03
734.371	0.05
734.55	0.08
734.729	-0.03
734.908	0.13
735.086	0.15
735.265	0.14
735.444	-0.11
735.623	0
735.801	0.02
735.98	0.06
736.159	0.02
736.337	0.16
736.516	0.11
736.694	0.05
736.873	0.01
737.052	0.23
737.23	0.12
737.409	0.09
737.587	0.17
737.766	-0.09
737.944	0.04
738.123	0.07
738.301	0.14
738.479	0.06
738.658	0.12
738.836	-0.2
739.015	0.15
739.193	0.33
739.371	-0.08
739.55	0.08
739.728	-0.02
739.906	0.14
740.085	0.19
740.263	0.03
740.441	-0.12
740.62	0.2
740.798	0.16
740.976	-0.01
741.154	0
741.332	0.29
741.511	-0.03
741.689	0.14
741.867	0.16
742.045	0.16
742.223	0.02
742.401	-0.01
742.579	-0.05
742.757	0.1
742.935	-0.08
743.114	0.05
743.292	0.07
743.47	0.09
743.648	0.07
743.826	-0.11
744.004	0.03
744.181	0.11
744.359	0
744.537	0.09
744.715	0.13
744.893	-0
745.071	-0.06
745.249	-0
745.427	0.04
745.605	0.14
745.782	-0.01
745.96	0.12
746.138	0.13
746.316	0.16
746.493	0.04
746.671	0.03
746.849	0.01
747.027	0.15
747.204	-0.02
747.382	-0.02
747.56	-0.17
747.737	-0.1
747.915	-0.02
748.093	0.06
748.27	-0.08
748.448	0
748.625	-0.05
748.803	0.04
748.98	-0.13
749.158	0.08
749.335	0.19
749.513	-0.11
749.69	0.04
749.868	-0.02
750.045	-0.02
750.223	-0.14
750.4	-0.17
750.578	0.15
750.755	0.03
750.932	-0.22
751.11	0.1
751.287	-0.15
751.464	0.08
751.642	-0.03
751.819	0.16
751.996	-0.01
752.173	-0.02
752.351	-0.05
752.528	-0.15
752.705	-0.03
752.882	0
753.06	-0.03
753.237	-0.07
753.414	0.19
753.591	0.18
753.768	-0.05
753.945	-0.14
754.122	-0.07
754.299	0.1
754.476	-0.06
754.654	0.03
754.831	-0.03
755.008	0.13
755.185	-0.22
755.362	-0.08
755.539	-0.05
755.716	-0.12
755.892	-0.18
756.069	-0.04
756.246	-0.04
756.423	-0.04
756.6	0.06
756.777	-0.11
756.954	0.17
757.131	-0.02
757.307	-0.12
757.484	-0.1
757.661	0.04
757.838	0.15
758.015	-0.11
758.191	0.01
758.368	-0.03
758.545	0.24
758.721	-0.07
758.898	-0.03
759.075	0.01
759.251	-0.06
759.428	0.02
759.605	-0.17
759.781	0
759.958	0.19
760.134	0.01
760.311	-0.03
760.488	0.14
760.664	0.06
760.841	0.02
761.017	-0.03
761.194	-0.1
761.37	-0.03
761.547	0.04
761.723	0.02
761.899	0.15
762.076	0.02
762.252	-0.11
762.429	-0.18
762.605	0.18
762.781	-0.12
762.958	0.1
763.134	-0.08
763.31	-0.12
763.486	0.16
763.663	-0.21
763.839	-0.02
764.015	-0.14
764.191	-0.13
764.368	-0.02
764.544	-0.13
764.72	0.07
764.896	0.01
765.072	-0.04
765.248	-0.06
765.425	-0.14
765.601	0.07
765.777	-0
765.953	-0.2
766.129	-0.11
766.305	-0.04
766.481	0.16
766.657	0.07
766.833	0.23
767.009	-0.14
767.185	-0.13
767.361	0.09
767.537	-0.2
767.713	0.12
767.889	-0.12
768.065	-0.02
768.24	-0.3
768.416	0.13
768.592	-0.19
768.768	-0
768.944	0.11
769.12	-0.1
769.295	-0.02
769.471	-0.01
769.647	0.12
769.823	0.11
769.998	-0
770.174	-0.06
770.35	0.34
770.525	0.21
770.701	-0.02
770.877	-0.16
771.052	-0.15
771.228	0.11
771.403	-0.07
771.579	0.06
771.755	0.27
771.93	0
772.106	-0.16
772.281	-0.29
772.457	0
772.632	-0.05
772.808	-0.26
772.983	-0.1
773.159	-0.2
773.334	0.19
773.509	-0.16
773.685	-0.16
773.86	0.33
774.036	0.2
774.211	0.04
774.386	-0.05
774.562	0.06
774.737	0.03
774.912	-0.1
775.087	0.31
775.263	0.05
775.438	-0.11
775.613	0.04
775.788	-0.06
775.964	0.05
776.139	0.37
776.314	-0.2
776.489	-0.01
776.664	0.05
776.839	-0.26
777.014	0.07
777.19	0.15
777.365	0.14
777.54	0.19
777.715	-0.05
777.89	0.12
778.065	-0.04
778.24	-0
778.415	0.21
778.59	-0.09
778.765	-0.04
778.94	0.03
779.115	-0.07
779.289	-0.02
779.464	0.01
779.639	-0.07
779.814	-0.2
779.989	-0.27
780.164	0.22
780.339	0.02
780.513	-0.16
780.688	-0.2
780.863	0.06
781.038	0.12
781.212	-0.19
781.387	-0.05
781.562	0.2
781.737	0.16
781.911	0.1
782.086	-0.05
782.261	-0.04
782.435	0.25
782.61	0.08
782.784	-0.35
782.959	0.33
783.134	-0.15
783.308	-0.26
783.483	-0.18
783.657	0.2
783.832	0.07
784.006	-0.47
784.181	-0.02
784.355	0.24
784.53	-0
784.704	-0.06
784.878	0.28
785.053	0.02
785.227	0.04
785.402	0.31
785.576	-0.2
785.75	-0.03
785.925	-0.03
786.099	0.09
786.273	-0.09
786.448	0.02
786.622	0.25
786.796	-0.01
786.97	-0.15
787.145	0.52
787.319	-0.26
787.493	-0.14
787.667	-0.55
787.841	-0.11
788.015	0.16
788.19	-0.19
788.364	-0.05
788.538	0.2
788.712	0.01
788.886	-0.01
789.06	-0.04
789.234	0.09
789.408	-0.16
789.582	-0.23
789.756	-0.04
789.93	-0.15
790.104	-0.03
790.278	-0.1
790.452	-0.19
790.626	0.1
790.8	-0.33
790.973	0.07
791.147	0.21
791.321	0.38
791.495	0.15
791.669	-0.08
791.843	-0.01
792.016	0.06
792.19	0.39
792.364	-0.32
792.538	0.43
792.711	0.19
792.885	0.02
793.059	-0.16
793.233	-0.68
793.406	0.08
793.58	-0.05
793.754	-0.09
793.927	-0.14
794.101	0.19
794.274	0.27
794.448	0.25
794.622	-0.11
794.795	0.22
794.969	0.02
795.142	0.34
795.316	-0.16
795.489	-0.29
795.663	0.34
795.836	-0.22
796.009	-0.17
796.183	0.39
796.356	-0.08
796.53	0.17
796.703	-0.18
796.876	0.54
797.05	-0.06
797.223	-0.02
797.396	-0.07
797.57	0.02
797.743	0.24
797.916	0.02
798.09	0.06
798.263	0.16
798.436	0.09
798.609	-0.24
798.782	-0.21
798.956	0.23
799.129	0.01
799.302	-0.19
799.475	-0.06
799.648	-0.29
799.821	-0.19
799.994	0.21
800.167	-0.41
800.34	-0.22
800.514	-0.23
800.687	-0.24
800.86	-0.14
801.033	-0.03
801.206	0.06
801.379	-0.31
801.551	0.11
801.724	0.06
801.897	0.39
802.07	-0.23
802.243	-0.33
802.416	0.03
802.589	-0.16
802.762	0.55
802.935	-0.45
803.107	0.13
803.28	0.29
803.453	0.28
803.626	-0.35
803.798	0.12
803.971	-0.3
804.144	0.07
804.317	0.37
804.489	0.07
804.662	0.16
804.835	0.03
805.007	-0.31
805.18	0.26
805.353	0.11
805.525	-0.01
805.698	-0.24
805.87	0.19
806.043	0.22
806.215	-0.26
806.388	-0.35
806.56	0.02
806.733	0.11
806.905	-0.03
807.078	-0.1
807.25	-0.39
807.423	0.23
807.595	0.12
807.768	0.13
807.94	0.28
808.112	-0.11
808.285	0.09
808.457	0.01
808.629	0.05
808.802	0.19
808.974	-0.04
809.146	0.05
809.318	0.05
809.491	0.23
809.663	0.24
809.835	-0.25
810.007	0.06
810.18	-0.19
810.352	-0.33
810.524	-0.3
810.696	0.08
810.868	0.42
811.04	0.31
811.212	-0.1
811.384	0.04
811.556	0.02
811.728	-0.21
811.901	0.51
812.073	-0.25
812.245	0.03
812.417	-0.14
812.589	-0.81
812.76	0.11
812.932	0.24
813.104	0.34
813.276	0.08
813.448	0.2
813.62	0.39
813.792	-0.16
813.964	-0.14
814.136	-0
814.307	-0.25
814.479	-0.22
814.651	-0.18
814.823	0.73
814.995	-0.45
815.166	-0.04
815.338	-0.1
815.51	-0.59
815.681	0.94
815.853	-0.04
816.025	-0.52
816.196	0.38
816.368	0.1
816.54	-0.92
816.711	-0.77
816.883	0.52
817.054	0.96
817.226	-0.74
817.398	-0.02
817.569	-0.29
817.741	-0.09
817.912	0.07
818.084	-0.35
818.255	-0.19
818.426	-0.47
818.598	0.07
818.769	-0.56
818.941	0.19
819.112	0.68
819.283	0.16
819.455	-0.56
819.626	0.33
819.798	0.37
819.969	-0.08
820.14	-0.25
820.311	-0.47
820.483	0.33
820.654	-0.04
820.825	0.11
820.996	-0.29
821.168	-0.23
821.339	-0.14
821.51	-0.25
821.681	-0.54
821.852	-0.23
822.023	-0.5
822.195	-0.6
822.366	0.52
822.537	-0
822.708	0.27
822.879	-0.44
823.05	0.23
823.221	-0.14
823.392	0.35
823.563	0.18
823.734	-0.28
823.905	-0.34
824.076	-0.44
824.247	-0.37
824.418	-0.42
824.589	0.43
824.759	-0.34
824.93	-0.42
825.101	-0.69
825.272	0.25
825.443	1.02
825.614	0.26
825.784	-0.96
825.955	0.68
826.126	0.29
826.297	-0.33
826.467	0.47
826.638	0.71
826.809	-0.38
826.98	0.15
827.15	0.03
827.321	0.16
827.492	0.92
827.662	-0.56
827.833	0.81
828.003	0.17
828.174	-1.06
828.345	-0.75
828.515	0.47
828.686	-0.03
828.856	-0.46
829.027	0.12
829.197	-0.45
829.368	0.43
829.538	-0.67
829.709	-0.51
829.879	0.02
830.049	0.13
830.22	-0.41
830.39	-0.09
830.56	0.68
830.731	-0.01
830.901	-0.52
831.072	-0.28
831.242	-0.21
831.412	0.47
831.582	-0.15
831.753	-0.71
831.923	0.45
832.093	0.27
832.263	-0.31
832.434	-0.74
832.604	-0.45
832.774	-0.29
832.944	-0.32
833.114	-0.34
833.284	0.43
833.454	-0.46
833.624	-0.47
833.795	-0.66
833.965	0.73
834.135	0.92
834.305	-0.88
834.475	-0.48
834.645	-0.16
834.815	0.09
834.985	-0.33
835.155	-0.44
835.325	0.01
835.494	0.64
835.664	0.01
835.834	-1.34
836.004	0.13
836.174	-0.08
836.344	0.41
836.514	-0.97
836.684	-0.36
836.853	-0.63
837.023	-0.01
837.193	-0.62
837.363	0.53
837.532	0.78
837.702	0.24
837.872	-0.07
838.041	0.94
838.211	1.22
838.381	-1.12
838.55	-0.53
838.72	1.76
838.89	0.59
839.059	-0.52
839.229	-0.66
839.398	1.57
839.568	0.07
839.738	-0.49
839.907	0.54
840.077	0.18
840.246	-0.19
840.416	-0.8
840.585	-0.61
840.755	0.9
840.924	0.98
841.093	-0.72
841.263	-0.42
841.432	0.13
841.602	-0.46
841.771	-0.62
841.94	-0.17
842.11	1.38
842.279	1.39
842.448	-0.71
842.617	-0.4
842.787	0.75
842.956	-0.25
843.125	0.04
843.294	-0.23
843.464	1.08
843.633	-0.2
843.802	-1.37
843.971	-0.62
844.14	1.05
844.309	1.42
844.479	-0.29
844.648	-0.49
844.817	-0.18
844.986	-0.09
845.155	0.01
845.324	-0.22
845.493	-1.16
845.662	0.66
845.831	0.74
846	0.72
846.169	-0.04
846.338	0.74
846.507	0.1
846.676	0.15
846.844	0
847.013	1.43
847.182	0.34
847.351	-0.29
847.52	-0.11
847.689	0.32
847.858	0.12
848.026	-0.53
848.195	-0.3
848.364	-0.75
848.533	-0.98
848.701	-0.71
848.87	0.78
849.039	0.7
849.207	0.33
849.376	1.72
849.545	1.88
849.713	-0.09
849.882	0.01
850.051	0.07
850.219	-0.01
850.388	-0.17
850.556	-1.05
850.725	-0.53
850.893	0.69
851.062	0.02
851.23	0.88
851.399	-1.69
851.567	-0.55
851.736	-0.81
851.904	-1.46
852.073	-0.21
852.241	1.23
852.41	0.35
852.578	-0.12
852.746	-0.8
852.915	0.1
853.083	0.13
853.251	-0.82
853.42	-0.81
853.588	-0.95
853.756	0.26
853.924	0.35
854.093	0.42
854.261	-0.29
854.429	-1.61
854.597	0.56
854.765	-1
854.934	0.46
855.102	1.55
855.27	-0.33
855.438	0.03
855.606	0.71
855.774	1.94
855.942	-1.65
856.11	-1.2
856.278	-0.21
856.446	1.06
856.614	0.5
856.782	-1.2
856.95	1.54
857.118	0.13
857.286	1.22
857.454	-1.72
857.622	0.2
857.79	0.14
857.958	-1.22
858.126	-0.2
858.294	0.06
858.462	0.03
858.629	-0.71
858.797	-0.23
858.965	0.52
859.133	0.74
859.301	-0.32
859.468	-0.12
859.636	-1.4
859.804	2.15
859.971	0.59
860.139	-0.89
860.307	1.53
860.474	-0.08
860.642	-0.86
860.81	-1.3
860.977	-0.12
861.145	0.96
861.313	-0.43
861.48	-0.7
861.648	1.56
861.815	-0.47
861.983	-1.74
862.15	-0.44
862.318	1.12
862.485	0.84
862.653	-1.21
862.82	0.58
862.988	1.59
863.155	1.19
863.322	-1.88
863.49	-1.53
863.657	-0.4
863.824	1.25
863.992	0.13
864.159	-0.68
864.326	1.83
864.494	-0.79
864.661	2.66
864.828	-0.98
864.996	-0.02
865.163	1.28
865.33	-0.96
865.497	-2.57
865.664	-0.74
865.832	-2.08
865.999	0.07
866.166	-1.81
866.333	-0.96
866.5	-1.12
866.667	-0.23
866.834	-1.85
867.001	1.23
867.168	-1.75
867.335	0.65
867.502	-1.1
867.669	0.45
867.836	1.45
868.003	-0.69
868.17	2.33
868.337	2.63
868.504	3.05
868.671	-2.19
868.838	-1.9
869.005	0.35
869.172	0.74
869.339	-0.1
869.505	-1.36
869.672	0.21
869.839	3
870.006	0.07
870.173	-1.76
870.339	0.96
870.506	2.5
870.673	-1.03
870.84	0.59
871.006	1.66
871.173	0.39
871.34	0.5
871.506	-1.96
871.673	0.12
871.839	-2.33
872.006	0.91
872.173	0.14
872.339	0.08
872.506	1.78
872.672	-1.04
872.839	-0.61
873.005	1.33
873.172	1.21
873.338	1.19
873.505	-0.12
873.671	0.48
873.838	-0.13
874.004	-2.59
874.171	0.37
874.337	1.95
874.503	1.21
874.67	-1.42
874.836	0.44
875.002	3.07
875.169	2.09
875.335	-0.9
875.501	-0.01
875.668	1.47
875.834	0.01
876	-0.81
876.166	0.96
876.332	0.3
876.499	3.44
876.665	-1.68
876.831	-1.41
876.997	3.58
877.163	1.59
877.329	-1.25
877.495	1
877.662	-0.03
877.828	0.01
877.994	0.64
878.16	-2.5
878.326	-0.82
878.492	0.29
878.658	-0.4
878.824	0.27
878.99	-0.14
879.156	-0.31
879.322	2.96
879.487	-0.72
879.653	-0.29
879.819	0.44
879.985	0.59
880.151	0.78
880.317	1.94
880.483	-0.57
880.648	-0.36
880.814	-2.94
880.98	0.8
881.146	-2.35
881.312	-1.55
881.477	-0.18
881.643	1.08
881.809	2.21
881.974	1.18
882.14	-1.23
882.306	2.1
882.471	3.02
882.637	-1.53
882.803	0.95
882.968	1.79
883.134	3.04
883.299	-0.66
883.465	0.05
883.63	0.92
883.796	1.8
883.961	1.05
884.127	0.07
884.292	-4.41
884.458	-2.5
884.623	-2.5
