Data from Apollo_Calib_20240827__AbsoluteIrradiance__274__03-43-01-243.txt Node

Date: Wed Aug 28 03:43:01 BST 2024
User: biology
Spectrometer: FLMT08252
Trigger mode: 0
Integration Time (sec): 5.000000E-1
Scans to average: 5
Electric dark correction enabled: true
Nonlinearity correction enabled: false
Boxcar width: 0
XAxis mode: Wavelengths
Number of Pixels in Spectrum: 3648
>>>>>Begin Spectral Data<<<<<
179.588	-0
179.809	-0
180.03	-0
180.251	-0
180.473	-0
180.694	0
180.915	0
181.136	-0
181.357	0
181.578	-0
181.799	-0
182.02	-0
182.241	-0
182.462	-0
182.683	0
182.904	-0
183.125	-0
183.346	0
183.567	0
183.788	0
184.009	-0
184.23	0
184.451	0
184.672	-0
184.892	-0
185.113	0
185.334	0
185.555	-0
185.776	-0
185.996	0
186.217	0
186.438	0
186.659	0
186.879	0
187.1	-0
187.321	-0
187.541	-0
187.762	0
187.983	0
188.203	-0
188.424	0
188.644	-0
188.865	0
189.086	-0
189.306	-0
189.527	0
189.747	0
189.968	-0
190.188	0
190.409	0
190.629	0
190.849	0
191.07	0
191.29	0
191.511	0
191.731	-0
191.951	-0
192.172	0
192.392	0
192.612	0
192.833	0
193.053	0
193.273	0
193.493	-0
193.714	-0
193.934	0
194.154	0
194.374	0
194.594	0
194.815	0
195.035	0
195.255	0
195.475	-0
195.695	0
195.915	0
196.135	0
196.355	0
196.575	0
196.795	0
197.015	-0
197.235	-0
197.455	-0
197.675	0
197.895	0
198.115	-0
198.335	0
198.555	0
198.775	0
198.995	0
199.214	0
199.434	0
199.654	-0
199.874	-0
200.094	1.31
200.313	0.4
200.533	-0.19
200.753	-0.69
200.973	1.05
201.192	0.61
201.412	-0.43
201.632	-0.09
201.851	1.16
202.071	-0.54
202.291	-0.05
202.51	-0.12
202.73	0.74
202.95	0.18
203.169	-0.17
203.389	0.08
203.608	0.37
203.828	-0.09
204.047	-0.12
204.267	0.36
204.486	0.41
204.706	0.43
204.925	0.46
205.145	-0.39
205.364	0.75
205.583	0.74
205.803	0.14
206.022	-0.21
206.242	0.17
206.461	-0.04
206.68	0.03
206.9	0.05
207.119	0.79
207.338	0.96
207.557	-0.18
207.777	0.19
207.996	0.22
208.215	0.56
208.434	-0.23
208.654	-0.15
208.873	0.31
209.092	0.84
209.311	-0.08
209.53	0.18
209.749	0.1
209.968	-0.21
210.187	-0.17
210.407	-0.22
210.626	0.02
210.845	0.57
211.064	0.18
211.283	-0.27
211.502	0.46
211.721	0.06
211.94	-0.13
212.159	0.36
212.377	0.4
212.596	0.58
212.815	0.03
213.034	0.37
213.253	0.32
213.472	0.27
213.691	-0.01
213.91	-0.08
214.128	-0.09
214.347	0.67
214.566	-0.08
214.785	-0.25
215.003	0.32
215.222	0.28
215.441	0.11
215.66	-0.03
215.878	0.13
216.097	0.49
216.316	-0.2
216.534	-0.08
216.753	0.33
216.972	0.13
217.19	0.09
217.409	-0.03
217.627	-0.14
217.846	-0.05
218.064	0.21
218.283	-0.02
218.501	0.46
218.72	0.36
218.938	-0.16
219.157	-0.14
219.375	0.3
219.594	0.28
219.812	-0.11
220.031	-0.01
220.249	0.48
220.467	0.51
220.686	0.02
220.904	-0.21
221.122	-0.1
221.341	0.44
221.559	0.12
221.777	-0.24
221.995	0.14
222.214	0.14
222.432	-0.05
222.65	0.18
222.868	0.03
223.086	0.25
223.305	0.22
223.523	-0.01
223.741	0.23
223.959	0.03
224.177	-0.1
224.395	-0.09
224.613	0.24
224.831	0.2
225.049	-0.1
225.267	0.08
225.485	0.01
225.703	0.14
225.921	-0.03
226.139	0.05
226.357	0.28
226.575	0.2
226.793	0.02
227.011	0.65
227.229	0.13
227.447	0.17
227.665	-0.12
227.883	-0.2
228.1	0.11
228.318	0.16
228.536	-0.21
228.754	-0.15
228.972	0.14
229.189	0.1
229.407	0.02
229.625	0.09
229.843	0.31
230.06	0.14
230.278	-0.05
230.496	0.1
230.713	0.1
230.931	0.36
231.149	-0.05
231.366	-0.19
231.584	0.1
231.801	0.47
232.019	0.07
232.236	-0.11
232.454	0.03
232.671	0.13
232.889	0.08
233.106	-0.05
233.324	0.07
233.541	0.1
233.759	0.11
233.976	-0.06
234.194	0.07
234.411	0.06
234.628	-0.03
234.846	-0.04
235.063	0.07
235.28	0.06
235.498	-0.02
235.715	-0.08
235.932	0.27
236.149	0.02
236.367	-0.07
236.584	0.05
236.801	-0.02
237.018	0.18
237.236	0.06
237.453	-0.13
237.67	0.12
237.887	0.02
238.104	0.05
238.321	-0.1
238.538	0
238.755	0.19
238.973	-0.01
239.19	0.01
239.407	0.13
239.624	-0
239.841	-0.06
240.058	-0.09
240.275	0.11
240.492	0.1
240.709	-0.04
240.925	0.04
241.142	0.08
241.359	0.06
241.576	-0.04
241.793	-0.04
242.01	0.02
242.227	0.14
242.444	0.09
242.66	0.16
242.877	0.06
243.094	0.05
243.311	0.02
243.527	0.07
243.744	0.07
243.961	0.15
244.178	-0.04
244.394	0.06
244.611	0.17
244.828	0.24
245.044	-0.05
245.261	0.02
245.477	0.08
245.694	0.13
245.911	-0.03
246.127	0.11
246.344	0.28
246.56	0.12
246.777	0.04
246.993	0.12
247.21	0.1
247.426	0.26
247.643	-0.04
247.859	-0.02
248.076	0.02
248.292	0.28
248.508	0.04
248.725	0.08
248.941	0.15
249.157	0.24
249.374	0.02
249.59	0.05
249.806	0.04
250.023	0.07
250.239	-0.03
250.455	-0.01
250.671	0.05
250.888	0.12
251.104	0.13
251.32	-0.03
251.536	0.07
251.752	0.02
251.969	0.07
252.185	0.07
252.401	0.23
252.617	0.08
252.833	-0.01
253.049	0.03
253.265	0.04
253.481	0.08
253.697	0.01
253.913	-0.01
254.129	0.07
254.345	0.1
254.561	0.01
254.777	0.1
254.993	0.1
255.209	0.05
255.425	0.04
255.641	-0
255.857	0.13
256.073	0.07
256.288	-0.01
256.504	0
256.72	0.05
256.936	0.16
257.152	-0.02
257.367	-0.04
257.583	0.08
257.799	0.05
258.015	0.07
258.23	-0.02
258.446	0.19
258.662	0.06
258.877	-0.07
259.093	0.01
259.309	0.03
259.524	0.12
259.74	0.01
259.955	-0.07
260.171	0.09
260.387	0.02
260.602	0.14
260.818	0.07
261.033	-0.08
261.249	0.01
261.464	0.02
261.68	-0.05
261.895	0.12
262.11	0.09
262.326	0
262.541	-0.06
262.757	0.12
262.972	0.06
263.187	0.05
263.403	-0.02
263.618	0.08
263.833	0.06
264.049	0.01
264.264	0.09
264.479	0.11
264.694	0.2
264.91	-0.02
265.125	0
265.34	0.05
265.555	0.2
265.77	0.05
265.986	0.01
266.201	0.1
266.416	0.08
266.631	0.01
266.846	0.03
267.061	0.1
267.276	0.15
267.491	-0.2
267.706	-0.01
267.921	0.07
268.136	0.01
268.351	0.02
268.566	-0.1
268.781	0.18
268.996	0.08
269.211	-0.01
269.426	-0.04
269.641	-0
269.856	0.05
270.071	-0.02
270.285	-0.11
270.5	0.11
270.715	0.12
270.93	0.01
271.145	0.02
271.359	0.14
271.574	0
271.789	0.11
272.004	0.01
272.218	0.02
272.433	0.1
272.648	-0.05
272.862	0.12
273.077	0.04
273.292	0.1
273.506	0.03
273.721	0.01
273.936	0.1
274.15	0.15
274.365	0.04
274.579	0.11
274.794	0.14
275.008	0.09
275.223	-0.08
275.437	0.07
275.652	0.15
275.866	0.1
276.081	0.04
276.295	0.11
276.509	0.08
276.724	0.09
276.938	0.06
277.153	0.1
277.367	0.12
277.581	0.03
277.796	-0.06
278.01	-0.02
278.224	0.14
278.438	0.22
278.653	-0.03
278.867	-0.02
279.081	-0.02
279.295	0.04
279.51	0.07
279.724	-0.04
279.938	0.09
280.152	0.08
280.366	-0.03
280.58	0.03
280.794	0.15
281.008	0.06
281.222	0.08
281.437	0.19
281.651	0.07
281.865	0.15
282.079	0.1
282.293	-0.02
282.507	-0.01
282.721	0.05
282.935	0.02
283.148	-0.06
283.362	0.03
283.576	-0.08
283.79	0.03
284.004	-0.01
284.218	0.09
284.432	0.03
284.646	-0.03
284.859	-0.01
285.073	0.02
285.287	0.04
285.501	-0
285.714	0.06
285.928	0.04
286.142	0.09
286.356	0.03
286.569	0.01
286.783	0.12
286.997	0.12
287.21	0.03
287.424	0.06
287.637	0.03
287.851	0.03
288.065	0.06
288.278	-0.01
288.492	0.02
288.705	0.06
288.919	0.09
289.132	-0.03
289.346	0.06
289.559	-0.02
289.773	-0.03
289.986	0.03
290.2	0.05
290.413	0.11
290.626	0.01
290.84	0.05
291.053	0.04
291.267	0.1
291.48	0.05
291.693	0.08
291.906	0.02
292.12	0.05
292.333	0.01
292.546	-0.02
292.76	0.1
292.973	0.03
293.186	0.09
293.399	-0
293.612	0.13
293.826	0.02
294.039	0.03
294.252	0.08
294.465	0.11
294.678	0.06
294.891	0.07
295.104	-0.01
295.317	0.02
295.53	0.06
295.743	0.04
295.956	0.07
296.169	0.11
296.382	0.07
296.595	0.03
296.808	-0.02
297.021	0.1
297.234	0.08
297.447	0.03
297.66	0.04
297.873	0.09
298.086	0.07
298.299	0.01
298.511	-0.04
298.724	0.02
298.937	0.01
299.15	-0
299.363	0.07
299.575	0.04
299.788	0.08
300.001	0.01
300.213	-0
300.426	-0.01
300.639	0.01
300.852	-0
301.064	0.07
301.277	0.13
301.489	0.06
301.702	0.11
301.915	0.04
302.127	0.08
302.34	0.05
302.552	0.1
302.765	0.01
302.977	0.1
303.19	0.01
303.402	0.03
303.615	0.04
303.827	0
304.04	0.03
304.252	0.07
304.464	0.01
304.677	0.16
304.889	0.11
305.102	0.01
305.314	0.03
305.526	0.09
305.739	0.08
305.951	0.03
306.163	0.04
306.375	0.12
306.588	-0
306.8	-0
307.012	-0.01
307.224	0.1
307.436	0.09
307.649	-0.02
307.861	0.05
308.073	0.08
308.285	0
308.497	-0.01
308.709	0.04
308.921	0.07
309.133	0.1
309.346	0.01
309.558	0.02
309.77	0.07
309.982	0.12
310.194	0.08
310.406	-0.01
310.617	0.13
310.829	0.03
311.041	0.07
311.253	0
311.465	0.03
311.677	0.06
311.889	0.07
312.101	0.03
312.313	0.12
312.524	0.1
312.736	-0.01
312.948	0.01
313.16	0.13
313.372	0.09
313.583	0.05
313.795	0.04
314.007	0.01
314.218	0.06
314.43	0.04
314.642	0
314.853	-0.01
315.065	0.13
315.277	0.02
315.488	0.05
315.7	0.09
315.912	0.09
316.123	0.01
316.335	0.07
316.546	0.13
316.758	0.06
316.969	0.02
317.181	0.02
317.392	0.07
317.604	0.04
317.815	0
318.026	-0
318.238	0
318.449	0.09
318.661	-0.02
318.872	-0
319.083	-0.02
319.295	0.08
319.506	0.02
319.717	0.04
319.929	0.08
320.14	0.06
320.351	0.08
320.562	0.03
320.774	0.04
320.985	0.05
321.196	-0.02
321.407	-0.02
321.618	0.1
321.829	0.09
322.041	0.09
322.252	0.06
322.463	0.04
322.674	0.08
322.885	0.01
323.096	0.02
323.307	0.02
323.518	0.01
323.729	0.04
323.94	0.04
324.151	0.04
324.362	0.06
324.573	0.05
324.784	-0.01
324.995	0.11
325.206	0.05
325.417	0
325.628	-0.03
325.838	0.03
326.049	0.02
326.26	0.07
326.471	0.02
326.682	0.11
326.892	0.04
327.103	0.03
327.314	-0.02
327.525	0.13
327.735	0.04
327.946	0.02
328.157	0.04
328.368	0.1
328.578	0.01
328.789	0.09
328.999	0.07
329.21	0
329.421	0.08
329.631	-0.04
329.842	-0.01
330.052	0.05
330.263	0.08
330.473	0.08
330.684	0.02
330.894	-0.01
331.105	0.09
331.315	0.02
331.526	0
331.736	0.16
331.947	0.05
332.157	0.1
332.367	-0.02
332.578	0.12
332.788	0.17
332.999	0.08
333.209	0.01
333.419	-0.01
333.629	0.08
333.84	0.07
334.05	0.02
334.26	0.13
334.47	0.06
334.681	0.12
334.891	0.07
335.101	0.1
335.311	0.16
335.521	0
335.732	0.02
335.942	0.12
336.152	0.08
336.362	0.07
336.572	0.05
336.782	0.1
336.992	0.04
337.202	0.03
337.412	0.03
337.622	0.09
337.832	0.05
338.042	0.02
338.252	0.02
338.462	0.06
338.672	0.05
338.882	-0
339.092	0.08
339.302	0.11
339.511	0.06
339.721	0.03
339.931	-0
340.141	0.08
340.351	0.12
340.561	0.05
340.77	0.07
340.98	0.06
341.19	0.08
341.4	0.01
341.609	-0.01
341.819	0.05
342.029	0.04
342.238	0.05
342.448	0.02
342.658	0.1
342.867	0.12
343.077	0.03
343.286	0.08
343.496	0.04
343.706	0.12
343.915	-0
344.125	0.02
344.334	0.06
344.544	-0.03
344.753	0.05
344.963	0.02
345.172	0.05
345.381	0.02
345.591	-0.03
345.8	0.03
346.01	0.08
346.219	0.07
346.428	-0.09
346.638	0.04
346.847	0.04
347.056	0.13
347.266	-0.01
347.475	0.07
347.684	0.09
347.893	0.05
348.103	0.05
348.312	0.04
348.521	0.05
348.73	0.04
348.94	0.06
349.149	0.06
349.358	0.01
349.567	0.01
349.776	-0.01
349.985	0.05
350.194	0.07
350.403	0.09
350.612	-0.02
350.821	0.03
351.03	0.03
351.239	0.04
351.448	0.07
351.657	0.03
351.866	0.07
352.075	0.06
352.284	0.09
352.493	0.01
352.702	0.14
352.911	0.07
353.12	0.07
353.329	0.03
353.538	0.1
353.746	0.04
353.955	0.02
354.164	0.09
354.373	0.05
354.582	0.09
354.79	0.09
354.999	0.08
355.208	0.02
355.416	0.12
355.625	0.02
355.834	0.02
356.042	0.1
356.251	0.06
356.46	-0
356.668	0.08
356.877	0.13
357.085	0.12
357.294	-0.05
357.503	0.07
357.711	0.04
357.92	0.13
358.128	0.06
358.337	0.04
358.545	0.03
358.754	0.07
358.962	0.07
359.17	0.06
359.379	0.07
359.587	0.09
359.796	0.06
360.004	0.08
360.212	0.1
360.421	0.1
360.629	0.07
360.837	0.03
361.046	0.11
361.254	0.16
361.462	0.06
361.67	0.03
361.879	0.08
362.087	0.11
362.295	0.07
362.503	0.05
362.711	-0.04
362.92	0.02
363.128	0.05
363.336	0.08
363.544	0.02
363.752	0.06
363.96	0.04
364.168	0.05
364.376	0.07
364.584	0.04
364.792	0.1
365	0.06
365.208	0.08
365.416	0.09
365.624	0.13
365.832	0.01
366.04	0.13
366.248	0.1
366.456	0.07
366.664	0.05
366.872	0.06
367.079	0.04
367.287	0.08
367.495	0.1
367.703	0.05
367.911	0.06
368.118	0.07
368.326	0.09
368.534	0.05
368.742	0.11
368.949	0.02
369.157	0.02
369.365	0.12
369.572	0.04
369.78	0.02
369.988	0.11
370.195	0.11
370.403	0.12
370.61	0.05
370.818	0.08
371.026	0.13
371.233	0.02
371.441	0.06
371.648	0.01
371.856	0.08
372.063	0.05
372.271	0.07
372.478	0.02
372.685	0.06
372.893	0.14
373.1	0.06
373.308	0.03
373.515	0.14
373.722	0.14
373.93	0.08
374.137	0.08
374.344	0.13
374.552	0.12
374.759	0.08
374.966	0.07
375.173	0.06
375.381	0.14
375.588	0.08
375.795	0
376.002	0.06
376.209	0.07
376.417	0.04
376.624	0.08
376.831	0.1
377.038	0.06
377.245	0.01
377.452	0.07
377.659	0.04
377.866	0.07
378.073	0.08
378.28	0.03
378.487	0.11
378.694	0.14
378.901	0.07
379.108	0.07
379.315	0.12
379.522	0.16
379.729	0.08
379.936	0.03
380.143	0.05
380.35	0.05
380.557	0.06
380.763	0.03
380.97	0.04
381.177	0.1
381.384	0.06
381.591	0.06
381.797	0.12
382.004	0.11
382.211	0.13
382.418	0.05
382.624	0.13
382.831	0.14
383.038	0.08
383.244	0.1
383.451	0.09
383.658	0.11
383.864	0.06
384.071	0.04
384.277	0.16
384.484	0.06
384.69	0.13
384.897	0.09
385.103	0.08
385.31	0.05
385.516	0.07
385.723	0.03
385.929	0.05
386.136	0.08
386.342	0.13
386.549	0.08
386.755	0.19
386.961	0.14
387.168	0.08
387.374	0.09
387.58	0.08
387.787	0.09
387.993	0.11
388.199	0.05
388.406	0.11
388.612	0.11
388.818	0.09
389.024	0.07
389.231	0.1
389.437	0.21
389.643	0.15
389.849	0.11
390.055	0.1
390.261	0.11
390.467	0.18
390.674	0.07
390.88	0.08
391.086	0.16
391.292	0.04
391.498	0.15
391.704	0.17
391.91	0.1
392.116	0.11
392.322	0.04
392.528	0.19
392.734	0.13
392.94	0.16
393.146	0.12
393.352	0.17
393.557	0.19
393.763	0.15
393.969	0.18
394.175	0.18
394.381	0.2
394.587	0.14
394.792	0.16
394.998	0.23
395.204	0.25
395.41	0.2
395.615	0.21
395.821	0.25
396.027	0.28
396.233	0.21
396.438	0.3
396.644	0.33
396.85	0.29
397.055	0.22
397.261	0.32
397.466	0.27
397.672	0.33
397.878	0.41
398.083	0.34
398.289	0.32
398.494	0.46
398.7	0.34
398.905	0.29
399.111	0.46
399.316	0.3
399.522	0.41
399.727	0.42
399.932	0.41
400.138	0.48
400.343	0.52
400.549	0.49
400.754	0.52
400.959	0.58
401.165	0.53
401.37	0.63
401.575	0.75
401.78	0.66
401.986	0.67
402.191	0.71
402.396	0.8
402.601	0.82
402.807	0.85
403.012	0.83
403.217	1.02
403.422	0.96
403.627	0.97
403.832	0.98
404.037	1.12
404.243	1.08
404.448	1.15
404.653	1.14
404.858	1.3
405.063	1.32
405.268	1.4
405.473	1.4
405.678	1.47
405.883	1.72
406.088	1.7
406.293	1.66
406.498	1.8
406.703	1.85
406.907	1.93
407.112	1.98
407.317	2.15
407.522	2.25
407.727	2.4
407.932	2.45
408.136	2.71
408.341	2.58
408.546	2.78
408.751	2.87
408.956	3
409.16	3.22
409.365	3.27
409.57	3.3
409.774	3.43
409.979	3.64
410.184	3.79
410.388	3.81
410.593	4.15
410.798	4.19
411.002	4.5
411.207	4.72
411.411	4.84
411.616	4.88
411.82	5.21
412.025	5.44
412.229	5.56
412.434	5.77
412.638	5.86
412.843	6.04
413.047	6.33
413.252	6.47
413.456	6.88
413.66	7.12
413.865	7.17
414.069	7.45
414.273	7.69
414.478	7.92
414.682	8.08
414.886	8.4
415.091	8.54
415.295	8.84
415.499	9.25
415.703	9.34
415.908	9.79
416.112	9.94
416.316	10.38
416.52	10.6
416.724	10.9
416.929	11.22
417.133	11.77
417.337	11.78
417.541	12.22
417.745	12.32
417.949	12.58
418.153	13.14
418.357	13.43
418.561	13.9
418.765	14.04
418.969	14.29
419.173	14.95
419.377	15.2
419.581	15.57
419.785	16.19
419.989	16.22
420.193	16.77
420.397	16.96
420.601	17.22
420.804	17.57
421.008	17.49
421.212	17.72
421.416	17.55
421.62	17.57
421.823	17.61
422.027	17.7
422.231	17.57
422.435	17.41
422.638	17.29
422.842	17.43
423.046	17.49
423.249	17.78
423.453	17.57
423.657	17.61
423.86	17.77
424.064	17.82
424.268	17.63
424.471	17.51
424.675	17.5
424.878	17.26
425.082	17.48
425.285	17.88
425.489	17.11
425.692	17.04
425.896	16.6
426.099	16.66
426.303	16.52
426.506	16.32
426.71	16.29
426.913	16.23
427.116	16.07
427.32	15.5
427.523	15.24
427.726	15.15
427.93	15.18
428.133	15.1
428.336	14.88
428.54	14.56
428.743	14.45
428.946	14.21
429.149	13.79
429.353	13.07
429.556	12.8
429.759	12.34
429.962	11.98
430.165	11.84
430.368	10.91
430.571	10.61
430.775	10.25
430.978	9.73
431.181	9.48
431.384	9.21
431.587	8.98
431.79	9.04
431.993	8.6
432.196	8.61
432.399	8.62
432.602	8.49
432.805	8.16
433.008	8.38
433.211	7.93
433.414	7.92
433.616	7.58
433.819	7.29
434.022	7.19
434.225	7.11
434.428	6.93
434.631	6.98
434.833	6.57
435.036	6.45
435.239	6.21
435.442	6.19
435.645	5.99
435.847	5.88
436.05	5.82
436.253	5.72
436.455	5.59
436.658	5.26
436.861	5.36
437.063	5.19
437.266	4.88
437.468	4.96
437.671	5.01
437.874	4.72
438.076	4.48
438.279	4.51
438.481	4.39
438.684	4.47
438.886	4.25
439.089	4.15
439.291	4.13
439.494	4.02
439.696	3.92
439.899	3.89
440.101	3.9
440.303	3.73
440.506	3.85
440.708	3.64
440.91	3.6
441.113	3.38
441.315	3.46
441.517	3.23
441.72	3.27
441.922	3.05
442.124	2.88
442.326	2.87
442.529	2.88
442.731	2.7
442.933	2.78
443.135	2.6
443.337	2.41
443.539	2.44
443.742	2.34
443.944	2.42
444.146	2.23
444.348	2.18
444.55	2.07
444.752	2.06
444.954	1.95
445.156	1.94
445.358	1.87
445.56	1.98
445.762	1.85
445.964	1.81
446.166	1.65
446.368	1.57
446.57	1.63
446.772	1.64
446.974	1.47
447.175	1.57
447.377	1.47
447.579	1.45
447.781	1.37
447.983	1.38
448.184	1.31
448.386	1.33
448.588	1.2
448.79	1.24
448.991	1.21
449.193	1.22
449.395	1.16
449.597	1.16
449.798	1.06
450	1.11
450.202	1.05
450.403	1.1
450.605	1.13
450.806	0.97
451.008	0.97
451.21	0.94
451.411	0.91
451.613	0.87
451.814	0.95
452.016	0.91
452.217	0.85
452.419	0.89
452.62	0.75
452.821	0.86
453.023	0.84
453.224	0.77
453.426	0.73
453.627	0.71
453.828	0.74
454.03	0.65
454.231	0.73
454.432	0.66
454.634	0.77
454.835	0.61
455.036	0.65
455.238	0.68
455.439	0.67
455.64	0.53
455.841	0.53
456.042	0.72
456.244	0.61
456.445	0.5
456.646	0.49
456.847	0.51
457.048	0.59
457.249	0.61
457.45	0.82
457.651	0.45
457.852	0.59
458.054	0.56
458.255	0.4
458.456	0.49
458.657	0.48
458.858	0.44
459.058	0.43
459.259	0.53
459.46	0.43
459.661	0.41
459.862	0.57
460.063	0.41
460.264	0.44
460.465	0.34
460.666	0.53
460.866	0.34
461.067	0.33
461.268	0.35
461.469	0.4
461.67	0.38
461.87	0.29
462.071	0.32
462.272	0.3
462.473	0.39
462.673	0.36
462.874	0.29
463.075	0.39
463.275	0.3
463.476	0.35
463.676	0.37
463.877	0.31
464.078	0.29
464.278	0.34
464.479	0.31
464.679	0.27
464.88	0.26
465.08	0.4
465.281	0.24
465.481	0.23
465.682	0.27
465.882	0.31
466.083	0.28
466.283	0.27
466.483	0.21
466.684	0.18
466.884	0.21
467.085	0.28
467.285	0.29
467.485	0.17
467.686	0.19
467.886	0.16
468.086	0.22
468.286	0.21
468.487	0.22
468.687	0.18
468.887	0.21
469.087	0.24
469.287	0.19
469.488	0.14
469.688	0.25
469.888	0.24
470.088	0.24
470.288	0.25
470.488	0.17
470.688	0.15
470.888	0.13
471.088	0.1
471.288	0.25
471.488	0.18
471.688	0.22
471.888	0.13
472.088	0.2
472.288	0.22
472.488	0.13
472.688	0.13
472.888	0.2
473.088	0.17
473.288	0.16
473.488	0.16
473.688	0.28
473.887	0.12
474.087	0.11
474.287	0.18
474.487	0.12
474.687	0.17
474.886	0.14
475.086	0.13
475.286	0.16
475.486	0.13
475.685	0.13
475.885	0.14
476.085	0.15
476.284	0.17
476.484	0.11
476.684	0.14
476.883	0.18
477.083	0.16
477.282	0.14
477.482	0.19
477.681	0.19
477.881	0.11
478.08	0.05
478.28	0.07
478.479	0.12
478.679	0.19
478.878	0.11
479.078	0.08
479.277	0.12
479.477	0.1
479.676	0.14
479.875	0.06
480.075	0.04
480.274	0.12
480.473	0.13
480.673	0.06
480.872	0.14
481.071	0.11
481.271	0.13
481.47	0.08
481.669	0.08
481.868	0.1
482.067	0.03
482.267	0.05
482.466	0.02
482.665	0.03
482.864	0.04
483.063	0.03
483.262	0.11
483.461	0.13
483.661	0.09
483.86	0.07
484.059	0.1
484.258	0.09
484.457	0.07
484.656	0.07
484.855	0.12
485.054	0.03
485.253	0.04
485.452	0.05
485.651	0.06
485.849	0.09
486.048	0.03
486.247	0.04
486.446	0.08
486.645	0.02
486.844	0.04
487.043	0.06
487.241	0.09
487.44	0.03
487.639	0.04
487.838	0.06
488.037	0.07
488.235	0.12
488.434	0.07
488.633	0.02
488.831	0.08
489.03	0.11
489.229	0.08
489.427	0.06
489.626	0.1
489.825	0.12
490.023	0.05
490.222	0.04
490.42	0.06
490.619	0.11
490.817	0.06
491.016	0.03
491.214	0.09
491.413	0.05
491.611	0.06
491.81	0.06
492.008	0.07
492.207	0.06
492.405	0.09
492.604	-0
492.802	0.05
493	0.06
493.199	0.04
493.397	0.05
493.595	0.05
493.794	0.02
493.992	0.09
494.19	0.04
494.388	0.05
494.587	0.04
494.785	0.04
494.983	0.01
495.181	0.06
495.379	0.06
495.578	0.04
495.776	0.04
495.974	0.08
496.172	0.05
496.37	0.04
496.568	0.02
496.766	0.04
496.964	0.07
497.162	0.05
497.36	0.03
497.558	0.07
497.756	0.08
497.954	0.04
498.152	0.02
498.35	0.04
498.548	0.02
498.746	0.04
498.944	0.02
499.142	0.04
499.34	0.04
499.538	0.05
499.736	0
499.933	0.05
500.131	0.07
500.329	0.05
500.527	0.07
500.725	0.08
500.922	0.07
501.12	0.03
501.318	0.04
501.516	0.03
501.713	0.06
501.911	0.04
502.109	0
502.306	0.03
502.504	0.03
502.701	0.02
502.899	0.04
503.097	0.09
503.294	0.06
503.492	0.04
503.689	0.08
503.887	0.07
504.084	0.1
504.282	0.04
504.479	0.01
504.677	0.04
504.874	-0
505.072	0.04
505.269	0.04
505.466	0.06
505.664	0.04
505.861	0.01
506.059	0.03
506.256	0.06
506.453	0.02
506.651	0.07
506.848	0.07
507.045	0.05
507.242	0.05
507.44	0.03
507.637	0.03
507.834	0.04
508.031	0.05
508.229	0.01
508.426	0.06
508.623	0.07
508.82	0.03
509.017	0.01
509.214	0.04
509.411	0.04
509.608	0
509.805	0.02
510.003	0.02
510.2	0.02
510.397	0.04
510.594	0.01
510.791	0.01
510.988	0.03
511.184	0.06
511.381	0.04
511.578	0.01
511.775	0.06
511.972	0.02
512.169	0.03
512.366	0.02
512.563	0.03
512.76	0.03
512.956	0.03
513.153	0.02
513.35	0.04
513.547	0.03
513.744	0
513.94	0.01
514.137	0.06
514.334	0.06
514.53	0.03
514.727	0.03
514.924	0.09
515.12	0.01
515.317	0.01
515.514	0
515.71	0
515.907	0.01
516.103	0.04
516.3	0.04
516.497	0.05
516.693	0.05
516.89	0.03
517.086	0
517.283	0.07
517.479	0.02
517.676	0.03
517.872	0.01
518.068	0
518.265	0.02
518.461	0.02
518.658	0
518.854	0.02
519.05	0.01
519.247	-0
519.443	0.05
519.639	0.04
519.836	0.05
520.032	0.04
520.228	0.03
520.424	0.08
520.621	0.03
520.817	0.03
521.013	0.06
521.209	0.04
521.405	0.06
521.601	0.04
521.798	0.04
521.994	0.08
522.19	0.01
522.386	-0.01
522.582	0.04
522.778	0.05
522.974	0.01
523.17	0.01
523.366	0.03
523.562	0.06
523.758	0.04
523.954	0.01
524.15	0.01
524.346	0.07
524.542	0.01
524.738	0.02
524.934	0.03
525.129	-0.01
525.325	0.03
525.521	0.02
525.717	0.03
525.913	0.03
526.109	0.02
526.304	0.04
526.5	0.04
526.696	0.05
526.892	0.03
527.087	0.03
527.283	0.02
527.479	0.04
527.674	0.03
527.87	0.01
528.066	0.01
528.261	0.05
528.457	0.04
528.653	0.01
528.848	0.04
529.044	0.03
529.239	0.01
529.435	0.04
529.63	0.04
529.826	0.08
530.021	0.05
530.217	0.03
530.412	0.02
530.608	0.01
530.803	0.03
530.999	0.02
531.194	-0.02
531.389	0.04
531.585	-0.03
531.78	-0
531.975	0.02
532.171	0.04
532.366	0.02
532.561	0.02
532.757	-0.01
532.952	0
533.147	0.04
533.342	0.01
533.538	0.02
533.733	0.05
533.928	0.01
534.123	0.01
534.318	-0.02
534.513	0.03
534.709	0.02
534.904	0
535.099	0.01
535.294	0.01
535.489	0.03
535.684	0.03
535.879	-0.01
536.074	0.06
536.269	-0
536.464	0.03
536.659	-0
536.854	0.02
537.049	0.03
537.244	0.02
537.439	0.01
537.634	0.05
537.828	0.04
538.023	0.01
538.218	-0.01
538.413	0.03
538.608	-0
538.803	0.06
538.997	-0.02
539.192	0.04
539.387	0.04
539.582	0.03
539.776	0.03
539.971	0.01
540.166	0.02
540.36	-0.01
540.555	0.03
540.75	0.01
540.944	0.02
541.139	-0.01
541.334	0.02
541.528	0.03
541.723	0.04
541.917	0.01
542.112	-0.02
542.306	0.02
542.501	0.01
542.695	0.03
542.89	0.01
543.084	0.01
543.279	0.01
543.473	0.03
543.668	0.02
543.862	0.02
544.056	0.03
544.251	0.02
544.445	0.04
544.64	0.01
544.834	0.02
545.028	0.01
545.222	0.02
545.417	0.06
545.611	0.02
545.805	0.02
546	0.01
546.194	0.01
546.388	0.01
546.582	0.06
546.776	0.02
546.97	-0.01
547.165	0.02
547.359	0.05
547.553	0.01
547.747	0.02
547.941	0.03
548.135	0.02
548.329	0.04
548.523	0.02
548.717	-0
548.911	0
549.105	0.02
549.299	0.03
549.493	0.06
549.687	0.03
549.881	0.04
550.075	0.02
550.269	-0.03
550.463	0.02
550.657	0.01
550.85	0.02
551.044	-0.02
551.238	0.02
551.432	0.01
551.626	-0
551.82	0.05
552.013	-0.01
552.207	0.02
552.401	0.04
552.594	0.01
552.788	0.02
552.982	0.02
553.176	0.01
553.369	0.03
553.563	0.04
553.756	-0.01
553.95	-0
554.144	0.01
554.337	0.05
554.531	0.01
554.724	0.01
554.918	0
555.111	0.06
555.305	0.04
555.498	0.07
555.692	0.03
555.885	0.03
556.079	0.04
556.272	-0
556.466	0.06
556.659	0.03
556.852	0.03
557.046	0.02
557.239	0.04
557.432	-0
557.626	-0
557.819	0.01
558.012	0.04
558.206	0.01
558.399	0.03
558.592	0.03
558.785	0.01
558.979	0.04
559.172	0.02
559.365	0.04
559.558	0.04
559.751	0.01
559.944	0.05
560.138	0.02
560.331	0
560.524	0
560.717	0.01
560.91	0.01
561.103	0.01
561.296	0.02
561.489	0.02
561.682	0.01
561.875	0.05
562.068	0.03
562.261	0.03
562.454	0.04
562.647	0.03
562.84	0.03
563.032	0.02
563.225	0.03
563.418	-0
563.611	-0.01
563.804	0.01
563.997	-0.03
564.19	-0.02
564.382	0.03
564.575	0.02
564.768	0.02
564.961	0.01
565.153	-0.01
565.346	0.04
565.539	0.03
565.731	0.04
565.924	0.06
566.117	0.06
566.309	0.02
566.502	-0.01
566.695	0.02
566.887	0.01
567.08	-0.01
567.272	-0
567.465	-0.01
567.657	0.02
567.85	0.03
568.042	0.04
568.235	0.06
568.427	0.01
568.62	0.02
568.812	0.03
569.005	0.01
569.197	-0.03
569.389	0.01
569.582	0.03
569.774	0.02
569.966	-0
570.159	-0.02
570.351	0.02
570.543	-0.02
570.736	0
570.928	0.01
571.12	0.01
571.312	0.01
571.505	-0.01
571.697	0.05
571.889	-0.01
572.081	-0
572.273	-0.03
572.465	0.06
572.658	-0
572.85	0.03
573.042	-0.03
573.234	0.01
573.426	0.05
573.618	-0
573.81	0.03
574.002	0.04
574.194	0.05
574.386	-0.04
574.578	-0.08
574.77	0
574.962	0.01
575.154	-0.03
575.346	-0.01
575.538	0.04
575.729	-0
575.921	-0.01
576.113	0.01
576.305	0.05
576.497	0.01
576.689	-0
576.88	-0.01
577.072	0.01
577.264	0
577.456	0.01
577.647	-0.06
577.839	-0.01
578.031	0.05
578.223	-0.01
578.414	-0.02
578.606	0.01
578.798	0.04
578.989	-0.03
579.181	0.03
579.372	0.01
579.564	0.03
579.755	-0.02
579.947	0.02
580.139	0.02
580.33	-0.05
580.522	-0.02
580.713	-0.07
580.905	-0
581.096	0.05
581.287	0.01
581.479	0.01
581.67	0.05
581.862	0.04
582.053	-0.03
582.244	-0.03
582.436	0.01
582.627	0.01
582.818	-0.02
583.01	-0.03
583.201	0.03
583.392	0.03
583.583	0.01
583.775	-0
583.966	0.01
584.157	0
584.348	-0.01
584.54	-0.01
584.731	0.03
584.922	0.02
585.113	-0.03
585.304	0.01
585.495	0.02
585.686	0.01
585.877	0.02
586.068	0.02
586.259	0.02
586.45	0.02
586.641	-0.03
586.832	-0.06
587.023	-0.01
587.214	0.03
587.405	0
587.596	-0.01
587.787	0.04
587.978	0.06
588.169	-0.02
588.36	-0.03
588.551	0.02
588.742	-0.02
588.932	0.02
589.123	0.01
589.314	0.04
589.505	0.02
589.696	0.01
589.886	-0
590.077	-0.04
590.268	-0
590.458	-0.05
590.649	-0.05
590.84	0.06
591.03	-0.03
591.221	-0.03
591.412	-0.04
591.602	0.03
591.793	0.03
591.984	-0.03
592.174	-0
592.365	0.06
592.555	0.01
592.746	0.03
592.936	0.02
593.127	0.03
593.317	0.02
593.508	-0.01
593.698	0.01
593.889	0.03
594.079	0.01
594.269	-0
594.46	0.02
594.65	0
594.84	0.02
595.031	-0.01
595.221	-0.01
595.411	-0.03
595.602	0.02
595.792	0
595.982	-0.02
596.172	0.07
596.363	0.01
596.553	0.01
596.743	0
596.933	0.01
597.123	0.06
597.314	-0.02
597.504	-0.01
597.694	0.06
597.884	0.04
598.074	-0.01
598.264	-0.03
598.454	0.04
598.644	0.02
598.834	0.02
599.024	-0.09
599.214	-0.02
599.404	0.01
599.594	0.01
599.784	-0.03
599.974	0.11
600.164	0.02
600.354	-0.02
600.544	-0.02
600.734	0.02
600.924	0.04
601.114	0
601.303	0.01
601.493	0.01
601.683	0
601.873	-0.02
602.063	-0.04
602.252	0.04
602.442	-0.04
602.632	-0.02
602.821	-0.04
603.011	0.04
603.201	-0.01
603.39	-0.03
603.58	-0.03
603.77	-0
603.959	0.06
604.149	0.01
604.339	-0.01
604.528	0.05
604.718	0.04
604.907	-0
605.097	-0
605.286	-0.03
605.476	0.03
605.665	-0.02
605.855	-0
606.044	0.08
606.234	0.03
606.423	0.01
606.612	-0.05
606.802	0.03
606.991	0.03
607.181	-0
607.37	-0.04
607.559	0
607.749	-0.03
607.938	0.01
608.127	-0.01
608.316	-0.03
608.506	0.03
608.695	-0.02
608.884	-0.03
609.073	0.02
609.263	0.01
609.452	0.03
609.641	0.03
609.83	-0.05
610.019	-0.01
610.208	0.01
610.397	-0.01
610.586	0.03
610.775	0
610.965	0
611.154	-0.01
611.343	-0.01
611.532	-0.01
611.721	-0.02
611.91	-0.02
612.099	0.01
612.287	0.01
612.476	-0.04
612.665	0.01
612.854	0
613.043	0.04
613.232	0.02
613.421	-0.05
613.61	0
613.798	-0.04
613.987	0.03
614.176	-0.02
614.365	0.02
614.554	0.01
614.742	0.02
614.931	-0.02
615.12	0.06
615.309	-0.02
615.497	0.04
615.686	-0.03
615.875	-0
616.063	-0.03
616.252	-0.01
616.44	-0.03
616.629	-0.01
616.818	0.06
617.006	0.02
617.195	0.01
617.383	0.04
617.572	-0.01
617.76	-0.01
617.949	-0.03
618.137	0.02
618.326	0.06
618.514	-0
618.703	-0.01
618.891	0.05
619.079	-0.02
619.268	0.02
619.456	-0.02
619.644	0.03
619.833	-0.01
620.021	-0
620.209	-0.08
620.398	0.05
620.586	0.02
620.774	0.03
620.962	-0.01
621.151	0.07
621.339	0.01
621.527	-0.05
621.715	-0.02
621.903	-0.01
622.092	-0.04
622.28	-0
622.468	-0
622.656	-0.03
622.844	0.02
623.032	-0
623.22	-0.06
623.408	0.03
623.596	0.04
623.784	0.03
623.972	-0.03
624.16	-0.01
624.348	0.04
624.536	-0
624.724	-0.04
624.912	0.02
625.1	0.03
625.288	-0.02
625.476	-0.03
625.664	0.03
625.851	-0.03
626.039	0.01
626.227	0.02
626.415	-0
626.603	-0.06
626.79	0.01
626.978	-0
627.166	0.03
627.354	0.03
627.541	-0.01
627.729	-0.07
627.917	0.03
628.104	0.03
628.292	0.01
628.48	0.02
628.667	0.02
628.855	0.04
629.042	0.04
629.23	-0.03
629.418	0
629.605	-0.02
629.793	-0.02
629.98	-0
630.168	0.01
630.355	0.01
630.543	0.03
630.73	-0.01
630.917	0.03
631.105	0.04
631.292	-0
631.48	-0.02
631.667	0.08
631.854	0.01
632.042	0
632.229	-0.05
632.416	-0
632.604	-0.02
632.791	-0.02
632.978	0.03
633.165	0.01
633.353	0.06
633.54	-0
633.727	-0.06
633.914	-0.04
634.101	-0.06
634.289	0.02
634.476	-0.04
634.663	-0.04
634.85	0.01
635.037	-0.06
635.224	-0.05
635.411	0.04
635.598	0.02
635.785	0.04
635.972	-0.02
636.159	0.05
636.346	-0.04
636.533	0.01
636.72	-0.02
636.907	-0.02
637.094	0.03
637.281	0
637.468	0.05
637.655	-0
637.842	0.02
638.029	-0.03
638.215	0.02
638.402	0.01
638.589	-0.03
638.776	-0.04
638.963	-0.02
639.149	0.03
639.336	0.09
639.523	-0.03
639.709	0
639.896	-0.01
640.083	0.07
640.27	-0.01
640.456	-0.01
640.643	0.01
640.829	-0.04
641.016	0.01
641.203	-0.05
641.389	0.06
641.576	-0
641.762	0.02
641.949	-0.05
642.135	0.04
642.322	0.03
642.508	-0.07
642.695	0.02
642.881	-0.02
643.068	0.01
643.254	0.03
643.441	0.06
643.627	0.01
643.813	-0.04
644	0.03
644.186	-0.02
644.372	-0.05
644.559	0.03
644.745	-0.03
644.931	-0.04
645.118	0.02
645.304	0
645.49	-0
645.676	-0.01
645.862	0.02
646.049	0.06
646.235	0.01
646.421	0.07
646.607	0.1
646.793	-0.01
646.979	-0.05
647.165	0.01
647.352	0.01
647.538	0.06
647.724	0.01
647.91	-0
648.096	0.03
648.282	0.03
648.468	0.02
648.654	-0.01
648.84	0.01
649.026	-0.02
649.212	-0.01
649.397	-0.04
649.583	-0.05
649.769	0.06
649.955	0.02
650.141	0
650.327	0.06
650.513	-0.02
650.698	0.01
650.884	-0.07
651.07	0.04
651.256	0.02
651.442	0.03
651.627	0
651.813	0.03
651.999	-0.01
652.184	0.01
652.37	0.01
652.556	-0.04
652.741	0.03
652.927	-0.06
653.113	-0.01
653.298	0.01
653.484	-0.02
653.669	-0.06
653.855	0.02
654.04	0.04
654.226	0.02
654.412	0
654.597	-0.04
654.782	0.03
654.968	0.02
655.153	0.02
655.339	-0.03
655.524	-0.05
655.71	0.06
655.895	-0.02
656.08	-0.02
656.266	0.06
656.451	0.02
656.636	-0.04
656.822	0.01
657.007	-0.07
657.192	-0.03
657.378	-0.05
657.563	-0.01
657.748	0.01
657.933	0
658.118	-0.05
658.304	0
658.489	0.03
658.674	0.02
658.859	-0.05
659.044	0.01
659.229	0.03
659.414	-0.05
659.599	0
659.785	-0.05
659.97	-0.02
660.155	0.02
660.34	0.02
660.525	-0.03
660.71	-0.01
660.895	0.06
661.08	-0.02
661.264	-0.02
661.449	0.1
661.634	0.05
661.819	0.03
662.004	0.02
662.189	-0.05
662.374	-0.03
662.559	-0.04
662.743	-0.09
662.928	0
663.113	-0.05
663.298	-0.09
663.483	-0.03
663.667	0.01
663.852	-0.03
664.037	0.06
664.221	-0.02
664.406	0.05
664.591	0.01
664.775	-0.02
664.96	-0
665.145	0.01
665.329	0.03
665.514	-0.02
665.698	-0.01
665.883	-0.08
666.068	0.1
666.252	0.01
666.437	-0.06
666.621	0.01
666.806	0.03
666.99	-0
667.174	-0.04
667.359	0.07
667.543	-0.02
667.728	-0.02
667.912	-0.09
668.096	-0.03
668.281	0.01
668.465	-0.03
668.649	-0.01
668.834	-0.05
669.018	-0.03
669.202	-0.01
669.387	-0.04
669.571	0.03
669.755	-0.03
669.939	0
670.124	-0.03
670.308	0.02
670.492	0.03
670.676	-0.02
670.86	-0.01
671.044	-0.01
671.228	0.05
671.413	-0.04
671.597	-0.05
671.781	-0.05
671.965	0.04
672.149	0.01
672.333	-0.01
672.517	0.01
672.701	0.04
672.885	0
673.069	-0.08
673.253	0.07
673.437	-0
673.621	-0.04
673.804	-0.02
673.988	0
674.172	-0.05
674.356	-0.06
674.54	-0.01
674.724	0.11
674.908	-0.06
675.091	0.04
675.275	-0.01
675.459	0.03
675.643	0.06
675.826	0.02
676.01	-0.03
676.194	0
676.377	0.06
676.561	0.02
676.745	-0.01
676.928	0.04
677.112	0.05
677.296	-0.07
677.479	0
677.663	-0.01
677.846	-0.01
678.03	-0.01
678.213	-0.03
678.397	0.03
678.58	-0.02
678.764	-0.03
678.947	-0.04
679.131	-0.09
679.314	0.08
679.498	-0
679.681	-0.02
679.865	0.01
680.048	-0.02
680.231	-0.01
680.415	-0.05
680.598	-0.04
680.781	-0.01
680.965	-0.02
681.148	0.02
681.331	-0.02
681.514	0.03
681.698	-0.02
681.881	-0.01
682.064	0.04
682.247	0.03
682.43	-0.05
682.614	0.03
682.797	0.04
682.98	0.08
683.163	-0.02
683.346	0.04
683.529	-0.05
683.712	-0.03
683.895	-0.01
684.078	-0.1
684.261	0.03
684.444	0.01
684.627	0.02
684.81	-0.04
684.993	-0.02
685.176	0.05
685.359	-0.04
685.542	-0.06
685.725	0.07
685.908	0.02
686.091	-0.02
686.274	0.06
686.457	0.04
686.639	-0.01
686.822	0.04
687.005	-0.02
687.188	0.04
687.371	0.04
687.553	-0.02
687.736	0.02
687.919	0.11
688.102	0.09
688.284	-0.05
688.467	0
688.65	-0.02
688.832	-0
689.015	-0.01
689.197	-0.08
689.38	0.1
689.563	0.1
689.745	-0.05
689.928	-0.06
690.11	0.01
690.293	0.07
690.475	-0.06
690.658	0.03
690.84	0
691.023	-0.06
691.205	-0.03
691.388	-0.02
691.57	0.06
691.752	0
691.935	-0.1
692.117	0.01
692.3	0.05
692.482	0.04
692.664	-0.01
692.847	0.03
693.029	0.14
693.211	0.05
693.393	-0.01
693.576	0.01
693.758	0.05
693.94	0.02
694.122	-0.06
694.304	-0.05
694.487	-0.09
694.669	0.08
694.851	-0.08
695.033	0.02
695.215	-0.04
695.397	-0.1
695.579	0.02
695.761	-0.01
695.943	-0.15
696.125	0.03
696.308	0.03
696.49	-0.13
696.671	0.16
696.853	0.03
697.035	0.14
697.217	-0
697.399	0.06
697.581	-0.03
697.763	-0.01
697.945	-0.09
698.127	-0.02
698.309	0.08
698.491	0.03
698.672	0.01
698.854	0.06
699.036	0.1
699.218	-0.03
699.399	0.06
699.581	0.09
699.763	-0.01
699.945	-0.06
700.126	-0.07
700.308	0.07
700.49	-0.04
700.671	-0.08
700.853	-0.05
701.035	0.02
701.216	0.03
701.398	-0.07
701.579	-0.03
701.761	0.07
701.943	-0.01
702.124	-0.05
702.306	0
702.487	0.12
702.669	0.01
702.85	-0.05
703.031	-0.04
703.213	0.06
703.394	0.1
703.576	-0.05
703.757	0.14
703.938	0.06
704.12	0.21
704.301	0
704.483	-0.09
704.664	0.05
704.845	0.08
705.026	0.05
705.208	-0.06
705.389	-0.02
705.57	-0.03
705.751	-0.03
705.933	0
706.114	0.06
706.295	0.03
706.476	-0.09
706.657	0.08
706.838	0.03
707.02	0.07
707.201	-0.03
707.382	-0.06
707.563	0.07
707.744	-0.03
707.925	-0.06
708.106	-0.08
708.287	0.04
708.468	0.11
708.649	0.01
708.83	0.01
709.011	-0.05
709.192	0.05
709.373	-0.09
709.554	-0.03
709.734	0.06
709.915	0.07
710.096	-0.04
710.277	-0.14
710.458	-0.04
710.639	0.01
710.819	-0.13
711	0.01
711.181	0.03
711.362	0.06
711.542	-0.04
711.723	-0.01
711.904	0.05
712.085	0.09
712.265	-0.02
712.446	-0.05
712.627	-0
712.807	-0.01
712.988	-0
713.168	-0.07
713.349	0.1
713.53	-0.08
713.71	-0.07
713.891	-0.09
714.071	-0.04
714.252	-0.03
714.432	-0.05
714.613	-0.11
714.793	-0.02
714.974	0.12
715.154	0.08
715.334	0.02
715.515	0.08
715.695	-0.06
715.876	-0.03
716.056	0.03
716.236	-0.04
716.417	-0.04
716.597	-0.03
716.777	0.16
716.957	0.03
717.138	0.03
717.318	-0.01
717.498	-0.04
717.678	-0.03
717.859	-0.02
718.039	-0.05
718.219	0.03
718.399	0.06
718.579	-0.05
718.759	-0.07
718.939	0.04
719.12	0.01
719.3	-0.01
719.48	-0.13
719.66	-0.14
719.84	0.03
720.02	-0.07
720.2	-0.04
720.38	-0.01
720.56	0.14
720.74	-0.04
720.92	0.04
721.1	0.12
721.279	0.05
721.459	0.02
721.639	-0.07
721.819	0.07
721.999	-0.09
722.179	0.03
722.359	-0.14
722.538	-0.01
722.718	0.04
722.898	-0.11
723.078	-0
723.257	-0.09
723.437	-0.01
723.617	0.04
723.797	-0.06
723.976	0.03
724.156	0.04
724.336	0.12
724.515	0.09
724.695	-0.15
724.874	0.05
725.054	0.02
725.234	-0.07
725.413	-0.04
725.593	-0.01
725.772	-0.01
725.952	-0.03
726.131	-0.09
726.311	-0.01
726.49	-0
726.67	-0.05
726.849	-0.03
727.028	0.04
727.208	-0.04
727.387	-0.01
727.567	-0.01
727.746	-0.01
727.925	-0.01
728.105	-0.13
728.284	-0.1
728.463	-0.07
728.643	-0.02
728.822	-0.11
729.001	-0.11
729.18	-0.04
729.359	0.03
729.539	-0.06
729.718	-0.03
729.897	0.05
730.076	-0.05
730.255	-0.11
730.434	0.02
730.614	0.12
730.793	0.07
730.972	0.01
731.151	-0.04
731.33	0.08
731.509	0.05
731.688	0.01
731.867	-0.07
732.046	-0.15
732.225	0.17
732.404	-0.06
732.583	-0.08
732.762	0.02
732.941	0.01
733.12	-0.02
733.298	-0.1
733.477	0.13
733.656	-0.04
733.835	-0.13
734.014	0.07
734.193	-0.01
734.371	0.04
734.55	0.07
734.729	-0.09
734.908	-0.04
735.086	0.01
735.265	0.12
735.444	-0.08
735.623	-0.04
735.801	-0.15
735.98	-0.05
736.159	-0.01
736.337	-0.08
736.516	0.01
736.694	0
736.873	-0.09
737.052	0.18
737.23	0.03
737.409	-0.05
737.587	0.13
737.766	-0.16
737.944	-0.09
738.123	0.04
738.301	0.02
738.479	-0.05
738.658	0.01
738.836	-0.19
739.015	0.1
739.193	0.03
739.371	-0.07
739.55	-0.06
739.728	-0.08
739.906	0.07
740.085	0.18
740.263	0.02
740.441	-0.17
740.62	0.19
740.798	0.1
740.976	-0.04
741.154	-0.07
741.332	0.16
741.511	0
741.689	-0
741.867	0.11
742.045	0.02
742.223	-0.03
742.401	-0.06
742.579	-0.06
742.757	0.13
742.935	-0.15
743.114	-0.1
743.292	-0.07
743.47	-0.01
743.648	0.03
743.826	0.01
744.004	0.11
744.181	0.08
744.359	-0.01
744.537	-0.04
744.715	0.04
744.893	-0.09
745.071	-0.04
745.249	0.01
745.427	0.05
745.605	0.09
745.782	0.03
745.96	-0.02
746.138	0.06
746.316	0.11
746.493	-0.09
746.671	-0.17
746.849	-0.06
747.027	0.17
747.204	-0.13
747.382	-0.01
747.56	-0.16
747.737	0.08
747.915	-0.05
748.093	0.07
748.27	-0.04
748.448	-0.07
748.625	-0.03
748.803	-0.1
748.98	-0.04
749.158	0.06
749.335	0.05
749.513	-0.14
749.69	-0.1
749.868	-0.01
750.045	0.04
750.223	-0.02
750.4	-0.08
750.578	0.11
750.755	0.01
750.932	-0.14
751.11	0.12
751.287	-0.09
751.464	0.06
751.642	-0.13
751.819	0.05
751.996	0.12
752.173	-0.06
752.351	-0.1
752.528	-0
752.705	0.05
752.882	-0.01
753.06	0.01
753.237	0.02
753.414	0.16
753.591	0.12
753.768	-0.02
753.945	-0.15
754.122	-0.07
754.299	0.08
754.476	-0.18
754.654	0.05
754.831	0.01
755.008	0.05
755.185	-0.16
755.362	-0.2
755.539	0.05
755.716	-0.06
755.892	-0.03
756.069	-0.1
756.246	-0.02
756.423	0.01
756.6	0.18
756.777	-0.02
756.954	0.25
757.131	0.03
757.307	-0.11
757.484	-0.16
757.661	0.04
757.838	0.09
758.015	-0.11
758.191	0.03
758.368	0.06
758.545	0.09
758.721	0.04
758.898	-0.21
759.075	0.15
759.251	-0
759.428	0.04
759.605	-0.18
759.781	-0.05
759.958	0.02
760.134	0.02
760.311	-0.12
760.488	0.07
760.664	0.12
760.841	-0.06
761.017	-0.04
761.194	0.03
761.37	0.05
761.547	0.04
761.723	-0.12
761.899	0.05
762.076	-0.08
762.252	-0.04
762.429	-0.08
762.605	0.08
762.781	-0
762.958	0.08
763.134	0
763.31	-0.07
763.486	0.1
763.663	-0.16
763.839	0.13
764.015	-0.22
764.191	-0.05
764.368	-0.07
764.544	-0.16
764.72	-0.05
764.896	0.14
765.072	0.07
765.248	0.01
765.425	-0.04
765.601	0
765.777	0.06
765.953	-0.28
766.129	-0.14
766.305	-0.06
766.481	0.07
766.657	0
766.833	0.22
767.009	-0.15
767.185	-0.02
767.361	-0.11
767.537	0.02
767.713	0.11
767.889	-0.04
768.065	-0.04
768.24	-0.15
768.416	0.05
768.592	-0.11
768.768	-0.15
768.944	0.03
769.12	-0.23
769.295	-0.05
769.471	-0.16
769.647	-0.12
769.823	0.16
769.998	-0.13
770.174	-0.11
770.35	0.45
770.525	0.32
770.701	0.04
770.877	-0.13
771.052	-0.07
771.228	0.1
771.403	0.03
771.579	0.03
771.755	0.33
771.93	-0.04
772.106	-0.06
772.281	-0.17
772.457	-0.09
772.632	0
772.808	-0.26
772.983	-0.06
773.159	-0.35
773.334	0.14
773.509	-0.01
773.685	-0.16
773.86	0.37
774.036	0.36
774.211	0.03
774.386	-0.18
774.562	-0.05
774.737	0.15
774.912	-0.08
775.087	0.08
775.263	0.12
775.438	-0.04
775.613	-0.1
775.788	-0.14
775.964	0.07
776.139	0.29
776.314	-0.08
776.489	-0.06
776.664	0.06
776.839	-0.11
777.014	0.11
777.19	0.06
777.365	0.19
777.54	0.26
777.715	-0.1
777.89	0.04
778.065	-0.14
778.24	0.02
778.415	0.01
778.59	-0.23
778.765	-0.16
778.94	-0.01
779.115	-0.05
779.289	0.01
779.464	0.08
779.639	-0.15
779.814	-0.17
779.989	-0.23
780.164	0.08
780.339	0.07
780.513	-0.01
780.688	-0.19
780.863	0.12
781.038	0.14
781.212	-0.27
781.387	-0.03
781.562	0.26
781.737	0.09
781.911	0.13
782.086	-0.01
782.261	-0.05
782.435	0.45
782.61	-0.1
782.784	-0.08
782.959	0.27
783.134	-0.05
783.308	-0.28
783.483	0
783.657	0.31
783.832	0.06
784.006	-0.31
784.181	0.1
784.355	0.07
784.53	-0.16
784.704	-0.1
784.878	0.21
785.053	0.13
785.227	0.28
785.402	0.32
785.576	-0.22
785.75	-0.08
785.925	-0.04
786.099	-0.07
786.273	0.08
786.448	-0.11
786.622	0.03
786.796	-0.08
786.97	-0.14
787.145	0.63
787.319	-0.21
787.493	0.03
787.667	-0.44
787.841	-0.02
788.015	0.04
788.19	-0.21
788.364	-0.12
788.538	0.11
788.712	0.05
788.886	0.05
789.06	0.06
789.234	0.07
789.408	-0.09
789.582	-0.09
789.756	-0.1
789.93	-0.05
790.104	-0.27
790.278	-0.07
790.452	-0.18
790.626	-0.03
790.8	-0.2
790.973	0.05
791.147	0.3
791.321	0.45
791.495	0.06
791.669	-0.09
791.843	-0.16
792.016	0.12
792.19	0.36
792.364	-0.1
792.538	0.51
792.711	0.26
792.885	0.03
793.059	-0.18
793.233	-0.56
793.406	0.04
793.58	0.02
793.754	0.06
793.927	-0.12
794.101	0.17
794.274	0.15
794.448	0.33
794.622	-0.31
794.795	0.08
794.969	-0.31
795.142	0.21
795.316	-0.07
795.489	-0.26
795.663	0.51
795.836	0
796.009	-0.19
796.183	0.33
796.356	-0.17
796.53	0.13
796.703	0.01
796.876	0.53
797.05	0.08
797.223	-0.15
797.396	0.02
797.57	0.18
797.743	0.34
797.916	0.01
798.09	-0.24
798.263	0.35
798.436	0.25
798.609	-0.27
798.782	-0.13
798.956	0.08
799.129	-0.12
799.302	-0.15
799.475	-0.1
799.648	-0.24
799.821	-0.22
799.994	-0.14
800.167	-0.37
800.34	-0.02
800.514	-0.17
800.687	-0.12
800.86	-0.25
801.033	0.09
801.206	0.13
801.379	-0.21
801.551	0.3
801.724	0.24
801.897	0.36
802.07	0.03
802.243	-0.31
802.416	0.07
802.589	-0
802.762	0.15
802.935	-0.26
803.107	0.09
803.28	0.35
803.453	0.12
803.626	-0.44
803.798	-0.03
803.971	-0.12
804.144	0.12
804.317	-0.09
804.489	0.09
804.662	-0.25
804.835	0.13
805.007	-0.33
805.18	0.65
805.353	0.11
805.525	-0.35
805.698	-0.19
805.87	0.31
806.043	0.38
806.215	-0.43
806.388	-0.45
806.56	-0.01
806.733	0.36
806.905	0.25
807.078	-0.22
807.25	-0.24
807.423	0.07
807.595	-0.14
807.768	0.13
807.94	0.74
808.112	-0.18
808.285	-0.03
808.457	-0.3
808.629	-0.17
808.802	0.24
808.974	-0.06
809.146	-0.43
809.318	-0.18
809.491	0.05
809.663	0.01
809.835	-0.41
810.007	0.25
810.18	0.39
810.352	-0.66
810.524	-0.36
810.696	0.43
810.868	0.45
811.04	0.15
811.212	-0.32
811.384	0.09
811.556	0.34
811.728	0.16
811.901	0.87
812.073	0.08
812.245	0.54
812.417	-0.05
812.589	-0.83
812.76	0.08
812.932	0.32
813.104	0.19
813.276	0.39
813.448	0.31
813.62	-0.05
813.792	-0.05
813.964	0.01
814.136	0.4
814.307	-0.1
814.479	-0.19
814.651	-0.16
814.823	0.71
814.995	-0.5
815.166	-0.14
815.338	-0.12
815.51	-0.61
815.681	1.07
815.853	0.03
816.025	-0.24
816.196	0.71
816.368	0.33
816.54	-0.67
816.711	-0.34
816.883	0.71
817.054	1.29
817.226	-0.73
817.398	0.09
817.569	-0.31
817.741	0.22
817.912	-0
818.084	-0.26
818.255	0.18
818.426	-0.16
818.598	-0.02
818.769	-0.36
818.941	0.48
819.112	0.45
819.283	0.27
819.455	-0.34
819.626	-0.21
819.798	0.45
819.969	0.14
820.14	-0.31
820.311	0.44
820.483	-0.37
820.654	-0.24
820.825	-0.33
820.996	-0.17
821.168	-0.22
821.339	-0.06
821.51	-0.53
821.681	-0.05
821.852	-0.04
822.023	-0.35
822.195	-0.82
822.366	0.06
822.537	0.67
822.708	-0.1
822.879	-0.35
823.05	0.55
823.221	-0.25
823.392	0.09
823.563	-0.28
823.734	0.34
823.905	0.14
824.076	-0.44
824.247	-0.54
824.418	-0.36
824.589	0.12
824.759	-0.21
824.93	-0.18
825.101	-0.75
825.272	0.23
825.443	0.01
825.614	0.48
825.784	-1.24
825.955	0.3
826.126	0.1
826.297	-0.01
826.467	0.77
826.638	0.51
826.809	-0.68
826.98	0.23
827.15	0.44
827.321	-0.36
827.492	0.8
827.662	0.13
827.833	0.69
828.003	0.11
828.174	-0.86
828.345	-0.18
828.515	0.74
828.686	0.03
828.856	-0.26
829.027	-0.13
829.197	-0.46
829.368	-0.02
829.538	-0.6
829.709	-0.47
829.879	0.28
830.049	0.14
830.22	-0.22
830.39	-0.51
830.56	0.63
830.731	0.01
830.901	-0.32
831.072	0.18
831.242	0.04
831.412	0.72
831.582	-0.31
831.753	-0.53
831.923	0.69
832.093	0.45
832.263	0.24
832.434	-0.6
832.604	-0.17
832.774	0.3
832.944	-0.5
833.114	-0.23
833.284	0.11
833.454	-0.61
833.624	-0.35
833.795	-0.57
833.965	0.22
834.135	0.32
834.305	-0.84
834.475	-0.8
834.645	-0.38
834.815	0.08
834.985	-0.21
835.155	-0.11
835.325	0.22
835.494	-0.17
835.664	-0.5
835.834	-1.26
836.004	-0.21
836.174	0.29
836.344	-0.34
836.514	-1.03
836.684	-0.8
836.853	0.42
837.023	-0.17
837.193	-0.32
837.363	0.74
837.532	1.29
837.702	-0.42
837.872	-0.74
838.041	0.22
838.211	1.72
838.381	-0.88
838.55	-0.06
838.72	2.39
838.89	1.05
839.059	-0.26
839.229	-0.64
839.398	1.3
839.568	-0.47
839.738	-0.49
839.907	0.88
840.077	-0.14
840.246	-1.55
840.416	-0.84
840.585	-0.29
840.755	1.42
840.924	1.29
841.093	-0.47
841.263	-0.38
841.432	-0.15
841.602	-0.63
841.771	-0.59
841.94	0.52
842.11	1.81
842.279	1.52
842.448	-1.36
842.617	-0.75
842.787	1.5
842.956	-0.53
843.125	0.24
843.294	0.42
843.464	1.12
843.633	0.61
843.802	-0.61
843.971	-0.6
844.14	0.25
844.309	0.33
844.479	-0.92
844.648	-0.98
844.817	-0.79
844.986	0.25
845.155	-0.14
845.324	-0.51
845.493	-0.34
845.662	-1.3
845.831	0.52
846	0.4
846.169	-0.76
846.338	1.07
846.507	-0.05
846.676	0.83
846.844	-0.11
847.013	0.04
847.182	-0.3
847.351	-0.19
847.52	-0
847.689	1.13
847.858	-0.39
848.026	-0.54
848.195	0.26
848.364	-1.09
848.533	-0.17
848.701	-0.61
848.87	0
849.039	0.88
849.207	1.3
849.376	1.48
849.545	2.08
849.713	0.14
849.882	-0.92
850.051	-0.28
850.219	0.72
850.388	1.3
850.556	-1.1
850.725	-0.33
850.893	0.4
851.062	-0.42
851.23	0.2
851.399	-0.85
851.567	-0.59
851.736	0.14
851.904	-0.5
852.073	0.21
852.241	-0.03
852.41	-0.09
852.578	-0.85
852.746	-0.93
852.915	0.04
853.083	0.24
853.251	-2.09
853.42	-0.58
853.588	-0.1
853.756	1.81
853.924	-0.59
854.093	-1.01
854.261	-0.71
854.429	-2.24
854.597	0.13
854.765	-1.57
854.934	0.66
855.102	-0.56
855.27	-0.93
855.438	0.22
855.606	0.91
855.774	0.95
855.942	-1.68
856.11	-1.76
856.278	-0.11
856.446	0.07
856.614	-0.89
856.782	-0.94
856.95	0.88
857.118	0.53
857.286	-0.35
857.454	-1.02
857.622	1.82
857.79	-0.11
857.958	-0.58
858.126	-0.8
858.294	-2.89
858.462	-0.94
858.629	0.14
858.797	-0.44
858.965	0.85
859.133	-0.3
859.301	-0.4
859.468	0.58
859.636	-0.88
859.804	1.53
859.971	0.64
860.139	-1.2
860.307	1.53
860.474	0.93
860.642	-0.52
860.81	-1.93
860.977	-0.33
861.145	1.62
861.313	-0.4
861.48	-1.2
861.648	1.46
861.815	-0.71
861.983	-1.3
862.15	-1.51
862.318	0.52
862.485	1.89
862.653	-0.84
862.82	-1.09
862.988	2.44
863.155	0.23
863.322	-0.71
863.49	-1.68
863.657	-0.25
863.824	1.44
863.992	0.78
864.159	0.42
864.326	1.46
864.494	-1
864.661	2.76
864.828	-1.55
864.996	1.34
865.163	0.67
865.33	-0.86
865.497	-3.18
865.664	-0.96
865.832	-2.02
865.999	-0.08
866.166	-0.86
866.333	-0.04
866.5	-0.8
866.667	-0.16
866.834	-0.79
867.001	1.78
867.168	-0.51
867.335	-0.3
867.502	-2.51
867.669	0.07
867.836	1.96
868.003	-0.58
868.17	1.67
868.337	1.65
868.504	5.42
868.671	-1.8
868.838	-1.2
869.005	-1.32
869.172	0.05
869.339	-0.16
869.505	-0.15
869.672	1.11
869.839	2.45
870.006	-0.09
870.173	-2.44
870.339	-0.45
870.506	3.31
870.673	0.61
870.84	0.62
871.006	-0.48
871.173	-0.06
871.34	-0.15
871.506	-1.72
871.673	0.22
871.839	-0.99
872.006	-0.47
872.173	0.35
872.339	-1.48
872.506	1.57
872.672	-0.91
872.839	-3.7
873.005	-0.17
873.172	2.59
873.338	1.08
873.505	-0.95
873.671	3.16
873.838	1.8
874.004	-2.83
874.171	-2.42
874.337	0.52
874.503	2.64
874.67	0.58
874.836	-1.08
875.002	2.95
875.169	1.33
875.335	-1.42
875.501	-0.69
875.668	2.16
875.834	-0.75
876	0.29
876.166	1.12
876.332	1.68
876.499	1.52
876.665	-1.04
876.831	0.68
876.997	2.57
877.163	-0.19
877.329	-2.57
877.495	0.72
877.662	2.08
877.828	1.62
877.994	-0.23
878.16	-3.48
878.326	-1.88
878.492	-1.62
878.658	-1.81
878.824	0.6
878.99	0.86
879.156	-2.17
879.322	2.6
879.487	-0.81
879.653	0.03
879.819	0.81
879.985	-1.98
880.151	-0.68
880.317	1.6
880.483	-0.76
880.648	2.79
880.814	-2.53
880.98	1.19
881.146	-2.92
881.312	-1.43
881.477	-2.47
881.643	0.37
881.809	2.48
881.974	2.43
882.14	-3.56
882.306	-1.57
882.471	2.1
882.637	-2.64
882.803	1.25
882.968	2.89
883.134	5.23
883.299	-0.38
883.465	0.07
883.63	0.49
883.796	1.22
883.961	0.52
884.127	0.03
884.292	-3.65
884.458	-0.62
884.623	-0.62
