Data from Apollo_Calib_20240827__AbsoluteIrradiance__384__05-33-03-088.txt Node

Date: Wed Aug 28 05:33:03 BST 2024
User: biology
Spectrometer: FLMT08252
Trigger mode: 0
Integration Time (sec): 5.000000E-1
Scans to average: 5
Electric dark correction enabled: true
Nonlinearity correction enabled: false
Boxcar width: 0
XAxis mode: Wavelengths
Number of Pixels in Spectrum: 3648
>>>>>Begin Spectral Data<<<<<
179.588	-0
179.809	-0
180.03	-0
180.251	-0
180.473	-0
180.694	0
180.915	0
181.136	-0
181.357	0
181.578	0
181.799	-0
182.02	-0
182.241	-0
182.462	-0
182.683	0
182.904	-0
183.125	-0
183.346	0
183.567	-0
183.788	-0
184.009	-0
184.23	0
184.451	0
184.672	-0
184.892	-0
185.113	0
185.334	0
185.555	-0
185.776	-0
185.996	0
186.217	0
186.438	-0
186.659	-0
186.879	0
187.1	0
187.321	0
187.541	-0
187.762	0
187.983	0
188.203	-0
188.424	-0
188.644	-0
188.865	-0
189.086	-0
189.306	-0
189.527	-0
189.747	0
189.968	-0
190.188	0
190.409	0
190.629	0
190.849	-0
191.07	-0
191.29	0
191.511	-0
191.731	-0
191.951	-0
192.172	-0
192.392	-0
192.612	-0
192.833	-0
193.053	0
193.273	0
193.493	-0
193.714	-0
193.934	0
194.154	0
194.374	0
194.594	-0
194.815	0
195.035	-0
195.255	0
195.475	-0
195.695	0
195.915	0
196.135	-0
196.355	0
196.575	0
196.795	0
197.015	-0
197.235	-0
197.455	-0
197.675	0
197.895	-0
198.115	-0
198.335	0
198.555	-0
198.775	-0
198.995	-0
199.214	0
199.434	-0
199.654	-0
199.874	-0
200.094	0.84
200.313	-0.01
200.533	-0.81
200.753	-1.13
200.973	0.97
201.192	0.74
201.412	-1
201.632	-0.55
201.851	1.13
202.071	-0.35
202.291	-0.47
202.51	-0.72
202.73	0.2
202.95	-0.45
203.169	-0.86
203.389	-0.2
203.608	-0.27
203.828	-0.5
204.047	-0.65
204.267	0.13
204.486	0.18
204.706	0.01
204.925	-0.11
205.145	-0.46
205.364	0.19
205.583	0.42
205.803	-0.52
206.022	-0.46
206.242	-0.27
206.461	-0.2
206.68	-0.24
206.9	0.06
207.119	0.36
207.338	0.26
207.557	-0.17
207.777	-0.35
207.996	-0.23
208.215	0.44
208.434	-0.35
208.654	-0.49
208.873	0.01
209.092	0.51
209.311	-0.28
209.53	-0.17
209.749	-0.03
209.968	-0.09
210.187	-0.3
210.407	-0.67
210.626	-0.15
210.845	0.34
211.064	0.09
211.283	-0.17
211.502	0.11
211.721	-0.05
211.94	-0.1
212.159	-0.07
212.377	0.14
212.596	0.2
212.815	0.11
213.034	-0.07
213.253	0.27
213.472	0.05
213.691	-0.22
213.91	-0.39
214.128	-0.14
214.347	0.32
214.566	-0.39
214.785	-0.41
215.003	0.31
215.222	0.03
215.441	-0.12
215.66	-0.39
215.878	-0.15
216.097	0.2
216.316	-0.3
216.534	-0.32
216.753	-0.26
216.972	-0.14
217.19	-0.16
217.409	-0.28
217.627	-0.17
217.846	0.02
218.064	-0.01
218.283	-0.28
218.501	0.55
218.72	0.21
218.938	-0.34
219.157	-0.19
219.375	0.03
219.594	0.22
219.812	-0.15
220.031	-0.18
220.249	0.13
220.467	0.26
220.686	-0.12
220.904	-0.14
221.122	-0.17
221.341	0.37
221.559	-0.08
221.777	-0.36
221.995	-0.04
222.214	0
222.432	-0.14
222.65	0.04
222.868	0.08
223.086	0.06
223.305	0.02
223.523	-0.07
223.741	0.15
223.959	-0.11
224.177	-0.38
224.395	-0.23
224.613	-0.11
224.831	0.04
225.049	-0.23
225.267	-0.13
225.485	-0.08
225.703	-0.21
225.921	-0.1
226.139	-0.17
226.357	0.03
226.575	0.04
226.793	-0.18
227.011	0.59
227.229	0.02
227.447	0.01
227.665	-0.15
227.883	-0.27
228.1	0
228.318	0.02
228.536	-0.32
228.754	-0.16
228.972	0.17
229.189	0.12
229.407	-0.11
229.625	-0.13
229.843	0.17
230.06	0.06
230.278	-0.09
230.496	0.01
230.713	0.05
230.931	0.16
231.149	0
231.366	-0.33
231.584	-0.03
231.801	0.26
232.019	-0.07
232.236	-0.17
232.454	-0.14
232.671	0.1
232.889	-0.09
233.106	-0.2
233.324	-0.05
233.541	-0.08
233.759	-0.03
233.976	-0.1
234.194	-0.05
234.411	-0.01
234.628	-0.15
234.846	-0.06
235.063	0.03
235.28	-0.09
235.498	-0.11
235.715	-0.17
235.932	0.19
236.149	-0.03
236.367	-0.1
236.584	0.02
236.801	-0.11
237.018	0.05
237.236	-0.06
237.453	-0.22
237.67	0.01
237.887	-0.04
238.104	-0.05
238.321	-0.2
238.538	-0.12
238.755	0.11
238.973	-0.16
239.19	-0.04
239.407	0.13
239.624	-0.08
239.841	-0.12
240.058	-0.06
240.275	0.01
240.492	-0.07
240.709	-0.06
240.925	-0.05
241.142	-0.02
241.359	-0.2
241.576	-0.11
241.793	-0.08
242.01	-0.09
242.227	0.1
242.444	0.03
242.66	0.03
242.877	-0
243.094	-0.03
243.311	-0.02
243.527	0.01
243.744	-0.02
243.961	0.01
244.178	-0.03
244.394	-0.03
244.611	0.12
244.828	0.18
245.044	-0.17
245.261	-0.07
245.477	0.01
245.694	0.13
245.911	-0.06
246.127	0.02
246.344	0.08
246.56	0.06
246.777	-0.07
246.993	-0.04
247.21	0.03
247.426	-0
247.643	-0.02
247.859	-0.09
248.076	-0.19
248.292	0.14
248.508	-0.1
248.725	0.05
248.941	0.01
249.157	0.15
249.374	-0.09
249.59	-0.1
249.806	-0.02
250.023	0.04
250.239	-0.19
250.455	-0.02
250.671	-0.01
250.888	0.07
251.104	0.05
251.32	-0.09
251.536	-0.05
251.752	-0.06
251.969	-0.03
252.185	0.07
252.401	0.22
252.617	-0.01
252.833	-0.05
253.049	0.02
253.265	-0.07
253.481	0.05
253.697	-0.1
253.913	-0.17
254.129	0.01
254.345	0.06
254.561	-0.02
254.777	-0.04
254.993	0.04
255.209	0
255.425	-0.08
255.641	-0.1
255.857	0.03
256.073	0.02
256.288	-0.08
256.504	-0.07
256.72	0.04
256.936	0.15
257.152	0
257.367	-0.07
257.583	-0.04
257.799	0.01
258.015	-0.09
258.23	-0.06
258.446	0.09
258.662	0.01
258.877	-0.09
259.093	-0.14
259.309	-0.02
259.524	0.07
259.74	-0.09
259.955	-0.1
260.171	0.01
260.387	0.01
260.602	0.09
260.818	0.02
261.033	-0.1
261.249	-0.08
261.464	-0.09
261.68	-0.11
261.895	0.03
262.11	0.04
262.326	0.04
262.541	-0.09
262.757	0.05
262.972	-0.01
263.187	-0.01
263.403	-0.06
263.618	0.03
263.833	-0.05
264.049	-0.1
264.264	-0.07
264.479	0.01
264.694	0.09
264.91	-0.06
265.125	0.03
265.34	0.07
265.555	0.12
265.77	-0.02
265.986	-0.04
266.201	0.08
266.416	0.07
266.631	-0.05
266.846	-0.02
267.061	-0.01
267.276	0.07
267.491	-0.12
267.706	0.06
267.921	-0
268.136	0.03
268.351	-0.05
268.566	-0.1
268.781	0.08
268.996	0.03
269.211	-0.05
269.426	-0.06
269.641	0
269.856	0.01
270.071	-0.09
270.285	-0.1
270.5	0.03
270.715	0.05
270.93	-0.02
271.145	-0.01
271.359	0.04
271.574	-0.02
271.789	-0.01
272.004	-0.1
272.218	-0.04
272.433	0.04
272.648	-0.07
272.862	0.01
273.077	0.01
273.292	-0.03
273.506	-0.09
273.721	-0.11
273.936	0.03
274.15	0.05
274.365	-0.01
274.579	-0.02
274.794	0.05
275.008	0.05
275.223	-0.08
275.437	-0.02
275.652	0.05
275.866	0.01
276.081	-0.06
276.295	0.03
276.509	0.02
276.724	0.04
276.938	-0.02
277.153	-0.01
277.367	0.01
277.581	-0.04
277.796	-0.06
278.01	-0.08
278.224	0.07
278.438	0.08
278.653	-0.13
278.867	-0.02
279.081	-0.2
279.295	-0.05
279.51	-0
279.724	-0.09
279.938	0
280.152	-0.01
280.366	-0.07
280.58	0.02
280.794	0.09
281.008	0.03
281.222	0.06
281.437	0.05
281.651	0.03
281.865	0.07
282.079	-0.05
282.293	-0.07
282.507	-0.07
282.721	-0.01
282.935	-0.01
283.148	-0.07
283.362	-0.04
283.576	-0.06
283.79	-0.02
284.004	-0.08
284.218	0.04
284.432	-0.05
284.646	-0.02
284.859	-0.04
285.073	-0.05
285.287	0.01
285.501	-0.01
285.714	-0.02
285.928	0.01
286.142	0.01
286.356	-0.06
286.569	-0.04
286.783	0.04
286.997	0.03
287.21	0.03
287.424	-0.04
287.637	-0.03
287.851	-0.04
288.065	0.02
288.278	-0.03
288.492	-0.02
288.705	-0.02
288.919	0.02
289.132	-0.09
289.346	0.03
289.559	-0.11
289.773	-0.05
289.986	-0.03
290.2	-0.05
290.413	0.06
290.626	-0.06
290.84	-0.1
291.053	-0.01
291.267	0.05
291.48	-0.01
291.693	0.02
291.906	-0.04
292.12	-0
292.333	-0.02
292.546	-0.06
292.76	0.07
292.973	0
293.186	0.05
293.399	-0.05
293.612	0.08
293.826	-0.01
294.039	-0.05
294.252	0
294.465	0.05
294.678	0
294.891	0.02
295.104	-0.07
295.317	0.02
295.53	0
295.743	-0.02
295.956	-0.04
296.169	0.08
296.382	0.04
296.595	-0.04
296.808	-0.06
297.021	0.06
297.234	0.03
297.447	-0.02
297.66	0.01
297.873	0.07
298.086	0.01
298.299	-0.07
298.511	-0.05
298.724	-0.06
298.937	-0.04
299.15	-0.01
299.363	-0.03
299.575	0.03
299.788	-0
300.001	-0.02
300.213	-0.04
300.426	-0.05
300.639	-0.03
300.852	-0.05
301.064	0.05
301.277	0.04
301.489	0.05
301.702	0.03
301.915	-0.01
302.127	0.03
302.34	-0
302.552	-0.01
302.765	-0.07
302.977	0.03
303.19	-0.02
303.402	0.01
303.615	-0
303.827	-0.01
304.04	-0
304.252	0
304.464	-0.01
304.677	0.09
304.889	0.02
305.102	-0.02
305.314	-0.04
305.526	0.02
305.739	0.01
305.951	-0.05
306.163	-0.04
306.375	0.09
306.588	-0.01
306.8	-0.02
307.012	-0.06
307.224	-0.02
307.436	0.05
307.649	-0.06
307.861	0
308.073	0.02
308.285	-0.03
308.497	-0.04
308.709	-0.01
308.921	-0
309.133	0.06
309.346	0.01
309.558	-0.01
309.77	0.04
309.982	0.07
310.194	0.02
310.406	-0.05
310.617	0.06
310.829	-0
311.041	0.06
311.253	-0
311.465	-0.04
311.677	-0.03
311.889	0.01
312.101	-0.03
312.313	0.06
312.524	0.09
312.736	-0.1
312.948	-0
313.16	0.07
313.372	0.02
313.583	0.04
313.795	0.01
314.007	-0.02
314.218	0.01
314.43	0.01
314.642	-0.08
314.853	-0.05
315.065	0.02
315.277	-0
315.488	0.02
315.7	-0.01
315.912	0.03
316.123	-0.02
316.335	-0.03
316.546	0.12
316.758	-0.01
316.969	-0.07
317.181	-0.03
317.392	0.04
317.604	0.02
317.815	-0.04
318.026	-0.01
318.238	-0.04
318.449	0.02
318.661	-0.06
318.872	-0.07
319.083	-0.08
319.295	0
319.506	-0.02
319.717	0.01
319.929	0.02
320.14	0.02
320.351	-0.01
320.562	-0.04
320.774	-0.01
320.985	0.03
321.196	-0.09
321.407	-0.06
321.618	0.04
321.829	0.03
322.041	0.03
322.252	0.03
322.463	0.02
322.674	0.04
322.885	-0.04
323.096	0
323.307	-0.03
323.518	-0
323.729	-0.05
323.94	-0.03
324.151	-0.03
324.362	0.03
324.573	-0.02
324.784	-0.07
324.995	0.03
325.206	-0
325.417	-0.03
325.628	-0.02
325.838	0
326.049	-0
326.26	0.04
326.471	-0.05
326.682	0.07
326.892	-0.04
327.103	-0.11
327.314	-0.03
327.525	0.07
327.735	-0.01
327.946	-0.05
328.157	-0.04
328.368	0.02
328.578	-0.04
328.789	0.02
328.999	-0.03
329.21	-0.01
329.421	0
329.631	-0.01
329.842	-0.06
330.052	0.03
330.263	0.05
330.473	0.05
330.684	-0
330.894	-0.05
331.105	0.01
331.315	-0
331.526	-0.07
331.736	0.07
331.947	0.01
332.157	0
332.367	-0.06
332.578	0.01
332.788	0.05
332.999	-0
333.209	-0.01
333.419	-0.01
333.629	0.01
333.84	0.04
334.05	-0.01
334.26	0.04
334.47	0
334.681	0.03
334.891	-0
335.101	0.02
335.311	0.07
335.521	0.03
335.732	-0.05
335.942	0.07
336.152	0.02
336.362	0.02
336.572	-0.03
336.782	0.03
336.992	-0.01
337.202	0.01
337.412	-0.05
337.622	-0.01
337.832	0.01
338.042	0.02
338.252	-0.01
338.462	-0.03
338.672	-0.01
338.882	-0
339.092	0
339.302	0.06
339.511	-0.01
339.721	-0.02
339.931	-0.05
340.141	0.02
340.351	0.07
340.561	-0.01
340.77	0.03
340.98	0.01
341.19	0.02
341.4	0.01
341.609	-0.05
341.819	0.02
342.029	-0.07
342.238	-0
342.448	-0.04
342.658	0.02
342.867	-0.01
343.077	-0.01
343.286	0.04
343.496	0.04
343.706	0.09
343.915	-0.06
344.125	0.01
344.334	0.01
344.544	-0.09
344.753	-0.02
344.963	-0.01
345.172	0.01
345.381	-0.06
345.591	-0.04
345.8	-0.02
346.01	0.06
346.219	0.04
346.428	-0.17
346.638	0
346.847	0.02
347.056	0.03
347.266	-0.07
347.475	-0.04
347.684	-0.02
347.893	0.02
348.103	0
348.312	-0.01
348.521	0
348.73	0.03
348.94	0.01
349.149	0.01
349.358	-0.01
349.567	-0
349.776	-0.06
349.985	-0.02
350.194	0.06
350.403	0.07
350.612	-0.08
350.821	-0.05
351.03	-0.01
351.239	-0.05
351.448	-0
351.657	-0.05
351.866	0.06
352.075	-0.01
352.284	-0.04
352.493	-0.03
352.702	0.05
352.911	0.06
353.12	0
353.329	0.01
353.538	-0
353.746	0.01
353.955	-0.02
354.164	0
354.373	0
354.582	0.03
354.79	0.01
354.999	0.04
355.208	-0.01
355.416	0.04
355.625	-0.03
355.834	-0.05
356.042	0.04
356.251	-0.01
356.46	-0.03
356.668	0.02
356.877	0.07
357.085	0.04
357.294	-0.09
357.503	0.03
357.711	0.01
357.92	0.16
358.128	0.02
358.337	-0.04
358.545	0.03
358.754	-0
358.962	0.03
359.17	-0
359.379	-0.01
359.587	0
359.796	-0.02
360.004	0.03
360.212	0.05
360.421	0.02
360.629	0
360.837	-0.04
361.046	-0.01
361.254	0.12
361.462	-0.01
361.67	-0.02
361.879	-0
362.087	0.06
362.295	0.02
362.503	-0.02
362.711	-0.05
362.92	-0.04
363.128	-0.02
363.336	-0.03
363.544	-0.07
363.752	-0.03
363.96	-0.04
364.168	-0.03
364.376	-0.01
364.584	0.02
364.792	0.01
365	0.02
365.208	0.02
365.416	0.02
365.624	0.03
365.832	-0.01
366.04	0.04
366.248	0.02
366.456	-0.01
366.664	0.01
366.872	-0.03
367.079	0.04
367.287	-0
367.495	-0.03
367.703	-0.01
367.911	0.03
368.118	0.02
368.326	0.02
368.534	-0.01
368.742	0.06
368.949	-0.05
369.157	-0.03
369.365	0.05
369.572	-0.01
369.78	-0.02
369.988	0.05
370.195	0.03
370.403	0.03
370.61	-0.01
370.818	-0.03
371.026	0.05
371.233	-0.03
371.441	-0.02
371.648	-0.06
371.856	0.01
372.063	-0.03
372.271	-0.03
372.478	-0.03
372.685	-0.04
372.893	0.04
373.1	0
373.308	-0.01
373.515	0.08
373.722	0.02
373.93	-0.05
374.137	0.04
374.344	0.07
374.552	-0.01
374.759	-0.01
374.966	-0
375.173	-0.05
375.381	0.04
375.588	-0.02
375.795	-0.06
376.002	-0.05
376.209	-0.03
376.417	0.01
376.624	-0.02
376.831	0.04
377.038	0
377.245	-0.08
377.452	-0.01
377.659	-0.02
377.866	-0.04
378.073	-0.01
378.28	0.01
378.487	0.05
378.694	0.05
378.901	0
379.108	-0.02
379.315	0.06
379.522	0.11
379.729	0.04
379.936	-0
380.143	-0.03
380.35	-0.01
380.557	-0.03
380.763	-0.01
380.97	0.03
381.177	0.01
381.384	0.03
381.591	-0.06
381.797	0
382.004	0
382.211	-0
382.418	0
382.624	0.03
382.831	0.04
383.038	-0.01
383.244	-0.01
383.451	0.01
383.658	0.01
383.864	-0.02
384.071	-0.05
384.277	0.03
384.484	-0.03
384.69	0.03
384.897	-0.02
385.103	-0.02
385.31	-0.03
385.516	-0.01
385.723	-0.05
385.929	-0.02
386.136	-0.04
386.342	-0
386.549	-0.01
386.755	0.09
386.961	-0.02
387.168	-0.02
387.374	-0.01
387.58	0
387.787	0.01
387.993	0.02
388.199	-0.03
388.406	-0.07
388.612	-0.01
388.818	-0.07
389.024	-0.01
389.231	-0
389.437	0.07
389.643	-0
389.849	-0.01
390.055	0.01
390.261	0.02
390.467	-0.01
390.674	-0.03
390.88	-0.02
391.086	-0.05
391.292	-0.06
391.498	-0.01
391.704	0
391.91	-0.01
392.116	0
392.322	-0.11
392.528	0.01
392.734	0.02
392.94	-0.01
393.146	-0.04
393.352	0.03
393.557	-0.01
393.763	-0.03
393.969	0.01
394.175	0.02
394.381	0.02
394.587	-0.03
394.792	-0.05
394.998	0.06
395.204	0.02
395.41	-0.05
395.615	0.05
395.821	0.01
396.027	0.03
396.233	-0.06
396.438	0.01
396.644	0.07
396.85	0.02
397.055	-0.03
397.261	-0.04
397.466	0.03
397.672	-0.01
397.878	0.02
398.083	0.02
398.289	0.01
398.494	0.04
398.7	0.01
398.905	-0.08
399.111	0.08
399.316	-0.03
399.522	0.03
399.727	-0.02
399.932	-0.03
400.138	-0.05
400.343	0.01
400.549	-0.03
400.754	0.03
400.959	0.01
401.165	0.01
401.37	0.03
401.575	-0.07
401.78	0.05
401.986	-0.06
402.191	0
402.396	0
402.601	0.01
402.807	0.02
403.012	-0.03
403.217	0.06
403.422	-0.05
403.627	0.02
403.832	-0.02
404.037	0.06
404.243	0.03
404.448	-0.06
404.653	-0.03
404.858	0.02
405.063	0.03
405.268	-0.03
405.473	-0.03
405.678	-0.02
405.883	0.18
406.088	0.03
406.293	-0.05
406.498	-0.01
406.703	0.05
406.907	0.02
407.112	-0.02
407.317	0.01
407.522	0.03
407.727	-0.04
407.932	0
408.136	0.1
408.341	-0.06
408.546	-0.01
408.751	0.01
408.956	-0.01
409.16	0
409.365	-0
409.57	-0.02
409.774	0
409.979	0.01
410.184	0
410.388	-0.01
410.593	0.05
410.798	0.02
411.002	-0
411.207	-0.01
411.411	0.02
411.616	-0.04
411.82	-0
412.025	0.03
412.229	-0.04
412.434	0.06
412.638	-0.02
412.843	-0.02
413.047	-0.01
413.252	-0.04
413.456	-0.03
413.66	-0.02
413.865	-0.06
414.069	0.07
414.273	-0.03
414.478	-0.03
414.682	-0.04
414.886	-0.06
415.091	-0.02
415.295	-0.07
415.499	0.06
415.703	-0.02
415.908	-0.02
416.112	-0.1
416.316	-0.02
416.52	0
416.724	-0.05
416.929	-0.05
417.133	0.1
417.337	-0.03
417.541	-0.03
417.745	-0.01
417.949	0.05
418.153	-0.03
418.357	-0.1
418.561	0.04
418.765	-0.02
418.969	0.04
419.173	0.03
419.377	-0.08
419.581	0.1
419.785	-0.01
419.989	-0.1
420.193	-0.03
420.397	-0.07
420.601	0.03
420.804	0.04
421.008	-0.05
421.212	0
421.416	0.02
421.62	-0.07
421.823	0
422.027	0.08
422.231	-0.03
422.435	0.01
422.638	-0.01
422.842	0.04
423.046	-0.06
423.249	0.02
423.453	0.03
423.657	-0.01
423.86	-0.05
424.064	0.01
424.268	0.05
424.471	-0
424.675	0.04
424.878	0.05
425.082	-0.01
425.285	0.04
425.489	0
425.692	-0
425.896	-0.06
426.099	-0.01
426.303	-0.04
426.506	-0.08
426.71	-0.01
426.913	0.06
427.116	0.09
427.32	-0
427.523	-0.01
427.726	0.12
427.93	-0.08
428.133	0
428.336	-0.07
428.54	-0.03
428.743	0.01
428.946	0.05
429.149	-0.04
429.353	0.03
429.556	-0.02
429.759	-0.05
429.962	-0.02
430.165	0.02
430.368	-0.03
430.571	-0.03
430.775	0.01
430.978	-0.06
431.181	0.05
431.384	-0
431.587	0.03
431.79	-0.01
431.993	0.01
432.196	0.02
432.399	0.01
432.602	0.07
432.805	0.02
433.008	-0.03
433.211	-0.1
433.414	0.05
433.616	-0.01
433.819	0.02
434.022	-0.04
434.225	0.05
434.428	0.03
434.631	0.1
434.833	0.02
435.036	-0.05
435.239	0.08
435.442	-0.02
435.645	-0.04
435.847	-0.03
436.05	0.02
436.253	0.01
436.455	-0.01
436.658	-0.04
436.861	0.08
437.063	-0.02
437.266	-0.04
437.468	-0.01
437.671	0.12
437.874	-0.04
438.076	-0.08
438.279	-0.06
438.481	0.01
438.684	-0.11
438.886	0
439.089	-0.09
439.291	0.03
439.494	0.01
439.696	-0.03
439.899	-0.03
440.101	-0.01
440.303	-0.11
440.506	0.04
440.708	-0.02
440.91	0.03
441.113	-0.01
441.315	-0.02
441.517	-0.09
441.72	0.03
441.922	-0.07
442.124	-0.08
442.326	-0.02
442.529	0.06
442.731	0.01
442.933	0.1
443.135	-0.07
443.337	-0.06
443.539	-0.05
443.742	-0.03
443.944	-0.01
444.146	-0.03
444.348	-0.02
444.55	-0.03
444.752	-0.03
444.954	-0.03
445.156	-0.01
445.358	-0.06
445.56	0.05
445.762	0.02
445.964	-0.05
446.166	-0.07
446.368	-0.04
446.57	0.04
446.772	0.01
446.974	-0.02
447.175	0.03
447.377	-0.02
447.579	-0.04
447.781	-0.11
447.983	0.01
448.184	-0.03
448.386	0.01
448.588	-0.09
448.79	-0.01
448.991	-0.02
449.193	-0.01
449.395	-0.01
449.597	0.02
449.798	-0.04
450	0.05
450.202	-0
450.403	0.04
450.605	0.01
450.806	-0.03
451.008	-0.11
451.21	-0.02
451.411	0.01
451.613	-0.01
451.814	0.02
452.016	0.04
452.217	0.01
452.419	0.01
452.62	0.01
452.821	0.02
453.023	0.09
453.224	0.04
453.426	0
453.627	-0.02
453.828	0.06
454.03	-0.01
454.231	0.01
454.432	-0.04
454.634	0.1
454.835	-0.03
455.036	-0.02
455.238	0.01
455.439	0.06
455.64	-0.01
455.841	-0.01
456.042	0.13
456.244	0.03
456.445	-0.04
456.646	-0.11
456.847	0
457.048	0.02
457.249	0.02
457.45	0.18
457.651	-0.05
457.852	0.07
458.054	0.01
458.255	-0.01
458.456	-0.01
458.657	0.01
458.858	-0.05
459.058	-0.02
459.259	0.03
459.46	-0.03
459.661	-0.05
459.862	0.08
460.063	-0
460.264	0.07
460.465	-0.04
460.666	0.08
460.866	-0.03
461.067	0.05
461.268	-0.01
461.469	-0.01
461.67	-0.02
461.87	-0.06
462.071	-0.01
462.272	-0.07
462.473	-0.01
462.673	0.03
462.874	-0.1
463.075	-0.01
463.275	-0.07
463.476	0.02
463.676	-0
463.877	-0.02
464.078	-0.02
464.278	0.02
464.479	-0.03
464.679	-0.03
464.88	0.02
465.08	0.09
465.281	-0.06
465.481	-0.06
465.682	-0
465.882	0.02
466.083	0.03
466.283	0.01
466.483	-0.03
466.684	-0.05
466.884	0
467.085	-0.04
467.285	0.05
467.485	-0.01
467.686	0.02
467.886	-0.06
468.086	-0.01
468.286	0.01
468.487	-0
468.687	-0.08
468.887	-0.05
469.087	0.05
469.287	0.02
469.488	-0.06
469.688	0.01
469.888	0.07
470.088	0.04
470.288	0.04
470.488	0.04
470.688	-0.04
470.888	-0.01
471.088	-0
471.288	0.04
471.488	0.03
471.688	-0
471.888	-0.03
472.088	0.03
472.288	0.02
472.488	-0.03
472.688	0
472.888	-0.05
473.088	0.02
473.288	0.05
473.488	-0.02
473.688	0.07
473.887	0
474.087	-0.04
474.287	0
474.487	-0.05
474.687	-0
474.886	-0.01
475.086	-0
475.286	0.03
475.486	-0
475.685	-0.03
475.885	0
476.085	-0
476.284	-0
476.484	-0.02
476.684	0
476.883	0.07
477.083	0.03
477.282	-0.01
477.482	0.05
477.681	0.03
477.881	0.02
478.08	-0.05
478.28	-0.04
478.479	0.05
478.679	0.07
478.878	-0.01
479.078	-0.03
479.277	0.02
479.477	-0.03
479.676	0.04
479.875	-0.01
480.075	-0.07
480.274	0.02
480.473	0.02
480.673	-0
480.872	0.05
481.071	0.03
481.271	0
481.47	-0.02
481.669	-0.03
481.868	-0
482.067	-0.03
482.267	-0.03
482.466	-0.03
482.665	-0.01
482.864	-0.05
483.063	-0.03
483.262	0.01
483.461	0.08
483.661	0.05
483.86	-0.01
484.059	0.02
484.258	0.01
484.457	0.01
484.656	-0.01
484.855	0.03
485.054	-0.04
485.253	-0.03
485.452	-0.05
485.651	0.01
485.849	0
486.048	-0.02
486.247	-0.03
486.446	-0.01
486.645	-0.04
486.844	-0.03
487.043	0.02
487.241	0.04
487.44	-0.01
487.639	0.03
487.838	0.04
488.037	0.01
488.235	0.04
488.434	0.04
488.633	-0
488.831	0.02
489.03	0.02
489.229	0.02
489.427	0.01
489.626	0.05
489.825	0.05
490.023	0.02
490.222	0.01
490.42	0.04
490.619	0.06
490.817	0.03
491.016	-0.01
491.214	0.05
491.413	0
491.611	-0.02
491.81	0.03
492.008	0.02
492.207	0.02
492.405	0.04
492.604	-0.02
492.802	0.03
493	0.01
493.199	-0.01
493.397	0.02
493.595	-0.01
493.794	-0.02
493.992	0.06
494.19	-0.01
494.388	0.02
494.587	0.03
494.785	0.05
494.983	-0.02
495.181	0.01
495.379	0.04
495.578	0.01
495.776	0.04
495.974	0.05
496.172	0.02
496.37	0.04
496.568	0
496.766	0.01
496.964	0.04
497.162	0.04
497.36	0.02
497.558	0.04
497.756	0.06
497.954	0.02
498.152	0.01
498.35	0.01
498.548	0.06
498.746	0.06
498.944	0.01
499.142	0.04
499.34	0.03
499.538	0.05
499.736	0.02
499.933	0.08
500.131	0.1
500.329	0.03
500.527	0.06
500.725	0.09
500.922	0.07
501.12	0.05
501.318	0.07
501.516	0.05
501.713	0.06
501.911	0.03
502.109	0.04
502.306	0.08
502.504	0.05
502.701	0.04
502.899	0.07
503.097	0.11
503.294	0.08
503.492	0.05
503.689	0.07
503.887	0.11
504.084	0.13
504.282	0.08
504.479	0.05
504.677	0.08
504.874	0.06
505.072	0.09
505.269	0.1
505.466	0.11
505.664	0.13
505.861	0.05
506.059	0.08
506.256	0.11
506.453	0.1
506.651	0.14
506.848	0.14
507.045	0.13
507.242	0.11
507.44	0.11
507.637	0.1
507.834	0.11
508.031	0.15
508.229	0.09
508.426	0.13
508.623	0.14
508.82	0.1
509.017	0.11
509.214	0.13
509.411	0.12
509.608	0.13
509.805	0.14
510.003	0.15
510.2	0.12
510.397	0.19
510.594	0.16
510.791	0.12
510.988	0.16
511.184	0.18
511.381	0.16
511.578	0.13
511.775	0.23
511.972	0.16
512.169	0.19
512.366	0.18
512.563	0.19
512.76	0.19
512.956	0.2
513.153	0.19
513.35	0.21
513.547	0.18
513.744	0.19
513.94	0.2
514.137	0.22
514.334	0.22
514.53	0.2
514.727	0.23
514.924	0.29
515.12	0.21
515.317	0.2
515.514	0.21
515.71	0.22
515.907	0.25
516.103	0.23
516.3	0.24
516.497	0.28
516.693	0.29
516.89	0.25
517.086	0.25
517.283	0.28
517.479	0.28
517.676	0.28
517.872	0.27
518.068	0.25
518.265	0.26
518.461	0.26
518.658	0.25
518.854	0.3
519.05	0.27
519.247	0.28
519.443	0.31
519.639	0.32
519.836	0.29
520.032	0.29
520.228	0.3
520.424	0.35
520.621	0.3
520.817	0.29
521.013	0.3
521.209	0.32
521.405	0.35
521.601	0.31
521.798	0.3
521.994	0.35
522.19	0.28
522.386	0.3
522.582	0.31
522.778	0.34
522.974	0.28
523.17	0.3
523.366	0.31
523.562	0.34
523.758	0.31
523.954	0.28
524.15	0.28
524.346	0.33
524.542	0.31
524.738	0.31
524.934	0.32
525.129	0.3
525.325	0.34
525.521	0.29
525.717	0.34
525.913	0.32
526.109	0.27
526.304	0.29
526.5	0.31
526.696	0.3
526.892	0.28
527.087	0.29
527.283	0.28
527.479	0.29
527.674	0.28
527.87	0.28
528.066	0.27
528.261	0.29
528.457	0.28
528.653	0.29
528.848	0.28
529.044	0.29
529.239	0.28
529.435	0.29
529.63	0.27
529.826	0.34
530.021	0.25
530.217	0.29
530.412	0.22
530.608	0.25
530.803	0.26
530.999	0.23
531.194	0.2
531.389	0.23
531.585	0.2
531.78	0.24
531.975	0.27
532.171	0.27
532.366	0.24
532.561	0.23
532.757	0.21
532.952	0.23
533.147	0.25
533.342	0.22
533.538	0.2
533.733	0.26
533.928	0.2
534.123	0.19
534.318	0.18
534.513	0.21
534.709	0.22
534.904	0.19
535.099	0.17
535.294	0.2
535.489	0.2
535.684	0.18
535.879	0.17
536.074	0.19
536.269	0.16
536.464	0.2
536.659	0.19
536.854	0.18
537.049	0.19
537.244	0.17
537.439	0.15
537.634	0.21
537.828	0.16
538.023	0.17
538.218	0.13
538.413	0.16
538.608	0.13
538.803	0.19
538.997	0.12
539.192	0.17
539.387	0.17
539.582	0.15
539.776	0.15
539.971	0.13
540.166	0.12
540.36	0.14
540.555	0.11
540.75	0.15
540.944	0.15
541.139	0.1
541.334	0.13
541.528	0.16
541.723	0.16
541.917	0.14
542.112	0.06
542.306	0.09
542.501	0.11
542.695	0.12
542.89	0.1
543.084	0.12
543.279	0.11
543.473	0.13
543.668	0.13
543.862	0.12
544.056	0.12
544.251	0.11
544.445	0.13
544.64	0.09
544.834	0.09
545.028	0.1
545.222	0.11
545.417	0.11
545.611	0.13
545.805	0.12
546	0.07
546.194	0.11
546.388	0.11
546.582	0.12
546.776	0.09
546.97	0.11
547.165	0.11
547.359	0.11
547.553	0.09
547.747	0.09
547.941	0.11
548.135	0.1
548.329	0.11
548.523	0.12
548.717	0.08
548.911	0.06
549.105	0.09
549.299	0.11
549.493	0.11
549.687	0.08
549.881	0.09
550.075	0.1
550.269	0.04
550.463	0.1
550.657	0.06
550.85	0.08
551.044	0.07
551.238	0.1
551.432	0.08
551.626	0.03
551.82	0.06
552.013	0.04
552.207	0.07
552.401	0.09
552.594	0.07
552.788	0.07
552.982	0.06
553.176	0.04
553.369	0.07
553.563	0.07
553.756	0.04
553.95	0.03
554.144	0.08
554.337	0.08
554.531	0.05
554.724	0.06
554.918	0.03
555.111	0.09
555.305	0.06
555.498	0.1
555.692	0.07
555.885	0.03
556.079	0.08
556.272	0.03
556.466	0.1
556.659	0.06
556.852	0.05
557.046	0.03
557.239	0.06
557.432	0.02
557.626	0.01
557.819	0.05
558.012	0.07
558.206	0.03
558.399	0.05
558.592	0.04
558.785	0.04
558.979	0.06
559.172	0.03
559.365	0.07
559.558	0.04
559.751	0.04
559.944	0.07
560.138	0.05
560.331	0.05
560.524	0.02
560.717	0.03
560.91	0.03
561.103	0.06
561.296	0.04
561.489	0.05
561.682	0.02
561.875	0.07
562.068	0.03
562.261	0.03
562.454	0.08
562.647	0.04
562.84	0.05
563.032	0.03
563.225	0.05
563.418	0.02
563.611	0.03
563.804	0.03
563.997	0.01
564.19	-0.01
564.382	0.05
564.575	0.02
564.768	0.04
564.961	0.03
565.153	-0
565.346	0.03
565.539	0.05
565.731	0.02
565.924	0.03
566.117	0.04
566.309	0.04
566.502	-0.01
566.695	0.01
566.887	0.03
567.08	0.01
567.272	0.03
567.465	0
567.657	0.03
567.85	0.03
568.042	0.03
568.235	0.06
568.427	-0
568.62	0.02
568.812	0.04
569.005	0.02
569.197	-0.01
569.389	0.02
569.582	0.03
569.774	0.04
569.966	-0.01
570.159	0.01
570.351	0.04
570.543	-0.01
570.736	0.03
570.928	-0.03
571.12	0.01
571.312	0.01
571.505	-0.03
571.697	0.03
571.889	-0.01
572.081	-0.01
572.273	-0.01
572.465	0.04
572.658	0.03
572.85	0.02
573.042	-0
573.234	0.01
573.426	0.05
573.618	-0.03
573.81	0.02
574.002	0.04
574.194	0.07
574.386	-0.03
574.578	-0.07
574.77	-0.01
574.962	0.01
575.154	-0.02
575.346	0.03
575.538	0.03
575.729	-0.03
575.921	-0.02
576.113	-0.01
576.305	0.02
576.497	0
576.689	0.02
576.88	-0.01
577.072	0.03
577.264	0.01
577.456	-0.02
577.647	-0.06
577.839	0.01
578.031	0.05
578.223	-0.03
578.414	-0.02
578.606	-0
578.798	0.03
578.989	-0.01
579.181	0.02
579.372	-0.01
579.564	0.02
579.755	0.01
579.947	-0
580.139	0.02
580.33	-0.04
580.522	-0.02
580.713	-0.06
580.905	-0
581.096	0.01
581.287	0.01
581.479	0.02
581.67	0.02
581.862	0
582.053	-0.02
582.244	-0.03
582.436	-0
582.627	0
582.818	-0.01
583.01	-0.04
583.201	0.05
583.392	0.02
583.583	-0
583.775	-0.01
583.966	-0.02
584.157	-0.01
584.348	-0.02
584.54	-0.04
584.731	0.02
584.922	-0.01
585.113	-0.02
585.304	0.02
585.495	0.05
585.686	-0
585.877	0.02
586.068	0.01
586.259	0.03
586.45	0.02
586.641	-0.04
586.832	-0.05
587.023	0.02
587.214	0
587.405	0
587.596	-0.02
587.787	0.04
587.978	0.01
588.169	-0.03
588.36	-0.02
588.551	0.01
588.742	-0.01
588.932	0.01
589.123	0.01
589.314	0.01
589.505	0.03
589.696	0.02
589.886	-0.01
590.077	-0.06
590.268	0.01
590.458	-0.05
590.649	-0.03
590.84	0.04
591.03	-0.02
591.221	-0.04
591.412	-0.04
591.602	0.02
591.793	0.02
591.984	-0.04
592.174	-0.02
592.365	0.07
592.555	-0.04
592.746	0.01
592.936	0.02
593.127	0.01
593.317	0.02
593.508	-0.03
593.698	-0.01
593.889	0
594.079	-0
594.269	-0.04
594.46	-0.03
594.65	-0.01
594.84	0
595.031	-0.05
595.221	-0.02
595.411	-0.03
595.602	0.03
595.792	0.01
595.982	-0.01
596.172	0.04
596.363	0
596.553	-0
596.743	-0.02
596.933	-0.01
597.123	0.05
597.314	-0.01
597.504	-0.03
597.694	0.03
597.884	0.01
598.074	-0.02
598.264	-0.04
598.454	-0.01
598.644	0.01
598.834	-0.01
599.024	-0.08
599.214	-0.02
599.404	0.03
599.594	-0
599.784	-0.03
599.974	0.04
600.164	0.02
600.354	-0.05
600.544	-0.03
600.734	0.02
600.924	0.04
601.114	-0.06
601.303	-0.01
601.493	0.02
601.683	0.01
601.873	-0.01
602.063	-0.03
602.252	0.04
602.442	-0.08
602.632	-0.01
602.821	-0.04
603.011	0
603.201	-0.03
603.39	-0.04
603.58	-0.02
603.77	0.01
603.959	0.03
604.149	-0.03
604.339	-0.02
604.528	0.03
604.718	0.01
604.907	-0.02
605.097	-0.03
605.286	-0.05
605.476	0
605.665	0
605.855	-0.01
606.044	0.06
606.234	0.02
606.423	-0.01
606.612	-0.05
606.802	0.02
606.991	0
607.181	-0.02
607.37	-0.05
607.559	-0.01
607.749	-0.07
607.938	0.01
608.127	-0.02
608.316	-0.03
608.506	0
608.695	-0.02
608.884	-0.06
609.073	-0
609.263	0.02
609.452	0.01
609.641	0.03
609.83	-0.04
610.019	0.01
610.208	-0.02
610.397	-0.01
610.586	-0.01
610.775	-0.03
610.965	-0.04
611.154	-0.03
611.343	-0.01
611.532	0.01
611.721	-0.03
611.91	-0.03
612.099	0.01
612.287	-0
612.476	-0.03
612.665	0.03
612.854	-0.02
613.043	0.02
613.232	-0.02
613.421	-0.06
613.61	0.01
613.798	-0.05
613.987	0.04
614.176	-0.01
614.365	0.04
614.554	0.01
614.742	0.03
614.931	-0.02
615.12	0.03
615.309	-0.02
615.497	0.01
615.686	-0.04
615.875	-0.01
616.063	0.01
616.252	-0.01
616.44	-0.01
616.629	0
616.818	0.01
617.006	-0.04
617.195	-0.01
617.383	0.02
617.572	0
617.76	-0.03
617.949	-0.02
618.137	0.04
618.326	0.04
618.514	-0.02
618.703	-0.03
618.891	0.03
619.079	-0.07
619.268	-0.01
619.456	-0.03
619.644	0.03
619.833	-0.01
620.021	-0.02
620.209	-0.07
620.398	-0.01
620.586	0.01
620.774	0.01
620.962	-0.04
621.151	0.03
621.339	-0
621.527	-0.06
621.715	-0.05
621.903	-0.07
622.092	-0.07
622.28	0.01
622.468	-0.01
622.656	-0.01
622.844	0.01
623.032	-0.03
623.22	-0.06
623.408	0.02
623.596	-0
623.784	0.01
623.972	-0.02
624.16	-0.02
624.348	0.06
624.536	-0.03
624.724	-0.04
624.912	0.01
625.1	0.01
625.288	-0.05
625.476	-0.04
625.664	0.02
625.851	-0.02
626.039	-0.01
626.227	-0.01
626.415	-0.05
626.603	-0.09
626.79	-0.02
626.978	-0.05
627.166	0.04
627.354	-0.04
627.541	0.01
627.729	-0.06
627.917	0.02
628.104	0.02
628.292	-0.02
628.48	-0
628.667	0.01
628.855	0.01
629.042	-0.01
629.23	-0.01
629.418	-0.01
629.605	-0.04
629.793	-0.03
629.98	-0.02
630.168	-0.02
630.355	-0.01
630.543	-0.01
630.73	-0.06
630.917	0.02
631.105	0.02
631.292	-0.03
631.48	0.02
631.667	0.07
631.854	0.01
632.042	-0.05
632.229	-0.07
632.416	0
632.604	-0
632.791	-0.05
632.978	0
633.165	-0.01
633.353	0.02
633.54	0.02
633.727	-0.05
633.914	-0.01
634.101	-0.08
634.289	0.03
634.476	-0.01
634.663	-0.06
634.85	0
635.037	-0.05
635.224	-0.06
635.411	0.03
635.598	0.06
635.785	-0.01
635.972	-0.04
636.159	0.03
636.346	-0.02
636.533	-0.01
636.72	-0.04
636.907	-0.04
637.094	0.05
637.281	-0.01
637.468	0.02
637.655	-0.02
637.842	-0.03
638.029	-0.02
638.215	0.01
638.402	-0
638.589	-0.04
638.776	-0.01
638.963	-0.03
639.149	0.04
639.336	0.06
639.523	0.02
639.709	-0.02
639.896	-0.02
640.083	0.03
640.27	0.01
640.456	-0.05
640.643	-0.01
640.829	-0.07
641.016	-0.01
641.203	-0.05
641.389	0.01
641.576	0.02
641.762	-0.04
641.949	-0.05
642.135	-0.01
642.322	-0.01
642.508	-0.05
642.695	-0.03
642.881	-0.02
643.068	0.02
643.254	-0.05
643.441	0.01
643.627	-0.03
643.813	-0.05
644	0.04
644.186	-0.05
644.372	0.01
644.559	0.02
644.745	-0.02
644.931	-0.04
645.118	0.01
645.304	-0.01
645.49	-0.03
645.676	0
645.862	-0.01
646.049	0.01
646.235	0
646.421	0.05
646.607	0.06
646.793	-0.02
646.979	-0.07
647.165	0.01
647.352	-0.01
647.538	0.02
647.724	-0
647.91	-0.05
648.096	0
648.282	0.01
648.468	-0.01
648.654	-0.01
648.84	-0
649.026	0
649.212	0.01
649.397	-0.04
649.583	-0.04
649.769	-0
649.955	-0.02
650.141	-0.01
650.327	0.03
650.513	-0.03
650.698	0.01
650.884	-0.08
651.07	-0.05
651.256	0
651.442	0.01
651.627	-0.02
651.813	0.01
651.999	-0.03
652.184	-0.01
652.37	-0.02
652.556	-0.04
652.741	0.06
652.927	-0.07
653.113	-0.05
653.298	-0.02
653.484	-0.01
653.669	-0.07
653.855	-0.03
654.04	0.02
654.226	-0.01
654.412	-0.04
654.597	-0.07
654.782	-0.01
654.968	0.06
655.153	-0.01
655.339	-0.05
655.524	-0.08
655.71	0.04
655.895	-0.04
656.08	-0
656.266	0
656.451	-0
656.636	-0.04
656.822	0.02
657.007	-0.05
657.192	-0.03
657.378	-0.09
657.563	-0.03
657.748	0.02
657.933	-0.01
658.118	-0.02
658.304	-0.03
658.489	0.02
658.674	0.02
658.859	-0.05
659.044	-0.03
659.229	-0
659.414	-0.03
659.599	-0.02
659.785	-0.08
659.97	-0.01
660.155	0.02
660.34	-0
660.525	-0.01
660.71	-0.02
660.895	0.01
661.08	-0.03
661.264	-0.02
661.449	0.05
661.634	0.03
661.819	-0.02
662.004	0.03
662.189	-0.07
662.374	-0.02
662.559	-0.04
662.743	-0.09
662.928	-0.01
663.113	-0.04
663.298	-0.11
663.483	-0.01
663.667	0.01
663.852	-0.05
664.037	0.02
664.221	-0.06
664.406	-0
664.591	-0
664.775	0.03
664.96	-0.02
665.145	-0.01
665.329	0.02
665.514	-0.04
665.698	-0
665.883	-0.06
666.068	0.06
666.252	-0.01
666.437	-0.08
666.621	-0.04
666.806	0.04
666.99	-0.03
667.174	-0.04
667.359	0.05
667.543	0.02
667.728	-0.03
667.912	-0.09
668.096	0.02
668.281	-0.06
668.465	-0.04
668.649	-0.01
668.834	-0.07
669.018	0
669.202	-0.03
669.387	-0.05
669.571	0.05
669.755	-0.03
669.939	-0.03
670.124	-0.01
670.308	0.04
670.492	0.06
670.676	-0.03
670.86	0.04
671.044	-0.02
671.228	0.05
671.413	-0.05
671.597	-0.02
671.781	-0
671.965	0.06
672.149	-0.03
672.333	-0.04
672.517	-0.06
672.701	-0
672.885	-0.02
673.069	-0.1
673.253	0.06
673.437	-0.04
673.621	-0.06
673.804	-0.04
673.988	0.01
674.172	-0.01
674.356	-0.07
674.54	-0.03
674.724	0.07
674.908	-0.02
675.091	-0.02
675.275	-0.04
675.459	-0.02
675.643	-0.05
675.826	-0.01
676.01	0
676.194	-0.04
676.377	0.03
676.561	-0.01
676.745	0.02
676.928	0.02
677.112	0.02
677.296	-0.06
677.479	0.01
677.663	0.01
677.846	0.02
678.03	-0.04
678.213	-0.03
678.397	-0.03
678.58	-0.02
678.764	-0.07
678.947	-0.07
679.131	-0.06
679.314	0
679.498	-0.03
679.681	0.01
679.865	0.06
680.048	-0.03
680.231	-0.01
680.415	-0.02
680.598	-0.04
680.781	0.03
680.965	-0.07
681.148	-0.02
681.331	-0.04
681.514	0.01
681.698	-0.01
681.881	-0.01
682.064	0.04
682.247	0.01
682.43	-0.07
682.614	0
682.797	0.08
682.98	-0
683.163	-0.08
683.346	0.01
683.529	-0.02
683.712	-0.03
683.895	0.01
684.078	-0.05
684.261	-0.08
684.444	0.02
684.627	0.01
684.81	-0.03
684.993	-0.01
685.176	-0.01
685.359	-0.06
685.542	-0.05
685.725	0.05
685.908	0
686.091	-0.05
686.274	0.06
686.457	0.07
686.639	-0.03
686.822	-0.01
687.005	-0.03
687.188	0
687.371	0
687.553	-0.01
687.736	0.03
687.919	0.09
688.102	0.05
688.284	0.01
688.467	0
688.65	-0.04
688.832	-0.04
689.015	-0.05
689.197	-0.05
689.38	0.11
689.563	0.06
689.745	-0.04
689.928	-0.05
690.11	0.03
690.293	0.02
690.475	-0.07
690.658	0.03
690.84	0.03
691.023	-0.02
691.205	-0.01
691.388	-0.01
691.57	-0.01
691.752	-0
691.935	-0.09
692.117	0.01
692.3	0.01
692.482	-0.01
692.664	-0.07
692.847	0.02
693.029	0.07
693.211	0.02
693.393	-0.07
693.576	-0.05
693.758	0.04
693.94	0
694.122	0
694.304	-0.06
694.487	0.02
694.669	0.05
694.851	-0.08
695.033	-0.01
695.215	-0.05
695.397	0.01
695.579	0.04
695.761	-0.04
695.943	-0.08
696.125	0.03
696.308	0.01
696.49	-0.12
696.671	0.12
696.853	0.02
697.035	0.12
697.217	-0.03
697.399	0.06
697.581	-0.05
697.763	-0.04
697.945	-0.03
698.127	0.03
698.309	0
698.491	-0.05
698.672	0.01
698.854	0.02
699.036	0.05
699.218	-0.01
699.399	0
699.581	0.05
699.763	0.01
699.945	-0.1
700.126	-0.05
700.308	-0.01
700.49	-0.03
700.671	-0.05
700.853	-0.09
701.035	-0.02
701.216	-0.02
701.398	-0.05
701.579	-0.03
701.761	-0
701.943	-0.02
702.124	-0.02
702.306	-0.02
702.487	0.13
702.669	-0.05
702.85	-0.04
703.031	-0.07
703.213	0.06
703.394	0.03
703.576	-0.12
703.757	0.06
703.938	0.02
704.12	0.15
704.301	0.02
704.483	-0.06
704.664	-0
704.845	0.06
705.026	-0
705.208	-0.02
705.389	0
705.57	-0.05
705.751	-0
705.933	-0.02
706.114	0.06
706.295	0.01
706.476	-0.07
706.657	0.11
706.838	0.05
707.02	0.06
707.201	-0.11
707.382	-0.07
707.563	0.02
707.744	-0.05
707.925	-0.06
708.106	-0.09
708.287	0.03
708.468	0.09
708.649	-0.07
708.83	0.04
709.011	-0.05
709.192	0.05
709.373	-0.09
709.554	0.03
709.734	0.02
709.915	0.06
710.096	-0.04
710.277	-0.09
710.458	0
710.639	0.07
710.819	-0.02
711	-0.06
711.181	0.03
711.362	0.05
711.542	-0.02
711.723	-0.01
711.904	0.02
712.085	0.03
712.265	0.04
712.446	-0.06
712.627	-0.02
712.807	-0.01
712.988	0.06
713.168	-0.12
713.349	-0.03
713.53	-0.16
713.71	-0.08
713.891	-0.03
714.071	0.05
714.252	-0.02
714.432	-0.06
714.613	-0.1
714.793	-0.03
714.974	0.03
715.154	0.05
715.334	0.01
715.515	0.02
715.695	-0.09
715.876	0.03
716.056	-0.04
716.236	-0.08
716.417	-0.04
716.597	-0.06
716.777	0.16
716.957	-0.02
717.138	0.01
717.318	-0.04
717.498	-0.12
717.678	0.02
717.859	0.02
718.039	-0.06
718.219	-0.03
718.399	0.06
718.579	-0.13
718.759	-0.04
718.939	0.07
719.12	-0.05
719.3	-0.05
719.48	-0.19
719.66	-0.08
719.84	0.08
720.02	0.02
720.2	-0.1
720.38	-0.04
720.56	0.05
720.74	-0.09
720.92	0.04
721.1	0.05
721.279	0
721.459	0.01
721.639	-0.16
721.819	0.04
721.999	-0.03
722.179	0.07
722.359	-0.11
722.538	0.01
722.718	-0.05
722.898	-0.06
723.078	-0.07
723.257	-0.09
723.437	0.04
723.617	-0.01
723.797	-0
723.976	0.05
724.156	0.05
724.336	0.09
724.515	0.09
724.695	-0.14
724.874	0.06
725.054	0.01
725.234	-0.05
725.413	-0
725.593	-0.01
725.772	-0.04
725.952	-0
726.131	-0.04
726.311	0.03
726.49	0.02
726.67	-0.13
726.849	-0.06
727.028	-0.01
727.208	-0.02
727.387	0.04
727.567	-0.08
727.746	-0.06
727.925	-0.05
728.105	-0.05
728.284	-0.08
728.463	-0.1
728.643	0.01
728.822	-0.1
729.001	-0.04
729.18	-0.02
729.359	0.09
729.539	-0.08
729.718	-0.01
729.897	0.02
730.076	-0.02
730.255	-0.13
730.434	-0.02
730.614	0.13
730.793	0.07
730.972	-0.1
731.151	0.02
731.33	0.1
731.509	0.02
731.688	0.01
731.867	-0.02
732.046	-0.14
732.225	0.25
732.404	-0.11
732.583	-0.11
732.762	-0.03
732.941	0.03
733.12	-0.03
733.298	-0.04
733.477	0.14
733.656	0
733.835	-0.12
734.014	0.06
734.193	0.01
734.371	0.07
734.55	-0.02
734.729	-0.06
734.908	0.02
735.086	-0.02
735.265	0.09
735.444	-0.2
735.623	-0.1
735.801	-0.12
735.98	-0.07
736.159	0.02
736.337	0.08
736.516	-0
736.694	-0.01
736.873	-0.11
737.052	0.11
737.23	0.19
737.409	-0.06
737.587	0.14
737.766	-0.21
737.944	-0.09
738.123	0.01
738.301	-0
738.479	-0.06
738.658	-0.05
738.836	-0.14
739.015	0.05
739.193	0.06
739.371	-0.12
739.55	-0.13
739.728	-0.14
739.906	0.04
740.085	0.3
740.263	0.06
740.441	-0.26
740.62	0.13
740.798	-0.04
740.976	-0.14
741.154	-0.12
741.332	0.12
741.511	-0.14
741.689	0
741.867	0.09
742.045	-0.02
742.223	-0.06
742.401	-0.06
742.579	-0.14
742.757	-0.11
742.935	-0.09
743.114	-0.07
743.292	-0.06
743.47	-0
743.648	0.05
743.826	-0.2
744.004	0.11
744.181	0.15
744.359	-0.09
744.537	0.12
744.715	0.02
744.893	-0.01
745.071	0.03
745.249	-0.03
745.427	0.01
745.605	0.05
745.782	0.01
745.96	0.11
746.138	0.12
746.316	0.14
746.493	-0.11
746.671	-0.05
746.849	-0.02
747.027	0.13
747.204	-0.03
747.382	0.02
747.56	-0.16
747.737	-0.12
747.915	-0.1
748.093	0.01
748.27	-0.15
748.448	-0.01
748.625	-0
748.803	-0.1
748.98	-0.16
749.158	-0.05
749.335	0.05
749.513	0.02
749.69	-0.16
749.868	-0.09
750.045	-0.06
750.223	-0.08
750.4	-0.17
750.578	0.21
750.755	0.01
750.932	-0.17
751.11	0.11
751.287	-0.07
751.464	0.11
751.642	-0.08
751.819	0.03
751.996	0
752.173	-0.03
752.351	-0.18
752.528	0.01
752.705	0.03
752.882	0.01
753.06	-0.05
753.237	0.05
753.414	0.04
753.591	0.13
753.768	0.11
753.945	-0.03
754.122	-0.07
754.299	0.06
754.476	-0.12
754.654	-0.01
754.831	-0
755.008	0.1
755.185	-0.07
755.362	-0.07
755.539	0.04
755.716	-0.11
755.892	-0.07
756.069	-0.01
756.246	0.03
756.423	-0.07
756.6	0.21
756.777	-0.14
756.954	0.01
757.131	-0.05
757.307	-0.14
757.484	-0.17
757.661	0.05
757.838	0.11
758.015	-0.08
758.191	0.02
758.368	-0.01
758.545	0.14
758.721	0.01
758.898	-0.11
759.075	0.04
759.251	0.11
759.428	0.07
759.605	-0.1
759.781	-0.05
759.958	0.08
760.134	0.05
760.311	-0.09
760.488	0.04
760.664	0.2
760.841	-0.06
761.017	-0.15
761.194	-0.03
761.37	0.06
761.547	-0.08
761.723	-0.03
761.899	0.05
762.076	-0.12
762.252	-0.2
762.429	-0.07
762.605	0.12
762.781	0
762.958	0.03
763.134	-0.11
763.31	-0.11
763.486	0.03
763.663	-0.18
763.839	0.1
764.015	-0.2
764.191	-0.07
764.368	0.12
764.544	-0.05
764.72	-0.02
764.896	0.09
765.072	-0.06
765.248	0.03
765.425	-0.02
765.601	0.06
765.777	0
765.953	-0.2
766.129	-0.15
766.305	-0.1
766.481	0.08
766.657	-0.03
766.833	0.19
767.009	-0.15
767.185	-0.04
767.361	-0.06
767.537	-0.18
767.713	0.13
767.889	-0.07
768.065	0.05
768.24	0.05
768.416	0.01
768.592	-0.04
768.768	-0.1
768.944	0.07
769.12	-0.11
769.295	-0.05
769.471	-0.14
769.647	-0.05
769.823	0.23
769.998	-0.04
770.174	-0.01
770.35	0.38
770.525	0.21
770.701	0.12
770.877	0.05
771.052	-0.1
771.228	0.02
771.403	-0.04
771.579	0.1
771.755	0.33
771.93	-0.1
772.106	-0.01
772.281	-0.26
772.457	-0.07
772.632	0.02
772.808	-0.17
772.983	-0.14
773.159	-0.28
773.334	0.15
773.509	-0.08
773.685	-0.22
773.86	0.28
774.036	0.2
774.211	0.01
774.386	-0.18
774.562	-0.04
774.737	-0.18
774.912	-0.15
775.087	0.13
775.263	0.01
775.438	-0.1
775.613	-0.2
775.788	-0.09
775.964	0.08
776.139	0.28
776.314	-0.31
776.489	-0.01
776.664	0.07
776.839	-0.21
777.014	0.14
777.19	0.04
777.365	0.14
777.54	0.1
777.715	-0.12
777.89	0.05
778.065	-0.28
778.24	0.01
778.415	0.1
778.59	-0.1
778.765	-0.13
778.94	-0.01
779.115	-0.12
779.289	-0.04
779.464	0.1
779.639	0.03
779.814	-0.17
779.989	-0.21
780.164	0.16
780.339	0.14
780.513	-0.19
780.688	-0.16
780.863	-0.05
781.038	0.08
781.212	-0.13
781.387	-0.02
781.562	0.36
781.737	-0.05
781.911	0.13
782.086	-0.19
782.261	0.11
782.435	0.3
782.61	-0.08
782.784	-0.09
782.959	0.18
783.134	-0.19
783.308	-0.13
783.483	-0.06
783.657	0.41
783.832	0.13
784.006	-0.28
784.181	0.01
784.355	0.05
784.53	-0.25
784.704	-0.21
784.878	0.11
785.053	0.03
785.227	0.13
785.402	0.26
785.576	-0.1
785.75	0.08
785.925	-0.07
786.099	-0.03
786.273	-0.07
786.448	0.15
786.622	0.12
786.796	-0.13
786.97	-0.15
787.145	0.59
787.319	-0.4
787.493	-0.18
787.667	-0.33
787.841	-0.18
788.015	0.26
788.19	-0.05
788.364	0.17
788.538	0.12
788.712	0.11
788.886	-0.11
789.06	0.18
789.234	0.16
789.408	-0.21
789.582	-0.13
789.756	-0.15
789.93	-0.12
790.104	0.16
790.278	-0.05
790.452	-0.24
790.626	-0.05
790.8	-0.05
790.973	0.02
791.147	0.33
791.321	0.19
791.495	0.23
791.669	0.12
791.843	0.04
792.016	0.02
792.19	0.36
792.364	-0.09
792.538	0.6
792.711	0.22
792.885	-0.02
793.059	-0.19
793.233	-0.43
793.406	0.2
793.58	0.12
793.754	0.05
793.927	-0.15
794.101	0.38
794.274	0.08
794.448	0.18
794.622	-0.15
794.795	0.01
794.969	-0.26
795.142	0.25
795.316	-0.11
795.489	-0.41
795.663	0.29
795.836	0.03
796.009	-0.33
796.183	0.41
796.356	0.14
796.53	-0.04
796.703	-0
796.876	0.42
797.05	-0.31
797.223	-0.06
797.396	-0.05
797.57	0.02
797.743	0.53
797.916	-0.23
798.09	-0.11
798.263	0.11
798.436	0.13
798.609	-0.22
798.782	-0.05
798.956	0.01
799.129	-0.09
799.302	-0.16
799.475	-0.21
799.648	-0.13
799.821	-0.43
799.994	0.1
800.167	-0.27
800.34	-0.29
800.514	-0.03
800.687	-0.11
800.86	-0.16
801.033	-0.18
801.206	-0.03
801.379	-0.1
801.551	0.24
801.724	0.27
801.897	0.39
802.07	-0.28
802.243	-0.41
802.416	-0.19
802.589	-0.16
802.762	-0.13
802.935	-0.22
803.107	0.35
803.28	0.93
803.453	0.37
803.626	-0.32
803.798	0.05
803.971	-0.1
804.144	0.29
804.317	0.18
804.489	0.06
804.662	-0.2
804.835	0.26
805.007	-0.46
805.18	0.48
805.353	0.1
805.525	-0.81
805.698	-0.09
805.87	0.19
806.043	0.15
806.215	-0.46
806.388	-0.4
806.56	0.06
806.733	0.27
806.905	-0.17
807.078	-0.29
807.25	-0.04
807.423	-0.03
807.595	0.24
807.768	0.05
807.94	0.46
808.112	0.26
808.285	0.23
808.457	-0.13
808.629	-0.11
808.802	0.41
808.974	-0.2
809.146	-0.22
809.318	-0.28
809.491	-0.04
809.663	0.14
809.835	-0.1
810.007	0.3
810.18	0.1
810.352	-0.55
810.524	-0.23
810.696	-0.08
810.868	0.38
811.04	-0.31
811.212	-0.11
811.384	0.16
811.556	0.17
811.728	0.08
811.901	0.6
812.073	-0.22
812.245	0.09
812.417	-0
812.589	-0.82
812.76	0.16
812.932	0.01
813.104	0.45
813.276	-0.15
813.448	0.28
813.62	-0.21
813.792	0.36
813.964	-0.28
814.136	0.29
814.307	-0.34
814.479	-0.34
814.651	-0.13
814.823	0.79
814.995	-0.2
815.166	0.25
815.338	-0.48
815.51	-0.52
815.681	0.68
815.853	0.14
816.025	0.18
816.196	0.76
816.368	0.1
816.54	-0.19
816.711	-0.37
816.883	-0.13
817.054	0.69
817.226	-0.44
817.398	0.01
817.569	-0
817.741	0.22
817.912	0
818.084	-0.01
818.255	0.02
818.426	-0.62
818.598	-0.22
818.769	-0.37
818.941	-0.06
819.112	0.41
819.283	0.1
819.455	-0.12
819.626	-0.77
819.798	0.25
819.969	0.13
820.14	-0.43
820.311	-0.28
820.483	0.04
820.654	0.3
820.825	-0.04
820.996	-0.41
821.168	-0.3
821.339	-0.29
821.51	-0.54
821.681	0.93
821.852	-0.11
822.023	-0.21
822.195	-0.44
822.366	0.15
822.537	-0.26
822.708	-0
822.879	-0.37
823.05	1
823.221	-0.15
823.392	0.16
823.563	-0.35
823.734	-0.17
823.905	-0.04
824.076	-0.01
824.247	-0.38
824.418	-0.33
824.589	0.53
824.759	0.22
824.93	-0.54
825.101	-0.51
825.272	0.27
825.443	0.3
825.614	0.49
825.784	-1.37
825.955	0.98
826.126	0.85
826.297	0.27
826.467	0.71
826.638	0.62
826.809	-0.8
826.98	-0.09
827.15	0.11
827.321	-0.1
827.492	0.48
827.662	0.19
827.833	1.67
828.003	0.29
828.174	-0.8
828.345	-0.69
828.515	0.51
828.686	0.15
828.856	-0.02
829.027	-0.55
829.197	0.6
829.368	0.11
829.538	-0.18
829.709	-0.19
829.879	0.22
830.049	0.19
830.22	-0.93
830.39	-0.12
830.56	0.24
830.731	-0.18
830.901	-0.24
831.072	-0.31
831.242	0.6
831.412	0.45
831.582	0.08
831.753	-0.45
831.923	-0.01
832.093	0.4
832.263	-0.13
832.434	-0.29
832.604	-0.14
832.774	0.31
832.944	0.09
833.114	-0.22
833.284	-0.26
833.454	-0.04
833.624	-0.21
833.795	-0.19
833.965	0.29
834.135	0.5
834.305	-1.13
834.475	-0.73
834.645	-0.12
834.815	-0.14
834.985	0.11
835.155	-0.37
835.325	0.17
835.494	0.14
835.664	-0.06
835.834	-0.93
836.004	0.14
836.174	-0.12
836.344	-0.63
836.514	-0.94
836.684	-0.34
836.853	-0.12
837.023	-0.18
837.193	-0.71
837.363	0.48
837.532	0.6
837.702	-0.82
837.872	-0.82
838.041	0.27
838.211	1.46
838.381	-1.13
838.55	0.36
838.72	2.1
838.89	1.72
839.059	-0.89
839.229	-0.63
839.398	1.24
839.568	0.24
839.738	-0.13
839.907	0.61
840.077	-0.15
840.246	-0.08
840.416	-0.62
840.585	-0.71
840.755	0.95
840.924	1.53
841.093	-0.64
841.263	-0.83
841.432	0.16
841.602	-0.55
841.771	-0.72
841.94	-0.16
842.11	1.93
842.279	1.21
842.448	-0.83
842.617	-0.69
842.787	0.53
842.956	-0.58
843.125	0.07
843.294	0.52
843.464	1.33
843.633	0.81
843.802	-1.57
843.971	0.08
844.14	0.47
844.309	0.3
844.479	0.11
844.648	-0.59
844.817	0.22
844.986	0.32
845.155	-0.76
845.324	-0.12
845.493	-0.18
845.662	0.17
845.831	0.3
846	0.14
846.169	-1.41
846.338	1.15
846.507	0.15
846.676	-0.23
846.844	-0.67
847.013	0.17
847.182	0.38
847.351	-1.09
847.52	-0.58
847.689	0.12
847.858	-0.46
848.026	-0.35
848.195	-0.5
848.364	0.72
848.533	-0.7
848.701	-0.54
848.87	0.33
849.039	0.52
849.207	1.33
849.376	0.98
849.545	1.33
849.713	-1.2
849.882	-0.23
850.051	-0.59
850.219	-0.21
850.388	1.27
850.556	-1.42
850.725	-1.23
850.893	0.42
851.062	-0.53
851.23	0.48
851.399	-0.69
851.567	-0.73
851.736	0
851.904	-0.75
852.073	0.49
852.241	0.76
852.41	0.04
852.578	0.3
852.746	-0.33
852.915	0.59
853.083	0.02
853.251	-0.26
853.42	-0.16
853.588	0.02
853.756	1.02
853.924	-0.3
854.093	-0.37
854.261	-0.11
854.429	-1.53
854.597	0.89
854.765	-2.51
854.934	1.52
855.102	0.91
855.27	0.33
855.438	0.29
855.606	0.82
855.774	1.39
855.942	-2.08
856.11	-1.21
856.278	0.16
856.446	1.39
856.614	-0.24
856.782	-0.56
856.95	1.03
857.118	0.94
857.286	0.48
857.454	-1.21
857.622	1.6
857.79	0.08
857.958	-0.75
858.126	-0.53
858.294	-2.25
858.462	0.61
858.629	0.01
858.797	-0.92
858.965	1.19
859.133	0.68
859.301	0.81
859.468	0.49
859.636	-0.04
859.804	0.86
859.971	0.25
860.139	-0.08
860.307	0.97
860.474	0.33
860.642	-1.28
860.81	-0.67
860.977	-0.39
861.145	1.68
861.313	-0.49
861.48	1.02
861.648	-0.38
861.815	-0.07
861.983	-1.58
862.15	-0.55
862.318	0.33
862.485	1.59
862.653	-1.38
862.82	-1.17
862.988	2.11
863.155	1.24
863.322	-1.08
863.49	-1.79
863.657	-1.02
863.824	2.19
863.992	0.26
864.159	0.12
864.326	1.09
864.494	-2.28
864.661	2.49
864.828	-1.74
864.996	0.97
865.163	2.39
865.33	-0.84
865.497	-2.54
865.664	-0.65
865.832	-2.35
865.999	0.23
866.166	-1.43
866.333	-1.75
866.5	0.58
866.667	-0.74
866.834	-0.2
867.001	1.17
867.168	-3.01
867.335	0.26
867.502	-2.39
867.669	0.17
867.836	3.61
868.003	-0.45
868.17	1.91
868.337	2.16
868.504	3.23
868.671	-1.22
868.838	-0.95
869.005	0.29
869.172	0.09
869.339	-0.82
869.505	-0.01
869.672	0.91
869.839	2.01
870.006	-0.29
870.173	-1.21
870.339	-0.1
870.506	1.9
870.673	-1.38
870.84	0.91
871.006	0.44
871.173	0.14
871.34	0.23
871.506	0.14
871.673	0.64
871.839	-2.29
872.006	1.3
872.173	-0.37
872.339	-0.34
872.506	2.74
872.672	0.04
872.839	-1.39
873.005	1.14
873.172	3.89
873.338	2.11
873.505	0.14
873.671	1.35
873.838	0.38
874.004	-1.66
874.171	0.47
874.337	0.95
874.503	0.7
874.67	0.16
874.836	-0.51
875.002	2.41
875.169	1.14
875.335	0.34
875.501	-1.52
875.668	1.4
875.834	0.43
876	1.25
876.166	0.62
876.332	-0.26
876.499	2.55
876.665	-0.44
876.831	0.06
876.997	2.46
877.163	0.6
877.329	0.17
877.495	-0.5
877.662	1.84
877.828	-0.6
877.994	-0.19
878.16	-1.8
878.326	-2.13
878.492	1.1
878.658	0.25
878.824	0.64
878.99	0.4
879.156	-2
879.322	1.5
879.487	-1.35
879.653	0.59
879.819	2.08
879.985	-2.57
880.151	-0.05
880.317	1.34
880.483	-0.1
880.648	0.7
880.814	-2.44
880.98	2.48
881.146	-2.32
881.312	-0.4
881.477	-1.19
881.643	0.59
881.809	0.99
881.974	0.33
882.14	-3.48
882.306	-0.72
882.471	2.16
882.637	-1.31
882.803	0.18
882.968	3.11
883.134	4.01
883.299	0.14
883.465	-0.64
883.63	0.79
883.796	-0.4
883.961	1.06
884.127	-0.01
884.292	-2.37
884.458	-2.65
884.623	-2.65
