Data from Apollo_Calib_20240827__AbsoluteIrradiance__122__01-11-01-588.txt Node

Date: Wed Aug 28 01:11:01 BST 2024
User: biology
Spectrometer: FLMT08252
Trigger mode: 0
Integration Time (sec): 5.000000E-1
Scans to average: 5
Electric dark correction enabled: true
Nonlinearity correction enabled: false
Boxcar width: 0
XAxis mode: Wavelengths
Number of Pixels in Spectrum: 3648
>>>>>Begin Spectral Data<<<<<
179.588	-0
179.809	-0
180.03	-0
180.251	-0
180.473	-0
180.694	0
180.915	0
181.136	-0
181.357	0
181.578	-0
181.799	0
182.02	-0
182.241	0
182.462	-0
182.683	0
182.904	-0
183.125	0
183.346	0
183.567	0
183.788	-0
184.009	-0
184.23	0
184.451	0
184.672	-0
184.892	-0
185.113	-0
185.334	-0
185.555	-0
185.776	-0
185.996	0
186.217	0
186.438	-0
186.659	-0
186.879	0
187.1	-0
187.321	-0
187.541	-0
187.762	-0
187.983	-0
188.203	-0
188.424	-0
188.644	-0
188.865	0
189.086	-0
189.306	-0
189.527	-0
189.747	-0
189.968	-0
190.188	0
190.409	-0
190.629	0
190.849	-0
191.07	-0
191.29	0
191.511	-0
191.731	-0
191.951	-0
192.172	-0
192.392	-0
192.612	0
192.833	-0
193.053	0
193.273	0
193.493	-0
193.714	-0
193.934	0
194.154	0
194.374	0
194.594	0
194.815	-0
195.035	0
195.255	-0
195.475	-0
195.695	-0
195.915	0
196.135	0
196.355	0
196.575	0
196.795	0
197.015	-0
197.235	-0
197.455	-0
197.675	0
197.895	-0
198.115	-0
198.335	0
198.555	-0
198.775	0
198.995	-0
199.214	0
199.434	-0
199.654	-0
199.874	-0
200.094	0.53
200.313	0.03
200.533	-0.56
200.753	-1.07
200.973	0.73
201.192	0.38
201.412	-1.09
201.632	-0.37
201.851	0.67
202.071	-0.55
202.291	-0.47
202.51	-0.8
202.73	0.07
202.95	-0.32
203.169	-0.57
203.389	-0.13
203.608	0.04
203.828	-0.36
204.047	-0.09
204.267	0.38
204.486	0.18
204.706	-0.05
204.925	0.12
205.145	-0.49
205.364	0.4
205.583	0.47
205.803	-0.43
206.022	-0.52
206.242	-0.09
206.461	-0.33
206.68	-0.39
206.9	-0.19
207.119	0.41
207.338	0.54
207.557	-0.33
207.777	-0.22
207.996	-0.25
208.215	0.2
208.434	-0.24
208.654	-0.49
208.873	0.02
209.092	0.68
209.311	-0.31
209.53	-0.16
209.749	-0.27
209.968	-0.49
210.187	-0.06
210.407	-0.36
210.626	-0.17
210.845	0.09
211.064	0.08
211.283	-0.14
211.502	0.2
211.721	0.06
211.94	-0.04
212.159	0.1
212.377	0.13
212.596	0.18
212.815	0.07
213.034	-0.03
213.253	0.02
213.472	0.19
213.691	-0.14
213.91	-0.25
214.128	-0.14
214.347	0.26
214.566	-0.3
214.785	-0.47
215.003	0.02
215.222	0.01
215.441	-0.08
215.66	-0.22
215.878	-0.05
216.097	0.16
216.316	-0.45
216.534	-0.22
216.753	-0.06
216.972	-0.09
217.19	-0.14
217.409	-0.09
217.627	-0.05
217.846	-0.04
218.064	0.08
218.283	-0.04
218.501	0.31
218.72	0.06
218.938	-0.21
219.157	-0.07
219.375	0.11
219.594	-0.23
219.812	-0.17
220.031	-0.19
220.249	0.26
220.467	0.13
220.686	-0.19
220.904	-0.27
221.122	-0.27
221.341	0.29
221.559	0.01
221.777	-0.14
221.995	-0.1
222.214	0
222.432	-0.24
222.65	-0.08
222.868	0.06
223.086	-0.07
223.305	0.02
223.523	-0.09
223.741	0.14
223.959	-0.14
224.177	-0.18
224.395	-0.06
224.613	-0.02
224.831	0.02
225.049	-0.25
225.267	-0.14
225.485	0.01
225.703	-0.06
225.921	0.01
226.139	-0.11
226.357	0.04
226.575	0.04
226.793	-0.32
227.011	0.43
227.229	-0.02
227.447	0.14
227.665	-0.12
227.883	-0.34
228.1	0.08
228.318	-0.07
228.536	-0.26
228.754	-0.16
228.972	0.02
229.189	0.1
229.407	-0.19
229.625	-0.12
229.843	0.12
230.06	0.01
230.278	-0.17
230.496	-0.14
230.713	-0.03
230.931	0.1
231.149	-0.11
231.366	-0.23
231.584	-0.04
231.801	0.36
232.019	-0.01
232.236	-0.11
232.454	-0.15
232.671	-0.01
232.889	0.03
233.106	-0.1
233.324	-0.06
233.541	0.01
233.759	-0.04
233.976	-0.06
234.194	-0.11
234.411	0.07
234.628	-0.04
234.846	-0.09
235.063	0.01
235.28	-0.21
235.498	-0.1
235.715	-0.12
235.932	0.07
236.149	-0.09
236.367	-0.1
236.584	0.04
236.801	0.01
237.018	0.02
237.236	-0.05
237.453	-0.24
237.67	0.07
237.887	-0.02
238.104	0.02
238.321	-0.08
238.538	-0.09
238.755	0.05
238.973	-0.21
239.19	-0.09
239.407	-0.03
239.624	-0.04
239.841	-0.09
240.058	-0.07
240.275	0.06
240.492	-0.05
240.709	0.01
240.925	-0.06
241.142	0.03
241.359	-0.01
241.576	-0.04
241.793	-0.11
242.01	-0.02
242.227	0.15
242.444	0.02
242.66	0.03
242.877	0
243.094	0
243.311	-0.02
243.527	-0.07
243.744	-0.02
243.961	0.02
244.178	-0.1
244.394	-0.07
244.611	0.05
244.828	0.07
245.044	-0.09
245.261	0
245.477	0.03
245.694	0.18
245.911	-0.13
246.127	-0.02
246.344	0.02
246.56	0.05
246.777	-0.04
246.993	-0.04
247.21	0.01
247.426	0.08
247.643	-0.05
247.859	-0.07
248.076	-0.06
248.292	0.11
248.508	-0.08
248.725	-0.07
248.941	0
249.157	0.09
249.374	-0.08
249.59	0.02
249.806	0.1
250.023	-0.02
250.239	-0.07
250.455	-0.04
250.671	-0.04
250.888	0.02
251.104	0.07
251.32	-0.04
251.536	-0.05
251.752	0
251.969	0.03
252.185	0.04
252.401	0.19
252.617	-0.02
252.833	-0.01
253.049	0.01
253.265	-0.1
253.481	0.02
253.697	-0.08
253.913	-0.06
254.129	-0.03
254.345	0.01
254.561	-0.03
254.777	-0.01
254.993	0.05
255.209	0.02
255.425	-0.08
255.641	-0.06
255.857	0.05
256.073	0.01
256.288	-0.14
256.504	-0.07
256.72	0.05
256.936	0.05
257.152	0
257.367	-0.06
257.583	0.05
257.799	-0
258.015	-0.09
258.23	-0.11
258.446	0.06
258.662	0.03
258.877	-0.05
259.093	-0.11
259.309	0.03
259.524	0.04
259.74	-0.04
259.955	-0.1
260.171	0.01
260.387	-0.06
260.602	0.01
260.818	0.07
261.033	-0.1
261.249	-0.07
261.464	-0.02
261.68	-0.12
261.895	-0.01
262.11	0.05
262.326	-0.02
262.541	-0.02
262.757	0.03
262.972	0.04
263.187	0.01
263.403	-0.01
263.618	-0
263.833	-0.01
264.049	-0
264.264	-0.03
264.479	0.05
264.694	0.11
264.91	-0.14
265.125	-0.01
265.34	0.07
265.555	0.19
265.77	-0.02
265.986	-0.02
266.201	-0.02
266.416	0.08
266.631	-0
266.846	-0.02
267.061	0.01
267.276	0.05
267.491	-0.2
267.706	0.03
267.921	0.05
268.136	-0
268.351	-0
268.566	-0.04
268.781	0.06
268.996	0.06
269.211	-0.02
269.426	-0.04
269.641	0.03
269.856	-0
270.071	-0.1
270.285	-0.11
270.5	0.07
270.715	0.06
270.93	-0.01
271.145	-0.02
271.359	-0.01
271.574	-0.02
271.789	0.03
272.004	-0.04
272.218	-0
272.433	-0.01
272.648	-0.08
272.862	0.08
273.077	-0.01
273.292	0.02
273.506	-0.07
273.721	-0.02
273.936	0.01
274.15	0.04
274.365	-0.02
274.579	0.01
274.794	0.02
275.008	0.08
275.223	-0.09
275.437	0.05
275.652	-0.06
275.866	-0
276.081	-0.02
276.295	0.03
276.509	0.06
276.724	-0
276.938	-0
277.153	0.02
277.367	-0.03
277.581	-0.1
277.796	-0.09
278.01	-0.03
278.224	0.06
278.438	0.08
278.653	-0.07
278.867	-0.01
279.081	-0.07
279.295	-0.03
279.51	0.01
279.724	-0.09
279.938	0.1
280.152	0.01
280.366	-0.05
280.58	-0.03
280.794	0.07
281.008	0.01
281.222	0.04
281.437	0.14
281.651	0.02
281.865	0.1
282.079	-0.02
282.293	-0.07
282.507	-0.03
282.721	-0.04
282.935	0.01
283.148	-0.04
283.362	-0.08
283.576	-0.03
283.79	0.01
284.004	-0.05
284.218	0.04
284.432	0
284.646	-0.03
284.859	-0.03
285.073	0.03
285.287	-0.02
285.501	0
285.714	-0.03
285.928	-0.02
286.142	0
286.356	-0.05
286.569	-0.04
286.783	0.05
286.997	-0.01
287.21	0
287.424	-0.02
287.637	-0.03
287.851	-0.03
288.065	0.02
288.278	0.02
288.492	0.01
288.705	-0.03
288.919	0.06
289.132	-0.02
289.346	0.09
289.559	-0.03
289.773	-0.07
289.986	-0.03
290.2	0.01
290.413	0.03
290.626	-0.03
290.84	-0.01
291.053	-0.04
291.267	0.06
291.48	-0
291.693	0.08
291.906	0.01
292.12	-0.03
292.333	-0.06
292.546	-0.04
292.76	0.1
292.973	0.02
293.186	0.04
293.399	-0.05
293.612	0.02
293.826	0.01
294.039	-0.01
294.252	-0
294.465	0
294.678	0
294.891	-0.04
295.104	-0.03
295.317	-0
295.53	0.04
295.743	0.01
295.956	-0.02
296.169	0.1
296.382	0.04
296.595	-0
296.808	-0.03
297.021	0.04
297.234	0.04
297.447	0.01
297.66	0.02
297.873	0.04
298.086	0.03
298.299	-0.01
298.511	-0.03
298.724	0.04
298.937	-0.02
299.15	-0.05
299.363	0.02
299.575	0.07
299.788	-0.03
300.001	-0.04
300.213	-0.03
300.426	-0.02
300.639	-0.03
300.852	-0.02
301.064	0.03
301.277	0.08
301.489	0.02
301.702	0.05
301.915	0.01
302.127	-0
302.34	0.04
302.552	0.02
302.765	-0.01
302.977	0.01
303.19	-0.03
303.402	0.01
303.615	0.01
303.827	-0.02
304.04	-0.04
304.252	0.06
304.464	-0.04
304.677	0.13
304.889	0.08
305.102	-0.03
305.314	-0.02
305.526	0.04
305.739	-0
305.951	-0
306.163	-0.02
306.375	0.08
306.588	-0.05
306.8	-0.03
307.012	-0.01
307.224	0
307.436	0.04
307.649	-0.06
307.861	0.02
308.073	0.04
308.285	-0.02
308.497	-0.06
308.709	-0.04
308.921	-0
309.133	0.05
309.346	0
309.558	-0.01
309.77	0.07
309.982	0.05
310.194	0.02
310.406	-0
310.617	0.08
310.829	0.02
311.041	0.04
311.253	-0.01
311.465	0.01
311.677	0.01
311.889	-0.03
312.101	-0.01
312.313	0.08
312.524	0.04
312.736	-0.05
312.948	-0.02
313.16	0.04
313.372	0.01
313.583	0.02
313.795	-0.05
314.007	0
314.218	0.03
314.43	0.04
314.642	0.02
314.853	-0.05
315.065	0.02
315.277	-0.03
315.488	0.02
315.7	0.08
315.912	0.01
316.123	-0.03
316.335	-0.03
316.546	0.11
316.758	0.03
316.969	-0.04
317.181	0.01
317.392	0.01
317.604	0.03
317.815	-0.04
318.026	-0.05
318.238	-0
318.449	0.03
318.661	-0.06
318.872	-0.06
319.083	-0.02
319.295	0.01
319.506	-0.03
319.717	0.03
319.929	0.03
320.14	-0.02
320.351	0.02
320.562	-0.01
320.774	-0.04
320.985	0.02
321.196	-0.09
321.407	-0.07
321.618	0.03
321.829	-0.01
322.041	0.03
322.252	-0.01
322.463	0.04
322.674	0.01
322.885	-0
323.096	-0.05
323.307	-0.02
323.518	-0.01
323.729	-0.03
323.94	0.02
324.151	-0.04
324.362	0.03
324.573	-0
324.784	-0.04
324.995	0.06
325.206	0.02
325.417	0.01
325.628	0
325.838	0
326.049	-0.01
326.26	0.03
326.471	0
326.682	0.01
326.892	-0.02
327.103	-0.04
327.314	-0.07
327.525	0.02
327.735	0.02
327.946	-0.04
328.157	-0.02
328.368	-0
328.578	-0.07
328.789	0.02
328.999	-0
329.21	0.01
329.421	0.01
329.631	-0.05
329.842	-0.03
330.052	0.03
330.263	0.01
330.473	0.02
330.684	0.01
330.894	-0.04
331.105	0.02
331.315	0.01
331.526	-0.04
331.736	0.07
331.947	0.04
332.157	-0.01
332.367	-0.02
332.578	0.05
332.788	0.04
332.999	0.04
333.209	0.02
333.419	-0.03
333.629	0.03
333.84	0.03
334.05	-0.03
334.26	0.09
334.47	-0.01
334.681	0.04
334.891	0.03
335.101	0.06
335.311	0.09
335.521	0.02
335.732	-0.05
335.942	0.06
336.152	0.04
336.362	0.02
336.572	0.04
336.782	0.04
336.992	-0.04
337.202	-0.03
337.412	-0.03
337.622	0.06
337.832	0.02
338.042	0
338.252	0.02
338.462	-0
338.672	-0
338.882	-0.03
339.092	-0.04
339.302	0.04
339.511	0.01
339.721	-0.01
339.931	-0.03
340.141	-0.01
340.351	0.06
340.561	0
340.77	-0
340.98	-0.04
341.19	0.01
341.4	-0.08
341.609	-0
341.819	-0.01
342.029	-0.04
342.238	0.02
342.448	-0.03
342.658	0.02
342.867	0.01
343.077	-0.03
343.286	0.03
343.496	-0.02
343.706	0.05
343.915	-0.03
344.125	-0
344.334	0
344.544	-0.04
344.753	0
344.963	-0.03
345.172	-0.01
345.381	-0.01
345.591	-0
345.8	0.04
346.01	0.04
346.219	0.02
346.428	-0.13
346.638	0.02
346.847	0
347.056	0.06
347.266	-0.01
347.475	0
347.684	0.04
347.893	0.01
348.103	-0.01
348.312	0.01
348.521	0
348.73	0.01
348.94	0.04
349.149	0
349.358	-0.01
349.567	0.03
349.776	-0.02
349.985	-0
350.194	0.01
350.403	0.05
350.612	-0.03
350.821	0.01
351.03	-0.02
351.239	-0.03
351.448	0.01
351.657	-0.05
351.866	0.05
352.075	0
352.284	0.03
352.493	-0.03
352.702	0.07
352.911	0.06
353.12	0.03
353.329	-0.02
353.538	0
353.746	0.01
353.955	-0.02
354.164	0.04
354.373	0.02
354.582	0.08
354.79	0.04
354.999	0.04
355.208	-0.04
355.416	0.09
355.625	-0.02
355.834	-0.02
356.042	0
356.251	-0.02
356.46	-0.01
356.668	0.02
356.877	0.06
357.085	0.02
357.294	-0.05
357.503	0.06
357.711	-0
357.92	0.11
358.128	0.06
358.337	-0.01
358.545	0.04
358.754	-0.01
358.962	0.04
359.17	0
359.379	-0
359.587	0.06
359.796	0.02
360.004	0.07
360.212	0.02
360.421	0.04
360.629	-0.03
360.837	0.01
361.046	0.05
361.254	0.15
361.462	0.03
361.67	-0.01
361.879	0.03
362.087	0.06
362.295	0.02
362.503	0.01
362.711	0.01
362.92	-0.05
363.128	-0.01
363.336	-0.03
363.544	-0.05
363.752	0.01
363.96	-0.04
364.168	-0
364.376	-0.02
364.584	0.04
364.792	0.03
365	0.04
365.208	0.01
365.416	0.04
365.624	0.07
365.832	0.04
366.04	0.07
366.248	0.03
366.456	0.06
366.664	0.06
366.872	0.02
367.079	0.05
367.287	0.05
367.495	0.06
367.703	0.05
367.911	0.03
368.118	0.09
368.326	0.05
368.534	0.08
368.742	0.16
368.949	0.04
369.157	0.04
369.365	0.13
369.572	0.11
369.78	0.11
369.988	0.16
370.195	0.22
370.403	0.21
370.61	0.18
370.818	0.2
371.026	0.32
371.233	0.22
371.441	0.31
371.648	0.31
371.856	0.32
372.063	0.38
372.271	0.35
372.478	0.41
372.685	0.46
372.893	0.51
373.1	0.53
373.308	0.54
373.515	0.7
373.722	0.66
373.93	0.67
374.137	0.78
374.344	0.84
374.552	0.82
374.759	0.89
374.966	0.91
375.173	0.97
375.381	1.07
375.588	1.07
375.795	1.02
376.002	1.17
376.209	1.22
376.417	1.25
376.624	1.34
376.831	1.45
377.038	1.46
377.245	1.49
377.452	1.65
377.659	1.73
377.866	1.69
378.073	1.92
378.28	2.02
378.487	2.11
378.694	2.22
378.901	2.32
379.108	2.37
379.315	2.5
379.522	2.63
379.729	2.69
379.936	2.75
380.143	2.92
380.35	2.95
380.557	3.11
380.763	3.22
380.97	3.31
381.177	3.42
381.384	3.68
381.591	3.74
381.797	3.8
382.004	3.93
382.211	4.04
382.418	4.16
382.624	4.25
382.831	4.27
383.038	4.47
383.244	4.42
383.451	4.43
383.658	4.43
383.864	4.51
384.071	4.49
384.277	4.64
384.484	4.52
384.69	4.49
384.897	4.42
385.103	4.41
385.31	4.3
385.516	4.26
385.723	4.15
385.929	4.09
386.136	3.87
386.342	3.85
386.549	3.8
386.755	3.66
386.961	3.58
387.168	3.38
387.374	3.24
387.58	3.17
387.787	2.98
387.993	2.95
388.199	2.76
388.406	2.67
388.612	2.54
388.818	2.41
389.024	2.27
389.231	2.26
389.437	2.24
389.643	2.16
389.849	2.08
390.055	1.96
390.261	1.87
390.467	1.88
390.674	1.81
390.88	1.74
391.086	1.73
391.292	1.62
391.498	1.59
391.704	1.62
391.91	1.46
392.116	1.44
392.322	1.32
392.528	1.4
392.734	1.29
392.94	1.27
393.146	1.19
393.352	1.21
393.557	1.11
393.763	1.11
393.969	1.13
394.175	1.05
394.381	1.05
394.587	0.93
394.792	0.93
394.998	0.96
395.204	0.96
395.41	0.81
395.615	0.85
395.821	0.85
396.027	0.83
396.233	0.72
396.438	0.76
396.644	0.82
396.85	0.69
397.055	0.64
397.261	0.69
397.466	0.69
397.672	0.58
397.878	0.63
398.083	0.55
398.289	0.46
398.494	0.54
398.7	0.49
398.905	0.42
399.111	0.52
399.316	0.42
399.522	0.39
399.727	0.43
399.932	0.38
400.138	0.35
400.343	0.4
400.549	0.38
400.754	0.34
400.959	0.39
401.165	0.32
401.37	0.34
401.575	0.35
401.78	0.33
401.986	0.3
402.191	0.28
402.396	0.26
402.601	0.29
402.807	0.32
403.012	0.28
403.217	0.33
403.422	0.25
403.627	0.26
403.832	0.22
404.037	0.31
404.243	0.25
404.448	0.21
404.653	0.29
404.858	0.21
405.063	0.26
405.268	0.2
405.473	0.13
405.678	0.15
405.883	0.34
406.088	0.22
406.293	0.14
406.498	0.13
406.703	0.24
406.907	0.18
407.112	0.11
407.317	0.15
407.522	0.18
407.727	0.09
407.932	0.19
408.136	0.22
408.341	0.18
408.546	0.2
408.751	0.13
408.956	0.13
409.16	0.22
409.365	0.13
409.57	0.17
409.774	0.14
409.979	0.15
410.184	0.16
410.388	0.07
410.593	0.16
410.798	0.14
411.002	0.13
411.207	0.16
411.411	0.18
411.616	0.11
411.82	0.13
412.025	0.11
412.229	0.04
412.434	0.12
412.638	0.12
412.843	0.09
413.047	0.07
413.252	0.04
413.456	0.05
413.66	0.11
413.865	0.07
414.069	0.1
414.273	0.09
414.478	0.1
414.682	0.1
414.886	0.07
415.091	0.02
415.295	0.01
415.499	0.08
415.703	0.1
415.908	0.09
416.112	-0.01
416.316	0.11
416.52	0.07
416.724	0.01
416.929	0.04
417.133	0.16
417.337	0.05
417.541	0.03
417.745	0.09
417.949	0.11
418.153	0.09
418.357	0.02
418.561	0.09
418.765	0.05
418.969	0.17
419.173	0.12
419.377	0.05
419.581	0.17
419.785	0.02
419.989	-0
420.193	0.03
420.397	0.05
420.601	0.12
420.804	0.11
421.008	0.04
421.212	0.08
421.416	0.08
421.62	0.02
421.823	0.03
422.027	0.13
422.231	0.06
422.435	0.01
422.638	0.08
422.842	0.02
423.046	0.04
423.249	0.11
423.453	0.1
423.657	0.06
423.86	0.05
424.064	-0.01
424.268	0.08
424.471	0.07
424.675	0.1
424.878	0.12
425.082	0.11
425.285	0.08
425.489	0.06
425.692	0.11
425.896	0.06
426.099	0.09
426.303	0.02
426.506	-0
426.71	-0
426.913	0.14
427.116	0.08
427.32	0.04
427.523	0.05
427.726	0.14
427.93	-0.03
428.133	0.08
428.336	0.02
428.54	-0.03
428.743	0.07
428.946	0.13
429.149	0.04
429.353	0.04
429.556	0.04
429.759	0.03
429.962	0.03
430.165	0.06
430.368	0.04
430.571	0
430.775	0.05
430.978	0.02
431.181	0.06
431.384	0.08
431.587	0.07
431.79	0.04
431.993	0.05
432.196	0.02
432.399	0.1
432.602	0.08
432.805	0.05
433.008	0.04
433.211	-0
433.414	0.16
433.616	0.09
433.819	0.04
434.022	-0.01
434.225	0.19
434.428	0.08
434.631	0.09
434.833	0.08
435.036	0.04
435.239	0.14
435.442	0.06
435.645	0.05
435.847	0.09
436.05	0.09
436.253	0.05
436.455	0.01
436.658	0.03
436.861	0.14
437.063	0.03
437.266	0.07
437.468	0.13
437.671	0.23
437.874	0.11
438.076	0.03
438.279	-0
438.481	0.01
438.684	0.02
438.886	0.07
439.089	0
439.291	0.07
439.494	0.12
439.696	0
439.899	0.05
440.101	0.05
440.303	0.01
440.506	0.15
440.708	0.07
440.91	0.08
441.113	0.04
441.315	0.12
441.517	0.08
441.72	0.1
441.922	0.02
442.124	0.06
442.326	0.09
442.529	0.14
442.731	0.01
442.933	0.15
443.135	0.07
443.337	-0
443.539	0.09
443.742	0.05
443.944	0.04
444.146	0.02
444.348	0.06
444.55	0.04
444.752	0.09
444.954	0.04
445.156	0.09
445.358	0.04
445.56	0.11
445.762	0.11
445.964	0.05
446.166	0.07
446.368	0.05
446.57	0.09
446.772	0.09
446.974	0.07
447.175	0.11
447.377	0.03
447.579	0.08
447.781	0.02
447.983	0.16
448.184	0.06
448.386	0.11
448.588	0.04
448.79	0.06
448.991	0.08
449.193	0.09
449.395	0.13
449.597	0.12
449.798	0.08
450	0.12
450.202	0.06
450.403	0.09
450.605	0.1
450.806	0.07
451.008	0.03
451.21	0.12
451.411	0.1
451.613	0.06
451.814	0.09
452.016	0.12
452.217	0.11
452.419	0.13
452.62	0.09
452.821	0.07
453.023	0.15
453.224	0.13
453.426	0.08
453.627	0.08
453.828	0.06
454.03	0.07
454.231	0.09
454.432	0.03
454.634	0.14
454.835	0.05
455.036	0.07
455.238	0.09
455.439	0.1
455.64	0.02
455.841	0.02
456.042	0.11
456.244	0.09
456.445	0.03
456.646	-0.01
456.847	0.01
457.048	0.09
457.249	0.11
457.45	0.24
457.651	0.03
457.852	0.06
458.054	0.1
458.255	0.05
458.456	0.08
458.657	0.03
458.858	0.02
459.058	0.04
459.259	0.09
459.46	0.04
459.661	0.02
459.862	0.12
460.063	0.06
460.264	0.06
460.465	-0.01
460.666	0.14
460.866	0.07
461.067	0.05
461.268	0.03
461.469	0.04
461.67	0.09
461.87	0.03
462.071	0.05
462.272	-0.02
462.473	0.08
462.673	0.06
462.874	0.03
463.075	0.03
463.275	0.01
463.476	0.02
463.676	0.03
463.877	0.1
464.078	0.01
464.278	0.11
464.479	0.03
464.679	0.04
464.88	0.02
465.08	0.09
465.281	-0.04
465.481	-0.02
465.682	0.04
465.882	0.06
466.083	0
466.283	0.02
466.483	0.02
466.684	-0
466.884	0.03
467.085	0.02
467.285	0.05
467.485	-0.01
467.686	0.06
467.886	0.01
468.086	0.01
468.286	0.07
468.487	0.08
468.687	0.01
468.887	0.03
469.087	0.08
469.287	0.01
469.488	-0.01
469.688	0.06
469.888	0.06
470.088	0.08
470.288	0.07
470.488	0.07
470.688	-0.04
470.888	-0.01
471.088	-0
471.288	0.05
471.488	0.06
471.688	0.02
471.888	-0.02
472.088	0.07
472.288	0.03
472.488	-0.03
472.688	-0.02
472.888	0.03
473.088	-0.01
473.288	-0.01
473.488	0.07
473.688	0.09
473.887	0.04
474.087	0.03
474.287	0.04
474.487	0.01
474.687	0.06
474.886	-0.02
475.086	0.04
475.286	-0
475.486	0.04
475.685	0.01
475.885	0.01
476.085	0.03
476.284	0.04
476.484	-0.02
476.684	0.07
476.883	0.09
477.083	0.04
477.282	-0.03
477.482	0.07
477.681	0.04
477.881	0.06
478.08	-0.03
478.28	0
478.479	0.06
478.679	0.08
478.878	-0
479.078	-0.01
479.277	-0.01
479.477	0
479.676	0.04
479.875	0.02
480.075	-0.04
480.274	0.02
480.473	0.03
480.673	0
480.872	0.03
481.071	0.02
481.271	0.06
481.47	-0.02
481.669	-0.01
481.868	-0.03
482.067	-0.02
482.267	0.01
482.466	-0
482.665	-0.03
482.864	-0.01
483.063	-0.05
483.262	0.05
483.461	0.07
483.661	0.03
483.86	0.01
484.059	0.01
484.258	0
484.457	-0.01
484.656	-0
484.855	0.04
485.054	-0.02
485.253	-0.01
485.452	-0.02
485.651	-0.02
485.849	0.01
486.048	0.01
486.247	-0.01
486.446	0.01
486.645	-0.01
486.844	-0.01
487.043	0.01
487.241	0.01
487.44	-0.01
487.639	0.02
487.838	0.02
488.037	0.01
488.235	0.04
488.434	0.02
488.633	0
488.831	0.05
489.03	0.01
489.229	0
489.427	-0.01
489.626	0.04
489.825	0.05
490.023	0.03
490.222	0.01
490.42	0.03
490.619	0.04
490.817	0.01
491.016	-0.03
491.214	0.06
491.413	0
491.611	-0.01
491.81	0.02
492.008	-0
492.207	0.02
492.405	0.02
492.604	-0.05
492.802	-0.01
493	0.01
493.199	-0.01
493.397	0.02
493.595	0
493.794	-0.03
493.992	0.05
494.19	0.01
494.388	0.02
494.587	-0.01
494.785	0.01
494.983	-0.02
495.181	0.01
495.379	0.01
495.578	0.01
495.776	0.02
495.974	0.02
496.172	-0.02
496.37	-0.01
496.568	-0.03
496.766	-0.01
496.964	0.03
497.162	0.01
497.36	-0.01
497.558	0.02
497.756	0.03
497.954	0.03
498.152	-0.01
498.35	0
498.548	0.02
498.746	-0
498.944	0
499.142	-0.01
499.34	-0.05
499.538	-0.01
499.736	-0.02
499.933	0.06
500.131	0.02
500.329	0.02
500.527	0.03
500.725	0.05
500.922	0.02
501.12	0.03
501.318	0.03
501.516	-0.01
501.713	0.03
501.911	-0.01
502.109	-0.04
502.306	0.03
502.504	-0.01
502.701	-0.01
502.899	-0.01
503.097	0.03
503.294	0
503.492	0.01
503.689	0.02
503.887	0.02
504.084	0.06
504.282	-0
504.479	-0.03
504.677	0.01
504.874	-0.02
505.072	0.01
505.269	0
505.466	0.02
505.664	0.01
505.861	-0.05
506.059	0
506.256	0.01
506.453	-0.03
506.651	0.03
506.848	0.03
507.045	0.04
507.242	-0
507.44	0.01
507.637	0.01
507.834	-0.01
508.031	0.03
508.229	0
508.426	0.01
508.623	0.03
508.82	-0
509.017	-0.02
509.214	-0.01
509.411	-0
509.608	-0.01
509.805	-0.01
510.003	-0
510.2	-0
510.397	-0
510.594	-0.02
510.791	0.02
510.988	0.01
511.184	0.05
511.381	0.01
511.578	-0.02
511.775	0.02
511.972	-0.01
512.169	0
512.366	0
512.563	0.05
512.76	-0.03
512.956	0.01
513.153	0.01
513.35	-0
513.547	-0.01
513.744	-0.02
513.94	-0.03
514.137	0.02
514.334	-0.01
514.53	0
514.727	0.01
514.924	0.04
515.12	0.01
515.317	-0.03
515.514	-0.02
515.71	-0.02
515.907	-0.01
516.103	0
516.3	0
516.497	0.01
516.693	0.03
516.89	0.01
517.086	-0.02
517.283	0.05
517.479	0.01
517.676	0.01
517.872	0.01
518.068	-0.02
518.265	-0.01
518.461	-0.01
518.658	-0.03
518.854	0.02
519.05	-0.01
519.247	-0.02
519.443	0.03
519.639	0.01
519.836	-0
520.032	-0
520.228	0
520.424	0.03
520.621	0.03
520.817	-0.01
521.013	0.01
521.209	0.01
521.405	0.04
521.601	0.03
521.798	0.02
521.994	0.05
522.19	0
522.386	-0.01
522.582	0
522.778	0.01
522.974	0
523.17	-0.02
523.366	0.03
523.562	0.03
523.758	-0.01
523.954	-0.02
524.15	0
524.346	0.03
524.542	0.01
524.738	0
524.934	-0.01
525.129	-0.01
525.325	0.02
525.521	0
525.717	0.03
525.913	0
526.109	-0.01
526.304	0
526.5	0.01
526.696	0.03
526.892	-0.02
527.087	0.01
527.283	-0
527.479	0.01
527.674	-0.02
527.87	0
528.066	-0.01
528.261	0.02
528.457	0.03
528.653	-0.02
528.848	-0.01
529.044	0.01
529.239	-0
529.435	0.03
529.63	0.01
529.826	0.05
530.021	0.02
530.217	0.01
530.412	-0.01
530.608	-0.02
530.803	0.01
530.999	0
531.194	-0.04
531.389	0.01
531.585	-0.02
531.78	-0.01
531.975	-0.01
532.171	0.02
532.366	0.03
532.561	-0
532.757	-0.02
532.952	-0.03
533.147	0.04
533.342	-0.03
533.538	-0
533.733	0.02
533.928	-0
534.123	0
534.318	-0.04
534.513	-0.02
534.709	0
534.904	-0.02
535.099	-0.02
535.294	0
535.489	0
535.684	0.01
535.879	-0.01
536.074	0.03
536.269	-0.02
536.464	0.03
536.659	0.01
536.854	-0
537.049	0.01
537.244	0.02
537.439	0
537.634	0.02
537.828	-0
538.023	-0.01
538.218	-0.03
538.413	0.01
538.608	-0.02
538.803	0.03
538.997	-0.03
539.192	0.03
539.387	0.01
539.582	-0
539.776	0.02
539.971	-0
540.166	-0.01
540.36	-0.03
540.555	0.01
540.75	-0.03
540.944	-0.01
541.139	-0.02
541.334	-0.01
541.528	0.01
541.723	0.01
541.917	0.01
542.112	-0.03
542.306	0
542.501	0.01
542.695	0.01
542.89	-0.04
543.084	0.01
543.279	-0
543.473	-0.02
543.668	-0.02
543.862	0.01
544.056	0.02
544.251	-0.03
544.445	0
544.64	0
544.834	-0.02
545.028	-0
545.222	-0.01
545.417	0.02
545.611	-0.01
545.805	0.01
546	0
546.194	-0.01
546.388	0
546.582	0.03
546.776	0
546.97	-0.01
547.165	0.04
547.359	0.01
547.553	0
547.747	-0
547.941	0.02
548.135	0.01
548.329	-0
548.523	0.02
548.717	0
548.911	0
549.105	0.01
549.299	-0.01
549.493	0.01
549.687	0.02
549.881	0.01
550.075	-0
550.269	-0.02
550.463	0.02
550.657	-0.01
550.85	-0
551.044	-0.01
551.238	0
551.432	0
551.626	-0.02
551.82	0.01
552.013	-0.01
552.207	0.02
552.401	0.02
552.594	0.01
552.788	-0.01
552.982	-0
553.176	-0.02
553.369	0.02
553.563	0.02
553.756	-0
553.95	-0.03
554.144	-0.02
554.337	0.02
554.531	-0
554.724	0
554.918	-0
555.111	-0.03
555.305	-0.01
555.498	0.05
555.692	0.01
555.885	-0.01
556.079	0
556.272	-0.01
556.466	0.03
556.659	0.02
556.852	-0
557.046	0.01
557.239	0.02
557.432	-0.03
557.626	-0.01
557.819	0
558.012	0.03
558.206	0.01
558.399	0
558.592	0.01
558.785	-0.02
558.979	0.02
559.172	-0
559.365	0.03
559.558	0.02
559.751	-0
559.944	-0.01
560.138	-0
560.331	-0.02
560.524	-0.01
560.717	0
560.91	-0
561.103	0.03
561.296	-0.01
561.489	0.01
561.682	0.02
561.875	0.05
562.068	0.01
562.261	0.02
562.454	0.04
562.647	0
562.84	0.03
563.032	0.01
563.225	0.01
563.418	-0.01
563.611	-0.01
563.804	0.01
563.997	-0.03
564.19	-0.03
564.382	0.02
564.575	0
564.768	-0.01
564.961	-0.01
565.153	-0.02
565.346	0.03
565.539	0.01
565.731	0.03
565.924	0.01
566.117	0.01
566.309	0
566.502	-0.01
566.695	-0.01
566.887	-0.01
567.08	-0.04
567.272	0
567.465	-0.02
567.657	0.03
567.85	0.02
568.042	0.03
568.235	0.05
568.427	-0
568.62	-0
568.812	0.01
569.005	-0.01
569.197	-0.02
569.389	0.01
569.582	0.01
569.774	0.03
569.966	-0.01
570.159	-0.03
570.351	0.02
570.543	-0.01
570.736	-0.01
570.928	-0.02
571.12	0.01
571.312	-0.01
571.505	-0.03
571.697	0.04
571.889	-0.02
572.081	0
572.273	-0.04
572.465	0.01
572.658	-0.01
572.85	0.03
573.042	-0.02
573.234	-0.02
573.426	0.05
573.618	-0.03
573.81	0.04
574.002	0.05
574.194	0.01
574.386	-0.02
574.578	-0.07
574.77	-0.03
574.962	-0
575.154	-0.02
575.346	-0.01
575.538	-0.02
575.729	-0.01
575.921	-0.01
576.113	-0.01
576.305	0.03
576.497	0.01
576.689	-0.01
576.88	-0.04
577.072	0.02
577.264	0.01
577.456	-0.01
577.647	-0.07
577.839	-0.01
578.031	0.02
578.223	-0.04
578.414	-0.02
578.606	0.01
578.798	0.01
578.989	-0.01
579.181	-0
579.372	0.01
579.564	0.01
579.755	0.01
579.947	0
580.139	-0.01
580.33	-0.04
580.522	-0.01
580.713	-0.05
580.905	-0.01
581.096	0.02
581.287	0.01
581.479	0.02
581.67	0.02
581.862	0
582.053	-0.03
582.244	-0.06
582.436	-0.02
582.627	0.01
582.818	-0.03
583.01	-0.03
583.201	0.02
583.392	0.01
583.583	-0.01
583.775	-0.03
583.966	-0.01
584.157	-0
584.348	-0.03
584.54	-0.05
584.731	0
584.922	0.02
585.113	-0.01
585.304	0.02
585.495	0.04
585.686	0.01
585.877	-0.01
586.068	0.03
586.259	0.01
586.45	-0.01
586.641	-0.02
586.832	-0.04
587.023	0.01
587.214	-0
587.405	-0.02
587.596	-0.02
587.787	0.01
587.978	-0.01
588.169	-0.02
588.36	-0.02
588.551	0
588.742	-0.03
588.932	0.01
589.123	0
589.314	0.03
589.505	-0
589.696	0.03
589.886	-0.01
590.077	-0.03
590.268	0
590.458	-0.06
590.649	-0.03
590.84	0.03
591.03	-0.03
591.221	-0.03
591.412	-0.03
591.602	0.01
591.793	0.02
591.984	-0.03
592.174	-0
592.365	0.04
592.555	-0.04
592.746	0.03
592.936	0.01
593.127	0.01
593.317	0.04
593.508	-0.02
593.698	-0.01
593.889	-0
594.079	0
594.269	-0.02
594.46	0.02
594.65	-0.03
594.84	0.01
595.031	-0.02
595.221	-0.01
595.411	-0.03
595.602	0.02
595.792	-0
595.982	-0.02
596.172	0.02
596.363	-0
596.553	0.01
596.743	-0
596.933	0
597.123	0.04
597.314	-0.04
597.504	-0.02
597.694	0.04
597.884	-0.01
598.074	-0.04
598.264	-0.04
598.454	0.02
598.644	-0
598.834	-0.04
599.024	-0.07
599.214	-0.02
599.404	0.03
599.594	-0.03
599.784	-0.03
599.974	0.03
600.164	0.02
600.354	-0.03
600.544	-0.04
600.734	0.01
600.924	0
601.114	-0.01
601.303	-0.01
601.493	0.01
601.683	0
601.873	-0.02
602.063	-0.05
602.252	0.02
602.442	-0.05
602.632	-0.04
602.821	-0.04
603.011	0.02
603.201	-0.01
603.39	-0.02
603.58	-0.02
603.77	0.01
603.959	0.04
604.149	0.02
604.339	-0.02
604.528	0.02
604.718	0.01
604.907	-0.02
605.097	-0.01
605.286	-0.05
605.476	0.02
605.665	0.03
605.855	-0.03
606.044	0.03
606.234	-0.01
606.423	-0.02
606.612	-0.05
606.802	-0.02
606.991	0.03
607.181	0.01
607.37	-0.03
607.559	-0.01
607.749	-0.07
607.938	0
608.127	-0
608.316	-0.01
608.506	0.01
608.695	-0
608.884	-0.04
609.073	0.01
609.263	0.02
609.452	0.01
609.641	-0.01
609.83	-0.05
610.019	0.01
610.208	-0.04
610.397	0.01
610.586	-0.02
610.775	-0.02
610.965	-0.03
611.154	-0.01
611.343	-0
611.532	-0
611.721	-0.08
611.91	-0.03
612.099	0.01
612.287	-0.02
612.476	-0.06
612.665	0.03
612.854	-0.02
613.043	0.03
613.232	-0.01
613.421	-0.05
613.61	0.03
613.798	-0.03
613.987	0.04
614.176	-0.03
614.365	0.02
614.554	0.02
614.742	0.02
614.931	-0.04
615.12	0.03
615.309	0.01
615.497	-0
615.686	-0.01
615.875	-0.02
616.063	-0.03
616.252	-0.01
616.44	-0.01
616.629	-0.04
616.818	0.03
617.006	-0
617.195	-0.02
617.383	0.02
617.572	0
617.76	0
617.949	-0.01
618.137	0.02
618.326	0.01
618.514	-0.03
618.703	-0.03
618.891	0.05
619.079	-0.03
619.268	0.01
619.456	-0.05
619.644	0.05
619.833	-0.04
620.021	-0.02
620.209	-0.06
620.398	0.01
620.586	0.02
620.774	0.01
620.962	0
621.151	0.05
621.339	-0.04
621.527	-0.02
621.715	-0.06
621.903	-0.02
622.092	-0.02
622.28	0.01
622.468	0.01
622.656	-0.01
622.844	0
623.032	0.01
623.22	-0.05
623.408	0.04
623.596	-0.01
623.784	0.01
623.972	-0.02
624.16	-0.03
624.348	0.05
624.536	-0.03
624.724	-0.01
624.912	0.03
625.1	0.03
625.288	-0.04
625.476	0
625.664	0.03
625.851	-0.02
626.039	-0.02
626.227	0.04
626.415	-0.02
626.603	-0.04
626.79	0.02
626.978	-0.04
627.166	0.02
627.354	0.02
627.541	-0.02
627.729	-0.07
627.917	-0.01
628.104	0.02
628.292	0
628.48	-0.02
628.667	-0.01
628.855	0.01
629.042	0
629.23	-0.05
629.418	0
629.605	0
629.793	-0.02
629.98	-0.01
630.168	0.01
630.355	-0.02
630.543	-0
630.73	-0.01
630.917	0.03
631.105	0.07
631.292	-0.03
631.48	0.02
631.667	0.04
631.854	0.03
632.042	-0
632.229	-0.06
632.416	0.01
632.604	-0.02
632.791	-0.01
632.978	0.02
633.165	0.03
633.353	0.09
633.54	0
633.727	-0.04
633.914	0.02
634.101	-0.09
634.289	0.07
634.476	-0.04
634.663	-0.02
634.85	0
635.037	-0.02
635.224	-0.04
635.411	0.04
635.598	0.05
635.785	0.05
635.972	0.02
636.159	0.05
636.346	-0.01
636.533	0.01
636.72	-0.01
636.907	-0.01
637.094	0.03
637.281	-0.01
637.468	0.06
637.655	0.04
637.842	0.03
638.029	-0.02
638.215	0.04
638.402	0.04
638.589	-0.03
638.776	0
638.963	0.01
639.149	0.05
639.336	0.04
639.523	0
639.709	0.03
639.896	-0
640.083	0.06
640.27	0.05
640.456	-0.04
640.643	0.04
640.829	-0.02
641.016	0.01
641.203	0.01
641.389	0.04
641.576	0.02
641.762	0.03
641.949	-0
642.135	0.04
642.322	0.03
642.508	-0.02
642.695	0.01
642.881	-0.01
643.068	-0.02
643.254	0.01
643.441	0.08
643.627	0.02
643.813	-0.03
644	0.04
644.186	0
644.372	0.06
644.559	0.08
644.745	0.02
644.931	0.01
645.118	0.06
645.304	0.02
645.49	0
645.676	0.01
645.862	0.05
646.049	0.07
646.235	0.05
646.421	0.11
646.607	0.06
646.793	0.02
646.979	0
647.165	0.07
647.352	0.03
647.538	0.09
647.724	0.07
647.91	0.04
648.096	0.07
648.282	0.05
648.468	0.06
648.654	0.06
648.84	0.02
649.026	0.04
649.212	0.05
649.397	0.03
649.583	0.01
649.769	0.07
649.955	0.05
650.141	0.09
650.327	0.1
650.513	0.02
650.698	0.07
650.884	0.01
651.07	0.06
651.256	0.05
651.442	0.07
651.627	0.05
651.813	0.08
651.999	0.05
652.184	0.13
652.37	0.05
652.556	0.04
652.741	0.12
652.927	-0.02
653.113	0.04
653.298	0.06
653.484	0.07
653.669	0.06
653.855	0.08
654.04	0.1
654.226	0.13
654.412	0.07
654.597	0.02
654.782	0.12
654.968	0.12
655.153	0.14
655.339	0.05
655.524	0.06
655.71	0.08
655.895	0.1
656.08	0.05
656.266	0.12
656.451	0.12
656.636	0.07
656.822	0.1
657.007	0.09
657.192	0.07
657.378	0.05
657.563	0.1
657.748	0.12
657.933	0.11
658.118	0.06
658.304	0.1
658.489	0.16
658.674	0.12
658.859	0.05
659.044	0.11
659.229	0.12
659.414	0.1
659.599	0.1
659.785	0.04
659.97	0.08
660.155	0.11
660.34	0.1
660.525	0.1
660.71	0.07
660.895	0.11
661.08	0.09
661.264	0.06
661.449	0.11
661.634	0.14
661.819	0.11
662.004	0.12
662.189	0
662.374	0.06
662.559	0.07
662.743	0.04
662.928	0.06
663.113	0.06
663.298	-0.01
663.483	0.08
663.667	0.09
663.852	0.01
664.037	0.07
664.221	0.05
664.406	0.06
664.591	0.1
664.775	0.06
664.96	0.06
665.145	0.04
665.329	0.1
665.514	0.03
665.698	0.04
665.883	0
666.068	0.1
666.252	0.05
666.437	-0.01
666.621	0.04
666.806	0.03
666.99	0.03
667.174	-0.04
667.359	0.07
667.543	0.03
667.728	-0
667.912	-0.04
668.096	0.02
668.281	-0.02
668.465	0.02
668.649	0.05
668.834	0.01
669.018	-0.01
669.202	0.01
669.387	-0.02
669.571	0.09
669.755	-0.02
669.939	0
670.124	0
670.308	0.06
670.492	0.04
670.676	0.02
670.86	0
671.044	-0.06
671.228	0.04
671.413	-0.03
671.597	0.01
671.781	-0.04
671.965	-0.01
672.149	0.02
672.333	-0.03
672.517	0.01
672.701	0.02
672.885	-0.02
673.069	-0.03
673.253	0.02
673.437	0.01
673.621	-0.04
673.804	-0.02
673.988	-0
674.172	-0.02
674.356	-0.05
674.54	-0.01
674.724	0.04
674.908	0
675.091	-0.02
675.275	-0.02
675.459	0.02
675.643	0.05
675.826	0.04
676.01	0.01
676.194	-0.01
676.377	0.02
676.561	0.05
676.745	0.02
676.928	0.02
677.112	0.04
677.296	-0.05
677.479	-0.03
677.663	-0
677.846	0.01
678.03	0
678.213	0
678.397	0.01
678.58	-0.03
678.764	-0.04
678.947	-0.04
679.131	-0.07
679.314	-0.03
679.498	0.01
679.681	0.01
679.865	0.02
680.048	-0
680.231	-0.03
680.415	-0.02
680.598	-0.03
680.781	-0.04
680.965	-0.04
681.148	-0
681.331	-0.03
681.514	0.01
681.698	-0.02
681.881	-0.01
682.064	-0.01
682.247	0
682.43	-0.08
682.614	0.04
682.797	0.01
682.98	-0.02
683.163	-0.04
683.346	0.03
683.529	-0.04
683.712	-0.08
683.895	0.02
684.078	-0.06
684.261	-0.01
684.444	-0.06
684.627	-0.03
684.81	-0.03
684.993	-0.04
685.176	-0.01
685.359	-0.06
685.542	0
685.725	-0.01
685.908	-0.01
686.091	-0.02
686.274	0.05
686.457	-0.01
686.639	-0.06
686.822	0.03
687.005	0.03
687.188	-0.01
687.371	0.08
687.553	-0.01
687.736	0.02
687.919	0.05
688.102	0.07
688.284	-0.02
688.467	0
688.65	-0.04
688.832	-0.04
689.015	-0.01
689.197	-0.05
689.38	0.05
689.563	0.04
689.745	-0.04
689.928	-0.06
690.11	-0
690.293	0.02
690.475	-0.09
690.658	0
690.84	-0.04
691.023	-0.02
691.205	-0.07
691.388	0.02
691.57	0.05
691.752	0.03
691.935	-0.05
692.117	0.01
692.3	-0.02
692.482	-0.04
692.664	0.01
692.847	0.01
693.029	0
693.211	0.01
693.393	-0.02
693.576	-0.02
693.758	-0.01
693.94	-0.04
694.122	-0.02
694.304	-0.02
694.487	-0.03
694.669	0.06
694.851	-0.08
695.033	0.03
695.215	-0.03
695.397	-0.04
695.579	0.01
695.761	-0.01
695.943	-0.12
696.125	0.05
696.308	-0
696.49	-0.1
696.671	0.08
696.853	0.01
697.035	0.04
697.217	-0
697.399	0.02
697.581	-0.05
697.763	-0.06
697.945	-0.07
698.127	-0.02
698.309	0.02
698.491	0
698.672	-0.01
698.854	-0
699.036	0.02
699.218	-0
699.399	0.07
699.581	-0.01
699.763	0
699.945	-0.08
700.126	-0.04
700.308	0.01
700.49	0.07
700.671	-0.1
700.853	-0.06
701.035	-0.05
701.216	-0.07
701.398	-0
701.579	-0.01
701.761	0.02
701.943	-0.07
702.124	-0.06
702.306	-0.06
702.487	0.1
702.669	0.01
702.85	-0.07
703.031	-0.05
703.213	0.1
703.394	0.02
703.576	-0.06
703.757	0.04
703.938	0.03
704.12	0.15
704.301	-0.01
704.483	-0.07
704.664	-0.02
704.845	0.05
705.026	0.01
705.208	-0.03
705.389	0.04
705.57	-0.04
705.751	-0.07
705.933	0
706.114	0.07
706.295	-0
706.476	-0.07
706.657	0.05
706.838	0.02
707.02	0.01
707.201	-0.03
707.382	-0.03
707.563	-0.03
707.744	-0.02
707.925	-0.03
708.106	-0.05
708.287	-0.02
708.468	0.08
708.649	-0.02
708.83	0.03
709.011	0
709.192	-0.01
709.373	-0.1
709.554	0.02
709.734	0.04
709.915	0.02
710.096	0.05
710.277	-0.06
710.458	-0.03
710.639	0.04
710.819	-0.12
711	-0.01
711.181	0.03
711.362	0.04
711.542	-0.02
711.723	0.03
711.904	0.03
712.085	0.02
712.265	0.03
712.446	-0.06
712.627	-0.01
712.807	-0.02
712.988	0.08
713.168	-0.04
713.349	0.03
713.53	-0.1
713.71	-0.06
713.891	-0.08
714.071	0.04
714.252	-0.01
714.432	-0.03
714.613	-0.1
714.793	0
714.974	0.09
715.154	0.15
715.334	0.04
715.515	0.1
715.695	-0.03
715.876	0.01
716.056	0.01
716.236	-0.04
716.417	0
716.597	-0.03
716.777	0.09
716.957	-0.06
717.138	0.02
717.318	0.03
717.498	-0.06
717.678	0.02
717.859	-0
718.039	-0.12
718.219	0.08
718.399	0.13
718.579	-0.09
718.759	-0.04
718.939	0.05
719.12	-0
719.3	0.02
719.48	-0.11
719.66	-0.14
719.84	0.06
720.02	0.01
720.2	0.01
720.38	0.04
720.56	0.09
720.74	-0.01
720.92	0.02
721.1	0.05
721.279	0.12
721.459	-0.01
721.639	-0.08
721.819	0.05
721.999	-0.03
722.179	0.06
722.359	0.01
722.538	-0.01
722.718	0.06
722.898	-0.02
723.078	-0.03
723.257	-0.01
723.437	-0.02
723.617	0.06
723.797	0.01
723.976	0.01
724.156	0.05
724.336	0.13
724.515	0.2
724.695	-0.09
724.874	-0.02
725.054	0.1
725.234	0.05
725.413	0.05
725.593	-0.05
725.772	0.04
725.952	0.04
726.131	0.11
726.311	0.04
726.49	0.03
726.67	-0.05
726.849	-0.07
727.028	0.12
727.208	0.03
727.387	0.07
727.567	-0.04
727.746	-0.02
727.925	-0.04
728.105	0.05
728.284	-0.04
728.463	-0.01
728.643	0.23
728.822	-0.01
729.001	0.03
729.18	0.04
729.359	0.08
729.539	-0.01
729.718	0.03
729.897	0.1
730.076	0.04
730.255	-0.01
730.434	0.13
730.614	0.06
730.793	0.1
730.972	-0.01
731.151	0.08
731.33	0.17
731.509	0.12
731.688	0.04
731.867	0.06
732.046	-0.06
732.225	0.34
732.404	-0.09
732.583	0.02
732.762	0.03
732.941	0.06
733.12	0.07
733.298	0.08
733.477	0.22
733.656	-0.1
733.835	-0.08
734.014	0.22
734.193	-0.03
734.371	0.25
734.55	0.1
734.729	-0.02
734.908	0.16
735.086	0.18
735.265	0.14
735.444	-0.02
735.623	0
735.801	-0.03
735.98	0.13
736.159	0.05
736.337	0.18
736.516	0.03
736.694	0.08
736.873	0.01
737.052	0.15
737.23	0.19
737.409	0.02
737.587	0.16
737.766	0
737.944	0.04
738.123	0.13
738.301	0.04
738.479	0.05
738.658	0.15
738.836	-0.04
739.015	0.2
739.193	0.09
739.371	-0.01
739.55	0.06
739.728	-0.08
739.906	0.17
740.085	0.13
740.263	0.11
740.441	-0.03
740.62	0.24
740.798	0.05
740.976	0.01
741.154	-0.05
741.332	0.17
741.511	0.04
741.689	0.11
741.867	0.06
742.045	-0.06
742.223	0.09
742.401	-0.01
742.579	0
742.757	0.11
742.935	-0.06
743.114	0.07
743.292	0.08
743.47	-0
743.648	0.08
743.826	-0.14
744.004	0.07
744.181	0.12
744.359	0
744.537	-0.07
744.715	0.05
744.893	-0.04
745.071	-0.03
745.249	-0.02
745.427	0
745.605	-0.04
745.782	-0.02
745.96	0.09
746.138	0.13
746.316	0.09
746.493	0.02
746.671	0.06
746.849	-0.03
747.027	0.11
747.204	-0.06
747.382	-0.02
747.56	-0.09
747.737	-0.01
747.915	-0.02
748.093	0.09
748.27	-0.08
748.448	-0.03
748.625	-0.04
748.803	-0.08
748.98	-0.04
749.158	0.06
749.335	0.04
749.513	-0.02
749.69	-0.1
749.868	-0.01
750.045	0.07
750.223	-0.13
750.4	-0.15
750.578	0.14
750.755	-0.01
750.932	-0.19
751.11	0.09
751.287	-0.21
751.464	0.08
751.642	-0.03
751.819	0.13
751.996	-0
752.173	-0.01
752.351	-0.15
752.528	-0.03
752.705	-0.09
752.882	-0.04
753.06	-0.01
753.237	0.02
753.414	0.09
753.591	0.12
753.768	-0.04
753.945	-0.07
754.122	-0.06
754.299	0.01
754.476	-0.04
754.654	0.08
754.831	0.05
755.008	-0.06
755.185	-0.04
755.362	-0.11
755.539	-0.01
755.716	-0.11
755.892	-0
756.069	-0.01
756.246	-0.1
756.423	-0
756.6	0.17
756.777	0
756.954	0.08
757.131	-0.03
757.307	-0.17
757.484	-0.09
757.661	-0.01
757.838	-0.08
758.015	-0.09
758.191	0.11
758.368	0.01
758.545	0.03
758.721	-0.03
758.898	-0.06
759.075	0.01
759.251	0.1
759.428	0.04
759.605	-0.12
759.781	-0.03
759.958	-0.07
760.134	0.06
760.311	-0.16
760.488	0.14
760.664	0.11
760.841	-0.02
761.017	-0.13
761.194	0.16
761.37	0.05
761.547	0.01
761.723	0.12
761.899	0.1
762.076	0.03
762.252	-0.04
762.429	-0.09
762.605	0.08
762.781	-0.09
762.958	0.07
763.134	0.04
763.31	-0.14
763.486	0.02
763.663	-0.2
763.839	-0.02
764.015	-0.23
764.191	-0.01
764.368	-0
764.544	-0.16
764.72	-0
764.896	0.07
765.072	0.04
765.248	0.02
765.425	-0.05
765.601	0.03
765.777	-0.08
765.953	-0.2
766.129	-0.02
766.305	-0.12
766.481	0.02
766.657	-0.05
766.833	0.13
767.009	-0.16
767.185	-0.04
767.361	0.01
767.537	-0.13
767.713	0.05
767.889	-0.08
768.065	0.01
768.24	-0.24
768.416	0.02
768.592	-0.05
768.768	0.02
768.944	-0.05
769.12	-0.09
769.295	-0.16
769.471	-0.03
769.647	-0.2
769.823	0.04
769.998	-0.13
770.174	-0.16
770.35	0.21
770.525	0.2
770.701	0.04
770.877	-0.1
771.052	-0.19
771.228	0.05
771.403	-0.09
771.579	0.06
771.755	0.06
771.93	-0.16
772.106	-0.13
772.281	-0.25
772.457	-0.03
772.632	0.02
772.808	-0.21
772.983	-0.22
773.159	-0.18
773.334	0.09
773.509	0.1
773.685	-0.12
773.86	0.22
774.036	0.18
774.211	-0.02
774.386	-0.06
774.562	-0.08
774.737	0.12
774.912	-0.16
775.087	0.06
775.263	-0.09
775.438	0.02
775.613	-0.15
775.788	-0.04
775.964	0.18
776.139	0.24
776.314	-0.13
776.489	0.08
776.664	-0.04
776.839	-0.14
777.014	0.13
777.19	-0.06
777.365	0.19
777.54	0.19
777.715	-0.23
777.89	-0.02
778.065	-0.18
778.24	-0.05
778.415	-0.01
778.59	-0.25
778.765	-0.19
778.94	-0
779.115	-0.14
779.289	-0.15
779.464	0.01
779.639	-0.08
779.814	-0.14
779.989	-0.09
780.164	0.22
780.339	0.09
780.513	-0.13
780.688	-0.21
780.863	-0.1
781.038	0.02
781.212	-0.21
781.387	0.12
781.562	0.04
781.737	0.25
781.911	0.21
782.086	0
782.261	-0.06
782.435	0.08
782.61	-0.07
782.784	-0.01
782.959	0.2
783.134	-0.22
783.308	-0.34
783.483	0.09
783.657	0.13
783.832	0.09
784.006	-0.48
784.181	-0.16
784.355	0.34
784.53	0.12
784.704	-0.17
784.878	0.2
785.053	-0.05
785.227	0.14
785.402	0.27
785.576	-0.26
785.75	-0.27
785.925	-0.07
786.099	-0.05
786.273	-0.03
786.448	-0.02
786.622	-0.01
786.796	-0.01
786.97	-0.15
787.145	0.36
787.319	-0.09
787.493	-0.09
787.667	-0.29
787.841	-0.21
788.015	0.1
788.19	-0.12
788.364	0.13
788.538	0.06
788.712	0.32
788.886	-0.18
789.06	0.05
789.234	0.2
789.408	-0.19
789.582	0.14
789.756	-0.25
789.93	-0.3
790.104	-0.06
790.278	0.04
790.452	-0.11
790.626	-0.16
790.8	0.02
790.973	0.07
791.147	0.06
791.321	0.05
791.495	-0.12
791.669	0.03
791.843	0.01
792.016	-0.1
792.19	0.18
792.364	-0.1
792.538	0.41
792.711	0.01
792.885	-0.27
793.059	-0.14
793.233	-0.52
793.406	-0.01
793.58	-0.06
793.754	-0.04
793.927	-0.16
794.101	0.06
794.274	0.09
794.448	0.03
794.622	-0.41
794.795	0.27
794.969	-0.11
795.142	0.31
795.316	-0
795.489	-0.33
795.663	0.41
795.836	-0.2
796.009	-0.39
796.183	0.19
796.356	0.27
796.53	-0.05
796.703	-0.16
796.876	0.54
797.05	-0.18
797.223	-0.27
797.396	0.11
797.57	-0.37
797.743	0.4
797.916	-0.1
798.09	-0.02
798.263	0.35
798.436	0.14
798.609	-0.13
798.782	-0.48
798.956	0.13
799.129	0.21
799.302	0.02
799.475	-0.12
799.648	-0.26
799.821	-0.23
799.994	-0.06
800.167	-0.31
800.34	0.02
800.514	-0.06
800.687	-0.15
800.86	-0.07
801.033	-0.21
801.206	0.08
801.379	-0.41
801.551	-0.02
801.724	0.18
801.897	0.05
802.07	0.09
802.243	-0.54
802.416	-0.03
802.589	-0.04
802.762	-0.08
802.935	-0.21
803.107	0.2
803.28	-0.06
803.453	-0.04
803.626	-0.23
803.798	-0.35
803.971	-0.27
804.144	0.1
804.317	0.3
804.489	0.28
804.662	-0.32
804.835	0.05
805.007	-0.38
805.18	0.6
805.353	0.07
805.525	-0.49
805.698	-0.07
805.87	0.15
806.043	0.24
806.215	-0.35
806.388	-0.59
806.56	0.07
806.733	0.37
806.905	-0.08
807.078	-0.4
807.25	-0.04
807.423	0.14
807.595	-0.09
807.768	0.38
807.94	0.15
808.112	0.03
808.285	-0.14
808.457	-0.1
808.629	-0.13
808.802	0.33
808.974	-0.12
809.146	-0.23
809.318	-0.43
809.491	-0.08
809.663	0.09
809.835	-0.34
810.007	0.13
810.18	-0.13
810.352	-0.23
810.524	-0.01
810.696	-0.07
810.868	0.15
811.04	0.11
811.212	-0.04
811.384	0.05
811.556	-0.09
811.728	-0.05
811.901	0.55
812.073	-0.41
812.245	0.24
812.417	0.06
812.589	-0.55
812.76	0.01
812.932	0.59
813.104	0.36
813.276	0.08
813.448	-0.03
813.62	-0.14
813.792	0.25
813.964	-0.08
814.136	0.02
814.307	-0.27
814.479	-0.07
814.651	-0.16
814.823	0.73
814.995	-0.27
815.166	0.11
815.338	-0.66
815.51	-0.95
815.681	0.82
815.853	0.13
816.025	-0.04
816.196	-0.32
816.368	-0.19
816.54	-0.91
816.711	-0.63
816.883	0.13
817.054	0.66
817.226	-0.67
817.398	0.4
817.569	-0.33
817.741	-0.1
817.912	-0.01
818.084	-0.3
818.255	0.26
818.426	-0.04
818.598	-0.3
818.769	-0.6
818.941	0.22
819.112	0.31
819.283	0.34
819.455	-0.33
819.626	0.05
819.798	-0.07
819.969	-0.46
820.14	0.19
820.311	-0.39
820.483	-0.03
820.654	-0.14
820.825	-0.18
820.996	-0.42
821.168	-0.68
821.339	-0.45
821.51	-0.4
821.681	-0.13
821.852	-0.39
822.023	-0.35
822.195	-0.3
822.366	0.56
822.537	-0.4
822.708	-0.27
822.879	-0.35
823.05	0.47
823.221	0.02
823.392	0.66
823.563	0.12
823.734	-0.01
823.905	-0.53
824.076	-0.25
824.247	-0.48
824.418	-0.87
824.589	0.62
824.759	-0.3
824.93	-0.69
825.101	-0.91
825.272	0.66
825.443	0.27
825.614	0.83
825.784	-0.76
825.955	0.79
826.126	0.31
826.297	-0.02
826.467	0.28
826.638	0.93
826.809	-0.16
826.98	-0.39
827.15	-0.14
827.321	0.1
827.492	0.44
827.662	-0.09
827.833	0.81
828.003	0.07
828.174	-0.07
828.345	-0.7
828.515	0.55
828.686	0.18
828.856	-0.41
829.027	-0.09
829.197	-0.42
829.368	0.43
829.538	-0.63
829.709	-0.45
829.879	0.47
830.049	-0.4
830.22	-1.01
830.39	-0.04
830.56	-0.08
830.731	-0.42
830.901	-0.02
831.072	0.02
831.242	-0.04
831.412	0.09
831.582	0.16
831.753	-0.48
831.923	0.25
832.093	-0.37
832.263	-0.62
832.434	-0.26
832.604	-0.59
832.774	0.57
832.944	-0.4
833.114	-0.46
833.284	0.06
833.454	-0.88
833.624	-0.99
833.795	0.05
833.965	0.45
834.135	0.13
834.305	-0.98
834.475	-0.93
834.645	-0.48
834.815	-0.51
834.985	-0.64
835.155	-0.37
835.325	0.33
835.494	-0.02
835.664	-0.37
835.834	-0.95
836.004	-0.19
836.174	0.24
836.344	-0.35
836.514	-0.69
836.684	-0.46
836.853	-0.11
837.023	-0.26
837.193	-0.5
837.363	0.55
837.532	0.68
837.702	-0.63
837.872	-0.32
838.041	0.38
838.211	0.68
838.381	-0.01
838.55	0.33
838.72	1.53
838.89	0.95
839.059	0.19
839.229	-0.43
839.398	0.85
839.568	0.21
839.738	-0.24
839.907	0.84
840.077	0.25
840.246	-0.46
840.416	-0.53
840.585	-0.9
840.755	1.11
840.924	-0.09
841.093	-0.65
841.263	-0.33
841.432	0.27
841.602	-1.03
841.771	-0.95
841.94	-0.64
842.11	2.11
842.279	0.91
842.448	-1.27
842.617	-0.03
842.787	0.73
842.956	-0.91
843.125	-0.16
843.294	0.04
843.464	0.9
843.633	-0.24
843.802	-0.75
843.971	-0.38
844.14	0.3
844.309	0.53
844.479	-1.25
844.648	-0.34
844.817	-0.17
844.986	-0.07
845.155	-0.71
845.324	-0.42
845.493	0.02
845.662	-0.8
845.831	-0.54
846	1.12
846.169	-0.61
846.338	0.39
846.507	0.55
846.676	-0.03
846.844	-1.05
847.013	0.64
847.182	-0.4
847.351	-0.33
847.52	0.22
847.689	0.31
847.858	-0.6
848.026	-0.1
848.195	0.08
848.364	0.01
848.533	-0.84
848.701	-0
848.87	0.05
849.039	0.63
849.207	0.32
849.376	1.97
849.545	1.59
849.713	-0.28
849.882	-0.14
850.051	-0.33
850.219	0.49
850.388	0.16
850.556	0.07
850.725	-0.66
850.893	-0.08
851.062	0.25
851.23	0.13
851.399	-1.94
851.567	-0.51
851.736	-0.07
851.904	-1.63
852.073	-0.28
852.241	-0.38
852.41	0.19
852.578	-0.94
852.746	0.23
852.915	0.22
853.083	-0.38
853.251	-1.21
853.42	-1.16
853.588	-0.41
853.756	0.33
853.924	-0.38
854.093	-0.04
854.261	-1.01
854.429	-2.5
854.597	0.09
854.765	-0.91
854.934	-0.02
855.102	1.25
855.27	-1.03
855.438	0.21
855.606	0.88
855.774	0.86
855.942	-1.2
856.11	-2.53
856.278	-1.01
856.446	0.71
856.614	-0.65
856.782	0.02
856.95	-0.19
857.118	0.23
857.286	0.55
857.454	-0.99
857.622	0.12
857.79	-0.11
857.958	-0.93
858.126	-1.45
858.294	-2.5
858.462	-0.67
858.629	-0.38
858.797	-0.7
858.965	0.68
859.133	0.53
859.301	-0.77
859.468	0.78
859.636	-1.39
859.804	1.52
859.971	0.2
860.139	-0.59
860.307	0.01
860.474	-0.28
860.642	-1.38
860.81	-1.31
860.977	-0.34
861.145	-0.19
861.313	-0.75
861.48	0.36
861.648	0.62
861.815	-0.51
861.983	-1.06
862.15	-0.95
862.318	0.72
862.485	0.04
862.653	0.23
862.82	-0.69
862.988	1.21
863.155	1.42
863.322	-0.88
863.49	-2.07
863.657	-1.68
863.824	1.23
863.992	-0.37
864.159	1.52
864.326	1.8
864.494	-0.6
864.661	1.38
864.828	-1.46
864.996	0.28
865.163	0.79
865.33	-1.41
865.497	-2.09
865.664	-0.98
865.832	-1.16
865.999	-1.44
866.166	-1.83
866.333	-0.36
866.5	-0.3
866.667	-0.18
866.834	0.21
867.001	0.7
867.168	-0.81
867.335	-0.37
867.502	-1.41
867.669	-0.83
867.836	1.11
868.003	0.15
868.17	0.5
868.337	-1.38
868.504	2.87
868.671	-1.44
868.838	-0.83
869.005	0.74
869.172	0.31
869.339	-0.6
869.505	-1.06
869.672	-0.82
869.839	0.94
870.006	-0.88
870.173	-1.14
870.339	0.98
870.506	1.42
870.673	-2.07
870.84	0.63
871.006	0.62
871.173	-1.69
871.34	0.16
871.506	-0.8
871.673	1.18
871.839	-2.84
872.006	-0.25
872.173	-1.2
872.339	-0.02
872.506	0.99
872.672	-0.32
872.839	-1.18
873.005	0.7
873.172	2.78
873.338	1.3
873.505	-1.51
873.671	-1.5
873.838	0.17
874.004	-2.21
874.171	-1.47
874.337	0.25
874.503	1.54
874.67	-0.85
874.836	-1.05
875.002	1.07
875.169	1.99
875.335	1.03
875.501	-1.13
875.668	0.19
875.834	-1
876	-0.63
876.166	1.48
876.332	1.29
876.499	2.7
876.665	-1.64
876.831	-0.59
876.997	2.98
877.163	0.58
877.329	-0.77
877.495	0.77
877.662	1.32
877.828	1.04
877.994	-0.61
878.16	-2.07
878.326	-0.61
878.492	-1
878.658	0.55
878.824	1.04
878.99	-0.04
879.156	-1.01
879.322	1.3
879.487	1.17
879.653	-1.37
879.819	-0.64
879.985	-1.04
880.151	0.84
880.317	1.14
880.483	0.67
880.648	0.46
880.814	-3.44
880.98	1.01
881.146	-3.06
881.312	-1.69
881.477	-1.52
881.643	0.17
881.809	1.65
881.974	0.3
882.14	-3.21
882.306	0.71
882.471	1.33
882.637	-3.08
882.803	0.67
882.968	3.06
883.134	1.77
883.299	1.36
883.465	0.52
883.63	-0.95
883.796	0.59
883.961	1.07
884.127	0.55
884.292	-5.13
884.458	-1.24
884.623	-1.24
