Data from Apollo_Calib_20240827__AbsoluteIrradiance__299__04-08-02-483.txt Node

Date: Wed Aug 28 04:08:02 BST 2024
User: biology
Spectrometer: FLMT08252
Trigger mode: 0
Integration Time (sec): 5.000000E-1
Scans to average: 5
Electric dark correction enabled: true
Nonlinearity correction enabled: false
Boxcar width: 0
XAxis mode: Wavelengths
Number of Pixels in Spectrum: 3648
>>>>>Begin Spectral Data<<<<<
179.588	-0
179.809	-0
180.03	-0
180.251	-0
180.473	-0
180.694	0
180.915	0
181.136	-0
181.357	0
181.578	-0
181.799	-0
182.02	-0
182.241	-0
182.462	-0
182.683	0
182.904	-0
183.125	0
183.346	0
183.567	-0
183.788	0
184.009	-0
184.23	0
184.451	0
184.672	-0
184.892	-0
185.113	0
185.334	0
185.555	-0
185.776	-0
185.996	0
186.217	0
186.438	0
186.659	-0
186.879	0
187.1	0
187.321	-0
187.541	-0
187.762	0
187.983	-0
188.203	0
188.424	0
188.644	-0
188.865	0
189.086	-0
189.306	0
189.527	0
189.747	0
189.968	-0
190.188	0
190.409	0
190.629	0
190.849	-0
191.07	-0
191.29	0
191.511	0
191.731	-0
191.951	-0
192.172	-0
192.392	0
192.612	-0
192.833	-0
193.053	0
193.273	0
193.493	-0
193.714	-0
193.934	0
194.154	0
194.374	-0
194.594	0
194.815	0
195.035	-0
195.255	0
195.475	-0
195.695	0
195.915	0
196.135	0
196.355	0
196.575	0
196.795	0
197.015	-0
197.235	-0
197.455	-0
197.675	0
197.895	-0
198.115	-0
198.335	0
198.555	-0
198.775	0
198.995	-0
199.214	0
199.434	0
199.654	-0
199.874	-0
200.094	1.53
200.313	-0.2
200.533	-0.11
200.753	-0.84
200.973	0.9
201.192	0.43
201.412	-0.66
201.632	-0.33
201.851	1.03
202.071	-0.27
202.291	-0.42
202.51	-0.93
202.73	0.48
202.95	-0.37
203.169	-0.78
203.389	-0.33
203.608	0.15
203.828	-0.37
204.047	-0.52
204.267	0.42
204.486	0.14
204.706	0.24
204.925	-0.58
205.145	-0.69
205.364	0.41
205.583	0.75
205.803	-0.08
206.022	-0.51
206.242	-0.13
206.461	-0.01
206.68	-0.18
206.9	0.25
207.119	0.97
207.338	0.43
207.557	-0.03
207.777	-0.02
207.996	0.13
208.215	0.44
208.434	-0.6
208.654	-0.65
208.873	0.1
209.092	0.46
209.311	-0.19
209.53	-0.34
209.749	-0.09
209.968	-0.24
210.187	-0.15
210.407	-0.29
210.626	0.07
210.845	0.25
211.064	0.06
211.283	-0.26
211.502	0.18
211.721	-0.07
211.94	-0.29
212.159	0.32
212.377	0.37
212.596	0.44
212.815	0.13
213.034	0.08
213.253	0.41
213.472	0.41
213.691	0.02
213.91	-0.14
214.128	-0.14
214.347	0.4
214.566	-0.35
214.785	-0.3
215.003	0
215.222	0.16
215.441	0.05
215.66	-0.34
215.878	-0.01
216.097	0.15
216.316	-0.19
216.534	-0.43
216.753	0
216.972	0.12
217.19	-0.11
217.409	-0.19
217.627	-0.17
217.846	-0.12
218.064	-0.22
218.283	-0.13
218.501	0.43
218.72	0.44
218.938	-0.17
219.157	-0.11
219.375	0.26
219.594	0.16
219.812	-0.13
220.031	-0.22
220.249	0.32
220.467	0.35
220.686	-0.21
220.904	-0.27
221.122	0.01
221.341	0.44
221.559	-0.01
221.777	-0.41
221.995	-0.03
222.214	0.05
222.432	-0.26
222.65	0.04
222.868	0.1
223.086	0.08
223.305	0.28
223.523	-0.03
223.741	0.29
223.959	-0.12
224.177	-0.29
224.395	-0.06
224.613	0.03
224.831	0.15
225.049	-0.13
225.267	-0.15
225.485	0.09
225.703	-0.08
225.921	0.01
226.139	0
226.357	0.21
226.575	0.03
226.793	-0.25
227.011	0.63
227.229	0.11
227.447	0.24
227.665	-0.13
227.883	-0.33
228.1	0.01
228.318	0.06
228.536	-0.21
228.754	-0.12
228.972	-0.05
229.189	0.04
229.407	-0.1
229.625	-0.08
229.843	0.18
230.06	0.16
230.278	-0.02
230.496	-0.06
230.713	-0.02
230.931	0.27
231.149	-0.05
231.366	-0.22
231.584	0.04
231.801	0.33
232.019	-0.11
232.236	-0.13
232.454	-0.19
232.671	-0.01
232.889	-0.12
233.106	-0.18
233.324	-0
233.541	0.1
233.759	0.03
233.976	-0.12
234.194	-0.02
234.411	-0.09
234.628	-0.09
234.846	-0.02
235.063	0.01
235.28	0.02
235.498	-0.02
235.715	-0.02
235.932	0.11
236.149	-0.02
236.367	-0.13
236.584	-0.01
236.801	-0.13
237.018	0.15
237.236	-0.01
237.453	-0.09
237.67	0.13
237.887	-0.03
238.104	-0.04
238.321	-0.09
238.538	-0.14
238.755	0.14
238.973	-0.05
239.19	-0.01
239.407	0.17
239.624	0.07
239.841	-0.19
240.058	-0.15
240.275	-0.02
240.492	-0.06
240.709	-0.02
240.925	-0.05
241.142	-0.12
241.359	-0.1
241.576	-0.07
241.793	-0.08
242.01	0.11
242.227	0.07
242.444	0.06
242.66	0.1
242.877	0.06
243.094	-0.06
243.311	-0.03
243.527	0.04
243.744	0.04
243.961	0.07
244.178	-0.07
244.394	0.01
244.611	0.08
244.828	0.17
245.044	-0.1
245.261	-0.02
245.477	0.03
245.694	0
245.911	-0.01
246.127	-0.01
246.344	0.09
246.56	0.12
246.777	-0.02
246.993	-0.05
247.21	0.06
247.426	0.04
247.643	-0.08
247.859	-0.1
248.076	-0.06
248.292	0.22
248.508	-0.05
248.725	-0.01
248.941	0.04
249.157	0.13
249.374	-0.05
249.59	0.04
249.806	-0.01
250.023	0.12
250.239	-0.06
250.455	-0.08
250.671	-0.08
250.888	-0.03
251.104	0.09
251.32	-0.03
251.536	-0.01
251.752	-0.06
251.969	0.02
252.185	0.02
252.401	0.22
252.617	0.09
252.833	0.01
253.049	0.07
253.265	0.02
253.481	0.03
253.697	-0.04
253.913	-0.06
254.129	0.08
254.345	0.07
254.561	-0.04
254.777	0
254.993	0.08
255.209	0.03
255.425	-0.03
255.641	-0.04
255.857	0.12
256.073	0.02
256.288	-0.1
256.504	-0.08
256.72	0.05
256.936	0.17
257.152	-0.06
257.367	-0.08
257.583	0.02
257.799	0.09
258.015	-0.02
258.23	-0.12
258.446	0.19
258.662	0.04
258.877	-0.1
259.093	-0.09
259.309	0.04
259.524	-0.02
259.74	-0.05
259.955	-0.14
260.171	0.02
260.387	0
260.602	0.05
260.818	-0.01
261.033	-0.05
261.249	-0.02
261.464	-0.08
261.68	-0.07
261.895	0.07
262.11	0.06
262.326	-0.05
262.541	-0.14
262.757	0.08
262.972	0.04
263.187	0.02
263.403	-0.01
263.618	0.11
263.833	0.01
264.049	-0.04
264.264	0.03
264.479	0.07
264.694	0.13
264.91	-0.1
265.125	-0.01
265.34	0.06
265.555	0.2
265.77	0.09
265.986	-0
266.201	0.05
266.416	0.11
266.631	-0.06
266.846	-0.04
267.061	0.08
267.276	0.06
267.491	-0.18
267.706	0.01
267.921	0.04
268.136	-0.04
268.351	0.01
268.566	-0.1
268.781	0.11
268.996	0.06
269.211	-0.02
269.426	-0.07
269.641	0.01
269.856	0.13
270.071	-0.03
270.285	-0.11
270.5	0.08
270.715	0.04
270.93	-0.02
271.145	0.04
271.359	0.04
271.574	-0.07
271.789	-0
272.004	-0.04
272.218	0.05
272.433	0.04
272.648	-0.11
272.862	0.08
273.077	-0.01
273.292	0.01
273.506	-0.11
273.721	0.05
273.936	0.05
274.15	0.1
274.365	-0.04
274.579	-0.02
274.794	0.09
275.008	0.11
275.223	-0.01
275.437	-0.01
275.652	0.04
275.866	0.08
276.081	-0.02
276.295	0.05
276.509	-0
276.724	0.01
276.938	-0.01
277.153	0.04
277.367	0.07
277.581	-0.01
277.796	-0.04
278.01	-0.03
278.224	0.07
278.438	0.19
278.653	-0.07
278.867	-0.06
279.081	-0.15
279.295	0.02
279.51	-0.02
279.724	-0.05
279.938	0.06
280.152	0.04
280.366	-0
280.58	0.01
280.794	0.1
281.008	0.06
281.222	0.09
281.437	0.1
281.651	0.04
281.865	0.06
282.079	-0.02
282.293	-0.1
282.507	-0.03
282.721	-0.04
282.935	-0.01
283.148	-0.07
283.362	-0.01
283.576	-0.06
283.79	0.02
284.004	-0.05
284.218	0.09
284.432	-0.02
284.646	0.03
284.859	-0.02
285.073	-0.02
285.287	-0.01
285.501	-0
285.714	0.05
285.928	-0
286.142	0.01
286.356	-0.02
286.569	-0.03
286.783	0.07
286.997	0.08
287.21	0.03
287.424	0
287.637	-0.04
287.851	-0.01
288.065	0.04
288.278	-0.06
288.492	0.06
288.705	-0.01
288.919	0.05
289.132	-0.09
289.346	0.07
289.559	-0.1
289.773	-0.07
289.986	0.01
290.2	0
290.413	0.03
290.626	-0.07
290.84	-0.04
291.053	0.02
291.267	0.08
291.48	0.02
291.693	-0.01
291.906	-0.04
292.12	-0.05
292.333	-0.01
292.546	-0.08
292.76	0.08
292.973	0.02
293.186	0.05
293.399	-0.03
293.612	0.09
293.826	-0
294.039	-0.03
294.252	0.04
294.465	0.04
294.678	0.03
294.891	0.02
295.104	-0.05
295.317	0.02
295.53	0.05
295.743	0.01
295.956	-0.03
296.169	0.06
296.382	0.04
296.595	0.03
296.808	-0.02
297.021	0.06
297.234	0.04
297.447	0.02
297.66	0.03
297.873	0.08
298.086	0.1
298.299	-0.02
298.511	-0.05
298.724	-0.02
298.937	-0.03
299.15	-0.01
299.363	-0.02
299.575	0.04
299.788	0.04
300.001	-0.02
300.213	-0.04
300.426	-0.03
300.639	-0.05
300.852	-0.01
301.064	0.05
301.277	0.09
301.489	0.05
301.702	0.03
301.915	-0.03
302.127	0
302.34	0
302.552	0.04
302.765	-0.03
302.977	0.04
303.19	-0.06
303.402	-0.03
303.615	-0.02
303.827	-0.03
304.04	0
304.252	0.01
304.464	-0.01
304.677	0.12
304.889	0.08
305.102	-0.01
305.314	-0.06
305.526	0.05
305.739	0.05
305.951	-0.04
306.163	-0.02
306.375	0.06
306.588	0
306.8	-0
307.012	-0.05
307.224	-0.01
307.436	0.08
307.649	-0.07
307.861	0
308.073	0.05
308.285	0.01
308.497	-0.05
308.709	-0.03
308.921	0.01
309.133	0.08
309.346	0.01
309.558	-0.01
309.77	0.02
309.982	0.07
310.194	0.05
310.406	-0.06
310.617	0.1
310.829	0.04
311.041	0.06
311.253	-0.03
311.465	-0
311.677	-0.03
311.889	-0.02
312.101	-0.03
312.313	0.08
312.524	0.07
312.736	-0.04
312.948	-0.03
313.16	0.11
313.372	0.03
313.583	-0.02
313.795	-0.01
314.007	-0
314.218	0.07
314.43	0.03
314.642	-0.03
314.853	-0.04
315.065	0.05
315.277	0.02
315.488	0.03
315.7	0.06
315.912	-0.01
316.123	-0.02
316.335	0.01
316.546	0.09
316.758	0.04
316.969	-0.02
317.181	0.01
317.392	-0.01
317.604	0.08
317.815	-0.02
318.026	-0.06
318.238	0
318.449	0.04
318.661	-0.07
318.872	-0.04
319.083	-0.03
319.295	0.01
319.506	-0.03
319.717	-0.02
319.929	0.04
320.14	0
320.351	0.02
320.562	-0.01
320.774	0.01
320.985	0.02
321.196	-0.05
321.407	-0.02
321.618	0.04
321.829	0.02
322.041	0.05
322.252	-0.02
322.463	0.04
322.674	0.04
322.885	-0.01
323.096	0.01
323.307	-0.01
323.518	0.01
323.729	-0
323.94	-0.03
324.151	-0.01
324.362	0.04
324.573	0.01
324.784	-0.02
324.995	0.03
325.206	-0
325.417	-0.04
325.628	-0
325.838	0.02
326.049	0.04
326.26	0.04
326.471	0.02
326.682	0.05
326.892	-0.01
327.103	-0.05
327.314	-0.08
327.525	0.06
327.735	0.01
327.946	0
328.157	-0.04
328.368	0
328.578	-0.05
328.789	0.03
328.999	0.01
329.21	0.02
329.421	0.09
329.631	-0.04
329.842	-0.01
330.052	0.03
330.263	0.06
330.473	0.02
330.684	0.01
330.894	0.02
331.105	0.05
331.315	-0
331.526	-0.05
331.736	0.08
331.947	0.01
332.157	0.04
332.367	-0.04
332.578	0.03
332.788	0.04
332.999	0.04
333.209	-0.04
333.419	-0.06
333.629	0.04
333.84	0.05
334.05	-0.02
334.26	0.12
334.47	0.06
334.681	0.08
334.891	-0
335.101	0.03
335.311	0.12
335.521	0.02
335.732	-0.05
335.942	0.09
336.152	0.06
336.362	-0
336.572	0
336.782	0.05
336.992	0.04
337.202	-0.04
337.412	-0.03
337.622	0.01
337.832	0.01
338.042	-0.01
338.252	-0.03
338.462	-0.01
338.672	0.03
338.882	0.01
339.092	0.03
339.302	0.06
339.511	0.06
339.721	0.03
339.931	-0.04
340.141	0.06
340.351	0.05
340.561	-0.04
340.77	-0.01
340.98	-0.01
341.19	0.04
341.4	-0.01
341.609	-0.02
341.819	0
342.029	-0.03
342.238	0.02
342.448	-0.04
342.658	0.04
342.867	0.01
343.077	0.01
343.286	0.01
343.496	0.03
343.706	0.1
343.915	-0.01
344.125	-0
344.334	0
344.544	-0.03
344.753	-0.02
344.963	-0.02
345.172	-0.04
345.381	0
345.591	-0.03
345.8	0.01
346.01	0.09
346.219	0.09
346.428	-0.13
346.638	0.05
346.847	0.05
347.056	0.03
347.266	-0.01
347.475	-0.01
347.684	0.03
347.893	0.04
348.103	0.01
348.312	-0.01
348.521	0.01
348.73	0.01
348.94	-0.01
349.149	-0.02
349.358	0.01
349.567	-0.04
349.776	-0.04
349.985	-0.01
350.194	0.05
350.403	0.07
350.612	-0.05
350.821	-0.01
351.03	0.01
351.239	-0.01
351.448	0
351.657	-0.02
351.866	0.07
352.075	0.01
352.284	-0.02
352.493	-0.03
352.702	0.06
352.911	0.05
353.12	0.05
353.329	-0
353.538	0.02
353.746	0.02
353.955	-0.04
354.164	0.03
354.373	0.02
354.582	0.08
354.79	-0.01
354.999	0.05
355.208	-0
355.416	0.08
355.625	-0.05
355.834	-0.02
356.042	0.04
356.251	-0.05
356.46	-0.03
356.668	-0.01
356.877	0.1
357.085	0.05
357.294	-0.07
357.503	0
357.711	0.05
357.92	0.18
358.128	-0
358.337	-0.02
358.545	0.07
358.754	0.01
358.962	0.02
359.17	-0.04
359.379	0.02
359.587	0.05
359.796	-0
360.004	0.07
360.212	0.08
360.421	0.04
360.629	-0
360.837	0.02
361.046	0.03
361.254	0.17
361.462	0.02
361.67	-0.03
361.879	0.03
362.087	0.06
362.295	0.01
362.503	-0.01
362.711	-0.03
362.92	0.01
363.128	-0.05
363.336	0.01
363.544	-0.04
363.752	0.02
363.96	-0.01
364.168	0.01
364.376	0.01
364.584	0.02
364.792	0.03
365	0.02
365.208	0.02
365.416	0.03
365.624	0.02
365.832	0
366.04	0.08
366.248	0.06
366.456	0.03
366.664	0.01
366.872	-0.01
367.079	-0.03
367.287	0
367.495	0.04
367.703	-0.01
367.911	0
368.118	0.02
368.326	-0
368.534	-0.02
368.742	0.07
368.949	-0.05
369.157	-0.03
369.365	0.02
369.572	-0.02
369.78	-0.03
369.988	0.03
370.195	0.06
370.403	0
370.61	-0.02
370.818	-0
371.026	0.06
371.233	0.03
371.441	0.06
371.648	0
371.856	0.02
372.063	-0
372.271	0.01
372.478	0.02
372.685	-0.02
372.893	0.04
373.1	-0
373.308	-0.04
373.515	0.07
373.722	0.07
373.93	0.02
374.137	0.03
374.344	0.05
374.552	0.06
374.759	0.01
374.966	-0.02
375.173	-0
375.381	0.08
375.588	0
375.795	-0.07
376.002	0.02
376.209	-0.01
376.417	-0.03
376.624	0.02
376.831	0.03
377.038	-0.02
377.245	-0.06
377.452	-0
377.659	0.01
377.866	-0.06
378.073	0.02
378.28	-0.01
378.487	0.04
378.694	0.04
378.901	-0.02
379.108	-0.01
379.315	0.05
379.522	0.13
379.729	0.03
379.936	-0.01
380.143	0
380.35	0.03
380.557	0.02
380.763	0.01
380.97	0.01
381.177	0.06
381.384	0.03
381.591	-0
381.797	0.05
382.004	0.02
382.211	0.01
382.418	0.01
382.624	0.01
382.831	0.08
383.038	-0.01
383.244	-0.01
383.451	-0
383.658	0.06
383.864	-0
384.071	-0.04
384.277	0.07
384.484	-0.01
384.69	0.05
384.897	-0.02
385.103	-0
385.31	-0.04
385.516	0.01
385.723	-0.05
385.929	0.04
386.136	-0.03
386.342	0.01
386.549	-0.03
386.755	0.08
386.961	0.01
387.168	-0.05
387.374	-0.01
387.58	0.02
387.787	0.04
387.993	-0.01
388.199	0
388.406	-0
388.612	0.02
388.818	-0.03
389.024	-0.01
389.231	0.01
389.437	0.11
389.643	0.04
389.849	0.03
390.055	0.01
390.261	-0.02
390.467	0.04
390.674	-0.03
390.88	0
391.086	0.01
391.292	0.02
391.498	0.06
391.704	0.01
391.91	-0.01
392.116	-0.01
392.322	-0.09
392.528	0.05
392.734	-0
392.94	-0.01
393.146	-0.02
393.352	0.05
393.557	-0.01
393.763	-0.02
393.969	0.04
394.175	0.03
394.381	0
394.587	-0.04
394.792	0.01
394.998	0.04
395.204	0.06
395.41	-0.04
395.615	0.03
395.821	0.04
396.027	0
396.233	-0.02
396.438	0.04
396.644	0.05
396.85	0.02
397.055	0.01
397.261	0.02
397.466	0.03
397.672	-0.01
397.878	0.02
398.083	-0.01
398.289	-0.01
398.494	0.06
398.7	0.01
398.905	-0.03
399.111	0.04
399.316	-0.04
399.522	0.02
399.727	0.02
399.932	-0
400.138	0.03
400.343	0.05
400.549	0.02
400.754	0.05
400.959	0.01
401.165	-0.04
401.37	0.03
401.575	0.07
401.78	0.04
401.986	-0.04
402.191	-0.01
402.396	-0.04
402.601	0.05
402.807	0.03
403.012	-0
403.217	0.04
403.422	0.04
403.627	0.02
403.832	0.01
404.037	0.01
404.243	0.02
404.448	-0.03
404.653	-0
404.858	0.01
405.063	0.01
405.268	-0.03
405.473	-0.02
405.678	-0.02
405.883	0.1
406.088	0.03
406.293	-0.05
406.498	-0.01
406.703	0.05
406.907	0
407.112	-0.01
407.317	0.03
407.522	0.04
407.727	-0.09
407.932	0.03
408.136	0.07
408.341	-0.03
408.546	-0.01
408.751	0.01
408.956	-0.03
409.16	0.02
409.365	-0.01
409.57	-0.01
409.774	0
409.979	0.06
410.184	0.02
410.388	-0.03
410.593	0.04
410.798	0.03
411.002	-0.02
411.207	0.03
411.411	0.04
411.616	-0.01
411.82	0.02
412.025	-0.03
412.229	0
412.434	0.07
412.638	-0.01
412.843	0
413.047	0.01
413.252	-0.04
413.456	-0.01
413.66	0.02
413.865	-0.01
414.069	0.08
414.273	0.01
414.478	-0.01
414.682	-0.03
414.886	-0.02
415.091	-0.08
415.295	-0.04
415.499	0.05
415.703	0.01
415.908	0.02
416.112	-0.07
416.316	0.01
416.52	-0
416.724	-0.05
416.929	0.01
417.133	0.07
417.337	0.03
417.541	-0
417.745	0
417.949	0.02
418.153	0.02
418.357	-0.07
418.561	0.07
418.765	0
418.969	0.12
419.173	0.08
419.377	-0.02
419.581	0.09
419.785	-0.01
419.989	-0.08
420.193	-0.01
420.397	-0.01
420.601	0.03
420.804	0.04
421.008	-0.02
421.212	0.05
421.416	0.06
421.62	-0.01
421.823	-0.01
422.027	0.12
422.231	-0
422.435	0.04
422.638	0.02
422.842	0.03
423.046	-0.02
423.249	0.05
423.453	0.04
423.657	0.05
423.86	-0.04
424.064	-0.02
424.268	0.03
424.471	0
424.675	0.1
424.878	0.08
425.082	-0
425.285	0.05
425.489	0.02
425.692	0.04
425.896	-0.03
426.099	0.05
426.303	-0.05
426.506	-0.06
426.71	-0
426.913	0.08
427.116	0.03
427.32	0.02
427.523	0.05
427.726	0.09
427.93	-0.03
428.133	-0
428.336	-0.01
428.54	-0.04
428.743	0.02
428.946	0.09
429.149	0
429.353	0.03
429.556	-0.04
429.759	0.02
429.962	-0.05
430.165	0.02
430.368	-0.02
430.571	-0.03
430.775	0.01
430.978	-0
431.181	0.01
431.384	0.04
431.587	0.01
431.79	0.02
431.993	0.07
432.196	0
432.399	0.02
432.602	0.09
432.805	-0
433.008	-0.03
433.211	-0.07
433.414	0.06
433.616	0.03
433.819	0.06
434.022	-0.09
434.225	0.09
434.428	0.05
434.631	0.12
434.833	0.04
435.036	-0.03
435.239	0.02
435.442	-0.01
435.645	-0.02
435.847	0.03
436.05	0.07
436.253	0.04
436.455	-0.02
436.658	0.01
436.861	0.08
437.063	-0
437.266	-0.02
437.468	-0.01
437.671	0.19
437.874	0.01
438.076	-0.03
438.279	-0.04
438.481	0.04
438.684	-0.01
438.886	0.06
439.089	-0.04
439.291	0.02
439.494	0.07
439.696	-0.05
439.899	0
440.101	0.01
440.303	-0.04
440.506	0.02
440.708	0.03
440.91	0.06
441.113	0
441.315	0.09
441.517	-0.03
441.72	0.1
441.922	-0.07
442.124	0.06
442.326	0.07
442.529	0.11
442.731	0.02
442.933	0.1
443.135	0.03
443.337	0.02
443.539	0.04
443.742	0.05
443.944	0.05
444.146	0.04
444.348	0.02
444.55	0.02
444.752	0.05
444.954	-0.01
445.156	0.02
445.358	0.03
445.56	0.05
445.762	0.03
445.964	0.06
446.166	-0.01
446.368	0.08
446.57	0.09
446.772	0.06
446.974	0.04
447.175	0.03
447.377	0.05
447.579	0.07
447.781	-0.01
447.983	0.13
448.184	0.06
448.386	0.06
448.588	0.01
448.79	0.06
448.991	0.02
449.193	0.05
449.395	0.05
449.597	0.1
449.798	0.07
450	0.12
450.202	0.06
450.403	0.04
450.605	0.13
450.806	0.04
451.008	-0.01
451.21	0.06
451.411	0.09
451.613	0.06
451.814	0.05
452.016	0.09
452.217	0.05
452.419	0.06
452.62	0.05
452.821	0.12
453.023	0.13
453.224	0.11
453.426	0.01
453.627	0.1
453.828	0.05
454.03	0.06
454.231	0.09
454.432	0.04
454.634	0.16
454.835	0.01
455.036	-0.03
455.238	0.09
455.439	0.13
455.64	-0
455.841	-0.02
456.042	0.19
456.244	0.06
456.445	0.01
456.646	-0.01
456.847	0.05
457.048	0.11
457.249	0.04
457.45	0.25
457.651	-0.01
457.852	0.11
458.054	0.07
458.255	-0.02
458.456	0.07
458.657	0.03
458.858	-0.01
459.058	0.02
459.259	0.09
459.46	0.03
459.661	0.01
459.862	0.11
460.063	0
460.264	0.08
460.465	-0.02
460.666	0.16
460.866	-0.01
461.067	0
461.268	0.01
461.469	-0.02
461.67	0.02
461.87	0.02
462.071	-0.02
462.272	0.03
462.473	-0.01
462.673	0.1
462.874	0.02
463.075	0.05
463.275	0.02
463.476	0.03
463.676	0.09
463.877	0.05
464.078	-0.01
464.278	0.09
464.479	0.02
464.679	0
464.88	0
465.08	0.09
465.281	-0.08
465.481	0.01
465.682	0.01
465.882	0.02
466.083	0.05
466.283	-0.01
466.483	0
466.684	-0.03
466.884	0.01
467.085	-0
467.285	0.08
467.485	-0.06
467.686	-0.01
467.886	-0.02
468.086	0.03
468.286	0.01
468.487	0.01
468.687	-0.03
468.887	-0.01
469.087	0.03
469.287	-0.01
469.488	-0.03
469.688	0.04
469.888	0.03
470.088	0.04
470.288	0.04
470.488	0.07
470.688	-0.01
470.888	0
471.088	-0.01
471.288	0.03
471.488	0.06
471.688	0.06
471.888	0.01
472.088	0.06
472.288	0.09
472.488	-0.03
472.688	-0.07
472.888	0.02
473.088	-0
473.288	0.01
473.488	-0.04
473.688	0.09
473.887	0.06
474.087	-0.03
474.287	0.03
474.487	-0.04
474.687	0.06
474.886	0
475.086	0.02
475.286	0.05
475.486	-0.01
475.685	0
475.885	-0.02
476.085	-0
476.284	0.02
476.484	0.01
476.684	0.03
476.883	0.08
477.083	-0.01
477.282	-0
477.482	0.03
477.681	0.06
477.881	0.01
478.08	-0.01
478.28	-0.02
478.479	0.02
478.679	0.08
478.878	-0.01
479.078	-0.01
479.277	0.03
479.477	0.01
479.676	0.06
479.875	0.02
480.075	-0.06
480.274	0.01
480.473	0.03
480.673	-0.01
480.872	0.02
481.071	0.04
481.271	0.02
481.47	-0.05
481.669	-0.01
481.868	-0
482.067	-0.04
482.267	-0.02
482.466	-0.04
482.665	-0.06
482.864	-0.01
483.063	-0.04
483.262	0.05
483.461	0.03
483.661	0.04
483.86	0.01
484.059	0.01
484.258	0.01
484.457	-0.02
484.656	0.05
484.855	0.05
485.054	-0.05
485.253	-0.03
485.452	-0.04
485.651	-0.01
485.849	-0.02
486.048	-0.01
486.247	-0.01
486.446	0.01
486.645	-0.03
486.844	-0.03
487.043	-0
487.241	0.03
487.44	-0.03
487.639	-0
487.838	0.04
488.037	0
488.235	0.04
488.434	-0
488.633	-0.02
488.831	0.02
489.03	0.03
489.229	0.02
489.427	0.01
489.626	0.04
489.825	0.07
490.023	0.02
490.222	-0.03
490.42	0.03
490.619	0.04
490.817	0
491.016	0.01
491.214	0.06
491.413	-0
491.611	0.01
491.81	-0
492.008	0.01
492.207	0.06
492.405	0.03
492.604	-0.05
492.802	0
493	0
493.199	-0.01
493.397	-0
493.595	-0.01
493.794	-0.01
493.992	0.05
494.19	0.01
494.388	0.02
494.587	-0.02
494.785	0.02
494.983	-0.03
495.181	0.02
495.379	-0
495.578	-0.02
495.776	0.03
495.974	0.01
496.172	0.01
496.37	0
496.568	-0.03
496.766	-0.02
496.964	0.01
497.162	0.03
497.36	-0.04
497.558	0.03
497.756	0.02
497.954	0.01
498.152	-0.03
498.35	0
498.548	0.02
498.746	-0
498.944	-0.01
499.142	-0.03
499.34	-0.04
499.538	0.01
499.736	-0.04
499.933	0.02
500.131	0.04
500.329	-0.01
500.527	0.03
500.725	0.02
500.922	0.02
501.12	0
501.318	0.02
501.516	-0.01
501.713	0.01
501.911	0.01
502.109	-0.01
502.306	0.02
502.504	-0.03
502.701	-0.01
502.899	-0.02
503.097	0.07
503.294	-0
503.492	0
503.689	-0.01
503.887	0.02
504.084	0.04
504.282	-0.01
504.479	-0.04
504.677	0.03
504.874	-0.03
505.072	0.01
505.269	0.01
505.466	0.03
505.664	0.01
505.861	-0.02
506.059	-0.03
506.256	0.03
506.453	-0.02
506.651	0.07
506.848	0.04
507.045	0.04
507.242	0.01
507.44	-0
507.637	0.01
507.834	-0.01
508.031	0.03
508.229	-0.04
508.426	0.02
508.623	0.02
508.82	-0.02
509.017	-0.03
509.214	-0
509.411	0.01
509.608	-0.03
509.805	0.02
510.003	-0.02
510.2	-0.03
510.397	0.04
510.594	-0.04
510.791	-0.04
510.988	-0.01
511.184	0.02
511.381	0.01
511.578	-0.01
511.775	0.03
511.972	-0.01
512.169	0.01
512.366	-0.02
512.563	0.02
512.76	-0.02
512.956	0.02
513.153	-0
513.35	-0.01
513.547	-0.01
513.744	-0.01
513.94	-0.04
514.137	0.01
514.334	-0
514.53	0
514.727	-0
514.924	0.06
515.12	-0.01
515.317	-0.04
515.514	-0.02
515.71	-0.01
515.907	0
516.103	0.02
516.3	0.01
516.497	0.03
516.693	0.04
516.89	0.01
517.086	-0.03
517.283	0.01
517.479	0
517.676	0.01
517.872	-0
518.068	-0.01
518.265	-0.01
518.461	-0
518.658	-0.03
518.854	0.01
519.05	0
519.247	-0.05
519.443	0.01
519.639	-0
519.836	0.02
520.032	0
520.228	-0.01
520.424	0.04
520.621	0.01
520.817	0
521.013	0.03
521.209	0.01
521.405	0.07
521.601	0.02
521.798	-0.01
521.994	0.03
522.19	-0.01
522.386	-0.04
522.582	-0.01
522.778	0
522.974	0.01
523.17	0.01
523.366	0
523.562	0.03
523.758	0.01
523.954	-0.01
524.15	-0.01
524.346	0.02
524.542	-0.01
524.738	-0.02
524.934	-0.01
525.129	-0.02
525.325	0.02
525.521	-0.02
525.717	0.02
525.913	0.03
526.109	0.01
526.304	-0.01
526.5	0.01
526.696	0.02
526.892	0
527.087	-0.01
527.283	-0.03
527.479	0.03
527.674	-0.02
527.87	-0.02
528.066	0
528.261	0.03
528.457	0.01
528.653	0
528.848	-0.02
529.044	0.01
529.239	0
529.435	0.03
529.63	0.01
529.826	0.05
530.021	-0
530.217	0.01
530.412	-0.03
530.608	-0.01
530.803	0
530.999	0.01
531.194	-0.05
531.389	0.02
531.585	-0.05
531.78	-0.01
531.975	-0
532.171	0.03
532.366	0.02
532.561	-0.01
532.757	-0.01
532.952	-0.02
533.147	0.02
533.342	0
533.538	-0.01
533.733	0.03
533.928	0.01
534.123	-0
534.318	-0.05
534.513	-0.02
534.709	0.03
534.904	-0.02
535.099	-0.03
535.294	0.02
535.489	0.01
535.684	0.01
535.879	-0.01
536.074	0.02
536.269	-0.02
536.464	0.02
536.659	-0.02
536.854	-0.01
537.049	0.02
537.244	0
537.439	-0.01
537.634	0.04
537.828	0.01
538.023	-0
538.218	-0.02
538.413	-0.01
538.608	-0.03
538.803	0.02
538.997	-0.04
539.192	0.03
539.387	0.01
539.582	0.02
539.776	-0.01
539.971	-0
540.166	-0.02
540.36	-0.02
540.555	0.01
540.75	0.01
540.944	0
541.139	-0.04
541.334	-0
541.528	0
541.723	0.02
541.917	-0.01
542.112	-0.02
542.306	-0.01
542.501	-0.02
542.695	0.01
542.89	-0.02
543.084	0.02
543.279	-0.01
543.473	0.01
543.668	-0.02
543.862	-0.02
544.056	0.01
544.251	-0
544.445	0.03
544.64	-0
544.834	-0.02
545.028	-0.01
545.222	0.02
545.417	0.03
545.611	-0.02
545.805	-0.01
546	0
546.194	-0.03
546.388	0
546.582	0
546.776	-0
546.97	0.02
547.165	0.02
547.359	0.01
547.553	-0.01
547.747	0.01
547.941	0.01
548.135	0
548.329	0.01
548.523	0.01
548.717	-0.01
548.911	-0.02
549.105	-0
549.299	-0.01
549.493	0.02
549.687	0.02
549.881	-0
550.075	0.01
550.269	-0.03
550.463	0.03
550.657	-0
550.85	0.01
551.044	-0
551.238	0
551.432	-0.02
551.626	-0.01
551.82	0
552.013	-0.03
552.207	-0.01
552.401	0.03
552.594	-0
552.788	-0.03
552.982	-0
553.176	-0.01
553.369	0.02
553.563	0.02
553.756	-0.03
553.95	-0.02
554.144	-0.01
554.337	0.02
554.531	0
554.724	0.01
554.918	0.01
555.111	0.03
555.305	-0
555.498	0.06
555.692	0.03
555.885	-0.01
556.079	0.01
556.272	-0.01
556.466	0.03
556.659	0.01
556.852	-0.01
557.046	-0.02
557.239	0.01
557.432	-0.04
557.626	-0.02
557.819	0.01
558.012	0.03
558.206	0.02
558.399	0.02
558.592	0.02
558.785	0
558.979	0.01
559.172	0.02
559.365	0.03
559.558	0
559.751	-0
559.944	0.01
560.138	-0.02
560.331	-0.01
560.524	-0.01
560.717	0
560.91	0
561.103	0.02
561.296	0
561.489	0.02
561.682	0
561.875	0.04
562.068	0.01
562.261	0.02
562.454	0.05
562.647	0.03
562.84	0.01
563.032	-0.01
563.225	0.02
563.418	-0.01
563.611	0
563.804	0.02
563.997	-0.01
564.19	-0.04
564.382	0.01
564.575	-0.02
564.768	-0.02
564.961	0.01
565.153	-0
565.346	0.02
565.539	0.03
565.731	0.03
565.924	0.04
566.117	0.02
566.309	0.01
566.502	-0.02
566.695	0.01
566.887	0.01
567.08	-0.01
567.272	0.01
567.465	-0.03
567.657	0
567.85	0.01
568.042	0.04
568.235	0.02
568.427	0.01
568.62	0.01
568.812	0.03
569.005	0.01
569.197	-0.05
569.389	-0.01
569.582	0.01
569.774	-0.01
569.966	-0.02
570.159	-0.04
570.351	0.03
570.543	-0.01
570.736	0.01
570.928	-0.03
571.12	0
571.312	-0.01
571.505	-0.04
571.697	0.03
571.889	-0.03
572.081	-0.01
572.273	-0.04
572.465	0.03
572.658	0.01
572.85	0.03
573.042	-0.02
573.234	0
573.426	0.04
573.618	-0.03
573.81	0.03
574.002	0.03
574.194	0.05
574.386	-0.03
574.578	-0.08
574.77	-0.02
574.962	0.01
575.154	-0.03
575.346	-0
575.538	0
575.729	-0.01
575.921	0.01
576.113	-0
576.305	0.05
576.497	-0.02
576.689	0.02
576.88	-0.04
577.072	0.04
577.264	-0.02
577.456	0.01
577.647	-0.07
577.839	-0.01
578.031	0.04
578.223	-0.05
578.414	-0.04
578.606	0.03
578.798	0.01
578.989	-0.02
579.181	-0
579.372	-0.01
579.564	0.01
579.755	0.02
579.947	0.01
580.139	0.01
580.33	-0.01
580.522	-0.02
580.713	-0.08
580.905	0
581.096	0.01
581.287	-0.01
581.479	0.01
581.67	0.04
581.862	0
582.053	-0.01
582.244	-0.05
582.436	0
582.627	0.02
582.818	-0.04
583.01	-0.04
583.201	0.02
583.392	0.04
583.583	-0
583.775	-0.03
583.966	-0.03
584.157	-0.01
584.348	-0.04
584.54	-0.03
584.731	0.03
584.922	0.02
585.113	-0.02
585.304	-0.01
585.495	0.01
585.686	0.02
585.877	0.04
586.068	0.02
586.259	0
586.45	0
586.641	-0
586.832	-0.06
587.023	-0.01
587.214	-0.01
587.405	-0.02
587.596	-0.02
587.787	0.07
587.978	-0
588.169	-0.04
588.36	-0.02
588.551	0.01
588.742	-0.01
588.932	0.02
589.123	-0.01
589.314	0.03
589.505	0.03
589.696	0.01
589.886	-0.02
590.077	-0.02
590.268	0.02
590.458	-0.03
590.649	-0.04
590.84	0.03
591.03	-0.03
591.221	-0.06
591.412	-0.05
591.602	0.01
591.793	0.03
591.984	-0.02
592.174	0
592.365	0.08
592.555	-0.02
592.746	0
592.936	0.01
593.127	0.03
593.317	0.05
593.508	-0.03
593.698	-0.01
593.889	-0.01
594.079	0.01
594.269	-0.02
594.46	0.01
594.65	-0.01
594.84	-0
595.031	-0.02
595.221	-0.01
595.411	-0.03
595.602	0.04
595.792	0.01
595.982	-0.03
596.172	0.07
596.363	-0.01
596.553	0.01
596.743	-0.04
596.933	0.01
597.123	0.06
597.314	-0.04
597.504	-0.02
597.694	0.05
597.884	0.03
598.074	-0.03
598.264	-0.01
598.454	0.01
598.644	0
598.834	-0
599.024	-0.06
599.214	-0.02
599.404	0.04
599.594	-0.03
599.784	-0.03
599.974	0.06
600.164	0.02
600.354	-0.02
600.544	-0.05
600.734	0.02
600.924	0.05
601.114	-0.03
601.303	-0
601.493	-0
601.683	-0.01
601.873	-0.02
602.063	-0.09
602.252	0.04
602.442	-0.06
602.632	-0.04
602.821	-0.03
603.011	0.03
603.201	0
603.39	-0.05
603.58	-0.04
603.77	0.03
603.959	0.02
604.149	-0.01
604.339	-0.02
604.528	0.05
604.718	0.02
604.907	-0.02
605.097	-0.03
605.286	-0.03
605.476	0.03
605.665	0.03
605.855	-0.01
606.044	0.06
606.234	0.01
606.423	-0.01
606.612	-0.01
606.802	-0.01
606.991	0.02
607.181	0.03
607.37	-0.05
607.559	-0.01
607.749	-0.05
607.938	0.02
608.127	0
608.316	-0.01
608.506	0.02
608.695	-0.01
608.884	0
609.073	-0.03
609.263	0
609.452	0.01
609.641	0.04
609.83	-0.05
610.019	-0.01
610.208	-0.02
610.397	-0.01
610.586	0.02
610.775	-0.03
610.965	-0.02
611.154	-0.03
611.343	0.01
611.532	0
611.721	-0.03
611.91	-0.03
612.099	0.02
612.287	-0.01
612.476	-0.06
612.665	0.01
612.854	-0.02
613.043	0.07
613.232	-0.02
613.421	-0.07
613.61	0.01
613.798	-0.02
613.987	0.02
614.176	-0
614.365	0.03
614.554	-0.01
614.742	0.04
614.931	0.01
615.12	0.04
615.309	0.01
615.497	-0.02
615.686	-0.03
615.875	0.02
616.063	0
616.252	-0.02
616.44	-0.03
616.629	-0.01
616.818	0.03
617.006	-0.01
617.195	-0
617.383	0.04
617.572	0
617.76	-0.03
617.949	-0
618.137	0.01
618.326	0.08
618.514	-0.01
618.703	-0.02
618.891	0.08
619.079	-0.06
619.268	0.01
619.456	-0.02
619.644	0.04
619.833	-0.01
620.021	-0.01
620.209	-0.07
620.398	0.01
620.586	-0.01
620.774	0.02
620.962	0.01
621.151	0.05
621.339	-0
621.527	-0.06
621.715	-0.06
621.903	-0.05
622.092	-0.06
622.28	0.01
622.468	-0.02
622.656	-0
622.844	0.03
623.032	-0.03
623.22	-0.08
623.408	0.03
623.596	0.02
623.784	0.01
623.972	-0.02
624.16	-0.03
624.348	0.1
624.536	-0.04
624.724	-0.02
624.912	0.03
625.1	0.06
625.288	-0.02
625.476	-0.04
625.664	0.02
625.851	-0.03
626.039	-0.04
626.227	0.02
626.415	0.02
626.603	-0.07
626.79	-0.06
626.978	-0.01
627.166	0.02
627.354	0.01
627.541	-0.03
627.729	-0.06
627.917	0.07
628.104	0.01
628.292	0.02
628.48	-0.02
628.667	0.02
628.855	0
629.042	0
629.23	-0.02
629.418	0.01
629.605	-0
629.793	-0.03
629.98	-0.02
630.168	0
630.355	-0.02
630.543	0.03
630.73	-0.03
630.917	0.03
631.105	0.07
631.292	-0.01
631.48	-0.03
631.667	0.05
631.854	0.02
632.042	-0
632.229	-0.06
632.416	-0.02
632.604	-0.03
632.791	-0.05
632.978	0.03
633.165	-0.01
633.353	0.08
633.54	0.02
633.727	-0.03
633.914	-0.03
634.101	-0.07
634.289	0.04
634.476	-0.02
634.663	-0.05
634.85	0.01
635.037	-0.02
635.224	-0.07
635.411	0.05
635.598	-0.01
635.785	-0.01
635.972	-0.03
636.159	0.04
636.346	-0.01
636.533	-0.01
636.72	-0.01
636.907	-0.02
637.094	0.03
637.281	-0.02
637.468	0.01
637.655	-0.01
637.842	0.01
638.029	-0.03
638.215	0.01
638.402	-0.01
638.589	-0.06
638.776	0
638.963	-0.04
639.149	0.05
639.336	0.08
639.523	-0.02
639.709	-0
639.896	0.02
640.083	0.02
640.27	-0.01
640.456	-0.01
640.643	0.01
640.829	-0.04
641.016	0.01
641.203	-0.05
641.389	0.01
641.576	0.02
641.762	-0.01
641.949	-0.04
642.135	0.01
642.322	-0
642.508	-0.06
642.695	-0.03
642.881	-0
643.068	-0
643.254	0
643.441	0.05
643.627	0.01
643.813	-0.01
644	0.03
644.186	-0.03
644.372	0.04
644.559	0.02
644.745	0
644.931	-0.03
645.118	-0.01
645.304	0.01
645.49	-0.04
645.676	-0.04
645.862	0.02
646.049	0.04
646.235	0.02
646.421	0.05
646.607	0.07
646.793	-0.01
646.979	-0.05
647.165	0.04
647.352	0
647.538	0.06
647.724	-0.02
647.91	-0.01
648.096	0.04
648.282	0.02
648.468	-0.04
648.654	0.02
648.84	0.03
649.026	0.01
649.212	-0.03
649.397	-0.02
649.583	-0.06
649.769	0.03
649.955	0.02
650.141	0.01
650.327	0.07
650.513	-0.03
650.698	0.01
650.884	-0.05
651.07	-0.01
651.256	0.02
651.442	-0.01
651.627	-0
651.813	-0
651.999	0
652.184	0.04
652.37	-0.02
652.556	-0
652.741	0.07
652.927	-0.07
653.113	-0.02
653.298	-0.01
653.484	-0.01
653.669	-0.06
653.855	-0.01
654.04	0.02
654.226	-0.02
654.412	-0.04
654.597	-0.02
654.782	0.02
654.968	0.06
655.153	-0.02
655.339	-0.01
655.524	-0.03
655.71	0.03
655.895	0.02
656.08	-0.03
656.266	0.05
656.451	0
656.636	-0.05
656.822	0.02
657.007	-0.02
657.192	-0.03
657.378	-0.04
657.563	-0.02
657.748	0.04
657.933	0.02
658.118	0
658.304	-0.02
658.489	0.04
658.674	0.01
658.859	-0.05
659.044	0.01
659.229	0.03
659.414	-0.03
659.599	-0.03
659.785	-0.05
659.97	-0.01
660.155	0.03
660.34	-0.01
660.525	-0
660.71	0
660.895	0.01
661.08	-0.01
661.264	-0
661.449	0.07
661.634	0.07
661.819	0.02
662.004	-0.02
662.189	-0.08
662.374	-0.04
662.559	-0.06
662.743	-0.02
662.928	0.02
663.113	-0.04
663.298	-0.07
663.483	-0.01
663.667	0
663.852	-0.05
664.037	0.01
664.221	-0.04
664.406	0.02
664.591	0.03
664.775	0.01
664.96	-0.01
665.145	0.02
665.329	0.05
665.514	-0.02
665.698	-0.01
665.883	-0.09
666.068	0.04
666.252	0.03
666.437	-0.02
666.621	0.02
666.806	0.06
666.99	-0
667.174	-0.02
667.359	0.04
667.543	0.03
667.728	-0.03
667.912	-0.09
668.096	0.04
668.281	-0.03
668.465	-0.02
668.649	0
668.834	-0.02
669.018	-0
669.202	-0.02
669.387	-0.04
669.571	0.04
669.755	-0.04
669.939	-0.02
670.124	-0.01
670.308	0.06
670.492	0.02
670.676	0.02
670.86	0.02
671.044	-0.06
671.228	0.03
671.413	-0.03
671.597	-0.03
671.781	0.01
671.965	0.05
672.149	0.03
672.333	-0.04
672.517	-0.04
672.701	0.03
672.885	-0.01
673.069	-0.08
673.253	0.09
673.437	-0.01
673.621	-0.03
673.804	0.01
673.988	-0.03
674.172	0.02
674.356	-0.08
674.54	0.01
674.724	0.09
674.908	0.01
675.091	0.03
675.275	-0.02
675.459	0.06
675.643	0.05
675.826	0.02
676.01	-0.02
676.194	-0.02
676.377	0.04
676.561	0.04
676.745	-0.04
676.928	0.04
677.112	0.04
677.296	-0.05
677.479	-0.03
677.663	-0
677.846	0.02
678.03	-0.02
678.213	0
678.397	0.02
678.58	-0.05
678.764	-0.05
678.947	-0.02
679.131	-0.03
679.314	0.1
679.498	0
679.681	0.02
679.865	0.06
680.048	0
680.231	-0.02
680.415	-0.03
680.598	-0.03
680.781	-0.02
680.965	-0.03
681.148	0.01
681.331	-0.01
681.514	0.04
681.698	-0.03
681.881	0.01
682.064	-0.01
682.247	0
682.43	-0.13
682.614	0.03
682.797	0.07
682.98	0.04
683.163	-0.06
683.346	0.03
683.529	-0.02
683.712	-0.04
683.895	0.07
684.078	-0.03
684.261	-0.01
684.444	0.02
684.627	0.02
684.81	-0.02
684.993	-0.03
685.176	-0.01
685.359	-0.09
685.542	-0.01
685.725	0.07
685.908	0.01
686.091	-0.03
686.274	0.06
686.457	0.05
686.639	0.01
686.822	0.06
687.005	0.01
687.188	0.03
687.371	0.07
687.553	0.05
687.736	0.03
687.919	0.12
688.102	0.1
688.284	-0.01
688.467	-0.05
688.65	-0.03
688.832	-0.02
689.015	0
689.197	-0.07
689.38	0.1
689.563	0.1
689.745	-0.02
689.928	-0.03
690.11	-0.01
690.293	0.02
690.475	-0.07
690.658	0.02
690.84	-0.01
691.023	0.04
691.205	-0.06
691.388	0
691.57	0.03
691.752	0.02
691.935	-0.06
692.117	-0.04
692.3	-0.02
692.482	0.03
692.664	-0.04
692.847	0.03
693.029	0.09
693.211	0.11
693.393	0.02
693.576	-0.02
693.758	0
693.94	-0.01
694.122	0.02
694.304	-0.04
694.487	-0.03
694.669	0.09
694.851	-0.09
695.033	0.01
695.215	0.01
695.397	-0.05
695.579	0
695.761	0.01
695.943	-0.08
696.125	0.12
696.308	-0.03
696.49	-0.1
696.671	0.15
696.853	0
697.035	0.14
697.217	0.03
697.399	0.09
697.581	-0.06
697.763	-0.01
697.945	-0.06
698.127	-0.02
698.309	0.05
698.491	0.01
698.672	0.03
698.854	0.05
699.036	0.11
699.218	0.01
699.399	0.1
699.581	0.1
699.763	-0.03
699.945	0
700.126	-0.04
700.308	0.03
700.49	0.02
700.671	-0.11
700.853	-0.05
701.035	-0.06
701.216	-0.01
701.398	-0.02
701.579	0.02
701.761	0.06
701.943	-0.01
702.124	-0.04
702.306	-0.01
702.487	0.19
702.669	-0.01
702.85	-0.07
703.031	-0.07
703.213	0.14
703.394	0.12
703.576	0.02
703.757	0.05
703.938	0.05
704.12	0.17
704.301	0.03
704.483	-0.06
704.664	-0.01
704.845	0.06
705.026	0.02
705.208	0
705.389	0
705.57	0.09
705.751	-0.01
705.933	0.01
706.114	0.05
706.295	-0.02
706.476	-0.07
706.657	0.06
706.838	0.04
707.02	0.03
707.201	-0.05
707.382	-0.05
707.563	0.01
707.744	-0
707.925	-0.01
708.106	-0.03
708.287	0.01
708.468	0.13
708.649	0.03
708.83	0.07
709.011	0.02
709.192	0.03
709.373	-0.08
709.554	-0.02
709.734	0.05
709.915	0.07
710.096	-0.01
710.277	-0.12
710.458	0.06
710.639	0.07
710.819	-0.09
711	0.02
711.181	0.08
711.362	-0.01
711.542	0
711.723	0.01
711.904	0.04
712.085	0.06
712.265	0.04
712.446	0.01
712.627	-0.03
712.807	-0.01
712.988	0.08
713.168	-0.04
713.349	0.06
713.53	-0.1
713.71	-0.05
713.891	-0.05
714.071	0.04
714.252	-0.06
714.432	-0.11
714.613	-0.07
714.793	-0
714.974	0.05
715.154	0.04
715.334	0.08
715.515	0.12
715.695	-0.08
715.876	-0.02
716.056	-0.01
716.236	-0.08
716.417	0.06
716.597	-0.12
716.777	0.1
716.957	-0.04
717.138	0.01
717.318	-0.02
717.498	-0.08
717.678	0.02
717.859	0.07
718.039	-0.05
718.219	-0.02
718.399	0.01
718.579	-0.05
718.759	-0.09
718.939	0.02
719.12	0.05
719.3	0.03
719.48	-0.12
719.66	-0.14
719.84	0.08
720.02	0.05
720.2	-0.03
720.38	0.02
720.56	0.16
720.74	-0.01
720.92	-0.02
721.1	0.09
721.279	0.09
721.459	0.09
721.639	-0.14
721.819	0.05
721.999	-0.02
722.179	0.02
722.359	-0.03
722.538	0.02
722.718	-0.02
722.898	0
723.078	0.06
723.257	-0.04
723.437	0
723.617	0.03
723.797	-0.07
723.976	-0.05
724.156	0.05
724.336	0.09
724.515	0.2
724.695	-0.1
724.874	-0.04
725.054	0.06
725.234	-0.02
725.413	0.04
725.593	-0.05
725.772	-0
725.952	-0.09
726.131	-0.03
726.311	0.03
726.49	0.01
726.67	-0.02
726.849	-0.06
727.028	0.06
727.208	-0.08
727.387	0.07
727.567	-0.08
727.746	0
727.925	-0.04
728.105	-0.14
728.284	-0.02
728.463	-0.2
728.643	0.09
728.822	-0.05
729.001	-0.1
729.18	0.08
729.359	0.09
729.539	0
729.718	-0.02
729.897	0.08
730.076	0.03
730.255	-0.11
730.434	0.04
730.614	0.08
730.793	0.13
730.972	0.04
731.151	-0.03
731.33	0.08
731.509	0.17
731.688	0.1
731.867	0.01
732.046	-0.1
732.225	0.22
732.404	-0.08
732.583	-0.14
732.762	-0.04
732.941	0.13
733.12	-0.04
733.298	0.07
733.477	0.11
733.656	-0.01
733.835	-0.09
734.014	0.12
734.193	-0.01
734.371	0.07
734.55	0.03
734.729	-0.17
734.908	-0.01
735.086	0.08
735.265	0.11
735.444	-0.11
735.623	-0.09
735.801	0.01
735.98	0.03
736.159	-0.08
736.337	0.18
736.516	0.01
736.694	0.02
736.873	-0.06
737.052	0.12
737.23	0.19
737.409	-0.05
737.587	0.11
737.766	-0.06
737.944	-0
738.123	0.03
738.301	0.01
738.479	-0.09
738.658	0.1
738.836	-0.14
739.015	0.07
739.193	0.2
739.371	-0.17
739.55	0.04
739.728	-0.18
739.906	0.17
740.085	0.2
740.263	0.08
740.441	-0.18
740.62	0.27
740.798	0.12
740.976	-0.08
741.154	-0.09
741.332	0.1
741.511	-0.09
741.689	-0.01
741.867	0.04
742.045	0.18
742.223	0.04
742.401	-0.09
742.579	0.04
742.757	0.15
742.935	-0.08
743.114	-0.06
743.292	-0.1
743.47	0.02
743.648	-0.01
743.826	0.03
744.004	0.21
744.181	0.07
744.359	0.02
744.537	0.02
744.715	-0.09
744.893	0.05
745.071	-0.01
745.249	-0.04
745.427	-0.05
745.605	0.08
745.782	0.07
745.96	0.16
746.138	-0
746.316	0.18
746.493	-0.06
746.671	0.03
746.849	0.02
747.027	0.21
747.204	-0.07
747.382	0.06
747.56	-0.06
747.737	0.04
747.915	0.06
748.093	0
748.27	-0.02
748.448	-0.07
748.625	-0.11
748.803	0.03
748.98	-0.15
749.158	0.03
749.335	0.1
749.513	0.05
749.69	0.08
749.868	0.03
750.045	0.11
750.223	0.01
750.4	-0.3
750.578	0.2
750.755	-0.04
750.932	-0.18
751.11	0.17
751.287	-0.02
751.464	0.12
751.642	-0.14
751.819	0.1
751.996	0.08
752.173	-0.03
752.351	-0.11
752.528	0.01
752.705	0.01
752.882	0.01
753.06	0.07
753.237	0.03
753.414	0.16
753.591	0.21
753.768	0.01
753.945	-0.01
754.122	0.04
754.299	0.09
754.476	-0.07
754.654	0.02
754.831	0.13
755.008	0.07
755.185	-0.12
755.362	-0.13
755.539	0.1
755.716	-0.09
755.892	0.02
756.069	-0.04
756.246	0
756.423	-0.07
756.6	0.18
756.777	0.02
756.954	0.18
757.131	-0.03
757.307	-0.05
757.484	-0.14
757.661	0.05
757.838	0.06
758.015	-0.12
758.191	0.16
758.368	-0.02
758.545	0.21
758.721	0.08
758.898	-0.1
759.075	0.11
759.251	0.03
759.428	0.03
759.605	-0.06
759.781	0.01
759.958	0.09
760.134	0.06
760.311	-0.02
760.488	0.17
760.664	0.19
760.841	-0.01
761.017	-0.16
761.194	0.04
761.37	0.16
761.547	0.05
761.723	0.03
761.899	0.15
762.076	-0.01
762.252	-0.05
762.429	-0
762.605	0.11
762.781	-0.03
762.958	0.14
763.134	-0
763.31	-0.04
763.486	0.22
763.663	-0.08
763.839	0.1
764.015	-0.19
764.191	-0.11
764.368	-0.06
764.544	-0.11
764.72	0.17
764.896	0.18
765.072	0.02
765.248	0.06
765.425	-0.09
765.601	0.05
765.777	0.06
765.953	-0.15
766.129	-0.07
766.305	-0.11
766.481	-0.03
766.657	0.03
766.833	0.13
767.009	-0.14
767.185	-0.04
767.361	-0.04
767.537	-0.11
767.713	0.17
767.889	-0.16
768.065	0.07
768.24	-0.03
768.416	0.13
768.592	-0.06
768.768	0.05
768.944	0.06
769.12	-0.07
769.295	-0.1
769.471	-0.09
769.647	0.09
769.823	0.28
769.998	0.04
770.174	-0.04
770.35	0.31
770.525	0.2
770.701	0.04
770.877	0.06
771.052	-0.13
771.228	0.23
771.403	0.07
771.579	0.08
771.755	0.36
771.93	-0.07
772.106	-0.04
772.281	-0.12
772.457	0.04
772.632	0.15
772.808	-0.14
772.983	0.07
773.159	-0.13
773.334	0.24
773.509	0.13
773.685	-0.16
773.86	0.38
774.036	0.27
774.211	-0.04
774.386	-0.06
774.562	0.09
774.737	0.24
774.912	-0.17
775.087	0
775.263	0.14
775.438	-0.03
775.613	-0.07
775.788	0
775.964	0.29
776.139	0.5
776.314	-0.05
776.489	0.08
776.664	0.16
776.839	-0.12
777.014	0.24
777.19	0.28
777.365	0.22
777.54	0.3
777.715	0.1
777.89	0.17
778.065	-0.09
778.24	0.04
778.415	0.27
778.59	0.03
778.765	-0.01
778.94	-0
779.115	-0.01
779.289	0.01
779.464	0.03
779.639	-0.1
779.814	-0.2
779.989	-0.15
780.164	0.39
780.339	0.12
780.513	0.01
780.688	-0.03
780.863	-0.06
781.038	0.15
781.212	-0.14
781.387	0.06
781.562	0.38
781.737	0.11
781.911	0.06
782.086	-0.03
782.261	-0.04
782.435	0.44
782.61	0
782.784	0.04
782.959	0.32
783.134	-0.01
783.308	-0.09
783.483	0
783.657	0.41
783.832	0.2
784.006	-0.3
784.181	0.11
784.355	0.3
784.53	0.01
784.704	-0.14
784.878	0.31
785.053	-0.06
785.227	0.3
785.402	0.29
785.576	-0.13
785.75	0.21
785.925	-0.05
786.099	0.22
786.273	0.02
786.448	0.38
786.622	0.19
786.796	-0.08
786.97	-0.03
787.145	0.47
787.319	-0.29
787.493	-0.13
787.667	-0.41
787.841	-0.04
788.015	0.4
788.19	-0.14
788.364	0.19
788.538	0.15
788.712	0.28
788.886	0.09
789.06	0.25
789.234	0.32
789.408	-0.2
789.582	-0.27
789.756	-0.22
789.93	-0.03
790.104	-0
790.278	-0.08
790.452	-0.01
790.626	-0.05
790.8	-0.2
790.973	0.28
791.147	0.4
791.321	0.14
791.495	0.26
791.669	0.06
791.843	0.25
792.016	-0.13
792.19	0.61
792.364	-0.11
792.538	0.51
792.711	0.22
792.885	-0.19
793.059	-0.13
793.233	-0.61
793.406	0.2
793.58	-0.1
793.754	0.18
793.927	-0.07
794.101	0.23
794.274	0.01
794.448	0.1
794.622	-0.16
794.795	0.4
794.969	-0.04
795.142	0.48
795.316	0.19
795.489	-0.08
795.663	0.25
795.836	0.28
796.009	-0.29
796.183	0.55
796.356	0.14
796.53	0.29
796.703	-0.05
796.876	0.83
797.05	0.08
797.223	0.09
797.396	0.09
797.57	0.07
797.743	0.23
797.916	0.03
798.09	-0.2
798.263	0.3
798.436	0.35
798.609	0.11
798.782	0.01
798.956	0.07
799.129	-0.16
799.302	-0.06
799.475	0.1
799.648	-0.1
799.821	-0.08
799.994	0.21
800.167	-0.26
800.34	-0.02
800.514	0.07
800.687	0.09
800.86	-0.14
801.033	0.02
801.206	0.18
801.379	-0.18
801.551	0.2
801.724	0.05
801.897	0.62
802.07	-0.12
802.243	-0.42
802.416	0
802.589	-0.04
802.762	0
802.935	-0.13
803.107	0.11
803.28	0.32
803.453	0.35
803.626	-0.05
803.798	0.25
803.971	-0.41
804.144	0.35
804.317	0.02
804.489	0.36
804.662	0.16
804.835	-0.07
805.007	-0.2
805.18	0.31
805.353	0.41
805.525	-0.05
805.698	-0.12
805.87	0.28
806.043	0.43
806.215	-0.25
806.388	-0.25
806.56	0.13
806.733	0.6
806.905	0.21
807.078	-0.28
807.25	-0.18
807.423	-0.13
807.595	0.1
807.768	-0.16
807.94	0.28
808.112	-0.02
808.285	-0.1
808.457	-0.1
808.629	0.06
808.802	0.23
808.974	0.08
809.146	0.04
809.318	-0.05
809.491	0.11
809.663	0.46
809.835	-0.12
810.007	0.39
810.18	-0.16
810.352	-0.4
810.524	0.12
810.696	0.45
810.868	0.6
811.04	0.01
811.212	-0.15
811.384	0.31
811.556	0.19
811.728	0.05
811.901	0.78
812.073	0.29
812.245	0.41
812.417	0.14
812.589	-0.67
812.76	0.23
812.932	0.23
813.104	0.55
813.276	0.03
813.448	0.67
813.62	0.41
813.792	0.1
813.964	0.08
814.136	0.17
814.307	-0.25
814.479	0.03
814.651	-0.14
814.823	0.87
814.995	-0.05
815.166	-0.15
815.338	-0.6
815.51	-0.48
815.681	0.6
815.853	0.43
816.025	-0.23
816.196	0.71
816.368	0.69
816.54	-0.34
816.711	-0.16
816.883	0.55
817.054	1.43
817.226	-0.43
817.398	-0.04
817.569	0.04
817.741	0.19
817.912	0.32
818.084	-0.09
818.255	0.53
818.426	-0.06
818.598	0.51
818.769	-0.28
818.941	0.43
819.112	0.54
819.283	0.03
819.455	-0.12
819.626	0.17
819.798	0.51
819.969	0.25
820.14	0.01
820.311	0.03
820.483	0.28
820.654	0.39
820.825	-0.07
820.996	0.01
821.168	-0.12
821.339	0.4
821.51	-0.54
821.681	-0.45
821.852	0
822.023	-0.15
822.195	-0.86
822.366	0.57
822.537	-0.14
822.708	-0.16
822.879	-0.41
823.05	0.55
823.221	0.5
823.392	0.31
823.563	0.51
823.734	-0.14
823.905	0.12
824.076	0.24
824.247	0.26
824.418	-0.44
824.589	0.74
824.759	0.16
824.93	-0.03
825.101	-0.25
825.272	0.47
825.443	1.03
825.614	0.31
825.784	-1.22
825.955	1.18
826.126	0.72
826.297	0.27
826.467	1.15
826.638	0.82
826.809	-0.63
826.98	0.29
827.15	0.69
827.321	0.4
827.492	0.75
827.662	0
827.833	1.09
828.003	0.84
828.174	0.12
828.345	-0.43
828.515	1
828.686	0.01
828.856	-0.15
829.027	-0.18
829.197	0.2
829.368	0.75
829.538	0.01
829.709	-0.54
829.879	0.13
830.049	0.22
830.22	0.16
830.39	-0.07
830.56	0.8
830.731	0.25
830.901	-0.43
831.072	-0.01
831.242	0.39
831.412	0.11
831.582	-0.14
831.753	-0.72
831.923	1.26
832.093	0.73
832.263	-0.1
832.434	0.12
832.604	-0.14
832.774	0.69
832.944	0.06
833.114	-0.37
833.284	0.31
833.454	-0.35
833.624	-0.23
833.795	-0.02
833.965	1.18
834.135	1.02
834.305	-0.48
834.475	-0.36
834.645	0.04
834.815	-0.05
834.985	-0.59
835.155	-0.29
835.325	0.37
835.494	0.1
835.664	-0.02
835.834	-0.08
836.004	0.37
836.174	0.61
836.344	0.27
836.514	-0.71
836.684	-0.28
836.853	0.66
837.023	0.45
837.193	-0.08
837.363	0.8
837.532	0.69
837.702	-0.11
837.872	-0.06
838.041	1.06
838.211	1.53
838.381	-0.43
838.55	0.35
838.72	1.74
838.89	1.02
839.059	0.09
839.229	-0.18
839.398	2.21
839.568	-0.1
839.738	-0.1
839.907	1.08
840.077	0.58
840.246	0.33
840.416	-0.21
840.585	-0.57
840.755	1.84
840.924	0.75
841.093	-0.2
841.263	-0.03
841.432	0.31
841.602	-0.46
841.771	-0.27
841.94	-0.96
842.11	2.67
842.279	1.85
842.448	-0.39
842.617	-0.83
842.787	1.06
842.956	-0.51
843.125	0.07
843.294	-0.17
843.464	1.66
843.633	1.15
843.802	-0.59
843.971	0.73
844.14	1.19
844.309	0.71
844.479	-0.26
844.648	-0.71
844.817	-0.45
844.986	0.54
845.155	-0.22
845.324	-0.21
845.493	-0.13
845.662	-0.36
845.831	0.64
846	0.05
846.169	0.08
846.338	1.8
846.507	0.82
846.676	0.89
846.844	-0.05
847.013	1.2
847.182	0.16
847.351	-0.69
847.52	-0.47
847.689	0.6
847.858	-0.01
848.026	-0.88
848.195	-0.19
848.364	0.03
848.533	-0.57
848.701	-0.48
848.87	-0.01
849.039	1.82
849.207	1.03
849.376	1.07
849.545	0.84
849.713	-0.08
849.882	-0.26
850.051	-0.3
850.219	0.27
850.388	0.4
850.556	-0.5
850.725	-0.25
850.893	1
851.062	-0.15
851.23	1.3
851.399	-1.29
851.567	-0.25
851.736	0.11
851.904	-0.72
852.073	-0.5
852.241	0.74
852.41	-0.08
852.578	0.74
852.746	-0.13
852.915	1.38
853.083	1.59
853.251	-0.91
853.42	-0.59
853.588	0.21
853.756	1.57
853.924	0.23
854.093	0.02
854.261	-0.3
854.429	-1.93
854.597	-0.09
854.765	-0.62
854.934	1.33
855.102	0.98
855.27	-0.2
855.438	1.37
855.606	1.43
855.774	1.49
855.942	-1.06
856.11	-1.12
856.278	0.39
856.446	1.93
856.614	-0.01
856.782	-0.08
856.95	1.87
857.118	1.68
857.286	1.72
857.454	-1.24
857.622	1.77
857.79	1.51
857.958	-0.98
858.126	-0.47
858.294	-1.91
858.462	-0.4
858.629	-1.09
858.797	-0.47
858.965	0.85
859.133	0.71
859.301	-0.06
859.468	1.3
859.636	-1.18
859.804	3.14
859.971	0.55
860.139	-0.72
860.307	1.23
860.474	1.82
860.642	-0.9
860.81	-0.51
860.977	-0.48
861.145	1.58
861.313	-0.13
861.48	-0.12
861.648	0.68
861.815	-0.09
861.983	-1.4
862.15	-0.73
862.318	1.51
862.485	1.84
862.653	0.1
862.82	-0.35
862.988	3.66
863.155	-1.43
863.322	0.64
863.49	-0.9
863.657	-1.14
863.824	1.86
863.992	0.52
864.159	-0.15
864.326	0.95
864.494	-0.99
864.661	2.95
864.828	-0.48
864.996	0.8
865.163	1.23
865.33	0.25
865.497	-1.47
865.664	0.62
865.832	-0.72
865.999	0.67
866.166	-0.73
866.333	-0.93
866.5	-0.26
866.667	-0.44
866.834	0.19
867.001	2.24
867.168	-1.42
867.335	0.73
867.502	-0.94
867.669	0.9
867.836	2.42
868.003	0.64
868.17	2.34
868.337	2.43
868.504	4.02
868.671	-1.64
868.838	-0.36
869.005	2.02
869.172	2.5
869.339	1.61
869.505	0.31
869.672	0.42
869.839	2.7
870.006	0.02
870.173	-2.21
870.339	1.68
870.506	2.61
870.673	-1.22
870.84	0.45
871.006	1.61
871.173	-0.6
871.34	-0.47
871.506	0.3
871.673	1.16
871.839	-1.54
872.006	1.17
872.173	-0.22
872.339	1.1
872.506	1.37
872.672	-0.37
872.839	-1.41
873.005	1.67
873.172	3.03
873.338	1.31
873.505	0.19
873.671	1.42
873.838	1.72
874.004	-2.56
874.171	-0.61
874.337	2.08
874.503	2.31
874.67	0.77
874.836	-1.34
875.002	2.12
875.169	2.81
875.335	-1.13
875.501	0.52
875.668	0.87
875.834	0.88
876	1.09
876.166	0.81
876.332	2.9
876.499	2.95
876.665	0.08
876.831	1.18
876.997	4.79
877.163	1.2
877.329	-1.4
877.495	0.21
877.662	3.05
877.828	0.96
877.994	-0.47
878.16	-2.26
878.326	-0.69
878.492	1.44
878.658	-0.88
878.824	1.33
878.99	1.96
879.156	0.51
879.322	1.13
879.487	0.98
879.653	1.73
879.819	1.54
879.985	-0.07
880.151	1.32
880.317	-0.68
880.483	0.4
880.648	0.42
880.814	-1.61
880.98	0.89
881.146	-3.52
881.312	-1.06
881.477	1
881.643	-0.08
881.809	1.65
881.974	3.02
882.14	-2.98
882.306	1.16
882.471	3.95
882.637	0.2
882.803	1.71
882.968	4.1
883.134	3.54
883.299	-0.76
883.465	0.91
883.63	1.28
883.796	3.36
883.961	1.38
884.127	0.88
884.292	-3.63
884.458	-2.65
884.623	-2.65
