Data from Apollo_Calib_20240827__AbsoluteIrradiance__545__08-14-00-319.txt Node

Date: Wed Aug 28 08:14:00 BST 2024
User: biology
Spectrometer: FLMT08252
Trigger mode: 0
Integration Time (sec): 5.000000E-1
Scans to average: 5
Electric dark correction enabled: true
Nonlinearity correction enabled: false
Boxcar width: 0
XAxis mode: Wavelengths
Number of Pixels in Spectrum: 3648
>>>>>Begin Spectral Data<<<<<
179.588	-0
179.809	-0
180.03	-0
180.251	-0
180.473	-0
180.694	0
180.915	0
181.136	-0
181.357	-0
181.578	0
181.799	-0
182.02	-0
182.241	0
182.462	-0
182.683	0
182.904	-0
183.125	-0
183.346	0
183.567	0
183.788	-0
184.009	-0
184.23	-0
184.451	0
184.672	-0
184.892	-0
185.113	-0
185.334	0
185.555	-0
185.776	-0
185.996	0
186.217	-0
186.438	0
186.659	-0
186.879	0
187.1	-0
187.321	-0
187.541	-0
187.762	0
187.983	0
188.203	-0
188.424	-0
188.644	-0
188.865	-0
189.086	-0
189.306	-0
189.527	-0
189.747	0
189.968	-0
190.188	0
190.409	-0
190.629	0
190.849	-0
191.07	-0
191.29	0
191.511	-0
191.731	-0
191.951	-0
192.172	-0
192.392	0
192.612	-0
192.833	0
193.053	-0
193.273	-0
193.493	-0
193.714	-0
193.934	0
194.154	0
194.374	0
194.594	0
194.815	-0
195.035	-0
195.255	0
195.475	-0
195.695	0
195.915	0
196.135	-0
196.355	0
196.575	0
196.795	-0
197.015	-0
197.235	-0
197.455	-0
197.675	0
197.895	-0
198.115	-0
198.335	0
198.555	-0
198.775	0
198.995	0
199.214	0
199.434	0
199.654	-0
199.874	-0
200.094	0.95
200.313	-0.58
200.533	-0.57
200.753	-1.25
200.973	0.06
201.192	0.55
201.412	-0.74
201.632	-0.39
201.851	0.26
202.071	-0.61
202.291	-0.33
202.51	-0.76
202.73	-0.04
202.95	-0.41
203.169	-0.72
203.389	-0.19
203.608	-0.5
203.828	-0.6
204.047	-0.4
204.267	0.53
204.486	0.08
204.706	0.08
204.925	-0.12
205.145	-0.23
205.364	0.47
205.583	0.24
205.803	-0.21
206.022	-0.22
206.242	-0.16
206.461	0.17
206.68	-0.41
206.9	-0.24
207.119	0.27
207.338	0.38
207.557	-0.24
207.777	-0.25
207.996	0.07
208.215	0.77
208.434	-0.47
208.654	-0.69
208.873	-0.29
209.092	0.56
209.311	-0.28
209.53	-0.24
209.749	-0.35
209.968	-0.27
210.187	-0.21
210.407	-0.32
210.626	0.03
210.845	0.11
211.064	-0.09
211.283	-0.19
211.502	0.09
211.721	-0.01
211.94	-0.2
212.159	0.25
212.377	0.11
212.596	0.02
212.815	-0.02
213.034	0.06
213.253	-0.12
213.472	0.16
213.691	-0.24
213.91	-0.37
214.128	-0.17
214.347	0.12
214.566	-0.3
214.785	-0.54
215.003	-0.1
215.222	0.02
215.441	0.01
215.66	-0.33
215.878	-0.13
216.097	0.23
216.316	-0.3
216.534	-0.1
216.753	0.01
216.972	-0.13
217.19	-0.26
217.409	-0.42
217.627	-0.27
217.846	-0.01
218.064	-0.08
218.283	-0.08
218.501	0.29
218.72	0.03
218.938	-0.2
219.157	-0.05
219.375	0.1
219.594	0.07
219.812	-0.3
220.031	-0.26
220.249	0.1
220.467	0.25
220.686	-0.08
220.904	-0.16
221.122	-0.26
221.341	0.22
221.559	-0.06
221.777	-0.23
221.995	0.1
222.214	0.08
222.432	-0.18
222.65	0.05
222.868	-0.08
223.086	0.11
223.305	0.16
223.523	0.02
223.741	0.24
223.959	-0.2
224.177	-0.28
224.395	-0.11
224.613	0.04
224.831	0.12
225.049	-0.12
225.267	-0.04
225.485	0.07
225.703	0.08
225.921	-0.14
226.139	-0.12
226.357	-0.01
226.575	-0.06
226.793	-0.21
227.011	0.45
227.229	-0.06
227.447	0.09
227.665	-0.2
227.883	-0.19
228.1	-0.1
228.318	-0.09
228.536	-0.3
228.754	-0.15
228.972	-0.06
229.189	0.09
229.407	-0.13
229.625	-0.09
229.843	0.13
230.06	-0.04
230.278	-0.17
230.496	-0.1
230.713	-0.03
230.931	0.09
231.149	-0.03
231.366	-0.16
231.584	-0.01
231.801	0.21
232.019	-0.15
232.236	-0.11
232.454	-0.06
232.671	0.09
232.889	-0.02
233.106	-0.1
233.324	-0.06
233.541	-0.04
233.759	-0.18
233.976	-0.17
234.194	-0.07
234.411	-0.06
234.628	-0.19
234.846	-0.07
235.063	-0.13
235.28	-0.11
235.498	0
235.715	-0.16
235.932	0.11
236.149	-0.1
236.367	-0.15
236.584	-0.05
236.801	-0.11
237.018	0.04
237.236	-0.02
237.453	-0.22
237.67	0.04
237.887	-0.01
238.104	0.04
238.321	-0.14
238.538	-0.02
238.755	0.16
238.973	-0.22
239.19	-0.01
239.407	-0.07
239.624	-0.08
239.841	-0.18
240.058	-0.15
240.275	-0.02
240.492	-0.06
240.709	0.01
240.925	-0.09
241.142	-0.02
241.359	-0.11
241.576	-0.08
241.793	-0.08
242.01	-0.03
242.227	0.04
242.444	-0.05
242.66	0.09
242.877	0.02
243.094	-0.1
243.311	-0.05
243.527	-0.01
243.744	0.02
243.961	0.01
244.178	-0.06
244.394	-0.07
244.611	0.04
244.828	0.07
245.044	-0.09
245.261	-0.01
245.477	-0.06
245.694	0.07
245.911	-0.14
246.127	-0.04
246.344	0.03
246.56	0.02
246.777	-0.1
246.993	-0.06
247.21	0.04
247.426	-0.01
247.643	-0.06
247.859	-0.11
248.076	-0.13
248.292	0.13
248.508	-0.09
248.725	-0.06
248.941	0.09
249.157	0.1
249.374	-0.1
249.59	-0.06
249.806	-0.06
250.023	-0.11
250.239	-0.08
250.455	-0.13
250.671	-0.08
250.888	0.06
251.104	-0.01
251.32	-0.03
251.536	-0.02
251.752	-0.08
251.969	0.03
252.185	-0.04
252.401	0.14
252.617	-0.07
252.833	-0.06
253.049	-0.02
253.265	-0.03
253.481	0.02
253.697	-0.04
253.913	-0.05
254.129	0.03
254.345	-0.08
254.561	0.02
254.777	-0.04
254.993	-0.02
255.209	0.02
255.425	-0.08
255.641	-0.12
255.857	0.07
256.073	-0.02
256.288	-0.12
256.504	-0.09
256.72	-0.02
256.936	0.07
257.152	-0.07
257.367	-0.05
257.583	-0.07
257.799	0.1
258.015	-0.09
258.23	-0.12
258.446	0.11
258.662	-0.05
258.877	-0.15
259.093	-0.09
259.309	-0.04
259.524	-0.04
259.74	-0.09
259.955	-0.14
260.171	-0.02
260.387	-0.07
260.602	0.04
260.818	-0
261.033	-0.11
261.249	-0.06
261.464	-0.1
261.68	-0.08
261.895	0.01
262.11	0.05
262.326	-0.02
262.541	-0.18
262.757	0.04
262.972	-0.02
263.187	0
263.403	-0.02
263.618	0.06
263.833	-0.06
264.049	-0.02
264.264	-0.02
264.479	0.05
264.694	0.09
264.91	-0.18
265.125	0.01
265.34	0.03
265.555	0.11
265.77	-0
265.986	-0.09
266.201	0.04
266.416	0.08
266.631	0
266.846	-0.01
267.061	-0.02
267.276	0.02
267.491	-0.12
267.706	-0.05
267.921	0.04
268.136	-0.06
268.351	0.01
268.566	-0.12
268.781	0.05
268.996	-0.03
269.211	-0.04
269.426	-0.08
269.641	-0.09
269.856	0.09
270.071	-0.05
270.285	-0.04
270.5	0.03
270.715	0.08
270.93	0.01
271.145	0.01
271.359	0.08
271.574	-0.03
271.789	-0.01
272.004	-0.13
272.218	-0.09
272.433	0.04
272.648	-0.07
272.862	0.01
273.077	-0.09
273.292	-0.06
273.506	-0.09
273.721	-0.07
273.936	-0.02
274.15	0.02
274.365	-0
274.579	-0
274.794	0.05
275.008	0.04
275.223	-0.11
275.437	-0.02
275.652	0.06
275.866	0
276.081	-0.02
276.295	0.01
276.509	-0.04
276.724	0.03
276.938	-0.08
277.153	0.03
277.367	0.07
277.581	-0.05
277.796	-0.03
278.01	-0.07
278.224	0.07
278.438	0.07
278.653	-0.05
278.867	-0.06
279.081	0.06
279.295	-0.05
279.51	0
279.724	-0.06
279.938	0.03
280.152	0.05
280.366	-0.1
280.58	-0.01
280.794	0.05
281.008	0
281.222	0.05
281.437	0.04
281.651	0
281.865	0.06
282.079	-0.04
282.293	-0.16
282.507	-0.04
282.721	0.03
282.935	-0.01
283.148	-0.05
283.362	-0.07
283.576	-0.06
283.79	-0.01
284.004	-0.06
284.218	0.09
284.432	-0.04
284.646	-0.05
284.859	-0.01
285.073	-0.03
285.287	0.04
285.501	-0.05
285.714	0.01
285.928	-0.01
286.142	-0
286.356	-0.03
286.569	-0.03
286.783	0.06
286.997	0.02
287.21	-0.01
287.424	0.01
287.637	-0.02
287.851	-0.04
288.065	0.03
288.278	-0.04
288.492	-0.01
288.705	-0.03
288.919	-0.01
289.132	-0.07
289.346	0.08
289.559	-0.07
289.773	-0.08
289.986	0
290.2	-0.04
290.413	0.05
290.626	-0.08
290.84	-0.04
291.053	-0.05
291.267	0.02
291.48	0.01
291.693	-0.02
291.906	-0.09
292.12	-0.05
292.333	-0.02
292.546	-0.04
292.76	0.01
292.973	0.02
293.186	0.01
293.399	-0.03
293.612	0.07
293.826	0.02
294.039	-0.06
294.252	-0.01
294.465	0.02
294.678	-0
294.891	0.02
295.104	-0.08
295.317	-0.03
295.53	-0.03
295.743	-0.06
295.956	-0.01
296.169	0.06
296.382	0.02
296.595	-0.06
296.808	-0.05
297.021	0.04
297.234	0.02
297.447	-0.01
297.66	-0.02
297.873	0.09
298.086	0.06
298.299	-0.03
298.511	-0.05
298.724	-0.03
298.937	-0.09
299.15	-0.03
299.363	0.04
299.575	0.01
299.788	0
300.001	-0.04
300.213	-0.04
300.426	-0.04
300.639	0.01
300.852	-0.02
301.064	0.05
301.277	0.05
301.489	0.04
301.702	0.02
301.915	-0.05
302.127	-0.02
302.34	0.03
302.552	0
302.765	-0.03
302.977	0.03
303.19	-0.03
303.402	0.02
303.615	0.01
303.827	-0.02
304.04	-0.02
304.252	0.01
304.464	-0.04
304.677	0.1
304.889	0.03
305.102	-0.01
305.314	-0.02
305.526	0.02
305.739	0.03
305.951	-0.04
306.163	-0.03
306.375	0.05
306.588	-0.03
306.8	-0.05
307.012	-0.05
307.224	0
307.436	0.09
307.649	-0.09
307.861	0.03
308.073	0.02
308.285	-0.06
308.497	-0.04
308.709	-0.03
308.921	0.04
309.133	0.05
309.346	-0.03
309.558	0
309.77	0.04
309.982	0.01
310.194	0.01
310.406	-0.06
310.617	0.06
310.829	0.01
311.041	0.03
311.253	-0.01
311.465	-0.01
311.677	-0.03
311.889	-0.01
312.101	-0.05
312.313	0.03
312.524	0.03
312.736	-0.08
312.948	-0.02
313.16	0.06
313.372	0.01
313.583	-0.01
313.795	-0.03
314.007	-0.05
314.218	0.03
314.43	-0
314.642	-0.03
314.853	-0.07
315.065	-0.01
315.277	0.01
315.488	-0
315.7	0
315.912	-0
316.123	-0.03
316.335	-0.01
316.546	0.09
316.758	0.03
316.969	-0.03
317.181	0.01
317.392	-0.02
317.604	0.04
317.815	-0.04
318.026	-0.03
318.238	-0.04
318.449	-0.03
318.661	-0.05
318.872	-0.05
319.083	-0.05
319.295	0.03
319.506	-0.07
319.717	-0.01
319.929	0.03
320.14	-0.04
320.351	-0
320.562	-0.05
320.774	-0.03
320.985	0
321.196	-0.06
321.407	-0.1
321.618	0.01
321.829	0.05
322.041	-0.01
322.252	0.03
322.463	0.06
322.674	-0.03
322.885	-0.04
323.096	-0.04
323.307	-0.04
323.518	-0.05
323.729	-0.06
323.94	-0.04
324.151	-0.01
324.362	-0.01
324.573	0.01
324.784	-0.06
324.995	0.01
325.206	0.02
325.417	-0.05
325.628	-0.03
325.838	-0.02
326.049	0.01
326.26	-0.01
326.471	-0.02
326.682	0.01
326.892	-0.01
327.103	-0.07
327.314	-0.08
327.525	0.08
327.735	-0.03
327.946	-0.01
328.157	-0.06
328.368	-0.01
328.578	-0.04
328.789	0
328.999	-0.01
329.21	-0.04
329.421	-0.02
329.631	-0.06
329.842	-0.05
330.052	-0.02
330.263	0.01
330.473	0.02
330.684	-0.03
330.894	-0.08
331.105	-0.03
331.315	-0
331.526	-0.05
331.736	0.03
331.947	0.02
332.157	0.01
332.367	-0.04
332.578	0.01
332.788	0.03
332.999	0.03
333.209	-0.01
333.419	-0.02
333.629	0.03
333.84	0.07
334.05	0.01
334.26	0.07
334.47	-0.02
334.681	0.06
334.891	-0.04
335.101	0.03
335.311	0.11
335.521	-0
335.732	-0.07
335.942	0.08
336.152	0.02
336.362	0.02
336.572	0
336.782	-0.01
336.992	-0.06
337.202	-0.03
337.412	-0.06
337.622	0.01
337.832	-0.01
338.042	-0
338.252	-0.03
338.462	-0.01
338.672	0
338.882	-0.03
339.092	-0.03
339.302	0.06
339.511	-0.02
339.721	-0.04
339.931	-0.02
340.141	0.03
340.351	0.05
340.561	0.01
340.77	-0
340.98	-0.03
341.19	0.01
341.4	-0.05
341.609	-0.08
341.819	-0
342.029	-0.04
342.238	-0
342.448	-0.06
342.658	-0
342.867	0.02
343.077	0.02
343.286	0
343.496	-0.03
343.706	0.04
343.915	-0.08
344.125	-0.02
344.334	0.01
344.544	-0.06
344.753	-0.03
344.963	-0.05
345.172	-0.03
345.381	-0.04
345.591	-0.06
345.8	-0.04
346.01	0.05
346.219	0.04
346.428	-0.16
346.638	-0.01
346.847	0
347.056	0.05
347.266	-0.01
347.475	-0.03
347.684	-0.01
347.893	-0.03
348.103	0.05
348.312	-0.04
348.521	-0.05
348.73	0.04
348.94	0.04
349.149	-0.04
349.358	-0.02
349.567	-0.07
349.776	-0.1
349.985	-0.02
350.194	0.02
350.403	0.01
350.612	-0.04
350.821	-0.02
351.03	0.01
351.239	-0.07
351.448	0
351.657	-0.02
351.866	0.05
352.075	-0.05
352.284	0.08
352.493	-0.06
352.702	0.05
352.911	0.02
353.12	-0.02
353.329	-0.05
353.538	-0.02
353.746	-0.03
353.955	-0.03
354.164	0.04
354.373	-0.02
354.582	0.01
354.79	0.01
354.999	0.05
355.208	-0.02
355.416	0.01
355.625	-0.05
355.834	-0.06
356.042	0
356.251	0.01
356.46	-0.05
356.668	0.01
356.877	0.11
357.085	0.03
357.294	-0.09
357.503	0.03
357.711	-0.01
357.92	0.06
358.128	-0.01
358.337	-0.01
358.545	0.01
358.754	-0.02
358.962	0.01
359.17	0.02
359.379	0.03
359.587	-0
359.796	-0.01
360.004	0.03
360.212	0.02
360.421	0
360.629	0.01
360.837	-0.03
361.046	0.02
361.254	0.08
361.462	-0.02
361.67	-0.01
361.879	-0.01
362.087	0.01
362.295	-0.03
362.503	-0.05
362.711	-0.02
362.92	-0.02
363.128	-0.03
363.336	-0.02
363.544	-0.07
363.752	-0.02
363.96	-0.04
364.168	-0.01
364.376	-0.02
364.584	-0.03
364.792	0.04
365	0
365.208	-0.01
365.416	0.01
365.624	0.06
365.832	-0.02
366.04	0.04
366.248	0.02
366.456	0.01
366.664	0.02
366.872	0.03
367.079	-0.02
367.287	-0.01
367.495	0.04
367.703	0.01
367.911	0
368.118	-0.02
368.326	-0.04
368.534	-0.05
368.742	0.07
368.949	-0.08
369.157	-0.02
369.365	0.06
369.572	-0.05
369.78	-0.01
369.988	0.03
370.195	0.02
370.403	-0.02
370.61	-0.02
370.818	0.01
371.026	0.07
371.233	-0.02
371.441	-0
371.648	-0.03
371.856	0.01
372.063	-0.01
372.271	-0.03
372.478	-0.05
372.685	-0.04
372.893	0.03
373.1	0
373.308	0
373.515	0.03
373.722	0.01
373.93	0.01
374.137	0.01
374.344	0.06
374.552	0.04
374.759	0.07
374.966	-0.01
375.173	-0
375.381	0.03
375.588	-0
375.795	-0.04
376.002	-0.03
376.209	-0.06
376.417	-0.02
376.624	-0.02
376.831	-0.02
377.038	0
377.245	-0.07
377.452	-0.03
377.659	-0.01
377.866	-0.02
378.073	-0.02
378.28	-0.05
378.487	0.04
378.694	0.04
378.901	-0.04
379.108	-0.01
379.315	0.03
379.522	0.05
379.729	0.04
379.936	-0.03
380.143	0.01
380.35	-0.03
380.557	-0.02
380.763	0.03
380.97	0.02
381.177	-0.01
381.384	-0.02
381.591	-0.02
381.797	0.01
382.004	0.03
382.211	0.03
382.418	-0.07
382.624	0.06
382.831	0.02
383.038	-0.01
383.244	-0.04
383.451	-0.04
383.658	0.04
383.864	-0.03
384.071	-0.02
384.277	0.08
384.484	-0.06
384.69	-0.01
384.897	-0.02
385.103	-0.02
385.31	-0.01
385.516	-0.06
385.723	-0.07
385.929	0
386.136	-0.02
386.342	-0.05
386.549	-0.03
386.755	0.06
386.961	0.04
387.168	-0.02
387.374	0.01
387.58	0.05
387.787	0.01
387.993	-0.01
388.199	-0.01
388.406	0.01
388.612	-0.01
388.818	-0.03
389.024	-0.06
389.231	-0.01
389.437	0.04
389.643	-0
389.849	-0.01
390.055	-0
390.261	-0.02
390.467	0.01
390.674	-0.05
390.88	-0.04
391.086	-0.02
391.292	-0.02
391.498	-0
391.704	-0.03
391.91	-0.02
392.116	-0.05
392.322	-0.06
392.528	0.02
392.734	-0.06
392.94	-0.01
393.146	-0.02
393.352	-0.01
393.557	-0.04
393.763	-0.05
393.969	-0.01
394.175	-0.01
394.381	0
394.587	-0.09
394.792	-0.04
394.998	0.02
395.204	0.03
395.41	-0.07
395.615	0.04
395.821	-0.01
396.027	0.01
396.233	-0.07
396.438	0
396.644	-0.01
396.85	0
397.055	-0.01
397.261	-0.02
397.466	-0.04
397.672	-0.03
397.878	0.02
398.083	0.02
398.289	-0.04
398.494	0.02
398.7	-0
398.905	-0.06
399.111	0.02
399.316	-0.1
399.522	-0.03
399.727	-0.01
399.932	-0.01
400.138	0.02
400.343	0.05
400.549	-0.01
400.754	-0.01
400.959	-0
401.165	-0.06
401.37	-0
401.575	-0.1
401.78	-0.02
401.986	-0.03
402.191	-0.01
402.396	-0
402.601	0.01
402.807	-0.04
403.012	0.03
403.217	-0.01
403.422	-0.01
403.627	-0.01
403.832	-0.03
404.037	0.06
404.243	0.03
404.448	-0.01
404.653	-0.03
404.858	-0.02
405.063	0.04
405.268	-0.03
405.473	-0.07
405.678	-0.06
405.883	0.1
406.088	0.02
406.293	-0.07
406.498	-0.05
406.703	0.02
406.907	0
407.112	-0.05
407.317	0.02
407.522	0.02
407.727	-0.04
407.932	0.02
408.136	0.02
408.341	-0
408.546	-0.05
408.751	0.02
408.956	-0.01
409.16	0.06
409.365	-0.04
409.57	0.01
409.774	-0.01
409.979	0
410.184	0.03
410.388	-0.08
410.593	0.02
410.798	0.01
411.002	-0.04
411.207	0.06
411.411	-0.02
411.616	-0.04
411.82	-0.02
412.025	0
412.229	-0.04
412.434	0.04
412.638	0.01
412.843	-0.03
413.047	-0.01
413.252	-0.05
413.456	-0.05
413.66	0.01
413.865	-0.02
414.069	0.08
414.273	-0.06
414.478	-0.03
414.682	-0.02
414.886	-0.03
415.091	-0.05
415.295	-0.13
415.499	0.02
415.703	-0.04
415.908	0.02
416.112	-0.09
416.316	0.02
416.52	-0.03
416.724	-0.08
416.929	-0.04
417.133	0.11
417.337	-0.06
417.541	-0.02
417.745	-0.05
417.949	0
418.153	-0.02
418.357	-0.06
418.561	0.05
418.765	-0.01
418.969	0.08
419.173	0.01
419.377	-0.04
419.581	0.1
419.785	0.01
419.989	-0.12
420.193	-0.03
420.397	-0.02
420.601	0
420.804	0.03
421.008	-0.03
421.212	-0.03
421.416	0.07
421.62	-0.05
421.823	0
422.027	0.13
422.231	0.01
422.435	-0.06
422.638	0.01
422.842	0.06
423.046	-0.06
423.249	0.01
423.453	0.04
423.657	-0
423.86	-0.04
424.064	0.01
424.268	0
424.471	-0.07
424.675	0.06
424.878	0.02
425.082	-0.02
425.285	0.02
425.489	-0
425.692	0
425.896	-0.06
426.099	-0
426.303	-0.05
426.506	-0.1
426.71	0.01
426.913	0.01
427.116	0.05
427.32	-0.04
427.523	-0.07
427.726	0.12
427.93	-0.04
428.133	-0.02
428.336	-0.09
428.54	-0.04
428.743	-0.02
428.946	0.02
429.149	-0.07
429.353	-0.01
429.556	-0.01
429.759	-0.04
429.962	-0.05
430.165	-0.04
430.368	-0.01
430.571	-0.06
430.775	-0
430.978	-0.04
431.181	-0.02
431.384	0.02
431.587	-0.07
431.79	-0.04
431.993	-0.03
432.196	-0.01
432.399	-0.03
432.602	0.05
432.805	-0.07
433.008	-0.02
433.211	-0.06
433.414	0.04
433.616	-0.02
433.819	-0.04
434.022	-0.05
434.225	0.04
434.428	0.01
434.631	0.09
434.833	0
435.036	0.01
435.239	0.01
435.442	-0.01
435.645	-0.06
435.847	0
436.05	0.03
436.253	-0.03
436.455	-0.09
436.658	-0.07
436.861	0.08
437.063	-0.05
437.266	-0.04
437.468	-0.02
437.671	0.08
437.874	-0
438.076	-0.02
438.279	-0.11
438.481	-0.02
438.684	-0.04
438.886	0.03
439.089	-0.11
439.291	0
439.494	-0.01
439.696	-0.04
439.899	-0.02
440.101	0.01
440.303	-0.09
440.506	0.01
440.708	-0.02
440.91	0.01
441.113	-0.05
441.315	-0.02
441.517	-0.06
441.72	0.05
441.922	-0.01
442.124	-0.08
442.326	0
442.529	0.05
442.731	-0.07
442.933	0.11
443.135	-0.07
443.337	-0.07
443.539	-0.02
443.742	-0
443.944	0.01
444.146	-0.07
444.348	-0.04
444.55	-0.04
444.752	-0.05
444.954	-0.04
445.156	0.06
445.358	-0.06
445.56	0.01
445.762	-0.04
445.964	-0.04
446.166	-0.02
446.368	-0.04
446.57	0.02
446.772	-0.05
446.974	-0.01
447.175	-0.03
447.377	-0.07
447.579	-0.07
447.781	-0.09
447.983	0.06
448.184	0.01
448.386	-0.02
448.588	-0.1
448.79	-0.01
448.991	-0.04
449.193	-0.05
449.395	-0
449.597	-0.04
449.798	-0.05
450	-0
450.202	-0.04
450.403	-0.09
450.605	0.02
450.806	-0.06
451.008	-0.09
451.21	0.02
451.411	0.02
451.613	0
451.814	-0.03
452.016	0
452.217	0.02
452.419	0.04
452.62	-0.04
452.821	0.02
453.023	0.03
453.224	0.02
453.426	-0.07
453.627	-0.01
453.828	0.03
454.03	-0.08
454.231	0.01
454.432	-0.05
454.634	0.07
454.835	-0.05
455.036	-0.1
455.238	0.07
455.439	0.06
455.64	-0.06
455.841	-0.07
456.042	0.07
456.244	-0
456.445	-0.05
456.646	-0.07
456.847	-0.04
457.048	0.04
457.249	0.01
457.45	0.19
457.651	-0.08
457.852	0.05
458.054	-0.03
458.255	-0.04
458.456	-0.04
458.657	0.06
458.858	-0.05
459.058	0.04
459.259	0.04
459.46	-0.05
459.661	-0.03
459.862	0.07
460.063	-0.02
460.264	0.04
460.465	-0.05
460.666	0.12
460.866	-0.04
461.067	-0.01
461.268	-0
461.469	-0.04
461.67	-0.05
461.87	-0.06
462.071	-0.06
462.272	-0.01
462.473	-0.02
462.673	0.02
462.874	-0.03
463.075	0.04
463.275	-0.07
463.476	-0.07
463.676	-0.02
463.877	-0.03
464.078	-0.04
464.278	0.07
464.479	0.03
464.679	-0.02
464.88	-0.05
465.08	0.03
465.281	-0.03
465.481	-0.08
465.682	-0.05
465.882	-0.02
466.083	0.01
466.283	-0.01
466.483	-0.03
466.684	-0.07
466.884	-0.02
467.085	0
467.285	0.04
467.485	-0.02
467.686	-0.04
467.886	-0.04
468.086	-0.01
468.286	-0.01
468.487	-0.01
468.687	-0.06
468.887	-0.04
469.087	0
469.287	0.03
469.488	-0.08
469.688	-0.02
469.888	0
470.088	0.01
470.288	0.03
470.488	0.03
470.688	-0.03
470.888	-0
471.088	-0.02
471.288	-0.02
471.488	0.03
471.688	0.03
471.888	-0.04
472.088	0.05
472.288	0
472.488	-0.03
472.688	-0.04
472.888	-0.03
473.088	0.01
473.288	-0.02
473.488	0.04
473.688	0.06
473.887	-0.02
474.087	-0.05
474.287	0.02
474.487	-0.04
474.687	0.03
474.886	-0.02
475.086	-0.02
475.286	0.03
475.486	0.03
475.685	-0.02
475.885	-0.01
476.085	-0.01
476.284	0.04
476.484	-0.02
476.684	0.02
476.883	0.05
477.083	0.03
477.282	-0.04
477.482	0.04
477.681	0.07
477.881	-0
478.08	-0.03
478.28	-0.04
478.479	0.02
478.679	0.03
478.878	-0.01
479.078	-0.03
479.277	-0.01
479.477	-0.03
479.676	0.03
479.875	-0.01
480.075	-0.06
480.274	0.02
480.473	0.01
480.673	-0.02
480.872	0.01
481.071	-0.02
481.271	-0.02
481.47	-0.04
481.669	-0.01
481.868	-0.04
482.067	-0.05
482.267	-0.03
482.466	-0.05
482.665	-0.06
482.864	-0.02
483.063	-0.07
483.262	-0.01
483.461	0.05
483.661	0.02
483.86	-0.01
484.059	-0.03
484.258	-0
484.457	-0.02
484.656	-0.01
484.855	-0
485.054	-0.08
485.253	-0.02
485.452	-0.02
485.651	-0.02
485.849	-0.03
486.048	-0.01
486.247	-0.05
486.446	-0.01
486.645	-0.04
486.844	-0.04
487.043	-0.02
487.241	0.02
487.44	-0.03
487.639	-0.03
487.838	0.02
488.037	0
488.235	0.03
488.434	-0.02
488.633	-0.01
488.831	0.01
489.03	0.01
489.229	0.01
489.427	0
489.626	0.04
489.825	0.04
490.023	0.02
490.222	0
490.42	0
490.619	0.03
490.817	-0.03
491.016	-0.01
491.214	0.02
491.413	-0.02
491.611	-0.02
491.81	-0.02
492.008	0.03
492.207	-0
492.405	-0.01
492.604	-0.05
492.802	-0.01
493	-0.02
493.199	-0.03
493.397	-0
493.595	-0.01
493.794	-0.03
493.992	0.03
494.19	-0.02
494.388	-0.01
494.587	-0.04
494.785	-0.01
494.983	-0.04
495.181	-0.01
495.379	-0.01
495.578	-0.01
495.776	0
495.974	-0
496.172	-0.01
496.37	-0.02
496.568	-0.04
496.766	-0.03
496.964	0
497.162	-0.02
497.36	-0.03
497.558	0.01
497.756	0.04
497.954	-0.01
498.152	-0.02
498.35	-0.01
498.548	-0.03
498.746	0.01
498.944	-0.03
499.142	-0.02
499.34	-0.02
499.538	-0.02
499.736	-0.01
499.933	0.02
500.131	0.03
500.329	-0.02
500.527	0.02
500.725	0.02
500.922	0.02
501.12	-0.01
501.318	-0
501.516	-0.02
501.713	0.02
501.911	-0
502.109	-0.04
502.306	0.01
502.504	-0.02
502.701	-0.03
502.899	-0.01
503.097	0.06
503.294	-0.01
503.492	-0.01
503.689	-0.01
503.887	0
504.084	0.03
504.282	-0
504.479	-0.04
504.677	0.01
504.874	-0.02
505.072	0
505.269	-0.02
505.466	0.01
505.664	-0
505.861	-0.04
506.059	-0.05
506.256	-0
506.453	-0.02
506.651	0.01
506.848	0.02
507.045	-0.01
507.242	0
507.44	-0.04
507.637	0
507.834	-0.02
508.031	0
508.229	-0.02
508.426	-0.01
508.623	0.02
508.82	-0.03
509.017	-0.03
509.214	-0.02
509.411	-0.01
509.608	-0.02
509.805	-0.01
510.003	-0.02
510.2	-0.03
510.397	0.01
510.594	-0.01
510.791	-0.01
510.988	-0.01
511.184	0.02
511.381	0
511.578	-0.02
511.775	0.02
511.972	-0.03
512.169	-0.02
512.366	-0.01
512.563	0.02
512.76	-0.01
512.956	-0.01
513.153	-0.01
513.35	0.02
513.547	-0.01
513.744	-0.03
513.94	-0.04
514.137	0.01
514.334	-0.01
514.53	-0.01
514.727	0
514.924	0.03
515.12	-0.01
515.317	-0.03
515.514	-0.02
515.71	-0.04
515.907	-0.01
516.103	-0
516.3	-0.01
516.497	0
516.693	0.02
516.89	-0.02
517.086	-0.04
517.283	0.03
517.479	-0
517.676	-0.01
517.872	-0.01
518.068	-0.01
518.265	-0.02
518.461	-0.03
518.658	-0.03
518.854	-0.01
519.05	0.01
519.247	-0.02
519.443	0
519.639	-0.02
519.836	-0.01
520.032	0
520.228	-0.01
520.424	0.03
520.621	-0
520.817	-0.01
521.013	0.01
521.209	0.02
521.405	0.04
521.601	-0
521.798	-0
521.994	0.02
522.19	-0.01
522.386	-0.05
522.582	-0.01
522.778	-0.03
522.974	-0.02
523.17	-0.03
523.366	-0.03
523.562	0.02
523.758	-0.01
523.954	-0.03
524.15	-0.02
524.346	0.02
524.542	-0.01
524.738	-0.02
524.934	-0.01
525.129	-0.1
525.325	-0
525.521	-0
525.717	0.01
525.913	-0.03
526.109	0.02
526.304	0
526.5	0
526.696	0.01
526.892	0.01
527.087	-0.01
527.283	-0.02
527.479	-0
527.674	-0.02
527.87	-0.02
528.066	-0
528.261	0.01
528.457	-0
528.653	-0.02
528.848	-0.02
529.044	-0
529.239	-0.01
529.435	0.01
529.63	-0
529.826	0.04
530.021	-0.01
530.217	-0
530.412	-0.02
530.608	-0.03
530.803	0.01
530.999	-0.01
531.194	-0.04
531.389	0.03
531.585	-0.05
531.78	0
531.975	0.02
532.171	-0
532.366	-0.01
532.561	-0
532.757	-0.04
532.952	-0.01
533.147	-0
533.342	0
533.538	-0.01
533.733	0.02
533.928	0.02
534.123	-0.01
534.318	-0.05
534.513	-0.01
534.709	-0.01
534.904	-0.02
535.099	0
535.294	-0
535.489	0
535.684	-0.03
535.879	-0.02
536.074	0
536.269	-0.01
536.464	-0
536.659	-0.03
536.854	-0.01
537.049	-0
537.244	-0.02
537.439	-0.04
537.634	0.02
537.828	0.01
538.023	-0.03
538.218	-0.03
538.413	-0
538.608	-0.04
538.803	-0
538.997	-0.04
539.192	0.01
539.387	0
539.582	0.01
539.776	-0
539.971	-0.01
540.166	0
540.36	-0.02
540.555	-0.02
540.75	-0.02
540.944	-0.01
541.139	-0.04
541.334	-0.01
541.528	0.02
541.723	0.02
541.917	-0.03
542.112	-0.06
542.306	-0.01
542.501	-0.02
542.695	0.01
542.89	-0.04
543.084	-0.03
543.279	-0
543.473	-0.01
543.668	-0
543.862	-0.01
544.056	0.01
544.251	-0.01
544.445	-0
544.64	-0.01
544.834	-0.02
545.028	-0.01
545.222	-0
545.417	0.02
545.611	-0.01
545.805	-0.01
546	-0.02
546.194	0
546.388	-0.01
546.582	0.01
546.776	-0.01
546.97	0
547.165	-0.01
547.359	0.01
547.553	-0.03
547.747	-0.01
547.941	-0.02
548.135	-0.01
548.329	0.01
548.523	0.01
548.717	-0.02
548.911	-0.03
549.105	-0.02
549.299	-0.02
549.493	0.01
549.687	0.01
549.881	0.01
550.075	0.01
550.269	-0.03
550.463	0.03
550.657	-0.03
550.85	-0.01
551.044	-0.02
551.238	-0
551.432	-0.01
551.626	-0.02
551.82	-0
552.013	-0.02
552.207	-0.01
552.401	-0
552.594	-0.01
552.788	-0.02
552.982	-0.02
553.176	-0
553.369	-0.01
553.563	0
553.756	-0.05
553.95	-0.04
554.144	-0
554.337	0.02
554.531	0
554.724	0
554.918	-0.02
555.111	0.02
555.305	0.01
555.498	0.02
555.692	0
555.885	-0.01
556.079	0.01
556.272	-0.01
556.466	0.01
556.659	-0
556.852	-0.02
557.046	-0.03
557.239	0.01
557.432	-0.03
557.626	-0.03
557.819	0.01
558.012	0.02
558.206	0.01
558.399	-0.02
558.592	0.01
558.785	-0.05
558.979	-0.01
559.172	0.01
559.365	0.02
559.558	0
559.751	-0.01
559.944	-0
560.138	0
560.331	-0.03
560.524	-0.03
560.717	0
560.91	0.01
561.103	-0
561.296	0
561.489	0.01
561.682	-0.01
561.875	0.02
562.068	0.01
562.261	0
562.454	0.03
562.647	-0.02
562.84	0
563.032	-0.02
563.225	-0.02
563.418	-0.02
563.611	-0.03
563.804	0.01
563.997	-0.02
564.19	-0.04
564.382	-0.08
564.575	-0
564.768	-0.02
564.961	-0.03
565.153	-0.02
565.346	0.01
565.539	0.01
565.731	0.01
565.924	0.02
566.117	0.02
566.309	-0.01
566.502	-0.03
566.695	-0
566.887	-0.02
567.08	-0.04
567.272	-0.01
567.465	0
567.657	0.02
567.85	-0.01
568.042	0.01
568.235	0.03
568.427	-0.02
568.62	-0.02
568.812	0.02
569.005	-0
569.197	-0.04
569.389	0
569.582	0.01
569.774	0.01
569.966	-0.04
570.159	-0.06
570.351	-0.01
570.543	-0.04
570.736	0.01
570.928	-0.02
571.12	-0
571.312	-0.01
571.505	-0.01
571.697	0.02
571.889	-0.03
572.081	-0.02
572.273	-0.02
572.465	0
572.658	-0.03
572.85	0.03
573.042	-0.01
573.234	-0
573.426	0.01
573.618	-0.02
573.81	0.02
574.002	0.02
574.194	0.02
574.386	-0.03
574.578	-0.06
574.77	-0.03
574.962	-0
575.154	-0.04
575.346	-0.01
575.538	0.01
575.729	-0.02
575.921	-0.02
576.113	-0
576.305	0
576.497	-0.02
576.689	-0.03
576.88	-0.03
577.072	-0.01
577.264	-0
577.456	-0
577.647	-0.07
577.839	-0.01
578.031	0.02
578.223	-0.04
578.414	-0.05
578.606	0.02
578.798	-0.01
578.989	-0.02
579.181	-0
579.372	-0.01
579.564	0
579.755	0
579.947	-0.01
580.139	0.03
580.33	-0.06
580.522	-0.01
580.713	-0.07
580.905	-0.01
581.096	-0
581.287	-0.01
581.479	-0.01
581.67	-0.02
581.862	-0.02
582.053	-0.03
582.244	-0.05
582.436	-0.04
582.627	-0.01
582.818	-0.02
583.01	-0.05
583.201	0.02
583.392	0.03
583.583	0
583.775	-0.02
583.966	-0.04
584.157	-0.02
584.348	-0.01
584.54	-0.05
584.731	-0
584.922	-0.02
585.113	-0.03
585.304	-0.02
585.495	0
585.686	-0.01
585.877	-0
586.068	0.02
586.259	0.02
586.45	-0.02
586.641	-0.03
586.832	-0.04
587.023	-0.02
587.214	-0.03
587.405	-0.01
587.596	-0.02
587.787	0.02
587.978	-0.01
588.169	-0.03
588.36	-0.03
588.551	0.01
588.742	-0.04
588.932	-0.01
589.123	-0.01
589.314	-0.01
589.505	0.01
589.696	-0.02
589.886	-0.02
590.077	-0.03
590.268	-0.02
590.458	-0.01
590.649	-0.03
590.84	0.02
591.03	-0.02
591.221	-0.06
591.412	-0.04
591.602	-0
591.793	0.01
591.984	-0.05
592.174	-0.03
592.365	0.04
592.555	-0.02
592.746	-0
592.936	0.01
593.127	0.01
593.317	0.01
593.508	-0.04
593.698	0
593.889	-0
594.079	-0.01
594.269	-0.03
594.46	-0.01
594.65	-0.01
594.84	0.01
595.031	-0.05
595.221	-0.01
595.411	-0.05
595.602	-0.01
595.792	0
595.982	-0.03
596.172	0.06
596.363	-0.02
596.553	0.01
596.743	-0.01
596.933	0.01
597.123	0.03
597.314	0
597.504	-0.02
597.694	0.02
597.884	0
598.074	-0.01
598.264	-0.04
598.454	-0.01
598.644	-0.02
598.834	-0.01
599.024	-0.07
599.214	-0.04
599.404	0.03
599.594	-0.03
599.784	-0.04
599.974	0.04
600.164	0.01
600.354	-0.06
600.544	-0.04
600.734	0.02
600.924	0.01
601.114	-0.04
601.303	-0
601.493	0
601.683	0.01
601.873	-0.02
602.063	-0.06
602.252	0.03
602.442	-0.06
602.632	-0.02
602.821	-0.04
603.011	0.02
603.201	-0.03
603.39	-0.04
603.58	-0.03
603.77	0.01
603.959	0.03
604.149	-0.01
604.339	-0.04
604.528	0.03
604.718	0.02
604.907	0.01
605.097	-0.05
605.286	-0.08
605.476	0.01
605.665	0.01
605.855	-0
606.044	0.02
606.234	0
606.423	0.01
606.612	-0.05
606.802	-0.01
606.991	-0
607.181	0
607.37	-0.05
607.559	-0.05
607.749	-0.04
607.938	-0
608.127	-0.05
608.316	-0.05
608.506	0
608.695	-0.01
608.884	-0.05
609.073	0
609.263	-0.01
609.452	0.03
609.641	0.02
609.83	-0.04
610.019	0.02
610.208	-0.05
610.397	-0.01
610.586	0.03
610.775	-0.03
610.965	-0.01
611.154	-0.04
611.343	0.01
611.532	-0.03
611.721	-0.04
611.91	-0.04
612.099	0.03
612.287	0
612.476	-0.04
612.665	-0.01
612.854	-0.04
613.043	0.05
613.232	0.01
613.421	-0.06
613.61	-0.01
613.798	-0.04
613.987	0.01
614.176	-0
614.365	0.01
614.554	-0.02
614.742	0.04
614.931	-0.02
615.12	0.01
615.309	-0
615.497	0.04
615.686	-0.02
615.875	-0.03
616.063	0.01
616.252	-0.02
616.44	-0.02
616.629	-0.02
616.818	0
617.006	-0.02
617.195	-0.02
617.383	0.01
617.572	-0.04
617.76	-0.04
617.949	-0.02
618.137	0.01
618.326	0
618.514	-0.05
618.703	-0.02
618.891	0.04
619.079	-0.06
619.268	0.02
619.456	-0.01
619.644	0.01
619.833	-0.01
620.021	-0.05
620.209	-0.03
620.398	0
620.586	0.03
620.774	0.04
620.962	0
621.151	0.06
621.339	0.01
621.527	-0.04
621.715	-0.03
621.903	-0.02
622.092	-0.04
622.28	0.01
622.468	-0
622.656	-0.01
622.844	0.02
623.032	-0.02
623.22	-0.03
623.408	0.03
623.596	0.03
623.784	-0
623.972	-0.03
624.16	0.02
624.348	0.05
624.536	0.02
624.724	0.01
624.912	0.05
625.1	0.05
625.288	-0.03
625.476	-0.02
625.664	0.03
625.851	-0.01
626.039	-0.02
626.227	0.05
626.415	-0
626.603	-0.04
626.79	-0
626.978	0.01
627.166	0.03
627.354	0.02
627.541	0
627.729	-0.03
627.917	0.03
628.104	0.04
628.292	0
628.48	0.02
628.667	-0.01
628.855	-0
629.042	0.02
629.23	-0.01
629.418	-0
629.605	0.03
629.793	-0.01
629.98	0.02
630.168	0.02
630.355	0.02
630.543	0.01
630.73	-0.04
630.917	0.05
631.105	0.08
631.292	-0.02
631.48	0.01
631.667	0.06
631.854	0.02
632.042	0.01
632.229	-0.02
632.416	0.03
632.604	0.01
632.791	-0.02
632.978	0.05
633.165	0.01
633.353	0.09
633.54	0.04
633.727	-0.02
633.914	0.01
634.101	-0.04
634.289	0.07
634.476	0.01
634.663	-0
634.85	0.04
635.037	-0.01
635.224	-0
635.411	0.04
635.598	0.03
635.785	0.01
635.972	0.03
636.159	0.07
636.346	0.02
636.533	0.06
636.72	0.04
636.907	0.04
637.094	0.07
637.281	0.03
637.468	0.07
637.655	0.04
637.842	0.07
638.029	0.01
638.215	0.07
638.402	0.05
638.589	0.01
638.776	0.05
638.963	0.03
639.149	0.06
639.336	0.12
639.523	0.06
639.709	0.04
639.896	0.05
640.083	0.12
640.27	0.08
640.456	0.04
640.643	0.06
640.829	0.01
641.016	0.05
641.203	0.03
641.389	0.13
641.576	0.1
641.762	0.09
641.949	0.01
642.135	0.07
642.322	0.1
642.508	0.05
642.695	0.08
642.881	0.05
643.068	0.08
643.254	0.09
643.441	0.1
643.627	0.06
643.813	0.04
644	0.11
644.186	0.08
644.372	0.05
644.559	0.13
644.745	0.11
644.931	0.08
645.118	0.11
645.304	0.09
645.49	0.1
645.676	0.12
645.862	0.11
646.049	0.13
646.235	0.11
646.421	0.2
646.607	0.16
646.793	0.09
646.979	0.1
647.165	0.14
647.352	0.14
647.538	0.15
647.724	0.11
647.91	0.16
648.096	0.17
648.282	0.2
648.468	0.13
648.654	0.13
648.84	0.18
649.026	0.16
649.212	0.15
649.397	0.17
649.583	0.13
649.769	0.18
649.955	0.18
650.141	0.2
650.327	0.18
650.513	0.16
650.698	0.23
650.884	0.1
651.07	0.21
651.256	0.19
651.442	0.17
651.627	0.2
651.813	0.22
651.999	0.19
652.184	0.26
652.37	0.2
652.556	0.18
652.741	0.26
652.927	0.16
653.113	0.25
653.298	0.23
653.484	0.24
653.669	0.15
653.855	0.28
654.04	0.26
654.226	0.25
654.412	0.25
654.597	0.24
654.782	0.29
654.968	0.28
655.153	0.29
655.339	0.26
655.524	0.2
655.71	0.33
655.895	0.25
656.08	0.31
656.266	0.33
656.451	0.32
656.636	0.25
656.822	0.29
657.007	0.24
657.192	0.3
657.378	0.28
657.563	0.28
657.748	0.3
657.933	0.28
658.118	0.29
658.304	0.28
658.489	0.34
658.674	0.3
658.859	0.25
659.044	0.31
659.229	0.32
659.414	0.26
659.599	0.27
659.785	0.23
659.97	0.22
660.155	0.29
660.34	0.3
660.525	0.24
660.71	0.24
660.895	0.33
661.08	0.23
661.264	0.23
661.449	0.24
661.634	0.24
661.819	0.23
662.004	0.22
662.189	0.12
662.374	0.15
662.559	0.12
662.743	0.1
662.928	0.16
663.113	0.14
663.298	0.09
663.483	0.12
663.667	0.18
663.852	0.11
664.037	0.16
664.221	0.1
664.406	0.12
664.591	0.15
664.775	0.09
664.96	0.11
665.145	0.08
665.329	0.11
665.514	0.06
665.698	0.08
665.883	-0.01
666.068	0.16
666.252	0.06
666.437	-0.01
666.621	0.02
666.806	0.11
666.99	0.08
667.174	0.01
667.359	0.11
667.543	0.06
667.728	0.05
667.912	0
668.096	0.07
668.281	0.02
668.465	0.02
668.649	0.08
668.834	-0.03
669.018	0.03
669.202	0.02
669.387	-0.02
669.571	0.06
669.755	-0.02
669.939	0
670.124	0.03
670.308	0.08
670.492	0.01
670.676	0.03
670.86	0.02
671.044	-0.01
671.228	0.07
671.413	-0.06
671.597	0.04
671.781	-0.03
671.965	0.02
672.149	0.01
672.333	0.02
672.517	-0.02
672.701	0.04
672.885	-0.02
673.069	-0.06
673.253	0.05
673.437	0.03
673.621	-0.06
673.804	0.01
673.988	0.01
674.172	0.03
674.356	-0.01
674.54	-0.01
674.724	0.08
674.908	0.01
675.091	0.02
675.275	0
675.459	0.03
675.643	0.07
675.826	0.01
676.01	-0.04
676.194	0.01
676.377	0.03
676.561	0.03
676.745	-0.01
676.928	0.02
677.112	0.02
677.296	-0.03
677.479	-0.04
677.663	-0.06
677.846	0.02
678.03	-0
678.213	-0.02
678.397	0.03
678.58	-0.03
678.764	0
678.947	-0.04
679.131	-0.04
679.314	0.03
679.498	-0.05
679.681	0.03
679.865	0.02
680.048	0.01
680.231	-0.03
680.415	-0.02
680.598	0
680.781	-0.02
680.965	-0.06
681.148	-0
681.331	-0.06
681.514	0.03
681.698	-0.03
681.881	-0.03
682.064	-0.01
682.247	-0
682.43	-0.09
682.614	0.02
682.797	0.04
682.98	0.01
683.163	-0.07
683.346	0.02
683.529	-0.07
683.712	-0.07
683.895	-0.02
684.078	-0.06
684.261	-0.02
684.444	0.04
684.627	-0.04
684.81	-0.01
684.993	-0.01
685.176	0.01
685.359	-0.06
685.542	-0.04
685.725	0.03
685.908	-0.03
686.091	-0.02
686.274	0.03
686.457	0.01
686.639	-0.08
686.822	0.02
687.005	-0.02
687.188	0
687.371	0.03
687.553	0.02
687.736	-0.01
687.919	0.02
688.102	0.02
688.284	-0.05
688.467	-0.01
688.65	-0.02
688.832	-0.06
689.015	-0.04
689.197	-0.03
689.38	0.11
689.563	0.08
689.745	-0.07
689.928	-0.04
690.11	-0.03
690.293	0.01
690.475	-0.05
690.658	-0.02
690.84	0.01
691.023	-0.01
691.205	-0.07
691.388	0.05
691.57	0.01
691.752	0.04
691.935	-0.1
692.117	-0.03
692.3	0
692.482	0.01
692.664	-0.05
692.847	-0.04
693.029	0.01
693.211	-0.02
693.393	0
693.576	-0.03
693.758	-0.05
693.94	-0.02
694.122	-0.09
694.304	0
694.487	-0.01
694.669	0.01
694.851	-0.06
695.033	-0.03
695.215	-0.05
695.397	-0.06
695.579	-0.02
695.761	-0.07
695.943	-0.12
696.125	0.01
696.308	-0.01
696.49	-0.11
696.671	0.07
696.853	-0.04
697.035	0.09
697.217	-0.03
697.399	-0.01
697.581	-0.01
697.763	-0
697.945	-0.07
698.127	-0.03
698.309	0.07
698.491	-0.02
698.672	0.04
698.854	-0.01
699.036	0.1
699.218	-0.04
699.399	0.1
699.581	0.06
699.763	0.02
699.945	-0.05
700.126	-0.02
700.308	-0
700.49	-0.03
700.671	-0.11
700.853	-0.04
701.035	-0.06
701.216	-0.04
701.398	-0.03
701.579	-0.04
701.761	-0.03
701.943	-0.09
702.124	-0.09
702.306	-0.05
702.487	0.08
702.669	-0.05
702.85	-0.05
703.031	-0.06
703.213	0.06
703.394	0.04
703.576	-0.01
703.757	0.03
703.938	0.06
704.12	0.07
704.301	-0.01
704.483	0.04
704.664	0
704.845	0.1
705.026	0.01
705.208	-0.01
705.389	-0.07
705.57	-0.01
705.751	-0.01
705.933	0.03
706.114	0.06
706.295	-0.01
706.476	-0.09
706.657	0.03
706.838	-0
707.02	-0.02
707.201	-0.09
707.382	-0.05
707.563	0.02
707.744	-0.02
707.925	-0.08
708.106	-0
708.287	0.01
708.468	0.01
708.649	0.03
708.83	0.06
709.011	-0.02
709.192	0.06
709.373	-0.1
709.554	-0.02
709.734	0.08
709.915	0.02
710.096	-0.05
710.277	-0.16
710.458	-0.03
710.639	-0.06
710.819	-0.09
711	-0.03
711.181	0.05
711.362	0.04
711.542	-0.01
711.723	-0.02
711.904	-0
712.085	-0
712.265	-0.08
712.446	-0.12
712.627	-0.02
712.807	0.03
712.988	0.02
713.168	-0.12
713.349	-0.04
713.53	-0.17
713.71	-0.01
713.891	-0.06
714.071	0
714.252	-0.1
714.432	-0.01
714.613	-0.12
714.793	-0.04
714.974	0.07
715.154	0.01
715.334	0.04
715.515	0.08
715.695	-0.08
715.876	-0.02
716.056	-0.06
716.236	-0.04
716.417	0.04
716.597	-0.02
716.777	0.08
716.957	-0.02
717.138	-0.04
717.318	-0.01
717.498	-0.08
717.678	0.01
717.859	0.01
718.039	-0.08
718.219	0.02
718.399	0.11
718.579	-0.09
718.759	-0.02
718.939	-0.01
719.12	-0.07
719.3	-0.04
719.48	-0.16
719.66	-0.15
719.84	0.09
720.02	0.04
720.2	-0.07
720.38	-0.05
720.56	0.06
720.74	-0.09
720.92	-0
721.1	-0.03
721.279	0.02
721.459	-0.04
721.639	-0.13
721.819	0
721.999	-0.07
722.179	-0.02
722.359	-0.08
722.538	0.05
722.718	-0.07
722.898	-0.05
723.078	-0.04
723.257	0.05
723.437	-0.03
723.617	-0.01
723.797	-0.06
723.976	-0.02
724.156	0.01
724.336	0.02
724.515	0.15
724.695	-0.13
724.874	-0.11
725.054	-0.05
725.234	-0.01
725.413	0.01
725.593	-0.01
725.772	-0.09
725.952	-0.06
726.131	-0.03
726.311	0.07
726.49	-0.02
726.67	-0.11
726.849	-0.1
727.028	0.08
727.208	-0.05
727.387	-0.02
727.567	-0.16
727.746	-0.02
727.925	-0.02
728.105	-0.11
728.284	-0.09
728.463	-0.15
728.643	0.02
728.822	-0.21
729.001	-0.02
729.18	-0.02
729.359	0.05
729.539	-0.06
729.718	0.03
729.897	-0.02
730.076	-0.07
730.255	-0.07
730.434	0.08
730.614	0
730.793	-0
730.972	-0.03
731.151	-0.03
731.33	0.05
731.509	0.06
731.688	0.06
731.867	-0.03
732.046	-0.11
732.225	0.21
732.404	-0.14
732.583	-0.18
732.762	-0
732.941	0.04
733.12	-0.05
733.298	-0.03
733.477	0.15
733.656	-0
733.835	-0.12
734.014	0.05
734.193	-0.08
734.371	-0.01
734.55	0.01
734.729	-0.08
734.908	0.05
735.086	0.01
735.265	0.09
735.444	-0.2
735.623	-0.16
735.801	-0.11
735.98	0.01
736.159	-0.08
736.337	0.03
736.516	0.11
736.694	0.01
736.873	-0.14
737.052	0.08
737.23	0.02
737.409	-0.09
737.587	0.04
737.766	-0.26
737.944	-0.11
738.123	-0.02
738.301	-0.06
738.479	-0.06
738.658	0.02
738.836	-0.2
739.015	-0.04
739.193	0.08
739.371	-0.13
739.55	-0.09
739.728	-0.12
739.906	0.06
740.085	0.05
740.263	-0.16
740.441	-0.23
740.62	0.17
740.798	0.06
740.976	-0.16
741.154	-0.11
741.332	0.05
741.511	0.09
741.689	0.04
741.867	0.08
742.045	-0.08
742.223	0.02
742.401	-0.14
742.579	-0.05
742.757	0.1
742.935	-0.11
743.114	0.05
743.292	-0.01
743.47	-0.04
743.648	-0.02
743.826	-0.14
744.004	0.05
744.181	-0.08
744.359	-0.06
744.537	0.01
744.715	0.01
744.893	-0.08
745.071	-0
745.249	-0.19
745.427	0.03
745.605	0.06
745.782	-0.05
745.96	-0.03
746.138	-0.1
746.316	0.13
746.493	-0.07
746.671	0.04
746.849	-0.02
747.027	0.05
747.204	-0.02
747.382	0.07
747.56	-0.06
747.737	0.06
747.915	-0.12
748.093	0.02
748.27	-0.04
748.448	-0.03
748.625	-0.17
748.803	-0.06
748.98	-0.09
749.158	-0.05
749.335	0.07
749.513	-0.1
749.69	-0.01
749.868	-0.03
750.045	-0.07
750.223	0.03
750.4	-0.22
750.578	0.21
750.755	-0.01
750.932	-0.2
751.11	0.15
751.287	-0.23
751.464	0.06
751.642	-0.1
751.819	0.11
751.996	0.03
752.173	0
752.351	-0.06
752.528	0.1
752.705	-0.02
752.882	-0.12
753.06	-0.11
753.237	0.01
753.414	0.15
753.591	0.09
753.768	-0.05
753.945	-0.15
754.122	-0.06
754.299	-0.02
754.476	-0.12
754.654	0.06
754.831	0.12
755.008	0.05
755.185	-0.15
755.362	-0.1
755.539	0.04
755.716	-0.14
755.892	-0.11
756.069	-0.06
756.246	-0.05
756.423	-0.01
756.6	0.12
756.777	-0.04
756.954	0.04
757.131	-0.06
757.307	-0.11
757.484	-0.13
757.661	0.07
757.838	-0.01
758.015	-0.04
758.191	-0.01
758.368	0
758.545	0.1
758.721	0
758.898	-0.12
759.075	0.03
759.251	-0.06
759.428	0.12
759.605	-0.05
759.781	-0.06
759.958	0.05
760.134	0.04
760.311	-0.02
760.488	0.22
760.664	0.08
760.841	-0.02
761.017	-0.12
761.194	-0.05
761.37	-0.12
761.547	-0.05
761.723	0.05
761.899	0.11
762.076	-0.09
762.252	-0.1
762.429	-0.18
762.605	0.1
762.781	-0.07
762.958	-0.06
763.134	-0.03
763.31	-0.01
763.486	0.06
763.663	-0.18
763.839	0.04
764.015	-0.12
764.191	-0.15
764.368	-0.06
764.544	-0.12
764.72	0.01
764.896	0
765.072	-0.04
765.248	-0.09
765.425	-0.03
765.601	0.02
765.777	-0.13
765.953	-0.26
766.129	0.02
766.305	-0.09
766.481	0.1
766.657	0.07
766.833	0.09
767.009	-0.13
767.185	-0.07
767.361	0.07
767.537	-0.12
767.713	0.11
767.889	0.03
768.065	0.01
768.24	-0.02
768.416	0.12
768.592	-0.07
768.768	-0.03
768.944	0.03
769.12	-0.13
769.295	-0.08
769.471	-0.09
769.647	-0.05
769.823	0.06
769.998	-0.2
770.174	-0.16
770.35	0.3
770.525	0.18
770.701	0.02
770.877	0.03
771.052	-0.02
771.228	-0.04
771.403	0.05
771.579	0.15
771.755	0.38
771.93	-0.13
772.106	-0.13
772.281	-0.27
772.457	-0.05
772.632	0.02
772.808	-0.13
772.983	-0.07
773.159	-0.18
773.334	0.16
773.509	-0.16
773.685	-0.15
773.86	0.3
774.036	0.16
774.211	-0.07
774.386	-0.03
774.562	0.01
774.737	-0.21
774.912	-0.14
775.087	0.05
775.263	0.04
775.438	-0.06
775.613	-0.22
775.788	-0.03
775.964	0.01
776.139	0.29
776.314	-0.21
776.489	-0.05
776.664	0.03
776.839	-0.21
777.014	0.12
777.19	0.08
777.365	0.13
777.54	0.15
777.715	-0.13
777.89	-0.2
778.065	-0.01
778.24	0.04
778.415	0.21
778.59	-0.35
778.765	-0.03
778.94	0.06
779.115	-0.02
779.289	-0.14
779.464	-0.05
779.639	-0.04
779.814	-0.21
779.989	-0.2
780.164	0.09
780.339	0.07
780.513	-0.19
780.688	-0.15
780.863	0.08
781.038	-0.07
781.212	-0.06
781.387	0.09
781.562	0.33
781.737	-0.15
781.911	0.24
782.086	-0.07
782.261	-0.04
782.435	0.28
782.61	-0.1
782.784	-0.08
782.959	0.14
783.134	-0.17
783.308	-0.22
783.483	-0.19
783.657	0.15
783.832	-0.07
784.006	-0.3
784.181	-0.14
784.355	0.05
784.53	-0.36
784.704	-0.27
784.878	0.01
785.053	0.07
785.227	0.18
785.402	0.07
785.576	-0.33
785.75	0.01
785.925	-0.11
786.099	-0.09
786.273	0.08
786.448	0.16
786.622	0.17
786.796	0.05
786.97	-0.16
787.145	0.22
787.319	-0.46
787.493	-0.14
787.667	-0.27
787.841	-0.02
788.015	0.35
788.19	-0.04
788.364	-0.11
788.538	-0.04
788.712	0
788.886	-0.22
789.06	0.09
789.234	0.14
789.408	-0.26
789.582	-0.01
789.756	-0.1
789.93	-0.34
790.104	-0.06
790.278	-0.19
790.452	-0.32
790.626	0.08
790.8	-0.11
790.973	0.22
791.147	0.17
791.321	0.18
791.495	0.33
791.669	-0.02
791.843	0.07
792.016	0.02
792.19	0.17
792.364	-0.18
792.538	0.33
792.711	0.15
792.885	-0.12
793.059	-0.33
793.233	-0.51
793.406	0.05
793.58	-0.16
793.754	0.21
793.927	-0.13
794.101	-0.01
794.274	0.05
794.448	0.01
794.622	-0.39
794.795	0.37
794.969	-0.12
795.142	0.14
795.316	-0.23
795.489	-0.3
795.663	0.25
795.836	-0.35
796.009	-0.3
796.183	0.41
796.356	0.08
796.53	-0.02
796.703	-0.05
796.876	0.56
797.05	0.1
797.223	-0.04
797.396	-0.21
797.57	0.13
797.743	0.24
797.916	0.04
798.09	-0
798.263	0.38
798.436	-0.09
798.609	-0.15
798.782	-0.1
798.956	-0.06
799.129	-0.02
799.302	0.02
799.475	-0.37
799.648	-0.19
799.821	-0.22
799.994	-0.09
800.167	-0.5
800.34	-0.19
800.514	0.03
800.687	-0.08
800.86	-0.13
801.033	0.1
801.206	-0.04
801.379	-0.19
801.551	-0.02
801.724	0.13
801.897	0.14
802.07	-0.23
802.243	-0.37
802.416	-0.2
802.589	-0.19
802.762	-0.11
802.935	0.04
803.107	0.26
803.28	0.3
803.453	0.26
803.626	-0.43
803.798	-0.03
803.971	-0.37
804.144	0.33
804.317	0.05
804.489	0.41
804.662	-0.13
804.835	-0.07
805.007	-0.18
805.18	0.2
805.353	0.05
805.525	-0.13
805.698	-0.27
805.87	0.11
806.043	0.18
806.215	-0.19
806.388	-0.09
806.56	-0.04
806.733	0.21
806.905	0.11
807.078	-0.1
807.25	-0.08
807.423	0.08
807.595	-0.01
807.768	0.06
807.94	0.42
808.112	0.03
808.285	0.23
808.457	0.17
808.629	0.03
808.802	0.09
808.974	-0.33
809.146	-0.02
809.318	-0.46
809.491	-0.2
809.663	-0.17
809.835	-0.02
810.007	0.01
810.18	-0.06
810.352	-0.38
810.524	0.07
810.696	-0.13
810.868	-0.04
811.04	-0.02
811.212	-0.06
811.384	0.29
811.556	-0.12
811.728	0.06
811.901	0.55
812.073	-0.27
812.245	0.48
812.417	0.23
812.589	-0.24
812.76	-0.34
812.932	0.14
813.104	0.18
813.276	0.05
813.448	0.3
813.62	-0.08
813.792	0.28
813.964	0.11
814.136	0.2
814.307	-0.27
814.479	-0.46
814.651	-0.2
814.823	0.57
814.995	-0.1
815.166	0.14
815.338	-0.21
815.51	-0.67
815.681	0.64
815.853	0.01
816.025	0.02
816.196	0.28
816.368	0.15
816.54	-0.31
816.711	-0.39
816.883	-0.19
817.054	0.88
817.226	-0.65
817.398	-0.36
817.569	-0.19
817.741	-0.01
817.912	-0.4
818.084	-0.5
818.255	-0.18
818.426	-0.18
818.598	0
818.769	0.01
818.941	0.47
819.112	0.33
819.283	0.35
819.455	-0.31
819.626	-0.4
819.798	-0.31
819.969	0.17
820.14	-0.22
820.311	-0.12
820.483	-0.24
820.654	0.24
820.825	0.03
820.996	-0.56
821.168	-0.62
821.339	-0.19
821.51	-0.78
821.681	-0.68
821.852	0.06
822.023	-0.42
822.195	-0.31
822.366	0.42
822.537	-0.26
822.708	0.6
822.879	-0.36
823.05	0.29
823.221	-0.11
823.392	0.16
823.563	0.06
823.734	0.22
823.905	-0.4
824.076	-0.1
824.247	-0.42
824.418	-0.44
824.589	0.91
824.759	-0.21
824.93	-0.05
825.101	-0.7
825.272	0.44
825.443	0.3
825.614	0.56
825.784	-1.15
825.955	0.9
826.126	0.41
826.297	-0.06
826.467	0.51
826.638	0.08
826.809	-0.84
826.98	0.12
827.15	-0.15
827.321	-0.11
827.492	0.79
827.662	0.03
827.833	0.91
828.003	0.47
828.174	-0.05
828.345	-0.32
828.515	0.93
828.686	0.21
828.856	-0.51
829.027	-0
829.197	0.68
829.368	0.02
829.538	-0.36
829.709	-0.36
829.879	0.17
830.049	0.41
830.22	-0.36
830.39	-0.3
830.56	0.25
830.731	-0.1
830.901	-0.6
831.072	-0.14
831.242	-0.03
831.412	0.39
831.582	-0.13
831.753	-0.76
831.923	0.74
832.093	-0.32
832.263	0.37
832.434	-0.63
832.604	-0.16
832.774	-0.35
832.944	-0.01
833.114	-0.46
833.284	0.59
833.454	-0.91
833.624	-0.71
833.795	-0.8
833.965	0.56
834.135	-0.02
834.305	-0.15
834.475	-0.34
834.645	-0.69
834.815	-0.75
834.985	-0.31
835.155	-0.02
835.325	0.26
835.494	0.15
835.664	-0.34
835.834	-0.19
836.004	0.29
836.174	0.31
836.344	-0.15
836.514	-0.19
836.684	-0.31
836.853	-0.5
837.023	-0.2
837.193	-0.32
837.363	0.56
837.532	0.79
837.702	0.57
837.872	-0.7
838.041	0.45
838.211	1.19
838.381	-0.29
838.55	0.31
838.72	1.48
838.89	1.1
839.059	-0.27
839.229	-0.92
839.398	0.73
839.568	0.15
839.738	-0.14
839.907	0.77
840.077	-0.02
840.246	-0.14
840.416	-0.25
840.585	-0.86
840.755	1.25
840.924	0.91
841.093	-0.49
841.263	0.17
841.432	-0.5
841.602	-0.24
841.771	-0.63
841.94	-0.45
842.11	1.57
842.279	0.77
842.448	-1.24
842.617	-0.92
842.787	0.6
842.956	-1.21
843.125	-1.09
843.294	-0.36
843.464	0.67
843.633	0.03
843.802	-1.77
843.971	0.36
844.14	0.54
844.309	0.5
844.479	-0.45
844.648	-0.95
844.817	0.04
844.986	-0.32
845.155	-0.28
845.324	-0.92
845.493	-0.52
845.662	-1.4
845.831	-0.04
846	0.91
846.169	0.52
846.338	1.13
846.507	0.23
846.676	0.33
846.844	0.01
847.013	0.41
847.182	-0.03
847.351	-0.25
847.52	-0.7
847.689	-0.26
847.858	0.23
848.026	-0.61
848.195	-1.02
848.364	-0.53
848.533	-0.94
848.701	-0.97
848.87	-0.37
849.039	0.03
849.207	0.83
849.376	0.88
849.545	0.67
849.713	-0.24
849.882	0.08
850.051	-0.83
850.219	0.17
850.388	-0.09
850.556	-1.24
850.725	-0.92
850.893	-0.25
851.062	-0.49
851.23	0.01
851.399	-1.16
851.567	-0.74
851.736	0.77
851.904	-1.46
852.073	-0.21
852.241	0.9
852.41	-0.32
852.578	-0.23
852.746	-0.26
852.915	0.12
853.083	0.55
853.251	-1.06
853.42	-0.66
853.588	0.03
853.756	1.21
853.924	0.26
854.093	-0.01
854.261	-0.71
854.429	-2.19
854.597	0.98
854.765	-0.53
854.934	0.3
855.102	1.59
855.27	-0.86
855.438	0.13
855.606	0.58
855.774	0.67
855.942	-1.4
856.11	-1.37
856.278	-0.56
856.446	0.76
856.614	0.97
856.782	-0.71
856.95	1.13
857.118	-0.4
857.286	-1.02
857.454	-1.27
857.622	0.69
857.79	0.5
857.958	-0.28
858.126	0.2
858.294	-2.51
858.462	-0.12
858.629	-1.14
858.797	-1.21
858.965	0.84
859.133	0.87
859.301	-0.61
859.468	1.48
859.636	-2.01
859.804	0.56
859.971	1.2
860.139	-0.87
860.307	0.33
860.474	0.19
860.642	-0.79
860.81	-0.79
860.977	-0.59
861.145	0.24
861.313	-1.3
861.48	0.29
861.648	1.68
861.815	-0.68
861.983	-1.49
862.15	-1.14
862.318	0.44
862.485	0.86
862.653	-0.06
862.82	-1.73
862.988	1.04
863.155	0.94
863.322	-1.45
863.49	-0.92
863.657	-0.83
863.824	2.29
863.992	0.4
864.159	0.03
864.326	1.35
864.494	-1.14
864.661	2.17
864.828	-1.44
864.996	1.98
865.163	1.4
865.33	-0.98
865.497	-2.64
865.664	-1.25
865.832	-1.1
865.999	-0.55
866.166	-1.33
866.333	-0.34
866.5	-1.75
866.667	-1.56
866.834	-0.13
867.001	0.53
867.168	-2.64
867.335	1.71
867.502	-1.92
867.669	0.11
867.836	1.38
868.003	-2.38
868.17	0.78
868.337	-1.39
868.504	0.32
868.671	-1.54
868.838	-1.49
869.005	-0.29
869.172	0.53
869.339	0.51
869.505	-1.21
869.672	-1.25
869.839	1.47
870.006	-0.39
870.173	-0.71
870.339	-0.56
870.506	1.84
870.673	-0.94
870.84	1.17
871.006	0.89
871.173	-0.08
871.34	-0.75
871.506	-0.83
871.673	-0.99
871.839	-2.1
872.006	1.41
872.173	-0.72
872.339	-1.65
872.506	0.48
872.672	0.57
872.839	-2.03
873.005	-0.2
873.172	1.3
873.338	0.05
873.505	0.79
873.671	-0.4
873.838	0.61
874.004	-1.71
874.171	-0.8
874.337	-0.7
874.503	2.38
874.67	-0.75
874.836	-0.39
875.002	0.26
875.169	0.73
875.335	0.42
875.501	-1.78
875.668	1.06
875.834	0.7
876	-0.8
876.166	0.09
876.332	1.44
876.499	2.75
876.665	-1.14
876.831	0.52
876.997	2.11
877.163	0.72
877.329	-0.47
877.495	0.32
877.662	0.81
877.828	-0.27
877.994	0.1
878.16	-1.94
878.326	-0.35
878.492	0.04
878.658	0.1
878.824	0.78
878.99	0.8
879.156	-1.91
879.322	0.98
879.487	-1.17
879.653	-0.05
879.819	-0.2
879.985	-1.09
880.151	0.1
880.317	0.3
880.483	0.23
880.648	1.78
880.814	-2.01
880.98	0.23
881.146	-1.72
881.312	-0.88
881.477	0.55
881.643	-1.12
881.809	2.62
881.974	1.25
882.14	-3.43
882.306	-1.28
882.471	2.62
882.637	-0.99
882.803	0.87
882.968	2.7
883.134	5.13
883.299	-0.48
883.465	-0.57
883.63	1.31
883.796	-0.14
883.961	-0.28
884.127	0.62
884.292	-4.89
884.458	-2.03
884.623	-2.02
