Data from Apollo_Calib_20240827__AbsoluteIrradiance__586__08-55-01-024.txt Node

Date: Wed Aug 28 08:55:01 BST 2024
User: biology
Spectrometer: FLMT08252
Trigger mode: 0
Integration Time (sec): 5.000000E-1
Scans to average: 5
Electric dark correction enabled: true
Nonlinearity correction enabled: false
Boxcar width: 0
XAxis mode: Wavelengths
Number of Pixels in Spectrum: 3648
>>>>>Begin Spectral Data<<<<<
179.588	-0
179.809	-0
180.03	-0
180.251	-0
180.473	-0
180.694	0
180.915	0
181.136	-0
181.357	-0
181.578	0
181.799	0
182.02	-0
182.241	0
182.462	-0
182.683	0
182.904	-0
183.125	-0
183.346	-0
183.567	0
183.788	0
184.009	-0
184.23	0
184.451	0
184.672	-0
184.892	-0
185.113	0
185.334	0
185.555	0
185.776	-0
185.996	0
186.217	0
186.438	0
186.659	-0
186.879	0
187.1	-0
187.321	-0
187.541	0
187.762	0
187.983	0
188.203	0
188.424	0
188.644	0
188.865	0
189.086	0
189.306	0
189.527	0
189.747	-0
189.968	0
190.188	0
190.409	-0
190.629	0
190.849	0
191.07	0
191.29	0
191.511	0
191.731	-0
191.951	-0
192.172	-0
192.392	0
192.612	0
192.833	0
193.053	0
193.273	0
193.493	0
193.714	0
193.934	0
194.154	0
194.374	0
194.594	0
194.815	0
195.035	0
195.255	0
195.475	-0
195.695	0
195.915	0
196.135	0
196.355	0
196.575	0
196.795	0
197.015	-0
197.235	0
197.455	-0
197.675	0
197.895	0
198.115	-0
198.335	0
198.555	0
198.775	0
198.995	0
199.214	0
199.434	0
199.654	0
199.874	0
200.094	0.96
200.313	0.14
200.533	-0.24
200.753	-0.5
200.973	1.36
201.192	0.96
201.412	-0
201.632	0.28
201.851	1.14
202.071	-0.01
202.291	-0.06
202.51	-0.36
202.73	1.03
202.95	0.21
203.169	-0.34
203.389	0.21
203.608	0.73
203.828	0.04
204.047	0.44
204.267	0.78
204.486	0.74
204.706	0.3
204.925	0.21
205.145	0.15
205.364	0.74
205.583	0.65
205.803	-0.19
206.022	-0.5
206.242	0.33
206.461	0.22
206.68	-0.39
206.9	0.55
207.119	0.77
207.338	0.89
207.557	0.17
207.777	-0.03
207.996	0.1
208.215	0.6
208.434	0.17
208.654	-0.21
208.873	0.33
209.092	0.71
209.311	0.28
209.53	0.13
209.749	0.25
209.968	-0.09
210.187	-0.03
210.407	-0.38
210.626	-0.13
210.845	0.39
211.064	0.28
211.283	0.06
211.502	0.41
211.721	0.2
211.94	0.01
212.159	0.24
212.377	0.14
212.596	0.51
212.815	0.15
213.034	0.35
213.253	0.37
213.472	0.34
213.691	0.17
213.91	-0.08
214.128	0.19
214.347	0.35
214.566	-0.12
214.785	-0.3
215.003	0.26
215.222	-0.03
215.441	0.07
215.66	-0.22
215.878	0.01
216.097	0.37
216.316	-0.19
216.534	0.06
216.753	0.19
216.972	0.17
217.19	0.22
217.409	-0.18
217.627	0.04
217.846	0.2
218.064	0.13
218.283	0.22
218.501	0.41
218.72	0.35
218.938	0.03
219.157	0.1
219.375	0.33
219.594	0.17
219.812	-0.14
220.031	-0.1
220.249	0.38
220.467	0.34
220.686	-0.03
220.904	-0.03
221.122	-0.08
221.341	0.4
221.559	0.19
221.777	-0.13
221.995	0.06
222.214	0.22
222.432	0.05
222.65	0.3
222.868	0.03
223.086	0.11
223.305	0.17
223.523	0.08
223.741	0.47
223.959	0.05
224.177	-0.1
224.395	0.02
224.613	0.19
224.831	0.14
225.049	-0.04
225.267	-0.03
225.485	0.15
225.703	0.11
225.921	0.07
226.139	0.05
226.357	0.16
226.575	0.04
226.793	0.04
227.011	0.6
227.229	0.12
227.447	0.32
227.665	0.05
227.883	-0.11
228.1	0.13
228.318	0.17
228.536	-0.03
228.754	-0.02
228.972	0.04
229.189	0.21
229.407	-0.01
229.625	0.02
229.843	0.26
230.06	0.2
230.278	0.07
230.496	0.06
230.713	0.14
230.931	0.18
231.149	0.04
231.366	-0.16
231.584	0.04
231.801	0.43
232.019	0.08
232.236	-0.16
232.454	0.04
232.671	0.12
232.889	0.06
233.106	0.02
233.324	0.06
233.541	0.07
233.759	0.07
233.976	0
234.194	0.04
234.411	0.02
234.628	0.04
234.846	0.12
235.063	0.03
235.28	0.07
235.498	0.05
235.715	0.08
235.932	0.25
236.149	0.03
236.367	-0.04
236.584	0.16
236.801	-0.01
237.018	0.12
237.236	0.2
237.453	-0.12
237.67	0.26
237.887	0.05
238.104	0.01
238.321	-0.08
238.538	-0.02
238.755	0.18
238.973	-0.1
239.19	0.1
239.407	0.12
239.624	0.06
239.841	-0.06
240.058	-0.04
240.275	0.04
240.492	0.03
240.709	0.01
240.925	0.08
241.142	0.08
241.359	-0.07
241.576	0.03
241.793	0
242.01	0.08
242.227	0.15
242.444	0.14
242.66	0.09
242.877	0.13
243.094	0.07
243.311	0.12
243.527	0.04
243.744	0.17
243.961	0.19
244.178	0.08
244.394	-0.01
244.611	0.16
244.828	0.14
245.044	0.02
245.261	-0.01
245.477	0.13
245.694	0.14
245.911	-0.01
246.127	-0.04
246.344	0.22
246.56	0.18
246.777	0.08
246.993	0.1
247.21	0.12
247.426	0.21
247.643	-0.02
247.859	0.03
248.076	-0.01
248.292	0.15
248.508	0.13
248.725	0.15
248.941	0.02
249.157	0.23
249.374	0.05
249.59	0.11
249.806	0.07
250.023	0.12
250.239	-0.02
250.455	-0.02
250.671	0.03
250.888	0.17
251.104	0.1
251.32	-0.01
251.536	0.04
251.752	0.06
251.969	0.03
252.185	0.03
252.401	0.23
252.617	0.05
252.833	0.04
253.049	0.01
253.265	0.08
253.481	0.1
253.697	0.09
253.913	-0.04
254.129	0.09
254.345	0.06
254.561	0.04
254.777	0.04
254.993	0.11
255.209	0.11
255.425	0.02
255.641	0.04
255.857	0.12
256.073	0.02
256.288	0.01
256.504	0.04
256.72	0.16
256.936	0.1
257.152	0.08
257.367	-0
257.583	0.1
257.799	0.11
258.015	-0.01
258.23	0.01
258.446	0.2
258.662	0.05
258.877	-0.05
259.093	-0.05
259.309	0.06
259.524	0.09
259.74	0.03
259.955	-0.09
260.171	0.02
260.387	0.02
260.602	0.09
260.818	0.12
261.033	-0.04
261.249	0.02
261.464	0.03
261.68	-0.06
261.895	0.07
262.11	0.11
262.326	0.04
262.541	-0.03
262.757	0.07
262.972	0.09
263.187	0.01
263.403	0.05
263.618	0.11
263.833	0.06
264.049	-0.02
264.264	0.06
264.479	0.13
264.694	0.14
264.91	-0.03
265.125	0.09
265.34	0.11
265.555	0.15
265.77	0.06
265.986	0
266.201	0.04
266.416	0.11
266.631	0.02
266.846	0.01
267.061	0.11
267.276	0.09
267.491	-0.06
267.706	0.06
267.921	0.08
268.136	0.15
268.351	0.04
268.566	-0.06
268.781	0.1
268.996	0.13
269.211	0.08
269.426	0.01
269.641	-0
269.856	0.06
270.071	0.04
270.285	-0.05
270.5	0.13
270.715	0.1
270.93	0.03
271.145	0.07
271.359	0.13
271.574	0.01
271.789	0.02
272.004	0.03
272.218	0.04
272.433	0.04
272.648	0.03
272.862	0.1
273.077	0.06
273.292	0.08
273.506	-0.01
273.721	0.02
273.936	0.08
274.15	0.07
274.365	0.01
274.579	0.09
274.794	0.07
275.008	0.07
275.223	-0.02
275.437	0.05
275.652	0.09
275.866	0.06
276.081	0.08
276.295	0.1
276.509	0.04
276.724	0.04
276.938	0.12
277.153	0.06
277.367	0.05
277.581	-0
277.796	0.05
278.01	-0.04
278.224	0.06
278.438	0.12
278.653	-0.03
278.867	-0.01
279.081	0.05
279.295	0.04
279.51	0.04
279.724	-0.04
279.938	0.07
280.152	0.05
280.366	-0.04
280.58	0.02
280.794	0.11
281.008	0.07
281.222	0.09
281.437	0.09
281.651	0.04
281.865	0.12
282.079	-0.01
282.293	-0.09
282.507	0
282.721	0.04
282.935	0.04
283.148	-0.04
283.362	0.03
283.576	0.02
283.79	0.04
284.004	-0
284.218	0.11
284.432	0.04
284.646	0.05
284.859	0.05
285.073	-0.02
285.287	0.01
285.501	0.04
285.714	0.06
285.928	0.05
286.142	0.07
286.356	0.03
286.569	-0
286.783	0.13
286.997	0.09
287.21	0.07
287.424	0.05
287.637	0.03
287.851	0.01
288.065	0.06
288.278	0
288.492	0.01
288.705	-0.01
288.919	0.12
289.132	-0.02
289.346	0.07
289.559	0.03
289.773	-0.04
289.986	0.05
290.2	0.03
290.413	0.09
290.626	-0.01
290.84	0
291.053	0.04
291.267	0.09
291.48	-0.02
291.693	0.04
291.906	0.04
292.12	0.01
292.333	-0.02
292.546	0.01
292.76	0.1
292.973	0.05
293.186	0.04
293.399	-0.04
293.612	0.07
293.826	0.01
294.039	0.04
294.252	0.08
294.465	0.06
294.678	0.06
294.891	0.05
295.104	-0.01
295.317	0.04
295.53	0.02
295.743	0.07
295.956	0.02
296.169	0.03
296.382	0.07
296.595	0.05
296.808	-0.01
297.021	0.07
297.234	0.07
297.447	0.04
297.66	0.04
297.873	0.08
298.086	0.06
298.299	0.03
298.511	-0.02
298.724	0.01
298.937	-0.03
299.15	-0.01
299.363	0.06
299.575	0.08
299.788	0.07
300.001	-0.01
300.213	0.02
300.426	0.02
300.639	0.01
300.852	-0.01
301.064	0.07
301.277	0.09
301.489	0.06
301.702	0.05
301.915	0.05
302.127	0.05
302.34	0.04
302.552	0.06
302.765	0.03
302.977	0.08
303.19	-0.05
303.402	-0.01
303.615	0.03
303.827	0.02
304.04	0
304.252	0.06
304.464	0.01
304.677	0.07
304.889	0.05
305.102	0.02
305.314	0.02
305.526	0.05
305.739	0.05
305.951	0.05
306.163	0.03
306.375	0.12
306.588	-0.02
306.8	0.03
307.012	-0.05
307.224	0.03
307.436	0.12
307.649	-0.05
307.861	0.07
308.073	0.06
308.285	0.02
308.497	-0
308.709	-0
308.921	0.08
309.133	0.08
309.346	0
309.558	0.03
309.77	0.09
309.982	0.09
310.194	0.05
310.406	0.03
310.617	0.06
310.829	0.05
311.041	0.03
311.253	0.02
311.465	0.03
311.677	-0
311.889	0.03
312.101	0.01
312.313	0.05
312.524	0.05
312.736	-0
312.948	0.03
313.16	0.11
313.372	0.01
313.583	0.1
313.795	0
314.007	-0.02
314.218	0.09
314.43	0.02
314.642	0.01
314.853	-0.03
315.065	0.07
315.277	0.02
315.488	0.05
315.7	0.09
315.912	0.07
316.123	0.05
316.335	0.04
316.546	0.09
316.758	0.03
316.969	0.01
317.181	0.02
317.392	0.03
317.604	0.1
317.815	-0
318.026	0
318.238	0.03
318.449	0.08
318.661	-0.02
318.872	-0.02
319.083	-0.03
319.295	0.05
319.506	0.03
319.717	0.07
319.929	0.05
320.14	0.07
320.351	0.03
320.562	-0
320.774	0.02
320.985	0.04
321.196	-0.04
321.407	0.02
321.618	0.05
321.829	0.03
322.041	0.08
322.252	0.03
322.463	0.04
322.674	0.04
322.885	0.02
323.096	-0.02
323.307	0.02
323.518	0.09
323.729	0
323.94	0.02
324.151	0.01
324.362	0.05
324.573	0.04
324.784	0.01
324.995	0.1
325.206	0.06
325.417	0.01
325.628	0.03
325.838	0.04
326.049	0.08
326.26	0.05
326.471	0.02
326.682	0.04
326.892	0.01
327.103	-0.01
327.314	-0.03
327.525	0.07
327.735	0.04
327.946	-0
328.157	-0.01
328.368	0.09
328.578	-0.01
328.789	0.07
328.999	0.01
329.21	0
329.421	0.05
329.631	0.01
329.842	0.04
330.052	0.04
330.263	0.07
330.473	0.04
330.684	0.02
330.894	-0
331.105	0.06
331.315	0.03
331.526	-0.02
331.736	0.08
331.947	0.07
332.157	0.04
332.367	-0.05
332.578	0.06
332.788	0.07
332.999	0.08
333.209	0.06
333.419	-0.01
333.629	0.06
333.84	0
334.05	0.05
334.26	0.08
334.47	0.05
334.681	0.07
334.891	0.04
335.101	0.08
335.311	0.12
335.521	0.04
335.732	-0
335.942	0.11
336.152	0.04
336.362	0.02
336.572	0.06
336.782	0.04
336.992	-0
337.202	-0.02
337.412	-0
337.622	0.06
337.832	0.02
338.042	-0.01
338.252	0.02
338.462	0.02
338.672	0.04
338.882	0.01
339.092	-0.03
339.302	0.12
339.511	0.08
339.721	-0.02
339.931	0
340.141	0.07
340.351	0.08
340.561	0.05
340.77	0.06
340.98	0.01
341.19	0.04
341.4	0.01
341.609	0.01
341.819	0.04
342.029	0.02
342.238	0.06
342.448	-0.02
342.658	0.05
342.867	0.05
343.077	0.05
343.286	0.04
343.496	0.04
343.706	0.11
343.915	-0
344.125	0.01
344.334	0.05
344.544	0.02
344.753	0
344.963	0.02
345.172	0.01
345.381	0.05
345.591	0.01
345.8	0.03
346.01	0.12
346.219	0.11
346.428	-0.09
346.638	0.01
346.847	0.04
347.056	0.07
347.266	-0.04
347.475	0.01
347.684	0.02
347.893	0.05
348.103	0.02
348.312	0.01
348.521	0.01
348.73	-0.01
348.94	0.03
349.149	0.03
349.358	-0.01
349.567	0
349.776	0.01
349.985	0.01
350.194	0.07
350.403	0.11
350.612	-0.03
350.821	-0.01
351.03	0.02
351.239	-0.02
351.448	0.02
351.657	-0.01
351.866	0.08
352.075	0.03
352.284	0.05
352.493	0.01
352.702	0.1
352.911	0.05
353.12	0.04
353.329	0.01
353.538	0.05
353.746	-0
353.955	0.03
354.164	0.05
354.373	0.02
354.582	0.06
354.79	0.01
354.999	0.08
355.208	0.02
355.416	0.07
355.625	-0
355.834	0.04
356.042	0.08
356.251	0.05
356.46	-0.01
356.668	0.03
356.877	0.09
357.085	0.09
357.294	-0.08
357.503	0.03
357.711	0.02
357.92	0.13
358.128	0.04
358.337	-0
358.545	0.06
358.754	-0.01
358.962	0.09
359.17	0.03
359.379	0.03
359.587	0.01
359.796	0.04
360.004	0.04
360.212	0.01
360.421	0.07
360.629	-0
360.837	-0.01
361.046	0.06
361.254	0.1
361.462	0.05
361.67	-0
361.879	0.03
362.087	0.09
362.295	0.03
362.503	0.04
362.711	-0.02
362.92	0.02
363.128	0.01
363.336	-0
363.544	-0.01
363.752	-0.02
363.96	-0.02
364.168	0
364.376	-0
364.584	0.05
364.792	0.06
365	0.06
365.208	0.05
365.416	0.04
365.624	0.06
365.832	-0.02
366.04	0.07
366.248	0.04
366.456	0.05
366.664	0.03
366.872	-0
367.079	0
367.287	0.04
367.495	0.03
367.703	-0
367.911	0.03
368.118	0.03
368.326	0.02
368.534	-0.03
368.742	0.1
368.949	-0.01
369.157	0.01
369.365	0.04
369.572	0.01
369.78	-0.01
369.988	0.05
370.195	0.06
370.403	0.06
370.61	-0.02
370.818	0.05
371.026	0.08
371.233	-0.01
371.441	0.06
371.648	-0.02
371.856	0.04
372.063	0.02
372.271	0
372.478	-0
372.685	0.01
372.893	0.07
373.1	0.01
373.308	-0.01
373.515	0.08
373.722	0.07
373.93	0.02
374.137	0.06
374.344	0.09
374.552	0.05
374.759	0.04
374.966	0.01
375.173	0.06
375.381	0.02
375.588	0.01
375.795	-0.07
376.002	-0.05
376.209	-0.02
376.417	0.01
376.624	0.03
376.831	0.06
377.038	0.01
377.245	-0.06
377.452	0.02
377.659	0.07
377.866	0.01
378.073	0.02
378.28	0.06
378.487	0.06
378.694	0.05
378.901	0.03
379.108	0.05
379.315	0.03
379.522	0.1
379.729	0.1
379.936	0.01
380.143	0.02
380.35	0.01
380.557	-0.03
380.763	0.02
380.97	0.03
381.177	0.04
381.384	0
381.591	-0.02
381.797	0.03
382.004	0.05
382.211	0.05
382.418	-0.04
382.624	0.04
382.831	0.05
383.038	0.05
383.244	0.02
383.451	0.03
383.658	0.05
383.864	0.03
384.071	-0.01
384.277	0.13
384.484	0
384.69	0.07
384.897	0
385.103	0.01
385.31	-0.01
385.516	-0.02
385.723	-0.02
385.929	0.01
386.136	0.03
386.342	0.07
386.549	0.03
386.755	0.08
386.961	0.07
387.168	-0
387.374	0.01
387.58	0.07
387.787	-0.01
387.993	0.02
388.199	-0.02
388.406	-0.02
388.612	0.02
388.818	-0.02
389.024	0.04
389.231	0.08
389.437	0.1
389.643	0.03
389.849	0.02
390.055	0.03
390.261	0.04
390.467	0.04
390.674	0.01
390.88	0.02
391.086	0.04
391.292	-0.03
391.498	0.08
391.704	0.03
391.91	-0.02
392.116	0.01
392.322	-0.08
392.528	0.03
392.734	0.05
392.94	0.06
393.146	0.02
393.352	0.02
393.557	0
393.763	0.03
393.969	0.04
394.175	0.03
394.381	0.03
394.587	0.02
394.792	0.04
394.998	0.02
395.204	0.05
395.41	0
395.615	0.06
395.821	0.06
396.027	0.04
396.233	-0.01
396.438	0.03
396.644	0.11
396.85	0.05
397.055	0.04
397.261	0.04
397.466	0.09
397.672	0.02
397.878	0.04
398.083	0.04
398.289	-0
398.494	0.04
398.7	0.05
398.905	-0.04
399.111	0.1
399.316	-0.03
399.522	0.1
399.727	0.01
399.932	0.02
400.138	-0
400.343	0.06
400.549	0
400.754	0.02
400.959	0.04
401.165	0.05
401.37	0.04
401.575	0.11
401.78	0.02
401.986	0.01
402.191	-0.01
402.396	0.06
402.601	0.08
402.807	0.05
403.012	0.01
403.217	0.06
403.422	0.06
403.627	0.03
403.832	-0.02
404.037	0.03
404.243	0.03
404.448	-0.01
404.653	-0.02
404.858	0.06
405.063	0.02
405.268	0.01
405.473	0
405.678	-0.02
405.883	0.16
406.088	-0.01
406.293	-0.04
406.498	0.01
406.703	0.05
406.907	0
407.112	0.02
407.317	0.01
407.522	0.04
407.727	-0.04
407.932	0.04
408.136	0.11
408.341	-0.01
408.546	0.04
408.751	0.06
408.956	-0.02
409.16	0.06
409.365	0.01
409.57	-0.03
409.774	0.01
409.979	0.01
410.184	0.04
410.388	-0.01
410.593	0.1
410.798	0.01
411.002	0
411.207	0.06
411.411	0
411.616	0.03
411.82	0.03
412.025	0.04
412.229	0
412.434	0.12
412.638	0.01
412.843	0.02
413.047	0.07
413.252	-0.02
413.456	0.03
413.66	0.1
413.865	0.03
414.069	0.11
414.273	0
414.478	-0.04
414.682	-0.01
414.886	0.02
415.091	-0
415.295	-0.04
415.499	0.03
415.703	0
415.908	0.02
416.112	-0.06
416.316	0.06
416.52	0.05
416.724	-0.01
416.929	0.01
417.133	0.1
417.337	0.02
417.541	-0.01
417.745	-0.01
417.949	0.09
418.153	0.05
418.357	-0.06
418.561	0.08
418.765	0.02
418.969	0.14
419.173	0.04
419.377	0.03
419.581	0.09
419.785	0.01
419.989	-0.02
420.193	0
420.397	-0.02
420.601	0.1
420.804	0.07
421.008	0.01
421.212	0.01
421.416	0.1
421.62	0.03
421.823	0.02
422.027	0.14
422.231	-0
422.435	0.02
422.638	0.06
422.842	0.05
423.046	0.01
423.249	0.07
423.453	0.06
423.657	0.02
423.86	0.02
424.064	0.02
424.268	0.06
424.471	0.01
424.675	0.08
424.878	0.08
425.082	-0
425.285	0.04
425.489	0.05
425.692	-0.01
425.896	-0.01
426.099	0.05
426.303	-0.01
426.506	-0
426.71	0.05
426.913	0.07
427.116	0.08
427.32	0.04
427.523	0.01
427.726	0.13
427.93	-0.03
428.133	0.03
428.336	-0.05
428.54	-0.04
428.743	0.07
428.946	0.1
429.149	-0.01
429.353	0.06
429.556	0.05
429.759	0.04
429.962	-0.02
430.165	-0.01
430.368	0.01
430.571	-0.01
430.775	0.05
430.978	-0.01
431.181	0.05
431.384	0.04
431.587	-0.01
431.79	0.03
431.993	0.03
432.196	0.01
432.399	-0.03
432.602	0.1
432.805	0.02
433.008	0.02
433.211	-0.06
433.414	0.02
433.616	0.08
433.819	0
434.022	-0.04
434.225	0.1
434.428	0.04
434.631	0.13
434.833	0.01
435.036	-0.02
435.239	0.05
435.442	0.03
435.645	0
435.847	0.02
436.05	0.04
436.253	-0.01
436.455	-0.01
436.658	0.02
436.861	0.12
437.063	-0
437.266	0.04
437.468	0.04
437.671	0.13
437.874	0.02
438.076	0
438.279	-0.07
438.481	0.01
438.684	-0.02
438.886	0.06
439.089	-0.07
439.291	0.06
439.494	0.04
439.696	-0.07
439.899	0.04
440.101	0.01
440.303	-0.03
440.506	0.08
440.708	0.02
440.91	0.05
441.113	-0
441.315	0.06
441.517	-0.05
441.72	0.09
441.922	-0.04
442.124	-0.03
442.326	0.06
442.529	0.07
442.731	-0.01
442.933	0.1
443.135	0.01
443.337	-0.02
443.539	0.01
443.742	0.01
443.944	0
444.146	-0.02
444.348	-0.01
444.55	-0.02
444.752	0
444.954	-0.02
445.156	-0.02
445.358	0.01
445.56	0.06
445.762	0.02
445.964	0.01
446.166	-0
446.368	-0.07
446.57	0.02
446.772	0.01
446.974	0.01
447.175	0.07
447.377	-0.04
447.579	-0.03
447.781	-0.07
447.983	0.08
448.184	0.03
448.386	0.02
448.588	-0.06
448.79	0.03
448.991	0.01
449.193	0
449.395	0
449.597	0.06
449.798	0.05
450	0.04
450.202	0.01
450.403	-0
450.605	0.04
450.806	-0.01
451.008	-0.07
451.21	0.06
451.411	0.04
451.613	-0.01
451.814	0.05
452.016	0.07
452.217	0.02
452.419	0.07
452.62	-0
452.821	0.03
453.023	0.09
453.224	0.08
453.426	0
453.627	0.04
453.828	0.04
454.03	-0.01
454.231	0.01
454.432	-0.01
454.634	0.06
454.835	-0.04
455.036	-0.02
455.238	0
455.439	0.11
455.64	-0.02
455.841	-0
456.042	0.1
456.244	0.07
456.445	-0.02
456.646	-0.04
456.847	0
457.048	0.07
457.249	0.09
457.45	0.19
457.651	-0.03
457.852	0.07
458.054	0.07
458.255	0.07
458.456	0.05
458.657	0.05
458.858	-0.02
459.058	-0.01
459.259	0.06
459.46	0.02
459.661	-0.02
459.862	0.14
460.063	0.03
460.264	0.07
460.465	-0.03
460.666	0.13
460.866	0.01
461.067	0.01
461.268	0.04
461.469	0.01
461.67	0.04
461.87	0.04
462.071	-0.02
462.272	-0.03
462.473	0.01
462.673	0.02
462.874	0.01
463.075	0.06
463.275	-0.04
463.476	0.05
463.676	-0
463.877	0.05
464.078	-0.04
464.278	0.09
464.479	0
464.679	0.01
464.88	0.07
465.08	0.07
465.281	-0.01
465.481	0
465.682	-0
465.882	0.06
466.083	0.04
466.283	0.01
466.483	0.02
466.684	-0.01
466.884	0.02
467.085	-0.02
467.285	0.05
467.485	-0.01
467.686	0
467.886	-0.03
468.086	0.03
468.286	0.05
468.487	0.06
468.687	-0.03
468.887	0.01
469.087	0.01
469.287	0.02
469.488	-0.04
469.688	0.04
469.888	0.08
470.088	0.04
470.288	0.07
470.488	0.04
470.688	-0.03
470.888	-0.01
471.088	-0.02
471.288	0.07
471.488	0.06
471.688	0.05
471.888	-0
472.088	0.06
472.288	0.03
472.488	-0
472.688	-0.02
472.888	0.01
473.088	-0.01
473.288	0.02
473.488	0.04
473.688	0.09
473.887	0.03
474.087	-0.01
474.287	0.04
474.487	0.02
474.687	0.03
474.886	0.02
475.086	0.03
475.286	0.03
475.486	-0.02
475.685	0.02
475.885	0.01
476.085	0.02
476.284	0.08
476.484	0.01
476.684	0.03
476.883	0.03
477.083	0.08
477.282	0.01
477.482	0.1
477.681	0.07
477.881	0.06
478.08	-0.02
478.28	-0.02
478.479	0.06
478.679	0.1
478.878	-0
479.078	0.01
479.277	-0
479.477	0
479.676	0.03
479.875	-0
480.075	-0.02
480.274	0.03
480.473	0.06
480.673	0.01
480.872	0.07
481.071	0.01
481.271	0.05
481.47	-0
481.669	0.01
481.868	-0
482.067	0
482.267	0.01
482.466	-0.01
482.665	-0.02
482.864	-0.01
483.063	-0.02
483.262	0.03
483.461	0.05
483.661	0.04
483.86	0.01
484.059	0.01
484.258	0.01
484.457	0
484.656	0.04
484.855	0.04
485.054	-0.05
485.253	-0.03
485.452	-0.03
485.651	0.01
485.849	0.01
486.048	-0
486.247	-0.03
486.446	-0
486.645	-0.02
486.844	0.01
487.043	-0.03
487.241	0.02
487.44	-0.01
487.639	0.01
487.838	0.02
488.037	0.02
488.235	0.05
488.434	0.04
488.633	-0.01
488.831	0
489.03	0.03
489.229	0.02
489.427	0.01
489.626	0.01
489.825	0.07
490.023	0.01
490.222	-0
490.42	0.04
490.619	0.04
490.817	0.04
491.016	-0.02
491.214	0.04
491.413	-0
491.611	0
491.81	0.01
492.008	0.05
492.207	0.04
492.405	0.02
492.604	-0.02
492.802	0.01
493	0
493.199	-0.01
493.397	0.02
493.595	0.01
493.794	0.01
493.992	0.05
494.19	0.02
494.388	0.04
494.587	0.01
494.785	0.02
494.983	-0.02
495.181	0.02
495.379	0.01
495.578	-0.02
495.776	0.02
495.974	0
496.172	-0
496.37	-0
496.568	-0.03
496.766	-0.02
496.964	0.02
497.162	0.02
497.36	-0.02
497.558	0.01
497.756	0.04
497.954	0.02
498.152	-0.02
498.35	-0.01
498.548	0.01
498.746	0.03
498.944	-0.02
499.142	0.01
499.34	-0
499.538	0.03
499.736	0
499.933	0.04
500.131	0.04
500.329	0.04
500.527	0.02
500.725	0.06
500.922	0.02
501.12	0.02
501.318	0.01
501.516	0
501.713	0.01
501.911	0
502.109	0.02
502.306	0.04
502.504	-0
502.701	-0.01
502.899	-0
503.097	0.02
503.294	0.02
503.492	-0
503.689	0.03
503.887	0.04
504.084	0.06
504.282	0.02
504.479	0.01
504.677	0.02
504.874	-0.03
505.072	0.03
505.269	-0.01
505.466	0.01
505.664	0.01
505.861	-0.02
506.059	-0.02
506.256	0.04
506.453	-0.01
506.651	0.06
506.848	0.02
507.045	0.04
507.242	0.02
507.44	0.02
507.637	0.01
507.834	0.01
508.031	0.02
508.229	-0
508.426	0.02
508.623	0.02
508.82	-0
509.017	-0.01
509.214	-0
509.411	-0.02
509.608	0
509.805	0.02
510.003	-0.01
510.2	-0.01
510.397	0.04
510.594	0.01
510.791	0.01
510.988	-0.01
511.184	0.03
511.381	0.01
511.578	-0.01
511.775	0.04
511.972	-0.01
512.169	-0.01
512.366	0.01
512.563	0.04
512.76	0.01
512.956	0.03
513.153	-0.01
513.35	0.04
513.547	0.01
513.744	-0.01
513.94	-0.01
514.137	0.01
514.334	0.02
514.53	0.01
514.727	0
514.924	0.06
515.12	0
515.317	-0.02
515.514	0
515.71	0
515.907	-0.01
516.103	0.02
516.3	0.04
516.497	0.03
516.693	0.04
516.89	0
517.086	-0.02
517.283	0.03
517.479	0.04
517.676	0.02
517.872	0.02
518.068	-0
518.265	-0.01
518.461	-0.01
518.658	-0.02
518.854	0.02
519.05	-0.01
519.247	-0.02
519.443	0.02
519.639	0.02
519.836	0.01
520.032	0.02
520.228	0.01
520.424	0.06
520.621	0.02
520.817	0.01
521.013	0.06
521.209	0.01
521.405	0.08
521.601	0.03
521.798	0.02
521.994	0.04
522.19	-0
522.386	-0
522.582	0.02
522.778	0.01
522.974	-0
523.17	0.02
523.366	0.01
523.562	0.03
523.758	0.01
523.954	-0.02
524.15	-0.01
524.346	0.02
524.542	0
524.738	0
524.934	0.01
525.129	-0.06
525.325	0.01
525.521	0.01
525.717	0.03
525.913	-0
526.109	0
526.304	0
526.5	0.04
526.696	0.05
526.892	-0
527.087	0.01
527.283	-0.01
527.479	0.01
527.674	-0.01
527.87	0.01
528.066	0.01
528.261	0.03
528.457	0.01
528.653	0.04
528.848	0.01
529.044	0.02
529.239	0.02
529.435	0.04
529.63	0.02
529.826	0.05
530.021	0.02
530.217	0.04
530.412	-0.01
530.608	0
530.803	0.01
530.999	0.01
531.194	-0.03
531.389	0.03
531.585	-0.03
531.78	0.01
531.975	0
532.171	0.04
532.366	0
532.561	0.01
532.757	0.01
532.952	0.02
533.147	0.03
533.342	0
533.538	0.01
533.733	0.04
533.928	0.02
534.123	-0
534.318	0.01
534.513	0.01
534.709	0.02
534.904	-0
535.099	0.01
535.294	0
535.489	0.02
535.684	-0
535.879	-0.02
536.074	0.03
536.269	-0.02
536.464	0.03
536.659	-0.01
536.854	0.01
537.049	0.01
537.244	0
537.439	-0.01
537.634	0.02
537.828	0.02
538.023	-0
538.218	-0.01
538.413	0.03
538.608	-0.02
538.803	0.04
538.997	-0.02
539.192	0.04
539.387	0.02
539.582	0.02
539.776	0.02
539.971	-0.01
540.166	0.02
540.36	-0.01
540.555	0.02
540.75	-0
540.944	0.01
541.139	-0.01
541.334	0.02
541.528	0.04
541.723	0.03
541.917	0
542.112	-0.02
542.306	-0
542.501	0.01
542.695	0.01
542.89	0
543.084	0.01
543.279	-0.01
543.473	-0
543.668	-0
543.862	-0
544.056	0.02
544.251	0.01
544.445	0.02
544.64	0.04
544.834	-0
545.028	0.02
545.222	0.02
545.417	0.03
545.611	0.01
545.805	0.03
546	0.01
546.194	0
546.388	0.01
546.582	0.03
546.776	0.03
546.97	0.02
547.165	0.03
547.359	0.03
547.553	0.01
547.747	0.04
547.941	0.01
548.135	0.01
548.329	0.04
548.523	0.03
548.717	0.03
548.911	0.02
549.105	0.01
549.299	0.01
549.493	0.04
549.687	0.03
549.881	0.04
550.075	0.02
550.269	-0.01
550.463	0.02
550.657	-0.01
550.85	0.02
551.044	-0.02
551.238	0.02
551.432	-0.01
551.626	-0.01
551.82	0.03
552.013	-0
552.207	0.01
552.401	0.03
552.594	0.02
552.788	0
552.982	0.02
553.176	-0.03
553.369	0.03
553.563	0.04
553.756	-0.03
553.95	0.01
554.144	0.01
554.337	0.02
554.531	0.02
554.724	0.01
554.918	0
555.111	0.03
555.305	0.03
555.498	0.04
555.692	0.04
555.885	-0
556.079	0.01
556.272	-0.02
556.466	0.03
556.659	0.03
556.852	0
557.046	0.02
557.239	0.04
557.432	-0.01
557.626	-0.01
557.819	0.05
558.012	0.04
558.206	0.03
558.399	-0.01
558.592	0.03
558.785	0
558.979	0.04
559.172	0.04
559.365	0.03
559.558	0.04
559.751	-0
559.944	0.03
560.138	0.01
560.331	0.02
560.524	0
560.717	0.01
560.91	0.02
561.103	0.03
561.296	0.02
561.489	0.03
561.682	0.03
561.875	0.06
562.068	0.03
562.261	0.03
562.454	0.07
562.647	0.03
562.84	0.03
563.032	0.02
563.225	0.02
563.418	-0
563.611	-0.01
563.804	0
563.997	-0
564.19	0
564.382	-0.03
564.575	0.03
564.768	0
564.961	0.01
565.153	-0
565.346	0.05
565.539	0.04
565.731	0.02
565.924	0.04
566.117	0.03
566.309	0
566.502	0.03
566.695	0.03
566.887	0.03
567.08	-0
567.272	-0
567.465	0.01
567.657	0.05
567.85	0.03
568.042	0.06
568.235	0.07
568.427	0.02
568.62	0.02
568.812	0.04
569.005	0.02
569.197	-0.02
569.389	0.02
569.582	0.02
569.774	-0.01
569.966	-0
570.159	-0.01
570.351	0.02
570.543	0.03
570.736	0.01
570.928	0
571.12	0.02
571.312	0
571.505	-0.01
571.697	0.05
571.889	-0.01
572.081	0.02
572.273	0.01
572.465	0.07
572.658	0.03
572.85	0.04
573.042	0.01
573.234	0.02
573.426	0.05
573.618	-0.03
573.81	0.04
574.002	0.06
574.194	0.06
574.386	-0.01
574.578	-0.04
574.77	0
574.962	0.04
575.154	-0.01
575.346	0.02
575.538	0.03
575.729	0.01
575.921	-0
576.113	0.02
576.305	0.05
576.497	0.01
576.689	0.02
576.88	-0.01
577.072	0.06
577.264	0.03
577.456	0.02
577.647	-0.02
577.839	0.05
578.031	0.05
578.223	-0.04
578.414	0
578.606	0.04
578.798	0.03
578.989	0.03
579.181	0.02
579.372	0.03
579.564	0.01
579.755	0.04
579.947	0.03
580.139	0.04
580.33	-0.01
580.522	-0.01
580.713	-0.03
580.905	0.02
581.096	0.05
581.287	0.05
581.479	0.04
581.67	0.05
581.862	0.02
582.053	-0.01
582.244	-0.01
582.436	0.02
582.627	0.02
582.818	0.03
583.01	-0
583.201	0.06
583.392	0.05
583.583	0.03
583.775	0.03
583.966	0.02
584.157	0.03
584.348	0.02
584.54	0.01
584.731	0.03
584.922	0.04
585.113	0.03
585.304	0.03
585.495	0.05
585.686	0.03
585.877	0.08
586.068	0.04
586.259	0.04
586.45	0.05
586.641	0.03
586.832	0
587.023	0.04
587.214	0.03
587.405	0.02
587.596	0.02
587.787	0.08
587.978	0.07
588.169	0.03
588.36	0.01
588.551	0.04
588.742	0.04
588.932	0.04
589.123	0.04
589.314	0.05
589.505	0.03
589.696	0.03
589.886	0.05
590.077	0.01
590.268	0.03
590.458	0
590.649	0.02
590.84	0.07
591.03	0.03
591.221	0.02
591.412	0.05
591.602	0.06
591.793	0.08
591.984	0.05
592.174	0.04
592.365	0.12
592.555	0.02
592.746	0.07
592.936	0.07
593.127	0.08
593.317	0.09
593.508	0.04
593.698	0.06
593.889	0.06
594.079	0.06
594.269	0.06
594.46	0.05
594.65	0.07
594.84	0.06
595.031	0.03
595.221	0.05
595.411	0.03
595.602	0.08
595.792	0.07
595.982	0.06
596.172	0.11
596.363	0.07
596.553	0.08
596.743	0.07
596.933	0.06
597.123	0.1
597.314	0.06
597.504	0.05
597.694	0.11
597.884	0.08
598.074	0.08
598.264	0.06
598.454	0.09
598.644	0.08
598.834	0.09
599.024	0.06
599.214	0.05
599.404	0.12
599.594	0.08
599.784	0.05
599.974	0.14
600.164	0.1
600.354	0.08
600.544	0.05
600.734	0.12
600.924	0.1
601.114	0.08
601.303	0.12
601.493	0.09
601.683	0.09
601.873	0.12
602.063	0.06
602.252	0.13
602.442	0.06
602.632	0.09
602.821	0.05
603.011	0.15
603.201	0.11
603.39	0.09
603.58	0.1
603.77	0.15
603.959	0.14
604.149	0.14
604.339	0.12
604.528	0.18
604.718	0.15
604.907	0.1
605.097	0.12
605.286	0.1
605.476	0.16
605.665	0.17
605.855	0.16
606.044	0.18
606.234	0.17
606.423	0.17
606.612	0.14
606.802	0.15
606.991	0.2
607.181	0.21
607.37	0.11
607.559	0.17
607.749	0.14
607.938	0.17
608.127	0.18
608.316	0.15
608.506	0.2
608.695	0.21
608.884	0.17
609.073	0.18
609.263	0.22
609.452	0.23
609.641	0.2
609.83	0.17
610.019	0.22
610.208	0.22
610.397	0.21
610.586	0.26
610.775	0.21
610.965	0.23
611.154	0.25
611.343	0.25
611.532	0.24
611.721	0.24
611.91	0.25
612.099	0.3
612.287	0.2
612.476	0.26
612.665	0.28
612.854	0.26
613.043	0.29
613.232	0.3
613.421	0.24
613.61	0.3
613.798	0.34
613.987	0.33
614.176	0.34
614.365	0.33
614.554	0.33
614.742	0.38
614.931	0.34
615.12	0.39
615.309	0.38
615.497	0.4
615.686	0.35
615.875	0.34
616.063	0.4
616.252	0.41
616.44	0.41
616.629	0.45
616.818	0.46
617.006	0.42
617.195	0.42
617.383	0.47
617.572	0.42
617.76	0.47
617.949	0.5
618.137	0.51
618.326	0.54
618.514	0.49
618.703	0.5
618.891	0.56
619.079	0.5
619.268	0.6
619.456	0.55
619.644	0.63
619.833	0.56
620.021	0.57
620.209	0.55
620.398	0.66
620.586	0.62
620.774	0.68
620.962	0.68
621.151	0.75
621.339	0.7
621.527	0.67
621.715	0.71
621.903	0.71
622.092	0.71
622.28	0.81
622.468	0.77
622.656	0.79
622.844	0.85
623.032	0.77
623.22	0.75
623.408	0.9
623.596	0.84
623.784	0.89
623.972	0.86
624.16	0.88
624.348	0.95
624.536	0.97
624.724	0.97
624.912	1.03
625.1	1.03
625.288	1.03
625.476	1.03
625.664	1.1
625.851	1.07
626.039	1.14
626.227	1.15
626.415	1.17
626.603	1.11
626.79	1.2
626.978	1.19
627.166	1.29
627.354	1.22
627.541	1.25
627.729	1.22
627.917	1.38
628.104	1.4
628.292	1.38
628.48	1.43
628.667	1.44
628.855	1.48
629.042	1.5
629.23	1.51
629.418	1.55
629.605	1.57
629.793	1.57
629.98	1.61
630.168	1.65
630.355	1.67
630.543	1.75
630.73	1.7
630.917	1.84
631.105	1.88
631.292	1.87
631.48	1.89
631.667	1.96
631.854	1.93
632.042	2.03
632.229	1.97
632.416	2.07
632.604	2.11
632.791	2.1
632.978	2.19
633.165	2.25
633.353	2.31
633.54	2.34
633.727	2.23
633.914	2.33
634.101	2.32
634.289	2.45
634.476	2.47
634.663	2.45
634.85	2.59
635.037	2.59
635.224	2.57
635.411	2.7
635.598	2.73
635.785	2.78
635.972	2.81
636.159	2.83
636.346	2.86
636.533	2.9
636.72	2.99
636.907	3.05
637.094	3.07
637.281	3.01
637.468	3.25
637.655	3.26
637.842	3.27
638.029	3.34
638.215	3.36
638.402	3.38
638.589	3.43
638.776	3.56
638.963	3.59
639.149	3.7
639.336	3.77
639.523	3.81
639.709	3.81
639.896	3.92
640.083	3.98
640.27	4.12
640.456	4.11
640.643	4.16
640.829	4.11
641.016	4.24
641.203	4.28
641.389	4.41
641.576	4.44
641.762	4.51
641.949	4.55
642.135	4.71
642.322	4.79
642.508	4.72
642.695	5.01
642.881	4.98
643.068	5.12
643.254	5.19
643.441	5.3
643.627	5.44
643.813	5.45
644	5.57
644.186	5.64
644.372	5.83
644.559	5.87
644.745	5.91
644.931	6.06
645.118	6.15
645.304	6.29
645.49	6.33
645.676	6.45
645.862	6.58
646.049	6.77
646.235	6.84
646.421	7.14
646.607	7.2
646.793	7.25
646.979	7.17
647.165	7.5
647.352	7.53
647.538	7.71
647.724	7.77
647.91	7.98
648.096	8.07
648.282	8.3
648.468	8.31
648.654	8.51
648.84	8.65
649.026	8.68
649.212	8.76
649.397	9
649.583	9.25
649.769	9.34
649.955	9.51
650.141	9.69
650.327	9.68
650.513	9.94
650.698	10.16
650.884	10.12
651.07	10.46
651.256	10.58
651.442	10.77
651.627	10.69
651.813	11.18
651.999	11.09
652.184	11.27
652.37	11.45
652.556	11.71
652.741	11.9
652.927	11.81
653.113	12.15
653.298	12.29
653.484	12.4
653.669	12.58
653.855	12.8
654.04	13.01
654.226	13.06
654.412	13.17
654.597	13.24
654.782	13.56
654.968	13.76
655.153	13.84
655.339	14
655.524	14.23
655.71	14.41
655.895	14.65
656.08	14.66
656.266	14.97
656.451	14.84
656.636	14.92
656.822	15.11
657.007	15.24
657.192	15.42
657.378	15.4
657.563	15.41
657.748	15.63
657.933	15.81
658.118	15.49
658.304	15.83
658.489	15.99
658.674	15.9
658.859	15.89
659.044	15.83
659.229	16.04
659.414	15.95
659.599	15.9
659.785	15.72
659.97	15.59
660.155	15.57
660.34	15.59
660.525	15.32
660.71	15.13
660.895	15.01
661.08	14.83
661.264	14.38
661.449	14.29
661.634	13.91
661.819	13.92
662.004	13.39
662.189	13.24
662.374	13.09
662.559	12.6
662.743	12.26
662.928	12.03
663.113	11.65
663.298	11.37
663.483	11.11
663.667	10.73
663.852	10.49
664.037	10.28
664.221	9.88
664.406	9.67
664.591	9.2
664.775	8.9
664.96	8.68
665.145	8.2
665.329	8.08
665.514	7.7
665.698	7.46
665.883	7.18
666.068	7.08
666.252	6.75
666.437	6.48
666.621	6.26
666.806	6.09
666.99	5.8
667.174	5.61
667.359	5.42
667.543	5.21
667.728	5.06
667.912	4.8
668.096	4.67
668.281	4.46
668.465	4.37
668.649	4.17
668.834	3.97
669.018	3.93
669.202	3.8
669.387	3.65
669.571	3.53
669.755	3.34
669.939	3.2
670.124	3.14
670.308	3.09
670.492	3.02
670.676	2.89
670.86	2.78
671.044	2.63
671.228	2.63
671.413	2.43
671.597	2.36
671.781	2.28
671.965	2.27
672.149	2.19
672.333	2.18
672.517	2
672.701	1.98
672.885	1.83
673.069	1.78
673.253	1.86
673.437	1.7
673.621	1.62
673.804	1.65
673.988	1.56
674.172	1.48
674.356	1.41
674.54	1.43
674.724	1.51
674.908	1.27
675.091	1.29
675.275	1.23
675.459	1.26
675.643	1.18
675.826	1.11
676.01	1.11
676.194	1.05
676.377	1.06
676.561	1.07
676.745	0.96
676.928	0.92
677.112	0.96
677.296	0.87
677.479	0.85
677.663	0.79
677.846	0.85
678.03	0.77
678.213	0.72
678.397	0.71
678.58	0.66
678.764	0.69
678.947	0.62
679.131	0.66
679.314	0.62
679.498	0.59
679.681	0.59
679.865	0.68
680.048	0.54
680.231	0.54
680.415	0.5
680.598	0.46
680.781	0.46
680.965	0.46
681.148	0.47
681.331	0.43
681.514	0.44
681.698	0.38
681.881	0.44
682.064	0.4
682.247	0.41
682.43	0.34
682.614	0.43
682.797	0.46
682.98	0.37
683.163	0.31
683.346	0.36
683.529	0.27
683.712	0.28
683.895	0.39
684.078	0.23
684.261	0.28
684.444	0.33
684.627	0.33
684.81	0.23
684.993	0.3
685.176	0.29
685.359	0.23
685.542	0.25
685.725	0.3
685.908	0.26
686.091	0.24
686.274	0.24
686.457	0.26
686.639	0.21
686.822	0.29
687.005	0.17
687.188	0.25
687.371	0.35
687.553	0.23
687.736	0.24
687.919	0.28
688.102	0.31
688.284	0.2
688.467	0.21
688.65	0.12
688.832	0.18
689.015	0.2
689.197	0.12
689.38	0.28
689.563	0.25
689.745	0.13
689.928	0.17
690.11	0.19
690.293	0.24
690.475	0.09
690.658	0.19
690.84	0.15
691.023	0.15
691.205	0.13
691.388	0.14
691.57	0.18
691.752	0.21
691.935	0.1
692.117	0.16
692.3	0.14
692.482	0.18
692.664	0.11
692.847	0.15
693.029	0.17
693.211	0.14
693.393	0.1
693.576	0.05
693.758	0.1
693.94	0.09
694.122	0.11
694.304	0.11
694.487	0.09
694.669	0.24
694.851	0.09
695.033	0.15
695.215	0.08
695.397	0.11
695.579	0.14
695.761	0.07
695.943	0.04
696.125	0.13
696.308	0.09
696.49	0.04
696.671	0.21
696.853	0.12
697.035	0.22
697.217	0.08
697.399	0.14
697.581	0.07
697.763	0.07
697.945	0.06
698.127	0.09
698.309	0.17
698.491	0.12
698.672	0.13
698.854	0.17
699.036	0.21
699.218	0.09
699.399	0.15
699.581	0.12
699.763	0.07
699.945	0.05
700.126	0.04
700.308	0.09
700.49	0.08
700.671	0.02
700.853	0.03
701.035	0.08
701.216	0.06
701.398	0.06
701.579	0.1
701.761	0.14
701.943	0.02
702.124	0.02
702.306	0.09
702.487	0.17
702.669	0.11
702.85	0.07
703.031	0.06
703.213	0.19
703.394	0.12
703.576	0.01
703.757	0.14
703.938	0.13
704.12	0.16
704.301	0.07
704.483	0.02
704.664	0.08
704.845	0.12
705.026	0.11
705.208	0.08
705.389	0.06
705.57	0.08
705.751	0
705.933	0.09
706.114	0.11
706.295	0.06
706.476	0.05
706.657	0.2
706.838	0.12
707.02	0.21
707.201	0.02
707.382	0.06
707.563	0.07
707.744	0.03
707.925	0.02
708.106	-0.02
708.287	0.05
708.468	0.13
708.649	0.1
708.83	0.14
709.011	0.09
709.192	0.11
709.373	-0
709.554	0.08
709.734	0.1
709.915	0.02
710.096	0.1
710.277	-0.01
710.458	0.11
710.639	0.09
710.819	-0.04
711	0.05
711.181	0.17
711.362	0.09
711.542	0.06
711.723	0.07
711.904	0.06
712.085	0.09
712.265	0.04
712.446	-0.02
712.627	0.01
712.807	0.04
712.988	0.09
713.168	-0.03
713.349	0.06
713.53	-0.06
713.71	-0.02
713.891	-0.04
714.071	0.11
714.252	-0.02
714.432	0.03
714.613	-0.1
714.793	0.08
714.974	0.06
715.154	0.11
715.334	0.12
715.515	0.12
715.695	0.02
715.876	0.03
716.056	0.04
716.236	0.07
716.417	0
716.597	0.05
716.777	0.24
716.957	0.06
717.138	0.07
717.318	0.09
717.498	-0.04
717.678	0.05
717.859	0.03
718.039	-0.04
718.219	0.05
718.399	0.09
718.579	0.04
718.759	-0.03
718.939	0.06
719.12	0.07
719.3	0.07
719.48	-0.04
719.66	-0.02
719.84	0.06
720.02	0.05
720.2	-0.05
720.38	0.07
720.56	0.13
720.74	0.06
720.92	0.05
721.1	0.19
721.279	0.09
721.459	0.01
721.639	-0.02
721.819	0.09
721.999	0
722.179	0.07
722.359	0.01
722.538	0.08
722.718	0.06
722.898	0.02
723.078	-0.02
723.257	0.02
723.437	0.08
723.617	0.03
723.797	-0.01
723.976	0.07
724.156	0.11
724.336	0.17
724.515	0.17
724.695	-0.06
724.874	0.06
725.054	0.11
725.234	0.02
725.413	0.08
725.593	0.1
725.772	0.09
725.952	-0.02
726.131	0
726.311	0.06
726.49	0.06
726.67	0.04
726.849	0.01
727.028	0.08
727.208	-0.02
727.387	0.09
727.567	-0.1
727.746	0.06
727.925	0.07
728.105	-0.01
728.284	0.03
728.463	-0.2
728.643	0.02
728.822	-0.04
729.001	0.02
729.18	0.06
729.359	0.14
729.539	0.08
729.718	0.02
729.897	0.08
730.076	-0.01
730.255	-0.04
730.434	0.11
730.614	0.07
730.793	0.06
730.972	0.05
731.151	0.05
731.33	0.08
731.509	0.07
731.688	0.08
731.867	0.07
732.046	-0.12
732.225	0.18
732.404	-0.03
732.583	-0.03
732.762	0.05
732.941	0.07
733.12	0.12
733.298	0.02
733.477	0.06
733.656	0.04
733.835	-0.03
734.014	0.08
734.193	0.03
734.371	0.1
734.55	0.19
734.729	-0.01
734.908	0.1
735.086	0.06
735.265	0.09
735.444	-0.04
735.623	-0.08
735.801	-0
735.98	0.05
736.159	-0.02
736.337	0.14
736.516	0.15
736.694	-0.05
736.873	-0.08
737.052	0.12
737.23	0.11
737.409	0.01
737.587	0.2
737.766	-0.11
737.944	-0.09
738.123	0.14
738.301	0.15
738.479	0.05
738.658	0.07
738.836	-0.13
739.015	0.23
739.193	0.12
739.371	0.01
739.55	0.03
739.728	0.05
739.906	0.09
740.085	0.21
740.263	-0.02
740.441	-0.16
740.62	0.17
740.798	0.14
740.976	-0
741.154	0.01
741.332	0.14
741.511	0.08
741.689	0.09
741.867	0.11
742.045	0.13
742.223	0.02
742.401	-0.06
742.579	-0
742.757	0.06
742.935	-0.1
743.114	-0.08
743.292	0.07
743.47	0.09
743.648	0.12
743.826	-0.08
744.004	0.21
744.181	0.11
744.359	0.04
744.537	0.04
744.715	0.1
744.893	0.1
745.071	0.04
745.249	0.06
745.427	-0.01
745.605	0.1
745.782	0.06
745.96	0.03
746.138	0.07
746.316	0.18
746.493	-0.03
746.671	0.05
746.849	0.06
747.027	0.13
747.204	0.06
747.382	0.08
747.56	-0.02
747.737	0.03
747.915	-0.02
748.093	0.06
748.27	-0.01
748.448	0.02
748.625	-0.02
748.803	0.01
748.98	-0.03
749.158	0.08
749.335	0.12
749.513	-0.02
749.69	0.07
749.868	0.04
750.045	0.03
750.223	-0.01
750.4	-0.16
750.578	0.21
750.755	0.01
750.932	-0.1
751.11	0.14
751.287	-0.03
751.464	0.09
751.642	0
751.819	0.13
751.996	0.04
752.173	0.06
752.351	-0.04
752.528	0.04
752.705	0.04
752.882	-0.08
753.06	0.07
753.237	0.09
753.414	0.23
753.591	0.25
753.768	0.02
753.945	0.02
754.122	0.07
754.299	0
754.476	-0.08
754.654	-0.04
754.831	0.14
755.008	0.09
755.185	0.05
755.362	0.03
755.539	0.11
755.716	-0.02
755.892	0.06
756.069	0.11
756.246	-0.07
756.423	0.06
756.6	0.2
756.777	0.03
756.954	0.17
757.131	0.08
757.307	-0.05
757.484	-0.08
757.661	0.06
757.838	0.03
758.015	-0.01
758.191	0.14
758.368	0.09
758.545	0.14
758.721	-0.07
758.898	-0.06
759.075	0.11
759.251	0.15
759.428	-0.03
759.605	-0.19
759.781	0.03
759.958	-0
760.134	0.19
760.311	-0.09
760.488	0.07
760.664	0.09
760.841	0
761.017	-0.06
761.194	0.09
761.37	0.22
761.547	0.19
761.723	0.03
761.899	0.23
762.076	-0.11
762.252	-0.09
762.429	-0.06
762.605	-0
762.781	-0.01
762.958	0.12
763.134	-0.04
763.31	-0.07
763.486	0.05
763.663	-0.14
763.839	0
764.015	-0.13
764.191	-0.01
764.368	-0
764.544	-0.04
764.72	0.04
764.896	0.05
765.072	0.07
765.248	-0.03
765.425	-0.13
765.601	-0.03
765.777	0.12
765.953	-0.16
766.129	0.11
766.305	-0.05
766.481	0.2
766.657	0.16
766.833	0.22
767.009	-0.12
767.185	0.08
767.361	0.03
767.537	-0.15
767.713	0.11
767.889	-0.06
768.065	0.15
768.24	-0.24
768.416	0.1
768.592	-0.07
768.768	-0.01
768.944	-0.05
769.12	-0.19
769.295	0.01
769.471	-0.03
769.647	0.03
769.823	0.14
769.998	-0.04
770.174	-0.06
770.35	0.27
770.525	0.21
770.701	0.04
770.877	-0.02
771.052	-0.11
771.228	0.1
771.403	0.19
771.579	0.1
771.755	0.37
771.93	-0
772.106	-0.13
772.281	-0.3
772.457	0.08
772.632	0.05
772.808	-0.13
772.983	0.05
773.159	-0.04
773.334	0.02
773.509	-0.13
773.685	-0.08
773.86	0.27
774.036	0.23
774.211	-0
774.386	0.1
774.562	0.09
774.737	0.27
774.912	0.03
775.087	0.15
775.263	0.04
775.438	0.07
775.613	-0.09
775.788	0.01
775.964	0.23
776.139	0.43
776.314	-0.15
776.489	0.14
776.664	0.05
776.839	-0.07
777.014	0.08
777.19	0.17
777.365	0.15
777.54	0.3
777.715	-0.05
777.89	0.04
778.065	-0.07
778.24	0.02
778.415	0.13
778.59	-0.08
778.765	-0.16
778.94	0.2
779.115	0.04
779.289	0.12
779.464	0.03
779.639	0.01
779.814	-0.11
779.989	-0.14
780.164	0.24
780.339	0.01
780.513	-0.07
780.688	-0.09
780.863	0.04
781.038	0.28
781.212	-0.07
781.387	0.13
781.562	0.38
781.737	-0.09
781.911	0.26
782.086	-0.07
782.261	0.13
782.435	0.27
782.61	-0.1
782.784	-0.1
782.959	0
783.134	-0.15
783.308	-0.17
783.483	0.02
783.657	0.49
783.832	0.26
784.006	-0.32
784.181	-0.01
784.355	0.3
784.53	-0.16
784.704	-0.11
784.878	0.43
785.053	0.14
785.227	0.27
785.402	0.32
785.576	-0.2
785.75	0.13
785.925	0.03
786.099	0.06
786.273	0.09
786.448	0.16
786.622	0.3
786.796	0.05
786.97	0.02
787.145	0.62
787.319	-0.23
787.493	-0.13
787.667	-0.28
787.841	0.02
788.015	0.25
788.19	0.03
788.364	-0.02
788.538	0.1
788.712	0.31
788.886	0.06
789.06	0.21
789.234	0.2
789.408	-0.2
789.582	0.15
789.756	-0.01
789.93	0.05
790.104	-0.13
790.278	-0.13
790.452	-0.16
790.626	0.17
790.8	-0.02
790.973	0.17
791.147	0.31
791.321	0.1
791.495	0.28
791.669	-0.05
791.843	-0.07
792.016	-0.01
792.19	0.35
792.364	-0.12
792.538	0.52
792.711	0.43
792.885	0.02
793.059	-0.23
793.233	-0.36
793.406	0.22
793.58	0.18
793.754	0.13
793.927	0.2
794.101	0.43
794.274	0.05
794.448	0.19
794.622	-0.36
794.795	0.39
794.969	-0.11
795.142	0.25
795.316	-0.02
795.489	-0.19
795.663	0.25
795.836	-0.12
796.009	-0.1
796.183	0.43
796.356	0.03
796.53	0.06
796.703	0.05
796.876	0.6
797.05	-0.17
797.223	0.12
797.396	0.06
797.57	0.27
797.743	0.33
797.916	0.1
798.09	0.27
798.263	0.26
798.436	0.04
798.609	-0.03
798.782	-0.1
798.956	0.13
799.129	0.11
799.302	0.14
799.475	0.06
799.648	-0.06
799.821	-0.1
799.994	0.26
800.167	-0.17
800.34	0.03
800.514	-0.06
800.687	-0.27
800.86	0.2
801.033	0.02
801.206	0.3
801.379	-0.12
801.551	0.18
801.724	0.38
801.897	0.42
802.07	0.09
802.243	-0.57
802.416	0.13
802.589	0.14
802.762	0.39
802.935	0.02
803.107	0.49
803.28	0.43
803.453	0.4
803.626	-0.11
803.798	0.11
803.971	0.11
804.144	0.07
804.317	0.07
804.489	0.3
804.662	0.24
804.835	0.21
805.007	-0.29
805.18	0.44
805.353	0.45
805.525	-0.16
805.698	-0.31
805.87	0.28
806.043	0.35
806.215	-0.09
806.388	-0.1
806.56	0.23
806.733	0.41
806.905	0.39
807.078	-0.08
807.25	-0.01
807.423	0.07
807.595	0.37
807.768	0.09
807.94	0.32
808.112	-0.07
808.285	0.08
808.457	0.07
808.629	-0.17
808.802	0.24
808.974	-0.02
809.146	-0.31
809.318	-0.39
809.491	0.21
809.663	0.15
809.835	-0.21
810.007	0.19
810.18	0.08
810.352	-0.17
810.524	-0.04
810.696	0.11
810.868	0.51
811.04	-0.08
811.212	-0.02
811.384	0.45
811.556	-0.03
811.728	0.1
811.901	1.14
812.073	0.06
812.245	0.1
812.417	0.14
812.589	-0.35
812.76	-0.02
812.932	0.38
813.104	0.31
813.276	0.06
813.448	0.44
813.62	0.13
813.792	0.31
813.964	0.16
814.136	-0
814.307	-0.03
814.479	-0.42
814.651	0.03
814.823	0.61
814.995	0.37
815.166	0
815.338	-0.22
815.51	-0.61
815.681	0.82
815.853	0.26
816.025	-0.13
816.196	0.52
816.368	0.56
816.54	0.02
816.711	0.22
816.883	0.12
817.054	0.99
817.226	-0.58
817.398	0
817.569	0.06
817.741	-0.04
817.912	0.32
818.084	0.28
818.255	0.47
818.426	-0.17
818.598	0.04
818.769	-0.25
818.941	0.32
819.112	0.67
819.283	0.45
819.455	-0.44
819.626	0.24
819.798	0.44
819.969	0.71
820.14	0.22
820.311	-0.54
820.483	0.4
820.654	0.01
820.825	0
820.996	-0.09
821.168	-0.5
821.339	-0.12
821.51	0
821.681	-0.32
821.852	0.47
822.023	-0.39
822.195	-0.48
822.366	0.49
822.537	-0.1
822.708	0.02
822.879	0.06
823.05	0.74
823.221	0.14
823.392	0.39
823.563	-0.01
823.734	-0.02
823.905	0.04
824.076	-0.35
824.247	-0.73
824.418	-0.16
824.589	0.5
824.759	0.01
824.93	-0.29
825.101	-0.3
825.272	0.33
825.443	0.74
825.614	0.24
825.784	-0.94
825.955	1.38
826.126	1.22
826.297	0.1
826.467	0.73
826.638	0.24
826.809	-0.43
826.98	0.66
827.15	0.45
827.321	0.16
827.492	0.85
827.662	-0.54
827.833	1.38
828.003	0.31
828.174	-0.86
828.345	-0.34
828.515	0.68
828.686	0.06
828.856	-0.28
829.027	0.61
829.197	0.38
829.368	0.28
829.538	-0.07
829.709	-0.01
829.879	0.64
830.049	0.06
830.22	-0.37
830.39	-0.1
830.56	1.23
830.731	-0.03
830.901	-0.43
831.072	0.21
831.242	0.57
831.412	-0.07
831.582	-0.08
831.753	-0.6
831.923	0.55
832.093	0.36
832.263	-0.09
832.434	-0.36
832.604	0.23
832.774	0.73
832.944	0
833.114	0.26
833.284	0.52
833.454	0.03
833.624	-0.23
833.795	-0.34
833.965	0.73
834.135	0.22
834.305	-0.89
834.475	-0.46
834.645	0.27
834.815	-0.26
834.985	0.05
835.155	-0
835.325	0.46
835.494	0.46
835.664	-0.34
835.834	-0.46
836.004	0.43
836.174	0.49
836.344	0.09
836.514	-0.85
836.684	-0.41
836.853	0.33
837.023	0.58
837.193	-0.09
837.363	1.1
837.532	1.11
837.702	0.01
837.872	-0.85
838.041	0.73
838.211	1.58
838.381	-0.68
838.55	0.78
838.72	0.91
838.89	1.45
839.059	-0.41
839.229	-0.59
839.398	1.11
839.568	0.06
839.738	-0.09
839.907	1.35
840.077	0.17
840.246	-0.71
840.416	0
840.585	0.24
840.755	1.56
840.924	0.57
841.093	-0.57
841.263	-0.48
841.432	0.58
841.602	-0.9
841.771	-0.48
841.94	0.33
842.11	1.55
842.279	1.62
842.448	-0.86
842.617	-0.93
842.787	0.52
842.956	-0.62
843.125	-0.09
843.294	0.12
843.464	0.94
843.633	0.22
843.802	-1.49
843.971	-0.29
844.14	0.6
844.309	1.19
844.479	-0.24
844.648	0.17
844.817	0.41
844.986	0.74
845.155	-0.72
845.324	-0.32
845.493	0.28
845.662	-0.6
845.831	1.32
846	0.16
846.169	-0.36
846.338	1.5
846.507	0.47
846.676	0.96
846.844	-0.42
847.013	0.26
847.182	-0.22
847.351	0.09
847.52	0.24
847.689	0.32
847.858	0.46
848.026	0.78
848.195	0.15
848.364	-0.71
848.533	-0.56
848.701	-0.74
848.87	1.02
849.039	1.05
849.207	0.78
849.376	1.15
849.545	1.19
849.713	-0.47
849.882	-0.12
850.051	0.58
850.219	0.47
850.388	0.75
850.556	-0.72
850.725	-0.96
850.893	0.93
851.062	-0.24
851.23	0.57
851.399	-0.8
851.567	-0.81
851.736	0.37
851.904	-0.75
852.073	0.85
852.241	0.95
852.41	-0.19
852.578	-0.67
852.746	0.54
852.915	0.38
853.083	1.15
853.251	-1.72
853.42	0.02
853.588	0.94
853.756	2.02
853.924	-0.34
854.093	-0.3
854.261	-0.54
854.429	-0.92
854.597	0.78
854.765	-0.71
854.934	0.62
855.102	1.64
855.27	-0.26
855.438	0.63
855.606	1.98
855.774	1.94
855.942	-2.06
856.11	-1.47
856.278	-0.2
856.446	1.8
856.614	0.33
856.782	-0.98
856.95	1.19
857.118	0.44
857.286	0.12
857.454	-1.69
857.622	0.56
857.79	0.92
857.958	-0.56
858.126	0.9
858.294	-2.07
858.462	-0.12
858.629	-0.06
858.797	-0.95
858.965	0.02
859.133	-0.46
859.301	0.5
859.468	0.88
859.636	-0.76
859.804	0.55
859.971	1.45
860.139	-0.81
860.307	1.64
860.474	0.19
860.642	-0.21
860.81	-0.55
860.977	-1.44
861.145	0.84
861.313	-1.07
861.48	0.23
861.648	0.26
861.815	0.9
861.983	-0.96
862.15	0.19
862.318	0.44
862.485	1.53
862.653	-1.24
862.82	0.76
862.988	2.68
863.155	0.88
863.322	-1.51
863.49	-1.18
863.657	-1.91
863.824	1.6
863.992	1.36
864.159	0.91
864.326	0.75
864.494	0.12
864.661	0.91
864.828	-0.58
864.996	1.06
865.163	1.87
865.33	-0.28
865.497	-1.92
865.664	-0.18
865.832	-2.32
865.999	1.06
866.166	-0.58
866.333	0.43
866.5	-1.4
866.667	-0.1
866.834	-0.1
867.001	2.41
867.168	-1.51
867.335	-0.15
867.502	-1.12
867.669	0.65
867.836	3.14
868.003	0.73
868.17	-0.18
868.337	1.88
868.504	2.49
868.671	-0.6
868.838	-1.79
869.005	0.64
869.172	0.34
869.339	0.29
869.505	-0.12
869.672	0.14
869.839	1.52
870.006	0.14
870.173	-0.86
870.339	0.36
870.506	2.95
870.673	0.86
870.84	1.27
871.006	1.29
871.173	0.9
871.34	0.07
871.506	-0.68
871.673	1.11
871.839	-1.51
872.006	0.39
872.173	-0.14
872.339	-0.68
872.506	1.83
872.672	0.39
872.839	-2.75
873.005	-1.01
873.172	1.41
873.338	2.41
873.505	1.47
873.671	-1.12
873.838	2.14
874.004	-3.78
874.171	-0.62
874.337	0.18
874.503	0.96
874.67	0.08
874.836	-2.32
875.002	1.82
875.169	2.01
875.335	0.17
875.501	-1.04
875.668	1.33
875.834	0.19
876	0.61
876.166	2.12
876.332	0.17
876.499	2.55
876.665	-1.26
876.831	0.52
876.997	2.85
877.163	0.91
877.329	-0.9
877.495	0.61
877.662	1.35
877.828	1.82
877.994	0.07
878.16	-3.67
878.326	0.45
878.492	0.01
878.658	-0.16
878.824	0.53
878.99	2.45
879.156	-0.25
879.322	3.91
879.487	-0.03
879.653	1.19
879.819	0.79
879.985	-1.48
880.151	0.46
880.317	1.94
880.483	0.09
880.648	1.08
880.814	-1.22
880.98	0.7
881.146	-1.06
881.312	-1.02
881.477	-0.06
881.643	2.17
881.809	2.1
881.974	3.51
882.14	-1.04
882.306	0.48
882.471	2.89
882.637	-0.18
882.803	2.56
882.968	3.04
883.134	2.37
883.299	-0.36
883.465	-1.3
883.63	1.48
883.796	2.21
883.961	0.35
884.127	0.33
884.292	-3.29
884.458	-0.88
884.623	-0.87
