Data from Apollo_Calib_20240827__AbsoluteIrradiance__658__10-07-00-861.txt Node

Date: Wed Aug 28 10:07:00 BST 2024
User: biology
Spectrometer: FLMT08252
Trigger mode: 0
Integration Time (sec): 5.000000E-1
Scans to average: 5
Electric dark correction enabled: true
Nonlinearity correction enabled: false
Boxcar width: 0
XAxis mode: Wavelengths
Number of Pixels in Spectrum: 3648
>>>>>Begin Spectral Data<<<<<
179.588	-0
179.809	-0
180.03	-0
180.251	-0
180.473	-0
180.694	0
180.915	0
181.136	-0
181.357	0
181.578	-0
181.799	0
182.02	-0
182.241	-0
182.462	-0
182.683	0
182.904	-0
183.125	-0
183.346	0
183.567	0
183.788	-0
184.009	-0
184.23	0
184.451	0
184.672	-0
184.892	-0
185.113	0
185.334	0
185.555	-0
185.776	0
185.996	0
186.217	0
186.438	0
186.659	-0
186.879	0
187.1	0
187.321	-0
187.541	0
187.762	0
187.983	0
188.203	0
188.424	0
188.644	-0
188.865	0
189.086	0
189.306	-0
189.527	0
189.747	0
189.968	-0
190.188	0
190.409	-0
190.629	0
190.849	-0
191.07	0
191.29	0
191.511	0
191.731	0
191.951	0
192.172	0
192.392	0
192.612	0
192.833	0
193.053	0
193.273	0
193.493	0
193.714	0
193.934	0
194.154	0
194.374	0
194.594	0
194.815	0
195.035	0
195.255	0
195.475	-0
195.695	0
195.915	0
196.135	0
196.355	0
196.575	0
196.795	0
197.015	-0
197.235	-0
197.455	0
197.675	0
197.895	-0
198.115	-0
198.335	0
198.555	0
198.775	0
198.995	0
199.214	0
199.434	0
199.654	0
199.874	-0
200.094	1.35
200.313	0.12
200.533	0.07
200.753	-0.35
200.973	1.06
201.192	1.15
201.412	-0.41
201.632	-0.19
201.851	0.92
202.071	-0.29
202.291	0.17
202.51	-0.45
202.73	0.79
202.95	0.13
203.169	-0.35
203.389	0.24
203.608	0.53
203.828	-0.17
204.047	-0.09
204.267	0.62
204.486	0.31
204.706	0.58
204.925	0.23
205.145	-0.06
205.364	0.75
205.583	0.75
205.803	0.1
206.022	-0.24
206.242	0.25
206.461	-0.11
206.68	-0.09
206.9	0.22
207.119	0.73
207.338	0.55
207.557	-0.25
207.777	0.19
207.996	0.03
208.215	0.62
208.434	-0.17
208.654	0.04
208.873	0.53
209.092	0.69
209.311	0.13
209.53	-0.01
209.749	0.24
209.968	-0.1
210.187	-0.07
210.407	-0.12
210.626	-0.03
210.845	0.44
211.064	0.54
211.283	-0.04
211.502	0.44
211.721	0.44
211.94	-0
212.159	0.35
212.377	0.33
212.596	0.52
212.815	0.25
213.034	0.37
213.253	0.42
213.472	0.13
213.691	-0.1
213.91	0.12
214.128	-0.04
214.347	0.37
214.566	-0.26
214.785	-0.29
215.003	0.25
215.222	0.37
215.441	-0.04
215.66	0.02
215.878	0.17
216.097	0.25
216.316	-0.01
216.534	-0.13
216.753	0.1
216.972	0.03
217.19	0.11
217.409	-0.03
217.627	0.05
217.846	0.03
218.064	0.1
218.283	-0.09
218.501	0.44
218.72	0.24
218.938	0.05
219.157	0.02
219.375	0.23
219.594	0.3
219.812	-0.02
220.031	-0.22
220.249	0.52
220.467	0.44
220.686	-0.1
220.904	0.05
221.122	-0.13
221.341	0.4
221.559	0.2
221.777	-0.1
221.995	-0.03
222.214	0.19
222.432	-0.03
222.65	0.27
222.868	0.19
223.086	0.2
223.305	0.22
223.523	0.09
223.741	0.39
223.959	-0.09
224.177	-0.22
224.395	-0
224.613	0.24
224.831	0.2
225.049	-0.03
225.267	-0.05
225.485	0.04
225.703	0.12
225.921	0.02
226.139	-0.03
226.357	0.28
226.575	0.14
226.793	-0.02
227.011	0.65
227.229	0.04
227.447	0.16
227.665	-0.04
227.883	-0.25
228.1	0.08
228.318	0.1
228.536	-0.11
228.754	-0.09
228.972	0.2
229.189	0.21
229.407	-0.05
229.625	0
229.843	0.23
230.06	0.17
230.278	-0.04
230.496	0
230.713	0.12
230.931	0.2
231.149	0.01
231.366	-0.01
231.584	-0.01
231.801	0.4
232.019	0.05
232.236	0.02
232.454	-0.09
232.671	0.05
232.889	0.1
233.106	-0.15
233.324	-0.02
233.541	0.05
233.759	0.09
233.976	-0.04
234.194	0.07
234.411	0.25
234.628	-0.03
234.846	0.01
235.063	-0.08
235.28	0
235.498	0.04
235.715	-0.01
235.932	0.13
236.149	0.05
236.367	-0.03
236.584	-0.04
236.801	-0.1
237.018	0.2
237.236	-0
237.453	-0.1
237.67	0.18
237.887	0.06
238.104	-0.03
238.321	-0.08
238.538	-0.01
238.755	0.17
238.973	0.01
239.19	0.01
239.407	0.12
239.624	0.11
239.841	-0.07
240.058	-0.05
240.275	0.03
240.492	-0.03
240.709	0.05
240.925	-0.01
241.142	0.06
241.359	-0.05
241.576	-0.03
241.793	-0.01
242.01	0.09
242.227	0.12
242.444	0.12
242.66	0.13
242.877	0.1
243.094	0.08
243.311	0.06
243.527	-0.03
243.744	0.14
243.961	0.18
244.178	-0.03
244.394	0.03
244.611	0.13
244.828	0.23
245.044	-0.03
245.261	-0
245.477	0.05
245.694	0.05
245.911	-0.04
246.127	0.09
246.344	0.18
246.56	0.13
246.777	0.06
246.993	0.03
247.21	0.08
247.426	0.07
247.643	0.08
247.859	-0.13
248.076	0
248.292	0.19
248.508	0.04
248.725	0.14
248.941	0.16
249.157	0.23
249.374	0.02
249.59	0.02
249.806	0.04
250.023	0.09
250.239	-0.03
250.455	-0.07
250.671	0.08
250.888	0.12
251.104	0.09
251.32	0.06
251.536	0.06
251.752	-0.02
251.969	0.09
252.185	0.07
252.401	0.22
252.617	0.08
252.833	0.02
253.049	0.03
253.265	0.09
253.481	0.08
253.697	-0.02
253.913	-0.06
254.129	0.07
254.345	0.09
254.561	0.02
254.777	0.02
254.993	0.15
255.209	0.11
255.425	0.03
255.641	-0.03
255.857	0.12
256.073	0.01
256.288	-0.01
256.504	-0
256.72	-0.07
256.936	0.19
257.152	0.05
257.367	0.01
257.583	0.05
257.799	0.16
258.015	-0.01
258.23	-0.01
258.446	0.22
258.662	0
258.877	-0.01
259.093	0.02
259.309	0.07
259.524	0.03
259.74	0
259.955	-0.08
260.171	0.08
260.387	-0.03
260.602	0.14
260.818	0.09
261.033	-0.01
261.249	0.01
261.464	0
261.68	0
261.895	0.04
262.11	0.08
262.326	-0.02
262.541	-0.05
262.757	0.13
262.972	0.04
263.187	0.12
263.403	0.01
263.618	0.08
263.833	0.02
264.049	-0.06
264.264	-0.01
264.479	0.12
264.694	0.2
264.91	-0.02
265.125	0.02
265.34	0.11
265.555	0.15
265.77	0.07
265.986	0
266.201	0.04
266.416	0.13
266.631	0.03
266.846	0.08
267.061	0.03
267.276	0.08
267.491	-0.08
267.706	0.03
267.921	0.05
268.136	0.01
268.351	0.03
268.566	-0.07
268.781	0.1
268.996	0.09
269.211	0.04
269.426	0.02
269.641	-0.01
269.856	0.09
270.071	-0.03
270.285	-0.07
270.5	0.14
270.715	0.14
270.93	0.09
271.145	0.07
271.359	0.07
271.574	-0
271.789	0.02
272.004	-0.03
272.218	0.03
272.433	0.1
272.648	0.02
272.862	0.09
273.077	0.07
273.292	0.07
273.506	0
273.721	0.08
273.936	0.08
274.15	0.07
274.365	-0
274.579	0.07
274.794	0.04
275.008	0.11
275.223	-0.04
275.437	-0
275.652	0.08
275.866	0.05
276.081	0.05
276.295	0.09
276.509	-0
276.724	0.02
276.938	0.02
277.153	0.02
277.367	0.05
277.581	0
277.796	0.01
278.01	0
278.224	0.07
278.438	0.16
278.653	-0.05
278.867	0.05
279.081	-0.15
279.295	0.02
279.51	0.06
279.724	-0.07
279.938	0.11
280.152	0.05
280.366	0.01
280.58	0.09
280.794	0.09
281.008	0.01
281.222	0.1
281.437	0.16
281.651	0.07
281.865	0.07
282.079	0
282.293	-0.05
282.507	0.04
282.721	-0.01
282.935	0.02
283.148	-0.06
283.362	-0.03
283.576	-0.03
283.79	-0.01
284.004	-0.02
284.218	0.1
284.432	0.04
284.646	0.03
284.859	0.02
285.073	0.06
285.287	0.03
285.501	0.04
285.714	0.06
285.928	0.09
286.142	-0.01
286.356	0.01
286.569	-0.03
286.783	0.08
286.997	0.11
287.21	0.05
287.424	0.04
287.637	-0.02
287.851	0.04
288.065	0.08
288.278	0.03
288.492	0.02
288.705	0.03
288.919	0.05
289.132	-0.04
289.346	0.09
289.559	-0.03
289.773	0.01
289.986	0.05
290.2	0.06
290.413	0.1
290.626	-0.01
290.84	-0
291.053	0.03
291.267	0.13
291.48	0.04
291.693	0.01
291.906	0.03
292.12	0.01
292.333	-0.02
292.546	-0
292.76	0.11
292.973	0.04
293.186	0.03
293.399	0
293.612	0.04
293.826	-0.05
294.039	0.03
294.252	0.01
294.465	0.06
294.678	0.07
294.891	0.05
295.104	0.03
295.317	0.03
295.53	-0.02
295.743	0
295.956	0.07
296.169	0.09
296.382	0.06
296.595	0.01
296.808	-0.01
297.021	0.08
297.234	0.06
297.447	0.02
297.66	0.04
297.873	0.1
298.086	0.09
298.299	-0.01
298.511	-0.04
298.724	0.01
298.937	-0.05
299.15	0
299.363	0
299.575	0.08
299.788	0.06
300.001	0.01
300.213	-0.03
300.426	0.06
300.639	0.04
300.852	0.02
301.064	0.06
301.277	0.08
301.489	0.12
301.702	0.08
301.915	0.07
302.127	0.01
302.34	0.03
302.552	0.08
302.765	-0
302.977	0.08
303.19	0.05
303.402	0.03
303.615	0.01
303.827	-0.02
304.04	0.02
304.252	0.04
304.464	-0.01
304.677	0.13
304.889	0.09
305.102	-0.01
305.314	0.02
305.526	0.1
305.739	0.08
305.951	-0.03
306.163	0
306.375	0.1
306.588	0.01
306.8	0.01
307.012	-0.05
307.224	0.02
307.436	0.12
307.649	-0.08
307.861	0.04
308.073	0.09
308.285	-0.02
308.497	0
308.709	0.02
308.921	0.03
309.133	0.05
309.346	0.01
309.558	-0
309.77	0.08
309.982	0.07
310.194	0.03
310.406	-0.01
310.617	0.14
310.829	-0.01
311.041	0.03
311.253	-0.02
311.465	0
311.677	0.01
311.889	0.01
312.101	0.01
312.313	0.08
312.524	0.1
312.736	-0.06
312.948	0.01
313.16	0.11
313.372	0.07
313.583	0.03
313.795	-0.02
314.007	-0.02
314.218	0.02
314.43	0
314.642	-0.04
314.853	-0.05
315.065	0.04
315.277	0.05
315.488	0.04
315.7	0.04
315.912	0.07
316.123	0.02
316.335	0.05
316.546	0.16
316.758	-0.01
316.969	0.02
317.181	0.05
317.392	0.06
317.604	0.06
317.815	-0.03
318.026	-0
318.238	0
318.449	0.07
318.661	-0.04
318.872	-0.04
319.083	0.01
319.295	0.05
319.506	-0.01
319.717	0.03
319.929	0.04
320.14	0.04
320.351	0.04
320.562	0.02
320.774	0.05
320.985	0.01
321.196	-0.02
321.407	-0.02
321.618	0.02
321.829	0.09
322.041	0.08
322.252	0.04
322.463	0.07
322.674	0.07
322.885	-0.05
323.096	0.04
323.307	-0
323.518	0.05
323.729	-0.02
323.94	-0.07
324.151	-0
324.362	0.02
324.573	0.06
324.784	-0.02
324.995	0.06
325.206	0.06
325.417	-0.01
325.628	-0
325.838	0.02
326.049	0.02
326.26	0.06
326.471	0
326.682	0.07
326.892	0.05
327.103	-0.05
327.314	-0.02
327.525	0.02
327.735	0
327.946	0.03
328.157	0
328.368	0.05
328.578	-0.03
328.789	0.05
328.999	0.05
329.21	0.04
329.421	0.08
329.631	0.01
329.842	-0
330.052	0.07
330.263	0.06
330.473	0.07
330.684	0.03
330.894	0.03
331.105	0.04
331.315	0
331.526	-0.06
331.736	0.08
331.947	0.08
332.157	0.05
332.367	-0.02
332.578	0.03
332.788	0.12
332.999	0.09
333.209	-0.01
333.419	-0.01
333.629	0.06
333.84	0.06
334.05	0.02
334.26	0.1
334.47	-0
334.681	0.08
334.891	0
335.101	0.05
335.311	0.11
335.521	0.02
335.732	-0.02
335.942	0.1
336.152	0.06
336.362	0.05
336.572	0.04
336.782	0.08
336.992	-0.02
337.202	-0.01
337.412	0.02
337.622	0.07
337.832	0.02
338.042	0.03
338.252	-0
338.462	-0.01
338.672	0.01
338.882	0.03
339.092	0.03
339.302	0.13
339.511	0.06
339.721	-0.01
339.931	-0.01
340.141	0.07
340.351	0.07
340.561	0.04
340.77	0.03
340.98	-0
341.19	0.09
341.4	0.03
341.609	0
341.819	-0.01
342.029	-0.03
342.238	0.01
342.448	-0.04
342.658	0.04
342.867	0.09
343.077	0.04
343.286	0.04
343.496	0.04
343.706	0.09
343.915	-0
344.125	0.05
344.334	0.03
344.544	-0.07
344.753	0.02
344.963	-0.01
345.172	0.03
345.381	-0.01
345.591	-0.02
345.8	-0.01
346.01	0.06
346.219	0.07
346.428	-0.01
346.638	0.01
346.847	-0.03
347.056	0.07
347.266	0.05
347.475	0.02
347.684	0.05
347.893	0.06
348.103	0.05
348.312	0.02
348.521	-0.02
348.73	0.04
348.94	0.05
349.149	0.01
349.358	-0.02
349.567	0
349.776	-0.04
349.985	-0.02
350.194	0.06
350.403	0.06
350.612	-0.01
350.821	0.01
351.03	0.03
351.239	-0.02
351.448	0
351.657	-0
351.866	0.07
352.075	0.02
352.284	0.02
352.493	-0.05
352.702	0.08
352.911	0.03
353.12	-0.01
353.329	0.03
353.538	0.06
353.746	0.02
353.955	0
354.164	0.07
354.373	0.02
354.582	0.05
354.79	0.03
354.999	0.06
355.208	0.02
355.416	0.09
355.625	-0
355.834	0.05
356.042	0.02
356.251	-0.01
356.46	0.03
356.668	0.04
356.877	0.1
357.085	0.08
357.294	-0.04
357.503	0.04
357.711	0.04
357.92	0.13
358.128	0.06
358.337	0.02
358.545	0.02
358.754	-0.02
358.962	0.08
359.17	-0.02
359.379	0.04
359.587	0.05
359.796	0.02
360.004	0.05
360.212	0.04
360.421	0.07
360.629	0.02
360.837	0.01
361.046	0.09
361.254	0.09
361.462	0.02
361.67	0.03
361.879	0.03
362.087	0.05
362.295	-0.01
362.503	-0.02
362.711	-0.03
362.92	0.02
363.128	-0.01
363.336	-0.01
363.544	-0.01
363.752	0.01
363.96	-0.06
364.168	0.03
364.376	0.03
364.584	0.02
364.792	0.04
365	0.07
365.208	0.04
365.416	0.04
365.624	0.07
365.832	-0.03
366.04	0.05
366.248	0
366.456	0.02
366.664	0.04
366.872	0
367.079	0.02
367.287	0.04
367.495	0.01
367.703	0.02
367.911	0.02
368.118	-0.01
368.326	0
368.534	0.01
368.742	0.08
368.949	-0.05
369.157	0.01
369.365	0.04
369.572	-0.02
369.78	0.02
369.988	0.07
370.195	0.05
370.403	0.03
370.61	0.02
370.818	0.02
371.026	0.07
371.233	0.02
371.441	0.04
371.648	0.01
371.856	0.04
372.063	0.01
372.271	0.01
372.478	-0.03
372.685	0
372.893	0.04
373.1	-0.01
373.308	0.03
373.515	0.08
373.722	0.08
373.93	-0
374.137	0.06
374.344	0.07
374.552	0.06
374.759	0.07
374.966	0.07
375.173	0.02
375.381	0.07
375.588	0.03
375.795	-0.04
376.002	-0
376.209	-0.04
376.417	0.01
376.624	0.02
376.831	0.03
377.038	0.03
377.245	-0.04
377.452	-0.01
377.659	-0.01
377.866	-0
378.073	0.01
378.28	0.04
378.487	0.05
378.694	0.05
378.901	0.03
379.108	0.01
379.315	0.06
379.522	0.09
379.729	0.04
379.936	0.01
380.143	0.05
380.35	0
380.557	-0
380.763	0.04
380.97	-0.02
381.177	-0.02
381.384	0.05
381.591	-0.01
381.797	0
382.004	0.03
382.211	0.05
382.418	0.02
382.624	0.06
382.831	0.06
383.038	0.04
383.244	0.01
383.451	0
383.658	0.04
383.864	-0.03
384.071	-0.01
384.277	0.09
384.484	-0.02
384.69	0.05
384.897	0.02
385.103	0
385.31	-0.01
385.516	0.01
385.723	0
385.929	0
386.136	-0.02
386.342	0.02
386.549	-0
386.755	0.09
386.961	0.05
387.168	-0.02
387.374	0.06
387.58	0.08
387.787	0.05
387.993	0.02
388.199	0.03
388.406	-0.01
388.612	0.05
388.818	0.02
389.024	0.01
389.231	0.03
389.437	0.07
389.643	0.05
389.849	-0.02
390.055	0.04
390.261	0.04
390.467	0.05
390.674	0.01
390.88	-0.01
391.086	0.02
391.292	0
391.498	0.06
391.704	0.05
391.91	0
392.116	0.01
392.322	-0.05
392.528	-0.01
392.734	-0.01
392.94	0.02
393.146	-0.01
393.352	-0.03
393.557	0.05
393.763	0.03
393.969	0.05
394.175	0.02
394.381	0.06
394.587	-0.01
394.792	0.03
394.998	0.04
395.204	0.08
395.41	0.02
395.615	0.04
395.821	0.05
396.027	0.02
396.233	-0.01
396.438	0.03
396.644	0.06
396.85	0.08
397.055	-0
397.261	0.03
397.466	0.08
397.672	-0.01
397.878	0.07
398.083	0.02
398.289	-0.01
398.494	0.06
398.7	0.01
398.905	-0.06
399.111	0.11
399.316	-0.05
399.522	0.01
399.727	0.02
399.932	-0.03
400.138	0.02
400.343	0.05
400.549	0.04
400.754	-0
400.959	0.01
401.165	0.02
401.37	-0.02
401.575	-0.01
401.78	0.02
401.986	-0
402.191	0.01
402.396	0.08
402.601	0.07
402.807	0
403.012	0.04
403.217	0.04
403.422	0.01
403.627	0.06
403.832	-0.04
404.037	0.04
404.243	0.08
404.448	0
404.653	0.01
404.858	0.03
405.063	0.11
405.268	0
405.473	-0.04
405.678	0.02
405.883	0.15
406.088	0.04
406.293	-0.03
406.498	-0.03
406.703	0.05
406.907	0
407.112	-0.01
407.317	0.02
407.522	0.05
407.727	-0.02
407.932	0.07
408.136	0.11
408.341	0.01
408.546	0.05
408.751	0.05
408.956	0
409.16	0.02
409.365	0.02
409.57	0.04
409.774	0.03
409.979	0.08
410.184	0.02
410.388	-0.01
410.593	0.04
410.798	0.02
411.002	-0.02
411.207	0.01
411.411	0.03
411.616	0.01
411.82	-0.01
412.025	0.05
412.229	0
412.434	0.12
412.638	0.05
412.843	0.01
413.047	0.05
413.252	-0.01
413.456	-0.02
413.66	0.06
413.865	0
414.069	0.09
414.273	0.01
414.478	-0.01
414.682	0.01
414.886	-0.01
415.091	-0.05
415.295	-0.02
415.499	0.07
415.703	0
415.908	0.04
416.112	-0.07
416.316	0.05
416.52	0.01
416.724	-0.05
416.929	-0.01
417.133	0.1
417.337	0
417.541	0
417.745	-0.03
417.949	0.06
418.153	0
418.357	-0.05
418.561	0.07
418.765	-0.04
418.969	0.14
419.173	0.07
419.377	-0.03
419.581	0.06
419.785	-0
419.989	-0.02
420.193	-0.02
420.397	-0.04
420.601	0.1
420.804	0.06
421.008	0.07
421.212	0.01
421.416	0.07
421.62	0.02
421.823	-0.01
422.027	0.09
422.231	0.02
422.435	-0.01
422.638	0.04
422.842	0
423.046	-0.01
423.249	0.03
423.453	0.08
423.657	0.05
423.86	0.05
424.064	-0
424.268	0.08
424.471	0.04
424.675	0.13
424.878	0.09
425.082	0.03
425.285	0.03
425.489	0.02
425.692	0.04
425.896	-0.05
426.099	0.01
426.303	0.02
426.506	-0.02
426.71	0.04
426.913	0.09
427.116	0.06
427.32	0.04
427.523	0
427.726	0.1
427.93	-0.08
428.133	0.04
428.336	0.01
428.54	0
428.743	0.02
428.946	0.02
429.149	-0.01
429.353	0.04
429.556	0.05
429.759	0.01
429.962	-0.01
430.165	-0.02
430.368	0.03
430.571	-0.05
430.775	0.01
430.978	-0.01
431.181	0.04
431.384	0.01
431.587	0.04
431.79	0.02
431.993	0.01
432.196	0.02
432.399	0.01
432.602	0.09
432.805	-0.02
433.008	-0.03
433.211	-0.04
433.414	0.07
433.616	-0
433.819	0
434.022	-0.05
434.225	0.1
434.428	0.05
434.631	0.11
434.833	-0.01
435.036	0.02
435.239	0.02
435.442	-0
435.645	0.01
435.847	0.07
436.05	0.06
436.253	0.04
436.455	-0.06
436.658	-0.01
436.861	0.1
437.063	-0.04
437.266	-0.02
437.468	0.01
437.671	0.15
437.874	0.02
438.076	-0.08
438.279	-0.07
438.481	0.06
438.684	-0.02
438.886	0.04
439.089	-0.03
439.291	0.02
439.494	0.01
439.696	-0.02
439.899	0.01
440.101	0.04
440.303	-0.07
440.506	0.08
440.708	-0.01
440.91	0.06
441.113	-0.02
441.315	0.06
441.517	-0.05
441.72	0.08
441.922	0.01
442.124	-0.06
442.326	0.01
442.529	0.07
442.731	0.01
442.933	0.12
443.135	0.02
443.337	0.01
443.539	-0.03
443.742	0.02
443.944	0.02
444.146	-0.01
444.348	0
444.55	-0.05
444.752	-0.01
444.954	-0.03
445.156	0.07
445.358	-0.02
445.56	0.05
445.762	-0.01
445.964	0.05
446.166	-0.02
446.368	-0.05
446.57	0.06
446.772	0.04
446.974	-0.01
447.175	0.02
447.377	0.02
447.579	-0.05
447.781	-0.04
447.983	0.06
448.184	-0.04
448.386	0.01
448.588	-0.01
448.79	0.01
448.991	-0.03
449.193	0.01
449.395	-0.01
449.597	0.08
449.798	0.01
450	0.03
450.202	0.02
450.403	0.01
450.605	0.1
450.806	0.03
451.008	-0.03
451.21	-0.03
451.411	0.03
451.613	0.03
451.814	-0.01
452.016	0.07
452.217	-0
452.419	0.07
452.62	-0.01
452.821	0.03
453.023	0.1
453.224	0.07
453.426	-0.01
453.627	0.02
453.828	0.04
454.03	0.06
454.231	0.04
454.432	-0.02
454.634	0.14
454.835	-0.03
455.036	-0.03
455.238	0.08
455.439	0.07
455.64	-0.02
455.841	0
456.042	0.14
456.244	0.04
456.445	-0.01
456.646	-0.07
456.847	0.03
457.048	0.07
457.249	0.04
457.45	0.17
457.651	-0.02
457.852	0.02
458.054	0.03
458.255	-0.02
458.456	0.04
458.657	0
458.858	0.01
459.058	0.05
459.259	0.11
459.46	0.01
459.661	-0.01
459.862	0.11
460.063	0.01
460.264	0.07
460.465	-0
460.666	0.1
460.866	-0.02
461.067	0.05
461.268	-0.01
461.469	0.01
461.67	0.04
461.87	-0.01
462.071	-0.01
462.272	-0.03
462.473	0.03
462.673	0.07
462.874	-0.03
463.075	0.01
463.275	-0
463.476	0.06
463.676	0.02
463.877	0.02
464.078	0.03
464.278	0.06
464.479	0.03
464.679	0.02
464.88	0.02
465.08	0.06
465.281	0.01
465.481	0.01
465.682	-0
465.882	0.06
466.083	-0
466.283	-0
466.483	0.01
466.684	-0.01
466.884	-0.01
467.085	-0.01
467.285	0.02
467.485	-0.02
467.686	-0.02
467.886	-0.03
468.086	0.02
468.286	-0
468.487	0.01
468.687	-0.02
468.887	-0.02
469.087	0.04
469.287	0.03
469.488	-0.04
469.688	0.05
469.888	0.03
470.088	0.04
470.288	0.07
470.488	0.1
470.688	-0.06
470.888	0.01
471.088	0.02
471.288	0.01
471.488	0.02
471.688	0
471.888	-0.01
472.088	0.04
472.288	0.05
472.488	-0.01
472.688	-0.01
472.888	-0
473.088	0.01
473.288	0.02
473.488	0.01
473.688	0.07
473.887	0.02
474.087	0.02
474.287	0.04
474.487	-0.03
474.687	0.05
474.886	-0
475.086	0.02
475.286	0.03
475.486	-0.03
475.685	0
475.885	-0.02
476.085	0.05
476.284	0.05
476.484	0.03
476.684	0.03
476.883	0.05
477.083	0.06
477.282	-0
477.482	0.06
477.681	0.08
477.881	0.01
478.08	-0.02
478.28	-0.02
478.479	0.04
478.679	0.09
478.878	0.02
479.078	-0
479.277	0.02
479.477	0.02
479.676	0.04
479.875	0.01
480.075	-0.07
480.274	0.03
480.473	0.05
480.673	-0
480.872	0.07
481.071	0.05
481.271	0.04
481.47	0
481.669	0.02
481.868	0.03
482.067	-0.03
482.267	-0.02
482.466	-0.01
482.665	-0.04
482.864	-0
483.063	-0.03
483.262	0.04
483.461	0.08
483.661	0.02
483.86	-0
484.059	0.03
484.258	0.04
484.457	-0
484.656	-0.02
484.855	0.03
485.054	-0.03
485.253	-0.01
485.452	-0.03
485.651	0.01
485.849	0.01
486.048	-0.01
486.247	-0.03
486.446	0.01
486.645	-0.01
486.844	-0.03
487.043	-0
487.241	0.03
487.44	-0.02
487.639	-0
487.838	0.04
488.037	0.02
488.235	0.03
488.434	0.01
488.633	0
488.831	0.02
489.03	0.04
489.229	0.02
489.427	0.01
489.626	-0
489.825	0.05
490.023	0.02
490.222	-0.01
490.42	0.02
490.619	0.02
490.817	-0.01
491.016	-0
491.214	0.03
491.413	0.02
491.611	0
491.81	0.01
492.008	0.03
492.207	0.03
492.405	0.03
492.604	-0.04
492.802	-0
493	0
493.199	-0.02
493.397	0.02
493.595	0.01
493.794	-0
493.992	0.05
494.19	0
494.388	0.01
494.587	-0
494.785	-0
494.983	-0.03
495.181	0.01
495.379	0.01
495.578	-0.01
495.776	0.03
495.974	0.02
496.172	-0
496.37	-0.02
496.568	-0.02
496.766	-0.01
496.964	0.02
497.162	0.01
497.36	-0.03
497.558	0.02
497.756	0.03
497.954	0.01
498.152	-0.01
498.35	0.02
498.548	0.01
498.746	0.02
498.944	-0.01
499.142	-0
499.34	-0.02
499.538	-0
499.736	-0.03
499.933	0.03
500.131	0.02
500.329	0.03
500.527	0.02
500.725	0.06
500.922	0.04
501.12	0
501.318	0.01
501.516	-0.01
501.713	0.01
501.911	0.01
502.109	0
502.306	0.02
502.504	-0
502.701	-0.02
502.899	-0
503.097	0.05
503.294	0.02
503.492	0
503.689	0.01
503.887	0.03
504.084	0.03
504.282	0.01
504.479	-0.02
504.677	0.02
504.874	-0.02
505.072	-0.01
505.269	0.02
505.466	0.04
505.664	0.02
505.861	-0.01
506.059	-0.02
506.256	0.02
506.453	-0
506.651	0.04
506.848	0.01
507.045	0.02
507.242	0.01
507.44	-0
507.637	0
507.834	0.02
508.031	0.02
508.229	-0.01
508.426	0
508.623	0.03
508.82	-0
509.017	-0.04
509.214	0.02
509.411	0
509.608	-0.01
509.805	-0
510.003	0.01
510.2	-0.02
510.397	0.05
510.594	0
510.791	-0.02
510.988	0.01
511.184	0.03
511.381	0.01
511.578	-0.01
511.775	0.02
511.972	-0.02
512.169	-0.01
512.366	0.03
512.563	0.02
512.76	-0.01
512.956	0.04
513.153	0
513.35	0
513.547	0.01
513.744	-0
513.94	-0.02
514.137	0.01
514.334	0.02
514.53	0.01
514.727	0.01
514.924	0.06
515.12	-0
515.317	-0.03
515.514	0.03
515.71	-0.02
515.907	-0.01
516.103	0.01
516.3	0.03
516.497	0.04
516.693	0.03
516.89	0.01
517.086	0
517.283	0.04
517.479	0.01
517.676	0.02
517.872	0.01
518.068	-0.01
518.265	-0.02
518.461	-0.01
518.658	-0.01
518.854	0.03
519.05	0.01
519.247	-0.01
519.443	0.01
519.639	0.02
519.836	0.02
520.032	0.01
520.228	-0
520.424	0.04
520.621	0.02
520.817	0.01
521.013	0.01
521.209	0.03
521.405	0.06
521.601	0
521.798	0.01
521.994	0.02
522.19	-0.01
522.386	-0.01
522.582	0.01
522.778	0
522.974	-0.01
523.17	-0
523.366	-0.02
523.562	0.04
523.758	0.01
523.954	-0.02
524.15	0
524.346	0.03
524.542	-0
524.738	-0.02
524.934	0
525.129	-0.07
525.325	0.01
525.521	-0
525.717	0.02
525.913	0.03
526.109	-0
526.304	-0
526.5	0.01
526.696	0.02
526.892	0.01
527.087	0.01
527.283	-0.01
527.479	0.02
527.674	-0
527.87	0.01
528.066	0
528.261	0.04
528.457	0.03
528.653	-0.01
528.848	-0.02
529.044	0.02
529.239	-0.01
529.435	0.02
529.63	0.03
529.826	0.07
530.021	0.02
530.217	0.04
530.412	0
530.608	0
530.803	0
530.999	-0
531.194	-0.03
531.389	0
531.585	-0.04
531.78	0
531.975	-0.01
532.171	0.04
532.366	-0.01
532.561	0.02
532.757	0
532.952	0.02
533.147	0.02
533.342	0.01
533.538	-0.01
533.733	0.04
533.928	0.01
534.123	-0
534.318	-0.02
534.513	0.01
534.709	-0
534.904	-0.01
535.099	0
535.294	0.01
535.489	0.02
535.684	-0.01
535.879	-0.02
536.074	0.03
536.269	-0.01
536.464	0.02
536.659	-0
536.854	0.01
537.049	0.02
537.244	0.01
537.439	-0.01
537.634	0.02
537.828	0
538.023	0
538.218	-0.01
538.413	0
538.608	-0
538.803	0.02
538.997	-0.03
539.192	0.03
539.387	0.02
539.582	0.01
539.776	0.01
539.971	-0.02
540.166	0.01
540.36	-0.01
540.555	-0
540.75	-0.02
540.944	0.01
541.139	-0.03
541.334	-0
541.528	0.02
541.723	0.02
541.917	0.01
542.112	-0.04
542.306	-0.01
542.501	-0.01
542.695	0.01
542.89	0
543.084	0.02
543.279	-0.01
543.473	0
543.668	0.03
543.862	-0.01
544.056	-0.01
544.251	0.01
544.445	-0.02
544.64	-0
544.834	-0.01
545.028	0.01
545.222	0.01
545.417	0.02
545.611	0
545.805	0.01
546	-0.01
546.194	-0.02
546.388	-0.02
546.582	0.02
546.776	0.02
546.97	0.02
547.165	0.03
547.359	0.01
547.553	-0.02
547.747	0.01
547.941	0.01
548.135	0.01
548.329	0.02
548.523	0.01
548.717	0
548.911	-0
549.105	0.02
549.299	-0
549.493	0.02
549.687	0.02
549.881	0.03
550.075	0
550.269	-0.01
550.463	0.02
550.657	-0.02
550.85	0.01
551.044	-0.02
551.238	0.01
551.432	-0
551.626	-0.03
551.82	0.02
552.013	-0
552.207	-0.01
552.401	0.02
552.594	0.02
552.788	-0.01
552.982	0.01
553.176	-0.02
553.369	0.01
553.563	0.02
553.756	0.01
553.95	-0.03
554.144	-0.01
554.337	0.04
554.531	0.01
554.724	0
554.918	-0.01
555.111	0
555.305	0
555.498	0.05
555.692	0.02
555.885	-0.02
556.079	0.02
556.272	-0.03
556.466	0.03
556.659	0.02
556.852	0.01
557.046	-0.01
557.239	0.03
557.432	-0.01
557.626	-0.02
557.819	0.01
558.012	0.02
558.206	0.01
558.399	0.03
558.592	0.02
558.785	-0.01
558.979	0.01
559.172	-0
559.365	0.01
559.558	0.01
559.751	-0.01
559.944	-0.01
560.138	-0.01
560.331	-0
560.524	-0.03
560.717	0
560.91	0
561.103	0.03
561.296	0.02
561.489	0.03
561.682	0
561.875	0.05
562.068	0.02
562.261	0.02
562.454	0.05
562.647	0.03
562.84	0.03
563.032	-0.01
563.225	0.03
563.418	-0.01
563.611	-0.01
563.804	0.03
563.997	-0.02
564.19	-0.01
564.382	-0.07
564.575	-0.01
564.768	0
564.961	-0.01
565.153	-0.01
565.346	0.03
565.539	0.01
565.731	0.04
565.924	0.04
566.117	0.04
566.309	0.02
566.502	0.02
566.695	0.02
566.887	0.02
567.08	-0.04
567.272	-0
567.465	-0.03
567.657	0.02
567.85	0.02
568.042	0
568.235	0.04
568.427	-0.02
568.62	0
568.812	0.06
569.005	0
569.197	-0.03
569.389	-0
569.582	0.03
569.774	0.02
569.966	-0.01
570.159	-0.03
570.351	0.02
570.543	-0.02
570.736	0.01
570.928	-0.02
571.12	0.01
571.312	-0.01
571.505	-0.03
571.697	0.05
571.889	-0.01
572.081	-0
572.273	-0.04
572.465	0.04
572.658	-0.01
572.85	0.01
573.042	0.02
573.234	0.01
573.426	0.03
573.618	-0.03
573.81	0.01
574.002	0.03
574.194	0.06
574.386	-0.02
574.578	-0.04
574.77	-0
574.962	0.01
575.154	-0.03
575.346	-0.01
575.538	-0.01
575.729	-0
575.921	0.02
576.113	0.01
576.305	0.04
576.497	-0
576.689	-0.01
576.88	-0.02
577.072	0.01
577.264	-0.03
577.456	0.02
577.647	-0.06
577.839	0.01
578.031	0.03
578.223	-0.03
578.414	-0.03
578.606	0.02
578.798	0.02
578.989	-0.01
579.181	-0.01
579.372	-0.01
579.564	-0.02
579.755	-0.01
579.947	0.03
580.139	0.02
580.33	-0.05
580.522	-0.01
580.713	-0.06
580.905	0
581.096	0.03
581.287	0.01
581.479	-0
581.67	0.02
581.862	0.01
582.053	-0.02
582.244	-0.05
582.436	-0.01
582.627	0.02
582.818	0.01
583.01	-0.04
583.201	0.03
583.392	0.02
583.583	0.01
583.775	0.01
583.966	-0.03
584.157	-0.02
584.348	-0.01
584.54	-0.04
584.731	0.01
584.922	0.01
585.113	-0.02
585.304	0
585.495	0.02
585.686	0.02
585.877	-0.01
586.068	-0.01
586.259	-0.01
586.45	0.02
586.641	-0.01
586.832	-0.05
587.023	0.01
587.214	0.01
587.405	0.01
587.596	-0.03
587.787	0.06
587.978	-0
588.169	-0.01
588.36	-0
588.551	0.03
588.742	-0.03
588.932	0.02
589.123	-0
589.314	0.03
589.505	0.01
589.696	0.04
589.886	-0.03
590.077	-0.01
590.268	0.01
590.458	-0.04
590.649	-0.02
590.84	0.02
591.03	-0.02
591.221	-0.04
591.412	-0.03
591.602	0.02
591.793	0.04
591.984	-0.04
592.174	0.01
592.365	0.07
592.555	-0.04
592.746	0.02
592.936	0.04
593.127	0.03
593.317	0.04
593.508	0
593.698	-0.01
593.889	0.02
594.079	-0.01
594.269	-0.03
594.46	-0.02
594.65	0.03
594.84	-0.02
595.031	-0.03
595.221	-0.03
595.411	-0.06
595.602	0.03
595.792	-0.02
595.982	-0
596.172	0.06
596.363	0.01
596.553	0.02
596.743	-0.01
596.933	0.02
597.123	0.02
597.314	-0.03
597.504	-0
597.694	0.04
597.884	0.02
598.074	-0
598.264	-0.02
598.454	0.01
598.644	0.02
598.834	0.02
599.024	-0.01
599.214	0
599.404	0.04
599.594	-0.01
599.784	-0.03
599.974	0.07
600.164	0.02
600.354	-0.02
600.544	-0.04
600.734	0.01
600.924	0.04
601.114	-0.01
601.303	-0.01
601.493	0.02
601.683	-0.02
601.873	0.01
602.063	-0.03
602.252	0.03
602.442	-0.05
602.632	-0.03
602.821	-0.03
603.011	-0
603.201	0
603.39	0.01
603.58	-0.04
603.77	0.02
603.959	-0
604.149	-0.01
604.339	0.01
604.528	0.03
604.718	0.03
604.907	0.02
605.097	-0.03
605.286	-0.02
605.476	0.03
605.665	0.01
605.855	-0
606.044	0.07
606.234	-0.01
606.423	0.02
606.612	-0.01
606.802	0
606.991	0.01
607.181	0.02
607.37	-0.02
607.559	-0.02
607.749	-0.03
607.938	0.01
608.127	-0.03
608.316	-0.02
608.506	0.04
608.695	0.02
608.884	-0.02
609.073	-0.01
609.263	0.02
609.452	0.04
609.641	0.04
609.83	-0.03
610.019	0
610.208	-0.02
610.397	-0.01
610.586	0.01
610.775	-0.01
610.965	-0
611.154	-0.01
611.343	-0
611.532	0.05
611.721	-0.03
611.91	-0.02
612.099	0.02
612.287	0
612.476	-0.02
612.665	0.01
612.854	-0.02
613.043	0.06
613.232	0.03
613.421	-0.04
613.61	0.03
613.798	-0.01
613.987	0.05
614.176	0.02
614.365	0.01
614.554	0.03
614.742	0.03
614.931	-0.02
615.12	0.05
615.309	-0
615.497	0.02
615.686	-0
615.875	-0
616.063	0.03
616.252	-0.01
616.44	0.02
616.629	-0.02
616.818	0.05
617.006	0
617.195	0.01
617.383	0.01
617.572	-0.01
617.76	-0.02
617.949	-0.03
618.137	0.05
618.326	0.04
618.514	-0.04
618.703	-0.01
618.891	0.04
619.079	-0.04
619.268	0.03
619.456	-0.04
619.644	0.05
619.833	-0
620.021	-0.01
620.209	-0.05
620.398	0.03
620.586	0.01
620.774	0.02
620.962	-0.01
621.151	0.06
621.339	-0
621.527	-0.03
621.715	-0.02
621.903	-0.01
622.092	-0.02
622.28	-0.01
622.468	0.03
622.656	0.01
622.844	0.01
623.032	-0.03
623.22	-0.06
623.408	0.04
623.596	0.02
623.784	0.04
623.972	-0.02
624.16	-0
624.348	0.06
624.536	0.01
624.724	-0.03
624.912	0.04
625.1	0.07
625.288	-0.02
625.476	-0.02
625.664	0.05
625.851	-0.02
626.039	-0.05
626.227	0.01
626.415	0
626.603	-0.02
626.79	0.01
626.978	0
627.166	0.02
627.354	0.02
627.541	-0.02
627.729	-0.09
627.917	0.03
628.104	0.05
628.292	0.03
628.48	-0.02
628.667	0.01
628.855	0.02
629.042	0.03
629.23	0
629.418	0.03
629.605	0.01
629.793	-0.02
629.98	-0.04
630.168	0.01
630.355	0.01
630.543	0.02
630.73	-0.03
630.917	0.04
631.105	0.07
631.292	-0.01
631.48	0
631.667	0.1
631.854	0.04
632.042	0.02
632.229	-0.04
632.416	0.02
632.604	-0.01
632.791	-0.03
632.978	0.02
633.165	0.02
633.353	0.06
633.54	0.02
633.727	-0.06
633.914	-0.03
634.101	-0
634.289	0.07
634.476	0
634.663	-0.02
634.85	0
635.037	-0.05
635.224	-0.03
635.411	0.03
635.598	0.03
635.785	0.02
635.972	0.01
636.159	0.03
636.346	-0.03
636.533	0
636.72	0
636.907	-0.01
637.094	0.04
637.281	0
637.468	0.02
637.655	0.01
637.842	-0.01
638.029	-0.01
638.215	0.05
638.402	0.03
638.589	-0.04
638.776	-0.01
638.963	-0
639.149	0.01
639.336	0.08
639.523	-0.01
639.709	0.03
639.896	-0.01
640.083	0.04
640.27	0.03
640.456	-0.02
640.643	0.03
640.829	-0.04
641.016	-0.01
641.203	-0.03
641.389	0.05
641.576	0.01
641.762	0.02
641.949	-0.04
642.135	0.03
642.322	0.03
642.508	-0.04
642.695	0
642.881	-0.05
643.068	0.02
643.254	-0.01
643.441	0.06
643.627	0.01
643.813	-0.03
644	0.06
644.186	-0.03
644.372	-0.01
644.559	0.05
644.745	0.02
644.931	-0.04
645.118	0.02
645.304	0.01
645.49	-0
645.676	-0
645.862	0.03
646.049	0.05
646.235	0.04
646.421	0.08
646.607	0.05
646.793	-0.02
646.979	-0.03
647.165	0.01
647.352	0.02
647.538	0.05
647.724	0
647.91	0.04
648.096	0.02
648.282	0.05
648.468	0
648.654	0.02
648.84	0.05
649.026	-0.01
649.212	0.02
649.397	-0.01
649.583	-0.01
649.769	0.02
649.955	-0.01
650.141	0.05
650.327	0.11
650.513	0.01
650.698	0.01
650.884	-0.07
651.07	0.03
651.256	0.05
651.442	0.03
651.627	0.02
651.813	0.03
651.999	0.03
652.184	0.01
652.37	0.02
652.556	0
652.741	0.09
652.927	-0.03
653.113	0.02
653.298	0.02
653.484	-0.03
653.669	-0.01
653.855	-0.02
654.04	0.04
654.226	0.03
654.412	-0.01
654.597	-0.02
654.782	0
654.968	0.04
655.153	0.03
655.339	0
655.524	-0.02
655.71	0.02
655.895	0.01
656.08	-0.02
656.266	0.06
656.451	0.02
656.636	0.01
656.822	0.04
657.007	-0.02
657.192	0.01
657.378	-0.03
657.563	0.04
657.748	0.05
657.933	0.03
658.118	0
658.304	0
658.489	0.04
658.674	0.02
658.859	-0.03
659.044	0.04
659.229	0.01
659.414	-0.03
659.599	0.01
659.785	-0.01
659.97	0
660.155	0.07
660.34	0.06
660.525	0.03
660.71	0.01
660.895	0.04
661.08	-0.01
661.264	0.02
661.449	0.09
661.634	0.08
661.819	0.04
662.004	0.02
662.189	-0.03
662.374	-0.02
662.559	0.02
662.743	-0.03
662.928	-0
663.113	0.03
663.298	-0.04
663.483	-0.01
663.667	0.04
663.852	-0.03
664.037	0.08
664.221	-0.01
664.406	0.07
664.591	0.07
664.775	0.01
664.96	0.05
665.145	0.06
665.329	0.05
665.514	-0.01
665.698	0.06
665.883	-0.05
666.068	0.13
666.252	0.05
666.437	-0.03
666.621	0.03
666.806	0.08
666.99	0.05
667.174	0.04
667.359	0.11
667.543	0.04
667.728	0.02
667.912	-0.02
668.096	0.08
668.281	0.02
668.465	0.02
668.649	0.08
668.834	0.03
669.018	0.05
669.202	0.02
669.387	0.03
669.571	0.07
669.755	-0.02
669.939	0.01
670.124	0.02
670.308	0.08
670.492	0.1
670.676	0.07
670.86	0.05
671.044	0.01
671.228	0.09
671.413	0
671.597	0.03
671.781	0.01
671.965	0.08
672.149	0.02
672.333	0.04
672.517	0.01
672.701	0.09
672.885	0.04
673.069	0.01
673.253	0.09
673.437	0.04
673.621	0.03
673.804	0.09
673.988	0.09
674.172	0.05
674.356	0.01
674.54	0.08
674.724	0.12
674.908	0.09
675.091	0.08
675.275	0.1
675.459	0.1
675.643	0.07
675.826	0.11
676.01	0.13
676.194	0.06
676.377	0.11
676.561	0.11
676.745	0.11
676.928	0.05
677.112	0.11
677.296	0.03
677.479	0.05
677.663	0.06
677.846	0.09
678.03	0.1
678.213	0.12
678.397	0.1
678.58	0.09
678.764	0.14
678.947	0.09
679.131	0.04
679.314	0.15
679.498	0.06
679.681	0.08
679.865	0.14
680.048	0.09
680.231	0.09
680.415	0.1
680.598	0.11
680.781	0.11
680.965	0.12
681.148	0.12
681.331	0.13
681.514	0.16
681.698	0.11
681.881	0.15
682.064	0.12
682.247	0.15
682.43	0.05
682.614	0.17
682.797	0.16
682.98	0.18
683.163	0.06
683.346	0.18
683.529	0.12
683.712	0.13
683.895	0.15
684.078	0.09
684.261	0.13
684.444	0.18
684.627	0.13
684.81	0.13
684.993	0.16
685.176	0.18
685.359	0.12
685.542	0.17
685.725	0.26
685.908	0.19
686.091	0.13
686.274	0.25
686.457	0.24
686.639	0.17
686.822	0.26
687.005	0.2
687.188	0.2
687.371	0.27
687.553	0.21
687.736	0.25
687.919	0.23
688.102	0.27
688.284	0.21
688.467	0.23
688.65	0.23
688.832	0.26
689.015	0.26
689.197	0.2
689.38	0.34
689.563	0.33
689.745	0.21
689.928	0.17
690.11	0.23
690.293	0.32
690.475	0.19
690.658	0.23
690.84	0.29
691.023	0.25
691.205	0.19
691.388	0.29
691.57	0.3
691.752	0.31
691.935	0.19
692.117	0.24
692.3	0.33
692.482	0.29
692.664	0.31
692.847	0.32
693.029	0.38
693.211	0.35
693.393	0.3
693.576	0.31
693.758	0.3
693.94	0.33
694.122	0.35
694.304	0.32
694.487	0.36
694.669	0.37
694.851	0.3
695.033	0.4
695.215	0.35
695.397	0.39
695.579	0.43
695.761	0.37
695.943	0.39
696.125	0.49
696.308	0.47
696.49	0.28
696.671	0.52
696.853	0.43
697.035	0.61
697.217	0.44
697.399	0.49
697.581	0.44
697.763	0.53
697.945	0.44
698.127	0.49
698.309	0.52
698.491	0.54
698.672	0.54
698.854	0.58
699.036	0.61
699.218	0.51
699.399	0.57
699.581	0.63
699.763	0.56
699.945	0.57
700.126	0.55
700.308	0.61
700.49	0.58
700.671	0.51
700.853	0.62
701.035	0.63
701.216	0.67
701.398	0.58
701.579	0.63
701.761	0.79
701.943	0.59
702.124	0.65
702.306	0.69
702.487	0.82
702.669	0.7
702.85	0.72
703.031	0.67
703.213	0.82
703.394	0.82
703.576	0.81
703.757	0.91
703.938	0.79
704.12	0.95
704.301	0.86
704.483	0.79
704.664	0.87
704.845	1.01
705.026	1
705.208	0.96
705.389	0.94
705.57	0.97
705.751	0.94
705.933	1.02
706.114	1.06
706.295	1
706.476	0.98
706.657	1.12
706.838	1.06
707.02	1.15
707.201	1.16
707.382	1.13
707.563	1.2
707.744	1.1
707.925	1.18
708.106	1.16
708.287	1.21
708.468	1.28
708.649	1.25
708.83	1.32
709.011	1.29
709.192	1.33
709.373	1.26
709.554	1.37
709.734	1.43
709.915	1.39
710.096	1.36
710.277	1.33
710.458	1.52
710.639	1.44
710.819	1.44
711	1.48
711.181	1.62
711.362	1.69
711.542	1.67
711.723	1.65
711.904	1.77
712.085	1.72
712.265	1.78
712.446	1.69
712.627	1.79
712.807	1.89
712.988	1.84
713.168	1.78
713.349	1.87
713.53	1.75
713.71	1.88
713.891	1.89
714.071	2.01
714.252	2.09
714.432	2.05
714.613	2.01
714.793	2.23
714.974	2.26
715.154	2.37
715.334	2.28
715.515	2.36
715.695	2.23
715.876	2.44
716.056	2.41
716.236	2.39
716.417	2.5
716.597	2.49
716.777	2.71
716.957	2.65
717.138	2.79
717.318	2.68
717.498	2.61
717.678	2.9
717.859	2.76
718.039	2.81
718.219	2.88
718.399	3.07
718.579	2.97
718.759	3.1
718.939	3.14
719.12	3.09
719.3	3.29
719.48	3.14
719.66	3.17
719.84	3.5
720.02	3.38
720.2	3.46
720.38	3.54
720.56	3.77
720.74	3.57
720.92	3.67
721.1	3.95
721.279	3.84
721.459	3.82
721.639	3.82
721.819	3.98
721.999	4.06
722.179	4.13
722.359	3.96
722.538	4.25
722.718	4.28
722.898	4.39
723.078	4.43
723.257	4.42
723.437	4.62
723.617	4.69
723.797	4.69
723.976	4.7
724.156	5.04
724.336	4.93
724.515	5.23
724.695	4.92
724.874	5.23
725.054	5.19
725.234	5.09
725.413	5.4
725.593	5.3
725.772	5.3
725.952	5.53
726.131	5.62
726.311	5.64
726.49	5.63
726.67	5.64
726.849	5.66
727.028	5.91
727.208	5.78
727.387	6
727.567	6.03
727.746	6.17
727.925	6.27
728.105	6.26
728.284	6.37
728.463	6.24
728.643	6.51
728.822	6.5
729.001	6.62
729.18	6.73
729.359	7.09
729.539	6.92
729.718	7.1
729.897	7.05
730.076	7.13
730.255	7.1
730.434	7.43
730.614	7.38
730.793	7.62
730.972	7.63
731.151	7.78
731.33	7.83
731.509	7.84
731.688	7.87
731.867	7.81
732.046	7.97
732.225	8.37
732.404	8.16
732.583	8.17
732.762	8.44
732.941	8.67
733.12	8.73
733.298	8.8
733.477	8.86
733.656	8.82
733.835	8.96
734.014	9.1
734.193	8.92
734.371	9.3
734.55	9.3
734.729	9.02
734.908	9.39
735.086	9.39
735.265	9.58
735.444	9.14
735.623	9.64
735.801	9.79
735.98	9.67
736.159	9.56
736.337	9.54
736.516	9.61
736.694	9.62
736.873	9.53
737.052	9.95
737.23	9.67
737.409	9.43
737.587	9.8
737.766	9.44
737.944	9.31
738.123	9.73
738.301	9.35
738.479	9.47
738.658	9.23
738.836	8.85
739.015	9
739.193	8.98
739.371	8.7
739.55	8.53
739.728	8.42
739.906	8.63
740.085	8.49
740.263	8.13
740.441	7.84
740.62	8.19
740.798	7.75
740.976	7.53
741.154	7.17
741.332	7.23
741.511	6.91
741.689	6.9
741.867	6.75
742.045	6.52
742.223	6.21
742.401	6.09
742.579	5.8
742.757	5.97
742.935	5.42
743.114	5.47
743.292	5.41
743.47	5.23
743.648	5.01
743.826	4.78
744.004	4.74
744.181	4.7
744.359	4.4
744.537	4.4
744.715	4.2
744.893	4.13
745.071	3.96
745.249	3.73
745.427	3.52
745.605	3.55
745.782	3.44
745.96	3.27
746.138	3.4
746.316	3.12
746.493	3.02
746.671	2.76
746.849	2.82
747.027	2.81
747.204	2.5
747.382	2.5
747.56	2.24
747.737	2.13
747.915	2.28
748.093	2.36
748.27	2.11
748.448	2.14
748.625	1.85
748.803	1.96
748.98	1.87
749.158	1.84
749.335	1.81
749.513	1.83
749.69	1.66
749.868	1.59
750.045	1.59
750.223	1.51
750.4	1.25
750.578	1.63
750.755	1.49
750.932	1.28
751.11	1.46
751.287	1.18
751.464	1.37
751.642	1.09
751.819	1.22
751.996	1.16
752.173	1.09
752.351	0.94
752.528	1.03
752.705	1.03
752.882	0.93
753.06	1.05
753.237	1.01
753.414	1.2
753.591	1.08
753.768	0.88
753.945	0.83
754.122	0.74
754.299	0.89
754.476	0.57
754.654	0.7
754.831	0.84
755.008	0.71
755.185	0.69
755.362	0.47
755.539	0.6
755.716	0.48
755.892	0.58
756.069	0.54
756.246	0.57
756.423	0.51
756.6	0.73
756.777	0.48
756.954	0.57
757.131	0.42
757.307	0.47
757.484	0.37
757.661	0.51
757.838	0.45
758.015	0.32
758.191	0.41
758.368	0.53
758.545	0.63
758.721	0.46
758.898	0.45
759.075	0.38
759.251	0.48
759.428	0.4
759.605	0.28
759.781	0.47
759.958	0.31
760.134	0.46
760.311	0.21
760.488	0.39
760.664	0.5
760.841	0.22
761.017	0.22
761.194	0.46
761.37	0.36
761.547	0.26
761.723	0.18
761.899	0.41
762.076	0.24
762.252	0.23
762.429	0.25
762.605	0.34
762.781	0.25
762.958	0.22
763.134	0.22
763.31	0.2
763.486	0.28
763.663	0.04
763.839	0.26
764.015	0.01
764.191	0.13
764.368	0.18
764.544	0.29
764.72	0.2
764.896	0.34
765.072	0.27
765.248	0.21
765.425	0.15
765.601	0.17
765.777	0.26
765.953	0
766.129	0.09
766.305	0.02
766.481	0.24
766.657	0.18
766.833	0.28
767.009	-0.01
767.185	0.1
767.361	0.05
767.537	0.07
767.713	0.34
767.889	0.04
768.065	0.21
768.24	0.16
768.416	0.24
768.592	-0.02
768.768	0
768.944	0.35
769.12	0.13
769.295	0.14
769.471	0.1
769.647	0.12
769.823	0.31
769.998	0.06
770.174	-0
770.35	0.37
770.525	0.41
770.701	0.19
770.877	0.12
771.052	0.04
771.228	0.12
771.403	0.02
771.579	0.21
771.755	0.46
771.93	-0
772.106	-0.19
772.281	-0.08
772.457	0.1
772.632	0.14
772.808	0
772.983	-0
773.159	-0.03
773.334	0.23
773.509	0.16
773.685	-0.08
773.86	0.48
774.036	0.38
774.211	0.16
774.386	0.09
774.562	0.03
774.737	0.25
774.912	-0.01
775.087	0.27
775.263	0.1
775.438	0.09
775.613	0.07
775.788	0.1
775.964	0.28
776.139	0.55
776.314	-0.1
776.489	0.1
776.664	0.23
776.839	0.15
777.014	0.17
777.19	0.3
777.365	0.29
777.54	0.4
777.715	-0.05
777.89	0.31
778.065	0.1
778.24	0.03
778.415	0.33
778.59	0.07
778.765	0.12
778.94	0.16
779.115	0.06
779.289	0.06
779.464	0.07
779.639	0.18
779.814	-0.12
779.989	-0.01
780.164	0.32
780.339	0.15
780.513	0.07
780.688	-0.06
780.863	0.2
781.038	0.28
781.212	-0.02
781.387	0.1
781.562	0.5
781.737	-0.12
781.911	0.29
782.086	-0.02
782.261	0.14
782.435	0.4
782.61	0.11
782.784	0.04
782.959	0.42
783.134	0.03
783.308	-0.13
783.483	-0.12
783.657	0.59
783.832	0.13
784.006	-0.33
784.181	0.02
784.355	0.24
784.53	-0.21
784.704	-0.09
784.878	0.33
785.053	0.18
785.227	0.03
785.402	0.39
785.576	-0.05
785.75	0.02
785.925	-0.08
786.099	0.15
786.273	0.11
786.448	0.38
786.622	0.14
786.796	0.15
786.97	-0.05
787.145	0.47
787.319	-0.12
787.493	0.19
787.667	-0.38
787.841	0.14
788.015	0.36
788.19	0.07
788.364	0.28
788.538	0.47
788.712	0.36
788.886	0.07
789.06	0.34
789.234	0.29
789.408	-0.01
789.582	0.02
789.756	-0.12
789.93	-0.02
790.104	0.14
790.278	0.13
790.452	0.07
790.626	0.27
790.8	0.06
790.973	0.2
791.147	0.32
791.321	0.22
791.495	0.51
791.669	0.24
791.843	0.23
792.016	0.11
792.19	0.41
792.364	-0.03
792.538	0.43
792.711	0.2
792.885	0
793.059	-0.21
793.233	-0.45
793.406	0.4
793.58	0.23
793.754	0.12
793.927	0.12
794.101	0.43
794.274	0.11
794.448	0.29
794.622	-0.04
794.795	0.16
794.969	-0.05
795.142	0.38
795.316	0
795.489	0.19
795.663	0.38
795.836	-0
796.009	-0.2
796.183	0.32
796.356	0.45
796.53	0.23
796.703	-0.03
796.876	0.39
797.05	0.09
797.223	0.03
797.396	0.06
797.57	0.35
797.743	0.43
797.916	0.38
798.09	0.09
798.263	0.55
798.436	0.12
798.609	-0.09
798.782	-0.18
798.956	0.21
799.129	0.29
799.302	0.3
799.475	0.07
799.648	-0.16
799.821	-0.05
799.994	-0.04
800.167	-0.29
800.34	0.12
800.514	-0.02
800.687	-0.11
800.86	0.01
801.033	0.16
801.206	-0
801.379	-0.06
801.551	0.4
801.724	0.17
801.897	0.52
802.07	-0.03
802.243	-0.39
802.416	-0.11
802.589	-0.43
802.762	0.25
802.935	0.01
803.107	0.18
803.28	0.07
803.453	0.36
803.626	-0.13
803.798	0.15
803.971	-0.03
804.144	0.24
804.317	0.38
804.489	0.32
804.662	-0.12
804.835	0.41
805.007	-0.06
805.18	0.39
805.353	0.09
805.525	-0.27
805.698	-0.03
805.87	0.45
806.043	0.38
806.215	-0.03
806.388	-0.18
806.56	0.09
806.733	0.39
806.905	0.24
807.078	0.02
807.25	-0.06
807.423	0.08
807.595	0.16
807.768	0.31
807.94	0.56
808.112	0.39
808.285	0.14
808.457	-0.17
808.629	0.04
808.802	0.54
808.974	0.3
809.146	-0.04
809.318	0
809.491	0.26
809.663	0.19
809.835	0.05
810.007	0.24
810.18	0.23
810.352	-0.11
810.524	0.09
810.696	0.05
810.868	0.81
811.04	0.11
811.212	-0.11
811.384	0.14
811.556	-0
811.728	0.11
811.901	1.14
812.073	-0.12
812.245	0.36
812.417	0.44
812.589	-0.27
812.76	-0.11
812.932	0.36
813.104	0.56
813.276	0.01
813.448	0.58
813.62	0.16
813.792	0.16
813.964	-0.01
814.136	-0.05
814.307	0.13
814.479	-0.16
814.651	0.05
814.823	0.78
814.995	-0.16
815.166	-0.1
815.338	0.45
815.51	-0.19
815.681	0.66
815.853	0.16
816.025	0.07
816.196	0.36
816.368	0.52
816.54	-0.16
816.711	-0.5
816.883	0.23
817.054	1.09
817.226	-0.69
817.398	0.23
817.569	-0.07
817.741	0.16
817.912	0.23
818.084	0.24
818.255	0.29
818.426	-0.31
818.598	-0.14
818.769	-0.19
818.941	0.06
819.112	0.66
819.283	0.46
819.455	-0.26
819.626	-0.09
819.798	-0
819.969	0.43
820.14	0.12
820.311	-0.1
820.483	0.31
820.654	-0
820.825	-0.03
820.996	-0.13
821.168	0.06
821.339	-0.03
821.51	-0.11
821.681	1.09
821.852	-0.1
822.023	-0.1
822.195	-0.01
822.366	0.64
822.537	0.3
822.708	-0.01
822.879	-0.08
823.05	0.69
823.221	0.2
823.392	0.54
823.563	0.42
823.734	0.39
823.905	0.01
824.076	-0.17
824.247	0.16
824.418	0.11
824.589	0.27
824.759	0.05
824.93	0.52
825.101	0.07
825.272	0.52
825.443	0.92
825.614	0.47
825.784	-1.09
825.955	1.29
826.126	0.74
826.297	0.24
826.467	0.63
826.638	0.85
826.809	-0.56
826.98	0.02
827.15	0.4
827.321	0.16
827.492	1.05
827.662	0.37
827.833	1.4
828.003	0.56
828.174	-0.34
828.345	-0.44
828.515	1.07
828.686	0.47
828.856	0.09
829.027	0.37
829.197	0.57
829.368	0.43
829.538	0.08
829.709	0.06
829.879	0.53
830.049	-0.01
830.22	-0.14
830.39	0.57
830.56	0.52
830.731	0.36
830.901	-0.55
831.072	-0.32
831.242	0.17
831.412	0.66
831.582	0.19
831.753	-0.1
831.923	0.74
832.093	0.38
832.263	0.27
832.434	-0.04
832.604	-0.15
832.774	0.75
832.944	0.12
833.114	-0.18
833.284	0.24
833.454	-0.64
833.624	-0.15
833.795	-0.07
833.965	0.87
834.135	0.76
834.305	-0.58
834.475	-0.09
834.645	0.29
834.815	-0.04
834.985	-0.36
835.155	-0.11
835.325	0.5
835.494	0.53
835.664	0.38
835.834	0.47
836.004	0.37
836.174	0.38
836.344	-0.42
836.514	-0.66
836.684	-0.36
836.853	1.22
837.023	0.62
837.193	0.44
837.363	0.92
837.532	0.47
837.702	-0.04
837.872	-0.2
838.041	1.47
838.211	0.92
838.381	-0.42
838.55	0.61
838.72	2.36
838.89	1.64
839.059	-0.24
839.229	-0.23
839.398	1.5
839.568	0.97
839.738	0.2
839.907	0.98
840.077	0.31
840.246	-0.04
840.416	-0.47
840.585	0.1
840.755	1.56
840.924	1.03
841.093	-0.25
841.263	0.55
841.432	0.41
841.602	0.75
841.771	-0.02
841.94	-0.07
842.11	1.66
842.279	1.35
842.448	-0.3
842.617	-0.07
842.787	1.35
842.956	-0.46
843.125	0.56
843.294	1.08
843.464	1.05
843.633	1.44
843.802	-0.43
843.971	0.69
844.14	1.17
844.309	1.43
844.479	-0.68
844.648	0.09
844.817	-0.42
844.986	0.44
845.155	-0.31
845.324	0.08
845.493	-0.17
845.662	-0.38
845.831	1.6
846	0.63
846.169	0.47
846.338	1.21
846.507	0.03
846.676	0.31
846.844	0.23
847.013	0.06
847.182	0.8
847.351	0.36
847.52	0.56
847.689	1.32
847.858	-0.07
848.026	0.17
848.195	0.83
848.364	0.21
848.533	0.52
848.701	0.67
848.87	0.28
849.039	0.47
849.207	0.85
849.376	0.54
849.545	1.26
849.713	-0.63
849.882	0.27
850.051	1.3
850.219	1.06
850.388	1.42
850.556	0.36
850.725	-0.53
850.893	1.18
851.062	-0.43
851.23	0.92
851.399	-1.38
851.567	-0.52
851.736	0.7
851.904	-0.22
852.073	0.67
852.241	1.13
852.41	0.18
852.578	-0.11
852.746	0.14
852.915	1.19
853.083	-0.17
853.251	-1.02
853.42	-0.78
853.588	0.95
853.756	1.26
853.924	0.79
854.093	0.76
854.261	0.65
854.429	-0.57
854.597	0.7
854.765	-0.59
854.934	1.5
855.102	0.85
855.27	0.86
855.438	0.7
855.606	1.01
855.774	1.69
855.942	-0.75
856.11	-1.01
856.278	0.4
856.446	1.71
856.614	0.88
856.782	-0.43
856.95	2.02
857.118	1.46
857.286	0.08
857.454	-0.09
857.622	1.18
857.79	0.25
857.958	-0.26
858.126	0.36
858.294	-2.02
858.462	1
858.629	0.24
858.797	-1.2
858.965	0.47
859.133	1.38
859.301	-0.25
859.468	1.58
859.636	-0.52
859.804	1.65
859.971	1.2
860.139	0.58
860.307	1.68
860.474	0.88
860.642	-1.62
860.81	0.53
860.977	-0.15
861.145	0.56
861.313	1.69
861.48	0.4
861.648	1.83
861.815	0.02
861.983	-1.37
862.15	0.5
862.318	2
862.485	1.8
862.653	-0.45
862.82	1
862.988	1.23
863.155	2.01
863.322	0.24
863.49	-1.26
863.657	0.83
863.824	2.36
863.992	1.32
864.159	0.14
864.326	1.73
864.494	-1.55
864.661	3.58
864.828	-0.09
864.996	1.43
865.163	2.61
865.33	-0.31
865.497	-1.59
865.664	0.53
865.832	-1.48
865.999	0.1
866.166	-0.21
866.333	-0.9
866.5	-0.53
866.667	0.85
866.834	0.76
867.001	2.55
867.168	-1.33
867.335	0.71
867.502	-1.91
867.669	1.69
867.836	2.13
868.003	0.53
868.17	2.15
868.337	-1.41
868.504	2.77
868.671	-0.47
868.838	-0.29
869.005	0.94
869.172	2.05
869.339	1.33
869.505	0.93
869.672	0.08
869.839	2.55
870.006	0.86
870.173	-0.02
870.339	2.74
870.506	2.81
870.673	-0.62
870.84	2.25
871.006	1.2
871.173	0.36
871.34	0.67
871.506	0.14
871.673	0.32
871.839	-2.26
872.006	1.03
872.173	0.15
872.339	1.17
872.506	2.75
872.672	2.22
872.839	-0.93
873.005	1.01
873.172	5.15
873.338	2.53
873.505	1.61
873.671	3.31
873.838	1.88
874.004	-0.63
874.171	0.54
874.337	0.84
874.503	0.99
874.67	1.12
874.836	0.57
875.002	2.62
875.169	1.49
875.335	1.53
875.501	0.23
875.668	3.36
875.834	0.81
876	0.14
876.166	3.25
876.332	2.44
876.499	2.7
876.665	1.56
876.831	1.2
876.997	3.57
877.163	2.2
877.329	-0.75
877.495	2.56
877.662	2.71
877.828	1.61
877.994	0.57
878.16	-1.26
878.326	0.59
878.492	1.46
878.658	0.31
878.824	0.15
878.99	2.34
879.156	-1.05
879.322	4.1
879.487	-0.43
879.653	0.03
879.819	-0.34
879.985	-0.91
880.151	1.62
880.317	0.69
880.483	1.29
880.648	3.25
880.814	0.16
880.98	1.83
881.146	-0.83
881.312	-0.55
881.477	1.27
881.643	-0.42
881.809	2.2
881.974	2.23
882.14	-1.19
882.306	2.93
882.471	3.03
882.637	-0.64
882.803	2.54
882.968	3.72
883.134	2.99
883.299	2.11
883.465	1.66
883.63	1.06
883.796	2.12
883.961	1.09
884.127	1.8
884.292	-2.94
884.458	-1.13
884.623	-1.13
