Data from Apollo_Calib_20240827__AbsoluteIrradiance__519__07-48-01-980.txt Node

Date: Wed Aug 28 07:48:01 BST 2024
User: biology
Spectrometer: FLMT08252
Trigger mode: 0
Integration Time (sec): 5.000000E-1
Scans to average: 5
Electric dark correction enabled: true
Nonlinearity correction enabled: false
Boxcar width: 0
XAxis mode: Wavelengths
Number of Pixels in Spectrum: 3648
>>>>>Begin Spectral Data<<<<<
179.588	-0
179.809	-0
180.03	-0
180.251	-0
180.473	-0
180.694	0
180.915	0
181.136	-0
181.357	0
181.578	-0
181.799	-0
182.02	-0
182.241	0
182.462	0
182.683	0
182.904	-0
183.125	-0
183.346	0
183.567	0
183.788	-0
184.009	-0
184.23	0
184.451	0
184.672	-0
184.892	-0
185.113	-0
185.334	0
185.555	-0
185.776	-0
185.996	0
186.217	-0
186.438	0
186.659	-0
186.879	0
187.1	-0
187.321	-0
187.541	-0
187.762	0
187.983	-0
188.203	0
188.424	-0
188.644	0
188.865	-0
189.086	-0
189.306	-0
189.527	-0
189.747	0
189.968	-0
190.188	0
190.409	0
190.629	0
190.849	-0
191.07	-0
191.29	0
191.511	-0
191.731	-0
191.951	-0
192.172	-0
192.392	-0
192.612	-0
192.833	-0
193.053	0
193.273	0
193.493	-0
193.714	0
193.934	0
194.154	0
194.374	0
194.594	-0
194.815	0
195.035	0
195.255	-0
195.475	-0
195.695	0
195.915	0
196.135	-0
196.355	0
196.575	0
196.795	0
197.015	-0
197.235	-0
197.455	-0
197.675	-0
197.895	-0
198.115	-0
198.335	0
198.555	-0
198.775	0
198.995	0
199.214	0
199.434	0
199.654	-0
199.874	-0
200.094	0.95
200.313	-0.22
200.533	-0.19
200.753	-0.72
200.973	0.02
201.192	0.65
201.412	-0.72
201.632	0.12
201.851	1.07
202.071	-0.25
202.291	-0.43
202.51	-0.69
202.73	0.2
202.95	0.1
203.169	-0.57
203.389	0.06
203.608	-0.3
203.828	-0.2
204.047	-0.05
204.267	0.57
204.486	0.16
204.706	-0.02
204.925	-0.25
205.145	-0.28
205.364	-0.03
205.583	0.56
205.803	-0.47
206.022	-0.56
206.242	-0.36
206.461	0.09
206.68	-0.5
206.9	0.02
207.119	0.5
207.338	0.68
207.557	-0.22
207.777	-0.25
207.996	-0.24
208.215	0.54
208.434	-0.21
208.654	-0.43
208.873	-0.04
209.092	0.3
209.311	-0.27
209.53	-0.13
209.749	-0.16
209.968	-0.3
210.187	0.1
210.407	-0.55
210.626	-0.22
210.845	0.25
211.064	0.15
211.283	-0.21
211.502	0.21
211.721	-0.1
211.94	-0.04
212.159	0.12
212.377	0.1
212.596	-0.02
212.815	0.03
213.034	-0
213.253	0.16
213.472	0.2
213.691	-0.13
213.91	-0.53
214.128	-0.22
214.347	0.12
214.566	-0.39
214.785	-0.35
215.003	0.36
215.222	0.11
215.441	-0.01
215.66	-0.33
215.878	0.05
216.097	0.22
216.316	-0.21
216.534	-0.19
216.753	0
216.972	0.09
217.19	-0.22
217.409	-0.16
217.627	-0.17
217.846	-0.16
218.064	0.19
218.283	-0.09
218.501	0.55
218.72	0.31
218.938	-0.23
219.157	-0.01
219.375	0.01
219.594	0.18
219.812	-0.25
220.031	-0.2
220.249	0.41
220.467	0.42
220.686	-0.03
220.904	-0.13
221.122	-0.29
221.341	0.14
221.559	0.14
221.777	-0.23
221.995	-0.09
222.214	0.06
222.432	-0.13
222.65	0.21
222.868	0.02
223.086	0.06
223.305	0.11
223.523	0.02
223.741	0.15
223.959	-0.06
224.177	-0.15
224.395	-0.22
224.613	0.09
224.831	-0.02
225.049	-0.23
225.267	-0.08
225.485	-0.03
225.703	-0.09
225.921	0.02
226.139	-0.14
226.357	0.1
226.575	0.03
226.793	-0.12
227.011	0.31
227.229	0.1
227.447	0.2
227.665	-0.11
227.883	-0.19
228.1	0.07
228.318	-0
228.536	-0.15
228.754	-0.16
228.972	0.02
229.189	0.06
229.407	-0.09
229.625	-0.02
229.843	0.1
230.06	0.03
230.278	-0.1
230.496	-0.06
230.713	0.01
230.931	0.15
231.149	-0.04
231.366	-0.16
231.584	-0.03
231.801	0.26
232.019	-0.13
232.236	-0.1
232.454	-0.16
232.671	0.09
232.889	-0.08
233.106	-0.18
233.324	-0.03
233.541	-0.07
233.759	0.01
233.976	-0.13
234.194	-0.08
234.411	-0.05
234.628	-0.03
234.846	0.01
235.063	-0.02
235.28	-0.03
235.498	-0.09
235.715	-0.2
235.932	-0.06
236.149	-0.05
236.367	-0.11
236.584	0.07
236.801	-0.03
237.018	-0.02
237.236	0.08
237.453	-0.16
237.67	0.06
237.887	-0.02
238.104	0.03
238.321	-0.04
238.538	-0.12
238.755	0.14
238.973	-0.11
239.19	-0.03
239.407	-0.01
239.624	-0
239.841	-0.13
240.058	-0.04
240.275	0.04
240.492	-0.04
240.709	-0.01
240.925	-0.03
241.142	-0.03
241.359	-0.19
241.576	-0.12
241.793	-0.03
242.01	-0.01
242.227	0.07
242.444	0.02
242.66	0.08
242.877	-0.01
243.094	-0.07
243.311	0.01
243.527	-0.05
243.744	0.03
243.961	0.03
244.178	-0.04
244.394	-0.14
244.611	0.11
244.828	0.09
245.044	-0.05
245.261	-0
245.477	-0.01
245.694	0.01
245.911	-0.06
246.127	-0.01
246.344	0.11
246.56	0.02
246.777	0.01
246.993	0.04
247.21	0
247.426	0.07
247.643	-0.08
247.859	-0.1
248.076	-0.02
248.292	0.17
248.508	-0
248.725	-0.02
248.941	0.03
249.157	0.05
249.374	-0.11
249.59	0
249.806	0.02
250.023	-0.01
250.239	-0.01
250.455	-0.05
250.671	0.07
250.888	-0
251.104	0.04
251.32	-0.01
251.536	-0.02
251.752	-0.12
251.969	0
252.185	-0.02
252.401	0.21
252.617	0.03
252.833	0.02
253.049	-0.06
253.265	0.01
253.481	0.06
253.697	-0.04
253.913	-0.04
254.129	0.01
254.345	0.03
254.561	-0.02
254.777	-0.05
254.993	0.08
255.209	0.04
255.425	-0.02
255.641	-0.12
255.857	0.09
256.073	-0.02
256.288	-0.11
256.504	-0.04
256.72	0.02
256.936	0.1
257.152	-0.06
257.367	-0.05
257.583	0.02
257.799	0.03
258.015	-0.04
258.23	-0
258.446	0.11
258.662	0.03
258.877	-0.08
259.093	-0.06
259.309	-0.08
259.524	0.02
259.74	-0.01
259.955	-0.17
260.171	-0.08
260.387	-0.04
260.602	0.06
260.818	0.04
261.033	-0.09
261.249	-0.03
261.464	-0.02
261.68	-0.13
261.895	-0.03
262.11	0.07
262.326	-0.04
262.541	-0.1
262.757	0.06
262.972	0
263.187	0.07
263.403	-0.03
263.618	-0
263.833	-0.01
264.049	0.01
264.264	-0.04
264.479	0.02
264.694	0.09
264.91	-0.08
265.125	-0
265.34	0.08
265.555	0.15
265.77	0.06
265.986	-0.04
266.201	0.1
266.416	0.08
266.631	-0.02
266.846	-0.03
267.061	0.01
267.276	-0.01
267.491	-0.15
267.706	-0.02
267.921	-0.02
268.136	0.02
268.351	0
268.566	-0.09
268.781	0.06
268.996	-0.01
269.211	-0.01
269.426	-0.12
269.641	-0.04
269.856	0
270.071	-0.02
270.285	-0.1
270.5	0.09
270.715	0.03
270.93	-0.02
271.145	0.05
271.359	0.05
271.574	-0.1
271.789	0.04
272.004	-0.05
272.218	-0.01
272.433	0.04
272.648	-0.08
272.862	0.05
273.077	-0.03
273.292	0.04
273.506	-0.05
273.721	-0.04
273.936	0.04
274.15	0.06
274.365	0.01
274.579	0.03
274.794	0.06
275.008	0.12
275.223	-0.07
275.437	-0.01
275.652	-0.04
275.866	0.03
276.081	-0.04
276.295	0.08
276.509	0.02
276.724	-0
276.938	0.04
277.153	-0.01
277.367	-0.01
277.581	-0.07
277.796	0.02
278.01	-0.09
278.224	0.07
278.438	0.07
278.653	-0.06
278.867	-0.04
279.081	-0.16
279.295	-0.01
279.51	0.01
279.724	-0.05
279.938	0.04
280.152	0
280.366	-0.06
280.58	-0.02
280.794	0.08
281.008	0.04
281.222	0.01
281.437	0.05
281.651	-0.01
281.865	0.12
282.079	-0.01
282.293	-0.11
282.507	-0.05
282.721	-0.04
282.935	0.03
283.148	-0.13
283.362	0
283.576	-0.08
283.79	-0.01
284.004	-0.06
284.218	0.05
284.432	-0.08
284.646	-0.01
284.859	0.02
285.073	0.02
285.287	0.04
285.501	-0.03
285.714	-0.03
285.928	0.01
286.142	0.04
286.356	-0.02
286.569	-0.05
286.783	0.02
286.997	0.1
287.21	-0.01
287.424	0.02
287.637	-0.02
287.851	-0.02
288.065	0.01
288.278	-0.02
288.492	0.03
288.705	-0.02
288.919	0.02
289.132	-0.02
289.346	0.06
289.559	-0.05
289.773	-0.03
289.986	-0
290.2	0.01
290.413	0.08
290.626	0
290.84	-0.01
291.053	0.03
291.267	0.08
291.48	0.03
291.693	-0.01
291.906	-0.05
292.12	-0
292.333	-0.05
292.546	-0.02
292.76	0.05
292.973	0.02
293.186	-0
293.399	-0.05
293.612	0.06
293.826	-0.02
294.039	-0.01
294.252	0.01
294.465	-0
294.678	0.03
294.891	0.04
295.104	-0.07
295.317	0.02
295.53	0.01
295.743	0.03
295.956	-0.01
296.169	0.06
296.382	0.01
296.595	0.01
296.808	-0.04
297.021	0
297.234	0.03
297.447	-0.01
297.66	-0
297.873	0.04
298.086	0.04
298.299	-0
298.511	-0.06
298.724	-0.05
298.937	-0.04
299.15	-0.01
299.363	0.02
299.575	0.02
299.788	0.06
300.001	-0.03
300.213	-0.08
300.426	-0.02
300.639	-0.05
300.852	-0.02
301.064	0.07
301.277	0.1
301.489	0.03
301.702	0.03
301.915	-0.03
302.127	-0.03
302.34	0.06
302.552	-0
302.765	-0.01
302.977	0.01
303.19	-0.01
303.402	-0.02
303.615	0.01
303.827	-0.03
304.04	-0.06
304.252	0.06
304.464	-0.03
304.677	0.09
304.889	0.05
305.102	-0.04
305.314	-0.03
305.526	0.05
305.739	-0.01
305.951	0.03
306.163	-0.01
306.375	0.07
306.588	0
306.8	-0.02
307.012	-0.04
307.224	-0.01
307.436	0.07
307.649	-0.07
307.861	0.02
308.073	0
308.285	-0.01
308.497	-0.03
308.709	-0.01
308.921	0.03
309.133	0.03
309.346	0.02
309.558	-0.04
309.77	0.08
309.982	0.06
310.194	0.04
310.406	-0.02
310.617	0.06
310.829	0.04
311.041	0.03
311.253	0.01
311.465	-0
311.677	-0.02
311.889	0.03
312.101	-0.03
312.313	0.04
312.524	0.03
312.736	-0.02
312.948	-0.02
313.16	0.07
313.372	0.04
313.583	0.02
313.795	-0.01
314.007	0.01
314.218	0.02
314.43	0.02
314.642	-0.04
314.853	-0.04
315.065	0.05
315.277	-0.01
315.488	0.02
315.7	0.03
315.912	0.01
316.123	0.02
316.335	-0
316.546	0.11
316.758	0.01
316.969	-0.04
317.181	0.05
317.392	0.03
317.604	0
317.815	-0.02
318.026	-0.03
318.238	-0.03
318.449	0.01
318.661	-0.05
318.872	-0.04
319.083	-0.04
319.295	0.04
319.506	-0.02
319.717	0.04
319.929	0.02
320.14	-0.04
320.351	0.02
320.562	-0.03
320.774	-0.01
320.985	0.01
321.196	-0.05
321.407	-0.05
321.618	0.05
321.829	0.03
322.041	0.04
322.252	-0
322.463	0.01
322.674	0.02
322.885	-0.01
323.096	-0.02
323.307	-0
323.518	0.02
323.729	-0
323.94	0.01
324.151	-0
324.362	0.04
324.573	-0.01
324.784	-0.05
324.995	0.02
325.206	0.01
325.417	-0.03
325.628	0
325.838	-0.02
326.049	0.03
326.26	0.07
326.471	-0.03
326.682	0.04
326.892	0
327.103	-0.06
327.314	-0.02
327.525	0.03
327.735	-0
327.946	0.01
328.157	-0.01
328.368	0.01
328.578	-0.01
328.789	-0
328.999	0.04
329.21	-0.02
329.421	-0.01
329.631	-0.06
329.842	-0.02
330.052	0
330.263	0.01
330.473	-0.01
330.684	0.01
330.894	-0.04
331.105	0.05
331.315	0
331.526	-0.07
331.736	0.03
331.947	0.01
332.157	-0.02
332.367	-0.02
332.578	0.07
332.788	0.06
332.999	0.03
333.209	0.02
333.419	-0.02
333.629	0.03
333.84	0.05
334.05	-0.01
334.26	0.08
334.47	-0.03
334.681	0.06
334.891	-0.02
335.101	0.06
335.311	0.04
335.521	-0.05
335.732	-0.04
335.942	0.05
336.152	0.02
336.362	0.03
336.572	-0.03
336.782	0.03
336.992	0
337.202	-0.03
337.412	-0.02
337.622	0.04
337.832	0.05
338.042	0.01
338.252	-0.05
338.462	-0
338.672	0
338.882	-0.03
339.092	-0
339.302	0.05
339.511	0.02
339.721	0
339.931	-0.06
340.141	0.05
340.351	0.07
340.561	0.02
340.77	-0
340.98	0.08
341.19	-0
341.4	-0.04
341.609	-0.03
341.819	-0
342.029	-0.07
342.238	0.02
342.448	-0.06
342.658	0.06
342.867	0.03
343.077	-0.01
343.286	0.03
343.496	0.03
343.706	0.04
343.915	-0.02
344.125	0.03
344.334	0.02
344.544	-0.1
344.753	-0.02
344.963	-0.03
345.172	-0.05
345.381	0
345.591	-0.05
345.8	0.02
346.01	0.04
346.219	0.04
346.428	-0.02
346.638	-0.03
346.847	-0.03
347.056	0.05
347.266	-0.01
347.475	0.03
347.684	0.04
347.893	0.03
348.103	0.02
348.312	-0.02
348.521	-0.03
348.73	-0
348.94	0.01
349.149	-0.01
349.358	-0.02
349.567	-0.04
349.776	-0.06
349.985	-0.02
350.194	0.06
350.403	0.03
350.612	-0.09
350.821	-0.02
351.03	-0.02
351.239	-0.06
351.448	0.02
351.657	-0.04
351.866	0.05
352.075	0
352.284	0.03
352.493	-0.05
352.702	0.04
352.911	0.01
353.12	0.03
353.329	-0.03
353.538	0.03
353.746	-0.01
353.955	-0.02
354.164	0.04
354.373	-0.01
354.582	0.06
354.79	0.03
354.999	0.07
355.208	0.03
355.416	0.05
355.625	-0.07
355.834	0
356.042	0.02
356.251	-0.02
356.46	-0.04
356.668	-0
356.877	0.07
357.085	0.04
357.294	-0.08
357.503	0.01
357.711	0.02
357.92	0.09
358.128	0.01
358.337	-0.03
358.545	0.05
358.754	-0.02
358.962	0.02
359.17	-0.03
359.379	0.03
359.587	0.04
359.796	-0.02
360.004	0.05
360.212	0
360.421	0.05
360.629	-0.01
360.837	0.02
361.046	0.01
361.254	0.07
361.462	0.04
361.67	-0.03
361.879	0.02
362.087	0.09
362.295	0.03
362.503	-0.03
362.711	-0.08
362.92	-0.03
363.128	-0.01
363.336	-0.03
363.544	-0.05
363.752	-0.04
363.96	-0.02
364.168	-0.03
364.376	0.05
364.584	-0.01
364.792	0.04
365	0.01
365.208	0.01
365.416	0
365.624	0.05
365.832	-0.03
366.04	0.05
366.248	-0
366.456	0.02
366.664	0.02
366.872	-0
367.079	-0.01
367.287	-0.02
367.495	0.04
367.703	0.02
367.911	-0.02
368.118	-0.03
368.326	-0.02
368.534	-0.01
368.742	0.06
368.949	-0.07
369.157	-0.02
369.365	0.01
369.572	-0.02
369.78	-0.04
369.988	0.02
370.195	0.06
370.403	0.02
370.61	-0.02
370.818	0.01
371.026	0.02
371.233	-0.04
371.441	0.03
371.648	-0.05
371.856	-0.02
372.063	-0
372.271	0.01
372.478	-0.03
372.685	-0.03
372.893	-0.01
373.1	-0.03
373.308	-0.03
373.515	0.09
373.722	0.01
373.93	-0.01
374.137	-0.03
374.344	0.08
374.552	0.03
374.759	0.02
374.966	0.01
375.173	-0.03
375.381	0.07
375.588	-0.04
375.795	-0.08
376.002	-0.03
376.209	-0.04
376.417	0.01
376.624	0
376.831	0.03
377.038	-0.01
377.245	-0.06
377.452	-0.03
377.659	-0.04
377.866	-0.04
378.073	-0
378.28	0.07
378.487	0.03
378.694	0.02
378.901	-0.02
379.108	0.02
379.315	0.02
379.522	0.04
379.729	-0
379.936	-0.01
380.143	-0.02
380.35	0.02
380.557	-0.02
380.763	0.05
380.97	-0.01
381.177	0.01
381.384	0.04
381.591	-0.02
381.797	-0.01
382.004	0.04
382.211	0.04
382.418	0.01
382.624	0.04
382.831	0.01
383.038	-0.01
383.244	-0.02
383.451	-0.03
383.658	0.01
383.864	-0.01
384.071	-0.05
384.277	0.06
384.484	-0.07
384.69	0
384.897	-0.01
385.103	-0.04
385.31	-0.02
385.516	0.03
385.723	-0.05
385.929	-0
386.136	-0.01
386.342	0.03
386.549	-0.02
386.755	0.04
386.961	0.03
387.168	-0.04
387.374	-0.01
387.58	0.02
387.787	0.02
387.993	0.03
388.199	-0
388.406	-0.03
388.612	-0.02
388.818	-0.01
389.024	-0.02
389.231	0.02
389.437	0.07
389.643	0.03
389.849	-0.01
390.055	-0.02
390.261	0
390.467	0.01
390.674	-0.03
390.88	-0.02
391.086	0.07
391.292	-0.05
391.498	0.07
391.704	0.03
391.91	-0.03
392.116	-0.05
392.322	-0.06
392.528	0.03
392.734	-0.02
392.94	0.02
393.146	0.01
393.352	-0.02
393.557	-0.04
393.763	0.01
393.969	0.06
394.175	-0.03
394.381	0.08
394.587	-0.02
394.792	-0.04
394.998	0.01
395.204	0.06
395.41	-0.01
395.615	0
395.821	0.01
396.027	0.01
396.233	-0.04
396.438	0.01
396.644	0.07
396.85	0.02
397.055	-0.07
397.261	0.02
397.466	0.06
397.672	-0.02
397.878	0.04
398.083	0.03
398.289	0.01
398.494	0.01
398.7	0.02
398.905	-0.08
399.111	0.05
399.316	-0.07
399.522	0.01
399.727	0.01
399.932	-0.02
400.138	0.03
400.343	0.01
400.549	0.02
400.754	0.01
400.959	-0.01
401.165	-0
401.37	0.01
401.575	0.09
401.78	-0.01
401.986	-0.02
402.191	0.01
402.396	-0
402.601	0
402.807	0.02
403.012	-0.01
403.217	0.02
403.422	0.02
403.627	0.02
403.832	0
404.037	-0.01
404.243	0.03
404.448	-0.03
404.653	-0.02
404.858	-0
405.063	0.04
405.268	-0.03
405.473	-0.06
405.678	-0.01
405.883	0.1
406.088	0.02
406.293	-0.08
406.498	-0.01
406.703	-0.02
406.907	-0.04
407.112	-0.02
407.317	-0.02
407.522	0.05
407.727	-0.03
407.932	-0.03
408.136	0.06
408.341	0.03
408.546	0.03
408.751	0.01
408.956	-0.02
409.16	0.03
409.365	0.03
409.57	-0.07
409.774	-0.01
409.979	0.02
410.184	0.03
410.388	-0.05
410.593	0.05
410.798	-0.04
411.002	-0.06
411.207	0.01
411.411	-0.01
411.616	-0.02
411.82	0.01
412.025	0
412.229	-0.02
412.434	0.04
412.638	0.02
412.843	-0.01
413.047	0.04
413.252	-0.03
413.456	-0.04
413.66	0.03
413.865	-0.08
414.069	0.06
414.273	-0.01
414.478	-0.01
414.682	-0.06
414.886	-0.01
415.091	-0.1
415.295	-0.09
415.499	0
415.703	-0.03
415.908	0.01
416.112	-0.04
416.316	0.04
416.52	-0.02
416.724	-0.07
416.929	-0.04
417.133	0.07
417.337	0.02
417.541	-0.04
417.745	0.02
417.949	0.06
418.153	-0.02
418.357	0
418.561	0.06
418.765	0.02
418.969	0.07
419.173	0.03
419.377	-0.08
419.581	0.08
419.785	-0.03
419.989	-0.09
420.193	-0.04
420.397	-0.02
420.601	0.03
420.804	0.04
421.008	-0.05
421.212	-0.02
421.416	0.07
421.62	-0.03
421.823	-0.03
422.027	0.04
422.231	0.01
422.435	-0.01
422.638	0.01
422.842	0.02
423.046	-0.04
423.249	0.02
423.453	-0.01
423.657	0.02
423.86	-0.06
424.064	0.01
424.268	0.04
424.471	-0.01
424.675	0.07
424.878	0.04
425.082	-0.01
425.285	0.08
425.489	-0.01
425.692	-0
425.896	-0.07
426.099	0.01
426.303	-0.04
426.506	-0.06
426.71	0.02
426.913	0
427.116	0.02
427.32	-0.01
427.523	-0.01
427.726	0.11
427.93	-0.01
428.133	0.01
428.336	-0.04
428.54	-0.09
428.743	0.05
428.946	0.06
429.149	-0.02
429.353	0.02
429.556	-0.02
429.759	-0.03
429.962	-0.06
430.165	-0
430.368	-0
430.571	-0.01
430.775	0
430.978	0.01
431.181	-0.02
431.384	0.03
431.587	-0.04
431.79	-0.01
431.993	-0.07
432.196	0.03
432.399	-0.04
432.602	0.03
432.805	-0.05
433.008	-0.04
433.211	-0.06
433.414	0.01
433.616	-0.01
433.819	-0.04
434.022	-0.12
434.225	0.07
434.428	0.03
434.631	0.02
434.833	-0.01
435.036	-0.02
435.239	0.06
435.442	0.02
435.645	-0.03
435.847	-0.03
436.05	0.05
436.253	-0.01
436.455	-0.03
436.658	-0.03
436.861	0.07
437.063	0.02
437.266	0.03
437.468	0.01
437.671	0.06
437.874	0.03
438.076	-0.06
438.279	-0.01
438.481	0.03
438.684	-0.05
438.886	0.01
439.089	-0.12
439.291	-0.03
439.494	0.07
439.696	-0.06
439.899	-0
440.101	-0
440.303	-0.07
440.506	0.02
440.708	-0
440.91	-0.01
441.113	-0.09
441.315	0
441.517	-0.09
441.72	0.01
441.922	-0.03
442.124	-0.04
442.326	0.01
442.529	0.08
442.731	-0.06
442.933	0.08
443.135	-0.05
443.337	-0.08
443.539	-0.02
443.742	-0.04
443.944	-0
444.146	-0.03
444.348	-0.04
444.55	-0.05
444.752	-0.02
444.954	-0.02
445.156	-0.02
445.358	-0.03
445.56	0.06
445.762	-0.05
445.964	0
446.166	-0.02
446.368	-0.05
446.57	0.08
446.772	0.02
446.974	-0.02
447.175	0.04
447.377	-0.06
447.579	-0.11
447.781	-0.07
447.983	0.05
448.184	0.03
448.386	-0.04
448.588	-0.04
448.79	-0
448.991	0.01
449.193	0
449.395	-0.02
449.597	0.02
449.798	-0.01
450	0.01
450.202	0.03
450.403	-0.03
450.605	0.01
450.806	0.03
451.008	-0.08
451.21	-0.05
451.411	-0.02
451.613	-0.04
451.814	0.03
452.016	-0.02
452.217	0.02
452.419	-0
452.62	0
452.821	0.01
453.023	0.03
453.224	0.04
453.426	-0.03
453.627	0.02
453.828	0.05
454.03	0
454.231	0.01
454.432	-0.05
454.634	0.05
454.835	0
455.036	-0.03
455.238	0.04
455.439	0.08
455.64	-0.04
455.841	-0.01
456.042	0.02
456.244	0.01
456.445	-0.05
456.646	-0.08
456.847	-0
457.048	-0
457.249	0.02
457.45	0.26
457.651	-0.04
457.852	0.06
458.054	0.02
458.255	-0.01
458.456	0.03
458.657	-0
458.858	-0.04
459.058	-0.01
459.259	0.03
459.46	-0
459.661	-0.03
459.862	0.11
460.063	-0
460.264	0.03
460.465	-0.09
460.666	0.11
460.866	-0.06
461.067	-0.01
461.268	0.01
461.469	-0
461.67	-0.02
461.87	-0.02
462.071	-0.01
462.272	-0.07
462.473	-0.02
462.673	0.05
462.874	-0.04
463.075	-0
463.275	-0.07
463.476	0
463.676	0.03
463.877	0
464.078	-0.05
464.278	0.06
464.479	-0.01
464.679	-0
464.88	-0.01
465.08	0.03
465.281	-0.04
465.481	-0.06
465.682	-0.01
465.882	0.02
466.083	-0.02
466.283	0
466.483	0
466.684	-0.06
466.884	-0.04
467.085	-0.01
467.285	0.08
467.485	-0.06
467.686	-0.01
467.886	-0.01
468.086	-0.03
468.286	-0
468.487	-0.01
468.687	-0.03
468.887	-0.04
469.087	-0
469.287	0.03
469.488	-0.06
469.688	0.01
469.888	0.03
470.088	-0
470.288	0.05
470.488	0.02
470.688	-0.06
470.888	0
471.088	-0.03
471.288	0.06
471.488	0.02
471.688	0.01
471.888	-0.01
472.088	0.04
472.288	0.04
472.488	-0.01
472.688	-0.03
472.888	-0.02
473.088	-0.01
473.288	0.01
473.488	-0.01
473.688	0.09
473.887	0.01
474.087	-0.04
474.287	0.01
474.487	-0.04
474.687	0.03
474.886	-0.02
475.086	-0.01
475.286	-0.02
475.486	-0.02
475.685	0.02
475.885	-0
476.085	-0.02
476.284	0.01
476.484	-0.05
476.684	-0
476.883	0.02
477.083	-0.01
477.282	-0.03
477.482	0.04
477.681	0.07
477.881	-0.01
478.08	-0.01
478.28	-0.01
478.479	0.02
478.679	0.09
478.878	-0.02
479.078	-0.05
479.277	-0.04
479.477	-0.01
479.676	0.04
479.875	-0.01
480.075	-0.05
480.274	0
480.473	0.02
480.673	-0.01
480.872	0.04
481.071	0.01
481.271	0.01
481.47	-0.02
481.669	0
481.868	-0.03
482.067	-0.02
482.267	-0.03
482.466	-0.04
482.665	-0.04
482.864	-0.03
483.063	-0.04
483.262	0
483.461	0.03
483.661	0.02
483.86	-0.01
484.059	0.02
484.258	-0
484.457	-0
484.656	-0.03
484.855	0.03
485.054	-0.04
485.253	-0.02
485.452	-0.04
485.651	-0.01
485.849	-0.05
486.048	-0.01
486.247	-0.02
486.446	-0.01
486.645	-0.03
486.844	-0.02
487.043	-0.01
487.241	0.01
487.44	-0.03
487.639	-0.04
487.838	0.01
488.037	0.02
488.235	0.07
488.434	-0.03
488.633	-0.02
488.831	0.01
489.03	0.01
489.229	0.01
489.427	-0.02
489.626	0.03
489.825	0.03
490.023	0.01
490.222	-0.02
490.42	0.03
490.619	0
490.817	0
491.016	-0
491.214	0.03
491.413	0
491.611	-0
491.81	0
492.008	0.01
492.207	0.03
492.405	0.01
492.604	-0.04
492.802	-0.02
493	-0.01
493.199	-0.04
493.397	-0.01
493.595	-0
493.794	-0.02
493.992	0.04
494.19	-0
494.388	0.01
494.587	-0.02
494.785	-0
494.983	-0.01
495.181	-0.02
495.379	-0.03
495.578	-0
495.776	0.03
495.974	0.01
496.172	-0
496.37	-0.01
496.568	-0.03
496.766	-0.03
496.964	0.02
497.162	-0
497.36	-0.05
497.558	0.02
497.756	0.02
497.954	0
498.152	-0
498.35	-0.01
498.548	0.01
498.746	0.01
498.944	-0
499.142	-0.02
499.34	-0.04
499.538	-0
499.736	-0
499.933	0.03
500.131	0
500.329	0.01
500.527	0.02
500.725	0.01
500.922	0.01
501.12	0.01
501.318	0.02
501.516	-0
501.713	0.01
501.911	-0.01
502.109	-0.02
502.306	0
502.504	-0.02
502.701	-0.02
502.899	-0.01
503.097	0.02
503.294	-0.01
503.492	-0
503.689	0.02
503.887	0.02
504.084	0.03
504.282	-0.01
504.479	-0.04
504.677	0
504.874	-0.02
505.072	-0.02
505.269	0
505.466	0.01
505.664	0
505.861	-0.06
506.059	-0.03
506.256	0.02
506.453	-0.01
506.651	0.02
506.848	0.03
507.045	-0
507.242	-0.01
507.44	0
507.637	-0.01
507.834	0
508.031	0.03
508.229	-0.02
508.426	0
508.623	0.01
508.82	0
509.017	-0.02
509.214	0.01
509.411	0
509.608	-0.02
509.805	0.01
510.003	-0.02
510.2	-0.02
510.397	0.02
510.594	-0.03
510.791	-0.02
510.988	-0
511.184	0.01
511.381	-0.01
511.578	-0.02
511.775	-0
511.972	-0.03
512.169	-0.01
512.366	-0
512.563	0.01
512.76	0
512.956	-0
513.153	-0.01
513.35	0.01
513.547	0.01
513.744	-0.03
513.94	-0.02
514.137	0.01
514.334	0.01
514.53	0
514.727	-0.01
514.924	0.06
515.12	-0.01
515.317	-0.02
515.514	0
515.71	-0.03
515.907	-0.02
516.103	-0.01
516.3	-0.01
516.497	0.02
516.693	0.04
516.89	-0.03
517.086	-0.02
517.283	0.03
517.479	0.01
517.676	0.01
517.872	-0.01
518.068	-0.01
518.265	-0.01
518.461	-0.01
518.658	-0.03
518.854	0.01
519.05	-0.01
519.247	-0.02
519.443	0
519.639	0.01
519.836	-0.01
520.032	0.01
520.228	0
520.424	0.03
520.621	0.01
520.817	-0.01
521.013	0.01
521.209	0.01
521.405	0.03
521.601	0.01
521.798	-0
521.994	0.05
522.19	-0.02
522.386	-0.03
522.582	-0.01
522.778	0.01
522.974	0
523.17	0
523.366	0
523.562	0.02
523.758	-0.04
523.954	-0.03
524.15	-0
524.346	0.01
524.542	0
524.738	-0
524.934	0
525.129	-0.01
525.325	0.02
525.521	-0
525.717	0.01
525.913	0.01
526.109	0.01
526.304	0
526.5	0.01
526.696	0.01
526.892	-0.01
527.087	0
527.283	-0.02
527.479	0.02
527.674	-0.01
527.87	-0
528.066	-0.01
528.261	0.04
528.457	-0.02
528.653	-0.01
528.848	-0.01
529.044	-0.01
529.239	0.01
529.435	0.03
529.63	0.01
529.826	0.04
530.021	0.01
530.217	0.03
530.412	-0.01
530.608	-0.03
530.803	-0.01
530.999	-0.01
531.194	-0.04
531.389	0.02
531.585	-0.06
531.78	-0.02
531.975	0
532.171	0.03
532.366	0.01
532.561	0.01
532.757	-0.02
532.952	-0.01
533.147	0.02
533.342	0
533.538	-0.01
533.733	0.04
533.928	-0.01
534.123	-0.01
534.318	-0.01
534.513	-0
534.709	-0
534.904	-0.01
535.099	-0.03
535.294	0.01
535.489	0
535.684	-0.01
535.879	-0.01
536.074	-0.02
536.269	-0.03
536.464	0.01
536.659	-0.02
536.854	0
537.049	0
537.244	0.02
537.439	-0.01
537.634	0.02
537.828	0.01
538.023	-0.01
538.218	-0.05
538.413	-0
538.608	-0.02
538.803	0.02
538.997	-0.02
539.192	0.03
539.387	0.02
539.582	0.03
539.776	0.01
539.971	0.01
540.166	-0.01
540.36	-0.02
540.555	-0.01
540.75	-0
540.944	-0
541.139	-0.03
541.334	0.01
541.528	0.03
541.723	0.01
541.917	-0.01
542.112	-0.04
542.306	0.01
542.501	0
542.695	-0.01
542.89	-0
543.084	0.02
543.279	-0.02
543.473	-0.01
543.668	0.02
543.862	0.01
544.056	0.03
544.251	0
544.445	0.01
544.64	-0.01
544.834	-0.02
545.028	0.02
545.222	0
545.417	0.01
545.611	0.02
545.805	0
546	-0.02
546.194	0
546.388	-0.02
546.582	0.01
546.776	0.01
546.97	0
547.165	0.01
547.359	0.02
547.553	-0.03
547.747	-0.01
547.941	0.02
548.135	-0.01
548.329	0.02
548.523	0.01
548.717	0
548.911	-0.02
549.105	-0.01
549.299	0.01
549.493	0.03
549.687	0.01
549.881	0.02
550.075	-0.01
550.269	-0.01
550.463	0.04
550.657	-0.01
550.85	-0
551.044	-0.02
551.238	0.01
551.432	-0.01
551.626	0
551.82	-0.01
552.013	-0.01
552.207	0.02
552.401	0.02
552.594	0.01
552.788	-0.01
552.982	-0
553.176	-0.01
553.369	0.01
553.563	0.01
553.756	-0.03
553.95	-0.03
554.144	0
554.337	0.02
554.531	-0
554.724	0.02
554.918	-0.01
555.111	0.02
555.305	0.01
555.498	0.06
555.692	0.02
555.885	-0
556.079	0.01
556.272	-0.02
556.466	0.03
556.659	-0.01
556.852	0.02
557.046	-0.03
557.239	0.03
557.432	-0.02
557.626	-0.02
557.819	-0.01
558.012	0.05
558.206	0.04
558.399	0.01
558.592	-0
558.785	0
558.979	0.02
559.172	0
559.365	0.03
559.558	0.02
559.751	0
559.944	0.03
560.138	0
560.331	-0.01
560.524	0
560.717	0.01
560.91	0.01
561.103	0.03
561.296	-0.01
561.489	0.01
561.682	0.02
561.875	0.01
562.068	0.02
562.261	0.01
562.454	0.04
562.647	0.02
562.84	0.03
563.032	0.01
563.225	0
563.418	0
563.611	-0
563.804	0
563.997	0.01
564.19	-0.02
564.382	-0.04
564.575	0.01
564.768	0.01
564.961	0.01
565.153	0
565.346	0.04
565.539	0.04
565.731	0.03
565.924	0.03
566.117	0.03
566.309	0.01
566.502	0
566.695	0.01
566.887	0.02
567.08	-0.02
567.272	0
567.465	-0
567.657	0.03
567.85	0.02
568.042	0.03
568.235	0.05
568.427	-0
568.62	0.03
568.812	0.03
569.005	0.02
569.197	-0.01
569.389	0.03
569.582	0.03
569.774	0.03
569.966	0
570.159	0.01
570.351	0.05
570.543	0.01
570.736	0.02
570.928	-0
571.12	0.01
571.312	-0
571.505	-0.01
571.697	0.05
571.889	-0
572.081	0
572.273	-0
572.465	0.04
572.658	0.04
572.85	0.05
573.042	0.03
573.234	0.02
573.426	0.04
573.618	0.01
573.81	0.06
574.002	0.06
574.194	0.09
574.386	-0
574.578	-0.03
574.77	0.03
574.962	0.04
575.154	0
575.346	0.02
575.538	0.04
575.729	0.01
575.921	0.02
576.113	0.03
576.305	0.06
576.497	0.03
576.689	0.03
576.88	0.04
577.072	0.07
577.264	0.03
577.456	0.05
577.647	-0.02
577.839	0.05
578.031	0.06
578.223	0.04
578.414	0.01
578.606	0.07
578.798	0.05
578.989	0.02
579.181	0.06
579.372	0.06
579.564	0.03
579.755	0.06
579.947	0.06
580.139	0.08
580.33	0.02
580.522	0.03
580.713	0.04
580.905	0.07
581.096	0.1
581.287	0.08
581.479	0.07
581.67	0.08
581.862	0.08
582.053	0.06
582.244	0.04
582.436	0.06
582.627	0.08
582.818	0.08
583.01	0.05
583.201	0.1
583.392	0.12
583.583	0.1
583.775	0.08
583.966	0.09
584.157	0.1
584.348	0.08
584.54	0.08
584.731	0.12
584.922	0.08
585.113	0.09
585.304	0.15
585.495	0.16
585.686	0.13
585.877	0.13
586.068	0.12
586.259	0.14
586.45	0.13
586.641	0.11
586.832	0.09
587.023	0.15
587.214	0.13
587.405	0.15
587.596	0.1
587.787	0.19
587.978	0.18
588.169	0.12
588.36	0.16
588.551	0.19
588.742	0.17
588.932	0.19
589.123	0.17
589.314	0.19
589.505	0.21
589.696	0.2
589.886	0.17
590.077	0.16
590.268	0.21
590.458	0.16
590.649	0.18
590.84	0.22
591.03	0.19
591.221	0.17
591.412	0.18
591.602	0.25
591.793	0.25
591.984	0.22
592.174	0.23
592.365	0.33
592.555	0.24
592.746	0.28
592.936	0.3
593.127	0.26
593.317	0.32
593.508	0.26
593.698	0.28
593.889	0.3
594.079	0.27
594.269	0.3
594.46	0.31
594.65	0.33
594.84	0.34
595.031	0.29
595.221	0.34
595.411	0.31
595.602	0.37
595.792	0.39
595.982	0.36
596.172	0.42
596.363	0.39
596.553	0.4
596.743	0.39
596.933	0.42
597.123	0.42
597.314	0.41
597.504	0.41
597.694	0.46
597.884	0.44
598.074	0.47
598.264	0.46
598.454	0.46
598.644	0.47
598.834	0.5
599.024	0.45
599.214	0.51
599.404	0.58
599.594	0.54
599.784	0.54
599.974	0.57
600.164	0.59
600.354	0.54
600.544	0.54
600.734	0.59
600.924	0.61
601.114	0.62
601.303	0.63
601.493	0.65
601.683	0.63
601.873	0.68
602.063	0.64
602.252	0.71
602.442	0.66
602.632	0.69
602.821	0.69
603.011	0.73
603.201	0.73
603.39	0.77
603.58	0.75
603.77	0.8
603.959	0.84
604.149	0.82
604.339	0.8
604.528	0.88
604.718	0.86
604.907	0.86
605.097	0.88
605.286	0.86
605.476	0.92
605.665	0.95
605.855	0.94
606.044	0.99
606.234	1.03
606.423	1.01
606.612	1
606.802	1.03
606.991	1.09
607.181	1.1
607.37	1.09
607.559	1.05
607.749	1.07
607.938	1.12
608.127	1.16
608.316	1.15
608.506	1.16
608.695	1.26
608.884	1.22
609.073	1.26
609.263	1.28
609.452	1.37
609.641	1.3
609.83	1.3
610.019	1.38
610.208	1.35
610.397	1.39
610.586	1.46
610.775	1.41
610.965	1.44
611.154	1.43
611.343	1.52
611.532	1.51
611.721	1.56
611.91	1.54
612.099	1.61
612.287	1.61
612.476	1.6
612.665	1.73
612.854	1.67
613.043	1.76
613.232	1.76
613.421	1.76
613.61	1.83
613.798	1.88
613.987	1.96
614.176	1.91
614.365	2.01
614.554	1.96
614.742	2.04
614.931	1.98
615.12	2.11
615.309	2.08
615.497	2.18
615.686	2.11
615.875	2.26
616.063	2.26
616.252	2.34
616.44	2.37
616.629	2.36
616.818	2.4
617.006	2.47
617.195	2.45
617.383	2.56
617.572	2.55
617.76	2.62
617.949	2.67
618.137	2.75
618.326	2.85
618.514	2.75
618.703	2.82
618.891	2.94
619.079	2.94
619.268	3.05
619.456	3.02
619.644	3.18
619.833	3.2
620.021	3.18
620.209	3.18
620.398	3.3
620.586	3.31
620.774	3.43
620.962	3.46
621.151	3.61
621.339	3.54
621.527	3.53
621.715	3.65
621.903	3.7
622.092	3.74
622.28	3.94
622.468	3.77
622.656	3.98
622.844	4.01
623.032	4.04
623.22	3.99
623.408	4.22
623.596	4.19
623.784	4.28
623.972	4.14
624.16	4.25
624.348	4.45
624.536	4.52
624.724	4.48
624.912	4.53
625.1	4.56
625.288	4.61
625.476	4.62
625.664	4.78
625.851	4.71
626.039	4.82
626.227	4.77
626.415	4.93
626.603	4.8
626.79	4.86
626.978	4.92
627.166	5.01
627.354	4.98
627.541	5
627.729	4.87
627.917	5.08
628.104	5.06
628.292	5
628.48	5.09
628.667	4.99
628.855	5.17
629.042	5.14
629.23	5.05
629.418	5.02
629.605	5.08
629.793	4.96
629.98	4.97
630.168	4.88
630.355	4.99
630.543	4.92
630.73	4.81
630.917	4.8
631.105	4.9
631.292	4.72
631.48	4.71
631.667	4.75
631.854	4.57
632.042	4.52
632.229	4.47
632.416	4.45
632.604	4.38
632.791	4.18
632.978	4.22
633.165	4.06
633.353	4.07
633.54	4.01
633.727	3.77
633.914	3.69
634.101	3.66
634.289	3.65
634.476	3.51
634.663	3.47
634.85	3.3
635.037	3.2
635.224	3.14
635.411	3.13
635.598	3
635.785	2.92
635.972	2.82
636.159	2.78
636.346	2.69
636.533	2.51
636.72	2.5
636.907	2.45
637.094	2.34
637.281	2.21
637.468	2.23
637.655	2.15
637.842	2.09
638.029	2
638.215	1.94
638.402	1.85
638.589	1.76
638.776	1.73
638.963	1.68
639.149	1.68
639.336	1.6
639.523	1.52
639.709	1.5
639.896	1.38
640.083	1.37
640.27	1.34
640.456	1.25
640.643	1.24
640.829	1.12
641.016	1.14
641.203	1.06
641.389	1.09
641.576	1.02
641.762	1
641.949	0.93
642.135	0.99
642.322	0.9
642.508	0.79
642.695	0.88
642.881	0.8
643.068	0.75
643.254	0.77
643.441	0.78
643.627	0.75
643.813	0.63
644	0.69
644.186	0.61
644.372	0.58
644.559	0.67
644.745	0.56
644.931	0.55
645.118	0.56
645.304	0.55
645.49	0.51
645.676	0.51
645.862	0.52
646.049	0.51
646.235	0.44
646.421	0.54
646.607	0.44
646.793	0.44
646.979	0.36
647.165	0.44
647.352	0.4
647.538	0.4
647.724	0.39
647.91	0.36
648.096	0.38
648.282	0.36
648.468	0.3
648.654	0.32
648.84	0.31
649.026	0.28
649.212	0.29
649.397	0.26
649.583	0.22
649.769	0.26
649.955	0.23
650.141	0.27
650.327	0.25
650.513	0.18
650.698	0.26
650.884	0.15
651.07	0.21
651.256	0.19
651.442	0.19
651.627	0.16
651.813	0.2
651.999	0.17
652.184	0.19
652.37	0.11
652.556	0.12
652.741	0.19
652.927	0.08
653.113	0.15
653.298	0.14
653.484	0.13
653.669	0.09
653.855	0.12
654.04	0.15
654.226	0.14
654.412	0.1
654.597	0.11
654.782	0.08
654.968	0.19
655.153	0.11
655.339	0.09
655.524	0.05
655.71	0.12
655.895	0.09
656.08	0.06
656.266	0.14
656.451	0.09
656.636	0.05
656.822	0.09
657.007	0.05
657.192	0.04
657.378	0.03
657.563	0.06
657.748	0.1
657.933	0.07
658.118	0.05
658.304	0.06
658.489	0.08
658.674	0.07
658.859	0.04
659.044	0.11
659.229	0.1
659.414	0.04
659.599	0.07
659.785	0
659.97	0.04
660.155	0.08
660.34	0.06
660.525	0.06
660.71	0.04
660.895	0.03
661.08	0.05
661.264	0.06
661.449	0.08
661.634	0.09
661.819	0.06
662.004	0.09
662.189	-0.04
662.374	0.02
662.559	0.03
662.743	-0.04
662.928	0.03
663.113	0.02
663.298	-0.02
663.483	0.02
663.667	0.03
663.852	0.01
664.037	0.08
664.221	-0
664.406	0.04
664.591	0.05
664.775	0.03
664.96	0.02
665.145	0.03
665.329	0.07
665.514	-0
665.698	0.01
665.883	-0.02
666.068	0.08
666.252	0.03
666.437	-0.02
666.621	0.04
666.806	0.05
666.99	0.01
667.174	0
667.359	0.06
667.543	0.02
667.728	-0.01
667.912	-0.05
668.096	0.04
668.281	-0.03
668.465	0.06
668.649	0.02
668.834	-0.03
669.018	0.03
669.202	-0
669.387	-0.05
669.571	0.03
669.755	-0.06
669.939	0.05
670.124	-0.01
670.308	0.05
670.492	0.04
670.676	0.01
670.86	-0
671.044	0.01
671.228	0.04
671.413	-0.03
671.597	0.01
671.781	-0.02
671.965	0.05
672.149	0.04
672.333	-0
672.517	0.01
672.701	0.09
672.885	0.01
673.069	-0.05
673.253	0.04
673.437	0.01
673.621	-0
673.804	0.02
673.988	-0.01
674.172	-0.02
674.356	-0.04
674.54	0.01
674.724	0.11
674.908	0.03
675.091	0.02
675.275	0.05
675.459	0.07
675.643	0.05
675.826	0.03
676.01	0.02
676.194	0.01
676.377	0.07
676.561	0.03
676.745	0.04
676.928	0.02
677.112	0.08
677.296	-0.03
677.479	-0.01
677.663	-0.01
677.846	0.03
678.03	0.01
678.213	0
678.397	0
678.58	0.02
678.764	-0
678.947	-0.04
679.131	0
679.314	0.06
679.498	0.01
679.681	0.01
679.865	0.09
680.048	0.01
680.231	-0.02
680.415	0
680.598	-0.04
680.781	-0.03
680.965	-0.02
681.148	0.03
681.331	-0.02
681.514	0
681.698	0.01
681.881	0.02
682.064	-0
682.247	-0.01
682.43	-0.07
682.614	0
682.797	0.06
682.98	0.04
683.163	-0.01
683.346	0.06
683.529	0
683.712	-0.07
683.895	0.07
684.078	-0.04
684.261	0
684.444	0.03
684.627	0.01
684.81	-0
684.993	-0.03
685.176	0.02
685.359	-0.03
685.542	-0
685.725	0.07
685.908	-0.02
686.091	-0.02
686.274	0.09
686.457	0.04
686.639	0
686.822	0.04
687.005	0.04
687.188	0.01
687.371	0.06
687.553	0.02
687.736	0.01
687.919	0.07
688.102	0.1
688.284	-0.05
688.467	0.04
688.65	-0.01
688.832	0
689.015	-0.02
689.197	-0.1
689.38	0.11
689.563	0.09
689.745	0.01
689.928	-0.09
690.11	0
690.293	0.04
690.475	-0.05
690.658	0.05
690.84	0.03
691.023	-0.08
691.205	0.01
691.388	0
691.57	0.04
691.752	0.01
691.935	-0.07
692.117	0
692.3	-0.01
692.482	0.04
692.664	0.03
692.847	0.04
693.029	0.05
693.211	0.03
693.393	-0.02
693.576	-0.04
693.758	0.02
693.94	0.01
694.122	-0.06
694.304	-0.03
694.487	-0.03
694.669	0.08
694.851	-0.05
695.033	0.03
695.215	-0.07
695.397	-0
695.579	0.02
695.761	0.01
695.943	-0.04
696.125	0.05
696.308	0.05
696.49	-0.12
696.671	0.08
696.853	0
697.035	0.13
697.217	0.01
697.399	0.01
697.581	-0.04
697.763	-0.01
697.945	-0.05
698.127	-0.02
698.309	0.08
698.491	-0.04
698.672	0.06
698.854	0.05
699.036	0.06
699.218	0.03
699.399	0.05
699.581	0.02
699.763	-0.02
699.945	-0.03
700.126	-0.03
700.308	-0.02
700.49	-0.03
700.671	-0.09
700.853	-0.06
701.035	-0.05
701.216	-0
701.398	-0.05
701.579	-0.03
701.761	0.07
701.943	-0.06
702.124	-0.03
702.306	-0.07
702.487	0.11
702.669	0.01
702.85	-0.04
703.031	-0.08
703.213	0.05
703.394	0.04
703.576	-0.07
703.757	0.03
703.938	0.02
704.12	0.17
704.301	0.04
704.483	-0.05
704.664	0.03
704.845	0.05
705.026	0.08
705.208	-0.03
705.389	-0.06
705.57	0.03
705.751	-0.12
705.933	0.02
706.114	0.05
706.295	0.08
706.476	-0.05
706.657	0.11
706.838	0.06
707.02	0.05
707.201	-0.02
707.382	0
707.563	0.02
707.744	-0.05
707.925	-0.05
708.106	-0.06
708.287	0.01
708.468	0.08
708.649	-0.02
708.83	0.04
709.011	-0.01
709.192	0.04
709.373	-0.02
709.554	0.01
709.734	0.04
709.915	-0
710.096	-0.02
710.277	-0.1
710.458	0.02
710.639	0.01
710.819	-0.09
711	-0.01
711.181	0.02
711.362	-0
711.542	0.06
711.723	0.01
711.904	0.01
712.085	-0.03
712.265	0.02
712.446	-0.08
712.627	-0.03
712.807	-0.01
712.988	-0.02
713.168	-0.05
713.349	0.01
713.53	-0.11
713.71	-0.01
713.891	-0.05
714.071	-0.04
714.252	-0.04
714.432	-0
714.613	-0.11
714.793	0.02
714.974	0.07
715.154	0.11
715.334	0.01
715.515	-0.02
715.695	-0.12
715.876	-0.03
716.056	-0.02
716.236	-0.06
716.417	-0.02
716.597	-0.07
716.777	0.08
716.957	-0.03
717.138	-0.02
717.318	0
717.498	-0.07
717.678	0.03
717.859	-0.01
718.039	-0.08
718.219	0.09
718.399	0.1
718.579	-0.1
718.759	-0.04
718.939	-0.03
719.12	-0.03
719.3	0.02
719.48	-0.08
719.66	-0.12
719.84	0.07
720.02	0.03
720.2	0
720.38	0
720.56	0.09
720.74	-0.02
720.92	0.01
721.1	0.09
721.279	0.07
721.459	0.02
721.639	-0.08
721.819	0.1
721.999	0
722.179	0.05
722.359	-0.02
722.538	0.02
722.718	-0.06
722.898	-0.06
723.078	-0.02
723.257	-0.03
723.437	-0.01
723.617	-0.02
723.797	-0.03
723.976	-0.04
724.156	0.03
724.336	0.11
724.515	0.19
724.695	-0.15
724.874	-0.05
725.054	0.05
725.234	-0.06
725.413	0.03
725.593	-0.04
725.772	0.07
725.952	-0.14
726.131	-0.03
726.311	0.02
726.49	0.02
726.67	-0.1
726.849	-0.08
727.028	-0.02
727.208	-0.09
727.387	-0.01
727.567	-0.13
727.746	0
727.925	-0.08
728.105	-0.13
728.284	-0.04
728.463	-0.08
728.643	0.01
728.822	-0.04
729.001	0.02
729.18	-0.01
729.359	0.05
729.539	0.02
729.718	0.05
729.897	0.01
730.076	-0.06
730.255	-0.14
730.434	0.09
730.614	0.01
730.793	0.06
730.972	-0.09
731.151	0.04
731.33	0.09
731.509	-0.01
731.688	0.04
731.867	-0.09
732.046	-0.2
732.225	0.17
732.404	-0.07
732.583	-0.09
732.762	0.03
732.941	-0
733.12	0.15
733.298	-0.01
733.477	0.06
733.656	-0.13
733.835	-0.06
734.014	0.04
734.193	-0.01
734.371	0.08
734.55	-0.03
734.729	-0.1
734.908	-0.03
735.086	0.01
735.265	0.05
735.444	-0.18
735.623	-0.07
735.801	-0.04
735.98	0.03
736.159	-0.05
736.337	0.04
736.516	-0.05
736.694	0.07
736.873	-0.08
737.052	0.05
737.23	0.13
737.409	-0
737.587	0.07
737.766	-0.18
737.944	-0.07
738.123	-0.01
738.301	0.03
738.479	-0.14
738.658	0.05
738.836	-0.18
739.015	0.05
739.193	0.09
739.371	-0.02
739.55	-0.1
739.728	-0.12
739.906	0.09
740.085	0.11
740.263	-0.02
740.441	-0.18
740.62	0.18
740.798	0.1
740.976	0.01
741.154	-0.1
741.332	0.07
741.511	-0.05
741.689	-0.03
741.867	-0.01
742.045	-0.07
742.223	0.02
742.401	-0.07
742.579	-0.05
742.757	0.07
742.935	-0.13
743.114	-0.04
743.292	-0.13
743.47	-0.09
743.648	-0.09
743.826	0.06
744.004	0.09
744.181	0.04
744.359	-0
744.537	-0.01
744.715	-0.03
744.893	-0.11
745.071	-0
745.249	-0.06
745.427	-0.06
745.605	0.11
745.782	-0.02
745.96	-0.02
746.138	-0
746.316	0.03
746.493	-0.08
746.671	-0.05
746.849	-0.03
747.027	0.12
747.204	-0.11
747.382	0.01
747.56	-0.06
747.737	0.07
747.915	-0.01
748.093	0.05
748.27	0.02
748.448	-0.02
748.625	-0.05
748.803	-0.13
748.98	-0.05
749.158	0.01
749.335	0.03
749.513	-0.08
749.69	-0.03
749.868	-0.15
750.045	0.01
750.223	-0.04
750.4	-0.28
750.578	0.14
750.755	0.01
750.932	-0.22
751.11	0.11
751.287	-0.23
751.464	0.04
751.642	-0.06
751.819	0.01
751.996	0
752.173	-0.08
752.351	-0.04
752.528	-0.04
752.705	-0.02
752.882	-0.05
753.06	0.06
753.237	-0.01
753.414	0.12
753.591	0.13
753.768	-0.07
753.945	-0.05
754.122	-0.12
754.299	0.02
754.476	-0.06
754.654	-0.05
754.831	0.06
755.008	0.06
755.185	-0.12
755.362	-0.12
755.539	-0.02
755.716	-0.06
755.892	-0.08
756.069	-0.05
756.246	-0.01
756.423	-0.09
756.6	0.19
756.777	-0.07
756.954	0.1
757.131	-0.06
757.307	-0.12
757.484	-0.01
757.661	-0.02
757.838	-0.03
758.015	-0.03
758.191	0.03
758.368	0.01
758.545	0.25
758.721	0.1
758.898	-0.11
759.075	0.04
759.251	0.12
759.428	0.01
759.605	-0
759.781	0.08
759.958	0.01
760.134	0.04
760.311	-0.14
760.488	0.02
760.664	0.16
760.841	-0.07
761.017	-0.14
761.194	0.06
761.37	0.08
761.547	0.04
761.723	-0.08
761.899	0.21
762.076	-0.1
762.252	-0.19
762.429	-0.11
762.605	0.04
762.781	-0.02
762.958	0.02
763.134	-0.08
763.31	-0.11
763.486	-0.01
763.663	-0.09
763.839	-0
764.015	-0.17
764.191	-0.1
764.368	0
764.544	0.03
764.72	0.04
764.896	0.02
765.072	-0
765.248	-0.12
765.425	-0.11
765.601	0.08
765.777	0.01
765.953	-0.18
766.129	-0.08
766.305	-0.18
766.481	-0.08
766.657	0.09
766.833	0.24
767.009	-0.14
767.185	-0.03
767.361	-0.08
767.537	-0.21
767.713	0.09
767.889	-0.16
768.065	0.1
768.24	-0.19
768.416	0.09
768.592	-0.16
768.768	-0.03
768.944	-0.04
769.12	-0.13
769.295	-0.15
769.471	-0.14
769.647	-0
769.823	0.23
769.998	-0.14
770.174	-0.19
770.35	0.21
770.525	0.34
770.701	0.05
770.877	0.01
771.052	-0.21
771.228	0.03
771.403	-0.06
771.579	0.07
771.755	0.17
771.93	-0.02
772.106	-0.11
772.281	-0.21
772.457	-0.06
772.632	0
772.808	-0.1
772.983	0.15
773.159	-0.23
773.334	0.09
773.509	-0.05
773.685	-0.03
773.86	0.28
774.036	0.04
774.211	0.02
774.386	-0.11
774.562	0.06
774.737	-0.14
774.912	-0.07
775.087	0.08
775.263	0.06
775.438	-0.06
775.613	-0.11
775.788	-0.01
775.964	0.07
776.139	0.18
776.314	-0.2
776.489	0.02
776.664	0.18
776.839	-0.21
777.014	0.28
777.19	0.16
777.365	0.27
777.54	0.31
777.715	-0.1
777.89	-0.06
778.065	-0.11
778.24	-0.05
778.415	0.28
778.59	-0.28
778.765	-0.13
778.94	0.06
779.115	-0.16
779.289	-0.03
779.464	-0.01
779.639	0.19
779.814	-0.27
779.989	-0.22
780.164	0.28
780.339	0.04
780.513	-0.11
780.688	-0.13
780.863	-0.02
781.038	0.01
781.212	-0.16
781.387	-0.09
781.562	0.01
781.737	-0.14
781.911	0.26
782.086	-0.22
782.261	-0.03
782.435	0.27
782.61	-0.11
782.784	0.02
782.959	0.29
783.134	-0.23
783.308	-0.22
783.483	-0.07
783.657	0.49
783.832	0.11
784.006	-0.3
784.181	-0.03
784.355	0.04
784.53	-0.31
784.704	-0.15
784.878	0.32
785.053	-0.07
785.227	0.21
785.402	0.2
785.576	-0.26
785.75	-0.16
785.925	-0.06
786.099	0.11
786.273	-0.05
786.448	-0.07
786.622	0.17
786.796	-0.13
786.97	-0.09
787.145	0.17
787.319	-0.39
787.493	-0.19
787.667	-0.4
787.841	-0.01
788.015	0.14
788.19	-0.24
788.364	0.04
788.538	-0.05
788.712	-0.1
788.886	0.09
789.06	0.25
789.234	0.28
789.408	-0.22
789.582	-0.27
789.756	0.01
789.93	-0.22
790.104	-0.16
790.278	-0.24
790.452	-0.3
790.626	0.02
790.8	-0.21
790.973	0.21
791.147	0.19
791.321	0.18
791.495	0.05
791.669	-0.13
791.843	0.02
792.016	0.03
792.19	0.52
792.364	-0.31
792.538	0.36
792.711	0.13
792.885	-0.19
793.059	-0.2
793.233	-0.56
793.406	0.2
793.58	-0.01
793.754	0.24
793.927	-0.08
794.101	0.3
794.274	-0.2
794.448	0.4
794.622	-0.07
794.795	0.2
794.969	-0.29
795.142	0.39
795.316	0.05
795.489	0.1
795.663	0.42
795.836	-0
796.009	-0.09
796.183	0.34
796.356	0.14
796.53	0.11
796.703	-0.12
796.876	0.54
797.05	-0.18
797.223	-0.22
797.396	-0.15
797.57	-0.03
797.743	0.31
797.916	-0.01
798.09	0.11
798.263	0.08
798.436	0.06
798.609	-0.22
798.782	-0.11
798.956	0
799.129	-0.03
799.302	-0.12
799.475	-0.17
799.648	-0.14
799.821	-0.18
799.994	-0.06
800.167	-0.19
800.34	0.07
800.514	-0.03
800.687	-0.19
800.86	-0.11
801.033	0.12
801.206	-0.09
801.379	0.05
801.551	0.38
801.724	0.28
801.897	0.31
802.07	0.01
802.243	-0.63
802.416	0.09
802.589	-0.3
802.762	0.14
802.935	0.11
803.107	-0.04
803.28	0.05
803.453	0.29
803.626	-0.05
803.798	0.01
803.971	-0.12
804.144	0.08
804.317	-0.05
804.489	0.05
804.662	-0.1
804.835	-0.09
805.007	-0.35
805.18	0.41
805.353	0.38
805.525	-0.4
805.698	-0.16
805.87	0.2
806.043	0.32
806.215	-0.41
806.388	-0.23
806.56	0.3
806.733	0.22
806.905	0.18
807.078	-0.11
807.25	-0.37
807.423	0.11
807.595	-0.06
807.768	0.08
807.94	0.49
808.112	-0.18
808.285	-0.05
808.457	-0.28
808.629	0.11
808.802	-0.07
808.974	-0.06
809.146	-0.24
809.318	-0.53
809.491	0.05
809.663	-0
809.835	0.09
810.007	0.06
810.18	-0.18
810.352	-0.4
810.524	-0.03
810.696	-0.07
810.868	0.31
811.04	-0.09
811.212	-0.58
811.384	0.32
811.556	-0.13
811.728	0.02
811.901	0.77
812.073	-0.03
812.245	-0.33
812.417	-0.12
812.589	-0.56
812.76	0.02
812.932	0.04
813.104	0.16
813.276	-0.08
813.448	0.32
813.62	-0
813.792	0.08
813.964	0.23
814.136	0.26
814.307	-0.18
814.479	-0.48
814.651	-0.09
814.823	0.62
814.995	-0.28
815.166	-0.01
815.338	-0.18
815.51	-0.45
815.681	0.8
815.853	-0.32
816.025	-0.16
816.196	0.38
816.368	0.38
816.54	-0.26
816.711	-0.49
816.883	-0.31
817.054	0.84
817.226	-0.59
817.398	0
817.569	-0.17
817.741	-0.12
817.912	0.04
818.084	-0.08
818.255	-0.34
818.426	-0.25
818.598	-0.3
818.769	-0.17
818.941	0.19
819.112	0.88
819.283	-0.13
819.455	-0.27
819.626	-0.1
819.798	0.35
819.969	0.03
820.14	-0.01
820.311	-0.38
820.483	0.27
820.654	0.32
820.825	-0.04
820.996	-0.19
821.168	-0.39
821.339	-0.28
821.51	-0.5
821.681	-0.46
821.852	-0.31
822.023	-0.43
822.195	-0.65
822.366	0.49
822.537	0.08
822.708	0.04
822.879	-0.27
823.05	0.32
823.221	-0.21
823.392	-0.08
823.563	-0.21
823.734	0.19
823.905	-0.17
824.076	-0.08
824.247	-0.28
824.418	-0.5
824.589	-0.03
824.759	0.49
824.93	-0.02
825.101	-0.99
825.272	0.32
825.443	0.26
825.614	0.73
825.784	-0.73
825.955	0.74
826.126	1.01
826.297	0.23
826.467	0.73
826.638	0.54
826.809	-0.7
826.98	0.47
827.15	0.19
827.321	-0.08
827.492	0.79
827.662	0.09
827.833	1.12
828.003	0.07
828.174	0.17
828.345	-0.71
828.515	0.46
828.686	-0.08
828.856	-0.29
829.027	0.23
829.197	0.11
829.368	0.22
829.538	-0.39
829.709	-0.45
829.879	-0.23
830.049	-0.38
830.22	-0.38
830.39	0.33
830.56	0.83
830.731	0.05
830.901	-0.35
831.072	0.11
831.242	0.35
831.412	0.06
831.582	-0.05
831.753	-1.07
831.923	0.79
832.093	-0.57
832.263	-0.08
832.434	-0.51
832.604	-0.44
832.774	0.28
832.944	-0.05
833.114	-0.36
833.284	0.28
833.454	-0.81
833.624	-1.11
833.795	-0.72
833.965	0.15
834.135	0.49
834.305	-1.19
834.475	-1.12
834.645	0.24
834.815	-0.6
834.985	-0.5
835.155	-0.77
835.325	0.43
835.494	0.27
835.664	-0.51
835.834	-1.2
836.004	-0.15
836.174	-0.13
836.344	0.13
836.514	-0.62
836.684	0
836.853	-0.03
837.023	0.53
837.193	-0.69
837.363	0.47
837.532	0.03
837.702	0.28
837.872	-0.93
838.041	0.75
838.211	0.73
838.381	-0.46
838.55	-0.44
838.72	1.43
838.89	0.94
839.059	-0.29
839.229	-0.02
839.398	0.85
839.568	-0.12
839.738	0.14
839.907	0.52
840.077	0.19
840.246	-0.69
840.416	-1.37
840.585	-0.37
840.755	0.75
840.924	0.23
841.093	-0.71
841.263	-0.4
841.432	-0.13
841.602	-0.71
841.771	-0.59
841.94	0.17
842.11	1.11
842.279	1.8
842.448	-0.45
842.617	-1.01
842.787	0.92
842.956	-0.74
843.125	0.45
843.294	0.67
843.464	0.8
843.633	0.38
843.802	-1.1
843.971	-0.53
844.14	0.44
844.309	1.38
844.479	-0.88
844.648	-0.9
844.817	0.17
844.986	0.54
845.155	-0.79
845.324	-0.33
845.493	-0.55
845.662	-0.73
845.831	0.23
846	0.44
846.169	-0.21
846.338	0.67
846.507	0.43
846.676	0.43
846.844	-0.73
847.013	-0.17
847.182	-0.5
847.351	-0.62
847.52	-0.34
847.689	0.43
847.858	0.41
848.026	-0.01
848.195	0.24
848.364	-0.79
848.533	-1.26
848.701	-0.84
848.87	-0.12
849.039	0.25
849.207	0.75
849.376	0.88
849.545	0.54
849.713	-0.17
849.882	-0.75
850.051	-0.15
850.219	0
850.388	0.18
850.556	-1.07
850.725	-0.06
850.893	0.63
851.062	-0.48
851.23	0.73
851.399	-1.24
851.567	-0.34
851.736	0.14
851.904	-0.6
852.073	0.3
852.241	0.62
852.41	0.09
852.578	-0.07
852.746	-0.46
852.915	-0.62
853.083	0.2
853.251	-0.39
853.42	-0.36
853.588	-0.3
853.756	0.02
853.924	-0.5
854.093	-0.12
854.261	-1.67
854.429	-0.91
854.597	-0.43
854.765	-1.16
854.934	0.41
855.102	0.97
855.27	-0.67
855.438	1.47
855.606	1.6
855.774	1.55
855.942	-1.18
856.11	-1.93
856.278	-0.07
856.446	0.05
856.614	0.06
856.782	-1.04
856.95	0.62
857.118	-0.28
857.286	0.46
857.454	-0.57
857.622	0.27
857.79	1.07
857.958	-1.06
858.126	-0.94
858.294	-2.93
858.462	-1.36
858.629	-0.32
858.797	-0.42
858.965	0.63
859.133	0.31
859.301	0.27
859.468	0.18
859.636	-1.26
859.804	1.74
859.971	0.43
860.139	-1.13
860.307	1.01
860.474	-0.56
860.642	-0.98
860.81	-0.72
860.977	0.29
861.145	1.11
861.313	-0.82
861.48	-0.77
861.648	0.15
861.815	0.15
861.983	-0.94
862.15	-0.74
862.318	0.05
862.485	0.24
862.653	0.66
862.82	-0.75
862.988	1.38
863.155	0.49
863.322	-0.75
863.49	-1.3
863.657	-1.75
863.824	0.92
863.992	-1.11
864.159	0.83
864.326	1.75
864.494	-1.13
864.661	2.16
864.828	-2.05
864.996	1.04
865.163	1.24
865.33	0.06
865.497	-1.38
865.664	-0.82
865.832	-1.28
865.999	-0.45
866.166	-1.13
866.333	-1.14
866.5	-0.39
866.667	-0.16
866.834	-1.57
867.001	0.9
867.168	-2.39
867.335	-0.14
867.502	-2.43
867.669	-0.5
867.836	1.75
868.003	-1.09
868.17	0.15
868.337	1.27
868.504	2.25
868.671	-1.98
868.838	-0.13
869.005	0.17
869.172	-0.56
869.339	0.88
869.505	-0.69
869.672	-0.3
869.839	-0.04
870.006	-0.93
870.173	-2.46
870.339	0.65
870.506	2.04
870.673	-1.53
870.84	-0.17
871.006	0.26
871.173	-0.78
871.34	0.2
871.506	-1.04
871.673	1.06
871.839	-2.2
872.006	0.99
872.173	-0.69
872.339	-0.09
872.506	1.15
872.672	-1.11
872.839	-1.99
873.005	-1.26
873.172	0.77
873.338	1.27
873.505	-0.33
873.671	-0.3
873.838	-0.33
874.004	-1.07
874.171	-1.11
874.337	1.13
874.503	2.29
874.67	-0.99
874.836	-1.29
875.002	3.53
875.169	1.81
875.335	0.58
875.501	-1.19
875.668	-0.91
875.834	-0.03
876	0.04
876.166	-0.46
876.332	-0.28
876.499	1.72
876.665	-1.05
876.831	0.44
876.997	3.21
877.163	1.71
877.329	-0.23
877.495	1.05
877.662	2.86
877.828	-0.03
877.994	-1.52
878.16	-3.41
878.326	-3.03
878.492	0.3
878.658	-1.29
878.824	-1.31
878.99	1.21
879.156	-1.39
879.322	2
879.487	-1.42
879.653	0.81
879.819	-0.05
879.985	-1.31
880.151	-0.78
880.317	-0.05
880.483	-1.51
880.648	1.03
880.814	-2.23
880.98	2.78
881.146	-2.34
881.312	-0.52
881.477	-2.06
881.643	-0.73
881.809	1.85
881.974	2.13
882.14	-0.75
882.306	0.42
882.471	3.17
882.637	0.38
882.803	0.79
882.968	2.49
883.134	3.67
883.299	0.51
883.465	-0.39
883.63	1.27
883.796	0.68
883.961	0.32
884.127	-0.09
884.292	-5.93
884.458	-3.06
884.623	-3.06
