Data from Apollo_Calib_20240827__AbsoluteIrradiance__570__08-39-01-062.txt Node

Date: Wed Aug 28 08:39:01 BST 2024
User: biology
Spectrometer: FLMT08252
Trigger mode: 0
Integration Time (sec): 5.000000E-1
Scans to average: 5
Electric dark correction enabled: true
Nonlinearity correction enabled: false
Boxcar width: 0
XAxis mode: Wavelengths
Number of Pixels in Spectrum: 3648
>>>>>Begin Spectral Data<<<<<
179.588	-0
179.809	-0
180.03	-0
180.251	-0
180.473	-0
180.694	0
180.915	0
181.136	-0
181.357	0
181.578	-0
181.799	-0
182.02	-0
182.241	-0
182.462	0
182.683	0
182.904	-0
183.125	-0
183.346	0
183.567	0
183.788	-0
184.009	-0
184.23	0
184.451	0
184.672	-0
184.892	-0
185.113	0
185.334	0
185.555	-0
185.776	-0
185.996	0
186.217	0
186.438	0
186.659	-0
186.879	0
187.1	-0
187.321	-0
187.541	-0
187.762	0
187.983	-0
188.203	0
188.424	0
188.644	0
188.865	0
189.086	-0
189.306	-0
189.527	0
189.747	0
189.968	-0
190.188	0
190.409	0
190.629	0
190.849	0
191.07	-0
191.29	0
191.511	0
191.731	-0
191.951	-0
192.172	-0
192.392	-0
192.612	-0
192.833	0
193.053	0
193.273	0
193.493	0
193.714	0
193.934	0
194.154	0
194.374	0
194.594	-0
194.815	0
195.035	0
195.255	0
195.475	-0
195.695	0
195.915	0
196.135	0
196.355	0
196.575	0
196.795	0
197.015	-0
197.235	-0
197.455	-0
197.675	0
197.895	-0
198.115	0
198.335	0
198.555	-0
198.775	0
198.995	0
199.214	0
199.434	0
199.654	0
199.874	0
200.094	0.79
200.313	-0.11
200.533	-0.17
200.753	-1.27
200.973	0.71
201.192	0.59
201.412	-0.69
201.632	-0.12
201.851	1.01
202.071	0.16
202.291	-0.14
202.51	-0.43
202.73	0.53
202.95	0.28
203.169	-0.36
203.389	0.28
203.608	0.36
203.828	-0.66
204.047	-0.06
204.267	0.77
204.486	0.03
204.706	0.14
204.925	0.3
205.145	-0
205.364	0.47
205.583	0.82
205.803	-0.23
206.022	0.18
206.242	0.09
206.461	0.22
206.68	-0.14
206.9	0.24
207.119	0.84
207.338	0.74
207.557	-0.08
207.777	-0.06
207.996	-0.06
208.215	0.62
208.434	-0.05
208.654	-0.31
208.873	0.25
209.092	0.65
209.311	0.01
209.53	-0.03
209.749	-0
209.968	-0.23
210.187	0.04
210.407	-0.41
210.626	0.05
210.845	0.47
211.064	0.1
211.283	-0.23
211.502	0.2
211.721	0.24
211.94	-0.16
212.159	0.21
212.377	0.35
212.596	0.45
212.815	0.21
213.034	0.39
213.253	0.24
213.472	0.35
213.691	-0.15
213.91	-0.09
214.128	0.18
214.347	0.34
214.566	-0.18
214.785	-0.29
215.003	0.27
215.222	0.25
215.441	0.09
215.66	-0.17
215.878	0.19
216.097	0.31
216.316	-0.11
216.534	-0.01
216.753	0.06
216.972	0.16
217.19	0.03
217.409	0.06
217.627	-0.07
217.846	-0.12
218.064	0.15
218.283	-0.14
218.501	0.37
218.72	0.34
218.938	-0.26
219.157	-0.07
219.375	0.18
219.594	0.1
219.812	-0.14
220.031	0
220.249	0.21
220.467	0.38
220.686	0.05
220.904	-0.13
221.122	-0.07
221.341	0.31
221.559	-0.02
221.777	-0.1
221.995	-0
222.214	0.21
222.432	-0.05
222.65	0.24
222.868	0.03
223.086	0.2
223.305	0.12
223.523	0.1
223.741	0.24
223.959	-0.08
224.177	-0.2
224.395	-0.07
224.613	-0.04
224.831	0.26
225.049	0.03
225.267	-0
225.485	0.12
225.703	-0.02
225.921	0.19
226.139	0.03
226.357	0.18
226.575	0.04
226.793	-0.2
227.011	0.49
227.229	-0.02
227.447	0.13
227.665	0
227.883	-0.1
228.1	0.17
228.318	0.14
228.536	-0.25
228.754	-0.15
228.972	0.11
229.189	0.15
229.407	0.04
229.625	0
229.843	0.22
230.06	0.22
230.278	-0.08
230.496	0.02
230.713	0.01
230.931	0.1
231.149	0
231.366	-0.2
231.584	0.01
231.801	0.32
232.019	-0.04
232.236	-0.09
232.454	-0.11
232.671	0.06
232.889	0.09
233.106	-0.08
233.324	0.07
233.541	-0.01
233.759	0.08
233.976	-0.06
234.194	-0.01
234.411	0
234.628	-0.17
234.846	-0.05
235.063	0.03
235.28	-0.04
235.498	0.1
235.715	-0.06
235.932	0.11
236.149	-0.02
236.367	-0.03
236.584	0.12
236.801	0.01
237.018	0.03
237.236	0.11
237.453	-0.08
237.67	0.12
237.887	0.03
238.104	-0.01
238.321	-0.05
238.538	0
238.755	0.14
238.973	-0.05
239.19	0.05
239.407	0.18
239.624	0.08
239.841	-0.1
240.058	-0.05
240.275	0.08
240.492	0.05
240.709	-0.01
240.925	-0.11
241.142	0.13
241.359	-0.03
241.576	-0.04
241.793	-0.04
242.01	0.08
242.227	0.11
242.444	0.04
242.66	0.14
242.877	0.09
243.094	-0
243.311	0.08
243.527	0.02
243.744	0.04
243.961	0.02
244.178	-0.11
244.394	0.1
244.611	0.1
244.828	0.22
245.044	-0.05
245.261	0.04
245.477	0.05
245.694	0.1
245.911	-0.01
246.127	0.06
246.344	0.17
246.56	0.17
246.777	-0.01
246.993	-0.01
247.21	-0.02
247.426	0.02
247.643	-0.04
247.859	-0.08
248.076	-0.05
248.292	0.17
248.508	-0.02
248.725	0.13
248.941	0.03
249.157	0.11
249.374	-0.03
249.59	-0.05
249.806	0.07
250.023	0.09
250.239	-0.02
250.455	0
250.671	-0.03
250.888	0.06
251.104	0.1
251.32	-0.04
251.536	0.01
251.752	-0.04
251.969	0.05
252.185	-0
252.401	0.17
252.617	0.03
252.833	-0.02
253.049	0.1
253.265	0.02
253.481	0.08
253.697	-0.01
253.913	-0.08
254.129	0.07
254.345	0.05
254.561	-0.05
254.777	-0.02
254.993	0.04
255.209	0.1
255.425	0.01
255.641	-0
255.857	0.08
256.073	0.04
256.288	-0.11
256.504	-0
256.72	-0
256.936	0.09
257.152	0.02
257.367	-0.05
257.583	0.03
257.799	0.12
258.015	-0.06
258.23	-0.03
258.446	0.21
258.662	0.05
258.877	-0.07
259.093	-0.06
259.309	0.04
259.524	0.05
259.74	0.02
259.955	-0.03
260.171	0.06
260.387	0.09
260.602	0.09
260.818	0.09
261.033	-0.01
261.249	0.06
261.464	-0.05
261.68	-0.09
261.895	0.08
262.11	0.12
262.326	0.01
262.541	-0.05
262.757	0.16
262.972	0.03
263.187	0.02
263.403	-0.01
263.618	0.08
263.833	0.04
264.049	0.01
264.264	0.02
264.479	0.05
264.694	0.15
264.91	0.03
265.125	0.03
265.34	0.09
265.555	0.16
265.77	0.1
265.986	-0.03
266.201	0.12
266.416	0.12
266.631	0.03
266.846	0.07
267.061	0.01
267.276	0.04
267.491	-0.06
267.706	0.06
267.921	0.05
268.136	0.05
268.351	0.03
268.566	-0.06
268.781	0.1
268.996	0.04
269.211	0
269.426	-0.04
269.641	-0.03
269.856	0.05
270.071	-0.08
270.285	-0.03
270.5	0.11
270.715	0.12
270.93	0.05
271.145	0.05
271.359	0.08
271.574	-0
271.789	-0.03
272.004	0.03
272.218	0.05
272.433	0.05
272.648	-0.03
272.862	0.07
273.077	0
273.292	0.02
273.506	-0.04
273.721	0.05
273.936	0.05
274.15	0.06
274.365	-0.04
274.579	0.09
274.794	0.13
275.008	0.05
275.223	-0.06
275.437	0.01
275.652	0.07
275.866	0.06
276.081	0.07
276.295	0.1
276.509	0.06
276.724	0.02
276.938	0.02
277.153	0.02
277.367	0.08
277.581	0.01
277.796	-0
278.01	-0.04
278.224	0.12
278.438	0.19
278.653	-0.02
278.867	-0.02
279.081	0.09
279.295	-0.01
279.51	0
279.724	-0.05
279.938	0.02
280.152	0.08
280.366	-0.01
280.58	0.01
280.794	0.11
281.008	0.09
281.222	0.08
281.437	0.1
281.651	0.07
281.865	0.09
282.079	0.01
282.293	-0.01
282.507	-0.05
282.721	0.02
282.935	0.04
283.148	-0.07
283.362	-0.05
283.576	-0.01
283.79	0.04
284.004	-0.03
284.218	0.09
284.432	0.03
284.646	0.04
284.859	0
285.073	0.04
285.287	-0.01
285.501	0.05
285.714	0.07
285.928	0.03
286.142	0.04
286.356	-0.01
286.569	0.01
286.783	0.05
286.997	0.07
287.21	0.05
287.424	0.07
287.637	-0
287.851	-0.04
288.065	0.05
288.278	0.02
288.492	0.05
288.705	0.04
288.919	0.04
289.132	-0.05
289.346	0.06
289.559	0
289.773	-0.07
289.986	0.01
290.2	-0
290.413	0.06
290.626	-0.03
290.84	-0.01
291.053	0.04
291.267	0.12
291.48	0.02
291.693	0.08
291.906	0.01
292.12	-0.01
292.333	-0.01
292.546	-0.01
292.76	0.08
292.973	0.03
293.186	0.03
293.399	-0.01
293.612	0.1
293.826	0.06
294.039	-0
294.252	0.04
294.465	0.01
294.678	0.05
294.891	0.04
295.104	0
295.317	0
295.53	0.01
295.743	0
295.956	-0
296.169	0.03
296.382	0.08
296.595	0.01
296.808	-0.01
297.021	0.08
297.234	0.02
297.447	0.01
297.66	0.06
297.873	0.07
298.086	0.04
298.299	0.01
298.511	-0.02
298.724	-0.02
298.937	0
299.15	-0.03
299.363	0.03
299.575	0.03
299.788	0.03
300.001	-0.03
300.213	0.01
300.426	0.02
300.639	0.02
300.852	-0.04
301.064	0.08
301.277	0.06
301.489	0.04
301.702	0.05
301.915	-0.02
302.127	0.07
302.34	0.06
302.552	-0.01
302.765	0.03
302.977	0.07
303.19	-0
303.402	-0
303.615	0.02
303.827	-0
304.04	0.03
304.252	0.04
304.464	-0.01
304.677	0.08
304.889	0.05
305.102	0.01
305.314	-0.04
305.526	0.06
305.739	0.01
305.951	-0.04
306.163	0.01
306.375	0.06
306.588	0.03
306.8	0.01
307.012	-0.01
307.224	0.06
307.436	0.1
307.649	-0.05
307.861	-0.01
308.073	0.07
308.285	0.06
308.497	-0.03
308.709	0.02
308.921	0.07
309.133	0.04
309.346	-0.01
309.558	0.04
309.77	0.06
309.982	0.01
310.194	0.04
310.406	0
310.617	0.07
310.829	0.04
311.041	0.06
311.253	-0.01
311.465	0.05
311.677	0.01
311.889	0.01
312.101	-0.01
312.313	0.05
312.524	0.06
312.736	-0.03
312.948	-0.04
313.16	0.06
313.372	0.03
313.583	0.04
313.795	-0.01
314.007	0.02
314.218	0.07
314.43	0.02
314.642	-0.01
314.853	0.01
315.065	0.03
315.277	0.01
315.488	0.03
315.7	0.07
315.912	0
316.123	0.02
316.335	0.01
316.546	0.09
316.758	-0
316.969	-0.05
317.181	0.06
317.392	-0.03
317.604	0.1
317.815	-0.03
318.026	0.01
318.238	0.02
318.449	0.01
318.661	-0.03
318.872	-0.04
319.083	-0.02
319.295	0.01
319.506	-0.01
319.717	0.04
319.929	0.05
320.14	0.01
320.351	0
320.562	0.04
320.774	0.02
320.985	0.01
321.196	0
321.407	-0.06
321.618	0.01
321.829	0.05
322.041	0.06
322.252	0.06
322.463	0.04
322.674	0.03
322.885	-0.03
323.096	-0.01
323.307	0.04
323.518	0.02
323.729	-0.01
323.94	0.05
324.151	-0.03
324.362	0.03
324.573	0.03
324.784	-0.01
324.995	0.05
325.206	0.05
325.417	-0.02
325.628	-0.01
325.838	0.06
326.049	0.03
326.26	0.02
326.471	-0.01
326.682	0.03
326.892	0.03
327.103	-0.06
327.314	-0.02
327.525	0.08
327.735	0.02
327.946	0.01
328.157	-0.01
328.368	0.05
328.578	-0.02
328.789	0.02
328.999	0.02
329.21	0.03
329.421	0.03
329.631	-0.02
329.842	-0.05
330.052	0.05
330.263	0.09
330.473	0.07
330.684	-0.02
330.894	-0.03
331.105	0.03
331.315	0.03
331.526	-0.04
331.736	0.08
331.947	0.04
332.157	0.04
332.367	-0.01
332.578	-0.01
332.788	0.05
332.999	0.04
333.209	0.04
333.419	-0.01
333.629	0.01
333.84	0.08
334.05	-0.01
334.26	0.06
334.47	0.06
334.681	0.04
334.891	0
335.101	0.06
335.311	0.12
335.521	-0
335.732	-0.02
335.942	0.1
336.152	0
336.362	0.04
336.572	0.04
336.782	0.03
336.992	-0.01
337.202	0.02
337.412	0.01
337.622	0.02
337.832	-0
338.042	0.04
338.252	0.02
338.462	0.01
338.672	0.04
338.882	-0.04
339.092	0.06
339.302	0.07
339.511	0.07
339.721	-0
339.931	0.02
340.141	0.06
340.351	0.08
340.561	0.03
340.77	0.01
340.98	-0
341.19	0.02
341.4	-0.01
341.609	-0
341.819	0.03
342.029	-0.03
342.238	0.04
342.448	-0.05
342.658	0.09
342.867	0.02
343.077	-0.01
343.286	0.02
343.496	0.01
343.706	0.07
343.915	-0.01
344.125	0.02
344.334	0.04
344.544	-0.04
344.753	-0.01
344.963	-0.02
345.172	-0.01
345.381	-0.01
345.591	0.03
345.8	-0.01
346.01	0.08
346.219	0.05
346.428	-0.1
346.638	-0.01
346.847	0.02
347.056	0.08
347.266	-0.01
347.475	0.03
347.684	0.06
347.893	0.02
348.103	0.03
348.312	0.01
348.521	0.01
348.73	0.02
348.94	0.07
349.149	0
349.358	-0.01
349.567	-0.02
349.776	0
349.985	0.02
350.194	0.06
350.403	0.08
350.612	-0.06
350.821	0.04
351.03	-0
351.239	-0.07
351.448	0.02
351.657	-0.02
351.866	0.09
352.075	-0.01
352.284	0.06
352.493	-0.03
352.702	0.1
352.911	0.05
353.12	0.02
353.329	-0.03
353.538	0.02
353.746	-0.02
353.955	-0.01
354.164	0.01
354.373	-0.02
354.582	0.08
354.79	0.03
354.999	0.03
355.208	0.01
355.416	0.08
355.625	-0.02
355.834	-0.01
356.042	0.05
356.251	0.02
356.46	0.01
356.668	0.01
356.877	0.11
357.085	0.04
357.294	-0.06
357.503	0.01
357.711	0
357.92	0.13
358.128	-0.01
358.337	0.03
358.545	0.03
358.754	0.03
358.962	0.07
359.17	-0.01
359.379	0.02
359.587	0.05
359.796	0.02
360.004	0.04
360.212	0.03
360.421	0.04
360.629	0.01
360.837	0.03
361.046	0.05
361.254	0.07
361.462	0.03
361.67	0.04
361.879	0.02
362.087	0.09
362.295	0.02
362.503	0.03
362.711	0.05
362.92	-0.02
363.128	-0.02
363.336	-0.03
363.544	-0.07
363.752	0.03
363.96	-0.01
364.168	-0.03
364.376	0.01
364.584	0.05
364.792	0.07
365	0.05
365.208	0.05
365.416	0.03
365.624	0.05
365.832	0.02
366.04	0.03
366.248	0.03
366.456	-0.01
366.664	0.01
366.872	0
367.079	0.02
367.287	0.01
367.495	0.03
367.703	0.02
367.911	-0
368.118	0.01
368.326	0.01
368.534	-0
368.742	0.07
368.949	-0.02
369.157	0.01
369.365	0.02
369.572	-0.03
369.78	-0.01
369.988	0.06
370.195	0.03
370.403	0.06
370.61	-0.01
370.818	0.02
371.026	0.08
371.233	-0.01
371.441	0.03
371.648	0
371.856	0.04
372.063	0.02
372.271	-0.02
372.478	0.01
372.685	-0.04
372.893	0.06
373.1	0.04
373.308	0.02
373.515	0.11
373.722	0.06
373.93	0.01
374.137	0.05
374.344	0.06
374.552	0.07
374.759	0.02
374.966	0.02
375.173	0.01
375.381	0.08
375.588	0.03
375.795	-0.05
376.002	-0
376.209	-0.05
376.417	0.01
376.624	0.01
376.831	0.05
377.038	0.02
377.245	-0.03
377.452	-0.03
377.659	0.02
377.866	-0.02
378.073	-0
378.28	0
378.487	0.03
378.694	0.06
378.901	0.02
379.108	0.02
379.315	0.07
379.522	0.1
379.729	0.04
379.936	0.03
380.143	0.02
380.35	0
380.557	0.03
380.763	0.03
380.97	0.02
381.177	0.04
381.384	0.02
381.591	-0
381.797	0.02
382.004	0.05
382.211	0.05
382.418	0.04
382.624	0.04
382.831	0.06
383.038	0.01
383.244	0.05
383.451	0.03
383.658	0.04
383.864	0.01
384.071	-0.02
384.277	0.05
384.484	-0.02
384.69	0.05
384.897	-0.04
385.103	0
385.31	-0.02
385.516	0.02
385.723	-0.04
385.929	0
386.136	-0.03
386.342	0.05
386.549	-0.02
386.755	0.05
386.961	0.02
387.168	-0
387.374	0.03
387.58	0.03
387.787	-0.02
387.993	0.06
388.199	0.04
388.406	-0.02
388.612	0.04
388.818	-0
389.024	0.01
389.231	0.05
389.437	0.07
389.643	0.1
389.849	-0.01
390.055	-0.01
390.261	0
390.467	0.02
390.674	-0.03
390.88	0.02
391.086	0.03
391.292	0
391.498	0.05
391.704	0.03
391.91	-0.02
392.116	-0.05
392.322	-0.05
392.528	-0.02
392.734	0.03
392.94	0.03
393.146	-0.03
393.352	0.02
393.557	0.01
393.763	0
393.969	0.01
394.175	0
394.381	0.04
394.587	-0.07
394.792	0.04
394.998	0.04
395.204	0.07
395.41	-0.03
395.615	0.05
395.821	0.06
396.027	0.01
396.233	-0
396.438	0
396.644	0.05
396.85	0.05
397.055	0.01
397.261	0.02
397.466	0.03
397.672	0.04
397.878	0.06
398.083	0.02
398.289	-0.04
398.494	0.04
398.7	0.04
398.905	-0.06
399.111	0.07
399.316	-0.02
399.522	0
399.727	0.03
399.932	0.02
400.138	-0.03
400.343	0.08
400.549	0.02
400.754	-0
400.959	0.03
401.165	-0.02
401.37	0.02
401.575	0.1
401.78	0.02
401.986	-0.03
402.191	0.02
402.396	0.03
402.601	0.06
402.807	-0.01
403.012	-0
403.217	0.02
403.422	0.03
403.627	-0.02
403.832	-0.01
404.037	0
404.243	0.06
404.448	-0.01
404.653	0
404.858	0.02
405.063	0.05
405.268	-0.03
405.473	-0.01
405.678	0
405.883	0.14
406.088	0.06
406.293	-0.02
406.498	-0.01
406.703	0.03
406.907	-0.04
407.112	-0.01
407.317	0.05
407.522	0.04
407.727	-0.04
407.932	-0
408.136	0.09
408.341	0.07
408.546	0.02
408.751	0.04
408.956	0.02
409.16	0.01
409.365	0.01
409.57	0.02
409.774	0.01
409.979	0.08
410.184	0.06
410.388	0
410.593	0.07
410.798	0.04
411.002	0
411.207	0.07
411.411	-0
411.616	-0.04
411.82	0.01
412.025	0.03
412.229	-0.01
412.434	0.06
412.638	0.06
412.843	-0.02
413.047	0.01
413.252	-0.03
413.456	-0.01
413.66	0.04
413.865	-0.02
414.069	0.06
414.273	-0.02
414.478	-0.03
414.682	-0.02
414.886	-0.03
415.091	-0.04
415.295	-0.1
415.499	0.01
415.703	-0
415.908	-0
416.112	-0.04
416.316	-0
416.52	-0.01
416.724	-0.07
416.929	-0.04
417.133	0.09
417.337	-0.02
417.541	-0.01
417.745	-0.02
417.949	0.05
418.153	0.05
418.357	-0.04
418.561	0.1
418.765	0.02
418.969	0.13
419.173	0
419.377	-0.02
419.581	0.07
419.785	-0.02
419.989	-0.04
420.193	0.03
420.397	0.02
420.601	0.05
420.804	0.02
421.008	0.03
421.212	0.04
421.416	0.03
421.62	-0
421.823	0.02
422.027	0.14
422.231	-0
422.435	0.04
422.638	0.03
422.842	0.02
423.046	-0
423.249	0
423.453	0.04
423.657	-0.01
423.86	-0.03
424.064	0.01
424.268	0.07
424.471	0.02
424.675	0.07
424.878	0.06
425.082	-0.01
425.285	0.02
425.489	0.03
425.692	0.05
425.896	-0.01
426.099	0.01
426.303	0
426.506	-0.06
426.71	-0.01
426.913	0.04
427.116	0.07
427.32	0.02
427.523	-0.01
427.726	0.07
427.93	-0.02
428.133	-0.04
428.336	-0.05
428.54	-0.03
428.743	0.04
428.946	0.06
429.149	-0.04
429.353	0.02
429.556	-0.01
429.759	0.04
429.962	0.01
430.165	-0
430.368	-0.01
430.571	-0.04
430.775	0.03
430.978	0.01
431.181	0.03
431.384	0.01
431.587	-0.02
431.79	0.01
431.993	0.01
432.196	0.01
432.399	-0.04
432.602	0.07
432.805	-0.01
433.008	-0.04
433.211	-0.03
433.414	0.02
433.616	0.03
433.819	-0.05
434.022	-0.07
434.225	0.11
434.428	-0
434.631	0.11
434.833	0.02
435.036	0.04
435.239	0.05
435.442	0.01
435.645	-0.04
435.847	0.04
436.05	0.08
436.253	0.01
436.455	-0.06
436.658	0
436.861	0.07
437.063	-0.01
437.266	-0.02
437.468	0.05
437.671	0.16
437.874	0.05
438.076	-0.02
438.279	-0.08
438.481	-0
438.684	-0
438.886	0.06
439.089	-0.04
439.291	-0.01
439.494	0.07
439.696	0.01
439.899	-0.05
440.101	0.01
440.303	-0.02
440.506	0.03
440.708	0.02
440.91	0.02
441.113	-0.06
441.315	0
441.517	-0.04
441.72	0.07
441.922	-0.04
442.124	-0.05
442.326	0.06
442.529	0.05
442.731	0.03
442.933	0.1
443.135	-0.03
443.337	-0.06
443.539	-0
443.742	0.01
443.944	0.03
444.146	-0.04
444.348	-0.02
444.55	0.02
444.752	0
444.954	-0.06
445.156	0.01
445.358	0
445.56	0.07
445.762	0.04
445.964	-0.01
446.166	0.01
446.368	-0.02
446.57	0.05
446.772	0.05
446.974	-0.03
447.175	0.04
447.377	-0
447.579	-0.01
447.781	-0.1
447.983	0.06
448.184	-0.02
448.386	0.02
448.588	-0.06
448.79	-0.04
448.991	-0.02
449.193	0.01
449.395	0.01
449.597	0
449.798	0.01
450	0.01
450.202	0.01
450.403	-0.05
450.605	0.02
450.806	0.03
451.008	-0.07
451.21	0.04
451.411	0.02
451.613	0.01
451.814	0.04
452.016	0.01
452.217	0.03
452.419	0.06
452.62	-0.03
452.821	0.05
453.023	0.08
453.224	0.07
453.426	0.03
453.627	0.01
453.828	0.04
454.03	0.02
454.231	-0
454.432	-0.02
454.634	0.12
454.835	-0.03
455.036	-0.04
455.238	0.01
455.439	0.13
455.64	0.02
455.841	-0.05
456.042	0.13
456.244	0.04
456.445	-0.03
456.646	-0.04
456.847	-0.01
457.048	0.06
457.249	0.09
457.45	0.15
457.651	-0.04
457.852	0.05
458.054	0.04
458.255	0.01
458.456	0.01
458.657	0.06
458.858	-0.03
459.058	-0
459.259	0.07
459.46	-0.01
459.661	-0.02
459.862	0.11
460.063	0.05
460.264	0.07
460.465	-0.07
460.666	0.15
460.866	-0.01
461.067	0.02
461.268	0.05
461.469	-0.01
461.67	-0
461.87	-0.02
462.071	0
462.272	0
462.473	-0
462.673	0.04
462.874	-0.04
463.075	0.03
463.275	-0.06
463.476	0.03
463.676	0.06
463.877	0.04
464.078	-0
464.278	0.05
464.479	-0.02
464.679	0.03
464.88	-0.02
465.08	0.06
465.281	-0.02
465.481	0.02
465.682	-0.03
465.882	0.01
466.083	0.04
466.283	0.01
466.483	0.03
466.684	-0.03
466.884	0.03
467.085	-0
467.285	0.03
467.485	-0.04
467.686	0.01
467.886	-0.04
468.086	-0.01
468.286	-0
468.487	0.02
468.687	-0.08
468.887	-0.05
469.087	0.04
469.287	0.04
469.488	-0.06
469.688	0.06
469.888	0.05
470.088	0.03
470.288	0.05
470.488	0.07
470.688	-0.03
470.888	0
471.088	-0.01
471.288	0.01
471.488	0.06
471.688	0
471.888	-0.02
472.088	0.01
472.288	0.02
472.488	-0.02
472.688	-0.01
472.888	0.01
473.088	0.03
473.288	0.02
473.488	0.02
473.688	0.08
473.887	-0.02
474.087	-0.02
474.287	0.04
474.487	-0.03
474.687	0.03
474.886	-0.02
475.086	0.03
475.286	0.04
475.486	0.02
475.685	0.01
475.885	-0.02
476.085	0.01
476.284	0.04
476.484	0.01
476.684	0.04
476.883	0.04
477.083	0.02
477.282	-0.02
477.482	0.05
477.681	0.09
477.881	0.02
478.08	0.02
478.28	-0.02
478.479	0.05
478.679	0.1
478.878	0
479.078	-0.02
479.277	0.03
479.477	0.01
479.676	0.04
479.875	-0
480.075	-0.07
480.274	0.01
480.473	0.03
480.673	-0.01
480.872	0.05
481.071	0
481.271	0.01
481.47	-0.02
481.669	-0.01
481.868	-0.02
482.067	-0.02
482.267	-0.01
482.466	-0.02
482.665	-0.02
482.864	-0.06
483.063	-0.02
483.262	0.04
483.461	0.08
483.661	0.05
483.86	-0.01
484.059	0.02
484.258	0.02
484.457	0
484.656	0.02
484.855	0.06
485.054	-0.04
485.253	-0.02
485.452	-0.02
485.651	0
485.849	0.01
486.048	-0.01
486.247	-0.04
486.446	0.01
486.645	-0.03
486.844	-0.01
487.043	-0
487.241	0.01
487.44	-0.03
487.639	0
487.838	0.04
488.037	0.04
488.235	0.06
488.434	0
488.633	-0.02
488.831	0.02
489.03	0.04
489.229	0.03
489.427	0
489.626	0.03
489.825	0.04
490.023	0.01
490.222	-0.02
490.42	0.02
490.619	0.03
490.817	-0.01
491.016	0.02
491.214	0.02
491.413	0.01
491.611	-0
491.81	-0.01
492.008	0.01
492.207	0.02
492.405	0.01
492.604	-0.04
492.802	0.01
493	0.01
493.199	-0.03
493.397	0.02
493.595	-0.02
493.794	0.01
493.992	0.04
494.19	0.02
494.388	0.02
494.587	-0.01
494.785	-0
494.983	-0.02
495.181	-0.01
495.379	0
495.578	0.02
495.776	0.02
495.974	0.02
496.172	-0.02
496.37	-0.01
496.568	-0
496.766	0
496.964	0.03
497.162	0
497.36	-0
497.558	0.04
497.756	0.03
497.954	0.01
498.152	-0.01
498.35	0
498.548	0.01
498.746	-0.02
498.944	-0.02
499.142	0.01
499.34	-0.05
499.538	-0.01
499.736	-0.01
499.933	0.03
500.131	0.03
500.329	0.02
500.527	0.03
500.725	0.03
500.922	-0
501.12	0
501.318	0.04
501.516	-0.01
501.713	-0
501.911	0.01
502.109	-0.02
502.306	0.03
502.504	-0.03
502.701	-0.01
502.899	0.01
503.097	0.04
503.294	-0
503.492	0
503.689	0.03
503.887	0.01
504.084	0.03
504.282	0.02
504.479	-0.01
504.677	0.02
504.874	-0.02
505.072	-0
505.269	-0
505.466	0.01
505.664	0.01
505.861	-0.04
506.059	-0.02
506.256	0.05
506.453	-0
506.651	0.05
506.848	0.03
507.045	0.02
507.242	0
507.44	0
507.637	0.03
507.834	0.01
508.031	0.01
508.229	-0.03
508.426	0.01
508.623	0.02
508.82	-0.01
509.017	-0.02
509.214	0.01
509.411	0
509.608	-0.02
509.805	-0.01
510.003	-0.02
510.2	-0.02
510.397	0.04
510.594	-0.01
510.791	-0.01
510.988	0
511.184	0.02
511.381	0.01
511.578	0
511.775	0.02
511.972	-0
512.169	0
512.366	0
512.563	0.01
512.76	-0.02
512.956	0.03
513.153	-0
513.35	0.01
513.547	0.01
513.744	-0
513.94	-0.01
514.137	0.02
514.334	-0
514.53	0.01
514.727	0.01
514.924	0.07
515.12	-0
515.317	-0.01
515.514	0
515.71	-0.02
515.907	-0.01
516.103	0.01
516.3	0.04
516.497	0.04
516.693	0.03
516.89	0.01
517.086	-0.01
517.283	0.05
517.479	0.02
517.676	-0
517.872	0
518.068	-0
518.265	0.02
518.461	-0
518.658	-0.02
518.854	-0.01
519.05	0
519.247	-0.02
519.443	0
519.639	0.02
519.836	-0.01
520.032	-0.01
520.228	0
520.424	0.05
520.621	0.01
520.817	0.01
521.013	0.01
521.209	0.02
521.405	0.06
521.601	0.01
521.798	0.01
521.994	0.04
522.19	-0.02
522.386	-0.02
522.582	0.01
522.778	-0.01
522.974	-0.01
523.17	0
523.366	0
523.562	0.01
523.758	-0.01
523.954	-0.01
524.15	-0.01
524.346	0.04
524.542	-0.02
524.738	-0.02
524.934	-0.01
525.129	-0.01
525.325	0.03
525.521	-0.01
525.717	0.02
525.913	0.01
526.109	-0
526.304	0.01
526.5	0.02
526.696	-0.01
526.892	-0.01
527.087	0.01
527.283	-0.01
527.479	0
527.674	-0.01
527.87	-0.01
528.066	0
528.261	0.01
528.457	0.01
528.653	0.01
528.848	-0
529.044	0.02
529.239	-0.02
529.435	0.04
529.63	0.02
529.826	0.05
530.021	0
530.217	0.02
530.412	-0
530.608	-0.02
530.803	0
530.999	-0.01
531.194	-0.05
531.389	0.01
531.585	-0.03
531.78	-0
531.975	0.01
532.171	0.01
532.366	0.02
532.561	0.02
532.757	0
532.952	0
533.147	0.02
533.342	-0
533.538	-0.01
533.733	0.05
533.928	0.01
534.123	-0
534.318	-0.02
534.513	0
534.709	0
534.904	-0.03
535.099	0
535.294	0
535.489	0.03
535.684	-0.02
535.879	-0.04
536.074	0.01
536.269	-0.01
536.464	0.01
536.659	0.01
536.854	-0
537.049	0.01
537.244	0.01
537.439	-0
537.634	0.02
537.828	0.02
538.023	0
538.218	-0.02
538.413	0.01
538.608	-0.04
538.803	0.03
538.997	-0.03
539.192	0.04
539.387	0.02
539.582	0.02
539.776	0
539.971	0.01
540.166	0.01
540.36	-0.01
540.555	-0.01
540.75	-0.01
540.944	0
541.139	-0.02
541.334	0
541.528	0.01
541.723	0.02
541.917	-0.02
542.112	-0.04
542.306	-0
542.501	-0.01
542.695	-0.01
542.89	0
543.084	0.01
543.279	0.02
543.473	-0
543.668	-0
543.862	-0.01
544.056	0.03
544.251	-0.01
544.445	0.02
544.64	-0
544.834	-0.02
545.028	0.03
545.222	0.03
545.417	0.01
545.611	0.02
545.805	0.02
546	-0.01
546.194	0
546.388	-0.03
546.582	0.02
546.776	-0.02
546.97	0.02
547.165	0.03
547.359	0.04
547.553	-0.03
547.747	0.01
547.941	0.02
548.135	0.01
548.329	0.04
548.523	0.02
548.717	-0.01
548.911	-0.01
549.105	-0
549.299	0.01
549.493	0.02
549.687	0.03
549.881	0.03
550.075	0
550.269	-0.01
550.463	0.03
550.657	-0.01
550.85	0.01
551.044	-0.01
551.238	0.01
551.432	-0.01
551.626	-0.04
551.82	0.01
552.013	0
552.207	0.03
552.401	0.02
552.594	0
552.788	-0.02
552.982	0.02
553.176	-0.01
553.369	0.03
553.563	0.02
553.756	-0.03
553.95	-0.02
554.144	-0
554.337	0.02
554.531	0.01
554.724	0.03
554.918	0
555.111	0.03
555.305	-0.01
555.498	0.04
555.692	0.01
555.885	0.01
556.079	-0.01
556.272	-0.01
556.466	0.03
556.659	0.01
556.852	0.01
557.046	-0
557.239	0.03
557.432	-0.01
557.626	0
557.819	0.01
558.012	0.03
558.206	0.02
558.399	-0
558.592	0.02
558.785	-0
558.979	0.03
559.172	0.03
559.365	0.04
559.558	0.03
559.751	0
559.944	-0
560.138	-0.02
560.331	0.01
560.524	-0
560.717	0.01
560.91	-0
561.103	0.02
561.296	0.01
561.489	0.02
561.682	-0
561.875	0.04
562.068	0.03
562.261	0.02
562.454	0.04
562.647	0.03
562.84	0.02
563.032	-0
563.225	0.04
563.418	0
563.611	0
563.804	0.02
563.997	0
564.19	-0.04
564.382	-0.03
564.575	0.01
564.768	0.03
564.961	0.03
565.153	0.01
565.346	0.03
565.539	0.05
565.731	0.02
565.924	0.05
566.117	0.05
566.309	0.01
566.502	0.01
566.695	0.04
566.887	0.02
567.08	-0.01
567.272	-0.01
567.465	0.01
567.657	0.01
567.85	0.01
568.042	0.04
568.235	0.05
568.427	0.02
568.62	0.02
568.812	0.06
569.005	0.02
569.197	-0
569.389	0.01
569.582	0.03
569.774	0.01
569.966	-0.01
570.159	-0.01
570.351	0.04
570.543	0.01
570.736	0.02
570.928	-0.02
571.12	0.01
571.312	-0.01
571.505	-0.01
571.697	0.04
571.889	-0.03
572.081	-0
572.273	-0
572.465	0.06
572.658	0.01
572.85	0.02
573.042	0
573.234	0.01
573.426	0.04
573.618	-0.02
573.81	0.02
574.002	0.03
574.194	0.04
574.386	-0.02
574.578	-0.06
574.77	0.01
574.962	-0
575.154	-0.01
575.346	0.02
575.538	0.02
575.729	0.02
575.921	0.01
576.113	0.01
576.305	0.05
576.497	0.01
576.689	0.04
576.88	-0.01
577.072	0.01
577.264	-0
577.456	0.03
577.647	-0.05
577.839	-0
578.031	0.07
578.223	-0.02
578.414	-0
578.606	0.02
578.798	0.01
578.989	0
579.181	0
579.372	0.02
579.564	0.02
579.755	0.01
579.947	0.03
580.139	0.02
580.33	-0.03
580.522	-0
580.713	-0.05
580.905	-0
581.096	0.02
581.287	0
581.479	0.02
581.67	0.05
581.862	0
582.053	0.01
582.244	-0.04
582.436	0.03
582.627	0.03
582.818	0.02
583.01	0
583.201	0.06
583.392	0.04
583.583	0.01
583.775	0.01
583.966	0.01
584.157	0.01
584.348	0.01
584.54	-0.02
584.731	0.04
584.922	0.01
585.113	-0
585.304	0.04
585.495	0.05
585.686	0.04
585.877	0.03
586.068	0.02
586.259	0.04
586.45	0.01
586.641	0.02
586.832	-0.04
587.023	0.02
587.214	-0.01
587.405	0.02
587.596	-0
587.787	0.04
587.978	0.04
588.169	0.01
588.36	0.01
588.551	0.04
588.742	0.01
588.932	0.03
589.123	0.03
589.314	0.05
589.505	0.04
589.696	0.02
589.886	0.02
590.077	-0.01
590.268	0.02
590.458	-0.01
590.649	-0.02
590.84	0.08
591.03	0.01
591.221	-0
591.412	-0.01
591.602	0.02
591.793	0.05
591.984	0.02
592.174	0.01
592.365	0.09
592.555	0
592.746	0.05
592.936	0.04
593.127	0.07
593.317	0.08
593.508	0.02
593.698	0
593.889	0.02
594.079	0.03
594.269	0.01
594.46	0.04
594.65	0.04
594.84	0.05
595.031	-0
595.221	0.02
595.411	-0.01
595.602	0.06
595.792	0.02
595.982	0.04
596.172	0.07
596.363	0.06
596.553	0.04
596.743	0.02
596.933	0.05
597.123	0.1
597.314	0.01
597.504	0.04
597.694	0.08
597.884	0.08
598.074	0.05
598.264	0.02
598.454	0.06
598.644	0.05
598.834	0.05
599.024	0.04
599.214	0.03
599.404	0.06
599.594	0.04
599.784	0.03
599.974	0.07
600.164	0.07
600.354	0.03
600.544	0.01
600.734	0.05
600.924	0.1
601.114	0.04
601.303	0.07
601.493	0.05
601.683	0.04
601.873	0.05
602.063	0.03
602.252	0.1
602.442	0.02
602.632	0.05
602.821	0.04
603.011	0.08
603.201	0.08
603.39	0.03
603.58	0.06
603.77	0.1
603.959	0.11
604.149	0.09
604.339	0.07
604.528	0.12
604.718	0.12
604.907	0.07
605.097	0.06
605.286	0.02
605.476	0.1
605.665	0.09
605.855	0.1
606.044	0.14
606.234	0.09
606.423	0.09
606.612	0.05
606.802	0.13
606.991	0.11
607.181	0.11
607.37	0.06
607.559	0.1
607.749	0.08
607.938	0.09
608.127	0.11
608.316	0.07
608.506	0.11
608.695	0.12
608.884	0.07
609.073	0.12
609.263	0.13
609.452	0.12
609.641	0.12
609.83	0.09
610.019	0.12
610.208	0.1
610.397	0.15
610.586	0.17
610.775	0.13
610.965	0.16
611.154	0.15
611.343	0.17
611.532	0.16
611.721	0.14
611.91	0.16
612.099	0.15
612.287	0.14
612.476	0.12
612.665	0.2
612.854	0.17
613.043	0.21
613.232	0.19
613.421	0.12
613.61	0.2
613.798	0.21
613.987	0.26
614.176	0.2
614.365	0.22
614.554	0.24
614.742	0.25
614.931	0.18
615.12	0.27
615.309	0.19
615.497	0.26
615.686	0.22
615.875	0.23
616.063	0.22
616.252	0.24
616.44	0.22
616.629	0.28
616.818	0.32
617.006	0.25
617.195	0.28
617.383	0.3
617.572	0.27
617.76	0.29
617.949	0.28
618.137	0.34
618.326	0.33
618.514	0.28
618.703	0.29
618.891	0.36
619.079	0.26
619.268	0.36
619.456	0.32
619.644	0.41
619.833	0.32
620.021	0.4
620.209	0.32
620.398	0.38
620.586	0.39
620.774	0.43
620.962	0.38
621.151	0.46
621.339	0.42
621.527	0.39
621.715	0.44
621.903	0.42
622.092	0.45
622.28	0.51
622.468	0.45
622.656	0.48
622.844	0.49
623.032	0.5
623.22	0.45
623.408	0.6
623.596	0.53
623.784	0.57
623.972	0.52
624.16	0.57
624.348	0.63
624.536	0.62
624.724	0.57
624.912	0.65
625.1	0.63
625.288	0.62
625.476	0.59
625.664	0.7
625.851	0.64
626.039	0.68
626.227	0.71
626.415	0.71
626.603	0.65
626.79	0.75
626.978	0.75
627.166	0.81
627.354	0.79
627.541	0.74
627.729	0.74
627.917	0.86
628.104	0.88
628.292	0.87
628.48	0.86
628.667	0.9
628.855	0.92
629.042	0.97
629.23	0.95
629.418	0.96
629.605	0.99
629.793	1
629.98	1.01
630.168	1.05
630.355	1.1
630.543	1.09
630.73	1.08
630.917	1.17
631.105	1.22
631.292	1.14
631.48	1.19
631.667	1.27
631.854	1.26
632.042	1.27
632.229	1.22
632.416	1.34
632.604	1.36
632.791	1.3
632.978	1.43
633.165	1.42
633.353	1.42
633.54	1.53
633.727	1.4
633.914	1.5
634.101	1.44
634.289	1.59
634.476	1.54
634.663	1.56
634.85	1.6
635.037	1.61
635.224	1.56
635.411	1.72
635.598	1.7
635.785	1.77
635.972	1.77
636.159	1.82
636.346	1.83
636.533	1.85
636.72	1.93
636.907	1.93
637.094	1.98
637.281	1.96
637.468	2.08
637.655	2.06
637.842	2.09
638.029	2.11
638.215	2.18
638.402	2.22
638.589	2.17
638.776	2.25
638.963	2.23
639.149	2.42
639.336	2.48
639.523	2.47
639.709	2.43
639.896	2.48
640.083	2.58
640.27	2.68
640.456	2.59
640.643	2.69
640.829	2.68
641.016	2.78
641.203	2.73
641.389	2.87
641.576	2.91
641.762	2.94
641.949	2.92
642.135	3.13
642.322	3.12
642.508	3.09
642.695	3.28
642.881	3.24
643.068	3.3
643.254	3.42
643.441	3.47
643.627	3.56
643.813	3.51
644	3.67
644.186	3.68
644.372	3.92
644.559	3.84
644.745	3.94
644.931	3.98
645.118	4.11
645.304	4.14
645.49	4.18
645.676	4.24
645.862	4.37
646.049	4.57
646.235	4.53
646.421	4.71
646.607	4.8
646.793	4.78
646.979	4.8
647.165	5.02
647.352	5.06
647.538	5.23
647.724	5.26
647.91	5.29
648.096	5.44
648.282	5.59
648.468	5.63
648.654	5.76
648.84	5.85
649.026	5.99
649.212	5.99
649.397	6.06
649.583	6.29
649.769	6.4
649.955	6.45
650.141	6.62
650.327	6.65
650.513	6.73
650.698	6.91
650.884	6.85
651.07	7.18
651.256	7.1
651.442	7.28
651.627	7.23
651.813	7.65
651.999	7.56
652.184	7.64
652.37	7.85
652.556	8
652.741	8.07
652.927	7.94
653.113	8.3
653.298	8.38
653.484	8.49
653.669	8.63
653.855	8.79
654.04	8.86
654.226	8.96
654.412	9.1
654.597	9.11
654.782	9.31
654.968	9.37
655.153	9.62
655.339	9.6
655.524	9.65
655.71	9.79
655.895	10.02
656.08	10.04
656.266	10.3
656.451	10.13
656.636	10.27
656.822	10.34
657.007	10.51
657.192	10.55
657.378	10.6
657.563	10.49
657.748	10.66
657.933	10.73
658.118	10.61
658.304	10.75
658.489	10.75
658.674	10.7
658.859	10.66
659.044	10.56
659.229	10.53
659.414	10.55
659.599	10.45
659.785	10.22
659.97	10.16
660.155	10.04
660.34	9.99
660.525	9.83
660.71	9.54
660.895	9.49
661.08	9.25
661.264	9.02
661.449	8.89
661.634	8.59
661.819	8.47
662.004	8.1
662.189	8
662.374	7.77
662.559	7.44
662.743	7.2
662.928	7.03
663.113	6.73
663.298	6.56
663.483	6.32
663.667	6.13
663.852	5.89
664.037	5.78
664.221	5.51
664.406	5.31
664.591	5.18
664.775	4.98
664.96	4.77
665.145	4.6
665.329	4.42
665.514	4.25
665.698	4.02
665.883	3.87
666.068	3.85
666.252	3.67
666.437	3.46
666.621	3.39
666.806	3.33
666.99	3.15
667.174	3.03
667.359	2.9
667.543	2.78
667.728	2.71
667.912	2.52
668.096	2.47
668.281	2.38
668.465	2.37
668.649	2.23
668.834	2.14
669.018	2.14
669.202	2.04
669.387	1.87
669.571	1.93
669.755	1.72
669.939	1.76
670.124	1.7
670.308	1.7
670.492	1.58
670.676	1.49
670.86	1.43
671.044	1.35
671.228	1.37
671.413	1.3
671.597	1.25
671.781	1.22
671.965	1.25
672.149	1.13
672.333	1.06
672.517	1.05
672.701	1.03
672.885	0.99
673.069	0.91
673.253	0.98
673.437	0.88
673.621	0.87
673.804	0.79
673.988	0.87
674.172	0.78
674.356	0.68
674.54	0.71
674.724	0.77
674.908	0.66
675.091	0.66
675.275	0.62
675.459	0.66
675.643	0.58
675.826	0.57
676.01	0.59
676.194	0.55
676.377	0.57
676.561	0.54
676.745	0.48
676.928	0.5
677.112	0.5
677.296	0.43
677.479	0.42
677.663	0.41
677.846	0.43
678.03	0.38
678.213	0.36
678.397	0.34
678.58	0.36
678.764	0.35
678.947	0.31
679.131	0.3
679.314	0.36
679.498	0.34
679.681	0.31
679.865	0.37
680.048	0.25
680.231	0.28
680.415	0.23
680.598	0.21
680.781	0.21
680.965	0.24
681.148	0.28
681.331	0.23
681.514	0.23
681.698	0.18
681.881	0.22
682.064	0.2
682.247	0.18
682.43	0.12
682.614	0.21
682.797	0.24
682.98	0.22
683.163	0.19
683.346	0.22
683.529	0.15
683.712	0.12
683.895	0.2
684.078	0.1
684.261	0.17
684.444	0.17
684.627	0.15
684.81	0.11
684.993	0.14
685.176	0.17
685.359	0.13
685.542	0.13
685.725	0.16
685.908	0.13
686.091	0.13
686.274	0.18
686.457	0.14
686.639	0.12
686.822	0.15
687.005	0.18
687.188	0.14
687.371	0.19
687.553	0.11
687.736	0.16
687.919	0.17
688.102	0.14
688.284	0.09
688.467	0.11
688.65	0.1
688.832	0.11
689.015	0.14
689.197	0.06
689.38	0.17
689.563	0.18
689.745	0.04
689.928	0.06
690.11	0.09
690.293	0.12
690.475	0.03
690.658	0.11
690.84	0.03
691.023	0.05
691.205	0.09
691.388	0.1
691.57	0.1
691.752	0.1
691.935	0.07
692.117	0.05
692.3	0.12
692.482	0.08
692.664	0.02
692.847	0.07
693.029	0.13
693.211	0.15
693.393	0.08
693.576	0.01
693.758	0.03
693.94	0.07
694.122	0.1
694.304	0.1
694.487	0.08
694.669	0.18
694.851	0.04
695.033	0.09
695.215	0.07
695.397	-0
695.579	0.12
695.761	0.04
695.943	-0.01
696.125	0.14
696.308	0.13
696.49	-0.01
696.671	0.11
696.853	0.07
697.035	0.17
697.217	-0.04
697.399	0.08
697.581	0.01
697.763	0.07
697.945	0.01
698.127	0.09
698.309	0.11
698.491	0.08
698.672	0.06
698.854	0.13
699.036	0.11
699.218	0
699.399	0.06
699.581	0.09
699.763	0.09
699.945	0.1
700.126	-0.01
700.308	0.1
700.49	0.08
700.671	-0.03
700.853	0.05
701.035	0.03
701.216	0.04
701.398	0.04
701.579	0.02
701.761	0.14
701.943	0
702.124	0.01
702.306	0.06
702.487	0.15
702.669	0.07
702.85	0.04
703.031	-0.05
703.213	0.17
703.394	0.09
703.576	0.06
703.757	0.18
703.938	0.01
704.12	0.17
704.301	0.03
704.483	0.04
704.664	0.07
704.845	0.09
705.026	0.12
705.208	0.04
705.389	0.01
705.57	0.01
705.751	-0.02
705.933	0.04
706.114	0.1
706.295	0
706.476	-0.03
706.657	0.11
706.838	0.06
707.02	0.13
707.201	0.02
707.382	0
707.563	0.05
707.744	0.01
707.925	-0.05
708.106	-0.02
708.287	0.11
708.468	0.1
708.649	0.03
708.83	0.09
709.011	0.01
709.192	0.1
709.373	-0.02
709.554	0.02
709.734	0.08
709.915	0.06
710.096	0.01
710.277	-0.01
710.458	0.05
710.639	0.03
710.819	-0.05
711	0.05
711.181	0.07
711.362	0.1
711.542	0.07
711.723	-0.02
711.904	0.06
712.085	0.02
712.265	0.09
712.446	-0.08
712.627	0.03
712.807	0.05
712.988	0.07
713.168	-0
713.349	0.05
713.53	-0.05
713.71	0.01
713.891	-0.06
714.071	0.04
714.252	0.05
714.432	0
714.613	-0.09
714.793	0.02
714.974	0.1
715.154	0.14
715.334	0.04
715.515	0.1
715.695	-0
715.876	0.02
716.056	-0.02
716.236	-0.01
716.417	0.06
716.597	0.01
716.777	0.13
716.957	-0.04
717.138	0.08
717.318	-0.01
717.498	0.01
717.678	0.02
717.859	0.04
718.039	-0.03
718.219	0.04
718.399	0.11
718.579	-0.12
718.759	-0.01
718.939	0.01
719.12	-0.01
719.3	0.03
719.48	-0.1
719.66	-0.1
719.84	0.14
720.02	0.05
720.2	-0.09
720.38	0.03
720.56	0.09
720.74	-0.04
720.92	0.01
721.1	0.1
721.279	0.07
721.459	0.02
721.639	-0.11
721.819	0.03
721.999	0.04
722.179	0.12
722.359	0
722.538	0.03
722.718	0.07
722.898	-0.04
723.078	0.01
723.257	-0.02
723.437	0.06
723.617	0.08
723.797	-0
723.976	0.01
724.156	0.09
724.336	0.11
724.515	0.24
724.695	-0.06
724.874	0
725.054	0.09
725.234	-0.06
725.413	0.06
725.593	0.04
725.772	-0.02
725.952	0.03
726.131	0.09
726.311	0.06
726.49	-0.05
726.67	-0.11
726.849	-0.03
727.028	0.09
727.208	-0.01
727.387	0.02
727.567	-0.1
727.746	0
727.925	-0.02
728.105	-0.06
728.284	0.02
728.463	-0.11
728.643	-0.03
728.822	-0.14
729.001	-0.07
729.18	0.08
729.359	0.04
729.539	0.01
729.718	-0.04
729.897	0.05
730.076	0.02
730.255	-0.04
730.434	-0
730.614	0.01
730.793	0.15
730.972	0.03
731.151	-0.07
731.33	0.18
731.509	0.01
731.688	0.03
731.867	-0.04
732.046	-0.1
732.225	0.18
732.404	-0.01
732.583	-0.09
732.762	0.06
732.941	0.09
733.12	0.01
733.298	0.03
733.477	0.15
733.656	0.02
733.835	-0
734.014	0.13
734.193	0.07
734.371	0.11
734.55	0.06
734.729	-0.14
734.908	0.08
735.086	0.04
735.265	0.09
735.444	-0.16
735.623	-0.14
735.801	-0.08
735.98	0.06
736.159	0.05
736.337	0.13
736.516	0.01
736.694	0.01
736.873	0.02
737.052	0.05
737.23	0.13
737.409	-0.03
737.587	0.05
737.766	-0.2
737.944	-0.06
738.123	0.14
738.301	0.01
738.479	0.01
738.658	0.07
738.836	-0.13
739.015	0.01
739.193	0.22
739.371	-0.02
739.55	0.02
739.728	-0.15
739.906	0.08
740.085	0.15
740.263	-0.08
740.441	-0.11
740.62	0.23
740.798	0.03
740.976	-0.04
741.154	-0.03
741.332	0.19
741.511	-0.03
741.689	0.06
741.867	0.12
742.045	0.05
742.223	0.12
742.401	-0.1
742.579	-0.05
742.757	-0.01
742.935	-0.12
743.114	0.09
743.292	0.04
743.47	-0.03
743.648	0.03
743.826	0.05
744.004	0.11
744.181	0.05
744.359	-0.01
744.537	0.04
744.715	0.05
744.893	0.04
745.071	-0.09
745.249	-0.05
745.427	0
745.605	0.05
745.782	0.04
745.96	0.11
746.138	-0
746.316	0.2
746.493	-0.02
746.671	0.15
746.849	0.12
747.027	0.03
747.204	-0.08
747.382	0.11
747.56	-0.03
747.737	0.02
747.915	-0.07
748.093	0.03
748.27	0.01
748.448	-0.03
748.625	-0.1
748.803	-0.05
748.98	0.08
749.158	0.06
749.335	0.05
749.513	-0.06
749.69	-0.04
749.868	0.03
750.045	0.12
750.223	-0.01
750.4	-0.2
750.578	0.22
750.755	0.18
750.932	-0.13
751.11	0.09
751.287	-0.12
751.464	0.2
751.642	-0.08
751.819	0.09
751.996	0.01
752.173	0
752.351	-0.04
752.528	0.06
752.705	0.03
752.882	-0.01
753.06	0.08
753.237	0.04
753.414	0.12
753.591	0.04
753.768	0.01
753.945	0.07
754.122	-0.04
754.299	0.11
754.476	-0.03
754.654	0.06
754.831	0.1
755.008	-0.01
755.185	-0.02
755.362	-0.15
755.539	0.02
755.716	0.01
755.892	-0.05
756.069	0.02
756.246	0.03
756.423	-0.14
756.6	0.11
756.777	-0.07
756.954	0.04
757.131	-0.06
757.307	-0.1
757.484	-0.08
757.661	0.02
757.838	0.03
758.015	-0.14
758.191	0.03
758.368	0.03
758.545	0.12
758.721	0.02
758.898	0.04
759.075	0.15
759.251	0.14
759.428	0.1
759.605	-0.08
759.781	-0.12
759.958	0.07
760.134	-0.04
760.311	-0.11
760.488	0.01
760.664	0.08
760.841	0.05
761.017	-0.01
761.194	0.13
761.37	0.17
761.547	0.15
761.723	0
761.899	0.15
762.076	-0.12
762.252	-0.21
762.429	-0.02
762.605	0.06
762.781	-0.01
762.958	0.08
763.134	-0.06
763.31	0.07
763.486	0.15
763.663	-0.1
763.839	-0.02
764.015	-0.17
764.191	-0.09
764.368	0.07
764.544	-0.08
764.72	0.04
764.896	0.11
765.072	0.11
765.248	-0.09
765.425	-0.1
765.601	-0
765.777	0.09
765.953	-0.2
766.129	0.1
766.305	-0.1
766.481	0.05
766.657	-0.04
766.833	0.14
767.009	-0.01
767.185	0.07
767.361	-0
767.537	-0.09
767.713	0.09
767.889	0
768.065	-0.03
768.24	-0.05
768.416	0.12
768.592	-0.16
768.768	-0.06
768.944	-0.06
769.12	-0.06
769.295	0.03
769.471	0.04
769.647	-0.02
769.823	0.13
769.998	-0.01
770.174	-0.11
770.35	0.44
770.525	0.06
770.701	0.15
770.877	0.11
771.052	0.04
771.228	0.2
771.403	0.17
771.579	0.12
771.755	0.38
771.93	0.04
772.106	-0.07
772.281	-0.23
772.457	-0.04
772.632	0.07
772.808	-0.16
772.983	-0.05
773.159	-0.24
773.334	0.07
773.509	0.23
773.685	-0.08
773.86	0.34
774.036	0.3
774.211	0.01
774.386	0.06
774.562	0.13
774.737	0.2
774.912	0.11
775.087	0.02
775.263	0.01
775.438	-0.01
775.613	0.1
775.788	-0.14
775.964	0.15
776.139	0.26
776.314	-0.34
776.489	0.07
776.664	0.05
776.839	-0.07
777.014	0.14
777.19	0.33
777.365	0.17
777.54	0.13
777.715	-0.21
777.89	-0.07
778.065	-0.15
778.24	-0.09
778.415	0.1
778.59	-0.11
778.765	-0.07
778.94	0.05
779.115	0.13
779.289	0.01
779.464	0.08
779.639	0.11
779.814	-0.07
779.989	-0.11
780.164	0.18
780.339	0.11
780.513	-0.02
780.688	-0.05
780.863	-0.11
781.038	0.2
781.212	-0.16
781.387	0.07
781.562	0.24
781.737	-0
781.911	0.06
782.086	-0.06
782.261	-0.02
782.435	0.2
782.61	-0.03
782.784	-0.02
782.959	-0
783.134	-0.15
783.308	-0
783.483	-0.02
783.657	0.14
783.832	0.1
784.006	-0.18
784.181	0.08
784.355	0.33
784.53	-0.15
784.704	-0.07
784.878	0.31
785.053	0.15
785.227	0.2
785.402	0.43
785.576	-0.24
785.75	0.17
785.925	-0.03
786.099	-0.06
786.273	0.04
786.448	0.08
786.622	0.15
786.796	-0.01
786.97	-0.07
787.145	0.55
787.319	-0.29
787.493	0.03
787.667	-0.12
787.841	0.02
788.015	0.13
788.19	-0.21
788.364	0.05
788.538	0.08
788.712	0.28
788.886	0.07
789.06	0.21
789.234	0.23
789.408	-0.25
789.582	0.05
789.756	0.17
789.93	-0.1
790.104	0
790.278	0.05
790.452	-0.01
790.626	-0.06
790.8	-0.03
790.973	0.17
791.147	0.11
791.321	0.31
791.495	0.01
791.669	0.06
791.843	0.1
792.016	0.18
792.19	0.41
792.364	-0.37
792.538	0.46
792.711	0.3
792.885	-0.04
793.059	-0.34
793.233	-0.64
793.406	0.07
793.58	0.08
793.754	0.1
793.927	0.01
794.101	0.13
794.274	0.21
794.448	0.07
794.622	-0.06
794.795	0.07
794.969	-0.34
795.142	0.36
795.316	-0.25
795.489	-0.15
795.663	0.13
795.836	0.07
796.009	-0.21
796.183	0.24
796.356	0.02
796.53	0.1
796.703	-0.04
796.876	0.63
797.05	-0.16
797.223	0.03
797.396	0.23
797.57	0.19
797.743	0.47
797.916	0.04
798.09	-0.13
798.263	-0
798.436	0.13
798.609	-0.09
798.782	-0.01
798.956	0.36
799.129	-0.02
799.302	-0.06
799.475	-0.01
799.648	-0.1
799.821	-0.18
799.994	-0.09
800.167	-0.46
800.34	0.03
800.514	-0.11
800.687	0.15
800.86	0.01
801.033	-0.1
801.206	-0.17
801.379	-0.18
801.551	0.53
801.724	0.08
801.897	0.35
802.07	-0.02
802.243	-0.36
802.416	-0.09
802.589	-0.22
802.762	0.1
802.935	-0.14
803.107	-0.07
803.28	0.24
803.453	0.39
803.626	-0.16
803.798	-0.11
803.971	-0.09
804.144	0.05
804.317	0.26
804.489	0.23
804.662	-0.1
804.835	0.05
805.007	-0.16
805.18	0.37
805.353	0.08
805.525	-0.31
805.698	-0.34
805.87	0.25
806.043	0.08
806.215	-0.17
806.388	-0.08
806.56	0.14
806.733	0.2
806.905	0.05
807.078	-0.08
807.25	0.11
807.423	0.25
807.595	0.21
807.768	-0.33
807.94	0.39
808.112	0.02
808.285	0.04
808.457	-0.01
808.629	0.15
808.802	-0.1
808.974	0.08
809.146	-0
809.318	-0.34
809.491	-0.02
809.663	0.58
809.835	0.07
810.007	0.43
810.18	-0
810.352	-0.16
810.524	-0.05
810.696	0.33
810.868	0.12
811.04	0.45
811.212	-0.15
811.384	0.5
811.556	0.21
811.728	0.12
811.901	1.01
812.073	0.11
812.245	0.29
812.417	0.18
812.589	-0.43
812.76	0.56
812.932	0.05
813.104	0.46
813.276	-0.01
813.448	0.37
813.62	-0.12
813.792	0.3
813.964	-0.07
814.136	0.06
814.307	-0.1
814.479	-0.12
814.651	-0.34
814.823	1
814.995	-0.02
815.166	0.07
815.338	-0.48
815.51	-0.46
815.681	1.23
815.853	-0.07
816.025	-0.07
816.196	0.34
816.368	0.59
816.54	-0.39
816.711	0.28
816.883	0.11
817.054	0.54
817.226	-0.16
817.398	0.04
817.569	0.19
817.741	0.56
817.912	0.13
818.084	0.04
818.255	0.24
818.426	-0.23
818.598	0.05
818.769	-0.09
818.941	0.49
819.112	0.35
819.283	0.09
819.455	-0.16
819.626	0.05
819.798	0.1
819.969	0.29
820.14	0.46
820.311	-0.25
820.483	0.07
820.654	0.46
820.825	-0.06
820.996	-0.46
821.168	-0.59
821.339	0.17
821.51	-0.5
821.681	0.04
821.852	0.07
822.023	-0.23
822.195	-0.6
822.366	0.66
822.537	-0.25
822.708	-0.22
822.879	-0.42
823.05	0.93
823.221	-0.04
823.392	-0.35
823.563	-0.03
823.734	0.18
823.905	-0.43
824.076	-0.24
824.247	-0.46
824.418	-0.19
824.589	0.89
824.759	-0.26
824.93	0.11
825.101	-0.14
825.272	0.09
825.443	0.1
825.614	0.35
825.784	-0.67
825.955	0.65
826.126	1.11
826.297	0.51
826.467	0.83
826.638	0.72
826.809	-1.02
826.98	-0.1
827.15	0.43
827.321	0.02
827.492	0.66
827.662	-0.12
827.833	0.99
828.003	0.72
828.174	-0.26
828.345	-0.65
828.515	0.64
828.686	-0.53
828.856	-0.19
829.027	0.07
829.197	0.84
829.368	-0.08
829.538	0.15
829.709	-0.22
829.879	0.06
830.049	0.07
830.22	0.05
830.39	0.46
830.56	0.6
830.731	-0.19
830.901	-0.05
831.072	0.55
831.242	0.15
831.412	0.2
831.582	-0.28
831.753	-0.38
831.923	0.73
832.093	0
832.263	-0.23
832.434	-0.43
832.604	0.16
832.774	0.04
832.944	0.19
833.114	-0.12
833.284	0.62
833.454	-0.77
833.624	-0.26
833.795	-0.53
833.965	1.03
834.135	0.45
834.305	-0.83
834.475	-0.71
834.645	0.07
834.815	-0.85
834.985	-0.52
835.155	-0.15
835.325	0.15
835.494	0.84
835.664	0.09
835.834	-0.62
836.004	0.2
836.174	-0.07
836.344	0.41
836.514	-0.56
836.684	-0.12
836.853	-0.1
837.023	0.33
837.193	-0.6
837.363	0.71
837.532	0.27
837.702	0.16
837.872	-0.03
838.041	0.87
838.211	1.25
838.381	-0.57
838.55	0.45
838.72	1.29
838.89	1.54
839.059	-0.17
839.229	-0.14
839.398	1.68
839.568	-0.09
839.738	-0.09
839.907	0.61
840.077	0.41
840.246	-0.53
840.416	-0.16
840.585	-0.35
840.755	0.26
840.924	0.95
841.093	-0.41
841.263	-0.38
841.432	0.38
841.602	-1.01
841.771	-0.14
841.94	-0.18
842.11	1.49
842.279	1.29
842.448	-0.38
842.617	-0.15
842.787	1.63
842.956	-1.23
843.125	0.21
843.294	0.33
843.464	1.03
843.633	0.16
843.802	-1.37
843.971	0.28
844.14	0.59
844.309	0.38
844.479	-0.41
844.648	-0.64
844.817	0.1
844.986	0.75
845.155	-0.64
845.324	-0.05
845.493	-0.17
845.662	-0.84
845.831	0.72
846	0.89
846.169	0.02
846.338	0.63
846.507	0.08
846.676	-0.21
846.844	0.07
847.013	0.39
847.182	0.69
847.351	-0.35
847.52	0.01
847.689	0.91
847.858	0.45
848.026	-0.09
848.195	0.46
848.364	-0.04
848.533	-0.33
848.701	-0.77
848.87	0.93
849.039	0.41
849.207	0.89
849.376	0.49
849.545	1.13
849.713	-0.25
849.882	-0.14
850.051	-0.44
850.219	0.67
850.388	-0.02
850.556	-0.6
850.725	-1.23
850.893	0.88
851.062	-0.03
851.23	1.67
851.399	-0.74
851.567	-0.4
851.736	0.01
851.904	-1.07
852.073	-0.38
852.241	0.55
852.41	-0.06
852.578	-0.89
852.746	0.15
852.915	0.6
853.083	0.65
853.251	-0.29
853.42	0.75
853.588	0.24
853.756	0.89
853.924	0.72
854.093	0.39
854.261	-0.44
854.429	-2.36
854.597	-0.31
854.765	-1.05
854.934	1.13
855.102	1.45
855.27	0.45
855.438	1.19
855.606	0.24
855.774	1.65
855.942	-0.66
856.11	-1.88
856.278	-0.2
856.446	0.36
856.614	0.28
856.782	-0.79
856.95	-0.19
857.118	0.13
857.286	0.03
857.454	-1.33
857.622	1.94
857.79	0.77
857.958	-0.48
858.126	-0.24
858.294	-3.38
858.462	0.63
858.629	0.13
858.797	-0.88
858.965	1.77
859.133	0.72
859.301	0.02
859.468	0.87
859.636	-0.65
859.804	2.15
859.971	2.29
860.139	0.27
860.307	1.37
860.474	-0
860.642	-0.92
860.81	-0.68
860.977	0.09
861.145	0.16
861.313	-0.12
861.48	0.96
861.648	2.15
861.815	-0.77
861.983	0.33
862.15	-0.01
862.318	1.31
862.485	1.25
862.653	-0.34
862.82	-0.98
862.988	1.51
863.155	-0.72
863.322	-1.36
863.49	-1.08
863.657	-0.05
863.824	2.58
863.992	1.57
864.159	0.43
864.326	1.65
864.494	-1.45
864.661	2.78
864.828	-0.06
864.996	1.47
865.163	1.81
865.33	-0.75
865.497	-2.65
865.664	-0.01
865.832	0.16
865.999	-0.04
866.166	-1.89
866.333	0.01
866.5	-0
866.667	0.03
866.834	-1.08
867.001	0.28
867.168	-2.41
867.335	-0
867.502	-2.06
867.669	0.18
867.836	2.36
868.003	-0.22
868.17	0.43
868.337	-1.82
868.504	2.93
868.671	-0.3
868.838	0.38
869.005	-0.14
869.172	2.02
869.339	1.43
869.505	-0.22
869.672	-0.6
869.839	0.74
870.006	0.85
870.173	-1.97
870.339	0.54
870.506	2.61
870.673	-1.53
870.84	1.1
871.006	0.6
871.173	-0.32
871.34	0.16
871.506	-1.33
871.673	1.59
871.839	-1.29
872.006	-0.67
872.173	-1.02
872.339	-0.28
872.506	1.51
872.672	0.43
872.839	-3.16
873.005	0.53
873.172	1.75
873.338	1.27
873.505	2.65
873.671	-1.75
873.838	0.66
874.004	-1.48
874.171	-0.87
874.337	0.14
874.503	1.2
874.67	0.29
874.836	0.47
875.002	1.83
875.169	0.33
875.335	0.7
875.501	-0.65
875.668	3.28
875.834	1.31
876	-0.57
876.166	2.15
876.332	1.94
876.499	1.93
876.665	-0.71
876.831	-0.02
876.997	2.38
877.163	2.46
877.329	-0.9
877.495	1.92
877.662	0.31
877.828	1.23
877.994	1.09
878.16	-2.31
878.326	-0.33
878.492	0.31
878.658	-1.52
878.824	0.45
878.99	2.47
879.156	-0.84
879.322	2.6
879.487	-1.2
879.653	0.58
879.819	1.12
879.985	2.01
880.151	0.28
880.317	2.41
880.483	0.69
880.648	1.25
880.814	-3.38
880.98	0.86
881.146	-2.53
881.312	-1.26
881.477	-1.58
881.643	1.58
881.809	0.98
881.974	2.05
882.14	-2.82
882.306	-0.28
882.471	2.45
882.637	1.2
882.803	1.55
882.968	2.15
883.134	1.96
883.299	0.67
883.465	1.48
883.63	1.75
883.796	1.23
883.961	1.71
884.127	1.21
884.292	-4.23
884.458	-1.88
884.623	-1.88
