Data from Apollo_Calib_20240827__AbsoluteIrradiance__171__02-00-02-275.txt Node

Date: Wed Aug 28 02:00:02 BST 2024
User: biology
Spectrometer: FLMT08252
Trigger mode: 0
Integration Time (sec): 5.000000E-1
Scans to average: 5
Electric dark correction enabled: true
Nonlinearity correction enabled: false
Boxcar width: 0
XAxis mode: Wavelengths
Number of Pixels in Spectrum: 3648
>>>>>Begin Spectral Data<<<<<
179.588	-0
179.809	-0
180.03	-0
180.251	-0
180.473	-0
180.694	0
180.915	0
181.136	-0
181.357	0
181.578	0
181.799	0
182.02	-0
182.241	0
182.462	-0
182.683	0
182.904	-0
183.125	-0
183.346	0
183.567	0
183.788	-0
184.009	-0
184.23	0
184.451	0
184.672	-0
184.892	-0
185.113	0
185.334	0
185.555	0
185.776	-0
185.996	-0
186.217	0
186.438	-0
186.659	-0
186.879	-0
187.1	0
187.321	-0
187.541	-0
187.762	-0
187.983	0
188.203	-0
188.424	0
188.644	-0
188.865	0
189.086	-0
189.306	-0
189.527	-0
189.747	0
189.968	-0
190.188	0
190.409	-0
190.629	0
190.849	-0
191.07	-0
191.29	0
191.511	0
191.731	-0
191.951	-0
192.172	0
192.392	-0
192.612	-0
192.833	-0
193.053	0
193.273	0
193.493	0
193.714	-0
193.934	0
194.154	0
194.374	0
194.594	0
194.815	-0
195.035	0
195.255	-0
195.475	-0
195.695	0
195.915	0
196.135	-0
196.355	0
196.575	0
196.795	-0
197.015	-0
197.235	-0
197.455	-0
197.675	-0
197.895	-0
198.115	-0
198.335	0
198.555	-0
198.775	0
198.995	0
199.214	0
199.434	-0
199.654	-0
199.874	-0
200.094	0.93
200.313	-0.29
200.533	-0.63
200.753	-0.77
200.973	1.24
201.192	0.92
201.412	-0.63
201.632	-0.68
201.851	0.94
202.071	-0.54
202.291	-0.62
202.51	-0.98
202.73	0.71
202.95	-0.12
203.169	-0.91
203.389	-0.05
203.608	0.31
203.828	-0.48
204.047	-0.27
204.267	0.66
204.486	-0.01
204.706	0.17
204.925	-0.44
205.145	-0.27
205.364	0.45
205.583	0.73
205.803	-0.03
206.022	-0.43
206.242	-0.48
206.461	0.04
206.68	0
206.9	-0.17
207.119	0.33
207.338	0.44
207.557	-0.48
207.777	-0.26
207.996	-0.11
208.215	0.33
208.434	-0.5
208.654	-0.41
208.873	0.04
209.092	0.54
209.311	-0.15
209.53	-0.09
209.749	-0.02
209.968	-0.24
210.187	-0.13
210.407	-0.42
210.626	0.04
210.845	0.31
211.064	-0.05
211.283	-0.38
211.502	0.17
211.721	-0.25
211.94	0.06
212.159	0.16
212.377	0.05
212.596	0.25
212.815	-0.13
213.034	0.1
213.253	0.22
213.472	0.04
213.691	-0.18
213.91	-0.09
214.128	-0.24
214.347	0.23
214.566	-0.52
214.785	-0.62
215.003	0.3
215.222	0.09
215.441	-0.04
215.66	-0.26
215.878	0.05
216.097	0.18
216.316	-0.25
216.534	-0.2
216.753	0.21
216.972	0.08
217.19	-0.01
217.409	-0.38
217.627	-0.29
217.846	-0.3
218.064	0.15
218.283	-0.18
218.501	0.47
218.72	0.2
218.938	-0.21
219.157	-0.12
219.375	0.18
219.594	0.15
219.812	-0.26
220.031	-0.12
220.249	0.27
220.467	0.32
220.686	-0.05
220.904	-0.17
221.122	-0.07
221.341	0.32
221.559	-0.05
221.777	-0.28
221.995	0.02
222.214	-0.04
222.432	-0.15
222.65	0.15
222.868	-0.03
223.086	-0.01
223.305	0.15
223.523	-0.05
223.741	0.37
223.959	-0.21
224.177	-0.28
224.395	-0.17
224.613	0.11
224.831	0.12
225.049	-0.21
225.267	-0.02
225.485	-0.06
225.703	-0.18
225.921	-0.14
226.139	-0.15
226.357	0.2
226.575	0.11
226.793	-0.18
227.011	0.64
227.229	0.14
227.447	0.18
227.665	-0.08
227.883	-0.22
228.1	-0.09
228.318	0.05
228.536	-0.2
228.754	0.03
228.972	-0.01
229.189	0.11
229.407	-0.1
229.625	-0.04
229.843	0.28
230.06	0.08
230.278	-0.22
230.496	0
230.713	0
230.931	0.08
231.149	-0.1
231.366	-0.2
231.584	-0.01
231.801	0.29
232.019	-0.03
232.236	-0.18
232.454	-0.08
232.671	0.06
232.889	-0.16
233.106	-0.18
233.324	-0.05
233.541	0.05
233.759	0.04
233.976	-0.03
234.194	-0.01
234.411	-0.04
234.628	-0.07
234.846	-0.04
235.063	0.07
235.28	0
235.498	-0.05
235.715	-0.13
235.932	0.08
236.149	0.02
236.367	-0.12
236.584	-0
236.801	-0.08
237.018	-0.01
237.236	0.01
237.453	-0.15
237.67	0.13
237.887	0.01
238.104	-0.06
238.321	-0.09
238.538	-0.11
238.755	0.06
238.973	-0.2
239.19	-0.01
239.407	0.13
239.624	0.04
239.841	-0.1
240.058	-0.17
240.275	0.02
240.492	0
240.709	-0.01
240.925	-0.09
241.142	-0.08
241.359	-0.12
241.576	-0.07
241.793	-0.08
242.01	-0.02
242.227	0.04
242.444	0.05
242.66	0.06
242.877	0.01
243.094	-0.04
243.311	0.01
243.527	-0.05
243.744	-0.09
243.961	0.07
244.178	-0.14
244.394	-0.01
244.611	0.1
244.828	0.17
245.044	-0.1
245.261	-0.04
245.477	0.04
245.694	0.05
245.911	-0.13
246.127	0.06
246.344	0.1
246.56	0.11
246.777	-0.06
246.993	-0.02
247.21	0.01
247.426	0.1
247.643	-0.1
247.859	-0.08
248.076	-0.05
248.292	0.22
248.508	-0.01
248.725	0.03
248.941	0.04
249.157	0.13
249.374	-0.03
249.59	-0.06
249.806	0.04
250.023	0.16
250.239	-0.07
250.455	-0.09
250.671	-0.02
250.888	0.06
251.104	0.02
251.32	0
251.536	0.04
251.752	-0.03
251.969	0.01
252.185	0.01
252.401	0.12
252.617	0.01
252.833	-0.02
253.049	-0.04
253.265	0.04
253.481	-0.04
253.697	-0.08
253.913	-0.03
254.129	0
254.345	-0.02
254.561	0.01
254.777	0
254.993	0.06
255.209	0.12
255.425	-0.1
255.641	-0.07
255.857	0.01
256.073	0.07
256.288	-0.11
256.504	-0.05
256.72	0.06
256.936	0.09
257.152	-0.02
257.367	-0.06
257.583	0.01
257.799	0.11
258.015	-0.03
258.23	-0.11
258.446	0.1
258.662	0.03
258.877	-0.05
259.093	-0.08
259.309	-0.03
259.524	0.01
259.74	-0.07
259.955	-0.08
260.171	-0
260.387	-0.03
260.602	0.06
260.818	0.06
261.033	-0.07
261.249	-0.05
261.464	0.02
261.68	-0.06
261.895	-0.01
262.11	0.05
262.326	-0.02
262.541	-0.06
262.757	0.06
262.972	0.04
263.187	0.07
263.403	-0.01
263.618	0.12
263.833	-0.03
264.049	-0.06
264.264	0
264.479	0.01
264.694	0.07
264.91	-0.09
265.125	-0.05
265.34	0.06
265.555	0.17
265.77	0.06
265.986	0.02
266.201	0.03
266.416	0.06
266.631	-0.06
266.846	-0.02
267.061	-0
267.276	0.03
267.491	-0.11
267.706	0.04
267.921	0.05
268.136	-0.04
268.351	0.03
268.566	-0.06
268.781	0.15
268.996	0.03
269.211	0
269.426	-0.07
269.641	-0.06
269.856	0.1
270.071	-0.13
270.285	-0.04
270.5	0.06
270.715	0.09
270.93	0.03
271.145	-0
271.359	0.08
271.574	-0.09
271.789	0.01
272.004	-0.05
272.218	-0.02
272.433	0.08
272.648	-0.07
272.862	0.04
273.077	0.03
273.292	0.02
273.506	-0.13
273.721	-0.02
273.936	0.07
274.15	0.07
274.365	-0.02
274.579	0.05
274.794	0.06
275.008	0.06
275.223	-0.06
275.437	-0.02
275.652	0.03
275.866	0.09
276.081	0.04
276.295	0.05
276.509	-0.03
276.724	0.02
276.938	0.04
277.153	0.01
277.367	-0.01
277.581	0.02
277.796	-0.05
278.01	-0.09
278.224	0.02
278.438	0.1
278.653	-0.03
278.867	-0.03
279.081	-0.22
279.295	0.02
279.51	0.02
279.724	-0.09
279.938	0.03
280.152	0.04
280.366	-0.05
280.58	0
280.794	0.08
281.008	0.07
281.222	0.02
281.437	0.1
281.651	0.05
281.865	0.07
282.079	-0.03
282.293	-0.14
282.507	-0.05
282.721	0.04
282.935	-0.01
283.148	-0.02
283.362	-0.02
283.576	-0.09
283.79	-0.01
284.004	-0.04
284.218	0.06
284.432	0
284.646	0.01
284.859	-0.02
285.073	-0.03
285.287	0.01
285.501	0.02
285.714	-0.03
285.928	0
286.142	0.01
286.356	-0.03
286.569	-0.02
286.783	0.08
286.997	0.04
287.21	0.04
287.424	0.01
287.637	-0.02
287.851	-0.02
288.065	0.06
288.278	-0.02
288.492	-0.04
288.705	-0.04
288.919	0.03
289.132	-0.05
289.346	0.06
289.559	-0.04
289.773	-0.04
289.986	0.02
290.2	-0.04
290.413	0.07
290.626	-0.04
290.84	-0.06
291.053	-0
291.267	0.12
291.48	-0
291.693	0.01
291.906	-0.02
292.12	-0.02
292.333	-0.02
292.546	-0.06
292.76	0.08
292.973	0.03
293.186	0.06
293.399	0.01
293.612	0.05
293.826	0.01
294.039	-0.01
294.252	0
294.465	-0.01
294.678	0.04
294.891	0.05
295.104	-0.01
295.317	0.01
295.53	0.06
295.743	-0
295.956	-0.01
296.169	0.04
296.382	0.1
296.595	-0.02
296.808	-0.04
297.021	0.07
297.234	0.06
297.447	0.04
297.66	0.04
297.873	0.06
298.086	0.04
298.299	0
298.511	-0.09
298.724	0.05
298.937	-0.08
299.15	-0.01
299.363	0.07
299.575	0.08
299.788	-0
300.001	0.02
300.213	-0.02
300.426	0.01
300.639	-0.03
300.852	0.02
301.064	0.06
301.277	0.08
301.489	0.06
301.702	0.03
301.915	0.03
302.127	0.02
302.34	0.01
302.552	0.03
302.765	0
302.977	0.02
303.19	-0
303.402	0
303.615	-0.05
303.827	-0.03
304.04	-0.02
304.252	0.05
304.464	-0.02
304.677	0.12
304.889	0.03
305.102	-0.01
305.314	-0
305.526	0.07
305.739	0.06
305.951	-0.03
306.163	0.02
306.375	0.11
306.588	-0.03
306.8	0
307.012	-0.05
307.224	0.02
307.436	0.09
307.649	-0.07
307.861	-0.01
308.073	0.05
308.285	-0.01
308.497	-0.02
308.709	-0.01
308.921	0.03
309.133	0.1
309.346	-0.04
309.558	0.01
309.77	0.04
309.982	0.05
310.194	0.08
310.406	-0.01
310.617	0.06
310.829	0.02
311.041	0.08
311.253	-0.07
311.465	0.01
311.677	0.02
311.889	0
312.101	-0
312.313	0.03
312.524	0.1
312.736	-0.05
312.948	-0.04
313.16	0.08
313.372	0.08
313.583	0
313.795	-0.01
314.007	-0.03
314.218	0.05
314.43	0.05
314.642	0.05
314.853	0
315.065	0.07
315.277	-0.01
315.488	0.02
315.7	0.04
315.912	0.03
316.123	-0.01
316.335	0.03
316.546	0.09
316.758	0.01
316.969	-0.01
317.181	0.03
317.392	-0.03
317.604	0.07
317.815	-0.03
318.026	-0.07
318.238	-0.01
318.449	0.04
318.661	-0.04
318.872	-0.02
319.083	-0.04
319.295	-0.02
319.506	-0.01
319.717	0.02
319.929	0.01
320.14	0
320.351	0.03
320.562	-0.02
320.774	0.02
320.985	0.04
321.196	-0.06
321.407	-0.1
321.618	0.07
321.829	0.05
322.041	0.05
322.252	-0.01
322.463	0.06
322.674	0.02
322.885	-0.02
323.096	-0.03
323.307	-0
323.518	0.03
323.729	-0.04
323.94	-0.04
324.151	-0.04
324.362	0.05
324.573	0.02
324.784	-0.03
324.995	0.04
325.206	0.05
325.417	0
325.628	-0.03
325.838	-0
326.049	0.02
326.26	0.05
326.471	-0
326.682	-0.01
326.892	0.02
327.103	-0.05
327.314	-0.03
327.525	0.06
327.735	0.02
327.946	0.01
328.157	-0.02
328.368	0.01
328.578	-0.02
328.789	0.01
328.999	0.02
329.21	-0.01
329.421	0.04
329.631	-0
329.842	-0.01
330.052	0.09
330.263	0.08
330.473	0.02
330.684	0
330.894	0.01
331.105	-0.04
331.315	0
331.526	-0.06
331.736	0.1
331.947	0.03
332.157	0.05
332.367	0
332.578	0.04
332.788	0.04
332.999	0.08
333.209	0.02
333.419	-0.04
333.629	0.01
333.84	0.01
334.05	0.02
334.26	0.07
334.47	0
334.681	0.08
334.891	0
335.101	0.05
335.311	0.1
335.521	0.02
335.732	-0.03
335.942	0.15
336.152	0.06
336.362	0.03
336.572	0.03
336.782	0.07
336.992	0
337.202	-0.02
337.412	0.02
337.622	0.03
337.832	-0
338.042	0.02
338.252	-0.03
338.462	-0.01
338.672	0.03
338.882	0.05
339.092	-0.02
339.302	0.11
339.511	0.08
339.721	-0
339.931	-0.05
340.141	0.04
340.351	0.06
340.561	0.01
340.77	0.03
340.98	-0.01
341.19	0.01
341.4	-0
341.609	-0.08
341.819	0.02
342.029	-0.03
342.238	0
342.448	-0.04
342.658	0.06
342.867	-0.01
343.077	0.05
343.286	0.01
343.496	0.06
343.706	0.08
343.915	-0.04
344.125	0.01
344.334	0.02
344.544	-0.05
344.753	-0.03
344.963	-0
345.172	0
345.381	0.01
345.591	-0.03
345.8	0.02
346.01	0.03
346.219	0.11
346.428	-0.13
346.638	0.03
346.847	0
347.056	0.07
347.266	-0.02
347.475	0.01
347.684	0.06
347.893	0.02
348.103	0.04
348.312	0.02
348.521	-0.01
348.73	0.04
348.94	0.03
349.149	-0.02
349.358	0.01
349.567	0
349.776	-0.05
349.985	-0.02
350.194	0.07
350.403	0.05
350.612	-0.04
350.821	0
351.03	-0
351.239	-0.08
351.448	0.01
351.657	-0.03
351.866	0.09
352.075	0
352.284	-0
352.493	-0.03
352.702	0.06
352.911	0.04
353.12	0.05
353.329	0.02
353.538	0.07
353.746	0.01
353.955	0
354.164	0.02
354.373	0.02
354.582	0.03
354.79	0.04
354.999	0.05
355.208	0.01
355.416	0.06
355.625	-0.02
355.834	-0.02
356.042	0.06
356.251	-0.03
356.46	-0
356.668	0.01
356.877	0.13
357.085	0.06
357.294	-0.05
357.503	0.03
357.711	0.03
357.92	0.12
358.128	0.05
358.337	0.01
358.545	0.03
358.754	0.02
358.962	0.02
359.17	-0.01
359.379	0.03
359.587	0.03
359.796	0.01
360.004	0.09
360.212	0.04
360.421	0.06
360.629	-0.05
360.837	0.04
361.046	0.04
361.254	0.09
361.462	0.04
361.67	-0.02
361.879	0
362.087	0.1
362.295	0.04
362.503	0.01
362.711	0.03
362.92	-0.01
363.128	0.01
363.336	-0.05
363.544	-0.02
363.752	0.08
363.96	-0.02
364.168	-0.02
364.376	0.04
364.584	0.03
364.792	0.05
365	0.02
365.208	0.02
365.416	0.03
365.624	0.07
365.832	-0.02
366.04	0.07
366.248	0.03
366.456	0.07
366.664	0.01
366.872	0.01
367.079	-0
367.287	0.01
367.495	0.01
367.703	0.02
367.911	-0.01
368.118	0.02
368.326	-0
368.534	-0
368.742	0.06
368.949	-0.03
369.157	0.02
369.365	0.09
369.572	0.04
369.78	-0.02
369.988	0.07
370.195	0.04
370.403	0.05
370.61	0
370.818	0.01
371.026	0.07
371.233	0
371.441	0.02
371.648	-0.02
371.856	0.01
372.063	0.02
372.271	0.02
372.478	0.02
372.685	0.02
372.893	0.09
373.1	0
373.308	0.02
373.515	0.09
373.722	0.07
373.93	-0.01
374.137	0.07
374.344	0.1
374.552	0.06
374.759	0.01
374.966	-0
375.173	-0.02
375.381	0.08
375.588	0.02
375.795	-0.04
376.002	0.04
376.209	0.01
376.417	0.02
376.624	0.03
376.831	0.07
377.038	0.05
377.245	-0.04
377.452	0.04
377.659	0.05
377.866	0
378.073	0
378.28	0.02
378.487	0.06
378.694	0.03
378.901	0.04
379.108	0.07
379.315	0.07
379.522	0.14
379.729	0.05
379.936	0.06
380.143	0.05
380.35	0.08
380.557	0.03
380.763	0.06
380.97	0.02
381.177	0.06
381.384	0.04
381.591	0.03
381.797	0.05
382.004	0.07
382.211	0.11
382.418	0.08
382.624	0.1
382.831	0.09
383.038	0.05
383.244	0.03
383.451	0.06
383.658	0.04
383.864	0.06
384.071	0.06
384.277	0.13
384.484	0.1
384.69	0.11
384.897	0.09
385.103	0.07
385.31	0.07
385.516	0.06
385.723	0.04
385.929	0.09
386.136	0.09
386.342	0.14
386.549	0.04
386.755	0.16
386.961	0.12
387.168	0.08
387.374	0.11
387.58	0.17
387.787	0.14
387.993	0.18
388.199	0.14
388.406	0.11
388.612	0.15
388.818	0.17
389.024	0.18
389.231	0.19
389.437	0.28
389.643	0.25
389.849	0.18
390.055	0.26
390.261	0.25
390.467	0.28
390.674	0.26
390.88	0.25
391.086	0.34
391.292	0.24
391.498	0.34
391.704	0.38
391.91	0.38
392.116	0.32
392.322	0.3
392.528	0.4
392.734	0.45
392.94	0.41
393.146	0.47
393.352	0.46
393.557	0.55
393.763	0.55
393.969	0.63
394.175	0.61
394.381	0.66
394.587	0.67
394.792	0.73
394.998	0.82
395.204	0.85
395.41	0.85
395.615	0.86
395.821	0.97
396.027	0.99
396.233	1.07
396.438	1.08
396.644	1.31
396.85	1.27
397.055	1.28
397.261	1.35
397.466	1.47
397.672	1.52
397.878	1.63
398.083	1.63
398.289	1.71
398.494	1.8
398.7	1.93
398.905	1.94
399.111	2.13
399.316	2.08
399.522	2.24
399.727	2.38
399.932	2.44
400.138	2.47
400.343	2.7
400.549	2.65
400.754	2.87
400.959	3.04
401.165	3.15
401.37	3.29
401.575	3.67
401.78	3.56
401.986	3.77
402.191	3.83
402.396	4.09
402.601	4.28
402.807	4.38
403.012	4.6
403.217	4.96
403.422	4.95
403.627	5.18
403.832	5.36
404.037	5.39
404.243	5.53
404.448	5.71
404.653	5.92
404.858	6.11
405.063	6.03
405.268	6.23
405.473	6.35
405.678	6.51
405.883	6.91
406.088	6.87
406.293	6.79
406.498	6.95
406.703	6.87
406.907	7.15
407.112	7.26
407.317	7.49
407.522	7.62
407.727	7.66
407.932	7.62
408.136	7.85
408.341	7.66
408.546	7.65
408.751	7.63
408.956	7.58
409.16	7.79
409.365	7.68
409.57	7.33
409.774	7.28
409.979	7.19
410.184	7.02
410.388	6.93
410.593	6.95
410.798	6.82
411.002	6.83
411.207	6.61
411.411	6.61
411.616	6.22
411.82	6.24
412.025	6.03
412.229	5.96
412.434	5.74
412.638	5.48
412.843	5.4
413.047	5.2
413.252	5
413.456	5.05
413.66	4.91
413.865	4.67
414.069	4.55
414.273	4.43
414.478	4.32
414.682	4.09
414.886	4.04
415.091	3.82
415.295	3.72
415.499	3.74
415.703	3.55
415.908	3.51
416.112	3.27
416.316	3.36
416.52	3.2
416.724	3.03
416.929	2.96
417.133	3.14
417.337	2.86
417.541	2.93
417.745	2.79
417.949	2.79
418.153	2.73
418.357	2.63
418.561	2.76
418.765	2.58
418.969	2.56
419.173	2.55
419.377	2.37
419.581	2.46
419.785	2.33
419.989	2.25
420.193	2.24
420.397	2.17
420.601	2.21
420.804	2.16
421.008	2.05
421.212	2.12
421.416	1.87
421.62	1.81
421.823	1.76
422.027	1.85
422.231	1.68
422.435	1.6
422.638	1.46
422.842	1.46
423.046	1.38
423.249	1.44
423.453	1.38
423.657	1.37
423.86	1.31
424.064	1.3
424.268	1.28
424.471	1.23
424.675	1.23
424.878	1.18
425.082	1.09
425.285	1.13
425.489	1.08
425.692	1.01
425.896	0.95
426.099	0.96
426.303	0.91
426.506	0.79
426.71	0.96
426.913	0.92
427.116	0.89
427.32	0.77
427.523	0.82
427.726	0.87
427.93	0.75
428.133	0.79
428.336	0.73
428.54	0.69
428.743	0.76
428.946	0.76
429.149	0.74
429.353	0.67
429.556	0.68
429.759	0.65
429.962	0.59
430.165	0.61
430.368	0.6
430.571	0.6
430.775	0.58
430.978	0.53
431.181	0.61
431.384	0.58
431.587	0.47
431.79	0.52
431.993	0.49
432.196	0.48
432.399	0.48
432.602	0.54
432.805	0.43
433.008	0.46
433.211	0.39
433.414	0.5
433.616	0.44
433.819	0.42
434.022	0.36
434.225	0.49
434.428	0.42
434.631	0.54
434.833	0.43
435.036	0.41
435.239	0.46
435.442	0.44
435.645	0.38
435.847	0.41
436.05	0.45
436.253	0.38
436.455	0.34
436.658	0.36
436.861	0.44
437.063	0.24
437.266	0.28
437.468	0.35
437.671	0.44
437.874	0.3
438.076	0.19
438.279	0.25
438.481	0.3
438.684	0.29
438.886	0.31
439.089	0.25
439.291	0.26
439.494	0.33
439.696	0.23
439.899	0.22
440.101	0.27
440.303	0.21
440.506	0.27
440.708	0.26
440.91	0.29
441.113	0.17
441.315	0.31
441.517	0.19
441.72	0.3
441.922	0.16
442.124	0.15
442.326	0.22
442.529	0.31
442.731	0.17
442.933	0.31
443.135	0.2
443.337	0.18
443.539	0.18
443.742	0.2
443.944	0.21
444.146	0.13
444.348	0.17
444.55	0.16
444.752	0.19
444.954	0.17
445.156	0.18
445.358	0.13
445.56	0.22
445.762	0.12
445.964	0.16
446.166	0.1
446.368	0.13
446.57	0.18
446.772	0.13
446.974	0.11
447.175	0.18
447.377	0.12
447.579	0.15
447.781	0.07
447.983	0.21
448.184	0.14
448.386	0.12
448.588	0.06
448.79	0.12
448.991	0.12
449.193	0.14
449.395	0.13
449.597	0.13
449.798	0.12
450	0.17
450.202	0.1
450.403	0.13
450.605	0.17
450.806	0.07
451.008	0.03
451.21	0.1
451.411	0.12
451.613	0.08
451.814	0.12
452.016	0.17
452.217	0.14
452.419	0.14
452.62	0.18
452.821	0.14
453.023	0.15
453.224	0.2
453.426	0.1
453.627	0.13
453.828	0.06
454.03	0.11
454.231	0.15
454.432	0.09
454.634	0.21
454.835	0.1
455.036	0.02
455.238	0.18
455.439	0.23
455.64	0.06
455.841	0.06
456.042	0.26
456.244	0.12
456.445	0.06
456.646	0.06
456.847	0.07
457.048	0.14
457.249	0.17
457.45	0.31
457.651	0.05
457.852	0.15
458.054	0.11
458.255	0.08
458.456	0.11
458.657	0.1
458.858	-0.01
459.058	0.11
459.259	0.1
459.46	0.09
459.661	0.08
459.862	0.19
460.063	0.07
460.264	0.16
460.465	0.01
460.666	0.21
460.866	0.1
461.067	0.1
461.268	0.07
461.469	0.09
461.67	0.1
461.87	0.07
462.071	0.07
462.272	0.05
462.473	0.09
462.673	0.12
462.874	0.08
463.075	0.12
463.275	0.09
463.476	0.12
463.676	0.13
463.877	0.14
464.078	0.13
464.278	0.14
464.479	0.04
464.679	0.07
464.88	0.07
465.08	0.23
465.281	0.09
465.481	0.08
465.682	0.06
465.882	0.11
466.083	0.1
466.283	0.09
466.483	0.06
466.684	-0.02
466.884	0.05
467.085	0.06
467.285	0.09
467.485	0.05
467.686	0.09
467.886	0.01
468.086	0.06
468.286	0.07
468.487	0.09
468.687	0.06
468.887	0.08
469.087	0.1
469.287	0.09
469.488	-0.01
469.688	0.11
469.888	0.07
470.088	0.13
470.288	0.13
470.488	0.12
470.688	0.04
470.888	0.04
471.088	0.05
471.288	0.1
471.488	0.09
471.688	0.12
471.888	0.06
472.088	0.11
472.288	0.07
472.488	0.05
472.688	0.04
472.888	0.08
473.088	0.07
473.288	0.09
473.488	0.05
473.688	0.14
473.887	0.08
474.087	0.05
474.287	0.06
474.487	0.05
474.687	0.12
474.886	0.03
475.086	0.06
475.286	0.07
475.486	0.06
475.685	0.04
475.885	0.05
476.085	0.03
476.284	0.08
476.484	0.05
476.684	0.09
476.883	0.1
477.083	0.07
477.282	0.04
477.482	0.08
477.681	0.09
477.881	0.05
478.08	0.01
478.28	-0
478.479	0.1
478.679	0.14
478.878	-0.01
479.078	0.01
479.277	0.05
479.477	0.05
479.676	0.04
479.875	0.04
480.075	-0.02
480.274	0.06
480.473	0.11
480.673	0.02
480.872	0.1
481.071	0.07
481.271	0.03
481.47	-0
481.669	0.05
481.868	0.04
482.067	0.02
482.267	0.02
482.466	-0
482.665	0.02
482.864	-0
483.063	0.01
483.262	0.04
483.461	0.09
483.661	0.08
483.86	0.02
484.059	0.06
484.258	0.04
484.457	0.06
484.656	0.02
484.855	0.06
485.054	0.01
485.253	0.02
485.452	-0.02
485.651	0.03
485.849	0.04
486.048	0.02
486.247	0
486.446	0.06
486.645	-0.01
486.844	-0.02
487.043	0.03
487.241	0.06
487.44	-0
487.639	0.04
487.838	0.02
488.037	0.03
488.235	0.08
488.434	0.04
488.633	0.03
488.831	0.03
489.03	0.06
489.229	0.05
489.427	0.01
489.626	0.09
489.825	0.09
490.023	0.02
490.222	0.03
490.42	0.03
490.619	0.08
490.817	0.04
491.016	0.03
491.214	0.05
491.413	0.01
491.611	0.01
491.81	0.04
492.008	0.06
492.207	0.05
492.405	0.03
492.604	-0
492.802	-0
493	0.05
493.199	0.03
493.397	0.04
493.595	0.03
493.794	-0.02
493.992	0.09
494.19	0.03
494.388	0.05
494.587	0.02
494.785	0.04
494.983	0.01
495.181	0.02
495.379	0.04
495.578	0.02
495.776	0.03
495.974	0.06
496.172	0.03
496.37	0.01
496.568	0.01
496.766	0.01
496.964	0.06
497.162	0.03
497.36	-0.01
497.558	0.04
497.756	0.05
497.954	0.02
498.152	0.01
498.35	0
498.548	0.05
498.746	0.02
498.944	-0.02
499.142	0.03
499.34	-0
499.538	0.01
499.736	-0.01
499.933	0.06
500.131	0.04
500.329	0.03
500.527	0.03
500.725	0.04
500.922	0.04
501.12	0.03
501.318	0.03
501.516	0.01
501.713	0.05
501.911	0.03
502.109	0.01
502.306	-0
502.504	0.01
502.701	0
502.899	-0.01
503.097	0.08
503.294	0.02
503.492	0.02
503.689	0.03
503.887	0.04
504.084	0.07
504.282	0.03
504.479	-0.02
504.677	0.04
504.874	0
505.072	0.02
505.269	0.03
505.466	0.04
505.664	0.04
505.861	0
506.059	0
506.256	0.06
506.453	0.01
506.651	0.06
506.848	0.06
507.045	0.02
507.242	0.02
507.44	0.03
507.637	0.02
507.834	0.02
508.031	0.04
508.229	-0
508.426	0.02
508.623	0.04
508.82	-0
509.017	-0.01
509.214	0.01
509.411	0.02
509.608	0.01
509.805	0.01
510.003	-0.01
510.2	0
510.397	0.05
510.594	-0.01
510.791	-0
510.988	0
511.184	0.06
511.381	0
511.578	-0
511.775	0.03
511.972	0
512.169	0
512.366	-0.01
512.563	0.04
512.76	0.01
512.956	0.02
513.153	0
513.35	0.02
513.547	0
513.744	0.02
513.94	-0
514.137	0.02
514.334	0.01
514.53	0.02
514.727	0.02
514.924	0.04
515.12	0.01
515.317	-0.03
515.514	0.01
515.71	-0.04
515.907	0.01
516.103	0.02
516.3	0.04
516.497	0.02
516.693	0.03
516.89	0.01
517.086	-0
517.283	0.05
517.479	0.02
517.676	0.01
517.872	0.02
518.068	0
518.265	0.01
518.461	0.01
518.658	-0.02
518.854	0.03
519.05	0.01
519.247	0
519.443	0.03
519.639	0.04
519.836	0.03
520.032	0.03
520.228	0.01
520.424	0.04
520.621	0.03
520.817	0.01
521.013	0.02
521.209	0.03
521.405	0.02
521.601	0.03
521.798	0.03
521.994	0.09
522.19	-0.01
522.386	-0.01
522.582	0.01
522.778	0.01
522.974	-0
523.17	0
523.366	0.02
523.562	0.01
523.758	0.01
523.954	0.01
524.15	0
524.346	0.04
524.542	-0
524.738	-0.01
524.934	-0.02
525.129	-0
525.325	0.04
525.521	0.01
525.717	0.02
525.913	0.02
526.109	0.01
526.304	0.01
526.5	0.04
526.696	0.02
526.892	0.01
527.087	0.01
527.283	0
527.479	0.02
527.674	-0.01
527.87	-0.01
528.066	0
528.261	0.02
528.457	0
528.653	0.01
528.848	-0.01
529.044	0.01
529.239	0.02
529.435	0.03
529.63	0
529.826	0.06
530.021	0.01
530.217	0.03
530.412	0
530.608	-0.03
530.803	-0.01
530.999	0.01
531.194	-0.03
531.389	0.02
531.585	-0.02
531.78	-0
531.975	0
532.171	0.02
532.366	-0.01
532.561	0
532.757	-0
532.952	0
533.147	0.03
533.342	0.02
533.538	0.01
533.733	0.04
533.928	0.01
534.123	-0
534.318	-0.01
534.513	0
534.709	0.01
534.904	-0.01
535.099	0.02
535.294	0.01
535.489	0.01
535.684	0
535.879	-0.01
536.074	0.01
536.269	-0.01
536.464	0.03
536.659	0
536.854	0
537.049	0.02
537.244	0.01
537.439	-0
537.634	0.04
537.828	0.04
538.023	-0
538.218	-0.02
538.413	-0
538.608	-0.02
538.803	0.03
538.997	-0.01
539.192	0.02
539.387	0.02
539.582	0.01
539.776	0.01
539.971	0
540.166	0
540.36	-0.03
540.555	0.01
540.75	0.02
540.944	0
541.139	-0.03
541.334	0
541.528	0.01
541.723	0
541.917	0
542.112	-0.04
542.306	0
542.501	0
542.695	0
542.89	-0.01
543.084	0.02
543.279	-0
543.473	0.01
543.668	-0.01
543.862	0.02
544.056	0.03
544.251	0
544.445	0.03
544.64	-0.01
544.834	-0.02
545.028	0.01
545.222	0.04
545.417	0.02
545.611	0.01
545.805	0
546	0
546.194	0
546.388	0.01
546.582	0.03
546.776	0.02
546.97	0.02
547.165	0.01
547.359	0.02
547.553	-0.02
547.747	0.01
547.941	0.02
548.135	0.01
548.329	0.02
548.523	0.02
548.717	-0
548.911	-0.01
549.105	0.01
549.299	-0.02
549.493	0.02
549.687	0.01
549.881	0.01
550.075	-0.01
550.269	-0.05
550.463	0.03
550.657	-0.02
550.85	0.02
551.044	-0.02
551.238	-0.01
551.432	-0.01
551.626	-0.02
551.82	0.01
552.013	-0.03
552.207	0.02
552.401	-0
552.594	-0.02
552.788	0
552.982	0.01
553.176	-0.01
553.369	0.01
553.563	0.01
553.756	-0.04
553.95	-0.02
554.144	0
554.337	0.02
554.531	0.01
554.724	0.03
554.918	0
555.111	0.03
555.305	0.01
555.498	0.04
555.692	0.03
555.885	0
556.079	0.02
556.272	-0.01
556.466	0.03
556.659	0.01
556.852	0
557.046	-0.02
557.239	0.03
557.432	-0.04
557.626	-0
557.819	0.01
558.012	0.03
558.206	0.03
558.399	-0.01
558.592	0.01
558.785	-0.01
558.979	0.03
559.172	0.02
559.365	0.02
559.558	0.02
559.751	0
559.944	0
560.138	-0
560.331	-0.01
560.524	-0.02
560.717	-0.01
560.91	-0
561.103	0.02
561.296	0.02
561.489	0.01
561.682	0.01
561.875	0.05
562.068	0.03
562.261	-0
562.454	0.05
562.647	0.02
562.84	0
563.032	-0.01
563.225	-0.01
563.418	0.01
563.611	-0.02
563.804	-0.02
563.997	-0.05
564.19	-0.04
564.382	0.01
564.575	-0.02
564.768	-0
564.961	-0.01
565.153	-0.01
565.346	0.02
565.539	0.01
565.731	0.01
565.924	0.01
566.117	0.03
566.309	0.01
566.502	-0
566.695	0.02
566.887	0.01
567.08	-0.02
567.272	-0.02
567.465	-0.02
567.657	0.01
567.85	0.01
568.042	-0.01
568.235	0.02
568.427	-0
568.62	-0.01
568.812	0.01
569.005	0
569.197	-0.06
569.389	0.01
569.582	0.01
569.774	-0.02
569.966	-0.03
570.159	-0.02
570.351	0.01
570.543	-0.01
570.736	-0.02
570.928	-0.01
571.12	0.03
571.312	-0.01
571.505	-0.03
571.697	0.03
571.889	-0.02
572.081	-0.02
572.273	-0.01
572.465	0.04
572.658	0.01
572.85	0.01
573.042	-0.02
573.234	-0
573.426	0.04
573.618	-0.03
573.81	0
574.002	0.04
574.194	0.03
574.386	-0.02
574.578	-0.08
574.77	-0.02
574.962	0.02
575.154	-0.03
575.346	-0.01
575.538	0.02
575.729	-0.02
575.921	-0.01
576.113	-0.03
576.305	0.01
576.497	-0.01
576.689	-0.01
576.88	-0.02
577.072	0.03
577.264	-0
577.456	0
577.647	-0.06
577.839	0.02
578.031	0.04
578.223	-0.03
578.414	-0.04
578.606	0
578.798	0.03
578.989	-0.01
579.181	-0.02
579.372	0
579.564	-0.03
579.755	-0.01
579.947	0.01
580.139	0.03
580.33	-0.05
580.522	-0.02
580.713	-0.05
580.905	-0.01
581.096	0.01
581.287	-0.01
581.479	-0.03
581.67	0.04
581.862	-0.02
582.053	0
582.244	-0.04
582.436	-0.02
582.627	-0.01
582.818	-0.02
583.01	-0.04
583.201	0.03
583.392	0.04
583.583	0.02
583.775	-0.02
583.966	-0.01
584.157	-0.02
584.348	-0.02
584.54	-0.04
584.731	0
584.922	0.01
585.113	-0.04
585.304	0.06
585.495	0.05
585.686	-0
585.877	-0.01
586.068	-0.02
586.259	0.02
586.45	0.01
586.641	-0.04
586.832	-0.07
587.023	-0
587.214	-0.03
587.405	0.01
587.596	-0.04
587.787	0.07
587.978	0.02
588.169	-0.02
588.36	-0.01
588.551	0.03
588.742	-0.03
588.932	0.01
589.123	-0.01
589.314	0.04
589.505	0
589.696	-0.01
589.886	-0.01
590.077	-0.06
590.268	0.01
590.458	-0.04
590.649	-0.04
590.84	0
591.03	-0.02
591.221	-0.04
591.412	-0.02
591.602	-0
591.793	0.03
591.984	-0.03
592.174	-0.02
592.365	0.06
592.555	-0.02
592.746	0.02
592.936	0.01
593.127	0.02
593.317	0.02
593.508	-0
593.698	-0.01
593.889	-0.01
594.079	0.01
594.269	-0.01
594.46	-0.03
594.65	0.01
594.84	-0.01
595.031	-0.04
595.221	-0.01
595.411	-0.05
595.602	0.03
595.792	-0.01
595.982	-0.03
596.172	0.03
596.363	0
596.553	0
596.743	-0.02
596.933	-0.02
597.123	0.04
597.314	-0.01
597.504	-0.02
597.694	0.04
597.884	0.03
598.074	-0.02
598.264	-0.03
598.454	0
598.644	0
598.834	-0
599.024	-0.04
599.214	-0.01
599.404	0.04
599.594	-0.03
599.784	-0.03
599.974	0.03
600.164	0.01
600.354	-0.05
600.544	-0.07
600.734	0.01
600.924	0.02
601.114	-0.03
601.303	0.01
601.493	-0.02
601.683	0
601.873	0
602.063	-0.07
602.252	0.05
602.442	-0.08
602.632	-0.01
602.821	-0.06
603.011	0.01
603.201	-0.01
603.39	-0.02
603.58	-0.03
603.77	-0.01
603.959	0.02
604.149	0.01
604.339	-0.03
604.528	0.04
604.718	0
604.907	-0.02
605.097	-0.02
605.286	-0.05
605.476	0.03
605.665	0.01
605.855	-0.02
606.044	0.04
606.234	0.03
606.423	-0.03
606.612	-0.04
606.802	-0.04
606.991	0.01
607.181	0.02
607.37	-0.07
607.559	-0
607.749	-0.03
607.938	-0.04
608.127	-0.01
608.316	-0.01
608.506	0.01
608.695	-0.03
608.884	-0.02
609.073	-0.03
609.263	0
609.452	0.03
609.641	0.01
609.83	-0.05
610.019	-0.01
610.208	-0.02
610.397	-0.02
610.586	0.04
610.775	-0.03
610.965	-0.02
611.154	-0.02
611.343	0
611.532	0.01
611.721	-0.04
611.91	-0.02
612.099	0
612.287	-0.01
612.476	-0.04
612.665	0.01
612.854	-0.02
613.043	0.03
613.232	-0.03
613.421	-0.03
613.61	0
613.798	-0.04
613.987	0.04
614.176	0.01
614.365	0.03
614.554	-0.01
614.742	0.01
614.931	-0.03
615.12	0.01
615.309	-0.02
615.497	0.01
615.686	-0.04
615.875	-0.02
616.063	-0
616.252	-0.02
616.44	-0.03
616.629	0
616.818	0.05
617.006	-0
617.195	-0.01
617.383	-0.01
617.572	-0.01
617.76	-0.04
617.949	-0.05
618.137	0.02
618.326	0.01
618.514	-0.03
618.703	-0.01
618.891	0.01
619.079	-0.05
619.268	-0
619.456	-0.04
619.644	0.04
619.833	-0.01
620.021	-0.02
620.209	-0.07
620.398	0.01
620.586	0.01
620.774	0.02
620.962	-0.02
621.151	0.03
621.339	-0.02
621.527	-0.03
621.715	-0.05
621.903	-0.06
622.092	-0.04
622.28	0.01
622.468	-0.02
622.656	-0.04
622.844	0.02
623.032	-0.03
623.22	-0.09
623.408	0.01
623.596	0.03
623.784	0.03
623.972	-0.04
624.16	-0.02
624.348	0.04
624.536	0.01
624.724	-0.03
624.912	0.06
625.1	0
625.288	-0.04
625.476	-0.06
625.664	0.03
625.851	-0.04
626.039	-0.02
626.227	0.04
626.415	-0.04
626.603	-0.09
626.79	-0.01
626.978	-0.02
627.166	-0.02
627.354	-0.03
627.541	-0.03
627.729	-0.03
627.917	0.01
628.104	0.04
628.292	-0.01
628.48	-0.02
628.667	0
628.855	0.01
629.042	0.03
629.23	-0
629.418	-0.02
629.605	-0.01
629.793	-0.04
629.98	-0.03
630.168	-0.01
630.355	0.01
630.543	-0.01
630.73	-0.01
630.917	0.01
631.105	0.05
631.292	-0.02
631.48	-0.03
631.667	0.04
631.854	0.01
632.042	-0.01
632.229	-0.06
632.416	0
632.604	-0.02
632.791	-0.03
632.978	0.02
633.165	0.05
633.353	0.05
633.54	0.03
633.727	-0.08
633.914	-0.06
634.101	-0.08
634.289	0.04
634.476	-0.01
634.663	-0.03
634.85	0.01
635.037	-0.08
635.224	-0.08
635.411	0
635.598	0.03
635.785	-0
635.972	0.01
636.159	0.02
636.346	-0.04
636.533	0.01
636.72	-0.02
636.907	-0
637.094	0.03
637.281	-0.01
637.468	0.02
637.655	-0.02
637.842	-0.04
638.029	-0.02
638.215	0.01
638.402	0
638.589	-0.06
638.776	0
638.963	-0.03
639.149	0.03
639.336	0.07
639.523	-0.04
639.709	-0.01
639.896	-0.02
640.083	0.07
640.27	0.01
640.456	-0.04
640.643	0.03
640.829	-0.04
641.016	-0.01
641.203	-0.05
641.389	0.05
641.576	0.02
641.762	-0.01
641.949	-0.04
642.135	0.01
642.322	-0.02
642.508	-0.07
642.695	-0.02
642.881	-0.01
643.068	-0.01
643.254	-0.03
643.441	0.04
643.627	-0.03
643.813	-0.04
644	0.02
644.186	-0.02
644.372	-0.1
644.559	0.04
644.745	-0.04
644.931	-0.03
645.118	-0
645.304	-0.03
645.49	-0.04
645.676	-0.03
645.862	-0
646.049	0.05
646.235	0
646.421	0.04
646.607	0.06
646.793	-0.01
646.979	-0.02
647.165	-0.01
647.352	0.01
647.538	0.02
647.724	-0
647.91	-0.01
648.096	0.03
648.282	0.04
648.468	-0.03
648.654	0.01
648.84	0
649.026	-0.02
649.212	-0
649.397	-0.02
649.583	-0.06
649.769	0.02
649.955	0
650.141	0.02
650.327	0.04
650.513	-0.05
650.698	0.01
650.884	-0.07
651.07	0
651.256	0.04
651.442	-0.02
651.627	-0.01
651.813	-0.03
651.999	0.01
652.184	-0.01
652.37	-0.02
652.556	-0.01
652.741	0.05
652.927	-0.08
653.113	-0.02
653.298	-0.01
653.484	-0.03
653.669	-0.04
653.855	-0.03
654.04	-0.01
654.226	0
654.412	-0.04
654.597	-0.05
654.782	-0.01
654.968	0.05
655.153	-0.01
655.339	-0.01
655.524	-0.05
655.71	0.01
655.895	-0.02
656.08	-0.03
656.266	0.01
656.451	-0.02
656.636	-0.05
656.822	-0.02
657.007	-0.05
657.192	-0.02
657.378	-0.06
657.563	-0.02
657.748	-0.02
657.933	-0.04
658.118	-0.02
658.304	-0.01
658.489	0.03
658.674	0.03
658.859	-0.07
659.044	0.01
659.229	-0.01
659.414	-0.05
659.599	-0
659.785	-0.06
659.97	-0.01
660.155	-0.01
660.34	-0.01
660.525	-0.01
660.71	0.01
660.895	0.01
661.08	-0.02
661.264	-0.01
661.449	0.02
661.634	0.05
661.819	-0.01
662.004	0.03
662.189	-0.08
662.374	-0.02
662.559	0.01
662.743	-0.06
662.928	-0.01
663.113	-0.03
663.298	-0.07
663.483	-0.01
663.667	-0.02
663.852	-0.07
664.037	-0.01
664.221	-0.07
664.406	0.03
664.591	-0.01
664.775	0
664.96	0
665.145	-0.03
665.329	0.01
665.514	-0.05
665.698	-0.02
665.883	-0.05
666.068	0.05
666.252	0.02
666.437	-0.06
666.621	-0.05
666.806	0.01
666.99	-0.03
667.174	-0.06
667.359	0.05
667.543	-0.04
667.728	-0.06
667.912	-0.1
668.096	-0.01
668.281	0.01
668.465	-0.04
668.649	-0
668.834	-0.05
669.018	-0.02
669.202	-0.01
669.387	-0.05
669.571	0.06
669.755	-0.04
669.939	0.02
670.124	-0.01
670.308	0.03
670.492	0.02
670.676	-0.02
670.86	-0.01
671.044	-0.05
671.228	0.03
671.413	-0.02
671.597	-0.04
671.781	-0.07
671.965	-0.01
672.149	-0.01
672.333	-0.02
672.517	-0.01
672.701	0.02
672.885	-0.05
673.069	-0.05
673.253	0.03
673.437	-0.02
673.621	-0.03
673.804	-0.01
673.988	-0
674.172	-0.02
674.356	-0.05
674.54	-0.03
674.724	0.04
674.908	-0.03
675.091	0.03
675.275	-0.02
675.459	0.02
675.643	-0.02
675.826	-0.02
676.01	-0
676.194	-0.05
676.377	0.05
676.561	0.01
676.745	-0.02
676.928	0.02
677.112	0.03
677.296	-0.07
677.479	-0.03
677.663	-0.01
677.846	-0.02
678.03	-0.03
678.213	-0.06
678.397	0.01
678.58	-0.02
678.764	-0.04
678.947	-0.07
679.131	-0.06
679.314	0.06
679.498	-0.03
679.681	-0.01
679.865	0.01
680.048	-0.02
680.231	-0.02
680.415	-0
680.598	-0.03
680.781	-0.01
680.965	-0
681.148	-0.02
681.331	-0.05
681.514	0.01
681.698	-0.07
681.881	-0.02
682.064	0.02
682.247	-0.01
682.43	-0.06
682.614	0
682.797	0.04
682.98	-0.01
683.163	-0.02
683.346	-0.01
683.529	-0.03
683.712	-0.05
683.895	0.03
684.078	-0.05
684.261	-0.05
684.444	-0.01
684.627	-0.05
684.81	-0.06
684.993	0.03
685.176	0
685.359	-0.04
685.542	-0.1
685.725	0.05
685.908	0.01
686.091	-0.05
686.274	0.01
686.457	0.03
686.639	-0.03
686.822	0.01
687.005	-0.03
687.188	-0.01
687.371	0.1
687.553	0.01
687.736	-0.02
687.919	0.06
688.102	0.08
688.284	-0.05
688.467	-0.03
688.65	0
688.832	-0.05
689.015	-0.02
689.197	-0.05
689.38	0.08
689.563	0.03
689.745	-0.05
689.928	-0.03
690.11	-0.04
690.293	0
690.475	-0.06
690.658	0.01
690.84	-0.04
691.023	-0.01
691.205	-0.07
691.388	-0.02
691.57	0.1
691.752	-0.01
691.935	-0.08
692.117	-0.02
692.3	0.07
692.482	0.05
692.664	-0.03
692.847	0.06
693.029	0.02
693.211	0.01
693.393	-0.04
693.576	-0.06
693.758	0
693.94	-0.01
694.122	-0.07
694.304	-0.02
694.487	-0.04
694.669	0.04
694.851	-0.08
695.033	-0.03
695.215	-0.06
695.397	-0.03
695.579	-0.04
695.761	-0.03
695.943	-0.12
696.125	0.05
696.308	0.04
696.49	-0.12
696.671	0.11
696.853	-0.01
697.035	0.09
697.217	-0.01
697.399	0.02
697.581	-0.02
697.763	-0.05
697.945	-0.09
698.127	-0.04
698.309	0.04
698.491	-0.01
698.672	0.02
698.854	-0
699.036	0.02
699.218	-0.06
699.399	0.01
699.581	0.01
699.763	0.08
699.945	-0.06
700.126	-0.07
700.308	-0.01
700.49	-0.03
700.671	-0.1
700.853	-0.11
701.035	-0.01
701.216	0.02
701.398	-0.02
701.579	-0.03
701.761	0.02
701.943	-0.07
702.124	-0.1
702.306	0.01
702.487	0.13
702.669	-0.03
702.85	-0.02
703.031	-0.06
703.213	0.06
703.394	0.01
703.576	-0.04
703.757	0.05
703.938	-0.04
704.12	0.14
704.301	-0
704.483	-0.02
704.664	0
704.845	0.1
705.026	0.01
705.208	-0.03
705.389	0.05
705.57	0.06
705.751	0
705.933	-0.03
706.114	0.04
706.295	0.04
706.476	-0.05
706.657	0.02
706.838	-0.01
707.02	0.04
707.201	-0.08
707.382	-0.06
707.563	0.01
707.744	-0.05
707.925	-0.1
708.106	-0.03
708.287	0.04
708.468	0.06
708.649	-0.03
708.83	0.05
709.011	-0.05
709.192	0.09
709.373	-0.08
709.554	-0.05
709.734	0.07
709.915	-0.04
710.096	-0.03
710.277	-0.12
710.458	0.03
710.639	0
710.819	-0.15
711	-0.01
711.181	0.04
711.362	0.05
711.542	0.01
711.723	-0.04
711.904	0.05
712.085	-0.02
712.265	-0.01
712.446	-0.09
712.627	-0.03
712.807	-0.05
712.988	0.07
713.168	-0.11
713.349	-0
713.53	-0.16
713.71	-0.12
713.891	-0.11
714.071	-0.01
714.252	-0.1
714.432	-0.04
714.613	-0.07
714.793	-0.01
714.974	0.01
715.154	0.08
715.334	0.01
715.515	0.12
715.695	-0.08
715.876	-0.02
716.056	-0.04
716.236	0.01
716.417	-0.03
716.597	-0.05
716.777	0.07
716.957	-0
717.138	-0.01
717.318	0
717.498	-0.09
717.678	0
717.859	0.03
718.039	-0.11
718.219	0.02
718.399	-0.04
718.579	-0.03
718.759	-0.09
718.939	0.02
719.12	-0.01
719.3	0.02
719.48	-0.16
719.66	-0.13
719.84	0.07
720.02	-0.05
720.2	-0.02
720.38	-0.03
720.56	0.16
720.74	-0.04
720.92	-0.03
721.1	0.06
721.279	0.03
721.459	-0.01
721.639	-0.12
721.819	0.05
721.999	-0.05
722.179	0.03
722.359	-0.16
722.538	-0.04
722.718	-0.06
722.898	-0
723.078	-0.01
723.257	-0.06
723.437	0
723.617	-0.03
723.797	-0.04
723.976	-0.01
724.156	0.07
724.336	0.08
724.515	0.02
724.695	-0.17
724.874	-0.1
725.054	-0.04
725.234	-0.04
725.413	-0.05
725.593	0.01
725.772	-0.03
725.952	-0.05
726.131	-0.01
726.311	-0.04
726.49	-0
726.67	-0.11
726.849	-0.09
727.028	0.03
727.208	-0.17
727.387	0.04
727.567	-0.15
727.746	-0.02
727.925	-0.03
728.105	-0.12
728.284	-0.07
728.463	-0.08
728.643	0.13
728.822	-0.14
729.001	-0.09
729.18	0.08
729.359	0.06
729.539	0.02
729.718	0.01
729.897	-0.07
730.076	-0.12
730.255	-0.18
730.434	-0.06
730.614	0.05
730.793	0.12
730.972	-0.03
731.151	-0.03
731.33	0.06
731.509	0.05
731.688	-0.04
731.867	-0.04
732.046	-0.14
732.225	0.16
732.404	-0.11
732.583	-0.05
732.762	-0.03
732.941	0.08
733.12	-0.05
733.298	-0.03
733.477	0.07
733.656	-0.06
733.835	-0.11
734.014	-0.02
734.193	0.07
734.371	-0.01
734.55	-0.01
734.729	-0.07
734.908	-0.04
735.086	0.03
735.265	-0.01
735.444	-0.14
735.623	-0.13
735.801	-0.06
735.98	-0.14
736.159	-0.05
736.337	0.09
736.516	0.02
736.694	-0.06
736.873	-0.1
737.052	0.13
737.23	0.01
737.409	-0.06
737.587	0.18
737.766	-0.18
737.944	-0.06
738.123	0.03
738.301	0.06
738.479	-0.04
738.658	-0.06
738.836	-0.16
739.015	-0.06
739.193	0.06
739.371	-0.13
739.55	0.01
739.728	-0.06
739.906	0.1
740.085	0.08
740.263	0
740.441	-0.15
740.62	0.13
740.798	0.04
740.976	-0.16
741.154	-0.11
741.332	0.12
741.511	-0.1
741.689	0.07
741.867	0.04
742.045	-0.11
742.223	-0.05
742.401	-0.07
742.579	-0.07
742.757	-0.02
742.935	-0.12
743.114	-0.07
743.292	-0.09
743.47	-0.04
743.648	-0.11
743.826	-0.11
744.004	0.05
744.181	0.07
744.359	-0.1
744.537	-0.06
744.715	-0.03
744.893	0.07
745.071	-0.06
745.249	-0.12
745.427	-0.05
745.605	-0.01
745.782	0.05
745.96	0.08
746.138	0.04
746.316	-0.06
746.493	-0.14
746.671	-0.01
746.849	-0.12
747.027	0.08
747.204	-0.12
747.382	0.06
747.56	-0.11
747.737	0.09
747.915	-0.06
748.093	0.05
748.27	-0.14
748.448	0.01
748.625	-0.03
748.803	-0.06
748.98	-0.15
749.158	-0.02
749.335	0.02
749.513	-0.11
749.69	-0
749.868	-0.11
750.045	-0.02
750.223	-0.06
750.4	-0.15
750.578	0.19
750.755	-0.02
750.932	-0.19
751.11	0.02
751.287	-0.17
751.464	0.13
751.642	-0.04
751.819	0.12
751.996	0.07
752.173	-0.02
752.351	-0.08
752.528	-0.07
752.705	-0.1
752.882	-0.12
753.06	-0.11
753.237	-0.06
753.414	0.18
753.591	0.06
753.768	-0.09
753.945	-0.04
754.122	-0.09
754.299	0.04
754.476	-0.07
754.654	0
754.831	0.01
755.008	0.04
755.185	-0.11
755.362	-0.13
755.539	-0.01
755.716	-0.14
755.892	-0.06
756.069	0.02
756.246	-0.02
756.423	-0.03
756.6	0.11
756.777	-0.05
756.954	0.12
757.131	-0.09
757.307	-0.22
757.484	-0.13
757.661	0.07
757.838	-0.1
758.015	-0.14
758.191	-0
758.368	0.08
758.545	0.07
758.721	-0.01
758.898	-0.15
759.075	0.13
759.251	0.12
759.428	0.06
759.605	-0.12
759.781	0.05
759.958	-0.05
760.134	-0.05
760.311	-0.06
760.488	0.05
760.664	0.16
760.841	-0.11
761.017	-0.12
761.194	0.02
761.37	0.09
761.547	-0.02
761.723	-0.08
761.899	0.07
762.076	-0.12
762.252	-0.04
762.429	-0.08
762.605	0.04
762.781	-0.01
762.958	0.07
763.134	-0.01
763.31	-0.03
763.486	0.11
763.663	-0.09
763.839	0.02
764.015	-0.28
764.191	-0.07
764.368	-0.06
764.544	-0.11
764.72	-0.02
764.896	0.1
765.072	-0.03
765.248	0
765.425	0.01
765.601	-0.02
765.777	0.02
765.953	-0.26
766.129	0.04
766.305	-0.02
766.481	0.04
766.657	0.03
766.833	0.17
767.009	-0.08
767.185	-0.03
767.361	-0.01
767.537	-0.1
767.713	0.14
767.889	-0.17
768.065	-0.07
768.24	-0.05
768.416	0.09
768.592	-0.1
768.768	-0.02
768.944	0.03
769.12	-0.02
769.295	-0.15
769.471	0.02
769.647	-0.17
769.823	0.15
769.998	-0.14
770.174	-0.15
770.35	0.19
770.525	0.32
770.701	-0.05
770.877	-0.19
771.052	-0.06
771.228	-0
771.403	0.03
771.579	0.07
771.755	0.16
771.93	-0.09
772.106	-0.18
772.281	-0.27
772.457	0.01
772.632	0.09
772.808	-0.21
772.983	-0.07
773.159	-0.25
773.334	0.12
773.509	-0.12
773.685	-0.12
773.86	0.2
774.036	0.13
774.211	-0.07
774.386	-0.09
774.562	0.01
774.737	0.33
774.912	-0.23
775.087	0.03
775.263	-0.08
775.438	-0.07
775.613	-0.14
775.788	-0.11
775.964	0.07
776.139	0.23
776.314	-0.21
776.489	-0.16
776.664	0
776.839	-0.18
777.014	0.14
777.19	0.05
777.365	0.16
777.54	0.23
777.715	-0.19
777.89	-0.02
778.065	-0.28
778.24	-0.13
778.415	0.14
778.59	-0.29
778.765	-0.19
778.94	0.01
779.115	-0.03
779.289	0.08
779.464	-0.05
779.639	-0.01
779.814	-0.16
779.989	-0.28
780.164	0.01
780.339	0.18
780.513	-0.18
780.688	-0.16
780.863	-0.05
781.038	0.16
781.212	-0.27
781.387	-0.13
781.562	0.08
781.737	-0.11
781.911	0.16
782.086	-0.17
782.261	-0.01
782.435	0.23
782.61	0.01
782.784	0.01
782.959	0.2
783.134	-0.11
783.308	-0.18
783.483	-0.2
783.657	0.36
783.832	0.1
784.006	-0.46
784.181	-0.23
784.355	0.24
784.53	-0.06
784.704	-0.15
784.878	0.07
785.053	0.24
785.227	0.12
785.402	0.33
785.576	-0.19
785.75	-0.08
785.925	-0.07
786.099	-0.16
786.273	-0.01
786.448	0.06
786.622	0.01
786.796	-0.09
786.97	-0.21
787.145	0.31
787.319	-0.26
787.493	-0.23
787.667	-0.29
787.841	-0.01
788.015	0.11
788.19	-0.21
788.364	0.03
788.538	0.26
788.712	-0.08
788.886	0.06
789.06	0.17
789.234	0.25
789.408	-0.12
789.582	-0.14
789.756	-0.12
789.93	-0.02
790.104	-0.17
790.278	-0.24
790.452	-0.31
790.626	0.16
790.8	-0.3
790.973	-0.01
791.147	0.14
791.321	0.35
791.495	0.12
791.669	0.14
791.843	0.22
792.016	0.03
792.19	0.63
792.364	-0.25
792.538	0.32
792.711	0.42
792.885	-0.18
793.059	-0.2
793.233	-0.4
793.406	0.06
793.58	0.11
793.754	-0.04
793.927	-0.16
794.101	0.19
794.274	0.1
794.448	0.07
794.622	-0.11
794.795	0.28
794.969	-0.17
795.142	0.48
795.316	-0.19
795.489	-0.32
795.663	0.15
795.836	-0.14
796.009	-0.34
796.183	-0.04
796.356	-0.02
796.53	-0.15
796.703	0.06
796.876	0.62
797.05	-0.27
797.223	-0.11
797.396	-0.23
797.57	0.1
797.743	0.49
797.916	0.13
798.09	0.24
798.263	0.25
798.436	0.12
798.609	0.2
798.782	-0.19
798.956	0.17
799.129	-0.08
799.302	-0.08
799.475	-0.15
799.648	-0.2
799.821	-0.21
799.994	-0.05
800.167	-0.3
800.34	-0.25
800.514	-0.04
800.687	-0.29
800.86	-0.17
801.033	0.17
801.206	0.06
801.379	-0.22
801.551	0.08
801.724	0.22
801.897	0.39
802.07	-0.19
802.243	-0.58
802.416	-0.07
802.589	-0.27
802.762	0.18
802.935	-0.21
803.107	0.15
803.28	0.5
803.453	0.24
803.626	-0.34
803.798	0.09
803.971	-0.39
804.144	0.1
804.317	0.16
804.489	0.08
804.662	-0.08
804.835	-0.13
805.007	-0.18
805.18	0.33
805.353	0.01
805.525	-0.38
805.698	-0.05
805.87	0.4
806.043	-0.14
806.215	-0.43
806.388	-0.22
806.56	0.02
806.733	0.14
806.905	-0.22
807.078	-0.42
807.25	-0.23
807.423	0.09
807.595	-0.04
807.768	0.2
807.94	0.16
808.112	0.22
808.285	0.21
808.457	0.1
808.629	-0.2
808.802	0.17
808.974	-0.15
809.146	-0.31
809.318	-0.56
809.491	0.54
809.663	0.1
809.835	-0.21
810.007	0.08
810.18	-0.03
810.352	-0.46
810.524	-0.07
810.696	0.24
810.868	0.22
811.04	-0.22
811.212	0.03
811.384	0.14
811.556	-0.06
811.728	-0.09
811.901	0.74
812.073	-0.09
812.245	0.06
812.417	0.04
812.589	-0.69
812.76	-0.35
812.932	0.46
813.104	0.17
813.276	-0.2
813.448	0.07
813.62	0.18
813.792	-0.17
813.964	-0.26
814.136	0.32
814.307	-0.3
814.479	-0.52
814.651	0.1
814.823	0.93
814.995	-0.16
815.166	-0.1
815.338	-0.32
815.51	-0.5
815.681	0.68
815.853	-0.25
816.025	-0.36
816.196	0.57
816.368	0.35
816.54	-0.32
816.711	-0.31
816.883	0.11
817.054	0.91
817.226	-0.48
817.398	0.03
817.569	-0.37
817.741	0.14
817.912	-0.16
818.084	0.19
818.255	0.76
818.426	-0.31
818.598	-0.27
818.769	-0.43
818.941	0.41
819.112	0.37
819.283	-0.27
819.455	-0.43
819.626	0
819.798	0.35
819.969	0
820.14	-0.12
820.311	-0.3
820.483	0.21
820.654	0.11
820.825	0.08
820.996	-0.11
821.168	-0.26
821.339	-0.18
821.51	-0.21
821.681	-0.28
821.852	-0.17
822.023	-0.21
822.195	-0.39
822.366	0.47
822.537	-0.01
822.708	0.22
822.879	-0.51
823.05	0.51
823.221	-0.07
823.392	-0.08
823.563	0.28
823.734	0.11
823.905	-0.28
824.076	-0.59
824.247	-0.3
824.418	-0.57
824.589	0.35
824.759	-0.36
824.93	-0.13
825.101	-0.81
825.272	0.33
825.443	-0.31
825.614	1.02
825.784	-0.73
825.955	0.75
826.126	0.53
826.297	-0.49
826.467	0.69
826.638	0.49
826.809	-1
826.98	-0.57
827.15	0.15
827.321	-0.29
827.492	0.81
827.662	-0.37
827.833	0.39
828.003	0.89
828.174	-0.41
828.345	-0.79
828.515	1.04
828.686	0.09
828.856	0.17
829.027	-0.13
829.197	0.25
829.368	0.5
829.538	-0.47
829.709	-0.03
829.879	0.24
830.049	0.16
830.22	-0.22
830.39	0.27
830.56	0.76
830.731	0.09
830.901	0.11
831.072	-0.09
831.242	0.43
831.412	0.01
831.582	-0.79
831.753	-1
831.923	0.59
832.093	0.05
832.263	-0.33
832.434	-0.55
832.604	-0.69
832.774	0.11
832.944	0.01
833.114	-0.57
833.284	0.11
833.454	-0.5
833.624	-0.68
833.795	-0.69
833.965	0.62
834.135	0.11
834.305	-1.13
834.475	-0.62
834.645	-0.22
834.815	-0.48
834.985	-0.75
835.155	-0.42
835.325	-0.22
835.494	-0.2
835.664	0.18
835.834	-0.76
836.004	-0.16
836.174	0
836.344	0.18
836.514	-1.07
836.684	-0.19
836.853	-0.04
837.023	-0.11
837.193	-0.36
837.363	0.55
837.532	0.36
837.702	-0.66
837.872	-0.54
838.041	0.44
838.211	0.96
838.381	-0.8
838.55	0.54
838.72	1.11
838.89	1.25
839.059	-0.09
839.229	-0.56
839.398	1.62
839.568	0.27
839.738	0.1
839.907	0.26
840.077	0.04
840.246	-0.21
840.416	-1.08
840.585	-1.2
840.755	1.54
840.924	-0.15
841.093	-0.17
841.263	-0.19
841.432	0.04
841.602	-1.1
841.771	-0.22
841.94	-0.63
842.11	1.63
842.279	1.71
842.448	-0.52
842.617	-0.59
842.787	0.89
842.956	-0.65
843.125	-0.15
843.294	0.34
843.464	1.23
843.633	0.65
843.802	-1.05
843.971	-0.4
844.14	0.51
844.309	1
844.479	-0.8
844.648	-0.44
844.817	-0.34
844.986	0.2
845.155	0.31
845.324	-0.4
845.493	-0.53
845.662	-0.8
845.831	0.3
846	0.72
846.169	-0.48
846.338	1.4
846.507	0.62
846.676	0.82
846.844	-1.38
847.013	-0.22
847.182	0.29
847.351	-0.59
847.52	-0.09
847.689	0.62
847.858	-0.56
848.026	-1.37
848.195	-0.18
848.364	-0.47
848.533	-1.16
848.701	-0.04
848.87	-0.35
849.039	1.14
849.207	-0.23
849.376	0.8
849.545	0.66
849.713	-1.27
849.882	-0.31
850.051	-0.19
850.219	0.45
850.388	0.36
850.556	-0.37
850.725	-0.06
850.893	0.32
851.062	-0.03
851.23	0.44
851.399	-0.98
851.567	-0.77
851.736	0.18
851.904	-0.58
852.073	-0.32
852.241	1.51
852.41	-1.08
852.578	-0.08
852.746	-0.65
852.915	0.03
853.083	0.84
853.251	-1.28
853.42	-0.32
853.588	-0.24
853.756	0.6
853.924	0.48
854.093	0.09
854.261	-0.67
854.429	-1.54
854.597	0.91
854.765	-1.37
854.934	0.41
855.102	0.67
855.27	-0.01
855.438	0.84
855.606	0.61
855.774	0.89
855.942	-1.49
856.11	-1.57
856.278	-0.92
856.446	1.12
856.614	-0.46
856.782	-0.75
856.95	0.72
857.118	1.79
857.286	0.07
857.454	-1.04
857.622	0.7
857.79	0.83
857.958	-0.67
858.126	0.14
858.294	-2.75
858.462	0.17
858.629	-0.5
858.797	-0.51
858.965	-0.75
859.133	-0.03
859.301	-0.53
859.468	-0.21
859.636	-0.61
859.804	1.17
859.971	1.24
860.139	-1.67
860.307	0.15
860.474	0.01
860.642	-0.49
860.81	-0.06
860.977	-0.77
861.145	0.86
861.313	0.08
861.48	-1
861.648	1.45
861.815	0.32
861.983	-2.35
862.15	-0.32
862.318	0.69
862.485	2.23
862.653	-1.26
862.82	-1.36
862.988	1.09
863.155	0.58
863.322	-0.74
863.49	-0.61
863.657	-1.43
863.824	1.91
863.992	0.97
864.159	0.33
864.326	1.66
864.494	-0.83
864.661	2.24
864.828	-1.47
864.996	0
865.163	2.69
865.33	-1.25
865.497	-2.77
865.664	-0.83
865.832	-2.92
865.999	-0.7
866.166	-1.48
866.333	-0.06
866.5	-1.17
866.667	-1.36
866.834	-0.03
867.001	0.58
867.168	-3.18
867.335	-0.78
867.502	-2.53
867.669	-0.86
867.836	0.09
868.003	0.03
868.17	2.22
868.337	-1.39
868.504	2.69
868.671	-1.17
868.838	-1.62
869.005	-0.01
869.172	1.92
869.339	-0.44
869.505	-0.52
869.672	0.87
869.839	1.02
870.006	-0.3
870.173	-1.56
870.339	0.41
870.506	2.2
870.673	-1.36
870.84	1.45
871.006	-0.16
871.173	-1.1
871.34	-1.32
871.506	-0.74
871.673	0.26
871.839	-1.27
872.006	-1.11
872.173	-1.05
872.339	0.81
872.506	0.5
872.672	0.32
872.839	-1.68
873.005	-0.41
873.172	5.02
873.338	-0.05
873.505	0.94
873.671	0.46
873.838	1.64
874.004	-2.75
874.171	-1.55
874.337	-0.62
874.503	1.46
874.67	0.04
874.836	-0.41
875.002	2.21
875.169	1.86
875.335	-0.52
875.501	-0.95
875.668	1.15
875.834	-0.87
876	-0.57
876.166	1.88
876.332	1.62
876.499	3.01
876.665	-0.47
876.831	-0.45
876.997	2.8
877.163	0.63
877.329	-1.19
877.495	1.23
877.662	-0.31
877.828	-0.86
877.994	0.74
878.16	-2.92
878.326	-1.96
878.492	1.21
878.658	-1.29
878.824	0.11
878.99	1.36
879.156	0.13
879.322	1.22
879.487	-1.08
879.653	-0.13
879.819	-1.92
879.985	-1.6
880.151	-0.82
880.317	0.86
880.483	0.82
880.648	1.22
880.814	-2.78
880.98	-0.2
881.146	-3.1
881.312	-2.85
881.477	-1.41
881.643	-1.39
881.809	1.39
881.974	2.6
882.14	-1.69
882.306	-2.16
882.471	2.96
882.637	-1.93
882.803	1.35
882.968	2.88
883.134	1.76
883.299	0.13
883.465	-0.58
883.63	0.73
883.796	0.26
883.961	1.24
884.127	-1.39
884.292	-4.34
884.458	-2.84
884.623	-2.84
