Data from Apollo_Calib_20240827__AbsoluteIrradiance__660__10-09-02-475.txt Node

Date: Wed Aug 28 10:09:02 BST 2024
User: biology
Spectrometer: FLMT08252
Trigger mode: 0
Integration Time (sec): 5.000000E-1
Scans to average: 5
Electric dark correction enabled: true
Nonlinearity correction enabled: false
Boxcar width: 0
XAxis mode: Wavelengths
Number of Pixels in Spectrum: 3648
>>>>>Begin Spectral Data<<<<<
179.588	-0
179.809	-0
180.03	-0
180.251	-0
180.473	-0
180.694	0
180.915	0
181.136	-0
181.357	0
181.578	-0
181.799	-0
182.02	-0
182.241	0
182.462	-0
182.683	0
182.904	-0
183.125	-0
183.346	0
183.567	0
183.788	0
184.009	-0
184.23	0
184.451	0
184.672	-0
184.892	-0
185.113	0
185.334	0
185.555	-0
185.776	-0
185.996	0
186.217	0
186.438	0
186.659	-0
186.879	0
187.1	-0
187.321	-0
187.541	-0
187.762	0
187.983	0
188.203	0
188.424	0
188.644	0
188.865	0
189.086	0
189.306	0
189.527	0
189.747	0
189.968	-0
190.188	0
190.409	0
190.629	0
190.849	-0
191.07	0
191.29	0
191.511	0
191.731	-0
191.951	-0
192.172	0
192.392	-0
192.612	-0
192.833	-0
193.053	0
193.273	0
193.493	-0
193.714	-0
193.934	0
194.154	0
194.374	0
194.594	0
194.815	0
195.035	0
195.255	-0
195.475	-0
195.695	0
195.915	0
196.135	0
196.355	0
196.575	0
196.795	0
197.015	-0
197.235	-0
197.455	0
197.675	0
197.895	-0
198.115	0
198.335	0
198.555	0
198.775	0
198.995	0
199.214	0
199.434	0
199.654	0
199.874	-0
200.094	1.02
200.313	-0.39
200.533	-0.1
200.753	-0.39
200.973	1.07
201.192	0.88
201.412	-0.65
201.632	-0.11
201.851	1.33
202.071	-0.28
202.291	0.24
202.51	0
202.73	0.64
202.95	0.12
203.169	-0.1
203.389	0.25
203.608	0.2
203.828	-0.07
204.047	-0.03
204.267	0.02
204.486	0.03
204.706	0.36
204.925	0.44
205.145	0.03
205.364	0.84
205.583	1.17
205.803	-0.17
206.022	-0.59
206.242	0.38
206.461	-0.22
206.68	-0.14
206.9	0.2
207.119	0.44
207.338	0.57
207.557	-0.05
207.777	-0.06
207.996	0.01
208.215	0.77
208.434	-0.3
208.654	-0.21
208.873	0.28
209.092	0.55
209.311	0.27
209.53	0.14
209.749	0.05
209.968	-0.14
210.187	-0.13
210.407	-0.28
210.626	0.04
210.845	0.42
211.064	0.41
211.283	-0.13
211.502	0.31
211.721	0.32
211.94	-0.17
212.159	0.24
212.377	0.53
212.596	0.55
212.815	-0.1
213.034	0.11
213.253	0.35
213.472	0.4
213.691	0.1
213.91	-0.29
214.128	-0
214.347	0.49
214.566	-0.38
214.785	-0.26
215.003	0.35
215.222	0.12
215.441	-0.01
215.66	-0.06
215.878	-0
216.097	0.36
216.316	-0.17
216.534	0
216.753	0.03
216.972	0.06
217.19	0.01
217.409	-0.21
217.627	-0.31
217.846	-0.02
218.064	0.11
218.283	-0.01
218.501	0.56
218.72	0.26
218.938	-0.14
219.157	-0.11
219.375	0.3
219.594	0.28
219.812	-0.14
220.031	-0.03
220.249	0.47
220.467	0.3
220.686	0.04
220.904	-0.18
221.122	0.01
221.341	0.48
221.559	0.05
221.777	-0.04
221.995	0.29
222.214	0.05
222.432	-0.11
222.65	0.16
222.868	0.07
223.086	0.15
223.305	0.21
223.523	0.07
223.741	0.39
223.959	-0.1
224.177	-0.21
224.395	0.04
224.613	-0
224.831	0.19
225.049	0
225.267	-0.06
225.485	0.08
225.703	0.07
225.921	0.06
226.139	-0.09
226.357	0.16
226.575	0.05
226.793	-0.07
227.011	0.65
227.229	-0.01
227.447	0.18
227.665	0.05
227.883	-0.16
228.1	0.06
228.318	0.21
228.536	-0.14
228.754	-0.09
228.972	0.13
229.189	0.12
229.407	-0.02
229.625	-0.01
229.843	0.2
230.06	0.24
230.278	-0.02
230.496	0.11
230.713	0.09
230.931	0.26
231.149	0.01
231.366	-0.17
231.584	0.1
231.801	0.4
232.019	0.08
232.236	-0.04
232.454	-0.04
232.671	0.09
232.889	0.08
233.106	-0.09
233.324	0.04
233.541	-0.03
233.759	-0
233.976	-0.01
234.194	0.06
234.411	-0.02
234.628	-0.07
234.846	-0.04
235.063	0.07
235.28	-0.02
235.498	0.08
235.715	-0.03
235.932	0.2
236.149	-0.01
236.367	-0.05
236.584	0.05
236.801	0
237.018	0.11
237.236	0.14
237.453	-0.11
237.67	0.13
237.887	0.06
238.104	0.01
238.321	-0.15
238.538	0.03
238.755	0.07
238.973	-0.2
239.19	0.05
239.407	0.13
239.624	0.14
239.841	-0.08
240.058	-0.11
240.275	0.06
240.492	-0
240.709	0.01
240.925	0.01
241.142	0.07
241.359	-0.08
241.576	0
241.793	-0.02
242.01	0.03
242.227	0.18
242.444	0.11
242.66	0.21
242.877	0
243.094	-0.05
243.311	0.03
243.527	0.02
243.744	0.12
243.961	0.14
244.178	-0.06
244.394	-0.01
244.611	0.16
244.828	0.26
245.044	-0.04
245.261	0.04
245.477	0.04
245.694	0.05
245.911	-0.03
246.127	0.06
246.344	0.12
246.56	0.11
246.777	-0.09
246.993	0.14
247.21	0.08
247.426	0.09
247.643	0.01
247.859	0.04
248.076	0.04
248.292	0.23
248.508	0.09
248.725	0.21
248.941	0.05
249.157	0.15
249.374	-0.01
249.59	0.01
249.806	0.07
250.023	0.03
250.239	-0.02
250.455	-0.05
250.671	0.05
250.888	0.08
251.104	0.06
251.32	-0.04
251.536	0.06
251.752	-0.06
251.969	0.05
252.185	0.09
252.401	0.19
252.617	0.1
252.833	0
253.049	0.12
253.265	0.01
253.481	0.12
253.697	0.05
253.913	-0.04
254.129	0.03
254.345	0.04
254.561	-0.01
254.777	0.01
254.993	0.17
255.209	-0
255.425	-0.06
255.641	0
255.857	0.05
256.073	0.11
256.288	-0.11
256.504	0.01
256.72	-0.04
256.936	0.14
257.152	0.05
257.367	-0.04
257.583	0.1
257.799	0.03
258.015	-0.06
258.23	0.08
258.446	0.18
258.662	0.04
258.877	-0.01
259.093	-0.01
259.309	0.04
259.524	0.02
259.74	0.11
259.955	-0.09
260.171	-0.01
260.387	-0.04
260.602	0.06
260.818	0.11
261.033	-0.04
261.249	0
261.464	-0.03
261.68	-0.1
261.895	0.08
262.11	0.09
262.326	0.02
262.541	-0.06
262.757	0.06
262.972	0.02
263.187	-0
263.403	0.01
263.618	0.1
263.833	-0.03
264.049	-0.05
264.264	-0.01
264.479	0.08
264.694	0.1
264.91	-0.05
265.125	-0.03
265.34	0.1
265.555	0.2
265.77	0.05
265.986	-0.03
266.201	0.01
266.416	0.11
266.631	0.03
266.846	0.05
267.061	0.08
267.276	0.06
267.491	-0.12
267.706	0.05
267.921	0.04
268.136	-0.03
268.351	0
268.566	-0.03
268.781	0.09
268.996	0.09
269.211	0.05
269.426	-0.07
269.641	0
269.856	-0.02
270.071	0.01
270.285	-0.08
270.5	0.12
270.715	0.08
270.93	-0.04
271.145	0.03
271.359	0.06
271.574	0.02
271.789	0.01
272.004	-0.03
272.218	0.02
272.433	0.04
272.648	-0.01
272.862	0.11
273.077	0.05
273.292	0.06
273.506	-0.03
273.721	0.04
273.936	0.06
274.15	0.1
274.365	0.06
274.579	0.11
274.794	0.1
275.008	0.1
275.223	-0.01
275.437	0.04
275.652	0.09
275.866	0.01
276.081	0.07
276.295	0.12
276.509	0.01
276.724	0.02
276.938	0.05
277.153	0.06
277.367	0.1
277.581	-0.01
277.796	-0.04
278.01	-0.04
278.224	0.07
278.438	0.18
278.653	-0.03
278.867	-0.04
279.081	-0.14
279.295	0.01
279.51	0.07
279.724	-0.01
279.938	0.09
280.152	0.01
280.366	0.03
280.58	0.05
280.794	0.11
281.008	0.08
281.222	0.09
281.437	0.12
281.651	0.07
281.865	0.09
282.079	-0.01
282.293	-0.07
282.507	-0.03
282.721	-0.02
282.935	0.02
283.148	-0.04
283.362	-0.01
283.576	-0
283.79	0
284.004	-0.07
284.218	0.11
284.432	0
284.646	0.03
284.859	0.02
285.073	-0.02
285.287	-0.01
285.501	0.01
285.714	-0.02
285.928	0.04
286.142	0.04
286.356	-0.01
286.569	-0.01
286.783	0.12
286.997	0.03
287.21	0.08
287.424	0.04
287.637	0.01
287.851	0.04
288.065	0.04
288.278	0
288.492	0.07
288.705	0.02
288.919	0.06
289.132	-0.01
289.346	0.04
289.559	-0.04
289.773	-0.04
289.986	0.03
290.2	0.03
290.413	0.08
290.626	-0.03
290.84	0.01
291.053	0.02
291.267	0.1
291.48	0.01
291.693	0.05
291.906	-0.01
292.12	-0
292.333	0.03
292.546	0.02
292.76	0.1
292.973	0.02
293.186	0.11
293.399	-0.02
293.612	0.06
293.826	0.01
294.039	0.05
294.252	0.02
294.465	0.07
294.678	0.02
294.891	0.01
295.104	-0.03
295.317	0.02
295.53	0.05
295.743	0.02
295.956	0.02
296.169	0.07
296.382	0.06
296.595	0.04
296.808	0
297.021	0.1
297.234	0.06
297.447	-0.01
297.66	0.04
297.873	0.09
298.086	0.09
298.299	-0
298.511	-0.02
298.724	-0.03
298.937	-0.03
299.15	-0
299.363	0.05
299.575	0.05
299.788	0.04
300.001	-0.01
300.213	-0.03
300.426	0.04
300.639	0.03
300.852	0
301.064	0.03
301.277	0.07
301.489	0.09
301.702	0.08
301.915	0
302.127	0.02
302.34	0.05
302.552	0.05
302.765	-0
302.977	0.02
303.19	-0.01
303.402	0.04
303.615	0.03
303.827	0.02
304.04	0.01
304.252	0.03
304.464	-0.06
304.677	0.1
304.889	0.09
305.102	-0.01
305.314	-0
305.526	0.06
305.739	0.03
305.951	-0.02
306.163	0.06
306.375	0.05
306.588	-0.01
306.8	0
307.012	-0.04
307.224	0.03
307.436	0.1
307.649	-0.06
307.861	0.05
308.073	0.07
308.285	-0.02
308.497	-0
308.709	-0.01
308.921	0.01
309.133	0.09
309.346	-0
309.558	0.03
309.77	0.08
309.982	0.06
310.194	0.02
310.406	0.04
310.617	0.1
310.829	0.03
311.041	0.05
311.253	-0.02
311.465	-0.01
311.677	0.03
311.889	0.03
312.101	0
312.313	0.08
312.524	0.05
312.736	-0.03
312.948	0
313.16	0.13
313.372	0.06
313.583	0.07
313.795	0.01
314.007	0.02
314.218	0.06
314.43	-0.01
314.642	-0.02
314.853	-0.01
315.065	0.03
315.277	-0
315.488	0.03
315.7	0.06
315.912	0.03
316.123	-0.01
316.335	0.01
316.546	0.08
316.758	0.02
316.969	0
317.181	-0.02
317.392	0.02
317.604	0.09
317.815	-0.02
318.026	-0.02
318.238	0.01
318.449	0.02
318.661	-0.01
318.872	-0.02
319.083	-0.03
319.295	0.05
319.506	-0.01
319.717	0.04
319.929	0.05
320.14	0.01
320.351	0.01
320.562	0.01
320.774	-0.01
320.985	0.06
321.196	-0.02
321.407	-0.01
321.618	0.04
321.829	0.04
322.041	0
322.252	0.02
322.463	0.05
322.674	0.05
322.885	-0.01
323.096	-0.01
323.307	0
323.518	0.04
323.729	-0.03
323.94	0.03
324.151	-0.01
324.362	0.01
324.573	0.03
324.784	-0.02
324.995	0.05
325.206	0.03
325.417	-0.02
325.628	0
325.838	0.01
326.049	0.05
326.26	0.05
326.471	0.01
326.682	0.02
326.892	0.04
327.103	-0.01
327.314	-0.03
327.525	0.04
327.735	0.04
327.946	-0.02
328.157	-0.01
328.368	0.04
328.578	-0.02
328.789	0.04
328.999	0.05
329.21	-0
329.421	0.03
329.631	-0.01
329.842	-0.01
330.052	0.03
330.263	0.04
330.473	0.04
330.684	0.01
330.894	0.02
331.105	0.02
331.315	-0.01
331.526	-0.03
331.736	0.1
331.947	0.04
332.157	0.04
332.367	-0.03
332.578	0.06
332.788	0.07
332.999	0.04
333.209	0.05
333.419	-0.02
333.629	0.04
333.84	0.04
334.05	0.03
334.26	0.07
334.47	0.01
334.681	0.04
334.891	0
335.101	0.07
335.311	0.08
335.521	0.05
335.732	-0.03
335.942	0.06
336.152	0.05
336.362	0.03
336.572	0.01
336.782	0.01
336.992	0.02
337.202	-0.01
337.412	-0
337.622	0.03
337.832	0.01
338.042	0.03
338.252	-0.01
338.462	0.01
338.672	0.04
338.882	0.02
339.092	-0.04
339.302	0.08
339.511	0.03
339.721	-0.04
339.931	-0.01
340.141	0.07
340.351	0.07
340.561	0.07
340.77	0.05
340.98	0.01
341.19	0.05
341.4	-0
341.609	-0.02
341.819	0.06
342.029	-0.03
342.238	0.02
342.448	0.03
342.658	0.02
342.867	0.07
343.077	-0
343.286	0.04
343.496	-0
343.706	0.05
343.915	-0
344.125	0.01
344.334	0.04
344.544	-0.04
344.753	-0.03
344.963	-0.01
345.172	-0.02
345.381	-0.02
345.591	0.02
345.8	0.08
346.01	0.06
346.219	0.03
346.428	-0.1
346.638	0
346.847	-0
347.056	0.08
347.266	-0.01
347.475	-0
347.684	0.01
347.893	0.05
348.103	0.02
348.312	0.04
348.521	-0.01
348.73	0.03
348.94	0.04
349.149	0.02
349.358	0.01
349.567	0.02
349.776	-0.03
349.985	0.01
350.194	0.12
350.403	0.07
350.612	-0.08
350.821	0.02
351.03	0.06
351.239	-0.04
351.448	0.02
351.657	-0.04
351.866	0.09
352.075	-0.01
352.284	0.03
352.493	-0.03
352.702	0.07
352.911	0.05
353.12	-0.01
353.329	-0.01
353.538	0.06
353.746	0.03
353.955	-0
354.164	0.04
354.373	0.01
354.582	0.05
354.79	0.06
354.999	0.07
355.208	0.02
355.416	0.05
355.625	-0.03
355.834	0.01
356.042	0.06
356.251	0.01
356.46	0.01
356.668	0.04
356.877	0.14
357.085	0.04
357.294	-0.06
357.503	0.05
357.711	0.01
357.92	0.11
358.128	0.02
358.337	0.03
358.545	0.01
358.754	-0
358.962	0.06
359.17	0.02
359.379	0.05
359.587	0.08
359.796	-0.01
360.004	0.06
360.212	0.06
360.421	0.03
360.629	-0.02
360.837	-0.03
361.046	0.04
361.254	0.1
361.462	0
361.67	-0.02
361.879	0.03
362.087	0.12
362.295	0.04
362.503	0.02
362.711	-0.04
362.92	-0.03
363.128	-0.06
363.336	0
363.544	-0.04
363.752	0
363.96	-0
364.168	0
364.376	0.02
364.584	0
364.792	0.05
365	0.04
365.208	0.02
365.416	0.03
365.624	0.03
365.832	-0.02
366.04	0.07
366.248	0
366.456	0.05
366.664	0.05
366.872	0.02
367.079	0.01
367.287	0.04
367.495	0.02
367.703	-0.02
367.911	-0.01
368.118	0.02
368.326	0.01
368.534	-0.03
368.742	0.07
368.949	-0.02
369.157	-0.02
369.365	0.06
369.572	-0.03
369.78	-0.01
369.988	0.09
370.195	0.05
370.403	0.02
370.61	-0.03
370.818	0.02
371.026	0.08
371.233	0.01
371.441	0.03
371.648	-0
371.856	0.03
372.063	-0.01
372.271	-0.01
372.478	0.03
372.685	-0.02
372.893	0.07
373.1	-0.03
373.308	-0.05
373.515	0.09
373.722	0.05
373.93	0.03
374.137	0.06
374.344	0.14
374.552	0.07
374.759	0.03
374.966	0.03
375.173	0.02
375.381	0.08
375.588	0.01
375.795	-0.09
376.002	-0.02
376.209	-0.02
376.417	0.02
376.624	0.04
376.831	0.05
377.038	-0.01
377.245	-0.05
377.452	0.03
377.659	0.03
377.866	-0.06
378.073	0.02
378.28	0.02
378.487	-0.02
378.694	0.05
378.901	-0
379.108	0.01
379.315	0.04
379.522	0.11
379.729	-0
379.936	0.02
380.143	0.02
380.35	0.06
380.557	0
380.763	-0.01
380.97	-0.01
381.177	0.08
381.384	-0.01
381.591	-0.04
381.797	-0
382.004	0.05
382.211	0.02
382.418	-0.06
382.624	0.05
382.831	0.04
383.038	0.02
383.244	0.03
383.451	0.04
383.658	0.06
383.864	-0.01
384.071	-0.03
384.277	0.1
384.484	-0.03
384.69	0.06
384.897	0.03
385.103	0.01
385.31	-0.01
385.516	-0
385.723	-0.01
385.929	-0.01
386.136	-0.01
386.342	0.04
386.549	-0.01
386.755	0.06
386.961	0.03
387.168	-0.01
387.374	0.04
387.58	0.05
387.787	0.01
387.993	0.01
388.199	0
388.406	-0.03
388.612	-0.03
388.818	0.03
389.024	-0.02
389.231	0.05
389.437	0.13
389.643	0.06
389.849	0.02
390.055	0.01
390.261	0.01
390.467	0.02
390.674	-0.04
390.88	0.04
391.086	0.06
391.292	-0.02
391.498	-0.01
391.704	0.03
391.91	0.03
392.116	-0.03
392.322	-0.06
392.528	0.01
392.734	-0.02
392.94	-0.04
393.146	0.01
393.352	0
393.557	0.05
393.763	0.01
393.969	0.01
394.175	0
394.381	0
394.587	-0.02
394.792	-0.01
394.998	0.05
395.204	0.13
395.41	-0.02
395.615	0.07
395.821	0.04
396.027	-0.01
396.233	-0.03
396.438	0.07
396.644	0.07
396.85	0.05
397.055	0
397.261	0.06
397.466	0
397.672	0.02
397.878	0.03
398.083	0.06
398.289	0.01
398.494	0.03
398.7	0.01
398.905	-0.04
399.111	0.06
399.316	-0.02
399.522	0.05
399.727	0.03
399.932	-0.01
400.138	0.02
400.343	0.07
400.549	0.03
400.754	0
400.959	0.04
401.165	-0
401.37	0.06
401.575	0.06
401.78	0.05
401.986	0.02
402.191	0.01
402.396	-0.01
402.601	0.05
402.807	-0.02
403.012	0.04
403.217	0.06
403.422	0.01
403.627	0.04
403.832	0
404.037	0.04
404.243	0.07
404.448	0.01
404.653	-0
404.858	0.04
405.063	0.07
405.268	0.01
405.473	-0.01
405.678	-0.01
405.883	0.17
406.088	0.09
406.293	-0.06
406.498	0.02
406.703	0.03
406.907	0.03
407.112	-0.01
407.317	0.01
407.522	0.04
407.727	-0.08
407.932	-0
408.136	0.09
408.341	-0
408.546	0.01
408.751	0.02
408.956	0.04
409.16	0.04
409.365	-0.01
409.57	-0.03
409.774	0.01
409.979	0.04
410.184	0.01
410.388	-0.03
410.593	0.08
410.798	0.01
411.002	0.02
411.207	0.03
411.411	0.05
411.616	0.01
411.82	0.05
412.025	0.08
412.229	-0.01
412.434	0.05
412.638	0.04
412.843	-0.01
413.047	0.03
413.252	-0.04
413.456	0.02
413.66	0.07
413.865	-0
414.069	0.07
414.273	-0.01
414.478	0
414.682	-0.05
414.886	0.01
415.091	-0.05
415.295	-0.07
415.499	0.04
415.703	-0.01
415.908	0.04
416.112	-0.07
416.316	0.05
416.52	-0.06
416.724	-0.06
416.929	-0
417.133	0.1
417.337	0.04
417.541	-0.02
417.745	-0
417.949	0.05
418.153	-0.03
418.357	-0.06
418.561	0.11
418.765	0.01
418.969	0.05
419.173	0.05
419.377	0.01
419.581	0.09
419.785	-0.01
419.989	-0.08
420.193	0.01
420.397	-0.01
420.601	0.06
420.804	0.06
421.008	0.01
421.212	0.01
421.416	0.05
421.62	-0.03
421.823	-0
422.027	0.1
422.231	0.06
422.435	0.03
422.638	0.03
422.842	-0.03
423.046	-0.05
423.249	0.06
423.453	0.06
423.657	0.07
423.86	-0.02
424.064	0.01
424.268	0.07
424.471	0
424.675	0.13
424.878	0.04
425.082	-0.01
425.285	0.09
425.489	-0.02
425.692	-0.01
425.896	-0.03
426.099	0.03
426.303	-0.04
426.506	0.01
426.71	0.02
426.913	0.06
427.116	0.07
427.32	0
427.523	0.04
427.726	0.14
427.93	-0.04
428.133	-0.01
428.336	-0.04
428.54	0.02
428.743	-0.01
428.946	0.08
429.149	0.02
429.353	0.01
429.556	0.01
429.759	0.03
429.962	-0.09
430.165	0.02
430.368	0.03
430.571	-0.06
430.775	0.06
430.978	-0.01
431.181	0.02
431.384	0.01
431.587	0.01
431.79	0.02
431.993	-0.01
432.196	0.01
432.399	-0
432.602	0.06
432.805	-0
433.008	0.01
433.211	-0.03
433.414	0.01
433.616	0.05
433.819	-0.03
434.022	-0.05
434.225	0.1
434.428	0.04
434.631	0.13
434.833	-0.02
435.036	-0.01
435.239	0.07
435.442	0.03
435.645	-0.01
435.847	0.04
436.05	0.05
436.253	0.01
436.455	-0.08
436.658	0.01
436.861	0.07
437.063	0.01
437.266	-0.02
437.468	0.02
437.671	0.15
437.874	-0.03
438.076	-0.04
438.279	-0.1
438.481	0.02
438.684	-0.01
438.886	0.06
439.089	-0.09
439.291	-0.05
439.494	0.01
439.696	-0.02
439.899	0.02
440.101	0.03
440.303	-0.06
440.506	0.04
440.708	0.01
440.91	0.06
441.113	0
441.315	0.04
441.517	-0.08
441.72	0.06
441.922	-0.09
442.124	-0
442.326	0.02
442.529	0.08
442.731	-0.01
442.933	0.05
443.135	0.02
443.337	-0.02
443.539	-0.04
443.742	-0.04
443.944	0.06
444.146	-0.01
444.348	0
444.55	0
444.752	-0.03
444.954	-0.03
445.156	0.02
445.358	-0.05
445.56	0.05
445.762	0.01
445.964	0.01
446.166	-0.02
446.368	-0.03
446.57	0
446.772	-0.04
446.974	-0.02
447.175	0.03
447.377	-0.05
447.579	0.03
447.781	-0.09
447.983	0.09
448.184	-0.02
448.386	0.04
448.588	-0.03
448.79	0.07
448.991	-0.04
449.193	-0.03
449.395	0
449.597	0.05
449.798	0.01
450	0.07
450.202	0.05
450.403	0.01
450.605	0.01
450.806	0.01
451.008	-0.03
451.21	0.08
451.411	-0
451.613	-0.03
451.814	-0.03
452.016	0.07
452.217	0.03
452.419	0.08
452.62	-0.02
452.821	0.03
453.023	0.05
453.224	0.04
453.426	0.01
453.627	0.02
453.828	0.02
454.03	-0.02
454.231	0.05
454.432	-0.02
454.634	0.09
454.835	-0.03
455.036	-0.01
455.238	0.05
455.439	0.04
455.64	-0.07
455.841	-0.01
456.042	0.1
456.244	0
456.445	-0.04
456.646	-0.03
456.847	-0.01
457.048	0.08
457.249	0.04
457.45	0.2
457.651	-0.01
457.852	0.05
458.054	0.02
458.255	0.01
458.456	0.03
458.657	0.02
458.858	-0.06
459.058	0.01
459.259	0.07
459.46	0.01
459.661	0.02
459.862	0.15
460.063	0.04
460.264	0.07
460.465	-0.05
460.666	0.09
460.866	-0.01
461.067	0.02
461.268	0.02
461.469	0
461.67	0.02
461.87	-0.01
462.071	0
462.272	-0.01
462.473	0.04
462.673	0.03
462.874	-0.03
463.075	0.05
463.275	-0.04
463.476	0.02
463.676	0.01
463.877	-0
464.078	-0.02
464.278	0.04
464.479	-0.03
464.679	0.04
464.88	-0.03
465.08	0.09
465.281	-0.07
465.481	-0.02
465.682	-0.01
465.882	0.01
466.083	0.03
466.283	-0
466.483	0.01
466.684	-0.04
466.884	-0.02
467.085	-0.02
467.285	0.03
467.485	0
467.686	0.04
467.886	0.01
468.086	0.01
468.286	-0
468.487	0.01
468.687	-0.07
468.887	-0.01
469.087	0.07
469.287	-0
469.488	-0.02
469.688	0.04
469.888	0.02
470.088	0.06
470.288	0.1
470.488	0.04
470.688	-0.05
470.888	-0.03
471.088	0.01
471.288	0.03
471.488	0.04
471.688	0.03
471.888	-0.03
472.088	0.03
472.288	0.03
472.488	-0.04
472.688	-0.02
472.888	-0.01
473.088	0.02
473.288	0.03
473.488	0.01
473.688	0.07
473.887	0.02
474.087	-0.01
474.287	0.02
474.487	-0.03
474.687	0.02
474.886	-0
475.086	0.01
475.286	0
475.486	0.02
475.685	0.03
475.885	-0.02
476.085	0.01
476.284	0.05
476.484	-0.02
476.684	0.05
476.883	0.05
477.083	0
477.282	-0.01
477.482	0.03
477.681	0.03
477.881	0
478.08	-0.04
478.28	-0
478.479	0.03
478.679	0.08
478.878	0.01
479.078	-0.02
479.277	0
479.477	0.01
479.676	0.04
479.875	0.06
480.075	-0.02
480.274	0
480.473	0.02
480.673	-0.02
480.872	0.05
481.071	0.01
481.271	0.03
481.47	-0.02
481.669	0.01
481.868	-0.03
482.067	-0.03
482.267	-0.02
482.466	-0.02
482.665	-0.03
482.864	-0
483.063	-0.03
483.262	0.03
483.461	0.05
483.661	0.03
483.86	-0.02
484.059	0
484.258	-0
484.457	-0.01
484.656	0.01
484.855	0.05
485.054	-0.04
485.253	-0.02
485.452	-0.05
485.651	0.01
485.849	0.05
486.048	-0.02
486.247	-0.03
486.446	0.02
486.645	-0.02
486.844	-0.04
487.043	-0.01
487.241	0.04
487.44	-0.05
487.639	-0
487.838	0.02
488.037	0.01
488.235	0.03
488.434	0.01
488.633	-0.01
488.831	0
489.03	0.04
489.229	0.03
489.427	0.01
489.626	0.06
489.825	0.05
490.023	-0.01
490.222	0.01
490.42	0.03
490.619	0.02
490.817	0.01
491.016	-0.02
491.214	0.03
491.413	-0.03
491.611	0.01
491.81	-0.01
492.008	0.04
492.207	-0.01
492.405	-0.01
492.604	-0.03
492.802	0.02
493	0.01
493.199	-0.01
493.397	0.03
493.595	0.02
493.794	0.01
493.992	0.06
494.19	-0
494.388	0.02
494.587	-0.02
494.785	-0.02
494.983	-0.04
495.181	0.01
495.379	-0.02
495.578	0.01
495.776	0.02
495.974	0.04
496.172	-0.01
496.37	-0.02
496.568	-0.03
496.766	-0.01
496.964	0.04
497.162	0.04
497.36	-0.03
497.558	0.03
497.756	0.04
497.954	-0.01
498.152	-0.01
498.35	-0
498.548	-0.01
498.746	-0.01
498.944	-0.02
499.142	-0.01
499.34	-0.03
499.538	-0
499.736	-0.02
499.933	0.05
500.131	0.03
500.329	-0
500.527	0.01
500.725	0.02
500.922	0.03
501.12	0.01
501.318	0.02
501.516	-0.02
501.713	0.02
501.911	-0.01
502.109	-0.02
502.306	0.02
502.504	-0.01
502.701	0
502.899	-0.01
503.097	0.06
503.294	-0.02
503.492	0
503.689	0.01
503.887	0
504.084	0.05
504.282	0.02
504.479	-0.02
504.677	0.01
504.874	-0.01
505.072	0.01
505.269	0
505.466	0.03
505.664	0
505.861	-0.02
506.059	-0.04
506.256	0.02
506.453	-0.02
506.651	0.05
506.848	0.04
507.045	0.03
507.242	-0.01
507.44	-0.02
507.637	-0
507.834	-0.01
508.031	0.02
508.229	-0.01
508.426	0.01
508.623	0.01
508.82	-0.01
509.017	-0.03
509.214	0
509.411	0
509.608	-0.04
509.805	-0.01
510.003	-0.01
510.2	0
510.397	0.01
510.594	-0.02
510.791	-0.02
510.988	-0.01
511.184	0.03
511.381	0
511.578	-0.02
511.775	0.03
511.972	-0.02
512.169	0.01
512.366	-0
512.563	0.02
512.76	-0.02
512.956	0
513.153	-0
513.35	0.01
513.547	-0.02
513.744	-0.02
513.94	-0.03
514.137	0.01
514.334	0.01
514.53	0.03
514.727	0
514.924	0.03
515.12	-0.02
515.317	-0.03
515.514	-0
515.71	-0.02
515.907	-0.01
516.103	-0.01
516.3	0.02
516.497	0.03
516.693	0.02
516.89	-0
517.086	-0.02
517.283	0.04
517.479	-0.01
517.676	-0.01
517.872	0
518.068	-0.01
518.265	0.01
518.461	-0.01
518.658	-0.02
518.854	-0
519.05	0
519.247	-0.01
519.443	0.02
519.639	0.01
519.836	0.01
520.032	0
520.228	0
520.424	0.02
520.621	-0.01
520.817	0.01
521.013	0.01
521.209	0.01
521.405	0.05
521.601	0.02
521.798	0.03
521.994	0.04
522.19	-0.01
522.386	-0.02
522.582	-0.01
522.778	0.02
522.974	-0
523.17	-0
523.366	0
523.562	0.04
523.758	0.01
523.954	-0
524.15	-0.01
524.346	-0.03
524.542	-0.02
524.738	-0.01
524.934	0
525.129	-0.06
525.325	0
525.521	-0.01
525.717	0.03
525.913	0.01
526.109	0
526.304	0.01
526.5	0.01
526.696	0.02
526.892	0.03
527.087	0
527.283	-0.03
527.479	0.01
527.674	0
527.87	0.01
528.066	-0.02
528.261	0.02
528.457	0.03
528.653	0.01
528.848	-0.01
529.044	-0
529.239	-0
529.435	0.03
529.63	0.04
529.826	0.05
530.021	0.01
530.217	0.02
530.412	-0.02
530.608	-0.02
530.803	0.01
530.999	-0.01
531.194	-0.04
531.389	0.03
531.585	-0.04
531.78	-0
531.975	0.02
532.171	0.02
532.366	-0.01
532.561	0.01
532.757	-0
532.952	-0.01
533.147	0.02
533.342	0
533.538	-0.02
533.733	0.02
533.928	0.01
534.123	-0.02
534.318	-0.03
534.513	0
534.709	0.01
534.904	-0.02
535.099	0
535.294	0
535.489	0
535.684	-0
535.879	-0.02
536.074	0.02
536.269	-0.02
536.464	0.01
536.659	-0.01
536.854	0.01
537.049	0.02
537.244	0
537.439	0.01
537.634	0.03
537.828	0.01
538.023	-0
538.218	-0.04
538.413	-0.01
538.608	-0.03
538.803	0
538.997	-0.01
539.192	0.01
539.387	0.02
539.582	-0
539.776	0.01
539.971	-0.01
540.166	-0
540.36	-0.04
540.555	-0.01
540.75	-0.01
540.944	0
541.139	-0.02
541.334	-0.02
541.528	0.01
541.723	0.03
541.917	-0.01
542.112	-0.04
542.306	-0
542.501	-0.01
542.695	0
542.89	-0.02
543.084	0
543.279	-0
543.473	0.01
543.668	-0.01
543.862	-0
544.056	0.01
544.251	-0.01
544.445	0.01
544.64	-0.01
544.834	-0.01
545.028	0.02
545.222	0.02
545.417	0.04
545.611	-0
545.805	-0
546	0.01
546.194	-0.01
546.388	0.01
546.582	0.02
546.776	0.01
546.97	0
547.165	0.01
547.359	0.03
547.553	-0.03
547.747	0.01
547.941	0.01
548.135	-0.01
548.329	0.01
548.523	0.01
548.717	0
548.911	-0.02
549.105	0
549.299	0.02
549.493	0.02
549.687	0
549.881	0.01
550.075	-0.01
550.269	-0.02
550.463	0.02
550.657	-0
550.85	-0.01
551.044	-0.03
551.238	0.01
551.432	-0
551.626	-0.02
551.82	0.01
552.013	-0.01
552.207	0.03
552.401	0.02
552.594	-0.01
552.788	-0
552.982	0.01
553.176	-0.02
553.369	0.01
553.563	-0.01
553.756	-0.05
553.95	-0.04
554.144	-0.02
554.337	0
554.531	0.02
554.724	0
554.918	0
555.111	-0.01
555.305	0.01
555.498	0.06
555.692	0.01
555.885	0.01
556.079	0.01
556.272	-0
556.466	0.02
556.659	0.02
556.852	-0.01
557.046	0.01
557.239	0.02
557.432	-0.03
557.626	-0.02
557.819	-0
558.012	0.02
558.206	-0
558.399	-0
558.592	0.02
558.785	-0
558.979	0.01
559.172	0.01
559.365	0.02
559.558	0.01
559.751	-0.01
559.944	0
560.138	0
560.331	0.01
560.524	-0
560.717	0
560.91	0
561.103	0.04
561.296	0.01
561.489	0.02
561.682	0.02
561.875	0.02
562.068	0.02
562.261	0.02
562.454	0.04
562.647	0.01
562.84	0.02
563.032	-0.02
563.225	0.01
563.418	-0.02
563.611	-0.02
563.804	-0
563.997	-0.02
564.19	-0.03
564.382	-0.05
564.575	0.01
564.768	-0
564.961	-0
565.153	-0.02
565.346	0.03
565.539	0.03
565.731	0.03
565.924	0.03
566.117	0.03
566.309	0.01
566.502	-0.01
566.695	0
566.887	0.01
567.08	-0.01
567.272	-0.02
567.465	0.01
567.657	0.01
567.85	0
568.042	0.01
568.235	0.06
568.427	0.01
568.62	-0.01
568.812	0.02
569.005	0.03
569.197	-0.02
569.389	-0.01
569.582	0.01
569.774	0.01
569.966	-0.03
570.159	-0.01
570.351	0.01
570.543	-0.03
570.736	0
570.928	-0.03
571.12	0.02
571.312	-0.01
571.505	-0.01
571.697	0.03
571.889	-0.01
572.081	0.01
572.273	-0.04
572.465	0.03
572.658	-0.01
572.85	-0
573.042	-0.01
573.234	0.02
573.426	0.03
573.618	-0.01
573.81	0.03
574.002	0.02
574.194	0.04
574.386	-0.04
574.578	-0.05
574.77	-0.01
574.962	0.01
575.154	-0.04
575.346	-0.01
575.538	0
575.729	-0.04
575.921	-0.03
576.113	-0.01
576.305	0.02
576.497	-0.01
576.689	-0.01
576.88	0.01
577.072	0.01
577.264	-0.02
577.456	-0.03
577.647	-0.08
577.839	-0.01
578.031	0.01
578.223	-0.05
578.414	-0.04
578.606	0.03
578.798	0.03
578.989	-0.03
579.181	0
579.372	0.01
579.564	-0.01
579.755	0.01
579.947	0.03
580.139	0.03
580.33	-0.04
580.522	-0.04
580.713	-0.06
580.905	0.01
581.096	0.03
581.287	0.01
581.479	-0.01
581.67	0.02
581.862	-0.01
582.053	-0
582.244	-0.03
582.436	-0.01
582.627	0.01
582.818	-0
583.01	-0.04
583.201	0.04
583.392	0.02
583.583	0.01
583.775	-0.02
583.966	-0.01
584.157	-0.02
584.348	-0.02
584.54	-0.04
584.731	0.01
584.922	0
585.113	-0.01
585.304	0.02
585.495	0.01
585.686	0.02
585.877	0.01
586.068	0.03
586.259	0.01
586.45	0.04
586.641	-0.01
586.832	-0.05
587.023	0.01
587.214	0.02
587.405	0.01
587.596	-0.02
587.787	0.03
587.978	0.01
588.169	-0.02
588.36	-0
588.551	-0.01
588.742	-0.04
588.932	0.02
589.123	-0.01
589.314	0.03
589.505	0
589.696	0.03
589.886	-0.03
590.077	-0.03
590.268	0.01
590.458	-0.03
590.649	-0.04
590.84	0.04
591.03	-0.04
591.221	-0.03
591.412	-0.05
591.602	0.01
591.793	0.03
591.984	-0.03
592.174	-0.01
592.365	0.07
592.555	-0.01
592.746	0.01
592.936	-0
593.127	0.02
593.317	0.03
593.508	-0.02
593.698	-0.01
593.889	-0.01
594.079	-0.01
594.269	-0.02
594.46	0
594.65	-0
594.84	-0
595.031	-0.04
595.221	-0
595.411	-0.03
595.602	0
595.792	0.01
595.982	-0.04
596.172	0.04
596.363	0.02
596.553	0
596.743	0.02
596.933	0.02
597.123	0.02
597.314	-0.01
597.504	-0.02
597.694	0.04
597.884	-0
598.074	-0.02
598.264	-0.01
598.454	0
598.644	-0.01
598.834	0.02
599.024	-0.02
599.214	-0.03
599.404	0.02
599.594	-0.02
599.784	-0.04
599.974	0.04
600.164	0.01
600.354	-0.04
600.544	-0.03
600.734	0.01
600.924	0.05
601.114	-0.03
601.303	-0.03
601.493	0.01
601.683	-0.01
601.873	0.02
602.063	-0.06
602.252	0.04
602.442	-0.04
602.632	-0.04
602.821	-0.03
603.011	0.02
603.201	-0.01
603.39	-0.02
603.58	-0.04
603.77	0.01
603.959	0.02
604.149	0
604.339	0
604.528	0.05
604.718	0.01
604.907	-0.01
605.097	0.01
605.286	-0.05
605.476	0
605.665	0.02
605.855	-0.01
606.044	0.03
606.234	0.01
606.423	-0.02
606.612	-0.05
606.802	0
606.991	0.03
607.181	-0.02
607.37	-0.05
607.559	0
607.749	-0.04
607.938	0
608.127	0.01
608.316	0.01
608.506	0.01
608.695	-0
608.884	-0.03
609.073	0
609.263	-0.02
609.452	0.03
609.641	0.01
609.83	0
610.019	-0.01
610.208	-0.02
610.397	-0
610.586	0.05
610.775	-0.04
610.965	-0.03
611.154	-0
611.343	-0.02
611.532	-0
611.721	-0
611.91	-0.01
612.099	0.02
612.287	0.01
612.476	-0.02
612.665	0.02
612.854	-0.03
613.043	0.03
613.232	-0.02
613.421	-0.04
613.61	0.03
613.798	-0.03
613.987	0.03
614.176	-0.01
614.365	0.02
614.554	0.02
614.742	0.04
614.931	-0.04
615.12	0.04
615.309	-0.02
615.497	0.01
615.686	0.01
615.875	-0.01
616.063	0.01
616.252	-0
616.44	0
616.629	-0
616.818	0.04
617.006	0.01
617.195	0.01
617.383	0.02
617.572	0.01
617.76	-0.02
617.949	-0.02
618.137	0.01
618.326	0.02
618.514	-0.02
618.703	-0.02
618.891	0.06
619.079	-0.05
619.268	0.01
619.456	-0.01
619.644	0.02
619.833	-0.01
620.021	-0.05
620.209	-0.03
620.398	0.02
620.586	0
620.774	0.02
620.962	-0.01
621.151	0.05
621.339	-0.02
621.527	-0.03
621.715	-0.02
621.903	-0.04
622.092	-0.01
622.28	0.03
622.468	0.01
622.656	0
622.844	0.01
623.032	-0.02
623.22	-0.07
623.408	0.01
623.596	0.01
623.784	0.03
623.972	-0.03
624.16	0.01
624.348	0.06
624.536	-0.04
624.724	-0.03
624.912	0.03
625.1	0.01
625.288	-0.02
625.476	-0.03
625.664	0.03
625.851	-0.02
626.039	-0
626.227	-0.01
626.415	-0.01
626.603	-0.06
626.79	0.04
626.978	-0.01
627.166	0.03
627.354	-0.01
627.541	-0.02
627.729	-0.03
627.917	0.01
628.104	0
628.292	0.03
628.48	0.02
628.667	0.01
628.855	0.01
629.042	0
629.23	-0.01
629.418	0.01
629.605	-0.04
629.793	0
629.98	-0.01
630.168	0.02
630.355	-0
630.543	-0
630.73	-0.04
630.917	0
631.105	0.07
631.292	-0.02
631.48	-0.01
631.667	0.07
631.854	0.04
632.042	-0
632.229	-0.06
632.416	0.02
632.604	0.01
632.791	-0.04
632.978	0.03
633.165	-0.01
633.353	0.07
633.54	0.02
633.727	-0.05
633.914	-0.03
634.101	0.02
634.289	0.02
634.476	-0.03
634.663	-0.02
634.85	0.04
635.037	-0.02
635.224	-0.04
635.411	0.04
635.598	0.04
635.785	-0.01
635.972	0
636.159	0.03
636.346	-0.01
636.533	-0.01
636.72	-0.02
636.907	-0
637.094	0.04
637.281	0.01
637.468	0
637.655	0.01
637.842	0
638.029	-0.01
638.215	0.04
638.402	0
638.589	-0.01
638.776	-0.04
638.963	-0.03
639.149	0.02
639.336	0.06
639.523	-0.01
639.709	0.04
639.896	-0.01
640.083	0.07
640.27	0.03
640.456	-0.02
640.643	-0.01
640.829	-0.03
641.016	0.01
641.203	-0.03
641.389	0.02
641.576	0.03
641.762	0.01
641.949	-0.03
642.135	0.02
642.322	0.03
642.508	-0.04
642.695	-0.01
642.881	-0.02
643.068	-0.01
643.254	-0
643.441	0.06
643.627	-0.02
643.813	-0.01
644	0.05
644.186	-0.03
644.372	-0.05
644.559	0.03
644.745	0.01
644.931	-0.03
645.118	0
645.304	0.01
645.49	0.01
645.676	0.03
645.862	0.04
646.049	0.07
646.235	0
646.421	0.06
646.607	0.1
646.793	-0.01
646.979	-0.03
647.165	0.03
647.352	0.03
647.538	0.03
647.724	0.03
647.91	0.03
648.096	0.04
648.282	0.02
648.468	0.02
648.654	0.01
648.84	0
649.026	0.01
649.212	-0
649.397	-0.05
649.583	0
649.769	0.02
649.955	0.01
650.141	0.01
650.327	0.09
650.513	0.01
650.698	0.02
650.884	-0.06
651.07	0.02
651.256	0.03
651.442	-0.01
651.627	0.01
651.813	0.03
651.999	0.01
652.184	0.04
652.37	-0.02
652.556	-0.01
652.741	0.03
652.927	-0.06
653.113	0.01
653.298	0.01
653.484	0.02
653.669	-0.05
653.855	-0.01
654.04	-0
654.226	0.04
654.412	0
654.597	0
654.782	0.03
654.968	0.05
655.153	0.02
655.339	-0.03
655.524	-0.03
655.71	0.09
655.895	-0.01
656.08	0
656.266	0.06
656.451	0.03
656.636	-0.03
656.822	0.02
657.007	-0
657.192	0.04
657.378	0
657.563	0.05
657.748	0.01
657.933	0.03
658.118	0
658.304	-0.01
658.489	0.05
658.674	0.01
658.859	0
659.044	0.01
659.229	0.02
659.414	-0.01
659.599	0
659.785	-0.05
659.97	-0
660.155	0.04
660.34	0.01
660.525	0.01
660.71	0.03
660.895	0.05
661.08	0.01
661.264	0
661.449	0.07
661.634	0.04
661.819	0.07
662.004	0.05
662.189	-0.01
662.374	0
662.559	-0.02
662.743	0.01
662.928	-0
663.113	-0.01
663.298	-0.08
663.483	0.01
663.667	0.05
663.852	-0
664.037	0.08
664.221	-0
664.406	0.05
664.591	0.05
664.775	0.02
664.96	0.05
665.145	0.05
665.329	0.05
665.514	0.02
665.698	0.02
665.883	-0.06
666.068	0.07
666.252	0.06
666.437	-0.01
666.621	0.02
666.806	0.04
666.99	0.01
667.174	-0.01
667.359	0.1
667.543	0.02
667.728	0.01
667.912	-0.02
668.096	0.07
668.281	0.03
668.465	0.05
668.649	0.01
668.834	0.01
669.018	0.02
669.202	0.01
669.387	-0.02
669.571	0.09
669.755	0.03
669.939	0.05
670.124	0.08
670.308	0.08
670.492	0.07
670.676	0.03
670.86	0.04
671.044	0.03
671.228	0.08
671.413	0.02
671.597	0.02
671.781	0.02
671.965	0.04
672.149	0.04
672.333	0.03
672.517	0.03
672.701	0.1
672.885	0.03
673.069	0.01
673.253	0.07
673.437	0.08
673.621	0.02
673.804	0.02
673.988	0.08
674.172	0.09
674.356	0
674.54	0.02
674.724	0.13
674.908	0.09
675.091	0.1
675.275	0.06
675.459	0.1
675.643	0.08
675.826	0.09
676.01	0.08
676.194	0.08
676.377	0.13
676.561	0.08
676.745	0.12
676.928	0.08
677.112	0.12
677.296	0.04
677.479	0.06
677.663	0.03
677.846	0.12
678.03	0.07
678.213	0.07
678.397	0.11
678.58	0.05
678.764	0.1
678.947	0.05
679.131	0.05
679.314	0.12
679.498	0.1
679.681	0.13
679.865	0.13
680.048	0.09
680.231	0.09
680.415	0.08
680.598	0.07
680.781	0.11
680.965	0.1
681.148	0.14
681.331	0.08
681.514	0.15
681.698	0.07
681.881	0.12
682.064	0.15
682.247	0.15
682.43	0.05
682.614	0.14
682.797	0.13
682.98	0.16
683.163	0.05
683.346	0.17
683.529	0.12
683.712	0.08
683.895	0.2
684.078	0.09
684.261	0.12
684.444	0.14
684.627	0.17
684.81	0.14
684.993	0.15
685.176	0.18
685.359	0.13
685.542	0.11
685.725	0.23
685.908	0.16
686.091	0.14
686.274	0.22
686.457	0.22
686.639	0.18
686.822	0.19
687.005	0.2
687.188	0.2
687.371	0.27
687.553	0.18
687.736	0.21
687.919	0.27
688.102	0.27
688.284	0.19
688.467	0.24
688.65	0.19
688.832	0.18
689.015	0.19
689.197	0.15
689.38	0.33
689.563	0.3
689.745	0.19
689.928	0.22
690.11	0.22
690.293	0.27
690.475	0.22
690.658	0.24
690.84	0.26
691.023	0.2
691.205	0.23
691.388	0.3
691.57	0.3
691.752	0.34
691.935	0.16
692.117	0.26
692.3	0.27
692.482	0.3
692.664	0.27
692.847	0.33
693.029	0.36
693.211	0.37
693.393	0.25
693.576	0.29
693.758	0.37
693.94	0.28
694.122	0.3
694.304	0.33
694.487	0.38
694.669	0.41
694.851	0.33
695.033	0.42
695.215	0.38
695.397	0.4
695.579	0.41
695.761	0.32
695.943	0.3
696.125	0.46
696.308	0.39
696.49	0.32
696.671	0.6
696.853	0.42
697.035	0.6
697.217	0.37
697.399	0.49
697.581	0.47
697.763	0.45
697.945	0.45
698.127	0.51
698.309	0.54
698.491	0.52
698.672	0.52
698.854	0.54
699.036	0.59
699.218	0.58
699.399	0.57
699.581	0.6
699.763	0.55
699.945	0.55
700.126	0.53
700.308	0.61
700.49	0.63
700.671	0.53
700.853	0.59
701.035	0.62
701.216	0.6
701.398	0.64
701.579	0.6
701.761	0.73
701.943	0.66
702.124	0.65
702.306	0.64
702.487	0.84
702.669	0.7
702.85	0.7
703.031	0.68
703.213	0.86
703.394	0.78
703.576	0.8
703.757	0.95
703.938	0.87
704.12	0.93
704.301	0.82
704.483	0.79
704.664	0.92
704.845	0.97
705.026	0.88
705.208	0.86
705.389	0.95
705.57	0.94
705.751	0.99
705.933	1.02
706.114	1.07
706.295	0.93
706.476	0.93
706.657	1.16
706.838	1.13
707.02	1.15
707.201	1.08
707.382	1.1
707.563	1.1
707.744	1.13
707.925	1.13
708.106	1.13
708.287	1.23
708.468	1.36
708.649	1.28
708.83	1.27
709.011	1.25
709.192	1.37
709.373	1.24
709.554	1.37
709.734	1.46
709.915	1.45
710.096	1.42
710.277	1.38
710.458	1.46
710.639	1.56
710.819	1.41
711	1.5
711.181	1.65
711.362	1.64
711.542	1.57
711.723	1.7
711.904	1.75
712.085	1.69
712.265	1.65
712.446	1.61
712.627	1.76
712.807	1.83
712.988	1.89
713.168	1.74
713.349	1.96
713.53	1.72
713.71	1.9
713.891	1.88
714.071	1.95
714.252	2.1
714.432	2.12
714.613	2.03
714.793	2.19
714.974	2.26
715.154	2.35
715.334	2.29
715.515	2.37
715.695	2.26
715.876	2.31
716.056	2.37
716.236	2.34
716.417	2.48
716.597	2.43
716.777	2.83
716.957	2.51
717.138	2.68
717.318	2.64
717.498	2.57
717.678	2.85
717.859	2.87
718.039	2.86
718.219	2.87
718.399	2.96
718.579	2.93
718.759	3.06
718.939	3.12
719.12	3.15
719.3	3.24
719.48	3.12
719.66	3.17
719.84	3.41
720.02	3.49
720.2	3.39
720.38	3.52
720.56	3.7
720.74	3.52
720.92	3.69
721.1	3.88
721.279	3.87
721.459	3.86
721.639	3.81
721.819	3.92
721.999	4
722.179	4.02
722.359	4
722.538	4.32
722.718	4.28
722.898	4.34
723.078	4.36
723.257	4.4
723.437	4.44
723.617	4.66
723.797	4.63
723.976	4.69
724.156	4.95
724.336	4.99
724.515	5.14
724.695	5.01
724.874	4.95
725.054	5.18
725.234	5.2
725.413	5.38
725.593	5.19
725.772	5.51
725.952	5.45
726.131	5.52
726.311	5.54
726.49	5.7
726.67	5.58
726.849	5.73
727.028	5.96
727.208	6.08
727.387	6.02
727.567	6.01
727.746	6.1
727.925	6.14
728.105	6.24
728.284	6.25
728.463	6.35
728.643	6.6
728.822	6.47
729.001	6.63
729.18	6.92
729.359	6.94
729.539	6.87
729.718	6.92
729.897	6.83
730.076	7.17
730.255	7.16
730.434	7.38
730.614	7.42
730.793	7.65
730.972	7.62
731.151	7.69
731.33	7.78
731.509	7.86
731.688	7.86
731.867	8.04
732.046	7.95
732.225	8.3
732.404	8.17
732.583	8.26
732.762	8.48
732.941	8.59
733.12	8.7
733.298	8.72
733.477	8.85
733.656	8.79
733.835	8.81
734.014	9.02
734.193	8.9
734.371	9.19
734.55	9.34
734.729	9.18
734.908	9.16
735.086	9.27
735.265	9.44
735.444	9.18
735.623	9.49
735.801	9.4
735.98	9.58
736.159	9.5
736.337	9.78
736.516	9.71
736.694	9.67
736.873	9.54
737.052	9.9
737.23	9.53
737.409	9.34
737.587	9.81
737.766	9.26
737.944	9.47
738.123	9.54
738.301	9.42
738.479	9.22
738.658	9.15
738.836	8.94
739.015	9.18
739.193	8.96
739.371	8.67
739.55	8.54
739.728	8.29
739.906	8.59
740.085	8.32
740.263	8.25
740.441	7.79
740.62	8.12
740.798	7.7
740.976	7.51
741.154	7.26
741.332	7.23
741.511	7.1
741.689	6.81
741.867	6.83
742.045	6.49
742.223	6.25
742.401	5.93
742.579	5.95
742.757	5.88
742.935	5.51
743.114	5.37
743.292	5.29
743.47	5.05
743.648	5.01
743.826	4.9
744.004	4.77
744.181	4.68
744.359	4.36
744.537	4.22
744.715	4.15
744.893	4.15
745.071	3.85
745.249	3.63
745.427	3.66
745.605	3.54
745.782	3.36
745.96	3.32
746.138	3.23
746.316	3.19
746.493	2.82
746.671	2.94
746.849	2.73
747.027	2.79
747.204	2.49
747.382	2.65
747.56	2.32
747.737	2.29
747.915	2.18
748.093	2.3
748.27	2
748.448	2.04
748.625	2.07
748.803	1.83
748.98	1.82
749.158	1.76
749.335	1.82
749.513	1.59
749.69	1.54
749.868	1.58
750.045	1.54
750.223	1.34
750.4	1.33
750.578	1.54
750.755	1.48
750.932	1.22
751.11	1.42
751.287	1.19
751.464	1.48
751.642	1.13
751.819	1.25
751.996	1.11
752.173	1.01
752.351	0.96
752.528	1.08
752.705	0.99
752.882	0.85
753.06	0.98
753.237	0.89
753.414	1.05
753.591	1.01
753.768	0.87
753.945	0.8
754.122	0.78
754.299	0.78
754.476	0.66
754.654	0.68
754.831	0.77
755.008	0.77
755.185	0.63
755.362	0.65
755.539	0.6
755.716	0.57
755.892	0.69
756.069	0.68
756.246	0.61
756.423	0.62
756.6	0.75
756.777	0.47
756.954	0.43
757.131	0.4
757.307	0.4
757.484	0.31
757.661	0.47
757.838	0.41
758.015	0.37
758.191	0.51
758.368	0.46
758.545	0.5
758.721	0.45
758.898	0.14
759.075	0.44
759.251	0.42
759.428	0.44
759.605	0.1
759.781	0.35
759.958	0.35
760.134	0.34
760.311	0.44
760.488	0.34
760.664	0.47
760.841	0.25
761.017	0.18
761.194	0.46
761.37	0.38
761.547	0.22
761.723	0.26
761.899	0.34
762.076	0.17
762.252	0.23
762.429	0.14
762.605	0.27
762.781	0.23
762.958	0.29
763.134	0.26
763.31	0.15
763.486	0.4
763.663	0.05
763.839	0.3
764.015	0.11
764.191	0.14
764.368	0.15
764.544	0.11
764.72	0.12
764.896	0.28
765.072	0.24
765.248	0.11
765.425	0.1
765.601	0.19
765.777	0.13
765.953	0
766.129	0.16
766.305	0.15
766.481	0.15
766.657	0.16
766.833	0.38
767.009	-0.05
767.185	0.11
767.361	0.19
767.537	0.01
767.713	0.2
767.889	0.05
768.065	0.08
768.24	0.14
768.416	0.1
768.592	-0.05
768.768	0.16
768.944	0.03
769.12	-0.05
769.295	0.13
769.471	0.23
769.647	0.02
769.823	0.2
769.998	0.06
770.174	-0.11
770.35	0.36
770.525	0.41
770.701	0.15
770.877	0.23
771.052	0.06
771.228	0.21
771.403	0.16
771.579	0.17
771.755	0.34
771.93	0.03
772.106	0.02
772.281	-0.17
772.457	0.1
772.632	0.12
772.808	-0.07
772.983	-0.11
773.159	-0.07
773.334	0.14
773.509	0.14
773.685	-0.03
773.86	0.31
774.036	0.19
774.211	0.05
774.386	0.09
774.562	0.05
774.737	0.14
774.912	-0.07
775.087	0.12
775.263	0.17
775.438	0.07
775.613	-0.05
775.788	0.21
775.964	0.18
776.139	0.38
776.314	-0.13
776.489	0.13
776.664	0.28
776.839	-0.17
777.014	0.26
777.19	0.1
777.365	0.31
777.54	0.27
777.715	-0.12
777.89	0.05
778.065	0.11
778.24	0.17
778.415	0.25
778.59	-0.11
778.765	-0.03
778.94	0.15
779.115	-0.04
779.289	-0.09
779.464	0.1
779.639	0.17
779.814	-0.06
779.989	-0.17
780.164	0.23
780.339	0.22
780.513	-0.17
780.688	-0.07
780.863	0.12
781.038	0.17
781.212	-0.08
781.387	0.04
781.562	0.34
781.737	0.24
781.911	0.22
782.086	-0.14
782.261	0.07
782.435	0.44
782.61	-0.07
782.784	0.09
782.959	0.21
783.134	-0.05
783.308	-0.08
783.483	0.01
783.657	0.37
783.832	0.44
784.006	-0.32
784.181	0.27
784.355	0.2
784.53	-0.15
784.704	-0.11
784.878	0.3
785.053	0.08
785.227	0.15
785.402	0.33
785.576	-0.2
785.75	0.08
785.925	0.11
786.099	0.16
786.273	0.21
786.448	-0.05
786.622	-0.05
786.796	0.05
786.97	0.06
787.145	0.43
787.319	-0.32
787.493	-0.1
787.667	-0.19
787.841	-0.04
788.015	0.47
788.19	-0.02
788.364	0.27
788.538	0.23
788.712	0.18
788.886	0.04
789.06	0.24
789.234	-0.01
789.408	-0.19
789.582	0.16
789.756	-0.03
789.93	-0.14
790.104	-0.09
790.278	0.02
790.452	0
790.626	0.05
790.8	0.02
790.973	0.28
791.147	0.2
791.321	0.31
791.495	0.29
791.669	0.27
791.843	0.02
792.016	0.22
792.19	0.39
792.364	-0.16
792.538	0.72
792.711	0.32
792.885	0.04
793.059	-0
793.233	-0.45
793.406	0.08
793.58	0.15
793.754	0.22
793.927	-0.13
794.101	0.38
794.274	0.14
794.448	0.36
794.622	-0.33
794.795	0.32
794.969	-0.18
795.142	0.2
795.316	0.02
795.489	-0.08
795.663	0.52
795.836	-0.11
796.009	-0.05
796.183	0.26
796.356	0.1
796.53	0.19
796.703	-0.08
796.876	0.68
797.05	-0.04
797.223	-0.06
797.396	0.1
797.57	0.22
797.743	0.46
797.916	0.07
798.09	0.06
798.263	0.5
798.436	0.13
798.609	-0.3
798.782	-0.04
798.956	0.09
799.129	0.21
799.302	0.16
799.475	-0.16
799.648	-0.15
799.821	-0.04
799.994	0.04
800.167	-0.15
800.34	0.24
800.514	-0.01
800.687	-0.01
800.86	-0.14
801.033	0.32
801.206	0.16
801.379	-0.1
801.551	0.24
801.724	0.11
801.897	0.8
802.07	0.1
802.243	-0.5
802.416	-0.14
802.589	-0.36
802.762	0.18
802.935	-0.08
803.107	0.24
803.28	0.45
803.453	0.19
803.626	-0.18
803.798	0.05
803.971	-0.1
804.144	0.18
804.317	0.28
804.489	0.47
804.662	-0.06
804.835	0.37
805.007	-0.37
805.18	0.45
805.353	-0.05
805.525	-0.29
805.698	-0.39
805.87	0.08
806.043	0.37
806.215	-0.35
806.388	-0.36
806.56	0.19
806.733	0.49
806.905	0.12
807.078	-0.08
807.25	-0.25
807.423	0.11
807.595	0.1
807.768	0.08
807.94	0.56
808.112	0.27
808.285	0.16
808.457	-0.04
808.629	0.05
808.802	0.33
808.974	-0.04
809.146	0.09
809.318	-0.36
809.491	0.34
809.663	0.57
809.835	-0.02
810.007	0.28
810.18	0.19
810.352	-0.12
810.524	-0.05
810.696	-0.17
810.868	0.39
811.04	-0.11
811.212	0.09
811.384	0.03
811.556	0.16
811.728	0.31
811.901	1.06
812.073	0.1
812.245	0.42
812.417	-0.03
812.589	-0.65
812.76	-0.11
812.932	0.24
813.104	0.71
813.276	0.21
813.448	-0.14
813.62	0.29
813.792	0.35
813.964	0.34
814.136	0.11
814.307	-0.29
814.479	-0.24
814.651	-0.19
814.823	0.81
814.995	0.04
815.166	-0.19
815.338	-0.24
815.51	-0.69
815.681	0.97
815.853	0.11
816.025	0.2
816.196	0.55
816.368	0.52
816.54	-0.69
816.711	0.17
816.883	-0.07
817.054	0.84
817.226	-0.33
817.398	0.28
817.569	0.05
817.741	0.37
817.912	-0.05
818.084	-0.29
818.255	0.27
818.426	-0.22
818.598	0
818.769	-0.34
818.941	0.26
819.112	0.59
819.283	0.38
819.455	-0.37
819.626	0.21
819.798	0.65
819.969	0.08
820.14	0.1
820.311	-0.04
820.483	0.09
820.654	0.34
820.825	-0.12
820.996	-0.14
821.168	-0.25
821.339	0.15
821.51	-0.34
821.681	1.18
821.852	0.05
822.023	0.22
822.195	-0.23
822.366	0.42
822.537	0.26
822.708	0.15
822.879	-0.26
823.05	1.06
823.221	0.14
823.392	0.15
823.563	0.3
823.734	0.09
823.905	-0.01
824.076	0.06
824.247	-0.13
824.418	-0.22
824.589	1.25
824.759	0.17
824.93	0.05
825.101	-0.16
825.272	0.11
825.443	1.09
825.614	0.39
825.784	-0.96
825.955	1.37
826.126	0.9
826.297	0.25
826.467	0.57
826.638	0.91
826.809	-0.86
826.98	0.03
827.15	1.07
827.321	-0.16
827.492	0.66
827.662	0.41
827.833	0.92
828.003	0.52
828.174	-0.85
828.345	-0.64
828.515	0.8
828.686	0.11
828.856	-0.47
829.027	0.09
829.197	0.29
829.368	0.24
829.538	-0.33
829.709	-0.72
829.879	0.03
830.049	0.69
830.22	-0.16
830.39	0.02
830.56	-0.03
830.731	0.02
830.901	-0.5
831.072	0.16
831.242	0.31
831.412	0.52
831.582	-0.32
831.753	-0.02
831.923	0.16
832.093	0.3
832.263	-0.32
832.434	-0.34
832.604	0.23
832.774	0.73
832.944	0.26
833.114	0.11
833.284	0.75
833.454	-0.77
833.624	-0.22
833.795	0.37
833.965	0.38
834.135	0.27
834.305	-0.77
834.475	-0.54
834.645	0.36
834.815	-0.14
834.985	-0.05
835.155	-0.61
835.325	0.51
835.494	0.54
835.664	-0.47
835.834	-0.6
836.004	0.11
836.174	0.21
836.344	-0.21
836.514	-0.51
836.684	0.02
836.853	-0.12
837.023	0.72
837.193	-0.72
837.363	0.68
837.532	0.42
837.702	0.02
837.872	-0.13
838.041	0.67
838.211	1.86
838.381	-0.67
838.55	0.05
838.72	2.15
838.89	1.53
839.059	0.21
839.229	-0.05
839.398	1.13
839.568	0.85
839.738	0.06
839.907	1.15
840.077	-0.07
840.246	-0.32
840.416	-0.11
840.585	-0.09
840.755	1.27
840.924	0.86
841.093	-0.85
841.263	-0.64
841.432	0.07
841.602	-0.55
841.771	-0.74
841.94	0.01
842.11	1.4
842.279	1.18
842.448	-0.8
842.617	-0.24
842.787	1.12
842.956	-0.42
843.125	-0.14
843.294	0.79
843.464	0.66
843.633	0.02
843.802	-0.19
843.971	0.56
844.14	0.69
844.309	0.78
844.479	-0.27
844.648	-0.48
844.817	0.04
844.986	0.39
845.155	0.15
845.324	0.07
845.493	-0.56
845.662	-0.76
845.831	0
846	0.38
846.169	-0.54
846.338	1.45
846.507	0.49
846.676	0.39
846.844	-0.04
847.013	0.87
847.182	-0.37
847.351	0.41
847.52	0.09
847.689	0.94
847.858	-0.01
848.026	-0.15
848.195	0.17
848.364	0.28
848.533	-0.8
848.701	-0.01
848.87	0.43
849.039	0.53
849.207	1.31
849.376	0.97
849.545	1.66
849.713	0.43
849.882	0.15
850.051	1.08
850.219	0.19
850.388	0.67
850.556	0.02
850.725	0.67
850.893	0.22
851.062	-0.44
851.23	0.76
851.399	-1.1
851.567	0.08
851.736	-0.04
851.904	-0.8
852.073	0.28
852.241	1.16
852.41	0.41
852.578	-0.01
852.746	-0.19
852.915	0.87
853.083	0.73
853.251	0.26
853.42	0.27
853.588	-0.05
853.756	1.25
853.924	0.21
854.093	-0.48
854.261	0.49
854.429	-1.83
854.597	0.64
854.765	-0.14
854.934	1.69
855.102	1.86
855.27	0.71
855.438	0.49
855.606	1
855.774	1.85
855.942	-1.16
856.11	0.12
856.278	-0.25
856.446	1.85
856.614	-0.09
856.782	-0.66
856.95	1.03
857.118	0.63
857.286	0.67
857.454	-0.73
857.622	0.44
857.79	0.86
857.958	-0.36
858.126	-0.39
858.294	-2.03
858.462	0.53
858.629	-0.95
858.797	-0.83
858.965	1.16
859.133	1.23
859.301	0.98
859.468	0.59
859.636	0.08
859.804	1.95
859.971	0.37
860.139	-0.8
860.307	0.36
860.474	0.27
860.642	0.31
860.81	0.04
860.977	-0.31
861.145	0.74
861.313	0.4
861.48	1.23
861.648	0.08
861.815	0.22
861.983	-0.9
862.15	-0.01
862.318	1.3
862.485	0.51
862.653	-1.02
862.82	-0.6
862.988	1.89
863.155	1.49
863.322	0.37
863.49	-1.8
863.657	1.61
863.824	2.11
863.992	-0.12
864.159	0.77
864.326	0.67
864.494	-0.75
864.661	3.05
864.828	0.57
864.996	1.04
865.163	1.44
865.33	-0.28
865.497	-2.17
865.664	0.09
865.832	-0.89
865.999	-0.77
866.166	-0.54
866.333	-1.28
866.5	-0.5
866.667	-0.15
866.834	2.07
867.001	0.45
867.168	-0.8
867.335	0.69
867.502	-0.69
867.669	0.97
867.836	1.55
868.003	-0.11
868.17	1.57
868.337	2.01
868.504	3.22
868.671	-0.6
868.838	-0.01
869.005	-0.64
869.172	1.83
869.339	-0.01
869.505	-0.26
869.672	0.92
869.839	1.58
870.006	1.25
870.173	-0.53
870.339	1.55
870.506	3.4
870.673	-1.12
870.84	1.88
871.006	1.04
871.173	0.01
871.34	0.13
871.506	-1.04
871.673	-0.25
871.839	-1.87
872.006	1.4
872.173	0.35
872.339	0.43
872.506	2.79
872.672	0.82
872.839	-1.99
873.005	1.49
873.172	4.37
873.338	2.21
873.505	1.31
873.671	2.11
873.838	3.68
874.004	-0.86
874.171	-0.08
874.337	-0.75
874.503	0.45
874.67	0.68
874.836	-0.13
875.002	1.39
875.169	2.98
875.335	0.93
875.501	0.29
875.668	2.42
875.834	0.04
876	1.07
876.166	1.29
876.332	2.18
876.499	1.79
876.665	0.62
876.831	0.15
876.997	3.39
877.163	1.48
877.329	-1.38
877.495	-0.36
877.662	0.85
877.828	0.1
877.994	0.93
878.16	-2.14
878.326	0.1
878.492	0.32
878.658	-0.6
878.824	-0.05
878.99	0.94
879.156	-1.58
879.322	4.51
879.487	-0.52
879.653	2.75
879.819	0.16
879.985	-0.96
880.151	-0.18
880.317	1.37
880.483	1.24
880.648	1.44
880.814	-0.95
880.98	0.32
881.146	-0.14
881.312	-1.7
881.477	0.91
881.643	1.64
881.809	2.55
881.974	4.39
882.14	-2.66
882.306	2.04
882.471	0.14
882.637	-0.52
882.803	3.02
882.968	4.48
883.134	3.05
883.299	1.26
883.465	0.08
883.63	2.71
883.796	2.84
883.961	2
884.127	1.33
884.292	-3.85
884.458	-1.56
884.623	-1.56
