Data from Apollo_Calib_20240827__AbsoluteIrradiance__492__07-21-02-842.txt Node

Date: Wed Aug 28 07:21:02 BST 2024
User: biology
Spectrometer: FLMT08252
Trigger mode: 0
Integration Time (sec): 5.000000E-1
Scans to average: 5
Electric dark correction enabled: true
Nonlinearity correction enabled: false
Boxcar width: 0
XAxis mode: Wavelengths
Number of Pixels in Spectrum: 3648
>>>>>Begin Spectral Data<<<<<
179.588	-0
179.809	-0
180.03	-0
180.251	-0
180.473	-0
180.694	0
180.915	0
181.136	-0
181.357	0
181.578	-0
181.799	-0
182.02	-0
182.241	-0
182.462	-0
182.683	0
182.904	0
183.125	-0
183.346	0
183.567	0
183.788	-0
184.009	-0
184.23	0
184.451	0
184.672	-0
184.892	-0
185.113	0
185.334	0
185.555	-0
185.776	-0
185.996	0
186.217	-0
186.438	0
186.659	-0
186.879	0
187.1	0
187.321	-0
187.541	-0
187.762	-0
187.983	-0
188.203	0
188.424	-0
188.644	0
188.865	0
189.086	-0
189.306	0
189.527	0
189.747	-0
189.968	-0
190.188	0
190.409	-0
190.629	0
190.849	-0
191.07	-0
191.29	0
191.511	0
191.731	-0
191.951	-0
192.172	-0
192.392	-0
192.612	-0
192.833	-0
193.053	0
193.273	0
193.493	-0
193.714	-0
193.934	0
194.154	0
194.374	0
194.594	0
194.815	-0
195.035	0
195.255	-0
195.475	-0
195.695	0
195.915	0
196.135	-0
196.355	0
196.575	0
196.795	0
197.015	-0
197.235	-0
197.455	-0
197.675	0
197.895	-0
198.115	-0
198.335	-0
198.555	0
198.775	0
198.995	0
199.214	0
199.434	-0
199.654	-0
199.874	-0
200.094	-1.83
200.313	-0.49
200.533	-0.41
200.753	-0.8
200.973	0.55
201.192	0.45
201.412	-0.9
201.632	-0.4
201.851	0.43
202.071	-0.75
202.291	-0.38
202.51	-0.92
202.73	0.27
202.95	-0.47
203.169	-0.3
203.389	0.19
203.608	0.27
203.828	-0.93
204.047	-0.21
204.267	0.46
204.486	0.01
204.706	-0.09
204.925	-0.25
205.145	-0.39
205.364	0.15
205.583	0.55
205.803	-0.26
206.022	-0.26
206.242	0.07
206.461	0.03
206.68	-0.28
206.9	0.02
207.119	0.57
207.338	0.27
207.557	-0.19
207.777	-0.11
207.996	-0.28
208.215	0.44
208.434	-0.43
208.654	-0.42
208.873	0.07
209.092	0.41
209.311	-0.09
209.53	-0.23
209.749	-0.14
209.968	-0.3
210.187	-0.04
210.407	-0.57
210.626	-0.24
210.845	0.42
211.064	-0.01
211.283	-0.18
211.502	0.33
211.721	-0.05
211.94	-0.22
212.159	0.06
212.377	0.21
212.596	0.18
212.815	-0.04
213.034	-0.03
213.253	-0.02
213.472	-0.16
213.691	-0.36
213.91	-0.5
214.128	-0.02
214.347	0.19
214.566	-0.48
214.785	-0.54
215.003	0.32
215.222	0.04
215.441	-0.07
215.66	-0.33
215.878	-0.01
216.097	0.17
216.316	-0.33
216.534	-0.16
216.753	0.08
216.972	-0.08
217.19	-0.1
217.409	-0.26
217.627	-0.27
217.846	0.1
218.064	-0.04
218.283	-0
218.501	0.44
218.72	0.12
218.938	-0.42
219.157	-0.08
219.375	0.09
219.594	0.17
219.812	-0.36
220.031	0.02
220.249	0.2
220.467	0.04
220.686	-0.06
220.904	-0.17
221.122	-0.2
221.341	0.29
221.559	-0.01
221.777	-0.28
221.995	-0.18
222.214	-0.06
222.432	-0.03
222.65	0.14
222.868	0.04
223.086	-0.01
223.305	0.04
223.523	-0.06
223.741	0.2
223.959	-0.2
224.177	-0.39
224.395	-0.12
224.613	0.06
224.831	0.12
225.049	-0.1
225.267	-0.06
225.485	0.1
225.703	-0.12
225.921	0
226.139	-0.16
226.357	0.08
226.575	-0.01
226.793	-0.06
227.011	0.43
227.229	0.11
227.447	0.17
227.665	-0.09
227.883	-0.26
228.1	-0.01
228.318	0.1
228.536	-0.19
228.754	-0.17
228.972	-0.07
229.189	0.14
229.407	-0.15
229.625	-0.03
229.843	-0.02
230.06	0.11
230.278	-0.11
230.496	-0.07
230.713	-0.03
230.931	0.13
231.149	-0.14
231.366	-0.23
231.584	0.02
231.801	0.29
232.019	-0.07
232.236	-0.17
232.454	-0.19
232.671	0.09
232.889	-0.04
233.106	-0.28
233.324	-0.08
233.541	0.05
233.759	-0.11
233.976	-0.18
234.194	0.01
234.411	0.05
234.628	-0.04
234.846	-0.03
235.063	0.09
235.28	0.05
235.498	-0.04
235.715	-0.11
235.932	0.07
236.149	-0.05
236.367	-0.06
236.584	-0.02
236.801	-0.1
237.018	0.07
237.236	-0.03
237.453	-0.22
237.67	0.15
237.887	-0.09
238.104	-0.06
238.321	-0.23
238.538	-0.09
238.755	-0.01
238.973	-0.14
239.19	-0.07
239.407	0.11
239.624	-0.05
239.841	-0.17
240.058	-0.1
240.275	0.07
240.492	-0.05
240.709	0.04
240.925	-0.14
241.142	-0.11
241.359	-0.19
241.576	-0.17
241.793	-0.07
242.01	-0.04
242.227	0.04
242.444	0.02
242.66	0.11
242.877	0.03
243.094	-0.04
243.311	-0.03
243.527	-0.05
243.744	0.01
243.961	0.03
244.178	-0.05
244.394	-0.01
244.611	0.1
244.828	0.1
245.044	-0.06
245.261	-0.04
245.477	-0.02
245.694	0.04
245.911	-0.17
246.127	0.04
246.344	0.09
246.56	0.1
246.777	0.02
246.993	0.03
247.21	0.06
247.426	0.02
247.643	-0.09
247.859	-0.15
248.076	-0.01
248.292	0.1
248.508	-0.1
248.725	0.01
248.941	-0.01
249.157	0.15
249.374	-0.07
249.59	0.05
249.806	-0.01
250.023	-0.01
250.239	-0.17
250.455	-0.02
250.671	0.02
250.888	0.02
251.104	0.06
251.32	-0.04
251.536	-0.02
251.752	-0.08
251.969	0.02
252.185	0.07
252.401	0.11
252.617	-0.09
252.833	-0.04
253.049	-0.05
253.265	-0.03
253.481	0.02
253.697	-0.08
253.913	-0.08
254.129	-0.03
254.345	0.03
254.561	-0.04
254.777	0.03
254.993	0.1
255.209	0.01
255.425	0.05
255.641	-0.1
255.857	0.06
256.073	0.01
256.288	-0.16
256.504	-0.01
256.72	-0.05
256.936	0.09
257.152	-0.01
257.367	-0.07
257.583	-0.02
257.799	0.02
258.015	-0.08
258.23	-0.04
258.446	0.09
258.662	-0
258.877	-0.06
259.093	-0.1
259.309	0.03
259.524	0.06
259.74	-0.05
259.955	-0.07
260.171	0.02
260.387	-0.02
260.602	0.1
260.818	-0.02
261.033	-0.04
261.249	-0.03
261.464	-0.01
261.68	-0.06
261.895	0.01
262.11	0.05
262.326	-0.05
262.541	-0.12
262.757	0.01
262.972	0.06
263.187	-0.01
263.403	-0.03
263.618	0.02
263.833	-0.03
264.049	-0.07
264.264	-0.02
264.479	0.09
264.694	0.07
264.91	-0.04
265.125	-0.06
265.34	0.07
265.555	0.09
265.77	-0.02
265.986	-0.04
266.201	0.04
266.416	0.13
266.631	-0.07
266.846	0
267.061	0.02
267.276	-0.05
267.491	-0.16
267.706	-0.02
267.921	0.01
268.136	-0.01
268.351	-0.03
268.566	-0.1
268.781	0.07
268.996	0.03
269.211	-0.01
269.426	-0.02
269.641	-0.07
269.856	0.03
270.071	-0.02
270.285	-0.09
270.5	0.05
270.715	0.02
270.93	-0.04
271.145	0
271.359	0.04
271.574	-0.06
271.789	0.01
272.004	-0.07
272.218	-0.02
272.433	0.05
272.648	-0.07
272.862	0.07
273.077	0.02
273.292	-0.02
273.506	-0.13
273.721	-0.03
273.936	0.01
274.15	0.05
274.365	-0.06
274.579	0.02
274.794	0.02
275.008	0.09
275.223	-0.1
275.437	-0.07
275.652	0.06
275.866	0.04
276.081	-0.04
276.295	0.01
276.509	-0.03
276.724	-0.05
276.938	-0.04
277.153	0.02
277.367	0.04
277.581	-0.03
277.796	-0
278.01	-0.09
278.224	0.04
278.438	0.1
278.653	-0.09
278.867	-0.02
279.081	0.03
279.295	-0.04
279.51	0.04
279.724	-0.1
279.938	0.02
280.152	0.01
280.366	-0.07
280.58	-0
280.794	0.04
281.008	0.01
281.222	0.06
281.437	0.07
281.651	-0.03
281.865	0.06
282.079	0.01
282.293	-0.09
282.507	-0.08
282.721	-0.03
282.935	-0.01
283.148	-0.04
283.362	-0.02
283.576	-0.06
283.79	0.01
284.004	-0.11
284.218	0.06
284.432	-0.02
284.646	0.01
284.859	-0.05
285.073	-0.02
285.287	0.05
285.501	-0.08
285.714	-0.02
285.928	-0
286.142	-0.01
286.356	-0.08
286.569	0
286.783	0.09
286.997	0.05
287.21	-0.01
287.424	0
287.637	-0.03
287.851	-0.06
288.065	0.02
288.278	0.02
288.492	0.02
288.705	-0.03
288.919	0.03
289.132	-0.09
289.346	0.03
289.559	-0.08
289.773	-0.08
289.986	0.03
290.2	-0.03
290.413	0.04
290.626	-0.06
290.84	-0.02
291.053	-0.03
291.267	0.07
291.48	0
291.693	0.01
291.906	-0.03
292.12	-0.02
292.333	-0.05
292.546	-0.02
292.76	0.08
292.973	0.02
293.186	-0.02
293.399	-0.04
293.612	0.02
293.826	-0.01
294.039	-0.01
294.252	-0.02
294.465	0.02
294.678	0.07
294.891	0.03
295.104	-0.01
295.317	0
295.53	-0.02
295.743	0.02
295.956	0.01
296.169	0.04
296.382	0.02
296.595	-0
296.808	-0.02
297.021	0.07
297.234	0.02
297.447	-0
297.66	0.01
297.873	0.07
298.086	0.03
298.299	-0.06
298.511	-0.01
298.724	-0.02
298.937	-0.03
299.15	-0.02
299.363	0.01
299.575	0.05
299.788	0.02
300.001	0.01
300.213	-0.04
300.426	0.01
300.639	-0.06
300.852	-0.03
301.064	0.04
301.277	0.05
301.489	0.03
301.702	0.01
301.915	-0.04
302.127	-0
302.34	0.04
302.552	0.02
302.765	-0.01
302.977	0.02
303.19	0
303.402	-0.03
303.615	0.01
303.827	-0.04
304.04	-0.05
304.252	0.06
304.464	-0.03
304.677	0.08
304.889	0.04
305.102	-0.05
305.314	-0.05
305.526	0.02
305.739	0.01
305.951	-0.02
306.163	-0.03
306.375	0.06
306.588	-0.01
306.8	-0.02
307.012	-0.06
307.224	0.03
307.436	0.06
307.649	-0.07
307.861	0.02
308.073	0.04
308.285	-0.03
308.497	-0.04
308.709	-0.06
308.921	-0.02
309.133	0.05
309.346	-0.01
309.558	-0.01
309.77	0.01
309.982	0.02
310.194	0.05
310.406	0.01
310.617	0.08
310.829	0.02
311.041	0.01
311.253	-0.02
311.465	0
311.677	0.02
311.889	0.04
312.101	-0.04
312.313	0.05
312.524	0.08
312.736	-0.08
312.948	0.03
313.16	0.07
313.372	0.05
313.583	0.03
313.795	-0.01
314.007	0.01
314.218	0
314.43	-0.03
314.642	-0.04
314.853	-0.08
315.065	0.02
315.277	0.02
315.488	-0.01
315.7	0.04
315.912	0.01
316.123	-0.04
316.335	-0.03
316.546	0.1
316.758	-0.05
316.969	-0.03
317.181	0
317.392	0.01
317.604	-0
317.815	-0.06
318.026	-0.02
318.238	0.01
318.449	-0.01
318.661	-0.06
318.872	-0.02
319.083	-0.06
319.295	0.03
319.506	-0.01
319.717	0.01
319.929	0.04
320.14	-0.01
320.351	-0
320.562	-0.01
320.774	-0.03
320.985	0.02
321.196	-0.01
321.407	-0.06
321.618	0.03
321.829	-0
322.041	0.01
322.252	0
322.463	0.02
322.674	-0.02
322.885	-0.05
323.096	-0.04
323.307	0
323.518	-0.04
323.729	-0.07
323.94	0.02
324.151	-0.02
324.362	0.04
324.573	0.01
324.784	-0.05
324.995	0.05
325.206	0
325.417	-0.02
325.628	-0.04
325.838	0
326.049	-0
326.26	0.03
326.471	-0
326.682	0.05
326.892	0.04
327.103	-0.06
327.314	-0.05
327.525	-0
327.735	-0.01
327.946	-0.05
328.157	0.01
328.368	0.02
328.578	0.02
328.789	-0.02
328.999	0.02
329.21	0.01
329.421	-0
329.631	0
329.842	0
330.052	0.04
330.263	0.03
330.473	0.05
330.684	0.01
330.894	-0
331.105	0.04
331.315	-0.01
331.526	-0.06
331.736	0.08
331.947	0.04
332.157	0.01
332.367	-0.03
332.578	0.02
332.788	0.07
332.999	0.03
333.209	0
333.419	-0.03
333.629	0
333.84	0.02
334.05	-0.02
334.26	0.04
334.47	0.02
334.681	0.01
334.891	0.01
335.101	0.04
335.311	0.03
335.521	-0.02
335.732	-0.03
335.942	0.08
336.152	0.04
336.362	-0
336.572	-0.01
336.782	0.02
336.992	-0
337.202	-0.05
337.412	-0.04
337.622	0.01
337.832	0
338.042	0.01
338.252	-0.05
338.462	-0.05
338.672	0.01
338.882	0.01
339.092	-0.01
339.302	0.06
339.511	0.02
339.721	-0.02
339.931	-0.02
340.141	0.01
340.351	0.06
340.561	-0.02
340.77	0.02
340.98	-0.01
341.19	-0
341.4	-0.05
341.609	-0.09
341.819	0.03
342.029	-0.06
342.238	0.01
342.448	-0.01
342.658	0.01
342.867	0
343.077	-0.01
343.286	0.01
343.496	-0.04
343.706	0.06
343.915	-0.05
344.125	-0.06
344.334	0.03
344.544	-0.05
344.753	-0.04
344.963	-0.02
345.172	0
345.381	-0.06
345.591	-0.02
345.8	0.03
346.01	0.01
346.219	0.06
346.428	-0.15
346.638	-0.02
346.847	0.04
347.056	0.03
347.266	0.02
347.475	-0.02
347.684	0.02
347.893	0.04
348.103	0.03
348.312	-0.03
348.521	-0.02
348.73	0.03
348.94	0.01
349.149	-0.04
349.358	0.02
349.567	-0.08
349.776	-0.05
349.985	-0
350.194	0.04
350.403	-0
350.612	-0.05
350.821	-0.01
351.03	-0.01
351.239	-0.02
351.448	-0
351.657	-0.01
351.866	0.07
352.075	0.03
352.284	0.06
352.493	-0.02
352.702	0.06
352.911	0.01
353.12	0.03
353.329	-0.01
353.538	0.04
353.746	-0.01
353.955	-0.02
354.164	0.05
354.373	0.03
354.582	0
354.79	0.01
354.999	0.04
355.208	-0.03
355.416	0.02
355.625	-0.03
355.834	-0.03
356.042	0
356.251	-0
356.46	-0.06
356.668	0.01
356.877	0.09
357.085	0.04
357.294	-0.07
357.503	0.02
357.711	0.01
357.92	0.07
358.128	0.01
358.337	-0.05
358.545	0
358.754	-0.02
358.962	0.03
359.17	-0
359.379	0.03
359.587	-0
359.796	-0.01
360.004	0.02
360.212	0
360.421	0.06
360.629	-0.01
360.837	-0
361.046	0.05
361.254	0.1
361.462	-0.02
361.67	0.02
361.879	0.01
362.087	0.05
362.295	-0.02
362.503	-0.02
362.711	-0.05
362.92	-0.03
363.128	-0.03
363.336	-0.01
363.544	-0.02
363.752	0.01
363.96	-0.01
364.168	-0.03
364.376	0.02
364.584	-0
364.792	0.03
365	0.01
365.208	-0
365.416	0.02
365.624	0.01
365.832	0
366.04	0.04
366.248	0.01
366.456	0.01
366.664	0.01
366.872	0.03
367.079	-0.02
367.287	0.03
367.495	0
367.703	-0.05
367.911	-0.02
368.118	0.01
368.326	-0.01
368.534	-0.07
368.742	0.08
368.949	-0.06
369.157	-0.03
369.365	0.06
369.572	-0
369.78	-0.04
369.988	0.04
370.195	0.06
370.403	0.03
370.61	0.03
370.818	-0.02
371.026	0.07
371.233	-0.05
371.441	-0.03
371.648	-0.01
371.856	0.02
372.063	0.02
372.271	-0.04
372.478	-0.02
372.685	-0.02
372.893	0.03
373.1	0.02
373.308	-0.04
373.515	0.03
373.722	-0.02
373.93	-0.04
374.137	-0
374.344	0.06
374.552	0.04
374.759	0.01
374.966	0
375.173	-0.02
375.381	0.05
375.588	-0.03
375.795	-0.04
376.002	0.01
376.209	-0.02
376.417	-0
376.624	0.01
376.831	0.03
377.038	0.02
377.245	-0.07
377.452	-0.02
377.659	-0.04
377.866	-0.03
378.073	-0.01
378.28	-0.06
378.487	0
378.694	0.04
378.901	-0.01
379.108	0
379.315	0.07
379.522	0.07
379.729	-0.02
379.936	0.01
380.143	-0
380.35	0
380.557	-0.03
380.763	0
380.97	-0
381.177	-0.02
381.384	0.02
381.591	-0.03
381.797	-0.02
382.004	0.02
382.211	0.02
382.418	0.01
382.624	0.04
382.831	0.03
383.038	-0.01
383.244	0
383.451	0.01
383.658	0.03
383.864	-0.01
384.071	-0.06
384.277	0.05
384.484	-0.04
384.69	0.06
384.897	-0.04
385.103	-0.04
385.31	-0.04
385.516	-0.02
385.723	0
385.929	-0.03
386.136	-0
386.342	0.06
386.549	-0.05
386.755	0.01
386.961	0.05
387.168	-0.05
387.374	0
387.58	0.02
387.787	0.01
387.993	0.01
388.199	-0.02
388.406	-0.02
388.612	0.02
388.818	-0.02
389.024	-0.06
389.231	-0.02
389.437	0.01
389.643	0.05
389.849	0.01
390.055	-0.03
390.261	-0.04
390.467	0.04
390.674	-0.05
390.88	0.01
391.086	0.02
391.292	-0.08
391.498	0.01
391.704	0.03
391.91	-0.02
392.116	-0.03
392.322	-0.08
392.528	0.04
392.734	-0.04
392.94	-0.01
393.146	-0.05
393.352	-0.04
393.557	-0.07
393.763	0.01
393.969	0.03
394.175	0
394.381	0.01
394.587	-0.03
394.792	0.01
394.998	0
395.204	0.02
395.41	-0.02
395.615	-0
395.821	0.05
396.027	0.02
396.233	-0.06
396.438	-0.01
396.644	-0.07
396.85	0.01
397.055	-0.01
397.261	-0.01
397.466	0.08
397.672	0
397.878	0.04
398.083	0.02
398.289	-0.03
398.494	0.01
398.7	0
398.905	-0.08
399.111	0.06
399.316	-0.04
399.522	-0.04
399.727	-0.02
399.932	-0.04
400.138	-0.01
400.343	0.04
400.549	0.01
400.754	-0.01
400.959	-0
401.165	-0
401.37	0.03
401.575	0.12
401.78	-0.03
401.986	-0.04
402.191	-0.03
402.396	0.02
402.601	-0.01
402.807	-0.02
403.012	0.01
403.217	0.03
403.422	0
403.627	-0.02
403.832	-0.06
404.037	0.01
404.243	0.03
404.448	-0.04
404.653	-0.02
404.858	0.01
405.063	0.02
405.268	-0.06
405.473	-0.05
405.678	-0.03
405.883	0.17
406.088	0
406.293	-0.07
406.498	-0.05
406.703	0.03
406.907	0.01
407.112	-0.02
407.317	0.04
407.522	0.03
407.727	-0.08
407.932	-0.04
408.136	0.06
408.341	-0.01
408.546	0.04
408.751	-0.01
408.956	-0.08
409.16	0.07
409.365	0.01
409.57	-0.02
409.774	0.03
409.979	0.04
410.184	0.02
410.388	-0.06
410.593	0.03
410.798	-0.03
411.002	-0.05
411.207	0.04
411.411	0.01
411.616	-0.06
411.82	-0.04
412.025	0.01
412.229	-0.03
412.434	0.02
412.638	0.02
412.843	-0.02
413.047	0.01
413.252	-0.05
413.456	-0.02
413.66	0.05
413.865	-0.02
414.069	0.06
414.273	-0.01
414.478	-0.06
414.682	-0.04
414.886	-0.01
415.091	-0.04
415.295	-0.08
415.499	0.05
415.703	-0.02
415.908	0
416.112	-0.09
416.316	-0.01
416.52	-0.04
416.724	-0.07
416.929	-0.01
417.133	0.08
417.337	-0.02
417.541	-0.04
417.745	-0.08
417.949	-0.02
418.153	-0.01
418.357	-0.05
418.561	0.08
418.765	0.02
418.969	0.01
419.173	0.01
419.377	-0.07
419.581	0.07
419.785	-0
419.989	-0.06
420.193	-0.05
420.397	0
420.601	0.06
420.804	0.05
421.008	-0.02
421.212	-0.01
421.416	0.06
421.62	-0.09
421.823	-0.03
422.027	0.05
422.231	-0
422.435	-0.02
422.638	0.03
422.842	-0.04
423.046	-0.04
423.249	0.07
423.453	0.02
423.657	0.01
423.86	-0
424.064	0.01
424.268	0.06
424.471	0.01
424.675	0.06
424.878	0.03
425.082	-0.02
425.285	0.03
425.489	-0.03
425.692	0.02
425.896	-0.08
426.099	0.01
426.303	-0.04
426.506	-0.05
426.71	-0.01
426.913	0.02
427.116	0.01
427.32	-0.01
427.523	0
427.726	0.03
427.93	-0.07
428.133	-0
428.336	-0.03
428.54	-0.09
428.743	0.03
428.946	0.05
429.149	-0.06
429.353	0.02
429.556	-0.04
429.759	-0.01
429.962	-0.07
430.165	0
430.368	-0.01
430.571	-0.04
430.775	0.02
430.978	-0.07
431.181	0.02
431.384	0.04
431.587	-0.05
431.79	0.03
431.993	-0.03
432.196	-0.01
432.399	-0.02
432.602	0.07
432.805	-0.04
433.008	-0.01
433.211	-0.08
433.414	0.03
433.616	0
433.819	0
434.022	-0.07
434.225	0.06
434.428	-0.04
434.631	0.1
434.833	0
435.036	-0.05
435.239	0.05
435.442	0.02
435.645	0.03
435.847	0.05
436.05	0.02
436.253	0.02
436.455	-0.03
436.658	-0.02
436.861	0.08
437.063	-0.07
437.266	-0.02
437.468	-0.02
437.671	0.09
437.874	-0.01
438.076	-0.05
438.279	-0.08
438.481	0.01
438.684	-0.06
438.886	0.02
439.089	-0.11
439.291	-0.05
439.494	-0.02
439.696	-0.04
439.899	-0.01
440.101	0.03
440.303	-0.05
440.506	-0
440.708	-0.03
440.91	0.01
441.113	-0.06
441.315	0.04
441.517	-0.07
441.72	-0.01
441.922	-0.04
442.124	-0.03
442.326	-0.01
442.529	0.03
442.731	-0.04
442.933	0.09
443.135	-0
443.337	-0.09
443.539	-0.04
443.742	0.02
443.944	0
444.146	-0.09
444.348	0.01
444.55	-0
444.752	-0.01
444.954	-0.05
445.156	-0
445.358	-0.03
445.56	0.07
445.762	0
445.964	-0
446.166	-0.02
446.368	-0.02
446.57	0.01
446.772	-0.08
446.974	-0.02
447.175	-0.03
447.377	-0.02
447.579	-0.05
447.781	-0.06
447.983	0.07
448.184	0
448.386	-0.01
448.588	-0.07
448.79	-0
448.991	0.01
449.193	0.03
449.395	-0.02
449.597	0.03
449.798	-0.03
450	0.03
450.202	0.05
450.403	0.04
450.605	0.01
450.806	0.01
451.008	-0.09
451.21	-0.05
451.411	0.02
451.613	-0.02
451.814	0.01
452.016	0.03
452.217	0.01
452.419	-0.01
452.62	-0.02
452.821	-0
453.023	0.08
453.224	0.07
453.426	-0.03
453.627	-0.02
453.828	0.03
454.03	-0.02
454.231	0.02
454.432	-0.01
454.634	0.09
454.835	-0.06
455.036	-0.09
455.238	0.01
455.439	0.05
455.64	-0.05
455.841	-0.1
456.042	0.07
456.244	0.02
456.445	-0.02
456.646	-0.06
456.847	-0.03
457.048	0.01
457.249	0.04
457.45	0.16
457.651	-0.06
457.852	0.07
458.054	0.01
458.255	-0.04
458.456	0.03
458.657	-0
458.858	-0.04
459.058	-0
459.259	0
459.46	-0.04
459.661	-0.08
459.862	0.04
460.063	-0.08
460.264	0.04
460.465	-0.05
460.666	0.1
460.866	-0.05
461.067	0.02
461.268	-0.04
461.469	0.02
461.67	0
461.87	-0.02
462.071	-0.03
462.272	-0.04
462.473	-0.02
462.673	-0
462.874	-0.03
463.075	-0.01
463.275	-0.03
463.476	0.03
463.676	0
463.877	0.03
464.078	-0.04
464.278	0.08
464.479	-0.05
464.679	-0.02
464.88	-0.06
465.08	0.07
465.281	-0.01
465.481	-0.06
465.682	-0.01
465.882	0
466.083	0.03
466.283	-0.03
466.483	-0.02
466.684	-0.02
466.884	-0.03
467.085	-0.01
467.285	0.05
467.485	-0.04
467.686	-0.01
467.886	-0.07
468.086	-0.01
468.286	-0
468.487	0.02
468.687	-0.05
468.887	-0.03
469.087	0.02
469.287	0.01
469.488	-0.08
469.688	-0.01
469.888	0.05
470.088	0.05
470.288	0.07
470.488	0.02
470.688	-0.04
470.888	-0.03
471.088	-0.04
471.288	0.03
471.488	0.01
471.688	0.02
471.888	-0.03
472.088	0.05
472.288	0.01
472.488	-0.05
472.688	-0.03
472.888	-0
473.088	-0.02
473.288	-0.05
473.488	0.01
473.688	0.1
473.887	-0
474.087	-0.02
474.287	-0.02
474.487	-0.05
474.687	0.03
474.886	-0.04
475.086	-0.01
475.286	0
475.486	0.01
475.685	0.03
475.885	-0.04
476.085	-0.02
476.284	0.02
476.484	-0.05
476.684	0.02
476.883	0.04
477.083	0.02
477.282	-0.01
477.482	0.04
477.681	0.05
477.881	0.01
478.08	-0.01
478.28	-0.03
478.479	-0
478.679	0.08
478.878	-0.04
479.078	-0.03
479.277	-0.01
479.477	-0
479.676	-0.01
479.875	0
480.075	-0.02
480.274	-0
480.473	0
480.673	-0.01
480.872	0.05
481.071	0.01
481.271	-0.02
481.47	-0.05
481.669	0.01
481.868	-0.02
482.067	-0.04
482.267	-0.05
482.466	-0.03
482.665	-0.02
482.864	-0.05
483.063	-0.04
483.262	0.03
483.461	0.04
483.661	0.03
483.86	0.01
484.059	-0.03
484.258	0.02
484.457	-0.02
484.656	-0.02
484.855	0.05
485.054	-0.05
485.253	-0.04
485.452	-0.04
485.651	0.01
485.849	-0.02
486.048	-0.05
486.247	-0.04
486.446	-0.01
486.645	-0.04
486.844	-0.03
487.043	-0.04
487.241	0.01
487.44	-0.03
487.639	-0.01
487.838	0.02
488.037	0.01
488.235	0.04
488.434	-0
488.633	-0.03
488.831	0.01
489.03	0.02
489.229	0
489.427	-0.03
489.626	0.03
489.825	0.07
490.023	0.02
490.222	-0.01
490.42	0
490.619	0
490.817	0.01
491.016	-0.02
491.214	0.03
491.413	-0.01
491.611	0.01
491.81	-0
492.008	0.02
492.207	-0
492.405	-0.01
492.604	-0.06
492.802	-0.02
493	-0.02
493.199	-0.03
493.397	0.01
493.595	-0.01
493.794	-0.03
493.992	0.06
494.19	-0.01
494.388	0.02
494.587	-0.01
494.785	0.01
494.983	-0.04
495.181	-0.02
495.379	-0.01
495.578	-0.04
495.776	-0.01
495.974	0
496.172	-0.01
496.37	-0.01
496.568	-0.02
496.766	-0.01
496.964	0.04
497.162	-0
497.36	-0.02
497.558	0.01
497.756	0.02
497.954	-0
498.152	-0.02
498.35	0.01
498.548	-0.02
498.746	0.01
498.944	-0.04
499.142	-0.02
499.34	-0.02
499.538	-0.02
499.736	-0.02
499.933	0.02
500.131	0.04
500.329	0.02
500.527	0.02
500.725	0.02
500.922	-0.01
501.12	0
501.318	0.02
501.516	-0.04
501.713	-0
501.911	-0.02
502.109	-0.02
502.306	0.02
502.504	-0.01
502.701	-0.01
502.899	0
503.097	0.02
503.294	-0.01
503.492	-0.03
503.689	-0
503.887	0.03
504.084	0.04
504.282	-0.01
504.479	-0.02
504.677	-0
504.874	-0.02
505.072	0
505.269	-0
505.466	0.01
505.664	-0
505.861	-0.03
506.059	-0.03
506.256	0.01
506.453	-0.03
506.651	0.03
506.848	0.01
507.045	0.02
507.242	0
507.44	-0
507.637	0
507.834	-0.02
508.031	0.02
508.229	-0.03
508.426	0.02
508.623	0.01
508.82	-0.02
509.017	-0.02
509.214	-0
509.411	0
509.608	-0.02
509.805	-0.02
510.003	-0.01
510.2	-0.02
510.397	0.02
510.594	-0.01
510.791	-0.05
510.988	0.01
511.184	0.02
511.381	-0.01
511.578	-0.03
511.775	0.03
511.972	-0.03
512.169	-0.01
512.366	-0.01
512.563	0.02
512.76	-0.01
512.956	-0.01
513.153	-0.02
513.35	0.01
513.547	-0.01
513.744	-0.03
513.94	-0.04
514.137	0.01
514.334	0.01
514.53	-0.01
514.727	-0.01
514.924	0.05
515.12	-0.05
515.317	-0.03
515.514	-0.03
515.71	-0.03
515.907	0
516.103	-0
516.3	-0.01
516.497	-0
516.693	0.04
516.89	0.01
517.086	-0.02
517.283	0.04
517.479	-0
517.676	0.01
517.872	-0.02
518.068	-0
518.265	-0.01
518.461	-0.02
518.658	-0.01
518.854	0
519.05	0.01
519.247	-0.02
519.443	0
519.639	0.01
519.836	0
520.032	0.01
520.228	-0
520.424	0.04
520.621	0.02
520.817	-0.01
521.013	0.01
521.209	0.01
521.405	0.03
521.601	-0.01
521.798	0.01
521.994	0.02
522.19	-0.02
522.386	-0.02
522.582	0
522.778	-0.02
522.974	-0
523.17	0
523.366	-0.01
523.562	-0.01
523.758	0.02
523.954	-0.02
524.15	0.01
524.346	0.02
524.542	0
524.738	-0.01
524.934	0
525.129	0
525.325	0.02
525.521	0
525.717	0.01
525.913	0.01
526.109	-0.01
526.304	-0
526.5	0.01
526.696	0
526.892	-0.01
527.087	0.01
527.283	-0.02
527.479	-0
527.674	-0.03
527.87	0
528.066	-0
528.261	0.04
528.457	-0.01
528.653	-0.01
528.848	-0.01
529.044	0.01
529.239	0
529.435	0.04
529.63	0
529.826	0.01
530.021	-0.01
530.217	0.03
530.412	-0.03
530.608	-0.03
530.803	-0.01
530.999	-0
531.194	-0.04
531.389	-0
531.585	-0.04
531.78	0.01
531.975	0.01
532.171	0.01
532.366	-0.01
532.561	-0
532.757	-0.03
532.952	-0.01
533.147	0.02
533.342	-0
533.538	-0.02
533.733	0.03
533.928	0.01
534.123	-0
534.318	-0.01
534.513	-0.01
534.709	0
534.904	0
535.099	-0.04
535.294	0
535.489	-0
535.684	-0.02
535.879	-0.02
536.074	-0.01
536.269	-0.04
536.464	0.01
536.659	-0.03
536.854	-0
537.049	0.01
537.244	0.02
537.439	-0.01
537.634	0.02
537.828	-0.01
538.023	0
538.218	-0.04
538.413	-0.01
538.608	-0.03
538.803	0.02
538.997	-0.03
539.192	0.03
539.387	0
539.582	0
539.776	0.03
539.971	-0.02
540.166	-0.02
540.36	-0.03
540.555	-0
540.75	0
540.944	-0.02
541.139	-0.02
541.334	-0
541.528	0
541.723	0.02
541.917	-0.03
542.112	-0.03
542.306	0
542.501	-0
542.695	-0.01
542.89	-0.03
543.084	0.01
543.279	-0.01
543.473	-0.01
543.668	-0.01
543.862	-0.02
544.056	0.03
544.251	-0
544.445	0.01
544.64	-0
544.834	-0.01
545.028	-0.01
545.222	0.01
545.417	0.03
545.611	-0
545.805	0.01
546	0
546.194	-0
546.388	-0.03
546.582	-0.01
546.776	0.01
546.97	0
547.165	0
547.359	0.04
547.553	-0.01
547.747	-0.01
547.941	-0.03
548.135	-0
548.329	0.02
548.523	0.01
548.717	0.02
548.911	0.01
549.105	-0.01
549.299	0.02
549.493	0
549.687	-0.01
549.881	0.02
550.075	-0
550.269	-0.02
550.463	0.03
550.657	0
550.85	0
551.044	-0.03
551.238	-0
551.432	0.01
551.626	-0.02
551.82	0.01
552.013	-0
552.207	-0
552.401	0.01
552.594	0.01
552.788	0.01
552.982	-0.01
553.176	-0.02
553.369	0.02
553.563	0.01
553.756	-0.03
553.95	-0.03
554.144	0
554.337	0.02
554.531	0.01
554.724	-0.02
554.918	-0.01
555.111	0.03
555.305	0.02
555.498	0.03
555.692	0.03
555.885	-0.01
556.079	0
556.272	-0.02
556.466	0.04
556.659	0
556.852	-0
557.046	-0.01
557.239	0.02
557.432	-0.02
557.626	-0.02
557.819	0.02
558.012	0.04
558.206	0
558.399	0.01
558.592	0.02
558.785	-0
558.979	0.02
559.172	0
559.365	0.03
559.558	0.01
559.751	-0.01
559.944	-0
560.138	-0
560.331	-0
560.524	-0
560.717	0
560.91	0.01
561.103	0
561.296	0
561.489	0.02
561.682	-0
561.875	0.04
562.068	0.01
562.261	-0.01
562.454	0.06
562.647	0.03
562.84	0
563.032	-0
563.225	0.02
563.418	-0.02
563.611	-0
563.804	0.01
563.997	-0.02
564.19	-0.02
564.382	0.01
564.575	0.01
564.768	0.01
564.961	-0.01
565.153	-0.01
565.346	0.01
565.539	0.02
565.731	0.01
565.924	0.04
566.117	0.03
566.309	0.02
566.502	-0.01
566.695	0.01
566.887	0.04
567.08	-0.02
567.272	0.02
567.465	-0.01
567.657	0.02
567.85	0.02
568.042	0.01
568.235	0.04
568.427	-0.03
568.62	0.02
568.812	0.01
569.005	0
569.197	-0.01
569.389	0.03
569.582	0.03
569.774	0.01
569.966	-0
570.159	-0.04
570.351	0.04
570.543	-0.01
570.736	-0.01
570.928	-0.03
571.12	0.02
571.312	0.01
571.505	-0.01
571.697	0.04
571.889	-0.02
572.081	0.03
572.273	-0
572.465	0.05
572.658	0
572.85	0.02
573.042	-0.01
573.234	0.04
573.426	0.06
573.618	-0
573.81	0.02
574.002	0.08
574.194	0.07
574.386	-0.02
574.578	-0.04
574.77	0.02
574.962	0.02
575.154	-0.01
575.346	0.02
575.538	0.03
575.729	0.02
575.921	0.02
576.113	0.03
576.305	0.05
576.497	0.02
576.689	0.03
576.88	0.01
577.072	0.06
577.264	0.03
577.456	0.05
577.647	-0.01
577.839	0.03
578.031	0.07
578.223	-0.01
578.414	0.01
578.606	0.08
578.798	0.05
578.989	0.03
579.181	0.02
579.372	0.04
579.564	0.02
579.755	0.06
579.947	0.05
580.139	0.06
580.33	0.01
580.522	0.04
580.713	-0.02
580.905	0.04
581.096	0.06
581.287	0.07
581.479	0.05
581.67	0.05
581.862	0.07
582.053	0.06
582.244	0.03
582.436	0.05
582.627	0.05
582.818	0.05
583.01	0.03
583.201	0.09
583.392	0.11
583.583	0.05
583.775	0.07
583.966	0.07
584.157	0.08
584.348	0.06
584.54	0.05
584.731	0.09
584.922	0.1
585.113	0.08
585.304	0.1
585.495	0.13
585.686	0.13
585.877	0.12
586.068	0.11
586.259	0.12
586.45	0.11
586.641	0.08
586.832	0.04
587.023	0.13
587.214	0.11
587.405	0.11
587.596	0.1
587.787	0.17
587.978	0.15
588.169	0.13
588.36	0.11
588.551	0.17
588.742	0.12
588.932	0.12
589.123	0.14
589.314	0.15
589.505	0.16
589.696	0.16
589.886	0.14
590.077	0.12
590.268	0.17
590.458	0.12
590.649	0.14
590.84	0.2
591.03	0.16
591.221	0.16
591.412	0.13
591.602	0.23
591.793	0.22
591.984	0.17
592.174	0.19
592.365	0.3
592.555	0.17
592.746	0.23
592.936	0.24
593.127	0.26
593.317	0.26
593.508	0.21
593.698	0.23
593.889	0.28
594.079	0.25
594.269	0.23
594.46	0.23
594.65	0.28
594.84	0.27
595.031	0.25
595.221	0.27
595.411	0.25
595.602	0.32
595.792	0.3
595.982	0.3
596.172	0.37
596.363	0.33
596.553	0.31
596.743	0.34
596.933	0.35
597.123	0.37
597.314	0.36
597.504	0.35
597.694	0.41
597.884	0.39
598.074	0.37
598.264	0.36
598.454	0.41
598.644	0.43
598.834	0.43
599.024	0.36
599.214	0.44
599.404	0.47
599.594	0.44
599.784	0.46
599.974	0.53
600.164	0.51
600.354	0.48
600.544	0.45
600.734	0.51
600.924	0.55
601.114	0.53
601.303	0.55
601.493	0.56
601.683	0.55
601.873	0.58
602.063	0.54
602.252	0.6
602.442	0.54
602.632	0.6
602.821	0.58
603.011	0.67
603.201	0.68
603.39	0.66
603.58	0.67
603.77	0.68
603.959	0.74
604.149	0.7
604.339	0.72
604.528	0.73
604.718	0.78
604.907	0.77
605.097	0.77
605.286	0.77
605.476	0.83
605.665	0.88
605.855	0.82
606.044	0.91
606.234	0.87
606.423	0.91
606.612	0.9
606.802	0.93
606.991	0.94
607.181	0.97
607.37	0.95
607.559	0.94
607.749	0.98
607.938	1.06
608.127	1.07
608.316	1.07
608.506	1.12
608.695	1.15
608.884	1.14
609.073	1.21
609.263	1.22
609.452	1.28
609.641	1.23
609.83	1.25
610.019	1.3
610.208	1.29
610.397	1.38
610.586	1.39
610.775	1.36
610.965	1.39
611.154	1.41
611.343	1.5
611.532	1.49
611.721	1.54
611.91	1.57
612.099	1.65
612.287	1.64
612.476	1.65
612.665	1.79
612.854	1.68
613.043	1.81
613.232	1.85
613.421	1.82
613.61	1.93
613.798	1.94
613.987	2.07
614.176	1.98
614.365	2.11
614.554	2.11
614.742	2.18
614.931	2.13
615.12	2.29
615.309	2.29
615.497	2.3
615.686	2.27
615.875	2.43
616.063	2.44
616.252	2.48
616.44	2.53
616.629	2.58
616.818	2.64
617.006	2.65
617.195	2.69
617.383	2.79
617.572	2.73
617.76	2.85
617.949	2.95
618.137	3.07
618.326	3.07
618.514	3.02
618.703	3.04
618.891	3.21
619.079	3.16
619.268	3.32
619.456	3.28
619.644	3.41
619.833	3.36
620.021	3.43
620.209	3.39
620.398	3.53
620.586	3.55
620.774	3.68
620.962	3.72
621.151	3.77
621.339	3.78
621.527	3.73
621.715	3.84
621.903	3.89
622.092	3.79
622.28	4.06
622.468	3.9
622.656	3.96
622.844	4.02
623.032	4.09
623.22	4
623.408	4.16
623.596	4.17
623.784	4.21
623.972	4.12
624.16	4.1
624.348	4.23
624.536	4.29
624.724	4.12
624.912	4.25
625.1	4.17
625.288	4.2
625.476	4.13
625.664	4.18
625.851	4.08
626.039	4.1
626.227	3.99
626.415	4.02
626.603	3.95
626.79	3.92
626.978	3.96
627.166	3.91
627.354	3.71
627.541	3.74
627.729	3.57
627.917	3.7
628.104	3.61
628.292	3.48
628.48	3.45
628.667	3.29
628.855	3.35
629.042	3.22
629.23	3.09
629.418	3.06
629.605	2.94
629.793	2.86
629.98	2.77
630.168	2.71
630.355	2.6
630.543	2.6
630.73	2.42
630.917	2.34
631.105	2.37
631.292	2.27
631.48	2.17
631.667	2.15
631.854	2
632.042	1.94
632.229	1.79
632.416	1.79
632.604	1.77
632.791	1.63
632.978	1.67
633.165	1.58
633.353	1.55
633.54	1.48
633.727	1.33
633.914	1.31
634.101	1.23
634.289	1.3
634.476	1.14
634.663	1.12
634.85	1.1
635.037	1.06
635.224	0.96
635.411	1.03
635.598	0.97
635.785	0.91
635.972	0.86
636.159	0.89
636.346	0.79
636.533	0.84
636.72	0.74
636.907	0.72
637.094	0.69
637.281	0.67
637.468	0.66
637.655	0.64
637.842	0.61
638.029	0.56
638.215	0.6
638.402	0.54
638.589	0.47
638.776	0.48
638.963	0.47
639.149	0.52
639.336	0.52
639.523	0.45
639.709	0.4
639.896	0.39
640.083	0.43
640.27	0.39
640.456	0.32
640.643	0.38
640.829	0.27
641.016	0.34
641.203	0.28
641.389	0.33
641.576	0.31
641.762	0.31
641.949	0.27
642.135	0.31
642.322	0.24
642.508	0.2
642.695	0.27
642.881	0.25
643.068	0.23
643.254	0.21
643.441	0.28
643.627	0.21
643.813	0.17
644	0.22
644.186	0.16
644.372	0.16
644.559	0.21
644.745	0.18
644.931	0.15
645.118	0.16
645.304	0.17
645.49	0.13
645.676	0.15
645.862	0.12
646.049	0.2
646.235	0.16
646.421	0.24
646.607	0.17
646.793	0.12
646.979	0.1
647.165	0.09
647.352	0.11
647.538	0.16
647.724	0.1
647.91	0.12
648.096	0.13
648.282	0.16
648.468	0.09
648.654	0.1
648.84	0.08
649.026	0.06
649.212	0.09
649.397	0.05
649.583	0.06
649.769	0.09
649.955	0.07
650.141	0.12
650.327	0.11
650.513	0.03
650.698	0.09
650.884	0.02
651.07	0.08
651.256	0.04
651.442	0.06
651.627	0.03
651.813	0.11
651.999	0.07
652.184	0.09
652.37	0.03
652.556	0.04
652.741	0.1
652.927	-0.01
653.113	0.03
653.298	0.05
653.484	0.05
653.669	0.01
653.855	0.04
654.04	0.03
654.226	0.04
654.412	0.01
654.597	0.02
654.782	0.03
654.968	0.04
655.153	0.05
655.339	-0
655.524	0
655.71	0.02
655.895	0.04
656.08	0.04
656.266	0.07
656.451	0.04
656.636	-0.03
656.822	0.03
657.007	-0
657.192	0
657.378	-0.04
657.563	0.04
657.748	0.04
657.933	0.06
658.118	-0.02
658.304	-0.02
658.489	0.06
658.674	0.04
658.859	-0.03
659.044	0.04
659.229	0.01
659.414	-0.01
659.599	0.02
659.785	-0.04
659.97	0.01
660.155	0.04
660.34	0.01
660.525	0.01
660.71	0.02
660.895	0.05
661.08	0.02
661.264	-0.02
661.449	0.07
661.634	0.07
661.819	0.03
662.004	0.03
662.189	-0.06
662.374	-0
662.559	-0.06
662.743	-0.02
662.928	-0.01
663.113	-0.02
663.298	-0.05
663.483	-0.02
663.667	0.04
663.852	-0.03
664.037	0.06
664.221	-0.01
664.406	0.06
664.591	0.04
664.775	0.01
664.96	-0.01
665.145	0.01
665.329	0.01
665.514	-0.03
665.698	0.02
665.883	-0.07
666.068	0.04
666.252	0.02
666.437	-0.01
666.621	0.01
666.806	0.06
666.99	-0.02
667.174	-0.04
667.359	0.04
667.543	-0.01
667.728	0.02
667.912	-0.05
668.096	0.02
668.281	-0
668.465	-0.02
668.649	-0.03
668.834	-0.05
669.018	-0.04
669.202	-0.01
669.387	-0.01
669.571	-0.01
669.755	-0.01
669.939	0.01
670.124	0.02
670.308	0.08
670.492	0.04
670.676	-0.01
670.86	0
671.044	-0.04
671.228	0.02
671.413	-0.02
671.597	-0.02
671.781	-0.03
671.965	-0.01
672.149	-0
672.333	-0.01
672.517	-0.01
672.701	0.04
672.885	-0.02
673.069	-0.05
673.253	0.03
673.437	0
673.621	-0.07
673.804	-0.01
673.988	-0.05
674.172	0
674.356	-0.1
674.54	-0
674.724	0.1
674.908	0.01
675.091	-0.01
675.275	-0.02
675.459	0.04
675.643	0.02
675.826	-0
676.01	0.01
676.194	-0.05
676.377	0.02
676.561	0.04
676.745	0.02
676.928	-0.01
677.112	0.09
677.296	-0.01
677.479	0.01
677.663	-0.04
677.846	0.01
678.03	-0.03
678.213	-0.01
678.397	-0
678.58	-0.02
678.764	-0.04
678.947	-0.04
679.131	-0.05
679.314	0.03
679.498	-0.04
679.681	0.01
679.865	0.01
680.048	0.01
680.231	-0.01
680.415	0.02
680.598	-0.02
680.781	0.02
680.965	-0.05
681.148	0.01
681.331	-0.02
681.514	-0.01
681.698	-0.05
681.881	-0.03
682.064	0.01
682.247	-0.01
682.43	-0.07
682.614	0.06
682.797	0.03
682.98	-0.03
683.163	-0.06
683.346	0.02
683.529	-0.02
683.712	-0.07
683.895	0.07
684.078	-0.01
684.261	-0.02
684.444	0.01
684.627	0
684.81	-0.07
684.993	-0.02
685.176	0.03
685.359	-0.04
685.542	-0.01
685.725	0.08
685.908	-0.01
686.091	-0
686.274	0.04
686.457	-0.01
686.639	0.03
686.822	0.02
687.005	-0.01
687.188	-0.01
687.371	0.04
687.553	0.01
687.736	-0.04
687.919	0.06
688.102	0.08
688.284	-0.03
688.467	0.01
688.65	0.01
688.832	0.01
689.015	0
689.197	-0.06
689.38	0.06
689.563	0.05
689.745	-0.02
689.928	-0.05
690.11	0.01
690.293	-0.03
690.475	-0.1
690.658	0.01
690.84	-0.02
691.023	-0.01
691.205	-0.04
691.388	-0.05
691.57	0.08
691.752	0.03
691.935	-0.07
692.117	-0.07
692.3	0.04
692.482	-0.01
692.664	-0.04
692.847	0
693.029	0.06
693.211	0.05
693.393	-0.01
693.576	0.01
693.758	-0.01
693.94	-0.01
694.122	-0.01
694.304	-0.01
694.487	-0.02
694.669	0.05
694.851	-0.07
695.033	0.02
695.215	-0.05
695.397	-0.1
695.579	-0.03
695.761	-0.03
695.943	-0.06
696.125	0.05
696.308	0.01
696.49	-0.08
696.671	0.08
696.853	-0.03
697.035	0.08
697.217	-0.01
697.399	0.04
697.581	-0.04
697.763	-0.02
697.945	-0.05
698.127	-0.04
698.309	0.07
698.491	-0
698.672	0.06
698.854	0.05
699.036	0.04
699.218	-0.01
699.399	0.04
699.581	0.02
699.763	-0.03
699.945	-0.06
700.126	-0.01
700.308	0.01
700.49	-0.01
700.671	-0.08
700.853	0.01
701.035	-0.02
701.216	-0.02
701.398	0
701.579	-0
701.761	0.01
701.943	-0.02
702.124	-0.08
702.306	0.01
702.487	0.07
702.669	-0.03
702.85	-0.04
703.031	-0.13
703.213	0.06
703.394	0.03
703.576	-0
703.757	0.04
703.938	0.06
704.12	0.1
704.301	-0.03
704.483	-0.01
704.664	0.03
704.845	0.13
705.026	0.04
705.208	0.01
705.389	0.01
705.57	0.03
705.751	-0.03
705.933	0
706.114	0.05
706.295	-0.05
706.476	-0.07
706.657	0.08
706.838	0.04
707.02	0.03
707.201	-0.07
707.382	-0.04
707.563	0.02
707.744	-0.04
707.925	-0.04
708.106	-0.05
708.287	-0.01
708.468	0.1
708.649	0.01
708.83	0.04
709.011	0.03
709.192	0.02
709.373	-0.08
709.554	0.01
709.734	0.05
709.915	0.04
710.096	-0.01
710.277	-0.07
710.458	0
710.639	-0
710.819	-0.12
711	-0.03
711.181	0.05
711.362	0.07
711.542	-0.01
711.723	-0.02
711.904	0
712.085	0.1
712.265	-0.02
712.446	-0.12
712.627	-0.02
712.807	0.01
712.988	-0.03
713.168	-0.08
713.349	0.02
713.53	-0.16
713.71	-0.07
713.891	-0.06
714.071	-0.01
714.252	-0.03
714.432	-0.06
714.613	-0.07
714.793	-0
714.974	0.12
715.154	0.01
715.334	0.03
715.515	0.09
715.695	-0.1
715.876	0.01
716.056	-0.03
716.236	-0.01
716.417	-0.03
716.597	-0.09
716.777	0.12
716.957	-0.04
717.138	0.02
717.318	-0.05
717.498	-0.06
717.678	-0.03
717.859	0.05
718.039	-0.06
718.219	-0.02
718.399	0.03
718.579	-0.05
718.759	-0.12
718.939	0.03
719.12	-0.05
719.3	-0.02
719.48	-0.11
719.66	-0.15
719.84	0.07
720.02	-0.06
720.2	-0.07
720.38	-0.05
720.56	0.06
720.74	-0.05
720.92	0
721.1	0.1
721.279	-0
721.459	0.03
721.639	-0.09
721.819	-0.04
721.999	0.03
722.179	0.02
722.359	-0.11
722.538	0
722.718	-0.08
722.898	0
723.078	-0.02
723.257	-0.02
723.437	-0.05
723.617	-0
723.797	-0.03
723.976	-0.01
724.156	0.05
724.336	0.08
724.515	0.13
724.695	-0.15
724.874	-0.07
725.054	0.06
725.234	-0.11
725.413	0.03
725.593	0.02
725.772	-0.03
725.952	-0.09
726.131	-0.02
726.311	0
726.49	0.03
726.67	-0.15
726.849	-0.01
727.028	0.05
727.208	-0.06
727.387	0.03
727.567	-0.12
727.746	-0.01
727.925	-0.07
728.105	-0.15
728.284	-0.08
728.463	0.05
728.643	-0.02
728.822	-0.07
729.001	-0.06
729.18	-0.01
729.359	0.05
729.539	-0.05
729.718	-0.02
729.897	-0.02
730.076	-0.05
730.255	-0.1
730.434	0.04
730.614	0.11
730.793	0.01
730.972	-0.08
731.151	-0.05
731.33	0.08
731.509	0.03
731.688	0.03
731.867	0
732.046	-0.2
732.225	0.11
732.404	-0.13
732.583	-0.13
732.762	-0.03
732.941	0.11
733.12	-0.02
733.298	-0.09
733.477	-0.03
733.656	-0.01
733.835	-0.16
734.014	0.07
734.193	-0
734.371	0.1
734.55	0.02
734.729	-0.07
734.908	-0.02
735.086	0.02
735.265	0.05
735.444	-0.11
735.623	-0.09
735.801	-0.17
735.98	-0.05
736.159	-0.02
736.337	0
736.516	0.09
736.694	0
736.873	-0.04
737.052	0.12
737.23	0.12
737.409	-0.18
737.587	0.12
737.766	-0.17
737.944	-0.05
738.123	0.07
738.301	0.09
738.479	-0.06
738.658	-0.05
738.836	-0.2
739.015	0.07
739.193	0.08
739.371	-0.17
739.55	0.01
739.728	-0.07
739.906	0.02
740.085	0.07
740.263	-0.1
740.441	-0.13
740.62	0.15
740.798	0.02
740.976	-0.13
741.154	-0.12
741.332	0.1
741.511	-0.12
741.689	-0.02
741.867	-0.05
742.045	-0.05
742.223	-0.04
742.401	-0.17
742.579	-0.14
742.757	0.02
742.935	-0.11
743.114	-0.04
743.292	-0.07
743.47	-0
743.648	-0.07
743.826	-0.19
744.004	0.07
744.181	-0.05
744.359	-0.1
744.537	0.08
744.715	0
744.893	-0
745.071	0.02
745.249	-0.11
745.427	-0.05
745.605	-0.01
745.782	-0.02
745.96	0.13
746.138	-0.02
746.316	0.05
746.493	-0.06
746.671	-0.08
746.849	-0
747.027	0.05
747.204	-0.05
747.382	0.09
747.56	-0.17
747.737	-0.13
747.915	-0.15
748.093	-0
748.27	-0.06
748.448	-0.1
748.625	-0.16
748.803	-0.01
748.98	-0
749.158	-0.06
749.335	0.07
749.513	-0.05
749.69	-0.03
749.868	-0.03
750.045	0.02
750.223	-0.03
750.4	-0.24
750.578	0.12
750.755	-0
750.932	-0.22
751.11	0.19
751.287	-0.15
751.464	0.04
751.642	-0.09
751.819	0.06
751.996	0
752.173	-0.05
752.351	-0.12
752.528	-0.02
752.705	-0.06
752.882	-0.13
753.06	0.04
753.237	0.05
753.414	0.05
753.591	0.13
753.768	0.02
753.945	-0.02
754.122	-0.05
754.299	0.1
754.476	-0.14
754.654	0.01
754.831	-0.06
755.008	-0.07
755.185	-0.01
755.362	-0.14
755.539	-0.03
755.716	-0.13
755.892	0.01
756.069	-0.05
756.246	-0.06
756.423	-0.08
756.6	0.08
756.777	0.05
756.954	0.09
757.131	-0.09
757.307	-0.16
757.484	-0.1
757.661	0.02
757.838	-0.09
758.015	-0.06
758.191	0.08
758.368	0.04
758.545	0.09
758.721	0.04
758.898	-0.08
759.075	0.11
759.251	0.05
759.428	0.07
759.605	-0.07
759.781	-0.05
759.958	0.04
760.134	-0.09
760.311	-0.11
760.488	0.04
760.664	0.1
760.841	-0.08
761.017	-0.06
761.194	0.01
761.37	-0.03
761.547	-0.05
761.723	-0.06
761.899	0.11
762.076	-0.13
762.252	-0.11
762.429	-0.08
762.605	0.11
762.781	-0.12
762.958	-0.04
763.134	-0.04
763.31	-0.07
763.486	0.07
763.663	-0.21
763.839	0.09
764.015	-0.22
764.191	-0.14
764.368	-0
764.544	-0.14
764.72	0.05
764.896	0.02
765.072	-0.04
765.248	-0.03
765.425	-0.15
765.601	0.02
765.777	-0.04
765.953	-0.23
766.129	-0.02
766.305	-0.16
766.481	0.08
766.657	-0.12
766.833	0.17
767.009	-0.13
767.185	-0.04
767.361	-0.01
767.537	-0.16
767.713	0.08
767.889	-0.13
768.065	-0.12
768.24	-0.16
768.416	0.14
768.592	0.01
768.768	-0.03
768.944	0.02
769.12	-0.24
769.295	-0.11
769.471	0.02
769.647	-0.21
769.823	0.08
769.998	-0.09
770.174	-0.16
770.35	0.22
770.525	0.28
770.701	0.03
770.877	0.04
771.052	-0.06
771.228	0.05
771.403	0.07
771.579	0
771.755	0.23
771.93	-0.12
772.106	-0.12
772.281	-0.31
772.457	-0
772.632	-0.04
772.808	-0.15
772.983	-0.15
773.159	-0.11
773.334	0.1
773.509	0.1
773.685	-0.04
773.86	0.16
774.036	0.29
774.211	-0.12
774.386	0.05
774.562	-0.18
774.737	0.07
774.912	-0.2
775.087	0.1
775.263	-0.04
775.438	0.02
775.613	-0.34
775.788	-0.1
775.964	0.13
776.139	0.27
776.314	-0.22
776.489	-0.08
776.664	0.06
776.839	-0.24
777.014	-0.04
777.19	0.11
777.365	0.21
777.54	0.08
777.715	-0.31
777.89	0.09
778.065	-0.15
778.24	0.09
778.415	0.24
778.59	-0.24
778.765	-0.02
778.94	-0.11
779.115	-0.08
779.289	-0.15
779.464	-0.06
779.639	-0.02
779.814	-0.13
779.989	-0.3
780.164	0.06
780.339	-0.01
780.513	-0.13
780.688	-0.18
780.863	-0.01
781.038	0.14
781.212	-0.15
781.387	0.04
781.562	0.28
781.737	-0.12
781.911	0.14
782.086	-0.07
782.261	-0
782.435	0.31
782.61	-0.13
782.784	-0.06
782.959	0.06
783.134	-0.15
783.308	-0.23
783.483	-0.14
783.657	0.21
783.832	0.23
784.006	-0.49
784.181	0
784.355	0.14
784.53	-0.33
784.704	-0.04
784.878	0.18
785.053	0.17
785.227	0.07
785.402	0.15
785.576	-0.18
785.75	-0.03
785.925	-0.16
786.099	0.04
786.273	0.14
786.448	0.09
786.622	0.13
786.796	-0.04
786.97	-0.07
787.145	0.32
787.319	-0.4
787.493	-0.08
787.667	-0.47
787.841	-0.05
788.015	0.06
788.19	0.1
788.364	0.15
788.538	0.06
788.712	0.1
788.886	-0.16
789.06	0.2
789.234	-0.09
789.408	-0.12
789.582	0.05
789.756	-0.15
789.93	-0.18
790.104	-0.15
790.278	-0.12
790.452	-0.16
790.626	0.07
790.8	-0.14
790.973	0.01
791.147	0.24
791.321	0.14
791.495	0.02
791.669	-0.19
791.843	0.16
792.016	-0.16
792.19	0.34
792.364	-0.18
792.538	0.53
792.711	0.16
792.885	-0.19
793.059	-0.3
793.233	-0.54
793.406	0.24
793.58	-0.01
793.754	0.09
793.927	-0.14
794.101	0.11
794.274	-0.1
794.448	0.23
794.622	-0.08
794.795	0.05
794.969	-0.21
795.142	0.23
795.316	-0.31
795.489	-0.02
795.663	0.32
795.836	-0.22
796.009	-0.13
796.183	0.29
796.356	0.01
796.53	0.13
796.703	-0.21
796.876	0.35
797.05	0.21
797.223	0.01
797.396	-0.02
797.57	-0.05
797.743	0.22
797.916	-0.01
798.09	0.07
798.263	0.29
798.436	0.06
798.609	-0.19
798.782	-0.31
798.956	0.11
799.129	0.04
799.302	-0.26
799.475	-0.07
799.648	-0.3
799.821	-0.12
799.994	-0.11
800.167	-0.52
800.34	-0.03
800.514	-0.03
800.687	-0.42
800.86	-0.17
801.033	0.05
801.206	0.06
801.379	-0.05
801.551	0.25
801.724	0.12
801.897	0.02
802.07	-0.27
802.243	-0.43
802.416	-0.11
802.589	-0.22
802.762	0.02
802.935	-0.08
803.107	0.26
803.28	0.01
803.453	0.38
803.626	-0.2
803.798	-0.25
803.971	-0.25
804.144	-0.31
804.317	0.42
804.489	0.15
804.662	0.07
804.835	-0.02
805.007	-0.61
805.18	0.39
805.353	-0.04
805.525	-0.45
805.698	-0.09
805.87	0.34
806.043	0.4
806.215	-0.41
806.388	-0.07
806.56	0.27
806.733	0.28
806.905	-0.36
807.078	0.23
807.25	-0.3
807.423	0.05
807.595	-0.21
807.768	0.26
807.94	0.16
808.112	0.3
808.285	-0.01
808.457	-0.23
808.629	0.01
808.802	0.25
808.974	-0.15
809.146	-0.13
809.318	-0.51
809.491	0.23
809.663	0.08
809.835	-0.32
810.007	0.38
810.18	0.02
810.352	-0.58
810.524	-0.21
810.696	0.13
810.868	0.35
811.04	-0.3
811.212	-0.31
811.384	-0.09
811.556	-0.07
811.728	-0.1
811.901	0.33
812.073	-0.26
812.245	0.27
812.417	0.03
812.589	-0.56
812.76	0.07
812.932	0.03
813.104	0.17
813.276	-0.22
813.448	0.14
813.62	-0.08
813.792	-0.17
813.964	-0.15
814.136	0.15
814.307	-0.01
814.479	-0.09
814.651	-0.12
814.823	0.51
814.995	-0.32
815.166	-0.14
815.338	-0.01
815.51	-0.54
815.681	0.72
815.853	-0.12
816.025	-0.18
816.196	0.23
816.368	0.06
816.54	-0.59
816.711	-0.7
816.883	-0.04
817.054	1
817.226	-0.64
817.398	0.36
817.569	-0.5
817.741	0.19
817.912	0.04
818.084	-0.24
818.255	0.15
818.426	-0.31
818.598	-0.34
818.769	-0.51
818.941	0.14
819.112	0.51
819.283	0.12
819.455	-0.36
819.626	-0.1
819.798	0.2
819.969	-0.05
820.14	-0.15
820.311	0.2
820.483	-0.04
820.654	0.14
820.825	0.19
820.996	-0.12
821.168	-0.59
821.339	-0.25
821.51	-0.28
821.681	-0.2
821.852	-0.22
822.023	-0.45
822.195	-0.19
822.366	0.2
822.537	-0.1
822.708	0.26
822.879	-0.34
823.05	0.78
823.221	-0.48
823.392	0.11
823.563	-0.47
823.734	0.16
823.905	-0.05
824.076	0.02
824.247	-0.27
824.418	-0.04
824.589	0.79
824.759	-0.37
824.93	0.13
825.101	-0.31
825.272	0.35
825.443	0.1
825.614	0.51
825.784	-1.02
825.955	0.65
826.126	0.79
826.297	0.12
826.467	0.66
826.638	0.14
826.809	-1.02
826.98	0.4
827.15	-0.2
827.321	-0.19
827.492	0.74
827.662	0.33
827.833	0.64
828.003	-0.09
828.174	-1.01
828.345	-1.01
828.515	0.43
828.686	0.17
828.856	0.16
829.027	-0.45
829.197	0.43
829.368	-0.06
829.538	-0.17
829.709	0.13
829.879	0.3
830.049	0.17
830.22	-0.66
830.39	-0.43
830.56	0.35
830.731	-0.3
830.901	-1
831.072	-0.27
831.242	0.01
831.412	-0.02
831.582	-0.35
831.753	-0.61
831.923	0.25
832.093	-0.54
832.263	-0.5
832.434	-0.54
832.604	-0.21
832.774	0.25
832.944	0.07
833.114	-0.58
833.284	-0.23
833.454	-0.5
833.624	-0.5
833.795	0.32
833.965	-0.13
834.135	-0.19
834.305	-0.77
834.475	-0.38
834.645	-0.38
834.815	-0.04
834.985	-1.24
835.155	-0.22
835.325	0.43
835.494	0.13
835.664	-0.13
835.834	-0.75
836.004	-0.43
836.174	-0.37
836.344	-0.44
836.514	-0.53
836.684	-0.38
836.853	0.13
837.023	-0.11
837.193	-0.66
837.363	0.28
837.532	0.68
837.702	-0.21
837.872	-0.4
838.041	0.82
838.211	1.17
838.381	-0.65
838.55	0.03
838.72	1.31
838.89	0.97
839.059	0.64
839.229	-0.07
839.398	1.82
839.568	-0.32
839.738	-0.31
839.907	1.12
840.077	0.13
840.246	0.06
840.416	-0.11
840.585	-0.61
840.755	0.46
840.924	0.95
841.093	-1.13
841.263	-0.34
841.432	-0.23
841.602	-0.96
841.771	-1.07
841.94	-0.27
842.11	1.9
842.279	1.41
842.448	-1.32
842.617	-1.02
842.787	0.8
842.956	-1.2
843.125	-0.33
843.294	0
843.464	1
843.633	-0.2
843.802	-0.46
843.971	-0.18
844.14	0.35
844.309	0.49
844.479	-1.03
844.648	-0.9
844.817	-0.66
844.986	-0.15
845.155	-0.42
845.324	-0.33
845.493	-0.46
845.662	-0.68
845.831	-0.31
846	1.04
846.169	0.02
846.338	1.16
846.507	0.36
846.676	-0.2
846.844	-1.3
847.013	1.56
847.182	0.03
847.351	-1.11
847.52	-0.9
847.689	1.04
847.858	-0.48
848.026	-0.33
848.195	-0.17
848.364	-1.05
848.533	-0.87
848.701	-1.36
848.87	0.28
849.039	0.06
849.207	1.67
849.376	0.62
849.545	-0.05
849.713	-0.53
849.882	-0.38
850.051	0.42
850.219	0.55
850.388	-0.07
850.556	-0.59
850.725	-0.93
850.893	0.99
851.062	-0.33
851.23	0.17
851.399	-1.04
851.567	0.14
851.736	-1.29
851.904	-0.83
852.073	-1.02
852.241	-0.41
852.41	0.19
852.578	-0.34
852.746	-0.04
852.915	-0.19
853.083	0.36
853.251	-1.87
853.42	0
853.588	-0.03
853.756	0.22
853.924	-0.4
854.093	-0.82
854.261	0.91
854.429	-0.28
854.597	0.95
854.765	-1.67
854.934	0.78
855.102	1.25
855.27	-0.17
855.438	1.15
855.606	0.39
855.774	1.23
855.942	-1.6
856.11	-1.8
856.278	0.14
856.446	1.26
856.614	0.45
856.782	-0.82
856.95	-0.3
857.118	-0.28
857.286	1.1
857.454	-1.31
857.622	0.58
857.79	-1.29
857.958	-0.83
858.126	-0.35
858.294	-2.18
858.462	-0.76
858.629	-0.89
858.797	-1.52
858.965	-0.15
859.133	0.25
859.301	-0.67
859.468	0.39
859.636	-1.19
859.804	0.61
859.971	1.43
860.139	-0.66
860.307	0.25
860.474	1.44
860.642	-0.42
860.81	-1.19
860.977	-0.56
861.145	0.61
861.313	0.4
861.48	-0.5
861.648	0.51
861.815	-0.88
861.983	-1.76
862.15	0.17
862.318	-0.02
862.485	1.9
862.653	-0.48
862.82	-0.08
862.988	1.83
863.155	1.77
863.322	-1.1
863.49	-2.48
863.657	-1.24
863.824	0.4
863.992	0.66
864.159	-0.26
864.326	1.69
864.494	-0.87
864.661	3.12
864.828	-1.65
864.996	1.08
865.163	1.65
865.33	-2.89
865.497	-3.4
865.664	-0.53
865.832	-1.85
865.999	0.06
866.166	-1.23
866.333	-0.77
866.5	-1.35
866.667	-1.17
866.834	-0.46
867.001	-0.21
867.168	-1.17
867.335	-0.81
867.502	-1.17
867.669	0.67
867.836	2.11
868.003	-0.72
868.17	-0.34
868.337	0.64
868.504	1.52
868.671	-1.6
868.838	-0.23
869.005	0.26
869.172	-0.42
869.339	0.28
869.505	-1.23
869.672	0.13
869.839	0.76
870.006	0.63
870.173	-2.55
870.339	-0.33
870.506	2.61
870.673	-0.79
870.84	1.75
871.006	-0.25
871.173	0.18
871.34	-0.03
871.506	-1.72
871.673	-0.45
871.839	-0.95
872.006	-0.96
872.173	-0.39
872.339	1.14
872.506	0.76
872.672	-1.26
872.839	-0.45
873.005	1.08
873.172	1.65
873.338	2.09
873.505	-0.53
873.671	-1.78
873.838	0.04
874.004	-2.57
874.171	-0.66
874.337	-0.62
874.503	1.27
874.67	-0.84
874.836	-2.36
875.002	1.85
875.169	2.31
875.335	-0.23
875.501	-1.47
875.668	1.23
875.834	-0.39
876	-0.91
876.166	-0.3
876.332	0.68
876.499	2.2
876.665	-0.56
876.831	-0.97
876.997	2.27
877.163	0.28
877.329	-1.63
877.495	1.08
877.662	0.97
877.828	0.57
877.994	0.08
878.16	-2.57
878.326	-0.96
878.492	-0.2
878.658	-0.17
878.824	-0.93
878.99	0.48
879.156	-1.43
879.322	0.62
879.487	-1.25
879.653	-0.17
879.819	0.77
879.985	-2.41
880.151	0.09
880.317	0.34
880.483	0.02
880.648	1.27
880.814	-2.13
880.98	1.16
881.146	-3.7
881.312	-1.84
881.477	-1.8
881.643	-0.02
881.809	2.6
881.974	1.45
882.14	-1.41
882.306	-0.86
882.471	2.41
882.637	-3.29
882.803	1.13
882.968	3.24
883.134	1.89
883.299	1.31
883.465	1.01
883.63	0.28
883.796	0.9
883.961	0.43
884.127	1.02
884.292	-4.03
884.458	-1.62
884.623	-1.62
