Data from Apollo_Calib_20240827__AbsoluteIrradiance__634__09-43-00-915.txt Node

Date: Wed Aug 28 09:43:00 BST 2024
User: biology
Spectrometer: FLMT08252
Trigger mode: 0
Integration Time (sec): 5.000000E-1
Scans to average: 5
Electric dark correction enabled: true
Nonlinearity correction enabled: false
Boxcar width: 0
XAxis mode: Wavelengths
Number of Pixels in Spectrum: 3648
>>>>>Begin Spectral Data<<<<<
179.588	-0
179.809	-0
180.03	-0
180.251	-0
180.473	-0
180.694	0
180.915	0
181.136	-0
181.357	0
181.578	-0
181.799	-0
182.02	-0
182.241	0
182.462	-0
182.683	0
182.904	-0
183.125	-0
183.346	0
183.567	-0
183.788	-0
184.009	-0
184.23	0
184.451	-0
184.672	-0
184.892	-0
185.113	-0
185.334	0
185.555	-0
185.776	-0
185.996	-0
186.217	-0
186.438	-0
186.659	-0
186.879	-0
187.1	-0
187.321	-0
187.541	-0
187.762	-0
187.983	-0
188.203	-0
188.424	-0
188.644	-0
188.865	-0
189.086	-0
189.306	-0
189.527	-0
189.747	-0
189.968	-0
190.188	-0
190.409	0
190.629	0
190.849	-0
191.07	-0
191.29	0
191.511	-0
191.731	-0
191.951	-0
192.172	0
192.392	-0
192.612	-0
192.833	-0
193.053	0
193.273	0
193.493	-0
193.714	-0
193.934	0
194.154	0
194.374	-0
194.594	-0
194.815	-0
195.035	-0
195.255	-0
195.475	-0
195.695	0
195.915	0
196.135	-0
196.355	0
196.575	0
196.795	0
197.015	-0
197.235	-0
197.455	-0
197.675	0
197.895	-0
198.115	-0
198.335	0
198.555	-0
198.775	0
198.995	0
199.214	0
199.434	-0
199.654	-0
199.874	-0
200.094	0.64
200.313	-0.5
200.533	-1.05
200.753	-0.98
200.973	0.93
201.192	-0.15
201.412	-0.89
201.632	-0.68
201.851	0.93
202.071	-0.49
202.291	-0.13
202.51	-0.89
202.73	-0
202.95	-0.41
203.169	-0.97
203.389	0.06
203.608	-0.22
203.828	-0.29
204.047	-0.45
204.267	0.33
204.486	-0.28
204.706	-0.14
204.925	-0.04
205.145	-0.38
205.364	0.49
205.583	0.27
205.803	-0.24
206.022	-0.34
206.242	-0.04
206.461	-0.06
206.68	-0.41
206.9	0.01
207.119	0.28
207.338	0.17
207.557	-0.3
207.777	0.2
207.996	-0.15
208.215	0.16
208.434	-0.4
208.654	-0.63
208.873	0.17
209.092	0.09
209.311	-0.2
209.53	-0.17
209.749	-0.2
209.968	-0.39
210.187	-0.07
210.407	-0.44
210.626	-0.43
210.845	-0.02
211.064	0.02
211.283	-0.32
211.502	0.05
211.721	0.01
211.94	-0.09
212.159	0.21
212.377	0.19
212.596	0.1
212.815	0.01
213.034	0.19
213.253	0.19
213.472	-0.13
213.691	-0.26
213.91	-0.43
214.128	-0.14
214.347	0.17
214.566	-0.51
214.785	-0.33
215.003	0.11
215.222	-0.03
215.441	-0.13
215.66	-0.28
215.878	-0.01
216.097	0.22
216.316	-0.29
216.534	-0.12
216.753	-0.07
216.972	-0.06
217.19	-0.06
217.409	-0.35
217.627	-0.18
217.846	-0.17
218.064	-0.14
218.283	-0.2
218.501	0.17
218.72	0.2
218.938	-0.48
219.157	-0.06
219.375	0.11
219.594	0.11
219.812	-0.35
220.031	-0.3
220.249	0.18
220.467	0.17
220.686	-0.02
220.904	-0.29
221.122	-0.29
221.341	0.22
221.559	-0.02
221.777	-0.18
221.995	-0.09
222.214	-0.04
222.432	-0.15
222.65	-0.08
222.868	0.07
223.086	0.05
223.305	0.1
223.523	-0.05
223.741	0.08
223.959	-0.29
224.177	-0.3
224.395	-0.12
224.613	-0.13
224.831	0.08
225.049	-0.19
225.267	-0.18
225.485	0.03
225.703	0
225.921	-0.02
226.139	-0.03
226.357	0.1
226.575	-0.08
226.793	-0.06
227.011	0.4
227.229	-0.02
227.447	0.08
227.665	-0.07
227.883	-0.2
228.1	-0.04
228.318	0.03
228.536	-0.3
228.754	-0.19
228.972	0.07
229.189	0.11
229.407	-0.11
229.625	-0.04
229.843	0.1
230.06	0.14
230.278	-0.19
230.496	-0.03
230.713	-0.08
230.931	0.14
231.149	-0.06
231.366	-0.22
231.584	-0.04
231.801	0.21
232.019	0.08
232.236	-0.17
232.454	-0.21
232.671	0.01
232.889	-0.06
233.106	-0.17
233.324	-0.03
233.541	0.08
233.759	-0.08
233.976	-0.13
234.194	-0.07
234.411	-0.07
234.628	-0.14
234.846	-0.09
235.063	-0.09
235.28	-0.07
235.498	-0.05
235.715	-0.14
235.932	0.02
236.149	-0.05
236.367	-0.23
236.584	-0
236.801	-0.17
237.018	-0.07
237.236	0.01
237.453	-0.25
237.67	0
237.887	-0.04
238.104	-0.06
238.321	-0.19
238.538	-0.08
238.755	0.13
238.973	-0.16
239.19	0
239.407	0.03
239.624	0.03
239.841	-0.12
240.058	-0.14
240.275	0.16
240.492	-0.05
240.709	0.01
240.925	0.04
241.142	-0.04
241.359	-0.17
241.576	-0.1
241.793	-0.11
242.01	-0.07
242.227	0.07
242.444	0.02
242.66	0
242.877	0.03
243.094	-0.11
243.311	0.04
243.527	-0.06
243.744	-0.02
243.961	0.11
244.178	-0.1
244.394	-0.08
244.611	0.13
244.828	0.13
245.044	-0.09
245.261	-0.05
245.477	-0.02
245.694	0.01
245.911	-0.07
246.127	-0.05
246.344	0.08
246.56	0.04
246.777	-0.01
246.993	-0.05
247.21	-0.05
247.426	0.12
247.643	-0.11
247.859	-0.12
248.076	-0.06
248.292	-0
248.508	-0.08
248.725	-0.09
248.941	0.01
249.157	0.13
249.374	-0.03
249.59	-0.05
249.806	-0.06
250.023	-0.01
250.239	-0.14
250.455	-0.17
250.671	0.08
250.888	0.05
251.104	0.07
251.32	-0.14
251.536	-0.03
251.752	-0.1
251.969	-0.06
252.185	-0.03
252.401	0.13
252.617	0.01
252.833	-0.06
253.049	-0.02
253.265	-0.05
253.481	0.05
253.697	-0.09
253.913	-0.16
254.129	-0.01
254.345	-0.03
254.561	-0.08
254.777	-0.04
254.993	0.02
255.209	-0.04
255.425	-0.09
255.641	-0.1
255.857	0.03
256.073	-0.07
256.288	-0.1
256.504	-0.04
256.72	0.02
256.936	0.01
257.152	-0.04
257.367	-0.15
257.583	-0.03
257.799	0.02
258.015	-0.06
258.23	-0.05
258.446	0.12
258.662	0.03
258.877	-0.09
259.093	-0.09
259.309	-0.03
259.524	0
259.74	-0.05
259.955	-0.1
260.171	-0.03
260.387	0
260.602	0.14
260.818	0.03
261.033	-0.1
261.249	0
261.464	-0.12
261.68	-0.12
261.895	-0.07
262.11	0.06
262.326	-0.13
262.541	-0.16
262.757	0.03
262.972	0.02
263.187	-0.03
263.403	-0.02
263.618	0.02
263.833	-0.02
264.049	-0.11
264.264	-0.03
264.479	0.05
264.694	0.04
264.91	-0.13
265.125	-0.01
265.34	0.05
265.555	0.12
265.77	0.01
265.986	-0.06
266.201	0.05
266.416	0
266.631	-0.08
266.846	0.03
267.061	-0.01
267.276	0.06
267.491	-0.15
267.706	-0
267.921	0.03
268.136	0.04
268.351	-0.06
268.566	-0.13
268.781	0.04
268.996	0.02
269.211	-0.02
269.426	-0.06
269.641	-0.07
269.856	-0.04
270.071	-0.1
270.285	-0.09
270.5	0.01
270.715	0.07
270.93	-0.07
271.145	-0.07
271.359	0.08
271.574	-0.13
271.789	-0.1
272.004	-0.02
272.218	-0.03
272.433	-0.04
272.648	-0.13
272.862	0.09
273.077	-0.06
273.292	-0.01
273.506	-0.09
273.721	-0.05
273.936	0.03
274.15	0.06
274.365	-0.09
274.579	0.06
274.794	-0.01
275.008	-0.01
275.223	-0.07
275.437	-0.02
275.652	0.04
275.866	0.03
276.081	-0.05
276.295	0.03
276.509	-0
276.724	-0.08
276.938	0.05
277.153	-0.03
277.367	0.09
277.581	-0.04
277.796	-0.08
278.01	-0.05
278.224	0.03
278.438	0.07
278.653	-0.12
278.867	-0.06
279.081	-0.2
279.295	-0.02
279.51	-0.02
279.724	-0.08
279.938	0.05
280.152	-0.02
280.366	-0.04
280.58	0.01
280.794	0.05
281.008	0.04
281.222	0.08
281.437	0.1
281.651	0.03
281.865	0.1
282.079	-0.01
282.293	-0.14
282.507	-0.05
282.721	-0.05
282.935	-0
283.148	-0.12
283.362	-0.1
283.576	-0.08
283.79	-0
284.004	-0.06
284.218	0.06
284.432	-0.06
284.646	-0.04
284.859	-0.03
285.073	-0.02
285.287	0.03
285.501	-0.07
285.714	0.01
285.928	0.01
286.142	-0.07
286.356	-0.06
286.569	-0.04
286.783	0.06
286.997	0.06
287.21	-0
287.424	0.03
287.637	-0.01
287.851	-0.02
288.065	0.05
288.278	0.02
288.492	-0.08
288.705	-0.01
288.919	-0.02
289.132	-0.03
289.346	-0.02
289.559	-0.06
289.773	-0.09
289.986	-0.04
290.2	-0.05
290.413	0.03
290.626	-0.07
290.84	-0.03
291.053	-0.05
291.267	0.03
291.48	0.01
291.693	0.02
291.906	-0.04
292.12	-0.02
292.333	-0.07
292.546	-0.04
292.76	0.05
292.973	0.03
293.186	0.01
293.399	-0.1
293.612	0.01
293.826	-0.01
294.039	0.01
294.252	0.01
294.465	-0
294.678	0.01
294.891	-0.02
295.104	-0.07
295.317	-0.04
295.53	0.01
295.743	-0.01
295.956	-0.02
296.169	0.08
296.382	0.01
296.595	-0.05
296.808	-0.05
297.021	0.08
297.234	-0.03
297.447	-0.04
297.66	-0
297.873	0.02
298.086	-0
298.299	-0.05
298.511	-0.06
298.724	-0
298.937	-0.05
299.15	-0.05
299.363	0.03
299.575	0.02
299.788	-0.02
300.001	-0.03
300.213	-0.1
300.426	-0.03
300.639	-0.02
300.852	-0.04
301.064	0.02
301.277	0.03
301.489	0.04
301.702	-0.03
301.915	0
302.127	0.05
302.34	0.01
302.552	0.01
302.765	-0.05
302.977	0.03
303.19	-0.01
303.402	0.01
303.615	-0.03
303.827	-0.05
304.04	-0.03
304.252	0.04
304.464	-0.05
304.677	0.11
304.889	0.03
305.102	-0.01
305.314	-0.03
305.526	0.04
305.739	0.03
305.951	-0.03
306.163	-0.04
306.375	0.1
306.588	-0.09
306.8	-0.06
307.012	-0.02
307.224	0.02
307.436	0.07
307.649	-0.07
307.861	0.02
308.073	0.01
308.285	-0.03
308.497	-0.05
308.709	-0.01
308.921	0
309.133	0.06
309.346	-0.03
309.558	-0.01
309.77	-0
309.982	0.03
310.194	0.01
310.406	-0.04
310.617	0.04
310.829	-0.01
311.041	-0.02
311.253	-0.06
311.465	-0.01
311.677	-0.02
311.889	0.02
312.101	-0.04
312.313	0.04
312.524	0.04
312.736	-0.09
312.948	-0.05
313.16	0.04
313.372	-0
313.583	0.01
313.795	-0.03
314.007	-0.05
314.218	0.02
314.43	-0.01
314.642	-0.04
314.853	-0.04
315.065	0.04
315.277	-0.04
315.488	-0.01
315.7	0.05
315.912	0.02
316.123	-0.03
316.335	-0
316.546	0.09
316.758	-0.04
316.969	-0.01
317.181	-0.05
317.392	-0.02
317.604	0.04
317.815	-0.06
318.026	-0.07
318.238	-0.04
318.449	0
318.661	-0.07
318.872	-0.08
319.083	-0.06
319.295	-0.01
319.506	-0.07
319.717	0
319.929	0.01
320.14	-0.02
320.351	-0.01
320.562	-0.04
320.774	-0.02
320.985	0.03
321.196	-0.06
321.407	-0.09
321.618	0.03
321.829	-0
322.041	0.01
322.252	-0.04
322.463	0.05
322.674	0.02
322.885	-0.04
323.096	-0.02
323.307	-0.02
323.518	-0.01
323.729	-0.01
323.94	-0.02
324.151	-0.05
324.362	-0.01
324.573	-0.02
324.784	-0.01
324.995	0.01
325.206	0.03
325.417	-0.03
325.628	-0.04
325.838	-0.01
326.049	-0.04
326.26	0.02
326.471	-0.03
326.682	0.01
326.892	0.01
327.103	-0.05
327.314	-0.03
327.525	0.02
327.735	-0.05
327.946	0
328.157	-0.03
328.368	0
328.578	-0.05
328.789	0.01
328.999	-0.03
329.21	-0.04
329.421	0.01
329.631	-0.03
329.842	-0.08
330.052	-0.01
330.263	0.04
330.473	0.04
330.684	-0.01
330.894	-0.02
331.105	0.01
331.315	-0.01
331.526	-0.1
331.736	0.08
331.947	-0.01
332.157	-0
332.367	-0.04
332.578	0.03
332.788	0.07
332.999	0.03
333.209	0.01
333.419	-0.05
333.629	-0.02
333.84	0.04
334.05	-0.01
334.26	0.05
334.47	-0.03
334.681	0.05
334.891	-0.02
335.101	0.02
335.311	0.05
335.521	-0.02
335.732	-0.03
335.942	0.05
336.152	0
336.362	0.02
336.572	-0.01
336.782	0.04
336.992	0
337.202	-0.02
337.412	-0.03
337.622	0.02
337.832	0.03
338.042	-0
338.252	-0.04
338.462	-0.04
338.672	0.01
338.882	-0.03
339.092	-0.04
339.302	0.03
339.511	0.03
339.721	-0.05
339.931	-0.05
340.141	0.05
340.351	0.04
340.561	0.04
340.77	-0.04
340.98	-0.01
341.19	0.05
341.4	-0.04
341.609	-0.04
341.819	-0.03
342.029	-0.07
342.238	-0
342.448	-0.05
342.658	0.02
342.867	0
343.077	0.03
343.286	-0.02
343.496	0.02
343.706	0.05
343.915	-0.06
344.125	-0.02
344.334	0.01
344.544	-0.04
344.753	-0.03
344.963	-0.05
345.172	-0.01
345.381	-0.05
345.591	-0.02
345.8	-0.02
346.01	0.03
346.219	0
346.428	-0.12
346.638	0.01
346.847	0.02
347.056	0.05
347.266	-0.03
347.475	0
347.684	0.02
347.893	0.01
348.103	0.02
348.312	0.01
348.521	0.01
348.73	-0.04
348.94	0.01
349.149	-0.03
349.358	-0.01
349.567	-0.02
349.776	-0.04
349.985	-0.01
350.194	0
350.403	-0.01
350.612	-0.04
350.821	-0
351.03	0.02
351.239	-0.06
351.448	-0.03
351.657	-0.03
351.866	0.05
352.075	-0.02
352.284	0.05
352.493	-0.03
352.702	0.03
352.911	-0.02
353.12	-0.01
353.329	-0.02
353.538	0.02
353.746	-0.01
353.955	-0.04
354.164	0
354.373	-0.01
354.582	0.03
354.79	-0.01
354.999	0.04
355.208	-0.03
355.416	0.03
355.625	-0.05
355.834	-0.04
356.042	-0.03
356.251	-0.04
356.46	-0.04
356.668	0.04
356.877	0.07
357.085	-0
357.294	-0.08
357.503	-0.01
357.711	0
357.92	0.11
358.128	0.01
358.337	-0
358.545	-0
358.754	-0.05
358.962	0.05
359.17	-0.01
359.379	-0.01
359.587	-0
359.796	-0.02
360.004	0.03
360.212	0.03
360.421	0.01
360.629	-0.02
360.837	-0.03
361.046	0.01
361.254	0.08
361.462	-0.01
361.67	-0.03
361.879	0.03
362.087	0.03
362.295	0.03
362.503	-0.04
362.711	-0.07
362.92	-0.04
363.128	-0.05
363.336	-0.05
363.544	-0.04
363.752	-0.03
363.96	-0.04
364.168	-0.04
364.376	0.02
364.584	0
364.792	-0.04
365	0.04
365.208	-0.02
365.416	0.02
365.624	0.03
365.832	-0.03
366.04	0.06
366.248	0
366.456	0.01
366.664	0.02
366.872	-0.01
367.079	-0.01
367.287	-0.01
367.495	-0.01
367.703	-0.02
367.911	-0.04
368.118	-0.03
368.326	-0.04
368.534	-0.06
368.742	0.05
368.949	-0.04
369.157	-0.05
369.365	-0.02
369.572	-0.04
369.78	-0.08
369.988	0.06
370.195	-0.01
370.403	0.01
370.61	-0.04
370.818	0
371.026	-0.01
371.233	-0.05
371.441	0
371.648	-0.03
371.856	0.01
372.063	0.01
372.271	-0.02
372.478	-0.04
372.685	-0.06
372.893	-0.03
373.1	-0.02
373.308	0.02
373.515	0.05
373.722	-0.04
373.93	-0.01
374.137	0.02
374.344	0.08
374.552	0.03
374.759	0.01
374.966	-0.01
375.173	-0.04
375.381	0.04
375.588	-0
375.795	-0.05
376.002	-0.05
376.209	-0.03
376.417	-0
376.624	-0.03
376.831	0.05
377.038	0.01
377.245	-0.06
377.452	-0.05
377.659	-0.02
377.866	-0.03
378.073	-0.03
378.28	0.02
378.487	0.02
378.694	0.03
378.901	-0
379.108	-0.05
379.315	0.03
379.522	0.06
379.729	-0.03
379.936	-0.01
380.143	0
380.35	0.04
380.557	-0.03
380.763	0.01
380.97	-0.04
381.177	0.01
381.384	0.01
381.591	-0.06
381.797	-0.01
382.004	-0.01
382.211	0.01
382.418	-0.03
382.624	0.06
382.831	0.01
383.038	-0.02
383.244	0.01
383.451	-0.01
383.658	0.07
383.864	-0.04
384.071	-0.05
384.277	0.07
384.484	-0.04
384.69	0.02
384.897	-0.05
385.103	-0.01
385.31	-0.02
385.516	-0.03
385.723	-0.04
385.929	-0.02
386.136	-0.02
386.342	-0.03
386.549	0.01
386.755	0.05
386.961	0
387.168	-0.04
387.374	-0.01
387.58	-0.02
387.787	-0.04
387.993	-0.01
388.199	-0.05
388.406	-0.05
388.612	-0.04
388.818	-0.07
389.024	-0.05
389.231	0.01
389.437	0.04
389.643	0.03
389.849	-0.04
390.055	-0.02
390.261	0.01
390.467	-0.03
390.674	-0.05
390.88	0.01
391.086	0.05
391.292	-0.06
391.498	0
391.704	-0.03
391.91	-0.01
392.116	-0.02
392.322	-0.07
392.528	0.03
392.734	0
392.94	-0
393.146	-0.04
393.352	-0.03
393.557	-0.03
393.763	-0.03
393.969	0.01
394.175	-0.02
394.381	0.01
394.587	-0.06
394.792	0
394.998	0.01
395.204	0.04
395.41	-0.07
395.615	0.04
395.821	-0.02
396.027	-0.03
396.233	-0.07
396.438	-0.05
396.644	0.06
396.85	0.03
397.055	-0.03
397.261	-0.05
397.466	-0.04
397.672	-0.01
397.878	0.02
398.083	0.01
398.289	-0.03
398.494	-0.02
398.7	-0.01
398.905	-0.07
399.111	0.04
399.316	-0.06
399.522	-0.03
399.727	-0.04
399.932	-0.02
400.138	-0.04
400.343	0.03
400.549	0.01
400.754	0.01
400.959	0.01
401.165	-0.03
401.37	-0.02
401.575	0.08
401.78	-0
401.986	-0.01
402.191	-0.02
402.396	-0.04
402.601	0.02
402.807	0.04
403.012	-0
403.217	-0.02
403.422	-0
403.627	0
403.832	-0.03
404.037	0.01
404.243	-0.01
404.448	-0.03
404.653	-0.02
404.858	-0.04
405.063	0.03
405.268	-0.03
405.473	-0.05
405.678	-0.03
405.883	0.09
406.088	-0.01
406.293	-0.07
406.498	-0.06
406.703	0.04
406.907	-0.03
407.112	-0.05
407.317	-0.01
407.522	0.05
407.727	-0.06
407.932	0.01
408.136	0.09
408.341	-0.05
408.546	-0
408.751	-0
408.956	-0.04
409.16	0
409.365	-0.01
409.57	-0.07
409.774	-0
409.979	0.01
410.184	-0
410.388	-0.07
410.593	0.02
410.798	0
411.002	-0.06
411.207	-0.02
411.411	-0.04
411.616	-0.08
411.82	-0.01
412.025	0
412.229	-0.06
412.434	0.01
412.638	0.02
412.843	-0.03
413.047	0.02
413.252	-0.05
413.456	-0.02
413.66	0.04
413.865	-0.06
414.069	0.07
414.273	-0.09
414.478	-0.02
414.682	-0.05
414.886	-0.07
415.091	-0.05
415.295	-0.06
415.499	0.03
415.703	-0.02
415.908	-0.01
416.112	-0.11
416.316	0.02
416.52	-0.03
416.724	-0.06
416.929	-0.07
417.133	0.07
417.337	-0.05
417.541	-0.03
417.745	-0.02
417.949	0.03
418.153	-0.03
418.357	-0.03
418.561	0.03
418.765	-0.02
418.969	0.05
419.173	-0.01
419.377	-0.08
419.581	0.04
419.785	-0.05
419.989	-0.07
420.193	-0.04
420.397	-0.02
420.601	0.07
420.804	0.02
421.008	0
421.212	-0.02
421.416	0.04
421.62	-0.06
421.823	-0.03
422.027	0.06
422.231	-0.02
422.435	0.01
422.638	0.03
422.842	-0.07
423.046	-0.01
423.249	0.06
423.453	0.06
423.657	-0.01
423.86	0.02
424.064	-0.04
424.268	0.03
424.471	-0.03
424.675	0.05
424.878	0.07
425.082	-0.01
425.285	0.03
425.489	-0.06
425.692	-0.05
425.896	-0.04
426.099	0.02
426.303	-0.07
426.506	-0.07
426.71	0.03
426.913	0.01
427.116	0.04
427.32	-0.02
427.523	0.02
427.726	0.03
427.93	-0.09
428.133	0
428.336	-0.04
428.54	-0.02
428.743	0.02
428.946	0.03
429.149	-0.06
429.353	-0.05
429.556	-0.1
429.759	0
429.962	-0.03
430.165	-0.03
430.368	0.02
430.571	-0.05
430.775	-0.03
430.978	0
431.181	-0
431.384	-0.01
431.587	-0.03
431.79	-0.03
431.993	0.03
432.196	-0.03
432.399	-0.03
432.602	0.04
432.805	-0.04
433.008	-0.06
433.211	-0.09
433.414	0.03
433.616	0
433.819	-0
434.022	-0.12
434.225	0.06
434.428	-0.01
434.631	0.05
434.833	-0.02
435.036	-0.04
435.239	-0.01
435.442	-0.01
435.645	-0.03
435.847	-0.01
436.05	0.02
436.253	0.01
436.455	-0.01
436.658	0
436.861	0.06
437.063	-0.07
437.266	-0.06
437.468	0.02
437.671	0.09
437.874	-0.03
438.076	-0.07
438.279	-0.06
438.481	-0.01
438.684	-0.08
438.886	-0.02
439.089	-0.1
439.291	-0.03
439.494	0.01
439.696	-0.04
439.899	-0.01
440.101	-0.06
440.303	-0.09
440.506	0.03
440.708	-0.05
440.91	0
441.113	-0.09
441.315	0
441.517	-0.06
441.72	0
441.922	-0.05
442.124	-0.04
442.326	-0.02
442.529	0.03
442.731	-0.05
442.933	0.07
443.135	-0.01
443.337	-0.05
443.539	-0.04
443.742	-0.04
443.944	-0.02
444.146	-0.11
444.348	-0.04
444.55	-0.02
444.752	-0.04
444.954	-0.02
445.156	0.03
445.358	-0.08
445.56	0.04
445.762	-0.02
445.964	-0.03
446.166	-0.01
446.368	-0.08
446.57	0.04
446.772	-0.04
446.974	-0
447.175	-0.01
447.377	-0.08
447.579	-0.06
447.781	-0.13
447.983	0.07
448.184	-0.07
448.386	0.01
448.588	-0.08
448.79	-0
448.991	-0.03
449.193	-0.03
449.395	-0.02
449.597	0.04
449.798	-0
450	-0.02
450.202	0.01
450.403	-0.06
450.605	0.01
450.806	-0.04
451.008	-0.08
451.21	-0.01
451.411	-0.01
451.613	-0.03
451.814	-0.05
452.016	-0.02
452.217	0.01
452.419	0.06
452.62	0.02
452.821	-0.01
453.023	0.03
453.224	0.03
453.426	-0.04
453.627	-0.02
453.828	0.06
454.03	-0.01
454.231	-0.01
454.432	-0.05
454.634	0.1
454.835	-0.05
455.036	-0.04
455.238	0.07
455.439	0.05
455.64	-0.1
455.841	-0.06
456.042	0.07
456.244	0
456.445	-0.05
456.646	-0.06
456.847	-0.07
457.048	0.02
457.249	0.02
457.45	0.15
457.651	-0.04
457.852	0.01
458.054	0.03
458.255	-0
458.456	0.03
458.657	0.04
458.858	-0.01
459.058	0.01
459.259	-0.02
459.46	-0.03
459.661	-0.05
459.862	0.09
460.063	-0.03
460.264	0.02
460.465	-0.08
460.666	0.12
460.866	-0.02
461.067	0.01
461.268	-0.02
461.469	-0.04
461.67	-0.04
461.87	-0.02
462.071	-0.04
462.272	-0.02
462.473	-0.01
462.673	0.07
462.874	-0.05
463.075	-0.04
463.275	-0.04
463.476	-0.04
463.676	-0.02
463.877	-0.01
464.078	-0.03
464.278	0.02
464.479	-0.07
464.679	-0.06
464.88	-0.02
465.08	0.06
465.281	-0.05
465.481	-0.07
465.682	-0.02
465.882	0.01
466.083	0.03
466.283	0.01
466.483	-0.02
466.684	-0.05
466.884	-0.03
467.085	0.01
467.285	0.01
467.485	-0.03
467.686	-0.05
467.886	-0.03
468.086	-0.01
468.286	-0
468.487	0.05
468.687	-0.05
468.887	-0.02
469.087	0
469.287	-0.01
469.488	-0.1
469.688	0.01
469.888	0.05
470.088	0.05
470.288	0.02
470.488	0
470.688	-0.05
470.888	-0.02
471.088	-0.05
471.288	0.03
471.488	0.02
471.688	0.02
471.888	-0.05
472.088	0.04
472.288	-0.03
472.488	-0.03
472.688	-0.04
472.888	-0.08
473.088	-0.04
473.288	-0.01
473.488	0.01
473.688	0.12
473.887	-0.01
474.087	-0.03
474.287	-0.01
474.487	-0.06
474.687	-0.02
474.886	-0.01
475.086	-0.03
475.286	0
475.486	-0
475.685	-0.01
475.885	-0.02
476.085	-0.02
476.284	-0.01
476.484	-0.02
476.684	0.03
476.883	0.02
477.083	0.01
477.282	-0.03
477.482	0.03
477.681	0.04
477.881	0.01
478.08	-0.05
478.28	-0.06
478.479	0.04
478.679	0.1
478.878	-0.01
479.078	-0.04
479.277	-0.02
479.477	-0.02
479.676	0.07
479.875	0.01
480.075	-0.08
480.274	-0.01
480.473	-0.02
480.673	-0.03
480.872	0.02
481.071	0
481.271	0.03
481.47	-0.04
481.669	-0.03
481.868	-0.01
482.067	-0.06
482.267	-0.03
482.466	-0.03
482.665	-0.04
482.864	-0.04
483.063	-0.04
483.262	0.01
483.461	0.03
483.661	0.05
483.86	-0.02
484.059	0.02
484.258	-0.03
484.457	-0
484.656	-0.03
484.855	0.01
485.054	-0.02
485.253	-0.04
485.452	-0.04
485.651	-0.01
485.849	-0.02
486.048	-0.04
486.247	-0.03
486.446	-0.03
486.645	-0.05
486.844	-0.03
487.043	-0.03
487.241	0.01
487.44	-0.04
487.639	-0.01
487.838	-0.02
488.037	0.01
488.235	0.03
488.434	0.01
488.633	-0.03
488.831	-0.02
489.03	0.04
489.229	-0.01
489.427	-0.02
489.626	0.02
489.825	0.02
490.023	-0.01
490.222	-0.03
490.42	-0.01
490.619	-0.02
490.817	-0.01
491.016	-0.01
491.214	0.03
491.413	-0.01
491.611	-0.02
491.81	-0
492.008	0.02
492.207	-0
492.405	-0
492.604	-0.05
492.802	-0.04
493	-0.01
493.199	-0.01
493.397	-0.02
493.595	-0.02
493.794	-0.01
493.992	0.05
494.19	-0.01
494.388	0.01
494.587	-0.01
494.785	-0
494.983	-0.04
495.181	0.02
495.379	-0
495.578	-0.02
495.776	-0.01
495.974	0.01
496.172	-0.03
496.37	-0.01
496.568	-0.02
496.766	-0.02
496.964	0.03
497.162	-0.03
497.36	-0.01
497.558	0.01
497.756	-0.02
497.954	-0.02
498.152	-0.04
498.35	-0.01
498.548	-0.03
498.746	0.01
498.944	-0.04
499.142	-0.01
499.34	-0.05
499.538	-0.02
499.736	-0.04
499.933	0.01
500.131	0.02
500.329	0
500.527	0.01
500.725	0.02
500.922	0.01
501.12	0.01
501.318	0.01
501.516	-0.02
501.713	-0.01
501.911	-0.02
502.109	-0.05
502.306	-0.01
502.504	-0.01
502.701	-0.01
502.899	-0.02
503.097	0.03
503.294	-0.02
503.492	-0.02
503.689	-0.01
503.887	0.01
504.084	0.03
504.282	0
504.479	-0.05
504.677	-0.02
504.874	-0.01
505.072	-0.01
505.269	-0.01
505.466	0.02
505.664	0.03
505.861	-0.05
506.059	-0.05
506.256	0.01
506.453	-0.04
506.651	0.03
506.848	-0
507.045	0.01
507.242	-0
507.44	-0.01
507.637	-0.01
507.834	-0.02
508.031	0.02
508.229	-0.04
508.426	0.01
508.623	0.01
508.82	-0.04
509.017	-0.01
509.214	-0.03
509.411	-0.01
509.608	-0.02
509.805	-0.01
510.003	-0
510.2	-0.02
510.397	0.02
510.594	-0.01
510.791	-0.04
510.988	0
511.184	0.02
511.381	0
511.578	-0
511.775	0.01
511.972	-0.01
512.169	-0.02
512.366	-0.03
512.563	0
512.76	-0.02
512.956	0.01
513.153	-0.01
513.35	-0.01
513.547	-0.02
513.744	-0.01
513.94	-0.03
514.137	0.01
514.334	-0.01
514.53	-0.01
514.727	0.01
514.924	0.02
515.12	-0.03
515.317	-0.02
515.514	-0.01
515.71	-0.05
515.907	-0.03
516.103	-0.01
516.3	0.02
516.497	0.03
516.693	0.01
516.89	0.01
517.086	-0.03
517.283	0.05
517.479	-0
517.676	-0.02
517.872	-0
518.068	-0.02
518.265	-0.01
518.461	-0.04
518.658	-0.02
518.854	-0
519.05	-0.01
519.247	-0.02
519.443	0
519.639	-0
519.836	-0
520.032	0.01
520.228	0.01
520.424	0.03
520.621	0.02
520.817	-0.02
521.013	0.03
521.209	0.02
521.405	0.02
521.601	0.01
521.798	0.01
521.994	0.01
522.19	-0.02
522.386	-0.04
522.582	-0.01
522.778	-0.02
522.974	-0.02
523.17	-0
523.366	-0.01
523.562	0.02
523.758	-0.01
523.954	-0.02
524.15	-0.02
524.346	0.01
524.542	-0.03
524.738	-0.02
524.934	-0.02
525.129	-0.03
525.325	-0.02
525.521	-0
525.717	0.01
525.913	-0
526.109	-0.01
526.304	0
526.5	0.01
526.696	0.02
526.892	0.01
527.087	-0
527.283	-0.02
527.479	0.01
527.674	-0.02
527.87	-0.02
528.066	-0.02
528.261	0.01
528.457	0
528.653	-0.01
528.848	-0.03
529.044	0.01
529.239	-0
529.435	0.03
529.63	0.01
529.826	0.04
530.021	0
530.217	0.01
530.412	-0.01
530.608	-0.03
530.803	0.01
530.999	-0.01
531.194	-0.05
531.389	0
531.585	-0.06
531.78	-0.04
531.975	-0.01
532.171	0
532.366	-0.03
532.561	-0.03
532.757	-0.03
532.952	-0.01
533.147	0.02
533.342	0
533.538	-0.02
533.733	0.01
533.928	-0.03
534.123	-0.03
534.318	-0.03
534.513	-0.01
534.709	0
534.904	-0.04
535.099	-0.03
535.294	-0.02
535.489	-0.01
535.684	-0.03
535.879	-0.04
536.074	0.01
536.269	-0.02
536.464	-0
536.659	-0.03
536.854	-0.02
537.049	0.01
537.244	-0.01
537.439	-0.02
537.634	0.01
537.828	-0.02
538.023	-0.01
538.218	-0.03
538.413	-0.01
538.608	-0.04
538.803	0.02
538.997	-0.04
539.192	0.01
539.387	-0.01
539.582	0.02
539.776	-0.01
539.971	-0.01
540.166	-0.03
540.36	-0.04
540.555	-0.01
540.75	-0.02
540.944	0.01
541.139	-0.04
541.334	-0.02
541.528	0.01
541.723	0
541.917	-0.01
542.112	-0.05
542.306	-0.03
542.501	-0.02
542.695	-0.01
542.89	-0.02
543.084	-0
543.279	-0.03
543.473	-0.02
543.668	-0.02
543.862	-0.03
544.056	0.01
544.251	-0.03
544.445	0.02
544.64	-0.03
544.834	-0.04
545.028	0.01
545.222	-0.01
545.417	0.02
545.611	-0.01
545.805	-0
546	-0.02
546.194	-0.02
546.388	-0.03
546.582	-0
546.776	-0
546.97	-0.01
547.165	0
547.359	0.03
547.553	-0.03
547.747	0.02
547.941	0
548.135	0
548.329	0.01
548.523	-0.01
548.717	-0.01
548.911	-0.01
549.105	-0.03
549.299	-0
549.493	0.01
549.687	-0.01
549.881	-0
550.075	-0.01
550.269	-0.02
550.463	0.02
550.657	-0.03
550.85	-0.01
551.044	-0.02
551.238	-0.02
551.432	-0.02
551.626	-0.04
551.82	-0.01
552.013	-0.02
552.207	0.01
552.401	0
552.594	-0
552.788	0.02
552.982	0
553.176	-0.02
553.369	0.01
553.563	0.01
553.756	-0.03
553.95	-0.03
554.144	-0.03
554.337	0.02
554.531	-0.01
554.724	0
554.918	-0.02
555.111	0.01
555.305	-0.01
555.498	0.02
555.692	0
555.885	-0.02
556.079	-0.01
556.272	-0.03
556.466	0
556.659	-0.01
556.852	-0.03
557.046	-0.01
557.239	0.01
557.432	-0.03
557.626	-0.04
557.819	0
558.012	0.02
558.206	0
558.399	-0
558.592	0.02
558.785	-0.01
558.979	-0
559.172	0
559.365	0.02
559.558	0.02
559.751	-0.01
559.944	-0
560.138	-0.05
560.331	-0
560.524	-0.03
560.717	-0
560.91	-0.01
561.103	0.01
561.296	-0
561.489	0.01
561.682	0
561.875	-0
562.068	-0.01
562.261	0.01
562.454	0.03
562.647	0.01
562.84	0.02
563.032	-0.02
563.225	0.02
563.418	-0.03
563.611	-0.01
563.804	-0.02
563.997	-0.02
564.19	-0.04
564.382	-0.06
564.575	-0.01
564.768	-0.01
564.961	-0.01
565.153	-0.02
565.346	0.01
565.539	0.02
565.731	0.01
565.924	0.02
566.117	0.02
566.309	-0
566.502	-0.03
566.695	-0.02
566.887	-0.01
567.08	-0.03
567.272	-0
567.465	-0.04
567.657	0.01
567.85	-0
568.042	-0
568.235	0.02
568.427	0
568.62	-0.01
568.812	0
569.005	-0.02
569.197	-0.03
569.389	0.01
569.582	-0.01
569.774	-0
569.966	-0.04
570.159	-0.04
570.351	0.02
570.543	-0.03
570.736	-0
570.928	-0.01
571.12	-0.01
571.312	-0.01
571.505	-0.03
571.697	0.02
571.889	-0.02
572.081	-0.01
572.273	-0.02
572.465	0.01
572.658	-0.03
572.85	0.02
573.042	-0.03
573.234	-0.01
573.426	0.03
573.618	-0.03
573.81	0.02
574.002	0.01
574.194	0.03
574.386	-0.03
574.578	-0.07
574.77	-0.04
574.962	-0.02
575.154	-0.03
575.346	-0.01
575.538	-0.01
575.729	-0.04
575.921	-0.04
576.113	-0.02
576.305	0
576.497	-0
576.689	-0
576.88	-0.04
577.072	-0
577.264	-0.03
577.456	-0
577.647	-0.08
577.839	-0
578.031	0.04
578.223	-0.05
578.414	-0.03
578.606	-0
578.798	-0.02
578.989	-0.02
579.181	0.01
579.372	-0.02
579.564	-0.02
579.755	-0.01
579.947	0
580.139	0.02
580.33	-0.05
580.522	-0.03
580.713	-0.07
580.905	-0.03
581.096	0.01
581.287	-0.01
581.479	-0.01
581.67	0.01
581.862	-0
582.053	-0.02
582.244	-0.05
582.436	-0.01
582.627	-0.01
582.818	-0.03
583.01	-0.06
583.201	0.02
583.392	0.01
583.583	-0.01
583.775	-0.03
583.966	-0.03
584.157	-0.01
584.348	-0.04
584.54	-0.05
584.731	-0
584.922	-0.03
585.113	-0.03
585.304	-0
585.495	0
585.686	-0.02
585.877	-0
586.068	-0.02
586.259	-0.04
586.45	-0.02
586.641	-0.03
586.832	-0.05
587.023	-0.03
587.214	-0
587.405	-0.01
587.596	-0.03
587.787	0.04
587.978	0.02
588.169	-0.01
588.36	-0.06
588.551	0.01
588.742	-0.04
588.932	0.01
589.123	-0.03
589.314	0
589.505	-0
589.696	-0.02
589.886	-0.04
590.077	-0.06
590.268	-0.02
590.458	-0.03
590.649	-0.05
590.84	0.01
591.03	-0.05
591.221	-0.05
591.412	-0.05
591.602	-0.01
591.793	-0.02
591.984	-0.04
592.174	-0.01
592.365	0.03
592.555	-0.03
592.746	0.03
592.936	-0
593.127	0.02
593.317	0.02
593.508	-0.06
593.698	-0.02
593.889	-0
594.079	-0.01
594.269	-0.03
594.46	-0.01
594.65	-0.01
594.84	-0
595.031	-0.04
595.221	-0.03
595.411	-0.03
595.602	0
595.792	-0
595.982	-0.03
596.172	0.03
596.363	-0.02
596.553	-0.01
596.743	-0.02
596.933	-0.04
597.123	0.02
597.314	-0.04
597.504	-0.02
597.694	0.03
597.884	0
598.074	-0
598.264	-0.06
598.454	0
598.644	-0.01
598.834	-0.03
599.024	-0.05
599.214	-0.01
599.404	0.05
599.594	-0.01
599.784	-0.05
599.974	0.01
600.164	0.03
600.354	-0.04
600.544	-0.06
600.734	-0.01
600.924	0.03
601.114	-0
601.303	-0.01
601.493	-0.01
601.683	-0.04
601.873	-0.02
602.063	-0.05
602.252	-0.01
602.442	-0.04
602.632	-0.03
602.821	-0.06
603.011	0.02
603.201	-0.02
603.39	-0.02
603.58	-0.04
603.77	-0.03
603.959	0.03
604.149	-0.02
604.339	-0.02
604.528	0.01
604.718	0.01
604.907	-0.02
605.097	-0.04
605.286	-0.04
605.476	-0.01
605.665	0.01
605.855	-0.03
606.044	0.06
606.234	0.02
606.423	-0.03
606.612	-0.03
606.802	-0.01
606.991	0
607.181	0.01
607.37	-0.06
607.559	-0.01
607.749	-0.07
607.938	-0.02
608.127	-0.04
608.316	-0.01
608.506	0.01
608.695	-0.01
608.884	-0
609.073	-0.02
609.263	0.02
609.452	0.01
609.641	0.01
609.83	-0.03
610.019	0.01
610.208	-0.01
610.397	0.01
610.586	0.01
610.775	-0.01
610.965	-0.02
611.154	-0.05
611.343	0
611.532	-0
611.721	-0.03
611.91	-0.01
612.099	-0
612.287	-0.01
612.476	-0.04
612.665	-0
612.854	-0.04
613.043	0.02
613.232	-0.01
613.421	-0.06
613.61	-0
613.798	-0.03
613.987	0.01
614.176	-0.03
614.365	0.03
614.554	-0.02
614.742	-0
614.931	-0.03
615.12	0.02
615.309	-0.01
615.497	0.01
615.686	-0.04
615.875	-0.05
616.063	-0
616.252	-0.06
616.44	-0.04
616.629	-0.02
616.818	0
617.006	-0.01
617.195	-0.02
617.383	-0.01
617.572	-0.02
617.76	-0.04
617.949	-0.04
618.137	0.01
618.326	0.05
618.514	-0.06
618.703	-0.02
618.891	0.06
619.079	-0.09
619.268	0.01
619.456	-0.04
619.644	0.04
619.833	0
620.021	-0.04
620.209	-0.06
620.398	-0.03
620.586	-0
620.774	0
620.962	-0.01
621.151	0.05
621.339	-0.01
621.527	-0.04
621.715	-0.05
621.903	-0.05
622.092	-0.02
622.28	-0.03
622.468	-0.02
622.656	-0.03
622.844	0.02
623.032	-0.01
623.22	-0.06
623.408	0.01
623.596	-0.01
623.784	0.02
623.972	-0.02
624.16	-0.03
624.348	0.04
624.536	-0.01
624.724	-0.02
624.912	0.03
625.1	0
625.288	-0.03
625.476	-0.04
625.664	0.01
625.851	-0.05
626.039	-0.03
626.227	-0.01
626.415	-0.02
626.603	-0.08
626.79	-0.01
626.978	-0.02
627.166	0.01
627.354	0
627.541	-0.03
627.729	-0.08
627.917	0.01
628.104	0.01
628.292	0
628.48	-0.03
628.667	-0.03
628.855	0.02
629.042	0.02
629.23	-0.01
629.418	-0.02
629.605	-0.03
629.793	-0.03
629.98	-0.03
630.168	-0.02
630.355	-0.02
630.543	0
630.73	-0.05
630.917	0
631.105	0.06
631.292	-0
631.48	-0.02
631.667	0.04
631.854	-0.03
632.042	-0.02
632.229	-0.06
632.416	-0.02
632.604	-0.05
632.791	-0.03
632.978	0.02
633.165	-0.02
633.353	0.05
633.54	0
633.727	-0.06
633.914	-0.03
634.101	-0.09
634.289	0.03
634.476	-0.04
634.663	-0.04
634.85	-0.01
635.037	-0.04
635.224	-0.07
635.411	0
635.598	0.02
635.785	-0.03
635.972	-0.02
636.159	0.01
636.346	-0.03
636.533	-0.02
636.72	-0.04
636.907	-0.04
637.094	0
637.281	-0.02
637.468	-0.02
637.655	-0.02
637.842	-0.04
638.029	-0.03
638.215	0.01
638.402	-0.03
638.589	-0.05
638.776	-0.03
638.963	-0.05
639.149	0.02
639.336	0.07
639.523	-0.03
639.709	-0.01
639.896	-0.03
640.083	0.03
640.27	0.01
640.456	-0.02
640.643	0.01
640.829	-0.05
641.016	-0.02
641.203	-0.05
641.389	0
641.576	-0
641.762	-0.02
641.949	-0.04
642.135	0.03
642.322	-0.01
642.508	-0.08
642.695	0
642.881	-0.04
643.068	-0.04
643.254	-0.04
643.441	0.02
643.627	-0.02
643.813	-0.02
644	0.01
644.186	-0.04
644.372	-0.03
644.559	0.04
644.745	-0
644.931	-0.03
645.118	0
645.304	-0.03
645.49	-0.01
645.676	-0.02
645.862	-0.01
646.049	0.03
646.235	-0.01
646.421	0.03
646.607	0.06
646.793	-0.04
646.979	-0.05
647.165	-0.02
647.352	-0.02
647.538	0.02
647.724	-0.01
647.91	0
648.096	-0
648.282	-0.01
648.468	-0.01
648.654	-0.02
648.84	0.01
649.026	0
649.212	-0.02
649.397	-0.05
649.583	-0.05
649.769	0
649.955	-0.03
650.141	-0.01
650.327	0.03
650.513	-0.05
650.698	-0
650.884	-0.08
651.07	0.01
651.256	-0.01
651.442	-0.04
651.627	-0.03
651.813	-0.01
651.999	0
652.184	-0
652.37	-0.03
652.556	-0.04
652.741	0.06
652.927	-0.1
653.113	-0.03
653.298	0.01
653.484	-0.04
653.669	-0.03
653.855	-0.02
654.04	0.03
654.226	-0.03
654.412	-0.01
654.597	-0.06
654.782	-0.01
654.968	-0
655.153	0.02
655.339	-0.03
655.524	-0.03
655.71	0.04
655.895	-0.05
656.08	-0.01
656.266	0.04
656.451	0.02
656.636	-0.04
656.822	0.02
657.007	-0.04
657.192	-0.03
657.378	-0.08
657.563	-0.03
657.748	0.01
657.933	0
658.118	-0.08
658.304	-0.03
658.489	-0.02
658.674	0.03
658.859	-0.04
659.044	0.02
659.229	0.02
659.414	-0.03
659.599	-0.03
659.785	-0.04
659.97	-0.02
660.155	0.02
660.34	0.01
660.525	-0.03
660.71	-0.01
660.895	-0.01
661.08	-0.04
661.264	-0.01
661.449	0.01
661.634	0.01
661.819	-0.02
662.004	0.01
662.189	-0.09
662.374	-0.05
662.559	-0.04
662.743	-0.07
662.928	0.01
663.113	-0.03
663.298	-0.03
663.483	-0.02
663.667	-0.01
663.852	-0.04
664.037	0.03
664.221	-0.01
664.406	0.03
664.591	-0
664.775	0.01
664.96	-0.01
665.145	-0.02
665.329	0.02
665.514	-0.03
665.698	-0.05
665.883	-0.12
666.068	0.04
666.252	0.01
666.437	-0.03
666.621	-0
666.806	0.04
666.99	-0.03
667.174	-0.05
667.359	0.05
667.543	-0.07
667.728	-0.01
667.912	-0.11
668.096	0.04
668.281	-0
668.465	-0.01
668.649	0.03
668.834	-0.06
669.018	-0.02
669.202	-0.04
669.387	-0.04
669.571	0.02
669.755	-0.05
669.939	-0.04
670.124	-0
670.308	0.05
670.492	0.03
670.676	-0.01
670.86	-0.05
671.044	-0.04
671.228	0.01
671.413	-0.06
671.597	-0.04
671.781	-0.05
671.965	0.01
672.149	-0.02
672.333	-0
672.517	-0.02
672.701	0
672.885	-0.04
673.069	-0.07
673.253	0.01
673.437	-0.02
673.621	-0.05
673.804	-0.01
673.988	0
674.172	-0.02
674.356	-0.03
674.54	-0.01
674.724	0.04
674.908	-0.02
675.091	0.03
675.275	-0.03
675.459	0.02
675.643	0.04
675.826	0.01
676.01	-0.02
676.194	0.03
676.377	0.03
676.561	-0.01
676.745	0.02
676.928	-0.04
677.112	0.04
677.296	-0.03
677.479	-0.06
677.663	-0.02
677.846	0.03
678.03	-0.03
678.213	-0.02
678.397	0.05
678.58	-0
678.764	-0.01
678.947	-0.07
679.131	-0.05
679.314	0.06
679.498	-0.04
679.681	-0.06
679.865	0.07
680.048	0
680.231	-0.02
680.415	-0.01
680.598	-0.01
680.781	-0.06
680.965	0.01
681.148	0
681.331	0.02
681.514	0.02
681.698	-0.06
681.881	0.02
682.064	-0.02
682.247	0.01
682.43	-0.06
682.614	-0.03
682.797	0
682.98	0.03
683.163	-0.06
683.346	-0
683.529	-0.05
683.712	-0.04
683.895	0.05
684.078	-0.04
684.261	-0.06
684.444	-0
684.627	-0
684.81	-0.05
684.993	-0.04
685.176	0.04
685.359	0
685.542	-0.03
685.725	0.07
685.908	-0.01
686.091	0.01
686.274	0.02
686.457	0.03
686.639	-0.02
686.822	0.02
687.005	0.02
687.188	0.03
687.371	0.12
687.553	0.04
687.736	0.03
687.919	0.07
688.102	0.1
688.284	0.03
688.467	-0.01
688.65	-0.02
688.832	-0.03
689.015	-0
689.197	-0.02
689.38	0.09
689.563	0.08
689.745	0
689.928	-0.03
690.11	-0.01
690.293	-0.01
690.475	-0.04
690.658	0.01
690.84	0
691.023	-0.02
691.205	0
691.388	0.02
691.57	0.02
691.752	0.03
691.935	-0.05
692.117	0.02
692.3	0.03
692.482	0
692.664	-0.02
692.847	0.01
693.029	0.13
693.211	0.08
693.393	0.04
693.576	-0.01
693.758	0
693.94	-0.04
694.122	0.02
694.304	0.01
694.487	0.01
694.669	0.1
694.851	-0.02
695.033	0.02
695.215	0.01
695.397	-0
695.579	0.06
695.761	-0.02
695.943	-0.01
696.125	0.03
696.308	0.07
696.49	-0.04
696.671	0.13
696.853	0.03
697.035	0.13
697.217	0.02
697.399	0.06
697.581	0
697.763	0
697.945	-0.04
698.127	0.08
698.309	0.1
698.491	0.06
698.672	0.08
698.854	0.03
699.036	0.07
699.218	-0.02
699.399	0.1
699.581	0.09
699.763	0.07
699.945	-0.03
700.126	-0.02
700.308	0.04
700.49	0.05
700.671	-0.01
700.853	0.02
701.035	0.04
701.216	-0.02
701.398	-0.02
701.579	0.02
701.761	0.11
701.943	0.04
702.124	0.03
702.306	0.04
702.487	0.21
702.669	0.07
702.85	0
703.031	0.02
703.213	0.14
703.394	0.15
703.576	0.03
703.757	0.13
703.938	0.11
704.12	0.21
704.301	0.04
704.483	0.02
704.664	0.09
704.845	0.17
705.026	0.09
705.208	0.09
705.389	0.07
705.57	0.11
705.751	0.05
705.933	0.06
706.114	0.14
706.295	0.07
706.476	0.08
706.657	0.17
706.838	0.14
707.02	0.17
707.201	0.09
707.382	0.06
707.563	0.14
707.744	0.06
707.925	-0.01
708.106	0.05
708.287	0.07
708.468	0.16
708.649	0.09
708.83	0.16
709.011	0.05
709.192	0.11
709.373	0.07
709.554	0.1
709.734	0.19
709.915	0.18
710.096	0.07
710.277	-0.03
710.458	0.17
710.639	0.14
710.819	0.07
711	0.09
711.181	0.22
711.362	0.14
711.542	0.21
711.723	0.15
711.904	0.21
712.085	0.23
712.265	0.19
712.446	0.11
712.627	0.11
712.807	0.14
712.988	0.15
713.168	0.15
713.349	0.22
713.53	0.03
713.71	0.07
713.891	0.14
714.071	0.2
714.252	0.17
714.432	0.18
714.613	0.13
714.793	0.21
714.974	0.34
715.154	0.21
715.334	0.24
715.515	0.25
715.695	0.14
715.876	0.18
716.056	0.22
716.236	0.21
716.417	0.24
716.597	0.21
716.777	0.37
716.957	0.19
717.138	0.27
717.318	0.26
717.498	0.2
717.678	0.26
717.859	0.24
718.039	0.15
718.219	0.29
718.399	0.35
718.579	0.28
718.759	0.24
718.939	0.34
719.12	0.28
719.3	0.27
719.48	0.12
719.66	0.18
719.84	0.38
720.02	0.29
720.2	0.19
720.38	0.34
720.56	0.43
720.74	0.32
720.92	0.32
721.1	0.45
721.279	0.43
721.459	0.33
721.639	0.24
721.819	0.36
721.999	0.33
722.179	0.39
722.359	0.28
722.538	0.46
722.718	0.41
722.898	0.37
723.078	0.42
723.257	0.34
723.437	0.49
723.617	0.43
723.797	0.38
723.976	0.47
724.156	0.6
724.336	0.45
724.515	0.61
724.695	0.37
724.874	0.4
725.054	0.54
725.234	0.44
725.413	0.52
725.593	0.43
725.772	0.53
725.952	0.54
726.131	0.53
726.311	0.58
726.49	0.55
726.67	0.56
726.849	0.52
727.028	0.61
727.208	0.49
727.387	0.65
727.567	0.54
727.746	0.59
727.925	0.5
728.105	0.47
728.284	0.57
728.463	0.55
728.643	0.7
728.822	0.49
729.001	0.63
729.18	0.66
729.359	0.79
729.539	0.67
729.718	0.69
729.897	0.73
730.076	0.69
730.255	0.62
730.434	0.7
730.614	0.76
730.793	0.72
730.972	0.74
731.151	0.76
731.33	0.83
731.509	0.83
731.688	0.75
731.867	0.82
732.046	0.76
732.225	0.97
732.404	0.8
732.583	0.72
732.762	0.84
732.941	0.91
733.12	0.93
733.298	0.95
733.477	0.94
733.656	0.73
733.835	0.8
734.014	0.94
734.193	0.99
734.371	0.96
734.55	0.9
734.729	0.83
734.908	0.97
735.086	0.98
735.265	1.04
735.444	0.81
735.623	0.89
735.801	0.76
735.98	0.92
736.159	0.86
736.337	0.93
736.516	0.97
736.694	0.89
736.873	0.87
737.052	1.15
737.23	0.97
737.409	0.8
737.587	1.17
737.766	0.67
737.944	0.8
738.123	0.89
738.301	0.81
738.479	0.68
738.658	0.77
738.836	0.57
739.015	0.81
739.193	0.84
739.371	0.62
739.55	0.75
739.728	0.55
739.906	0.75
740.085	0.76
740.263	0.73
740.441	0.45
740.62	0.83
740.798	0.63
740.976	0.48
741.154	0.45
741.332	0.78
741.511	0.52
741.689	0.6
741.867	0.63
742.045	0.48
742.223	0.41
742.401	0.37
742.579	0.34
742.757	0.44
742.935	0.3
743.114	0.29
743.292	0.42
743.47	0.38
743.648	0.39
743.826	0.1
744.004	0.4
744.181	0.32
744.359	0.31
744.537	0.25
744.715	0.29
744.893	0.35
745.071	0.27
745.249	0.21
745.427	0.23
745.605	0.29
745.782	0.23
745.96	0.24
746.138	0.2
746.316	0.4
746.493	0.21
746.671	0.24
746.849	0.2
747.027	0.34
747.204	0.07
747.382	0.26
747.56	0.02
747.737	0.16
747.915	-0.01
748.093	0.29
748.27	0.07
748.448	0.12
748.625	0.06
748.803	0.06
748.98	0.12
749.158	0.17
749.335	0.17
749.513	0.05
749.69	-0.02
749.868	0.13
750.045	0.17
750.223	-0.05
750.4	-0.06
750.578	0.28
750.755	0.09
750.932	-0.04
751.11	0.14
751.287	-0.03
751.464	0.23
751.642	-0.02
751.819	0.12
751.996	0.02
752.173	-0.01
752.351	-0.03
752.528	0.01
752.705	0.08
752.882	-0.09
753.06	0.05
753.237	0.16
753.414	0.2
753.591	0.1
753.768	0.07
753.945	-0.02
754.122	-0.03
754.299	0.01
754.476	0.06
754.654	0.08
754.831	0.01
755.008	0.07
755.185	-0
755.362	-0.07
755.539	0.09
755.716	-0.01
755.892	0
756.069	0.02
756.246	-0.06
756.423	-0.04
756.6	0.11
756.777	0.04
756.954	0.06
757.131	0.02
757.307	-0.18
757.484	-0.06
757.661	0.01
757.838	0.04
758.015	-0.08
758.191	0.12
758.368	0.17
758.545	0.27
758.721	0.05
758.898	-0
759.075	0.01
759.251	0.08
759.428	0.12
759.605	-0.19
759.781	-0.1
759.958	0.09
760.134	0.1
760.311	-0.07
760.488	0.08
760.664	0.15
760.841	-0.05
761.017	-0.15
761.194	0.07
761.37	0.13
761.547	-0.03
761.723	0.02
761.899	0.21
762.076	-0.08
762.252	-0.12
762.429	0.02
762.605	0.1
762.781	-0.01
762.958	0.06
763.134	-0.04
763.31	-0.12
763.486	0.1
763.663	-0.25
763.839	-0.06
764.015	-0.23
764.191	-0.09
764.368	-0.05
764.544	-0.07
764.72	-0.03
764.896	-0.02
765.072	-0.03
765.248	-0.13
765.425	0
765.601	-0.04
765.777	0.01
765.953	-0.3
766.129	-0.19
766.305	-0.06
766.481	0
766.657	0.03
766.833	0.12
767.009	-0.06
767.185	-0.13
767.361	-0.13
767.537	-0.14
767.713	0.12
767.889	-0.06
768.065	-0.11
768.24	0
768.416	0
768.592	-0.15
768.768	-0.06
768.944	0.1
769.12	-0.14
769.295	-0.05
769.471	-0.13
769.647	-0.03
769.823	0.08
769.998	0.01
770.174	-0.19
770.35	0.21
770.525	0.09
770.701	-0.15
770.877	-0.02
771.052	-0.01
771.228	0.12
771.403	0.07
771.579	0.03
771.755	0.29
771.93	-0.02
772.106	-0.16
772.281	-0.24
772.457	-0.01
772.632	0.05
772.808	-0.18
772.983	-0
773.159	-0.22
773.334	0.2
773.509	-0.05
773.685	-0.06
773.86	0.12
774.036	0.26
774.211	-0.03
774.386	-0.09
774.562	0.1
774.737	0.01
774.912	-0.13
775.087	0.01
775.263	-0.09
775.438	0.04
775.613	-0.11
775.788	-0.11
775.964	0.14
776.139	0.1
776.314	-0.2
776.489	0.03
776.664	0.02
776.839	0.03
777.014	0.04
777.19	0.02
777.365	0.09
777.54	0.1
777.715	-0.08
777.89	0.01
778.065	-0.12
778.24	0.02
778.415	0.09
778.59	-0.09
778.765	-0.13
778.94	-0.08
779.115	-0.04
779.289	-0.2
779.464	0.06
779.639	0.09
779.814	-0.03
779.989	-0.09
780.164	0.2
780.339	-0.02
780.513	-0.22
780.688	-0.25
780.863	-0.17
781.038	0.19
781.212	-0.14
781.387	-0.02
781.562	0.25
781.737	-0.13
781.911	0.27
782.086	-0.19
782.261	-0.11
782.435	0.09
782.61	-0.04
782.784	-0.16
782.959	0.24
783.134	-0.23
783.308	-0.36
783.483	0.01
783.657	0.31
783.832	0.01
784.006	-0.4
784.181	0.05
784.355	0.19
784.53	-0.23
784.704	-0.09
784.878	0.2
785.053	0.15
785.227	0.3
785.402	0.3
785.576	-0.38
785.75	-0.08
785.925	-0.05
786.099	-0.05
786.273	-0.02
786.448	0.19
786.622	0.17
786.796	-0.16
786.97	-0.31
787.145	0.31
787.319	-0.45
787.493	-0.1
787.667	-0.33
787.841	-0.06
788.015	0.14
788.19	-0.31
788.364	0.14
788.538	0.07
788.712	0.18
788.886	-0.19
789.06	0.24
789.234	0.11
789.408	-0.31
789.582	-0
789.756	0.1
789.93	-0.18
790.104	-0.07
790.278	-0.25
790.452	-0.08
790.626	0.13
790.8	-0.16
790.973	0.21
791.147	0.13
791.321	0.06
791.495	0.21
791.669	-0.04
791.843	-0.17
792.016	-0.03
792.19	0.42
792.364	-0.2
792.538	0.4
792.711	0.13
792.885	-0.09
793.059	-0.22
793.233	-0.69
793.406	0.24
793.58	-0.07
793.754	0.05
793.927	-0.16
794.101	0.26
794.274	-0.1
794.448	0.28
794.622	-0.29
794.795	0.19
794.969	-0.3
795.142	0.35
795.316	-0.21
795.489	-0.21
795.663	0.34
795.836	-0.1
796.009	-0.29
796.183	0.11
796.356	0.1
796.53	0.01
796.703	-0.06
796.876	0.27
797.05	-0.18
797.223	-0.18
797.396	0.17
797.57	0
797.743	0.34
797.916	-0.19
798.09	-0.06
798.263	0.04
798.436	0.27
798.609	-0.41
798.782	-0.05
798.956	0.11
799.129	-0.11
799.302	-0.13
799.475	-0.07
799.648	-0.42
799.821	-0.02
799.994	0.22
800.167	-0.35
800.34	-0
800.514	0.03
800.687	-0.31
800.86	-0.26
801.033	0.04
801.206	0.21
801.379	-0.29
801.551	0.2
801.724	0.05
801.897	0.21
802.07	-0.23
802.243	-0.67
802.416	-0.28
802.589	-0.37
802.762	0.24
802.935	0
803.107	0.15
803.28	0.39
803.453	0.27
803.626	-0.4
803.798	-0.1
803.971	-0.21
804.144	-0.1
804.317	0.22
804.489	0.02
804.662	0.03
804.835	0.06
805.007	-0.42
805.18	0.47
805.353	-0.03
805.525	-0.31
805.698	-0.24
805.87	0.1
806.043	0.17
806.215	-0.03
806.388	-0.06
806.56	0.01
806.733	0.21
806.905	0.13
807.078	-0.17
807.25	-0.22
807.423	-0.04
807.595	-0.24
807.768	-0.31
807.94	0.16
808.112	0.21
808.285	0.29
808.457	-0.31
808.629	0.08
808.802	0.07
808.974	-0.14
809.146	-0.43
809.318	0.04
809.491	0.09
809.663	0.16
809.835	-0.35
810.007	-0.1
810.18	-0.14
810.352	-0.52
810.524	-0.17
810.696	0.12
810.868	0.5
811.04	-0.41
811.212	-0.2
811.384	0.19
811.556	-0.24
811.728	-0.06
811.901	0.3
812.073	-0.26
812.245	0.28
812.417	-0.12
812.589	-0.39
812.76	0.04
812.932	0.4
813.104	0.35
813.276	-0.02
813.448	0.28
813.62	-0.06
813.792	0.4
813.964	-0.17
814.136	0.07
814.307	-0.05
814.479	-0.47
814.651	-0.32
814.823	0.46
814.995	-0.29
815.166	-0.24
815.338	-0.06
815.51	-0.45
815.681	0.46
815.853	0.11
816.025	-0.43
816.196	0.42
816.368	0.09
816.54	-0.61
816.711	-0.69
816.883	0.09
817.054	0.74
817.226	-0.91
817.398	0.26
817.569	-0.68
817.741	-0.1
817.912	-0.62
818.084	0.01
818.255	-0.3
818.426	-0.4
818.598	0.05
818.769	-0.51
818.941	0.25
819.112	0.62
819.283	0.31
819.455	-0.38
819.626	-0.17
819.798	-0.19
819.969	0.13
820.14	0.06
820.311	-0.31
820.483	0.54
820.654	0.2
820.825	-0.23
820.996	-0.09
821.168	-0.58
821.339	-0.17
821.51	-0.5
821.681	-0.46
821.852	-0.39
822.023	-0.18
822.195	-0.32
822.366	0.12
822.537	0.14
822.708	-0.3
822.879	0
823.05	0.21
823.221	-0.06
823.392	0.37
823.563	0.09
823.734	-0.08
823.905	-0.3
824.076	-0.28
824.247	-0.52
824.418	-0.24
824.589	0.72
824.759	-0.31
824.93	-0.09
825.101	-1
825.272	-0.1
825.443	0.47
825.614	0.44
825.784	-1.58
825.955	0.41
826.126	0.58
826.297	-0.14
826.467	0
826.638	0.47
826.809	-1.09
826.98	-0.29
827.15	0.19
827.321	-0.63
827.492	0.47
827.662	0.38
827.833	1.25
828.003	0.04
828.174	-0.99
828.345	-0.49
828.515	1.22
828.686	0.35
828.856	0.08
829.027	0.3
829.197	0.26
829.368	-0.03
829.538	-0.31
829.709	-0.98
829.879	0.09
830.049	0.21
830.22	0.14
830.39	-0.32
830.56	0.44
830.731	0.01
830.901	0.03
831.072	-0.11
831.242	0.51
831.412	-0.28
831.582	0.17
831.753	-0.77
831.923	0.45
832.093	-0.24
832.263	0.03
832.434	-1.02
832.604	0.29
832.774	0.11
832.944	-0.65
833.114	-0.4
833.284	-0.27
833.454	-1.09
833.624	-0.52
833.795	-0.9
833.965	0.1
834.135	0.08
834.305	-1.28
834.475	-0.75
834.645	-0.27
834.815	-0.05
834.985	-1.07
835.155	-0.44
835.325	0.28
835.494	0.36
835.664	-0.41
835.834	-0.98
836.004	0.24
836.174	0.19
836.344	-0.68
836.514	-0.86
836.684	0.28
836.853	-0.53
837.023	-0.4
837.193	-1.02
837.363	0.41
837.532	0.85
837.702	-0.39
837.872	-0.68
838.041	0.67
838.211	0.98
838.381	-0.81
838.55	0.38
838.72	1.34
838.89	0.73
839.059	-0.49
839.229	-0.38
839.398	0.73
839.568	0.34
839.738	0.06
839.907	-0.14
840.077	-0.01
840.246	-0.25
840.416	-0.71
840.585	-0.79
840.755	1.02
840.924	0.56
841.093	-0.08
841.263	-0.58
841.432	0.45
841.602	-0.95
841.771	-0.71
841.94	-0.39
842.11	2.25
842.279	1.05
842.448	-0.72
842.617	-0.35
842.787	0.46
842.956	-1.14
843.125	-0.09
843.294	0.07
843.464	0.51
843.633	-0.55
843.802	-0.58
843.971	0.48
844.14	0.2
844.309	0.29
844.479	-0.66
844.648	-0.54
844.817	-0.9
844.986	-1.06
845.155	-0.33
845.324	-0.68
845.493	-0.17
845.662	-0.94
845.831	0.18
846	0.82
846.169	-0.46
846.338	0.89
846.507	-0.37
846.676	0.84
846.844	-0.69
847.013	1
847.182	-0.06
847.351	-0.72
847.52	-0.9
847.689	0.19
847.858	0.07
848.026	-0.1
848.195	-0.27
848.364	-0.3
848.533	-1.06
848.701	-0.32
848.87	1.36
849.039	0.24
849.207	0.95
849.376	0.04
849.545	-0.26
849.713	-1.62
849.882	-0.22
850.051	0.46
850.219	0.87
850.388	0.71
850.556	-1.63
850.725	-0.52
850.893	0.65
851.062	-0.43
851.23	0.52
851.399	-1.06
851.567	-0.78
851.736	-0.54
851.904	-0.73
852.073	0.16
852.241	0.66
852.41	0.35
852.578	-0.52
852.746	-1.53
852.915	0.13
853.083	-0.42
853.251	-1.63
853.42	-0.29
853.588	-0.09
853.756	0.42
853.924	-0.86
854.093	-0.72
854.261	-0.41
854.429	-0.92
854.597	1.11
854.765	-1.02
854.934	0.22
855.102	0.42
855.27	-0.22
855.438	-0.11
855.606	0.18
855.774	0.83
855.942	-1.55
856.11	-1.85
856.278	0.49
856.446	0.26
856.614	0.02
856.782	-0.74
856.95	0.63
857.118	0.68
857.286	0.28
857.454	-0.05
857.622	0.74
857.79	0.33
857.958	-1.9
858.126	-0.94
858.294	-3.09
858.462	-0.39
858.629	-0.3
858.797	-0.53
858.965	0.41
859.133	-0.05
859.301	-0.39
859.468	-0.14
859.636	-1.08
859.804	1.26
859.971	0.5
860.139	-0.64
860.307	0.41
860.474	-0.93
860.642	-0.32
860.81	-1.15
860.977	-0.05
861.145	1.17
861.313	-1.11
861.48	0.24
861.648	0.41
861.815	-1.27
861.983	-1.73
862.15	-1.41
862.318	-0.89
862.485	0.52
862.653	-0.94
862.82	-1.68
862.988	2
863.155	0.3
863.322	-0.8
863.49	-2
863.657	0.3
863.824	1.46
863.992	0.14
864.159	-0.11
864.326	0.67
864.494	-0.74
864.661	2.04
864.828	-1.62
864.996	1.61
865.163	0.65
865.33	-0.72
865.497	-1.08
865.664	-0.96
865.832	-2.05
865.999	-1.93
866.166	-1.86
866.333	-1.25
866.5	-1.51
866.667	-0.58
866.834	-0.46
867.001	0.62
867.168	-1.11
867.335	-0.63
867.502	-1.79
867.669	0.67
867.836	1.89
868.003	-0.16
868.17	1.24
868.337	1.74
868.504	2.53
868.671	-1.03
868.838	-0.82
869.005	-0.54
869.172	1.03
869.339	0.1
869.505	-0.62
869.672	0.31
869.839	1.67
870.006	1.25
870.173	-2.83
870.339	1.17
870.506	2.09
870.673	-0.45
870.84	0.46
871.006	0.91
871.173	-1.06
871.34	0.82
871.506	-0.49
871.673	-0.89
871.839	-2
872.006	-0.91
872.173	-0.52
872.339	-0.52
872.506	2.37
872.672	-0.76
872.839	-1.81
873.005	0.59
873.172	3.37
873.338	1.01
873.505	0.26
873.671	0.14
873.838	0.21
874.004	-1.92
874.171	0.24
874.337	1
874.503	1.59
874.67	-0.24
874.836	-0.91
875.002	1.99
875.169	1.66
875.335	0.69
875.501	-0.01
875.668	2.01
875.834	0.61
876	-1.17
876.166	0.11
876.332	1.93
876.499	4.12
876.665	0.42
876.831	-1.69
876.997	2.9
877.163	0.87
877.329	-0.96
877.495	-0.23
877.662	0.72
877.828	0.24
877.994	0.25
878.16	-2.14
878.326	-1.23
878.492	1.19
878.658	0.27
878.824	1.6
878.99	-0.61
879.156	-0.68
879.322	2.73
879.487	-1.04
879.653	-1.49
879.819	-0.12
879.985	-1.26
880.151	0.58
880.317	-1.45
880.483	-0.16
880.648	0.62
880.814	-3.52
880.98	1.22
881.146	-1.5
881.312	-0.91
881.477	-1.36
881.643	-0.01
881.809	0.76
881.974	2.36
882.14	-3.26
882.306	-0.5
882.471	3.7
882.637	-0.11
882.803	0.38
882.968	4.14
883.134	1.73
883.299	-0.22
883.465	-0.7
883.63	0.14
883.796	1.57
883.961	0.42
884.127	0.86
884.292	-4.1
884.458	-2.8
884.623	-2.8
