Data from Apollo_Calib_20240827__AbsoluteIrradiance__170__01-59-01-477.txt Node

Date: Wed Aug 28 01:59:01 BST 2024
User: biology
Spectrometer: FLMT08252
Trigger mode: 0
Integration Time (sec): 5.000000E-1
Scans to average: 5
Electric dark correction enabled: true
Nonlinearity correction enabled: false
Boxcar width: 0
XAxis mode: Wavelengths
Number of Pixels in Spectrum: 3648
>>>>>Begin Spectral Data<<<<<
179.588	-0
179.809	-0
180.03	-0
180.251	-0
180.473	-0
180.694	0
180.915	0
181.136	-0
181.357	0
181.578	-0
181.799	-0
182.02	-0
182.241	-0
182.462	-0
182.683	0
182.904	-0
183.125	-0
183.346	0
183.567	0
183.788	-0
184.009	-0
184.23	0
184.451	0
184.672	-0
184.892	-0
185.113	0
185.334	0
185.555	-0
185.776	-0
185.996	0
186.217	0
186.438	0
186.659	-0
186.879	0
187.1	-0
187.321	-0
187.541	-0
187.762	0
187.983	0
188.203	0
188.424	0
188.644	-0
188.865	0
189.086	-0
189.306	-0
189.527	0
189.747	0
189.968	-0
190.188	0
190.409	-0
190.629	0
190.849	-0
191.07	-0
191.29	0
191.511	0
191.731	-0
191.951	0
192.172	0
192.392	0
192.612	-0
192.833	-0
193.053	0
193.273	0
193.493	-0
193.714	-0
193.934	0
194.154	0
194.374	0
194.594	-0
194.815	-0
195.035	0
195.255	0
195.475	-0
195.695	0
195.915	-0
196.135	-0
196.355	0
196.575	0
196.795	0
197.015	-0
197.235	-0
197.455	-0
197.675	0
197.895	-0
198.115	-0
198.335	0
198.555	-0
198.775	0
198.995	0
199.214	0
199.434	0
199.654	-0
199.874	-0
200.094	1.04
200.313	0.05
200.533	-0.47
200.753	-0.85
200.973	1.09
201.192	1.13
201.412	-0.89
201.632	-0.36
201.851	0.35
202.071	-0.41
202.291	-0.48
202.51	-0.57
202.73	0.02
202.95	-0.02
203.169	-0.53
203.389	-0.14
203.608	-0.18
203.828	-0.58
204.047	0.02
204.267	0.43
204.486	0.1
204.706	0.19
204.925	-0.37
205.145	-0.05
205.364	0.63
205.583	0.46
205.803	-0.2
206.022	-0.29
206.242	0.36
206.461	-0.19
206.68	-0.4
206.9	0.23
207.119	0.72
207.338	0.44
207.557	-0.42
207.777	-0.03
207.996	0.05
208.215	0.59
208.434	-0.06
208.654	-0.45
208.873	0.36
209.092	0.59
209.311	-0.24
209.53	-0
209.749	-0.23
209.968	-0.23
210.187	-0.09
210.407	-0.34
210.626	0.1
210.845	0.27
211.064	0.1
211.283	-0.22
211.502	0.24
211.721	-0.03
211.94	-0.05
212.159	0.05
212.377	0.44
212.596	0.34
212.815	0.15
213.034	0.07
213.253	0.46
213.472	0.22
213.691	-0.03
213.91	-0.18
214.128	-0.14
214.347	0.4
214.566	-0.23
214.785	-0.32
215.003	0.22
215.222	0.17
215.441	0.06
215.66	-0.4
215.878	-0.02
216.097	0.28
216.316	-0.25
216.534	-0.26
216.753	0.04
216.972	-0.08
217.19	0.14
217.409	-0.17
217.627	-0.21
217.846	0.06
218.064	-0.12
218.283	-0.18
218.501	0.45
218.72	0.26
218.938	-0.25
219.157	-0.21
219.375	0.11
219.594	0.16
219.812	-0.27
220.031	-0.17
220.249	0.2
220.467	0.42
220.686	-0.01
220.904	-0.26
221.122	-0.06
221.341	0.27
221.559	0.01
221.777	-0.17
221.995	0.07
222.214	0.05
222.432	-0.12
222.65	-0.01
222.868	0.1
223.086	0.21
223.305	0.04
223.523	-0.04
223.741	0.24
223.959	0.1
224.177	-0.33
224.395	-0.13
224.613	-0.01
224.831	0.26
225.049	-0.19
225.267	0.01
225.485	0.04
225.703	-0.02
225.921	-0.02
226.139	-0.12
226.357	0.18
226.575	0.11
226.793	-0.02
227.011	0.59
227.229	0.01
227.447	0.31
227.665	-0.18
227.883	-0.22
228.1	-0.02
228.318	0.04
228.536	-0.31
228.754	-0.17
228.972	0.04
229.189	0.01
229.407	-0.12
229.625	-0.13
229.843	0.22
230.06	0.14
230.278	-0.05
230.496	0.03
230.713	-0.02
230.931	0.18
231.149	-0.11
231.366	-0.19
231.584	0.01
231.801	0.34
232.019	-0.08
232.236	-0.21
232.454	-0.13
232.671	0.07
232.889	-0.03
233.106	-0.05
233.324	0.04
233.541	0.06
233.759	-0.02
233.976	-0.06
234.194	-0.06
234.411	-0.07
234.628	-0.1
234.846	0.03
235.063	0.04
235.28	0.02
235.498	0
235.715	-0.1
235.932	0.19
236.149	-0.1
236.367	-0.08
236.584	0.07
236.801	-0.08
237.018	0.07
237.236	0.04
237.453	-0.1
237.67	0.15
237.887	0.03
238.104	-0.01
238.321	-0.14
238.538	-0.15
238.755	0.12
238.973	-0.12
239.19	-0.01
239.407	0.08
239.624	0.03
239.841	-0.21
240.058	-0.1
240.275	0.03
240.492	0.01
240.709	-0.11
240.925	-0.1
241.142	0.06
241.359	-0.19
241.576	-0.02
241.793	-0.08
242.01	0.11
242.227	0.11
242.444	0.09
242.66	0.12
242.877	-0.01
243.094	0.06
243.311	0.13
243.527	-0.04
243.744	-0
243.961	0.07
244.178	-0.07
244.394	-0.03
244.611	0.1
244.828	0.18
245.044	-0.1
245.261	-0.11
245.477	0.04
245.694	0.01
245.911	-0.03
246.127	0.04
246.344	0.07
246.56	0.11
246.777	0.03
246.993	0
247.21	0.09
247.426	0.07
247.643	0
247.859	-0.06
248.076	-0.09
248.292	0.26
248.508	-0.05
248.725	0
248.941	0.07
249.157	0.15
249.374	-0.06
249.59	-0.05
249.806	0.07
250.023	0.15
250.239	-0.07
250.455	-0.09
250.671	0.06
250.888	-0
251.104	0.08
251.32	-0.07
251.536	-0
251.752	-0.01
251.969	0.01
252.185	0.14
252.401	0.17
252.617	0.05
252.833	0.02
253.049	-0.03
253.265	0.03
253.481	0.02
253.697	-0.08
253.913	-0.03
254.129	0.07
254.345	0.07
254.561	-0.06
254.777	-0.01
254.993	0.08
255.209	-0.02
255.425	0.02
255.641	-0.11
255.857	0.14
256.073	0.02
256.288	-0.05
256.504	-0.05
256.72	0.04
256.936	0.19
257.152	0.01
257.367	-0.07
257.583	0.04
257.799	0.1
258.015	-0.03
258.23	-0.04
258.446	0.07
258.662	0.06
258.877	-0.07
259.093	-0.03
259.309	-0.03
259.524	0.02
259.74	-0.05
259.955	-0.06
260.171	0.03
260.387	0.08
260.602	0.08
260.818	0.08
261.033	-0.06
261.249	-0.01
261.464	-0.03
261.68	-0.12
261.895	0.01
262.11	0.09
262.326	-0.01
262.541	-0.08
262.757	0.05
262.972	0.03
263.187	0.03
263.403	-0.01
263.618	0.12
263.833	0.01
264.049	-0.05
264.264	0.05
264.479	0.1
264.694	0.12
264.91	-0.08
265.125	-0.03
265.34	-0
265.555	0.23
265.77	0.02
265.986	-0.01
266.201	0.04
266.416	0.13
266.631	-0.04
266.846	0.02
267.061	0.01
267.276	0.07
267.491	-0.12
267.706	0.06
267.921	0.06
268.136	-0.01
268.351	0.03
268.566	-0.09
268.781	0.13
268.996	0.1
269.211	-0
269.426	-0.04
269.641	-0.02
269.856	0.07
270.071	-0.06
270.285	-0.06
270.5	0.06
270.715	0.07
270.93	0
271.145	0.02
271.359	0.09
271.574	-0.06
271.789	0
272.004	-0.03
272.218	0.01
272.433	0.08
272.648	-0.04
272.862	0.07
273.077	0.05
273.292	0.06
273.506	-0.03
273.721	0.01
273.936	0.09
274.15	0.09
274.365	0.02
274.579	0.01
274.794	0.07
275.008	0.1
275.223	-0.11
275.437	0.01
275.652	0.02
275.866	-0.01
276.081	-0.04
276.295	0.08
276.509	0.05
276.724	0.02
276.938	-0.02
277.153	0.02
277.367	0.02
277.581	0.01
277.796	-0.03
278.01	0.02
278.224	0.06
278.438	0.08
278.653	-0.02
278.867	-0.02
279.081	0.07
279.295	-0.03
279.51	0.03
279.724	-0.05
279.938	0.11
280.152	0.06
280.366	-0.03
280.58	0.01
280.794	0.13
281.008	-0.01
281.222	0.03
281.437	0.13
281.651	0.02
281.865	0.11
282.079	-0.02
282.293	-0.1
282.507	-0.07
282.721	0.02
282.935	-0
283.148	-0.09
283.362	-0.06
283.576	-0.01
283.79	0.02
284.004	-0.05
284.218	0.08
284.432	-0.02
284.646	-0.02
284.859	-0.07
285.073	-0.01
285.287	0.07
285.501	0.01
285.714	-0.03
285.928	0.04
286.142	-0
286.356	-0
286.569	-0.01
286.783	0.11
286.997	0.04
287.21	0.02
287.424	0.05
287.637	-0
287.851	0.02
288.065	0.02
288.278	-0.05
288.492	0.06
288.705	0
288.919	0.02
289.132	-0.08
289.346	0.03
289.559	-0.05
289.773	-0.02
289.986	0.01
290.2	0.03
290.413	0.02
290.626	-0.08
290.84	-0.01
291.053	0
291.267	0.08
291.48	0.02
291.693	0.04
291.906	0
292.12	0
292.333	-0.05
292.546	-0.02
292.76	0.1
292.973	0.02
293.186	0.04
293.399	-0.02
293.612	0.04
293.826	0.01
294.039	0.02
294.252	-0.01
294.465	0.04
294.678	0.04
294.891	0.02
295.104	0.01
295.317	0.01
295.53	-0.01
295.743	0.01
295.956	0.01
296.169	0.08
296.382	0.06
296.595	0.01
296.808	-0.02
297.021	0.08
297.234	0.08
297.447	-0.03
297.66	0.04
297.873	0.1
298.086	0.07
298.299	0.03
298.511	-0.04
298.724	0.04
298.937	-0.03
299.15	-0.02
299.363	0.02
299.575	0.03
299.788	0.05
300.001	-0.01
300.213	0.02
300.426	0.01
300.639	-0.02
300.852	-0.05
301.064	0.07
301.277	0.09
301.489	0.05
301.702	0.02
301.915	0.03
302.127	0.03
302.34	0.01
302.552	0.04
302.765	-0.01
302.977	0.01
303.19	-0.03
303.402	-0.02
303.615	0.02
303.827	-0.01
304.04	0
304.252	0.02
304.464	0.01
304.677	0.15
304.889	0.05
305.102	0.02
305.314	-0.03
305.526	0.05
305.739	0.05
305.951	-0.02
306.163	0.02
306.375	0.1
306.588	-0.01
306.8	0
307.012	-0.06
307.224	0.01
307.436	0.08
307.649	-0.02
307.861	0.05
308.073	0.06
308.285	0.02
308.497	-0
308.709	-0.04
308.921	0.02
309.133	0.05
309.346	0.03
309.558	-0.02
309.77	0.03
309.982	0.08
310.194	0.08
310.406	-0.02
310.617	0.06
310.829	0.03
311.041	0.05
311.253	-0.04
311.465	0
311.677	-0
311.889	0.03
312.101	-0.02
312.313	0.07
312.524	0.05
312.736	-0.06
312.948	0.04
313.16	0.12
313.372	0.04
313.583	0.05
313.795	0.01
314.007	-0.02
314.218	0.08
314.43	0.03
314.642	-0.01
314.853	-0.03
315.065	0.08
315.277	0.02
315.488	0.05
315.7	0.06
315.912	0.02
316.123	0.04
316.335	0.01
316.546	0.12
316.758	-0.01
316.969	-0.06
317.181	-0
317.392	-0.02
317.604	0.08
317.815	-0.01
318.026	-0.01
318.238	-0
318.449	0.03
318.661	-0.07
318.872	-0.01
319.083	-0.07
319.295	0.07
319.506	-0.04
319.717	0.01
319.929	0.05
320.14	-0
320.351	0.03
320.562	-0.02
320.774	0
320.985	0
321.196	-0.08
321.407	-0.04
321.618	0.08
321.829	0.03
322.041	0.1
322.252	0.01
322.463	0.05
322.674	0.01
322.885	-0.03
323.096	-0.02
323.307	-0.03
323.518	0.02
323.729	-0.06
323.94	-0.02
324.151	-0
324.362	0.01
324.573	0.01
324.784	-0.03
324.995	0.1
325.206	0.05
325.417	0
325.628	0.01
325.838	0.01
326.049	0.01
326.26	0.06
326.471	0.01
326.682	0.04
326.892	0.04
327.103	-0.03
327.314	-0.03
327.525	0.11
327.735	-0.01
327.946	-0.01
328.157	0.01
328.368	0.01
328.578	0
328.789	0
328.999	0.04
329.21	0.01
329.421	0.02
329.631	-0.05
329.842	-0.01
330.052	0.05
330.263	0.01
330.473	0.05
330.684	-0
330.894	0
331.105	0.02
331.315	0.07
331.526	-0.01
331.736	0.08
331.947	0.05
332.157	0.07
332.367	-0.02
332.578	0.09
332.788	0.09
332.999	0.02
333.209	0.02
333.419	0
333.629	0.05
333.84	0.02
334.05	-0.01
334.26	0.07
334.47	0.04
334.681	0.05
334.891	-0.01
335.101	0.05
335.311	0.07
335.521	0.03
335.732	-0.05
335.942	0.08
336.152	0.04
336.362	0.04
336.572	0.04
336.782	0.06
336.992	-0.01
337.202	0.02
337.412	0.01
337.622	0.03
337.832	0.03
338.042	0.01
338.252	-0
338.462	-0.01
338.672	0.04
338.882	0.01
339.092	-0.02
339.302	0.09
339.511	0.01
339.721	-0.04
339.931	-0.02
340.141	0.1
340.351	0.08
340.561	0.04
340.77	0.02
340.98	0.02
341.19	0.03
341.4	0.03
341.609	-0.05
341.819	0.05
342.029	-0.03
342.238	0.03
342.448	0
342.658	0.06
342.867	-0
343.077	0.05
343.286	0.01
343.496	0.02
343.706	0.09
343.915	-0.01
344.125	-0.02
344.334	-0.01
344.544	-0.07
344.753	0
344.963	0.01
345.172	-0.02
345.381	-0.04
345.591	-0.01
345.8	0.03
346.01	0.05
346.219	0.04
346.428	-0.12
346.638	0.01
346.847	0.02
347.056	0.08
347.266	0.01
347.475	0.02
347.684	0.05
347.893	0.01
348.103	0.03
348.312	0
348.521	-0.02
348.73	0.06
348.94	-0.01
349.149	0.06
349.358	0.03
349.567	0.02
349.776	-0.04
349.985	0.01
350.194	0.07
350.403	0.05
350.612	-0.05
350.821	0.03
351.03	0.02
351.239	-0.03
351.448	0.05
351.657	0.01
351.866	0.05
352.075	0.04
352.284	0.01
352.493	-0.04
352.702	0.13
352.911	0.04
353.12	-0.01
353.329	0.02
353.538	0.02
353.746	0.03
353.955	0.01
354.164	0.03
354.373	0.03
354.582	0.05
354.79	0.01
354.999	0.03
355.208	0.03
355.416	0.11
355.625	-0.03
355.834	-0.02
356.042	0.06
356.251	0.02
356.46	-0.01
356.668	0.05
356.877	0.12
357.085	0.06
357.294	-0.1
357.503	0.04
357.711	0
357.92	0.14
358.128	-0
358.337	0
358.545	0.04
358.754	0.02
358.962	0.05
359.17	0.01
359.379	0.03
359.587	-0
359.796	0.01
360.004	0.03
360.212	0.09
360.421	0.04
360.629	0.02
360.837	0.03
361.046	0.06
361.254	0.08
361.462	0.05
361.67	-0.02
361.879	0.01
362.087	0.06
362.295	0.04
362.503	-0.02
362.711	0.01
362.92	-0.01
363.128	0.01
363.336	-0.03
363.544	-0.03
363.752	0.01
363.96	-0.02
364.168	-0.01
364.376	0.02
364.584	0.06
364.792	0.05
365	0.05
365.208	0.06
365.416	0.09
365.624	0.06
365.832	0
366.04	0.07
366.248	0.01
366.456	0.05
366.664	0.01
366.872	0.03
367.079	0.04
367.287	0.01
367.495	0.02
367.703	0.01
367.911	0.03
368.118	0.02
368.326	0.01
368.534	-0.02
368.742	0.09
368.949	-0.03
369.157	0.02
369.365	0.1
369.572	-0.01
369.78	-0.01
369.988	0.06
370.195	0.08
370.403	0.06
370.61	-0
370.818	0.04
371.026	0.07
371.233	-0.01
371.441	0.03
371.648	-0.01
371.856	0.02
372.063	0.04
372.271	-0.01
372.478	0.01
372.685	0.01
372.893	0.07
373.1	0.02
373.308	0
373.515	0.15
373.722	0.04
373.93	0.05
374.137	0.05
374.344	0.14
374.552	0.07
374.759	0.05
374.966	0.01
375.173	0.03
375.381	0.07
375.588	0.03
375.795	-0.02
376.002	0.03
376.209	0.01
376.417	0.07
376.624	0.01
376.831	0.06
377.038	0.08
377.245	-0.06
377.452	0.02
377.659	0.04
377.866	0.01
378.073	0.02
378.28	0.02
378.487	0.09
378.694	0.11
378.901	0.02
379.108	0.05
379.315	0.05
379.522	0.14
379.729	0.08
379.936	0.08
380.143	0.05
380.35	0.05
380.557	0.05
380.763	0.08
380.97	0.03
381.177	0.08
381.384	0.06
381.591	0.03
381.797	0.07
382.004	0.05
382.211	0.11
382.418	0.03
382.624	0.08
382.831	0.11
383.038	0.06
383.244	0.05
383.451	0.05
383.658	0.09
383.864	0.07
384.071	0.03
384.277	0.13
384.484	0.03
384.69	0.1
384.897	0.06
385.103	0.05
385.31	0.08
385.516	0.08
385.723	0.11
385.929	0.07
386.136	0.11
386.342	0.15
386.549	0.13
386.755	0.15
386.961	0.1
387.168	0.14
387.374	0.13
387.58	0.17
387.787	0.15
387.993	0.17
388.199	0.15
388.406	0.13
388.612	0.14
388.818	0.18
389.024	0.14
389.231	0.16
389.437	0.26
389.643	0.26
389.849	0.24
390.055	0.22
390.261	0.24
390.467	0.26
390.674	0.23
390.88	0.28
391.086	0.31
391.292	0.26
391.498	0.36
391.704	0.34
391.91	0.38
392.116	0.34
392.322	0.3
392.528	0.49
392.734	0.41
392.94	0.45
393.146	0.46
393.352	0.48
393.557	0.54
393.763	0.56
393.969	0.64
394.175	0.57
394.381	0.67
394.587	0.66
394.792	0.69
394.998	0.83
395.204	0.84
395.41	0.81
395.615	0.94
395.821	0.99
396.027	1
396.233	1.12
396.438	1.15
396.644	1.26
396.85	1.26
397.055	1.34
397.261	1.45
397.466	1.49
397.672	1.54
397.878	1.61
398.083	1.78
398.289	1.72
398.494	1.85
398.7	1.92
398.905	1.88
399.111	2.15
399.316	2.07
399.522	2.23
399.727	2.26
399.932	2.47
400.138	2.5
400.343	2.68
400.549	2.7
400.754	2.88
400.959	3.02
401.165	3.2
401.37	3.28
401.575	3.44
401.78	3.58
401.986	3.8
402.191	3.9
402.396	4.06
402.601	4.24
402.807	4.39
403.012	4.56
403.217	4.95
403.422	4.96
403.627	5.13
403.832	5.41
404.037	5.51
404.243	5.58
404.448	5.7
404.653	5.9
404.858	6.1
405.063	6.03
405.268	6.28
405.473	6.26
405.678	6.48
405.883	6.85
406.088	6.81
406.293	6.78
406.498	7.01
406.703	6.96
406.907	7.2
407.112	7.38
407.317	7.5
407.522	7.63
407.727	7.55
407.932	7.75
408.136	7.9
408.341	7.59
408.546	7.7
408.751	7.55
408.956	7.56
409.16	7.73
409.365	7.59
409.57	7.37
409.774	7.27
409.979	7.29
410.184	7.16
410.388	6.96
410.593	7.04
410.798	6.88
411.002	6.88
411.207	6.61
411.411	6.51
411.616	6.18
411.82	6.32
412.025	6.03
412.229	5.99
412.434	5.84
412.638	5.57
412.843	5.43
413.047	5.19
413.252	5.01
413.456	5.1
413.66	4.91
413.865	4.65
414.069	4.59
414.273	4.53
414.478	4.3
414.682	4.11
414.886	4.03
415.091	3.79
415.295	3.72
415.499	3.8
415.703	3.47
415.908	3.56
416.112	3.27
416.316	3.41
416.52	3.26
416.724	3.14
416.929	3.09
417.133	3.17
417.337	2.91
417.541	2.94
417.745	2.85
417.949	2.82
418.153	2.75
418.357	2.59
418.561	2.73
418.765	2.58
418.969	2.54
419.173	2.55
419.377	2.39
419.581	2.45
419.785	2.39
419.989	2.3
420.193	2.2
420.397	2.17
420.601	2.19
420.804	2.11
421.008	2.04
421.212	1.98
421.416	1.92
421.62	1.81
421.823	1.83
422.027	1.84
422.231	1.66
422.435	1.61
422.638	1.53
422.842	1.64
423.046	1.44
423.249	1.48
423.453	1.42
423.657	1.36
423.86	1.32
424.064	1.27
424.268	1.32
424.471	1.22
424.675	1.26
424.878	1.22
425.082	1.13
425.285	1.15
425.489	1.05
425.692	0.99
425.896	0.91
426.099	0.96
426.303	0.89
426.506	0.9
426.71	0.91
426.913	0.97
427.116	0.93
427.32	0.88
427.523	0.78
427.726	0.85
427.93	0.71
428.133	0.8
428.336	0.74
428.54	0.68
428.743	0.74
428.946	0.75
429.149	0.72
429.353	0.68
429.556	0.63
429.759	0.64
429.962	0.57
430.165	0.58
430.368	0.58
430.571	0.59
430.775	0.59
430.978	0.5
431.181	0.58
431.384	0.52
431.587	0.5
431.79	0.55
431.993	0.48
432.196	0.47
432.399	0.48
432.602	0.53
432.805	0.51
433.008	0.43
433.211	0.4
433.414	0.53
433.616	0.51
433.819	0.43
434.022	0.37
434.225	0.52
434.428	0.45
434.631	0.59
434.833	0.42
435.036	0.39
435.239	0.5
435.442	0.39
435.645	0.37
435.847	0.38
436.05	0.45
436.253	0.41
436.455	0.34
436.658	0.37
436.861	0.41
437.063	0.33
437.266	0.33
437.468	0.38
437.671	0.49
437.874	0.35
438.076	0.25
438.279	0.2
438.481	0.26
438.684	0.29
438.886	0.31
439.089	0.22
439.291	0.25
439.494	0.32
439.696	0.25
439.899	0.29
440.101	0.26
440.303	0.2
440.506	0.35
440.708	0.27
440.91	0.29
441.113	0.22
441.315	0.22
441.517	0.2
441.72	0.31
441.922	0.17
442.124	0.15
442.326	0.26
442.529	0.33
442.731	0.19
442.933	0.31
443.135	0.21
443.337	0.22
443.539	0.19
443.742	0.21
443.944	0.23
444.146	0.13
444.348	0.19
444.55	0.18
444.752	0.14
444.954	0.14
445.156	0.21
445.358	0.13
445.56	0.23
445.762	0.16
445.964	0.18
446.166	0.17
446.368	0.21
446.57	0.21
446.772	0.15
446.974	0.15
447.175	0.18
447.377	0.1
447.579	0.14
447.781	0.03
447.983	0.17
448.184	0.14
448.386	0.18
448.588	0.05
448.79	0.17
448.991	0.09
449.193	0.07
449.395	0.1
449.597	0.15
449.798	0.14
450	0.15
450.202	0.12
450.403	0.12
450.605	0.15
450.806	0.09
451.008	-0
451.21	0.12
451.411	0.1
451.613	0.1
451.814	0.12
452.016	0.12
452.217	0.14
452.419	0.15
452.62	0.14
452.821	0.14
453.023	0.19
453.224	0.16
453.426	0.1
453.627	0.14
453.828	0.18
454.03	0.12
454.231	0.16
454.432	0.06
454.634	0.22
454.835	0.02
455.036	0.04
455.238	0.16
455.439	0.19
455.64	0.04
455.841	0.03
456.042	0.22
456.244	0.15
456.445	0.02
456.646	0.05
456.847	0.11
457.048	0.15
457.249	0.16
457.45	0.3
457.651	0.06
457.852	0.14
458.054	0.1
458.255	0.09
458.456	0.1
458.657	0.11
458.858	0.08
459.058	0.06
459.259	0.13
459.46	0.11
459.661	0.13
459.862	0.22
460.063	0.13
460.264	0.13
460.465	0.05
460.666	0.22
460.866	0.1
461.067	0.09
461.268	0.09
461.469	0.07
461.67	0.12
461.87	0.08
462.071	0.04
462.272	0.04
462.473	0.11
462.673	0.16
462.874	0.08
463.075	0.08
463.275	0.05
463.476	0.15
463.676	0.12
463.877	0.05
464.078	0.06
464.278	0.13
464.479	0.07
464.679	0.11
464.88	0.07
465.08	0.16
465.281	0.09
465.481	0.06
465.682	0.07
465.882	0.13
466.083	0.11
466.283	0.11
466.483	0.09
466.684	0.04
466.884	0.07
467.085	0.07
467.285	0.14
467.485	-0.01
467.686	0.08
467.886	0.07
468.086	0.09
468.286	0.12
468.487	0.12
468.687	0.03
468.887	0.1
469.087	0.13
469.287	0.09
469.488	0.02
469.688	0.09
469.888	0.12
470.088	0.15
470.288	0.11
470.488	0.11
470.688	0.04
470.888	0.07
471.088	0.05
471.288	0.12
471.488	0.13
471.688	0.07
471.888	0.04
472.088	0.11
472.288	0.09
472.488	0.02
472.688	0.04
472.888	0.07
473.088	0.07
473.288	0.05
473.488	0.07
473.688	0.13
473.887	0.11
474.087	0.07
474.287	0.06
474.487	0.03
474.687	0.08
474.886	0.02
475.086	0.04
475.286	0.05
475.486	0.07
475.685	0.07
475.885	0.08
476.085	0.06
476.284	0.12
476.484	0.05
476.684	0.09
476.883	0.1
477.083	0.08
477.282	0.06
477.482	0.13
477.681	0.1
477.881	0.06
478.08	0.04
478.28	-0
478.479	0.06
478.679	0.1
478.878	0.05
479.078	0.04
479.277	0.06
479.477	0.06
479.676	0.09
479.875	0.03
480.075	0.01
480.274	0.04
480.473	0.08
480.673	0.01
480.872	0.09
481.071	0.03
481.271	0.08
481.47	0.03
481.669	0
481.868	0.04
482.067	0.02
482.267	0.03
482.466	0.03
482.665	0.04
482.864	-0
483.063	0.02
483.262	0.08
483.461	0.1
483.661	0.06
483.86	0.05
484.059	0.05
484.258	0.06
484.457	0.05
484.656	0.06
484.855	0.08
485.054	-0.01
485.253	0
485.452	0
485.651	0.04
485.849	0.03
486.048	0.03
486.247	0.01
486.446	0.04
486.645	0.01
486.844	0.02
487.043	0.02
487.241	0.06
487.44	-0
487.639	0.03
487.838	0.08
488.037	0.05
488.235	0.09
488.434	0.06
488.633	0.01
488.831	0.03
489.03	0.05
489.229	0.03
489.427	0.02
489.626	0.07
489.825	0.09
490.023	0.06
490.222	0.02
490.42	0.04
490.619	0.08
490.817	0.02
491.016	0.04
491.214	0.05
491.413	0.01
491.611	0.03
491.81	0.03
492.008	0.05
492.207	0.06
492.405	0.04
492.604	-0.01
492.802	0.03
493	0.02
493.199	0.04
493.397	0.02
493.595	0.03
493.794	0.03
493.992	0.07
494.19	0.02
494.388	0.05
494.587	0.02
494.785	0.05
494.983	0.01
495.181	0.03
495.379	0.02
495.578	0.02
495.776	0.06
495.974	0.04
496.172	0.02
496.37	0.02
496.568	0.01
496.766	0.01
496.964	0.05
497.162	0.02
497.36	0.01
497.558	0.04
497.756	0.06
497.954	0.02
498.152	-0.02
498.35	0.04
498.548	0.02
498.746	0.02
498.944	-0.02
499.142	0.03
499.34	0.01
499.538	0.03
499.736	-0.01
499.933	0.06
500.131	0.05
500.329	0.03
500.527	0.05
500.725	0.08
500.922	0.05
501.12	0.02
501.318	0.03
501.516	0.02
501.713	0.04
501.911	0.02
502.109	0
502.306	0.03
502.504	0.02
502.701	0.03
502.899	0.02
503.097	0.07
503.294	0.04
503.492	0.02
503.689	0.02
503.887	0.04
504.084	0.06
504.282	0.04
504.479	-0
504.677	0.04
504.874	-0.01
505.072	0.02
505.269	0.01
505.466	0.05
505.664	0.03
505.861	-0.03
506.059	0
506.256	0.04
506.453	0.02
506.651	0.05
506.848	0.02
507.045	0.03
507.242	0.03
507.44	0.02
507.637	0.02
507.834	0.01
508.031	0.06
508.229	-0.01
508.426	0.02
508.623	0.04
508.82	0.02
509.017	-0.02
509.214	0.01
509.411	0.03
509.608	-0
509.805	0.01
510.003	0.01
510.2	0
510.397	0.04
510.594	0.01
510.791	-0.01
510.988	0.01
511.184	0.05
511.381	0.01
511.578	-0
511.775	0.05
511.972	0.03
512.169	0
512.366	-0.01
512.563	0.01
512.76	-0
512.956	0.03
513.153	0
513.35	0.03
513.547	-0.01
513.744	-0.01
513.94	-0.01
514.137	0.04
514.334	0.02
514.53	0.01
514.727	0.02
514.924	0.04
515.12	-0
515.317	-0.01
515.514	-0
515.71	-0.03
515.907	0.01
516.103	0.03
516.3	0.02
516.497	0.03
516.693	0.06
516.89	0.03
517.086	-0
517.283	0.07
517.479	0.03
517.676	0.02
517.872	0.03
518.068	0.01
518.265	0.02
518.461	-0.02
518.658	-0
518.854	0.01
519.05	0
519.247	-0
519.443	0.03
519.639	0.01
519.836	0.02
520.032	0.02
520.228	0.02
520.424	0.06
520.621	0.04
520.817	0.01
521.013	0.03
521.209	0.02
521.405	0.06
521.601	0.01
521.798	0.02
521.994	0.05
522.19	-0.01
522.386	-0.02
522.582	0.02
522.778	0.01
522.974	-0.02
523.17	0.01
523.366	0.04
523.562	0.04
523.758	0.03
523.954	-0
524.15	0.02
524.346	0.03
524.542	-0
524.738	-0.01
524.934	0.01
525.129	0.03
525.325	0.02
525.521	0.02
525.717	0.03
525.913	0.02
526.109	-0
526.304	0.02
526.5	0.02
526.696	0.05
526.892	0.01
527.087	0.01
527.283	-0
527.479	0.03
527.674	-0.02
527.87	0.02
528.066	0.01
528.261	0.02
528.457	0.01
528.653	0
528.848	0.01
529.044	0.01
529.239	0.02
529.435	0.05
529.63	0
529.826	0.07
530.021	0.02
530.217	0.03
530.412	-0.02
530.608	0.01
530.803	0.02
530.999	0.02
531.194	-0.05
531.389	0.01
531.585	-0.04
531.78	-0.01
531.975	0.01
532.171	0.04
532.366	0
532.561	0.01
532.757	-0.01
532.952	0.01
533.147	0.04
533.342	0
533.538	-0.01
533.733	0.04
533.928	0.01
534.123	0
534.318	-0
534.513	0.01
534.709	0.02
534.904	-0.01
535.099	0
535.294	0.02
535.489	0
535.684	-0
535.879	-0.01
536.074	0
536.269	-0
536.464	0.01
536.659	0.02
536.854	0.01
537.049	0.02
537.244	0.02
537.439	0
537.634	0.04
537.828	0.02
538.023	0.01
538.218	-0.02
538.413	-0.02
538.608	-0
538.803	0.04
538.997	-0.03
539.192	0.04
539.387	0.03
539.582	0.04
539.776	0.02
539.971	-0
540.166	0.02
540.36	-0.01
540.555	0.01
540.75	0.02
540.944	0
541.139	-0.02
541.334	-0
541.528	0.04
541.723	0.03
541.917	-0.02
542.112	-0.02
542.306	-0
542.501	0.02
542.695	0.02
542.89	0.01
543.084	0.01
543.279	0.01
543.473	-0.02
543.668	-0.01
543.862	0
544.056	0.03
544.251	0.02
544.445	0.01
544.64	-0.02
544.834	-0.03
545.028	0.01
545.222	0.01
545.417	0.02
545.611	0.04
545.805	-0.02
546	-0.01
546.194	-0
546.388	-0.01
546.582	0.01
546.776	0.01
546.97	0.01
547.165	0.02
547.359	0.03
547.553	-0.01
547.747	0.01
547.941	-0.01
548.135	-0
548.329	0.03
548.523	0.01
548.717	0
548.911	0.02
549.105	0.02
549.299	0.03
549.493	0.04
549.687	0.03
549.881	0.01
550.075	-0
550.269	-0.01
550.463	0.03
550.657	-0.02
550.85	-0
551.044	-0.01
551.238	-0
551.432	-0.01
551.626	-0.03
551.82	0.01
552.013	-0.02
552.207	0
552.401	0.03
552.594	0.01
552.788	0.01
552.982	0
553.176	0
553.369	-0
553.563	0.02
553.756	-0
553.95	-0.03
554.144	-0
554.337	0.05
554.531	0.01
554.724	0.01
554.918	0
555.111	0.03
555.305	0.01
555.498	0.05
555.692	0.03
555.885	-0.01
556.079	0.02
556.272	-0.01
556.466	0.02
556.659	0.01
556.852	0
557.046	-0.01
557.239	0.03
557.432	-0.03
557.626	-0.02
557.819	0.02
558.012	0.01
558.206	0.02
558.399	0.02
558.592	0.02
558.785	-0
558.979	0.02
559.172	0.01
559.365	0.03
559.558	-0
559.751	0
559.944	0.03
560.138	-0
560.331	-0.02
560.524	-0.01
560.717	0.02
560.91	0.01
561.103	0.01
561.296	0.01
561.489	0.01
561.682	0.02
561.875	0.04
562.068	0.03
562.261	0.01
562.454	0.05
562.647	0
562.84	0.06
563.032	0
563.225	0
563.418	0
563.611	0
563.804	0
563.997	-0.03
564.19	-0.03
564.382	0.03
564.575	0.01
564.768	0
564.961	0
565.153	-0.01
565.346	0.03
565.539	0.03
565.731	0.03
565.924	0.01
566.117	0.04
566.309	0
566.502	-0.01
566.695	-0.01
566.887	-0
567.08	-0.01
567.272	0.02
567.465	-0.01
567.657	0.01
567.85	0
568.042	-0
568.235	0.05
568.427	0.01
568.62	-0.01
568.812	0.02
569.005	0.02
569.197	-0.04
569.389	0.03
569.582	0.03
569.774	0
569.966	-0.02
570.159	-0.02
570.351	0.03
570.543	0
570.736	0.01
570.928	-0
571.12	0
571.312	-0.02
571.505	-0.04
571.697	0.04
571.889	-0.03
572.081	-0.01
572.273	-0.01
572.465	0.05
572.658	0.01
572.85	0.03
573.042	-0.01
573.234	0.01
573.426	0.01
573.618	-0.02
573.81	0.03
574.002	0.04
574.194	0.05
574.386	-0.05
574.578	-0.05
574.77	0
574.962	-0.01
575.154	-0.02
575.346	0.01
575.538	0.01
575.729	-0.02
575.921	-0.01
576.113	0.02
576.305	0.03
576.497	-0.02
576.689	0.01
576.88	-0.02
577.072	-0
577.264	0
577.456	-0
577.647	-0.04
577.839	0.01
578.031	0.04
578.223	-0.03
578.414	-0.03
578.606	0.02
578.798	-0.01
578.989	0.01
579.181	0.01
579.372	-0.01
579.564	-0.02
579.755	0.01
579.947	0
580.139	0.05
580.33	-0.04
580.522	-0.04
580.713	-0.04
580.905	-0.01
581.096	0.02
581.287	0.01
581.479	-0
581.67	0.05
581.862	0.02
582.053	-0.01
582.244	-0.02
582.436	0
582.627	0.02
582.818	-0.04
583.01	-0.03
583.201	-0
583.392	0.02
583.583	-0
583.775	-0
583.966	0.01
584.157	-0
584.348	0
584.54	-0.03
584.731	0.02
584.922	0
585.113	-0.03
585.304	0.03
585.495	0.05
585.686	-0.01
585.877	0.02
586.068	-0
586.259	0.01
586.45	0.01
586.641	-0.04
586.832	-0.04
587.023	-0
587.214	-0.01
587.405	-0
587.596	0.02
587.787	0.04
587.978	0
588.169	-0.01
588.36	-0.03
588.551	0.03
588.742	-0.02
588.932	0.01
589.123	0
589.314	0.04
589.505	0.04
589.696	0
589.886	-0.02
590.077	-0.04
590.268	0.01
590.458	-0.02
590.649	-0.04
590.84	0.01
591.03	-0.01
591.221	-0.03
591.412	-0.02
591.602	0
591.793	0.05
591.984	-0.04
592.174	0.01
592.365	0.09
592.555	-0.03
592.746	0
592.936	0
593.127	0.03
593.317	0.02
593.508	-0.02
593.698	0.01
593.889	0.01
594.079	0.01
594.269	0
594.46	-0.02
594.65	0.01
594.84	0.01
595.031	-0.04
595.221	-0.01
595.411	-0.05
595.602	0.03
595.792	0.01
595.982	-0.01
596.172	0.05
596.363	-0.01
596.553	0.01
596.743	0.01
596.933	-0.03
597.123	0.04
597.314	-0.02
597.504	0
597.694	0.05
597.884	-0
598.074	0
598.264	-0.03
598.454	0.04
598.644	-0.01
598.834	-0
599.024	-0.07
599.214	0
599.404	0.03
599.594	-0.02
599.784	-0.04
599.974	0.08
600.164	0.02
600.354	-0.04
600.544	-0.04
600.734	-0.01
600.924	0.05
601.114	-0.01
601.303	0.01
601.493	0.03
601.683	-0.02
601.873	0.01
602.063	-0.05
602.252	0.05
602.442	-0.06
602.632	-0.03
602.821	-0.04
603.011	0
603.201	-0.01
603.39	-0.02
603.58	-0.03
603.77	0.01
603.959	0.04
604.149	0.01
604.339	0.02
604.528	0.03
604.718	0.03
604.907	-0.01
605.097	-0.02
605.286	-0.03
605.476	0.02
605.665	0.01
605.855	-0.01
606.044	0.05
606.234	-0.02
606.423	0.01
606.612	-0.07
606.802	0.01
606.991	0.01
607.181	0.03
607.37	-0.03
607.559	-0.03
607.749	-0.05
607.938	0.03
608.127	-0.01
608.316	-0.01
608.506	0.02
608.695	-0
608.884	-0.02
609.073	0
609.263	0.02
609.452	0.02
609.641	-0.01
609.83	-0.04
610.019	-0
610.208	-0.02
610.397	0
610.586	0.03
610.775	-0.01
610.965	-0.03
611.154	-0.03
611.343	0.02
611.532	0.01
611.721	-0.03
611.91	-0.03
612.099	0.03
612.287	-0.01
612.476	-0.02
612.665	0.03
612.854	-0.03
613.043	0.05
613.232	-0.03
613.421	-0.03
613.61	0.02
613.798	-0.02
613.987	0.01
614.176	-0.01
614.365	0.04
614.554	0.02
614.742	-0.01
614.931	-0.02
615.12	0.05
615.309	-0.01
615.497	-0
615.686	-0.04
615.875	0.01
616.063	0.01
616.252	-0.02
616.44	-0.05
616.629	0.02
616.818	0.04
617.006	-0.02
617.195	-0.02
617.383	0.02
617.572	0.04
617.76	-0.02
617.949	0
618.137	0
618.326	0.04
618.514	0
618.703	-0.04
618.891	0.06
619.079	-0.07
619.268	0.03
619.456	-0.04
619.644	0.02
619.833	-0
620.021	-0.03
620.209	-0.06
620.398	0.04
620.586	-0
620.774	-0.01
620.962	-0.03
621.151	0.07
621.339	0
621.527	-0.05
621.715	-0.05
621.903	-0.06
622.092	-0.05
622.28	0
622.468	0.01
622.656	0
622.844	0.01
623.032	0.01
623.22	-0.03
623.408	0.04
623.596	-0.03
623.784	0.03
623.972	-0.03
624.16	-0.05
624.348	0.03
624.536	-0.01
624.724	-0.02
624.912	0.07
625.1	0.02
625.288	-0.04
625.476	-0.05
625.664	0.05
625.851	-0.02
626.039	-0.02
626.227	0.01
626.415	-0.02
626.603	-0.04
626.79	0
626.978	-0.01
627.166	0.02
627.354	-0
627.541	-0.02
627.729	-0.05
627.917	0.02
628.104	0.05
628.292	0.02
628.48	-0.03
628.667	0.05
628.855	0.02
629.042	-0.01
629.23	-0.02
629.418	0.01
629.605	-0.01
629.793	-0.01
629.98	-0.02
630.168	-0.01
630.355	0.01
630.543	-0
630.73	-0.04
630.917	0.03
631.105	0.05
631.292	-0.04
631.48	0.02
631.667	0.07
631.854	0.01
632.042	-0.01
632.229	-0.07
632.416	0.04
632.604	0
632.791	-0.01
632.978	0.02
633.165	0.02
633.353	0.05
633.54	0.03
633.727	-0.04
633.914	-0.05
634.101	-0.06
634.289	0.03
634.476	-0.02
634.663	-0.05
634.85	-0.01
635.037	-0.04
635.224	-0.04
635.411	0.02
635.598	0.03
635.785	-0.01
635.972	-0.02
636.159	0.04
636.346	-0.01
636.533	0.01
636.72	-0.01
636.907	-0.02
637.094	0.03
637.281	-0.03
637.468	-0
637.655	0.01
637.842	0
638.029	-0.02
638.215	0.02
638.402	0.04
638.589	-0.03
638.776	-0.03
638.963	-0.01
639.149	0.02
639.336	0.04
639.523	-0
639.709	0
639.896	-0.01
640.083	0.05
640.27	0
640.456	-0.03
640.643	0.01
640.829	-0.06
641.016	-0.02
641.203	-0.06
641.389	0.07
641.576	0.03
641.762	-0.01
641.949	-0.03
642.135	0.01
642.322	0.01
642.508	-0.05
642.695	0.01
642.881	-0.02
643.068	-0.03
643.254	0.01
643.441	0.04
643.627	-0.02
643.813	-0.03
644	0.03
644.186	-0.05
644.372	-0.04
644.559	0.03
644.745	0.01
644.931	-0.03
645.118	0
645.304	-0.05
645.49	-0.03
645.676	-0.03
645.862	-0
646.049	0.05
646.235	-0.02
646.421	0.06
646.607	0.07
646.793	-0.04
646.979	-0.04
647.165	-0
647.352	0.04
647.538	0.08
647.724	0.01
647.91	0.02
648.096	0.04
648.282	0.03
648.468	-0
648.654	0.03
648.84	-0
649.026	0.01
649.212	-0.02
649.397	0.01
649.583	-0.05
649.769	0.02
649.955	-0.02
650.141	0
650.327	0.04
650.513	-0.03
650.698	0.01
650.884	-0.07
651.07	0.03
651.256	0.01
651.442	-0.01
651.627	-0.03
651.813	-0
651.999	-0.01
652.184	0.01
652.37	-0.01
652.556	-0.02
652.741	0.04
652.927	-0.09
653.113	-0.03
653.298	-0.04
653.484	0.01
653.669	-0.09
653.855	-0
654.04	-0.03
654.226	0.02
654.412	-0
654.597	-0.04
654.782	-0.01
654.968	0.02
655.153	0.02
655.339	-0.06
655.524	-0.06
655.71	0.02
655.895	-0.02
656.08	-0.04
656.266	0.03
656.451	0.03
656.636	-0.05
656.822	0.02
657.007	-0.03
657.192	-0.01
657.378	-0.05
657.563	-0.01
657.748	0.02
657.933	0.01
658.118	-0.03
658.304	-0.01
658.489	0
658.674	0.03
658.859	-0.01
659.044	0.04
659.229	0.02
659.414	-0.01
659.599	-0.01
659.785	-0.08
659.97	-0.02
660.155	0.03
660.34	-0.01
660.525	-0.01
660.71	0.01
660.895	0.05
661.08	-0.02
661.264	-0.01
661.449	0.04
661.634	0.05
661.819	0.01
662.004	0.01
662.189	-0.08
662.374	-0.02
662.559	-0.05
662.743	-0.05
662.928	-0.04
663.113	-0.01
663.298	-0.04
663.483	-0.03
663.667	0.02
663.852	-0.06
664.037	0.02
664.221	-0.03
664.406	0.02
664.591	0.02
664.775	-0.01
664.96	0.01
665.145	0.01
665.329	0.01
665.514	-0.05
665.698	-0.03
665.883	-0.06
666.068	0.07
666.252	0.01
666.437	-0.04
666.621	0.02
666.806	0.02
666.99	-0.03
667.174	-0.09
667.359	0.09
667.543	-0
667.728	-0.02
667.912	-0.06
668.096	0
668.281	-0.04
668.465	-0.02
668.649	-0.02
668.834	-0.06
669.018	0.02
669.202	-0
669.387	-0.05
669.571	0.05
669.755	-0.03
669.939	-0.01
670.124	-0.01
670.308	0.03
670.492	0.04
670.676	-0
670.86	-0.02
671.044	-0.05
671.228	0.01
671.413	-0.04
671.597	-0.04
671.781	-0.04
671.965	-0
672.149	-0
672.333	-0.04
672.517	-0
672.701	0.01
672.885	-0.04
673.069	-0.08
673.253	0.07
673.437	-0.03
673.621	-0.05
673.804	-0.01
673.988	-0
674.172	-0.03
674.356	-0.02
674.54	-0.03
674.724	0.08
674.908	-0.02
675.091	0.02
675.275	-0.03
675.459	0.04
675.643	-0.03
675.826	0.01
676.01	0.01
676.194	-0.03
676.377	0
676.561	0.01
676.745	-0
676.928	0.01
677.112	0.04
677.296	-0.06
677.479	-0.05
677.663	0
677.846	0.06
678.03	-0.04
678.213	-0.03
678.397	0.02
678.58	-0.01
678.764	-0.03
678.947	-0.02
679.131	-0.04
679.314	-0.01
679.498	-0.01
679.681	0.02
679.865	0.03
680.048	0.01
680.231	-0.01
680.415	0
680.598	-0.05
680.781	-0.02
680.965	-0.02
681.148	0
681.331	-0.02
681.514	0.03
681.698	-0.05
681.881	-0.01
682.064	-0.04
682.247	-0.04
682.43	-0.11
682.614	0.02
682.797	0.02
682.98	-0.01
683.163	-0.03
683.346	0.03
683.529	-0.04
683.712	-0.04
683.895	0.03
684.078	-0.03
684.261	-0.03
684.444	0.01
684.627	0.02
684.81	-0.09
684.993	0.01
685.176	0.04
685.359	-0.09
685.542	-0.01
685.725	0.02
685.908	-0.03
686.091	-0.06
686.274	0.05
686.457	0.02
686.639	0.01
686.822	0.01
687.005	0.01
687.188	0.05
687.371	0.07
687.553	0.08
687.736	0.04
687.919	0.03
688.102	0.03
688.284	-0.05
688.467	0.04
688.65	0.01
688.832	-0.04
689.015	-0.01
689.197	-0.07
689.38	0.08
689.563	0.09
689.745	-0.03
689.928	-0.05
690.11	-0.05
690.293	0.04
690.475	-0.05
690.658	0.04
690.84	0
691.023	0.01
691.205	-0.01
691.388	0.01
691.57	0.02
691.752	0.03
691.935	-0.05
692.117	-0.02
692.3	0
692.482	-0
692.664	-0.02
692.847	0.01
693.029	0.01
693.211	0.05
693.393	-0.01
693.576	-0.04
693.758	-0.02
693.94	-0.03
694.122	-0.03
694.304	-0
694.487	-0.04
694.669	0.07
694.851	-0.03
695.033	0.01
695.215	-0.06
695.397	-0.04
695.579	-0
695.761	-0.12
695.943	-0.05
696.125	0.04
696.308	0.02
696.49	-0.09
696.671	0.09
696.853	-0.03
697.035	0.1
697.217	0.01
697.399	0.05
697.581	-0.01
697.763	0.01
697.945	-0.06
698.127	0.05
698.309	0.05
698.491	-0.01
698.672	0.01
698.854	0.05
699.036	0.1
699.218	-0.05
699.399	0.03
699.581	-0.02
699.763	0.02
699.945	-0.04
700.126	-0.01
700.308	0.07
700.49	0.05
700.671	-0.09
700.853	-0.03
701.035	-0.04
701.216	0.01
701.398	-0.06
701.579	-0.01
701.761	0.05
701.943	-0.01
702.124	-0.01
702.306	-0.02
702.487	0.1
702.669	-0.05
702.85	-0.02
703.031	-0.08
703.213	0.06
703.394	0.03
703.576	-0.01
703.757	0.07
703.938	0.1
704.12	0.19
704.301	0.01
704.483	-0.08
704.664	-0.03
704.845	0.06
705.026	0.02
705.208	-0.05
705.389	-0.01
705.57	0.04
705.751	-0.02
705.933	0
706.114	0.09
706.295	-0.01
706.476	-0.12
706.657	0.07
706.838	-0.02
707.02	0.07
707.201	0.03
707.382	-0.07
707.563	0.05
707.744	-0.06
707.925	-0.03
708.106	-0.02
708.287	0.01
708.468	0.11
708.649	-0.04
708.83	0.01
709.011	-0.02
709.192	0.04
709.373	-0.08
709.554	0.01
709.734	0.05
709.915	0.01
710.096	-0.02
710.277	-0.11
710.458	-0.03
710.639	0.07
710.819	-0.04
711	-0
711.181	0.07
711.362	0.04
711.542	-0.01
711.723	-0.01
711.904	0.04
712.085	0.03
712.265	0.01
712.446	-0.1
712.627	-0.02
712.807	-0.05
712.988	0.04
713.168	-0.05
713.349	0.06
713.53	-0.13
713.71	-0.04
713.891	-0.08
714.071	-0.02
714.252	-0
714.432	-0.03
714.613	-0.1
714.793	-0.04
714.974	0.07
715.154	0.12
715.334	0.01
715.515	0.1
715.695	-0.07
715.876	-0.05
716.056	0
716.236	-0.05
716.417	-0.08
716.597	-0.02
716.777	0.12
716.957	-0
717.138	-0.07
717.318	0.04
717.498	-0.07
717.678	0.02
717.859	0.01
718.039	-0.11
718.219	-0
718.399	0.07
718.579	-0.09
718.759	-0.05
718.939	-0.02
719.12	0.03
719.3	0.04
719.48	-0.14
719.66	-0.12
719.84	0.09
720.02	-0.04
720.2	0
720.38	0.07
720.56	0.13
720.74	-0
720.92	0.01
721.1	0.02
721.279	0.05
721.459	-0.04
721.639	-0.08
721.819	0.07
721.999	-0.06
722.179	0.06
722.359	-0.13
722.538	-0.05
722.718	0.03
722.898	-0.08
723.078	-0.06
723.257	0.04
723.437	-0.06
723.617	0
723.797	-0.08
723.976	0.06
724.156	-0.01
724.336	0.05
724.515	0.1
724.695	-0.1
724.874	0.01
725.054	-0
725.234	-0.12
725.413	0.04
725.593	-0.01
725.772	-0.07
725.952	-0.13
726.131	-0.02
726.311	0.02
726.49	0.03
726.67	-0.04
726.849	-0.05
727.028	0.03
727.208	-0.06
727.387	-0
727.567	-0.11
727.746	-0.04
727.925	-0.08
728.105	-0.1
728.284	-0.08
728.463	-0
728.643	0.02
728.822	-0.1
729.001	-0.13
729.18	-0.01
729.359	0.04
729.539	-0.03
729.718	-0.05
729.897	0.07
730.076	-0.05
730.255	-0.07
730.434	-0
730.614	0.04
730.793	0.07
730.972	-0.06
731.151	0.02
731.33	0.01
731.509	0.07
731.688	-0.07
731.867	0.12
732.046	-0.19
732.225	0.17
732.404	-0.01
732.583	-0.09
732.762	0.05
732.941	0.02
733.12	0.03
733.298	-0.08
733.477	0.01
733.656	-0.09
733.835	-0.11
734.014	0.06
734.193	0.01
734.371	0.02
734.55	-0.03
734.729	-0.12
734.908	-0.08
735.086	-0.03
735.265	0.07
735.444	-0.15
735.623	-0.14
735.801	-0.1
735.98	-0.1
736.159	-0.03
736.337	0.06
736.516	0.07
736.694	0.03
736.873	-0.03
737.052	0.11
737.23	0.14
737.409	-0.08
737.587	0.07
737.766	-0.25
737.944	-0.05
738.123	0.03
738.301	0.09
738.479	-0.01
738.658	0.04
738.836	-0.11
739.015	0.07
739.193	0.05
739.371	-0.06
739.55	-0.05
739.728	-0.17
739.906	0.1
740.085	0.16
740.263	-0.02
740.441	-0.23
740.62	0.16
740.798	0.04
740.976	-0.08
741.154	-0.08
741.332	0.11
741.511	-0.06
741.689	-0.01
741.867	0.12
742.045	-0.06
742.223	-0.01
742.401	-0.11
742.579	-0.05
742.757	0.08
742.935	-0.11
743.114	-0.06
743.292	-0.04
743.47	0.05
743.648	-0.05
743.826	-0.01
744.004	0.03
744.181	0.08
744.359	-0.01
744.537	0.11
744.715	-0
744.893	-0.01
745.071	0.01
745.249	-0.08
745.427	0.03
745.605	0.02
745.782	0.02
745.96	0.03
746.138	0.08
746.316	0.08
746.493	-0.03
746.671	-0.02
746.849	-0.08
747.027	0.09
747.204	-0.17
747.382	0.07
747.56	-0.19
747.737	-0.05
747.915	0
748.093	-0
748.27	0.02
748.448	-0.11
748.625	-0.09
748.803	-0.05
748.98	-0.08
749.158	0.07
749.335	0.06
749.513	0.01
749.69	-0.03
749.868	-0.06
750.045	0.06
750.223	0.02
750.4	-0.26
750.578	0.19
750.755	0.01
750.932	-0.17
751.11	0.14
751.287	-0.12
751.464	0.16
751.642	-0.17
751.819	-0.02
751.996	0.01
752.173	-0.05
752.351	-0.08
752.528	-0.11
752.705	-0.02
752.882	-0.02
753.06	-0.12
753.237	0.06
753.414	0.19
753.591	0.14
753.768	0.01
753.945	-0.02
754.122	0.05
754.299	-0
754.476	-0.14
754.654	0.06
754.831	-0.02
755.008	0.04
755.185	-0.02
755.362	-0.14
755.539	0.07
755.716	-0.13
755.892	0
756.069	-0.07
756.246	-0
756.423	-0.08
756.6	0.1
756.777	-0.05
756.954	0.17
757.131	-0
757.307	-0.13
757.484	-0.12
757.661	-0.05
757.838	0.04
758.015	-0.11
758.191	-0.01
758.368	0.12
758.545	0.13
758.721	0.05
758.898	-0.16
759.075	0.02
759.251	0.05
759.428	-0.01
759.605	-0.1
759.781	-0.11
759.958	-0.04
760.134	0.03
760.311	-0.07
760.488	0.11
760.664	0.12
760.841	-0
761.017	-0.14
761.194	-0.06
761.37	0.04
761.547	-0.04
761.723	0.05
761.899	0.22
762.076	-0.03
762.252	-0.14
762.429	-0.06
762.605	0.09
762.781	-0.04
762.958	0.07
763.134	-0.06
763.31	-0.15
763.486	0.06
763.663	-0.13
763.839	0.07
764.015	-0.22
764.191	-0.03
764.368	0.01
764.544	-0.15
764.72	-0.08
764.896	0.04
765.072	0.09
765.248	-0.17
765.425	-0.11
765.601	0.11
765.777	0.09
765.953	-0.28
766.129	-0.11
766.305	-0.01
766.481	0.09
766.657	-0.05
766.833	0.13
767.009	-0.01
767.185	-0.09
767.361	-0.1
767.537	-0.15
767.713	0.07
767.889	-0.07
768.065	0.12
768.24	0.03
768.416	0.08
768.592	0.02
768.768	-0.01
768.944	0.06
769.12	-0.17
769.295	-0.09
769.471	-0.05
769.647	-0.01
769.823	0.28
769.998	-0.1
770.174	-0.15
770.35	0.22
770.525	0.29
770.701	-0.09
770.877	-0.02
771.052	-0.03
771.228	0.15
771.403	0.07
771.579	0.08
771.755	0.34
771.93	-0.13
772.106	-0.28
772.281	-0.09
772.457	0.04
772.632	0.04
772.808	-0.11
772.983	-0.01
773.159	-0.17
773.334	0.23
773.509	0.06
773.685	-0.15
773.86	0.26
774.036	0.04
774.211	-0.04
774.386	-0.2
774.562	0.02
774.737	0.13
774.912	-0.11
775.087	-0.02
775.263	0.06
775.438	-0.02
775.613	-0.15
775.788	-0.01
775.964	-0.01
776.139	0.44
776.314	-0.09
776.489	0.05
776.664	0.03
776.839	-0.05
777.014	0.03
777.19	0.07
777.365	0.17
777.54	0.18
777.715	-0.03
777.89	-0.07
778.065	0.04
778.24	0.03
778.415	0.22
778.59	-0.22
778.765	-0.01
778.94	-0.14
779.115	0.02
779.289	-0.05
779.464	-0.09
779.639	0
779.814	-0.21
779.989	-0.16
780.164	0.14
780.339	-0.04
780.513	-0.24
780.688	-0.13
780.863	-0.03
781.038	0.12
781.212	-0.28
781.387	0.15
781.562	0.14
781.737	0.12
781.911	0.01
782.086	-0.11
782.261	-0.14
782.435	0.18
782.61	-0.07
782.784	0.13
782.959	0.35
783.134	-0.28
783.308	-0.1
783.483	-0.07
783.657	0.44
783.832	0.01
784.006	-0.24
784.181	0.02
784.355	0.23
784.53	0.14
784.704	-0.12
784.878	0.28
785.053	0
785.227	0.32
785.402	0.3
785.576	-0.14
785.75	0.19
785.925	-0.04
786.099	0
786.273	-0.01
786.448	0.2
786.622	0.04
786.796	0.15
786.97	-0.07
787.145	0.5
787.319	-0.02
787.493	-0.21
787.667	-0.32
787.841	-0.05
788.015	-0.09
788.19	-0.16
788.364	0.01
788.538	0.08
788.712	0.11
788.886	-0.13
789.06	0.21
789.234	-0.06
789.408	-0.26
789.582	-0.2
789.756	-0.11
789.93	-0.03
790.104	-0.17
790.278	-0.03
790.452	0.1
790.626	0.09
790.8	0.16
790.973	0.26
791.147	0.13
791.321	0.29
791.495	0.26
791.669	0.2
791.843	-0.13
792.016	0.18
792.19	0.51
792.364	-0.18
792.538	0.53
792.711	0.26
792.885	-0.07
793.059	-0.24
793.233	-0.49
793.406	0.22
793.58	-0.04
793.754	0.25
793.927	-0.07
794.101	0.08
794.274	0.2
794.448	0.24
794.622	-0.09
794.795	0.38
794.969	-0.01
795.142	0.35
795.316	-0.18
795.489	-0.05
795.663	0.47
795.836	0.21
796.009	-0.18
796.183	0.2
796.356	0.3
796.53	0.14
796.703	-0.07
796.876	0.51
797.05	-0.09
797.223	-0.09
797.396	-0.09
797.57	-0.06
797.743	0.43
797.916	-0.1
798.09	-0.28
798.263	0.38
798.436	-0.03
798.609	-0.38
798.782	-0.13
798.956	0.21
799.129	0.04
799.302	-0.3
799.475	-0.16
799.648	-0.17
799.821	-0.19
799.994	-0.05
800.167	-0.33
800.34	0.04
800.514	0.21
800.687	-0.04
800.86	-0.14
801.033	0
801.206	0.12
801.379	-0.34
801.551	0.26
801.724	0.02
801.897	0.4
802.07	-0.11
802.243	-0.49
802.416	0.01
802.589	-0.22
802.762	0.23
802.935	0.32
803.107	0.3
803.28	0.59
803.453	0.05
803.626	-0.12
803.798	-0.09
803.971	-0.33
804.144	0.03
804.317	0.08
804.489	0.31
804.662	0.07
804.835	0.1
805.007	-0.24
805.18	0.77
805.353	0.06
805.525	-0.35
805.698	-0.11
805.87	-0.04
806.043	0.49
806.215	-0.34
806.388	-0.3
806.56	-0.39
806.733	0.6
806.905	-0.05
807.078	-0.21
807.25	-0.15
807.423	0.39
807.595	0.27
807.768	0.31
807.94	0.56
808.112	0.26
808.285	-0.01
808.457	-0.19
808.629	0.07
808.802	0.33
808.974	0.1
809.146	-0.41
809.318	-0.53
809.491	0.17
809.663	0.17
809.835	-0.11
810.007	0.43
810.18	0.26
810.352	-0.24
810.524	-0.17
810.696	0.18
810.868	0.38
811.04	-0.27
811.212	-0.07
811.384	0.41
811.556	0.13
811.728	-0
811.901	1.02
812.073	-0.02
812.245	0.39
812.417	0.28
812.589	-0.49
812.76	0.37
812.932	0.39
813.104	0.01
813.276	0.05
813.448	0.25
813.62	-0.03
813.792	0.2
813.964	-0.22
814.136	0.53
814.307	-0.54
814.479	-0.29
814.651	-0.05
814.823	0.93
814.995	0.14
815.166	0.17
815.338	-0.35
815.51	-0.49
815.681	0.81
815.853	0.22
816.025	0.02
816.196	0.19
816.368	0.1
816.54	-0.26
816.711	-0.15
816.883	-0.15
817.054	0.89
817.226	-0.72
817.398	-0.23
817.569	-0.16
817.741	-0.35
817.912	-0.14
818.084	0.14
818.255	0.35
818.426	-0.04
818.598	0.12
818.769	-0.37
818.941	0.48
819.112	0.67
819.283	-0.02
819.455	-0.42
819.626	-0.01
819.798	-0.05
819.969	0.01
820.14	0.16
820.311	-0.06
820.483	0.2
820.654	0.14
820.825	-0.1
820.996	-0.14
821.168	-0.11
821.339	0.05
821.51	-0.53
821.681	-0.26
821.852	0.29
822.023	-0.27
822.195	-0.33
822.366	0.26
822.537	-0.07
822.708	-0.09
822.879	-0.29
823.05	0.22
823.221	0
823.392	0.57
823.563	0.01
823.734	-0.05
823.905	-0.17
824.076	-0.09
824.247	-0.78
824.418	-0.13
824.589	0.83
824.759	0.28
824.93	-0.03
825.101	-1.1
825.272	0.25
825.443	0.57
825.614	1.04
825.784	-0.9
825.955	1.66
826.126	0.45
826.297	-0.55
826.467	0.51
826.638	0.48
826.809	-0.67
826.98	-0.14
827.15	0.5
827.321	0.22
827.492	0.23
827.662	-0.07
827.833	0.79
828.003	0.1
828.174	-0.48
828.345	-0.29
828.515	1.01
828.686	0.33
828.856	-0.15
829.027	-0.35
829.197	0.36
829.368	0.24
829.538	-0.13
829.709	-0.21
829.879	0.28
830.049	0.34
830.22	0.13
830.39	-0.41
830.56	0.45
830.731	0.04
830.901	-0.48
831.072	-0.08
831.242	0.58
831.412	0.57
831.582	-0.05
831.753	-1.04
831.923	-0.01
832.093	-0.27
832.263	0.08
832.434	-0.37
832.604	-0.12
832.774	0.48
832.944	-0.22
833.114	-0.27
833.284	0.53
833.454	-0.66
833.624	-0.25
833.795	-0.67
833.965	0.43
834.135	0.49
834.305	-1.12
834.475	-0.46
834.645	0.24
834.815	0.23
834.985	-0.56
835.155	-0.86
835.325	-0.49
835.494	0.45
835.664	-1
835.834	-1.24
836.004	0.8
836.174	0.86
836.344	0.02
836.514	-0.55
836.684	-0.35
836.853	0.19
837.023	-0.04
837.193	-0.32
837.363	0.41
837.532	0.63
837.702	-0.44
837.872	0.01
838.041	0.02
838.211	0.95
838.381	-0.22
838.55	-0.16
838.72	1.67
838.89	0.86
839.059	0.07
839.229	-0.49
839.398	1.1
839.568	-0.14
839.738	0.16
839.907	0.86
840.077	0.53
840.246	-0.18
840.416	-0.55
840.585	-0.79
840.755	1.31
840.924	0.94
841.093	-1.18
841.263	0.02
841.432	0.2
841.602	-0.9
841.771	-0.75
841.94	-0.19
842.11	2.61
842.279	1.1
842.448	-0.1
842.617	0.04
842.787	0.89
842.956	-0.69
843.125	-0.07
843.294	0.19
843.464	0.97
843.633	0.17
843.802	-0.27
843.971	-0.38
844.14	0.12
844.309	0.99
844.479	-0.91
844.648	-0.6
844.817	-0.2
844.986	0.19
845.155	-0.49
845.324	-0.76
845.493	0.34
845.662	-0.81
845.831	0.21
846	-0
846.169	0.08
846.338	1.13
846.507	-0.07
846.676	1
846.844	-0.27
847.013	1.31
847.182	-0.09
847.351	-0.4
847.52	-0.11
847.689	0.02
847.858	0.39
848.026	-0.29
848.195	0.19
848.364	-0.18
848.533	-1.41
848.701	0.19
848.87	-0.38
849.039	0.31
849.207	0.81
849.376	1.13
849.545	1.28
849.713	0.28
849.882	0.86
850.051	-0.04
850.219	0.09
850.388	0.32
850.556	-0.87
850.725	-0.25
850.893	0.73
851.062	0.55
851.23	1.34
851.399	-1.47
851.567	-0.04
851.736	0.06
851.904	-0.68
852.073	-0.31
852.241	0.09
852.41	-0.15
852.578	-0.74
852.746	-0.49
852.915	0.15
853.083	0.48
853.251	-0.59
853.42	-0.9
853.588	0.31
853.756	1.63
853.924	0.03
854.093	-0.81
854.261	-0.52
854.429	-1.23
854.597	0.5
854.765	-1.69
854.934	-0.14
855.102	0.31
855.27	-0.5
855.438	-0.15
855.606	1.1
855.774	1.26
855.942	-1.6
856.11	-1.65
856.278	0.02
856.446	1.12
856.614	-0.07
856.782	-1.55
856.95	1.32
857.118	0.7
857.286	-0.06
857.454	-0.92
857.622	1.42
857.79	0.79
857.958	0.12
858.126	-0.6
858.294	-1.95
858.462	0.54
858.629	-0.03
858.797	-0.89
858.965	0.53
859.133	0.71
859.301	-0.15
859.468	1.1
859.636	-0.19
859.804	2.35
859.971	0.3
860.139	-1.05
860.307	1.48
860.474	0
860.642	-0.14
860.81	-0.32
860.977	-0.56
861.145	1.02
861.313	-0.55
861.48	-0.19
861.648	0.51
861.815	-0.47
861.983	-1.97
862.15	-0.36
862.318	-0.15
862.485	1.27
862.653	-0.97
862.82	-0.49
862.988	1.12
863.155	0.33
863.322	-0.78
863.49	-1.04
863.657	-0.99
863.824	2.56
863.992	0.92
864.159	1.15
864.326	1.92
864.494	0.43
864.661	2
864.828	-1.49
864.996	2.13
865.163	-0.06
865.33	-1.06
865.497	-2.79
865.664	-1.72
865.832	-2.47
865.999	-0.13
866.166	-1.55
866.333	-1.04
866.5	-0.88
866.667	-1.29
866.834	-0.28
867.001	1.24
867.168	-2.22
867.335	0.98
867.502	-1.72
867.669	0.74
867.836	2.99
868.003	-0.64
868.17	0.62
868.337	-0
868.504	1.62
868.671	-0.65
868.838	-0.53
869.005	0.8
869.172	2.01
869.339	0.56
869.505	-0
869.672	-0.13
869.839	0.93
870.006	0.87
870.173	-3.15
870.339	1.53
870.506	1.37
870.673	-2.62
870.84	0.93
871.006	-0.08
871.173	0.18
871.34	-0.59
871.506	0.06
871.673	-0.31
871.839	-2.61
872.006	0.46
872.173	-0.81
872.339	0.25
872.506	1.74
872.672	-0.1
872.839	-0.97
873.005	0.45
873.172	3.67
873.338	0.62
873.505	0.39
873.671	-3.42
873.838	0.14
874.004	-1.53
874.171	-1.33
874.337	0.82
874.503	0.21
874.67	-0.62
874.836	0.4
875.002	2.14
875.169	-0.02
875.335	1.22
875.501	-1.91
875.668	0.39
875.834	0.67
876	-0.69
876.166	0.84
876.332	1.74
876.499	4.89
876.665	1.6
876.831	0.15
876.997	3.79
877.163	1.65
877.329	-0.97
877.495	0.46
877.662	3.79
877.828	-0.53
877.994	0.77
878.16	-2.55
878.326	-1.96
878.492	-0.31
878.658	-1.59
878.824	1.39
878.99	1.25
879.156	-0.69
879.322	2.52
879.487	0.67
879.653	0.86
879.819	-0.24
879.985	-1.43
880.151	0.22
880.317	0.54
880.483	0.69
880.648	-1.08
880.814	-2.61
880.98	-0.06
881.146	-1.2
881.312	-0.47
881.477	-0.9
881.643	-0.06
881.809	0.62
881.974	1.79
882.14	-1.78
882.306	-0.68
882.471	2.47
882.637	-1.43
882.803	0.32
882.968	1.46
883.134	2.23
883.299	1.93
883.465	-0.49
883.63	1.7
883.796	2.16
883.961	0.64
884.127	1.04
884.292	-4.31
884.458	-1.35
884.623	-1.35
