Data from Apollo_Calib_20240827__AbsoluteIrradiance__266__03-35-01-257.txt Node

Date: Wed Aug 28 03:35:01 BST 2024
User: biology
Spectrometer: FLMT08252
Trigger mode: 0
Integration Time (sec): 5.000000E-1
Scans to average: 5
Electric dark correction enabled: true
Nonlinearity correction enabled: false
Boxcar width: 0
XAxis mode: Wavelengths
Number of Pixels in Spectrum: 3648
>>>>>Begin Spectral Data<<<<<
179.588	-0
179.809	-0
180.03	-0
180.251	-0
180.473	-0
180.694	0
180.915	0
181.136	-0
181.357	0
181.578	-0
181.799	0
182.02	-0
182.241	0
182.462	-0
182.683	0
182.904	-0
183.125	-0
183.346	0
183.567	0
183.788	-0
184.009	-0
184.23	-0
184.451	0
184.672	-0
184.892	-0
185.113	0
185.334	0
185.555	-0
185.776	0
185.996	0
186.217	0
186.438	0
186.659	-0
186.879	0
187.1	-0
187.321	-0
187.541	-0
187.762	0
187.983	0
188.203	-0
188.424	-0
188.644	-0
188.865	0
189.086	0
189.306	0
189.527	0
189.747	0
189.968	-0
190.188	0
190.409	0
190.629	0
190.849	-0
191.07	-0
191.29	0
191.511	0
191.731	-0
191.951	-0
192.172	-0
192.392	-0
192.612	-0
192.833	-0
193.053	0
193.273	0
193.493	-0
193.714	-0
193.934	0
194.154	0
194.374	0
194.594	-0
194.815	0
195.035	0
195.255	0
195.475	-0
195.695	0
195.915	0
196.135	0
196.355	0
196.575	0
196.795	-0
197.015	-0
197.235	-0
197.455	0
197.675	0
197.895	-0
198.115	-0
198.335	0
198.555	-0
198.775	0
198.995	0
199.214	0
199.434	-0
199.654	-0
199.874	-0
200.094	1.46
200.313	-0.2
200.533	-0.15
200.753	-1.32
200.973	0.78
201.192	0.57
201.412	-0.87
201.632	-0.3
201.851	0.64
202.071	-0.13
202.291	-0.42
202.51	-0.75
202.73	0.24
202.95	-0.15
203.169	-0.87
203.389	-0.02
203.608	0.28
203.828	-0.12
204.047	-0.27
204.267	0.31
204.486	0.09
204.706	0.2
204.925	-0.07
205.145	-0.55
205.364	0.34
205.583	0.61
205.803	-0.15
206.022	-0.42
206.242	0.13
206.461	0.15
206.68	-0.21
206.9	-0.33
207.119	0.59
207.338	0.36
207.557	-0.21
207.777	-0.02
207.996	-0.27
208.215	0.55
208.434	-0.28
208.654	-0.22
208.873	-0.07
209.092	0.7
209.311	-0.15
209.53	-0.14
209.749	-0.05
209.968	0.03
210.187	-0.33
210.407	-0.48
210.626	0.07
210.845	-0.07
211.064	0.21
211.283	-0.44
211.502	0.28
211.721	0.02
211.94	-0.17
212.159	0.3
212.377	0.04
212.596	0.55
212.815	0.12
213.034	-0
213.253	0.33
213.472	0.27
213.691	-0.2
213.91	-0.29
214.128	-0.17
214.347	0.16
214.566	-0.24
214.785	-0.34
215.003	0.31
215.222	0.06
215.441	0.11
215.66	-0.38
215.878	0.1
216.097	0.22
216.316	-0.21
216.534	-0.01
216.753	-0.01
216.972	0.05
217.19	0.09
217.409	-0.12
217.627	0.03
217.846	0.09
218.064	0.1
218.283	-0.06
218.501	0.57
218.72	0.21
218.938	-0.37
219.157	-0.25
219.375	0.23
219.594	0.16
219.812	-0.16
220.031	-0.04
220.249	0.24
220.467	0.34
220.686	-0.12
220.904	-0.34
221.122	0.02
221.341	0.25
221.559	0.12
221.777	-0.37
221.995	0.12
222.214	0.14
222.432	-0.07
222.65	0.1
222.868	0.09
223.086	0.06
223.305	0.03
223.523	-0.05
223.741	0.28
223.959	-0.02
224.177	-0.21
224.395	-0.1
224.613	0.07
224.831	0.26
225.049	-0.13
225.267	-0.05
225.485	0.08
225.703	0.08
225.921	0.01
226.139	0.03
226.357	0.07
226.575	0.2
226.793	-0.14
227.011	0.59
227.229	0.18
227.447	0.16
227.665	0.05
227.883	-0.02
228.1	0.09
228.318	-0.03
228.536	-0.27
228.754	-0.11
228.972	0.06
229.189	0.08
229.407	-0.09
229.625	-0.03
229.843	0.19
230.06	0.21
230.278	-0.03
230.496	0.12
230.713	-0.04
230.931	0.24
231.149	-0.04
231.366	-0.3
231.584	-0.02
231.801	0.28
232.019	0.05
232.236	-0.11
232.454	-0.08
232.671	0.1
232.889	-0.12
233.106	-0.05
233.324	0.02
233.541	-0.01
233.759	0.06
233.976	-0.1
234.194	0.03
234.411	0.11
234.628	-0.13
234.846	-0.04
235.063	0.01
235.28	0.04
235.498	-0.02
235.715	-0.07
235.932	0.08
236.149	-0.01
236.367	-0.03
236.584	0.11
236.801	-0.01
237.018	0.16
237.236	0.07
237.453	-0.16
237.67	0.19
237.887	0.01
238.104	-0.02
238.321	-0.12
238.538	-0.03
238.755	0.1
238.973	-0.08
239.19	0.03
239.407	0.08
239.624	0.12
239.841	-0.24
240.058	-0.08
240.275	0.12
240.492	0.03
240.709	0.02
240.925	-0.09
241.142	-0.03
241.359	-0.06
241.576	-0.04
241.793	-0.07
242.01	0.03
242.227	0.04
242.444	-0.01
242.66	0.1
242.877	0.07
243.094	-0.02
243.311	-0.02
243.527	-0.02
243.744	0.03
243.961	0.1
244.178	-0.04
244.394	0.09
244.611	0.14
244.828	0.17
245.044	-0.06
245.261	0.01
245.477	0.09
245.694	0.09
245.911	-0.12
246.127	0.04
246.344	0.08
246.56	0.06
246.777	0.03
246.993	-0.05
247.21	0.07
247.426	0.09
247.643	-0.04
247.859	-0.07
248.076	-0.07
248.292	0.22
248.508	-0.03
248.725	0.13
248.941	0.06
249.157	0.11
249.374	-0.04
249.59	0.05
249.806	-0.01
250.023	0.08
250.239	-0.03
250.455	-0.02
250.671	0.02
250.888	0.08
251.104	-0.02
251.32	0
251.536	0.03
251.752	0
251.969	-0.03
252.185	0.02
252.401	0.18
252.617	0.01
252.833	0.05
253.049	0.04
253.265	0.09
253.481	0.09
253.697	-0.02
253.913	-0.11
254.129	0.04
254.345	0.04
254.561	-0.02
254.777	-0.03
254.993	0.09
255.209	-0.01
255.425	-0.06
255.641	-0.08
255.857	0.09
256.073	-0
256.288	-0.05
256.504	0
256.72	0.04
256.936	0.1
257.152	0.05
257.367	-0.06
257.583	0.02
257.799	0.04
258.015	-0.06
258.23	-0.05
258.446	0.13
258.662	0.07
258.877	-0.04
259.093	-0.06
259.309	0.06
259.524	0.04
259.74	-0.06
259.955	-0.14
260.171	0.09
260.387	0.02
260.602	0.04
260.818	0.03
261.033	-0.1
261.249	0.04
261.464	-0.04
261.68	-0.08
261.895	0.08
262.11	0.08
262.326	-0.06
262.541	-0.08
262.757	0.11
262.972	0.03
263.187	0.04
263.403	0.06
263.618	0.14
263.833	0.02
264.049	0.02
264.264	0.04
264.479	0.12
264.694	0.13
264.91	-0.12
265.125	-0.01
265.34	0.05
265.555	0.17
265.77	0.01
265.986	-0.03
266.201	0.1
266.416	0.04
266.631	-0.02
266.846	0.02
267.061	0.06
267.276	0.1
267.491	-0.07
267.706	0.06
267.921	0.03
268.136	0.05
268.351	0.02
268.566	-0.06
268.781	0.08
268.996	0.08
269.211	0.08
269.426	-0.07
269.641	-0.03
269.856	0.05
270.071	-0.06
270.285	-0.09
270.5	0.05
270.715	0.04
270.93	0.01
271.145	0.04
271.359	0.13
271.574	-0.02
271.789	-0.04
272.004	-0.04
272.218	-0.05
272.433	0.14
272.648	-0.01
272.862	0.05
273.077	0.05
273.292	0.01
273.506	-0.07
273.721	-0.02
273.936	0.06
274.15	0.07
274.365	0
274.579	0.05
274.794	0.1
275.008	0.04
275.223	-0.08
275.437	0.03
275.652	0.04
275.866	0.08
276.081	0
276.295	0.06
276.509	0.02
276.724	0.03
276.938	-0.01
277.153	0.01
277.367	0.04
277.581	0.01
277.796	-0.01
278.01	-0.06
278.224	0.06
278.438	0.15
278.653	-0.07
278.867	0.05
279.081	-0.16
279.295	-0.02
279.51	-0.01
279.724	-0.09
279.938	0.08
280.152	0.05
280.366	-0.03
280.58	-0.05
280.794	0.06
281.008	0.08
281.222	0.1
281.437	0.08
281.651	0.05
281.865	0.09
282.079	0.02
282.293	-0.08
282.507	-0.03
282.721	0.02
282.935	0.04
283.148	-0.08
283.362	0
283.576	-0.07
283.79	0.02
284.004	-0.03
284.218	0.08
284.432	-0.02
284.646	0.04
284.859	-0.09
285.073	-0.02
285.287	0.02
285.501	-0.01
285.714	0.02
285.928	0.02
286.142	0.03
286.356	0
286.569	-0.05
286.783	0.1
286.997	0.05
287.21	-0.02
287.424	0.02
287.637	-0.01
287.851	0
288.065	0.03
288.278	-0.02
288.492	-0
288.705	-0.04
288.919	0.06
289.132	-0.06
289.346	0.07
289.559	-0.04
289.773	-0.06
289.986	-0.02
290.2	0.01
290.413	0.11
290.626	-0.03
290.84	0.01
291.053	0.04
291.267	0.09
291.48	0.02
291.693	0.05
291.906	-0.05
292.12	-0.02
292.333	0.02
292.546	-0.02
292.76	0.08
292.973	0.03
293.186	0.07
293.399	-0
293.612	0.07
293.826	-0
294.039	-0
294.252	0.01
294.465	0.03
294.678	0.03
294.891	-0.01
295.104	-0.01
295.317	-0.03
295.53	0.01
295.743	0.03
295.956	0.02
296.169	0.15
296.382	0.08
296.595	0.03
296.808	-0.02
297.021	0.06
297.234	0.08
297.447	0.01
297.66	0.07
297.873	0.06
298.086	0.1
298.299	-0.04
298.511	-0
298.724	0.01
298.937	-0.01
299.15	-0.01
299.363	-0.01
299.575	0.08
299.788	0.07
300.001	-0
300.213	-0.03
300.426	0.03
300.639	0.02
300.852	-0
301.064	0.03
301.277	0.11
301.489	0.07
301.702	0.08
301.915	0.03
302.127	0.03
302.34	0.08
302.552	-0
302.765	-0.02
302.977	0.08
303.19	-0
303.402	0.01
303.615	0.01
303.827	-0.01
304.04	0.01
304.252	0.07
304.464	0.04
304.677	0.13
304.889	0.1
305.102	-0.02
305.314	-0.02
305.526	0.07
305.739	0.04
305.951	-0.05
306.163	-0.01
306.375	0.09
306.588	-0.02
306.8	0.02
307.012	-0.03
307.224	0.05
307.436	0.08
307.649	-0.06
307.861	0.03
308.073	0.05
308.285	-0.03
308.497	-0.05
308.709	0.01
308.921	-0
309.133	0.04
309.346	0.01
309.558	-0
309.77	0.06
309.982	0.11
310.194	0.04
310.406	-0.02
310.617	0.08
310.829	0.07
311.041	0.06
311.253	-0.04
311.465	0.03
311.677	0.02
311.889	-0
312.101	-0.04
312.313	0.09
312.524	0.08
312.736	0.01
312.948	-0
313.16	0.09
313.372	0.04
313.583	0.04
313.795	0.01
314.007	0
314.218	0.08
314.43	0.04
314.642	0.01
314.853	-0.05
315.065	0.05
315.277	0.02
315.488	-0.01
315.7	0.01
315.912	0.01
316.123	-0.01
316.335	0
316.546	0.12
316.758	0.01
316.969	-0.02
317.181	0.02
317.392	-0.01
317.604	0.09
317.815	-0.03
318.026	-0.03
318.238	-0
318.449	0.02
318.661	-0.01
318.872	-0.04
319.083	-0.03
319.295	0.05
319.506	-0.03
319.717	-0.01
319.929	0.09
320.14	0.04
320.351	0
320.562	-0.02
320.774	0.03
320.985	-0
321.196	-0.01
321.407	-0.07
321.618	0.03
321.829	0.04
322.041	0.07
322.252	0.02
322.463	0.1
322.674	0.05
322.885	-0.01
323.096	0.01
323.307	0.04
323.518	0.08
323.729	-0.02
323.94	0.05
324.151	-0
324.362	0.02
324.573	0.06
324.784	0.01
324.995	0.06
325.206	0.03
325.417	-0.01
325.628	-0.02
325.838	0.03
326.049	0.01
326.26	0.03
326.471	0.01
326.682	0
326.892	0.03
327.103	-0.01
327.314	-0.01
327.525	0.11
327.735	0.07
327.946	0.01
328.157	-0.03
328.368	0.03
328.578	0.01
328.789	0.02
328.999	0.03
329.21	0.02
329.421	0.1
329.631	-0.05
329.842	-0.01
330.052	0.03
330.263	0.05
330.473	0.04
330.684	0.02
330.894	0.01
331.105	0.05
331.315	-0.02
331.526	-0.04
331.736	0.07
331.947	0.03
332.157	0.05
332.367	-0.06
332.578	0.05
332.788	0.07
332.999	0.05
333.209	0.02
333.419	-0
333.629	0.06
333.84	0.04
334.05	0.02
334.26	0.07
334.47	0.03
334.681	0.09
334.891	-0.02
335.101	0.08
335.311	0.15
335.521	0.04
335.732	-0.05
335.942	0.12
336.152	0.05
336.362	0.03
336.572	0
336.782	0.1
336.992	0
337.202	0.02
337.412	-0.01
337.622	0.07
337.832	-0.01
338.042	0.03
338.252	-0.01
338.462	-0
338.672	0.03
338.882	-0.05
339.092	0.03
339.302	0.08
339.511	0.09
339.721	-0.05
339.931	-0
340.141	0.04
340.351	0.1
340.561	0.07
340.77	0.01
340.98	0.02
341.19	0.04
341.4	-0.03
341.609	-0.03
341.819	0.01
342.029	-0.03
342.238	0.04
342.448	0.01
342.658	0.04
342.867	0.05
343.077	0.04
343.286	0
343.496	-0
343.706	0.08
343.915	-0
344.125	0.03
344.334	0.05
344.544	-0.03
344.753	-0.01
344.963	0.04
345.172	-0.01
345.381	0.01
345.591	-0.02
345.8	0.05
346.01	0.15
346.219	0.12
346.428	-0.1
346.638	0.01
346.847	-0
347.056	0.11
347.266	0.01
347.475	0.05
347.684	0.06
347.893	0.04
348.103	0.02
348.312	0.01
348.521	0.06
348.73	0.04
348.94	0.08
349.149	-0.01
349.358	0.01
349.567	0.03
349.776	-0.03
349.985	0.01
350.194	0.06
350.403	0.07
350.612	-0.02
350.821	0.02
351.03	0.05
351.239	-0.02
351.448	0.01
351.657	-0.01
351.866	0.11
352.075	0.04
352.284	0
352.493	0.02
352.702	0.08
352.911	0.06
353.12	0.02
353.329	0.03
353.538	0.04
353.746	0.02
353.955	-0.03
354.164	0.05
354.373	0.03
354.582	0.12
354.79	0.04
354.999	0.03
355.208	0.04
355.416	0.09
355.625	-0
355.834	0.02
356.042	0.02
356.251	0
356.46	-0
356.668	0.04
356.877	0.12
357.085	0.08
357.294	-0.07
357.503	0.04
357.711	-0.01
357.92	0.13
358.128	0.05
358.337	0.05
358.545	0.04
358.754	0.03
358.962	0.06
359.17	0.01
359.379	0.07
359.587	0.04
359.796	0.01
360.004	0.08
360.212	0.06
360.421	0.1
360.629	0.02
360.837	0.03
361.046	0.08
361.254	0.13
361.462	0.03
361.67	0.03
361.879	0.03
362.087	0.07
362.295	0.06
362.503	0.03
362.711	-0.01
362.92	-0.01
363.128	0.03
363.336	-0.01
363.544	-0.02
363.752	0.03
363.96	0.02
364.168	0.01
364.376	0.03
364.584	0.05
364.792	0.08
365	0.08
365.208	0.03
365.416	0.09
365.624	0.04
365.832	0
366.04	0.08
366.248	0.06
366.456	0.09
366.664	0.06
366.872	0.01
367.079	-0.01
367.287	0.02
367.495	0.03
367.703	0.06
367.911	0.05
368.118	0.04
368.326	0.03
368.534	-0.01
368.742	0.06
368.949	-0.01
369.157	-0
369.365	0.08
369.572	-0.03
369.78	-0
369.988	0.08
370.195	0.04
370.403	0.07
370.61	0
370.818	0.05
371.026	0.1
371.233	0.02
371.441	0
371.648	0
371.856	0.09
372.063	0.05
372.271	0.01
372.478	0.01
372.685	0.05
372.893	0.07
373.1	0.03
373.308	0.04
373.515	0.08
373.722	0.08
373.93	0.04
374.137	0.08
374.344	0.15
374.552	0.07
374.759	0.06
374.966	0.05
375.173	0.01
375.381	0.1
375.588	0.02
375.795	-0.02
376.002	0.04
376.209	0.02
376.417	0.05
376.624	0.04
376.831	0.09
377.038	0
377.245	-0.03
377.452	0.04
377.659	0.01
377.866	0.03
378.073	0.07
378.28	0.01
378.487	0.08
378.694	0.07
378.901	0.01
379.108	0.06
379.315	0.05
379.522	0.13
379.729	0.03
379.936	0.03
380.143	0.06
380.35	0.09
380.557	0.04
380.763	0.05
380.97	0.05
381.177	0.05
381.384	0.08
381.591	0.04
381.797	0.06
382.004	0.08
382.211	0.05
382.418	0.05
382.624	0.02
382.831	0.08
383.038	0.07
383.244	0.08
383.451	0.07
383.658	0.09
383.864	0.03
384.071	0.01
384.277	0.11
384.484	0.03
384.69	0.12
384.897	-0.01
385.103	0.05
385.31	0.02
385.516	0.02
385.723	0.05
385.929	0.03
386.136	0.05
386.342	0.06
386.549	0.07
386.755	0.13
386.961	0.02
387.168	0.02
387.374	0.07
387.58	0.1
387.787	0.08
387.993	0.07
388.199	0.06
388.406	0.02
388.612	0.09
388.818	0.06
389.024	0.07
389.231	0.06
389.437	0.16
389.643	0.09
389.849	0.11
390.055	0.1
390.261	0.06
390.467	0.07
390.674	0.07
390.88	0.09
391.086	0.11
391.292	0.02
391.498	0.09
391.704	0.09
391.91	0.1
392.116	0.07
392.322	0.01
392.528	0.1
392.734	0.08
392.94	0.12
393.146	0.13
393.352	0.12
393.557	0.06
393.763	0.12
393.969	0.16
394.175	0.17
394.381	0.13
394.587	0.07
394.792	0.12
394.998	0.17
395.204	0.2
395.41	0.12
395.615	0.15
395.821	0.23
396.027	0.22
396.233	0.1
396.438	0.17
396.644	0.24
396.85	0.22
397.055	0.21
397.261	0.19
397.466	0.19
397.672	0.25
397.878	0.24
398.083	0.27
398.289	0.22
398.494	0.27
398.7	0.26
398.905	0.18
399.111	0.33
399.316	0.2
399.522	0.3
399.727	0.29
399.932	0.3
400.138	0.35
400.343	0.39
400.549	0.39
400.754	0.39
400.959	0.41
401.165	0.41
401.37	0.45
401.575	0.57
401.78	0.45
401.986	0.47
402.191	0.49
402.396	0.57
402.601	0.58
402.807	0.59
403.012	0.59
403.217	0.74
403.422	0.67
403.627	0.75
403.832	0.74
404.037	0.86
404.243	0.83
404.448	0.86
404.653	0.91
404.858	0.99
405.063	0.95
405.268	1
405.473	1
405.678	1.05
405.883	1.31
406.088	1.23
406.293	1.2
406.498	1.27
406.703	1.38
406.907	1.38
407.112	1.44
407.317	1.65
407.522	1.71
407.727	1.76
407.932	1.83
408.136	2.01
408.341	1.93
408.546	2.07
408.751	2.14
408.956	2.26
409.16	2.4
409.365	2.5
409.57	2.51
409.774	2.62
409.979	2.73
410.184	2.79
410.388	2.93
410.593	3.14
410.798	3.26
411.002	3.41
411.207	3.51
411.411	3.67
411.616	3.79
411.82	3.97
412.025	4.16
412.229	4.31
412.434	4.44
412.638	4.55
412.843	4.66
413.047	4.89
413.252	5.04
413.456	5.38
413.66	5.39
413.865	5.48
414.069	5.68
414.273	6
414.478	6.1
414.682	6.32
414.886	6.57
415.091	6.58
415.295	6.83
415.499	7.23
415.703	7.28
415.908	7.68
416.112	7.71
416.316	8.26
416.52	8.39
416.724	8.55
416.929	8.77
417.133	9.3
417.337	9.25
417.541	9.6
417.745	9.9
417.949	9.98
418.153	10.5
418.357	10.76
418.561	11.12
418.765	11.18
418.969	11.44
419.173	12.05
419.377	11.97
419.581	12.53
419.785	12.81
419.989	12.89
420.193	13.56
420.397	13.6
420.601	13.85
420.804	14.1
421.008	14.09
421.212	14.41
421.416	14.19
421.62	14.36
421.823	14.32
422.027	14.38
422.231	14.29
422.435	14.07
422.638	14.04
422.842	14.27
423.046	14.32
423.249	14.57
423.453	14.34
423.657	14.38
423.86	14.47
424.064	14.56
424.268	14.5
424.471	14.19
424.675	14.39
424.878	14.11
425.082	14.32
425.285	14.59
425.489	13.84
425.692	13.78
425.896	13.57
426.099	13.4
426.303	13.52
426.506	13.37
426.71	13.37
426.913	13.19
427.116	13
427.32	12.65
427.523	12.39
427.726	12.29
427.93	12.02
428.133	12.27
428.336	11.89
428.54	11.73
428.743	11.53
428.946	11.38
429.149	11.01
429.353	10.64
429.556	10.34
429.759	9.82
429.962	9.71
430.165	9.48
430.368	8.65
430.571	8.51
430.775	8.15
430.978	7.82
431.181	7.57
431.384	7.26
431.587	7.18
431.79	7.21
431.993	6.9
432.196	6.77
432.399	6.84
432.602	6.61
432.805	6.58
433.008	6.59
433.211	6.21
433.414	6.22
433.616	6.12
433.819	5.85
434.022	5.67
434.225	5.61
434.428	5.44
434.631	5.54
434.833	5.14
435.036	5.1
435.239	5.14
435.442	4.86
435.645	4.76
435.847	4.68
436.05	4.66
436.253	4.57
436.455	4.39
436.658	4.24
436.861	4.26
437.063	4.23
437.266	3.88
437.468	3.96
437.671	3.92
437.874	3.77
438.076	3.56
438.279	3.51
438.481	3.51
438.684	3.54
438.886	3.41
439.089	3.3
439.291	3.23
439.494	3.16
439.696	3.03
439.899	3.03
440.101	3.12
440.303	2.89
440.506	3.02
440.708	2.85
440.91	2.79
441.113	2.68
441.315	2.72
441.517	2.49
441.72	2.56
441.922	2.3
442.124	2.25
442.326	2.29
442.529	2.24
442.731	2.08
442.933	2.22
443.135	2
443.337	1.94
443.539	1.94
443.742	1.77
443.944	1.85
444.146	1.7
444.348	1.69
444.55	1.54
444.752	1.59
444.954	1.5
445.156	1.5
445.358	1.44
445.56	1.47
445.762	1.35
445.964	1.37
446.166	1.28
446.368	1.22
446.57	1.31
446.772	1.22
446.974	1.12
447.175	1.14
447.377	1.09
447.579	1.12
447.781	1.03
447.983	1.07
448.184	1.02
448.386	1.02
448.588	0.89
448.79	0.95
448.991	0.95
449.193	0.9
449.395	0.88
449.597	0.91
449.798	0.86
450	0.83
450.202	0.83
450.403	0.78
450.605	0.81
450.806	0.76
451.008	0.65
451.21	0.71
451.411	0.72
451.613	0.65
451.814	0.66
452.016	0.72
452.217	0.64
452.419	0.7
452.62	0.6
452.821	0.67
453.023	0.65
453.224	0.65
453.426	0.54
453.627	0.56
453.828	0.53
454.03	0.47
454.231	0.59
454.432	0.52
454.634	0.6
454.835	0.47
455.036	0.46
455.238	0.52
455.439	0.58
455.64	0.42
455.841	0.42
456.042	0.57
456.244	0.5
456.445	0.43
456.646	0.35
456.847	0.4
457.048	0.44
457.249	0.44
457.45	0.66
457.651	0.33
457.852	0.38
458.054	0.37
458.255	0.32
458.456	0.41
458.657	0.35
458.858	0.32
459.058	0.3
459.259	0.37
459.46	0.29
459.661	0.28
459.862	0.47
460.063	0.29
460.264	0.35
460.465	0.28
460.666	0.4
460.866	0.26
461.067	0.25
461.268	0.28
461.469	0.27
461.67	0.29
461.87	0.22
462.071	0.23
462.272	0.22
462.473	0.3
462.673	0.25
462.874	0.16
463.075	0.19
463.275	0.2
463.476	0.22
463.676	0.23
463.877	0.22
464.078	0.19
464.278	0.29
464.479	0.15
464.679	0.24
464.88	0.13
465.08	0.28
465.281	0.18
465.481	0.15
465.682	0.18
465.882	0.19
466.083	0.23
466.283	0.15
466.483	0.18
466.684	0.09
466.884	0.14
467.085	0.13
467.285	0.22
467.485	0.1
467.686	0.17
467.886	0.1
468.086	0.16
468.286	0.1
468.487	0.21
468.687	0.08
468.887	0.13
469.087	0.16
469.287	0.14
469.488	0.12
469.688	0.16
469.888	0.22
470.088	0.22
470.288	0.15
470.488	0.18
470.688	0.06
470.888	0.17
471.088	0.1
471.288	0.17
471.488	0.14
471.688	0.14
471.888	0.12
472.088	0.17
472.288	0.15
472.488	0.09
472.688	0.07
472.888	0.16
473.088	0.13
473.288	0.12
473.488	0.07
473.688	0.18
473.887	0.11
474.087	0.08
474.287	0.09
474.487	0.09
474.687	0.13
474.886	0.07
475.086	0.06
475.286	0.08
475.486	0.11
475.685	0.09
475.885	0.07
476.085	0.08
476.284	0.14
476.484	0.1
476.684	0.11
476.883	0.16
477.083	0.08
477.282	0.06
477.482	0.16
477.681	0.1
477.881	0.09
478.08	0.04
478.28	0.04
478.479	0.1
478.679	0.15
478.878	0.05
479.078	0.04
479.277	0.08
479.477	0.06
479.676	0.09
479.875	0.05
480.075	0
480.274	0.09
480.473	0.07
480.673	0.02
480.872	0.11
481.071	0.07
481.271	0.08
481.47	0.06
481.669	0.04
481.868	0.04
482.067	0.01
482.267	0.03
482.466	0.03
482.665	0.01
482.864	0.04
483.063	0.03
483.262	0.09
483.461	0.09
483.661	0.1
483.86	0.05
484.059	0.05
484.258	0.07
484.457	0.04
484.656	0.07
484.855	0.07
485.054	0.05
485.253	0.01
485.452	-0.01
485.651	0.03
485.849	0.03
486.048	0.04
486.247	0.03
486.446	0.07
486.645	0.01
486.844	0.04
487.043	0.04
487.241	0.07
487.44	0.02
487.639	0.03
487.838	0.09
488.037	0.07
488.235	0.09
488.434	0.06
488.633	0.04
488.831	0.05
489.03	0.07
489.229	0.06
489.427	0.03
489.626	0.07
489.825	0.11
490.023	0.03
490.222	0.02
490.42	0.06
490.619	0.05
490.817	0.03
491.016	0.03
491.214	0.06
491.413	0.03
491.611	0.02
491.81	0.04
492.008	0.07
492.207	0.06
492.405	0.04
492.604	-0.03
492.802	0.02
493	0.04
493.199	0
493.397	0.02
493.595	0.04
493.794	0.01
493.992	0.07
494.19	0.01
494.388	0.07
494.587	0.01
494.785	0.03
494.983	-0
495.181	0.05
495.379	0.02
495.578	0.02
495.776	0.04
495.974	0.06
496.172	0.03
496.37	-0
496.568	-0.01
496.766	0.01
496.964	0.04
497.162	0.03
497.36	0.02
497.558	0.06
497.756	0.05
497.954	0.03
498.152	0
498.35	0.02
498.548	0.02
498.746	0.04
498.944	-0.01
499.142	0.02
499.34	0.03
499.538	0.01
499.736	0.01
499.933	0.07
500.131	0.06
500.329	0.03
500.527	0.06
500.725	0.07
500.922	0.04
501.12	0.02
501.318	0.04
501.516	-0
501.713	0.03
501.911	0.01
502.109	0.01
502.306	0.02
502.504	0.01
502.701	-0.01
502.899	0.01
503.097	0.07
503.294	0.02
503.492	0.01
503.689	0.04
503.887	0.04
504.084	0.08
504.282	0.03
504.479	-0
504.677	0.02
504.874	-0
505.072	0
505.269	0.02
505.466	0.04
505.664	0.01
505.861	0
506.059	0.01
506.256	0.05
506.453	0.02
506.651	0.05
506.848	0.07
507.045	0.04
507.242	0.04
507.44	0
507.637	0.03
507.834	0.01
508.031	0.04
508.229	0.01
508.426	0.04
508.623	0.05
508.82	0.02
509.017	0
509.214	0.03
509.411	0.01
509.608	-0.02
509.805	0.01
510.003	0
510.2	0.01
510.397	0.05
510.594	-0.01
510.791	0
510.988	0.02
511.184	0.03
511.381	0.03
511.578	-0
511.775	0.03
511.972	0.01
512.169	0.01
512.366	0.03
512.563	0.02
512.76	-0
512.956	0.04
513.153	-0
513.35	0.01
513.547	0.01
513.744	0
513.94	-0.01
514.137	0.02
514.334	0.03
514.53	0.02
514.727	0.02
514.924	0.08
515.12	-0
515.317	-0.03
515.514	0.01
515.71	-0
515.907	0.03
516.103	0.01
516.3	0.03
516.497	0.04
516.693	0.04
516.89	-0.01
517.086	-0.01
517.283	0.06
517.479	0.03
517.676	0.02
517.872	0.01
518.068	0.01
518.265	0
518.461	0.01
518.658	-0.01
518.854	0.02
519.05	0.02
519.247	0.01
519.443	0.02
519.639	0.05
519.836	0.02
520.032	0.01
520.228	0.01
520.424	0.07
520.621	0.02
520.817	0.02
521.013	0.02
521.209	0.02
521.405	0.03
521.601	0.01
521.798	0.01
521.994	0.06
522.19	-0.02
522.386	-0.02
522.582	0.02
522.778	0.02
522.974	0
523.17	0.01
523.366	0.02
523.562	0.04
523.758	0.02
523.954	-0.02
524.15	0
524.346	0.01
524.542	-0
524.738	-0.02
524.934	-0.01
525.129	0.01
525.325	0.01
525.521	0.01
525.717	0.04
525.913	0.01
526.109	0.03
526.304	0.01
526.5	0.02
526.696	0.04
526.892	0.03
527.087	0.03
527.283	-0
527.479	0.03
527.674	0
527.87	0
528.066	0
528.261	0.02
528.457	0.03
528.653	0.01
528.848	0
529.044	0.03
529.239	-0.01
529.435	0.03
529.63	0.01
529.826	0.06
530.021	0.03
530.217	0.04
530.412	-0.01
530.608	-0.01
530.803	0.02
530.999	0.01
531.194	-0.02
531.389	0.04
531.585	-0.05
531.78	0.01
531.975	-0
532.171	0.02
532.366	0.01
532.561	0.03
532.757	-0.01
532.952	0.04
533.147	0.02
533.342	0.02
533.538	0.01
533.733	0.04
533.928	0.01
534.123	0.01
534.318	-0.01
534.513	0.01
534.709	0.02
534.904	0.01
535.099	0
535.294	-0
535.489	0.02
535.684	-0
535.879	-0.02
536.074	0.04
536.269	0
536.464	0.02
536.659	0.01
536.854	0.02
537.049	0.01
537.244	0.01
537.439	0.01
537.634	0.02
537.828	0.01
538.023	-0.01
538.218	-0.03
538.413	0.02
538.608	-0.01
538.803	0.01
538.997	-0.03
539.192	0.04
539.387	0.03
539.582	0.02
539.776	0.03
539.971	0
540.166	0
540.36	-0.04
540.555	-0.01
540.75	-0.01
540.944	0.02
541.139	-0.04
541.334	-0
541.528	0.04
541.723	0.05
541.917	-0.01
542.112	-0.03
542.306	0
542.501	0.01
542.695	0.04
542.89	0.01
543.084	0.02
543.279	0.01
543.473	0.01
543.668	-0
543.862	0.01
544.056	0.03
544.251	0
544.445	0.01
544.64	0
544.834	-0.02
545.028	0.02
545.222	0.03
545.417	0.05
545.611	0.02
545.805	0.01
546	0.01
546.194	0.02
546.388	0.01
546.582	0.03
546.776	-0
546.97	0.01
547.165	0.02
547.359	0.04
547.553	-0.02
547.747	-0.01
547.941	0.02
548.135	0.02
548.329	0.01
548.523	0.02
548.717	-0.01
548.911	-0
549.105	-0
549.299	0.02
549.493	0.01
549.687	0.04
549.881	0.02
550.075	-0
550.269	-0.02
550.463	0.02
550.657	-0.01
550.85	0.01
551.044	-0.02
551.238	0.02
551.432	-0.01
551.626	-0.02
551.82	0.01
552.013	-0.02
552.207	0.01
552.401	0.02
552.594	0.02
552.788	-0.02
552.982	0.01
553.176	-0.01
553.369	0.03
553.563	-0.02
553.756	-0.04
553.95	0
554.144	-0.01
554.337	0.05
554.531	0
554.724	0.01
554.918	0.01
555.111	0.02
555.305	-0.01
555.498	0.06
555.692	0.02
555.885	-0
556.079	0.02
556.272	0.01
556.466	0.02
556.659	0.01
556.852	-0.01
557.046	0
557.239	0.03
557.432	-0.01
557.626	-0.01
557.819	0
558.012	0.03
558.206	0.03
558.399	-0
558.592	0.02
558.785	0
558.979	0.03
559.172	0.01
559.365	0.01
559.558	0.01
559.751	-0
559.944	-0
560.138	-0.01
560.331	0
560.524	-0.02
560.717	0
560.91	0.01
561.103	0.02
561.296	0
561.489	-0
561.682	0
561.875	0.04
562.068	0.03
562.261	0.02
562.454	0.06
562.647	0.01
562.84	0.01
563.032	-0
563.225	0.02
563.418	-0.02
563.611	-0
563.804	0
563.997	-0.02
564.19	-0.05
564.382	0
564.575	-0.01
564.768	0.02
564.961	0.01
565.153	0
565.346	0.01
565.539	0.04
565.731	0.01
565.924	0.02
566.117	0.03
566.309	0.01
566.502	-0.03
566.695	0
566.887	0.02
567.08	-0.02
567.272	-0.01
567.465	-0.03
567.657	0.01
567.85	0.01
568.042	0.03
568.235	0.03
568.427	-0
568.62	0.01
568.812	0.02
569.005	0.01
569.197	-0.03
569.389	0.02
569.582	0.03
569.774	0
569.966	-0.05
570.159	-0.04
570.351	0.03
570.543	-0.01
570.736	0
570.928	-0.02
571.12	-0
571.312	-0.01
571.505	-0.02
571.697	0.04
571.889	-0.02
572.081	-0.01
572.273	-0.03
572.465	0.05
572.658	0.02
572.85	0.03
573.042	0.02
573.234	-0.01
573.426	0.03
573.618	-0.03
573.81	0.02
574.002	0.04
574.194	0.04
574.386	-0.03
574.578	-0.07
574.77	-0.03
574.962	0.01
575.154	-0.05
575.346	-0.02
575.538	0.01
575.729	-0
575.921	-0.01
576.113	-0.02
576.305	0.03
576.497	-0.01
576.689	-0
576.88	-0.04
577.072	0.03
577.264	-0
577.456	-0.01
577.647	-0.07
577.839	0.01
578.031	0.01
578.223	-0.02
578.414	-0.05
578.606	0.01
578.798	0.04
578.989	-0.04
579.181	-0.01
579.372	0.01
579.564	-0.01
579.755	0.02
579.947	0.01
580.139	0.02
580.33	-0.03
580.522	-0.03
580.713	-0.06
580.905	0.01
581.096	0.04
581.287	-0
581.479	0.01
581.67	0.02
581.862	0.01
582.053	-0.02
582.244	-0.04
582.436	0.01
582.627	0.03
582.818	-0.02
583.01	-0.02
583.201	0.02
583.392	0.04
583.583	-0.01
583.775	-0.01
583.966	-0.02
584.157	-0.02
584.348	-0.01
584.54	-0.02
584.731	0.01
584.922	-0
585.113	-0.02
585.304	0.05
585.495	0.04
585.686	0.03
585.877	0.02
586.068	-0.01
586.259	0.02
586.45	-0
586.641	-0.03
586.832	-0.05
587.023	-0.01
587.214	-0.01
587.405	0.02
587.596	-0.04
587.787	0.03
587.978	0.01
588.169	-0.04
588.36	-0.02
588.551	0.02
588.742	-0.01
588.932	0.02
589.123	0
589.314	0.02
589.505	0.02
589.696	0.01
589.886	-0.02
590.077	-0.02
590.268	0.01
590.458	-0.04
590.649	-0.04
590.84	0.06
591.03	0.01
591.221	-0.04
591.412	-0.05
591.602	0.03
591.793	0.04
591.984	-0.03
592.174	0
592.365	0.06
592.555	-0
592.746	0.01
592.936	0.03
593.127	0.01
593.317	0.05
593.508	-0.02
593.698	-0.02
593.889	-0.01
594.079	0.01
594.269	-0.01
594.46	-0.02
594.65	-0.01
594.84	-0.01
595.031	-0.01
595.221	-0.01
595.411	-0.07
595.602	0.02
595.792	0.01
595.982	-0.02
596.172	0.06
596.363	-0
596.553	-0.01
596.743	-0.01
596.933	-0.01
597.123	0.06
597.314	-0.04
597.504	-0
597.694	0.03
597.884	0.03
598.074	-0.01
598.264	-0.01
598.454	0.01
598.644	-0
598.834	-0
599.024	-0.07
599.214	-0.04
599.404	0.02
599.594	-0.02
599.784	-0.06
599.974	0.04
600.164	0.03
600.354	-0.02
600.544	-0.05
600.734	0
600.924	0.03
601.114	-0.01
601.303	-0.03
601.493	0
601.683	-0.03
601.873	0.01
602.063	-0.06
602.252	0.03
602.442	-0.07
602.632	-0.03
602.821	-0.06
603.011	0.01
603.201	-0.02
603.39	-0.04
603.58	-0.04
603.77	-0.02
603.959	0.01
604.149	-0.02
604.339	-0.03
604.528	0.02
604.718	0
604.907	0
605.097	-0.02
605.286	-0.03
605.476	0.01
605.665	0.02
605.855	0
606.044	0.05
606.234	0.03
606.423	0
606.612	-0.04
606.802	0
606.991	0.02
607.181	0
607.37	-0.06
607.559	-0.02
607.749	-0.06
607.938	0.01
608.127	-0.01
608.316	-0.01
608.506	-0
608.695	0.01
608.884	-0.05
609.073	-0.01
609.263	-0.01
609.452	-0
609.641	0.03
609.83	-0.05
610.019	-0.01
610.208	-0.01
610.397	-0.01
610.586	0.04
610.775	-0.02
610.965	-0.02
611.154	-0.04
611.343	-0.01
611.532	-0.01
611.721	-0.03
611.91	-0.03
612.099	0.02
612.287	-0.02
612.476	-0.02
612.665	-0.01
612.854	-0.03
613.043	0.03
613.232	-0.03
613.421	-0.06
613.61	-0
613.798	-0.06
613.987	0.03
614.176	0.01
614.365	0.02
614.554	0
614.742	0.02
614.931	-0.03
615.12	0.02
615.309	-0.04
615.497	0.02
615.686	-0.03
615.875	-0.01
616.063	0.01
616.252	-0.04
616.44	-0.03
616.629	-0.01
616.818	0.04
617.006	-0.05
617.195	-0.01
617.383	-0.01
617.572	0
617.76	-0.03
617.949	-0.01
618.137	-0.01
618.326	0.05
618.514	-0
618.703	-0.04
618.891	0.03
619.079	-0.07
619.268	-0.01
619.456	-0.03
619.644	0.04
619.833	0
620.021	-0.01
620.209	-0.06
620.398	-0
620.586	-0
620.774	0
620.962	-0.03
621.151	0.02
621.339	-0
621.527	-0.08
621.715	-0.04
621.903	-0.06
622.092	-0.04
622.28	-0.01
622.468	-0.03
622.656	0.01
622.844	0.03
623.032	-0.02
623.22	-0.06
623.408	0.02
623.596	-0.02
623.784	0.03
623.972	-0.06
624.16	-0.02
624.348	0.05
624.536	-0.02
624.724	-0.04
624.912	0.06
625.1	0
625.288	-0.04
625.476	-0.06
625.664	0.03
625.851	-0.04
626.039	-0.05
626.227	0.01
626.415	-0.01
626.603	-0.08
626.79	-0.01
626.978	-0.03
627.166	0.02
627.354	-0.01
627.541	-0
627.729	-0.06
627.917	0.01
628.104	0.03
628.292	-0.02
628.48	0.02
628.667	0.01
628.855	-0.01
629.042	0
629.23	-0.02
629.418	-0.04
629.605	-0.03
629.793	-0.01
629.98	-0
630.168	-0.01
630.355	-0
630.543	0
630.73	-0.03
630.917	0.04
631.105	0.03
631.292	-0.02
631.48	-0.02
631.667	0.05
631.854	-0
632.042	-0.02
632.229	-0.05
632.416	-0.01
632.604	-0.03
632.791	-0.04
632.978	0.03
633.165	0.01
633.353	0.05
633.54	0.01
633.727	-0.06
633.914	-0.03
634.101	-0.04
634.289	0.04
634.476	-0.03
634.663	-0.07
634.85	-0
635.037	-0.06
635.224	-0.06
635.411	0.03
635.598	0.02
635.785	-0.02
635.972	-0.02
636.159	0.04
636.346	-0.03
636.533	-0.01
636.72	-0.02
636.907	-0.03
637.094	0.01
637.281	-0.02
637.468	0.02
637.655	-0.02
637.842	-0
638.029	-0.06
638.215	-0
638.402	-0.01
638.589	-0.05
638.776	-0.05
638.963	-0.03
639.149	0.02
639.336	0.03
639.523	-0.02
639.709	-0.01
639.896	-0.04
640.083	0.02
640.27	0.02
640.456	-0.05
640.643	0.04
640.829	-0.07
641.016	-0.03
641.203	-0.04
641.389	0.03
641.576	0.03
641.762	-0.02
641.949	-0.05
642.135	-0.02
642.322	0.01
642.508	-0.07
642.695	-0.03
642.881	-0
643.068	0.01
643.254	-0.03
643.441	0.03
643.627	-0.02
643.813	-0.04
644	0.03
644.186	-0.02
644.372	0.01
644.559	0
644.745	-0.05
644.931	-0.04
645.118	-0.01
645.304	-0.01
645.49	-0.05
645.676	-0.03
645.862	0.01
646.049	0.03
646.235	-0.03
646.421	0.07
646.607	0.08
646.793	-0.05
646.979	-0.01
647.165	-0.02
647.352	-0.01
647.538	0.01
647.724	-0.02
647.91	0.01
648.096	0
648.282	0.04
648.468	-0.02
648.654	0.01
648.84	-0.02
649.026	0.01
649.212	-0.03
649.397	-0.04
649.583	-0.08
649.769	0
649.955	0.02
650.141	-0.01
650.327	0.05
650.513	-0.04
650.698	-0.02
650.884	-0.08
651.07	-0.01
651.256	0
651.442	-0
651.627	0
651.813	0
651.999	-0.02
652.184	0.02
652.37	-0.02
652.556	-0.04
652.741	0
652.927	-0.06
653.113	-0.01
653.298	-0
653.484	-0.05
653.669	-0.02
653.855	-0.01
654.04	0.01
654.226	-0
654.412	-0.04
654.597	-0.05
654.782	-0.03
654.968	0.02
655.153	-0.02
655.339	-0.05
655.524	-0.05
655.71	0.03
655.895	-0.01
656.08	-0.01
656.266	0.04
656.451	-0.03
656.636	-0.02
656.822	-0.03
657.007	-0.04
657.192	-0.01
657.378	-0.08
657.563	0.01
657.748	0.03
657.933	0.04
658.118	-0.04
658.304	-0.01
658.489	0.04
658.674	-0.02
658.859	-0.06
659.044	0.01
659.229	-0.01
659.414	-0.03
659.599	-0.02
659.785	-0.06
659.97	-0.02
660.155	0.02
660.34	-0.02
660.525	-0.01
660.71	-0.04
660.895	0.01
661.08	-0.03
661.264	-0.05
661.449	0.05
661.634	0.05
661.819	-0.02
662.004	-0.03
662.189	-0.08
662.374	-0.03
662.559	-0.05
662.743	-0.1
662.928	-0.01
663.113	-0.04
663.298	-0.09
663.483	-0.04
663.667	-0.02
663.852	-0.09
664.037	0.02
664.221	-0.03
664.406	-0.02
664.591	0.04
664.775	-0.02
664.96	-0.01
665.145	0
665.329	0
665.514	-0.02
665.698	-0.03
665.883	-0.05
666.068	0.03
666.252	-0.01
666.437	-0.07
666.621	0.02
666.806	0.02
666.99	-0.04
667.174	-0.1
667.359	0.04
667.543	-0.05
667.728	-0.02
667.912	-0.08
668.096	0
668.281	-0.02
668.465	-0.02
668.649	-0.04
668.834	-0.07
669.018	0
669.202	-0.01
669.387	-0.05
669.571	0.03
669.755	-0.04
669.939	-0.01
670.124	-0.02
670.308	0.04
670.492	0
670.676	-0.03
670.86	-0.02
671.044	-0.07
671.228	0.04
671.413	-0.06
671.597	-0.03
671.781	-0.06
671.965	-0.01
672.149	-0.05
672.333	-0.03
672.517	-0.08
672.701	0.03
672.885	-0.01
673.069	-0.1
673.253	0.03
673.437	-0
673.621	-0.1
673.804	-0.02
673.988	-0.02
674.172	-0.02
674.356	-0.08
674.54	-0.01
674.724	0.01
674.908	-0.01
675.091	0.01
675.275	-0.06
675.459	0.04
675.643	-0.06
675.826	0.02
676.01	-0.05
676.194	0
676.377	0.03
676.561	-0
676.745	-0.03
676.928	-0
677.112	0.04
677.296	-0.07
677.479	-0.03
677.663	-0.04
677.846	0
678.03	0.01
678.213	-0.03
678.397	0
678.58	-0.02
678.764	-0.04
678.947	-0.03
679.131	-0.06
679.314	0.02
679.498	-0.06
679.681	0.01
679.865	0.02
680.048	-0.04
680.231	-0.06
680.415	-0.01
680.598	-0.07
680.781	-0.02
680.965	-0.06
681.148	-0.01
681.331	-0.07
681.514	0.01
681.698	0
681.881	-0
682.064	0.01
682.247	0
682.43	-0.07
682.614	0.02
682.797	0.03
682.98	-0.03
683.163	-0.1
683.346	0.04
683.529	-0.01
683.712	-0.06
683.895	0.02
684.078	-0.05
684.261	-0.05
684.444	0
684.627	-0.04
684.81	-0.02
684.993	-0.01
685.176	0.03
685.359	-0.03
685.542	-0.09
685.725	0.04
685.908	0.01
686.091	-0.03
686.274	-0.02
686.457	0.02
686.639	-0.01
686.822	-0.01
687.005	-0.01
687.188	-0.01
687.371	0.05
687.553	0
687.736	0.02
687.919	0.09
688.102	0.02
688.284	-0.06
688.467	0.02
688.65	-0.02
688.832	-0.04
689.015	-0.01
689.197	-0.06
689.38	0.04
689.563	0.04
689.745	-0.03
689.928	-0.1
690.11	0.02
690.293	0.01
690.475	-0.1
690.658	0.01
690.84	-0.02
691.023	0.01
691.205	-0.03
691.388	0.02
691.57	0.07
691.752	0.01
691.935	-0.07
692.117	-0.04
692.3	0.02
692.482	0.01
692.664	0.01
692.847	-0.03
693.029	0.07
693.211	-0.01
693.393	-0.05
693.576	-0.02
693.758	-0.03
693.94	-0.08
694.122	-0.05
694.304	-0.01
694.487	-0.04
694.669	0.03
694.851	-0.06
695.033	-0.04
695.215	-0.06
695.397	-0.03
695.579	-0.04
695.761	-0.05
695.943	-0.09
696.125	0.04
696.308	0
696.49	-0.13
696.671	0.1
696.853	-0.05
697.035	0.1
697.217	-0.03
697.399	0.01
697.581	-0.08
697.763	-0.02
697.945	-0.08
698.127	-0
698.309	0.02
698.491	-0.02
698.672	0.06
698.854	0.02
699.036	0.1
699.218	-0.04
699.399	-0.01
699.581	0.07
699.763	0.03
699.945	-0.05
700.126	-0.06
700.308	-0.02
700.49	-0.02
700.671	-0.1
700.853	-0
701.035	-0.07
701.216	-0.02
701.398	-0.06
701.579	-0.03
701.761	0.04
701.943	-0.02
702.124	-0.03
702.306	-0.03
702.487	0.08
702.669	-0.04
702.85	-0.04
703.031	-0.11
703.213	0.13
703.394	0.02
703.576	-0.05
703.757	0.06
703.938	0.04
704.12	0.14
704.301	0
704.483	-0.08
704.664	0.02
704.845	0.07
705.026	-0.01
705.208	-0.06
705.389	0.01
705.57	0.04
705.751	-0.01
705.933	-0.02
706.114	0.05
706.295	-0.05
706.476	-0.13
706.657	0.01
706.838	0.03
707.02	0.05
707.201	-0.07
707.382	-0.09
707.563	-0.04
707.744	-0.08
707.925	-0.04
708.106	-0.1
708.287	-0.04
708.468	0.11
708.649	-0.11
708.83	0.08
709.011	-0.1
709.192	0.01
709.373	-0.09
709.554	-0.05
709.734	-0.01
709.915	-0.03
710.096	-0.05
710.277	-0.13
710.458	0.07
710.639	0.03
710.819	-0.11
711	0.01
711.181	0.02
711.362	0.04
711.542	-0
711.723	-0.01
711.904	0.1
712.085	0.02
712.265	-0
712.446	-0.1
712.627	-0.06
712.807	0
712.988	-0.01
713.168	-0.13
713.349	0.01
713.53	-0.11
713.71	-0.07
713.891	-0.08
714.071	0.01
714.252	-0.03
714.432	-0.02
714.613	-0.14
714.793	-0.05
714.974	0.07
715.154	-0.01
715.334	0.06
715.515	0.05
715.695	-0.11
715.876	-0.03
716.056	0.01
716.236	-0.07
716.417	-0.05
716.597	0.02
716.777	0.06
716.957	-0.03
717.138	0.04
717.318	-0.07
717.498	-0.12
717.678	-0.1
717.859	0.03
718.039	-0.17
718.219	0.01
718.399	-0
718.579	-0.1
718.759	-0.12
718.939	-0.01
719.12	-0.03
719.3	0
719.48	-0.19
719.66	-0.15
719.84	0.1
720.02	-0.01
720.2	-0.07
720.38	-0.01
720.56	0.12
720.74	-0.06
720.92	-0.04
721.1	0.07
721.279	0
721.459	-0.08
721.639	-0.15
721.819	-0.04
721.999	-0.15
722.179	0
722.359	-0.1
722.538	-0.05
722.718	0.01
722.898	-0.06
723.078	-0.09
723.257	-0.06
723.437	-0.01
723.617	-0.04
723.797	-0.03
723.976	0.01
724.156	0.06
724.336	0.12
724.515	0.14
724.695	-0.13
724.874	-0.02
725.054	0.02
725.234	-0.14
725.413	-0.1
725.593	0.01
725.772	-0.03
725.952	-0.02
726.131	-0.08
726.311	-0
726.49	-0.01
726.67	-0.16
726.849	-0.16
727.028	0.07
727.208	-0.09
727.387	0.01
727.567	-0.08
727.746	-0.06
727.925	-0.1
728.105	-0.1
728.284	-0.08
728.463	-0.12
728.643	-0.01
728.822	-0.12
729.001	-0.13
729.18	-0.01
729.359	0.11
729.539	0.07
729.718	-0
729.897	0.09
730.076	-0.06
730.255	-0.09
730.434	0.05
730.614	0.11
730.793	-0.01
730.972	-0.08
731.151	0.02
731.33	0.05
731.509	-0.03
731.688	-0.01
731.867	-0.06
732.046	-0.14
732.225	0.06
732.404	-0.12
732.583	-0.14
732.762	0.01
732.941	0.05
733.12	-0.06
733.298	0.02
733.477	0.1
733.656	-0.07
733.835	-0.22
734.014	-0.03
734.193	-0.04
734.371	0.01
734.55	0.09
734.729	-0.19
734.908	-0.09
735.086	0.06
735.265	0.06
735.444	-0.24
735.623	-0.15
735.801	-0.1
735.98	0.01
736.159	-0.06
736.337	0.09
736.516	-0.09
736.694	-0.03
736.873	-0.09
737.052	0.05
737.23	0.04
737.409	-0.01
737.587	0.11
737.766	-0.29
737.944	-0.09
738.123	0.01
738.301	0
738.479	-0.12
738.658	-0.05
738.836	-0.21
739.015	-0.02
739.193	0
739.371	-0.18
739.55	-0.02
739.728	-0.13
739.906	-0.03
740.085	0.11
740.263	-0.02
740.441	-0.23
740.62	0.16
740.798	0.01
740.976	-0.14
741.154	-0.18
741.332	0.1
741.511	-0.11
741.689	-0.01
741.867	0.01
742.045	-0.06
742.223	-0.1
742.401	-0.17
742.579	-0.12
742.757	0.02
742.935	-0.17
743.114	-0.11
743.292	0.03
743.47	-0.03
743.648	-0.07
743.826	-0.12
744.004	0.04
744.181	0
744.359	-0.07
744.537	-0.01
744.715	-0.01
744.893	-0.2
745.071	-0.02
745.249	-0.03
745.427	-0.12
745.605	0.06
745.782	-0.1
745.96	0.06
746.138	-0.07
746.316	0.08
746.493	-0.1
746.671	-0.04
746.849	0
747.027	0.07
747.204	-0.12
747.382	-0.04
747.56	-0.15
747.737	-0.1
747.915	-0.05
748.093	-0.03
748.27	-0.13
748.448	-0.13
748.625	-0.11
748.803	-0.13
748.98	-0.12
749.158	-0.04
749.335	0.03
749.513	-0
749.69	-0.06
749.868	-0.05
750.045	0.02
750.223	-0.1
750.4	-0.12
750.578	0.17
750.755	-0.04
750.932	-0.2
751.11	-0.02
751.287	-0.16
751.464	0.1
751.642	-0.19
751.819	0.01
751.996	0.01
752.173	-0.15
752.351	-0.19
752.528	-0.03
752.705	-0.04
752.882	-0.13
753.06	-0.03
753.237	0.06
753.414	-0
753.591	0.1
753.768	-0.02
753.945	-0.26
754.122	-0.07
754.299	-0
754.476	-0.17
754.654	-0.03
754.831	-0.06
755.008	0.01
755.185	-0.09
755.362	-0.17
755.539	-0.08
755.716	-0.17
755.892	-0.09
756.069	-0.03
756.246	-0.08
756.423	-0.1
756.6	0.11
756.777	-0.12
756.954	0.06
757.131	-0.08
757.307	-0.16
757.484	-0.16
757.661	-0.02
757.838	-0.09
758.015	-0.15
758.191	-0.01
758.368	-0.03
758.545	0.16
758.721	0.09
758.898	-0.06
759.075	0.03
759.251	0.09
759.428	0.05
759.605	-0.11
759.781	-0.09
759.958	-0.04
760.134	-0.02
760.311	-0.04
760.488	0.01
760.664	0.15
760.841	0.01
761.017	-0.21
761.194	-0.05
761.37	0.03
761.547	0.01
761.723	-0.1
761.899	0.19
762.076	-0.14
762.252	-0.2
762.429	-0.05
762.605	-0.01
762.781	-0.08
762.958	0.01
763.134	-0.05
763.31	-0.13
763.486	0.12
763.663	-0.16
763.839	-0
764.015	-0.19
764.191	-0.08
764.368	-0.03
764.544	-0.18
764.72	-0.08
764.896	0.09
765.072	-0.12
765.248	-0.1
765.425	-0.07
765.601	0.02
765.777	-0.05
765.953	-0.26
766.129	-0.05
766.305	-0.13
766.481	0.08
766.657	0.06
766.833	0.22
767.009	-0.13
767.185	-0.01
767.361	-0.07
767.537	-0.28
767.713	0.2
767.889	-0.13
768.065	-0.13
768.24	-0.15
768.416	0.07
768.592	-0.09
768.768	-0.01
768.944	0.03
769.12	-0.19
769.295	-0.06
769.471	-0
769.647	0.01
769.823	0
769.998	-0.14
770.174	-0.24
770.35	0.26
770.525	0.18
770.701	0.02
770.877	-0.09
771.052	-0.1
771.228	0.08
771.403	-0.06
771.579	0.07
771.755	0.33
771.93	0.03
772.106	-0.06
772.281	-0.28
772.457	-0.08
772.632	0.11
772.808	-0.29
772.983	-0.17
773.159	-0.14
773.334	0.05
773.509	-0.01
773.685	-0.03
773.86	0.38
774.036	0.21
774.211	-0.06
774.386	-0.08
774.562	0.05
774.737	0.06
774.912	-0.14
775.087	0.09
775.263	0.06
775.438	-0.06
775.613	-0.19
775.788	-0.07
775.964	0.16
776.139	0.29
776.314	-0.32
776.489	-0.05
776.664	-0.23
776.839	-0.19
777.014	0.09
777.19	0.05
777.365	0.15
777.54	0.26
777.715	-0.21
777.89	-0.09
778.065	-0.1
778.24	-0.12
778.415	0.06
778.59	-0.25
778.765	-0.13
778.94	-0.03
779.115	-0.1
779.289	-0.08
779.464	-0.09
779.639	-0.12
779.814	-0.23
779.989	-0.28
780.164	0.09
780.339	-0.14
780.513	-0.08
780.688	-0.24
780.863	0.04
781.038	0.07
781.212	-0.27
781.387	-0.14
781.562	0.31
781.737	0.06
781.911	0.07
782.086	-0.12
782.261	-0.02
782.435	0.03
782.61	-0.17
782.784	-0.19
782.959	0.1
783.134	-0.18
783.308	-0.39
783.483	-0.04
783.657	0.25
783.832	0.24
784.006	-0.31
784.181	0.14
784.355	0.21
784.53	-0.13
784.704	-0.3
784.878	0.1
785.053	0.17
785.227	0.12
785.402	0.3
785.576	-0.3
785.75	-0.15
785.925	-0.19
786.099	-0.06
786.273	0
786.448	0.16
786.622	0.24
786.796	-0.12
786.97	0.08
787.145	0.39
787.319	-0.38
787.493	-0.14
787.667	-0.44
787.841	0.11
788.015	0.15
788.19	-0.18
788.364	-0.24
788.538	0.09
788.712	0.11
788.886	-0.08
789.06	0.2
789.234	0.12
789.408	-0.27
789.582	0.04
789.756	-0.24
789.93	-0.34
790.104	-0.18
790.278	-0.37
790.452	-0.44
790.626	0.18
790.8	-0.1
790.973	0.02
791.147	0.27
791.321	0.09
791.495	0.22
791.669	-0.01
791.843	-0.1
792.016	0.05
792.19	0.5
792.364	-0.28
792.538	0.23
792.711	0.31
792.885	-0.07
793.059	-0.15
793.233	-0.49
793.406	0
793.58	-0.09
793.754	-0.16
793.927	-0.32
794.101	0.25
794.274	-0.18
794.448	0.12
794.622	-0.43
794.795	0.16
794.969	-0.36
795.142	0.29
795.316	-0.14
795.489	-0.17
795.663	0.24
795.836	-0.15
796.009	-0.36
796.183	0.19
796.356	0.12
796.53	0.05
796.703	-0.16
796.876	0.38
797.05	-0.15
797.223	-0.12
797.396	-0.04
797.57	0.07
797.743	0.24
797.916	-0.12
798.09	-0.19
798.263	0.19
798.436	0.02
798.609	-0.34
798.782	-0.25
798.956	0.11
799.129	0.12
799.302	-0.22
799.475	-0.24
799.648	-0.29
799.821	-0.16
799.994	-0.07
800.167	-0.38
800.34	0.07
800.514	0.16
800.687	-0.37
800.86	-0.39
801.033	-0.04
801.206	0.05
801.379	-0.15
801.551	0.19
801.724	-0.18
801.897	0.36
802.07	-0.36
802.243	-0.64
802.416	-0.33
802.589	-0.16
802.762	-0.15
802.935	-0.2
803.107	0.16
803.28	0.17
803.453	0.27
803.626	-0.49
803.798	-0.01
803.971	-0.17
804.144	-0.46
804.317	0.27
804.489	0.2
804.662	-0.25
804.835	-0.26
805.007	-0.36
805.18	0.45
805.353	-0.14
805.525	-0.42
805.698	-0.36
805.87	0.06
806.043	0.1
806.215	-0.44
806.388	-0.29
806.56	0.15
806.733	0.2
806.905	0.07
807.078	-0.49
807.25	-0.54
807.423	0.09
807.595	0.02
807.768	-0.1
807.94	0.16
808.112	-0.02
808.285	-0.03
808.457	-0.4
808.629	0.04
808.802	0.24
808.974	-0.01
809.146	-0.19
809.318	-0.42
809.491	-0.3
809.663	0
809.835	-0.41
810.007	0.26
810.18	-0.34
810.352	-0.45
810.524	-0.35
810.696	0.05
810.868	0.35
811.04	-0.22
811.212	-0.01
811.384	0.23
811.556	0.27
811.728	-0.42
811.901	0.57
812.073	-0.26
812.245	0.34
812.417	0.35
812.589	-0.8
812.76	0.1
812.932	0
813.104	-0.05
813.276	-0.29
813.448	0.29
813.62	0.23
813.792	-0.25
813.964	-0.25
814.136	0.24
814.307	-0.28
814.479	-0.59
814.651	-0.11
814.823	0.79
814.995	-0.2
815.166	-0.12
815.338	-0.66
815.51	-0.68
815.681	0.79
815.853	0.27
816.025	-0.44
816.196	0.28
816.368	0.25
816.54	-0.77
816.711	-0.54
816.883	0.41
817.054	0.66
817.226	-0.75
817.398	-0.02
817.569	-0.44
817.741	-0.21
817.912	-0.05
818.084	-0.52
818.255	-0.22
818.426	-0.25
818.598	-0.39
818.769	-0.56
818.941	0.4
819.112	0.63
819.283	-0.03
819.455	-0.55
819.626	-0.29
819.798	0.23
819.969	0.12
820.14	0.02
820.311	-0.4
820.483	-0.02
820.654	0.18
820.825	-0.29
820.996	-0.24
821.168	-0.49
821.339	-0.22
821.51	-0.58
821.681	-0.45
821.852	-0.46
822.023	-0.5
822.195	-1.19
822.366	0.28
822.537	-0.18
822.708	-0.01
822.879	-0.28
823.05	0.34
823.221	-0.29
823.392	0.17
823.563	-0.1
823.734	0.12
823.905	-0.16
824.076	-0.52
824.247	-0.31
824.418	-0.48
824.589	-0.09
824.759	-0.81
824.93	-0.57
825.101	-1.03
825.272	0.2
825.443	0.24
825.614	-0.03
825.784	-1.17
825.955	0.94
826.126	0.27
826.297	0.2
826.467	0.11
826.638	0.56
826.809	-1.48
826.98	-0.5
827.15	-0.44
827.321	-0.3
827.492	0.48
827.662	-0.02
827.833	0.83
828.003	-0.2
828.174	-0.76
828.345	-0.73
828.515	-0
828.686	0.56
828.856	-0.59
829.027	-0.5
829.197	-0.11
829.368	-0.16
829.538	-0.33
829.709	-0.5
829.879	-0.11
830.049	-0.29
830.22	-0.81
830.39	0.01
830.56	0.12
830.731	0.04
830.901	-0.43
831.072	-0.24
831.242	0.09
831.412	-0.01
831.582	0.06
831.753	-0.54
831.923	0.08
832.093	-0.49
832.263	-0.42
832.434	-0.69
832.604	-0.21
832.774	0.37
832.944	-0.29
833.114	-0.72
833.284	0.22
833.454	-0.6
833.624	0.11
833.795	-0.31
833.965	0.35
834.135	0.5
834.305	-1.26
834.475	-0.84
834.645	0.16
834.815	-0.17
834.985	-1.16
835.155	-0.73
835.325	0.18
835.494	0.64
835.664	-0.41
835.834	-1.13
836.004	-0.64
836.174	-0.04
836.344	-0.77
836.514	-1.31
836.684	0.05
836.853	-0.1
837.023	0.49
837.193	-0.33
837.363	0.89
837.532	0.62
837.702	-0.47
837.872	-0.4
838.041	0.3
838.211	1.15
838.381	-0.94
838.55	-0.41
838.72	1.14
838.89	0.59
839.059	-0.08
839.229	-0.82
839.398	1.24
839.568	-0.33
839.738	-0.81
839.907	0.53
840.077	-0.2
840.246	-0.47
840.416	-0.44
840.585	-1.18
840.755	0.63
840.924	0.79
841.093	-0.63
841.263	0.27
841.432	0.14
841.602	-1.23
841.771	-0.86
841.94	-0.11
842.11	1.6
842.279	0.43
842.448	-0.87
842.617	-0.76
842.787	0.43
842.956	-1.73
843.125	-0.03
843.294	0.45
843.464	1.01
843.633	0.04
843.802	-0.86
843.971	-0.77
844.14	-0.5
844.309	0.87
844.479	-1.53
844.648	-0.84
844.817	0.04
844.986	-0.12
845.155	0.09
845.324	-0.92
845.493	-0.97
845.662	-0.62
845.831	0.53
846	-0.49
846.169	-0.71
846.338	1.79
846.507	0.36
846.676	0.28
846.844	-1.17
847.013	1.05
847.182	-0.3
847.351	-0.37
847.52	0.09
847.689	-0.37
847.858	-0.38
848.026	-1.09
848.195	-0.15
848.364	-1.28
848.533	-0.77
848.701	-0.67
848.87	0.41
849.039	-0.12
849.207	0.04
849.376	0.09
849.545	1.24
849.713	-0.92
849.882	-0.89
850.051	-0.35
850.219	-0.85
850.388	-0.18
850.556	-0.49
850.725	-0.72
850.893	-0.07
851.062	-1.4
851.23	0.23
851.399	-1.82
851.567	-0.69
851.736	-1.1
851.904	-0.53
852.073	0.59
852.241	0.9
852.41	-0.71
852.578	-0.04
852.746	-1.76
852.915	0.52
853.083	-0.32
853.251	-1.92
853.42	0.07
853.588	-0.16
853.756	0.83
853.924	-0.93
854.093	-0.04
854.261	-0.55
854.429	-2.17
854.597	-0.2
854.765	-1.84
854.934	0.03
855.102	-0.38
855.27	-1.66
855.438	-0.46
855.606	0.11
855.774	1.63
855.942	-2.04
856.11	-2.07
856.278	-0.45
856.446	-0.2
856.614	-0.93
856.782	-0.91
856.95	0.58
857.118	0.43
857.286	0.26
857.454	-1.16
857.622	1.35
857.79	0.06
857.958	-1.24
858.126	0.06
858.294	-3.03
858.462	-0.73
858.629	-1.32
858.797	-0.47
858.965	-0.7
859.133	0.62
859.301	-0.43
859.468	0.42
859.636	-0.74
859.804	1.84
859.971	-0.43
860.139	-0.84
860.307	-0.02
860.474	-0.71
860.642	-2.13
860.81	-1.2
860.977	-0.83
861.145	0.02
861.313	0.33
861.48	-1.38
861.648	0.25
861.815	-0.59
861.983	-1.8
862.15	-1.08
862.318	0.43
862.485	1.43
862.653	-0.06
862.82	-2.45
862.988	2.04
863.155	-0.61
863.322	-2.4
863.49	-0.83
863.657	-0.7
863.824	1.3
863.992	0.57
864.159	0.79
864.326	1.66
864.494	-2.22
864.661	1.72
864.828	-1.44
864.996	0.86
865.163	2.08
865.33	-1.5
865.497	-3.57
865.664	-0.37
865.832	-2.46
865.999	-1.71
866.166	-2.2
866.333	-0.84
866.5	-1.04
866.667	-1.38
866.834	-0.44
867.001	0.84
867.168	-2.7
867.335	-0.34
867.502	-1.62
867.669	-0.38
867.836	2.32
868.003	-2.05
868.17	1.36
868.337	-1.91
868.504	1.19
868.671	-2.89
868.838	-0.33
869.005	0.24
869.172	0.13
869.339	-0.56
869.505	0.53
869.672	-0.88
869.839	1.64
870.006	-1.19
870.173	-2.08
870.339	0.1
870.506	2.03
870.673	-2.29
870.84	2.33
871.006	-0.6
871.173	-0.23
871.34	0.21
871.506	-0.09
871.673	0.33
871.839	-2.87
872.006	-0.47
872.173	-0.7
872.339	0.62
872.506	1.18
872.672	-0.08
872.839	-3.86
873.005	-0.11
873.172	1.96
873.338	1.16
873.505	-0.98
873.671	0.04
873.838	1.41
874.004	-2.77
874.171	-1.99
874.337	-1.33
874.503	0.07
874.67	-0.08
874.836	-1.18
875.002	0.27
875.169	-0.15
875.335	-0.45
875.501	-1.71
875.668	0.53
875.834	-2.51
876	-0.88
876.166	-0.66
876.332	1.71
876.499	2.21
876.665	-1.75
876.831	0.46
876.997	3.67
877.163	0.24
877.329	-0.29
877.495	-0.89
877.662	0.06
877.828	0.08
877.994	-2.02
878.16	-2.58
878.326	-2.67
878.492	-2.18
878.658	-1.4
878.824	-0.24
878.99	-0.51
879.156	-2.23
879.322	1.05
879.487	-0.24
879.653	-0.65
879.819	0.57
879.985	-1.59
880.151	-0.83
880.317	-1.51
880.483	0.73
880.648	1.74
880.814	-3.82
880.98	0.57
881.146	-2.88
881.312	-3.01
881.477	-0.01
881.643	-0.48
881.809	-0.37
881.974	2.49
882.14	-3.62
882.306	-0.54
882.471	2.21
882.637	-1.55
882.803	-0.54
882.968	1.73
883.134	2.47
883.299	-1
883.465	-1.28
883.63	1.68
883.796	0.81
883.961	0.23
884.127	1.16
884.292	-2.17
884.458	-3.15
884.623	-3.15
