Data from Apollo_Calib_20240827__AbsoluteIrradiance__80__00-29-00-088.txt Node

Date: Wed Aug 28 00:29:00 BST 2024
User: biology
Spectrometer: FLMT08252
Trigger mode: 0
Integration Time (sec): 5.000000E-1
Scans to average: 5
Electric dark correction enabled: true
Nonlinearity correction enabled: false
Boxcar width: 0
XAxis mode: Wavelengths
Number of Pixels in Spectrum: 3648
>>>>>Begin Spectral Data<<<<<
179.588	-0
179.809	-0
180.03	-0
180.251	-0
180.473	-0
180.694	0
180.915	0
181.136	-0
181.357	0
181.578	-0
181.799	-0
182.02	-0
182.241	0
182.462	-0
182.683	0
182.904	-0
183.125	-0
183.346	0
183.567	0
183.788	-0
184.009	-0
184.23	0
184.451	0
184.672	-0
184.892	-0
185.113	-0
185.334	0
185.555	-0
185.776	-0
185.996	0
186.217	-0
186.438	-0
186.659	-0
186.879	0
187.1	-0
187.321	-0
187.541	-0
187.762	0
187.983	0
188.203	0
188.424	0
188.644	-0
188.865	-0
189.086	-0
189.306	-0
189.527	-0
189.747	-0
189.968	-0
190.188	0
190.409	0
190.629	0
190.849	-0
191.07	0
191.29	0
191.511	-0
191.731	-0
191.951	-0
192.172	-0
192.392	-0
192.612	-0
192.833	0
193.053	0
193.273	0
193.493	-0
193.714	-0
193.934	0
194.154	0
194.374	-0
194.594	-0
194.815	0
195.035	-0
195.255	-0
195.475	-0
195.695	0
195.915	0
196.135	-0
196.355	0
196.575	0
196.795	-0
197.015	-0
197.235	-0
197.455	-0
197.675	0
197.895	-0
198.115	-0
198.335	-0
198.555	-0
198.775	0
198.995	0
199.214	0
199.434	-0
199.654	-0
199.874	-0
200.094	0.75
200.313	-0.76
200.533	-0.26
200.753	-0.85
200.973	0.97
201.192	0.34
201.412	-0.97
201.632	-0.44
201.851	0.16
202.071	-0.92
202.291	-0.55
202.51	-0.46
202.73	0.28
202.95	-0.55
203.169	-0.63
203.389	-0.13
203.608	-0.2
203.828	-0.32
204.047	-0.32
204.267	-0.05
204.486	-0.14
204.706	0.21
204.925	-0.51
205.145	-0.51
205.364	0.26
205.583	0.56
205.803	-0.26
206.022	-0.36
206.242	-0.21
206.461	-0.17
206.68	-0.56
206.9	0.08
207.119	0.32
207.338	0.47
207.557	-0.25
207.777	-0.18
207.996	-0.09
208.215	0.17
208.434	-0.36
208.654	-0.52
208.873	0.15
209.092	0.44
209.311	-0.5
209.53	-0.15
209.749	-0.13
209.968	-0.29
210.187	-0.2
210.407	-0.69
210.626	-0.24
210.845	0.16
211.064	0.1
211.283	-0.32
211.502	0.39
211.721	-0.02
211.94	-0.12
212.159	0.19
212.377	0.22
212.596	0.16
212.815	0.03
213.034	0.09
213.253	0.21
213.472	0.11
213.691	-0.06
213.91	-0.67
214.128	-0.18
214.347	0.29
214.566	-0.42
214.785	-0.38
215.003	0.25
215.222	0.08
215.441	-0.07
215.66	-0.5
215.878	-0.01
216.097	0.1
216.316	-0.17
216.534	-0.11
216.753	0.15
216.972	-0.11
217.19	-0.19
217.409	-0.03
217.627	-0.12
217.846	-0.18
218.064	0.05
218.283	-0.36
218.501	0.17
218.72	0.15
218.938	-0.33
219.157	-0.19
219.375	0.16
219.594	0.09
219.812	-0.21
220.031	-0.2
220.249	0.4
220.467	0.17
220.686	-0.17
220.904	-0.26
221.122	-0.23
221.341	0.17
221.559	-0.25
221.777	-0.26
221.995	-0.03
222.214	0.08
222.432	-0.14
222.65	0.06
222.868	-0.09
223.086	0
223.305	0.1
223.523	-0.08
223.741	0.16
223.959	-0.03
224.177	-0.39
224.395	-0.18
224.613	0.03
224.831	0.2
225.049	-0.19
225.267	-0.1
225.485	0.03
225.703	0.03
225.921	-0.14
226.139	-0.13
226.357	0.2
226.575	-0.06
226.793	-0.03
227.011	0.59
227.229	-0.03
227.447	0.11
227.665	-0.11
227.883	-0.27
228.1	-0.02
228.318	0.03
228.536	-0.33
228.754	-0.09
228.972	-0.03
229.189	0.19
229.407	-0.15
229.625	-0.09
229.843	0.08
230.06	-0.03
230.278	-0.21
230.496	-0.07
230.713	0.1
230.931	0.02
231.149	-0.09
231.366	-0.22
231.584	-0.09
231.801	0.29
232.019	-0.06
232.236	-0.17
232.454	-0.18
232.671	0.08
232.889	0.02
233.106	-0.05
233.324	-0.09
233.541	-0.06
233.759	-0.02
233.976	-0.07
234.194	-0.02
234.411	-0.01
234.628	-0.16
234.846	-0.11
235.063	-0.08
235.28	-0.01
235.498	-0.12
235.715	-0.18
235.932	0.03
236.149	0.01
236.367	-0.23
236.584	-0.07
236.801	-0.12
237.018	-0.01
237.236	-0.03
237.453	-0.17
237.67	0.14
237.887	-0.04
238.104	-0.07
238.321	-0.21
238.538	-0.09
238.755	0.06
238.973	-0.17
239.19	-0.05
239.407	0.04
239.624	0.07
239.841	-0.23
240.058	-0.14
240.275	0.02
240.492	0.02
240.709	-0.04
240.925	-0.08
241.142	-0.01
241.359	-0.16
241.576	-0.08
241.793	-0.16
242.01	-0.09
242.227	0.06
242.444	0.03
242.66	0.04
242.877	0.01
243.094	-0.04
243.311	0.08
243.527	-0.03
243.744	0.02
243.961	0.08
244.178	-0.04
244.394	0.01
244.611	0.13
244.828	0.11
245.044	-0.13
245.261	-0.08
245.477	0.04
245.694	-0
245.911	-0.07
246.127	-0.05
246.344	0.1
246.56	-0.06
246.777	-0.05
246.993	0.01
247.21	-0
247.426	0
247.643	-0.06
247.859	-0.11
248.076	-0.08
248.292	0.11
248.508	-0.08
248.725	0.04
248.941	0.05
249.157	0.16
249.374	-0.1
249.59	-0.02
249.806	-0.05
250.023	0.09
250.239	-0.07
250.455	-0.09
250.671	0.03
250.888	0.02
251.104	-0.03
251.32	-0.06
251.536	-0.09
251.752	-0.09
251.969	0.03
252.185	-0.01
252.401	0.15
252.617	-0.1
252.833	-0.02
253.049	-0.05
253.265	-0.03
253.481	0.05
253.697	-0.02
253.913	-0.08
254.129	0.01
254.345	-0
254.561	0.01
254.777	0.04
254.993	0.03
255.209	-0.04
255.425	-0.04
255.641	-0.05
255.857	0.1
256.073	-0.05
256.288	-0.12
256.504	-0.09
256.72	0.01
256.936	0.15
257.152	-0.02
257.367	-0.05
257.583	-0.09
257.799	0.05
258.015	-0.13
258.23	-0.03
258.446	0.1
258.662	-0.01
258.877	-0.06
259.093	-0.09
259.309	0.03
259.524	-0.03
259.74	-0.09
259.955	-0.18
260.171	-0.01
260.387	0.01
260.602	0.08
260.818	0.03
261.033	-0.08
261.249	-0.13
261.464	-0.08
261.68	-0.1
261.895	0.06
262.11	0.04
262.326	-0.04
262.541	-0.08
262.757	0.09
262.972	-0.04
263.187	0.02
263.403	-0.01
263.618	-0
263.833	-0.01
264.049	-0.05
264.264	-0.04
264.479	0.02
264.694	0.1
264.91	-0.11
265.125	0
265.34	0.05
265.555	0.12
265.77	0.07
265.986	-0.12
266.201	-0.02
266.416	0.04
266.631	-0.05
266.846	-0.06
267.061	-0.01
267.276	0.08
267.491	-0.13
267.706	-0.01
267.921	0
268.136	-0.04
268.351	-0.01
268.566	-0.08
268.781	0.09
268.996	0.01
269.211	0.01
269.426	-0.08
269.641	-0.03
269.856	0.06
270.071	-0.05
270.285	-0.13
270.5	-0.01
270.715	0.04
270.93	-0.05
271.145	0.04
271.359	0.03
271.574	-0.05
271.789	0.03
272.004	-0.02
272.218	-0.07
272.433	0.06
272.648	-0.06
272.862	0.07
273.077	-0.04
273.292	-0.03
273.506	-0.07
273.721	-0.06
273.936	0.05
274.15	0.06
274.365	-0.06
274.579	0
274.794	0.04
275.008	0.02
275.223	-0.11
275.437	0
275.652	0.06
275.866	0.03
276.081	-0.04
276.295	0.02
276.509	-0.08
276.724	-0.03
276.938	0.01
277.153	0.07
277.367	0.03
277.581	-0.03
277.796	-0.03
278.01	-0.08
278.224	0.08
278.438	0.11
278.653	-0.06
278.867	-0.04
279.081	-0.16
279.295	-0
279.51	0.02
279.724	-0.1
279.938	0.01
280.152	0.02
280.366	-0.1
280.58	-0.05
280.794	0.04
281.008	0.01
281.222	0.01
281.437	0.11
281.651	-0.03
281.865	0.05
282.079	-0.01
282.293	-0.14
282.507	-0.03
282.721	-0.03
282.935	-0
283.148	-0.09
283.362	-0.03
283.576	-0.07
283.79	-0.02
284.004	-0.05
284.218	0.03
284.432	-0.05
284.646	-0.01
284.859	-0.03
285.073	-0.04
285.287	0.02
285.501	-0.03
285.714	-0.03
285.928	0.03
286.142	-0.02
286.356	-0.05
286.569	-0.06
286.783	0.08
286.997	0.05
287.21	-0.03
287.424	0.03
287.637	-0.04
287.851	-0.04
288.065	-0.03
288.278	-0.05
288.492	0.04
288.705	-0.02
288.919	0.01
289.132	-0.05
289.346	0.05
289.559	-0.06
289.773	-0.11
289.986	0.02
290.2	-0.03
290.413	0.02
290.626	-0.09
290.84	-0.01
291.053	-0.01
291.267	0.09
291.48	-0.05
291.693	0.03
291.906	0.03
292.12	-0.03
292.333	-0.04
292.546	-0.02
292.76	0.06
292.973	0.03
293.186	0.03
293.399	-0.01
293.612	0.02
293.826	0.03
294.039	-0.02
294.252	-0.06
294.465	0.06
294.678	0.01
294.891	-0.01
295.104	-0.05
295.317	0.04
295.53	-0.02
295.743	-0.05
295.956	0.02
296.169	0.09
296.382	0.01
296.595	-0
296.808	-0.06
297.021	0.08
297.234	0.05
297.447	-0.02
297.66	0.02
297.873	0.02
298.086	0.03
298.299	-0.04
298.511	-0.04
298.724	0
298.937	-0.07
299.15	-0
299.363	-0.05
299.575	0.02
299.788	0.04
300.001	-0
300.213	0.01
300.426	-0.04
300.639	-0.03
300.852	-0.03
301.064	0.03
301.277	0.04
301.489	-0.02
301.702	0.06
301.915	-0.01
302.127	0.02
302.34	0.04
302.552	0.03
302.765	-0.02
302.977	0.03
303.19	-0.05
303.402	-0.07
303.615	0
303.827	0.02
304.04	-0.03
304.252	0.01
304.464	-0
304.677	0.05
304.889	-0.03
305.102	-0.06
305.314	0.03
305.526	0.03
305.739	0.01
305.951	-0.06
306.163	0.02
306.375	0.06
306.588	-0.05
306.8	-0.03
307.012	-0.03
307.224	0.05
307.436	0.05
307.649	-0.06
307.861	-0.02
308.073	-0.02
308.285	-0.01
308.497	-0.03
308.709	-0.04
308.921	0.03
309.133	0.05
309.346	0.05
309.558	0
309.77	0.03
309.982	-0.09
310.194	0.01
310.406	-0.01
310.617	0.03
310.829	0.02
311.041	-0.01
311.253	-0.05
311.465	0.01
311.677	-0.02
311.889	-0.03
312.101	-0.05
312.313	0.05
312.524	0.03
312.736	-0.08
312.948	-0.06
313.16	0.05
313.372	-0.02
313.583	0.01
313.795	-0.03
314.007	-0.02
314.218	0.02
314.43	-0.03
314.642	-0.05
314.853	-0.09
315.065	0.05
315.277	-0.01
315.488	0.01
315.7	0.03
315.912	-0.01
316.123	-0
316.335	0.02
316.546	0.07
316.758	-0.02
316.969	-0.04
317.181	0.01
317.392	-0.04
317.604	0.02
317.815	-0.04
318.026	-0.09
318.238	0.01
318.449	0.02
318.661	-0.07
318.872	-0.06
319.083	-0.03
319.295	0.03
319.506	-0.02
319.717	0
319.929	-0.01
320.14	0.01
320.351	0.02
320.562	-0.05
320.774	0.04
320.985	0.02
321.196	-0.02
321.407	-0.08
321.618	0.01
321.829	0.03
322.041	-0.01
322.252	-0
322.463	0.02
322.674	0.03
322.885	-0.03
323.096	-0.05
323.307	-0.03
323.518	-0.03
323.729	-0.04
323.94	-0.01
324.151	-0.01
324.362	-0
324.573	-0.03
324.784	-0.11
324.995	-0
325.206	-0.03
325.417	-0
325.628	-0.04
325.838	0.02
326.049	-0.01
326.26	-0.02
326.471	-0.03
326.682	0.01
326.892	-0.01
327.103	-0.08
327.314	-0.04
327.525	0
327.735	-0.02
327.946	-0.04
328.157	-0.02
328.368	0.03
328.578	-0.04
328.789	0.01
328.999	0.01
329.21	-0.04
329.421	0.04
329.631	-0.02
329.842	-0.03
330.052	0.02
330.263	0.06
330.473	0.04
330.684	-0.01
330.894	0.03
331.105	-0.01
331.315	0.01
331.526	-0.09
331.736	0.07
331.947	0.02
332.157	-0.02
332.367	-0.03
332.578	0
332.788	0.04
332.999	0
333.209	0
333.419	-0.04
333.629	0.02
333.84	0.03
334.05	-0
334.26	0.04
334.47	-0.03
334.681	0.04
334.891	-0.03
335.101	0.05
335.311	0.09
335.521	-0.03
335.732	-0.04
335.942	0.07
336.152	0.04
336.362	0.03
336.572	0.04
336.782	0.05
336.992	-0.07
337.202	-0.02
337.412	-0.01
337.622	0.05
337.832	-0.05
338.042	-0.02
338.252	-0.05
338.462	-0.01
338.672	-0.01
338.882	-0.06
339.092	0.02
339.302	0.05
339.511	0.04
339.721	-0.02
339.931	-0.06
340.141	0.01
340.351	-0.01
340.561	-0.01
340.77	0.03
340.98	-0.01
341.19	0.01
341.4	-0.06
341.609	-0.04
341.819	0.01
342.029	-0.03
342.238	0.02
342.448	-0.05
342.658	0.05
342.867	-0.02
343.077	-0
343.286	-0.04
343.496	0
343.706	0.06
343.915	-0.03
344.125	-0
344.334	0.02
344.544	-0.09
344.753	-0.02
344.963	-0.02
345.172	-0.02
345.381	-0.03
345.591	-0.05
345.8	0.05
346.01	0.01
346.219	0.06
346.428	-0.12
346.638	-0.02
346.847	0.01
347.056	0.06
347.266	-0.07
347.475	-0.01
347.684	0.04
347.893	-0.04
348.103	0.03
348.312	-0.01
348.521	-0.01
348.73	-0
348.94	0
349.149	0.02
349.358	-0.02
349.567	-0.03
349.776	-0.06
349.985	-0.03
350.194	0.07
350.403	0.03
350.612	-0.07
350.821	-0.03
351.03	-0
351.239	-0.07
351.448	-0.02
351.657	-0.03
351.866	0.06
352.075	-0.01
352.284	0.03
352.493	-0.05
352.702	0.02
352.911	0.04
353.12	0.01
353.329	-0.02
353.538	0.03
353.746	-0.01
353.955	-0.04
354.164	0.02
354.373	-0.01
354.582	0.04
354.79	0.02
354.999	0.04
355.208	0.02
355.416	0.06
355.625	-0.02
355.834	-0.03
356.042	-0.01
356.251	-0.02
356.46	-0.07
356.668	-0.02
356.877	0.1
357.085	0.01
357.294	-0.07
357.503	0.01
357.711	-0.03
357.92	0.09
358.128	-0
358.337	-0.05
358.545	0.02
358.754	-0.01
358.962	-0.01
359.17	0
359.379	-0
359.587	0.02
359.796	0
360.004	-0.02
360.212	0.03
360.421	0.03
360.629	-0.02
360.837	-0.03
361.046	0.03
361.254	0.06
361.462	-0.02
361.67	-0.02
361.879	0.01
362.087	0.05
362.295	0.01
362.503	-0.03
362.711	-0.03
362.92	-0.03
363.128	-0.02
363.336	-0.03
363.544	-0.04
363.752	-0.02
363.96	-0.03
364.168	-0.01
364.376	-0.02
364.584	-0.03
364.792	0.06
365	0.02
365.208	0.01
365.416	0.02
365.624	0.02
365.832	-0.02
366.04	0.03
366.248	0.04
366.456	0.02
366.664	0
366.872	-0.01
367.079	-0.01
367.287	0.03
367.495	0.04
367.703	-0
367.911	-0.01
368.118	0.03
368.326	-0.02
368.534	-0.06
368.742	0.04
368.949	-0.03
369.157	0
369.365	0.04
369.572	-0
369.78	-0.03
369.988	0.08
370.195	0.06
370.403	0.08
370.61	0.01
370.818	0.07
371.026	0.05
371.233	0.03
371.441	0.04
371.648	0.02
371.856	0.06
372.063	0.09
372.271	0.03
372.478	0.02
372.685	0.02
372.893	0.12
373.1	0.07
373.308	0.07
373.515	0.18
373.722	0.15
373.93	0.14
374.137	0.15
374.344	0.2
374.552	0.17
374.759	0.17
374.966	0.13
375.173	0.18
375.381	0.21
375.588	0.15
375.795	0.11
376.002	0.12
376.209	0.17
376.417	0.19
376.624	0.2
376.831	0.25
377.038	0.24
377.245	0.21
377.452	0.24
377.659	0.28
377.866	0.24
378.073	0.35
378.28	0.32
378.487	0.38
378.694	0.39
378.901	0.35
379.108	0.37
379.315	0.42
379.522	0.51
379.729	0.52
379.936	0.48
380.143	0.5
380.35	0.54
380.557	0.5
380.763	0.59
380.97	0.61
381.177	0.61
381.384	0.66
381.591	0.62
381.797	0.61
382.004	0.68
382.211	0.7
382.418	0.65
382.624	0.65
382.831	0.65
383.038	0.63
383.244	0.59
383.451	0.61
383.658	0.63
383.864	0.61
384.071	0.54
384.277	0.59
384.484	0.55
384.69	0.57
384.897	0.52
385.103	0.47
385.31	0.4
385.516	0.4
385.723	0.41
385.929	0.39
386.136	0.38
386.342	0.41
386.549	0.36
386.755	0.36
386.961	0.33
387.168	0.25
387.374	0.33
387.58	0.29
387.787	0.26
387.993	0.28
388.199	0.23
388.406	0.21
388.612	0.2
388.818	0.21
389.024	0.2
389.231	0.23
389.437	0.26
389.643	0.24
389.849	0.18
390.055	0.15
390.261	0.17
390.467	0.22
390.674	0.13
390.88	0.13
391.086	0.18
391.292	0.12
391.498	0.17
391.704	0.15
391.91	0.14
392.116	0.09
392.322	0.03
392.528	0.13
392.734	0.14
392.94	0.13
393.146	0.09
393.352	0.1
393.557	0.07
393.763	0.07
393.969	0.1
394.175	0.06
394.381	0.11
394.587	0.04
394.792	0.1
394.998	0.08
395.204	0.14
395.41	0.07
395.615	0.06
395.821	0.09
396.027	0.08
396.233	0.03
396.438	0.1
396.644	0.14
396.85	0.07
397.055	0.05
397.261	0.09
397.466	0.16
397.672	0.01
397.878	0.1
398.083	0.1
398.289	0.04
398.494	0.05
398.7	0.04
398.905	-0.03
399.111	0.07
399.316	0.02
399.522	0.06
399.727	0.06
399.932	0.03
400.138	0.01
400.343	0.08
400.549	0.08
400.754	0.02
400.959	0.02
401.165	0.03
401.37	0.02
401.575	0.08
401.78	0.05
401.986	-0.03
402.191	0.03
402.396	-0.01
402.601	0.06
402.807	0.05
403.012	0.04
403.217	0.06
403.422	0.02
403.627	0.02
403.832	0.01
404.037	0.05
404.243	-0.01
404.448	-0.01
404.653	0.02
404.858	0.03
405.063	0.03
405.268	-0.01
405.473	-0.02
405.678	0.01
405.883	0.11
406.088	0.03
406.293	-0.02
406.498	0.01
406.703	0.05
406.907	0
407.112	-0.02
407.317	0.03
407.522	0.05
407.727	-0.06
407.932	0.05
408.136	0.13
408.341	-0
408.546	-0.02
408.751	0.01
408.956	-0
409.16	0.05
409.365	0.02
409.57	0.01
409.774	-0.02
409.979	0.05
410.184	0.03
410.388	-0.05
410.593	0.04
410.798	0.03
411.002	-0.01
411.207	0
411.411	-0.01
411.616	-0.03
411.82	0
412.025	0.04
412.229	-0.05
412.434	0.06
412.638	0.01
412.843	-0.07
413.047	0.01
413.252	0
413.456	0
413.66	0.01
413.865	-0
414.069	0.07
414.273	-0.04
414.478	-0
414.682	-0.05
414.886	-0.05
415.091	-0.06
415.295	-0.04
415.499	0.02
415.703	-0.02
415.908	0.01
416.112	-0.09
416.316	0.02
416.52	-0.03
416.724	-0.07
416.929	-0
417.133	0.11
417.337	0.01
417.541	-0.04
417.745	-0.03
417.949	0.03
418.153	0.01
418.357	-0.01
418.561	0.07
418.765	0
418.969	0.1
419.173	0.05
419.377	-0.05
419.581	0.07
419.785	-0.02
419.989	-0.05
420.193	-0.03
420.397	-0.05
420.601	0.02
420.804	0.02
421.008	-0.03
421.212	0
421.416	0.06
421.62	-0.04
421.823	-0.02
422.027	0.06
422.231	-0
422.435	0
422.638	0.06
422.842	-0.02
423.046	-0.02
423.249	0.02
423.453	0.02
423.657	0.06
423.86	0.02
424.064	-0.02
424.268	0
424.471	0.04
424.675	0.06
424.878	0.07
425.082	0.01
425.285	0.07
425.489	-0.01
425.692	0
425.896	0.01
426.099	0.05
426.303	-0.06
426.506	-0.07
426.71	-0.03
426.913	0.02
427.116	0.09
427.32	0.03
427.523	0.03
427.726	0.09
427.93	-0.03
428.133	-0
428.336	-0.04
428.54	-0.06
428.743	0.02
428.946	0.07
429.149	-0.06
429.353	0.04
429.556	0.01
429.759	0.05
429.962	-0.03
430.165	-0.02
430.368	0
430.571	-0.04
430.775	0.02
430.978	-0
431.181	0.04
431.384	0.05
431.587	-0.04
431.79	0.01
431.993	0.04
432.196	0.02
432.399	0.01
432.602	0.1
432.805	0
433.008	-0.02
433.211	-0.01
433.414	0.04
433.616	0.04
433.819	-0.01
434.022	-0.11
434.225	0.06
434.428	0
434.631	0.1
434.833	0.03
435.036	-0.02
435.239	0.03
435.442	0.05
435.645	-0.02
435.847	0
436.05	0.06
436.253	-0.01
436.455	-0.04
436.658	-0.01
436.861	0.05
437.063	-0.02
437.266	0.04
437.468	0.02
437.671	0.16
437.874	0
438.076	-0.06
438.279	-0.05
438.481	-0.03
438.684	-0.05
438.886	0.05
439.089	-0.03
439.291	0.06
439.494	0.07
439.696	-0.01
439.899	0.06
440.101	0.04
440.303	-0.06
440.506	0.08
440.708	0.02
440.91	0.06
441.113	-0.08
441.315	0.04
441.517	-0
441.72	0.06
441.922	-0.01
442.124	-0.08
442.326	0.03
442.529	0.09
442.731	0.03
442.933	0.13
443.135	-0.01
443.337	0.02
443.539	0.01
443.742	0.02
443.944	0.05
444.146	0.01
444.348	0.02
444.55	0.01
444.752	0
444.954	-0.03
445.156	0.04
445.358	0.07
445.56	0.07
445.762	0.06
445.964	0.06
446.166	0.05
446.368	0.02
446.57	0.12
446.772	0.06
446.974	0.04
447.175	0.07
447.377	0.04
447.579	0.04
447.781	0.03
447.983	0.17
448.184	0.07
448.386	0.08
448.588	-0.04
448.79	0.05
448.991	-0
449.193	0.01
449.395	0.05
449.597	0.07
449.798	0.1
450	0.05
450.202	0.06
450.403	0.03
450.605	0.11
450.806	0.03
451.008	-0.01
451.21	0.04
451.411	0.04
451.613	0.02
451.814	0.07
452.016	0.1
452.217	0.04
452.419	0.14
452.62	0.03
452.821	0.1
453.023	0.12
453.224	0.1
453.426	0.03
453.627	0.07
453.828	0.09
454.03	0.04
454.231	0.09
454.432	-0.01
454.634	0.11
454.835	0.04
455.036	-0.02
455.238	0.05
455.439	0.13
455.64	-0.03
455.841	0.01
456.042	0.12
456.244	0.11
456.445	-0.02
456.646	-0.03
456.847	-0.01
457.048	0.08
457.249	0.12
457.45	0.23
457.651	-0.02
457.852	0.08
458.054	0.07
458.255	-0.01
458.456	0.03
458.657	0.04
458.858	-0.07
459.058	0.03
459.259	0.08
459.46	-0.03
459.661	0
459.862	0.13
460.063	0
460.264	0.1
460.465	-0.03
460.666	0.1
460.866	0.04
461.067	0.06
461.268	-0.01
461.469	0.02
461.67	-0.01
461.87	0
462.071	-0
462.272	-0.06
462.473	0.01
462.673	0.08
462.874	-0.03
463.075	-0
463.275	-0.05
463.476	-0.02
463.676	0.05
463.877	0.02
464.078	0
464.278	0.04
464.479	0.01
464.679	-0
464.88	0
465.08	0.07
465.281	0
465.481	-0.05
465.682	-0.01
465.882	0.04
466.083	0
466.283	0.02
466.483	-0
466.684	-0
466.884	-0.05
467.085	-0.04
467.285	0.04
467.485	-0.04
467.686	0
467.886	-0.02
468.086	-0.01
468.286	-0
468.487	0.01
468.687	-0.02
468.887	0.01
469.087	-0.01
469.287	0.01
469.488	-0.06
469.688	0.01
469.888	0.08
470.088	0.04
470.288	0.04
470.488	0.04
470.688	-0.04
470.888	0.01
471.088	-0.04
471.288	0.01
471.488	0.05
471.688	0.03
471.888	0.02
472.088	0.06
472.288	0.06
472.488	-0.03
472.688	0
472.888	0
473.088	0.02
473.288	-0.02
473.488	-0.03
473.688	0.05
473.887	0.01
474.087	0.01
474.287	-0
474.487	-0.03
474.687	-0.02
474.886	0.01
475.086	-0.02
475.286	0.01
475.486	0.04
475.685	-0.01
475.885	-0.01
476.085	-0.02
476.284	0.05
476.484	-0.02
476.684	0.01
476.883	0.03
477.083	0.04
477.282	-0.02
477.482	0.04
477.681	0.04
477.881	0.02
478.08	-0.04
478.28	-0.03
478.479	-0
478.679	0.06
478.878	0.01
479.078	-0.03
479.277	0.01
479.477	0.02
479.676	0.05
479.875	0.02
480.075	-0.04
480.274	0.04
480.473	0.02
480.673	-0.03
480.872	0
481.071	-0.01
481.271	0.03
481.47	-0.01
481.669	-0.01
481.868	-0.02
482.067	-0.02
482.267	-0.02
482.466	-0.03
482.665	-0.03
482.864	-0.07
483.063	-0.06
483.262	0
483.461	0.04
483.661	-0.01
483.86	-0.01
484.059	0.01
484.258	-0.01
484.457	-0.01
484.656	-0.02
484.855	0.04
485.054	-0.06
485.253	-0.03
485.452	-0.03
485.651	0.01
485.849	0.02
486.048	-0.01
486.247	-0.04
486.446	0.03
486.645	-0.04
486.844	-0.05
487.043	-0.04
487.241	0
487.44	-0.02
487.639	-0.02
487.838	0.03
488.037	0.01
488.235	0.07
488.434	-0.01
488.633	-0.02
488.831	0.01
489.03	0.04
489.229	0.01
489.427	-0.03
489.626	0.03
489.825	0.05
490.023	0.01
490.222	-0.02
490.42	0
490.619	0.02
490.817	0.02
491.016	-0.01
491.214	0.02
491.413	0.01
491.611	0
491.81	-0
492.008	0.01
492.207	0.01
492.405	0
492.604	-0.03
492.802	-0.01
493	0.01
493.199	-0.03
493.397	-0.01
493.595	-0.01
493.794	-0.04
493.992	0.04
494.19	0.01
494.388	0
494.587	-0.03
494.785	0.01
494.983	-0.02
495.181	-0.02
495.379	-0
495.578	-0.02
495.776	0.01
495.974	0.02
496.172	-0.01
496.37	-0.02
496.568	-0.03
496.766	-0.01
496.964	0.03
497.162	0.01
497.36	-0.02
497.558	0.03
497.756	0.02
497.954	-0
498.152	-0.02
498.35	0.01
498.548	-0.02
498.746	-0.01
498.944	-0.02
499.142	-0.01
499.34	-0.02
499.538	-0
499.736	-0.03
499.933	0.01
500.131	0.04
500.329	-0.01
500.527	0.03
500.725	0.01
500.922	-0.01
501.12	0
501.318	0.03
501.516	-0.03
501.713	0
501.911	-0.01
502.109	-0.03
502.306	-0
502.504	-0.01
502.701	0
502.899	-0.04
503.097	0.03
503.294	-0.02
503.492	-0.01
503.689	0
503.887	0.02
504.084	0.03
504.282	0.02
504.479	-0.03
504.677	-0.01
504.874	-0.01
505.072	-0
505.269	0
505.466	0.01
505.664	0.01
505.861	-0.04
506.059	-0.02
506.256	-0
506.453	-0.03
506.651	0.04
506.848	-0
507.045	0.02
507.242	0.01
507.44	-0.02
507.637	-0.01
507.834	-0.01
508.031	0.02
508.229	-0.02
508.426	-0.02
508.623	0.03
508.82	-0.03
509.017	-0.02
509.214	-0
509.411	-0
509.608	-0.01
509.805	-0.02
510.003	-0.02
510.2	-0.03
510.397	0.01
510.594	-0.03
510.791	-0.05
510.988	-0.02
511.184	0.04
511.381	-0.01
511.578	-0.03
511.775	0.01
511.972	-0.03
512.169	-0.01
512.366	0.01
512.563	0.01
512.76	-0.02
512.956	0.01
513.153	-0.02
513.35	-0.01
513.547	-0.02
513.744	-0.03
513.94	-0.02
514.137	0.02
514.334	-0.01
514.53	-0
514.727	-0.01
514.924	0.03
515.12	-0.03
515.317	-0.03
515.514	-0.02
515.71	-0.01
515.907	-0.01
516.103	0.01
516.3	0.01
516.497	0.02
516.693	0.02
516.89	0.01
517.086	-0.03
517.283	0.02
517.479	0
517.676	-0.01
517.872	-0
518.068	-0.03
518.265	-0.01
518.461	-0.02
518.658	-0.03
518.854	-0
519.05	-0.01
519.247	-0.02
519.443	-0
519.639	0.01
519.836	0.01
520.032	-0.01
520.228	-0
520.424	0.04
520.621	0.01
520.817	-0.01
521.013	0.01
521.209	0
521.405	0.05
521.601	-0.01
521.798	0
521.994	0.04
522.19	-0.04
522.386	-0.03
522.582	-0
522.778	-0
522.974	-0
523.17	0.01
523.366	0.03
523.562	0.01
523.758	-0.02
523.954	-0.03
524.15	-0
524.346	0
524.542	-0
524.738	-0.03
524.934	0
525.129	-0.01
525.325	0
525.521	-0.02
525.717	0.01
525.913	-0.02
526.109	-0.01
526.304	0.01
526.5	0.01
526.696	0.02
526.892	-0
527.087	-0.01
527.283	-0.04
527.479	-0
527.674	-0.04
527.87	-0.01
528.066	-0.02
528.261	0.03
528.457	0.02
528.653	-0
528.848	0
529.044	0.02
529.239	-0.02
529.435	0.02
529.63	0
529.826	0.01
530.021	0.01
530.217	0.03
530.412	-0
530.608	-0.02
530.803	0.01
530.999	0
531.194	-0.05
531.389	-0.01
531.585	-0.04
531.78	-0.01
531.975	-0.02
532.171	0.02
532.366	-0.01
532.561	-0.01
532.757	-0.02
532.952	-0.02
533.147	-0
533.342	0
533.538	-0.02
533.733	0.02
533.928	-0
534.123	-0.02
534.318	-0.02
534.513	-0.01
534.709	0
534.904	-0.01
535.099	-0.01
535.294	-0
535.489	0.01
535.684	-0.01
535.879	-0.05
536.074	0.01
536.269	-0.02
536.464	0.01
536.659	-0.01
536.854	-0.03
537.049	0.02
537.244	-0.02
537.439	-0.02
537.634	0.02
537.828	0.01
538.023	-0
538.218	-0.05
538.413	-0.03
538.608	-0.03
538.803	0.01
538.997	-0.04
539.192	0.01
539.387	0.02
539.582	0
539.776	-0.02
539.971	-0.01
540.166	-0.01
540.36	-0.04
540.555	-0.01
540.75	-0.03
540.944	-0.02
541.139	-0.05
541.334	-0.03
541.528	0.02
541.723	0.01
541.917	-0.03
542.112	-0.04
542.306	-0
542.501	-0.02
542.695	-0
542.89	-0.01
543.084	0
543.279	-0
543.473	-0.01
543.668	-0.02
543.862	-0.03
544.056	-0
544.251	-0.01
544.445	0.02
544.64	-0.01
544.834	-0.03
545.028	-0.02
545.222	0.02
545.417	0.02
545.611	-0.01
545.805	0.01
546	-0.01
546.194	-0.01
546.388	-0.01
546.582	0.02
546.776	0
546.97	-0.02
547.165	0
547.359	0.02
547.553	-0.03
547.747	0
547.941	-0.03
548.135	0
548.329	0.01
548.523	0
548.717	-0.02
548.911	0
549.105	-0.01
549.299	0.01
549.493	0.01
549.687	0.01
549.881	0.03
550.075	-0
550.269	-0.02
550.463	0.01
550.657	-0
550.85	-0
551.044	-0.02
551.238	-0
551.432	-0.03
551.626	-0.05
551.82	0.01
552.013	-0.03
552.207	-0.01
552.401	0
552.594	0.01
552.788	-0.03
552.982	-0.01
553.176	-0.03
553.369	0
553.563	0.01
553.756	-0.06
553.95	-0.03
554.144	0.01
554.337	0
554.531	0
554.724	-0.01
554.918	-0.02
555.111	0
555.305	0.02
555.498	0.04
555.692	0.01
555.885	-0.02
556.079	-0.01
556.272	-0
556.466	0.03
556.659	0
556.852	-0.02
557.046	-0.01
557.239	0.03
557.432	-0.03
557.626	-0.01
557.819	0
558.012	0.03
558.206	0
558.399	-0.01
558.592	-0.01
558.785	-0.05
558.979	0.02
559.172	0
559.365	0.03
559.558	0.01
559.751	-0.03
559.944	-0.02
560.138	-0.01
560.331	-0
560.524	-0
560.717	-0
560.91	-0.01
561.103	-0
561.296	0.02
561.489	0.01
561.682	0.01
561.875	0.01
562.068	-0
562.261	0.02
562.454	0.04
562.647	0.01
562.84	0.01
563.032	-0
563.225	0
563.418	-0
563.611	-0.02
563.804	-0.01
563.997	-0.03
564.19	-0.02
564.382	0.02
564.575	-0.02
564.768	0.01
564.961	-0.03
565.153	-0.04
565.346	0.02
565.539	0
565.731	0.01
565.924	0.04
566.117	0.01
566.309	0
566.502	-0.02
566.695	-0
566.887	0.01
567.08	-0.03
567.272	-0.01
567.465	-0.01
567.657	0.01
567.85	-0
568.042	0.01
568.235	0.02
568.427	0
568.62	0.01
568.812	0.04
569.005	-0
569.197	-0.04
569.389	0.03
569.582	0.01
569.774	0.01
569.966	-0
570.159	-0.03
570.351	-0
570.543	-0.02
570.736	-0.02
570.928	-0.02
571.12	0.01
571.312	-0.02
571.505	-0.04
571.697	0.05
571.889	-0.02
572.081	0
572.273	-0.03
572.465	0.02
572.658	-0.04
572.85	0
573.042	-0.03
573.234	-0
573.426	0.01
573.618	-0.04
573.81	0.01
574.002	0.04
574.194	-0
574.386	-0.06
574.578	-0.08
574.77	-0.02
574.962	-0
575.154	-0.03
575.346	-0.01
575.538	-0.01
575.729	-0.02
575.921	0
576.113	-0.03
576.305	0.01
576.497	-0.01
576.689	-0.03
576.88	-0.02
577.072	0.01
577.264	-0.02
577.456	-0.01
577.647	-0.05
577.839	-0
578.031	0.02
578.223	-0.03
578.414	-0.07
578.606	0.01
578.798	-0.01
578.989	-0.01
579.181	-0.01
579.372	-0.01
579.564	-0.01
579.755	0
579.947	-0.03
580.139	0.01
580.33	-0.06
580.522	-0.01
580.713	-0.07
580.905	-0.01
581.096	0.03
581.287	0
581.479	-0.03
581.67	0.02
581.862	0
582.053	-0
582.244	-0.03
582.436	-0.01
582.627	0.01
582.818	-0.03
583.01	-0.06
583.201	0.01
583.392	-0
583.583	0.01
583.775	-0.03
583.966	-0.01
584.157	-0.03
584.348	-0.03
584.54	-0.04
584.731	0
584.922	-0.03
585.113	-0.02
585.304	0.04
585.495	0.03
585.686	0
585.877	0.01
586.068	0.01
586.259	-0
586.45	-0
586.641	-0.03
586.832	-0.08
587.023	-0
587.214	-0.01
587.405	0
587.596	-0.05
587.787	0.04
587.978	-0.01
588.169	-0.05
588.36	-0.02
588.551	0.02
588.742	-0.03
588.932	-0.02
589.123	-0.01
589.314	0.01
589.505	0
589.696	0.01
589.886	-0.02
590.077	-0.05
590.268	0
590.458	-0.05
590.649	-0.05
590.84	0.04
591.03	-0.04
591.221	-0.06
591.412	-0.05
591.602	0
591.793	0.02
591.984	-0.04
592.174	0.01
592.365	0.04
592.555	-0.02
592.746	-0.01
592.936	0.01
593.127	0.01
593.317	0.05
593.508	-0.03
593.698	-0.01
593.889	-0.01
594.079	-0.03
594.269	-0.04
594.46	-0.02
594.65	-0.02
594.84	0.01
595.031	-0.03
595.221	-0.04
595.411	-0.04
595.602	0.01
595.792	0.01
595.982	-0.03
596.172	0.05
596.363	0
596.553	0.01
596.743	-0.02
596.933	0
597.123	0.05
597.314	-0.05
597.504	-0.02
597.694	0.02
597.884	0.02
598.074	-0.02
598.264	-0.03
598.454	-0.01
598.644	0
598.834	-0
599.024	-0.06
599.214	-0.02
599.404	0.01
599.594	-0.04
599.784	-0.03
599.974	0.01
600.164	0.04
600.354	-0.03
600.544	-0.05
600.734	0
600.924	0.06
601.114	-0.02
601.303	-0.01
601.493	0
601.683	-0.01
601.873	0.02
602.063	-0.05
602.252	0.02
602.442	-0.08
602.632	-0.04
602.821	-0.05
603.011	0.03
603.201	-0.03
603.39	-0.03
603.58	-0.04
603.77	0.02
603.959	0.04
604.149	-0
604.339	-0.02
604.528	0.03
604.718	-0.01
604.907	-0.03
605.097	-0.01
605.286	-0
605.476	0
605.665	0.02
605.855	-0.04
606.044	0.02
606.234	0.01
606.423	-0
606.612	-0.05
606.802	0.01
606.991	-0.01
607.181	-0.01
607.37	-0.05
607.559	-0.01
607.749	-0.06
607.938	0
608.127	-0.03
608.316	-0.06
608.506	-0
608.695	-0.02
608.884	-0.05
609.073	0
609.263	-0.01
609.452	-0
609.641	0.01
609.83	-0.04
610.019	-0.01
610.208	-0.02
610.397	-0
610.586	0.01
610.775	-0.02
610.965	-0.01
611.154	-0.02
611.343	0.01
611.532	-0.04
611.721	-0.04
611.91	-0.01
612.099	-0.01
612.287	0.01
612.476	-0
612.665	0.01
612.854	-0.01
613.043	0.02
613.232	-0.02
613.421	-0.04
613.61	-0
613.798	-0.03
613.987	0.04
614.176	-0.03
614.365	0.01
614.554	-0.02
614.742	0.01
614.931	-0.04
615.12	0.03
615.309	-0.01
615.497	-0
615.686	-0.05
615.875	-0.03
616.063	0.01
616.252	0
616.44	-0.02
616.629	0
616.818	0.05
617.006	0
617.195	-0.02
617.383	0.01
617.572	-0.02
617.76	-0.01
617.949	-0.03
618.137	0.05
618.326	-0.03
618.514	-0.03
618.703	-0.02
618.891	0.04
619.079	-0.07
619.268	0.02
619.456	-0.04
619.644	0.02
619.833	-0.01
620.021	-0.04
620.209	-0.02
620.398	0
620.586	-0
620.774	-0.02
620.962	-0
621.151	0.02
621.339	-0.01
621.527	-0.04
621.715	-0.06
621.903	-0.04
622.092	-0.02
622.28	0
622.468	-0
622.656	-0.03
622.844	-0.01
623.032	-0.03
623.22	-0.05
623.408	-0
623.596	0.02
623.784	0.01
623.972	-0.04
624.16	-0.01
624.348	0.04
624.536	-0.05
624.724	-0
624.912	0.04
625.1	0.03
625.288	-0.01
625.476	-0.01
625.664	0.03
625.851	-0.03
626.039	-0.01
626.227	0
626.415	-0.03
626.603	-0.06
626.79	0.02
626.978	-0.02
627.166	0.02
627.354	0
627.541	-0.05
627.729	-0.08
627.917	0.03
628.104	0.04
628.292	-0.03
628.48	-0.02
628.667	0.01
628.855	-0.01
629.042	0.05
629.23	-0.01
629.418	0.03
629.605	-0.03
629.793	-0.03
629.98	-0.02
630.168	-0.01
630.355	-0.02
630.543	0
630.73	-0.02
630.917	0.04
631.105	0.07
631.292	-0
631.48	-0.03
631.667	0.09
631.854	0.02
632.042	0.03
632.229	-0.07
632.416	-0.01
632.604	0
632.791	-0.04
632.978	0.05
633.165	0.04
633.353	0.07
633.54	0.04
633.727	-0.05
633.914	-0
634.101	-0.06
634.289	0.07
634.476	-0.04
634.663	-0.04
634.85	0.03
635.037	-0.05
635.224	-0.05
635.411	0.02
635.598	0.01
635.785	-0
635.972	-0.04
636.159	0.05
636.346	-0.01
636.533	0
636.72	0.02
636.907	0.02
637.094	0.03
637.281	-0.01
637.468	0.05
637.655	0.02
637.842	0
638.029	-0.02
638.215	0.03
638.402	-0.03
638.589	-0.02
638.776	-0.02
638.963	-0.02
639.149	0.03
639.336	0.06
639.523	0.02
639.709	-0
639.896	0.03
640.083	0.09
640.27	0.01
640.456	0.02
640.643	0.02
640.829	-0.02
641.016	-0.05
641.203	-0.05
641.389	-0
641.576	0.04
641.762	0.02
641.949	-0.01
642.135	0.03
642.322	0.04
642.508	-0.06
642.695	0.02
642.881	-0.01
643.068	-0
643.254	0
643.441	0.01
643.627	0.02
643.813	0.01
644	0.08
644.186	0.02
644.372	0.06
644.559	0.03
644.745	0.06
644.931	-0
645.118	-0.01
645.304	0.01
645.49	-0
645.676	0.02
645.862	0.04
646.049	0.07
646.235	0.02
646.421	0.1
646.607	0.08
646.793	0.03
646.979	-0.02
647.165	0.04
647.352	0.03
647.538	0.06
647.724	0.03
647.91	0.03
648.096	0.05
648.282	0.07
648.468	0.04
648.654	0.07
648.84	0.03
649.026	0.05
649.212	0.04
649.397	0
649.583	-0.02
649.769	0.07
649.955	0.04
650.141	0.04
650.327	0.06
650.513	0.03
650.698	0.08
650.884	-0.02
651.07	0.08
651.256	0.08
651.442	0.06
651.627	0.05
651.813	0.07
651.999	0.06
652.184	0.05
652.37	0.06
652.556	0.05
652.741	0.13
652.927	0.01
653.113	0.02
653.298	0.04
653.484	0.08
653.669	-0.03
653.855	0.1
654.04	0.09
654.226	0.1
654.412	0.06
654.597	0.04
654.782	0.07
654.968	0.06
655.153	0.08
655.339	0.07
655.524	0.08
655.71	0.08
655.895	0.07
656.08	0.05
656.266	0.09
656.451	0.06
656.636	0.04
656.822	0.07
657.007	0.06
657.192	0.06
657.378	0.04
657.563	0.1
657.748	0.12
657.933	0.13
658.118	0.07
658.304	0.08
658.489	0.13
658.674	0.11
658.859	0.08
659.044	0.1
659.229	0.11
659.414	0.09
659.599	0.1
659.785	0.01
659.97	0.08
660.155	0.17
660.34	0.11
660.525	0.09
660.71	0.07
660.895	0.09
661.08	0.06
661.264	0.08
661.449	0.15
661.634	0.19
661.819	0.11
662.004	0.09
662.189	0.02
662.374	0.07
662.559	0.02
662.743	0.03
662.928	0.06
663.113	0.04
663.298	0.02
663.483	0.05
663.667	0.1
663.852	0.05
664.037	0.1
664.221	0.03
664.406	0.09
664.591	0.09
664.775	0.07
664.96	0.08
665.145	0.05
665.329	0.07
665.514	-0
665.698	0.06
665.883	-0
666.068	0.1
666.252	0.04
666.437	-0.01
666.621	0.01
666.806	0.03
666.99	0.02
667.174	-0.01
667.359	0.06
667.543	0.05
667.728	0.03
667.912	-0.05
668.096	0.06
668.281	0.01
668.465	0
668.649	0.01
668.834	-0.01
669.018	-0.02
669.202	0.02
669.387	-0.03
669.571	0.05
669.755	-0.01
669.939	-0.02
670.124	0.01
670.308	0.07
670.492	-0
670.676	0.02
670.86	0.03
671.044	-0.04
671.228	0.03
671.413	-0.04
671.597	-0.02
671.781	-0.02
671.965	-0.01
672.149	-0.01
672.333	-0.01
672.517	-0.01
672.701	0.03
672.885	-0.01
673.069	-0.06
673.253	0.04
673.437	-0.02
673.621	-0.03
673.804	-0
673.988	-0.01
674.172	0.01
674.356	-0.08
674.54	-0.03
674.724	0.11
674.908	-0.02
675.091	0.04
675.275	-0.01
675.459	0.04
675.643	0.08
675.826	0.03
676.01	-0.02
676.194	0
676.377	0.04
676.561	0.03
676.745	0.02
676.928	0.01
677.112	0.08
677.296	-0.03
677.479	-0.04
677.663	-0.07
677.846	0.05
678.03	-0.04
678.213	-0.02
678.397	0.03
678.58	-0.02
678.764	-0.03
678.947	-0.04
679.131	-0.06
679.314	0.04
679.498	-0.01
679.681	0
679.865	0.06
680.048	0.02
680.231	-0.03
680.415	0.02
680.598	-0.04
680.781	-0.01
680.965	-0.02
681.148	0.03
681.331	-0.05
681.514	0.05
681.698	-0.02
681.881	-0
682.064	0.01
682.247	-0.03
682.43	-0.05
682.614	0.03
682.797	-0.03
682.98	0.04
683.163	-0.06
683.346	0.03
683.529	-0.05
683.712	-0.06
683.895	0
684.078	-0.05
684.261	-0.04
684.444	-0.01
684.627	-0.02
684.81	-0.06
684.993	-0.02
685.176	0.02
685.359	-0.07
685.542	-0
685.725	0.06
685.908	0.01
686.091	-0.05
686.274	0.03
686.457	0.01
686.639	-0.02
686.822	-0.04
687.005	0.01
687.188	-0
687.371	0.08
687.553	0.02
687.736	-0.05
687.919	0.07
688.102	0.03
688.284	-0.02
688.467	0.02
688.65	-0.08
688.832	-0.04
689.015	0
689.197	-0.04
689.38	0.12
689.563	0.02
689.745	-0.05
689.928	-0.05
690.11	-0.05
690.293	-0.01
690.475	-0.08
690.658	-0.01
690.84	-0.02
691.023	-0.06
691.205	-0.05
691.388	0.01
691.57	0.04
691.752	0.03
691.935	-0.06
692.117	-0.06
692.3	0.03
692.482	-0.04
692.664	0.02
692.847	0.02
693.029	0.04
693.211	0
693.393	-0.03
693.576	-0.03
693.758	-0.03
693.94	-0.04
694.122	-0.02
694.304	0.03
694.487	-0.03
694.669	0.06
694.851	-0.06
695.033	0.02
695.215	-0.05
695.397	-0.08
695.579	0.03
695.761	-0.05
695.943	-0.11
696.125	0.07
696.308	-0.03
696.49	-0.06
696.671	0.12
696.853	-0.04
697.035	0.02
697.217	-0
697.399	-0.01
697.581	-0.03
697.763	-0.05
697.945	-0.03
698.127	-0.03
698.309	0.05
698.491	0.01
698.672	-0.02
698.854	0
699.036	0.02
699.218	-0.04
699.399	0.03
699.581	0.03
699.763	0.01
699.945	-0.08
700.126	-0.05
700.308	0
700.49	-0.02
700.671	-0.08
700.853	-0.06
701.035	0.03
701.216	-0
701.398	-0.06
701.579	-0.03
701.761	0.04
701.943	-0.02
702.124	-0.04
702.306	0.04
702.487	0.06
702.669	-0.01
702.85	-0.02
703.031	-0.06
703.213	0.05
703.394	0.02
703.576	-0.03
703.757	0.04
703.938	0.01
704.12	0.12
704.301	-0.06
704.483	-0.04
704.664	0.06
704.845	0.1
705.026	0.04
705.208	-0.03
705.389	-0.02
705.57	-0.03
705.751	0.01
705.933	-0.01
706.114	0.12
706.295	-0.01
706.476	-0.05
706.657	0.04
706.838	0.04
707.02	0.06
707.201	-0.05
707.382	-0.07
707.563	0.03
707.744	-0.05
707.925	-0.03
708.106	-0.01
708.287	-0.01
708.468	0.04
708.649	0.01
708.83	0.01
709.011	-0.04
709.192	0.1
709.373	-0.01
709.554	-0.03
709.734	0.01
709.915	0.03
710.096	-0
710.277	-0.07
710.458	-0
710.639	0.06
710.819	-0.1
711	-0.01
711.181	0.04
711.362	0.07
711.542	0.03
711.723	-0.02
711.904	0.02
712.085	0.06
712.265	-0.03
712.446	-0.04
712.627	-0.06
712.807	-0
712.988	-0.02
713.168	-0.13
713.349	0.11
713.53	-0.12
713.71	-0.08
713.891	-0.07
714.071	-0.03
714.252	-0.02
714.432	-0.01
714.613	-0.09
714.793	0.04
714.974	0.06
715.154	0.05
715.334	0.05
715.515	0.04
715.695	-0.04
715.876	0.01
716.056	-0
716.236	-0.02
716.417	0.03
716.597	-0.05
716.777	0.13
716.957	0.02
717.138	0.01
717.318	0.04
717.498	-0.06
717.678	-0
717.859	0
718.039	-0.03
718.219	0.07
718.399	0.12
718.579	-0.08
718.759	-0.07
718.939	0.03
719.12	0.02
719.3	-0
719.48	-0.05
719.66	-0.13
719.84	0.1
720.02	-0.02
720.2	-0.06
720.38	0.04
720.56	0.13
720.74	-0.01
720.92	0.03
721.1	0.14
721.279	0.08
721.459	0.02
721.639	-0.05
721.819	0.03
721.999	0.01
722.179	0.01
722.359	-0.11
722.538	0.03
722.718	-0.03
722.898	0.03
723.078	-0
723.257	0.05
723.437	0.09
723.617	0.04
723.797	0.05
723.976	0.05
724.156	0.04
724.336	0.08
724.515	0.2
724.695	-0.11
724.874	0.03
725.054	0.1
725.234	-0.06
725.413	0.1
725.593	0.02
725.772	-0
725.952	0.02
726.131	0.06
726.311	0.01
726.49	0.05
726.67	0.01
726.849	-0.03
727.028	0.05
727.208	-0.01
727.387	0.05
727.567	-0.08
727.746	0.05
727.925	-0.07
728.105	-0.01
728.284	0.05
728.463	-0.03
728.643	0.09
728.822	-0.04
729.001	-0.02
729.18	0.05
729.359	0.04
729.539	0.06
729.718	0.01
729.897	0.09
730.076	0.05
730.255	-0.06
730.434	0.1
730.614	0.13
730.793	0.17
730.972	0.04
731.151	0.03
731.33	0.2
731.509	0.11
731.688	0.07
731.867	0.07
732.046	-0.05
732.225	0.21
732.404	-0.04
732.583	-0.01
732.762	0.12
732.941	0.09
733.12	0.11
733.298	-0.06
733.477	0.08
733.656	0.04
733.835	-0.03
734.014	0.18
734.193	0.05
734.371	0.11
734.55	0.1
734.729	-0.05
734.908	0.07
735.086	0.16
735.265	0.11
735.444	-0.02
735.623	-0.02
735.801	-0.05
735.98	0.08
736.159	0.03
736.337	0.12
736.516	0.11
736.694	0.16
736.873	0.12
737.052	0.2
737.23	0.21
737.409	0.08
737.587	0.22
737.766	-0.1
737.944	0.2
738.123	0.11
738.301	0.19
738.479	0.07
738.658	0.17
738.836	-0.09
739.015	0.11
739.193	0.08
739.371	0.01
739.55	0.01
739.728	-0.13
739.906	0.22
740.085	0.24
740.263	0.17
740.441	-0.11
740.62	0.31
740.798	0.13
740.976	-0.02
741.154	-0.09
741.332	0.15
741.511	0.09
741.689	0.19
741.867	0.08
742.045	0.13
742.223	0.1
742.401	-0.06
742.579	-0.07
742.757	0.02
742.935	-0.07
743.114	0.08
743.292	0.02
743.47	0.05
743.648	0.12
743.826	-0.12
744.004	0.12
744.181	0.19
744.359	0.09
744.537	0.11
744.715	-0.01
744.893	-0.01
745.071	0.05
745.249	-0.1
745.427	0.07
745.605	0.08
745.782	-0.03
745.96	0.03
746.138	0.02
746.316	0.07
746.493	0.03
746.671	0.05
746.849	-0.04
747.027	0.13
747.204	0.01
747.382	0.02
747.56	-0.15
747.737	0.06
747.915	-0.02
748.093	0.08
748.27	-0.05
748.448	-0.05
748.625	-0.09
748.803	-0.14
748.98	-0.04
749.158	0.12
749.335	0.13
749.513	-0.03
749.69	-0.02
749.868	0.08
750.045	-0
750.223	-0.06
750.4	-0.2
750.578	0.21
750.755	-0.03
750.932	-0.14
751.11	0.16
751.287	-0.09
751.464	0.09
751.642	-0.07
751.819	0.03
751.996	0.02
752.173	-0.06
752.351	-0.16
752.528	0.01
752.705	-0.05
752.882	-0.06
753.06	-0.03
753.237	0.09
753.414	0.02
753.591	0.06
753.768	-0.08
753.945	-0.04
754.122	-0.04
754.299	0.04
754.476	-0.11
754.654	-0.07
754.831	0.11
755.008	-0
755.185	-0.11
755.362	-0.07
755.539	0.02
755.716	-0.12
755.892	-0.05
756.069	-0.02
756.246	0.06
756.423	0.04
756.6	0.09
756.777	-0.11
756.954	0.19
757.131	-0.04
757.307	-0.04
757.484	-0.1
757.661	0.05
757.838	0.06
758.015	-0.06
758.191	0.04
758.368	-0.08
758.545	0.15
758.721	0.11
758.898	-0.12
759.075	0.01
759.251	0.1
759.428	0.02
759.605	-0.18
759.781	-0.03
759.958	0.02
760.134	-0.01
760.311	0
760.488	0.16
760.664	0.04
760.841	-0.07
761.017	-0.17
761.194	0.02
761.37	0.02
761.547	-0.01
761.723	-0.13
761.899	0.06
762.076	0.01
762.252	-0.19
762.429	-0.06
762.605	0.14
762.781	-0.06
762.958	0.09
763.134	-0.06
763.31	-0.09
763.486	0.02
763.663	-0.17
763.839	0.06
764.015	-0.24
764.191	0.02
764.368	0.01
764.544	-0.02
764.72	-0.02
764.896	0.09
765.072	0.02
765.248	0.02
765.425	-0.25
765.601	0.02
765.777	-0.04
765.953	-0.17
766.129	0.02
766.305	-0.19
766.481	0.04
766.657	-0.09
766.833	0.19
767.009	-0.06
767.185	-0.12
767.361	0.01
767.537	-0.22
767.713	0.16
767.889	-0.07
768.065	0.03
768.24	-0.08
768.416	0.04
768.592	-0.06
768.768	-0.04
768.944	-0.02
769.12	-0.2
769.295	-0.15
769.471	-0.1
769.647	-0.02
769.823	0.09
769.998	-0.19
770.174	-0.12
770.35	0.26
770.525	0.18
770.701	0.03
770.877	-0.05
771.052	-0.31
771.228	0.04
771.403	0.07
771.579	0.22
771.755	0.24
771.93	-0.16
772.106	-0.02
772.281	-0.17
772.457	-0.01
772.632	0.02
772.808	-0.23
772.983	-0.06
773.159	-0.25
773.334	0.12
773.509	0.06
773.685	-0.17
773.86	0.27
774.036	0.19
774.211	-0.08
774.386	-0.03
774.562	0.02
774.737	0.03
774.912	-0.23
775.087	0.06
775.263	0.02
775.438	-0.12
775.613	-0.12
775.788	-0.03
775.964	0.2
776.139	0.29
776.314	-0.27
776.489	0
776.664	0.05
776.839	-0.07
777.014	0.04
777.19	0.16
777.365	0.16
777.54	0.17
777.715	-0.04
777.89	-0.12
778.065	-0.07
778.24	-0.03
778.415	0.17
778.59	-0.13
778.765	-0.07
778.94	0.13
779.115	-0.11
779.289	-0.07
779.464	0.08
779.639	0.03
779.814	-0.27
779.989	-0.19
780.164	0.15
780.339	0.1
780.513	-0.06
780.688	-0.02
780.863	0.13
781.038	0.21
781.212	-0.24
781.387	0
781.562	0.14
781.737	0.05
781.911	0.08
782.086	-0.18
782.261	-0.04
782.435	0.3
782.61	0.01
782.784	-0.13
782.959	0.19
783.134	-0.24
783.308	-0.13
783.483	-0.04
783.657	0.26
783.832	0.01
784.006	-0.43
784.181	0.05
784.355	0.29
784.53	0.2
784.704	-0.14
784.878	0.13
785.053	0.11
785.227	0.02
785.402	0.3
785.576	-0.25
785.75	-0.16
785.925	-0.21
786.099	0.08
786.273	-0.09
786.448	-0.11
786.622	-0.1
786.796	-0.1
786.97	-0.12
787.145	0.55
787.319	-0.32
787.493	-0.13
787.667	-0.44
787.841	-0.08
788.015	0.12
788.19	-0.14
788.364	-0
788.538	0.14
788.712	0.2
788.886	-0.06
789.06	0.03
789.234	0.25
789.408	-0.13
789.582	0.03
789.756	0.01
789.93	-0.07
790.104	-0.19
790.278	-0.11
790.452	-0.22
790.626	0.2
790.8	-0.15
790.973	0.11
791.147	0.21
791.321	0.19
791.495	-0.02
791.669	-0.07
791.843	0.02
792.016	0.25
792.19	0.52
792.364	-0.38
792.538	0.41
792.711	0.15
792.885	-0.28
793.059	-0.31
793.233	-0.53
793.406	0.22
793.58	0.18
793.754	0.18
793.927	-0.11
794.101	0.26
794.274	0.17
794.448	0.2
794.622	-0.25
794.795	0.23
794.969	-0.17
795.142	0.18
795.316	0.17
795.489	-0.14
795.663	0.54
795.836	-0.06
796.009	-0.14
796.183	0.31
796.356	0.18
796.53	0.13
796.703	-0.01
796.876	0.3
797.05	-0.27
797.223	-0.19
797.396	0.23
797.57	0.14
797.743	0.34
797.916	0.04
798.09	-0.05
798.263	0.18
798.436	0.17
798.609	-0.22
798.782	-0.18
798.956	0.07
799.129	0.08
799.302	-0.07
799.475	-0.22
799.648	-0.08
799.821	-0.28
799.994	0.24
800.167	-0.27
800.34	0.06
800.514	-0.16
800.687	-0.27
800.86	-0.33
801.033	0.02
801.206	0.28
801.379	-0.57
801.551	0.11
801.724	0.1
801.897	0.33
802.07	-0.15
802.243	-0.63
802.416	-0.32
802.589	-0.28
802.762	-0.01
802.935	0.15
803.107	0.18
803.28	0.32
803.453	0.39
803.626	-0.14
803.798	-0.1
803.971	0.09
804.144	0.03
804.317	-0.2
804.489	0.1
804.662	-0.12
804.835	0.21
805.007	0.08
805.18	0.15
805.353	-0.07
805.525	-0.24
805.698	-0.44
805.87	0.13
806.043	-0.2
806.215	-0.37
806.388	-0.26
806.56	0.11
806.733	0.4
806.905	-0.09
807.078	-0.14
807.25	-0.23
807.423	-0.03
807.595	0.08
807.768	-0.06
807.94	0.35
808.112	-0.07
808.285	-0.03
808.457	-0.38
808.629	0.08
808.802	-0.08
808.974	-0.05
809.146	0.02
809.318	-0.18
809.491	-0.05
809.663	0.22
809.835	-0.38
810.007	0.19
810.18	-0.11
810.352	-0.28
810.524	-0.44
810.696	0.18
810.868	0.42
811.04	-0.29
811.212	-0.37
811.384	-0.11
811.556	0.05
811.728	-0.22
811.901	0.6
812.073	-0.11
812.245	0.58
812.417	-0.55
812.589	-0.69
812.76	0.14
812.932	0.17
813.104	0.26
813.276	-0.25
813.448	0.02
813.62	-0.15
813.792	0.1
813.964	-0.22
814.136	0.02
814.307	-0.1
814.479	-0.07
814.651	-0.37
814.823	0.44
814.995	0.08
815.166	-0.12
815.338	-0.28
815.51	-0.42
815.681	1.12
815.853	0.04
816.025	-0.16
816.196	0.63
816.368	-0.06
816.54	-0.53
816.711	-0.3
816.883	0.14
817.054	0.6
817.226	-0.91
817.398	-0.1
817.569	0.04
817.741	-0.45
817.912	-0.21
818.084	-0.27
818.255	0.06
818.426	-0.22
818.598	0.14
818.769	-0.42
818.941	-0.01
819.112	0.45
819.283	0.12
819.455	-0.37
819.626	0.14
819.798	0.23
819.969	0.5
820.14	-0.12
820.311	-0.34
820.483	-0.27
820.654	0.16
820.825	0.07
820.996	0.08
821.168	-0.3
821.339	0
821.51	-0.23
821.681	-0.28
821.852	-0.03
822.023	-0.76
822.195	-0.61
822.366	0.2
822.537	-0.19
822.708	-0.2
822.879	-0.36
823.05	0.74
823.221	-0.34
823.392	0.41
823.563	-0.14
823.734	-0.2
823.905	-0.16
824.076	-0.44
824.247	-0.44
824.418	-0.49
824.589	0.27
824.759	-0.38
824.93	-0.58
825.101	-0.84
825.272	0.22
825.443	0.19
825.614	0.45
825.784	-1.22
825.955	1.05
826.126	0.65
826.297	0.39
826.467	0.17
826.638	0.7
826.809	-0.41
826.98	-0.07
827.15	0.14
827.321	-0.78
827.492	0.27
827.662	-0.31
827.833	1.12
828.003	-0.12
828.174	-0.62
828.345	-1.11
828.515	0.47
828.686	0.11
828.856	0.01
829.027	-0.02
829.197	-0.31
829.368	-0.07
829.538	-0.48
829.709	-0.19
829.879	0.2
830.049	-0.35
830.22	-0.61
830.39	0.14
830.56	0.72
830.731	0.2
830.901	-0.37
831.072	0.39
831.242	0.03
831.412	-0.04
831.582	0.09
831.753	-0.54
831.923	0.72
832.093	-0.42
832.263	0
832.434	-0.83
832.604	-0.77
832.774	0.32
832.944	-0.68
833.114	-0.52
833.284	0.28
833.454	-0.82
833.624	-0.52
833.795	-0.69
833.965	0.56
834.135	0.39
834.305	-0.91
834.475	-0.8
834.645	-0.04
834.815	0.22
834.985	-0.89
835.155	-0.49
835.325	0.49
835.494	0.18
835.664	-0.01
835.834	-0.87
836.004	-0.15
836.174	0.5
836.344	-0.46
836.514	-1
836.684	-0.45
836.853	-0.26
837.023	0.07
837.193	-0.65
837.363	0.29
837.532	0.58
837.702	-0.05
837.872	-0.44
838.041	0.57
838.211	1.01
838.381	-0.43
838.55	-0.12
838.72	2.02
838.89	0.96
839.059	-0.26
839.229	-0.1
839.398	1.11
839.568	-0.28
839.738	0.06
839.907	0.86
840.077	-0
840.246	-0.88
840.416	-0.88
840.585	-0.21
840.755	1.08
840.924	0.74
841.093	-0.44
841.263	0.6
841.432	-0.32
841.602	-0.86
841.771	-0.5
841.94	-0.51
842.11	1.94
842.279	1.13
842.448	-0.47
842.617	0.45
842.787	1.12
842.956	-1.02
843.125	0.68
843.294	0.01
843.464	1.27
843.633	-0.47
843.802	-0.45
843.971	-0.42
844.14	0.66
844.309	1.28
844.479	-0.78
844.648	-0.65
844.817	-0.68
844.986	-0.29
845.155	0.22
845.324	-0.26
845.493	-0.57
845.662	-1.13
845.831	1.17
846	0.01
846.169	0.24
846.338	0.9
846.507	0.25
846.676	-0.18
846.844	-0.6
847.013	0.91
847.182	-0.61
847.351	-0.36
847.52	0.75
847.689	-0.29
847.858	0.17
848.026	-0.63
848.195	0.24
848.364	-0.85
848.533	-1.35
848.701	-0.18
848.87	-0.35
849.039	0.73
849.207	0.5
849.376	0.86
849.545	1.28
849.713	-0.65
849.882	0.07
850.051	-0.84
850.219	-0.22
850.388	0.51
850.556	-1.32
850.725	-0.54
850.893	-0.79
851.062	-0.15
851.23	0.77
851.399	-1.05
851.567	-1.91
851.736	-0.59
851.904	-1.26
852.073	-0.19
852.241	0.41
852.41	1.08
852.578	-1.2
852.746	-0.12
852.915	-0.33
853.083	-0.03
853.251	-0.38
853.42	-0.75
853.588	0.14
853.756	0.59
853.924	-0.43
854.093	0.71
854.261	-0.15
854.429	-0.93
854.597	0.05
854.765	-0.98
854.934	1.09
855.102	2.15
855.27	0.34
855.438	0.36
855.606	0.48
855.774	1.26
855.942	-1.95
856.11	-1.39
856.278	-0
856.446	0.36
856.614	-0.07
856.782	-0.7
856.95	-0.63
857.118	0.45
857.286	0.47
857.454	-1.86
857.622	-0.22
857.79	-0.29
857.958	-1.11
858.126	-0.29
858.294	-2.4
858.462	-1
858.629	-0.6
858.797	-1.44
858.965	-0.68
859.133	-0.16
859.301	-0.81
859.468	-0.9
859.636	-1.11
859.804	2.03
859.971	0.92
860.139	-0.59
860.307	0.28
860.474	0.72
860.642	-1.29
860.81	0.23
860.977	-0.51
861.145	1.09
861.313	-0.6
861.48	-0.38
861.648	1.55
861.815	-0.62
861.983	0.05
862.15	-1.61
862.318	-0
862.485	0.66
862.653	-0.4
862.82	-1.43
862.988	1.66
863.155	-0.14
863.322	-0.25
863.49	-1.48
863.657	-0.33
863.824	1.25
863.992	0.22
864.159	0.41
864.326	2.46
864.494	0.2
864.661	2.97
864.828	-1.28
864.996	2.74
865.163	0.87
865.33	-1.27
865.497	-2.69
865.664	-0.05
865.832	-2.91
865.999	-0.59
866.166	-0.51
866.333	-1.09
866.5	-1.67
866.667	-0.11
866.834	-2.33
867.001	1.89
867.168	-2.25
867.335	0.87
867.502	-2.14
867.669	0.62
867.836	1.88
868.003	0.09
868.17	1.75
868.337	2.39
868.504	2.6
868.671	-1.64
868.838	-0.74
869.005	0.03
869.172	-0.64
869.339	1.06
869.505	0.42
869.672	-0.11
869.839	0.78
870.006	-1.44
870.173	-2.08
870.339	-0.13
870.506	0.96
870.673	-1.03
870.84	0.96
871.006	-0.02
871.173	-0.61
871.34	1.43
871.506	-1.66
871.673	1.15
871.839	-2.37
872.006	0.75
872.173	-1.29
872.339	-0.19
872.506	0.64
872.672	-0.57
872.839	-2.07
873.005	0.35
873.172	3.03
873.338	1.71
873.505	0.18
873.671	-1.03
873.838	1.62
874.004	-0.94
874.171	-1.97
874.337	0.71
874.503	0.68
874.67	0.77
874.836	0.41
875.002	1.52
875.169	1.09
875.335	0.17
875.501	-0.64
875.668	0.81
875.834	-0
876	-1.23
876.166	0.17
876.332	1.05
876.499	3.5
876.665	-0.17
876.831	-1.23
876.997	1.53
877.163	0.34
877.329	-0.15
877.495	-0.22
877.662	-0.39
877.828	0.97
877.994	-0.65
878.16	-2.55
878.326	-1.65
878.492	0.31
878.658	-1.32
878.824	0.57
878.99	0.13
879.156	-2.07
879.322	1.3
879.487	0.16
879.653	0.11
879.819	-0.17
879.985	-1.34
880.151	-1.16
880.317	-1.35
880.483	-2.19
880.648	1.06
880.814	-1.48
880.98	0.33
881.146	-0.17
881.312	-0.77
881.477	-1.51
881.643	0.75
881.809	1.58
881.974	0.84
882.14	-1.6
882.306	2.52
882.471	2.24
882.637	0.47
882.803	-0.44
882.968	0.71
883.134	3.23
883.299	-0.75
883.465	-0.68
883.63	1.34
883.796	0.39
883.961	1.09
884.127	-0.15
884.292	-2.79
884.458	-2.44
884.623	-2.44
