Data from Apollo_Calib_20240827__AbsoluteIrradiance__331__04-40-02-408.txt Node

Date: Wed Aug 28 04:40:02 BST 2024
User: biology
Spectrometer: FLMT08252
Trigger mode: 0
Integration Time (sec): 5.000000E-1
Scans to average: 5
Electric dark correction enabled: true
Nonlinearity correction enabled: false
Boxcar width: 0
XAxis mode: Wavelengths
Number of Pixels in Spectrum: 3648
>>>>>Begin Spectral Data<<<<<
179.588	-0
179.809	-0
180.03	-0
180.251	-0
180.473	-0
180.694	0
180.915	0
181.136	-0
181.357	0
181.578	-0
181.799	-0
182.02	-0
182.241	-0
182.462	-0
182.683	0
182.904	-0
183.125	-0
183.346	0
183.567	0
183.788	-0
184.009	-0
184.23	0
184.451	0
184.672	-0
184.892	-0
185.113	0
185.334	0
185.555	-0
185.776	-0
185.996	0
186.217	0
186.438	0
186.659	-0
186.879	0
187.1	-0
187.321	-0
187.541	-0
187.762	0
187.983	-0
188.203	0
188.424	0
188.644	-0
188.865	-0
189.086	-0
189.306	-0
189.527	-0
189.747	-0
189.968	-0
190.188	0
190.409	0
190.629	0
190.849	-0
191.07	0
191.29	0
191.511	0
191.731	-0
191.951	-0
192.172	0
192.392	-0
192.612	-0
192.833	0
193.053	0
193.273	0
193.493	-0
193.714	-0
193.934	0
194.154	0
194.374	-0
194.594	0
194.815	0
195.035	0
195.255	0
195.475	-0
195.695	0
195.915	0
196.135	-0
196.355	0
196.575	0
196.795	-0
197.015	-0
197.235	-0
197.455	-0
197.675	0
197.895	-0
198.115	0
198.335	0
198.555	-0
198.775	0
198.995	0
199.214	0
199.434	-0
199.654	-0
199.874	-0
200.094	0.86
200.313	-0.06
200.533	-0.17
200.753	-0.97
200.973	0.66
201.192	1.06
201.412	-0.78
201.632	-0.47
201.851	1.35
202.071	-0.31
202.291	-0.41
202.51	-0.59
202.73	0.45
202.95	-0.02
203.169	-0.67
203.389	-0.05
203.608	0.27
203.828	-0.67
204.047	-0.54
204.267	0.12
204.486	0.25
204.706	-0.02
204.925	-0.55
205.145	-0.21
205.364	0.93
205.583	0.64
205.803	-0.27
206.022	-0.43
206.242	0.27
206.461	-0.18
206.68	-0.47
206.9	-0.15
207.119	0.54
207.338	0.35
207.557	-0.31
207.777	-0.23
207.996	-0.18
208.215	0.58
208.434	-0.04
208.654	-0.34
208.873	0.33
209.092	0.78
209.311	-0.21
209.53	0.11
209.749	-0.03
209.968	-0.04
210.187	-0.12
210.407	-0.53
210.626	0.1
210.845	0.13
211.064	-0.04
211.283	-0.08
211.502	0.32
211.721	-0.04
211.94	0.06
212.159	0.14
212.377	0.23
212.596	0.41
212.815	0.2
213.034	0.1
213.253	0.33
213.472	0.17
213.691	-0.2
213.91	-0.25
214.128	-0.23
214.347	0.44
214.566	-0.28
214.785	-0.2
215.003	0.3
215.222	0.09
215.441	-0.19
215.66	-0.26
215.878	-0.14
216.097	0.24
216.316	-0.19
216.534	0.04
216.753	0.23
216.972	-0.04
217.19	-0.16
217.409	-0.09
217.627	0
217.846	0.03
218.064	-0.06
218.283	-0.2
218.501	0.48
218.72	0.23
218.938	-0.07
219.157	-0.11
219.375	0.3
219.594	0.14
219.812	-0.09
220.031	-0.15
220.249	0.38
220.467	0.29
220.686	-0.07
220.904	-0.29
221.122	-0.26
221.341	0.34
221.559	-0.12
221.777	-0.19
221.995	0.11
222.214	0.08
222.432	0.03
222.65	0.15
222.868	0.06
223.086	0.2
223.305	0.17
223.523	-0.01
223.741	0.46
223.959	-0.12
224.177	-0.23
224.395	-0.22
224.613	-0
224.831	0.03
225.049	-0.15
225.267	0
225.485	0.02
225.703	0.07
225.921	-0.02
226.139	-0.18
226.357	0.22
226.575	0.13
226.793	-0.06
227.011	0.58
227.229	0.09
227.447	0.23
227.665	-0.11
227.883	-0.18
228.1	0.06
228.318	0.18
228.536	-0.27
228.754	-0.21
228.972	0.05
229.189	0.16
229.407	-0.06
229.625	0.02
229.843	0.14
230.06	0.2
230.278	-0.05
230.496	0.02
230.713	0.02
230.931	0.25
231.149	-0.15
231.366	-0.19
231.584	0.03
231.801	0.4
232.019	0.03
232.236	-0.13
232.454	-0.22
232.671	-0.02
232.889	-0.03
233.106	-0.13
233.324	-0.04
233.541	-0.12
233.759	0.06
233.976	-0.13
234.194	-0.13
234.411	-0.07
234.628	-0.07
234.846	-0.02
235.063	-0.01
235.28	0.07
235.498	-0.02
235.715	-0.12
235.932	0.18
236.149	-0.01
236.367	-0.1
236.584	0.05
236.801	-0.01
237.018	0.14
237.236	-0.05
237.453	-0.14
237.67	0.02
237.887	-0.01
238.104	-0.09
238.321	-0.14
238.538	-0.09
238.755	0.16
238.973	-0.21
239.19	-0.03
239.407	0.1
239.624	0.02
239.841	-0.17
240.058	-0.09
240.275	0.15
240.492	-0.01
240.709	-0.01
240.925	-0.09
241.142	-0.02
241.359	-0.14
241.576	-0.1
241.793	-0.15
242.01	-0.02
242.227	0.16
242.444	0.05
242.66	0.14
242.877	-0
243.094	0.03
243.311	0.04
243.527	-0.11
243.744	0.05
243.961	0.13
244.178	-0.04
244.394	-0.03
244.611	0.15
244.828	0.19
245.044	-0.16
245.261	-0.03
245.477	0.01
245.694	0.07
245.911	-0.07
246.127	-0.02
246.344	0.19
246.56	0.11
246.777	0.05
246.993	-0.04
247.21	0.1
247.426	0.02
247.643	-0.06
247.859	-0.04
248.076	-0.02
248.292	0.24
248.508	0.03
248.725	0.08
248.941	0.07
249.157	0.12
249.374	-0.02
249.59	0.02
249.806	-0.04
250.023	0.24
250.239	-0.04
250.455	-0.07
250.671	0.03
250.888	0.05
251.104	0.06
251.32	-0.08
251.536	0
251.752	-0.05
251.969	0.09
252.185	-0.01
252.401	0.18
252.617	0.1
252.833	-0.05
253.049	-0.06
253.265	0.06
253.481	0.09
253.697	0.02
253.913	-0.06
254.129	0.14
254.345	0.06
254.561	0.01
254.777	-0.08
254.993	0.11
255.209	0
255.425	0
255.641	-0.01
255.857	0.14
256.073	-0
256.288	-0.04
256.504	-0.06
256.72	0.09
256.936	0.14
257.152	0.01
257.367	-0.11
257.583	0.01
257.799	0.1
258.015	-0.05
258.23	-0.05
258.446	0.21
258.662	0.05
258.877	-0.03
259.093	-0.04
259.309	0.02
259.524	0.04
259.74	0
259.955	-0.03
260.171	-0.04
260.387	0.04
260.602	0.04
260.818	0
261.033	-0.05
261.249	0.04
261.464	-0.04
261.68	-0.09
261.895	0.1
262.11	0.09
262.326	0.05
262.541	-0.17
262.757	0.04
262.972	0.02
263.187	0.01
263.403	0.01
263.618	0.09
263.833	-0
264.049	-0.01
264.264	-0.09
264.479	0.09
264.694	0.11
264.91	-0.02
265.125	0.03
265.34	0.11
265.555	0.17
265.77	-0.02
265.986	-0.05
266.201	0.06
266.416	0.14
266.631	-0.03
266.846	0
267.061	0.15
267.276	0.06
267.491	-0.04
267.706	0.05
267.921	0.06
268.136	-0.01
268.351	-0.01
268.566	-0.01
268.781	0.11
268.996	0.09
269.211	0.07
269.426	-0.05
269.641	0
269.856	0.06
270.071	-0.02
270.285	-0.14
270.5	0.07
270.715	0.09
270.93	0.02
271.145	0
271.359	0.12
271.574	-0.01
271.789	0.01
272.004	0.02
272.218	-0.01
272.433	0.14
272.648	-0.07
272.862	0.11
273.077	0.03
273.292	-0.06
273.506	-0.06
273.721	-0.02
273.936	0.09
274.15	0.04
274.365	-0.05
274.579	0.05
274.794	0.02
275.008	0.09
275.223	-0.01
275.437	-0.04
275.652	0.06
275.866	0.07
276.081	0.05
276.295	0.05
276.509	-0.04
276.724	-0.01
276.938	0.06
277.153	0.06
277.367	0.1
277.581	-0.01
277.796	0.05
278.01	-0.05
278.224	0.1
278.438	0.21
278.653	-0.04
278.867	-0.01
279.081	-0.13
279.295	0
279.51	0.04
279.724	-0.03
279.938	0.08
280.152	0.06
280.366	-0.07
280.58	0.06
280.794	0.13
281.008	0.03
281.222	0.05
281.437	0.15
281.651	0.01
281.865	0.1
282.079	-0.02
282.293	-0.1
282.507	-0.02
282.721	0.03
282.935	0
283.148	-0.04
283.362	-0.01
283.576	-0.02
283.79	0
284.004	-0.05
284.218	0.12
284.432	0.01
284.646	0.03
284.859	-0.01
285.073	0
285.287	0.03
285.501	0
285.714	0.01
285.928	0.07
286.142	0.01
286.356	-0.04
286.569	-0.02
286.783	0.09
286.997	0.07
287.21	0.03
287.424	0.03
287.637	0.02
287.851	-0.01
288.065	0.04
288.278	0.06
288.492	0.05
288.705	0.01
288.919	0.04
289.132	-0.03
289.346	0.11
289.559	-0.08
289.773	-0.06
289.986	-0.02
290.2	0.06
290.413	0.06
290.626	0.02
290.84	0.01
291.053	0.05
291.267	0.11
291.48	-0.01
291.693	0.09
291.906	0.02
292.12	0.03
292.333	-0.04
292.546	-0.06
292.76	0.13
292.973	0.01
293.186	0.06
293.399	0.01
293.612	0.13
293.826	0.05
294.039	0.02
294.252	0.02
294.465	0.07
294.678	0.05
294.891	0.06
295.104	-0
295.317	0.05
295.53	0.05
295.743	0.05
295.956	0.03
296.169	0.1
296.382	0.09
296.595	0.04
296.808	-0.02
297.021	0.09
297.234	0.08
297.447	0.04
297.66	0.07
297.873	0.07
298.086	0.07
298.299	0.01
298.511	0
298.724	0.03
298.937	-0.01
299.15	-0.01
299.363	0.02
299.575	0.07
299.788	0.07
300.001	-0.03
300.213	-0.04
300.426	0.01
300.639	0.01
300.852	-0.01
301.064	0.07
301.277	0.08
301.489	0.07
301.702	0.11
301.915	0.04
302.127	-0
302.34	0.06
302.552	0.06
302.765	-0.01
302.977	0.06
303.19	0.01
303.402	0.03
303.615	-0.03
303.827	0
304.04	0.05
304.252	0.06
304.464	-0.01
304.677	0.17
304.889	0.08
305.102	-0.01
305.314	0.02
305.526	0.07
305.739	0.04
305.951	-0.01
306.163	0.04
306.375	0.06
306.588	0.01
306.8	-0.04
307.012	-0.03
307.224	0.06
307.436	0.14
307.649	-0.04
307.861	0.01
308.073	0.08
308.285	0.02
308.497	0.01
308.709	0.02
308.921	0.04
309.133	0.05
309.346	0.02
309.558	0
309.77	0.07
309.982	0.12
310.194	0.04
310.406	-0.01
310.617	0.13
310.829	0.05
311.041	0.04
311.253	0.01
311.465	0.07
311.677	0.03
311.889	0.02
312.101	-0.01
312.313	0.07
312.524	0.08
312.736	0.02
312.948	-0.02
313.16	0.14
313.372	0.08
313.583	0.05
313.795	0.01
314.007	0.02
314.218	0.07
314.43	0.01
314.642	0.01
314.853	-0.02
315.065	0.06
315.277	0.04
315.488	0.03
315.7	0.09
315.912	0.08
316.123	0.03
316.335	0.03
316.546	0.11
316.758	0.05
316.969	0.03
317.181	0.05
317.392	0.04
317.604	0.07
317.815	-0
318.026	0
318.238	-0.01
318.449	0.08
318.661	-0.05
318.872	-0.03
319.083	-0.05
319.295	0.03
319.506	-0.03
319.717	0.04
319.929	0.08
320.14	0.03
320.351	0.04
320.562	-0.01
320.774	0.08
320.985	0.09
321.196	0
321.407	-0.03
321.618	0.08
321.829	0.03
322.041	0.04
322.252	0
322.463	0.07
322.674	0.09
322.885	0
323.096	-0.04
323.307	0.03
323.518	0.07
323.729	-0
323.94	0.03
324.151	0
324.362	0.05
324.573	0.06
324.784	0.04
324.995	0.11
325.206	0.06
325.417	-0.01
325.628	-0
325.838	0.04
326.049	0.05
326.26	0.07
326.471	0.02
326.682	0.08
326.892	0.02
327.103	-0.05
327.314	-0.02
327.525	0.08
327.735	0.02
327.946	-0.01
328.157	0
328.368	0.05
328.578	0.04
328.789	0.09
328.999	-0.01
329.21	0.02
329.421	0.08
329.631	-0.04
329.842	0
330.052	0.05
330.263	0.06
330.473	0.1
330.684	0.03
330.894	0.04
331.105	0.08
331.315	0.01
331.526	-0.03
331.736	0.1
331.947	0.04
332.157	0.07
332.367	0
332.578	0.08
332.788	0.12
332.999	0.07
333.209	0.05
333.419	-0.02
333.629	0.04
333.84	0.08
334.05	0.06
334.26	0.12
334.47	0.06
334.681	0.11
334.891	-0.01
335.101	0.06
335.311	0.15
335.521	0.05
335.732	-0
335.942	0.09
336.152	0.12
336.362	0.06
336.572	0.06
336.782	0.08
336.992	0.03
337.202	0.02
337.412	0
337.622	0.05
337.832	0.03
338.042	0.04
338.252	-0
338.462	0.02
338.672	0.07
338.882	-0
339.092	0.02
339.302	0.11
339.511	0.03
339.721	0.02
339.931	-0.02
340.141	0.07
340.351	0.09
340.561	0.06
340.77	0.05
340.98	0.05
341.19	0.04
341.4	0.03
341.609	0
341.819	0.05
342.029	0.01
342.238	0.06
342.448	0.02
342.658	0.09
342.867	0.02
343.077	0.05
343.286	0.04
343.496	0.07
343.706	0.14
343.915	-0.03
344.125	0.04
344.334	0.06
344.544	-0.03
344.753	0.01
344.963	0.03
345.172	-0.01
345.381	0.02
345.591	0.01
345.8	0.03
346.01	0.09
346.219	0.1
346.428	-0.1
346.638	0.02
346.847	0.03
347.056	0.09
347.266	0.02
347.475	0.04
347.684	0.12
347.893	0.05
348.103	0.02
348.312	0.01
348.521	0
348.73	0.05
348.94	0.01
349.149	0.03
349.358	0.03
349.567	0.02
349.776	-0.01
349.985	0.02
350.194	0.07
350.403	0.08
350.612	-0.03
350.821	-0.01
351.03	0.05
351.239	-0.03
351.448	0.05
351.657	-0
351.866	0.09
352.075	0.04
352.284	0.06
352.493	-0.04
352.702	0.13
352.911	0.06
353.12	0.04
353.329	0
353.538	0.05
353.746	0.02
353.955	0.03
354.164	0.05
354.373	0.01
354.582	0.07
354.79	0.03
354.999	0.07
355.208	-0
355.416	0.09
355.625	0.01
355.834	0.02
356.042	0.06
356.251	-0.01
356.46	-0.07
356.668	0.1
356.877	0.17
357.085	0.06
357.294	-0.01
357.503	0.06
357.711	0.03
357.92	0.2
358.128	0.02
358.337	0.03
358.545	0.04
358.754	0.01
358.962	0.06
359.17	0.04
359.379	0.05
359.587	0.07
359.796	0.01
360.004	0.07
360.212	0.06
360.421	0.08
360.629	0.05
360.837	-0.01
361.046	0.1
361.254	0.14
361.462	0.04
361.67	-0.01
361.879	0.06
362.087	0.07
362.295	0.08
362.503	0.03
362.711	-0.03
362.92	-0.04
363.128	-0
363.336	0.02
363.544	0.01
363.752	0.01
363.96	-0.02
364.168	0.01
364.376	0.03
364.584	0.06
364.792	0.07
365	0.05
365.208	0.03
365.416	0.07
365.624	0.06
365.832	0.02
366.04	0.09
366.248	0.04
366.456	0.08
366.664	0.07
366.872	0.06
367.079	0.05
367.287	0.08
367.495	0.08
367.703	0.05
367.911	0.03
368.118	0.05
368.326	0.03
368.534	-0.02
368.742	0.09
368.949	-0.03
369.157	0.03
369.365	0.06
369.572	0.04
369.78	0.01
369.988	0.08
370.195	0.04
370.403	0.07
370.61	0
370.818	0.02
371.026	0.1
371.233	-0.02
371.441	0.04
371.648	0.03
371.856	0.05
372.063	0.08
372.271	-0
372.478	-0.01
372.685	0.02
372.893	0.05
373.1	-0.01
373.308	-0.01
373.515	0.09
373.722	0.09
373.93	0.02
374.137	0.08
374.344	0.09
374.552	0.06
374.759	0.05
374.966	0.07
375.173	0.03
375.381	0.06
375.588	0.05
375.795	-0.03
376.002	0.02
376.209	-0.02
376.417	0.04
376.624	0.06
376.831	0.1
377.038	-0
377.245	-0.04
377.452	0.02
377.659	0.03
377.866	0.02
378.073	0.02
378.28	0.05
378.487	0.07
378.694	0.03
378.901	-0.04
379.108	0.05
379.315	0.09
379.522	0.13
379.729	0.04
379.936	0
380.143	0
380.35	0.04
380.557	-0.01
380.763	0.01
380.97	-0.02
381.177	0.05
381.384	0.05
381.591	-0.03
381.797	0.03
382.004	0.07
382.211	0.02
382.418	0.03
382.624	0.05
382.831	0.06
383.038	0.06
383.244	0.05
383.451	0.08
383.658	0.07
383.864	0.01
384.071	0.02
384.277	0.11
384.484	-0.03
384.69	0.08
384.897	0.03
385.103	0.07
385.31	-0.04
385.516	0.06
385.723	0.01
385.929	0.04
386.136	0.04
386.342	0.08
386.549	0.03
386.755	0.1
386.961	0.05
387.168	-0.01
387.374	0.05
387.58	0.09
387.787	0.04
387.993	0.06
388.199	0.03
388.406	0.04
388.612	0.02
388.818	0.04
389.024	-0.01
389.231	0.06
389.437	0.13
389.643	0.11
389.849	0.04
390.055	0.05
390.261	0.1
390.467	0.06
390.674	-0.02
390.88	0.07
391.086	0.04
391.292	-0.06
391.498	0.07
391.704	0.05
391.91	0.01
392.116	0.04
392.322	-0.08
392.528	0.09
392.734	-0.01
392.94	0.05
393.146	0.01
393.352	0.06
393.557	0.02
393.763	0.05
393.969	0.03
394.175	0.04
394.381	0.09
394.587	-0.04
394.792	0.03
394.998	0.09
395.204	0.11
395.41	0.02
395.615	0.12
395.821	0.06
396.027	0.08
396.233	-0.02
396.438	0.09
396.644	0.08
396.85	0.07
397.055	0.04
397.261	0.03
397.466	0.15
397.672	0.08
397.878	0.12
398.083	0.06
398.289	0.01
398.494	0.05
398.7	0.08
398.905	-0.03
399.111	0.14
399.316	-0
399.522	0.04
399.727	0.03
399.932	-0.01
400.138	0.05
400.343	0.11
400.549	0.07
400.754	0.05
400.959	0.09
401.165	0.07
401.37	0.08
401.575	0.15
401.78	0.04
401.986	0
402.191	0
402.396	0.06
402.601	0.08
402.807	0.07
403.012	0.07
403.217	0.09
403.422	0.08
403.627	0.03
403.832	0.05
404.037	0.08
404.243	0.12
404.448	0.04
404.653	0.08
404.858	0.07
405.063	0.09
405.268	0.05
405.473	0.04
405.678	0.05
405.883	0.23
406.088	0.13
406.293	0.03
406.498	0.07
406.703	0.09
406.907	0.07
407.112	0.01
407.317	0.09
407.522	0.11
407.727	0.01
407.932	0.13
408.136	0.14
408.341	0.09
408.546	0.12
408.751	0.1
408.956	0.08
409.16	0.16
409.365	0.09
409.57	0.11
409.774	0.1
409.979	0.15
410.184	0.14
410.388	0.08
410.593	0.17
410.798	0.16
411.002	0.12
411.207	0.14
411.411	0.17
411.616	0.07
411.82	0.13
412.025	0.16
412.229	0.11
412.434	0.19
412.638	0.17
412.843	0.14
413.047	0.24
413.252	0.14
413.456	0.13
413.66	0.2
413.865	0.14
414.069	0.27
414.273	0.17
414.478	0.14
414.682	0.22
414.886	0.2
415.091	0.21
415.295	0.15
415.499	0.28
415.703	0.21
415.908	0.3
416.112	0.18
416.316	0.33
416.52	0.27
416.724	0.23
416.929	0.23
417.133	0.41
417.337	0.3
417.541	0.3
417.745	0.32
417.949	0.37
418.153	0.38
418.357	0.34
418.561	0.43
418.765	0.4
418.969	0.54
419.173	0.46
419.377	0.45
419.581	0.57
419.785	0.5
419.989	0.43
420.193	0.55
420.397	0.57
420.601	0.66
420.804	0.67
421.008	0.64
421.212	0.71
421.416	0.68
421.62	0.64
421.823	0.7
422.027	0.85
422.231	0.82
422.435	0.83
422.638	0.83
422.842	0.83
423.046	0.78
423.249	0.93
423.453	0.98
423.657	0.99
423.86	1.03
424.064	1.03
424.268	1.13
424.471	1.16
424.675	1.26
424.878	1.26
425.082	1.27
425.285	1.34
425.489	1.31
425.692	1.37
425.896	1.41
426.099	1.48
426.303	1.47
426.506	1.44
426.71	1.68
426.913	1.74
427.116	1.75
427.32	1.76
427.523	1.88
427.726	2.02
427.93	1.91
428.133	2.1
428.336	2.07
428.54	2.19
428.743	2.24
428.946	2.44
429.149	2.33
429.353	2.38
429.556	2.42
429.759	2.43
429.962	2.52
430.165	2.59
430.368	2.51
430.571	2.51
430.775	2.59
430.978	2.61
431.181	2.65
431.384	2.67
431.587	2.66
431.79	2.82
431.993	2.97
432.196	2.93
432.399	3.13
432.602	3.22
432.805	3.24
433.008	3.45
433.211	3.36
433.414	3.56
433.616	3.61
433.819	3.56
434.022	3.52
434.225	3.76
434.428	3.75
434.631	3.98
434.833	3.91
435.036	3.95
435.239	4.14
435.442	4.16
435.645	4.27
435.847	4.32
436.05	4.56
436.253	4.5
436.455	4.57
436.658	4.56
436.861	4.77
437.063	4.82
437.266	4.94
437.468	5.09
437.671	5.43
437.874	5.35
438.076	5.26
438.279	5.56
438.481	5.63
438.684	6.02
438.886	5.84
439.089	6.02
439.291	6.17
439.494	6.46
439.696	6.48
439.899	6.86
440.101	7.13
440.303	7.29
440.506	7.77
440.708	7.69
440.91	7.97
441.113	8.14
441.315	8.39
441.517	8.31
441.72	8.74
441.922	8.67
442.124	8.83
442.326	9.12
442.529	9.33
442.731	9.45
442.933	9.76
443.135	9.72
443.337	9.87
443.539	10.24
443.742	10.2
443.944	10.75
444.146	10.76
444.348	10.8
444.55	10.79
444.752	11.23
444.954	11.35
445.156	11.44
445.358	11.75
445.56	12.15
445.762	12.03
445.964	12.48
446.166	12.41
446.368	12.57
446.57	12.69
446.772	12.41
446.974	12.4
447.175	12.82
447.377	12.64
447.579	12.93
447.781	12.95
447.983	12.94
448.184	12.67
448.386	12.97
448.588	12.77
448.79	12.84
448.991	13.16
449.193	13.12
449.395	12.59
449.597	12.49
449.798	12.33
450	12.03
450.202	12.12
450.403	12.02
450.605	12.06
450.806	11.7
451.008	11.69
451.21	11.52
451.411	11.2
451.613	10.56
451.814	10.61
452.016	10.62
452.217	10.06
452.419	10.14
452.62	9.85
452.821	9.73
453.023	9.61
453.224	9.23
453.426	8.91
453.627	8.26
453.828	8.33
454.03	8.25
454.231	8.29
454.432	8.15
454.634	7.95
454.835	7.64
455.036	7.52
455.238	7.22
455.439	6.98
455.64	6.79
455.841	6.66
456.042	6.79
456.244	6.46
456.445	6.26
456.646	5.98
456.847	5.95
457.048	5.87
457.249	5.9
457.45	5.8
457.651	5.33
457.852	5.18
458.054	4.97
458.255	4.88
458.456	4.96
458.657	4.83
458.858	4.52
459.058	4.5
459.259	4.49
459.46	4.23
459.661	4.27
459.862	4.29
460.063	4.17
460.264	4.18
460.465	3.87
460.666	4.01
460.866	3.79
461.067	3.61
461.268	3.61
461.469	3.62
461.67	3.5
461.87	3.3
462.071	3.4
462.272	3.29
462.473	3.26
462.673	3.34
462.874	3.22
463.075	3.27
463.275	3.21
463.476	3.2
463.676	3.16
463.877	3.07
464.078	3.02
464.278	2.97
464.479	2.98
464.679	2.86
464.88	2.76
465.08	2.77
465.281	2.62
465.481	2.48
465.682	2.39
465.882	2.39
466.083	2.32
466.283	2.26
466.483	2.15
466.684	2.06
466.884	1.99
467.085	1.95
467.285	2
467.485	1.92
467.686	1.85
467.886	1.78
468.086	1.74
468.286	1.72
468.487	1.75
468.687	1.6
468.887	1.55
469.087	1.56
469.287	1.55
469.488	1.4
469.688	1.45
469.888	1.46
470.088	1.38
470.288	1.41
470.488	1.29
470.688	1.21
470.888	1.25
471.088	1.09
471.288	1.17
471.488	1.18
471.688	1.08
471.888	1
472.088	1.14
472.288	1.05
472.488	0.99
472.688	0.97
472.888	0.94
473.088	0.91
473.288	0.88
473.488	0.85
473.688	1
473.887	0.89
474.087	0.84
474.287	0.78
474.487	0.75
474.687	0.81
474.886	0.78
475.086	0.73
475.286	0.7
475.486	0.68
475.685	0.68
475.885	0.62
476.085	0.66
476.284	0.64
476.484	0.66
476.684	0.67
476.883	0.68
477.083	0.6
477.282	0.55
477.482	0.63
477.681	0.61
477.881	0.59
478.08	0.5
478.28	0.5
478.479	0.52
478.679	0.57
478.878	0.47
479.078	0.43
479.277	0.48
479.477	0.46
479.676	0.48
479.875	0.43
480.075	0.37
480.274	0.43
480.473	0.44
480.673	0.38
480.872	0.43
481.071	0.38
481.271	0.42
481.47	0.36
481.669	0.37
481.868	0.37
482.067	0.31
482.267	0.31
482.466	0.3
482.665	0.3
482.864	0.3
483.063	0.3
483.262	0.31
483.461	0.34
483.661	0.34
483.86	0.26
484.059	0.29
484.258	0.29
484.457	0.27
484.656	0.27
484.855	0.29
485.054	0.21
485.253	0.22
485.452	0.18
485.651	0.23
485.849	0.21
486.048	0.18
486.247	0.21
486.446	0.23
486.645	0.18
486.844	0.19
487.043	0.16
487.241	0.2
487.44	0.15
487.639	0.18
487.838	0.2
488.037	0.19
488.235	0.26
488.434	0.16
488.633	0.16
488.831	0.17
489.03	0.21
489.229	0.19
489.427	0.17
489.626	0.22
489.825	0.19
490.023	0.13
490.222	0.11
490.42	0.15
490.619	0.16
490.817	0.13
491.016	0.13
491.214	0.15
491.413	0.12
491.611	0.12
491.81	0.13
492.008	0.13
492.207	0.15
492.405	0.09
492.604	0.06
492.802	0.08
493	0.12
493.199	0.07
493.397	0.08
493.595	0.07
493.794	0.09
493.992	0.17
494.19	0.09
494.388	0.1
494.587	0.07
494.785	0.08
494.983	0.07
495.181	0.1
495.379	0.09
495.578	0.07
495.776	0.09
495.974	0.1
496.172	0.06
496.37	0.07
496.568	0.06
496.766	0.07
496.964	0.11
497.162	0.08
497.36	0.04
497.558	0.1
497.756	0.09
497.954	0.05
498.152	0.05
498.35	0.07
498.548	0.06
498.746	0.06
498.944	0.04
499.142	0.07
499.34	0.05
499.538	0.07
499.736	0.03
499.933	0.08
500.131	0.09
500.329	0.05
500.527	0.09
500.725	0.11
500.922	0.07
501.12	0.08
501.318	0.06
501.516	0.02
501.713	0.05
501.911	0.04
502.109	0.01
502.306	0.04
502.504	0.03
502.701	0.02
502.899	0.04
503.097	0.1
503.294	0.06
503.492	0.04
503.689	0.05
503.887	0.08
504.084	0.1
504.282	0.05
504.479	0.01
504.677	0.08
504.874	-0
505.072	0.05
505.269	0.02
505.466	0.08
505.664	0.06
505.861	0.01
506.059	0.01
506.256	0.07
506.453	0.02
506.651	0.09
506.848	0.06
507.045	0.07
507.242	0.03
507.44	0.04
507.637	0.02
507.834	0.03
508.031	0.06
508.229	0.01
508.426	0.04
508.623	0.06
508.82	0.03
509.017	0.01
509.214	0.02
509.411	0.03
509.608	0.02
509.805	0.04
510.003	0.04
510.2	0.02
510.397	0.06
510.594	0.02
510.791	-0.01
510.988	0.02
511.184	0.03
511.381	0.02
511.578	0.02
511.775	0.07
511.972	-0.01
512.169	0.02
512.366	0.03
512.563	0.04
512.76	0.03
512.956	0.03
513.153	0.03
513.35	0.03
513.547	0.01
513.744	0
513.94	-0.01
514.137	0.04
514.334	0.03
514.53	0.03
514.727	0.01
514.924	0.08
515.12	0.01
515.317	0.01
515.514	-0.01
515.71	-0.02
515.907	0.02
516.103	0.02
516.3	0.04
516.497	0.07
516.693	0.06
516.89	0.03
517.086	-0.03
517.283	0.06
517.479	0.03
517.676	0.01
517.872	0.04
518.068	-0
518.265	0.02
518.461	-0.02
518.658	-0.01
518.854	0.03
519.05	0.02
519.247	-0.01
519.443	0.04
519.639	0.03
519.836	0.06
520.032	0
520.228	0.03
520.424	0.06
520.621	0.02
520.817	0
521.013	0.04
521.209	0.01
521.405	0.06
521.601	0.03
521.798	0.02
521.994	0.06
522.19	0.01
522.386	-0.02
522.582	0.02
522.778	0.03
522.974	0.03
523.17	0.02
523.366	0.04
523.562	0.05
523.758	0.02
523.954	0.01
524.15	-0.01
524.346	0.03
524.542	-0
524.738	-0.01
524.934	0.02
525.129	0.02
525.325	0.01
525.521	0.02
525.717	0.05
525.913	0.02
526.109	0.02
526.304	0.01
526.5	0.03
526.696	0.05
526.892	0.01
527.087	0.02
527.283	-0.02
527.479	0.03
527.674	0
527.87	-0
528.066	0.01
528.261	0.04
528.457	0.02
528.653	0.02
528.848	-0.01
529.044	0.02
529.239	0.01
529.435	0.04
529.63	0.03
529.826	0.05
530.021	0.04
530.217	0.02
530.412	0
530.608	0.01
530.803	0.02
530.999	0.02
531.194	-0.03
531.389	0.04
531.585	-0.03
531.78	0
531.975	0.03
532.171	0.05
532.366	0.03
532.561	0.02
532.757	0
532.952	-0.02
533.147	0.04
533.342	0
533.538	0.01
533.733	0.04
533.928	0.02
534.123	-0
534.318	-0.03
534.513	-0.01
534.709	0.02
534.904	0.01
535.099	0.02
535.294	-0
535.489	0.03
535.684	-0
535.879	-0.03
536.074	0.02
536.269	-0
536.464	0.04
536.659	0.01
536.854	0
537.049	-0
537.244	0.02
537.439	0.01
537.634	0.04
537.828	0
538.023	0.01
538.218	-0.02
538.413	0.04
538.608	-0.03
538.803	0.05
538.997	-0.02
539.192	0.03
539.387	0.03
539.582	0.01
539.776	0.03
539.971	-0.02
540.166	0
540.36	-0
540.555	0.02
540.75	0.01
540.944	0.01
541.139	-0.03
541.334	-0.01
541.528	0.02
541.723	0.05
541.917	-0.03
542.112	-0.01
542.306	0.02
542.501	0
542.695	0.01
542.89	-0.02
543.084	0.02
543.279	0.01
543.473	0.02
543.668	-0.01
543.862	0.01
544.056	0.01
544.251	0.01
544.445	0.02
544.64	0.01
544.834	-0
545.028	0.02
545.222	0
545.417	0.03
545.611	0.04
545.805	0.05
546	0.01
546.194	0.03
546.388	-0.02
546.582	0.03
546.776	0.02
546.97	0.02
547.165	0.03
547.359	0.04
547.553	-0.01
547.747	0.03
547.941	0.01
548.135	-0
548.329	0.02
548.523	0.03
548.717	0.01
548.911	-0.02
549.105	0.01
549.299	-0.01
549.493	0.02
549.687	0.02
549.881	0.03
550.075	-0
550.269	-0.02
550.463	0.04
550.657	-0.02
550.85	0.02
551.044	-0.01
551.238	0.02
551.432	-0.01
551.626	-0.03
551.82	0.01
552.013	-0.01
552.207	0.01
552.401	0.02
552.594	0.01
552.788	-0.01
552.982	-0
553.176	-0.01
553.369	0.01
553.563	0.04
553.756	-0.03
553.95	-0.02
554.144	0.01
554.337	0.02
554.531	0.03
554.724	0.04
554.918	0
555.111	0.03
555.305	0.01
555.498	0.06
555.692	0.03
555.885	-0.04
556.079	0.01
556.272	-0.02
556.466	0.02
556.659	0
556.852	0.02
557.046	0
557.239	0.05
557.432	-0.01
557.626	-0.02
557.819	0.01
558.012	0.04
558.206	0.01
558.399	-0
558.592	0.02
558.785	0.02
558.979	0.02
559.172	0.02
559.365	0.03
559.558	0.03
559.751	-0.01
559.944	0.03
560.138	0.01
560.331	0.01
560.524	0.01
560.717	-0
560.91	0.01
561.103	0.04
561.296	0
561.489	0.02
561.682	0.03
561.875	0.06
562.068	0.03
562.261	0.04
562.454	0.04
562.647	0.01
562.84	0.02
563.032	0.01
563.225	0
563.418	0.03
563.611	0.01
563.804	0.01
563.997	-0.02
564.19	-0.02
564.382	0.03
564.575	-0
564.768	-0
564.961	-0.01
565.153	-0.02
565.346	0.03
565.539	0.05
565.731	0.03
565.924	0.02
566.117	0.02
566.309	0
566.502	-0.01
566.695	0.01
566.887	0.02
567.08	-0.03
567.272	0.01
567.465	-0.01
567.657	-0
567.85	0.03
568.042	0.04
568.235	0.02
568.427	0.01
568.62	0.02
568.812	0.01
569.005	0.01
569.197	-0.03
569.389	0.01
569.582	0.02
569.774	-0
569.966	-0.03
570.159	-0.02
570.351	0.03
570.543	0
570.736	-0.01
570.928	-0.01
571.12	0.02
571.312	-0.01
571.505	-0.04
571.697	0.03
571.889	-0.02
572.081	-0.02
572.273	-0.01
572.465	0.04
572.658	-0.02
572.85	0.02
573.042	0.01
573.234	-0.03
573.426	0.06
573.618	-0.05
573.81	0.02
574.002	0.04
574.194	0.04
574.386	-0.03
574.578	-0.05
574.77	-0.02
574.962	-0
575.154	-0.03
575.346	0.01
575.538	-0
575.729	-0.02
575.921	0.01
576.113	0
576.305	0.03
576.497	0.01
576.689	0.03
576.88	-0.01
577.072	0.04
577.264	-0.02
577.456	-0.01
577.647	-0.06
577.839	-0
578.031	0.05
578.223	-0.04
578.414	-0.03
578.606	0.01
578.798	0.01
578.989	-0.02
579.181	-0.01
579.372	0.01
579.564	0
579.755	0
579.947	0.02
580.139	0.04
580.33	-0.05
580.522	-0.01
580.713	-0.07
580.905	-0.01
581.096	0.02
581.287	0.01
581.479	0.03
581.67	0.03
581.862	-0.01
582.053	-0.02
582.244	-0.04
582.436	-0.03
582.627	-0.01
582.818	-0.02
583.01	-0.04
583.201	0.03
583.392	0.05
583.583	0.03
583.775	-0.03
583.966	0
584.157	-0.03
584.348	-0.01
584.54	-0.04
584.731	-0
584.922	0
585.113	-0.03
585.304	0.01
585.495	0.03
585.686	-0
585.877	0.02
586.068	0.01
586.259	0.03
586.45	0
586.641	-0.01
586.832	-0.06
587.023	0
587.214	0.01
587.405	0
587.596	-0.03
587.787	0.04
587.978	-0
588.169	-0.03
588.36	-0.04
588.551	0.01
588.742	-0.01
588.932	0.02
589.123	-0.01
589.314	0.03
589.505	-0.01
589.696	-0.01
589.886	-0.02
590.077	-0.03
590.268	0.03
590.458	-0.04
590.649	-0.05
590.84	0.03
591.03	-0.02
591.221	-0.03
591.412	-0.03
591.602	0.03
591.793	0.05
591.984	-0.04
592.174	-0.01
592.365	0.07
592.555	-0.01
592.746	0.03
592.936	0.01
593.127	-0.01
593.317	0.04
593.508	0.01
593.698	-0.02
593.889	0.01
594.079	-0
594.269	-0.04
594.46	0
594.65	-0
594.84	0.01
595.031	-0.01
595.221	-0.03
595.411	-0.04
595.602	0.02
595.792	-0.01
595.982	-0.03
596.172	0.03
596.363	0.01
596.553	0.01
596.743	0.02
596.933	0.02
597.123	0.04
597.314	-0.04
597.504	-0.03
597.694	0.04
597.884	0.01
598.074	-0.01
598.264	-0.01
598.454	0.02
598.644	0.01
598.834	0
599.024	-0.02
599.214	0
599.404	0.02
599.594	-0.01
599.784	-0
599.974	0.07
600.164	0.03
600.354	-0.02
600.544	-0.07
600.734	-0.01
600.924	0.04
601.114	-0.01
601.303	0.01
601.493	0.01
601.683	0.01
601.873	0.02
602.063	-0.03
602.252	0.02
602.442	-0.05
602.632	-0.02
602.821	-0.04
603.011	0.03
603.201	0.01
603.39	-0.03
603.58	-0.02
603.77	-0
603.959	0.06
604.149	-0.01
604.339	-0.01
604.528	0.04
604.718	0.04
604.907	-0.01
605.097	-0.04
605.286	-0.05
605.476	0.02
605.665	0.03
605.855	-0.01
606.044	0.06
606.234	0
606.423	-0.01
606.612	-0.05
606.802	-0.01
606.991	0.02
607.181	-0.02
607.37	-0.06
607.559	-0
607.749	-0.02
607.938	-0.01
608.127	-0
608.316	-0.02
608.506	-0
608.695	0
608.884	-0.01
609.073	0.02
609.263	0.01
609.452	0
609.641	0.02
609.83	-0.05
610.019	-0.01
610.208	-0.01
610.397	-0
610.586	0.06
610.775	-0.03
610.965	-0.02
611.154	-0.03
611.343	0.02
611.532	0.03
611.721	-0.03
611.91	-0.01
612.099	0.04
612.287	-0.03
612.476	-0.04
612.665	-0.01
612.854	-0.02
613.043	0.04
613.232	-0.03
613.421	-0.06
613.61	0
613.798	-0.05
613.987	0.01
614.176	0.03
614.365	0.05
614.554	0.02
614.742	0.03
614.931	-0
615.12	0.05
615.309	-0.02
615.497	-0.01
615.686	-0.04
615.875	-0.01
616.063	-0.01
616.252	-0.02
616.44	-0.02
616.629	0.03
616.818	0.03
617.006	-0.03
617.195	-0.02
617.383	-0
617.572	0
617.76	-0.01
617.949	-0.03
618.137	0.01
618.326	0.03
618.514	-0.04
618.703	-0.03
618.891	0.06
619.079	-0.01
619.268	0.03
619.456	-0.03
619.644	0.05
619.833	0
620.021	-0.05
620.209	-0.06
620.398	0.02
620.586	0
620.774	0.03
620.962	-0.01
621.151	0.07
621.339	0
621.527	-0.07
621.715	-0.03
621.903	-0.03
622.092	-0.04
622.28	0.01
622.468	-0.02
622.656	-0.01
622.844	0.03
623.032	-0.04
623.22	-0.06
623.408	0.04
623.596	0.01
623.784	0.04
623.972	-0.05
624.16	-0.02
624.348	0.07
624.536	-0
624.724	-0.01
624.912	0.02
625.1	0.05
625.288	-0.03
625.476	-0.04
625.664	0.03
625.851	-0.07
626.039	0.01
626.227	0.03
626.415	-0.02
626.603	-0.04
626.79	-0.02
626.978	-0.03
627.166	0.01
627.354	0.01
627.541	-0.05
627.729	-0.04
627.917	0.04
628.104	0.04
628.292	-0
628.48	0.03
628.667	-0.01
628.855	0.03
629.042	-0
629.23	-0.03
629.418	0
629.605	-0.04
629.793	-0.01
629.98	-0.03
630.168	-0.03
630.355	0.01
630.543	0.02
630.73	-0.02
630.917	0.03
631.105	0.04
631.292	-0.02
631.48	-0.02
631.667	0.06
631.854	0.01
632.042	-0.04
632.229	-0.05
632.416	0.02
632.604	-0.01
632.791	-0.03
632.978	0
633.165	0.03
633.353	0.09
633.54	0.06
633.727	-0.07
633.914	-0.01
634.101	-0.06
634.289	0.03
634.476	-0.06
634.663	-0.03
634.85	0.02
635.037	-0.06
635.224	-0.05
635.411	0.02
635.598	0.01
635.785	-0.03
635.972	-0.01
636.159	0.05
636.346	-0.03
636.533	-0
636.72	-0.01
636.907	-0.02
637.094	0.02
637.281	-0.02
637.468	0
637.655	0.01
637.842	-0.01
638.029	-0.05
638.215	0.01
638.402	0.01
638.589	-0.03
638.776	-0.05
638.963	-0.02
639.149	0.06
639.336	0.07
639.523	-0.01
639.709	-0
639.896	-0.02
640.083	0.05
640.27	0.04
640.456	-0.04
640.643	0.02
640.829	-0.04
641.016	-0.01
641.203	-0.02
641.389	0.02
641.576	0.02
641.762	-0.02
641.949	-0.03
642.135	0.04
642.322	-0
642.508	-0.03
642.695	-0.02
642.881	-0.02
643.068	-0.01
643.254	0
643.441	0.04
643.627	-0
643.813	-0.01
644	0.03
644.186	-0.04
644.372	0.04
644.559	0.03
644.745	-0.03
644.931	-0.02
645.118	0.01
645.304	-0.02
645.49	-0.03
645.676	-0.03
645.862	-0.02
646.049	0.02
646.235	-0.01
646.421	0.06
646.607	0.06
646.793	-0.02
646.979	-0.02
647.165	0.02
647.352	-0.02
647.538	0.04
647.724	0
647.91	0
648.096	0
648.282	0.05
648.468	-0
648.654	0.01
648.84	0.04
649.026	-0.01
649.212	-0.01
649.397	-0.03
649.583	-0.03
649.769	0.01
649.955	0.01
650.141	0.02
650.327	0.06
650.513	-0.03
650.698	0
650.884	-0.09
651.07	-0
651.256	-0
651.442	0
651.627	-0.01
651.813	0.04
651.999	-0.01
652.184	0
652.37	-0.02
652.556	0.02
652.741	0.06
652.927	-0.06
653.113	-0.01
653.298	0.02
653.484	-0.06
653.669	-0.04
653.855	-0.04
654.04	0.01
654.226	0.03
654.412	-0.01
654.597	-0.07
654.782	0.01
654.968	0.04
655.153	0.02
655.339	-0.03
655.524	-0.06
655.71	-0.03
655.895	-0.01
656.08	-0.03
656.266	0.02
656.451	0.01
656.636	-0.05
656.822	0.02
657.007	-0.03
657.192	-0.02
657.378	-0.08
657.563	-0.01
657.748	0.04
657.933	0.03
658.118	-0.02
658.304	-0.02
658.489	0.01
658.674	0.02
658.859	-0.02
659.044	-0.02
659.229	0.01
659.414	-0.04
659.599	-0.01
659.785	-0.06
659.97	0.01
660.155	0.03
660.34	-0.03
660.525	-0.01
660.71	-0.02
660.895	0.04
661.08	-0.03
661.264	-0.04
661.449	0.05
661.634	0.01
661.819	0.01
662.004	0.01
662.189	-0.07
662.374	-0.05
662.559	0.01
662.743	-0.1
662.928	-0.03
663.113	-0.03
663.298	-0.07
663.483	-0.02
663.667	-0.02
663.852	-0.05
664.037	0.05
664.221	-0.03
664.406	0.01
664.591	-0.02
664.775	-0.03
664.96	-0.06
665.145	-0.02
665.329	0.04
665.514	-0.02
665.698	-0.04
665.883	-0.06
666.068	0.08
666.252	-0.03
666.437	-0.07
666.621	-0.02
666.806	0.05
666.99	-0.03
667.174	-0.05
667.359	0.06
667.543	-0.03
667.728	-0.05
667.912	-0.1
668.096	0.01
668.281	-0.03
668.465	-0.05
668.649	-0.02
668.834	-0.05
669.018	0.02
669.202	-0.02
669.387	-0.05
669.571	0.03
669.755	-0.08
669.939	-0.02
670.124	-0.02
670.308	0.08
670.492	0.01
670.676	0
670.86	-0
671.044	-0.05
671.228	0.01
671.413	-0.01
671.597	-0.06
671.781	-0.06
671.965	0.03
672.149	0.03
672.333	-0.02
672.517	-0.05
672.701	0.02
672.885	0.02
673.069	-0.08
673.253	0.04
673.437	0
673.621	-0.04
673.804	0.01
673.988	-0.02
674.172	0.01
674.356	-0.04
674.54	0.01
674.724	0.09
674.908	-0
675.091	0.04
675.275	-0.03
675.459	0.04
675.643	0.06
675.826	0.01
676.01	0.01
676.194	0.01
676.377	0.09
676.561	-0.01
676.745	0
676.928	0.01
677.112	0.07
677.296	-0.03
677.479	-0.03
677.663	0
677.846	0.02
678.03	-0.03
678.213	-0.03
678.397	0.03
678.58	-0.03
678.764	0.01
678.947	-0.03
679.131	-0.03
679.314	0
679.498	-0.01
679.681	-0.01
679.865	0.06
680.048	-0.02
680.231	0
680.415	-0.02
680.598	-0.05
680.781	0.01
680.965	-0.06
681.148	0.04
681.331	-0.03
681.514	0.04
681.698	-0.05
681.881	-0.04
682.064	-0.02
682.247	-0.01
682.43	-0.09
682.614	0
682.797	0.05
682.98	0
683.163	-0.06
683.346	-0
683.529	-0.06
683.712	-0.06
683.895	0.01
684.078	-0.07
684.261	-0.03
684.444	0.01
684.627	0
684.81	-0.07
684.993	-0.03
685.176	0.03
685.359	-0.07
685.542	-0.06
685.725	0.07
685.908	-0.01
686.091	-0.04
686.274	0.03
686.457	0.03
686.639	-0.02
686.822	0
687.005	0
687.188	0.02
687.371	0.07
687.553	-0.01
687.736	0.02
687.919	0.09
688.102	0
688.284	-0.06
688.467	0.03
688.65	-0.03
688.832	-0.03
689.015	-0.01
689.197	-0.11
689.38	0.13
689.563	0.06
689.745	-0.05
689.928	-0.09
690.11	-0
690.293	0.03
690.475	-0.05
690.658	0.01
690.84	-0.04
691.023	0.01
691.205	-0.07
691.388	0.03
691.57	0.05
691.752	0.02
691.935	-0.07
692.117	-0.03
692.3	0.01
692.482	0.02
692.664	-0.02
692.847	-0.01
693.029	0.1
693.211	0.01
693.393	-0.03
693.576	-0.04
693.758	0.06
693.94	-0.06
694.122	-0.02
694.304	-0.05
694.487	-0.04
694.669	0.03
694.851	-0.09
695.033	-0.04
695.215	-0.06
695.397	-0.05
695.579	0.02
695.761	-0.03
695.943	-0.08
696.125	0.06
696.308	0.04
696.49	-0.15
696.671	0.14
696.853	-0.02
697.035	0.07
697.217	-0.04
697.399	0.01
697.581	-0.07
697.763	-0.04
697.945	-0.06
698.127	0.01
698.309	-0.1
698.491	0
698.672	0.02
698.854	0.08
699.036	0.06
699.218	-0.01
699.399	0.03
699.581	-0.01
699.763	-0.04
699.945	-0.07
700.126	-0.03
700.308	0.01
700.49	-0.04
700.671	-0.1
700.853	-0.06
701.035	-0.01
701.216	0.04
701.398	-0.08
701.579	-0.02
701.761	0.05
701.943	-0.03
702.124	-0.08
702.306	-0.02
702.487	0.09
702.669	0.01
702.85	0
703.031	-0.05
703.213	0.14
703.394	0
703.576	-0.03
703.757	0.07
703.938	0.06
704.12	0.16
704.301	-0
704.483	-0.06
704.664	-0.02
704.845	0.13
705.026	0.01
705.208	0.01
705.389	-0
705.57	0.04
705.751	0.03
705.933	-0.04
706.114	0.05
706.295	0.05
706.476	-0.06
706.657	0.07
706.838	0.06
707.02	0.05
707.201	0.02
707.382	-0.04
707.563	0.06
707.744	-0
707.925	-0.04
708.106	-0.1
708.287	0.02
708.468	0.08
708.649	-0.01
708.83	0.01
709.011	-0.07
709.192	0.06
709.373	-0.04
709.554	-0.01
709.734	0.04
709.915	0.05
710.096	-0.04
710.277	-0.11
710.458	-0.07
710.639	0.05
710.819	-0.09
711	-0.05
711.181	0.06
711.362	0.1
711.542	-0.04
711.723	-0.07
711.904	0.06
712.085	0.08
712.265	0.01
712.446	-0.1
712.627	-0.01
712.807	0.01
712.988	-0.04
713.168	-0.11
713.349	-0.02
713.53	-0.14
713.71	-0.1
713.891	-0.1
714.071	-0.03
714.252	-0.02
714.432	-0.07
714.613	-0.07
714.793	-0.04
714.974	0.06
715.154	0.1
715.334	0.09
715.515	0.08
715.695	-0.07
715.876	-0.02
716.056	-0.04
716.236	-0.06
716.417	-0.05
716.597	-0.06
716.777	0.16
716.957	0.02
717.138	-0
717.318	-0.02
717.498	-0.08
717.678	-0.04
717.859	-0.01
718.039	-0.11
718.219	0.01
718.399	-0.03
718.579	-0.08
718.759	-0.06
718.939	-0
719.12	-0.02
719.3	0.02
719.48	-0.14
719.66	-0.21
719.84	0.07
720.02	-0.04
720.2	-0.07
720.38	-0.04
720.56	0.18
720.74	-0
720.92	-0.05
721.1	0.11
721.279	0.09
721.459	0.03
721.639	-0.05
721.819	0
721.999	0.01
722.179	0.07
722.359	-0.06
722.538	0.01
722.718	-0.03
722.898	-0.1
723.078	-0.1
723.257	-0.03
723.437	-0.02
723.617	0.05
723.797	-0.08
723.976	-0.05
724.156	0.04
724.336	0.1
724.515	0.12
724.695	-0.11
724.874	-0.01
725.054	0.08
725.234	-0.03
725.413	-0.02
725.593	-0.06
725.772	0.03
725.952	-0.05
726.131	0.05
726.311	-0.07
726.49	-0.02
726.67	-0.1
726.849	-0.05
727.028	0.02
727.208	0.03
727.387	-0.03
727.567	-0.15
727.746	-0
727.925	-0.1
728.105	-0.23
728.284	-0.06
728.463	-0.13
728.643	-0.04
728.822	-0.13
729.001	-0.05
729.18	-0.01
729.359	-0.07
729.539	0.01
729.718	0.03
729.897	0.11
730.076	-0.06
730.255	-0.17
730.434	-0
730.614	0.02
730.793	0.04
730.972	-0.02
731.151	-0.02
731.33	0.03
731.509	0.01
731.688	-0
731.867	-0.05
732.046	-0.16
732.225	0.25
732.404	-0.06
732.583	-0.14
732.762	-0.01
732.941	0.11
733.12	-0.04
733.298	-0.06
733.477	0.08
733.656	0.02
733.835	-0.04
734.014	0.07
734.193	-0.08
734.371	0.09
734.55	0
734.729	-0.08
734.908	0.05
735.086	-0.02
735.265	0.11
735.444	-0.08
735.623	-0.11
735.801	-0.26
735.98	-0.02
736.159	-0.03
736.337	-0.01
736.516	-0.01
736.694	-0.06
736.873	-0.05
737.052	0.19
737.23	0.1
737.409	0.01
737.587	0.13
737.766	-0.16
737.944	0
738.123	0.02
738.301	0.03
738.479	-0.05
738.658	-0
738.836	-0.19
739.015	0.03
739.193	0.12
739.371	-0.21
739.55	-0.08
739.728	-0.08
739.906	0.14
740.085	0.18
740.263	0.02
740.441	-0.21
740.62	0.2
740.798	0.07
740.976	-0.13
741.154	-0.13
741.332	0.22
741.511	-0.01
741.689	0.05
741.867	0.03
742.045	0.03
742.223	-0.08
742.401	-0.18
742.579	-0.03
742.757	-0.03
742.935	-0.14
743.114	-0.05
743.292	0
743.47	-0.06
743.648	0.08
743.826	0.01
744.004	0.03
744.181	-0.02
744.359	-0.12
744.537	0.05
744.715	-0.01
744.893	0
745.071	-0.04
745.249	-0.03
745.427	-0.09
745.605	0.11
745.782	0.05
745.96	-0.07
746.138	0.07
746.316	0.09
746.493	-0.04
746.671	0.03
746.849	0.02
747.027	0.16
747.204	-0.09
747.382	-0.04
747.56	-0.18
747.737	-0.01
747.915	-0.14
748.093	0
748.27	-0
748.448	-0
748.625	-0.21
748.803	-0.05
748.98	-0.17
749.158	-0.01
749.335	0.16
749.513	-0.01
749.69	-0.06
749.868	-0.03
750.045	0
750.223	-0.09
750.4	-0.21
750.578	0.26
750.755	-0.06
750.932	-0.24
751.11	0.03
751.287	-0.15
751.464	0.15
751.642	-0.05
751.819	0.14
751.996	-0.02
752.173	-0.11
752.351	-0.13
752.528	-0.02
752.705	-0.03
752.882	-0.04
753.06	0.07
753.237	0.03
753.414	0.21
753.591	0.25
753.768	-0.05
753.945	-0.13
754.122	-0.1
754.299	0.12
754.476	-0.09
754.654	0.01
754.831	0.05
755.008	0.09
755.185	0.02
755.362	-0.15
755.539	-0.01
755.716	-0.1
755.892	-0.1
756.069	-0.03
756.246	0.05
756.423	-0.09
756.6	0.17
756.777	-0
756.954	0.03
757.131	-0.03
757.307	0.02
757.484	-0.11
757.661	0
757.838	-0.05
758.015	-0.15
758.191	-0.01
758.368	0.02
758.545	0.12
758.721	0.12
758.898	-0.1
759.075	0.03
759.251	-0.01
759.428	0.03
759.605	-0.12
759.781	-0.02
759.958	0.06
760.134	0.09
760.311	-0.18
760.488	0.13
760.664	0.2
760.841	-0.11
761.017	-0.2
761.194	0
761.37	-0.05
761.547	-0.12
761.723	-0.12
761.899	0.07
762.076	-0.11
762.252	-0.14
762.429	-0.11
762.605	0.09
762.781	0.11
762.958	0.06
763.134	-0.2
763.31	-0.06
763.486	0.11
763.663	-0.1
763.839	-0.03
764.015	-0.18
764.191	-0.14
764.368	0.06
764.544	-0.05
764.72	0.02
764.896	-0.01
765.072	0.03
765.248	-0.04
765.425	-0.02
765.601	-0.02
765.777	0.04
765.953	-0.23
766.129	-0.08
766.305	-0.04
766.481	0.08
766.657	0.07
766.833	0.19
767.009	-0.18
767.185	-0
767.361	-0.01
767.537	0
767.713	0.19
767.889	-0.02
768.065	0.01
768.24	0.01
768.416	0.13
768.592	-0.21
768.768	-0.04
768.944	0.11
769.12	-0.12
769.295	-0.13
769.471	-0.05
769.647	-0.09
769.823	0.13
769.998	-0.14
770.174	0
770.35	0.32
770.525	0.08
770.701	0.06
770.877	0.03
771.052	-0.18
771.228	0.02
771.403	-0
771.579	0.02
771.755	0.3
771.93	-0.1
772.106	-0.29
772.281	-0.12
772.457	-0.07
772.632	-0.08
772.808	-0.22
772.983	-0.17
773.159	-0.11
773.334	0.2
773.509	0
773.685	-0.1
773.86	0.32
774.036	0.14
774.211	-0.06
774.386	0.01
774.562	0.03
774.737	0.11
774.912	-0.12
775.087	0.08
775.263	0.12
775.438	0.02
775.613	-0.07
775.788	-0.03
775.964	0.09
776.139	0.3
776.314	-0.09
776.489	0.02
776.664	0.12
776.839	-0.29
777.014	0.14
777.19	-0.04
777.365	0.12
777.54	0.25
777.715	-0.01
777.89	0.06
778.065	-0.21
778.24	-0.1
778.415	0.12
778.59	-0.18
778.765	-0.06
778.94	-0.1
779.115	0.01
779.289	-0.02
779.464	-0.02
779.639	-0.13
779.814	-0.12
779.989	-0.24
780.164	0.1
780.339	0.17
780.513	-0.23
780.688	-0.23
780.863	-0.12
781.038	0
781.212	-0.09
781.387	-0.24
781.562	0.32
781.737	-0.09
781.911	0.06
782.086	-0.1
782.261	-0.03
782.435	0.3
782.61	-0.09
782.784	0.05
782.959	0.23
783.134	-0.21
783.308	-0.22
783.483	-0.25
783.657	0.27
783.832	-0.07
784.006	-0.33
784.181	-0.11
784.355	0.12
784.53	-0.17
784.704	-0.38
784.878	0.2
785.053	0.18
785.227	0.06
785.402	0.36
785.576	-0.25
785.75	-0.08
785.925	-0.02
786.099	-0.17
786.273	0.09
786.448	0.07
786.622	0.11
786.796	0.07
786.97	-0.08
787.145	0.47
787.319	-0.28
787.493	-0.31
787.667	-0.43
787.841	-0.03
788.015	0.09
788.19	-0.13
788.364	-0.1
788.538	0.08
788.712	0.13
788.886	0.14
789.06	0.13
789.234	0.15
789.408	-0.37
789.582	-0.07
789.756	-0.07
789.93	-0.09
790.104	-0.08
790.278	-0.13
790.452	-0.17
790.626	-0
790.8	-0.09
790.973	0.22
791.147	0.05
791.321	0.41
791.495	0.3
791.669	-0.08
791.843	-0.12
792.016	-0.25
792.19	0.31
792.364	-0.22
792.538	0.6
792.711	0.16
792.885	-0.24
793.059	-0.32
793.233	-0.6
793.406	0.39
793.58	-0.03
793.754	0.05
793.927	0.24
794.101	0.34
794.274	-0.16
794.448	0.06
794.622	-0.4
794.795	0.06
794.969	-0.29
795.142	0.16
795.316	-0.15
795.489	-0.22
795.663	0.43
795.836	-0.3
796.009	-0.36
796.183	0.45
796.356	0.02
796.53	-0.08
796.703	-0.05
796.876	0.61
797.05	-0.16
797.223	-0.07
797.396	0.05
797.57	0.03
797.743	0.39
797.916	0.07
798.09	-0.14
798.263	0.37
798.436	0.11
798.609	-0.31
798.782	-0.23
798.956	0.16
799.129	0.02
799.302	-0.02
799.475	-0.31
799.648	-0.1
799.821	0.01
799.994	-0.02
800.167	-0.41
800.34	-0.16
800.514	0.04
800.687	-0.21
800.86	-0.27
801.033	-0.06
801.206	0.14
801.379	-0.1
801.551	0.27
801.724	0.16
801.897	0.5
802.07	-0.05
802.243	-0.61
802.416	-0.06
802.589	-0.07
802.762	0.08
802.935	0.01
803.107	0.39
803.28	0.36
803.453	0.16
803.626	-0.27
803.798	-0.05
803.971	-0.14
804.144	0.07
804.317	0.05
804.489	0.31
804.662	-0.09
804.835	0.05
805.007	-0.46
805.18	0.36
805.353	0.03
805.525	-0.1
805.698	-0.41
805.87	0.16
806.043	0.45
806.215	-0.53
806.388	-0.44
806.56	0.23
806.733	0.5
806.905	0.22
807.078	-0.34
807.25	-0.2
807.423	0.39
807.595	-0.11
807.768	-0.08
807.94	0.22
808.112	0.23
808.285	-0.03
808.457	-0.45
808.629	-0.03
808.802	0.33
808.974	-0.33
809.146	-0.06
809.318	-0.45
809.491	0.12
809.663	0.22
809.835	-0.14
810.007	0.1
810.18	0.05
810.352	-0.53
810.524	-0.21
810.696	-0.16
810.868	0.43
811.04	-0.41
811.212	-0.51
811.384	0.02
811.556	0.05
811.728	-0.17
811.901	0.88
812.073	-0.16
812.245	0.6
812.417	-0.07
812.589	-0.77
812.76	-0.04
812.932	-0
813.104	0.4
813.276	-0.41
813.448	0.5
813.62	-0.21
813.792	-0.05
813.964	-0.26
814.136	0.46
814.307	0.11
814.479	0.01
814.651	-0.28
814.823	0.63
814.995	-0.43
815.166	0.08
815.338	-0.45
815.51	-0.71
815.681	0.7
815.853	-0.22
816.025	-0.1
816.196	0.38
816.368	0.39
816.54	-0.7
816.711	-0.33
816.883	0.55
817.054	0.9
817.226	-0.56
817.398	0.2
817.569	-0.52
817.741	-0.13
817.912	-0.41
818.084	-0.25
818.255	0.48
818.426	-0.52
818.598	-0.01
818.769	-0.6
818.941	0.48
819.112	0.71
819.283	0.5
819.455	-0.31
819.626	-0.28
819.798	-0.07
819.969	-0.09
820.14	-0.18
820.311	-0.48
820.483	-0.11
820.654	-0.13
820.825	0.04
820.996	-0.35
821.168	-0.44
821.339	0.21
821.51	-0.96
821.681	-0.41
821.852	0.03
822.023	-0.32
822.195	-0.36
822.366	0.43
822.537	-0.37
822.708	-0.08
822.879	-0.51
823.05	0.7
823.221	-0.31
823.392	0.2
823.563	-0.25
823.734	0.04
823.905	0.12
824.076	-0.13
824.247	-0.19
824.418	0.06
824.589	0.86
824.759	-0.54
824.93	-0.65
825.101	-0.81
825.272	1.03
825.443	-0.12
825.614	0.21
825.784	-0.72
825.955	1.26
826.126	0.58
826.297	-0.05
826.467	0.07
826.638	0.86
826.809	-0.71
826.98	-0.05
827.15	-0.09
827.321	0.45
827.492	0.7
827.662	-0.31
827.833	1.46
828.003	-0.02
828.174	-0.74
828.345	-0.73
828.515	0.6
828.686	0.03
828.856	0.02
829.027	-0.67
829.197	0.16
829.368	-0.01
829.538	-0.14
829.709	-0.82
829.879	-0.34
830.049	-0.25
830.22	-0.47
830.39	0.39
830.56	0.9
830.731	-0.36
830.901	-0.37
831.072	-0.56
831.242	0.31
831.412	-0.3
831.582	-0.64
831.753	-0.91
831.923	-0.19
832.093	-0.27
832.263	-0.07
832.434	-0.34
832.604	-0.37
832.774	0.01
832.944	-0.25
833.114	-0.02
833.284	0.23
833.454	-0.37
833.624	-0.39
833.795	-0.18
833.965	0.21
834.135	0.37
834.305	-0.96
834.475	-0.72
834.645	-0.22
834.815	-0.68
834.985	-0.17
835.155	-0.26
835.325	0.31
835.494	0.44
835.664	-0.35
835.834	-0.46
836.004	0.3
836.174	-0.28
836.344	-0.59
836.514	-1.48
836.684	0.1
836.853	-0.36
837.023	-0.36
837.193	-0.6
837.363	0.84
837.532	0.53
837.702	-0.45
837.872	-1.06
838.041	0.24
838.211	1.66
838.381	-0.56
838.55	0.15
838.72	2.21
838.89	1.23
839.059	-0.59
839.229	-0.49
839.398	1.2
839.568	0.14
839.738	-0.21
839.907	0.8
840.077	0.01
840.246	-0.23
840.416	-0.47
840.585	-1.08
840.755	0.78
840.924	1.17
841.093	-0.45
841.263	-0.28
841.432	0.14
841.602	-1.11
841.771	-0.5
841.94	0.25
842.11	1.88
842.279	1.42
842.448	-0.64
842.617	-0.33
842.787	0.18
842.956	-1.31
843.125	-0.84
843.294	0.23
843.464	0.8
843.633	-0.5
843.802	-1.02
843.971	-0.31
844.14	0.6
844.309	0.18
844.479	-0.95
844.648	-0.95
844.817	-0.16
844.986	-0.43
845.155	-0.47
845.324	-0.66
845.493	-0.23
845.662	-0.39
845.831	0.45
846	0.56
846.169	-0.09
846.338	1.25
846.507	0.34
846.676	0.04
846.844	-0.85
847.013	0.71
847.182	-0.25
847.351	-0.91
847.52	-0.47
847.689	0.55
847.858	-0.87
848.026	-0.12
848.195	-0.39
848.364	-0.33
848.533	-1
848.701	0.06
848.87	-0.06
849.039	0.19
849.207	1.12
849.376	1.13
849.545	1.75
849.713	-0.74
849.882	-0.48
850.051	-0.08
850.219	-0.2
850.388	0.63
850.556	-1.26
850.725	-0.54
850.893	0.02
851.062	0
851.23	0.9
851.399	-2.09
851.567	-1.87
851.736	-0.28
851.904	-1.17
852.073	-1.14
852.241	1.43
852.41	-0.11
852.578	-0.44
852.746	-0.82
852.915	0.59
853.083	-0.75
853.251	-1.6
853.42	-0.93
853.588	-0.17
853.756	-0.02
853.924	-0.52
854.093	-0.31
854.261	0.34
854.429	-1.17
854.597	-0.32
854.765	-0.55
854.934	0.32
855.102	0.82
855.27	-0.02
855.438	-0.13
855.606	0.27
855.774	0.5
855.942	-1.35
856.11	-1.68
856.278	-0.17
856.446	1
856.614	0.27
856.782	-2.28
856.95	0.38
857.118	0.57
857.286	0.23
857.454	-0.73
857.622	0.53
857.79	-0.38
857.958	-1.21
858.126	-0.49
858.294	-3.5
858.462	-0.39
858.629	-0.35
858.797	-1.87
858.965	0.12
859.133	-0.09
859.301	-0.08
859.468	-0.82
859.636	-0.89
859.804	1.05
859.971	-0.36
860.139	-1.14
860.307	0.43
860.474	0.38
860.642	-1.09
860.81	-0.99
860.977	-0.54
861.145	1.72
861.313	-0.06
861.48	0.91
861.648	1.87
861.815	-0.36
861.983	-0.33
862.15	-0.89
862.318	1.05
862.485	1.91
862.653	-0.8
862.82	-1.62
862.988	0.63
863.155	0.62
863.322	-1.95
863.49	-0.74
863.657	-1.09
863.824	1.61
863.992	-1.06
864.159	0.78
864.326	1.58
864.494	-0.69
864.661	1.58
864.828	-1.69
864.996	1.65
865.163	1.83
865.33	-1.39
865.497	-4.87
865.664	-0.37
865.832	-1.71
865.999	-0.15
866.166	-1.71
866.333	-1.61
866.5	-1.98
866.667	0.2
866.834	-0.81
867.001	3.03
867.168	-2.25
867.335	-0.16
867.502	-0.52
867.669	-0.07
867.836	1.17
868.003	-0.18
868.17	2.05
868.337	-2.29
868.504	1.52
868.671	-3.23
868.838	-2.46
869.005	-0.17
869.172	0.94
869.339	-0.67
869.505	0.58
869.672	0.48
869.839	1.4
870.006	-1.78
870.173	-1.75
870.339	0.22
870.506	1.72
870.673	0
870.84	0.84
871.006	-0.25
871.173	0.05
871.34	0.3
871.506	-1.07
871.673	0.72
871.839	-2.02
872.006	0.9
872.173	-1.15
872.339	-0.72
872.506	1.64
872.672	0.45
872.839	-1.13
873.005	0.02
873.172	2.59
873.338	0.59
873.505	-0.28
873.671	-0.02
873.838	0.2
874.004	-2.07
874.171	-2
874.337	-0.27
874.503	0.07
874.67	-1.2
874.836	-0.69
875.002	1.75
875.169	0.38
875.335	-1.46
875.501	-1.12
875.668	0.44
875.834	-0.55
876	-0.37
876.166	1.41
876.332	-0.9
876.499	2.55
876.665	-0.92
876.831	-0.53
876.997	3.85
877.163	0.17
877.329	-1.85
877.495	0.37
877.662	1.21
877.828	1.81
877.994	0.61
878.16	-3.64
878.326	-1
878.492	-0.87
878.658	-0.29
878.824	0.13
878.99	1.88
879.156	-1
879.322	-0.63
879.487	0.08
879.653	0.6
879.819	-1.4
879.985	-1.3
880.151	-0.43
880.317	-0.65
880.483	1.23
880.648	2.06
880.814	-1.32
880.98	1.33
881.146	-2.61
881.312	-2.06
881.477	-1.67
881.643	-0.11
881.809	2.07
881.974	1.28
882.14	-2.65
882.306	-1.39
882.471	3.17
882.637	-1.03
882.803	2.49
882.968	2.06
883.134	2.99
883.299	0.51
883.465	0.3
883.63	1.74
883.796	0.08
883.961	-0.73
884.127	-2.47
884.292	-3.86
884.458	-2.31
884.623	-2.3
