Data from Apollo_Calib_20240827__AbsoluteIrradiance__98__00-47-01-646.txt Node

Date: Wed Aug 28 00:47:01 BST 2024
User: biology
Spectrometer: FLMT08252
Trigger mode: 0
Integration Time (sec): 5.000000E-1
Scans to average: 5
Electric dark correction enabled: true
Nonlinearity correction enabled: false
Boxcar width: 0
XAxis mode: Wavelengths
Number of Pixels in Spectrum: 3648
>>>>>Begin Spectral Data<<<<<
179.588	-0
179.809	-0
180.03	-0
180.251	-0
180.473	-0
180.694	0
180.915	0
181.136	-0
181.357	0
181.578	-0
181.799	-0
182.02	-0
182.241	0
182.462	-0
182.683	0
182.904	-0
183.125	0
183.346	0
183.567	0
183.788	-0
184.009	-0
184.23	-0
184.451	0
184.672	-0
184.892	-0
185.113	0
185.334	0
185.555	-0
185.776	-0
185.996	0
186.217	0
186.438	-0
186.659	-0
186.879	0
187.1	-0
187.321	-0
187.541	-0
187.762	-0
187.983	0
188.203	-0
188.424	-0
188.644	0
188.865	-0
189.086	-0
189.306	-0
189.527	-0
189.747	-0
189.968	-0
190.188	-0
190.409	-0
190.629	0
190.849	-0
191.07	-0
191.29	0
191.511	0
191.731	-0
191.951	-0
192.172	-0
192.392	-0
192.612	-0
192.833	0
193.053	0
193.273	0
193.493	-0
193.714	0
193.934	0
194.154	0
194.374	0
194.594	-0
194.815	-0
195.035	0
195.255	-0
195.475	-0
195.695	0
195.915	0
196.135	-0
196.355	0
196.575	0
196.795	0
197.015	-0
197.235	-0
197.455	-0
197.675	0
197.895	-0
198.115	-0
198.335	0
198.555	-0
198.775	0
198.995	0
199.214	0
199.434	-0
199.654	-0
199.874	-0
200.094	0.81
200.313	-0.66
200.533	-0.34
200.753	-0.74
200.973	0.71
201.192	0.17
201.412	-0.65
201.632	-0.49
201.851	0.32
202.071	-0.67
202.291	-0.31
202.51	-0.75
202.73	0.4
202.95	-0.02
203.169	-0.8
203.389	-0
203.608	-0.16
203.828	-0.76
204.047	-0.62
204.267	0.1
204.486	-0.2
204.706	-0.26
204.925	-0.1
205.145	-0.17
205.364	0.18
205.583	0.28
205.803	-0.11
206.022	-0.19
206.242	-0.04
206.461	0.05
206.68	-0.05
206.9	0.07
207.119	0.06
207.338	0.4
207.557	-0.43
207.777	-0.23
207.996	-0
208.215	0.54
208.434	-0.11
208.654	-0.47
208.873	-0
209.092	0.43
209.311	-0.54
209.53	-0.07
209.749	-0.15
209.968	-0.44
210.187	-0.13
210.407	-0.46
210.626	-0.18
210.845	0.13
211.064	-0.11
211.283	-0.28
211.502	0.13
211.721	-0.08
211.94	-0.08
212.159	-0.05
212.377	0.13
212.596	0.31
212.815	0.1
213.034	0.18
213.253	0
213.472	-0.2
213.691	-0.2
213.91	-0.33
214.128	-0.26
214.347	0.21
214.566	-0.43
214.785	-0.29
215.003	0.07
215.222	0.09
215.441	0.06
215.66	-0.28
215.878	0.1
216.097	0.11
216.316	-0.32
216.534	-0.21
216.753	0.06
216.972	-0.19
217.19	-0.13
217.409	-0.29
217.627	-0.27
217.846	-0.03
218.064	0.07
218.283	-0.34
218.501	0.35
218.72	0.14
218.938	-0.31
219.157	-0.05
219.375	0.05
219.594	-0.07
219.812	-0.19
220.031	-0.12
220.249	0.27
220.467	0.2
220.686	-0.06
220.904	-0.17
221.122	-0.18
221.341	0.24
221.559	0.04
221.777	-0.14
221.995	-0.01
222.214	0.04
222.432	-0.05
222.65	0.07
222.868	0.06
223.086	0.02
223.305	-0.04
223.523	-0.05
223.741	0.14
223.959	-0.24
224.177	-0.27
224.395	-0.15
224.613	-0.04
224.831	0.02
225.049	-0.18
225.267	-0.16
225.485	0.23
225.703	-0.09
225.921	-0.01
226.139	-0.11
226.357	-0.05
226.575	0.05
226.793	-0.13
227.011	0.48
227.229	-0.02
227.447	0.12
227.665	-0.14
227.883	-0.32
228.1	-0.02
228.318	0
228.536	-0.22
228.754	-0.13
228.972	0.01
229.189	0
229.407	-0.03
229.625	-0.04
229.843	0.1
230.06	0.15
230.278	-0.04
230.496	-0.17
230.713	-0.01
230.931	0.18
231.149	-0.14
231.366	-0.24
231.584	-0.04
231.801	0.23
232.019	-0.03
232.236	-0.16
232.454	-0.13
232.671	-0.07
232.889	-0.08
233.106	-0.19
233.324	-0.05
233.541	-0.02
233.759	0.08
233.976	-0.07
234.194	-0.03
234.411	-0.14
234.628	-0.16
234.846	-0.08
235.063	-0.03
235.28	-0.07
235.498	-0.03
235.715	-0.12
235.932	0.06
236.149	-0.07
236.367	-0.02
236.584	-0.05
236.801	-0.1
237.018	-0.03
237.236	-0.03
237.453	-0.23
237.67	0.07
237.887	-0.06
238.104	-0.04
238.321	-0.11
238.538	-0.05
238.755	0.02
238.973	-0.22
239.19	0.01
239.407	-0.05
239.624	-0.03
239.841	-0.06
240.058	-0.02
240.275	0
240.492	-0.03
240.709	-0.04
240.925	-0.06
241.142	0.08
241.359	-0.07
241.576	-0.06
241.793	-0.09
242.01	-0
242.227	0.03
242.444	0.04
242.66	0.05
242.877	0.01
243.094	-0.01
243.311	-0
243.527	-0.06
243.744	-0.02
243.961	0.07
244.178	-0.11
244.394	-0.02
244.611	-0.02
244.828	0.18
245.044	-0.15
245.261	0.05
245.477	-0.06
245.694	-0.03
245.911	-0.05
246.127	0.06
246.344	0.07
246.56	-0.03
246.777	0.01
246.993	0.07
247.21	0.01
247.426	0.05
247.643	-0.03
247.859	-0.11
248.076	-0.12
248.292	0.06
248.508	-0.07
248.725	-0.03
248.941	0
249.157	0.06
249.374	-0.01
249.59	-0.04
249.806	-0.04
250.023	-0
250.239	-0.07
250.455	-0.05
250.671	0.08
250.888	0.05
251.104	0.01
251.32	0
251.536	-0.03
251.752	-0.05
251.969	-0.02
252.185	0.02
252.401	0.13
252.617	-0.03
252.833	-0.03
253.049	0.05
253.265	0.03
253.481	-0
253.697	-0.08
253.913	-0.15
254.129	0.06
254.345	-0.03
254.561	-0.05
254.777	-0.01
254.993	0.11
255.209	-0.04
255.425	-0.03
255.641	-0.12
255.857	0.09
256.073	0.01
256.288	-0.11
256.504	-0.09
256.72	-0.05
256.936	0.09
257.152	-0.04
257.367	-0.01
257.583	0.01
257.799	0.04
258.015	-0.04
258.23	-0.03
258.446	0.13
258.662	-0.03
258.877	-0.1
259.093	-0.01
259.309	-0.04
259.524	-0.03
259.74	-0.02
259.955	-0.08
260.171	0.01
260.387	-0.05
260.602	0.08
260.818	0.02
261.033	-0.12
261.249	-0.01
261.464	-0.04
261.68	-0.05
261.895	0.07
262.11	0.03
262.326	-0.09
262.541	-0.09
262.757	0.05
262.972	0.01
263.187	0.07
263.403	-0.05
263.618	0.06
263.833	0
264.049	-0.05
264.264	0.01
264.479	0.07
264.694	0.05
264.91	-0.1
265.125	-0.04
265.34	0.08
265.555	0.1
265.77	0.04
265.986	-0
266.201	0.02
266.416	0.12
266.631	-0.06
266.846	0.04
267.061	0.01
267.276	-0.03
267.491	-0.14
267.706	0.03
267.921	0.01
268.136	-0.04
268.351	-0.03
268.566	-0.11
268.781	0.02
268.996	0.06
269.211	0.03
269.426	-0.15
269.641	-0.1
269.856	0.05
270.071	-0.07
270.285	-0.07
270.5	0.02
270.715	0.06
270.93	-0.04
271.145	0.01
271.359	0.01
271.574	-0.03
271.789	0.02
272.004	-0.06
272.218	-0.03
272.433	0.06
272.648	-0.04
272.862	0.1
273.077	-0.06
273.292	0.03
273.506	-0.06
273.721	-0.01
273.936	-0
274.15	0.09
274.365	0.01
274.579	0.05
274.794	0.04
275.008	0.05
275.223	-0.07
275.437	0
275.652	-0.02
275.866	0.08
276.081	-0.06
276.295	0.04
276.509	0.02
276.724	0.05
276.938	-0.04
277.153	-0.03
277.367	0.03
277.581	0.02
277.796	-0.09
278.01	-0.1
278.224	0.1
278.438	0.07
278.653	-0.07
278.867	-0.02
279.081	-0.04
279.295	-0.03
279.51	0.05
279.724	-0.1
279.938	0.07
280.152	0.04
280.366	-0.01
280.58	0.05
280.794	0.06
281.008	0.02
281.222	0.01
281.437	0.1
281.651	0.02
281.865	0.05
282.079	0.01
282.293	-0.1
282.507	-0.07
282.721	-0.06
282.935	-0.02
283.148	-0.08
283.362	-0.03
283.576	-0.02
283.79	-0.02
284.004	-0.08
284.218	-0
284.432	-0.06
284.646	-0.03
284.859	-0.06
285.073	-0.03
285.287	0.02
285.501	-0.01
285.714	-0.04
285.928	0.04
286.142	-0.04
286.356	-0.06
286.569	-0.01
286.783	0.07
286.997	0.05
287.21	0.01
287.424	0.04
287.637	0.04
287.851	0.01
288.065	0.02
288.278	0
288.492	-0.03
288.705	-0.02
288.919	0
289.132	-0.06
289.346	0.07
289.559	-0.08
289.773	-0.07
289.986	-0.01
290.2	-0
290.413	0.04
290.626	-0.05
290.84	0.01
291.053	-0.03
291.267	0.09
291.48	-0.04
291.693	-0.03
291.906	-0.03
292.12	-0.03
292.333	0.01
292.546	-0.06
292.76	0.04
292.973	-0.01
293.186	0.03
293.399	-0.03
293.612	0.02
293.826	-0
294.039	0.03
294.252	0.01
294.465	-0.02
294.678	0.04
294.891	0.03
295.104	-0.11
295.317	-0.01
295.53	0
295.743	-0.02
295.956	-0.02
296.169	0
296.382	0.01
296.595	0.03
296.808	-0.04
297.021	0.02
297.234	0.06
297.447	0
297.66	-0.01
297.873	0.06
298.086	0.02
298.299	-0.04
298.511	-0.09
298.724	0.04
298.937	-0.05
299.15	-0.02
299.363	0.02
299.575	0
299.788	0.05
300.001	0.03
300.213	0.03
300.426	-0
300.639	0.01
300.852	-0.05
301.064	0.08
301.277	0.03
301.489	0.04
301.702	0.02
301.915	-0.01
302.127	-0.02
302.34	-0.01
302.552	0
302.765	-0.04
302.977	-0.01
303.19	-0.05
303.402	-0.05
303.615	-0.03
303.827	-0.05
304.04	0.03
304.252	0.01
304.464	-0.04
304.677	0.11
304.889	0.01
305.102	-0.04
305.314	0
305.526	0.02
305.739	0.03
305.951	-0.02
306.163	0
306.375	0.08
306.588	-0.04
306.8	-0.05
307.012	-0.03
307.224	-0.03
307.436	0.04
307.649	-0.07
307.861	0.03
308.073	0.03
308.285	-0.01
308.497	-0.01
308.709	-0.06
308.921	-0.02
309.133	0.07
309.346	0.01
309.558	-0.03
309.77	0.03
309.982	0.08
310.194	0
310.406	-0.01
310.617	0.07
310.829	0.04
311.041	0.02
311.253	-0.02
311.465	-0.02
311.677	-0.02
311.889	0
312.101	-0.05
312.313	0.11
312.524	0.03
312.736	-0.03
312.948	-0.05
313.16	0.08
313.372	0.06
313.583	0.03
313.795	0.02
314.007	-0.04
314.218	-0.01
314.43	-0.02
314.642	-0.01
314.853	-0.08
315.065	0
315.277	0.01
315.488	0.01
315.7	0.05
315.912	0.01
316.123	0.02
316.335	-0.01
316.546	0.1
316.758	0.01
316.969	-0.02
317.181	0.01
317.392	0.02
317.604	0.04
317.815	-0.06
318.026	-0.07
318.238	-0.02
318.449	-0.01
318.661	-0.08
318.872	-0.05
319.083	-0.06
319.295	0.01
319.506	0
319.717	0.04
319.929	-0
320.14	-0.02
320.351	-0.01
320.562	-0.03
320.774	-0
320.985	-0.03
321.196	-0.01
321.407	-0.1
321.618	0.04
321.829	-0.02
322.041	0.03
322.252	0.01
322.463	0.02
322.674	-0.01
322.885	-0.04
323.096	-0.02
323.307	-0.05
323.518	0.01
323.729	-0.05
323.94	0.02
324.151	-0.01
324.362	0.02
324.573	0.01
324.784	-0.05
324.995	0.03
325.206	-0
325.417	-0.03
325.628	-0.01
325.838	-0.01
326.049	-0.02
326.26	0.04
326.471	-0.05
326.682	0
326.892	0.01
327.103	-0.08
327.314	-0.04
327.525	-0
327.735	0
327.946	-0.04
328.157	-0.01
328.368	0.03
328.578	-0.02
328.789	0.01
328.999	-0
329.21	-0.01
329.421	0.04
329.631	-0.03
329.842	-0.05
330.052	0.02
330.263	0.03
330.473	0.04
330.684	-0.03
330.894	-0
331.105	0.02
331.315	-0
331.526	-0.06
331.736	0.07
331.947	0.01
332.157	-0.01
332.367	-0.02
332.578	0.05
332.788	0.05
332.999	0
333.209	0.02
333.419	-0.02
333.629	-0.01
333.84	0.02
334.05	0.02
334.26	0.04
334.47	0.03
334.681	0.04
334.891	-0.04
335.101	0.05
335.311	0.05
335.521	0.01
335.732	-0.05
335.942	0.08
336.152	0.04
336.362	0.01
336.572	0.02
336.782	0.04
336.992	0.02
337.202	-0.02
337.412	-0
337.622	0
337.832	-0.01
338.042	0.01
338.252	0.01
338.462	-0
338.672	-0.04
338.882	-0.05
339.092	0.03
339.302	0.06
339.511	-0.01
339.721	-0.01
339.931	-0.04
340.141	0.04
340.351	0.09
340.561	0.03
340.77	0.03
340.98	0.02
341.19	0.02
341.4	-0
341.609	-0.03
341.819	0.02
342.029	-0.07
342.238	0.01
342.448	-0.02
342.658	0.03
342.867	0.03
343.077	-0
343.286	0.02
343.496	-0
343.706	0.05
343.915	-0.04
344.125	-0
344.334	0
344.544	-0.03
344.753	-0.01
344.963	-0.01
345.172	-0.05
345.381	-0.05
345.591	-0.05
345.8	-0.02
346.01	0.09
346.219	0.04
346.428	-0.13
346.638	-0
346.847	0
347.056	0.03
347.266	0.01
347.475	0.02
347.684	-0.02
347.893	0.01
348.103	-0.04
348.312	-0.02
348.521	-0
348.73	-0.03
348.94	0.01
349.149	0.01
349.358	0
349.567	0.01
349.776	-0
349.985	0.03
350.194	0.02
350.403	0.07
350.612	-0.06
350.821	-0.02
351.03	-0.01
351.239	-0.03
351.448	0.01
351.657	-0.02
351.866	0.04
352.075	-0
352.284	0.06
352.493	-0.03
352.702	0.05
352.911	0.08
353.12	0.05
353.329	0.01
353.538	0.03
353.746	0.01
353.955	-0.02
354.164	0.03
354.373	-0.01
354.582	0.04
354.79	0.03
354.999	0.04
355.208	-0.02
355.416	0.07
355.625	-0.04
355.834	-0
356.042	0.02
356.251	-0.01
356.46	-0.04
356.668	0.01
356.877	0.11
357.085	0.03
357.294	-0.09
357.503	0.05
357.711	0.01
357.92	0.12
358.128	-0
358.337	-0.02
358.545	-0.04
358.754	0
358.962	0.05
359.17	0.01
359.379	0.01
359.587	0.04
359.796	-0.02
360.004	0.06
360.212	0.03
360.421	0.07
360.629	0.01
360.837	-0.02
361.046	0.03
361.254	0.04
361.462	0.04
361.67	-0.01
361.879	0.03
362.087	0.1
362.295	0.02
362.503	0
362.711	-0.05
362.92	-0
363.128	-0.02
363.336	-0.01
363.544	-0.05
363.752	0.04
363.96	-0.03
364.168	0.02
364.376	0.01
364.584	0.05
364.792	0.05
365	0.04
365.208	0.04
365.416	0.04
365.624	0.06
365.832	0
366.04	0.05
366.248	0.04
366.456	0.04
366.664	0.03
366.872	0.04
367.079	0.05
367.287	0.08
367.495	0.06
367.703	0.01
367.911	0.03
368.118	0.01
368.326	0.04
368.534	0.02
368.742	0.1
368.949	0.02
369.157	0.06
369.365	0.15
369.572	0.11
369.78	0.07
369.988	0.14
370.195	0.14
370.403	0.14
370.61	0.13
370.818	0.17
371.026	0.28
371.233	0.19
371.441	0.19
371.648	0.27
371.856	0.26
372.063	0.26
372.271	0.25
372.478	0.3
372.685	0.31
372.893	0.35
373.1	0.38
373.308	0.38
373.515	0.49
373.722	0.48
373.93	0.47
374.137	0.55
374.344	0.58
374.552	0.57
374.759	0.65
374.966	0.64
375.173	0.68
375.381	0.77
375.588	0.65
375.795	0.69
376.002	0.75
376.209	0.78
376.417	0.89
376.624	0.96
376.831	0.97
377.038	1
377.245	0.98
377.452	1.14
377.659	1.25
377.866	1.2
378.073	1.33
378.28	1.34
378.487	1.47
378.694	1.52
378.901	1.59
379.108	1.6
379.315	1.78
379.522	1.88
379.729	1.9
379.936	1.91
380.143	2.05
380.35	2.13
380.557	2.25
380.763	2.26
380.97	2.32
381.177	2.4
381.384	2.46
381.591	2.56
381.797	2.58
382.004	2.69
382.211	2.75
382.418	2.75
382.624	2.82
382.831	2.75
383.038	2.87
383.244	2.82
383.451	2.78
383.658	2.73
383.864	2.77
384.071	2.73
384.277	2.8
384.484	2.67
384.69	2.64
384.897	2.5
385.103	2.42
385.31	2.34
385.516	2.31
385.723	2.15
385.929	2.15
386.136	1.97
386.342	2.05
386.549	1.88
386.755	1.83
386.961	1.78
387.168	1.64
387.374	1.61
387.58	1.59
387.787	1.47
387.993	1.45
388.199	1.3
388.406	1.24
388.612	1.18
388.818	1.14
389.024	1.08
389.231	1.16
389.437	1.09
389.643	1.06
389.849	1.03
390.055	0.97
390.261	0.92
390.467	0.95
390.674	0.84
390.88	0.89
391.086	0.84
391.292	0.84
391.498	0.8
391.704	0.81
391.91	0.74
392.116	0.65
392.322	0.53
392.528	0.7
392.734	0.63
392.94	0.62
393.146	0.59
393.352	0.57
393.557	0.56
393.763	0.59
393.969	0.57
394.175	0.47
394.381	0.53
394.587	0.44
394.792	0.43
394.998	0.49
395.204	0.46
395.41	0.4
395.615	0.44
395.821	0.37
396.027	0.36
396.233	0.34
396.438	0.34
396.644	0.4
396.85	0.35
397.055	0.29
397.261	0.33
397.466	0.32
397.672	0.25
397.878	0.26
398.083	0.27
398.289	0.23
398.494	0.27
398.7	0.23
398.905	0.13
399.111	0.24
399.316	0.17
399.522	0.14
399.727	0.21
399.932	0.2
400.138	0.17
400.343	0.24
400.549	0.22
400.754	0.13
400.959	0.15
401.165	0.22
401.37	0.19
401.575	0.23
401.78	0.16
401.986	0.11
402.191	0.14
402.396	0.16
402.601	0.17
402.807	0.17
403.012	0.15
403.217	0.15
403.422	0.14
403.627	0.14
403.832	0.09
404.037	0.15
404.243	0.14
404.448	0.11
404.653	0.1
404.858	0.11
405.063	0.17
405.268	0.08
405.473	0.08
405.678	0.05
405.883	0.26
406.088	0.14
406.293	0.05
406.498	0.08
406.703	0.1
406.907	0.1
407.112	0.07
407.317	0.1
407.522	0.15
407.727	0.04
407.932	0.12
408.136	0.13
408.341	0.13
408.546	0.08
408.751	0.08
408.956	0.12
409.16	0.1
409.365	0.05
409.57	0.04
409.774	0.05
409.979	0.12
410.184	0.03
410.388	0.02
410.593	0.14
410.798	0.07
411.002	0.05
411.207	0.11
411.411	0.1
411.616	0.03
411.82	0.04
412.025	0.1
412.229	0.01
412.434	0.13
412.638	0.05
412.843	0.02
413.047	0.08
413.252	-0.02
413.456	0.05
413.66	0.08
413.865	0.05
414.069	0.08
414.273	0.04
414.478	0.02
414.682	0.03
414.886	0.03
415.091	0.03
415.295	0.02
415.499	0.05
415.703	0.02
415.908	0.09
416.112	-0.02
416.316	0.05
416.52	0.03
416.724	-0.05
416.929	0.01
417.133	0.11
417.337	0.04
417.541	-0.03
417.745	0.02
417.949	0.08
418.153	0.04
418.357	-0
418.561	0.08
418.765	0.05
418.969	0.12
419.173	0.03
419.377	-0.03
419.581	0.07
419.785	-0.01
419.989	0.02
420.193	0
420.397	0.04
420.601	0.07
420.804	0.06
421.008	-0.01
421.212	0.06
421.416	0.01
421.62	-0.03
421.823	0.03
422.027	0.1
422.231	0.06
422.435	0.05
422.638	0.02
422.842	0.04
423.046	-0.03
423.249	0.05
423.453	-0.01
423.657	0.03
423.86	0.02
424.064	0.01
424.268	0.08
424.471	0.01
424.675	0.09
424.878	0.09
425.082	0.01
425.285	0.1
425.489	0.01
425.692	0
425.896	-0.05
426.099	0.08
426.303	0.01
426.506	-0.01
426.71	0.03
426.913	0.05
427.116	0.06
427.32	0.03
427.523	0.05
427.726	0.07
427.93	-0.02
428.133	0.03
428.336	-0.03
428.54	0.06
428.743	0.05
428.946	0.05
429.149	0.03
429.353	0.08
429.556	0.01
429.759	0.02
429.962	-0.08
430.165	0.02
430.368	0.03
430.571	0
430.775	0.1
430.978	0.03
431.181	0.03
431.384	0.04
431.587	0.04
431.79	0.01
431.993	0.04
432.196	0.03
432.399	-0
432.602	0.11
432.805	0.04
433.008	0.02
433.211	-0.03
433.414	0.07
433.616	0.04
433.819	0.05
434.022	-0.06
434.225	0.09
434.428	0.08
434.631	0.15
434.833	0.01
435.036	0.02
435.239	0.1
435.442	0.02
435.645	0.02
435.847	0.06
436.05	0.04
436.253	0.02
436.455	0
436.658	0.06
436.861	0.09
437.063	0.03
437.266	0.05
437.468	0.06
437.671	0.19
437.874	0.08
438.076	-0.02
438.279	-0.03
438.481	0.04
438.684	0.02
438.886	0.07
439.089	-0.02
439.291	0.07
439.494	0.11
439.696	0.03
439.899	0.04
440.101	0.05
440.303	-0.02
440.506	0.11
440.708	0.08
440.91	0.08
441.113	0.02
441.315	0.13
441.517	0.02
441.72	0.11
441.922	0.03
442.124	0.02
442.326	0.04
442.529	0.17
442.731	0.02
442.933	0.11
443.135	0.07
443.337	0.05
443.539	0.03
443.742	0.02
443.944	0.07
444.146	0.02
444.348	0.06
444.55	0.04
444.752	0.05
444.954	0.03
445.156	0.08
445.358	0.06
445.56	0.08
445.762	-0
445.964	0.05
446.166	0.04
446.368	0.05
446.57	0.13
446.772	0.1
446.974	0.05
447.175	0.06
447.377	0.03
447.579	0.08
447.781	-0.04
447.983	0.15
448.184	0.06
448.386	0.08
448.588	-0.01
448.79	0.07
448.991	0.07
449.193	0.04
449.395	0.07
449.597	0.09
449.798	0.08
450	0.1
450.202	0.04
450.403	0.02
450.605	0.13
450.806	0.08
451.008	-0
451.21	0.09
451.411	0.07
451.613	0.03
451.814	0.06
452.016	0.09
452.217	0.04
452.419	0.09
452.62	0.06
452.821	0.14
453.023	0.13
453.224	0.12
453.426	0.12
453.627	0.06
453.828	0.11
454.03	0.05
454.231	0.11
454.432	0.01
454.634	0.13
454.835	0.07
455.036	0.01
455.238	0.09
455.439	0.14
455.64	0.01
455.841	0.01
456.042	0.22
456.244	0.02
456.445	-0.01
456.646	0.01
456.847	0.04
457.048	0.07
457.249	0.08
457.45	0.17
457.651	0
457.852	0.06
458.054	0.08
458.255	0.04
458.456	0.08
458.657	0.09
458.858	0.04
459.058	0.05
459.259	0.09
459.46	0.07
459.661	0.03
459.862	0.12
460.063	0.08
460.264	0.07
460.465	-0
460.666	0.11
460.866	0
461.067	0.02
461.268	-0
461.469	-0.02
461.67	0
461.87	0.06
462.071	-0.01
462.272	0.01
462.473	0.05
462.673	0.04
462.874	-0.02
463.075	0.04
463.275	-0.05
463.476	0.04
463.676	0.09
463.877	0.04
464.078	0.03
464.278	0.03
464.479	0.04
464.679	0.03
464.88	0.04
465.08	0.07
465.281	-0.02
465.481	-0.01
465.682	0.01
465.882	0.07
466.083	0.08
466.283	-0.01
466.483	-0.03
466.684	-0.02
466.884	-0
467.085	0.02
467.285	0.04
467.485	-0.02
467.686	0.01
467.886	-0.04
468.086	0.02
468.286	0.02
468.487	0.04
468.687	-0.02
468.887	-0.02
469.087	0.01
469.287	-0.03
469.488	-0.04
469.688	0.03
469.888	0.03
470.088	0.05
470.288	0.04
470.488	0.04
470.688	-0.02
470.888	-0.03
471.088	0.01
471.288	0.04
471.488	0.06
471.688	0.01
471.888	0
472.088	0.11
472.288	0.04
472.488	-0.01
472.688	-0.02
472.888	0.02
473.088	-0.02
473.288	-0.01
473.488	0.01
473.688	0.1
473.887	0.01
474.087	-0.06
474.287	0.03
474.487	-0.03
474.687	0.04
474.886	0
475.086	0
475.286	0.02
475.486	0.03
475.685	-0.03
475.885	0.02
476.085	0.03
476.284	0.04
476.484	-0.02
476.684	0.05
476.883	0.06
477.083	0
477.282	0.01
477.482	0.06
477.681	0.07
477.881	0.01
478.08	-0.03
478.28	-0.01
478.479	0.02
478.679	0.09
478.878	-0.02
479.078	0.02
479.277	0.01
479.477	0.01
479.676	0.02
479.875	0
480.075	-0.06
480.274	0.03
480.473	0.01
480.673	-0.02
480.872	0.05
481.071	0.01
481.271	0
481.47	0.01
481.669	0
481.868	-0
482.067	-0.02
482.267	-0.01
482.466	-0.01
482.665	-0.01
482.864	-0.02
483.063	-0.03
483.262	0.01
483.461	0.05
483.661	0.02
483.86	0
484.059	-0.01
484.258	0.01
484.457	0
484.656	-0.01
484.855	0.03
485.054	-0.03
485.253	-0.04
485.452	-0.05
485.651	0.01
485.849	0.02
486.048	-0.02
486.247	-0.02
486.446	0.01
486.645	-0.02
486.844	-0.03
487.043	0.01
487.241	0.04
487.44	-0.02
487.639	-0.03
487.838	0.01
488.037	0.01
488.235	0.05
488.434	0
488.633	-0
488.831	0.01
489.03	0.04
489.229	0.02
489.427	0
489.626	0.02
489.825	0.04
490.023	0.01
490.222	-0.01
490.42	0.03
490.619	0.04
490.817	0.03
491.016	-0.01
491.214	0.03
491.413	-0.02
491.611	-0
491.81	0
492.008	0.02
492.207	0
492.405	0.03
492.604	-0.05
492.802	-0.01
493	-0.01
493.199	-0.01
493.397	0.03
493.595	-0
493.794	-0.01
493.992	0.03
494.19	-0.02
494.388	-0.01
494.587	-0.04
494.785	-0.01
494.983	-0.02
495.181	0.02
495.379	0.01
495.578	-0.02
495.776	0.01
495.974	0.01
496.172	0.01
496.37	-0.02
496.568	-0.02
496.766	-0.01
496.964	0.02
497.162	-0
497.36	-0.02
497.558	0.01
497.756	0.02
497.954	0.02
498.152	-0.03
498.35	-0
498.548	0
498.746	-0.01
498.944	-0.02
499.142	-0.02
499.34	-0.04
499.538	-0.01
499.736	-0.01
499.933	0.02
500.131	0.02
500.329	0.01
500.527	0.02
500.725	0.04
500.922	0.03
501.12	0.02
501.318	0
501.516	-0.03
501.713	0.02
501.911	-0.01
502.109	-0.03
502.306	0.03
502.504	-0.01
502.701	-0.03
502.899	0
503.097	0.04
503.294	0.01
503.492	-0.01
503.689	0.01
503.887	0.01
504.084	0.04
504.282	0.01
504.479	-0.04
504.677	0.01
504.874	-0.02
505.072	-0.01
505.269	0
505.466	0.01
505.664	0.01
505.861	-0.05
506.059	0.01
506.256	0.02
506.453	-0.01
506.651	0.05
506.848	0.02
507.045	-0.01
507.242	0.01
507.44	-0.01
507.637	0.02
507.834	0.01
508.031	0.02
508.229	-0.02
508.426	-0
508.623	0.01
508.82	-0.01
509.017	-0.02
509.214	0.01
509.411	-0
509.608	-0.01
509.805	0.01
510.003	0.01
510.2	-0.01
510.397	0.02
510.594	-0
510.791	0.01
510.988	-0.01
511.184	0.01
511.381	0.01
511.578	-0.03
511.775	0.04
511.972	-0.02
512.169	-0
512.366	-0.03
512.563	0.01
512.76	-0.02
512.956	0.02
513.153	-0.02
513.35	0
513.547	0
513.744	-0.01
513.94	-0.02
514.137	0.02
514.334	-0
514.53	-0
514.727	-0
514.924	0.03
515.12	-0.02
515.317	-0.05
515.514	-0.02
515.71	-0.03
515.907	-0.03
516.103	0
516.3	0.01
516.497	0.02
516.693	0.03
516.89	0.01
517.086	0
517.283	0.01
517.479	0.01
517.676	-0.01
517.872	-0
518.068	0
518.265	-0.02
518.461	-0.04
518.658	-0.04
518.854	0
519.05	0.01
519.247	-0.01
519.443	-0.02
519.639	0.02
519.836	0.01
520.032	-0
520.228	-0
520.424	0.06
520.621	0.02
520.817	-0
521.013	0.03
521.209	0.02
521.405	0.04
521.601	0.01
521.798	-0.01
521.994	0.02
522.19	-0.02
522.386	-0.04
522.582	0.02
522.778	0.01
522.974	0.01
523.17	-0
523.366	-0.01
523.562	0.02
523.758	-0.01
523.954	-0.01
524.15	0.01
524.346	0
524.542	0.01
524.738	-0.02
524.934	-0.01
525.129	0
525.325	-0.01
525.521	-0
525.717	0.02
525.913	0.01
526.109	-0.02
526.304	0
526.5	0.01
526.696	0.03
526.892	-0.02
527.087	0.02
527.283	-0.03
527.479	-0.01
527.674	-0.04
527.87	-0
528.066	-0.01
528.261	0.01
528.457	0.01
528.653	-0
528.848	-0.02
529.044	0
529.239	-0.01
529.435	0.03
529.63	0.01
529.826	0.04
530.021	-0.01
530.217	0.01
530.412	-0
530.608	0.01
530.803	0.01
530.999	-0.01
531.194	-0.04
531.389	0.02
531.585	-0.04
531.78	0.01
531.975	-0.01
532.171	0.03
532.366	-0.01
532.561	-0
532.757	-0.01
532.952	-0.01
533.147	0
533.342	0
533.538	-0.01
533.733	0.03
533.928	0
534.123	-0.01
534.318	-0.04
534.513	-0.01
534.709	-0.02
534.904	-0
535.099	-0.01
535.294	-0.01
535.489	-0.01
535.684	-0.01
535.879	-0.02
536.074	0.01
536.269	-0.03
536.464	0.02
536.659	-0
536.854	0
537.049	-0.02
537.244	-0
537.439	-0.02
537.634	0.03
537.828	-0
538.023	-0
538.218	-0.03
538.413	0
538.608	-0.02
538.803	0.01
538.997	-0.01
539.192	0.02
539.387	0.01
539.582	0.01
539.776	-0
539.971	-0.01
540.166	-0.02
540.36	-0.03
540.555	0
540.75	-0.01
540.944	-0
541.139	-0.02
541.334	-0.02
541.528	0.03
541.723	0.04
541.917	-0.02
542.112	-0.04
542.306	-0.03
542.501	-0.01
542.695	0.01
542.89	-0.04
543.084	0.01
543.279	-0.03
543.473	-0
543.668	-0.01
543.862	-0.01
544.056	-0.01
544.251	-0
544.445	0.01
544.64	-0
544.834	-0.01
545.028	0.03
545.222	0.02
545.417	0.02
545.611	0.01
545.805	-0
546	-0
546.194	-0
546.388	-0.02
546.582	0.01
546.776	0.01
546.97	-0.01
547.165	0.01
547.359	0.03
547.553	-0
547.747	0.01
547.941	0.01
548.135	-0
548.329	0.03
548.523	0.03
548.717	-0.02
548.911	-0.02
549.105	-0.01
549.299	0
549.493	0.02
549.687	0.02
549.881	0.01
550.075	-0.03
550.269	-0.02
550.463	0.01
550.657	-0.04
550.85	0.02
551.044	-0.03
551.238	0.01
551.432	0
551.626	-0.02
551.82	-0
552.013	-0.01
552.207	-0
552.401	0
552.594	-0.01
552.788	-0
552.982	-0.01
553.176	-0.02
553.369	0.01
553.563	0.01
553.756	-0.05
553.95	-0.02
554.144	-0.01
554.337	0.02
554.531	0
554.724	-0
554.918	-0
555.111	0.01
555.305	0.03
555.498	0.04
555.692	0.04
555.885	-0.02
556.079	-0.01
556.272	-0.01
556.466	0.02
556.659	-0.02
556.852	-0.01
557.046	-0.02
557.239	0.03
557.432	-0.03
557.626	-0.01
557.819	0.01
558.012	0
558.206	0
558.399	0
558.592	0
558.785	-0.02
558.979	0.01
559.172	0.02
559.365	0.01
559.558	0.01
559.751	-0.02
559.944	-0
560.138	-0.03
560.331	0
560.524	0
560.717	0
560.91	-0
561.103	0.01
561.296	-0.01
561.489	0.01
561.682	0.01
561.875	0.02
562.068	0.01
562.261	0.01
562.454	0.02
562.647	0.02
562.84	0.02
563.032	-0.03
563.225	0.01
563.418	-0.02
563.611	-0.01
563.804	0
563.997	-0.01
564.19	-0.04
564.382	0
564.575	0
564.768	-0.02
564.961	-0.02
565.153	-0.02
565.346	0
565.539	0.02
565.731	0.03
565.924	0.03
566.117	-0.02
566.309	-0
566.502	-0.01
566.695	0
566.887	0.01
567.08	-0.03
567.272	0.01
567.465	-0.01
567.657	0.01
567.85	0.01
568.042	0.03
568.235	0.03
568.427	0.01
568.62	-0
568.812	0.04
569.005	0.02
569.197	-0.03
569.389	0.01
569.582	0.01
569.774	0.03
569.966	-0
570.159	-0.02
570.351	0
570.543	-0.03
570.736	0
570.928	-0.03
571.12	0
571.312	-0.03
571.505	-0.01
571.697	0.01
571.889	-0.02
572.081	0.01
572.273	-0.02
572.465	0.03
572.658	-0.01
572.85	0.01
573.042	0
573.234	-0.02
573.426	0.03
573.618	-0.03
573.81	0.01
574.002	0.01
574.194	0.03
574.386	-0.03
574.578	-0.07
574.77	-0
574.962	0.02
575.154	-0.05
575.346	-0.01
575.538	0.01
575.729	-0.02
575.921	0
576.113	0
576.305	0.01
576.497	-0.01
576.689	-0.01
576.88	-0.02
577.072	0.02
577.264	-0.02
577.456	-0
577.647	-0.05
577.839	-0
578.031	0.01
578.223	-0.03
578.414	-0.02
578.606	0.02
578.798	-0.01
578.989	-0.02
579.181	-0.02
579.372	0
579.564	0
579.755	0.02
579.947	0.02
580.139	0.01
580.33	-0.07
580.522	-0.02
580.713	-0.07
580.905	-0.02
581.096	0.02
581.287	-0.02
581.479	-0
581.67	-0
581.862	-0
582.053	-0.02
582.244	-0.04
582.436	-0.02
582.627	0.01
582.818	-0
583.01	-0.04
583.201	0.02
583.392	0.02
583.583	0
583.775	-0.03
583.966	-0.02
584.157	-0.01
584.348	-0.02
584.54	-0.01
584.731	0
584.922	-0.02
585.113	-0.03
585.304	0.01
585.495	-0
585.686	0
585.877	0.02
586.068	0.01
586.259	0.01
586.45	-0.03
586.641	-0.02
586.832	-0.06
587.023	0.01
587.214	-0.03
587.405	-0.01
587.596	-0.05
587.787	0.03
587.978	-0.01
588.169	-0.02
588.36	-0.03
588.551	-0.01
588.742	-0.01
588.932	0.01
589.123	0.01
589.314	-0
589.505	0.01
589.696	0.02
589.886	-0.03
590.077	-0.03
590.268	0.02
590.458	-0.04
590.649	-0.03
590.84	0.01
591.03	-0.05
591.221	-0.04
591.412	-0.02
591.602	0
591.793	0.03
591.984	-0.03
592.174	-0
592.365	0.05
592.555	-0
592.746	0.01
592.936	0.01
593.127	0.01
593.317	0.01
593.508	-0.04
593.698	-0.01
593.889	0.01
594.079	-0.02
594.269	-0.02
594.46	-0.01
594.65	-0.01
594.84	-0.04
595.031	-0.02
595.221	-0.03
595.411	-0.02
595.602	0.03
595.792	-0.02
595.982	-0.02
596.172	0.03
596.363	0.01
596.553	-0.01
596.743	-0.01
596.933	-0.01
597.123	0.02
597.314	-0.02
597.504	0
597.694	0
597.884	0.02
598.074	-0.01
598.264	-0.02
598.454	0.01
598.644	0.01
598.834	-0.01
599.024	-0.08
599.214	-0.01
599.404	0
599.594	0.01
599.784	-0.03
599.974	0.03
600.164	0.02
600.354	-0.04
600.544	-0.04
600.734	0.03
600.924	0.03
601.114	-0.03
601.303	0.01
601.493	-0.02
601.683	-0
601.873	-0.01
602.063	-0.05
602.252	0.01
602.442	-0.06
602.632	-0.04
602.821	-0.05
603.011	0.02
603.201	-0.01
603.39	-0.02
603.58	-0.02
603.77	0.01
603.959	0.02
604.149	0.02
604.339	-0.02
604.528	0.03
604.718	0.04
604.907	-0
605.097	-0.01
605.286	0.01
605.476	0.02
605.665	0.01
605.855	0
606.044	0.06
606.234	0.02
606.423	-0.02
606.612	-0.02
606.802	0
606.991	-0.01
607.181	0
607.37	-0.03
607.559	0
607.749	-0.05
607.938	0.01
608.127	-0.03
608.316	-0.03
608.506	-0.02
608.695	0
608.884	-0.03
609.073	-0.03
609.263	0.02
609.452	0.02
609.641	0
609.83	-0.04
610.019	-0.04
610.208	-0
610.397	-0.02
610.586	0.02
610.775	-0.03
610.965	0
611.154	-0.03
611.343	-0.02
611.532	0
611.721	-0.03
611.91	-0.02
612.099	0
612.287	-0.04
612.476	-0.02
612.665	0.03
612.854	-0.03
613.043	0.04
613.232	-0.02
613.421	-0.05
613.61	0
613.798	-0
613.987	0.03
614.176	-0
614.365	0.02
614.554	-0
614.742	0.02
614.931	-0.01
615.12	0
615.309	-0.02
615.497	-0.02
615.686	-0.02
615.875	-0.04
616.063	0
616.252	-0.04
616.44	0.02
616.629	-0.01
616.818	0.05
617.006	-0.03
617.195	-0.01
617.383	0.02
617.572	0.02
617.76	-0.03
617.949	-0.03
618.137	0.02
618.326	0.02
618.514	0
618.703	-0.01
618.891	0.06
619.079	-0.05
619.268	0.01
619.456	-0
619.644	0.02
619.833	-0.02
620.021	-0.04
620.209	-0.05
620.398	-0.02
620.586	-0.03
620.774	0.02
620.962	-0
621.151	0.06
621.339	-0.03
621.527	-0.03
621.715	-0.04
621.903	-0.01
622.092	-0.06
622.28	0
622.468	-0
622.656	-0
622.844	0.01
623.032	-0.03
623.22	-0.06
623.408	0
623.596	-0.01
623.784	0.02
623.972	-0.05
624.16	-0.01
624.348	0.05
624.536	-0.02
624.724	-0.03
624.912	0.02
625.1	0.02
625.288	-0.03
625.476	-0.06
625.664	0.06
625.851	-0.03
626.039	0.01
626.227	0
626.415	0.01
626.603	-0.06
626.79	-0.02
626.978	-0.02
627.166	-0.01
627.354	0.02
627.541	-0.02
627.729	-0.05
627.917	0.02
628.104	0.06
628.292	0
628.48	-0.01
628.667	0
628.855	0.01
629.042	0.01
629.23	-0.02
629.418	-0.03
629.605	0.03
629.793	-0.01
629.98	-0.01
630.168	-0.02
630.355	-0.01
630.543	0.01
630.73	-0.03
630.917	0.04
631.105	0.05
631.292	-0.01
631.48	-0.01
631.667	0.04
631.854	0.04
632.042	-0.02
632.229	-0.03
632.416	0.04
632.604	0.02
632.791	-0.01
632.978	0.03
633.165	0.03
633.353	0.06
633.54	0.03
633.727	-0.04
633.914	-0.01
634.101	-0.09
634.289	0.05
634.476	-0.01
634.663	-0.02
634.85	0.01
635.037	-0.04
635.224	-0.04
635.411	-0.01
635.598	0.01
635.785	-0
635.972	0
636.159	0.01
636.346	-0
636.533	0.02
636.72	-0.02
636.907	0.01
637.094	0.03
637.281	0
637.468	0.04
637.655	0.01
637.842	0.02
638.029	-0.03
638.215	0.05
638.402	0.02
638.589	-0.04
638.776	-0.01
638.963	-0.03
639.149	0.04
639.336	0.08
639.523	0
639.709	0.03
639.896	0.04
640.083	0.05
640.27	-0
640.456	0.01
640.643	0.03
640.829	-0.03
641.016	0
641.203	0.01
641.389	0.03
641.576	0.05
641.762	0.01
641.949	-0.03
642.135	0.05
642.322	0.05
642.508	0.01
642.695	0.01
642.881	-0.01
643.068	0.02
643.254	0.03
643.441	0.07
643.627	0.03
643.813	-0.01
644	0.08
644.186	-0.02
644.372	0.07
644.559	0.07
644.745	0.02
644.931	0.01
645.118	0.02
645.304	0.07
645.49	0.03
645.676	-0.01
645.862	0.03
646.049	0.05
646.235	0.03
646.421	0.1
646.607	0.09
646.793	0.02
646.979	0.04
647.165	0.06
647.352	0.03
647.538	0.06
647.724	0.03
647.91	0.04
648.096	0.04
648.282	0.07
648.468	0.03
648.654	0.06
648.84	0.06
649.026	0.05
649.212	0.05
649.397	0.04
649.583	0.03
649.769	0.07
649.955	0.04
650.141	0.08
650.327	0.12
650.513	0.04
650.698	0.06
650.884	0.01
651.07	0.07
651.256	0.06
651.442	0.06
651.627	0.06
651.813	0.07
651.999	0.04
652.184	0.08
652.37	0.04
652.556	0.06
652.741	0.14
652.927	-0.02
653.113	0.07
653.298	0.06
653.484	0.07
653.669	0.04
653.855	0.06
654.04	0.11
654.226	0.11
654.412	0.1
654.597	0.05
654.782	0.07
654.968	0.14
655.153	0.08
655.339	0.07
655.524	0.06
655.71	0.12
655.895	0.09
656.08	0.06
656.266	0.1
656.451	0.1
656.636	0.06
656.822	0.11
657.007	0.09
657.192	0.08
657.378	0.04
657.563	0.11
657.748	0.14
657.933	0.11
658.118	0.05
658.304	0.08
658.489	0.14
658.674	0.08
658.859	0.09
659.044	0.11
659.229	0.1
659.414	0.11
659.599	0.09
659.785	0.04
659.97	0.08
660.155	0.15
660.34	0.11
660.525	0.07
660.71	0.09
660.895	0.13
661.08	0.07
661.264	0.08
661.449	0.14
661.634	0.13
661.819	0.15
662.004	0.08
662.189	0.03
662.374	0.03
662.559	0.03
662.743	0
662.928	0.07
663.113	0.08
663.298	0.01
663.483	0.06
663.667	0.06
663.852	0.01
664.037	0.11
664.221	0.02
664.406	0.09
664.591	0.09
664.775	0.05
664.96	-0.01
665.145	0.05
665.329	0.07
665.514	0.03
665.698	0.03
665.883	-0.02
666.068	0.1
666.252	0.05
666.437	0.02
666.621	0.03
666.806	0.01
666.99	0.01
667.174	0.01
667.359	0.07
667.543	0.02
667.728	0.03
667.912	-0.05
668.096	0.05
668.281	0.01
668.465	0.02
668.649	0.01
668.834	0.05
669.018	-0.01
669.202	-0
669.387	-0.04
669.571	0.05
669.755	-0.01
669.939	-0.02
670.124	-0.01
670.308	0.03
670.492	0.05
670.676	0.01
670.86	-0
671.044	-0.06
671.228	0
671.413	-0.03
671.597	-0.04
671.781	-0.01
671.965	0.04
672.149	0
672.333	0.01
672.517	-0.08
672.701	0.02
672.885	-0.01
673.069	-0.06
673.253	0.02
673.437	-0.03
673.621	-0.01
673.804	0
673.988	0
674.172	-0.02
674.356	-0.05
674.54	-0.02
674.724	0.06
674.908	-0
675.091	0.05
675.275	-0
675.459	0.05
675.643	0.06
675.826	0.04
676.01	-0.03
676.194	-0.01
676.377	0.05
676.561	0.04
676.745	0.01
676.928	0.02
677.112	0.05
677.296	-0.03
677.479	-0.02
677.663	-0.02
677.846	0.03
678.03	-0.01
678.213	-0.03
678.397	0.06
678.58	-0.06
678.764	-0.05
678.947	-0.07
679.131	-0.08
679.314	0.03
679.498	-0.03
679.681	0.01
679.865	0.08
680.048	-0.03
680.231	-0.03
680.415	-0.02
680.598	-0.03
680.781	0
680.965	-0
681.148	-0.03
681.331	-0.04
681.514	-0.01
681.698	-0.04
681.881	-0
682.064	0
682.247	-0.02
682.43	-0.09
682.614	0.01
682.797	-0.01
682.98	-0.01
683.163	-0.05
683.346	0.06
683.529	-0.01
683.712	-0.05
683.895	0.01
684.078	-0.06
684.261	-0
684.444	-0.01
684.627	0.02
684.81	-0.06
684.993	-0.05
685.176	-0.02
685.359	-0.02
685.542	0
685.725	0.06
685.908	-0.01
686.091	-0.03
686.274	0.09
686.457	0.03
686.639	-0
686.822	0.03
687.005	0.01
687.188	-0
687.371	0.06
687.553	0.01
687.736	-0.01
687.919	0.01
688.102	0.07
688.284	-0.05
688.467	0
688.65	0
688.832	-0
689.015	-0.01
689.197	-0.05
689.38	0.08
689.563	0.06
689.745	-0.06
689.928	-0.07
690.11	0
690.293	0.01
690.475	-0.13
690.658	-0.05
690.84	-0.03
691.023	-0.05
691.205	-0.01
691.388	0.03
691.57	0.01
691.752	0.05
691.935	-0.11
692.117	-0.06
692.3	-0.02
692.482	-0.02
692.664	-0.05
692.847	0.03
693.029	0.06
693.211	-0.01
693.393	-0.01
693.576	-0.06
693.758	0.03
693.94	-0.05
694.122	-0.02
694.304	-0.04
694.487	-0
694.669	0.06
694.851	-0.02
695.033	0.01
695.215	-0.03
695.397	-0.06
695.579	-0.01
695.761	-0.06
695.943	-0.03
696.125	0.05
696.308	-0.01
696.49	-0.08
696.671	0.1
696.853	-0.01
697.035	0.06
697.217	0.04
697.399	0.04
697.581	-0.02
697.763	0.01
697.945	0.01
698.127	-0.03
698.309	-0.01
698.491	-0.02
698.672	0.01
698.854	0.02
699.036	-0.01
699.218	-0.02
699.399	0.02
699.581	0.04
699.763	-0
699.945	-0.02
700.126	-0.04
700.308	0.04
700.49	0.03
700.671	-0.07
700.853	-0.04
701.035	-0.02
701.216	0.02
701.398	-0.02
701.579	-0.01
701.761	0.04
701.943	-0.08
702.124	-0.02
702.306	-0.03
702.487	0.09
702.669	-0.02
702.85	-0
703.031	-0.05
703.213	0.03
703.394	0.03
703.576	-0.06
703.757	0.08
703.938	0.05
704.12	0.11
704.301	-0.03
704.483	-0.06
704.664	0.06
704.845	0.07
705.026	0.03
705.208	0.03
705.389	-0
705.57	-0.03
705.751	-0.05
705.933	-0.03
706.114	0.08
706.295	-0.02
706.476	-0.04
706.657	0.07
706.838	-0.02
707.02	0.05
707.201	-0.04
707.382	-0
707.563	-0.03
707.744	-0.06
707.925	-0.03
708.106	-0.06
708.287	0.07
708.468	0.05
708.649	-0.03
708.83	0.04
709.011	0.02
709.192	-0
709.373	-0.05
709.554	-0.01
709.734	0.08
709.915	0.03
710.096	0.02
710.277	-0.07
710.458	0.03
710.639	0.03
710.819	-0.05
711	-0
711.181	0.05
711.362	0.06
711.542	0.04
711.723	0.03
711.904	0.01
712.085	0.02
712.265	-0.06
712.446	-0.11
712.627	-0.01
712.807	0.02
712.988	-0.04
713.168	-0.08
713.349	0.01
713.53	-0.12
713.71	0.02
713.891	0.01
714.071	0.06
714.252	-0.01
714.432	-0.02
714.613	-0.13
714.793	0.01
714.974	0.07
715.154	0.11
715.334	0.06
715.515	0.09
715.695	-0.05
715.876	0.02
716.056	0.02
716.236	-0.05
716.417	-0.02
716.597	0
716.777	0.09
716.957	0
717.138	0.02
717.318	-0
717.498	-0.03
717.678	0.01
717.859	0.06
718.039	-0.04
718.219	0.08
718.399	0.12
718.579	-0.04
718.759	-0.06
718.939	0.04
719.12	0.07
719.3	0.05
719.48	-0.06
719.66	-0.05
719.84	0.14
720.02	0
720.2	-0.03
720.38	0
720.56	0.07
720.74	0.01
720.92	0.04
721.1	0.16
721.279	0.11
721.459	0.03
721.639	-0.04
721.819	0.05
721.999	0.05
722.179	0
722.359	-0.05
722.538	0.05
722.718	0.03
722.898	-0.03
723.078	-0.02
723.257	-0.02
723.437	0.03
723.617	0.06
723.797	0.04
723.976	-0.01
724.156	0.04
724.336	0.14
724.515	0.23
724.695	-0.06
724.874	0.05
725.054	0.1
725.234	-0.05
725.413	0.03
725.593	-0
725.772	-0.03
725.952	0.02
726.131	0
726.311	-0
726.49	0.1
726.67	-0.03
726.849	0.02
727.028	0.08
727.208	0.06
727.387	0.02
727.567	-0.03
727.746	0.08
727.925	-0
728.105	-0.02
728.284	0.01
728.463	0.04
728.643	0.16
728.822	-0.02
729.001	0.01
729.18	0.01
729.359	0.03
729.539	0.05
729.718	0.06
729.897	0.18
730.076	0.05
730.255	-0.03
730.434	0.06
730.614	0.05
730.793	0.07
730.972	0.09
731.151	0.05
731.33	0.04
731.509	0.16
731.688	0.15
731.867	0.07
732.046	-0.09
732.225	0.27
732.404	0
732.583	0.04
732.762	-0.01
732.941	0.2
733.12	0.15
733.298	0.09
733.477	0.12
733.656	-0.01
733.835	0.07
734.014	0.08
734.193	-0.02
734.371	0.09
734.55	0.11
734.729	-0.01
734.908	0.1
735.086	0.1
735.265	0.08
735.444	-0.16
735.623	-0.1
735.801	0.01
735.98	0.08
736.159	0.01
736.337	0.11
736.516	0.11
736.694	0.12
736.873	0.08
737.052	0.22
737.23	0.07
737.409	0.06
737.587	0.16
737.766	-0.11
737.944	-0.01
738.123	0.14
738.301	0.21
738.479	0.02
738.658	0.12
738.836	-0.07
739.015	0.1
739.193	0.21
739.371	0.05
739.55	0.09
739.728	0.03
739.906	0.17
740.085	0.13
740.263	0.11
740.441	-0.04
740.62	0.14
740.798	0.12
740.976	0.02
741.154	0
741.332	0.16
741.511	-0.1
741.689	0.08
741.867	0.17
742.045	-0.03
742.223	0.1
742.401	-0.06
742.579	0.03
742.757	0.01
742.935	-0.11
743.114	0.05
743.292	0.07
743.47	0.05
743.648	0.01
743.826	0.16
744.004	0.01
744.181	0.08
744.359	0.05
744.537	0.04
744.715	0.01
744.893	0.09
745.071	-0.04
745.249	0.05
745.427	-0.01
745.605	0.03
745.782	-0.09
745.96	0.02
746.138	0.06
746.316	0.04
746.493	-0.04
746.671	0.05
746.849	0.07
747.027	0.09
747.204	-0.08
747.382	0.05
747.56	-0.18
747.737	-0.01
747.915	-0.03
748.093	-0.01
748.27	-0.11
748.448	0.05
748.625	-0.15
748.803	-0.04
748.98	-0.03
749.158	0.1
749.335	0.08
749.513	0.02
749.69	-0.01
749.868	0
750.045	0.07
750.223	-0.04
750.4	-0.15
750.578	0.2
750.755	-0.1
750.932	-0.18
751.11	0.02
751.287	-0.21
751.464	0.15
751.642	-0.15
751.819	-0.05
751.996	0.01
752.173	-0.03
752.351	-0.12
752.528	0.02
752.705	0.03
752.882	0.03
753.06	-0.03
753.237	0.03
753.414	0.12
753.591	0.05
753.768	0.05
753.945	-0.07
754.122	-0.14
754.299	-0.04
754.476	-0.06
754.654	-0
754.831	0.03
755.008	0
755.185	-0.05
755.362	-0.14
755.539	0.1
755.716	-0.1
755.892	-0.09
756.069	-0.07
756.246	-0
756.423	-0.06
756.6	0.07
756.777	-0.02
756.954	0.05
757.131	0.03
757.307	-0.03
757.484	-0.1
757.661	-0.05
757.838	-0.06
758.015	-0.13
758.191	0.03
758.368	-0.07
758.545	0.17
758.721	0.08
758.898	-0.04
759.075	0.05
759.251	0.04
759.428	0.02
759.605	-0.19
759.781	-0.1
759.958	0.01
760.134	0.02
760.311	0
760.488	0.03
760.664	0.14
760.841	-0.14
761.017	-0.09
761.194	-0.03
761.37	-0.06
761.547	0.02
761.723	-0.08
761.899	0.09
762.076	-0.1
762.252	-0.08
762.429	-0.18
762.605	0.13
762.781	-0.04
762.958	0.09
763.134	-0.01
763.31	-0.12
763.486	0.09
763.663	-0.21
763.839	-0
764.015	-0.21
764.191	-0.04
764.368	0.02
764.544	-0.07
764.72	0.1
764.896	0.04
765.072	0.01
765.248	-0.08
765.425	0.01
765.601	-0.04
765.777	0.09
765.953	-0.21
766.129	-0.06
766.305	-0.16
766.481	-0.01
766.657	0.03
766.833	0.14
767.009	-0.18
767.185	-0.07
767.361	-0.03
767.537	-0.19
767.713	0.04
767.889	-0.16
768.065	0.13
768.24	-0.33
768.416	0.23
768.592	-0.11
768.768	-0.04
768.944	0.02
769.12	-0.12
769.295	-0.03
769.471	-0.02
769.647	-0.1
769.823	0.08
769.998	-0.13
770.174	-0.18
770.35	0.27
770.525	0.28
770.701	-0.03
770.877	0.01
771.052	-0.04
771.228	-0.05
771.403	-0.08
771.579	-0
771.755	0.2
771.93	-0.03
772.106	-0.14
772.281	-0.25
772.457	-0.07
772.632	-0.03
772.808	-0.05
772.983	-0.13
773.159	-0.26
773.334	0.22
773.509	-0.04
773.685	-0.09
773.86	0.28
774.036	0.22
774.211	0.07
774.386	-0.09
774.562	-0.02
774.737	-0.04
774.912	-0.15
775.087	-0.03
775.263	0
775.438	-0.01
775.613	-0.13
775.788	-0.05
775.964	0.12
776.139	0.4
776.314	-0.16
776.489	-0.07
776.664	0.01
776.839	-0.06
777.014	-0.01
777.19	0.05
777.365	0.15
777.54	0.13
777.715	-0.19
777.89	-0.02
778.065	-0.15
778.24	-0
778.415	0.09
778.59	-0.35
778.765	-0.11
778.94	0.07
779.115	-0.1
779.289	-0
779.464	0.06
779.639	-0.02
779.814	-0.14
779.989	-0.12
780.164	0.11
780.339	0.17
780.513	-0.23
780.688	-0.22
780.863	-0.11
781.038	0.19
781.212	-0.14
781.387	0.15
781.562	0.23
781.737	-0.03
781.911	0
782.086	-0.07
782.261	-0.02
782.435	0.25
782.61	0.08
782.784	-0
782.959	0.19
783.134	-0.2
783.308	-0.15
783.483	0.07
783.657	0.46
783.832	0.18
784.006	-0.22
784.181	0.08
784.355	0.08
784.53	-0.02
784.704	-0.25
784.878	0.3
785.053	0.02
785.227	0.07
785.402	0.41
785.576	-0.27
785.75	-0.13
785.925	-0.21
786.099	0
786.273	0.11
786.448	0.02
786.622	0.09
786.796	-0.11
786.97	-0.06
787.145	0.19
787.319	-0.13
787.493	-0.14
787.667	-0.31
787.841	-0.12
788.015	0.17
788.19	0.03
788.364	-0.02
788.538	0.21
788.712	0.31
788.886	-0.14
789.06	-0.01
789.234	0.16
789.408	-0.22
789.582	-0.07
789.756	-0.18
789.93	-0.32
790.104	-0.15
790.278	-0.06
790.452	-0.1
790.626	0.05
790.8	-0.21
790.973	0.13
791.147	0.07
791.321	0.27
791.495	0.13
791.669	-0.13
791.843	-0.01
792.016	0.15
792.19	0.35
792.364	-0.34
792.538	0.37
792.711	0.26
792.885	-0.11
793.059	-0.44
793.233	-0.54
793.406	0.08
793.58	0.06
793.754	0
793.927	-0.32
794.101	0.31
794.274	0.2
794.448	-0.06
794.622	-0.29
794.795	0.2
794.969	-0.21
795.142	0.24
795.316	-0.14
795.489	-0.24
795.663	0.36
795.836	-0.13
796.009	-0.19
796.183	0.37
796.356	0.13
796.53	0.2
796.703	-0.1
796.876	0.56
797.05	0.06
797.223	0.04
797.396	0.22
797.57	-0.05
797.743	0.39
797.916	-0.01
798.09	-0.22
798.263	0.21
798.436	0.13
798.609	-0.17
798.782	-0.15
798.956	0.09
799.129	0.08
799.302	0.03
799.475	-0.1
799.648	0.07
799.821	0.08
799.994	0.07
800.167	-0.25
800.34	-0.12
800.514	-0.04
800.687	-0.29
800.86	-0.22
801.033	-0.05
801.206	0.12
801.379	-0.46
801.551	0.25
801.724	0.31
801.897	0.36
802.07	-0.15
802.243	-0.66
802.416	-0.08
802.589	-0.31
802.762	0.02
802.935	-0.28
803.107	0.21
803.28	0.22
803.453	0.09
803.626	-0.37
803.798	-0.18
803.971	-0.43
804.144	0.11
804.317	0.03
804.489	-0.02
804.662	0.14
804.835	-0.07
805.007	-0.27
805.18	0.16
805.353	0.31
805.525	-0.25
805.698	0.05
805.87	0.04
806.043	0.09
806.215	-0.37
806.388	-0.37
806.56	-0.08
806.733	0
806.905	0.24
807.078	-0.18
807.25	-0.51
807.423	0.13
807.595	-0.08
807.768	0.09
807.94	0.38
808.112	0.24
808.285	-0.12
808.457	-0.03
808.629	0.08
808.802	0.16
808.974	0.05
809.146	-0.09
809.318	-0.31
809.491	0.32
809.663	0.29
809.835	-0.01
810.007	-0.18
810.18	-0.11
810.352	-0.29
810.524	0.02
810.696	-0.31
810.868	0.38
811.04	0.2
811.212	-0.17
811.384	-0.31
811.556	-0.25
811.728	0.17
811.901	0.5
812.073	0.2
812.245	0.01
812.417	-0.01
812.589	-0.6
812.76	-0.16
812.932	-0.12
813.104	0.24
813.276	-0.09
813.448	0.33
813.62	0.38
813.792	-0.03
813.964	0.1
814.136	0.13
814.307	-0.34
814.479	-0.44
814.651	-0.41
814.823	0.34
814.995	-0.07
815.166	0.04
815.338	-0.32
815.51	-0.51
815.681	0.35
815.853	-0.19
816.025	0.09
816.196	0.77
816.368	-0.72
816.54	-0.56
816.711	-0.16
816.883	0.23
817.054	0.67
817.226	-0.58
817.398	0.1
817.569	-0.34
817.741	0.89
817.912	-0.1
818.084	0.16
818.255	0.14
818.426	-0.4
818.598	-0.1
818.769	-0.2
818.941	0.37
819.112	0.4
819.283	0.07
819.455	-0.22
819.626	0.15
819.798	0.13
819.969	0.03
820.14	-0.2
820.311	0.03
820.483	-0.08
820.654	-0.08
820.825	-0.18
820.996	-0.4
821.168	-0.2
821.339	-0.15
821.51	-0.35
821.681	-0.47
821.852	-0.23
822.023	0.02
822.195	-0.34
822.366	0.48
822.537	0.1
822.708	0.41
822.879	-0.15
823.05	0.3
823.221	-0.34
823.392	0.27
823.563	-0.02
823.734	0.29
823.905	-0.18
824.076	-0.48
824.247	-0.23
824.418	-0.46
824.589	0.32
824.759	-0.66
824.93	-0.16
825.101	-0.73
825.272	0.55
825.443	0.33
825.614	0.21
825.784	-0.66
825.955	0.87
826.126	0.07
826.297	0.24
826.467	0.58
826.638	0.41
826.809	-0.9
826.98	0.18
827.15	-0.26
827.321	-0.13
827.492	1.21
827.662	0.06
827.833	0.43
828.003	-0.31
828.174	-0.64
828.345	-0.48
828.515	-0.23
828.686	0.05
828.856	-0.36
829.027	-0.25
829.197	-0.14
829.368	0.74
829.538	-0.22
829.709	-0.37
829.879	0.14
830.049	0.58
830.22	-0.36
830.39	-0.17
830.56	0.28
830.731	-0.43
830.901	-0.33
831.072	0.34
831.242	-0.21
831.412	0.01
831.582	-0.13
831.753	-0.34
831.923	0.71
832.093	-0.28
832.263	0.21
832.434	-0.5
832.604	-0.56
832.774	-0.08
832.944	-0.06
833.114	-0.36
833.284	0.16
833.454	-0.83
833.624	-0.13
833.795	-0.06
833.965	0.16
834.135	-0.18
834.305	-1.07
834.475	-0.82
834.645	0.11
834.815	-0.54
834.985	-0.51
835.155	0.26
835.325	0.49
835.494	-0.32
835.664	-0.07
835.834	-1.09
836.004	-0.42
836.174	0.07
836.344	-0.06
836.514	-0.83
836.684	0.11
836.853	0.4
837.023	0.05
837.193	0.01
837.363	0.49
837.532	0.43
837.702	-0.48
837.872	-0.43
838.041	0.5
838.211	0.94
838.381	-1.11
838.55	0.21
838.72	1.35
838.89	1.49
839.059	0.25
839.229	-1
839.398	0.62
839.568	0.09
839.738	0.07
839.907	0.76
840.077	-0.07
840.246	-0.75
840.416	-0.5
840.585	-0.6
840.755	0.87
840.924	0.44
841.093	-1.24
841.263	-0.44
841.432	0.06
841.602	-1
841.771	-0.67
841.94	0.36
842.11	1.81
842.279	1.13
842.448	-1.12
842.617	-0.74
842.787	0.17
842.956	-0.39
843.125	-0.03
843.294	0.11
843.464	0.42
843.633	0.18
843.802	-0.95
843.971	0.35
844.14	0.57
844.309	0.24
844.479	-0.84
844.648	-0.35
844.817	-1.14
844.986	1.24
845.155	-0.24
845.324	-0.5
845.493	0.03
845.662	-1.4
845.831	0.81
846	0.58
846.169	-0.12
846.338	0.07
846.507	-0.04
846.676	0.01
846.844	-1.22
847.013	0.43
847.182	-0.15
847.351	-0.01
847.52	-0.65
847.689	-0.29
847.858	-0.44
848.026	-0.28
848.195	0.79
848.364	-0.16
848.533	-0.37
848.701	-0.46
848.87	-0.15
849.039	0.44
849.207	1.03
849.376	0.6
849.545	1.69
849.713	-0.81
849.882	-1.08
850.051	-0.49
850.219	0.08
850.388	0.05
850.556	-1
850.725	-1.15
850.893	-0.79
851.062	0.55
851.23	0.73
851.399	-1.2
851.567	-1.72
851.736	0.23
851.904	-1.3
852.073	-0.4
852.241	0.07
852.41	0.38
852.578	0.41
852.746	-0.37
852.915	-0.41
853.083	0.09
853.251	-1.75
853.42	-0.47
853.588	-0.35
853.756	0.23
853.924	-0.19
854.093	-0.61
854.261	-0.51
854.429	-1.74
854.597	0.08
854.765	-0.51
854.934	0.02
855.102	1.25
855.27	-0.47
855.438	-0
855.606	0.72
855.774	0.56
855.942	-2.38
856.11	-1.83
856.278	0.09
856.446	0.02
856.614	-0.49
856.782	0.03
856.95	0.69
857.118	0.4
857.286	0.18
857.454	-1.03
857.622	0.16
857.79	0.73
857.958	-0.57
858.126	0.2
858.294	-1.7
858.462	0.13
858.629	-0.81
858.797	-1.37
858.965	-0.07
859.133	0.22
859.301	-0.31
859.468	0.68
859.636	-1.01
859.804	0.41
859.971	1.34
860.139	-1.39
860.307	1.23
860.474	1.08
860.642	-1.41
860.81	-1.14
860.977	-0
861.145	0.07
861.313	-0.96
861.48	0.65
861.648	0.87
861.815	-0.27
861.983	-1.69
862.15	-0.58
862.318	-0.53
862.485	-0.31
862.653	-1.06
862.82	-0.8
862.988	1.28
863.155	1.42
863.322	-2.4
863.49	-2.32
863.657	-1.22
863.824	0.56
863.992	0.13
864.159	-0.72
864.326	0.55
864.494	-1.41
864.661	2.64
864.828	-0.48
864.996	0.78
865.163	2.21
865.33	-1.38
865.497	-2.68
865.664	-1.24
865.832	-1.05
865.999	-0.22
866.166	-1.3
866.333	-1.3
866.5	-1.56
866.667	-0.39
866.834	-1.71
867.001	1.98
867.168	-1.74
867.335	0.65
867.502	-2.11
867.669	0.11
867.836	1.83
868.003	-0.27
868.17	1.2
868.337	-1.68
868.504	1.67
868.671	-0.75
868.838	0.35
869.005	-0.16
869.172	0.96
869.339	0.59
869.505	-0.57
869.672	-0.53
869.839	0.17
870.006	-0.13
870.173	-2.08
870.339	-0.34
870.506	2.52
870.673	-0.29
870.84	-0.38
871.006	0.74
871.173	-0.74
871.34	-1.89
871.506	-3
871.673	1.08
871.839	-1.64
872.006	-1.17
872.173	-1.25
872.339	-0.52
872.506	0.59
872.672	-0.7
872.839	-0.5
873.005	-0.04
873.172	2.88
873.338	0.73
873.505	-0.24
873.671	-0.63
873.838	2.1
874.004	-1.96
874.171	-1.66
874.337	1.25
874.503	0.61
874.67	1.61
874.836	-2.71
875.002	0.32
875.169	-0.58
875.335	0.48
875.501	-1.53
875.668	0.96
875.834	-1.53
876	0.1
876.166	0.21
876.332	-0.53
876.499	2.16
876.665	0.23
876.831	-0.11
876.997	3.78
877.163	2.11
877.329	0.2
877.495	0.97
877.662	2.41
877.828	1.55
877.994	-0.26
878.16	-0.19
878.326	-1.93
878.492	-0.73
878.658	-1.3
878.824	-0.34
878.99	-0.12
879.156	-2.85
879.322	1.13
879.487	-1.22
879.653	-0.08
879.819	0.37
879.985	-0.86
880.151	-0.43
880.317	-1.16
880.483	0.44
880.648	0.74
880.814	-2.26
880.98	-1.32
881.146	-2.58
881.312	-0.3
881.477	-1.45
881.643	1.5
881.809	1.48
881.974	1.5
882.14	-2.15
882.306	-1.6
882.471	2.65
882.637	-1.58
882.803	0.48
882.968	1.75
883.134	3.1
883.299	-0.68
883.465	-0.38
883.63	1.97
883.796	2.72
883.961	2.27
884.127	0.09
884.292	-2.71
884.458	-2.96
884.623	-2.95
