Data from Apollo_Calib_20240827__AbsoluteIrradiance__477__07-06-00-475.txt Node

Date: Wed Aug 28 07:06:00 BST 2024
User: biology
Spectrometer: FLMT08252
Trigger mode: 0
Integration Time (sec): 5.000000E-1
Scans to average: 5
Electric dark correction enabled: true
Nonlinearity correction enabled: false
Boxcar width: 0
XAxis mode: Wavelengths
Number of Pixels in Spectrum: 3648
>>>>>Begin Spectral Data<<<<<
179.588	-0
179.809	-0
180.03	-0
180.251	-0
180.473	-0
180.694	0
180.915	0
181.136	-0
181.357	0
181.578	-0
181.799	-0
182.02	-0
182.241	0
182.462	-0
182.683	0
182.904	-0
183.125	-0
183.346	0
183.567	0
183.788	-0
184.009	-0
184.23	-0
184.451	0
184.672	-0
184.892	-0
185.113	0
185.334	0
185.555	-0
185.776	-0
185.996	0
186.217	0
186.438	0
186.659	-0
186.879	0
187.1	-0
187.321	-0
187.541	-0
187.762	-0
187.983	-0
188.203	-0
188.424	0
188.644	-0
188.865	-0
189.086	-0
189.306	-0
189.527	-0
189.747	0
189.968	-0
190.188	-0
190.409	-0
190.629	0
190.849	-0
191.07	-0
191.29	0
191.511	-0
191.731	-0
191.951	-0
192.172	-0
192.392	-0
192.612	-0
192.833	0
193.053	0
193.273	0
193.493	-0
193.714	-0
193.934	0
194.154	0
194.374	0
194.594	0
194.815	-0
195.035	-0
195.255	-0
195.475	-0
195.695	0
195.915	0
196.135	-0
196.355	0
196.575	0
196.795	0
197.015	-0
197.235	-0
197.455	-0
197.675	0
197.895	-0
198.115	-0
198.335	0
198.555	-0
198.775	0
198.995	0
199.214	0
199.434	-0
199.654	-0
199.874	-0
200.094	-1.94
200.313	-1.08
200.533	-1.09
200.753	-0.85
200.973	0.89
201.192	0.46
201.412	-1.29
201.632	-0.17
201.851	0.56
202.071	-0.5
202.291	-0.26
202.51	-0.78
202.73	0.31
202.95	-0.15
203.169	-0.58
203.389	-0.16
203.608	-0.47
203.828	-1.07
204.047	-0.57
204.267	-0.05
204.486	0.29
204.706	-0.08
204.925	-0.17
205.145	-0.4
205.364	0.44
205.583	0.12
205.803	-0.31
206.022	-0.48
206.242	-0.21
206.461	-0.08
206.68	-0.39
206.9	0.12
207.119	0.25
207.338	0.48
207.557	-0.27
207.777	-0.13
207.996	-0.15
208.215	0.22
208.434	-0.45
208.654	-0.54
208.873	0.1
209.092	0.29
209.311	-0.19
209.53	-0.53
209.749	-0.46
209.968	-0.3
210.187	-0.42
210.407	-0.64
210.626	-0.22
210.845	-0.16
211.064	0.06
211.283	-0.29
211.502	0.37
211.721	-0.11
211.94	-0.23
212.159	0.33
212.377	0.14
212.596	0.43
212.815	-0.08
213.034	0.08
213.253	0.22
213.472	0.07
213.691	-0.25
213.91	-0.44
214.128	-0.3
214.347	0.34
214.566	-0.44
214.785	-0.38
215.003	0.01
215.222	0.17
215.441	-0.14
215.66	-0.33
215.878	-0.06
216.097	0.19
216.316	-0.2
216.534	-0.03
216.753	-0.16
216.972	-0.1
217.19	-0.19
217.409	-0.12
217.627	-0.16
217.846	-0.03
218.064	-0.08
218.283	-0.17
218.501	0.34
218.72	0.04
218.938	-0.28
219.157	-0.13
219.375	0.07
219.594	-0.06
219.812	-0.22
220.031	-0.12
220.249	0.18
220.467	0.26
220.686	0
220.904	-0.19
221.122	-0.14
221.341	0.2
221.559	-0.09
221.777	-0.16
221.995	-0.09
222.214	0.01
222.432	-0.1
222.65	0.22
222.868	-0.06
223.086	0.04
223.305	0.06
223.523	-0.18
223.741	0.09
223.959	-0.46
224.177	-0.21
224.395	-0.14
224.613	0
224.831	0.03
225.049	-0.21
225.267	-0.1
225.485	-0.03
225.703	-0.13
225.921	-0.1
226.139	-0.14
226.357	0.08
226.575	0.02
226.793	-0.16
227.011	0.36
227.229	-0.07
227.447	-0.01
227.665	-0.12
227.883	-0.19
228.1	0.02
228.318	-0.01
228.536	-0.2
228.754	-0.24
228.972	0.06
229.189	0.02
229.407	-0
229.625	-0.11
229.843	0.09
230.06	0.11
230.278	-0.15
230.496	0.04
230.713	0.02
230.931	0.11
231.149	-0.12
231.366	-0.21
231.584	-0.06
231.801	0.13
232.019	-0.05
232.236	-0.09
232.454	-0.09
232.671	-0
232.889	0.08
233.106	-0.07
233.324	-0.09
233.541	0.03
233.759	-0.11
233.976	-0.12
234.194	-0.03
234.411	-0.06
234.628	-0.23
234.846	-0.06
235.063	-0.13
235.28	0.01
235.498	-0.03
235.715	-0.19
235.932	0.02
236.149	-0.04
236.367	-0.12
236.584	-0.08
236.801	-0.1
237.018	-0.01
237.236	-0.03
237.453	-0.23
237.67	0.08
237.887	0.09
238.104	-0.07
238.321	-0.21
238.538	-0.14
238.755	0.06
238.973	-0.19
239.19	0.02
239.407	-0.02
239.624	-0
239.841	-0.18
240.058	-0.17
240.275	0.02
240.492	-0.09
240.709	-0.02
240.925	-0.09
241.142	-0.03
241.359	-0.07
241.576	-0.12
241.793	-0.07
242.01	-0.05
242.227	0.04
242.444	0.03
242.66	-0.04
242.877	-0.11
243.094	-0.1
243.311	0.02
243.527	-0.08
243.744	-0.05
243.961	0.05
244.178	-0.09
244.394	-0.12
244.611	0.08
244.828	0.15
245.044	-0.1
245.261	-0.04
245.477	-0.08
245.694	0.11
245.911	-0.19
246.127	-0.06
246.344	0.09
246.56	0.01
246.777	-0.07
246.993	-0.05
247.21	-0.02
247.426	-0.04
247.643	-0.04
247.859	-0.14
248.076	-0.06
248.292	0.1
248.508	-0.09
248.725	-0.05
248.941	0.07
249.157	0.05
249.374	-0.12
249.59	0
249.806	-0.01
250.023	-0.01
250.239	-0.09
250.455	-0.13
250.671	0.02
250.888	0.05
251.104	0.06
251.32	-0.14
251.536	0.03
251.752	-0.07
251.969	0.02
252.185	-0.03
252.401	0.1
252.617	0.05
252.833	-0.1
253.049	-0.05
253.265	-0.06
253.481	0.07
253.697	-0.07
253.913	-0.11
254.129	-0.04
254.345	0.03
254.561	-0.11
254.777	-0.07
254.993	0.03
255.209	0.11
255.425	-0.1
255.641	-0.09
255.857	-0
256.073	0.04
256.288	-0.13
256.504	-0.16
256.72	-0.03
256.936	0.08
257.152	-0.02
257.367	-0.05
257.583	0.02
257.799	0.08
258.015	-0.08
258.23	-0.07
258.446	0.09
258.662	0.01
258.877	-0.03
259.093	-0.03
259.309	0.03
259.524	0.08
259.74	-0.08
259.955	-0.15
260.171	0.02
260.387	-0.03
260.602	0.07
260.818	0.02
261.033	-0.04
261.249	0.02
261.464	-0.1
261.68	-0.14
261.895	-0.05
262.11	0.03
262.326	-0.02
262.541	-0.17
262.757	0.05
262.972	-0.02
263.187	0.01
263.403	-0.08
263.618	0.07
263.833	-0.01
264.049	-0.08
264.264	-0.02
264.479	0.04
264.694	0.1
264.91	-0.08
265.125	-0.02
265.34	-0.01
265.555	0.14
265.77	-0.05
265.986	-0.11
266.201	0.02
266.416	0.1
266.631	-0.04
266.846	-0.04
267.061	0.05
267.276	0.01
267.491	-0.11
267.706	0.01
267.921	0.01
268.136	0.02
268.351	0.02
268.566	-0.08
268.781	0.09
268.996	0.03
269.211	0.01
269.426	-0.08
269.641	-0.02
269.856	0.03
270.071	-0.11
270.285	-0.06
270.5	0.02
270.715	0.1
270.93	-0.03
271.145	0.06
271.359	0.01
271.574	-0.07
271.789	-0.04
272.004	-0.11
272.218	-0.06
272.433	0.02
272.648	-0.04
272.862	0.02
273.077	-0.04
273.292	-0.03
273.506	-0.05
273.721	-0.07
273.936	0.02
274.15	0.02
274.365	-0.03
274.579	0.01
274.794	0.1
275.008	0.08
275.223	-0.12
275.437	-0.01
275.652	0.04
275.866	0.01
276.081	-0.01
276.295	0.04
276.509	-0.01
276.724	0.01
276.938	-0.02
277.153	0.07
277.367	-0.03
277.581	-0.03
277.796	-0.09
278.01	-0.05
278.224	0.08
278.438	0.07
278.653	-0.08
278.867	-0.06
279.081	-0.22
279.295	-0.04
279.51	0.05
279.724	-0.09
279.938	0.03
280.152	0.03
280.366	-0.04
280.58	0.03
280.794	0.06
281.008	0.06
281.222	0.03
281.437	0.09
281.651	-0.02
281.865	0.07
282.079	-0.05
282.293	-0.07
282.507	-0.06
282.721	-0.07
282.935	0.01
283.148	-0.12
283.362	-0.05
283.576	-0.05
283.79	-0.03
284.004	-0.07
284.218	0.01
284.432	-0.04
284.646	-0
284.859	-0.03
285.073	-0.04
285.287	-0.02
285.501	-0.04
285.714	0.03
285.928	0.03
286.142	0.02
286.356	-0.04
286.569	-0.03
286.783	0.06
286.997	0.05
287.21	-0.03
287.424	0
287.637	-0.02
287.851	-0.03
288.065	-0.05
288.278	0
288.492	-0
288.705	-0.07
288.919	-0.03
289.132	-0.04
289.346	0.07
289.559	-0.11
289.773	-0.06
289.986	-0.04
290.2	0.03
290.413	0.06
290.626	-0.06
290.84	-0.03
291.053	0
291.267	0.04
291.48	0.02
291.693	0.05
291.906	-0.07
292.12	-0.01
292.333	-0.07
292.546	-0.03
292.76	0.07
292.973	0.01
293.186	-0
293.399	-0.05
293.612	0.03
293.826	0.04
294.039	-0.02
294.252	0.01
294.465	0.03
294.678	0.03
294.891	-0.01
295.104	-0.09
295.317	-0.05
295.53	0.02
295.743	-0.01
295.956	-0.01
296.169	0.05
296.382	0.01
296.595	-0.05
296.808	-0.05
297.021	0.06
297.234	0.02
297.447	-0.03
297.66	-0.03
297.873	0
298.086	0.04
298.299	-0.02
298.511	-0.08
298.724	-0.01
298.937	-0.04
299.15	-0.02
299.363	0
299.575	0.01
299.788	0.03
300.001	-0.04
300.213	-0.1
300.426	-0.01
300.639	-0.03
300.852	-0.05
301.064	-0.01
301.277	0.08
301.489	0.01
301.702	0
301.915	-0.02
302.127	-0.01
302.34	0.02
302.552	0.02
302.765	-0.01
302.977	0.01
303.19	-0.02
303.402	-0.03
303.615	-0.02
303.827	-0.05
304.04	0.04
304.252	0
304.464	-0.05
304.677	0.07
304.889	0.06
305.102	-0.04
305.314	-0.04
305.526	0
305.739	0.04
305.951	-0.08
306.163	-0.01
306.375	0.03
306.588	-0.01
306.8	-0.03
307.012	-0.05
307.224	-0.02
307.436	0.04
307.649	-0.09
307.861	-0.02
308.073	0.03
308.285	-0.04
308.497	-0.07
308.709	0.01
308.921	0
309.133	0.04
309.346	0
309.558	0.03
309.77	-0.01
309.982	-0.09
310.194	0.02
310.406	-0.05
310.617	0.04
310.829	0.02
311.041	0.02
311.253	-0.04
311.465	0.02
311.677	-0.04
311.889	0.01
312.101	-0.03
312.313	0.07
312.524	0.01
312.736	-0.04
312.948	-0.05
313.16	0.06
313.372	0.06
313.583	0.03
313.795	-0.01
314.007	-0.03
314.218	0.02
314.43	0.01
314.642	-0.04
314.853	-0.05
315.065	0.02
315.277	-0.01
315.488	0.01
315.7	0.06
315.912	0.03
316.123	-0.04
316.335	-0.01
316.546	0.04
316.758	-0.01
316.969	0
317.181	0.03
317.392	-0
317.604	0.04
317.815	-0.04
318.026	-0.05
318.238	-0.03
318.449	0.03
318.661	-0.11
318.872	-0.04
319.083	-0.05
319.295	-0.01
319.506	-0.04
319.717	0.01
319.929	0.03
320.14	-0.01
320.351	-0.01
320.562	-0.02
320.774	-0.04
320.985	-0
321.196	-0.05
321.407	-0.08
321.618	0.01
321.829	0.06
322.041	0.01
322.252	-0.02
322.463	-0
322.674	0.01
322.885	-0.03
323.096	-0.06
323.307	-0.05
323.518	-0.02
323.729	-0.05
323.94	-0.03
324.151	-0
324.362	-0.03
324.573	0.02
324.784	-0.05
324.995	0.02
325.206	0.02
325.417	-0.04
325.628	-0.01
325.838	-0
326.049	0.02
326.26	-0.01
326.471	-0.01
326.682	0.06
326.892	-0.03
327.103	-0.11
327.314	-0.05
327.525	0.06
327.735	-0.02
327.946	-0
328.157	-0.05
328.368	0.01
328.578	-0.08
328.789	0.02
328.999	-0.05
329.21	-0.04
329.421	-0.01
329.631	-0.06
329.842	-0.02
330.052	0.04
330.263	0.02
330.473	-0.01
330.684	-0.02
330.894	0.01
331.105	-0.02
331.315	-0.03
331.526	-0.06
331.736	0.08
331.947	0.07
332.157	0
332.367	-0.04
332.578	0.02
332.788	0.02
332.999	0.01
333.209	0
333.419	-0.05
333.629	0.01
333.84	0.03
334.05	-0.01
334.26	0.06
334.47	0.05
334.681	0.01
334.891	-0.02
335.101	0.03
335.311	0.06
335.521	0.03
335.732	-0.08
335.942	0.04
336.152	-0
336.362	-0
336.572	0.04
336.782	0.01
336.992	-0.01
337.202	-0.02
337.412	-0.08
337.622	-0.04
337.832	-0.01
338.042	-0
338.252	0.02
338.462	-0.01
338.672	-0.01
338.882	-0.01
339.092	-0.03
339.302	0.1
339.511	0.04
339.721	-0.03
339.931	-0.07
340.141	0.04
340.351	0.05
340.561	0.01
340.77	-0.01
340.98	0.01
341.19	0.01
341.4	-0.01
341.609	-0.07
341.819	-0.01
342.029	-0.05
342.238	-0.03
342.448	-0.01
342.658	0.02
342.867	-0.02
343.077	0.06
343.286	0.02
343.496	-0.02
343.706	0.05
343.915	-0.07
344.125	-0.01
344.334	0.04
344.544	-0.07
344.753	-0.01
344.963	-0.06
345.172	-0.03
345.381	-0.02
345.591	-0.03
345.8	-0.02
346.01	0.03
346.219	0.05
346.428	-0.13
346.638	-0.01
346.847	0.01
347.056	-0.01
347.266	-0.04
347.475	-0.03
347.684	0.03
347.893	0.02
348.103	-0.04
348.312	-0.05
348.521	-0.01
348.73	0.03
348.94	0.01
349.149	-0.02
349.358	-0.03
349.567	-0.01
349.776	-0.07
349.985	-0.01
350.194	-0.01
350.403	0.04
350.612	-0.04
350.821	-0
351.03	-0.04
351.239	-0.06
351.448	-0.05
351.657	-0.03
351.866	0.06
352.075	0.01
352.284	0.06
352.493	-0.04
352.702	0.01
352.911	0.01
353.12	0.02
353.329	-0.03
353.538	0
353.746	-0.01
353.955	-0.05
354.164	0.03
354.373	-0.01
354.582	0.04
354.79	-0.01
354.999	0.01
355.208	-0.04
355.416	0.04
355.625	-0.05
355.834	-0.03
356.042	0.02
356.251	0.01
356.46	-0.06
356.668	-0.03
356.877	0.05
357.085	0.05
357.294	-0.09
357.503	0.02
357.711	-0.02
357.92	0.1
358.128	0.03
358.337	-0.07
358.545	0.01
358.754	-0.03
358.962	-0.01
359.17	-0.04
359.379	0.04
359.587	0.03
359.796	-0
360.004	0
360.212	0.01
360.421	0.06
360.629	-0.03
360.837	-0.02
361.046	0.02
361.254	0.1
361.462	-0.02
361.67	-0.05
361.879	0.01
362.087	0.04
362.295	0.01
362.503	-0.05
362.711	-0.08
362.92	-0.04
363.128	-0.03
363.336	-0.06
363.544	-0.06
363.752	-0.06
363.96	-0.05
364.168	-0.03
364.376	-0.02
364.584	-0
364.792	-0.02
365	0.05
365.208	-0.02
365.416	0.02
365.624	0.03
365.832	-0.03
366.04	0.06
366.248	-0
366.456	0.01
366.664	0.03
366.872	-0.01
367.079	-0.02
367.287	0.01
367.495	-0.02
367.703	-0.01
367.911	-0.03
368.118	0.01
368.326	-0.01
368.534	-0.08
368.742	0.08
368.949	-0.08
369.157	-0.05
369.365	0.05
369.572	-0.01
369.78	-0.01
369.988	0.04
370.195	0
370.403	0.05
370.61	-0
370.818	-0.01
371.026	0.06
371.233	-0.01
371.441	0.04
371.648	-0.08
371.856	0.03
372.063	-0.05
372.271	-0.02
372.478	-0.03
372.685	0
372.893	0.04
373.1	0
373.308	-0.02
373.515	0.08
373.722	0.03
373.93	-0.01
374.137	0.04
374.344	0.06
374.552	0.02
374.759	0.02
374.966	-0
375.173	-0.02
375.381	0.05
375.588	-0.04
375.795	-0.08
376.002	-0.03
376.209	-0.09
376.417	-0.01
376.624	-0.02
376.831	0.03
377.038	-0.03
377.245	-0.07
377.452	-0.02
377.659	-0
377.866	-0
378.073	-0.02
378.28	-0.03
378.487	-0.01
378.694	0.01
378.901	-0.04
379.108	-0.02
379.315	0.02
379.522	0.07
379.729	0.01
379.936	-0.01
380.143	-0.02
380.35	0.02
380.557	0.01
380.763	0.01
380.97	-0.03
381.177	0.04
381.384	0.02
381.591	-0.04
381.797	-0.01
382.004	0
382.211	0.03
382.418	-0
382.624	0.05
382.831	0.03
383.038	-0.07
383.244	0.02
383.451	-0.02
383.658	0.06
383.864	-0.02
384.071	-0.05
384.277	0.04
384.484	-0.06
384.69	0.04
384.897	-0.01
385.103	-0
385.31	-0.03
385.516	-0.02
385.723	-0.1
385.929	0.01
386.136	-0.04
386.342	-0.03
386.549	-0.02
386.755	0.01
386.961	-0.02
387.168	-0.06
387.374	-0.03
387.58	0.07
387.787	-0.01
387.993	-0.01
388.199	-0.03
388.406	-0.02
388.612	0.01
388.818	-0.04
389.024	-0.04
389.231	-0.04
389.437	0.03
389.643	0.04
389.849	-0.01
390.055	0.03
390.261	-0.01
390.467	0.01
390.674	-0.06
390.88	-0.01
391.086	-0
391.292	-0.06
391.498	0.03
391.704	-0.02
391.91	-0.01
392.116	-0.01
392.322	-0.11
392.528	0
392.734	-0
392.94	-0.02
393.146	-0.05
393.352	-0.01
393.557	0.01
393.763	-0.05
393.969	0
394.175	-0.01
394.381	0.02
394.587	-0.08
394.792	-0.03
394.998	0.01
395.204	0.03
395.41	-0.06
395.615	0.01
395.821	0.01
396.027	0.01
396.233	-0.06
396.438	0.02
396.644	0.07
396.85	-0.02
397.055	-0.02
397.261	0
397.466	0.09
397.672	-0.01
397.878	0.02
398.083	-0
398.289	-0.04
398.494	0
398.7	-0.03
398.905	-0.07
399.111	0.08
399.316	-0.08
399.522	-0.01
399.727	-0
399.932	-0
400.138	-0.05
400.343	0.05
400.549	0.02
400.754	0.01
400.959	0.03
401.165	-0.01
401.37	-0.01
401.575	0.06
401.78	0
401.986	-0.05
402.191	-0.01
402.396	0.01
402.601	0.03
402.807	-0.05
403.012	0.02
403.217	0.03
403.422	-0.01
403.627	0.04
403.832	-0.06
404.037	0.03
404.243	-0.02
404.448	-0.03
404.653	-0.05
404.858	-0
405.063	-0
405.268	-0.04
405.473	-0.04
405.678	-0.02
405.883	0.1
406.088	0.03
406.293	-0.03
406.498	-0.05
406.703	-0.02
406.907	-0.05
407.112	-0.05
407.317	0.01
407.522	0.02
407.727	-0.05
407.932	0.05
408.136	0.06
408.341	0.02
408.546	-0.02
408.751	0.05
408.956	-0.05
409.16	0.01
409.365	-0.03
409.57	-0.03
409.774	-0.01
409.979	0.02
410.184	0.02
410.388	-0.08
410.593	-0.01
410.798	0.03
411.002	-0.04
411.207	-0.01
411.411	-0.01
411.616	-0.08
411.82	-0.03
412.025	0.01
412.229	-0.01
412.434	0.07
412.638	-0.02
412.843	-0.01
413.047	0.01
413.252	-0.05
413.456	-0.01
413.66	0.02
413.865	-0
414.069	0.08
414.273	-0.03
414.478	-0.07
414.682	-0.03
414.886	-0.02
415.091	-0.05
415.295	-0.07
415.499	0.01
415.703	-0.01
415.908	-0.03
416.112	-0.11
416.316	-0
416.52	-0.02
416.724	-0.02
416.929	-0.07
417.133	0.09
417.337	-0.01
417.541	-0.03
417.745	-0.02
417.949	0.01
418.153	0.01
418.357	-0.06
418.561	0.04
418.765	-0.02
418.969	0.08
419.173	0.02
419.377	-0.04
419.581	0.06
419.785	-0.04
419.989	-0.07
420.193	-0.02
420.397	-0.04
420.601	0.02
420.804	0.05
421.008	-0.04
421.212	0
421.416	0.01
421.62	-0.07
421.823	-0.04
422.027	0.08
422.231	0
422.435	-0.02
422.638	-0.01
422.842	-0.03
423.046	-0.03
423.249	0.02
423.453	0.04
423.657	0.02
423.86	-0.04
424.064	-0.02
424.268	0.05
424.471	-0.01
424.675	0.05
424.878	0.02
425.082	-0.03
425.285	0.02
425.489	-0.05
425.692	0
425.896	-0.08
426.099	-0.03
426.303	-0.07
426.506	-0.07
426.71	-0.02
426.913	0.05
427.116	0
427.32	-0.02
427.523	0.01
427.726	0.03
427.93	-0.05
428.133	-0.03
428.336	-0.04
428.54	-0.05
428.743	0.01
428.946	0.03
429.149	-0.06
429.353	-0.02
429.556	-0.02
429.759	-0.01
429.962	-0.07
430.165	0.01
430.368	0.01
430.571	0
430.775	0.03
430.978	-0.03
431.181	-0.03
431.384	-0.02
431.587	-0.04
431.79	-0.03
431.993	0.01
432.196	-0.06
432.399	0
432.602	0.01
432.805	-0.05
433.008	-0.03
433.211	-0.1
433.414	-0
433.616	0.05
433.819	-0.02
434.022	-0.12
434.225	0.05
434.428	0.01
434.631	0.08
434.833	-0.03
435.036	-0.03
435.239	0.04
435.442	-0.02
435.645	-0.08
435.847	-0.05
436.05	0.01
436.253	-0.02
436.455	-0.04
436.658	-0.02
436.861	0.04
437.063	-0.01
437.266	-0.03
437.468	0.03
437.671	0.07
437.874	0
438.076	-0.07
438.279	-0.09
438.481	-0.03
438.684	-0.04
438.886	0.02
439.089	-0.03
439.291	-0.05
439.494	0.02
439.696	-0.07
439.899	-0.11
440.101	-0.01
440.303	-0.07
440.506	0.01
440.708	-0
440.91	0.04
441.113	-0.02
441.315	0
441.517	-0.07
441.72	0.06
441.922	-0.07
442.124	-0.05
442.326	0.02
442.529	0.05
442.731	-0.04
442.933	0.08
443.135	0.02
443.337	-0.04
443.539	-0
443.742	-0.07
443.944	-0
444.146	-0.07
444.348	-0.02
444.55	-0.03
444.752	-0.03
444.954	-0.03
445.156	-0.01
445.358	-0.03
445.56	0.01
445.762	-0.02
445.964	-0.01
446.166	-0.02
446.368	-0.05
446.57	0.05
446.772	-0.04
446.974	-0.05
447.175	-0.02
447.377	-0.04
447.579	-0.05
447.781	-0.1
447.983	0.04
448.184	-0.03
448.386	0.03
448.588	-0.09
448.79	-0.05
448.991	-0.06
449.193	-0.06
449.395	0.01
449.597	-0.02
449.798	-0.03
450	-0.01
450.202	0
450.403	-0.03
450.605	0.01
450.806	0
451.008	-0.11
451.21	-0.09
451.411	-0.02
451.613	-0.02
451.814	0.01
452.016	-0
452.217	0.01
452.419	0.04
452.62	-0.05
452.821	0.06
453.023	0.02
453.224	0.02
453.426	-0.03
453.627	0.01
453.828	0.01
454.03	0.01
454.231	-0.03
454.432	-0.08
454.634	0.05
454.835	-0.03
455.036	-0.07
455.238	0.03
455.439	0.03
455.64	-0.08
455.841	-0.06
456.042	0.06
456.244	0.03
456.445	-0.07
456.646	-0.04
456.847	-0.06
457.048	0.04
457.249	0.04
457.45	0.16
457.651	-0.08
457.852	0.03
458.054	-0.01
458.255	-0.06
458.456	0.02
458.657	-0.02
458.858	-0.08
459.058	0.01
459.259	0.02
459.46	-0.05
459.661	-0.02
459.862	0.08
460.063	-0.03
460.264	0.02
460.465	-0.05
460.666	0.1
460.866	-0.02
461.067	-0.01
461.268	-0.03
461.469	-0.07
461.67	-0.03
461.87	-0.04
462.071	-0.04
462.272	-0.06
462.473	-0.03
462.673	-0.02
462.874	-0.04
463.075	-0.05
463.275	-0.04
463.476	0.01
463.676	0.02
463.877	-0.02
464.078	0.04
464.278	-0
464.479	-0.05
464.679	-0.04
464.88	-0.04
465.08	0.02
465.281	-0.05
465.481	-0.02
465.682	-0.05
465.882	-0.05
466.083	-0.01
466.283	-0.05
466.483	-0
466.684	-0.06
466.884	-0.04
467.085	-0.03
467.285	-0
467.485	-0.04
467.686	-0.02
467.886	-0.07
468.086	-0.03
468.286	-0.01
468.487	-0.03
468.687	-0.04
468.887	-0
469.087	0.03
469.287	0.01
469.488	-0.07
469.688	0.02
469.888	0.05
470.088	0.02
470.288	0.05
470.488	-0
470.688	-0.06
470.888	-0.02
471.088	-0.04
471.288	0.02
471.488	0.02
471.688	0
471.888	-0.05
472.088	0.03
472.288	0.04
472.488	-0.04
472.688	-0.01
472.888	-0.01
473.088	-0.02
473.288	-0.02
473.488	-0.01
473.688	0.03
473.887	-0.03
474.087	-0.03
474.287	-0.03
474.487	-0.05
474.687	-0.02
474.886	-0.02
475.086	-0.01
475.286	0.03
475.486	0.02
475.685	0
475.885	-0.02
476.085	-0.03
476.284	-0.02
476.484	-0.05
476.684	0.01
476.883	0.05
477.083	-0
477.282	-0.03
477.482	0.05
477.681	0.08
477.881	-0.03
478.08	-0.03
478.28	-0.04
478.479	0.04
478.679	0.06
478.878	-0.03
479.078	-0.02
479.277	-0.01
479.477	-0.01
479.676	0.03
479.875	-0.03
480.075	-0.05
480.274	-0.01
480.473	0.01
480.673	-0.03
480.872	0.03
481.071	-0
481.271	0.01
481.47	-0.02
481.669	-0.05
481.868	-0.02
482.067	-0.07
482.267	0.01
482.466	-0.07
482.665	-0.04
482.864	-0.05
483.063	-0.02
483.262	0.01
483.461	0.03
483.661	0.04
483.86	0.02
484.059	-0
484.258	-0.02
484.457	-0.03
484.656	0.01
484.855	0.02
485.054	-0.08
485.253	-0.02
485.452	-0.02
485.651	-0.01
485.849	-0.01
486.048	-0.04
486.247	-0.07
486.446	-0.02
486.645	-0.04
486.844	-0.02
487.043	-0.04
487.241	0.02
487.44	-0.03
487.639	-0.03
487.838	0.02
488.037	-0.02
488.235	0.03
488.434	0
488.633	-0.02
488.831	-0.01
489.03	0.03
489.229	-0.01
489.427	-0.03
489.626	0.04
489.825	0.07
490.023	-0.01
490.222	-0.03
490.42	0.01
490.619	0.03
490.817	0.02
491.016	-0.02
491.214	0.01
491.413	-0
491.611	-0.03
491.81	-0.01
492.008	0.02
492.207	0.01
492.405	-0
492.604	-0.05
492.802	0.02
493	0.01
493.199	-0.03
493.397	-0.01
493.595	0.01
493.794	-0.03
493.992	0.04
494.19	-0.02
494.388	0.01
494.587	-0.02
494.785	0.01
494.983	-0.05
495.181	-0
495.379	0.02
495.578	-0.02
495.776	0.02
495.974	0.01
496.172	0.01
496.37	-0.02
496.568	-0.03
496.766	-0.03
496.964	0.01
497.162	0.01
497.36	-0.05
497.558	0.01
497.756	-0
497.954	-0.02
498.152	-0.04
498.35	-0.01
498.548	-0.02
498.746	-0.01
498.944	-0.02
499.142	-0.02
499.34	-0.04
499.538	-0.02
499.736	-0.03
499.933	0.01
500.131	0.02
500.329	-0
500.527	0.03
500.725	0.02
500.922	0.01
501.12	0.01
501.318	0
501.516	-0.03
501.713	-0.01
501.911	-0.01
502.109	-0.04
502.306	0.01
502.504	-0.02
502.701	-0.03
502.899	-0.03
503.097	0.04
503.294	-0
503.492	-0.02
503.689	-0.01
503.887	-0
504.084	0.04
504.282	-0
504.479	-0.05
504.677	-0.01
504.874	-0.02
505.072	0
505.269	-0
505.466	0
505.664	0.02
505.861	-0.04
506.059	-0.03
506.256	0.02
506.453	-0.04
506.651	0.03
506.848	0
507.045	-0
507.242	-0.01
507.44	-0.02
507.637	0
507.834	-0
508.031	0.03
508.229	-0.02
508.426	-0.02
508.623	0.01
508.82	-0.01
509.017	-0.03
509.214	-0
509.411	0.01
509.608	-0.04
509.805	-0.02
510.003	-0
510.2	-0.01
510.397	0.02
510.594	-0.03
510.791	-0.03
510.988	-0.02
511.184	0.02
511.381	0.01
511.578	0
511.775	0.02
511.972	-0.01
512.169	-0.02
512.366	-0.01
512.563	-0
512.76	-0.02
512.956	-0.01
513.153	-0.03
513.35	-0.01
513.547	-0.03
513.744	-0.03
513.94	-0.03
514.137	-0.01
514.334	0
514.53	-0
514.727	0.02
514.924	0.05
515.12	-0.02
515.317	-0.03
515.514	-0.02
515.71	-0.04
515.907	-0.01
516.103	0.01
516.3	0.01
516.497	0.02
516.693	0.02
516.89	0.01
517.086	-0.03
517.283	0.04
517.479	-0.02
517.676	-0.01
517.872	-0.02
518.068	-0.01
518.265	-0.03
518.461	-0.02
518.658	-0.03
518.854	0.01
519.05	-0.03
519.247	-0
519.443	0.01
519.639	0
519.836	-0.01
520.032	-0.02
520.228	-0
520.424	0.05
520.621	0.03
520.817	-0.01
521.013	0.02
521.209	0.01
521.405	0.02
521.601	0
521.798	0
521.994	0.01
522.19	-0.02
522.386	-0.03
522.582	-0.01
522.778	-0
522.974	-0.02
523.17	-0.01
523.366	-0.01
523.562	0.02
523.758	0.01
523.954	-0.04
524.15	-0.02
524.346	0
524.542	-0.02
524.738	-0.02
524.934	-0.02
525.129	-0.01
525.325	0.01
525.521	0.01
525.717	0.02
525.913	-0
526.109	-0.02
526.304	0
526.5	-0.02
526.696	0.02
526.892	-0.01
527.087	-0.02
527.283	-0.04
527.479	0.01
527.674	-0.02
527.87	-0.02
528.066	-0
528.261	0
528.457	-0
528.653	-0.02
528.848	-0.02
529.044	0.01
529.239	-0.01
529.435	0.02
529.63	0.02
529.826	0.04
530.021	0.02
530.217	0.02
530.412	-0
530.608	-0.03
530.803	-0.05
530.999	-0.01
531.194	-0.07
531.389	0
531.585	-0.04
531.78	-0
531.975	0
532.171	0.02
532.366	-0.01
532.561	-0.01
532.757	-0.02
532.952	-0.02
533.147	0.02
533.342	0
533.538	-0.02
533.733	0.01
533.928	-0.02
534.123	-0.01
534.318	-0.03
534.513	0
534.709	0
534.904	-0.02
535.099	-0.02
535.294	-0
535.489	-0.01
535.684	-0.02
535.879	-0.05
536.074	-0
536.269	-0
536.464	0.01
536.659	-0.01
536.854	-0.02
537.049	0.02
537.244	0.02
537.439	-0.04
537.634	0.01
537.828	0.01
538.023	0.01
538.218	-0.04
538.413	-0.03
538.608	-0.05
538.803	0
538.997	-0.03
539.192	-0.02
539.387	0.03
539.582	0.01
539.776	-0.01
539.971	-0.04
540.166	-0
540.36	-0.04
540.555	-0
540.75	-0.02
540.944	-0
541.139	-0.04
541.334	-0.02
541.528	0
541.723	-0
541.917	-0.02
542.112	-0.04
542.306	-0.03
542.501	-0.01
542.695	-0.02
542.89	-0.03
543.084	0
543.279	-0.01
543.473	-0.01
543.668	-0.02
543.862	0
544.056	-0.01
544.251	0
544.445	-0
544.64	-0.02
544.834	-0.03
545.028	-0.01
545.222	-0
545.417	0
545.611	0.01
545.805	-0.02
546	-0.01
546.194	-0.02
546.388	-0.05
546.582	0.02
546.776	-0.01
546.97	0.01
547.165	0
547.359	-0.01
547.553	-0.04
547.747	-0.03
547.941	0
548.135	-0.02
548.329	-0.01
548.523	0.01
548.717	-0.02
548.911	-0.01
549.105	0
549.299	-0.01
549.493	0.02
549.687	-0
549.881	0.01
550.075	-0.01
550.269	-0.03
550.463	-0
550.657	-0.03
550.85	-0.01
551.044	-0.03
551.238	0.01
551.432	-0.01
551.626	-0.04
551.82	0.02
552.013	-0.01
552.207	0
552.401	0.03
552.594	0.01
552.788	-0.02
552.982	-0.01
553.176	-0.01
553.369	-0
553.563	0.01
553.756	-0.04
553.95	-0.04
554.144	-0.01
554.337	0.02
554.531	0
554.724	-0.02
554.918	-0.02
555.111	-0
555.305	-0.01
555.498	0.04
555.692	0.01
555.885	0
556.079	0.02
556.272	-0.02
556.466	0.01
556.659	-0
556.852	-0
557.046	-0.01
557.239	0.02
557.432	-0.02
557.626	-0.01
557.819	0.02
558.012	0.01
558.206	0.05
558.399	0
558.592	0.02
558.785	-0
558.979	0.02
559.172	-0.01
559.365	0.01
559.558	-0
559.751	-0.02
559.944	0.01
560.138	-0.01
560.331	0.01
560.524	-0.01
560.717	-0.01
560.91	-0
561.103	0.01
561.296	0.01
561.489	-0.01
561.682	-0.01
561.875	0.03
562.068	-0
562.261	-0
562.454	0.01
562.647	-0
562.84	0
563.032	-0.03
563.225	-0
563.418	-0.02
563.611	0.01
563.804	-0.02
563.997	-0.05
564.19	-0.03
564.382	0.02
564.575	-0.01
564.768	-0.01
564.961	-0.01
565.153	-0.02
565.346	0.03
565.539	0.02
565.731	-0
565.924	0.04
566.117	0.01
566.309	-0.01
566.502	-0.02
566.695	-0.01
566.887	0.01
567.08	-0.01
567.272	-0
567.465	-0
567.657	0.01
567.85	0.03
568.042	-0.01
568.235	0.03
568.427	0.01
568.62	-0.01
568.812	0.02
569.005	0.01
569.197	-0.02
569.389	-0
569.582	0.01
569.774	0.01
569.966	-0.04
570.159	-0.04
570.351	0.02
570.543	-0.02
570.736	-0
570.928	-0.02
571.12	-0
571.312	-0.02
571.505	-0.01
571.697	0.02
571.889	-0.03
572.081	-0.01
572.273	-0.03
572.465	0.03
572.658	-0.01
572.85	-0
573.042	-0.02
573.234	-0.02
573.426	0.01
573.618	-0.02
573.81	0
574.002	0.03
574.194	0.04
574.386	-0.05
574.578	-0.07
574.77	-0.01
574.962	-0
575.154	-0.03
575.346	-0
575.538	0.01
575.729	-0
575.921	-0
576.113	-0.02
576.305	0.04
576.497	-0.01
576.689	0.01
576.88	-0.02
577.072	0.04
577.264	-0.01
577.456	0.02
577.647	-0.05
577.839	-0.03
578.031	0.05
578.223	-0.02
578.414	-0.05
578.606	0.03
578.798	0.02
578.989	0.01
579.181	-0
579.372	0.01
579.564	-0.01
579.755	0.01
579.947	0.02
580.139	0.03
580.33	-0.03
580.522	-0.02
580.713	-0.05
580.905	-0
581.096	0.03
581.287	0.02
581.479	0.02
581.67	0.03
581.862	0.02
582.053	0.01
582.244	-0.01
582.436	0.01
582.627	0.02
582.818	0.02
583.01	-0
583.201	0.03
583.392	0.06
583.583	0.02
583.775	0.01
583.966	0.02
584.157	0.01
584.348	-0.01
584.54	-0.01
584.731	0.03
584.922	0.04
585.113	0.02
585.304	0.05
585.495	0.08
585.686	0.02
585.877	0.05
586.068	0.04
586.259	0.04
586.45	0.03
586.641	0
586.832	-0.01
587.023	0.06
587.214	0.01
587.405	0.03
587.596	0.02
587.787	0.06
587.978	0.05
588.169	0.04
588.36	0.02
588.551	0.05
588.742	0.02
588.932	0.06
589.123	0.02
589.314	0.07
589.505	0.05
589.696	0.06
589.886	0.01
590.077	-0
590.268	0.07
590.458	0.02
590.649	0.01
590.84	0.09
591.03	0.05
591.221	0.04
591.412	0.04
591.602	0.08
591.793	0.09
591.984	0.02
592.174	0.06
592.365	0.13
592.555	0.05
592.746	0.09
592.936	0.08
593.127	0.08
593.317	0.13
593.508	0.08
593.698	0.07
593.889	0.11
594.079	0.08
594.269	0.08
594.46	0.1
594.65	0.06
594.84	0.09
595.031	0.05
595.221	0.09
595.411	0.07
595.602	0.13
595.792	0.11
595.982	0.09
596.172	0.17
596.363	0.11
596.553	0.1
596.743	0.12
596.933	0.1
597.123	0.17
597.314	0.12
597.504	0.11
597.694	0.14
597.884	0.14
598.074	0.12
598.264	0.12
598.454	0.16
598.644	0.15
598.834	0.15
599.024	0.11
599.214	0.13
599.404	0.18
599.594	0.15
599.784	0.12
599.974	0.23
600.164	0.18
600.354	0.15
600.544	0.12
600.734	0.17
600.924	0.23
601.114	0.17
601.303	0.17
601.493	0.2
601.683	0.19
601.873	0.2
602.063	0.17
602.252	0.24
602.442	0.17
602.632	0.2
602.821	0.15
603.011	0.24
603.201	0.21
603.39	0.22
603.58	0.22
603.77	0.25
603.959	0.28
604.149	0.25
604.339	0.24
604.528	0.32
604.718	0.28
604.907	0.25
605.097	0.29
605.286	0.23
605.476	0.31
605.665	0.31
605.855	0.29
606.044	0.36
606.234	0.33
606.423	0.31
606.612	0.31
606.802	0.35
606.991	0.37
607.181	0.39
607.37	0.3
607.559	0.36
607.749	0.35
607.938	0.38
608.127	0.37
608.316	0.35
608.506	0.4
608.695	0.42
608.884	0.41
609.073	0.44
609.263	0.44
609.452	0.45
609.641	0.47
609.83	0.45
610.019	0.46
610.208	0.48
610.397	0.53
610.586	0.57
610.775	0.51
610.965	0.54
611.154	0.5
611.343	0.57
611.532	0.59
611.721	0.58
611.91	0.58
612.099	0.66
612.287	0.62
612.476	0.6
612.665	0.66
612.854	0.67
613.043	0.7
613.232	0.7
613.421	0.69
613.61	0.73
613.798	0.71
613.987	0.85
614.176	0.81
614.365	0.82
614.554	0.87
614.742	0.92
614.931	0.85
615.12	0.9
615.309	0.91
615.497	0.9
615.686	0.9
615.875	1.01
616.063	0.97
616.252	1.01
616.44	1
616.629	1.05
616.818	1.08
617.006	1.06
617.195	1.08
617.383	1.09
617.572	1.14
617.76	1.16
617.949	1.18
618.137	1.22
618.326	1.24
618.514	1.18
618.703	1.19
618.891	1.31
619.079	1.25
619.268	1.31
619.456	1.25
619.644	1.35
619.833	1.33
620.021	1.36
620.209	1.31
620.398	1.4
620.586	1.39
620.774	1.45
620.962	1.44
621.151	1.53
621.339	1.46
621.527	1.42
621.715	1.44
621.903	1.49
622.092	1.46
622.28	1.56
622.468	1.48
622.656	1.54
622.844	1.49
623.032	1.51
623.22	1.46
623.408	1.56
623.596	1.6
623.784	1.57
623.972	1.46
624.16	1.46
624.348	1.53
624.536	1.47
624.724	1.47
624.912	1.46
625.1	1.46
625.288	1.41
625.476	1.37
625.664	1.4
625.851	1.31
626.039	1.35
626.227	1.31
626.415	1.28
626.603	1.13
626.79	1.25
626.978	1.23
627.166	1.18
627.354	1.13
627.541	1.04
627.729	0.97
627.917	1.06
628.104	1.03
628.292	0.96
628.48	0.96
628.667	0.93
628.855	0.85
629.042	0.87
629.23	0.79
629.418	0.72
629.605	0.73
629.793	0.71
629.98	0.66
630.168	0.64
630.355	0.63
630.543	0.65
630.73	0.56
630.917	0.56
631.105	0.63
631.292	0.51
631.48	0.48
631.667	0.57
631.854	0.43
632.042	0.43
632.229	0.38
632.416	0.43
632.604	0.4
632.791	0.33
632.978	0.36
633.165	0.37
633.353	0.39
633.54	0.36
633.727	0.25
633.914	0.28
634.101	0.2
634.289	0.31
634.476	0.22
634.663	0.26
634.85	0.24
635.037	0.21
635.224	0.21
635.411	0.25
635.598	0.24
635.785	0.19
635.972	0.2
636.159	0.24
636.346	0.14
636.533	0.18
636.72	0.16
636.907	0.15
637.094	0.15
637.281	0.14
637.468	0.15
637.655	0.15
637.842	0.09
638.029	0.08
638.215	0.16
638.402	0.14
638.589	0.07
638.776	0.09
638.963	0.07
639.149	0.12
639.336	0.17
639.523	0.11
639.709	0.09
639.896	0.06
640.083	0.16
640.27	0.11
640.456	0.07
640.643	0.08
640.829	0.05
641.016	0.07
641.203	0.02
641.389	0.07
641.576	0.09
641.762	0.07
641.949	0.01
642.135	0.1
642.322	0.07
642.508	-0.01
642.695	0.03
642.881	0.04
643.068	0.07
643.254	0.04
643.441	0.09
643.627	0.05
643.813	0.01
644	0.08
644.186	-0
644.372	0.02
644.559	0.07
644.745	0.04
644.931	0.03
645.118	0.01
645.304	0.06
645.49	0
645.676	-0
645.862	0.04
646.049	0.09
646.235	0.02
646.421	0.1
646.607	0.09
646.793	-0.01
646.979	-0.02
647.165	0.04
647.352	0.03
647.538	0.07
647.724	0.03
647.91	0.01
648.096	0.07
648.282	0.05
648.468	0.01
648.654	0.02
648.84	0.03
649.026	0.01
649.212	-0.01
649.397	-0.01
649.583	-0.04
649.769	0.07
649.955	0
650.141	0.01
650.327	0.03
650.513	-0.03
650.698	0.04
650.884	-0.06
651.07	0
651.256	0.01
651.442	0
651.627	0.01
651.813	0.02
651.999	0
652.184	0.03
652.37	0
652.556	-0.02
652.741	0.07
652.927	-0.09
653.113	-0.01
653.298	0.02
653.484	0
653.669	-0.04
653.855	0.01
654.04	0
654.226	0
654.412	-0.04
654.597	-0.06
654.782	-0.01
654.968	0.02
655.153	0.01
655.339	0
655.524	-0.06
655.71	0.02
655.895	-0.01
656.08	-0.02
656.266	0.04
656.451	-0.03
656.636	-0.04
656.822	-0.01
657.007	-0.04
657.192	-0.05
657.378	-0.06
657.563	-0
657.748	0.01
657.933	0
658.118	-0.02
658.304	-0.01
658.489	0.01
658.674	0.01
658.859	-0.08
659.044	0.01
659.229	-0.03
659.414	-0.03
659.599	-0.03
659.785	-0.02
659.97	-0.03
660.155	0.02
660.34	0
660.525	-0.03
660.71	0.01
660.895	0.04
661.08	-0.03
661.264	-0.02
661.449	0.05
661.634	0.07
661.819	0
662.004	0.02
662.189	-0.09
662.374	-0.03
662.559	-0.05
662.743	-0.05
662.928	-0.05
663.113	-0.01
663.298	-0.07
663.483	-0.03
663.667	0.03
663.852	-0.06
664.037	0.01
664.221	-0.04
664.406	0.02
664.591	0.03
664.775	0
664.96	0
665.145	0.02
665.329	0.02
665.514	-0.01
665.698	-0.01
665.883	-0.06
666.068	0.03
666.252	-0.02
666.437	-0.04
666.621	0.01
666.806	0.01
666.99	-0.05
667.174	-0.06
667.359	0.05
667.543	-0.01
667.728	-0.01
667.912	-0.09
668.096	0.02
668.281	-0.04
668.465	0
668.649	0.01
668.834	-0.05
669.018	-0
669.202	-0.04
669.387	-0.01
669.571	0.02
669.755	-0.05
669.939	-0.03
670.124	0.02
670.308	0.08
670.492	0.02
670.676	-0.02
670.86	-0.01
671.044	-0.05
671.228	-0
671.413	-0.04
671.597	-0.03
671.781	-0.08
671.965	0.02
672.149	-0.05
672.333	-0
672.517	-0.05
672.701	-0.01
672.885	-0.04
673.069	-0.06
673.253	0.03
673.437	-0.03
673.621	-0.05
673.804	-0.03
673.988	0.02
674.172	-0.01
674.356	0
674.54	-0.06
674.724	0.04
674.908	-0.04
675.091	0.05
675.275	-0.01
675.459	0
675.643	0.05
675.826	-0.01
676.01	-0.02
676.194	-0.06
676.377	0.01
676.561	-0.03
676.745	-0.02
676.928	-0.01
677.112	0.02
677.296	-0.07
677.479	-0.06
677.663	-0.05
677.846	0.01
678.03	-0.02
678.213	-0.03
678.397	-0.02
678.58	-0.06
678.764	-0.07
678.947	-0.04
679.131	-0.08
679.314	0.04
679.498	-0.04
679.681	0
679.865	0.01
680.048	-0.03
680.231	-0.02
680.415	-0.04
680.598	0.02
680.781	-0.01
680.965	-0.03
681.148	-0.04
681.331	0
681.514	-0.04
681.698	-0.01
681.881	-0.02
682.064	-0.02
682.247	0
682.43	-0.08
682.614	-0.01
682.797	0.06
682.98	-0.01
683.163	-0.04
683.346	0.01
683.529	-0.08
683.712	-0.05
683.895	0.01
684.078	-0.08
684.261	-0.02
684.444	-0.01
684.627	-0.03
684.81	-0.01
684.993	-0.03
685.176	0.01
685.359	-0.06
685.542	-0.02
685.725	0.03
685.908	-0.03
686.091	-0.04
686.274	0
686.457	0.01
686.639	0.02
686.822	-0
687.005	-0.01
687.188	0.04
687.371	0.06
687.553	-0.02
687.736	0.04
687.919	0.04
688.102	0.02
688.284	-0.06
688.467	-0
688.65	-0.04
688.832	-0.02
689.015	-0.01
689.197	-0.11
689.38	0.06
689.563	0.02
689.745	-0.05
689.928	-0.07
690.11	-0.01
690.293	0.04
690.475	-0.07
690.658	0.01
690.84	-0.03
691.023	-0.05
691.205	-0.02
691.388	-0.03
691.57	0.04
691.752	0
691.935	-0.07
692.117	-0.01
692.3	-0
692.482	-0.05
692.664	-0.02
692.847	-0
693.029	0.05
693.211	-0
693.393	-0.05
693.576	-0.04
693.758	-0
693.94	-0.04
694.122	-0.05
694.304	-0.06
694.487	-0.06
694.669	0.06
694.851	-0.08
695.033	-0
695.215	-0.06
695.397	-0.05
695.579	-0.02
695.761	-0.07
695.943	-0.07
696.125	-0.01
696.308	-0.06
696.49	-0.16
696.671	0.04
696.853	-0.04
697.035	0.13
697.217	-0.03
697.399	0.03
697.581	-0.02
697.763	0
697.945	-0.1
698.127	-0.01
698.309	0.04
698.491	-0.02
698.672	0.02
698.854	0.03
699.036	0.06
699.218	-0.01
699.399	0.05
699.581	-0
699.763	-0.03
699.945	-0.06
700.126	-0.08
700.308	0
700.49	-0.06
700.671	-0.06
700.853	-0.07
701.035	-0.04
701.216	-0.02
701.398	-0.07
701.579	-0.06
701.761	0.04
701.943	-0.04
702.124	-0.03
702.306	0
702.487	0.08
702.669	-0.02
702.85	-0.08
703.031	-0.08
703.213	0.06
703.394	-0.04
703.576	-0.02
703.757	0.03
703.938	-0.02
704.12	0.08
704.301	-0.03
704.483	-0.01
704.664	0
704.845	0.03
705.026	0.01
705.208	-0.01
705.389	-0
705.57	0
705.751	-0.01
705.933	-0.05
706.114	0.07
706.295	-0
706.476	-0.06
706.657	0.08
706.838	-0.04
707.02	0.08
707.201	-0.01
707.382	-0.03
707.563	0.03
707.744	-0.11
707.925	-0.11
708.106	-0.12
708.287	-0
708.468	0.08
708.649	-0.04
708.83	-0.03
709.011	-0.03
709.192	0.02
709.373	-0.05
709.554	-0.06
709.734	0.09
709.915	0
710.096	0.05
710.277	-0.12
710.458	0.03
710.639	-0.01
710.819	-0.09
711	-0.01
711.181	0.12
711.362	0.03
711.542	-0.03
711.723	-0.05
711.904	0.06
712.085	0.05
712.265	-0.03
712.446	-0.01
712.627	-0.02
712.807	-0.02
712.988	-0.01
713.168	-0.08
713.349	0.03
713.53	-0.13
713.71	-0.09
713.891	-0.09
714.071	-0.04
714.252	0
714.432	-0.08
714.613	-0.11
714.793	0
714.974	0.12
715.154	0.08
715.334	-0.01
715.515	0.09
715.695	-0.12
715.876	-0.08
716.056	-0
716.236	-0.03
716.417	-0.03
716.597	-0.1
716.777	0.1
716.957	0.03
717.138	0.01
717.318	-0.08
717.498	-0.05
717.678	0
717.859	0.06
718.039	-0.09
718.219	0.06
718.399	0.05
718.579	-0.14
718.759	-0.07
718.939	0.01
719.12	-0.05
719.3	0.04
719.48	-0.2
719.66	-0.14
719.84	0.05
720.02	0.06
720.2	-0.03
720.38	-0.06
720.56	0.08
720.74	-0.05
720.92	-0.02
721.1	0.03
721.279	0.08
721.459	-0.08
721.639	-0.16
721.819	0.05
721.999	-0.09
722.179	0.02
722.359	-0.08
722.538	-0.01
722.718	-0.05
722.898	-0.04
723.078	0.03
723.257	-0.08
723.437	-0.03
723.617	0.04
723.797	-0.05
723.976	-0.04
724.156	0
724.336	-0.01
724.515	0.09
724.695	-0.14
724.874	-0.02
725.054	0.03
725.234	-0.11
725.413	-0.02
725.593	-0.05
725.772	-0.1
725.952	-0.02
726.131	-0.05
726.311	-0.02
726.49	0.01
726.67	-0.14
726.849	-0.04
727.028	0.02
727.208	-0.03
727.387	0.03
727.567	-0.1
727.746	0.05
727.925	-0.08
728.105	-0.14
728.284	-0.03
728.463	-0.05
728.643	-0.03
728.822	-0.08
729.001	-0.02
729.18	-0.02
729.359	0.02
729.539	0.02
729.718	0
729.897	0.03
730.076	-0.14
730.255	-0.12
730.434	-0.1
730.614	0.05
730.793	-0.01
730.972	0.01
731.151	-0.05
731.33	0.04
731.509	0.08
731.688	-0.05
731.867	-0.05
732.046	-0.22
732.225	0.13
732.404	-0.04
732.583	-0.13
732.762	-0.06
732.941	0.1
733.12	0.04
733.298	-0.02
733.477	0.04
733.656	-0.04
733.835	-0.16
734.014	0.01
734.193	-0.1
734.371	0.02
734.55	-0.01
734.729	-0.14
734.908	-0.04
735.086	-0.02
735.265	0.04
735.444	-0.18
735.623	-0.09
735.801	-0.12
735.98	-0.04
736.159	-0.13
736.337	0.01
736.516	-0.02
736.694	-0.09
736.873	-0.1
737.052	0.13
737.23	0.04
737.409	-0.2
737.587	0.17
737.766	-0.2
737.944	-0.15
738.123	0.03
738.301	0.03
738.479	-0.18
738.658	-0.04
738.836	-0.23
739.015	-0.02
739.193	0.08
739.371	-0.05
739.55	-0.05
739.728	-0.11
739.906	0.11
740.085	0.06
740.263	-0.02
740.441	-0.27
740.62	0.15
740.798	0.12
740.976	-0.17
741.154	-0.16
741.332	0.03
741.511	-0
741.689	-0.01
741.867	0.12
742.045	0.12
742.223	-0.02
742.401	-0.04
742.579	-0.09
742.757	0.02
742.935	-0.11
743.114	-0.13
743.292	-0.11
743.47	-0.03
743.648	-0.01
743.826	-0.19
744.004	0.1
744.181	0.08
744.359	-0.07
744.537	-0.1
744.715	-0.04
744.893	-0.03
745.071	-0.06
745.249	-0.15
745.427	-0.05
745.605	0.05
745.782	0.01
745.96	0.01
746.138	-0.06
746.316	0.15
746.493	-0.15
746.671	0.02
746.849	-0
747.027	0.02
747.204	-0.14
747.382	0.1
747.56	-0.16
747.737	-0.13
747.915	-0.05
748.093	0
748.27	0.02
748.448	-0.12
748.625	-0.18
748.803	-0.12
748.98	-0.08
749.158	-0.09
749.335	0.06
749.513	-0.03
749.69	-0.1
749.868	-0.04
750.045	-0.02
750.223	-0.11
750.4	-0.21
750.578	0.08
750.755	-0.1
750.932	-0.18
751.11	0.02
751.287	-0.25
751.464	0.06
751.642	-0.09
751.819	0
751.996	-0.06
752.173	-0.14
752.351	-0.1
752.528	0.01
752.705	-0.04
752.882	-0.05
753.06	-0.03
753.237	0.04
753.414	0.15
753.591	0.08
753.768	-0.09
753.945	-0.06
754.122	-0.09
754.299	-0.03
754.476	-0.07
754.654	-0.02
754.831	-0.01
755.008	0.01
755.185	0.03
755.362	-0.15
755.539	0.05
755.716	-0.17
755.892	-0.13
756.069	-0.04
756.246	-0.04
756.423	-0.05
756.6	0.04
756.777	-0.1
756.954	0.06
757.131	-0.07
757.307	-0.04
757.484	-0.14
757.661	-0.05
757.838	-0.08
758.015	-0.1
758.191	0.05
758.368	0.1
758.545	0.18
758.721	0.06
758.898	-0.23
759.075	0.01
759.251	0.06
759.428	0.08
759.605	-0.16
759.781	-0.04
759.958	0.05
760.134	0.04
760.311	-0.04
760.488	0.01
760.664	0.1
760.841	-0.05
761.017	-0.04
761.194	-0.01
761.37	0.03
761.547	-0.05
761.723	0
761.899	0.15
762.076	-0.04
762.252	-0.04
762.429	-0.01
762.605	0.1
762.781	0.03
762.958	0.04
763.134	-0.07
763.31	-0.18
763.486	0.07
763.663	-0.22
763.839	0.01
764.015	-0.26
764.191	-0.1
764.368	-0.02
764.544	-0.14
764.72	-0.01
764.896	0.07
765.072	-0.07
765.248	0
765.425	-0.13
765.601	0.06
765.777	-0.05
765.953	-0.16
766.129	-0.07
766.305	-0.15
766.481	0.06
766.657	-0.07
766.833	0.06
767.009	-0.16
767.185	-0.06
767.361	-0.08
767.537	-0.08
767.713	0.31
767.889	-0.17
768.065	-0.01
768.24	-0.19
768.416	-0.01
768.592	-0.05
768.768	-0.04
768.944	-0.06
769.12	-0.04
769.295	-0.03
769.471	-0.05
769.647	-0.05
769.823	0.06
769.998	-0.1
770.174	-0.13
770.35	0.12
770.525	0.37
770.701	0.07
770.877	-0.07
771.052	-0.06
771.228	0.08
771.403	-0.08
771.579	-0.01
771.755	0.21
771.93	-0.06
772.106	-0.07
772.281	-0.23
772.457	0.01
772.632	-0.01
772.808	-0.12
772.983	-0.04
773.159	-0.17
773.334	0.07
773.509	-0.2
773.685	-0.07
773.86	0.24
774.036	0.13
774.211	0.01
774.386	-0.15
774.562	-0.1
774.737	0.04
774.912	-0.02
775.087	0.13
775.263	0.01
775.438	-0.01
775.613	0
775.788	0.03
775.964	-0.01
776.139	0.22
776.314	-0.04
776.489	-0.06
776.664	-0.05
776.839	-0.17
777.014	0.09
777.19	0.12
777.365	0.17
777.54	0.22
777.715	0.03
777.89	-0.02
778.065	-0.12
778.24	-0.31
778.415	0.16
778.59	-0.17
778.765	-0.21
778.94	0.11
779.115	-0.22
779.289	0.02
779.464	0.13
779.639	0.07
779.814	-0.2
779.989	-0.18
780.164	0.26
780.339	-0.04
780.513	-0.16
780.688	-0.31
780.863	-0.01
781.038	0.25
781.212	-0.11
781.387	0.16
781.562	0.09
781.737	0.06
781.911	0.15
782.086	-0.17
782.261	-0.1
782.435	0.26
782.61	-0.16
782.784	-0.06
782.959	0.25
783.134	-0.16
783.308	-0.13
783.483	-0.21
783.657	0.27
783.832	-0.02
784.006	-0.11
784.181	-0.01
784.355	0.28
784.53	-0.25
784.704	-0.1
784.878	0.19
785.053	0.04
785.227	-0.02
785.402	0.25
785.576	-0.18
785.75	-0.15
785.925	-0.02
786.099	-0.01
786.273	0.09
786.448	0.01
786.622	0.05
786.796	-0.19
786.97	-0.15
787.145	0.4
787.319	-0.3
787.493	-0.15
787.667	-0.24
787.841	0.06
788.015	0.24
788.19	-0.11
788.364	0.02
788.538	-0.02
788.712	0.31
788.886	-0.01
789.06	0.06
789.234	-0.01
789.408	-0.42
789.582	0
789.756	-0.07
789.93	-0.21
790.104	0.04
790.278	-0.2
790.452	-0.04
790.626	0.39
790.8	-0.25
790.973	-0
791.147	0.19
791.321	0.12
791.495	0.31
791.669	-0.09
791.843	-0.06
792.016	0.06
792.19	0.25
792.364	-0.17
792.538	0.43
792.711	0
792.885	-0.16
793.059	-0.31
793.233	-0.45
793.406	0.26
793.58	0.07
793.754	-0.04
793.927	0.13
794.101	0.29
794.274	-0.04
794.448	0.15
794.622	-0.29
794.795	0.28
794.969	-0.18
795.142	0.24
795.316	-0.17
795.489	-0.14
795.663	0.25
795.836	-0.25
796.009	-0.25
796.183	0.22
796.356	0.17
796.53	0.1
796.703	-0.11
796.876	0.45
797.05	-0.14
797.223	-0.22
797.396	-0.05
797.57	-0.04
797.743	0.3
797.916	-0.09
798.09	-0.08
798.263	0.13
798.436	-0.07
798.609	-0.07
798.782	-0.18
798.956	0.07
799.129	-0.01
799.302	-0.13
799.475	-0.15
799.648	-0.35
799.821	-0.12
799.994	-0.01
800.167	-0.58
800.34	-0.11
800.514	-0.02
800.687	-0.24
800.86	-0.2
801.033	-0.3
801.206	-0.06
801.379	-0.32
801.551	0.09
801.724	0.08
801.897	-0.01
802.07	-0.17
802.243	-0.73
802.416	0.02
802.589	-0.17
802.762	0.34
802.935	-0.19
803.107	0.26
803.28	-0
803.453	0.15
803.626	-0.34
803.798	0.12
803.971	-0.15
804.144	-0.03
804.317	-0.09
804.489	0.05
804.662	-0.07
804.835	0.03
805.007	-0.28
805.18	0.31
805.353	0.21
805.525	-0.49
805.698	-0.2
805.87	0.14
806.043	0.14
806.215	-0.2
806.388	-0.24
806.56	0.16
806.733	0.23
806.905	-0.07
807.078	-0.45
807.25	-0.55
807.423	0.31
807.595	-0.28
807.768	0.26
807.94	0.02
808.112	-0.07
808.285	-0.17
808.457	0.09
808.629	-0.36
808.802	-0.22
808.974	-0.37
809.146	-0.1
809.318	-0.53
809.491	-0.32
809.663	0.17
809.835	-0.32
810.007	-0.01
810.18	-0.05
810.352	-0.32
810.524	-0.52
810.696	0.07
810.868	0.14
811.04	0.13
811.212	-0.41
811.384	0.43
811.556	-0.25
811.728	-0.2
811.901	0.4
812.073	-0.03
812.245	0.35
812.417	-0.02
812.589	-0.6
812.76	-0.23
812.932	0.32
813.104	0.27
813.276	-0.07
813.448	-0.06
813.62	-0.2
813.792	-0.19
813.964	-0.14
814.136	0.38
814.307	-0.32
814.479	-0.16
814.651	-0.11
814.823	0.73
814.995	-0.46
815.166	-0.1
815.338	-0.43
815.51	-0.71
815.681	0.36
815.853	-0.26
816.025	-0.1
816.196	0.37
816.368	0.4
816.54	-0.38
816.711	-0.69
816.883	-0.22
817.054	0.42
817.226	-0.54
817.398	0.03
817.569	-0.3
817.741	-0.05
817.912	0.08
818.084	-0.2
818.255	0.3
818.426	-0.68
818.598	-0.13
818.769	-0.67
818.941	0.19
819.112	0.5
819.283	0.38
819.455	-0.84
819.626	0
819.798	0.13
819.969	-0.26
820.14	0.22
820.311	-0.37
820.483	-0.11
820.654	-0.03
820.825	-0.01
820.996	-0.16
821.168	-0.43
821.339	0.05
821.51	-0.71
821.681	-0.01
821.852	0.04
822.023	-0.61
822.195	-0.92
822.366	0.3
822.537	-0.25
822.708	-0.59
822.879	-0.37
823.05	0.78
823.221	-0.09
823.392	0.39
823.563	-0.03
823.734	0.37
823.905	-0.18
824.076	-0.64
824.247	-0.42
824.418	-0.73
824.589	0.5
824.759	-0.33
824.93	0.04
825.101	-0.58
825.272	0.32
825.443	0.65
825.614	-0.06
825.784	-1.23
825.955	0.88
826.126	0.3
826.297	-0.35
826.467	0.16
826.638	0.03
826.809	-0.8
826.98	0.24
827.15	0.21
827.321	-0.15
827.492	0.13
827.662	0.34
827.833	0.37
828.003	0.21
828.174	-0.18
828.345	-0.57
828.515	0.91
828.686	0.09
828.856	-0.23
829.027	-0.36
829.197	0.19
829.368	0.38
829.538	-0.64
829.709	-0.31
829.879	0.37
830.049	-0.73
830.22	-0.47
830.39	-0.47
830.56	0.46
830.731	-0.05
830.901	-1.35
831.072	-0.39
831.242	0.29
831.412	-0.87
831.582	0.45
831.753	-1.06
831.923	-0.02
832.093	-0.11
832.263	-0.77
832.434	-0.25
832.604	-0.14
832.774	0.38
832.944	-0.27
833.114	-0.38
833.284	0.07
833.454	-0.86
833.624	-0.2
833.795	-0.56
833.965	-0.02
834.135	0.4
834.305	-1.28
834.475	-1.07
834.645	-0.22
834.815	-1.02
834.985	-0.28
835.155	-0.24
835.325	-0.51
835.494	0.22
835.664	0.14
835.834	-0.85
836.004	0.07
836.174	0.02
836.344	-0.46
836.514	-0.71
836.684	-0.23
836.853	-0.22
837.023	-0.07
837.193	-0.55
837.363	-0.19
837.532	0.45
837.702	0.12
837.872	-0.46
838.041	0.63
838.211	0.8
838.381	-0.88
838.55	-0.3
838.72	1.5
838.89	0.98
839.059	-0.34
839.229	-0.41
839.398	1.11
839.568	0.16
839.738	-0.56
839.907	0.55
840.077	0.55
840.246	-0.59
840.416	-1.37
840.585	-1.12
840.755	0.78
840.924	0.68
841.093	-1.25
841.263	-0.28
841.432	0.14
841.602	-1.01
841.771	-0.63
841.94	0.49
842.11	1.03
842.279	0.16
842.448	-0.67
842.617	-0.78
842.787	0.68
842.956	-0.74
843.125	-0.31
843.294	0.41
843.464	0.38
843.633	0.29
843.802	-0.6
843.971	-0.05
844.14	0.86
844.309	0.76
844.479	-0.84
844.648	-0.28
844.817	-0.22
844.986	-0.2
845.155	-0.41
845.324	-0.54
845.493	-0.08
845.662	-1.19
845.831	0.16
846	0.05
846.169	-0.09
846.338	0.2
846.507	0.08
846.676	-0.14
846.844	-0.62
847.013	0.75
847.182	-0.42
847.351	-1.23
847.52	-0.12
847.689	-0.22
847.858	-0.77
848.026	-0.24
848.195	-0.33
848.364	-0.5
848.533	-0.76
848.701	-0.58
848.87	-0.56
849.039	0.69
849.207	0.32
849.376	1.14
849.545	1.03
849.713	-1.36
849.882	-0.61
850.051	-0.28
850.219	-0.73
850.388	0.76
850.556	-1.62
850.725	-1.4
850.893	0.03
851.062	-0.27
851.23	-0
851.399	-0.83
851.567	-0.21
851.736	-0.11
851.904	-1.26
852.073	-0.05
852.241	0.57
852.41	-0.04
852.578	-1
852.746	0.51
852.915	0.54
853.083	-1.09
853.251	-1.44
853.42	-0.31
853.588	0.39
853.756	0.77
853.924	-0.81
854.093	0.04
854.261	-0.3
854.429	-1.32
854.597	0.34
854.765	-0.83
854.934	0.48
855.102	0.87
855.27	-0.28
855.438	1.6
855.606	-0.42
855.774	1.4
855.942	-1.21
856.11	-2.37
856.278	-1.17
856.446	-0.25
856.614	-0.13
856.782	-0.9
856.95	0.84
857.118	-0.19
857.286	-0.03
857.454	-0.13
857.622	1.96
857.79	0.4
857.958	-0.74
858.126	0.29
858.294	-2.67
858.462	-0.65
858.629	-1.48
858.797	-0.46
858.965	-0.3
859.133	0.5
859.301	-0.74
859.468	1.03
859.636	-0.06
859.804	0.98
859.971	0.25
860.139	-1
860.307	0.79
860.474	0.43
860.642	-0.7
860.81	-0.65
860.977	-0.85
861.145	1.14
861.313	-1.53
861.48	0.32
861.648	-0.35
861.815	-0.56
861.983	-1.15
862.15	0.44
862.318	0.18
862.485	0.94
862.653	-1.14
862.82	-1.07
862.988	0.91
863.155	-0.25
863.322	-1.22
863.49	-1.4
863.657	-1.97
863.824	1.08
863.992	-0.72
864.159	-0.75
864.326	1.03
864.494	-0.65
864.661	2.3
864.828	-1.44
864.996	1.77
865.163	2.31
865.33	-1.05
865.497	-2.25
865.664	-1.41
865.832	-1.18
865.999	-0.59
866.166	-1.17
866.333	-0.3
866.5	-1.52
866.667	0.48
866.834	-0.83
867.001	0.64
867.168	-1.61
867.335	-1.19
867.502	-1.23
867.669	-1.15
867.836	1.27
868.003	-0.51
868.17	1.11
868.337	1.86
868.504	2.49
868.671	-1.67
868.838	-0.81
869.005	-0.18
869.172	0.03
869.339	0.31
869.505	-1.34
869.672	-1.06
869.839	1.9
870.006	-0.34
870.173	-2.26
870.339	-0.08
870.506	1.91
870.673	-1.27
870.84	1.19
871.006	-0.91
871.173	-1.34
871.34	-0.18
871.506	-1.67
871.673	1.67
871.839	-2
872.006	0.67
872.173	-1.78
872.339	-0.78
872.506	1.29
872.672	0.81
872.839	-0.97
873.005	-0.16
873.172	3.56
873.338	0.78
873.505	-0.39
873.671	0.1
873.838	1.32
874.004	-2.11
874.171	-2.36
874.337	0.46
874.503	0.36
874.67	-1.07
874.836	-0.45
875.002	2.5
875.169	1.23
875.335	-1.17
875.501	-1.71
875.668	0.05
875.834	0.51
876	0.33
876.166	1.16
876.332	0.3
876.499	3.04
876.665	-1.84
876.831	0.23
876.997	2.83
877.163	1.46
877.329	-0.88
877.495	-1.16
877.662	1.48
877.828	1.5
877.994	-0.61
878.16	-3.31
878.326	-0.71
878.492	1.53
878.658	-0.56
878.824	-1.81
878.99	1.61
879.156	-2.2
879.322	2.79
879.487	-2.51
879.653	-0.72
879.819	1.78
879.985	-1.38
880.151	0.52
880.317	0.93
880.483	-0.34
880.648	-1.13
880.814	-2.26
880.98	1.85
881.146	-3.08
881.312	-0.18
881.477	-1.21
881.643	0.07
881.809	1.88
881.974	0.52
882.14	-0.01
882.306	-0.25
882.471	1.44
882.637	-1.73
882.803	0.14
882.968	3.53
883.134	2.97
883.299	-0.46
883.465	-1.31
883.63	2.27
883.796	-0.12
883.961	0.45
884.127	0.37
884.292	-2.75
884.458	-1.83
884.623	-1.83
