Data from Apollo_Calib_20240827__AbsoluteIrradiance__566__08-35-01-071.txt Node

Date: Wed Aug 28 08:35:01 BST 2024
User: biology
Spectrometer: FLMT08252
Trigger mode: 0
Integration Time (sec): 5.000000E-1
Scans to average: 5
Electric dark correction enabled: true
Nonlinearity correction enabled: false
Boxcar width: 0
XAxis mode: Wavelengths
Number of Pixels in Spectrum: 3648
>>>>>Begin Spectral Data<<<<<
179.588	-0
179.809	-0
180.03	-0
180.251	-0
180.473	-0
180.694	0
180.915	0
181.136	-0
181.357	0
181.578	-0
181.799	-0
182.02	-0
182.241	0
182.462	-0
182.683	0
182.904	-0
183.125	-0
183.346	0
183.567	0
183.788	-0
184.009	-0
184.23	0
184.451	0
184.672	-0
184.892	-0
185.113	0
185.334	0
185.555	-0
185.776	0
185.996	0
186.217	0
186.438	0
186.659	-0
186.879	0
187.1	0
187.321	-0
187.541	-0
187.762	0
187.983	0
188.203	0
188.424	0
188.644	0
188.865	0
189.086	0
189.306	0
189.527	0
189.747	0
189.968	-0
190.188	0
190.409	-0
190.629	0
190.849	0
191.07	0
191.29	0
191.511	0
191.731	-0
191.951	-0
192.172	0
192.392	-0
192.612	0
192.833	0
193.053	0
193.273	0
193.493	-0
193.714	0
193.934	0
194.154	0
194.374	0
194.594	0
194.815	0
195.035	0
195.255	0
195.475	-0
195.695	0
195.915	0
196.135	0
196.355	0
196.575	0
196.795	-0
197.015	-0
197.235	-0
197.455	-0
197.675	0
197.895	-0
198.115	0
198.335	0
198.555	-0
198.775	0
198.995	0
199.214	0
199.434	0
199.654	-0
199.874	-0
200.094	0.82
200.313	-0.03
200.533	-0.14
200.753	-0.89
200.973	0.45
201.192	0.21
201.412	-0.25
201.632	-0.45
201.851	0.85
202.071	-0.3
202.291	-0.51
202.51	-0.31
202.73	0.62
202.95	-0.06
203.169	-0.1
203.389	0.5
203.608	-0.24
203.828	-0.16
204.047	-0.05
204.267	0.28
204.486	-0.25
204.706	0.25
204.925	0.12
205.145	0.04
205.364	0.07
205.583	0.53
205.803	-0.16
206.022	0.07
206.242	-0.02
206.461	0.1
206.68	-0.14
206.9	0.17
207.119	0.43
207.338	0.9
207.557	0.1
207.777	0.06
207.996	0.04
208.215	0.38
208.434	0
208.654	-0.4
208.873	0.26
209.092	0.45
209.311	-0.13
209.53	0.07
209.749	-0.04
209.968	0.07
210.187	0.08
210.407	-0.29
210.626	0.1
210.845	0.21
211.064	0.3
211.283	-0.22
211.502	0.16
211.721	0.05
211.94	0.03
212.159	0.22
212.377	0.24
212.596	0.53
212.815	-0.06
213.034	0.31
213.253	0.27
213.472	0.17
213.691	0.06
213.91	-0.13
214.128	-0.1
214.347	0.38
214.566	-0.29
214.785	-0.2
215.003	0.16
215.222	0.17
215.441	0.12
215.66	-0.17
215.878	0.04
216.097	0.45
216.316	-0.26
216.534	-0.06
216.753	0.1
216.972	0.1
217.19	0.11
217.409	-0.16
217.627	-0.16
217.846	0.15
218.064	0.08
218.283	-0.03
218.501	0.46
218.72	0.19
218.938	-0.09
219.157	-0.11
219.375	0.19
219.594	0.02
219.812	-0.17
220.031	0.04
220.249	0.3
220.467	0.25
220.686	-0.02
220.904	-0.16
221.122	-0.16
221.341	0.55
221.559	0.14
221.777	-0.15
221.995	0.07
222.214	0.26
222.432	-0.03
222.65	0.3
222.868	0.15
223.086	0.2
223.305	0.08
223.523	0
223.741	0.27
223.959	-0.16
224.177	-0.09
224.395	0.01
224.613	-0.04
224.831	0.21
225.049	0
225.267	-0.02
225.485	0.06
225.703	-0.05
225.921	0.05
226.139	0.09
226.357	0.09
226.575	0.22
226.793	-0.01
227.011	0.49
227.229	0.09
227.447	0.17
227.665	-0.02
227.883	-0.2
228.1	0.09
228.318	0.18
228.536	-0.15
228.754	0.01
228.972	0.16
229.189	0.09
229.407	0.03
229.625	0.04
229.843	0.3
230.06	0.05
230.278	-0.05
230.496	0.08
230.713	0.05
230.931	0.17
231.149	0.01
231.366	-0.14
231.584	0.08
231.801	0.35
232.019	0.07
232.236	-0.1
232.454	-0.12
232.671	0.13
232.889	-0.04
233.106	-0.05
233.324	0.07
233.541	-0.04
233.759	0.05
233.976	0.05
234.194	0.06
234.411	0.01
234.628	0
234.846	-0.04
235.063	0.13
235.28	-0.01
235.498	0.09
235.715	-0.02
235.932	0.12
236.149	0.01
236.367	-0.08
236.584	0.08
236.801	0
237.018	0.1
237.236	-0.04
237.453	-0.12
237.67	0.18
237.887	0.06
238.104	-0.01
238.321	-0.02
238.538	-0.13
238.755	0.17
238.973	-0.04
239.19	-0.02
239.407	0.04
239.624	0.04
239.841	-0.08
240.058	-0.14
240.275	0.02
240.492	0
240.709	0.03
240.925	-0.01
241.142	0.07
241.359	-0.13
241.576	0.05
241.793	0.05
242.01	0.02
242.227	0.06
242.444	0.02
242.66	0.08
242.877	0.02
243.094	-0.06
243.311	-0.03
243.527	0.02
243.744	0.01
243.961	0.1
244.178	-0.06
244.394	0.02
244.611	0.2
244.828	0.19
245.044	-0.06
245.261	0.03
245.477	0.08
245.694	0.08
245.911	-0.05
246.127	-0.01
246.344	0.16
246.56	0.14
246.777	0.03
246.993	0.06
247.21	-0.01
247.426	0.15
247.643	-0.11
247.859	-0.06
248.076	-0.09
248.292	0.2
248.508	0
248.725	0.06
248.941	0.15
249.157	0.1
249.374	-0.02
249.59	0.02
249.806	-0.02
250.023	0.05
250.239	0.02
250.455	-0.05
250.671	0.08
250.888	0.09
251.104	0.11
251.32	0.03
251.536	-0.04
251.752	0.01
251.969	0.03
252.185	0.02
252.401	0.17
252.617	0.06
252.833	0.01
253.049	0.03
253.265	0.01
253.481	0.05
253.697	-0.02
253.913	-0.01
254.129	0.07
254.345	0.05
254.561	0.09
254.777	0.03
254.993	0.07
255.209	0.05
255.425	-0.01
255.641	-0.02
255.857	0.07
256.073	0.04
256.288	-0.07
256.504	-0.03
256.72	0.08
256.936	0.13
257.152	0.09
257.367	-0.04
257.583	0.11
257.799	0.07
258.015	-0.08
258.23	-0.06
258.446	0.08
258.662	0
258.877	-0.04
259.093	-0
259.309	0.05
259.524	-0.01
259.74	-0.01
259.955	-0.07
260.171	0.03
260.387	0.03
260.602	0.09
260.818	0.07
261.033	-0.02
261.249	0.01
261.464	0.01
261.68	-0.08
261.895	0.04
262.11	0.1
262.326	-0.03
262.541	-0.03
262.757	0.08
262.972	0.06
263.187	0.02
263.403	-0.01
263.618	0.1
263.833	0.01
264.049	0.04
264.264	0.01
264.479	0.04
264.694	0.1
264.91	-0.07
265.125	-0
265.34	0.09
265.555	0.21
265.77	0.05
265.986	0.04
266.201	0.02
266.416	0.12
266.631	-0.06
266.846	0.03
267.061	0.05
267.276	0.09
267.491	-0.13
267.706	0.07
267.921	0.04
268.136	-0.02
268.351	0.01
268.566	-0.02
268.781	0.13
268.996	0.09
269.211	0.09
269.426	-0.02
269.641	-0.05
269.856	0.08
270.071	0.02
270.285	-0.07
270.5	0.07
270.715	0.07
270.93	0.05
271.145	0.11
271.359	0.02
271.574	-0.06
271.789	0.09
272.004	-0.02
272.218	0.01
272.433	0.07
272.648	-0.04
272.862	0.09
273.077	-0.05
273.292	0.01
273.506	0.02
273.721	0
273.936	-0.04
274.15	-0.01
274.365	-0.03
274.579	0.07
274.794	0.11
275.008	0.05
275.223	-0.06
275.437	-0.01
275.652	0.08
275.866	0.05
276.081	0.05
276.295	0.08
276.509	0.02
276.724	0.06
276.938	0.05
277.153	-0
277.367	0.1
277.581	-0.01
277.796	0.02
278.01	-0.01
278.224	0.07
278.438	0.1
278.653	-0.05
278.867	0.02
279.081	-0.21
279.295	-0.02
279.51	0.02
279.724	-0.08
279.938	-0
280.152	0.01
280.366	-0.04
280.58	0.04
280.794	0.13
281.008	0
281.222	0.09
281.437	0.17
281.651	0.05
281.865	0.09
282.079	-0.02
282.293	-0.03
282.507	-0.05
282.721	0.03
282.935	0.03
283.148	-0.05
283.362	0.04
283.576	-0
283.79	0.06
284.004	-0.03
284.218	0.11
284.432	0
284.646	-0
284.859	0
285.073	0
285.287	0.05
285.501	0.01
285.714	-0.01
285.928	0.04
286.142	0.03
286.356	0
286.569	0.02
286.783	0.11
286.997	0.11
287.21	0.04
287.424	0.06
287.637	-0.02
287.851	-0.03
288.065	0.06
288.278	-0
288.492	0.02
288.705	0.02
288.919	0.07
289.132	-0.05
289.346	0.08
289.559	-0.03
289.773	-0.03
289.986	-0.02
290.2	0.06
290.413	0.05
290.626	-0.04
290.84	-0.01
291.053	-0
291.267	0.04
291.48	0.03
291.693	0
291.906	0
292.12	0
292.333	-0.02
292.546	0.02
292.76	0.11
292.973	-0.01
293.186	0.07
293.399	-0
293.612	0.07
293.826	0.02
294.039	0
294.252	0.03
294.465	0.02
294.678	0.06
294.891	0.06
295.104	0
295.317	-0.03
295.53	0.02
295.743	0.01
295.956	0.02
296.169	0.09
296.382	0.05
296.595	0
296.808	-0.02
297.021	0.05
297.234	0.03
297.447	-0.01
297.66	0.05
297.873	0.06
298.086	0.05
298.299	-0.02
298.511	-0.02
298.724	0.01
298.937	0.02
299.15	0.04
299.363	0.03
299.575	0.02
299.788	0.05
300.001	0
300.213	-0.03
300.426	0.03
300.639	-0.01
300.852	-0.04
301.064	0.03
301.277	0.08
301.489	0.03
301.702	0.06
301.915	0.02
302.127	0.03
302.34	0.06
302.552	0.04
302.765	-0.01
302.977	0.07
303.19	-0.01
303.402	0.02
303.615	-0.01
303.827	-0
304.04	0.03
304.252	0.04
304.464	0
304.677	0.12
304.889	0.08
305.102	-0
305.314	-0
305.526	0.04
305.739	0.06
305.951	-0.03
306.163	0.01
306.375	0.1
306.588	-0.04
306.8	-0.03
307.012	0
307.224	-0.01
307.436	0.08
307.649	-0.04
307.861	0.04
308.073	0.06
308.285	-0
308.497	-0.01
308.709	-0.03
308.921	0.02
309.133	0.06
309.346	-0.01
309.558	-0.03
309.77	0.09
309.982	0.11
310.194	0.04
310.406	-0.03
310.617	0.06
310.829	0.05
311.041	0.03
311.253	-0.03
311.465	-0.01
311.677	0.08
311.889	-0.03
312.101	0.04
312.313	0.06
312.524	0.08
312.736	-0.03
312.948	0.02
313.16	0.07
313.372	0.06
313.583	0
313.795	0
314.007	-0
314.218	0.05
314.43	0.05
314.642	0.02
314.853	-0.02
315.065	0.05
315.277	0.07
315.488	0.02
315.7	0.04
315.912	0.01
316.123	0.01
316.335	0.03
316.546	0.1
316.758	-0.02
316.969	-0.05
317.181	0.06
317.392	0.01
317.604	0.08
317.815	0.03
318.026	-0.04
318.238	-0
318.449	0.05
318.661	-0.1
318.872	-0.02
319.083	-0.05
319.295	0.06
319.506	-0.05
319.717	0
319.929	0.05
320.14	0.03
320.351	0.05
320.562	-0.01
320.774	0.03
320.985	0.02
321.196	-0.02
321.407	-0
321.618	0.1
321.829	-0.01
322.041	0.05
322.252	0.01
322.463	0.05
322.674	0.02
322.885	-0.03
323.096	-0.02
323.307	0
323.518	0.11
323.729	0.02
323.94	-0.06
324.151	-0.01
324.362	0.01
324.573	0
324.784	0.01
324.995	0.05
325.206	0.01
325.417	0.04
325.628	0.05
325.838	-0
326.049	0.04
326.26	0.06
326.471	0.03
326.682	0.03
326.892	0.03
327.103	-0.04
327.314	-0.05
327.525	0.05
327.735	0.03
327.946	0.01
328.157	0.02
328.368	0.02
328.578	0.03
328.789	0.06
328.999	0.05
329.21	-0.02
329.421	0.04
329.631	-0.02
329.842	-0.01
330.052	0.03
330.263	0.04
330.473	0.07
330.684	0.07
330.894	0.01
331.105	0.01
331.315	0.04
331.526	-0.02
331.736	0.04
331.947	0.02
332.157	0.07
332.367	-0.04
332.578	0.05
332.788	0.05
332.999	0.03
333.209	-0.02
333.419	-0.06
333.629	-0
333.84	0.01
334.05	-0.01
334.26	0.08
334.47	-0.01
334.681	0.08
334.891	0.01
335.101	0.07
335.311	0.1
335.521	0.02
335.732	-0.02
335.942	0.06
336.152	0.03
336.362	0.05
336.572	0.05
336.782	0.07
336.992	-0.01
337.202	-0.01
337.412	-0.02
337.622	0.04
337.832	0
338.042	0.02
338.252	-0.03
338.462	0.01
338.672	-0.02
338.882	-0.01
339.092	0.03
339.302	0.07
339.511	0.01
339.721	0.01
339.931	-0
340.141	0.05
340.351	0.03
340.561	0
340.77	0.05
340.98	0
341.19	0.07
341.4	-0.01
341.609	0
341.819	0.01
342.029	-0.02
342.238	0.01
342.448	-0.04
342.658	0.1
342.867	0.03
343.077	0.04
343.286	-0
343.496	0.02
343.706	0.03
343.915	-0.04
344.125	0.01
344.334	0.04
344.544	-0.05
344.753	-0.03
344.963	0
345.172	0.03
345.381	-0.01
345.591	-0
345.8	0.02
346.01	0.05
346.219	0.07
346.428	-0.1
346.638	0.03
346.847	0.05
347.056	0.09
347.266	-0
347.475	0.01
347.684	0.03
347.893	0.02
348.103	0.06
348.312	-0.01
348.521	0.04
348.73	0.04
348.94	0.04
349.149	0
349.358	-0.03
349.567	0
349.776	-0.05
349.985	-0
350.194	0.08
350.403	0.03
350.612	-0.03
350.821	-0.02
351.03	0.03
351.239	-0.05
351.448	0
351.657	-0.03
351.866	0.05
352.075	0.02
352.284	-0.03
352.493	-0.04
352.702	0.09
352.911	0.04
353.12	0.03
353.329	0.04
353.538	0.02
353.746	0.01
353.955	0.01
354.164	0.02
354.373	0.05
354.582	0.04
354.79	0.05
354.999	0.04
355.208	-0.02
355.416	0.04
355.625	-0.03
355.834	-0.01
356.042	0
356.251	0.01
356.46	-0.02
356.668	0.04
356.877	0.09
357.085	0.03
357.294	-0.06
357.503	0.03
357.711	-0.01
357.92	0.14
358.128	-0
358.337	0.01
358.545	0.06
358.754	0.01
358.962	0.03
359.17	0
359.379	0.02
359.587	0.02
359.796	0.03
360.004	0.05
360.212	0.02
360.421	0.07
360.629	-0
360.837	0
361.046	0.01
361.254	0.13
361.462	0.01
361.67	-0.01
361.879	0.05
362.087	0.07
362.295	0.01
362.503	-0.01
362.711	-0.02
362.92	-0.02
363.128	0.02
363.336	0.01
363.544	-0.05
363.752	-0.01
363.96	0.01
364.168	-0.01
364.376	-0.01
364.584	0.04
364.792	0.01
365	0
365.208	0.02
365.416	0.04
365.624	0.04
365.832	-0.02
366.04	0.08
366.248	0
366.456	0.05
366.664	0.07
366.872	0
367.079	0.11
367.287	0.05
367.495	0.02
367.703	0
367.911	-0
368.118	-0.01
368.326	-0.01
368.534	-0.03
368.742	0.04
368.949	-0.03
369.157	-0.01
369.365	0.06
369.572	-0.01
369.78	0
369.988	0.05
370.195	-0.01
370.403	0.06
370.61	0.02
370.818	0.02
371.026	0.04
371.233	-0.02
371.441	0
371.648	0.02
371.856	0.05
372.063	0.01
372.271	-0.03
372.478	-0
372.685	-0.02
372.893	0.04
373.1	-0
373.308	-0.02
373.515	0.07
373.722	0.05
373.93	0.03
374.137	0.02
374.344	0.06
374.552	0.05
374.759	0.04
374.966	0.01
375.173	0.01
375.381	0.04
375.588	-0.02
375.795	-0.03
376.002	-0
376.209	0.02
376.417	0.01
376.624	0.03
376.831	0.02
377.038	-0
377.245	-0.05
377.452	0.01
377.659	0.02
377.866	-0.02
378.073	0.02
378.28	0
378.487	0.02
378.694	0.07
378.901	0.02
379.108	0
379.315	0.06
379.522	0.1
379.729	0.02
379.936	-0.03
380.143	0.02
380.35	0.04
380.557	-0
380.763	-0
380.97	0.02
381.177	0.01
381.384	-0
381.591	-0.01
381.797	0.05
382.004	0.05
382.211	0.03
382.418	-0.02
382.624	0.06
382.831	0.05
383.038	0.01
383.244	0
383.451	-0.01
383.658	0.01
383.864	-0.02
384.071	0
384.277	0.06
384.484	0.02
384.69	0.03
384.897	-0.01
385.103	0.01
385.31	-0.02
385.516	0.01
385.723	-0.01
385.929	0.01
386.136	0.01
386.342	0
386.549	0.03
386.755	0.07
386.961	0.01
387.168	0
387.374	0.01
387.58	0.03
387.787	-0
387.993	0.04
388.199	-0.02
388.406	0
388.612	-0
388.818	0.01
389.024	-0.02
389.231	0.04
389.437	0.07
389.643	0.03
389.849	0.04
390.055	0.03
390.261	0.02
390.467	0.04
390.674	-0
390.88	-0
391.086	0.03
391.292	-0.02
391.498	0.05
391.704	0.05
391.91	-0.01
392.116	0.01
392.322	-0.06
392.528	0.01
392.734	-0
392.94	-0
393.146	-0.01
393.352	-0.03
393.557	-0.02
393.763	0.04
393.969	0.02
394.175	0.01
394.381	0.01
394.587	-0.06
394.792	0.02
394.998	0.02
395.204	0.07
395.41	0.02
395.615	-0.02
395.821	-0
396.027	0.05
396.233	-0.04
396.438	0
396.644	0.08
396.85	0.06
397.055	0.02
397.261	0.02
397.466	0.03
397.672	0.06
397.878	0.05
398.083	0.04
398.289	0.01
398.494	0.05
398.7	-0.01
398.905	-0.02
399.111	0.11
399.316	0
399.522	0
399.727	-0.01
399.932	-0
400.138	0.02
400.343	0.03
400.549	-0.03
400.754	0
400.959	0.03
401.165	0.01
401.37	-0
401.575	0.08
401.78	0.03
401.986	-0
402.191	-0.01
402.396	-0.01
402.601	0.02
402.807	0.04
403.012	-0.03
403.217	0.04
403.422	0.01
403.627	-0.01
403.832	0.03
404.037	0.06
404.243	0.06
404.448	-0.05
404.653	-0.02
404.858	-0.01
405.063	0.05
405.268	-0.02
405.473	-0.04
405.678	0.01
405.883	0.12
406.088	0.03
406.293	-0
406.498	-0.04
406.703	0.05
406.907	0.01
407.112	-0.03
407.317	-0.03
407.522	0.01
407.727	-0.02
407.932	-0.01
408.136	0.1
408.341	0.03
408.546	0.03
408.751	0.07
408.956	0
409.16	0.06
409.365	0.02
409.57	-0.01
409.774	0.01
409.979	0.06
410.184	0.07
410.388	-0.02
410.593	0.03
410.798	0
411.002	0.01
411.207	0.06
411.411	-0
411.616	-0.03
411.82	-0.01
412.025	0.04
412.229	-0.03
412.434	0.09
412.638	-0.03
412.843	0.01
413.047	-0
413.252	-0.02
413.456	0.01
413.66	0.01
413.865	-0.02
414.069	0.1
414.273	-0.07
414.478	-0.03
414.682	-0.01
414.886	-0.03
415.091	-0.02
415.295	-0.07
415.499	0.08
415.703	-0
415.908	0.02
416.112	-0.1
416.316	0.03
416.52	0.01
416.724	-0.01
416.929	0.03
417.133	0.1
417.337	-0.01
417.541	-0.01
417.745	0.02
417.949	0.09
418.153	0.03
418.357	-0
418.561	0.04
418.765	0.02
418.969	0.13
419.173	0.07
419.377	-0.03
419.581	0.09
419.785	-0.01
419.989	-0.03
420.193	-0.03
420.397	0.03
420.601	0.07
420.804	0.06
421.008	0.01
421.212	0.05
421.416	0.02
421.62	0.02
421.823	0.04
422.027	0.1
422.231	0.01
422.435	0.01
422.638	0.02
422.842	0
423.046	-0.01
423.249	0.05
423.453	0.05
423.657	0.05
423.86	-0.01
424.064	0.01
424.268	0.05
424.471	0
424.675	0.11
424.878	0.1
425.082	0.03
425.285	0.1
425.489	0
425.692	0.02
425.896	-0.01
426.099	0.05
426.303	-0.03
426.506	-0.05
426.71	0.02
426.913	0.07
427.116	0.11
427.32	0
427.523	-0.01
427.726	0.07
427.93	-0.03
428.133	-0.02
428.336	-0.04
428.54	-0.03
428.743	0.03
428.946	0.05
429.149	-0.01
429.353	0.05
429.556	-0.04
429.759	-0.01
429.962	0.02
430.165	0.02
430.368	0.02
430.571	0
430.775	0.01
430.978	-0
431.181	0.03
431.384	0.01
431.587	-0
431.79	0.05
431.993	-0.04
432.196	-0.02
432.399	-0.01
432.602	0.1
432.805	-0.02
433.008	-0.03
433.211	-0.07
433.414	0.06
433.616	0.04
433.819	0.02
434.022	-0.08
434.225	0.09
434.428	0
434.631	0.1
434.833	0.03
435.036	0.06
435.239	0.01
435.442	0.01
435.645	-0.01
435.847	0.02
436.05	0.04
436.253	0.05
436.455	-0.06
436.658	-0.02
436.861	0.08
437.063	-0.04
437.266	0.04
437.468	-0.03
437.671	0.15
437.874	0.03
438.076	-0.07
438.279	-0.04
438.481	-0.03
438.684	-0.01
438.886	0.02
439.089	-0.04
439.291	0.05
439.494	0.07
439.696	0
439.899	0.02
440.101	0.04
440.303	-0.06
440.506	0.05
440.708	-0.03
440.91	0.07
441.113	-0.06
441.315	0.04
441.517	-0.04
441.72	0.07
441.922	-0.02
442.124	-0.05
442.326	-0.01
442.529	0.07
442.731	-0.07
442.933	0.08
443.135	0
443.337	-0.01
443.539	0.03
443.742	-0.01
443.944	0.03
444.146	-0.03
444.348	-0.02
444.55	-0.03
444.752	0.02
444.954	-0.03
445.156	0.03
445.358	-0.03
445.56	0.07
445.762	-0
445.964	0.05
446.166	0.01
446.368	0.01
446.57	0.04
446.772	-0.02
446.974	0.01
447.175	0.01
447.377	-0.05
447.579	-0.02
447.781	-0.11
447.983	0.08
448.184	-0
448.386	0
448.588	-0.04
448.79	0.05
448.991	0.01
449.193	-0.03
449.395	0.04
449.597	0.06
449.798	0
450	0.03
450.202	-0.01
450.403	-0.03
450.605	0.07
450.806	-0.02
451.008	-0.02
451.21	-0.01
451.411	0.03
451.613	-0
451.814	-0.01
452.016	0.03
452.217	0.03
452.419	0.01
452.62	-0
452.821	0
453.023	0.08
453.224	0.06
453.426	-0.01
453.627	-0.01
453.828	0.04
454.03	-0.01
454.231	0.06
454.432	-0.06
454.634	0.1
454.835	-0.05
455.036	-0.06
455.238	0.07
455.439	0.07
455.64	-0.02
455.841	0.04
456.042	0.09
456.244	0.06
456.445	-0.01
456.646	-0.07
456.847	0.05
457.048	0.06
457.249	0.07
457.45	0.18
457.651	-0.02
457.852	0.06
458.054	0.03
458.255	-0.03
458.456	0
458.657	0.04
458.858	-0.01
459.058	0
459.259	0.05
459.46	0.01
459.661	-0.02
459.862	0.16
460.063	-0.01
460.264	0.1
460.465	-0.07
460.666	0.05
460.866	0.03
461.067	-0.02
461.268	0
461.469	-0.03
461.67	0.01
461.87	0.02
462.071	-0.03
462.272	0.03
462.473	-0.01
462.673	0.05
462.874	-0.08
463.075	0.04
463.275	-0.03
463.476	0.04
463.676	0.01
463.877	0.04
464.078	-0.03
464.278	0.05
464.479	0.01
464.679	-0
464.88	0.02
465.08	0.07
465.281	-0.02
465.481	-0.01
465.682	-0.01
465.882	0.04
466.083	0.02
466.283	0.04
466.483	0.02
466.684	-0.03
466.884	0.03
467.085	0.02
467.285	0.05
467.485	-0.03
467.686	0.02
467.886	-0.06
468.086	0.01
468.286	0.04
468.487	0.04
468.687	-0.04
468.887	-0
469.087	0.04
469.287	-0
469.488	-0.07
469.688	0.02
469.888	0.04
470.088	0.04
470.288	0.04
470.488	0.08
470.688	-0.03
470.888	-0.02
471.088	0.01
471.288	0.04
471.488	0.01
471.688	0.02
471.888	-0.04
472.088	0.08
472.288	0.06
472.488	-0.02
472.688	-0
472.888	-0.01
473.088	0.01
473.288	0.03
473.488	0.03
473.688	0.1
473.887	0.02
474.087	-0.02
474.287	0.01
474.487	-0.01
474.687	0.04
474.886	-0.01
475.086	-0.04
475.286	0.06
475.486	0.05
475.685	0.02
475.885	-0.01
476.085	-0.02
476.284	0.05
476.484	-0.03
476.684	0.02
476.883	0.06
477.083	0.01
477.282	0.01
477.482	0.06
477.681	0.08
477.881	0.03
478.08	-0
478.28	0.01
478.479	0.05
478.679	0.08
478.878	-0.02
479.078	-0.03
479.277	-0.01
479.477	0
479.676	0.08
479.875	0.01
480.075	-0.04
480.274	0.01
480.473	0.01
480.673	-0.01
480.872	0.05
481.071	0.02
481.271	-0
481.47	-0.03
481.669	0.02
481.868	-0.01
482.067	-0.03
482.267	0.02
482.466	-0.02
482.665	-0.01
482.864	0.01
483.063	-0.02
483.262	0.02
483.461	0.07
483.661	0.06
483.86	-0
484.059	0.05
484.258	-0.01
484.457	-0.02
484.656	0.02
484.855	0.02
485.054	-0.01
485.253	-0
485.452	-0.05
485.651	0
485.849	-0
486.048	-0.02
486.247	-0.02
486.446	0.01
486.645	-0.02
486.844	-0.02
487.043	-0.01
487.241	0.01
487.44	-0.01
487.639	0.01
487.838	0.05
488.037	0.01
488.235	0.06
488.434	0.03
488.633	0.01
488.831	-0.01
489.03	0.03
489.229	0.03
489.427	-0.01
489.626	0.06
489.825	0.06
490.023	0.01
490.222	-0.01
490.42	0.03
490.619	0.04
490.817	0.03
491.016	-0.01
491.214	0.03
491.413	-0
491.611	0.01
491.81	0.01
492.008	0.05
492.207	0.02
492.405	0.01
492.604	-0.01
492.802	-0.01
493	0.02
493.199	-0
493.397	0
493.595	-0
493.794	-0
493.992	0.05
494.19	0.01
494.388	0.01
494.587	0.01
494.785	0.01
494.983	-0.01
495.181	-0.01
495.379	-0.01
495.578	-0.01
495.776	0.03
495.974	0.02
496.172	0.02
496.37	0.01
496.568	-0.02
496.766	-0.01
496.964	0.03
497.162	0.01
497.36	-0.02
497.558	0.01
497.756	0.01
497.954	0.01
498.152	0.01
498.35	-0.01
498.548	-0.01
498.746	0.04
498.944	-0.01
499.142	-0
499.34	-0.03
499.538	0.01
499.736	-0.03
499.933	0.02
500.131	0.03
500.329	0.01
500.527	0.03
500.725	0.04
500.922	0
501.12	0.02
501.318	-0
501.516	-0.01
501.713	-0.01
501.911	-0.01
502.109	-0.03
502.306	0.02
502.504	-0.01
502.701	-0.01
502.899	0
503.097	0.03
503.294	0.01
503.492	-0
503.689	0.01
503.887	0.01
504.084	0.05
504.282	-0.01
504.479	-0.03
504.677	-0.01
504.874	-0.03
505.072	0.02
505.269	-0.01
505.466	0.01
505.664	0.04
505.861	-0.03
506.059	-0.03
506.256	0.02
506.453	-0.02
506.651	0.05
506.848	0.02
507.045	0.01
507.242	0.01
507.44	0
507.637	-0.01
507.834	-0
508.031	0.03
508.229	-0
508.426	0.01
508.623	0.03
508.82	0
509.017	-0.02
509.214	0
509.411	0.02
509.608	-0.02
509.805	0.01
510.003	-0
510.2	-0
510.397	0.02
510.594	-0.01
510.791	-0.03
510.988	0.01
511.184	0.04
511.381	0.01
511.578	0.01
511.775	0.02
511.972	-0
512.169	0
512.366	-0.01
512.563	0.01
512.76	-0.01
512.956	0.04
513.153	-0.01
513.35	-0.01
513.547	-0
513.744	-0.03
513.94	-0.03
514.137	0.03
514.334	-0.02
514.53	0.01
514.727	0.02
514.924	0.06
515.12	-0.03
515.317	-0.02
515.514	-0.01
515.71	-0.03
515.907	-0
516.103	0.01
516.3	0.02
516.497	0.03
516.693	0.05
516.89	0.01
517.086	-0
517.283	0.01
517.479	-0.01
517.676	0
517.872	-0.01
518.068	0
518.265	0.01
518.461	0
518.658	-0.01
518.854	0
519.05	0
519.247	-0
519.443	0.03
519.639	0.02
519.836	0.01
520.032	-0
520.228	0.02
520.424	0.05
520.621	0.02
520.817	0.01
521.013	0.01
521.209	0.02
521.405	0.03
521.601	0.02
521.798	0.02
521.994	0.02
522.19	-0.03
522.386	-0.01
522.582	0
522.778	-0
522.974	-0.01
523.17	-0.01
523.366	-0
523.562	0.03
523.758	0.01
523.954	-0
524.15	-0.01
524.346	0.02
524.542	0.01
524.738	-0
524.934	0
525.129	0
525.325	0.03
525.521	-0
525.717	0.03
525.913	-0
526.109	0
526.304	0.01
526.5	0.03
526.696	0.03
526.892	0.03
527.087	0.02
527.283	-0
527.479	0.02
527.674	0
527.87	0.01
528.066	-0
528.261	0.04
528.457	0
528.653	0.01
528.848	-0.02
529.044	0.01
529.239	-0.01
529.435	0.05
529.63	0.01
529.826	0.04
530.021	0.02
530.217	0.03
530.412	-0.01
530.608	-0.02
530.803	-0.01
530.999	0
531.194	-0.04
531.389	0
531.585	-0.02
531.78	-0
531.975	-0.02
532.171	0.01
532.366	-0.01
532.561	0.01
532.757	-0
532.952	-0.01
533.147	0.01
533.342	0.02
533.538	-0.01
533.733	0.04
533.928	0
534.123	-0
534.318	-0.02
534.513	0.01
534.709	0.02
534.904	-0.03
535.099	-0.03
535.294	0
535.489	0.02
535.684	-0.01
535.879	-0.04
536.074	0.01
536.269	-0.03
536.464	0.01
536.659	-0.02
536.854	-0.01
537.049	-0
537.244	0.01
537.439	-0.02
537.634	0.05
537.828	0.02
538.023	0
538.218	-0
538.413	-0
538.608	-0.02
538.803	0.02
538.997	-0.03
539.192	0.04
539.387	0.02
539.582	0.01
539.776	-0
539.971	-0.02
540.166	0.01
540.36	-0.02
540.555	0.02
540.75	-0.02
540.944	0.02
541.139	-0.01
541.334	0
541.528	0.03
541.723	0.01
541.917	-0.02
542.112	-0.02
542.306	-0.01
542.501	-0.01
542.695	0.03
542.89	0
543.084	-0
543.279	-0.01
543.473	-0
543.668	0
543.862	0
544.056	0.02
544.251	-0.01
544.445	0
544.64	0.01
544.834	-0.03
545.028	0.02
545.222	0.02
545.417	0.03
545.611	0.01
545.805	0.03
546	-0.01
546.194	-0.01
546.388	0.01
546.582	0.03
546.776	0
546.97	0.03
547.165	-0
547.359	0.03
547.553	-0.01
547.747	-0
547.941	-0
548.135	0.01
548.329	0.01
548.523	0.02
548.717	0.01
548.911	-0.01
549.105	0.01
549.299	0.01
549.493	0.02
549.687	0.01
549.881	0.03
550.075	-0.01
550.269	-0.01
550.463	0.01
550.657	0
550.85	-0.01
551.044	0
551.238	0.02
551.432	-0.01
551.626	-0.02
551.82	0.02
552.013	-0.01
552.207	-0
552.401	0.01
552.594	0.01
552.788	0.01
552.982	0.02
553.176	-0
553.369	0.02
553.563	0.02
553.756	-0.02
553.95	-0.01
554.144	0.01
554.337	0.03
554.531	0.02
554.724	0.01
554.918	-0
555.111	0.01
555.305	0.03
555.498	0.03
555.692	0.02
555.885	-0.01
556.079	0.01
556.272	0.01
556.466	0.02
556.659	0.02
556.852	-0.01
557.046	-0.03
557.239	0.03
557.432	0.01
557.626	-0.03
557.819	0.04
558.012	0.02
558.206	0.03
558.399	0.01
558.592	0.02
558.785	-0.01
558.979	0.05
559.172	0.02
559.365	0.03
559.558	0.03
559.751	-0
559.944	0.01
560.138	0.01
560.331	0
560.524	-0.01
560.717	0.01
560.91	0
561.103	0.02
561.296	0.01
561.489	0
561.682	0
561.875	0.06
562.068	0.02
562.261	0.01
562.454	0.04
562.647	0.04
562.84	0.02
563.032	0
563.225	0.01
563.418	0.01
563.611	0.01
563.804	-0
563.997	-0
564.19	-0.02
564.382	-0.04
564.575	-0
564.768	-0
564.961	-0
565.153	-0.02
565.346	0.02
565.539	0.03
565.731	0.01
565.924	0.03
566.117	0.03
566.309	0.01
566.502	-0.01
566.695	0.01
566.887	0.01
567.08	0.01
567.272	-0.01
567.465	0
567.657	-0
567.85	0.04
568.042	0.01
568.235	0.05
568.427	0.01
568.62	0.02
568.812	0.03
569.005	0.03
569.197	-0.02
569.389	-0
569.582	0.03
569.774	0.03
569.966	-0.01
570.159	-0.03
570.351	0.04
570.543	-0.03
570.736	-0
570.928	-0.02
571.12	0.03
571.312	-0
571.505	-0.02
571.697	0.03
571.889	-0.01
572.081	0.01
572.273	-0.01
572.465	0.05
572.658	0.01
572.85	0.02
573.042	-0.01
573.234	0.01
573.426	0.04
573.618	-0.01
573.81	0.05
574.002	0.04
574.194	0.05
574.386	-0.06
574.578	-0.04
574.77	0
574.962	0
575.154	-0.02
575.346	-0.02
575.538	0.02
575.729	-0.01
575.921	0.02
576.113	0.01
576.305	0.04
576.497	0.02
576.689	0.01
576.88	-0
577.072	0.03
577.264	0.02
577.456	0.02
577.647	-0.05
577.839	0.04
578.031	0.06
578.223	-0.02
578.414	-0
578.606	0.04
578.798	0.03
578.989	-0.01
579.181	-0.02
579.372	0.02
579.564	0
579.755	0.02
579.947	0.04
580.139	0.03
580.33	-0.03
580.522	-0.01
580.713	-0.04
580.905	0.02
581.096	0.04
581.287	0.01
581.479	0
581.67	0.04
581.862	0.01
582.053	0.01
582.244	-0.01
582.436	-0
582.627	0.02
582.818	0
583.01	-0.02
583.201	0.03
583.392	0.03
583.583	0.02
583.775	-0.01
583.966	0.01
584.157	0.02
584.348	0
584.54	-0.01
584.731	0.03
584.922	0.03
585.113	-0
585.304	0.03
585.495	0.04
585.686	-0
585.877	0.04
586.068	0.02
586.259	0
586.45	0.02
586.641	0
586.832	-0.03
587.023	0.02
587.214	0.04
587.405	0.03
587.596	-0
587.787	0.04
587.978	0.02
588.169	-0
588.36	0
588.551	0.05
588.742	0
588.932	0.02
589.123	0.04
589.314	0.03
589.505	0.04
589.696	0.03
589.886	0.01
590.077	-0.02
590.268	0.04
590.458	-0.02
590.649	-0.02
590.84	0.05
591.03	0
591.221	-0
591.412	-0
591.602	0.04
591.793	0.06
591.984	-0.01
592.174	0.02
592.365	0.09
592.555	-0.01
592.746	0.06
592.936	0.05
593.127	0.06
593.317	0.04
593.508	0.03
593.698	0.04
593.889	0.02
594.079	0.02
594.269	0.01
594.46	0.02
594.65	0.04
594.84	0.04
595.031	-0
595.221	0.02
595.411	-0.04
595.602	0.06
595.792	0.04
595.982	0.02
596.172	0.08
596.363	0.05
596.553	0.02
596.743	0.05
596.933	0.02
597.123	0.07
597.314	0.01
597.504	0.03
597.694	0.07
597.884	0.04
598.074	0.01
598.264	0.03
598.454	0.06
598.644	0.04
598.834	0.06
599.024	-0.01
599.214	0.02
599.404	0.05
599.594	0.04
599.784	0.02
599.974	0.06
600.164	0.05
600.354	-0.01
600.544	0.01
600.734	0.06
600.924	0.09
601.114	0.02
601.303	0.05
601.493	0.06
601.683	0.02
601.873	0.04
602.063	0.01
602.252	0.08
602.442	-0.02
602.632	0.02
602.821	0.02
603.011	0.08
603.201	0.06
603.39	0.04
603.58	0.03
603.77	0.07
603.959	0.09
604.149	0.05
604.339	0.04
604.528	0.08
604.718	0.08
604.907	0.04
605.097	0.06
605.286	0.06
605.476	0.08
605.665	0.09
605.855	0.06
606.044	0.09
606.234	0.06
606.423	0.08
606.612	0.04
606.802	0.08
606.991	0.1
607.181	0.09
607.37	0.02
607.559	0.05
607.749	0.03
607.938	0.08
608.127	0.1
608.316	0.05
608.506	0.11
608.695	0.08
608.884	0.08
609.073	0.07
609.263	0.13
609.452	0.11
609.641	0.1
609.83	0.06
610.019	0.11
610.208	0.09
610.397	0.11
610.586	0.14
610.775	0.09
610.965	0.1
611.154	0.09
611.343	0.11
611.532	0.11
611.721	0.1
611.91	0.09
612.099	0.16
612.287	0.16
612.476	0.11
612.665	0.15
612.854	0.13
613.043	0.2
613.232	0.12
613.421	0.09
613.61	0.18
613.798	0.14
613.987	0.2
614.176	0.14
614.365	0.19
614.554	0.17
614.742	0.2
614.931	0.13
615.12	0.23
615.309	0.19
615.497	0.18
615.686	0.16
615.875	0.2
616.063	0.22
616.252	0.17
616.44	0.15
616.629	0.21
616.818	0.22
617.006	0.23
617.195	0.2
617.383	0.24
617.572	0.22
617.76	0.23
617.949	0.25
618.137	0.23
618.326	0.27
618.514	0.23
618.703	0.24
618.891	0.3
619.079	0.2
619.268	0.29
619.456	0.25
619.644	0.28
619.833	0.27
620.021	0.28
620.209	0.26
620.398	0.32
620.586	0.33
620.774	0.34
620.962	0.33
621.151	0.4
621.339	0.31
621.527	0.32
621.715	0.32
621.903	0.33
622.092	0.31
622.28	0.4
622.468	0.38
622.656	0.37
622.844	0.43
623.032	0.37
623.22	0.32
623.408	0.43
623.596	0.4
623.784	0.45
623.972	0.4
624.16	0.45
624.348	0.51
624.536	0.48
624.724	0.46
624.912	0.53
625.1	0.54
625.288	0.47
625.476	0.5
625.664	0.55
625.851	0.53
626.039	0.58
626.227	0.59
626.415	0.57
626.603	0.51
626.79	0.6
626.978	0.6
627.166	0.61
627.354	0.62
627.541	0.58
627.729	0.55
627.917	0.67
628.104	0.72
628.292	0.67
628.48	0.69
628.667	0.7
628.855	0.71
629.042	0.78
629.23	0.73
629.418	0.72
629.605	0.72
629.793	0.75
629.98	0.79
630.168	0.84
630.355	0.83
630.543	0.88
630.73	0.85
630.917	0.91
631.105	0.96
631.292	0.92
631.48	0.92
631.667	1.02
631.854	1.01
632.042	0.97
632.229	0.92
632.416	1.05
632.604	1.05
632.791	1.01
632.978	1.1
633.165	1.14
633.353	1.15
633.54	1.17
633.727	1.07
633.914	1.11
634.101	1.1
634.289	1.27
634.476	1.21
634.663	1.2
634.85	1.3
635.037	1.26
635.224	1.24
635.411	1.33
635.598	1.37
635.785	1.4
635.972	1.41
636.159	1.47
636.346	1.45
636.533	1.45
636.72	1.53
636.907	1.54
637.094	1.57
637.281	1.51
637.468	1.61
637.655	1.63
637.842	1.66
638.029	1.69
638.215	1.7
638.402	1.72
638.589	1.73
638.776	1.78
638.963	1.82
639.149	1.94
639.336	1.97
639.523	1.91
639.709	2.01
639.896	2.02
640.083	2.05
640.27	2.13
640.456	2.08
640.643	2.12
640.829	2.1
641.016	2.21
641.203	2.21
641.389	2.3
641.576	2.36
641.762	2.33
641.949	2.36
642.135	2.48
642.322	2.52
642.508	2.51
642.695	2.59
642.881	2.62
643.068	2.61
643.254	2.74
643.441	2.82
643.627	2.9
643.813	2.88
644	2.98
644.186	2.88
644.372	3.03
644.559	3.13
644.745	3.15
644.931	3.19
645.118	3.32
645.304	3.32
645.49	3.36
645.676	3.46
645.862	3.49
646.049	3.63
646.235	3.69
646.421	3.83
646.607	3.93
646.793	3.86
646.979	3.88
647.165	4.07
647.352	4.13
647.538	4.1
647.724	4.18
647.91	4.31
648.096	4.42
648.282	4.47
648.468	4.48
648.654	4.63
648.84	4.68
649.026	4.78
649.212	4.86
649.397	4.93
649.583	5.11
649.769	5.15
649.955	5.17
650.141	5.39
650.327	5.43
650.513	5.47
650.698	5.63
650.884	5.58
651.07	5.76
651.256	5.75
651.442	5.94
651.627	5.85
651.813	6.21
651.999	6.17
652.184	6.29
652.37	6.36
652.556	6.46
652.741	6.58
652.927	6.47
653.113	6.76
653.298	6.8
653.484	6.92
653.669	6.96
653.855	7.05
654.04	7.21
654.226	7.31
654.412	7.39
654.597	7.32
654.782	7.56
654.968	7.62
655.153	7.79
655.339	7.74
655.524	7.87
655.71	7.98
655.895	8.16
656.08	8.19
656.266	8.39
656.451	8.28
656.636	8.3
656.822	8.52
657.007	8.42
657.192	8.51
657.378	8.61
657.563	8.68
657.748	8.69
657.933	8.69
658.118	8.5
658.304	8.81
658.489	8.8
658.674	8.6
658.859	8.55
659.044	8.55
659.229	8.48
659.414	8.44
659.599	8.37
659.785	8.25
659.97	8.08
660.155	7.94
660.34	7.94
660.525	7.7
660.71	7.62
660.895	7.45
661.08	7.34
661.264	6.98
661.449	6.95
661.634	6.69
661.819	6.53
662.004	6.25
662.189	6.12
662.374	5.9
662.559	5.67
662.743	5.48
662.928	5.36
663.113	5.17
663.298	4.95
663.483	4.82
663.667	4.68
663.852	4.45
664.037	4.35
664.221	4.18
664.406	4.05
664.591	3.88
664.775	3.71
664.96	3.61
665.145	3.4
665.329	3.31
665.514	3.15
665.698	2.98
665.883	2.89
666.068	2.89
666.252	2.75
666.437	2.58
666.621	2.54
666.806	2.47
666.99	2.32
667.174	2.22
667.359	2.22
667.543	2.06
667.728	1.99
667.912	1.84
668.096	1.89
668.281	1.74
668.465	1.72
668.649	1.65
668.834	1.51
669.018	1.58
669.202	1.45
669.387	1.42
669.571	1.42
669.755	1.33
669.939	1.29
670.124	1.26
670.308	1.26
670.492	1.16
670.676	1.13
670.86	1.1
671.044	1
671.228	1.01
671.413	0.9
671.597	0.9
671.781	0.89
671.965	0.87
672.149	0.85
672.333	0.83
672.517	0.77
672.701	0.8
672.885	0.72
673.069	0.64
673.253	0.73
673.437	0.66
673.621	0.61
673.804	0.59
673.988	0.59
674.172	0.58
674.356	0.54
674.54	0.51
674.724	0.59
674.908	0.5
675.091	0.48
675.275	0.44
675.459	0.51
675.643	0.52
675.826	0.45
676.01	0.42
676.194	0.43
676.377	0.43
676.561	0.43
676.745	0.4
676.928	0.37
677.112	0.37
677.296	0.32
677.479	0.31
677.663	0.32
677.846	0.34
678.03	0.31
678.213	0.24
678.397	0.28
678.58	0.23
678.764	0.25
678.947	0.2
679.131	0.21
679.314	0.28
679.498	0.22
679.681	0.24
679.865	0.24
680.048	0.26
680.231	0.18
680.415	0.19
680.598	0.2
680.781	0.18
680.965	0.2
681.148	0.21
681.331	0.15
681.514	0.17
681.698	0.14
681.881	0.19
682.064	0.19
682.247	0.12
682.43	0.08
682.614	0.22
682.797	0.17
682.98	0.2
683.163	0.09
683.346	0.14
683.529	0.14
683.712	0.11
683.895	0.1
684.078	0.09
684.261	0.11
684.444	0.13
684.627	0.17
684.81	0.1
684.993	0.11
685.176	0.1
685.359	0.05
685.542	0.08
685.725	0.13
685.908	0.1
686.091	0.07
686.274	0.13
686.457	0.12
686.639	0.08
686.822	0.14
687.005	0.13
687.188	0.1
687.371	0.21
687.553	0.1
687.736	0.11
687.919	0.14
688.102	0.18
688.284	0.09
688.467	0.1
688.65	0.06
688.832	0.04
689.015	0.08
689.197	-0.01
689.38	0.21
689.563	0.14
689.745	0.03
689.928	0.07
690.11	0.08
690.293	0.07
690.475	0.03
690.658	0.12
690.84	0.03
691.023	0.1
691.205	0.01
691.388	0.07
691.57	0.07
691.752	0.08
691.935	0
692.117	0.06
692.3	0.09
692.482	0.08
692.664	0.04
692.847	0.05
693.029	0.11
693.211	0.13
693.393	0.09
693.576	0.03
693.758	0.08
693.94	-0
694.122	-0
694.304	0.08
694.487	-0.02
694.669	0.11
694.851	0.05
695.033	0.06
695.215	-0.01
695.397	0.01
695.579	0.12
695.761	0.04
695.943	-0.06
696.125	0.06
696.308	0.1
696.49	-0.08
696.671	0.16
696.853	0.04
697.035	0.17
697.217	0.05
697.399	0.13
697.581	0.04
697.763	0.04
697.945	-0.01
698.127	0.05
698.309	0.1
698.491	0.02
698.672	0.07
698.854	0.06
699.036	0.15
699.218	-0.03
699.399	0.1
699.581	0.09
699.763	-0
699.945	-0.03
700.126	-0
700.308	0.07
700.49	-0
700.671	-0.09
700.853	0.03
701.035	0.02
701.216	0.02
701.398	-0.02
701.579	-0.02
701.761	0.12
701.943	-0.01
702.124	0.01
702.306	0.01
702.487	0.11
702.669	0
702.85	0
703.031	-0.05
703.213	0.1
703.394	0.11
703.576	0.02
703.757	0.06
703.938	0.02
704.12	0.16
704.301	0.01
704.483	-0.01
704.664	0.04
704.845	0.13
705.026	0.06
705.208	0.01
705.389	0.04
705.57	0.07
705.751	-0
705.933	0.02
706.114	0.12
706.295	0.05
706.476	-0.02
706.657	0.1
706.838	0.01
707.02	0.12
707.201	0.04
707.382	-0.04
707.563	0.04
707.744	0.01
707.925	-0.01
708.106	-0.03
708.287	0.1
708.468	0.09
708.649	0.03
708.83	0.11
709.011	0.06
709.192	0.06
709.373	-0.04
709.554	0.04
709.734	0.11
709.915	0.06
710.096	0.03
710.277	-0.09
710.458	0.01
710.639	0.02
710.819	0
711	0.03
711.181	0.1
711.362	0.06
711.542	0.06
711.723	0.04
711.904	0.1
712.085	0.02
712.265	0.09
712.446	-0.07
712.627	0.07
712.807	0.02
712.988	0.05
713.168	-0.02
713.349	0.03
713.53	-0.08
713.71	-0.01
713.891	-0.05
714.071	-0.01
714.252	-0.02
714.432	-0.07
714.613	-0.04
714.793	-0.02
714.974	0.07
715.154	0.08
715.334	0.07
715.515	0.07
715.695	-0.04
715.876	0.03
716.056	0.05
716.236	0.02
716.417	0.05
716.597	-0.04
716.777	0.17
716.957	0.07
717.138	0.01
717.318	0.03
717.498	-0.07
717.678	0.03
717.859	0.06
718.039	-0.04
718.219	0.05
718.399	0.09
718.579	-0.09
718.759	-0.02
718.939	0.09
719.12	-0.01
719.3	0.06
719.48	-0.11
719.66	-0.02
719.84	0.14
720.02	0.08
720.2	0.03
720.38	0.01
720.56	0.11
720.74	0
720.92	0.08
721.1	0.12
721.279	0.07
721.459	0.03
721.639	-0.02
721.819	0.04
721.999	0
722.179	0.14
722.359	-0.06
722.538	0.03
722.718	0.01
722.898	0.02
723.078	-0.03
723.257	-0.04
723.437	0.02
723.617	-0
723.797	0
723.976	0.03
724.156	0.11
724.336	0.03
724.515	0.11
724.695	-0.16
724.874	-0.02
725.054	0.05
725.234	-0.08
725.413	0.08
725.593	-0.02
725.772	0.03
725.952	-0.03
726.131	-0.02
726.311	0.02
726.49	0.05
726.67	0.03
726.849	0
727.028	0.03
727.208	-0.03
727.387	0.01
727.567	-0.11
727.746	0.05
727.925	-0.03
728.105	-0.09
728.284	-0.04
728.463	-0.07
728.643	0.1
728.822	0.01
729.001	-0.05
729.18	0.02
729.359	0.11
729.539	-0.04
729.718	0.06
729.897	0.07
730.076	0.06
730.255	-0.03
730.434	-0
730.614	0.09
730.793	0.1
730.972	0.01
731.151	0.02
731.33	0.18
731.509	-0.02
731.688	-0.02
731.867	-0.05
732.046	-0.11
732.225	0.19
732.404	-0.12
732.583	-0.03
732.762	0.04
732.941	0.09
733.12	0.08
733.298	0.03
733.477	0.07
733.656	0.02
733.835	-0.07
734.014	0.1
734.193	0.01
734.371	0.16
734.55	-0.02
734.729	-0.04
734.908	0.13
735.086	0.09
735.265	0.11
735.444	-0.12
735.623	-0.08
735.801	-0.06
735.98	0.12
736.159	0
736.337	0.18
736.516	0.14
736.694	-0.04
736.873	0.01
737.052	0.15
737.23	0.15
737.409	0.03
737.587	0.12
737.766	-0.15
737.944	-0.1
738.123	0.08
738.301	0.05
738.479	-0.01
738.658	0.07
738.836	-0.1
739.015	0.09
739.193	0.11
739.371	-0.03
739.55	0.02
739.728	-0.12
739.906	0.07
740.085	0.11
740.263	-0.07
740.441	-0.05
740.62	0.22
740.798	0.04
740.976	-0.11
741.154	-0.01
741.332	0.16
741.511	0.02
741.689	0.07
741.867	0.12
742.045	-0.02
742.223	0.01
742.401	0.06
742.579	-0.16
742.757	0.12
742.935	-0.09
743.114	0.07
743.292	-0.04
743.47	-0.04
743.648	0.07
743.826	-0.11
744.004	0.15
744.181	0.1
744.359	-0.02
744.537	0.08
744.715	0.06
744.893	-0.02
745.071	0.02
745.249	0.06
745.427	0.02
745.605	0.11
745.782	0.07
745.96	0.2
746.138	0.14
746.316	0.1
746.493	0.04
746.671	0.05
746.849	0.05
747.027	0.13
747.204	0.05
747.382	0.05
747.56	-0.05
747.737	0.06
747.915	-0.06
748.093	0.05
748.27	0.04
748.448	0.06
748.625	-0.11
748.803	-0.1
748.98	-0.02
749.158	0.06
749.335	0.14
749.513	-0.02
749.69	0.01
749.868	0.05
750.045	0.06
750.223	-0.05
750.4	-0.14
750.578	0.09
750.755	0.02
750.932	-0.09
751.11	0.17
751.287	-0.19
751.464	0.14
751.642	-0.06
751.819	-0.02
751.996	0.05
752.173	-0.01
752.351	-0.16
752.528	-0.02
752.705	0.02
752.882	-0.07
753.06	0.02
753.237	0.06
753.414	0.25
753.591	0.11
753.768	0.01
753.945	0
754.122	0.09
754.299	0.12
754.476	-0.06
754.654	0.01
754.831	-0.02
755.008	-0.05
755.185	0.01
755.362	-0.07
755.539	0.08
755.716	-0
755.892	-0.19
756.069	0.01
756.246	-0.01
756.423	0.03
756.6	0.1
756.777	-0
756.954	0.17
757.131	-0.05
757.307	-0.08
757.484	-0.15
757.661	0.02
757.838	-0.06
758.015	-0.01
758.191	0.02
758.368	0.01
758.545	0.14
758.721	-0.03
758.898	-0.02
759.075	-0
759.251	-0.01
759.428	0.05
759.605	-0.02
759.781	0.1
759.958	0.04
760.134	0.06
760.311	-0.08
760.488	0.21
760.664	0.15
760.841	-0.01
761.017	-0.13
761.194	0.11
761.37	-0.03
761.547	0.08
761.723	0.02
761.899	0.14
762.076	-0.09
762.252	-0.05
762.429	0.03
762.605	0.13
762.781	-0.09
762.958	0.1
763.134	0.03
763.31	0.03
763.486	0.05
763.663	-0.03
763.839	0.12
764.015	-0.2
764.191	-0.15
764.368	0
764.544	-0.01
764.72	0.08
764.896	0.08
765.072	0.06
765.248	0.05
765.425	-0.02
765.601	-0.04
765.777	0.02
765.953	-0.22
766.129	-0.05
766.305	-0.05
766.481	0.05
766.657	-0.04
766.833	0.1
767.009	-0.04
767.185	0.06
767.361	-0.01
767.537	-0.07
767.713	0.17
767.889	-0.06
768.065	0.17
768.24	0.02
768.416	0
768.592	-0.06
768.768	0.05
768.944	0.14
769.12	-0.08
769.295	-0.05
769.471	-0.16
769.647	0.02
769.823	0.1
769.998	0
770.174	0.09
770.35	0.46
770.525	0.22
770.701	0.16
770.877	0.05
771.052	-0.07
771.228	0.08
771.403	0.12
771.579	0.16
771.755	0.29
771.93	-0.04
772.106	-0.23
772.281	-0.27
772.457	0.02
772.632	0.01
772.808	-0.15
772.983	-0.14
773.159	-0.13
773.334	0.12
773.509	-0.1
773.685	-0.06
773.86	0.38
774.036	0.16
774.211	0.13
774.386	0.04
774.562	0.05
774.737	0.2
774.912	-0.01
775.087	0.15
775.263	0.16
775.438	-0.06
775.613	0.03
775.788	-0.01
775.964	-0.04
776.139	0.38
776.314	-0.09
776.489	0.07
776.664	0.11
776.839	-0.22
777.014	0.19
777.19	0.13
777.365	0.18
777.54	0.3
777.715	-0.11
777.89	0.13
778.065	-0.18
778.24	-0.06
778.415	0.2
778.59	-0.16
778.765	0.12
778.94	-0.08
779.115	-0.11
779.289	0.1
779.464	0
779.639	-0.01
779.814	-0.13
779.989	-0.04
780.164	0.16
780.339	0.06
780.513	-0.03
780.688	-0.07
780.863	-0.02
781.038	0.27
781.212	-0.06
781.387	0.02
781.562	0.28
781.737	0.04
781.911	0.09
782.086	-0.14
782.261	0.02
782.435	0.28
782.61	-0.01
782.784	0.07
782.959	0.16
783.134	0.02
783.308	-0.4
783.483	-0.01
783.657	0.38
783.832	0.12
784.006	-0.31
784.181	0.15
784.355	0.17
784.53	-0.11
784.704	-0.11
784.878	0.31
785.053	0.04
785.227	0.42
785.402	0.41
785.576	-0.09
785.75	0.07
785.925	-0.05
786.099	-0.04
786.273	0.15
786.448	0.14
786.622	0.11
786.796	-0.02
786.97	-0
787.145	0.29
787.319	-0.24
787.493	-0.07
787.667	-0.04
787.841	0.08
788.015	0.13
788.19	0.05
788.364	0.07
788.538	0.11
788.712	0.11
788.886	0.19
789.06	0.41
789.234	0.35
789.408	-0.12
789.582	-0.19
789.756	-0.04
789.93	-0.19
790.104	-0.01
790.278	-0.03
790.452	-0.17
790.626	0.22
790.8	-0.04
790.973	0.12
791.147	0.37
791.321	0.37
791.495	0.25
791.669	0.08
791.843	0.2
792.016	0.05
792.19	0.48
792.364	-0.26
792.538	0.48
792.711	0.34
792.885	0.04
793.059	-0.1
793.233	-0.38
793.406	0.2
793.58	0.08
793.754	0.12
793.927	-0.02
794.101	0.33
794.274	-0.04
794.448	0.3
794.622	-0.02
794.795	0.45
794.969	-0.02
795.142	0.32
795.316	-0.04
795.489	-0.15
795.663	0.29
795.836	0.1
796.009	-0.12
796.183	0.27
796.356	0.15
796.53	-0.08
796.703	0.09
796.876	0.67
797.05	-0.22
797.223	0.08
797.396	0.01
797.57	0.1
797.743	0.36
797.916	0.22
798.09	0.04
798.263	0.38
798.436	0.14
798.609	-0.13
798.782	0.16
798.956	0.13
799.129	0.02
799.302	-0.02
799.475	-0.29
799.648	-0.02
799.821	-0.03
799.994	0.03
800.167	-0.22
800.34	0.19
800.514	-0.06
800.687	-0.2
800.86	-0.04
801.033	-0.06
801.206	0.12
801.379	-0.32
801.551	0.1
801.724	0.42
801.897	0.47
802.07	-0.02
802.243	-0.19
802.416	0.01
802.589	-0.18
802.762	0.18
802.935	-0.15
803.107	0.34
803.28	0.42
803.453	0.07
803.626	-0.1
803.798	-0.11
803.971	-0.33
804.144	0.1
804.317	0.02
804.489	0.16
804.662	-0.04
804.835	-0.22
805.007	-0.1
805.18	0.39
805.353	0.23
805.525	-0.33
805.698	-0.18
805.87	-0.02
806.043	0.5
806.215	-0.11
806.388	-0.23
806.56	0.48
806.733	0.59
806.905	0.32
807.078	-0.3
807.25	-0.17
807.423	0.18
807.595	-0.02
807.768	-0.14
807.94	0.5
808.112	0.4
808.285	-0.13
808.457	-0.03
808.629	0.11
808.802	0.42
808.974	0.19
809.146	-0.07
809.318	-0.24
809.491	-0.05
809.663	0.62
809.835	0.17
810.007	0.18
810.18	0.01
810.352	0.06
810.524	-0.06
810.696	-0.03
810.868	0.07
811.04	0.22
811.212	-0.22
811.384	0.18
811.556	-0.09
811.728	0.22
811.901	0.7
812.073	0.01
812.245	-0.37
812.417	0.04
812.589	-0.51
812.76	0.32
812.932	-0.12
813.104	0.37
813.276	-0.15
813.448	0.17
813.62	-0.08
813.792	-0.18
813.964	-0.21
814.136	0.11
814.307	-0.14
814.479	0.06
814.651	-0.13
814.823	0.89
814.995	-0.08
815.166	0.18
815.338	0.04
815.51	-0.31
815.681	1.18
815.853	0.26
816.025	0.16
816.196	0.59
816.368	0.08
816.54	-0.53
816.711	-0.52
816.883	0.33
817.054	0.66
817.226	-0.41
817.398	0.1
817.569	0.19
817.741	-0.09
817.912	0.23
818.084	-0.33
818.255	-0.02
818.426	0.23
818.598	0.04
818.769	-0.02
818.941	0.43
819.112	0.79
819.283	0.32
819.455	-0.37
819.626	-0.03
819.798	-0.25
819.969	0.06
820.14	0.2
820.311	0.1
820.483	-0.27
820.654	-0.16
820.825	0.29
820.996	-0.03
821.168	-0.1
821.339	0.14
821.51	-0.34
821.681	0.05
821.852	0.14
822.023	-0.5
822.195	-0.41
822.366	0.46
822.537	0.21
822.708	-0.16
822.879	-0.29
823.05	0.57
823.221	0.23
823.392	-0.04
823.563	0.48
823.734	0.25
823.905	0.25
824.076	-0.14
824.247	-0.15
824.418	-0.24
824.589	0.63
824.759	-0.05
824.93	0.18
825.101	-0.52
825.272	0.27
825.443	0.39
825.614	0.22
825.784	-0.78
825.955	0.83
826.126	0.97
826.297	0.65
826.467	0.32
826.638	0.89
826.809	-0.72
826.98	0.37
827.15	0.11
827.321	0.18
827.492	0.94
827.662	0.38
827.833	0.78
828.003	0.18
828.174	-0.17
828.345	-0.11
828.515	0.49
828.686	0.46
828.856	-0.21
829.027	0.32
829.197	0.82
829.368	0.43
829.538	-0.55
829.709	-0.31
829.879	-0.05
830.049	-0.04
830.22	-0.03
830.39	0.08
830.56	0.46
830.731	0.21
830.901	-0.18
831.072	-0.55
831.242	0.05
831.412	-0.18
831.582	0.59
831.753	-0.42
831.923	0.28
832.093	0.5
832.263	0.22
832.434	-0.23
832.604	-0.2
832.774	0.28
832.944	0.25
833.114	0.19
833.284	0.31
833.454	-0.15
833.624	-0.16
833.795	0.01
833.965	1.06
834.135	0.28
834.305	-0.6
834.475	-0.69
834.645	-0.2
834.815	-0.55
834.985	-0.09
835.155	-0.05
835.325	0.26
835.494	-0.54
835.664	0.75
835.834	-0.46
836.004	0.64
836.174	0.24
836.344	0.39
836.514	-0.86
836.684	0.1
836.853	-0.07
837.023	-0.01
837.193	0.53
837.363	0.86
837.532	0.44
837.702	0.22
837.872	-0.71
838.041	0.64
838.211	0.84
838.381	-0.83
838.55	-0.08
838.72	1.73
838.89	1.57
839.059	0.42
839.229	-0.36
839.398	0.91
839.568	0.31
839.738	0.04
839.907	0.63
840.077	-0.11
840.246	-0.41
840.416	-0.52
840.585	-0.13
840.755	1.25
840.924	1.2
841.093	0.18
841.263	0.47
841.432	0.17
841.602	-0.8
841.771	-0.04
841.94	0.01
842.11	1.46
842.279	0.67
842.448	-0.32
842.617	-0.05
842.787	0.7
842.956	-0.05
843.125	-0.06
843.294	0.13
843.464	0.83
843.633	0.54
843.802	-0.44
843.971	0.71
844.14	1.05
844.309	0.57
844.479	-0.38
844.648	-0.19
844.817	-0.75
844.986	0.07
845.155	0.03
845.324	-0.34
845.493	0.67
845.662	0.19
845.831	0.52
846	0.36
846.169	0.17
846.338	1.3
846.507	0.23
846.676	0.44
846.844	-0.11
847.013	0.38
847.182	0.7
847.351	-0.93
847.52	0.29
847.689	0.53
847.858	0.27
848.026	0.24
848.195	0.26
848.364	-0.6
848.533	-0.31
848.701	-0.46
848.87	0.1
849.039	0.75
849.207	0.85
849.376	1.05
849.545	0.84
849.713	0.17
849.882	-0.22
850.051	0.26
850.219	1.37
850.388	0.71
850.556	-0.22
850.725	-0.25
850.893	-0.06
851.062	0.49
851.23	1.09
851.399	-0.87
851.567	-0.36
851.736	0.03
851.904	-1.2
852.073	0.23
852.241	0.95
852.41	0.1
852.578	0.27
852.746	-0.06
852.915	0.71
853.083	0.88
853.251	-0.46
853.42	-0.52
853.588	0.26
853.756	0.97
853.924	0.3
854.093	-0.67
854.261	-0.27
854.429	-1.2
854.597	0.62
854.765	-1.35
854.934	0.57
855.102	1.22
855.27	0.18
855.438	-0.04
855.606	0.92
855.774	1.98
855.942	-1.03
856.11	-1.08
856.278	1.02
856.446	0.45
856.614	0.68
856.782	-0.46
856.95	1.7
857.118	0.82
857.286	0.75
857.454	-0.3
857.622	-0.36
857.79	0.62
857.958	-1.18
858.126	-0.98
858.294	-2.74
858.462	-0.13
858.629	-1.14
858.797	-0.7
858.965	-0.08
859.133	0.78
859.301	-1.07
859.468	0.64
859.636	-0.42
859.804	0.92
859.971	0.78
860.139	-0.72
860.307	1.28
860.474	1.19
860.642	-0.6
860.81	-0.95
860.977	0.25
861.145	1.79
861.313	-0.68
861.48	0.75
861.648	0.29
861.815	-0.28
861.983	-0.8
862.15	-0.37
862.318	-0.01
862.485	1.64
862.653	-0.81
862.82	-0.59
862.988	0.94
863.155	-0.52
863.322	-1.14
863.49	-0.66
863.657	-0.9
863.824	1.9
863.992	0.68
864.159	1.76
864.326	1.36
864.494	-0.41
864.661	2.78
864.828	-1.48
864.996	1.29
865.163	0.31
865.33	0.7
865.497	-1.24
865.664	-0.39
865.832	-1.74
865.999	-0.48
866.166	-1.17
866.333	0.25
866.5	0.33
866.667	0.47
866.834	-0.43
867.001	2.15
867.168	-0.71
867.335	-0.37
867.502	-1.49
867.669	1.75
867.836	1.5
868.003	-0.53
868.17	1.98
868.337	-2.12
868.504	2.75
868.671	-0.03
868.838	1.02
869.005	0
869.172	1.04
869.339	0.77
869.505	-0.61
869.672	-0.16
869.839	0.76
870.006	0.9
870.173	-0.33
870.339	1.36
870.506	4.42
870.673	-1.45
870.84	1.91
871.006	0.32
871.173	-0.11
871.34	-0.13
871.506	-1.41
871.673	2.23
871.839	-1.91
872.006	0.15
872.173	-1.13
872.339	0.18
872.506	1.57
872.672	0.22
872.839	-1.15
873.005	0.53
873.172	2.42
873.338	1.55
873.505	0.15
873.671	1.42
873.838	2.46
874.004	0.17
874.171	-0.22
874.337	1.9
874.503	-0.26
874.67	-0.03
874.836	-0.71
875.002	1.89
875.169	1.39
875.335	1.26
875.501	0.09
875.668	1.11
875.834	0.71
876	-0.57
876.166	0.65
876.332	1.58
876.499	2.38
876.665	-1.54
876.831	1.06
876.997	3.15
877.163	-0.27
877.329	-1.04
877.495	0
877.662	1.01
877.828	0.64
877.994	0.44
878.16	-1.57
878.326	-1.35
878.492	1.59
878.658	0.15
878.824	1.75
878.99	1.88
879.156	0.71
879.322	3.16
879.487	0.26
879.653	0.95
879.819	-0.61
879.985	-0.74
880.151	0.75
880.317	1.63
880.483	0.15
880.648	0.9
880.814	-1.53
880.98	-0.17
881.146	-3
881.312	-0.9
881.477	-0.3
881.643	0.26
881.809	3.47
881.974	1.77
882.14	-1.61
882.306	1.34
882.471	2.24
882.637	-0.02
882.803	1.8
882.968	2.68
883.134	2.3
883.299	1.7
883.465	-0.82
883.63	2.61
883.796	1.36
883.961	1.81
884.127	0.75
884.292	-3.56
884.458	-2.2
884.623	-2.19
