Data from Apollo_Calib_20240827__AbsoluteIrradiance__129__01-18-00-781.txt Node

Date: Wed Aug 28 01:18:00 BST 2024
User: biology
Spectrometer: FLMT08252
Trigger mode: 0
Integration Time (sec): 5.000000E-1
Scans to average: 5
Electric dark correction enabled: true
Nonlinearity correction enabled: false
Boxcar width: 0
XAxis mode: Wavelengths
Number of Pixels in Spectrum: 3648
>>>>>Begin Spectral Data<<<<<
179.588	-0
179.809	-0
180.03	-0
180.251	-0
180.473	-0
180.694	0
180.915	0
181.136	-0
181.357	0
181.578	-0
181.799	-0
182.02	-0
182.241	0
182.462	-0
182.683	0
182.904	-0
183.125	-0
183.346	0
183.567	0
183.788	0
184.009	-0
184.23	0
184.451	0
184.672	-0
184.892	-0
185.113	0
185.334	0
185.555	-0
185.776	-0
185.996	0
186.217	-0
186.438	0
186.659	-0
186.879	0
187.1	-0
187.321	-0
187.541	-0
187.762	0
187.983	-0
188.203	-0
188.424	-0
188.644	0
188.865	0
189.086	-0
189.306	0
189.527	-0
189.747	0
189.968	-0
190.188	0
190.409	0
190.629	0
190.849	-0
191.07	-0
191.29	0
191.511	0
191.731	-0
191.951	-0
192.172	-0
192.392	0
192.612	0
192.833	-0
193.053	0
193.273	0
193.493	-0
193.714	0
193.934	0
194.154	0
194.374	0
194.594	0
194.815	-0
195.035	0
195.255	-0
195.475	-0
195.695	-0
195.915	0
196.135	0
196.355	0
196.575	0
196.795	-0
197.015	-0
197.235	-0
197.455	-0
197.675	0
197.895	-0
198.115	-0
198.335	0
198.555	-0
198.775	0
198.995	0
199.214	0
199.434	0
199.654	-0
199.874	0
200.094	0.98
200.313	-0.74
200.533	-0.25
200.753	-0.76
200.973	0.57
201.192	0.6
201.412	-0.66
201.632	-0.06
201.851	0.91
202.071	-0.49
202.291	-0.19
202.51	-0.44
202.73	0.48
202.95	0.24
203.169	-0.3
203.389	0.01
203.608	0.04
203.828	-0.37
204.047	-0.42
204.267	0.19
204.486	0.36
204.706	0.42
204.925	0.16
205.145	-0.42
205.364	0.17
205.583	0.43
205.803	-0.26
206.022	-0.31
206.242	0.22
206.461	0.05
206.68	-0.3
206.9	0.32
207.119	0.64
207.338	0.51
207.557	0.07
207.777	-0.19
207.996	0.05
208.215	0.58
208.434	-0.12
208.654	-0.31
208.873	0.18
209.092	0.48
209.311	-0.18
209.53	-0.01
209.749	-0.18
209.968	-0.1
210.187	-0.19
210.407	-0.45
210.626	-0.17
210.845	0.25
211.064	0.11
211.283	-0.23
211.502	0.29
211.721	-0.24
211.94	-0.03
212.159	0.14
212.377	0.2
212.596	0.24
212.815	0.13
213.034	-0.08
213.253	0.17
213.472	0.32
213.691	-0.2
213.91	-0.05
214.128	-0.1
214.347	0.32
214.566	-0.33
214.785	-0.5
215.003	0.11
215.222	-0.02
215.441	0.01
215.66	-0.22
215.878	0.01
216.097	0.25
216.316	-0.11
216.534	0.01
216.753	0.03
216.972	0
217.19	-0.1
217.409	0.03
217.627	0.03
217.846	-0.08
218.064	-0.05
218.283	-0.15
218.501	0.45
218.72	0.26
218.938	-0.16
219.157	-0.05
219.375	0.29
219.594	-0.07
219.812	-0.11
220.031	-0.19
220.249	0.19
220.467	0.32
220.686	-0.02
220.904	-0.15
221.122	-0.14
221.341	0.35
221.559	0.09
221.777	-0.05
221.995	0.02
222.214	0.12
222.432	-0.01
222.65	0.2
222.868	0.09
223.086	0.05
223.305	0.02
223.523	0.02
223.741	0.27
223.959	-0.19
224.177	-0.23
224.395	-0.08
224.613	0.11
224.831	0.12
225.049	-0.2
225.267	0
225.485	-0
225.703	-0.02
225.921	0.01
226.139	-0.11
226.357	0.19
226.575	0
226.793	-0.05
227.011	0.47
227.229	0.12
227.447	0.27
227.665	0
227.883	-0.23
228.1	0.04
228.318	0.04
228.536	-0.24
228.754	-0.17
228.972	0.12
229.189	0.12
229.407	-0.04
229.625	-0.16
229.843	0.04
230.06	0.12
230.278	-0.14
230.496	-0.05
230.713	0.09
230.931	0.31
231.149	-0.09
231.366	-0.13
231.584	-0.03
231.801	0.34
232.019	-0.01
232.236	-0.07
232.454	-0.07
232.671	0.07
232.889	0
233.106	-0.01
233.324	-0.12
233.541	-0.02
233.759	0.01
233.976	-0.1
234.194	0
234.411	-0.04
234.628	-0.15
234.846	-0.06
235.063	0.04
235.28	0.06
235.498	-0.04
235.715	-0.15
235.932	0.11
236.149	-0.01
236.367	-0.11
236.584	-0.04
236.801	-0.01
237.018	0.17
237.236	0.08
237.453	-0.19
237.67	0.11
237.887	-0.09
238.104	0.04
238.321	-0.05
238.538	-0.04
238.755	0.15
238.973	-0.13
239.19	-0
239.407	-0.08
239.624	-0.02
239.841	-0.09
240.058	-0.05
240.275	0.04
240.492	-0.08
240.709	0.07
240.925	0.01
241.142	0.08
241.359	-0.03
241.576	-0.12
241.793	-0.12
242.01	0.04
242.227	0.09
242.444	0.17
242.66	0.16
242.877	0.01
243.094	-0.06
243.311	0.05
243.527	0.02
243.744	0.07
243.961	0.03
244.178	-0.04
244.394	-0.02
244.611	0.11
244.828	0.19
245.044	-0.04
245.261	-0.05
245.477	0.13
245.694	0.11
245.911	0.01
246.127	0.04
246.344	0.07
246.56	0.09
246.777	0.11
246.993	0.07
247.21	0.06
247.426	0.11
247.643	0.03
247.859	-0.05
248.076	-0.02
248.292	0.24
248.508	0.01
248.725	0.01
248.941	0.04
249.157	0.11
249.374	-0.07
249.59	-0.03
249.806	0.06
250.023	0.12
250.239	-0.08
250.455	-0.03
250.671	0.02
250.888	0.06
251.104	0.11
251.32	-0.02
251.536	0.04
251.752	0
251.969	0.09
252.185	0.06
252.401	0.28
252.617	0.01
252.833	-0.01
253.049	0.02
253.265	0.03
253.481	0.1
253.697	-0.04
253.913	-0.09
254.129	-0.07
254.345	-0.01
254.561	0.01
254.777	-0
254.993	0.08
255.209	0.03
255.425	-0.02
255.641	0
255.857	0.11
256.073	0.01
256.288	-0.06
256.504	-0.05
256.72	0.05
256.936	0.09
257.152	0
257.367	-0.02
257.583	-0.03
257.799	0.16
258.015	-0.01
258.23	-0
258.446	0.11
258.662	0.01
258.877	-0.06
259.093	-0.14
259.309	-0.04
259.524	-0.01
259.74	-0.04
259.955	-0.09
260.171	0.04
260.387	-0.03
260.602	0.13
260.818	-0
261.033	0.03
261.249	-0.07
261.464	-0.07
261.68	-0.1
261.895	0.05
262.11	0.09
262.326	0.01
262.541	-0.06
262.757	0.07
262.972	0.01
263.187	0.08
263.403	-0.02
263.618	0.1
263.833	0.07
264.049	-0.01
264.264	-0
264.479	0.12
264.694	0.07
264.91	-0.05
265.125	0.02
265.34	0.05
265.555	0.16
265.77	0.04
265.986	-0.04
266.201	0.08
266.416	0.1
266.631	-0.02
266.846	-0
267.061	0.09
267.276	0.01
267.491	-0.11
267.706	0.09
267.921	0.05
268.136	0.02
268.351	-0.01
268.566	-0.07
268.781	0.02
268.996	0.04
269.211	0.06
269.426	-0.09
269.641	-0.02
269.856	0.01
270.071	-0.09
270.285	-0.04
270.5	0.1
270.715	0.06
270.93	0.01
271.145	0.07
271.359	0.09
271.574	-0.01
271.789	0.02
272.004	0
272.218	0.05
272.433	0.02
272.648	-0.02
272.862	0.07
273.077	-0.01
273.292	0.05
273.506	-0.03
273.721	-0.03
273.936	-0.03
274.15	0.06
274.365	0
274.579	-0.01
274.794	0.09
275.008	0.07
275.223	-0.01
275.437	0.06
275.652	0.09
275.866	0.1
276.081	0.01
276.295	0.09
276.509	0.06
276.724	0.02
276.938	-0.01
277.153	0.06
277.367	0.04
277.581	-0.02
277.796	-0.02
278.01	-0.03
278.224	0.08
278.438	0.18
278.653	-0.06
278.867	-0
279.081	-0.16
279.295	-0.03
279.51	0.05
279.724	-0.08
279.938	0.05
280.152	0.08
280.366	-0.07
280.58	0.03
280.794	0.07
281.008	0.05
281.222	0.12
281.437	0.16
281.651	0.02
281.865	0.08
282.079	-0.04
282.293	-0.06
282.507	-0.07
282.721	-0.02
282.935	-0
283.148	-0.06
283.362	0
283.576	-0.03
283.79	0.04
284.004	-0
284.218	0.05
284.432	-0.03
284.646	-0
284.859	0.01
285.073	-0.03
285.287	0.04
285.501	0.01
285.714	-0.02
285.928	-0.02
286.142	-0
286.356	-0.01
286.569	0
286.783	0.12
286.997	0.02
287.21	0.02
287.424	0.02
287.637	-0.01
287.851	0.04
288.065	0.06
288.278	0.02
288.492	0.04
288.705	0.02
288.919	0.06
289.132	-0.05
289.346	0.04
289.559	-0.07
289.773	-0.05
289.986	-0
290.2	0
290.413	0.05
290.626	-0.05
290.84	-0.01
291.053	-0.01
291.267	0.13
291.48	0.03
291.693	0.02
291.906	-0.06
292.12	0.05
292.333	-0.02
292.546	0.04
292.76	0.05
292.973	-0.03
293.186	0.05
293.399	-0.03
293.612	0.09
293.826	0.01
294.039	-0.02
294.252	0.01
294.465	0.04
294.678	0.05
294.891	0.05
295.104	-0.05
295.317	0.02
295.53	0.01
295.743	-0
295.956	0.04
296.169	0.06
296.382	0.04
296.595	0.01
296.808	-0.04
297.021	0.07
297.234	0.07
297.447	0.04
297.66	0.04
297.873	0.05
298.086	0.04
298.299	0
298.511	-0.01
298.724	-0.01
298.937	-0.03
299.15	-0.02
299.363	0.02
299.575	0.04
299.788	0.01
300.001	-0
300.213	-0.02
300.426	0.01
300.639	0.01
300.852	-0
301.064	0.06
301.277	0.1
301.489	0.02
301.702	0.05
301.915	0.01
302.127	0.02
302.34	0.06
302.552	0.03
302.765	-0.04
302.977	0.04
303.19	-0.01
303.402	-0.03
303.615	0.03
303.827	0.01
304.04	0.03
304.252	0.02
304.464	0.01
304.677	0.12
304.889	0.08
305.102	0.01
305.314	-0.03
305.526	-0.02
305.739	0.04
305.951	-0.03
306.163	-0
306.375	0.09
306.588	-0.02
306.8	-0.02
307.012	-0.05
307.224	0.02
307.436	0.13
307.649	-0.07
307.861	0.04
308.073	0.07
308.285	-0.03
308.497	-0.01
308.709	0.02
308.921	0.01
309.133	0.08
309.346	0.01
309.558	0.03
309.77	0.07
309.982	0.12
310.194	0.04
310.406	0.01
310.617	0.09
310.829	0.06
311.041	0.08
311.253	-0.02
311.465	0.01
311.677	0
311.889	0.01
312.101	-0
312.313	0.07
312.524	0.09
312.736	-0.01
312.948	-0.01
313.16	0.08
313.372	0.03
313.583	0.02
313.795	0.01
314.007	0
314.218	0.05
314.43	-0.01
314.642	-0.03
314.853	-0.01
315.065	0.07
315.277	-0.03
315.488	0.03
315.7	0.07
315.912	0.01
316.123	-0.04
316.335	0.04
316.546	0.09
316.758	0
316.969	-0.02
317.181	0.03
317.392	-0
317.604	0.06
317.815	-0.06
318.026	-0.02
318.238	0.02
318.449	0.05
318.661	-0.01
318.872	-0.04
319.083	-0.04
319.295	0.02
319.506	0
319.717	0.01
319.929	0
320.14	0.02
320.351	0.05
320.562	-0.03
320.774	0.03
320.985	0.03
321.196	-0.05
321.407	0
321.618	0.04
321.829	-0.01
322.041	0.06
322.252	0.03
322.463	0.04
322.674	0.04
322.885	0.02
323.096	-0
323.307	0.01
323.518	0.04
323.729	0.01
323.94	0.03
324.151	0
324.362	0.01
324.573	0.03
324.784	0
324.995	0.06
325.206	0.02
325.417	-0.05
325.628	0.02
325.838	0.03
326.049	0.02
326.26	0.04
326.471	-0.03
326.682	0.04
326.892	0.02
327.103	-0.01
327.314	-0.02
327.525	0.1
327.735	-0
327.946	0.03
328.157	-0.01
328.368	0.04
328.578	-0.01
328.789	0.04
328.999	0.02
329.21	0
329.421	0.07
329.631	-0.04
329.842	0.03
330.052	0.03
330.263	0.01
330.473	0.07
330.684	0.02
330.894	-0.02
331.105	0.03
331.315	0.04
331.526	-0.04
331.736	0.07
331.947	0.05
332.157	0.03
332.367	-0.02
332.578	0.03
332.788	0.08
332.999	0.07
333.209	0.03
333.419	-0.01
333.629	0.01
333.84	0.04
334.05	0.01
334.26	0.1
334.47	0.07
334.681	0.05
334.891	0
335.101	0.04
335.311	0.06
335.521	-0.01
335.732	-0.02
335.942	0.07
336.152	0.02
336.362	0.06
336.572	0
336.782	0.03
336.992	-0.02
337.202	-0
337.412	-0.01
337.622	0.04
337.832	0.04
338.042	0.06
338.252	0.02
338.462	-0.01
338.672	-0
338.882	-0.03
339.092	0.01
339.302	0.06
339.511	0.04
339.721	0.04
339.931	-0.01
340.141	0.05
340.351	0.08
340.561	0.04
340.77	0.03
340.98	0.06
341.19	0.06
341.4	-0.01
341.609	0.01
341.819	0
342.029	0
342.238	-0.01
342.448	0.01
342.658	0.05
342.867	0.01
343.077	0.03
343.286	0.09
343.496	-0.01
343.706	0.08
343.915	-0.03
344.125	0.03
344.334	0.07
344.544	-0.02
344.753	0.04
344.963	0.02
345.172	0.03
345.381	-0.03
345.591	0.01
345.8	0.04
346.01	0.13
346.219	0.05
346.428	-0.11
346.638	0.03
346.847	0.03
347.056	0.04
347.266	0.01
347.475	0.05
347.684	0.04
347.893	0.03
348.103	0.04
348.312	0.01
348.521	-0.02
348.73	-0.01
348.94	0.05
349.149	0.03
349.358	-0.03
349.567	0.02
349.776	-0.01
349.985	0.01
350.194	0.07
350.403	0.06
350.612	-0.03
350.821	0
351.03	-0
351.239	-0.05
351.448	0.03
351.657	-0.02
351.866	0.06
352.075	0.01
352.284	0.07
352.493	-0.02
352.702	0.08
352.911	0.03
353.12	0.03
353.329	0.02
353.538	0.04
353.746	0.03
353.955	-0
354.164	0.08
354.373	-0.01
354.582	0.07
354.79	0.05
354.999	0.08
355.208	-0.02
355.416	0.08
355.625	-0.04
355.834	-0.02
356.042	0.04
356.251	0.02
356.46	-0.02
356.668	0.04
356.877	0.16
357.085	0.04
357.294	-0.03
357.503	0.07
357.711	0.04
357.92	0.16
358.128	0.02
358.337	0.02
358.545	0.03
358.754	0.01
358.962	0.06
359.17	0.03
359.379	0.05
359.587	0.05
359.796	0.02
360.004	0.1
360.212	0.05
360.421	0.09
360.629	0.02
360.837	0.02
361.046	0.06
361.254	0.11
361.462	0.04
361.67	-0.01
361.879	0.04
362.087	0.13
362.295	0.07
362.503	0.08
362.711	0.01
362.92	0.02
363.128	0
363.336	-0
363.544	-0.03
363.752	0.01
363.96	0.01
364.168	0.01
364.376	0.02
364.584	0.07
364.792	0.1
365	0.09
365.208	0.03
365.416	0.03
365.624	0.09
365.832	-0
366.04	0.09
366.248	0.06
366.456	0.1
366.664	0.02
366.872	0.09
367.079	0.04
367.287	0.04
367.495	0.07
367.703	0.1
367.911	0.06
368.118	0.06
368.326	0.06
368.534	0.08
368.742	0.14
368.949	0.06
369.157	0.11
369.365	0.13
369.572	0.13
369.78	0.08
369.988	0.19
370.195	0.16
370.403	0.24
370.61	0.16
370.818	0.24
371.026	0.29
371.233	0.28
371.441	0.32
371.648	0.26
371.856	0.39
372.063	0.39
372.271	0.39
372.478	0.4
372.685	0.46
372.893	0.57
373.1	0.54
373.308	0.58
373.515	0.69
373.722	0.71
373.93	0.72
374.137	0.78
374.344	0.85
374.552	0.87
374.759	0.89
374.966	0.95
375.173	0.97
375.381	1.13
375.588	1.09
375.795	1.11
376.002	1.23
376.209	1.26
376.417	1.34
376.624	1.46
376.831	1.48
377.038	1.53
377.245	1.54
377.452	1.7
377.659	1.82
377.866	1.9
378.073	1.93
378.28	2.02
378.487	2.19
378.694	2.28
378.901	2.39
379.108	2.43
379.315	2.59
379.522	2.73
379.729	2.7
379.936	2.78
380.143	2.98
380.35	3.07
380.557	3.26
380.763	3.32
380.97	3.4
381.177	3.55
381.384	3.76
381.591	3.79
381.797	3.9
382.004	4.1
382.211	4.25
382.418	4.22
382.624	4.47
382.831	4.42
383.038	4.61
383.244	4.67
383.451	4.7
383.658	4.61
383.864	4.86
384.071	4.7
384.277	4.86
384.484	4.84
384.69	4.84
384.897	4.77
385.103	4.68
385.31	4.63
385.516	4.57
385.723	4.46
385.929	4.42
386.136	4.22
386.342	4.16
386.549	4.1
386.755	3.97
386.961	3.89
387.168	3.72
387.374	3.58
387.58	3.58
387.787	3.36
387.993	3.24
388.199	3.07
388.406	2.98
388.612	2.78
388.818	2.67
389.024	2.57
389.231	2.54
389.437	2.5
389.643	2.45
389.849	2.34
390.055	2.18
390.261	2.17
390.467	2.15
390.674	1.97
390.88	1.89
391.086	1.92
391.292	1.86
391.498	1.81
391.704	1.79
391.91	1.64
392.116	1.6
392.322	1.37
392.528	1.54
392.734	1.42
392.94	1.44
393.146	1.39
393.352	1.35
393.557	1.22
393.763	1.27
393.969	1.21
394.175	1.12
394.381	1.15
394.587	1.08
394.792	1.07
394.998	1.08
395.204	1.07
395.41	0.96
395.615	0.93
395.821	0.93
396.027	0.94
396.233	0.85
396.438	0.85
396.644	0.82
396.85	0.83
397.055	0.74
397.261	0.77
397.466	0.7
397.672	0.66
397.878	0.7
398.083	0.67
398.289	0.59
398.494	0.6
398.7	0.6
398.905	0.44
399.111	0.53
399.316	0.42
399.522	0.47
399.727	0.44
399.932	0.42
400.138	0.43
400.343	0.49
400.549	0.45
400.754	0.4
400.959	0.44
401.165	0.38
401.37	0.4
401.575	0.43
401.78	0.4
401.986	0.34
402.191	0.35
402.396	0.31
402.601	0.34
402.807	0.37
403.012	0.35
403.217	0.35
403.422	0.31
403.627	0.29
403.832	0.35
404.037	0.32
404.243	0.3
404.448	0.28
404.653	0.3
404.858	0.34
405.063	0.27
405.268	0.26
405.473	0.25
405.678	0.26
405.883	0.36
406.088	0.27
406.293	0.16
406.498	0.22
406.703	0.26
406.907	0.2
407.112	0.21
407.317	0.24
407.522	0.25
407.727	0.16
407.932	0.19
408.136	0.22
408.341	0.23
408.546	0.21
408.751	0.18
408.956	0.17
409.16	0.22
409.365	0.19
409.57	0.16
409.774	0.21
409.979	0.19
410.184	0.16
410.388	0.13
410.593	0.21
410.798	0.16
411.002	0.12
411.207	0.14
411.411	0.15
411.616	0.09
411.82	0.11
412.025	0.17
412.229	0.12
412.434	0.17
412.638	0.17
412.843	0.12
413.047	0.15
413.252	0.07
413.456	0.12
413.66	0.16
413.865	0.12
414.069	0.19
414.273	0.12
414.478	0.11
414.682	0.09
414.886	0.08
415.091	0.07
415.295	0.05
415.499	0.13
415.703	0.06
415.908	0.09
416.112	0.01
416.316	0.13
416.52	0.09
416.724	0.03
416.929	0.05
417.133	0.19
417.337	0.07
417.541	0.07
417.745	0.06
417.949	0.12
418.153	0.12
418.357	0.07
418.561	0.14
418.765	0.08
418.969	0.16
419.173	0.09
419.377	0.08
419.581	0.2
419.785	0.06
419.989	0.04
420.193	0.04
420.397	0.05
420.601	0.14
420.804	0.1
421.008	0.07
421.212	0.1
421.416	0.09
421.62	0.06
421.823	0.07
422.027	0.19
422.231	0.08
422.435	0.06
422.638	0.09
422.842	0.11
423.046	0.06
423.249	0.13
423.453	0.12
423.657	0.06
423.86	0.07
424.064	0.07
424.268	0.15
424.471	0.07
424.675	0.17
424.878	0.12
425.082	0.08
425.285	0.11
425.489	0.04
425.692	0.09
425.896	0.02
426.099	0.1
426.303	0.04
426.506	0.02
426.71	0.08
426.913	0.08
427.116	0.12
427.32	0.09
427.523	0.11
427.726	0.18
427.93	0.05
428.133	0.1
428.336	0.05
428.54	0.02
428.743	0.09
428.946	0.12
429.149	0.11
429.353	0.1
429.556	0.1
429.759	0.11
429.962	0.09
430.165	0.08
430.368	0.07
430.571	0.08
430.775	0.1
430.978	0.04
431.181	0.09
431.384	0.1
431.587	0.08
431.79	0.1
431.993	0.11
432.196	0.05
432.399	0.07
432.602	0.1
432.805	0.05
433.008	0.09
433.211	0.04
433.414	0.1
433.616	0.09
433.819	0.07
434.022	-0.01
434.225	0.12
434.428	0.13
434.631	0.19
434.833	0.06
435.036	0.09
435.239	0.14
435.442	0.12
435.645	0.04
435.847	0.12
436.05	0.14
436.253	0.08
436.455	0.06
436.658	0.06
436.861	0.16
437.063	0.02
437.266	0.11
437.468	0.12
437.671	0.19
437.874	0.1
438.076	0.08
438.279	0
438.481	0.09
438.684	0.06
438.886	0.09
439.089	0.03
439.291	0.09
439.494	0.09
439.696	0.07
439.899	0.12
440.101	0.13
440.303	0.02
440.506	0.13
440.708	0.11
440.91	0.11
441.113	0.06
441.315	0.13
441.517	0.08
441.72	0.14
441.922	0.11
442.124	0.09
442.326	0.12
442.529	0.16
442.731	0.09
442.933	0.19
443.135	0.08
443.337	0.07
443.539	0.06
443.742	0.06
443.944	0.11
444.146	0.12
444.348	0.13
444.55	0.06
444.752	0.05
444.954	0.06
445.156	0.08
445.358	0.08
445.56	0.15
445.762	0.09
445.964	0.13
446.166	0.07
446.368	0.07
446.57	0.15
446.772	0.06
446.974	0.12
447.175	0.14
447.377	0.1
447.579	0.15
447.781	0.04
447.983	0.18
448.184	0.13
448.386	0.13
448.588	0.06
448.79	0.12
448.991	0.09
449.193	0.09
449.395	0.15
449.597	0.12
449.798	0.17
450	0.13
450.202	0.06
450.403	0.07
450.605	0.12
450.806	0.11
451.008	0.04
451.21	0.09
451.411	0.1
451.613	0.09
451.814	0.1
452.016	0.13
452.217	0.1
452.419	0.1
452.62	0.09
452.821	0.12
453.023	0.17
453.224	0.13
453.426	0.08
453.627	0.14
453.828	0.11
454.03	0.05
454.231	0.16
454.432	0.08
454.634	0.19
454.835	0.04
455.036	0.03
455.238	0.12
455.439	0.17
455.64	0.08
455.841	0.06
456.042	0.12
456.244	0.09
456.445	0.02
456.646	-0
456.847	0.05
457.048	0.1
457.249	0.18
457.45	0.29
457.651	0.06
457.852	0.11
458.054	0.06
458.255	0.07
458.456	0.07
458.657	0.08
458.858	0.04
459.058	0.05
459.259	0.08
459.46	0.06
459.661	-0.01
459.862	0.15
460.063	0.07
460.264	0.13
460.465	0.04
460.666	0.17
460.866	0.04
461.067	0.07
461.268	0.05
461.469	0.05
461.67	0.09
461.87	0.02
462.071	0.03
462.272	0.03
462.473	0.04
462.673	0.05
462.874	0.02
463.075	0.06
463.275	0.02
463.476	0.1
463.676	0.06
463.877	0.07
464.078	0.05
464.278	0.15
464.479	0.05
464.679	0.11
464.88	0.07
465.08	0.12
465.281	0.05
465.481	0.03
465.682	0.07
465.882	0.07
466.083	0.01
466.283	0.04
466.483	0.05
466.684	0
466.884	0.02
467.085	0
467.285	0.05
467.485	0.01
467.686	0.05
467.886	-0.01
468.086	0.07
468.286	0.05
468.487	0.1
468.687	-0
468.887	0.04
469.087	0.04
469.287	0.05
469.488	-0.04
469.688	0.07
469.888	0.09
470.088	0.05
470.288	0.1
470.488	0.1
470.688	0.01
470.888	0.01
471.088	0.02
471.288	0.1
471.488	0.03
471.688	0.07
471.888	0.04
472.088	0.09
472.288	0.05
472.488	0
472.688	0.02
472.888	0.04
473.088	0.01
473.288	0.03
473.488	0.06
473.688	0.13
473.887	0.04
474.087	0.01
474.287	0.09
474.487	0.01
474.687	0.08
474.886	0
475.086	0.06
475.286	0.02
475.486	0.02
475.685	0.03
475.885	0.03
476.085	0.04
476.284	0.05
476.484	0.02
476.684	0.07
476.883	0.06
477.083	0.05
477.282	0
477.482	0.08
477.681	0.09
477.881	0.08
478.08	-0.01
478.28	0.01
478.479	0.03
478.679	0.08
478.878	0.01
479.078	0.02
479.277	0.02
479.477	0.02
479.676	0.06
479.875	0.05
480.075	-0.03
480.274	0.03
480.473	0.03
480.673	-0.01
480.872	0.09
481.071	0.01
481.271	0.05
481.47	0.04
481.669	0.03
481.868	-0.02
482.067	0
482.267	-0.01
482.466	-0
482.665	-0.01
482.864	-0.01
483.063	-0.01
483.262	0.01
483.461	0.06
483.661	0.05
483.86	0.04
484.059	0.03
484.258	0.02
484.457	0.02
484.656	-0
484.855	0.06
485.054	-0.01
485.253	-0.01
485.452	-0.01
485.651	0.03
485.849	0.04
486.048	0
486.247	-0.01
486.446	0.03
486.645	-0
486.844	-0.01
487.043	-0
487.241	0.03
487.44	0.01
487.639	0.01
487.838	0.03
488.037	0.01
488.235	0.05
488.434	0.02
488.633	-0
488.831	0.03
489.03	0.07
489.229	0.02
489.427	0
489.626	0.08
489.825	0.04
490.023	0
490.222	0.02
490.42	0.04
490.619	0.04
490.817	0.02
491.016	-0.01
491.214	0.06
491.413	0.02
491.611	0.03
491.81	-0
492.008	0.03
492.207	0
492.405	0.03
492.604	-0
492.802	-0.01
493	0.02
493.199	0.02
493.397	0.03
493.595	0.01
493.794	-0.01
493.992	0.06
494.19	0.01
494.388	0.05
494.587	0.02
494.785	0.04
494.983	0
495.181	0.02
495.379	0.03
495.578	-0
495.776	0.03
495.974	0.04
496.172	0.01
496.37	0.01
496.568	0
496.766	-0
496.964	0.01
497.162	0.02
497.36	-0.01
497.558	0.02
497.756	0.03
497.954	0.02
498.152	-0.02
498.35	-0
498.548	-0.02
498.746	0.01
498.944	-0.01
499.142	0.03
499.34	-0
499.538	0.02
499.736	-0.01
499.933	0.06
500.131	0.04
500.329	0.01
500.527	0.04
500.725	0.03
500.922	0.02
501.12	0.02
501.318	0.02
501.516	-0.01
501.713	0.02
501.911	0.01
502.109	-0.02
502.306	0.02
502.504	0.01
502.701	0.01
502.899	0.02
503.097	0.04
503.294	0.03
503.492	0.01
503.689	0.03
503.887	0.02
504.084	0.04
504.282	0.02
504.479	-0.01
504.677	0.03
504.874	-0.03
505.072	0.03
505.269	0.01
505.466	0.03
505.664	0.01
505.861	-0.02
506.059	-0.01
506.256	0.02
506.453	0.01
506.651	0.04
506.848	0.04
507.045	0.02
507.242	-0
507.44	0.01
507.637	0.03
507.834	0
508.031	0.02
508.229	-0
508.426	0.02
508.623	0.02
508.82	0.02
509.017	-0.03
509.214	-0
509.411	0.02
509.608	-0.03
509.805	-0
510.003	-0
510.2	0.02
510.397	0.04
510.594	-0
510.791	-0.01
510.988	0.03
511.184	0.04
511.381	0.01
511.578	-0.01
511.775	0.02
511.972	0.01
512.169	-0.02
512.366	-0.01
512.563	0.03
512.76	0.01
512.956	0.04
513.153	-0.01
513.35	0.01
513.547	0.01
513.744	-0.02
513.94	-0.01
514.137	0.01
514.334	0.03
514.53	0
514.727	0.01
514.924	0.04
515.12	-0
515.317	-0.01
515.514	-0.03
515.71	0
515.907	0.02
516.103	0.02
516.3	0.02
516.497	0.02
516.693	0.02
516.89	0.02
517.086	0
517.283	0.05
517.479	0.03
517.676	-0.01
517.872	0.01
518.068	-0
518.265	-0.01
518.461	-0.01
518.658	0
518.854	0.04
519.05	-0.01
519.247	0.02
519.443	0.02
519.639	0.03
519.836	-0.03
520.032	0
520.228	0.04
520.424	0.04
520.621	0.03
520.817	0.03
521.013	0.04
521.209	0.02
521.405	0.06
521.601	0.01
521.798	0.02
521.994	0.05
522.19	0
522.386	-0.01
522.582	0.02
522.778	0.02
522.974	-0
523.17	-0.01
523.366	0.03
523.562	0.03
523.758	0.03
523.954	-0.01
524.15	0.01
524.346	0.01
524.542	-0.01
524.738	-0.02
524.934	0.01
525.129	-0.01
525.325	0.03
525.521	0.02
525.717	0.02
525.913	0.01
526.109	-0.01
526.304	0.01
526.5	0.01
526.696	0.04
526.892	0
527.087	0.01
527.283	-0.02
527.479	0.03
527.674	0
527.87	0
528.066	0.01
528.261	0.02
528.457	0.02
528.653	0.01
528.848	0.01
529.044	0.03
529.239	0
529.435	0.04
529.63	0.03
529.826	0.02
530.021	0.01
530.217	0.04
530.412	0.02
530.608	0.01
530.803	0.02
530.999	0.01
531.194	-0.02
531.389	0.02
531.585	-0.05
531.78	-0
531.975	0
532.171	0.04
532.366	0.01
532.561	0.01
532.757	0
532.952	0.01
533.147	0.03
533.342	0.03
533.538	-0
533.733	0.03
533.928	0.01
534.123	0.01
534.318	-0
534.513	-0
534.709	0.01
534.904	0
535.099	-0
535.294	0.02
535.489	0.02
535.684	0.01
535.879	-0.01
536.074	0.01
536.269	0.01
536.464	0.04
536.659	0.02
536.854	0.01
537.049	0.02
537.244	0
537.439	0.01
537.634	0.03
537.828	0.02
538.023	-0.01
538.218	-0.02
538.413	0.03
538.608	-0.01
538.803	0.03
538.997	-0.02
539.192	0.03
539.387	0.02
539.582	0.01
539.776	0.02
539.971	0
540.166	0
540.36	0
540.555	0.02
540.75	0
540.944	0.03
541.139	-0
541.334	-0.01
541.528	0.01
541.723	0.02
541.917	0.03
542.112	-0.02
542.306	-0
542.501	0.02
542.695	0.01
542.89	-0.02
543.084	0.03
543.279	-0
543.473	-0.01
543.668	0.01
543.862	-0
544.056	0.03
544.251	-0
544.445	0.02
544.64	-0
544.834	-0
545.028	0.03
545.222	0.02
545.417	0.04
545.611	-0.01
545.805	0.01
546	0
546.194	-0
546.388	-0.01
546.582	0.05
546.776	0
546.97	0.01
547.165	0.04
547.359	0.04
547.553	-0.03
547.747	0.01
547.941	0.02
548.135	0.01
548.329	0.04
548.523	0.03
548.717	0.01
548.911	-0.01
549.105	0.01
549.299	0.03
549.493	0.04
549.687	0.03
549.881	0.02
550.075	-0.01
550.269	-0.03
550.463	0.04
550.657	0
550.85	-0.01
551.044	-0.01
551.238	0.03
551.432	-0
551.626	-0
551.82	0.04
552.013	-0
552.207	-0
552.401	0.01
552.594	-0
552.788	-0
552.982	0.02
553.176	-0
553.369	0.03
553.563	-0
553.756	-0
553.95	-0.01
554.144	0
554.337	0.03
554.531	0.02
554.724	0.02
554.918	-0
555.111	0.02
555.305	-0.01
555.498	0.05
555.692	0.03
555.885	-0
556.079	-0.01
556.272	-0.02
556.466	0.03
556.659	0.02
556.852	0.02
557.046	0.01
557.239	0.04
557.432	-0.01
557.626	-0.02
557.819	0.01
558.012	0.03
558.206	0.04
558.399	0.02
558.592	0.05
558.785	-0.01
558.979	0.06
559.172	0.02
559.365	0.03
559.558	0.01
559.751	0.02
559.944	0.01
560.138	-0.01
560.331	0.01
560.524	-0.02
560.717	0.03
560.91	0.01
561.103	0.05
561.296	0.01
561.489	0.03
561.682	0.02
561.875	0.03
562.068	0.01
562.261	0.02
562.454	0.05
562.647	0.02
562.84	0.03
563.032	-0
563.225	0.03
563.418	-0
563.611	-0.01
563.804	0
563.997	-0.01
564.19	-0.01
564.382	0.01
564.575	-0.02
564.768	0.03
564.961	0.01
565.153	-0.01
565.346	0.04
565.539	0.03
565.731	0.04
565.924	0.02
566.117	0.03
566.309	0.01
566.502	-0.02
566.695	0.02
566.887	0
567.08	-0.02
567.272	-0.01
567.465	-0.02
567.657	0.02
567.85	0.04
568.042	-0
568.235	0.04
568.427	0.02
568.62	-0.01
568.812	0.02
569.005	0.02
569.197	-0.01
569.389	0.02
569.582	0.05
569.774	0.02
569.966	-0.02
570.159	-0.02
570.351	0.02
570.543	-0.01
570.736	0.01
570.928	-0.03
571.12	0
571.312	0.01
571.505	-0.02
571.697	0.04
571.889	-0.02
572.081	-0.01
572.273	-0.01
572.465	0.06
572.658	0.01
572.85	0.01
573.042	0.01
573.234	-0.01
573.426	0.04
573.618	0.01
573.81	0.01
574.002	0.02
574.194	0.04
574.386	-0.03
574.578	-0.04
574.77	0
574.962	0.03
575.154	-0.03
575.346	0.03
575.538	-0.01
575.729	-0.01
575.921	-0
576.113	0.01
576.305	0.03
576.497	-0.01
576.689	-0
576.88	-0
577.072	0.03
577.264	-0
577.456	-0.01
577.647	-0.05
577.839	-0.01
578.031	0.04
578.223	-0.03
578.414	-0.02
578.606	0.03
578.798	0.02
578.989	-0.01
579.181	0.02
579.372	-0.01
579.564	-0
579.755	0.03
579.947	0.02
580.139	0.02
580.33	-0.03
580.522	0.01
580.713	-0.05
580.905	0.01
581.096	0.02
581.287	-0.01
581.479	0.01
581.67	0
581.862	0.03
582.053	-0.02
582.244	-0.02
582.436	0.01
582.627	-0.02
582.818	-0.01
583.01	-0.02
583.201	0.02
583.392	0.03
583.583	0.01
583.775	-0
583.966	-0
584.157	0.01
584.348	0
584.54	-0.04
584.731	0.05
584.922	-0.02
585.113	-0.01
585.304	0.03
585.495	0.03
585.686	0.01
585.877	0.04
586.068	0.02
586.259	0.02
586.45	-0.01
586.641	-0.02
586.832	-0.05
587.023	0.02
587.214	0
587.405	0.02
587.596	-0.02
587.787	0.04
587.978	0.01
588.169	-0.01
588.36	-0.01
588.551	0.01
588.742	-0.02
588.932	-0
589.123	0.03
589.314	0.06
589.505	0.03
589.696	0.02
589.886	-0.01
590.077	-0.02
590.268	-0.01
590.458	-0.02
590.649	-0.03
590.84	0.04
591.03	-0.01
591.221	-0.03
591.412	-0.03
591.602	0.01
591.793	0.03
591.984	-0.01
592.174	0.01
592.365	0.05
592.555	-0
592.746	0.02
592.936	0.02
593.127	0.02
593.317	0.04
593.508	-0.02
593.698	-0.01
593.889	0.02
594.079	0.03
594.269	-0
594.46	0
594.65	0
594.84	-0.01
595.031	-0.02
595.221	0.01
595.411	-0.03
595.602	0.02
595.792	-0.02
595.982	0.01
596.172	0.03
596.363	0.03
596.553	0
596.743	0
596.933	0
597.123	0.03
597.314	-0.02
597.504	-0.01
597.694	0.03
597.884	0
598.074	-0.01
598.264	-0.02
598.454	0.02
598.644	0.03
598.834	-0.01
599.024	-0.05
599.214	-0
599.404	0.05
599.594	-0
599.784	-0.02
599.974	0.06
600.164	0.02
600.354	-0.03
600.544	-0.02
600.734	0.02
600.924	0.04
601.114	0
601.303	0.01
601.493	0
601.683	-0
601.873	-0
602.063	-0.02
602.252	0.05
602.442	-0.04
602.632	-0.03
602.821	-0.01
603.011	0.04
603.201	-0
603.39	-0.02
603.58	0
603.77	0.02
603.959	0.04
604.149	0.01
604.339	0
604.528	0.05
604.718	0.02
604.907	-0.02
605.097	-0.04
605.286	-0.05
605.476	0.04
605.665	0.03
605.855	0.04
606.044	0.04
606.234	0
606.423	0
606.612	-0.02
606.802	0.02
606.991	0.04
607.181	-0
607.37	-0.02
607.559	0.01
607.749	-0.01
607.938	0.01
608.127	0.03
608.316	-0.01
608.506	0.02
608.695	0.01
608.884	-0.03
609.073	-0.01
609.263	0.02
609.452	0.05
609.641	0.03
609.83	-0.01
610.019	-0
610.208	-0.02
610.397	0.02
610.586	0.02
610.775	-0.02
610.965	-0
611.154	0
611.343	0.01
611.532	-0.02
611.721	-0.02
611.91	0
612.099	0.02
612.287	-0.01
612.476	-0.05
612.665	0.02
612.854	-0.02
613.043	0.04
613.232	-0.01
613.421	-0.02
613.61	-0
613.798	-0.02
613.987	0.04
614.176	0.01
614.365	0.02
614.554	0
614.742	0.02
614.931	-0.03
615.12	0.05
615.309	-0.01
615.497	0.05
615.686	0
615.875	0.01
616.063	0.01
616.252	-0.01
616.44	-0
616.629	-0
616.818	0.04
617.006	0.02
617.195	0.01
617.383	0.03
617.572	0.03
617.76	-0.01
617.949	0.01
618.137	0.04
618.326	0.03
618.514	0.01
618.703	-0.01
618.891	0.06
619.079	-0.05
619.268	0.01
619.456	-0.02
619.644	0.06
619.833	0
620.021	-0.02
620.209	-0.02
620.398	0.02
620.586	0.02
620.774	0.03
620.962	0.04
621.151	0.02
621.339	0.02
621.527	-0.03
621.715	-0.01
621.903	-0.02
622.092	-0.03
622.28	-0.01
622.468	0
622.656	0
622.844	0.03
623.032	-0.01
623.22	-0.03
623.408	0.04
623.596	0
623.784	0.02
623.972	-0.01
624.16	0
624.348	0.06
624.536	0.01
624.724	-0.02
624.912	0.06
625.1	0.03
625.288	-0.01
625.476	-0.02
625.664	0.06
625.851	-0.01
626.039	-0.02
626.227	0.03
626.415	0.05
626.603	-0.04
626.79	0.02
626.978	0
627.166	0
627.354	-0.01
627.541	-0.02
627.729	-0.04
627.917	0.06
628.104	0.07
628.292	0.02
628.48	0.02
628.667	-0.01
628.855	0.01
629.042	0.05
629.23	-0.03
629.418	-0.04
629.605	0.01
629.793	-0.03
629.98	0.02
630.168	0.01
630.355	0.02
630.543	0.03
630.73	-0.01
630.917	0.04
631.105	0.05
631.292	-0.03
631.48	0.02
631.667	0.07
631.854	0
632.042	0.04
632.229	-0.05
632.416	0.02
632.604	0.02
632.791	-0.01
632.978	0.02
633.165	-0.01
633.353	0.06
633.54	0.04
633.727	-0.03
633.914	-0.01
634.101	-0.06
634.289	0.05
634.476	-0.02
634.663	-0.03
634.85	0.03
635.037	-0.01
635.224	-0.01
635.411	0.04
635.598	0.02
635.785	0.04
635.972	0.01
636.159	0.08
636.346	-0.01
636.533	0.02
636.72	0.03
636.907	-0.01
637.094	0.02
637.281	0.02
637.468	0.05
637.655	0.06
637.842	0.04
638.029	-0.01
638.215	0.01
638.402	0.05
638.589	0.03
638.776	0.03
638.963	-0
639.149	0.07
639.336	0.06
639.523	0.03
639.709	0.04
639.896	0.01
640.083	0.1
640.27	0.05
640.456	-0
640.643	0.04
640.829	0.02
641.016	0.06
641.203	-0
641.389	0.05
641.576	0.07
641.762	0.05
641.949	0.02
642.135	0.03
642.322	0.06
642.508	-0.01
642.695	0.04
642.881	0.02
643.068	0.06
643.254	0.03
643.441	0.06
643.627	0.05
643.813	0.01
644	0.04
644.186	0.03
644.372	0.06
644.559	0.08
644.745	0.08
644.931	0.02
645.118	0.04
645.304	0.05
645.49	0.06
645.676	0.05
645.862	0.05
646.049	0.08
646.235	0.05
646.421	0.1
646.607	0.13
646.793	0.03
646.979	0.06
647.165	0.06
647.352	0.05
647.538	0.09
647.724	0.06
647.91	0.07
648.096	0.07
648.282	0.12
648.468	0.03
648.654	0.05
648.84	0.08
649.026	0.05
649.212	0.08
649.397	0.04
649.583	0.04
649.769	0.09
649.955	0.06
650.141	0.11
650.327	0.11
650.513	0.05
650.698	0.1
650.884	0.02
651.07	0.09
651.256	0.1
651.442	0.06
651.627	0.05
651.813	0.09
651.999	0.1
652.184	0.08
652.37	0.1
652.556	0.07
652.741	0.16
652.927	0.03
653.113	0.1
653.298	0.1
653.484	0.09
653.669	0.05
653.855	0.1
654.04	0.1
654.226	0.09
654.412	0.08
654.597	0.04
654.782	0.09
654.968	0.13
655.153	0.13
655.339	0.09
655.524	0.06
655.71	0.12
655.895	0.13
656.08	0.12
656.266	0.12
656.451	0.15
656.636	0.11
656.822	0.14
657.007	0.06
657.192	0.11
657.378	0.09
657.563	0.12
657.748	0.13
657.933	0.13
658.118	0.09
658.304	0.1
658.489	0.14
658.674	0.12
658.859	0.05
659.044	0.11
659.229	0.11
659.414	0.11
659.599	0.11
659.785	0.05
659.97	0.11
660.155	0.16
660.34	0.15
660.525	0.12
660.71	0.1
660.895	0.14
661.08	0.07
661.264	0.07
661.449	0.15
661.634	0.12
661.819	0.14
662.004	0.12
662.189	0.05
662.374	0.08
662.559	0.03
662.743	0.04
662.928	0.09
663.113	0.05
663.298	0.04
663.483	0.05
663.667	0.06
663.852	0.04
664.037	0.11
664.221	0.05
664.406	0.09
664.591	0.07
664.775	0.05
664.96	0.07
665.145	0.07
665.329	0.08
665.514	0.02
665.698	0.05
665.883	-0.05
666.068	0.1
666.252	0.02
666.437	0
666.621	0.02
666.806	0.04
666.99	0.02
667.174	-0.02
667.359	0.1
667.543	0.06
667.728	0.03
667.912	-0.04
668.096	0.04
668.281	0.01
668.465	-0
668.649	0.03
668.834	0
669.018	-0.01
669.202	0.04
669.387	0.01
669.571	0.06
669.755	0.01
669.939	0.01
670.124	-0.02
670.308	0.09
670.492	0.03
670.676	0.03
670.86	-0
671.044	-0.05
671.228	0.02
671.413	-0.05
671.597	-0
671.781	0.03
671.965	0.03
672.149	-0.02
672.333	-0.01
672.517	-0.02
672.701	0.04
672.885	0.01
673.069	-0.06
673.253	0.07
673.437	-0.02
673.621	-0.05
673.804	0.01
673.988	-0.02
674.172	0.03
674.356	-0.02
674.54	-0.03
674.724	0.12
674.908	-0.01
675.091	0.04
675.275	-0.01
675.459	0.01
675.643	0.09
675.826	0.01
676.01	-0.01
676.194	0.02
676.377	0.04
676.561	0.04
676.745	0.05
676.928	0.02
677.112	0.07
677.296	-0.04
677.479	-0.03
677.663	-0.01
677.846	0.02
678.03	-0.01
678.213	-0.01
678.397	0.04
678.58	-0
678.764	0
678.947	-0.04
679.131	0.02
679.314	0.02
679.498	0.01
679.681	0
679.865	0.02
680.048	0.01
680.231	0
680.415	0.02
680.598	-0.03
680.781	-0.02
680.965	-0.03
681.148	0.03
681.331	-0.04
681.514	0.04
681.698	-0.01
681.881	-0.01
682.064	-0.01
682.247	0.04
682.43	-0.07
682.614	0.02
682.797	0.06
682.98	-0.01
683.163	-0.02
683.346	0.02
683.529	-0.03
683.712	-0.02
683.895	0.04
684.078	-0.06
684.261	-0.03
684.444	0.02
684.627	-0.01
684.81	0.01
684.993	-0.05
685.176	0.03
685.359	-0.03
685.542	-0.02
685.725	0.12
685.908	-0.04
686.091	-0.02
686.274	0.05
686.457	0.03
686.639	0.01
686.822	0.06
687.005	-0.02
687.188	0.06
687.371	0.07
687.553	-0.02
687.736	0.02
687.919	0.11
688.102	0.04
688.284	0.01
688.467	0.05
688.65	-0.01
688.832	0.03
689.015	0.01
689.197	-0.04
689.38	0.08
689.563	0.07
689.745	-0.01
689.928	0.01
690.11	-0.01
690.293	0.05
690.475	-0.05
690.658	0.04
690.84	0.02
691.023	-0.01
691.205	-0.04
691.388	0.08
691.57	0.01
691.752	0.05
691.935	-0.05
692.117	-0.04
692.3	0.02
692.482	-0.02
692.664	0.02
692.847	0.04
693.029	0.04
693.211	0.02
693.393	-0.02
693.576	0.01
693.758	-0.01
693.94	-0.06
694.122	-0.05
694.304	-0.01
694.487	0.04
694.669	0.06
694.851	-0.02
695.033	0.05
695.215	-0.01
695.397	-0.03
695.579	0.09
695.761	-0.07
695.943	-0.04
696.125	0.08
696.308	0.06
696.49	-0.07
696.671	0.14
696.853	0.01
697.035	0.08
697.217	0.02
697.399	0.01
697.581	-0.06
697.763	-0.01
697.945	-0.05
698.127	0.01
698.309	0.06
698.491	0.03
698.672	0.1
698.854	0.05
699.036	0.08
699.218	-0.01
699.399	0.03
699.581	0.08
699.763	0.01
699.945	-0
700.126	-0.07
700.308	0.01
700.49	0.02
700.671	-0.03
700.853	-0.04
701.035	-0.03
701.216	0.03
701.398	-0.05
701.579	-0.01
701.761	0.04
701.943	-0.06
702.124	0.01
702.306	0
702.487	0.13
702.669	0.06
702.85	-0.05
703.031	-0.04
703.213	0.11
703.394	0.12
703.576	0.01
703.757	0.04
703.938	-0.01
704.12	0.11
704.301	0.01
704.483	0.04
704.664	-0.01
704.845	0.09
705.026	0.01
705.208	-0.03
705.389	0
705.57	0.02
705.751	0.03
705.933	0.03
706.114	0.09
706.295	-0.01
706.476	-0.06
706.657	0.06
706.838	0.08
707.02	0.08
707.201	-0.02
707.382	-0.04
707.563	0.03
707.744	-0.04
707.925	-0.05
708.106	-0.02
708.287	0.08
708.468	0.16
708.649	0
708.83	0.08
709.011	-0.02
709.192	0.06
709.373	-0.02
709.554	0.01
709.734	0.03
709.915	0.05
710.096	0.03
710.277	-0.08
710.458	0.03
710.639	0.05
710.819	-0.1
711	0.04
711.181	0.06
711.362	0.07
711.542	0.06
711.723	0.01
711.904	0.04
712.085	0.04
712.265	0.06
712.446	-0.03
712.627	-0.05
712.807	0.02
712.988	0.05
713.168	-0.06
713.349	0.09
713.53	-0.09
713.71	-0.04
713.891	-0.04
714.071	0.03
714.252	0.05
714.432	-0.06
714.613	-0.04
714.793	0.03
714.974	0.11
715.154	0.03
715.334	0.05
715.515	0.06
715.695	0.03
715.876	0.02
716.056	0.01
716.236	-0.04
716.417	0.01
716.597	-0.07
716.777	0.14
716.957	0.03
717.138	0.08
717.318	0.1
717.498	0.02
717.678	0.04
717.859	0.03
718.039	-0
718.219	0.06
718.399	0.07
718.579	-0.03
718.759	-0.03
718.939	0.08
719.12	0.04
719.3	0.08
719.48	-0.08
719.66	-0.07
719.84	0.16
720.02	0.07
720.2	-0.05
720.38	0.08
720.56	0.17
720.74	0
720.92	0.06
721.1	0.07
721.279	0.09
721.459	0.03
721.639	-0.01
721.819	0.08
721.999	0.01
722.179	0.11
722.359	-0.02
722.538	0.02
722.718	0.02
722.898	0
723.078	0.01
723.257	0.01
723.437	0.12
723.617	0.09
723.797	0.04
723.976	0.03
724.156	0.05
724.336	0.16
724.515	0.15
724.695	-0.02
724.874	0.06
725.054	0.14
725.234	-0.01
725.413	0.11
725.593	0.13
725.772	0.07
725.952	0.05
726.131	0.06
726.311	0.04
726.49	0.05
726.67	-0.02
726.849	0.01
727.028	0.09
727.208	-0.04
727.387	0.08
727.567	-0.01
727.746	0.03
727.925	0.06
728.105	0.03
728.284	-0.02
728.463	0.02
728.643	0.1
728.822	0.06
729.001	0.09
729.18	0.01
729.359	0.07
729.539	0.05
729.718	0.13
729.897	0.15
730.076	0.09
730.255	0.1
730.434	0.14
730.614	0.18
730.793	0.14
730.972	0.1
731.151	0.05
731.33	0.26
731.509	0.17
731.688	0.04
731.867	0.09
732.046	-0.02
732.225	0.2
732.404	0.05
732.583	-0.04
732.762	0.08
732.941	0.13
733.12	0.19
733.298	0.08
733.477	0.18
733.656	0.05
733.835	0.03
734.014	0.17
734.193	0.04
734.371	0.23
734.55	0.12
734.729	0.05
734.908	0.19
735.086	0.1
735.265	0.16
735.444	0.02
735.623	0.07
735.801	0.03
735.98	0.08
736.159	0.14
736.337	0.23
736.516	0.23
736.694	0.12
736.873	0.08
737.052	0.27
737.23	0.31
737.409	0.09
737.587	0.29
737.766	0
737.944	0.13
738.123	0.17
738.301	0.17
738.479	0.07
738.658	0.14
738.836	-0.13
739.015	0.19
739.193	0.22
739.371	-0.1
739.55	0.05
739.728	0.04
739.906	0.05
740.085	0.2
740.263	0.14
740.441	-0.01
740.62	0.26
740.798	0.2
740.976	0.01
741.154	-0.02
741.332	0.2
741.511	0.1
741.689	0.12
741.867	0.16
742.045	-0.03
742.223	0.09
742.401	-0.07
742.579	-0.08
742.757	0.07
742.935	0.01
743.114	0.04
743.292	-0.06
743.47	0.07
743.648	0.04
743.826	0.09
744.004	0.18
744.181	0.09
744.359	-0.05
744.537	0.13
744.715	-0.01
744.893	-0
745.071	-0.02
745.249	-0.01
745.427	0.07
745.605	0.07
745.782	0
745.96	0.15
746.138	0.16
746.316	0.09
746.493	-0.02
746.671	0.11
746.849	0
747.027	0.15
747.204	0.05
747.382	0.14
747.56	-0.07
747.737	-0.07
747.915	-0.06
748.093	0.08
748.27	-0.02
748.448	-0.02
748.625	0.02
748.803	-0.01
748.98	-0.02
749.158	0.03
749.335	0.13
749.513	0.08
749.69	-0.05
749.868	-0.04
750.045	0.1
750.223	-0.08
750.4	-0.12
750.578	0.19
750.755	-0.07
750.932	-0.08
751.11	0.02
751.287	-0.13
751.464	0.04
751.642	-0
751.819	0
751.996	0.07
752.173	0.02
752.351	-0.07
752.528	0.12
752.705	-0.05
752.882	-0.03
753.06	0.04
753.237	0.09
753.414	0.09
753.591	0.2
753.768	0.07
753.945	-0.04
754.122	-0.14
754.299	0.06
754.476	-0.14
754.654	0.03
754.831	0.06
755.008	0.08
755.185	0.04
755.362	-0.1
755.539	0.05
755.716	-0.08
755.892	0.05
756.069	-0.05
756.246	0.01
756.423	-0
756.6	0.15
756.777	-0.09
756.954	0.08
757.131	-0.03
757.307	-0.03
757.484	-0.13
757.661	-0.06
757.838	0.09
758.015	-0.05
758.191	0.04
758.368	-0.01
758.545	0.27
758.721	0.07
758.898	-0.09
759.075	0.06
759.251	0.06
759.428	0.1
759.605	-0.07
759.781	-0.01
759.958	0.13
760.134	0.01
760.311	-0.07
760.488	0.17
760.664	-0.02
760.841	0.02
761.017	-0.14
761.194	0.09
761.37	0.13
761.547	0.02
761.723	0.04
761.899	0.13
762.076	-0.06
762.252	-0.17
762.429	0.03
762.605	0.09
762.781	0.01
762.958	0.05
763.134	-0.09
763.31	-0.06
763.486	0.08
763.663	-0.16
763.839	-0.04
764.015	-0.13
764.191	-0.18
764.368	-0.12
764.544	-0.05
764.72	0.07
764.896	0.17
765.072	0.06
765.248	-0.14
765.425	0.07
765.601	0.1
765.777	-0.08
765.953	-0.19
766.129	0.02
766.305	-0.17
766.481	-0
766.657	0
766.833	0.2
767.009	-0.16
767.185	-0.06
767.361	0.03
767.537	-0.11
767.713	0.06
767.889	-0.02
768.065	0.11
768.24	-0.22
768.416	0.16
768.592	-0.03
768.768	-0.01
768.944	0.12
769.12	-0.17
769.295	-0.08
769.471	0.15
769.647	-0.03
769.823	0.19
769.998	-0.15
770.174	-0.08
770.35	0.35
770.525	0.24
770.701	0.09
770.877	0.21
771.052	-0.16
771.228	0.08
771.403	-0.02
771.579	0.07
771.755	0.36
771.93	0.15
772.106	-0.18
772.281	-0.07
772.457	0.03
772.632	0.11
772.808	-0.14
772.983	-0.06
773.159	-0.11
773.334	0.23
773.509	-0.01
773.685	-0.12
773.86	0.25
774.036	0.28
774.211	-0.03
774.386	0.01
774.562	-0.12
774.737	-0
774.912	-0.2
775.087	0.17
775.263	0.05
775.438	0.07
775.613	-0.14
775.788	-0.03
775.964	0.1
776.139	0.34
776.314	-0.17
776.489	0.1
776.664	-0.02
776.839	-0.13
777.014	0.1
777.19	0.19
777.365	0.13
777.54	0.25
777.715	-0.02
777.89	0.08
778.065	-0.11
778.24	0.04
778.415	0.2
778.59	-0.1
778.765	-0.12
778.94	0.05
779.115	-0.15
779.289	-0.06
779.464	0.16
779.639	-0.01
779.814	-0.25
779.989	0.03
780.164	0.05
780.339	0.05
780.513	-0
780.688	-0.17
780.863	-0.01
781.038	0.07
781.212	-0.02
781.387	0.02
781.562	0.41
781.737	0.21
781.911	0.21
782.086	-0.08
782.261	0.1
782.435	0.38
782.61	-0.04
782.784	-0.02
782.959	0.16
783.134	0.08
783.308	-0.32
783.483	0.02
783.657	0.2
783.832	0.25
784.006	-0.23
784.181	-0.13
784.355	0.25
784.53	-0.09
784.704	-0.27
784.878	0.19
785.053	0.1
785.227	0.29
785.402	0.43
785.576	-0.2
785.75	-0.02
785.925	-0.07
786.099	0.19
786.273	0.15
786.448	0.3
786.622	0.2
786.796	-0.1
786.97	-0.23
787.145	0.47
787.319	-0.21
787.493	-0.02
787.667	-0.29
787.841	0.02
788.015	0.11
788.19	0.15
788.364	0.09
788.538	0.18
788.712	0.17
788.886	0.14
789.06	0.21
789.234	0.16
789.408	-0.26
789.582	-0.12
789.756	0
789.93	-0.18
790.104	0.06
790.278	0.04
790.452	-0.24
790.626	0.13
790.8	0.2
790.973	-0.03
791.147	0.13
791.321	0.28
791.495	0.25
791.669	0.1
791.843	0.03
792.016	0.08
792.19	0.45
792.364	-0.2
792.538	0.39
792.711	0.13
792.885	-0.09
793.059	-0.2
793.233	-0.41
793.406	0.39
793.58	0.05
793.754	0.05
793.927	0.02
794.101	0.21
794.274	0.23
794.448	0.36
794.622	0.01
794.795	0.19
794.969	0.15
795.142	0.33
795.316	-0.01
795.489	-0.2
795.663	0.42
795.836	0.01
796.009	-0.19
796.183	0.35
796.356	0.23
796.53	0.04
796.703	-0.09
796.876	0.65
797.05	-0.12
797.223	-0.06
797.396	0.04
797.57	0.32
797.743	0.23
797.916	-0
798.09	0.08
798.263	0.24
798.436	0.41
798.609	0.14
798.782	-0.08
798.956	0.21
799.129	-0.04
799.302	-0.11
799.475	-0.05
799.648	-0.26
799.821	0.22
799.994	0.05
800.167	-0.18
800.34	0.08
800.514	0.19
800.687	-0.06
800.86	-0.02
801.033	0.07
801.206	-0.25
801.379	-0.22
801.551	0.36
801.724	0.14
801.897	0.68
802.07	-0.23
802.243	-0.22
802.416	0.08
802.589	-0.02
802.762	0.05
802.935	-0.11
803.107	-0.06
803.28	0.09
803.453	0.39
803.626	0.19
803.798	-0.16
803.971	0.04
804.144	0.06
804.317	0.24
804.489	0.12
804.662	0.02
804.835	0.08
805.007	-0.24
805.18	0.47
805.353	0.23
805.525	0
805.698	-0.2
805.87	0.31
806.043	0.21
806.215	-0.07
806.388	-0.07
806.56	0.43
806.733	0.13
806.905	0.51
807.078	-0.24
807.25	-0.07
807.423	0.11
807.595	0.29
807.768	-0.18
807.94	0.24
808.112	0.27
808.285	0.16
808.457	0.26
808.629	0.15
808.802	0.22
808.974	0.28
809.146	0.04
809.318	0.01
809.491	-0.3
809.663	0.54
809.835	-0.19
810.007	-0.07
810.18	-0.03
810.352	-0.27
810.524	0.15
810.696	0.29
810.868	0.77
811.04	0.23
811.212	0.03
811.384	0.2
811.556	0.32
811.728	0.18
811.901	0.84
812.073	0.09
812.245	0.28
812.417	0.07
812.589	-0.15
812.76	0.26
812.932	0.49
813.104	0.17
813.276	-0.07
813.448	0.55
813.62	-0.13
813.792	0.27
813.964	0.25
814.136	0.07
814.307	0.08
814.479	0.08
814.651	0.22
814.823	1.11
814.995	-0.04
815.166	-0.11
815.338	-0.06
815.51	-0.29
815.681	0.83
815.853	0.01
816.025	-0.05
816.196	0.31
816.368	0.03
816.54	-0.35
816.711	-0.16
816.883	0.2
817.054	0.85
817.226	-0.53
817.398	0.54
817.569	-0.34
817.741	-0.19
817.912	0.18
818.084	-0.55
818.255	-0.01
818.426	0.14
818.598	0.01
818.769	-0.22
818.941	0.21
819.112	0.47
819.283	0.25
819.455	-0.44
819.626	0.16
819.798	0.17
819.969	0.29
820.14	0.24
820.311	0.25
820.483	-0.11
820.654	-0.21
820.825	0.12
820.996	-0.17
821.168	-0.41
821.339	0.06
821.51	-0.43
821.681	-0.08
821.852	0.34
822.023	-0.02
822.195	-0.43
822.366	0.39
822.537	0.29
822.708	0.18
822.879	-0.36
823.05	0.72
823.221	0.03
823.392	-0.02
823.563	0.1
823.734	0.51
823.905	-0.2
824.076	-0.41
824.247	-0.61
824.418	-0.33
824.589	0.58
824.759	-0.18
824.93	-0.22
825.101	-0.15
825.272	0.61
825.443	0.94
825.614	0.89
825.784	-1.01
825.955	0.95
826.126	0.77
826.297	0.29
826.467	0.71
826.638	0.59
826.809	-0.46
826.98	0.01
827.15	0.34
827.321	-0.33
827.492	0.72
827.662	0.01
827.833	0.7
828.003	0.08
828.174	0.34
828.345	-0.81
828.515	0.13
828.686	0.51
828.856	-0.16
829.027	0.23
829.197	-0.09
829.368	0.58
829.538	-0.24
829.709	0.09
829.879	0.46
830.049	0.57
830.22	0.14
830.39	0.41
830.56	0.48
830.731	-0.07
830.901	-0.25
831.072	0.19
831.242	0.13
831.412	0.72
831.582	0.19
831.753	-0.91
831.923	0.46
832.093	0.31
832.263	-0.16
832.434	-0.13
832.604	-0.66
832.774	0.34
832.944	-0.15
833.114	0.05
833.284	0.17
833.454	0.13
833.624	-0.41
833.795	-0.14
833.965	0.64
834.135	0.64
834.305	-0.69
834.475	-0.28
834.645	0.34
834.815	-0.05
834.985	-0.08
835.155	0.41
835.325	0.61
835.494	0.8
835.664	-0.21
835.834	-0.97
836.004	0.21
836.174	0.27
836.344	-0.21
836.514	-0.61
836.684	0.08
836.853	0.48
837.023	0.17
837.193	-0.24
837.363	0.69
837.532	0.89
837.702	0.02
837.872	-0.4
838.041	0.66
838.211	1.1
838.381	-0.54
838.55	0.47
838.72	1.57
838.89	1.73
839.059	-0.02
839.229	-0.19
839.398	0.59
839.568	0.79
839.738	0.36
839.907	0.89
840.077	0.29
840.246	-0.37
840.416	-0.56
840.585	-0.21
840.755	1.03
840.924	-0.2
841.093	-0.72
841.263	-0.43
841.432	0.31
841.602	-0.51
841.771	-0.58
841.94	0.03
842.11	1.99
842.279	1.26
842.448	-0.6
842.617	-0.47
842.787	0.56
842.956	-0.9
843.125	0.63
843.294	-0.25
843.464	1.46
843.633	-0.03
843.802	-1.18
843.971	1.13
844.14	0.55
844.309	0.84
844.479	0.12
844.648	-0.09
844.817	0.51
844.986	-1.02
845.155	-0.13
845.324	-0.69
845.493	-0.43
845.662	-0.37
845.831	1.47
846	0.71
846.169	0.36
846.338	1.48
846.507	0.29
846.676	0.93
846.844	-0.37
847.013	0.56
847.182	0.78
847.351	-0.47
847.52	0.34
847.689	0.33
847.858	0.01
848.026	0.19
848.195	0.33
848.364	0.02
848.533	0.33
848.701	-0.4
848.87	-0.68
849.039	0.61
849.207	0.54
849.376	1.22
849.545	1.18
849.713	-0.45
849.882	0.13
850.051	0.22
850.219	0.24
850.388	0.67
850.556	-0.87
850.725	-0.01
850.893	0.03
851.062	1.57
851.23	0.77
851.399	-1.11
851.567	-1.45
851.736	-0.05
851.904	-0.2
852.073	0.2
852.241	0.53
852.41	0.36
852.578	-1.4
852.746	-0.72
852.915	0.56
853.083	0.18
853.251	-1.3
853.42	0.07
853.588	0.36
853.756	1.41
853.924	0.66
854.093	-0.18
854.261	0.36
854.429	-0.63
854.597	0.29
854.765	-0.99
854.934	0
855.102	1.5
855.27	-0.03
855.438	0.7
855.606	1.05
855.774	1.17
855.942	-1.02
856.11	-1.86
856.278	-0.27
856.446	0.73
856.614	0.47
856.782	0.38
856.95	1.29
857.118	0.57
857.286	-0.39
857.454	-1.03
857.622	0.61
857.79	0.57
857.958	0.02
858.126	-0.27
858.294	-1.94
858.462	0.04
858.629	0.55
858.797	-1.17
858.965	0.99
859.133	1.03
859.301	-0.52
859.468	1.06
859.636	0.23
859.804	0.4
859.971	1.63
860.139	-1.35
860.307	0.47
860.474	0.94
860.642	-0.32
860.81	-0.64
860.977	0.29
861.145	0
861.313	-0.38
861.48	-0.47
861.648	1.03
861.815	-0.01
861.983	-1.94
862.15	0.65
862.318	1.57
862.485	3.15
862.653	-0.52
862.82	-1.49
862.988	1.55
863.155	0.19
863.322	-0.6
863.49	-0.7
863.657	-0.4
863.824	0.05
863.992	0.61
864.159	1.43
864.326	2.11
864.494	-0.86
864.661	1.83
864.828	-1.01
864.996	-0.02
865.163	0.99
865.33	-0.44
865.497	-2.07
865.664	0.21
865.832	-1.88
865.999	0.36
866.166	-1.65
866.333	-1.13
866.5	-0.68
866.667	1.16
866.834	0.08
867.001	1.96
867.168	-1.38
867.335	1.27
867.502	-1.58
867.669	0.55
867.836	1.81
868.003	1.01
868.17	2.03
868.337	1.77
868.504	1.06
868.671	-1.93
868.838	-0.9
869.005	-1
869.172	1.28
869.339	0.05
869.505	-0.81
869.672	0.73
869.839	2.73
870.006	-0.1
870.173	-1.33
870.339	0.26
870.506	4.02
870.673	-0.47
870.84	1.98
871.006	0.12
871.173	0.05
871.34	1.59
871.506	-0.64
871.673	1.6
871.839	-2.09
872.006	0.41
872.173	0.71
872.339	0.58
872.506	2.75
872.672	0.24
872.839	-2.31
873.005	-0.38
873.172	2.11
873.338	2.12
873.505	-0.21
873.671	0.81
873.838	1.09
874.004	-0.06
874.171	0.38
874.337	1.2
874.503	0.8
874.67	0.14
874.836	-0.1
875.002	3
875.169	1.57
875.335	0.42
875.501	0.46
875.668	1.98
875.834	0.93
876	0.57
876.166	0.36
876.332	1.37
876.499	2.3
876.665	0.01
876.831	0.02
876.997	2.48
877.163	1.27
877.329	-0.67
877.495	0.66
877.662	2.94
877.828	1.12
877.994	0.47
878.16	-3.38
878.326	-0.23
878.492	0.65
878.658	1.01
878.824	2.1
878.99	1.18
879.156	-1.19
879.322	2.45
879.487	-0.69
879.653	3.16
879.819	-0.16
879.985	1.25
880.151	1.27
880.317	2.23
880.483	1.39
880.648	1.71
880.814	-2.68
880.98	1.26
881.146	-2.58
881.312	-1.38
881.477	-0.16
881.643	-0.41
881.809	1.96
881.974	2.24
882.14	-1.55
882.306	0.57
882.471	2.13
882.637	0.7
882.803	1.64
882.968	2.68
883.134	1.89
883.299	0.87
883.465	-0.27
883.63	0.47
883.796	2.24
883.961	0.4
884.127	1.35
884.292	-4.89
884.458	-1.54
884.623	-1.54
