Data from Apollo_Calib_20240827__AbsoluteIrradiance__227__02-56-02-146.txt Node

Date: Wed Aug 28 02:56:02 BST 2024
User: biology
Spectrometer: FLMT08252
Trigger mode: 0
Integration Time (sec): 5.000000E-1
Scans to average: 5
Electric dark correction enabled: true
Nonlinearity correction enabled: false
Boxcar width: 0
XAxis mode: Wavelengths
Number of Pixels in Spectrum: 3648
>>>>>Begin Spectral Data<<<<<
179.588	-0
179.809	-0
180.03	-0
180.251	-0
180.473	-0
180.694	0
180.915	0
181.136	-0
181.357	0
181.578	-0
181.799	-0
182.02	-0
182.241	-0
182.462	-0
182.683	0
182.904	0
183.125	-0
183.346	0
183.567	0
183.788	-0
184.009	-0
184.23	0
184.451	0
184.672	-0
184.892	-0
185.113	0
185.334	0
185.555	-0
185.776	-0
185.996	0
186.217	0
186.438	-0
186.659	-0
186.879	0
187.1	-0
187.321	-0
187.541	-0
187.762	-0
187.983	0
188.203	-0
188.424	0
188.644	-0
188.865	0
189.086	-0
189.306	-0
189.527	-0
189.747	0
189.968	-0
190.188	0
190.409	0
190.629	0
190.849	-0
191.07	-0
191.29	0
191.511	-0
191.731	-0
191.951	-0
192.172	-0
192.392	0
192.612	-0
192.833	-0
193.053	0
193.273	0
193.493	-0
193.714	-0
193.934	0
194.154	0
194.374	-0
194.594	0
194.815	0
195.035	-0
195.255	-0
195.475	-0
195.695	0
195.915	0
196.135	-0
196.355	0
196.575	0
196.795	0
197.015	-0
197.235	-0
197.455	-0
197.675	-0
197.895	-0
198.115	-0
198.335	0
198.555	-0
198.775	0
198.995	0
199.214	0
199.434	-0
199.654	-0
199.874	0
200.094	0.92
200.313	-0.64
200.533	-0.41
200.753	-1.08
200.973	0.61
201.192	0.29
201.412	-1.38
201.632	-0.67
201.851	0.6
202.071	-0.58
202.291	-0.8
202.51	-0.57
202.73	0.4
202.95	-0.34
203.169	-0.77
203.389	-0.5
203.608	-0.2
203.828	-0.78
204.047	-0.54
204.267	0.37
204.486	-0.1
204.706	0.4
204.925	-0.02
205.145	-0.46
205.364	0.33
205.583	0.6
205.803	-0.32
206.022	-0.59
206.242	0.01
206.461	0.11
206.68	-0.41
206.9	-0.07
207.119	0.42
207.338	0.29
207.557	-0.42
207.777	-0.21
207.996	-0.23
208.215	0.14
208.434	-0.6
208.654	-0.56
208.873	0.18
209.092	0.47
209.311	0.05
209.53	-0.21
209.749	-0.13
209.968	-0.16
210.187	-0.12
210.407	-0.5
210.626	-0.07
210.845	0.22
211.064	-0.34
211.283	-0.38
211.502	0.4
211.721	-0.02
211.94	-0.41
212.159	0.06
212.377	0.35
212.596	0.41
212.815	-0.15
213.034	0.05
213.253	0.18
213.472	0.21
213.691	-0.28
213.91	-0.09
214.128	-0.28
214.347	0.24
214.566	-0.5
214.785	-0.53
215.003	0.01
215.222	-0.02
215.441	-0.12
215.66	-0.37
215.878	-0.01
216.097	0.13
216.316	-0.32
216.534	-0.15
216.753	0.07
216.972	-0.01
217.19	0.03
217.409	-0.17
217.627	-0.28
217.846	-0.23
218.064	-0.12
218.283	-0.32
218.501	0.35
218.72	-0.02
218.938	-0.31
219.157	-0.24
219.375	0.05
219.594	0.02
219.812	-0.38
220.031	-0.37
220.249	0.12
220.467	0.2
220.686	-0.14
220.904	-0.26
221.122	-0.22
221.341	0.27
221.559	-0.06
221.777	-0.35
221.995	0.06
222.214	0.09
222.432	-0.17
222.65	0.1
222.868	0.1
223.086	0.06
223.305	0.06
223.523	-0.06
223.741	0.25
223.959	-0.07
224.177	-0.32
224.395	-0.13
224.613	-0.06
224.831	0.07
225.049	-0.22
225.267	-0.17
225.485	0.01
225.703	-0.07
225.921	-0.11
226.139	-0.22
226.357	0.08
226.575	-0.04
226.793	-0.14
227.011	0.55
227.229	-0.01
227.447	0.07
227.665	-0.28
227.883	-0.27
228.1	-0.06
228.318	0.05
228.536	-0.26
228.754	-0.15
228.972	-0.07
229.189	0.07
229.407	-0.08
229.625	-0.06
229.843	0.17
230.06	0.08
230.278	-0.12
230.496	0.08
230.713	0.05
230.931	0.24
231.149	-0.09
231.366	-0.17
231.584	-0.1
231.801	0.21
232.019	-0.21
232.236	-0.15
232.454	-0.19
232.671	0.11
232.889	-0.08
233.106	-0.2
233.324	-0.06
233.541	-0.02
233.759	-0.04
233.976	-0.16
234.194	-0.09
234.411	-0.08
234.628	-0.18
234.846	-0.12
235.063	-0.02
235.28	-0.04
235.498	-0.02
235.715	-0.22
235.932	0.01
236.149	-0.09
236.367	-0.16
236.584	-0
236.801	-0.11
237.018	0.05
237.236	0.04
237.453	-0.18
237.67	0.12
237.887	-0.07
238.104	-0
238.321	-0.19
238.538	-0.11
238.755	0.17
238.973	-0.22
239.19	-0.08
239.407	0.04
239.624	-0.05
239.841	-0.23
240.058	-0.17
240.275	0.04
240.492	-0.02
240.709	-0.01
240.925	-0.15
241.142	-0.07
241.359	-0.09
241.576	-0.09
241.793	-0.03
242.01	-0.07
242.227	0.08
242.444	0.03
242.66	0.03
242.877	-0.05
243.094	-0.04
243.311	-0.02
243.527	-0.03
243.744	0.03
243.961	0.06
244.178	-0.02
244.394	-0.07
244.611	0.1
244.828	0.16
245.044	-0.2
245.261	-0.05
245.477	-0.02
245.694	0.11
245.911	-0.11
246.127	-0.05
246.344	0.22
246.56	0.12
246.777	-0.08
246.993	0.04
247.21	0.05
247.426	0.15
247.643	-0.04
247.859	-0.06
248.076	-0.13
248.292	0.19
248.508	-0.04
248.725	-0.04
248.941	-0.07
249.157	0.11
249.374	-0.07
249.59	-0.06
249.806	0.05
250.023	0.1
250.239	-0.12
250.455	-0.07
250.671	-0
250.888	0.04
251.104	0.01
251.32	-0.11
251.536	-0.07
251.752	-0.05
251.969	-0.07
252.185	-0.06
252.401	0.21
252.617	-0.01
252.833	-0.02
253.049	-0.01
253.265	-0.01
253.481	0.04
253.697	-0.05
253.913	-0.08
254.129	-0.09
254.345	-0.07
254.561	-0
254.777	-0.06
254.993	0.1
255.209	0.01
255.425	-0.07
255.641	-0.14
255.857	0.05
256.073	0.06
256.288	-0.11
256.504	-0.06
256.72	0.01
256.936	0.06
257.152	-0.04
257.367	-0.07
257.583	0.01
257.799	0.01
258.015	-0.14
258.23	-0.09
258.446	0.13
258.662	-0.03
258.877	-0.09
259.093	-0.07
259.309	0.06
259.524	-0.05
259.74	-0.06
259.955	-0.17
260.171	-0.01
260.387	-0.03
260.602	0.02
260.818	0.05
261.033	-0.09
261.249	-0.1
261.464	-0.09
261.68	-0.06
261.895	0.07
262.11	-0
262.326	-0.1
262.541	-0.14
262.757	0.1
262.972	0.01
263.187	-0.01
263.403	-0.04
263.618	0.07
263.833	-0.03
264.049	-0.08
264.264	-0.01
264.479	-0.05
264.694	0.05
264.91	-0.13
265.125	-0
265.34	0.1
265.555	0.13
265.77	0.05
265.986	-0.02
266.201	-0.03
266.416	0.1
266.631	-0.07
266.846	-0.07
267.061	0.04
267.276	0.07
267.491	-0.16
267.706	0.01
267.921	0.04
268.136	-0.05
268.351	-0.03
268.566	-0.16
268.781	0.03
268.996	0.06
269.211	-0.06
269.426	-0.11
269.641	-0.08
269.856	0.02
270.071	-0.04
270.285	-0.11
270.5	0.02
270.715	0.05
270.93	-0.07
271.145	-0.04
271.359	0.01
271.574	-0.05
271.789	-0.02
272.004	-0.07
272.218	-0.06
272.433	0.07
272.648	-0.02
272.862	0.09
273.077	-0.01
273.292	-0.05
273.506	-0.04
273.721	-0.03
273.936	0.05
274.15	0.01
274.365	-0.05
274.579	0.08
274.794	0.03
275.008	0.08
275.223	-0.19
275.437	-0.05
275.652	0.06
275.866	0.01
276.081	-0.02
276.295	0.03
276.509	-0.03
276.724	0.01
276.938	0
277.153	0.04
277.367	0.06
277.581	0.02
277.796	-0.05
278.01	-0.04
278.224	0.04
278.438	0.15
278.653	-0.07
278.867	-0.03
279.081	0.02
279.295	-0.02
279.51	-0.01
279.724	-0.07
279.938	0.06
280.152	0.03
280.366	-0.04
280.58	-0.03
280.794	0.07
281.008	0.03
281.222	0.05
281.437	0.12
281.651	0.04
281.865	0.12
282.079	-0.07
282.293	-0.13
282.507	-0.11
282.721	-0.05
282.935	-0.06
283.148	-0.1
283.362	0
283.576	-0.05
283.79	-0.04
284.004	-0.05
284.218	0.07
284.432	-0.06
284.646	-0.01
284.859	-0.01
285.073	-0
285.287	0
285.501	-0.04
285.714	-0.06
285.928	0.01
286.142	-0.01
286.356	-0.06
286.569	-0.08
286.783	0.08
286.997	0.06
287.21	0
287.424	0.03
287.637	-0.01
287.851	-0.07
288.065	-0.02
288.278	-0.06
288.492	0.01
288.705	0.01
288.919	-0
289.132	-0.02
289.346	0.02
289.559	-0.08
289.773	-0.06
289.986	-0.01
290.2	-0.02
290.413	0.05
290.626	-0.08
290.84	-0.01
291.053	-0.03
291.267	0.03
291.48	0
291.693	-0
291.906	-0.04
292.12	-0.03
292.333	-0.04
292.546	-0.04
292.76	0.08
292.973	0.03
293.186	0.03
293.399	-0.04
293.612	0.05
293.826	-0.08
294.039	-0.03
294.252	-0.04
294.465	0.04
294.678	-0
294.891	-0
295.104	-0.08
295.317	-0
295.53	-0.01
295.743	-0.01
295.956	-0.03
296.169	0.09
296.382	0.01
296.595	0
296.808	-0.04
297.021	0.09
297.234	0.01
297.447	0
297.66	0.07
297.873	0.05
298.086	0.06
298.299	0.01
298.511	-0.08
298.724	-0
298.937	-0.01
299.15	-0.01
299.363	0.01
299.575	0.01
299.788	0.06
300.001	-0.01
300.213	-0.07
300.426	0
300.639	-0.04
300.852	-0.05
301.064	0.02
301.277	0.08
301.489	0.03
301.702	0.02
301.915	-0.03
302.127	0.01
302.34	0
302.552	0.01
302.765	-0.03
302.977	0.05
303.19	-0.06
303.402	-0.02
303.615	-0.02
303.827	-0.03
304.04	-0.03
304.252	0.03
304.464	-0.03
304.677	0.13
304.889	-0
305.102	-0.04
305.314	-0.07
305.526	0.06
305.739	-0.02
305.951	-0.02
306.163	-0.06
306.375	0.07
306.588	-0.02
306.8	-0.07
307.012	-0.04
307.224	0.01
307.436	0.03
307.649	-0.06
307.861	0.01
308.073	0.06
308.285	-0
308.497	-0.03
308.709	-0.01
308.921	0.01
309.133	0.03
309.346	-0
309.558	0.01
309.77	0.05
309.982	0.04
310.194	0.05
310.406	-0.03
310.617	0.06
310.829	0.01
311.041	0
311.253	-0.08
311.465	0.02
311.677	0.01
311.889	0
312.101	-0.07
312.313	0.02
312.524	0.02
312.736	-0.04
312.948	-0.02
313.16	0.06
313.372	0.03
313.583	-0.02
313.795	0
314.007	-0.05
314.218	0.09
314.43	0
314.642	-0.07
314.853	-0.06
315.065	0.04
315.277	-0
315.488	-0.03
315.7	0.05
315.912	0.06
316.123	-0
316.335	-0.05
316.546	0.11
316.758	0.01
316.969	-0.02
317.181	-0
317.392	0
317.604	0.03
317.815	-0.06
318.026	-0.05
318.238	-0.05
318.449	-0
318.661	-0.08
318.872	-0.06
319.083	-0.04
319.295	0.01
319.506	-0.05
319.717	0.02
319.929	0.09
320.14	0
320.351	0.02
320.562	-0.04
320.774	-0.02
320.985	-0.02
321.196	-0.08
321.407	-0.09
321.618	0.03
321.829	0.01
322.041	-0.03
322.252	0.03
322.463	0.03
322.674	0.03
322.885	-0.05
323.096	-0.05
323.307	-0.03
323.518	-0.01
323.729	-0.05
323.94	0.01
324.151	-0.03
324.362	0.03
324.573	-0.04
324.784	-0.02
324.995	0.02
325.206	0.02
325.417	-0.01
325.628	-0.01
325.838	0.02
326.049	-0.01
326.26	-0.02
326.471	-0.05
326.682	0.02
326.892	-0.03
327.103	-0.13
327.314	-0.06
327.525	0.06
327.735	0.01
327.946	-0.03
328.157	-0.02
328.368	0.04
328.578	-0.02
328.789	0.01
328.999	0.01
329.21	0.01
329.421	-0.02
329.631	-0.06
329.842	-0.03
330.052	0.03
330.263	0.03
330.473	0.01
330.684	-0.02
330.894	0
331.105	0.02
331.315	0.01
331.526	-0.08
331.736	0.11
331.947	0.01
332.157	0.01
332.367	-0.07
332.578	0.01
332.788	0.07
332.999	0.02
333.209	-0.03
333.419	-0.08
333.629	0.03
333.84	0.01
334.05	0
334.26	0.01
334.47	-0.03
334.681	0.05
334.891	-0.04
335.101	0
335.311	0.11
335.521	0.01
335.732	-0.02
335.942	0.07
336.152	-0.01
336.362	0.02
336.572	-0.02
336.782	0
336.992	-0.03
337.202	-0.05
337.412	-0.03
337.622	0.01
337.832	-0.02
338.042	0.03
338.252	-0.03
338.462	-0.04
338.672	0.01
338.882	-0.01
339.092	0.03
339.302	0.1
339.511	0.01
339.721	-0.03
339.931	-0.07
340.141	0.08
340.351	0.07
340.561	-0.02
340.77	0.02
340.98	0.01
341.19	0.02
341.4	-0.02
341.609	-0.02
341.819	-0.03
342.029	-0.06
342.238	0
342.448	-0.03
342.658	0.03
342.867	-0.03
343.077	-0.03
343.286	-0.01
343.496	0.01
343.706	0.06
343.915	-0.04
344.125	0.01
344.334	0.01
344.544	-0.05
344.753	-0.02
344.963	-0
345.172	-0.01
345.381	-0.01
345.591	-0.06
345.8	-0.01
346.01	0.08
346.219	0.04
346.428	-0.14
346.638	0.02
346.847	-0.01
347.056	0.05
347.266	-0.05
347.475	0
347.684	0.05
347.893	0.02
348.103	0.02
348.312	-0.03
348.521	-0.02
348.73	0.03
348.94	-0.02
349.149	-0.02
349.358	0.01
349.567	-0.02
349.776	-0.05
349.985	-0.06
350.194	0.02
350.403	0.05
350.612	-0.06
350.821	-0.02
351.03	-0.05
351.239	-0.08
351.448	-0.02
351.657	-0.05
351.866	0.07
352.075	-0.02
352.284	-0.06
352.493	-0.05
352.702	0.07
352.911	0.01
353.12	-0
353.329	-0.02
353.538	0.02
353.746	0.05
353.955	-0.04
354.164	0
354.373	-0.04
354.582	0.03
354.79	-0.02
354.999	0.02
355.208	-0.04
355.416	0.04
355.625	-0.06
355.834	-0.01
356.042	-0.01
356.251	0.01
356.46	-0.06
356.668	0.03
356.877	0.12
357.085	0.05
357.294	-0.04
357.503	0.01
357.711	-0.04
357.92	0.15
358.128	-0
358.337	-0.05
358.545	0.04
358.754	-0.03
358.962	0.03
359.17	-0.03
359.379	0.01
359.587	0.01
359.796	-0.03
360.004	0.03
360.212	0.01
360.421	0.07
360.629	-0.02
360.837	-0.03
361.046	0
361.254	0.11
361.462	-0
361.67	-0.01
361.879	-0.04
362.087	0.08
362.295	-0.02
362.503	-0.04
362.711	-0.03
362.92	-0.04
363.128	-0.05
363.336	-0.05
363.544	-0.08
363.752	0
363.96	-0.05
364.168	0.01
364.376	0.02
364.584	0.03
364.792	0.02
365	0.04
365.208	0.03
365.416	-0.01
365.624	0.02
365.832	-0.03
366.04	0.02
366.248	0.02
366.456	0.01
366.664	-0.02
366.872	0.01
367.079	-0
367.287	-0.06
367.495	0.02
367.703	-0.03
367.911	-0.02
368.118	-0.03
368.326	-0.04
368.534	-0.04
368.742	0.04
368.949	-0.03
369.157	0.01
369.365	0.06
369.572	-0.03
369.78	-0.03
369.988	0.01
370.195	-0.01
370.403	0.04
370.61	-0.01
370.818	0.01
371.026	0.05
371.233	-0.06
371.441	0.03
371.648	-0.02
371.856	0.04
372.063	-0.02
372.271	-0.02
372.478	-0.02
372.685	-0.06
372.893	0.02
373.1	-0.03
373.308	-0.02
373.515	0.09
373.722	0.05
373.93	-0.03
374.137	0.02
374.344	0.11
374.552	0.01
374.759	0.01
374.966	-0.03
375.173	-0.01
375.381	0.02
375.588	-0.01
375.795	-0.07
376.002	-0.04
376.209	-0.06
376.417	-0.02
376.624	0
376.831	-0
377.038	-0
377.245	-0.11
377.452	-0.01
377.659	0.01
377.866	-0.03
378.073	-0.01
378.28	0
378.487	0.04
378.694	0.04
378.901	-0.05
379.108	0.02
379.315	0.05
379.522	0.06
379.729	-0.02
379.936	-0.02
380.143	0.03
380.35	0.02
380.557	-0.03
380.763	0.02
380.97	0.02
381.177	0.04
381.384	0
381.591	-0.03
381.797	0.04
382.004	0.04
382.211	0.02
382.418	0.02
382.624	0.05
382.831	0.04
383.038	-0.06
383.244	-0.01
383.451	-0.01
383.658	0.01
383.864	-0.04
384.071	-0.01
384.277	0.06
384.484	-0
384.69	0.02
384.897	-0.03
385.103	-0
385.31	-0.02
385.516	-0.04
385.723	-0.06
385.929	-0.04
386.136	-0.01
386.342	0.01
386.549	-0.05
386.755	0.01
386.961	0.03
387.168	0
387.374	-0.01
387.58	0.01
387.787	0.02
387.993	-0.04
388.199	0.01
388.406	-0.03
388.612	0
388.818	-0.02
389.024	-0.07
389.231	-0.01
389.437	0.07
389.643	0.05
389.849	-0.02
390.055	0.03
390.261	-0.02
390.467	0.03
390.674	-0.07
390.88	-0.01
391.086	0.01
391.292	-0.04
391.498	0.03
391.704	-0.03
391.91	-0.01
392.116	-0.03
392.322	-0.1
392.528	0.02
392.734	-0.05
392.94	0.01
393.146	-0.07
393.352	-0
393.557	-0.01
393.763	-0.01
393.969	-0
394.175	-0.04
394.381	0.02
394.587	-0.05
394.792	-0.01
394.998	0.03
395.204	0.05
395.41	-0.05
395.615	0.04
395.821	0.01
396.027	0.02
396.233	-0.04
396.438	0.01
396.644	0.09
396.85	0
397.055	-0.02
397.261	0.01
397.466	0.14
397.672	-0
397.878	0.04
398.083	0.02
398.289	-0.02
398.494	0.09
398.7	0
398.905	-0.07
399.111	0.05
399.316	-0.03
399.522	-0
399.727	-0.02
399.932	0
400.138	0
400.343	0.01
400.549	0.01
400.754	0.04
400.959	0.02
401.165	-0.01
401.37	0.05
401.575	-0.03
401.78	0.02
401.986	-0.02
402.191	-0
402.396	0
402.601	0.06
402.807	0.02
403.012	0.01
403.217	0.05
403.422	-0.01
403.627	0.01
403.832	0.01
404.037	0.04
404.243	0.03
404.448	-0
404.653	0.07
404.858	0.05
405.063	0.07
405.268	-0.02
405.473	0
405.678	-0.01
405.883	0.2
406.088	0.07
406.293	0.01
406.498	0.06
406.703	0.08
406.907	0.03
407.112	0.01
407.317	0.05
407.522	0.06
407.727	-0.04
407.932	0.12
408.136	0.15
408.341	0.05
408.546	0.12
408.751	0.08
408.956	0.03
409.16	0.13
409.365	0.01
409.57	0.08
409.774	0.09
409.979	0.14
410.184	0.13
410.388	0.01
410.593	0.15
410.798	0.11
411.002	0.09
411.207	0.14
411.411	0.13
411.616	0.11
411.82	0.09
412.025	0.17
412.229	0.11
412.434	0.18
412.638	0.13
412.843	0.13
413.047	0.16
413.252	0.14
413.456	0.16
413.66	0.21
413.865	0.17
414.069	0.25
414.273	0.17
414.478	0.18
414.682	0.18
414.886	0.21
415.091	0.21
415.295	0.2
415.499	0.26
415.703	0.23
415.908	0.31
416.112	0.22
416.316	0.35
416.52	0.29
416.724	0.23
416.929	0.25
417.133	0.44
417.337	0.34
417.541	0.33
417.745	0.37
417.949	0.44
418.153	0.45
418.357	0.34
418.561	0.54
418.765	0.43
418.969	0.54
419.173	0.54
419.377	0.4
419.581	0.55
419.785	0.5
419.989	0.45
420.193	0.48
420.397	0.51
420.601	0.63
420.804	0.67
421.008	0.55
421.212	0.6
421.416	0.67
421.62	0.57
421.823	0.57
422.027	0.68
422.231	0.65
422.435	0.61
422.638	0.68
422.842	0.64
423.046	0.55
423.249	0.67
423.453	0.66
423.657	0.62
423.86	0.63
424.064	0.65
424.268	0.68
424.471	0.64
424.675	0.72
424.878	0.7
425.082	0.61
425.285	0.63
425.489	0.62
425.692	0.64
425.896	0.54
426.099	0.61
426.303	0.53
426.506	0.51
426.71	0.59
426.913	0.63
427.116	0.61
427.32	0.54
427.523	0.53
427.726	0.58
427.93	0.46
428.133	0.53
428.336	0.44
428.54	0.45
428.743	0.48
428.946	0.57
429.149	0.43
429.353	0.45
429.556	0.41
429.759	0.39
429.962	0.36
430.165	0.38
430.368	0.35
430.571	0.28
430.775	0.32
430.978	0.31
431.181	0.32
431.384	0.31
431.587	0.28
431.79	0.32
431.993	0.26
432.196	0.25
432.399	0.28
432.602	0.33
432.805	0.3
433.008	0.2
433.211	0.18
433.414	0.23
433.616	0.26
433.819	0.22
434.022	0.12
434.225	0.26
434.428	0.2
434.631	0.33
434.833	0.22
435.036	0.17
435.239	0.25
435.442	0.18
435.645	0.2
435.847	0.16
436.05	0.22
436.253	0.19
436.455	0.12
436.658	0.19
436.861	0.24
437.063	0.11
437.266	0.12
437.468	0.19
437.671	0.31
437.874	0.16
438.076	0.07
438.279	0.07
438.481	0.16
438.684	0.08
438.886	0.16
439.089	0.04
439.291	0.15
439.494	0.18
439.696	0.09
439.899	0.09
440.101	0.13
440.303	0
440.506	0.15
440.708	0.16
440.91	0.16
441.113	0.06
441.315	0.12
441.517	0.02
441.72	0.11
441.922	0.04
442.124	0.04
442.326	0.07
442.529	0.12
442.731	0.02
442.933	0.23
443.135	0.07
443.337	0.01
443.539	0.06
443.742	0.04
443.944	0.07
444.146	0.04
444.348	0.06
444.55	0
444.752	0.06
444.954	-0
445.156	0.1
445.358	-0.01
445.56	0.1
445.762	-0.02
445.964	0.01
446.166	-0.01
446.368	-0
446.57	0.11
446.772	0.04
446.974	-0.01
447.175	0.01
447.377	0.02
447.579	0.05
447.781	-0.05
447.983	0.1
448.184	0.02
448.386	0.04
448.588	-0.01
448.79	0.02
448.991	-0.02
449.193	0.02
449.395	0.07
449.597	0.04
449.798	0.02
450	0.05
450.202	-0.01
450.403	0.06
450.605	0.07
450.806	0.01
451.008	-0.05
451.21	0.01
451.411	0.07
451.613	-0.03
451.814	-0.03
452.016	0.07
452.217	0.05
452.419	0.08
452.62	0.02
452.821	0
453.023	0.08
453.224	0.07
453.426	-0.01
453.627	0.04
453.828	0.06
454.03	0.03
454.231	0.1
454.432	-0.04
454.634	0.11
454.835	-0.02
455.036	-0.02
455.238	0.03
455.439	0.05
455.64	-0.01
455.841	-0.02
456.042	0.12
456.244	0.03
456.445	-0
456.646	-0.07
456.847	-0
457.048	0.03
457.249	0.07
457.45	0.26
457.651	-0.02
457.852	0.05
458.054	0.04
458.255	-0
458.456	0.03
458.657	0.03
458.858	-0.03
459.058	-0
459.259	0.02
459.46	-0
459.661	-0.02
459.862	0.15
460.063	-0.04
460.264	0.06
460.465	-0.06
460.666	0.06
460.866	-0.03
461.067	0.04
461.268	0.01
461.469	-0.02
461.67	0.05
461.87	-0.04
462.071	-0.02
462.272	0.01
462.473	-0
462.673	0.02
462.874	-0.07
463.075	0.04
463.275	-0.04
463.476	0.02
463.676	0.02
463.877	0.01
464.078	-0
464.278	0.01
464.479	-0.04
464.679	-0.02
464.88	-0.02
465.08	0.1
465.281	-0.04
465.481	-0.02
465.682	-0.02
465.882	0.01
466.083	-0
466.283	0.01
466.483	-0
466.684	-0.11
466.884	-0.04
467.085	-0.02
467.285	0.04
467.485	-0.03
467.686	-0.01
467.886	-0.03
468.086	-0
468.286	-0.02
468.487	0.05
468.687	-0.04
468.887	-0.01
469.087	0.05
469.287	-0.02
469.488	-0.01
469.688	0.05
469.888	0.02
470.088	0.07
470.288	0.04
470.488	0.07
470.688	-0.04
470.888	-0.04
471.088	-0.04
471.288	0.03
471.488	0.02
471.688	0
471.888	-0.01
472.088	0.09
472.288	-0
472.488	0.01
472.688	-0.06
472.888	-0.02
473.088	0.01
473.288	0
473.488	-0.04
473.688	0.02
473.887	0
474.087	-0.04
474.287	0.02
474.487	-0.04
474.687	0.03
474.886	-0.03
475.086	0
475.286	-0.03
475.486	-0.01
475.685	0.03
475.885	-0.01
476.085	-0.03
476.284	0.04
476.484	-0.03
476.684	0.04
476.883	0.07
477.083	0.02
477.282	-0.02
477.482	0.04
477.681	0.04
477.881	0.02
478.08	-0.02
478.28	-0.05
478.479	0.01
478.679	0.09
478.878	-0.04
479.078	-0.03
479.277	-0.01
479.477	-0.01
479.676	0.02
479.875	-0.03
480.075	-0.05
480.274	0.01
480.473	0.02
480.673	-0.03
480.872	0.02
481.071	-0
481.271	0.03
481.47	-0.04
481.669	-0
481.868	-0.03
482.067	-0.04
482.267	-0.06
482.466	-0.04
482.665	-0.03
482.864	-0.06
483.063	-0.04
483.262	0.03
483.461	0.05
483.661	0.04
483.86	-0.01
484.059	0.02
484.258	-0.01
484.457	-0.01
484.656	0.01
484.855	0.05
485.054	-0.05
485.253	-0.02
485.452	-0.04
485.651	-0.01
485.849	-0.04
486.048	-0.04
486.247	-0.03
486.446	0.02
486.645	-0.05
486.844	0
487.043	-0
487.241	0.01
487.44	-0.03
487.639	-0.02
487.838	-0
488.037	-0.02
488.235	0.05
488.434	-0
488.633	-0.02
488.831	0.01
489.03	0.02
489.229	-0
489.427	-0.02
489.626	0.05
489.825	0.02
490.023	0.04
490.222	-0.04
490.42	0.03
490.619	0.02
490.817	0
491.016	0
491.214	0.03
491.413	-0.04
491.611	-0.01
491.81	-0
492.008	0.02
492.207	0
492.405	-0
492.604	-0.02
492.802	-0.03
493	-0.02
493.199	-0.02
493.397	0.01
493.595	-0
493.794	-0.03
493.992	0.03
494.19	-0.02
494.388	0.03
494.587	-0.02
494.785	0.02
494.983	-0.05
495.181	0.01
495.379	0
495.578	-0.03
495.776	0.02
495.974	0.03
496.172	0
496.37	-0.01
496.568	-0.04
496.766	-0.02
496.964	0.04
497.162	-0
497.36	-0.01
497.558	0.02
497.756	0.03
497.954	-0.01
498.152	-0.03
498.35	-0.01
498.548	0
498.746	-0.02
498.944	-0.02
499.142	-0.03
499.34	-0.03
499.538	-0.01
499.736	-0.02
499.933	0.05
500.131	0.03
500.329	-0.03
500.527	0.01
500.725	0.03
500.922	0.02
501.12	0
501.318	0.03
501.516	-0.03
501.713	0
501.911	0.01
502.109	-0.01
502.306	-0
502.504	-0.01
502.701	-0.01
502.899	-0.02
503.097	0.05
503.294	0.01
503.492	-0.02
503.689	0.01
503.887	0.02
504.084	0.05
504.282	-0.01
504.479	-0.04
504.677	0
504.874	-0.04
505.072	0.02
505.269	-0.01
505.466	0.02
505.664	0.03
505.861	-0.04
506.059	-0.03
506.256	0.03
506.453	-0.01
506.651	0.03
506.848	0.02
507.045	0.03
507.242	-0.01
507.44	-0.02
507.637	-0.02
507.834	0
508.031	0.02
508.229	-0.03
508.426	0.01
508.623	0.02
508.82	-0.02
509.017	-0.04
509.214	-0.03
509.411	0.01
509.608	-0.04
509.805	0
510.003	-0.03
510.2	-0.02
510.397	0.02
510.594	-0.02
510.791	-0.02
510.988	-0.02
511.184	0.03
511.381	-0.01
511.578	-0.04
511.775	0.02
511.972	-0.03
512.169	-0.03
512.366	-0.02
512.563	0
512.76	-0.02
512.956	-0.01
513.153	-0.02
513.35	0.01
513.547	-0.03
513.744	-0
513.94	-0.05
514.137	0.01
514.334	0
514.53	0.01
514.727	-0.02
514.924	0.06
515.12	-0.02
515.317	-0.04
515.514	-0.01
515.71	-0.03
515.907	-0.02
516.103	0.01
516.3	-0.01
516.497	-0
516.693	0.04
516.89	0
517.086	-0.02
517.283	0.01
517.479	0.02
517.676	-0.01
517.872	-0.01
518.068	-0.01
518.265	-0.01
518.461	-0.02
518.658	-0.04
518.854	-0.01
519.05	0
519.247	0
519.443	0.01
519.639	-0.01
519.836	0.01
520.032	-0
520.228	0
520.424	0.04
520.621	-0
520.817	-0.03
521.013	0
521.209	0
521.405	0.03
521.601	-0.01
521.798	0.02
521.994	0.05
522.19	-0.02
522.386	-0.06
522.582	0.01
522.778	-0.02
522.974	0.01
523.17	-0.01
523.366	0.01
523.562	-0
523.758	0
523.954	-0.02
524.15	-0.03
524.346	0.02
524.542	-0.01
524.738	-0.03
524.934	-0.01
525.129	-0.02
525.325	-0.01
525.521	-0.02
525.717	0.02
525.913	0.01
526.109	-0.02
526.304	-0.02
526.5	0
526.696	0.02
526.892	-0.01
527.087	-0.01
527.283	-0.03
527.479	0.01
527.674	-0.03
527.87	-0.02
528.066	-0.02
528.261	0.01
528.457	0.03
528.653	-0.02
528.848	-0.02
529.044	0
529.239	0.01
529.435	0.01
529.63	-0
529.826	0.04
530.021	0.02
530.217	-0.01
530.412	-0.02
530.608	-0.02
530.803	-0.02
530.999	0.01
531.194	-0.03
531.389	0
531.585	-0.04
531.78	0.01
531.975	-0
532.171	0.01
532.366	0.01
532.561	0
532.757	-0.03
532.952	0
533.147	0.01
533.342	-0.01
533.538	-0.03
533.733	0.02
533.928	0
534.123	-0.01
534.318	-0.03
534.513	-0.02
534.709	-0.01
534.904	-0.02
535.099	-0.02
535.294	-0.02
535.489	0.02
535.684	-0.02
535.879	-0.02
536.074	-0.01
536.269	-0.04
536.464	-0
536.659	-0.01
536.854	-0.03
537.049	0.01
537.244	-0.01
537.439	-0.03
537.634	0.01
537.828	0.02
538.023	-0.01
538.218	-0.04
538.413	-0
538.608	-0.03
538.803	0.01
538.997	-0.05
539.192	0.02
539.387	0.01
539.582	-0.01
539.776	0
539.971	-0.02
540.166	-0
540.36	-0.05
540.555	0
540.75	-0.02
540.944	0.01
541.139	-0.05
541.334	-0.01
541.528	0.02
541.723	0.04
541.917	-0.02
542.112	-0.06
542.306	-0.02
542.501	-0.02
542.695	0.01
542.89	-0.01
543.084	0
543.279	-0
543.473	-0.04
543.668	-0.02
543.862	-0.01
544.056	0.01
544.251	0
544.445	-0.01
544.64	-0.01
544.834	-0.03
545.028	-0
545.222	-0.01
545.417	0.01
545.611	0.03
545.805	-0.03
546	-0.02
546.194	-0.03
546.388	-0.02
546.582	0.01
546.776	-0.03
546.97	-0.03
547.165	0.03
547.359	0.01
547.553	-0.03
547.747	-0
547.941	0.01
548.135	0
548.329	0.02
548.523	0
548.717	0.01
548.911	-0.02
549.105	-0.01
549.299	0.02
549.493	0.01
549.687	-0
549.881	0.01
550.075	-0.01
550.269	-0.03
550.463	0.01
550.657	-0.02
550.85	0.01
551.044	-0.02
551.238	0.02
551.432	-0.01
551.626	-0.03
551.82	0.01
552.013	-0.01
552.207	0
552.401	-0
552.594	-0.01
552.788	0.01
552.982	-0.02
553.176	-0.03
553.369	0.02
553.563	0
553.756	-0.04
553.95	-0.03
554.144	-0
554.337	0.02
554.531	0.01
554.724	0
554.918	-0.03
555.111	0.04
555.305	-0.01
555.498	0.04
555.692	0.01
555.885	-0.01
556.079	-0
556.272	-0.02
556.466	0.05
556.659	0.01
556.852	0
557.046	0
557.239	0.01
557.432	-0.04
557.626	-0.04
557.819	0
558.012	0.01
558.206	-0.01
558.399	-0.01
558.592	-0.01
558.785	-0.02
558.979	0.01
559.172	0
559.365	0.01
559.558	0.01
559.751	-0.01
559.944	0.04
560.138	-0.02
560.331	-0
560.524	-0.02
560.717	-0
560.91	-0
561.103	0.01
561.296	-0.02
561.489	0.02
561.682	0.03
561.875	0.05
562.068	0.01
562.261	-0.01
562.454	0.05
562.647	-0.01
562.84	0.01
563.032	0.01
563.225	-0.02
563.418	0
563.611	-0.01
563.804	-0.02
563.997	-0.03
564.19	-0.03
564.382	-0
564.575	0.01
564.768	0.02
564.961	-0.01
565.153	-0.02
565.346	0.03
565.539	0
565.731	0.02
565.924	0.03
566.117	0
566.309	-0.03
566.502	-0.03
566.695	-0.01
566.887	-0
567.08	-0.03
567.272	-0.03
567.465	-0.02
567.657	-0.01
567.85	0.01
568.042	0.03
568.235	0.05
568.427	-0.01
568.62	-0
568.812	0.01
569.005	-0.01
569.197	-0.05
569.389	0
569.582	0.02
569.774	0
569.966	-0.04
570.159	-0.03
570.351	-0.01
570.543	-0.02
570.736	-0.02
570.928	-0.03
571.12	-0.02
571.312	-0.04
571.505	-0.04
571.697	0.02
571.889	-0.01
572.081	-0.01
572.273	-0.02
572.465	0.03
572.658	-0.03
572.85	0.01
573.042	-0.01
573.234	-0.01
573.426	0.04
573.618	-0.05
573.81	-0.02
574.002	0.07
574.194	0.04
574.386	-0.04
574.578	-0.08
574.77	-0.04
574.962	-0.02
575.154	-0.03
575.346	-0.01
575.538	0.02
575.729	-0.04
575.921	-0.03
576.113	-0.01
576.305	0.03
576.497	-0.02
576.689	-0
576.88	-0.02
577.072	0.02
577.264	-0.01
577.456	-0.02
577.647	-0.06
577.839	0
578.031	0.03
578.223	-0.03
578.414	-0.04
578.606	0
578.798	-0.01
578.989	-0.01
579.181	-0.01
579.372	-0.02
579.564	-0
579.755	-0.01
579.947	0.01
580.139	0.02
580.33	-0.06
580.522	-0.02
580.713	-0.09
580.905	-0
581.096	0
581.287	-0.02
581.479	-0.01
581.67	0.02
581.862	-0.01
582.053	-0.05
582.244	-0.06
582.436	-0.01
582.627	-0.01
582.818	-0.04
583.01	-0.06
583.201	0.01
583.392	0.01
583.583	-0.01
583.775	-0.04
583.966	-0.03
584.157	-0.04
584.348	-0.05
584.54	-0.08
584.731	-0
584.922	-0.03
585.113	-0.04
585.304	0.03
585.495	0.01
585.686	0
585.877	0.03
586.068	-0
586.259	0.02
586.45	0
586.641	-0.05
586.832	-0.08
587.023	0.01
587.214	-0.02
587.405	0.03
587.596	-0.02
587.787	0.05
587.978	-0.02
588.169	-0.03
588.36	-0.05
588.551	0.02
588.742	-0.02
588.932	0.02
589.123	-0.02
589.314	0.03
589.505	0
589.696	0.01
589.886	-0.03
590.077	-0.04
590.268	-0
590.458	-0.04
590.649	-0.06
590.84	0.03
591.03	-0.03
591.221	-0.06
591.412	-0.05
591.602	0.02
591.793	0.04
591.984	-0.03
592.174	-0.03
592.365	0.02
592.555	-0.03
592.746	0
592.936	-0.01
593.127	0.01
593.317	0.02
593.508	-0.03
593.698	-0.02
593.889	-0.02
594.079	-0
594.269	-0.06
594.46	-0
594.65	-0.03
594.84	-0.01
595.031	-0.05
595.221	-0.04
595.411	-0.06
595.602	-0
595.792	-0.02
595.982	-0.01
596.172	0.06
596.363	-0.01
596.553	0
596.743	-0.01
596.933	0
597.123	0.06
597.314	-0.05
597.504	-0.04
597.694	0.06
597.884	0.02
598.074	-0.04
598.264	-0.03
598.454	0.01
598.644	-0.01
598.834	-0.03
599.024	-0.06
599.214	-0.02
599.404	0.02
599.594	-0.02
599.784	-0.03
599.974	0.07
600.164	0
600.354	-0.05
600.544	-0.05
600.734	0.01
600.924	0.03
601.114	-0.02
601.303	-0.02
601.493	0
601.683	0.01
601.873	0
602.063	-0.05
602.252	0.03
602.442	-0.06
602.632	-0.02
602.821	-0.05
603.011	-0.01
603.201	-0.01
603.39	-0.04
603.58	-0.05
603.77	0
603.959	0.04
604.149	-0.02
604.339	0
604.528	0.01
604.718	0.02
604.907	-0.03
605.097	-0.02
605.286	-0.04
605.476	0.02
605.665	0.01
605.855	-0.02
606.044	0.03
606.234	0.02
606.423	-0.02
606.612	-0.02
606.802	0.02
606.991	0.02
607.181	0
607.37	-0.07
607.559	-0
607.749	-0.05
607.938	0
608.127	-0.04
608.316	-0.02
608.506	0.03
608.695	-0.02
608.884	-0.05
609.073	-0.02
609.263	0.02
609.452	0.01
609.641	-0
609.83	-0.04
610.019	-0.02
610.208	-0.03
610.397	-0.02
610.586	0.01
610.775	-0.05
610.965	-0.03
611.154	-0.03
611.343	-0.02
611.532	-0.01
611.721	-0.02
611.91	-0.01
612.099	0.02
612.287	-0.04
612.476	-0.05
612.665	0.01
612.854	-0.02
613.043	0.04
613.232	-0.03
613.421	-0.03
613.61	0.01
613.798	-0.06
613.987	0.03
614.176	-0.04
614.365	0.03
614.554	-0.01
614.742	-0
614.931	-0.03
615.12	0.01
615.309	0.01
615.497	-0.04
615.686	-0.01
615.875	-0.03
616.063	0.02
616.252	-0.04
616.44	-0.04
616.629	-0.02
616.818	0.04
617.006	-0.04
617.195	-0.01
617.383	-0.01
617.572	-0.01
617.76	-0.04
617.949	-0.02
618.137	0.01
618.326	0.06
618.514	-0.03
618.703	-0.07
618.891	0.05
619.079	-0.06
619.268	-0.03
619.456	-0.02
619.644	0.05
619.833	-0.03
620.021	-0.01
620.209	-0.06
620.398	0
620.586	-0.02
620.774	0
620.962	-0.02
621.151	0.06
621.339	-0.03
621.527	-0.06
621.715	-0.05
621.903	-0.03
622.092	-0.07
622.28	-0.01
622.468	-0.03
622.656	-0.07
622.844	0.02
623.032	-0.03
623.22	-0.05
623.408	0.01
623.596	-0
623.784	0.02
623.972	-0.07
624.16	-0.04
624.348	0.05
624.536	-0.03
624.724	-0.04
624.912	0.01
625.1	-0.01
625.288	-0.04
625.476	-0.06
625.664	0
625.851	-0.07
626.039	-0.02
626.227	0.01
626.415	0.02
626.603	-0.03
626.79	-0.02
626.978	-0.03
627.166	0.01
627.354	-0.03
627.541	-0
627.729	-0.09
627.917	0.04
628.104	0.02
628.292	-0.01
628.48	-0.03
628.667	0.02
628.855	-0
629.042	-0
629.23	-0.03
629.418	-0.03
629.605	0.01
629.793	-0.06
629.98	-0.04
630.168	-0.01
630.355	-0.02
630.543	-0.01
630.73	-0.04
630.917	0.02
631.105	0.03
631.292	-0.03
631.48	-0.02
631.667	0.09
631.854	0
632.042	-0.02
632.229	-0.08
632.416	0.03
632.604	-0.03
632.791	-0.07
632.978	0.02
633.165	-0.02
633.353	0.03
633.54	0.05
633.727	-0.08
633.914	-0.02
634.101	-0.08
634.289	0.03
634.476	-0.04
634.663	-0.06
634.85	-0
635.037	-0.04
635.224	-0.09
635.411	0.01
635.598	0.03
635.785	-0.03
635.972	-0.03
636.159	0.03
636.346	-0.03
636.533	-0
636.72	-0.02
636.907	-0.03
637.094	0.01
637.281	-0.05
637.468	0
637.655	-0.03
637.842	-0.03
638.029	-0.04
638.215	0.05
638.402	-0.02
638.589	-0.05
638.776	-0.06
638.963	-0.02
639.149	0.02
639.336	0.05
639.523	-0.02
639.709	-0.02
639.896	-0.06
640.083	0.04
640.27	0.01
640.456	-0.04
640.643	0.03
640.829	-0.05
641.016	-0.01
641.203	-0.06
641.389	0.01
641.576	0.02
641.762	0.01
641.949	-0.06
642.135	-0
642.322	-0.01
642.508	-0.07
642.695	0.01
642.881	-0.03
643.068	-0.03
643.254	-0.01
643.441	0.03
643.627	-0.02
643.813	-0.05
644	0.01
644.186	-0.05
644.372	0.01
644.559	0.02
644.745	-0.03
644.931	-0.03
645.118	-0.02
645.304	0.01
645.49	-0.04
645.676	-0.03
645.862	0
646.049	0.01
646.235	-0.01
646.421	0.04
646.607	0.07
646.793	-0.01
646.979	-0.06
647.165	0.01
647.352	-0.02
647.538	0.04
647.724	-0.03
647.91	0.01
648.096	0.03
648.282	0.01
648.468	0.02
648.654	-0.02
648.84	0.01
649.026	-0
649.212	-0.02
649.397	-0.06
649.583	-0.06
649.769	0
649.955	-0
650.141	0.02
650.327	0.04
650.513	-0.05
650.698	-0.01
650.884	-0.1
651.07	-0.01
651.256	-0.02
651.442	-0.02
651.627	-0.01
651.813	-0.01
651.999	-0.03
652.184	0.02
652.37	-0.01
652.556	-0.01
652.741	0.06
652.927	-0.08
653.113	-0.03
653.298	-0.01
653.484	-0.05
653.669	-0.07
653.855	0
654.04	0.02
654.226	-0.03
654.412	-0.03
654.597	-0.03
654.782	-0.03
654.968	-0
655.153	-0.02
655.339	-0.03
655.524	-0.05
655.71	0.02
655.895	-0.04
656.08	-0.04
656.266	0.05
656.451	-0.02
656.636	-0.09
656.822	-0.03
657.007	-0.08
657.192	-0.04
657.378	-0.07
657.563	-0.04
657.748	0.02
657.933	-0.02
658.118	0.01
658.304	-0.05
658.489	0.02
658.674	-0.01
658.859	-0.03
659.044	-0.01
659.229	-0.01
659.414	-0.02
659.599	-0
659.785	-0.04
659.97	-0.08
660.155	-0.02
660.34	-0
660.525	0
660.71	-0.05
660.895	0.02
661.08	-0.04
661.264	-0.07
661.449	0.05
661.634	0.01
661.819	-0.01
662.004	-0.02
662.189	-0.07
662.374	-0.06
662.559	-0.05
662.743	-0.08
662.928	-0.02
663.113	0.02
663.298	-0.07
663.483	-0.04
663.667	-0.03
663.852	-0.05
664.037	0.04
664.221	-0.03
664.406	-0
664.591	0.01
664.775	-0.02
664.96	-0.03
665.145	-0.02
665.329	0.02
665.514	-0.05
665.698	-0.03
665.883	-0.08
666.068	0.08
666.252	-0.03
666.437	-0.08
666.621	-0.01
666.806	0.04
666.99	-0.07
667.174	-0.08
667.359	0.03
667.543	-0.04
667.728	-0.02
667.912	-0.08
668.096	0.03
668.281	-0.01
668.465	-0.04
668.649	0.01
668.834	-0.09
669.018	-0.03
669.202	-0.02
669.387	-0.08
669.571	0.03
669.755	-0.04
669.939	-0.01
670.124	-0.04
670.308	0.06
670.492	0.04
670.676	-0.02
670.86	-0.02
671.044	-0.04
671.228	-0
671.413	-0.03
671.597	-0.06
671.781	-0.04
671.965	0.02
672.149	-0.01
672.333	-0.03
672.517	-0.03
672.701	0.03
672.885	-0.02
673.069	-0.1
673.253	0.07
673.437	-0.04
673.621	-0.08
673.804	-0.05
673.988	-0.01
674.172	0.01
674.356	-0.07
674.54	-0.02
674.724	0.09
674.908	-0.05
675.091	0.01
675.275	-0.01
675.459	-0.01
675.643	0.03
675.826	0.06
676.01	-0.02
676.194	-0.07
676.377	0.05
676.561	0.03
676.745	0.01
676.928	-0.01
677.112	0.04
677.296	-0.06
677.479	-0.05
677.663	-0.07
677.846	0
678.03	-0.02
678.213	-0.03
678.397	0.02
678.58	-0.01
678.764	-0.06
678.947	-0.06
679.131	0.01
679.314	0.06
679.498	-0.01
679.681	0
679.865	0.02
680.048	-0.01
680.231	-0.01
680.415	-0.04
680.598	-0.04
680.781	-0.06
680.965	-0.04
681.148	0.02
681.331	0
681.514	0.01
681.698	-0.03
681.881	-0.01
682.064	-0.05
682.247	-0.06
682.43	-0.12
682.614	0.02
682.797	0.02
682.98	0
683.163	-0.08
683.346	-0.01
683.529	-0.06
683.712	-0.04
683.895	0
684.078	-0.08
684.261	-0.01
684.444	0.01
684.627	-0.02
684.81	-0.07
684.993	-0.01
685.176	-0.01
685.359	-0.08
685.542	-0.06
685.725	0.07
685.908	-0.02
686.091	-0.04
686.274	0.04
686.457	-0.01
686.639	-0.06
686.822	0.03
687.005	-0.03
687.188	0.02
687.371	0.04
687.553	-0.01
687.736	-0.02
687.919	0.06
688.102	0.04
688.284	-0.04
688.467	-0.03
688.65	-0.07
688.832	-0.06
689.015	-0.04
689.197	-0.05
689.38	0.09
689.563	0.05
689.745	-0.05
689.928	-0.08
690.11	-0.06
690.293	-0
690.475	-0.07
690.658	-0.01
690.84	-0.04
691.023	0.01
691.205	-0.08
691.388	-0.05
691.57	-0.02
691.752	0.03
691.935	-0.13
692.117	-0.03
692.3	-0.01
692.482	-0.02
692.664	0
692.847	-0.02
693.029	0.02
693.211	0.01
693.393	-0
693.576	-0.01
693.758	-0
693.94	-0.04
694.122	-0.06
694.304	-0.05
694.487	-0.05
694.669	0.04
694.851	-0.06
695.033	0.02
695.215	-0.1
695.397	-0.03
695.579	-0
695.761	-0.07
695.943	-0.09
696.125	0.08
696.308	-0.02
696.49	-0.11
696.671	0.1
696.853	0.01
697.035	0.18
697.217	-0.06
697.399	0.03
697.581	-0.04
697.763	-0.07
697.945	-0.09
698.127	-0.02
698.309	0.08
698.491	-0.03
698.672	0.03
698.854	0.03
699.036	0.06
699.218	-0.05
699.399	0.01
699.581	-0.04
699.763	-0.01
699.945	-0.03
700.126	-0.05
700.308	0.04
700.49	-0.03
700.671	-0.09
700.853	-0.07
701.035	-0.05
701.216	0.05
701.398	-0.04
701.579	-0.03
701.761	0.04
701.943	-0.04
702.124	-0.06
702.306	-0.05
702.487	0.11
702.669	-0.06
702.85	-0.06
703.031	-0.09
703.213	0.08
703.394	0.06
703.576	-0.01
703.757	0.01
703.938	0.07
704.12	0.19
704.301	-0.01
704.483	-0.06
704.664	0.01
704.845	0.09
705.026	0.05
705.208	-0
705.389	0.03
705.57	0.03
705.751	-0.08
705.933	0.04
706.114	0.1
706.295	-0.01
706.476	-0.08
706.657	0.08
706.838	0
707.02	0.16
707.201	-0.08
707.382	-0.11
707.563	0.07
707.744	-0.01
707.925	-0.02
708.106	-0.04
708.287	0.02
708.468	0.08
708.649	-0
708.83	0
709.011	-0.1
709.192	0.02
709.373	-0.13
709.554	-0.04
709.734	-0.03
709.915	0.04
710.096	0.03
710.277	-0.14
710.458	0.02
710.639	-0.03
710.819	-0.1
711	-0.05
711.181	0.03
711.362	0.07
711.542	0.01
711.723	-0.08
711.904	0.08
712.085	0.04
712.265	-0.01
712.446	-0.08
712.627	-0.06
712.807	-0.04
712.988	0.01
713.168	-0.08
713.349	0.06
713.53	-0.15
713.71	-0.07
713.891	-0.05
714.071	-0.02
714.252	-0.05
714.432	-0.06
714.613	-0.07
714.793	-0.04
714.974	0.07
715.154	0.05
715.334	0.08
715.515	0.11
715.695	-0.1
715.876	0.02
716.056	-0.03
716.236	-0.05
716.417	0.04
716.597	-0.09
716.777	0.08
716.957	0.01
717.138	-0.01
717.318	-0.08
717.498	-0.15
717.678	0.04
717.859	-0
718.039	-0.12
718.219	0.05
718.399	-0
718.579	-0.13
718.759	-0.1
718.939	0.01
719.12	-0.02
719.3	0.05
719.48	-0.2
719.66	-0.09
719.84	0.06
720.02	0.01
720.2	-0.06
720.38	0
720.56	0.1
720.74	-0.04
720.92	0.1
721.1	0.11
721.279	0.11
721.459	-0
721.639	-0.17
721.819	0.05
721.999	-0.06
722.179	0.05
722.359	-0.08
722.538	0.02
722.718	0.02
722.898	-0.02
723.078	-0.05
723.257	-0.04
723.437	-0.04
723.617	-0.01
723.797	-0.01
723.976	-0
724.156	-0.01
724.336	0.1
724.515	0.1
724.695	-0.14
724.874	-0
725.054	0.02
725.234	-0.08
725.413	0.06
725.593	-0.04
725.772	-0.1
725.952	-0.02
726.131	-0.05
726.311	-0.06
726.49	-0.02
726.67	-0.17
726.849	-0.07
727.028	0.06
727.208	-0.04
727.387	-0.02
727.567	-0.1
727.746	-0.08
727.925	-0.06
728.105	-0.14
728.284	-0.1
728.463	-0.29
728.643	0.03
728.822	-0.14
729.001	-0.07
729.18	0.03
729.359	-0.01
729.539	-0.03
729.718	-0.04
729.897	0
730.076	-0.07
730.255	-0.09
730.434	-0.04
730.614	0.03
730.793	0.12
730.972	-0.05
731.151	-0.09
731.33	0
731.509	-0.04
731.688	0.02
731.867	-0.04
732.046	-0.21
732.225	0.2
732.404	-0.08
732.583	-0.11
732.762	0.02
732.941	0.05
733.12	-0.01
733.298	-0.07
733.477	0.07
733.656	0
733.835	-0.08
734.014	0.07
734.193	-0.08
734.371	0.09
734.55	0.03
734.729	-0.15
734.908	0.04
735.086	-0.05
735.265	0.09
735.444	-0.14
735.623	-0.1
735.801	-0.05
735.98	0
736.159	-0.14
736.337	0.05
736.516	-0.02
736.694	-0.03
736.873	-0.05
737.052	0.1
737.23	0.01
737.409	-0.12
737.587	0.16
737.766	-0.13
737.944	-0.05
738.123	-0.07
738.301	0.01
738.479	-0.05
738.658	0.08
738.836	-0.29
739.015	0.02
739.193	0.06
739.371	-0.12
739.55	-0.09
739.728	-0.13
739.906	0.1
740.085	0.13
740.263	0.02
740.441	-0.21
740.62	0.2
740.798	0.15
740.976	-0.03
741.154	-0.12
741.332	0.2
741.511	-0.1
741.689	-0.03
741.867	0.12
742.045	-0.08
742.223	-0.08
742.401	-0.11
742.579	-0.09
742.757	-0.02
742.935	-0.09
743.114	-0.06
743.292	-0.06
743.47	-0.08
743.648	-0.02
743.826	-0.13
744.004	0.01
744.181	0.06
744.359	-0.06
744.537	0.02
744.715	-0.1
744.893	0.02
745.071	0.07
745.249	-0.04
745.427	-0.05
745.605	0.12
745.782	-0.03
745.96	0.08
746.138	0.05
746.316	0.05
746.493	-0.1
746.671	-0.02
746.849	-0.07
747.027	0.09
747.204	-0.02
747.382	0.05
747.56	-0.14
747.737	-0.02
747.915	-0.11
748.093	0.04
748.27	-0.13
748.448	-0.13
748.625	-0.19
748.803	-0.1
748.98	-0.1
749.158	0.13
749.335	0.08
749.513	-0.06
749.69	-0.07
749.868	-0.02
750.045	0.02
750.223	-0.14
750.4	-0.24
750.578	0.09
750.755	-0.02
750.932	-0.19
751.11	0.15
751.287	-0.21
751.464	0.03
751.642	-0.14
751.819	-0
751.996	-0.08
752.173	-0.04
752.351	-0.08
752.528	-0.1
752.705	-0.11
752.882	-0.1
753.06	-0.04
753.237	0.03
753.414	0.08
753.591	0.14
753.768	-0.05
753.945	-0.05
754.122	-0.03
754.299	0.04
754.476	-0.12
754.654	-0.04
754.831	0.12
755.008	-0.01
755.185	-0.07
755.362	-0.04
755.539	0.08
755.716	-0.14
755.892	-0.07
756.069	-0.07
756.246	0.05
756.423	-0.13
756.6	0.08
756.777	-0.11
756.954	0.07
757.131	0
757.307	-0.11
757.484	-0.16
757.661	0.01
757.838	-0.06
758.015	-0.05
758.191	-0
758.368	-0.07
758.545	0.19
758.721	0.1
758.898	-0.16
759.075	0.11
759.251	0.09
759.428	-0.03
759.605	-0.12
759.781	-0.01
759.958	-0.07
760.134	0.01
760.311	-0.11
760.488	0.1
760.664	0.13
760.841	-0.11
761.017	-0.14
761.194	0.13
761.37	-0.03
761.547	-0.03
761.723	0
761.899	-0.01
762.076	-0.05
762.252	-0.15
762.429	-0.08
762.605	0.08
762.781	-0.09
762.958	0.05
763.134	0.01
763.31	-0.09
763.486	0.11
763.663	-0.23
763.839	0.18
764.015	-0.17
764.191	-0.14
764.368	-0.13
764.544	-0.12
764.72	0.07
764.896	0.14
765.072	0.04
765.248	-0.02
765.425	0.02
765.601	-0.01
765.777	0.01
765.953	-0.22
766.129	-0.04
766.305	-0.09
766.481	0.09
766.657	0.03
766.833	0.11
767.009	-0.13
767.185	-0.16
767.361	0.04
767.537	-0.12
767.713	0.18
767.889	-0.17
768.065	-0.1
768.24	-0.22
768.416	0.13
768.592	0.07
768.768	-0.13
768.944	0.01
769.12	-0.17
769.295	-0.16
769.471	-0.03
769.647	0.08
769.823	0.18
769.998	-0.17
770.174	-0.11
770.35	0.41
770.525	0.21
770.701	-0.18
770.877	-0.19
771.052	-0.03
771.228	0
771.403	0.05
771.579	0.04
771.755	0.25
771.93	-0.08
772.106	-0.09
772.281	-0.23
772.457	-0.02
772.632	0.15
772.808	-0.19
772.983	-0.08
773.159	-0.25
773.334	0.16
773.509	0.01
773.685	-0.11
773.86	0.32
774.036	0.07
774.211	-0.01
774.386	-0.04
774.562	-0.14
774.737	0.04
774.912	-0.14
775.087	0.02
775.263	0.06
775.438	-0.04
775.613	-0.16
775.788	-0.13
775.964	0.06
776.139	0.27
776.314	-0.22
776.489	0.01
776.664	0.12
776.839	-0.22
777.014	0.15
777.19	0.15
777.365	0.29
777.54	0.14
777.715	-0.06
777.89	-0.11
778.065	-0.03
778.24	-0.05
778.415	0.05
778.59	-0.16
778.765	-0.06
778.94	0.14
779.115	-0.07
779.289	-0.08
779.464	0.06
779.639	-0.1
779.814	-0.37
779.989	-0.31
780.164	0.09
780.339	0
780.513	-0.2
780.688	-0.12
780.863	0.17
781.038	0.19
781.212	-0.29
781.387	0
781.562	0.29
781.737	0.17
781.911	0.18
782.086	-0.03
782.261	-0.08
782.435	0.1
782.61	-0.11
782.784	-0.08
782.959	0.29
783.134	-0.11
783.308	-0.33
783.483	-0.15
783.657	0.29
783.832	0.01
784.006	-0.36
784.181	0.07
784.355	0.14
784.53	-0.3
784.704	-0.15
784.878	0.27
785.053	-0.1
785.227	0.25
785.402	0.35
785.576	-0.04
785.75	-0.35
785.925	-0.05
786.099	-0.08
786.273	-0.01
786.448	0.2
786.622	0.05
786.796	0.01
786.97	-0.15
787.145	0.49
787.319	-0.07
787.493	-0.38
787.667	-0.32
787.841	-0.08
788.015	0.35
788.19	-0.02
788.364	0.02
788.538	0.09
788.712	0.13
788.886	-0.08
789.06	0.14
789.234	0.19
789.408	-0.21
789.582	-0.15
789.756	-0.35
789.93	-0.2
790.104	-0.13
790.278	-0.21
790.452	-0.23
790.626	-0.01
790.8	-0.03
790.973	0.08
791.147	0.34
791.321	0.4
791.495	0.25
791.669	0.03
791.843	0.07
792.016	0.05
792.19	0.25
792.364	-0.27
792.538	0.19
792.711	0.17
792.885	-0.18
793.059	-0.32
793.233	-0.45
793.406	0.3
793.58	0.24
793.754	0.03
793.927	-0.15
794.101	0.03
794.274	0.08
794.448	0.27
794.622	-0.23
794.795	0.42
794.969	-0.01
795.142	0.1
795.316	0.01
795.489	0.04
795.663	0.35
795.836	-0.09
796.009	-0.28
796.183	0.19
796.356	-0.09
796.53	0.08
796.703	-0.17
796.876	0.48
797.05	0.01
797.223	-0.06
797.396	0.15
797.57	0.06
797.743	0.27
797.916	-0.08
798.09	-0.17
798.263	0.1
798.436	0.1
798.609	-0.17
798.782	-0.36
798.956	0.24
799.129	0.04
799.302	0.04
799.475	-0.17
799.648	-0.28
799.821	-0.32
799.994	-0.03
800.167	-0.55
800.34	-0.14
800.514	-0.02
800.687	-0.23
800.86	-0.06
801.033	0.09
801.206	0.17
801.379	-0.51
801.551	0.16
801.724	0.08
801.897	0.41
802.07	-0.25
802.243	-0.51
802.416	-0.02
802.589	-0.04
802.762	0.41
802.935	0.07
803.107	0.11
803.28	0.33
803.453	0.14
803.626	-0.38
803.798	0
803.971	-0.17
804.144	-0.05
804.317	0.04
804.489	0.23
804.662	0.03
804.835	-0.04
805.007	-0.12
805.18	0.42
805.353	0.07
805.525	-0.3
805.698	-0.17
805.87	0.6
806.043	0.24
806.215	-0.09
806.388	-0.12
806.56	0.26
806.733	0.55
806.905	0.27
807.078	-0.29
807.25	-0.38
807.423	0.06
807.595	-0.14
807.768	0.08
807.94	0.25
808.112	0.22
808.285	-0.31
808.457	-0.16
808.629	0.07
808.802	0.23
808.974	0.12
809.146	-0.14
809.318	-0.52
809.491	-0.33
809.663	0.19
809.835	-0.07
810.007	0.14
810.18	-0.08
810.352	-0.19
810.524	-0.55
810.696	0.24
810.868	0.54
811.04	-0.22
811.212	-0.35
811.384	0.27
811.556	0.04
811.728	-0.02
811.901	0.58
812.073	-0.22
812.245	0.12
812.417	-0.28
812.589	-0.69
812.76	0.23
812.932	0.28
813.104	0.24
813.276	-0.4
813.448	0.22
813.62	-0.07
813.792	0.07
813.964	0.05
814.136	0.11
814.307	-0.19
814.479	-0.3
814.651	-0.02
814.823	0.4
814.995	-0.14
815.166	-0.02
815.338	-0.07
815.51	-0.65
815.681	0.81
815.853	-0.2
816.025	0.08
816.196	0.53
816.368	0.33
816.54	-0.66
816.711	-0.35
816.883	0.26
817.054	0.83
817.226	-0.91
817.398	0.06
817.569	-0.16
817.741	0.1
817.912	-0.2
818.084	-0.44
818.255	0.66
818.426	-0.22
818.598	-0.19
818.769	-0.25
818.941	0.48
819.112	0.51
819.283	-0.09
819.455	-0.29
819.626	0.18
819.798	0.44
819.969	-0.12
820.14	-0.15
820.311	-0.12
820.483	0
820.654	0.36
820.825	-0.18
820.996	-0.33
821.168	-0.23
821.339	-0.01
821.51	-0.62
821.681	-0.36
821.852	-0.04
822.023	-0.56
822.195	-0.4
822.366	0.11
822.537	-0.07
822.708	-0.38
822.879	-0.44
823.05	0.58
823.221	0.09
823.392	0.27
823.563	0.19
823.734	-0.08
823.905	-0.03
824.076	-0.38
824.247	-0.71
824.418	-0.01
824.589	0.44
824.759	-0.04
824.93	-0.37
825.101	-1.08
825.272	0.3
825.443	0.71
825.614	0.36
825.784	-1.06
825.955	1.09
826.126	0.17
826.297	0.27
826.467	0.45
826.638	0.93
826.809	-0.84
826.98	-0.6
827.15	0.53
827.321	0.38
827.492	0.55
827.662	0.22
827.833	1.18
828.003	0.58
828.174	-0.67
828.345	-0.61
828.515	0.34
828.686	-0.42
828.856	-0.32
829.027	0.1
829.197	-0.32
829.368	0.26
829.538	-0.38
829.709	-0.73
829.879	0.03
830.049	0.12
830.22	-0.2
830.39	0.14
830.56	0.35
830.731	0.07
830.901	-0.73
831.072	0.22
831.242	-0
831.412	-0.18
831.582	0.06
831.753	-0.72
831.923	0.23
832.093	0.18
832.263	-0.23
832.434	-0.67
832.604	-0.14
832.774	0.67
832.944	-0.08
833.114	-0.44
833.284	0.17
833.454	-0.39
833.624	-0.32
833.795	-0.67
833.965	0.35
834.135	1.01
834.305	-1.37
834.475	-0.26
834.645	0.2
834.815	-0.03
834.985	-0.3
835.155	-0.55
835.325	0.28
835.494	0.14
835.664	-0.45
835.834	-0.81
836.004	-0.27
836.174	-0.25
836.344	-0.18
836.514	-1.06
836.684	0.1
836.853	0.06
837.023	0.1
837.193	-0.67
837.363	0.58
837.532	0.24
837.702	0.04
837.872	-0.15
838.041	0.5
838.211	1.34
838.381	-0.81
838.55	0.16
838.72	1.41
838.89	1.31
839.059	-0.56
839.229	-0.96
839.398	1.04
839.568	0.04
839.738	-0.08
839.907	0.31
840.077	0.08
840.246	-0.82
840.416	-0.78
840.585	-0.14
840.755	1.1
840.924	0.99
841.093	-1.08
841.263	-0.33
841.432	-0.04
841.602	-0.07
841.771	-0.73
841.94	0.24
842.11	2.17
842.279	1.38
842.448	-0.88
842.617	-0.51
842.787	1.3
842.956	-0.69
843.125	-0.05
843.294	0.43
843.464	1.14
843.633	-0.4
843.802	-1.01
843.971	-0.33
844.14	0.03
844.309	0.15
844.479	-1.04
844.648	-1.53
844.817	0.3
844.986	0.53
845.155	0.28
845.324	-0.63
845.493	0.11
845.662	-0.73
845.831	-0.24
846	0.28
846.169	0.05
846.338	1.57
846.507	0.63
846.676	-0.28
846.844	-0.52
847.013	1.44
847.182	-0.6
847.351	-0.3
847.52	-0.02
847.689	0.4
847.858	-0.47
848.026	-0.9
848.195	0.29
848.364	-0.5
848.533	-0.68
848.701	-0.85
848.87	0.49
849.039	0.72
849.207	0.86
849.376	0.29
849.545	1.47
849.713	-0.25
849.882	-0.59
850.051	-0.46
850.219	0.72
850.388	1.02
850.556	-0.77
850.725	-0.8
850.893	0.29
851.062	-0.67
851.23	-0.35
851.399	-1.2
851.567	-0.79
851.736	-0.02
851.904	-1.25
852.073	0.4
852.241	1.13
852.41	0.95
852.578	-0.21
852.746	-1.46
852.915	0.21
853.083	0.51
853.251	-1.94
853.42	-0.55
853.588	0.36
853.756	1.67
853.924	0.13
854.093	-0.58
854.261	-0.16
854.429	-1.09
854.597	0.17
854.765	-0.51
854.934	0.11
855.102	0.72
855.27	-0.29
855.438	0.67
855.606	1.1
855.774	1.45
855.942	-1.97
856.11	-1.1
856.278	-0.43
856.446	-0.21
856.614	-0.46
856.782	-0.31
856.95	1.85
857.118	-0.12
857.286	-0.56
857.454	-1.11
857.622	1.71
857.79	0.86
857.958	-0.61
858.126	-0.29
858.294	-2.43
858.462	-0.08
858.629	-0.83
858.797	-1.04
858.965	0.38
859.133	1.22
859.301	0.16
859.468	1.42
859.636	-0.37
859.804	3.11
859.971	1.22
860.139	-1.71
860.307	0.65
860.474	0.31
860.642	-0.28
860.81	-1.76
860.977	0.24
861.145	0.93
861.313	-0.38
861.48	0.54
861.648	-0.4
861.815	-0.55
861.983	-1.16
862.15	-0.48
862.318	0.99
862.485	1.64
862.653	-0.68
862.82	-0.54
862.988	2.07
863.155	0.89
863.322	-0.59
863.49	-0.39
863.657	-0.2
863.824	2.6
863.992	0.73
864.159	1.21
864.326	0.71
864.494	-0.87
864.661	2.7
864.828	-1.82
864.996	1.64
865.163	1.17
865.33	-1.87
865.497	-3.34
865.664	-0.46
865.832	-1.72
865.999	-1.4
866.166	-2.05
866.333	-2.1
866.5	-2.71
866.667	-0.49
866.834	0.35
867.001	0.81
867.168	-2.65
867.335	0.57
867.502	-3.08
867.669	0.55
867.836	1.44
868.003	-0.87
868.17	1.8
868.337	2.29
868.504	1.97
868.671	-2.19
868.838	-2.06
869.005	-0.43
869.172	0.63
869.339	0.54
869.505	-0.56
869.672	0.56
869.839	1.76
870.006	0.08
870.173	-2.11
870.339	0.62
870.506	4.12
870.673	-1.7
870.84	3.03
871.006	-0.47
871.173	-1.03
871.34	0.8
871.506	-0.74
871.673	0.1
871.839	-1.12
872.006	-0.57
872.173	-0.97
872.339	0.78
872.506	1.31
872.672	0.73
872.839	-0.23
873.005	-0.56
873.172	0.85
873.338	0.34
873.505	0.69
873.671	-1.24
873.838	1.02
874.004	-1.6
874.171	-0.42
874.337	1.53
874.503	1.86
874.67	-1.51
874.836	-1.14
875.002	2.27
875.169	1.58
875.335	0.42
875.501	-1.47
875.668	0.6
875.834	-0.49
876	-0.55
876.166	-0.84
876.332	1.12
876.499	3.65
876.665	-0.4
876.831	1.14
876.997	3.9
877.163	-1.25
877.329	-1.97
877.495	-0.38
877.662	-0.11
877.828	1.32
877.994	-0.48
878.16	-2.42
878.326	-0.77
878.492	1.08
878.658	-0.81
878.824	1.38
878.99	1.29
879.156	-0.78
879.322	3.33
879.487	-1.77
879.653	2.17
879.819	-1.04
879.985	-1.32
880.151	1.31
880.317	1.84
880.483	-0.2
880.648	0.79
880.814	-3.9
880.98	0.25
881.146	-2.87
881.312	-2.27
881.477	-2.31
881.643	1.09
881.809	0.94
881.974	0.96
882.14	-1.37
882.306	-0.94
882.471	2.96
882.637	0.53
882.803	1.67
882.968	1.37
883.134	3.54
883.299	-0.5
883.465	-0.39
883.63	1.74
883.796	0.88
883.961	0.93
884.127	1.21
884.292	-6.03
884.458	-1.18
884.623	-1.18
