Data from Apollo_Calib_20240827__AbsoluteIrradiance__88__00-37-00-069.txt Node

Date: Wed Aug 28 00:37:00 BST 2024
User: biology
Spectrometer: FLMT08252
Trigger mode: 0
Integration Time (sec): 5.000000E-1
Scans to average: 5
Electric dark correction enabled: true
Nonlinearity correction enabled: false
Boxcar width: 0
XAxis mode: Wavelengths
Number of Pixels in Spectrum: 3648
>>>>>Begin Spectral Data<<<<<
179.588	-0
179.809	-0
180.03	-0
180.251	-0
180.473	-0
180.694	0
180.915	0
181.136	-0
181.357	0
181.578	-0
181.799	-0
182.02	-0
182.241	0
182.462	-0
182.683	0
182.904	-0
183.125	-0
183.346	-0
183.567	0
183.788	-0
184.009	-0
184.23	0
184.451	0
184.672	-0
184.892	-0
185.113	0
185.334	0
185.555	-0
185.776	-0
185.996	0
186.217	-0
186.438	0
186.659	-0
186.879	0
187.1	-0
187.321	-0
187.541	-0
187.762	0
187.983	0
188.203	0
188.424	0
188.644	-0
188.865	-0
189.086	-0
189.306	-0
189.527	-0
189.747	0
189.968	-0
190.188	0
190.409	-0
190.629	0
190.849	-0
191.07	-0
191.29	0
191.511	0
191.731	-0
191.951	-0
192.172	-0
192.392	-0
192.612	0
192.833	0
193.053	0
193.273	0
193.493	-0
193.714	-0
193.934	0
194.154	0
194.374	0
194.594	-0
194.815	-0
195.035	-0
195.255	0
195.475	-0
195.695	0
195.915	0
196.135	-0
196.355	0
196.575	0
196.795	-0
197.015	-0
197.235	-0
197.455	-0
197.675	0
197.895	-0
198.115	-0
198.335	0
198.555	0
198.775	-0
198.995	0
199.214	0
199.434	-0
199.654	-0
199.874	-0
200.094	1.33
200.313	-0.14
200.533	-0.57
200.753	-0.67
200.973	0.92
201.192	-0.02
201.412	-1.47
201.632	-0.96
201.851	0.58
202.071	-0.61
202.291	-0.71
202.51	-0.48
202.73	0.73
202.95	-0.1
203.169	-0.35
203.389	-0.14
203.608	0.03
203.828	-0.7
204.047	-0.4
204.267	0.25
204.486	-0.2
204.706	0.17
204.925	-0.03
205.145	-0.19
205.364	0.2
205.583	0.48
205.803	-0.44
206.022	-0.47
206.242	0.07
206.461	0.14
206.68	-0.47
206.9	0.28
207.119	0.4
207.338	0.49
207.557	-0.14
207.777	-0.21
207.996	-0.03
208.215	0.29
208.434	-0.27
208.654	-0.09
208.873	0.07
209.092	0.45
209.311	-0.04
209.53	-0.44
209.749	0.05
209.968	-0.17
210.187	-0.36
210.407	-0.34
210.626	-0.27
210.845	-0.01
211.064	0.06
211.283	-0.24
211.502	0.14
211.721	-0.03
211.94	-0.05
212.159	0.07
212.377	0.21
212.596	0.28
212.815	-0.22
213.034	0.2
213.253	0.32
213.472	0.22
213.691	-0.01
213.91	-0.13
214.128	-0.16
214.347	0.39
214.566	-0.2
214.785	-0.43
215.003	0.12
215.222	0.06
215.441	0.06
215.66	-0.2
215.878	-0.25
216.097	0.32
216.316	-0.38
216.534	-0.02
216.753	0.02
216.972	0.05
217.19	-0.05
217.409	-0.11
217.627	-0.2
217.846	-0.01
218.064	-0.06
218.283	-0.09
218.501	0.37
218.72	0.03
218.938	-0.17
219.157	-0.05
219.375	0.26
219.594	0.27
219.812	-0.29
220.031	-0.08
220.249	0.01
220.467	0.1
220.686	0.01
220.904	-0.23
221.122	-0.16
221.341	0.16
221.559	-0.03
221.777	-0.06
221.995	-0.04
222.214	0.1
222.432	-0.15
222.65	0.09
222.868	0.02
223.086	-0.04
223.305	0.1
223.523	0
223.741	0.2
223.959	-0.18
224.177	-0.32
224.395	-0.04
224.613	0.04
224.831	0.08
225.049	-0.31
225.267	-0.17
225.485	0.08
225.703	-0.02
225.921	0.09
226.139	-0.02
226.357	0.01
226.575	0.07
226.793	-0.12
227.011	0.37
227.229	0.05
227.447	0.11
227.665	-0.19
227.883	-0.23
228.1	0.07
228.318	0.04
228.536	-0.21
228.754	-0.15
228.972	0.03
229.189	0
229.407	-0.08
229.625	-0.08
229.843	0.09
230.06	0.09
230.278	-0.03
230.496	-0.04
230.713	0.01
230.931	0.16
231.149	0.05
231.366	-0.25
231.584	-0.02
231.801	0.22
232.019	0.04
232.236	-0.1
232.454	-0.14
232.671	-0.01
232.889	-0.1
233.106	-0.2
233.324	0.1
233.541	0.04
233.759	-0.03
233.976	-0.01
234.194	-0.03
234.411	-0.06
234.628	-0.13
234.846	-0.05
235.063	-0.12
235.28	-0.07
235.498	-0
235.715	-0.12
235.932	0.14
236.149	0.05
236.367	-0.1
236.584	0.04
236.801	-0.05
237.018	0.02
237.236	-0.03
237.453	-0.22
237.67	0.05
237.887	-0.1
238.104	-0.04
238.321	-0.09
238.538	-0.11
238.755	0.09
238.973	-0.2
239.19	0.01
239.407	0.03
239.624	0.04
239.841	-0.09
240.058	-0.11
240.275	0.03
240.492	-0.09
240.709	0.08
240.925	-0.06
241.142	0.08
241.359	-0.14
241.576	-0.09
241.793	-0.03
242.01	0.04
242.227	0.16
242.444	-0.02
242.66	0.01
242.877	0.12
243.094	-0.07
243.311	0.03
243.527	-0.02
243.744	0.05
243.961	0.08
244.178	-0.13
244.394	-0.01
244.611	0.08
244.828	0.13
245.044	-0.11
245.261	-0.03
245.477	0.03
245.694	-0.02
245.911	-0.05
246.127	0.01
246.344	0.17
246.56	0.1
246.777	-0.03
246.993	-0.01
247.21	0.03
247.426	0.02
247.643	-0.09
247.859	-0.15
248.076	-0.02
248.292	0.18
248.508	-0.06
248.725	-0.06
248.941	0.07
249.157	0.1
249.374	-0.06
249.59	0.01
249.806	-0.04
250.023	0.06
250.239	-0.05
250.455	-0.09
250.671	0.04
250.888	0.03
251.104	0.04
251.32	-0.07
251.536	-0.04
251.752	0.06
251.969	0
252.185	0.07
252.401	0.2
252.617	0.03
252.833	-0.08
253.049	-0
253.265	0.03
253.481	0.11
253.697	-0.02
253.913	-0.11
254.129	0.06
254.345	0.02
254.561	0.01
254.777	-0.02
254.993	0.08
255.209	0.03
255.425	-0.01
255.641	-0.08
255.857	0.04
256.073	0.02
256.288	-0.1
256.504	0.01
256.72	-0.01
256.936	0.14
257.152	0.02
257.367	-0.07
257.583	-0.04
257.799	-0.01
258.015	-0.06
258.23	-0.05
258.446	0.1
258.662	-0.01
258.877	-0.09
259.093	-0.04
259.309	0.05
259.524	0.05
259.74	-0.02
259.955	-0.06
260.171	-0.03
260.387	0.02
260.602	0.05
260.818	0.05
261.033	-0.02
261.249	-0.07
261.464	-0.01
261.68	-0.07
261.895	-0.03
262.11	0.06
262.326	-0.09
262.541	-0.1
262.757	0.08
262.972	0.03
263.187	-0
263.403	0.02
263.618	0.03
263.833	-0.07
264.049	-0.06
264.264	-0.02
264.479	0.06
264.694	0.04
264.91	-0.09
265.125	-0.03
265.34	0.08
265.555	0.13
265.77	0.02
265.986	-0.08
266.201	-0.03
266.416	0.06
266.631	-0.02
266.846	-0.02
267.061	0.02
267.276	0.06
267.491	-0.09
267.706	0.02
267.921	-0.01
268.136	0.02
268.351	0.02
268.566	-0.08
268.781	0.12
268.996	0.04
269.211	0.02
269.426	-0.05
269.641	-0.03
269.856	0.08
270.071	-0.09
270.285	-0.04
270.5	0.06
270.715	0.02
270.93	0.02
271.145	-0.03
271.359	-0
271.574	-0.04
271.789	0.06
272.004	-0.06
272.218	-0
272.433	0.02
272.648	-0.07
272.862	0.04
273.077	-0.03
273.292	-0.01
273.506	-0.05
273.721	-0.01
273.936	0.08
274.15	-0.01
274.365	-0.03
274.579	0.06
274.794	-0.02
275.008	0.04
275.223	-0.08
275.437	0.04
275.652	0.09
275.866	0.02
276.081	-0.01
276.295	0.08
276.509	-0.05
276.724	-0.04
276.938	-0.01
277.153	0.02
277.367	0.04
277.581	0.02
277.796	-0.06
278.01	-0.03
278.224	0.08
278.438	0.06
278.653	-0.08
278.867	-0.06
279.081	-0.15
279.295	-0.06
279.51	0.05
279.724	-0.11
279.938	0.08
280.152	0.01
280.366	-0.08
280.58	0.04
280.794	0.08
281.008	0.07
281.222	0.05
281.437	0.11
281.651	0.06
281.865	0.08
282.079	-0.02
282.293	-0.07
282.507	-0.1
282.721	0.01
282.935	0.04
283.148	-0.05
283.362	0.01
283.576	-0.06
283.79	-0.02
284.004	-0.07
284.218	0.03
284.432	-0.01
284.646	-0.02
284.859	-0.07
285.073	-0.04
285.287	0.04
285.501	-0.03
285.714	-0.01
285.928	-0.01
286.142	-0.01
286.356	0
286.569	-0.04
286.783	0.08
286.997	0.05
287.21	-0.03
287.424	0.03
287.637	0.04
287.851	0.02
288.065	-0.01
288.278	0.02
288.492	0.01
288.705	0
288.919	0.05
289.132	-0.04
289.346	0.08
289.559	-0.06
289.773	-0.05
289.986	-0.03
290.2	0.01
290.413	0.05
290.626	-0.04
290.84	0.01
291.053	0.03
291.267	0.06
291.48	-0.01
291.693	-0.04
291.906	-0.04
292.12	0.04
292.333	0.01
292.546	0.04
292.76	0.08
292.973	0.03
293.186	0.05
293.399	-0.01
293.612	0.09
293.826	-0.04
294.039	-0.04
294.252	-0.03
294.465	0.04
294.678	0.01
294.891	0.03
295.104	0
295.317	0.01
295.53	0.01
295.743	0.01
295.956	-0.01
296.169	0.05
296.382	0.03
296.595	0.02
296.808	-0
297.021	0.07
297.234	0.05
297.447	-0.01
297.66	0.03
297.873	0.04
298.086	0.06
298.299	-0.05
298.511	-0.05
298.724	-0.02
298.937	-0.06
299.15	-0.01
299.363	0.01
299.575	0.05
299.788	0.01
300.001	0.01
300.213	-0.01
300.426	-0.02
300.639	-0.03
300.852	-0.02
301.064	0
301.277	0.04
301.489	0.02
301.702	0.03
301.915	-0
302.127	0
302.34	0.07
302.552	0.05
302.765	-0.06
302.977	0.03
303.19	-0.01
303.402	-0.02
303.615	0.02
303.827	-0.06
304.04	0.04
304.252	0.01
304.464	0.01
304.677	0.1
304.889	0.01
305.102	-0.05
305.314	-0.03
305.526	0.04
305.739	0.04
305.951	-0.02
306.163	-0.04
306.375	0.04
306.588	-0.01
306.8	-0.02
307.012	-0.04
307.224	0.02
307.436	0.05
307.649	-0.08
307.861	-0.01
308.073	0.02
308.285	-0
308.497	-0.07
308.709	0.01
308.921	0.02
309.133	0.04
309.346	0.02
309.558	-0.02
309.77	0.06
309.982	0.06
310.194	0.04
310.406	0.04
310.617	0.06
310.829	0.02
311.041	0.03
311.253	-0.04
311.465	-0.03
311.677	0.02
311.889	-0.02
312.101	-0.04
312.313	0.05
312.524	0.03
312.736	-0.06
312.948	-0.01
313.16	0.09
313.372	0.05
313.583	0.04
313.795	-0.03
314.007	-0.03
314.218	0.06
314.43	-0.02
314.642	-0.03
314.853	-0.03
315.065	0.02
315.277	-0.01
315.488	0.05
315.7	0.01
315.912	0.03
316.123	-0
316.335	-0
316.546	0.08
316.758	-0.01
316.969	-0
317.181	-0.01
317.392	-0.01
317.604	0.06
317.815	-0.05
318.026	-0.02
318.238	0.01
318.449	0.02
318.661	-0.05
318.872	-0.02
319.083	-0.05
319.295	0.05
319.506	-0.02
319.717	0.03
319.929	-0.02
320.14	0.04
320.351	0.02
320.562	-0.02
320.774	-0.01
320.985	-0
321.196	-0.07
321.407	-0.06
321.618	0.03
321.829	-0.02
322.041	0.02
322.252	-0
322.463	0.02
322.674	0.02
322.885	-0.04
323.096	-0
323.307	-0.01
323.518	0.01
323.729	-0.03
323.94	0.03
324.151	-0.04
324.362	0.02
324.573	0.02
324.784	-0.05
324.995	0.07
325.206	0.02
325.417	-0.03
325.628	-0.01
325.838	0.03
326.049	0.03
326.26	0.04
326.471	-0
326.682	0.06
326.892	-0.01
327.103	-0.05
327.314	-0.07
327.525	0.07
327.735	-0.01
327.946	-0.02
328.157	-0
328.368	0.02
328.578	-0.02
328.789	0.04
328.999	0.01
329.21	-0.02
329.421	0.04
329.631	-0.01
329.842	-0.02
330.052	-0.01
330.263	0.02
330.473	0.03
330.684	-0.01
330.894	-0
331.105	0
331.315	-0.03
331.526	-0.07
331.736	0.09
331.947	0.06
332.157	0.02
332.367	-0.01
332.578	0.04
332.788	0.06
332.999	0.01
333.209	-0.01
333.419	-0.02
333.629	0.04
333.84	0.05
334.05	-0.01
334.26	0.08
334.47	-0.02
334.681	0.06
334.891	0.01
335.101	0.04
335.311	0.07
335.521	-0
335.732	-0.05
335.942	0.05
336.152	0.07
336.362	0.01
336.572	0
336.782	0.04
336.992	-0.01
337.202	0
337.412	-0.06
337.622	0.03
337.832	-0
338.042	-0
338.252	-0.07
338.462	0.03
338.672	-0.02
338.882	-0
339.092	0
339.302	0.08
339.511	0.05
339.721	0.01
339.931	-0
340.141	0.04
340.351	0.03
340.561	0.02
340.77	0.01
340.98	0.01
341.19	0.02
341.4	-0.01
341.609	-0
341.819	0.03
342.029	-0
342.238	0.03
342.448	-0.04
342.658	0.06
342.867	0.01
343.077	0.03
343.286	0.03
343.496	0.01
343.706	0.05
343.915	-0.02
344.125	0.04
344.334	0.04
344.544	-0.02
344.753	0
344.963	0.01
345.172	-0.05
345.381	-0.03
345.591	-0.04
345.8	0.01
346.01	0.08
346.219	0.06
346.428	-0.11
346.638	-0
346.847	0
347.056	0.05
347.266	-0
347.475	0
347.684	0.02
347.893	-0.01
348.103	0.02
348.312	0
348.521	-0.04
348.73	0.01
348.94	0.01
349.149	0.02
349.358	-0
349.567	0.04
349.776	-0.01
349.985	-0.02
350.194	0.02
350.403	0.04
350.612	-0.04
350.821	-0.02
351.03	0.02
351.239	-0.06
351.448	-0.01
351.657	0
351.866	0.08
352.075	0.03
352.284	0.05
352.493	-0.03
352.702	0.06
352.911	0.03
353.12	0.04
353.329	-0.02
353.538	0.01
353.746	-0.02
353.955	-0.03
354.164	0.01
354.373	0.03
354.582	0.05
354.79	0.02
354.999	0.07
355.208	-0.02
355.416	0.02
355.625	-0.03
355.834	-0.02
356.042	0.03
356.251	0.01
356.46	-0.04
356.668	0.01
356.877	0.1
357.085	0.06
357.294	-0.08
357.503	0.03
357.711	0
357.92	0.11
358.128	0
358.337	0.02
358.545	0
358.754	-0.01
358.962	0.03
359.17	0.01
359.379	0.02
359.587	0.06
359.796	-0.02
360.004	0.07
360.212	0.02
360.421	0.07
360.629	0.01
360.837	-0.01
361.046	0.04
361.254	0.11
361.462	0.04
361.67	0.04
361.879	-0.02
362.087	0.02
362.295	0.04
362.503	-0.01
362.711	-0.04
362.92	-0.01
363.128	0.01
363.336	-0.05
363.544	-0.04
363.752	0
363.96	-0.03
364.168	0.02
364.376	0.02
364.584	0.02
364.792	0.01
365	0.06
365.208	0.02
365.416	0.02
365.624	0.07
365.832	-0.02
366.04	0.07
366.248	0.04
366.456	0.01
366.664	0.03
366.872	0.04
367.079	0.02
367.287	0
367.495	0.04
367.703	0.03
367.911	0.04
368.118	0.06
368.326	0.03
368.534	-0.02
368.742	0.12
368.949	0.02
369.157	0.03
369.365	0.12
369.572	0.05
369.78	0.03
369.988	0.11
370.195	0.14
370.403	0.15
370.61	0.14
370.818	0.14
371.026	0.19
371.233	0.12
371.441	0.17
371.648	0.13
371.856	0.23
372.063	0.2
372.271	0.17
372.478	0.16
372.685	0.19
372.893	0.31
373.1	0.24
373.308	0.28
373.515	0.36
373.722	0.35
373.93	0.36
374.137	0.38
374.344	0.5
374.552	0.46
374.759	0.46
374.966	0.4
375.173	0.47
375.381	0.52
375.588	0.53
375.795	0.46
376.002	0.53
376.209	0.56
376.417	0.64
376.624	0.69
376.831	0.67
377.038	0.71
377.245	0.7
377.452	0.78
377.659	0.86
377.866	0.83
378.073	0.99
378.28	0.98
378.487	1.11
378.694	1.12
378.901	1.17
379.108	1.19
379.315	1.3
379.522	1.4
379.729	1.36
379.936	1.37
380.143	1.51
380.35	1.53
380.557	1.64
380.763	1.63
380.97	1.67
381.177	1.82
381.384	1.85
381.591	1.86
381.797	1.85
382.004	1.96
382.211	2.02
382.418	1.93
382.624	2.02
382.831	1.98
383.038	2.02
383.244	1.96
383.451	1.93
383.658	1.92
383.864	1.92
384.071	1.82
384.277	1.82
384.484	1.72
384.69	1.78
384.897	1.65
385.103	1.62
385.31	1.51
385.516	1.43
385.723	1.42
385.929	1.37
386.136	1.27
386.342	1.22
386.549	1.18
386.755	1.22
386.961	1.12
387.168	1.08
387.374	1.03
387.58	1.03
387.787	0.92
387.993	0.89
388.199	0.83
388.406	0.8
388.612	0.77
388.818	0.7
389.024	0.64
389.231	0.69
389.437	0.78
389.643	0.71
389.849	0.62
390.055	0.62
390.261	0.61
390.467	0.6
390.674	0.57
390.88	0.52
391.086	0.57
391.292	0.49
391.498	0.53
391.704	0.5
391.91	0.5
392.116	0.42
392.322	0.35
392.528	0.48
392.734	0.38
392.94	0.41
393.146	0.34
393.352	0.36
393.557	0.41
393.763	0.34
393.969	0.38
394.175	0.31
394.381	0.33
394.587	0.28
394.792	0.26
394.998	0.33
395.204	0.32
395.41	0.25
395.615	0.32
395.821	0.26
396.027	0.28
396.233	0.22
396.438	0.27
396.644	0.23
396.85	0.28
397.055	0.24
397.261	0.21
397.466	0.27
397.672	0.18
397.878	0.14
398.083	0.2
398.289	0.12
398.494	0.24
398.7	0.15
398.905	0.09
399.111	0.21
399.316	0.14
399.522	0.19
399.727	0.13
399.932	0.09
400.138	0.12
400.343	0.16
400.549	0.17
400.754	0.14
400.959	0.13
401.165	0.09
401.37	0.15
401.575	0.1
401.78	0.07
401.986	0.11
402.191	0.1
402.396	0.1
402.601	0.15
402.807	0.12
403.012	0.1
403.217	0.14
403.422	0.11
403.627	0.09
403.832	0.04
404.037	0.07
404.243	0.12
404.448	0.06
404.653	0.1
404.858	0.14
405.063	0.11
405.268	0.05
405.473	0.05
405.678	0.01
405.883	0.19
406.088	0.1
406.293	0.01
406.498	0.04
406.703	0.08
406.907	0.05
407.112	-0
407.317	0.06
407.522	0.07
407.727	0.05
407.932	0.05
408.136	0.14
408.341	0.08
408.546	0.08
408.751	0.07
408.956	0.05
409.16	0.08
409.365	0.07
409.57	-0.01
409.774	0.05
409.979	0.07
410.184	0.04
410.388	0.03
410.593	0.08
410.798	0.06
411.002	0.04
411.207	0.04
411.411	0.07
411.616	0.01
411.82	0
412.025	0.09
412.229	0.02
412.434	0.12
412.638	0.07
412.843	0.01
413.047	0.04
413.252	0.04
413.456	0.05
413.66	0.07
413.865	0.02
414.069	0.09
414.273	0.01
414.478	0.01
414.682	0.04
414.886	0.02
415.091	-0.05
415.295	-0.04
415.499	0.01
415.703	-0.01
415.908	0.06
416.112	-0.03
416.316	0.06
416.52	0.06
416.724	-0.04
416.929	0
417.133	0.1
417.337	0
417.541	-0.02
417.745	0.01
417.949	0.03
418.153	0.04
418.357	0.01
418.561	0.09
418.765	-0.02
418.969	0.17
419.173	0.05
419.377	-0.01
419.581	0.1
419.785	0
419.989	-0.01
420.193	0.03
420.397	-0.03
420.601	0.05
420.804	0.06
421.008	0.01
421.212	0.01
421.416	0.07
421.62	-0.02
421.823	0.01
422.027	0.1
422.231	0.02
422.435	0.02
422.638	0.06
422.842	0.02
423.046	0
423.249	0.03
423.453	0.06
423.657	0.05
423.86	0.04
424.064	0.01
424.268	0.05
424.471	0.06
424.675	0.12
424.878	0.09
425.082	0
425.285	0.1
425.489	0.05
425.692	0.05
425.896	0
426.099	0.04
426.303	-0.02
426.506	-0.06
426.71	0.03
426.913	0.05
427.116	0.03
427.32	-0
427.523	0.05
427.726	0.09
427.93	0.01
428.133	0.01
428.336	0.02
428.54	-0.02
428.743	0.04
428.946	0.12
429.149	-0
429.353	0.02
429.556	0.05
429.759	0.01
429.962	-0.01
430.165	0.03
430.368	0.04
430.571	0.02
430.775	0.01
430.978	-0.01
431.181	0.08
431.384	0.06
431.587	0.01
431.79	0.08
431.993	-0.03
432.196	0.01
432.399	0.01
432.602	0.12
432.805	0.04
433.008	0.02
433.211	-0.05
433.414	0.02
433.616	0.08
433.819	0.02
434.022	-0.03
434.225	0.08
434.428	0.09
434.631	0.1
434.833	0.05
435.036	-0.01
435.239	0.06
435.442	0.05
435.645	0.04
435.847	0.07
436.05	0.07
436.253	0.01
436.455	-0.03
436.658	0.01
436.861	0.15
437.063	0.02
437.266	0.03
437.468	0.07
437.671	0.14
437.874	0.09
438.076	0.01
438.279	-0.06
438.481	0.02
438.684	0.01
438.886	0.09
439.089	-0.04
439.291	0.02
439.494	0.04
439.696	0.01
439.899	0.03
440.101	0.07
440.303	-0.01
440.506	0.06
440.708	0.07
440.91	0.06
441.113	-0.04
441.315	0.06
441.517	0.04
441.72	0.07
441.922	-0.01
442.124	0.01
442.326	0.07
442.529	0.11
442.731	-0.01
442.933	0.14
443.135	0.07
443.337	0.07
443.539	0.05
443.742	0.02
443.944	0.1
444.146	0.01
444.348	0.08
444.55	0.03
444.752	0.1
444.954	0.03
445.156	0.11
445.358	0.08
445.56	0.09
445.762	0.03
445.964	0.07
446.166	0.03
446.368	0.05
446.57	0.09
446.772	0.07
446.974	0.1
447.175	0.09
447.377	0.02
447.579	0.06
447.781	-0
447.983	0.12
448.184	0.05
448.386	0.09
448.588	0.01
448.79	0.07
448.991	0.06
449.193	0.05
449.395	0.08
449.597	0.12
449.798	0.12
450	0.07
450.202	0.07
450.403	0.03
450.605	0.07
450.806	0.1
451.008	0.01
451.21	0.07
451.411	0.11
451.613	0.06
451.814	0.09
452.016	0.07
452.217	0.06
452.419	0.08
452.62	0.04
452.821	0.07
453.023	0.14
453.224	0.1
453.426	0.07
453.627	0.1
453.828	0.08
454.03	0.07
454.231	0.03
454.432	0
454.634	0.12
454.835	0
455.036	-0.02
455.238	0.11
455.439	0.11
455.64	0.03
455.841	0.04
456.042	0.13
456.244	0.08
456.445	0.02
456.646	0.01
456.847	0.05
457.048	0.09
457.249	0.1
457.45	0.21
457.651	-0.01
457.852	0.12
458.054	0.09
458.255	0.04
458.456	0.06
458.657	0.08
458.858	0
459.058	0.06
459.259	0.09
459.46	0.03
459.661	0.02
459.862	0.15
460.063	-0.02
460.264	0.05
460.465	-0.03
460.666	0.11
460.866	0.09
461.067	0.04
461.268	0.03
461.469	-0.01
461.67	0.04
461.87	-0.01
462.071	-0.04
462.272	-0.01
462.473	0.05
462.673	0.08
462.874	-0.04
463.075	0.01
463.275	-0.02
463.476	0.06
463.676	-0
463.877	-0
464.078	0.03
464.278	0.09
464.479	0.01
464.679	0.04
464.88	0.02
465.08	0.11
465.281	-0.04
465.481	0.01
465.682	0.04
465.882	0.03
466.083	0.01
466.283	0.01
466.483	0.06
466.684	-0.06
466.884	0
467.085	0.01
467.285	0.08
467.485	-0.04
467.686	0.03
467.886	0.01
468.086	0
468.286	0.04
468.487	0.03
468.687	-0.01
468.887	-0
469.087	0.04
469.287	-0.02
469.488	-0.04
469.688	0.01
469.888	0.04
470.088	0.05
470.288	0.08
470.488	0.01
470.688	-0.01
470.888	0.02
471.088	0
471.288	0.05
471.488	0.05
471.688	0
471.888	0.02
472.088	0.1
472.288	0.04
472.488	-0.03
472.688	-0.03
472.888	0.01
473.088	0.04
473.288	0.01
473.488	0.05
473.688	0.09
473.887	-0.02
474.087	0.01
474.287	0.02
474.487	-0.02
474.687	0.06
474.886	-0.03
475.086	0.05
475.286	0.03
475.486	0.03
475.685	0.02
475.885	-0
476.085	0.02
476.284	0.05
476.484	-0.01
476.684	0.07
476.883	0.02
477.083	0.03
477.282	-0
477.482	0.07
477.681	0.09
477.881	0.04
478.08	-0.05
478.28	-0.03
478.479	0.02
478.679	0.07
478.878	-0.01
479.078	-0.02
479.277	-0
479.477	0.01
479.676	0.05
479.875	0.01
480.075	-0.05
480.274	0.03
480.473	0.02
480.673	-0.03
480.872	0.03
481.071	0.02
481.271	0.01
481.47	0.02
481.669	0
481.868	-0.02
482.067	-0
482.267	-0.03
482.466	-0.04
482.665	-0.02
482.864	-0.01
483.063	-0.02
483.262	0.04
483.461	0.04
483.661	0.04
483.86	0.03
484.059	0.03
484.258	-0.01
484.457	0.01
484.656	0.02
484.855	0.05
485.054	-0.02
485.253	-0.02
485.452	-0.05
485.651	0.02
485.849	0.01
486.048	-0.02
486.247	-0.02
486.446	-0.02
486.645	-0.04
486.844	-0
487.043	0.01
487.241	0.03
487.44	-0.01
487.639	-0.01
487.838	0.03
488.037	-0.01
488.235	0.05
488.434	0.01
488.633	0
488.831	0.03
489.03	0.06
489.229	0.02
489.427	-0.02
489.626	0.03
489.825	0.06
490.023	0.02
490.222	-0.02
490.42	0.03
490.619	0.02
490.817	0.02
491.016	-0.01
491.214	0.05
491.413	-0.01
491.611	0.02
491.81	0.01
492.008	0.04
492.207	0.05
492.405	0.02
492.604	-0.05
492.802	-0.01
493	0.01
493.199	-0.02
493.397	0.02
493.595	0.01
493.794	-0
493.992	0.04
494.19	-0.01
494.388	0.02
494.587	-0.03
494.785	0.01
494.983	-0.03
495.181	-0
495.379	-0.01
495.578	-0.02
495.776	0.04
495.974	0.02
496.172	0.01
496.37	0.01
496.568	-0
496.766	-0.03
496.964	0.01
497.162	0.01
497.36	-0.02
497.558	0.02
497.756	0
497.954	0.01
498.152	-0.01
498.35	0.03
498.548	-0.01
498.746	0
498.944	-0.01
499.142	-0
499.34	-0.03
499.538	0.02
499.736	-0.02
499.933	0.05
500.131	0.04
500.329	-0.01
500.527	0.05
500.725	0.03
500.922	0.01
501.12	0.02
501.318	0.02
501.516	-0.01
501.713	0.01
501.911	-0.02
502.109	-0.03
502.306	0.01
502.504	0.02
502.701	-0.01
502.899	-0.01
503.097	0.06
503.294	-0.01
503.492	-0
503.689	0.01
503.887	0.02
504.084	0.02
504.282	-0.02
504.479	-0.03
504.677	0.01
504.874	-0.03
505.072	0.02
505.269	0.02
505.466	0.03
505.664	-0.01
505.861	-0.04
506.059	-0.01
506.256	0.03
506.453	-0.01
506.651	0.02
506.848	0.01
507.045	0.01
507.242	-0
507.44	-0.02
507.637	0
507.834	0.01
508.031	0.03
508.229	-0.02
508.426	0.01
508.623	0.03
508.82	-0.01
509.017	-0.01
509.214	0.01
509.411	0.02
509.608	-0.01
509.805	0.01
510.003	-0.01
510.2	-0.02
510.397	0.01
510.594	-0.01
510.791	-0.01
510.988	-0.02
511.184	0.04
511.381	-0.01
511.578	-0.02
511.775	0.02
511.972	-0.01
512.169	-0
512.366	0
512.563	0.04
512.76	-0
512.956	0.02
513.153	-0.01
513.35	0.01
513.547	-0.02
513.744	-0.02
513.94	-0.04
514.137	0.02
514.334	-0.02
514.53	-0.01
514.727	0.01
514.924	0.02
515.12	-0.04
515.317	-0.03
515.514	-0.02
515.71	0
515.907	-0.01
516.103	-0.03
516.3	0.03
516.497	0.03
516.693	0.05
516.89	-0
517.086	0
517.283	0.05
517.479	0
517.676	-0.01
517.872	0.01
518.068	-0.01
518.265	-0.02
518.461	-0.03
518.658	-0.02
518.854	0.02
519.05	-0.01
519.247	-0.01
519.443	0.02
519.639	0.02
519.836	-0.01
520.032	0.02
520.228	0
520.424	0.02
520.621	0.02
520.817	-0.01
521.013	0.01
521.209	-0
521.405	0.04
521.601	-0
521.798	0.01
521.994	0.05
522.19	-0.02
522.386	-0.04
522.582	0.02
522.778	0.01
522.974	0
523.17	0.01
523.366	0.01
523.562	0.04
523.758	-0.01
523.954	-0.02
524.15	-0.01
524.346	0.02
524.542	-0
524.738	-0.02
524.934	-0.01
525.129	0
525.325	0.01
525.521	-0.01
525.717	0.03
525.913	-0.01
526.109	0.01
526.304	0.01
526.5	-0
526.696	0.01
526.892	-0
527.087	0.02
527.283	-0.02
527.479	0.02
527.674	-0.01
527.87	0.02
528.066	-0.02
528.261	0.03
528.457	0.01
528.653	0.01
528.848	-0.01
529.044	-0
529.239	-0.01
529.435	0.03
529.63	-0
529.826	0.04
530.021	0.01
530.217	0.03
530.412	-0.01
530.608	-0.01
530.803	-0
530.999	-0.01
531.194	-0.03
531.389	0
531.585	-0.02
531.78	-0.01
531.975	0
532.171	0.03
532.366	-0
532.561	0.02
532.757	-0.02
532.952	-0.01
533.147	0.01
533.342	0
533.538	-0.03
533.733	0.03
533.928	-0
534.123	0
534.318	-0.04
534.513	0
534.709	-0
534.904	-0
535.099	-0.01
535.294	0.01
535.489	-0
535.684	0.02
535.879	-0.02
536.074	-0
536.269	-0.03
536.464	0
536.659	-0
536.854	0.01
537.049	0
537.244	0
537.439	-0
537.634	0.03
537.828	0.01
538.023	-0.01
538.218	-0.03
538.413	0
538.608	-0.03
538.803	0.01
538.997	-0.04
539.192	0.01
539.387	-0.01
539.582	0.02
539.776	0.01
539.971	-0.01
540.166	-0
540.36	-0.03
540.555	-0.02
540.75	-0.01
540.944	-0.01
541.139	-0.02
541.334	0.02
541.528	0.03
541.723	0.02
541.917	0.01
542.112	-0.05
542.306	-0.01
542.501	0
542.695	0.02
542.89	-0.02
543.084	0
543.279	-0
543.473	-0.01
543.668	0
543.862	0.01
544.056	0.01
544.251	-0.01
544.445	0.02
544.64	-0.02
544.834	-0.02
545.028	0
545.222	0.01
545.417	0.01
545.611	0.01
545.805	-0.02
546	-0.01
546.194	0
546.388	-0
546.582	0.02
546.776	-0
546.97	0.01
547.165	0.02
547.359	0.03
547.553	-0.02
547.747	-0
547.941	0.01
548.135	0
548.329	0.03
548.523	0
548.717	0.01
548.911	-0.01
549.105	-0
549.299	-0.02
549.493	0
549.687	0.02
549.881	0.02
550.075	-0.01
550.269	-0.03
550.463	0.02
550.657	-0.02
550.85	-0.01
551.044	-0.01
551.238	-0
551.432	-0.02
551.626	-0.02
551.82	0.01
552.013	-0.03
552.207	0.02
552.401	0.02
552.594	-0.02
552.788	-0
552.982	0.01
553.176	-0
553.369	0.02
553.563	-0
553.756	-0.01
553.95	-0.02
554.144	-0.01
554.337	0.02
554.531	0.01
554.724	0
554.918	-0.01
555.111	0.03
555.305	0.02
555.498	0.04
555.692	0.03
555.885	-0
556.079	0.02
556.272	-0.01
556.466	-0
556.659	0
556.852	0.01
557.046	-0.01
557.239	0.02
557.432	-0.02
557.626	-0.01
557.819	0.02
558.012	0.03
558.206	0.04
558.399	0
558.592	0.02
558.785	-0.01
558.979	0.03
559.172	0.02
559.365	0.03
559.558	0.01
559.751	-0.01
559.944	0.02
560.138	-0
560.331	-0
560.524	0.01
560.717	-0.01
560.91	-0.02
561.103	0.02
561.296	-0.01
561.489	0
561.682	0.03
561.875	0.04
562.068	0
562.261	0.02
562.454	0.03
562.647	-0
562.84	0
563.032	0
563.225	0.01
563.418	0.01
563.611	-0.01
563.804	-0.01
563.997	-0.01
564.19	-0.02
564.382	0.01
564.575	-0.01
564.768	0.01
564.961	-0.01
565.153	-0.02
565.346	0.04
565.539	0.01
565.731	0.04
565.924	0.01
566.117	0.02
566.309	0
566.502	0
566.695	0
566.887	0
567.08	-0.01
567.272	-0.02
567.465	-0
567.657	0.02
567.85	0.02
568.042	0.01
568.235	0.03
568.427	0
568.62	0
568.812	0.02
569.005	-0.02
569.197	-0.03
569.389	0.01
569.582	0
569.774	0.01
569.966	-0.02
570.159	-0.03
570.351	0.01
570.543	-0.01
570.736	0.03
570.928	-0.02
571.12	-0.01
571.312	-0.01
571.505	-0.05
571.697	0.05
571.889	-0.04
572.081	0
572.273	-0.01
572.465	0.03
572.658	0.01
572.85	0.01
573.042	-0.01
573.234	-0.03
573.426	0.05
573.618	-0.04
573.81	0.01
574.002	0.03
574.194	0.01
574.386	-0.03
574.578	-0.07
574.77	-0.02
574.962	0.01
575.154	-0.02
575.346	-0.02
575.538	0
575.729	-0.03
575.921	-0.02
576.113	-0.01
576.305	0.01
576.497	-0.03
576.689	0.01
576.88	-0.02
577.072	0.02
577.264	0.01
577.456	-0.01
577.647	-0.04
577.839	-0.02
578.031	0.04
578.223	-0.04
578.414	-0.03
578.606	0.03
578.798	-0
578.989	-0.01
579.181	-0.01
579.372	0.01
579.564	-0.01
579.755	0.01
579.947	0.02
580.139	0.01
580.33	-0.03
580.522	-0.06
580.713	-0.07
580.905	0.02
581.096	0.01
581.287	0.02
581.479	-0
581.67	0.02
581.862	0.02
582.053	-0.02
582.244	-0.04
582.436	0
582.627	0.02
582.818	-0.01
583.01	-0.04
583.201	0
583.392	0.02
583.583	-0
583.775	-0.01
583.966	-0.01
584.157	-0.03
584.348	-0
584.54	-0.03
584.731	0
584.922	-0
585.113	-0.03
585.304	0.01
585.495	0.03
585.686	-0.01
585.877	0.03
586.068	-0
586.259	0.02
586.45	0
586.641	0
586.832	-0.05
587.023	0.02
587.214	-0.02
587.405	-0
587.596	-0.02
587.787	0.03
587.978	0
588.169	-0.01
588.36	-0.01
588.551	0.01
588.742	-0.02
588.932	0.01
589.123	-0.01
589.314	0.01
589.505	-0
589.696	-0
589.886	-0.04
590.077	-0.01
590.268	0.01
590.458	-0.02
590.649	-0.03
590.84	-0
591.03	-0.01
591.221	-0.04
591.412	-0.03
591.602	0.01
591.793	0.01
591.984	-0.02
592.174	0.01
592.365	0.04
592.555	-0.01
592.746	0.01
592.936	-0.03
593.127	0.01
593.317	0.04
593.508	-0.01
593.698	-0.04
593.889	0.01
594.079	-0.01
594.269	-0.02
594.46	-0
594.65	-0.01
594.84	0.03
595.031	-0.02
595.221	-0.01
595.411	-0.02
595.602	0.03
595.792	0.02
595.982	-0.03
596.172	0.05
596.363	0.02
596.553	0.02
596.743	0.01
596.933	0.01
597.123	0.03
597.314	-0.02
597.504	0
597.694	0.01
597.884	-0
598.074	0
598.264	0
598.454	0
598.644	0.01
598.834	-0
599.024	-0.06
599.214	-0
599.404	0.02
599.594	-0.02
599.784	-0.04
599.974	0.04
600.164	0.04
600.354	-0.04
600.544	-0.03
600.734	0
600.924	0.04
601.114	-0.03
601.303	0
601.493	0.03
601.683	-0.01
601.873	-0
602.063	-0.03
602.252	0.03
602.442	-0.04
602.632	-0.02
602.821	-0.02
603.011	0
603.201	-0
603.39	-0.03
603.58	-0.02
603.77	0.03
603.959	0.02
604.149	-0
604.339	-0.02
604.528	0.01
604.718	0.01
604.907	-0
605.097	-0.03
605.286	0.01
605.476	-0
605.665	0.05
605.855	-0.02
606.044	0.05
606.234	-0
606.423	-0.01
606.612	-0.03
606.802	-0.02
606.991	0.03
607.181	0.02
607.37	-0.05
607.559	0.03
607.749	-0.03
607.938	0.01
608.127	-0.02
608.316	-0.03
608.506	0.01
608.695	-0.02
608.884	-0.02
609.073	0.01
609.263	0.01
609.452	0.01
609.641	-0
609.83	-0.04
610.019	-0.01
610.208	-0.01
610.397	-0.02
610.586	0.01
610.775	-0.02
610.965	0.01
611.154	-0.03
611.343	-0
611.532	0.03
611.721	-0.06
611.91	-0.02
612.099	0.03
612.287	-0.03
612.476	-0.03
612.665	0.01
612.854	-0.02
613.043	0.01
613.232	0
613.421	-0.04
613.61	-0.02
613.798	-0.04
613.987	0.03
614.176	0
614.365	0.03
614.554	0.02
614.742	0.01
614.931	-0.03
615.12	0.02
615.309	-0.01
615.497	0.02
615.686	-0.02
615.875	-0.01
616.063	0.02
616.252	-0.02
616.44	0
616.629	-0.01
616.818	0.03
617.006	-0.01
617.195	-0.01
617.383	0
617.572	-0
617.76	-0.03
617.949	-0
618.137	0.01
618.326	0.03
618.514	-0.04
618.703	-0.02
618.891	0.06
619.079	-0.04
619.268	0.02
619.456	-0.02
619.644	0.03
619.833	-0.04
620.021	-0.02
620.209	-0.01
620.398	0.01
620.586	0
620.774	0.03
620.962	-0
621.151	0.04
621.339	-0.04
621.527	-0.02
621.715	-0.04
621.903	-0.02
622.092	-0.03
622.28	-0.03
622.468	-0.01
622.656	-0.01
622.844	0.03
623.032	-0.02
623.22	-0.05
623.408	-0.01
623.596	0
623.784	0.05
623.972	-0.02
624.16	0.03
624.348	0.07
624.536	-0.02
624.724	0
624.912	0.04
625.1	0.02
625.288	-0.01
625.476	-0.01
625.664	0.03
625.851	-0.02
626.039	0.01
626.227	0
626.415	-0.02
626.603	-0.05
626.79	-0
626.978	-0.04
627.166	0.04
627.354	-0
627.541	-0.03
627.729	-0.07
627.917	0.03
628.104	0.05
628.292	0.02
628.48	0.03
628.667	-0
628.855	-0
629.042	0
629.23	0.01
629.418	0.01
629.605	-0
629.793	-0.03
629.98	-0.03
630.168	0.02
630.355	0.02
630.543	0.02
630.73	-0.02
630.917	0.04
631.105	0.08
631.292	-0
631.48	-0
631.667	0.08
631.854	0.04
632.042	0.01
632.229	-0.04
632.416	-0
632.604	-0
632.791	0
632.978	0.03
633.165	0.03
633.353	0.06
633.54	0.02
633.727	-0.04
633.914	-0.01
634.101	-0.07
634.289	0.05
634.476	0
634.663	-0.03
634.85	0.03
635.037	-0.02
635.224	-0.02
635.411	0.04
635.598	0.02
635.785	0.02
635.972	0.01
636.159	0.03
636.346	-0.03
636.533	0.03
636.72	0.01
636.907	-0.01
637.094	0.04
637.281	0
637.468	0.05
637.655	0.03
637.842	0.01
638.029	-0.02
638.215	0.03
638.402	0.02
638.589	-0.01
638.776	-0.02
638.963	-0.01
639.149	0.07
639.336	0.1
639.523	-0
639.709	0.02
639.896	-0.01
640.083	0.07
640.27	0.04
640.456	0.01
640.643	0.06
640.829	-0.03
641.016	0.03
641.203	0
641.389	0.03
641.576	0.03
641.762	0.01
641.949	0.02
642.135	0.03
642.322	0.05
642.508	-0
642.695	0.01
642.881	0.01
643.068	0.01
643.254	0.04
643.441	0.06
643.627	0.03
643.813	-0.01
644	0.06
644.186	0.02
644.372	0.05
644.559	0.02
644.745	0.05
644.931	0
645.118	0.02
645.304	0.02
645.49	0.01
645.676	0
645.862	0.04
646.049	0.08
646.235	0.04
646.421	0.08
646.607	0.12
646.793	0.01
646.979	0.02
647.165	0.04
647.352	0.07
647.538	0.1
647.724	0.02
647.91	0.03
648.096	0.07
648.282	0.06
648.468	0.02
648.654	0.05
648.84	0.05
649.026	0.06
649.212	0.07
649.397	0.03
649.583	0.02
649.769	0.13
649.955	0.06
650.141	0.05
650.327	0.1
650.513	0.03
650.698	0.1
650.884	-0.01
651.07	0.06
651.256	0.06
651.442	0.05
651.627	0.07
651.813	0.07
651.999	0.07
652.184	0.09
652.37	0.08
652.556	0.05
652.741	0.14
652.927	0.01
653.113	0.08
653.298	0.09
653.484	0.07
653.669	0.03
653.855	0.09
654.04	0.09
654.226	0.08
654.412	0.09
654.597	0.03
654.782	0.1
654.968	0.11
655.153	0.12
655.339	0.09
655.524	0.04
655.71	0.09
655.895	0.06
656.08	0.09
656.266	0.15
656.451	0.09
656.636	0.05
656.822	0.08
657.007	0.09
657.192	0.09
657.378	0.06
657.563	0.1
657.748	0.14
657.933	0.13
658.118	0.09
658.304	0.08
658.489	0.14
658.674	0.12
658.859	0.07
659.044	0.1
659.229	0.11
659.414	0.08
659.599	0.11
659.785	0.06
659.97	0.12
660.155	0.11
660.34	0.14
660.525	0.1
660.71	0.07
660.895	0.11
661.08	0.09
661.264	0.07
661.449	0.16
661.634	0.15
661.819	0.1
662.004	0.13
662.189	0.01
662.374	0.09
662.559	0.05
662.743	0.02
662.928	0.03
663.113	0.05
663.298	-0.01
663.483	0.07
663.667	0.07
663.852	0.03
664.037	0.1
664.221	0.03
664.406	0.08
664.591	0.06
664.775	0.07
664.96	-0.01
665.145	0.05
665.329	0.09
665.514	0.02
665.698	0.01
665.883	0.01
666.068	0.09
666.252	0.06
666.437	0.04
666.621	0
666.806	0.04
666.99	0.01
667.174	-0.01
667.359	0.08
667.543	-0
667.728	0.02
667.912	-0.05
668.096	0.06
668.281	0.03
668.465	0.02
668.649	0.01
668.834	0.04
669.018	0.02
669.202	0.02
669.387	-0
669.571	0.03
669.755	-0.04
669.939	0
670.124	0
670.308	0.04
670.492	0.03
670.676	0.04
670.86	0.02
671.044	-0.03
671.228	0.04
671.413	-0.03
671.597	-0.02
671.781	0.01
671.965	0.07
672.149	-0.03
672.333	0.03
672.517	-0.02
672.701	0.01
672.885	0.04
673.069	-0.03
673.253	0.04
673.437	-0.02
673.621	-0.02
673.804	0
673.988	0.01
674.172	0.02
674.356	-0.06
674.54	-0.01
674.724	0.06
674.908	-0.03
675.091	0.02
675.275	-0.02
675.459	0.02
675.643	-0.02
675.826	0.01
676.01	0.01
676.194	-0.06
676.377	0.01
676.561	0.04
676.745	0.01
676.928	0.06
677.112	0.01
677.296	0
677.479	-0.01
677.663	-0
677.846	0.01
678.03	0.01
678.213	-0.03
678.397	-0
678.58	-0.05
678.764	-0.01
678.947	0.01
679.131	-0.06
679.314	0.03
679.498	-0.02
679.681	0.04
679.865	0.04
680.048	0.01
680.231	0.01
680.415	-0.03
680.598	0
680.781	-0.04
680.965	-0.03
681.148	-0.01
681.331	-0.01
681.514	0.03
681.698	-0.03
681.881	0.03
682.064	-0.03
682.247	0.03
682.43	-0.06
682.614	0.01
682.797	0.01
682.98	0.02
683.163	-0.04
683.346	0.02
683.529	-0.03
683.712	-0.02
683.895	0
684.078	-0.05
684.261	-0.04
684.444	-0.02
684.627	0.02
684.81	0.01
684.993	-0.01
685.176	-0.02
685.359	-0.08
685.542	-0.05
685.725	0.05
685.908	0.01
686.091	-0.02
686.274	0.05
686.457	-0.03
686.639	0.04
686.822	0.04
687.005	0.05
687.188	0.04
687.371	0.08
687.553	0
687.736	0.03
687.919	0.05
688.102	0.09
688.284	-0.11
688.467	-0.03
688.65	-0.07
688.832	-0.02
689.015	-0.05
689.197	-0.03
689.38	0.08
689.563	0.05
689.745	-0.02
689.928	-0.04
690.11	-0.01
690.293	0.01
690.475	-0.09
690.658	0.05
690.84	-0.01
691.023	0.02
691.205	-0.03
691.388	0.03
691.57	0.04
691.752	0.06
691.935	-0.03
692.117	-0.04
692.3	0.05
692.482	-0.01
692.664	-0.01
692.847	0.01
693.029	0.05
693.211	0
693.393	-0.04
693.576	-0.05
693.758	0.03
693.94	-0.04
694.122	-0.01
694.304	-0.02
694.487	-0.06
694.669	0.05
694.851	-0.04
695.033	0.02
695.215	-0.02
695.397	-0.05
695.579	-0.03
695.761	-0.02
695.943	-0.06
696.125	0.07
696.308	0.06
696.49	-0.11
696.671	0.11
696.853	-0.01
697.035	0.1
697.217	-0.01
697.399	0.01
697.581	-0.06
697.763	0.06
697.945	-0.03
698.127	-0.01
698.309	0.04
698.491	-0.04
698.672	0.01
698.854	0.01
699.036	0.06
699.218	-0.03
699.399	0.08
699.581	0.05
699.763	0
699.945	-0.07
700.126	-0.04
700.308	0
700.49	0.02
700.671	-0.08
700.853	-0.02
701.035	0.01
701.216	0.01
701.398	-0.04
701.579	-0.01
701.761	0.04
701.943	-0.04
702.124	0.02
702.306	-0.01
702.487	0.08
702.669	-0.01
702.85	-0
703.031	-0.04
703.213	0.07
703.394	0.06
703.576	-0.02
703.757	0.03
703.938	0.03
704.12	0.17
704.301	0.05
704.483	-0.02
704.664	0.06
704.845	0.06
705.026	0.06
705.208	0.01
705.389	-0.04
705.57	0.04
705.751	-0.03
705.933	-0.03
706.114	0.06
706.295	0.04
706.476	-0.05
706.657	0.07
706.838	-0.03
707.02	0.05
707.201	-0.01
707.382	-0.01
707.563	0.06
707.744	-0.01
707.925	-0.05
708.106	-0.03
708.287	0.02
708.468	0.08
708.649	-0.05
708.83	0.08
709.011	0.01
709.192	0.11
709.373	-0.08
709.554	-0.03
709.734	0
709.915	0.02
710.096	0
710.277	-0.06
710.458	0.06
710.639	0.01
710.819	-0.07
711	0.01
711.181	0.08
711.362	0.04
711.542	0.03
711.723	0.03
711.904	0.07
712.085	0.05
712.265	0.03
712.446	-0.07
712.627	-0.05
712.807	0.01
712.988	-0.01
713.168	-0.05
713.349	0.06
713.53	-0.09
713.71	-0.02
713.891	-0.11
714.071	0.03
714.252	0.01
714.432	-0.03
714.613	-0.04
714.793	0.03
714.974	0.13
715.154	0.04
715.334	0.09
715.515	0.1
715.695	-0.08
715.876	0.04
716.056	-0.02
716.236	-0.03
716.417	0.04
716.597	0
716.777	0.16
716.957	-0.02
717.138	0.04
717.318	0.03
717.498	-0.03
717.678	0.03
717.859	0.05
718.039	-0.06
718.219	0.01
718.399	0.09
718.579	-0.02
718.759	-0.08
718.939	0.04
719.12	0.06
719.3	-0
719.48	-0.05
719.66	-0.01
719.84	0.08
720.02	-0.02
720.2	0.01
720.38	0.03
720.56	0.07
720.74	0.03
720.92	0.09
721.1	0.05
721.279	0.14
721.459	0.04
721.639	-0.08
721.819	0.08
721.999	-0.03
722.179	0.1
722.359	-0.04
722.538	0.08
722.718	0.03
722.898	-0.05
723.078	0.06
723.257	0.03
723.437	0.07
723.617	0.02
723.797	0.03
723.976	0.04
724.156	-0.05
724.336	0.18
724.515	0.16
724.695	-0.05
724.874	-0.01
725.054	0.13
725.234	-0.01
725.413	0.07
725.593	0.02
725.772	0.13
725.952	0.07
726.131	0.09
726.311	0.03
726.49	-0.02
726.67	-0.01
726.849	-0.04
727.028	0.15
727.208	0.06
727.387	0.13
727.567	-0.05
727.746	0.03
727.925	-0.02
728.105	-0.08
728.284	0.03
728.463	0.04
728.643	0.07
728.822	0
729.001	0.02
729.18	0.07
729.359	0.11
729.539	0.04
729.718	0.08
729.897	0.05
730.076	0.01
730.255	-0.09
730.434	0.06
730.614	0.13
730.793	0.15
730.972	0.08
731.151	0.06
731.33	0.23
731.509	0.06
731.688	0.07
731.867	0.04
732.046	-0.02
732.225	0.3
732.404	-0.01
732.583	-0.01
732.762	0.02
732.941	0.14
733.12	0.16
733.298	0.11
733.477	0.18
733.656	0.03
733.835	0
734.014	0.08
734.193	0.12
734.371	0.13
734.55	0.12
734.729	-0.03
734.908	0.15
735.086	0.13
735.265	0.11
735.444	0.01
735.623	-0.03
735.801	0.12
735.98	0.13
736.159	0.08
736.337	0.19
736.516	0.21
736.694	0.09
736.873	0.02
737.052	0.11
737.23	0.27
737.409	0.02
737.587	0.24
737.766	-0.05
737.944	0.01
738.123	0.15
738.301	0.23
738.479	0.09
738.658	0.08
738.836	-0.11
739.015	0.15
739.193	0.23
739.371	0.07
739.55	-0.03
739.728	-0.09
739.906	0.13
740.085	0.22
740.263	0.15
740.441	-0.06
740.62	0.27
740.798	0.16
740.976	-0.05
741.154	0.05
741.332	0.3
741.511	-0.02
741.689	0.14
741.867	0.18
742.045	-0.01
742.223	0.04
742.401	0.08
742.579	0.02
742.757	0.07
742.935	-0.05
743.114	0.06
743.292	-0.02
743.47	0.02
743.648	0.02
743.826	0.05
744.004	0.09
744.181	0.1
744.359	-0.01
744.537	-0.01
744.715	0.14
744.893	0.01
745.071	0.07
745.249	0
745.427	0.01
745.605	0.16
745.782	-0
745.96	0.09
746.138	0.04
746.316	0.1
746.493	-0.01
746.671	0.03
746.849	-0.05
747.027	0.16
747.204	-0.03
747.382	0.09
747.56	-0.14
747.737	-0.06
747.915	0
748.093	0.08
748.27	-0.06
748.448	0.01
748.625	-0.13
748.803	-0.04
748.98	0.03
749.158	-0.04
749.335	0.16
749.513	-0.01
749.69	-0.05
749.868	0.02
750.045	-0.02
750.223	-0.05
750.4	-0.22
750.578	0.24
750.755	-0.01
750.932	-0.17
751.11	0.13
751.287	-0.19
751.464	0.07
751.642	-0.03
751.819	0.08
751.996	-0.04
752.173	-0.11
752.351	-0.12
752.528	0.06
752.705	-0.03
752.882	0.04
753.06	0.08
753.237	0.06
753.414	0.11
753.591	0.14
753.768	-0.03
753.945	-0.08
754.122	-0.12
754.299	0.03
754.476	-0.07
754.654	0.01
754.831	0.01
755.008	0.11
755.185	-0.05
755.362	-0.1
755.539	0.07
755.716	-0.14
755.892	-0.01
756.069	0.03
756.246	-0.09
756.423	0.01
756.6	0.12
756.777	-0.07
756.954	0.16
757.131	0.05
757.307	-0.15
757.484	-0.06
757.661	0.05
757.838	0.09
758.015	-0.13
758.191	0.15
758.368	0.04
758.545	0.09
758.721	-0.02
758.898	-0.11
759.075	0.14
759.251	0.11
759.428	0.06
759.605	-0.14
759.781	-0.02
759.958	0.02
760.134	0.03
760.311	0.01
760.488	0.07
760.664	0.17
760.841	-0.05
761.017	-0.05
761.194	-0.01
761.37	0.03
761.547	-0
761.723	-0.02
761.899	0.12
762.076	-0.07
762.252	-0.04
762.429	-0.03
762.605	0.08
762.781	-0.05
762.958	0.17
763.134	-0.06
763.31	-0.13
763.486	0.08
763.663	-0.08
763.839	0.03
764.015	-0.21
764.191	-0.04
764.368	0.01
764.544	-0.08
764.72	-0.06
764.896	0.16
765.072	-0.07
765.248	-0.06
765.425	-0.04
765.601	-0.06
765.777	0
765.953	-0.24
766.129	-0.13
766.305	-0.09
766.481	0.1
766.657	0.09
766.833	0.23
767.009	-0.09
767.185	-0.1
767.361	0.08
767.537	-0.1
767.713	0.05
767.889	-0.05
768.065	0.07
768.24	0.04
768.416	0.08
768.592	-0.02
768.768	-0.08
768.944	0.22
769.12	-0.11
769.295	-0.07
769.471	-0.15
769.647	-0.07
769.823	0.18
769.998	-0.07
770.174	-0.07
770.35	0.22
770.525	0.16
770.701	0.15
770.877	-0.02
771.052	0.02
771.228	0.01
771.403	0.04
771.579	0.2
771.755	0.35
771.93	-0.26
772.106	-0.17
772.281	-0.2
772.457	-0
772.632	0.04
772.808	-0.11
772.983	-0.07
773.159	-0.28
773.334	0.15
773.509	-0.08
773.685	-0.21
773.86	0.28
774.036	0.17
774.211	-0.08
774.386	-0.14
774.562	-0.01
774.737	-0
774.912	-0.11
775.087	0.11
775.263	-0.04
775.438	0.1
775.613	0.08
775.788	-0.15
775.964	0.04
776.139	0.33
776.314	-0
776.489	-0.01
776.664	0.03
776.839	-0.1
777.014	0
777.19	0.07
777.365	0.13
777.54	0.22
777.715	-0
777.89	-0
778.065	-0.27
778.24	-0.09
778.415	0.22
778.59	-0.19
778.765	-0.11
778.94	0.09
779.115	-0.11
779.289	-0.02
779.464	-0.08
779.639	0.02
779.814	-0.27
779.989	-0.16
780.164	0.11
780.339	0.15
780.513	-0.09
780.688	-0.08
780.863	0.04
781.038	0.12
781.212	-0.1
781.387	0.02
781.562	0.32
781.737	0.12
781.911	0.19
782.086	-0.11
782.261	-0.08
782.435	0.43
782.61	-0.17
782.784	0.03
782.959	0.06
783.134	-0.02
783.308	-0.18
783.483	-0.2
783.657	0.39
783.832	0.2
784.006	-0.4
784.181	-0.03
784.355	0.36
784.53	0.05
784.704	0.01
784.878	0.21
785.053	0.07
785.227	0.11
785.402	0.5
785.576	-0.32
785.75	-0.18
785.925	-0.06
786.099	-0.07
786.273	-0.09
786.448	0.05
786.622	0.13
786.796	0.05
786.97	-0.18
787.145	0.42
787.319	-0.1
787.493	-0.06
787.667	-0.34
787.841	-0.06
788.015	0.05
788.19	-0.18
788.364	0.16
788.538	0.11
788.712	0.16
788.886	-0.05
789.06	0.25
789.234	0.02
789.408	-0.08
789.582	-0.08
789.756	-0.31
789.93	-0.39
790.104	0.06
790.278	-0.01
790.452	-0.05
790.626	0.29
790.8	-0.23
790.973	0.02
791.147	0.18
791.321	0.13
791.495	0.18
791.669	0.18
791.843	0.04
792.016	0.2
792.19	0.41
792.364	-0.31
792.538	0.43
792.711	0.21
792.885	-0.21
793.059	-0.28
793.233	-0.54
793.406	0.1
793.58	0.04
793.754	-0.08
793.927	0.07
794.101	0.41
794.274	0
794.448	0.21
794.622	0.01
794.795	0.45
794.969	-0.35
795.142	0.34
795.316	0.03
795.489	-0.09
795.663	0.32
795.836	0.06
796.009	-0.18
796.183	0.4
796.356	0.01
796.53	0.13
796.703	-0.04
796.876	0.27
797.05	-0.36
797.223	0.12
797.396	0.17
797.57	0.04
797.743	0.35
797.916	0.09
798.09	0.18
798.263	0.32
798.436	0.15
798.609	0.04
798.782	0.23
798.956	-0.05
799.129	0.01
799.302	0.04
799.475	-0.1
799.648	-0.03
799.821	-0.17
799.994	0.2
800.167	-0.29
800.34	-0.09
800.514	-0.17
800.687	0.02
800.86	-0.12
801.033	0.11
801.206	0.21
801.379	-0.06
801.551	0.29
801.724	0.34
801.897	0.23
802.07	0.19
802.243	-0.42
802.416	0.04
802.589	-0.35
802.762	0.25
802.935	-0.16
803.107	-0.11
803.28	0.23
803.453	-0.06
803.626	-0.37
803.798	0.17
803.971	0.16
804.144	0.29
804.317	0.22
804.489	0.26
804.662	0.16
804.835	0.2
805.007	-0.35
805.18	0.13
805.353	-0.03
805.525	-0.44
805.698	-0.28
805.87	-0.02
806.043	0.14
806.215	-0.54
806.388	-0.22
806.56	0.04
806.733	0.53
806.905	-0.14
807.078	-0.15
807.25	-0.27
807.423	0.08
807.595	0.01
807.768	-0.06
807.94	0.52
808.112	0.46
808.285	-0.09
808.457	0.1
808.629	-0.09
808.802	-0.1
808.974	-0.07
809.146	0.07
809.318	-0.17
809.491	-0.07
809.663	0.02
809.835	-0.03
810.007	0.12
810.18	0.09
810.352	-0.26
810.524	-0.2
810.696	0.13
810.868	0.35
811.04	0.27
811.212	-0
811.384	-0.08
811.556	0.06
811.728	0.26
811.901	0.44
812.073	-0.21
812.245	0.27
812.417	-0.01
812.589	-0.55
812.76	-0.17
812.932	0.26
813.104	0.5
813.276	-0.19
813.448	0.31
813.62	-0.23
813.792	0.15
813.964	-0.1
814.136	0.31
814.307	0
814.479	-0.27
814.651	-0.23
814.823	0.6
814.995	-0.16
815.166	0.08
815.338	-0.08
815.51	-0.61
815.681	0.71
815.853	-0.18
816.025	0.04
816.196	0.61
816.368	0.26
816.54	-0.39
816.711	-0.38
816.883	-0.2
817.054	0.86
817.226	-0.43
817.398	0.4
817.569	-0.18
817.741	-0.16
817.912	-0.16
818.084	-0.13
818.255	0.34
818.426	-0.15
818.598	-0.07
818.769	-0.31
818.941	-0.02
819.112	0.55
819.283	0.23
819.455	0.07
819.626	-0.04
819.798	0.03
819.969	0.01
820.14	0.19
820.311	0.05
820.483	0.09
820.654	0.22
820.825	0.19
820.996	-0.08
821.168	-0.36
821.339	-0.25
821.51	-0.17
821.681	-0.09
821.852	0.22
822.023	-0.54
822.195	-0.37
822.366	0.88
822.537	0.31
822.708	0.26
822.879	0.03
823.05	0.65
823.221	0.04
823.392	0.71
823.563	0.19
823.734	0.46
823.905	0.06
824.076	-0.18
824.247	0.02
824.418	-0.18
824.589	1.15
824.759	-0.19
824.93	-0.32
825.101	-0.65
825.272	-0.24
825.443	0.52
825.614	0.18
825.784	-0.4
825.955	1.41
826.126	0.94
826.297	0.09
826.467	0.5
826.638	0.32
826.809	-0.42
826.98	-0.22
827.15	0.07
827.321	0.06
827.492	1
827.662	-0.07
827.833	0.64
828.003	-0.19
828.174	-0.53
828.345	-0.43
828.515	0.82
828.686	0.24
828.856	-0.84
829.027	0.18
829.197	0.51
829.368	-0.25
829.538	0.11
829.709	-0.38
829.879	0.49
830.049	-0.44
830.22	-0.45
830.39	-0.18
830.56	0.04
830.731	-0.11
830.901	-0.46
831.072	-0.05
831.242	0.13
831.412	0.38
831.582	-0.08
831.753	-0.27
831.923	0.53
832.093	-0.11
832.263	0.06
832.434	-0.56
832.604	0.13
832.774	0.35
832.944	0.23
833.114	-0.23
833.284	0.05
833.454	-0.79
833.624	-0.55
833.795	0.13
833.965	0.57
834.135	0.76
834.305	-0.6
834.475	-0.67
834.645	-0.04
834.815	0.19
834.985	-1.08
835.155	-0.63
835.325	0.27
835.494	0.08
835.664	-0.22
835.834	-0.86
836.004	-0.52
836.174	0.09
836.344	0
836.514	-0.03
836.684	-0.03
836.853	0.92
837.023	0.32
837.193	-0.27
837.363	1.04
837.532	-0.19
837.702	-0.11
837.872	-0.4
838.041	0.46
838.211	1.17
838.381	-0.99
838.55	0.57
838.72	1.62
838.89	1.35
839.059	-0.37
839.229	-0.65
839.398	0.84
839.568	0.3
839.738	-0.2
839.907	0.76
840.077	0.59
840.246	-0.26
840.416	-0.63
840.585	-0.46
840.755	0.43
840.924	0.94
841.093	-0.44
841.263	0.06
841.432	0.38
841.602	-0.85
841.771	-0.91
841.94	-0.31
842.11	1.51
842.279	1.43
842.448	-0.68
842.617	-0.27
842.787	0.83
842.956	-0.46
843.125	1.07
843.294	0.64
843.464	1.01
843.633	-0.21
843.802	-0.97
843.971	0.15
844.14	0.65
844.309	1.24
844.479	-0.47
844.648	-0.87
844.817	-1.25
844.986	-0.18
845.155	-0.38
845.324	-0
845.493	0.19
845.662	-0.7
845.831	0.37
846	0.84
846.169	-0.24
846.338	0.81
846.507	0.49
846.676	0.34
846.844	-0.14
847.013	1.14
847.182	0.11
847.351	-0.5
847.52	-0.35
847.689	0.17
847.858	-0.37
848.026	-0.61
848.195	-0.17
848.364	-0.71
848.533	-0.62
848.701	-0.28
848.87	0.61
849.039	0.69
849.207	1.64
849.376	1.08
849.545	1.03
849.713	-0.41
849.882	0.09
850.051	0.22
850.219	-0.4
850.388	0.74
850.556	-0.16
850.725	-1.05
850.893	-0.02
851.062	0.08
851.23	0.74
851.399	-1.49
851.567	-0.15
851.736	-0.24
851.904	-0.82
852.073	0.02
852.241	0.53
852.41	1.24
852.578	0.68
852.746	-1.17
852.915	0.97
853.083	0.11
853.251	-0.73
853.42	1.03
853.588	0.18
853.756	1.23
853.924	-0.08
854.093	-0.27
854.261	-0.06
854.429	-0.98
854.597	0.29
854.765	-1.85
854.934	1.34
855.102	0.27
855.27	1.1
855.438	1.84
855.606	0.63
855.774	1.91
855.942	-1.23
856.11	-1.64
856.278	-0.69
856.446	1
856.614	-0.19
856.782	-0.55
856.95	0.84
857.118	0.15
857.286	1.07
857.454	-1.31
857.622	1
857.79	0.24
857.958	-0.8
858.126	-0.33
858.294	-2.43
858.462	0.71
858.629	-0.88
858.797	-0.52
858.965	0.39
859.133	-0.1
859.301	0.16
859.468	-0.33
859.636	-0.23
859.804	0.71
859.971	0.28
860.139	-0.1
860.307	0.49
860.474	0.3
860.642	0.1
860.81	-0.22
860.977	-1.28
861.145	-0.08
861.313	0.86
861.48	-0.77
861.648	1.48
861.815	0.04
861.983	-0.53
862.15	-0.86
862.318	0.83
862.485	0.91
862.653	-1.2
862.82	-1.16
862.988	2.02
863.155	0.74
863.322	-0.92
863.49	-0.31
863.657	0.07
863.824	1.97
863.992	0.94
864.159	-0.28
864.326	1.43
864.494	-0.24
864.661	3.02
864.828	-0.59
864.996	0.55
865.163	1.75
865.33	-1.31
865.497	-2.83
865.664	-0.14
865.832	-2.77
865.999	-1.27
866.166	-1.21
866.333	-0.62
866.5	-0.74
866.667	-0.56
866.834	-0.76
867.001	0.71
867.168	-1.79
867.335	1.64
867.502	-1.33
867.669	1.41
867.836	2.44
868.003	-0.56
868.17	0.96
868.337	-1.15
868.504	1.33
868.671	-1.98
868.838	-0.85
869.005	-0.4
869.172	1.42
869.339	-0.28
869.505	0.5
869.672	-1.02
869.839	-0.21
870.006	0.54
870.173	-1.81
870.339	1.46
870.506	3.09
870.673	-0.26
870.84	0.37
871.006	0.56
871.173	-1.25
871.34	0.93
871.506	0.1
871.673	-0.03
871.839	-1.68
872.006	0.22
872.173	0.83
872.339	-0.83
872.506	1.61
872.672	-0.03
872.839	-1.22
873.005	0.47
873.172	4.12
873.338	-0.73
873.505	-1
873.671	0.39
873.838	1.23
874.004	-1.93
874.171	0.33
874.337	0.9
874.503	1.67
874.67	0.87
874.836	0.35
875.002	2.62
875.169	0.75
875.335	0.23
875.501	-0.4
875.668	1.93
875.834	0.79
876	-0.42
876.166	1.55
876.332	1.05
876.499	2.08
876.665	-1.21
876.831	0.83
876.997	2.94
877.163	-0.73
877.329	-1.86
877.495	1.03
877.662	1.11
877.828	1.69
877.994	-0.54
878.16	-1.71
878.326	-1.78
878.492	0.12
878.658	0.38
878.824	0.73
878.99	1.1
879.156	-1.33
879.322	1.87
879.487	-0.76
879.653	1.63
879.819	1.03
879.985	-0.22
880.151	1.97
880.317	1.34
880.483	-1.39
880.648	1.18
880.814	-2.03
880.98	2.09
881.146	-2.13
881.312	-1.04
881.477	-0.33
881.643	2.34
881.809	1.8
881.974	2.58
882.14	-0.59
882.306	0.52
882.471	2.72
882.637	-1.14
882.803	1.96
882.968	3.58
883.134	3.11
883.299	0.21
883.465	2.3
883.63	0.88
883.796	1.05
883.961	2.12
884.127	0.51
884.292	-3.37
884.458	-1.4
884.623	-1.39
