Data from Apollo_Calib_20240827__AbsoluteIrradiance__104__00-53-00-031.txt Node

Date: Wed Aug 28 00:53:00 BST 2024
User: biology
Spectrometer: FLMT08252
Trigger mode: 0
Integration Time (sec): 5.000000E-1
Scans to average: 5
Electric dark correction enabled: true
Nonlinearity correction enabled: false
Boxcar width: 0
XAxis mode: Wavelengths
Number of Pixels in Spectrum: 3648
>>>>>Begin Spectral Data<<<<<
179.588	-0
179.809	-0
180.03	-0
180.251	-0
180.473	-0
180.694	0
180.915	0
181.136	-0
181.357	0
181.578	-0
181.799	-0
182.02	-0
182.241	0
182.462	-0
182.683	0
182.904	-0
183.125	0
183.346	0
183.567	0
183.788	-0
184.009	-0
184.23	0
184.451	0
184.672	-0
184.892	-0
185.113	0
185.334	0
185.555	-0
185.776	-0
185.996	0
186.217	-0
186.438	0
186.659	-0
186.879	0
187.1	-0
187.321	-0
187.541	-0
187.762	-0
187.983	0
188.203	0
188.424	0
188.644	0
188.865	0
189.086	-0
189.306	-0
189.527	-0
189.747	0
189.968	-0
190.188	0
190.409	-0
190.629	0
190.849	-0
191.07	-0
191.29	0
191.511	0
191.731	-0
191.951	-0
192.172	0
192.392	0
192.612	-0
192.833	0
193.053	0
193.273	0
193.493	-0
193.714	0
193.934	0
194.154	0
194.374	0
194.594	0
194.815	0
195.035	-0
195.255	-0
195.475	-0
195.695	-0
195.915	0
196.135	-0
196.355	0
196.575	0
196.795	0
197.015	-0
197.235	-0
197.455	-0
197.675	0
197.895	-0
198.115	-0
198.335	0
198.555	0
198.775	0
198.995	-0
199.214	0
199.434	-0
199.654	-0
199.874	-0
200.094	0.68
200.313	0.09
200.533	-0.02
200.753	-0.87
200.973	0.99
201.192	0.77
201.412	-0.62
201.632	-0.61
201.851	1.23
202.071	-0.83
202.291	-0.66
202.51	-0.38
202.73	0.31
202.95	-0.23
203.169	-0.52
203.389	-0.13
203.608	-0.41
203.828	-0.44
204.047	-0.43
204.267	0.43
204.486	-0.08
204.706	0.1
204.925	-0.38
205.145	0
205.364	0.52
205.583	0.24
205.803	-0.23
206.022	-0.31
206.242	-0.05
206.461	-0.2
206.68	-0.51
206.9	-0.08
207.119	0.49
207.338	0.38
207.557	-0.32
207.777	-0.22
207.996	-0.14
208.215	0.13
208.434	-0.06
208.654	-0.28
208.873	0.12
209.092	0.36
209.311	-0.26
209.53	-0.02
209.749	-0.1
209.968	-0.3
210.187	-0.04
210.407	-0.36
210.626	0.22
210.845	0.06
211.064	0
211.283	-0.58
211.502	0.34
211.721	0.15
211.94	0.11
212.159	0.4
212.377	0.26
212.596	0.29
212.815	-0.03
213.034	-0.04
213.253	0.2
213.472	0.07
213.691	-0.25
213.91	-0.51
214.128	-0.13
214.347	0.47
214.566	-0.28
214.785	-0.24
215.003	-0.02
215.222	-0.06
215.441	-0.01
215.66	-0.16
215.878	-0.1
216.097	0.42
216.316	-0.33
216.534	-0.11
216.753	-0.18
216.972	-0.1
217.19	0.09
217.409	-0.22
217.627	-0.22
217.846	-0.05
218.064	0.05
218.283	-0.23
218.501	0.32
218.72	0.13
218.938	-0.04
219.157	-0.27
219.375	0.1
219.594	0.17
219.812	-0.1
220.031	-0.23
220.249	0.06
220.467	0.33
220.686	-0.14
220.904	-0.08
221.122	-0.19
221.341	0.28
221.559	-0
221.777	-0.23
221.995	0.05
222.214	-0.01
222.432	-0.12
222.65	0.11
222.868	0.14
223.086	0.12
223.305	0.01
223.523	-0.09
223.741	0.24
223.959	-0.25
224.177	-0.21
224.395	0.02
224.613	0.01
224.831	0.13
225.049	-0.11
225.267	-0.06
225.485	-0.03
225.703	-0.07
225.921	-0
226.139	-0.09
226.357	0.08
226.575	-0.02
226.793	-0.01
227.011	0.43
227.229	0.08
227.447	0.02
227.665	-0.04
227.883	-0.3
228.1	-0.03
228.318	-0.08
228.536	-0.24
228.754	-0.16
228.972	0.06
229.189	0.2
229.407	-0.05
229.625	0.03
229.843	0.11
230.06	0.11
230.278	-0.12
230.496	0.03
230.713	-0.01
230.931	0.2
231.149	-0.02
231.366	-0.2
231.584	-0.08
231.801	0.37
232.019	0.01
232.236	-0.09
232.454	-0
232.671	0.1
232.889	-0.17
233.106	-0.22
233.324	0.01
233.541	0.04
233.759	-0.04
233.976	-0.07
234.194	-0.01
234.411	-0.01
234.628	-0.08
234.846	-0.02
235.063	-0.05
235.28	0.04
235.498	0.03
235.715	-0.16
235.932	0.14
236.149	-0.07
236.367	-0.06
236.584	0.11
236.801	-0.12
237.018	0.02
237.236	0.06
237.453	-0.15
237.67	0.1
237.887	-0.13
238.104	0.02
238.321	-0.13
238.538	-0.06
238.755	0.16
238.973	-0.13
239.19	0.02
239.407	0.05
239.624	-0.08
239.841	-0.1
240.058	-0.06
240.275	0.11
240.492	-0.1
240.709	-0.04
240.925	-0.07
241.142	0.06
241.359	-0.11
241.576	-0.17
241.793	-0.05
242.01	0.02
242.227	0.02
242.444	0.04
242.66	0.06
242.877	-0.04
243.094	-0.03
243.311	0.09
243.527	0.01
243.744	0.13
243.961	0.07
244.178	-0.11
244.394	0
244.611	0.16
244.828	0.12
245.044	-0.05
245.261	-0.01
245.477	0
245.694	-0.08
245.911	-0.05
246.127	-0.05
246.344	0.11
246.56	-0.02
246.777	-0.04
246.993	-0.02
247.21	0.13
247.426	0.06
247.643	-0.07
247.859	-0.12
248.076	-0.06
248.292	0.08
248.508	-0.03
248.725	0.04
248.941	-0.01
249.157	0.08
249.374	-0.06
249.59	0.02
249.806	0
250.023	0.1
250.239	0.01
250.455	-0.08
250.671	0.03
250.888	0.1
251.104	0.02
251.32	0.02
251.536	-0.02
251.752	-0.02
251.969	-0.03
252.185	0.03
252.401	0.22
252.617	-0.02
252.833	-0.08
253.049	0.02
253.265	-0.01
253.481	0
253.697	0.02
253.913	-0.03
254.129	-0.04
254.345	0.05
254.561	-0.01
254.777	0.01
254.993	0.11
255.209	0.03
255.425	-0.02
255.641	-0.01
255.857	0.05
256.073	0.03
256.288	-0.05
256.504	-0.03
256.72	-0.04
256.936	0.13
257.152	-0.01
257.367	-0.05
257.583	0.04
257.799	-0.01
258.015	-0.09
258.23	-0.05
258.446	0.15
258.662	0.01
258.877	-0.06
259.093	-0.05
259.309	0.04
259.524	0.01
259.74	-0.02
259.955	-0.15
260.171	0.07
260.387	-0
260.602	0.11
260.818	0.05
261.033	-0.09
261.249	-0.04
261.464	0.01
261.68	-0.1
261.895	0.04
262.11	0.12
262.326	-0.06
262.541	-0.09
262.757	0.05
262.972	0.04
263.187	0.05
263.403	-0.02
263.618	0.09
263.833	0.01
264.049	-0.04
264.264	-0.06
264.479	0.04
264.694	0.1
264.91	-0.08
265.125	-0.06
265.34	0.07
265.555	0.06
265.77	0.04
265.986	-0.02
266.201	-0.01
266.416	0.09
266.631	-0.06
266.846	0.01
267.061	0.03
267.276	0.02
267.491	-0.14
267.706	0.03
267.921	0.01
268.136	0.04
268.351	0.01
268.566	-0.04
268.781	0.07
268.996	0.05
269.211	0.04
269.426	-0.07
269.641	-0.03
269.856	0.03
270.071	-0.01
270.285	-0.03
270.5	0.05
270.715	0.03
270.93	0.07
271.145	0.03
271.359	0.04
271.574	-0.06
271.789	-0.03
272.004	-0.09
272.218	-0.07
272.433	0.1
272.648	-0.04
272.862	0.04
273.077	0.02
273.292	0.01
273.506	-0
273.721	0.07
273.936	0.07
274.15	0.05
274.365	-0.02
274.579	0.02
274.794	0.07
275.008	0.11
275.223	-0.09
275.437	0
275.652	0.05
275.866	0
276.081	-0.02
276.295	0.04
276.509	0.02
276.724	0.01
276.938	0
277.153	0.04
277.367	-0.07
277.581	-0.07
277.796	-0.05
278.01	-0.06
278.224	0.11
278.438	0.08
278.653	0.01
278.867	-0.04
279.081	-0.2
279.295	-0.03
279.51	0.01
279.724	-0.07
279.938	0.03
280.152	0.02
280.366	0.01
280.58	0.05
280.794	0.03
281.008	0.05
281.222	0.09
281.437	0.15
281.651	-0.03
281.865	0.07
282.079	-0.05
282.293	-0.08
282.507	0.01
282.721	-0.03
282.935	0.02
283.148	-0.1
283.362	-0.02
283.576	-0.09
283.79	0.01
284.004	-0.1
284.218	0.04
284.432	-0.07
284.646	0.02
284.859	-0.02
285.073	-0.01
285.287	0.02
285.501	0
285.714	0.01
285.928	0.06
286.142	-0.06
286.356	-0.03
286.569	0.01
286.783	0.06
286.997	0.05
287.21	-0
287.424	0.02
287.637	-0.03
287.851	0.02
288.065	0.04
288.278	0.01
288.492	-0.01
288.705	-0.03
288.919	0.03
289.132	-0.04
289.346	0.06
289.559	-0.1
289.773	-0.09
289.986	0.01
290.2	0.02
290.413	0.07
290.626	-0.05
290.84	0.01
291.053	0.01
291.267	0.03
291.48	0.01
291.693	0.03
291.906	-0.06
292.12	-0.01
292.333	-0.07
292.546	0.02
292.76	0.04
292.973	0.03
293.186	0.03
293.399	-0.01
293.612	0.07
293.826	0.02
294.039	-0.02
294.252	0.03
294.465	0
294.678	0.03
294.891	0
295.104	-0.01
295.317	0.02
295.53	-0
295.743	0.03
295.956	0
296.169	0.06
296.382	0.06
296.595	-0.01
296.808	-0.02
297.021	0.02
297.234	0.03
297.447	0
297.66	0.03
297.873	0.07
298.086	0.01
298.299	-0.01
298.511	-0.06
298.724	0.01
298.937	-0.01
299.15	-0.05
299.363	0.06
299.575	0.03
299.788	0.06
300.001	-0.01
300.213	0.02
300.426	-0.01
300.639	0
300.852	0.01
301.064	0.04
301.277	0.07
301.489	0.06
301.702	0.05
301.915	0.01
302.127	0.01
302.34	0.02
302.552	0.01
302.765	-0.01
302.977	0.06
303.19	-0.03
303.402	-0.03
303.615	-0
303.827	-0.05
304.04	-0.04
304.252	0.02
304.464	-0.01
304.677	0.09
304.889	-0.02
305.102	-0.04
305.314	-0.03
305.526	0.03
305.739	0.02
305.951	-0.01
306.163	0
306.375	0.07
306.588	-0
306.8	-0.03
307.012	-0.01
307.224	0.05
307.436	0.09
307.649	-0.07
307.861	0
308.073	0.04
308.285	-0
308.497	-0.05
308.709	-0.01
308.921	-0
309.133	0.03
309.346	-0.02
309.558	0.03
309.77	0.07
309.982	0.11
310.194	0.01
310.406	-0.03
310.617	0.09
310.829	0.03
311.041	0.01
311.253	-0.03
311.465	-0.04
311.677	0.03
311.889	0.01
312.101	-0
312.313	0.06
312.524	0.03
312.736	-0.07
312.948	-0.05
313.16	0.03
313.372	0.04
313.583	-0.01
313.795	0.01
314.007	0.02
314.218	0.04
314.43	-0.02
314.642	-0.03
314.853	-0.01
315.065	0.05
315.277	0.02
315.488	0.03
315.7	0.07
315.912	0.04
316.123	-0.03
316.335	0
316.546	0.07
316.758	0.03
316.969	0.02
317.181	0.01
317.392	0.05
317.604	0.03
317.815	-0.04
318.026	-0.03
318.238	-0.01
318.449	0.03
318.661	-0.05
318.872	0.01
319.083	-0.01
319.295	0.04
319.506	0.01
319.717	-0.02
319.929	0.05
320.14	0.01
320.351	0.02
320.562	0
320.774	0.04
320.985	0.02
321.196	-0.02
321.407	-0.05
321.618	0.01
321.829	-0
322.041	0.03
322.252	0.02
322.463	0.02
322.674	0
322.885	0
323.096	-0.04
323.307	0.04
323.518	0.01
323.729	-0.02
323.94	-0
324.151	-0.01
324.362	-0.03
324.573	0.04
324.784	-0.04
324.995	0.06
325.206	-0
325.417	0.01
325.628	-0.02
325.838	0.03
326.049	-0.01
326.26	0.07
326.471	0.01
326.682	0.04
326.892	0.03
327.103	-0.08
327.314	-0.02
327.525	0.05
327.735	0.01
327.946	-0.02
328.157	-0.03
328.368	0.02
328.578	0.01
328.789	0.03
328.999	-0
329.21	0
329.421	0.06
329.631	-0.06
329.842	-0.01
330.052	0.02
330.263	0.03
330.473	0.06
330.684	-0.02
330.894	-0.02
331.105	0.03
331.315	-0.02
331.526	-0.04
331.736	0.07
331.947	0.04
332.157	0.03
332.367	-0
332.578	0.04
332.788	0.07
332.999	0
333.209	0.01
333.419	-0.06
333.629	-0.02
333.84	0.04
334.05	0.04
334.26	0.06
334.47	0.03
334.681	-0
334.891	-0.01
335.101	0.04
335.311	0.1
335.521	0.01
335.732	-0.03
335.942	0.03
336.152	0.01
336.362	0.02
336.572	0
336.782	0.02
336.992	-0.01
337.202	-0.01
337.412	-0.01
337.622	0.02
337.832	0.01
338.042	0.02
338.252	-0.01
338.462	-0.01
338.672	-0
338.882	-0.04
339.092	0.01
339.302	0.04
339.511	0.03
339.721	-0.06
339.931	-0.02
340.141	0.04
340.351	0.08
340.561	0.01
340.77	0.05
340.98	-0.02
341.19	0.05
341.4	-0.01
341.609	-0.05
341.819	-0.01
342.029	-0.01
342.238	0.02
342.448	-0.03
342.658	0.03
342.867	0.04
343.077	-0.05
343.286	-0.01
343.496	0.03
343.706	0.08
343.915	-0.05
344.125	-0.01
344.334	0.04
344.544	-0.03
344.753	-0.01
344.963	0
345.172	-0.02
345.381	-0.03
345.591	-0
345.8	0.03
346.01	0.07
346.219	0.06
346.428	-0.13
346.638	-0
346.847	0.02
347.056	0.06
347.266	-0.01
347.475	0.04
347.684	0.01
347.893	0.04
348.103	0.03
348.312	0.02
348.521	0.01
348.73	0.05
348.94	-0.01
349.149	0
349.358	0.03
349.567	-0
349.776	-0.04
349.985	-0.02
350.194	0.07
350.403	0.03
350.612	-0.04
350.821	0.02
351.03	0.02
351.239	-0.04
351.448	0.01
351.657	-0.05
351.866	0.08
352.075	0.03
352.284	0.04
352.493	-0.02
352.702	0.06
352.911	0.03
353.12	0.01
353.329	-0
353.538	0.03
353.746	-0.01
353.955	-0
354.164	0.02
354.373	0.01
354.582	0.03
354.79	-0
354.999	0.06
355.208	0.02
355.416	0.06
355.625	-0.01
355.834	-0.04
356.042	0.03
356.251	0.01
356.46	-0.04
356.668	0.03
356.877	0.08
357.085	0.05
357.294	-0.04
357.503	0.05
357.711	-0.01
357.92	0.1
358.128	0.02
358.337	0
358.545	0.03
358.754	-0.01
358.962	0.07
359.17	-0.04
359.379	0.01
359.587	0.05
359.796	-0
360.004	0.04
360.212	0.01
360.421	0.07
360.629	-0.01
360.837	0.01
361.046	0.05
361.254	0.07
361.462	0.03
361.67	0
361.879	0.05
362.087	0.03
362.295	0.04
362.503	-0.01
362.711	-0.04
362.92	-0.01
363.128	0.02
363.336	0.02
363.544	-0.01
363.752	-0.02
363.96	-0.04
364.168	0.01
364.376	0.01
364.584	0
364.792	0.06
365	0.03
365.208	0.03
365.416	0.01
365.624	0.02
365.832	0.04
366.04	0.08
366.248	0.06
366.456	-0
366.664	0.06
366.872	0.03
367.079	-0.02
367.287	0.03
367.495	0.06
367.703	0.06
367.911	0.04
368.118	0.06
368.326	0.06
368.534	0.04
368.742	0.17
368.949	0.02
369.157	0.08
369.365	0.13
369.572	0.1
369.78	0.11
369.988	0.21
370.195	0.14
370.403	0.15
370.61	0.17
370.818	0.21
371.026	0.22
371.233	0.2
371.441	0.27
371.648	0.25
371.856	0.31
372.063	0.34
372.271	0.3
372.478	0.34
372.685	0.36
372.893	0.45
373.1	0.39
373.308	0.41
373.515	0.57
373.722	0.55
373.93	0.54
374.137	0.57
374.344	0.67
374.552	0.67
374.759	0.7
374.966	0.71
375.173	0.73
375.381	0.83
375.588	0.78
375.795	0.79
376.002	0.9
376.209	0.91
376.417	0.99
376.624	1.11
376.831	1.09
377.038	1.1
377.245	1.15
377.452	1.29
377.659	1.34
377.866	1.33
378.073	1.47
378.28	1.48
378.487	1.65
378.694	1.67
378.901	1.79
379.108	1.83
379.315	1.99
379.522	2.04
379.729	2.14
379.936	2.12
380.143	2.25
380.35	2.39
380.557	2.46
380.763	2.46
380.97	2.53
381.177	2.68
381.384	2.81
381.591	2.89
381.797	2.93
382.004	3.01
382.211	3.11
382.418	3.13
382.624	3.24
382.831	3.22
383.038	3.28
383.244	3.24
383.451	3.19
383.658	3.13
383.864	3.3
384.071	3.11
384.277	3.16
384.484	3.06
384.69	3.06
384.897	2.97
385.103	2.89
385.31	2.77
385.516	2.69
385.723	2.57
385.929	2.57
386.136	2.38
386.342	2.33
386.549	2.2
386.755	2.2
386.961	2.18
387.168	2.06
387.374	1.93
387.58	1.88
387.787	1.78
387.993	1.73
388.199	1.6
388.406	1.52
388.612	1.44
388.818	1.38
389.024	1.35
389.231	1.31
389.437	1.32
389.643	1.31
389.849	1.18
390.055	1.17
390.261	1.11
390.467	1.16
390.674	1.09
390.88	1.05
391.086	1.05
391.292	0.95
391.498	0.99
391.704	0.92
391.91	0.91
392.116	0.8
392.322	0.68
392.528	0.89
392.734	0.77
392.94	0.74
393.146	0.7
393.352	0.73
393.557	0.64
393.763	0.66
393.969	0.66
394.175	0.61
394.381	0.62
394.587	0.53
394.792	0.58
394.998	0.63
395.204	0.59
395.41	0.5
395.615	0.49
395.821	0.48
396.027	0.46
396.233	0.44
396.438	0.46
396.644	0.46
396.85	0.43
397.055	0.38
397.261	0.4
397.466	0.42
397.672	0.35
397.878	0.37
398.083	0.35
398.289	0.32
398.494	0.32
398.7	0.33
398.905	0.21
399.111	0.38
399.316	0.25
399.522	0.27
399.727	0.24
399.932	0.23
400.138	0.24
400.343	0.25
400.549	0.23
400.754	0.25
400.959	0.23
401.165	0.18
401.37	0.23
401.575	0.28
401.78	0.16
401.986	0.11
402.191	0.17
402.396	0.12
402.601	0.17
402.807	0.22
403.012	0.16
403.217	0.23
403.422	0.17
403.627	0.16
403.832	0.15
404.037	0.19
404.243	0.22
404.448	0.15
404.653	0.12
404.858	0.16
405.063	0.19
405.268	0.12
405.473	0.08
405.678	0.1
405.883	0.23
406.088	0.15
406.293	0.07
406.498	0.09
406.703	0.17
406.907	0.13
407.112	0.11
407.317	0.09
407.522	0.16
407.727	0.08
407.932	0.08
408.136	0.19
408.341	0.13
408.546	0.15
408.751	0.13
408.956	0.1
409.16	0.15
409.365	0.09
409.57	0.07
409.774	0.07
409.979	0.12
410.184	0.08
410.388	0.05
410.593	0.13
410.798	0.11
411.002	0.05
411.207	0.09
411.411	0.09
411.616	0.05
411.82	0.09
412.025	0.1
412.229	0.05
412.434	0.13
412.638	0.1
412.843	0.08
413.047	0.1
413.252	0.01
413.456	0.08
413.66	0.13
413.865	0.05
414.069	0.13
414.273	0.08
414.478	0.04
414.682	0.01
414.886	0.03
415.091	0.03
415.295	-0.01
415.499	0.06
415.703	0.03
415.908	0.1
416.112	-0.03
416.316	0.08
416.52	0.11
416.724	-0.05
416.929	0.02
417.133	0.13
417.337	0.01
417.541	0.02
417.745	0.03
417.949	0.05
418.153	0.06
418.357	0.05
418.561	0.15
418.765	0.07
418.969	0.14
419.173	0.08
419.377	0
419.581	0.1
419.785	-0
419.989	-0.04
420.193	0.06
420.397	-0.02
420.601	0.1
420.804	0.04
421.008	0.02
421.212	0.02
421.416	0.1
421.62	0.07
421.823	0.04
422.027	0.11
422.231	0.08
422.435	-0.01
422.638	0.1
422.842	0
423.046	-0.03
423.249	0.01
423.453	0.08
423.657	0.04
423.86	0.05
424.064	0.05
424.268	0.1
424.471	0.01
424.675	0.11
424.878	0.08
425.082	0.05
425.285	0.06
425.489	0.06
425.692	0.04
425.896	0.02
426.099	0.05
426.303	0
426.506	-0.02
426.71	0.08
426.913	0.05
427.116	0.09
427.32	0.06
427.523	0.07
427.726	0.11
427.93	0.04
428.133	0.03
428.336	0.01
428.54	-0
428.743	0.09
428.946	0.07
429.149	0.02
429.353	0.08
429.556	0.1
429.759	0.06
429.962	-0.01
430.165	0.05
430.368	0.05
430.571	0.01
430.775	0.12
430.978	0.04
431.181	0.08
431.384	0.06
431.587	0.06
431.79	0.03
431.993	0.07
432.196	0.07
432.399	0.03
432.602	0.08
432.805	0.04
433.008	0.09
433.211	-0.01
433.414	0.07
433.616	0.07
433.819	0.02
434.022	-0.02
434.225	0.14
434.428	0.08
434.631	0.17
434.833	0.05
435.036	0.01
435.239	0.11
435.442	0.08
435.645	0.06
435.847	0.06
436.05	0.11
436.253	0.11
436.455	0
436.658	0.04
436.861	0.15
437.063	0.03
437.266	0.06
437.468	0.09
437.671	0.19
437.874	0.08
438.076	0.02
438.279	0.03
438.481	0.09
438.684	0.02
438.886	0.07
439.089	-0.02
439.291	0.03
439.494	0.12
439.696	0.01
439.899	0.05
440.101	0.1
440.303	0.02
440.506	0.1
440.708	0.04
440.91	0.13
441.113	0.01
441.315	0.09
441.517	0.03
441.72	0.14
441.922	0.05
442.124	-0.02
442.326	0.11
442.529	0.09
442.731	0.08
442.933	0.17
443.135	0.04
443.337	0.03
443.539	0.09
443.742	0.07
443.944	0.11
444.146	0.1
444.348	0.03
444.55	0.04
444.752	0.14
444.954	0.05
445.156	0.1
445.358	0.09
445.56	0.13
445.762	0.07
445.964	0.07
446.166	0.04
446.368	0.09
446.57	0.12
446.772	0.12
446.974	0.06
447.175	0.11
447.377	0.06
447.579	0.1
447.781	0.02
447.983	0.16
448.184	0.1
448.386	0.1
448.588	0.05
448.79	0.15
448.991	0.07
449.193	0.15
449.395	0.09
449.597	0.14
449.798	0.07
450	0.13
450.202	0.08
450.403	0.12
450.605	0.14
450.806	0.08
451.008	0.02
451.21	0.09
451.411	0.09
451.613	0.03
451.814	0.1
452.016	0.12
452.217	0.07
452.419	0.12
452.62	0.05
452.821	0.15
453.023	0.14
453.224	0.12
453.426	0.07
453.627	0.1
453.828	0.1
454.03	0.12
454.231	0.18
454.432	0.05
454.634	0.16
454.835	0.04
455.036	0.05
455.238	0.11
455.439	0.15
455.64	0.03
455.841	0.03
456.042	0.12
456.244	0.09
456.445	0.04
456.646	-0
456.847	0.04
457.048	0.12
457.249	0.07
457.45	0.25
457.651	-0.01
457.852	0.08
458.054	0.1
458.255	0.05
458.456	0.07
458.657	0.04
458.858	0.04
459.058	0.06
459.259	0.1
459.46	0.07
459.661	0.04
459.862	0.1
460.063	0.02
460.264	0.07
460.465	-0.01
460.666	0.13
460.866	0.03
461.067	0.01
461.268	0.03
461.469	0.06
461.67	0.08
461.87	0.04
462.071	0.06
462.272	0
462.473	0.07
462.673	0.05
462.874	0.03
463.075	0.08
463.275	0.03
463.476	0.06
463.676	0.05
463.877	0.1
464.078	0.03
464.278	0.08
464.479	0.06
464.679	0.03
464.88	0.06
465.08	0.08
465.281	0.04
465.481	0.01
465.682	0.02
465.882	0.05
466.083	0.03
466.283	0.01
466.483	0.02
466.684	-0.04
466.884	0.03
467.085	0.06
467.285	0.1
467.485	-0.01
467.686	0.01
467.886	0.02
468.086	0.05
468.286	0.04
468.487	0.07
468.687	-0.05
468.887	-0.01
469.087	0.03
469.287	0.01
469.488	-0.02
469.688	0.02
469.888	0.06
470.088	0.08
470.288	0.05
470.488	0.06
470.688	-0.03
470.888	0
471.088	0.01
471.288	0.09
471.488	0.03
471.688	0.02
471.888	0.01
472.088	0.07
472.288	0.02
472.488	-0.05
472.688	-0
472.888	0.04
473.088	-0.02
473.288	0.03
473.488	0.01
473.688	0.05
473.887	0.02
474.087	0.01
474.287	0
474.487	-0.03
474.687	0.05
474.886	0
475.086	0.03
475.286	0.03
475.486	-0.01
475.685	0.05
475.885	0.04
476.085	-0.02
476.284	0.03
476.484	-0.01
476.684	0.02
476.883	0.09
477.083	0.04
477.282	-0.04
477.482	0.07
477.681	0.08
477.881	0.01
478.08	-0.03
478.28	0
478.479	0.03
478.679	0.09
478.878	0.03
479.078	0.01
479.277	0
479.477	0.03
479.676	0.06
479.875	0.03
480.075	-0.01
480.274	0.04
480.473	0.03
480.673	0.03
480.872	0.03
481.071	0.05
481.271	0.06
481.47	-0
481.669	0.01
481.868	-0.02
482.067	-0.03
482.267	0
482.466	-0.04
482.665	-0.02
482.864	-0.04
483.063	0
483.262	0.02
483.461	0.04
483.661	0.03
483.86	0.01
484.059	0
484.258	0.01
484.457	-0
484.656	0.04
484.855	0.05
485.054	-0.04
485.253	-0.01
485.452	-0.04
485.651	-0
485.849	-0
486.048	0.01
486.247	-0.02
486.446	0.01
486.645	-0.02
486.844	-0.02
487.043	0.01
487.241	0.01
487.44	0
487.639	0
487.838	0.04
488.037	0.02
488.235	0.07
488.434	0
488.633	-0
488.831	0.02
489.03	0.03
489.229	0.02
489.427	0.01
489.626	0.04
489.825	0.06
490.023	-0
490.222	0.01
490.42	0.02
490.619	0.03
490.817	0.02
491.016	0
491.214	0.06
491.413	0.02
491.611	-0.02
491.81	0.02
492.008	0.04
492.207	0.03
492.405	0.03
492.604	-0.01
492.802	-0.01
493	0.02
493.199	0.02
493.397	-0
493.595	0
493.794	-0.01
493.992	0.07
494.19	0
494.388	0.03
494.587	0
494.785	0.01
494.983	-0.04
495.181	0.05
495.379	-0
495.578	-0.01
495.776	0.01
495.974	-0.01
496.172	-0.01
496.37	-0
496.568	-0.03
496.766	0
496.964	0.03
497.162	0
497.36	-0.01
497.558	0.02
497.756	0.01
497.954	-0
498.152	-0.01
498.35	0.01
498.548	0.01
498.746	0
498.944	-0.01
499.142	-0.01
499.34	-0.02
499.538	0.02
499.736	-0
499.933	0.04
500.131	0.04
500.329	0.02
500.527	0.04
500.725	0.02
500.922	0.04
501.12	0.02
501.318	0.03
501.516	0.01
501.713	0.02
501.911	0.01
502.109	-0.03
502.306	0.03
502.504	-0.01
502.701	-0.01
502.899	-0.01
503.097	0.05
503.294	0.02
503.492	0.01
503.689	0.03
503.887	0.02
504.084	0.06
504.282	0.01
504.479	-0.03
504.677	-0.01
504.874	-0.03
505.072	0
505.269	0.01
505.466	0.02
505.664	-0.01
505.861	-0.01
506.059	-0.01
506.256	0.03
506.453	-0.02
506.651	0.03
506.848	0.01
507.045	-0
507.242	0
507.44	0.01
507.637	0
507.834	0.01
508.031	0.01
508.229	-0.02
508.426	0.01
508.623	0.02
508.82	-0.01
509.017	-0.02
509.214	0
509.411	0.01
509.608	-0.03
509.805	0
510.003	-0.02
510.2	0.02
510.397	0.02
510.594	-0
510.791	-0
510.988	-0
511.184	0.02
511.381	0.02
511.578	-0.02
511.775	0.04
511.972	0
512.169	0.02
512.366	0
512.563	0.03
512.76	-0.01
512.956	0.02
513.153	-0.02
513.35	0.01
513.547	-0.01
513.744	-0.03
513.94	-0.02
514.137	0.03
514.334	-0.01
514.53	0.02
514.727	0.01
514.924	0.03
515.12	-0
515.317	-0.01
515.514	-0.01
515.71	-0
515.907	0
516.103	0
516.3	0.01
516.497	0.01
516.693	0.04
516.89	0.01
517.086	-0.03
517.283	0.03
517.479	0.01
517.676	-0
517.872	-0.01
518.068	-0
518.265	-0.01
518.461	0
518.658	0.01
518.854	-0
519.05	0
519.247	-0.01
519.443	0.02
519.639	0.01
519.836	0.01
520.032	0.01
520.228	0.01
520.424	0.04
520.621	0.04
520.817	-0.01
521.013	0.02
521.209	0.01
521.405	0.05
521.601	0.02
521.798	0
521.994	0.01
522.19	-0.01
522.386	-0.03
522.582	0
522.778	0.01
522.974	-0.01
523.17	0.02
523.366	-0
523.562	0.03
523.758	0.01
523.954	-0.01
524.15	-0.01
524.346	0.02
524.542	0
524.738	-0.01
524.934	0.01
525.129	-0.01
525.325	0.02
525.521	-0.01
525.717	0.01
525.913	0.01
526.109	0.02
526.304	0.02
526.5	0.04
526.696	0.03
526.892	0.01
527.087	0.01
527.283	-0
527.479	0.01
527.674	-0.02
527.87	-0
528.066	0.02
528.261	0.01
528.457	0
528.653	-0.01
528.848	-0
529.044	0.01
529.239	0.01
529.435	0.03
529.63	-0
529.826	0.05
530.021	0.02
530.217	0.04
530.412	-0.01
530.608	-0.02
530.803	-0
530.999	-0.02
531.194	-0.02
531.389	0
531.585	-0.05
531.78	0
531.975	-0
532.171	0.01
532.366	0.01
532.561	-0.01
532.757	-0
532.952	-0
533.147	0.02
533.342	0.01
533.538	-0.01
533.733	0.03
533.928	0
534.123	0
534.318	-0.02
534.513	-0
534.709	-0
534.904	-0.01
535.099	-0
535.294	-0.02
535.489	0.02
535.684	-0
535.879	-0.02
536.074	0.01
536.269	-0.01
536.464	0
536.659	0
536.854	0.01
537.049	0.02
537.244	0.03
537.439	-0
537.634	0.03
537.828	0
538.023	-0
538.218	-0.03
538.413	0
538.608	-0.01
538.803	0.03
538.997	-0.02
539.192	0
539.387	-0.01
539.582	0
539.776	0.01
539.971	-0.01
540.166	-0.01
540.36	-0.02
540.555	-0
540.75	-0.01
540.944	0
541.139	-0.03
541.334	0
541.528	0.04
541.723	0.04
541.917	-0.01
542.112	-0.03
542.306	-0.02
542.501	-0.02
542.695	0.01
542.89	-0.02
543.084	0.03
543.279	0
543.473	-0
543.668	-0.01
543.862	-0
544.056	0.04
544.251	0
544.445	0.02
544.64	-0.02
544.834	-0
545.028	0.01
545.222	0.02
545.417	0.02
545.611	-0
545.805	0.02
546	-0.02
546.194	0.01
546.388	-0.02
546.582	0.02
546.776	-0
546.97	-0.01
547.165	0.03
547.359	0.02
547.553	-0.02
547.747	0
547.941	-0.02
548.135	-0
548.329	0.02
548.523	0.01
548.717	-0
548.911	-0.02
549.105	0
549.299	0.01
549.493	0.03
549.687	0.02
549.881	0.02
550.075	0.01
550.269	-0.02
550.463	0.02
550.657	0
550.85	0.01
551.044	0.01
551.238	0.01
551.432	-0.01
551.626	-0.02
551.82	-0.01
552.013	-0.01
552.207	0
552.401	-0.01
552.594	0
552.788	0.02
552.982	0.02
553.176	-0.01
553.369	0.02
553.563	0.01
553.756	-0.03
553.95	-0.01
554.144	0
554.337	0.03
554.531	0.03
554.724	0.01
554.918	-0.01
555.111	0.03
555.305	0
555.498	0.07
555.692	0.01
555.885	-0.01
556.079	0.02
556.272	0
556.466	0.02
556.659	0.02
556.852	0.01
557.046	-0.01
557.239	0.03
557.432	-0.01
557.626	-0
557.819	0.02
558.012	0.03
558.206	0.03
558.399	0.02
558.592	0.01
558.785	-0.02
558.979	0.03
559.172	0.02
559.365	0.04
559.558	0
559.751	-0
559.944	0.02
560.138	-0
560.331	0
560.524	0.01
560.717	0.01
560.91	0.01
561.103	0.04
561.296	-0.01
561.489	0.01
561.682	0.02
561.875	0.05
562.068	0.01
562.261	0
562.454	0.03
562.647	0.02
562.84	0.03
563.032	-0.01
563.225	-0.01
563.418	0.01
563.611	0
563.804	-0
563.997	-0.01
564.19	-0.03
564.382	0
564.575	-0.01
564.768	0.01
564.961	0
565.153	-0
565.346	-0.01
565.539	0.02
565.731	0.01
565.924	0.02
566.117	0.01
566.309	0.02
566.502	-0.01
566.695	0.01
566.887	0.01
567.08	-0.02
567.272	-0.01
567.465	0
567.657	0
567.85	-0
568.042	0.01
568.235	0.02
568.427	-0
568.62	0
568.812	0.02
569.005	0.02
569.197	-0.02
569.389	0.02
569.582	0.01
569.774	0.01
569.966	-0.02
570.159	0.01
570.351	0.01
570.543	-0.01
570.736	-0.01
570.928	-0.03
571.12	0.01
571.312	-0.01
571.505	-0.02
571.697	0.02
571.889	-0.02
572.081	-0.01
572.273	-0.01
572.465	0.02
572.658	0.03
572.85	0.02
573.042	0.01
573.234	0
573.426	0.03
573.618	-0.02
573.81	0.01
574.002	0.03
574.194	0.04
574.386	-0.01
574.578	-0.05
574.77	-0.01
574.962	0
575.154	-0.05
575.346	0
575.538	0.01
575.729	-0.03
575.921	-0.02
576.113	-0.03
576.305	0.03
576.497	0.01
576.689	0
576.88	-0.02
577.072	0.03
577.264	-0.01
577.456	-0
577.647	-0.06
577.839	-0.01
578.031	0.02
578.223	-0.01
578.414	-0.02
578.606	0.01
578.798	0
578.989	-0.02
579.181	-0.01
579.372	0.01
579.564	-0.02
579.755	0.01
579.947	0.01
580.139	0.03
580.33	-0.05
580.522	-0.01
580.713	-0.05
580.905	0.02
581.096	0
581.287	0
581.479	-0.01
581.67	0.02
581.862	-0.01
582.053	-0.01
582.244	-0.05
582.436	0.03
582.627	0.02
582.818	0
583.01	-0.02
583.201	0.03
583.392	0.01
583.583	0.01
583.775	-0
583.966	-0.04
584.157	-0.01
584.348	-0.01
584.54	-0.04
584.731	0
584.922	0.01
585.113	0
585.304	0.05
585.495	0.03
585.686	0.01
585.877	0.03
586.068	0.01
586.259	0.03
586.45	0
586.641	-0.02
586.832	-0.04
587.023	0.01
587.214	-0.02
587.405	0.01
587.596	-0.03
587.787	0.05
587.978	0
588.169	-0
588.36	-0
588.551	0.02
588.742	-0
588.932	0.01
589.123	0.01
589.314	0.02
589.505	0.04
589.696	0.01
589.886	-0.06
590.077	-0.04
590.268	0.02
590.458	-0.04
590.649	-0.04
590.84	0.02
591.03	-0.01
591.221	-0.05
591.412	-0.01
591.602	0.01
591.793	0.03
591.984	-0.04
592.174	-0.02
592.365	0.07
592.555	-0.03
592.746	0.01
592.936	0.01
593.127	0.01
593.317	0.02
593.508	-0.03
593.698	0.01
593.889	0.01
594.079	0.02
594.269	0.01
594.46	0.02
594.65	0
594.84	0.01
595.031	-0.02
595.221	-0.01
595.411	-0.04
595.602	0.02
595.792	0
595.982	-0.01
596.172	0.06
596.363	0.01
596.553	0.02
596.743	0
596.933	0
597.123	-0.01
597.314	-0.01
597.504	-0.01
597.694	0.02
597.884	0.01
598.074	0
598.264	-0.01
598.454	0.02
598.644	0.02
598.834	0.03
599.024	-0.04
599.214	0.02
599.404	0.02
599.594	-0.02
599.784	-0.03
599.974	0.03
600.164	0.01
600.354	-0.04
600.544	-0.05
600.734	0.01
600.924	0.03
601.114	-0
601.303	0.01
601.493	0
601.683	-0.03
601.873	0.03
602.063	-0.05
602.252	0.03
602.442	-0.05
602.632	-0.04
602.821	-0.02
603.011	0.01
603.201	-0.01
603.39	-0.01
603.58	-0.02
603.77	0.02
603.959	0.02
604.149	0.01
604.339	-0.01
604.528	0.01
604.718	0.01
604.907	0.01
605.097	-0.02
605.286	-0.04
605.476	0.03
605.665	0.02
605.855	0.01
606.044	0.04
606.234	0.01
606.423	-0.02
606.612	-0.01
606.802	-0.01
606.991	0.02
607.181	0
607.37	-0.03
607.559	0.01
607.749	-0.05
607.938	0
608.127	-0.01
608.316	-0.02
608.506	0
608.695	0
608.884	-0.03
609.073	0.02
609.263	0.03
609.452	0.02
609.641	0.02
609.83	-0.02
610.019	-0.03
610.208	0.01
610.397	0.01
610.586	0.01
610.775	-0.05
610.965	-0.01
611.154	0.01
611.343	0.02
611.532	0
611.721	-0.01
611.91	-0.04
612.099	0.01
612.287	0.02
612.476	-0.02
612.665	0.01
612.854	-0
613.043	0.02
613.232	0
613.421	-0.02
613.61	0
613.798	-0
613.987	0.03
614.176	0
614.365	0
614.554	-0
614.742	0.03
614.931	0.02
615.12	0.04
615.309	-0.01
615.497	0.01
615.686	-0.03
615.875	0.01
616.063	0
616.252	-0.01
616.44	-0.02
616.629	0
616.818	0.02
617.006	-0.01
617.195	0.01
617.383	0
617.572	0.01
617.76	-0.04
617.949	0.02
618.137	0.02
618.326	0.04
618.514	-0.02
618.703	-0.02
618.891	0.06
619.079	-0.03
619.268	0.02
619.456	-0.01
619.644	0.03
619.833	-0
620.021	0.01
620.209	-0.04
620.398	0.01
620.586	0.02
620.774	0.01
620.962	-0.02
621.151	0.06
621.339	-0.01
621.527	-0.01
621.715	-0.02
621.903	-0.01
622.092	-0.03
622.28	0.02
622.468	-0.02
622.656	-0
622.844	0.02
623.032	-0.02
623.22	-0.05
623.408	0.04
623.596	-0.01
623.784	0.06
623.972	-0.01
624.16	0.01
624.348	0.03
624.536	0.01
624.724	0
624.912	0.02
625.1	0.05
625.288	-0.01
625.476	-0
625.664	0.03
625.851	-0.02
626.039	-0
626.227	0.02
626.415	-0
626.603	-0.04
626.79	0.04
626.978	-0.01
627.166	0.03
627.354	-0.02
627.541	-0.04
627.729	-0.05
627.917	0.01
628.104	0.03
628.292	0
628.48	0.02
628.667	-0.03
628.855	0.01
629.042	0.02
629.23	-0
629.418	0.02
629.605	0.01
629.793	0
629.98	0
630.168	0.02
630.355	-0.01
630.543	0.03
630.73	-0
630.917	0.05
631.105	0.08
631.292	0.01
631.48	0.01
631.667	0.06
631.854	0.05
632.042	-0.01
632.229	-0.05
632.416	0.03
632.604	0
632.791	-0.02
632.978	0.03
633.165	0.01
633.353	0.07
633.54	0.03
633.727	-0.04
633.914	-0.01
634.101	-0.06
634.289	0.04
634.476	-0.02
634.663	0.02
634.85	0
635.037	-0.01
635.224	-0.01
635.411	0.04
635.598	0.04
635.785	-0.01
635.972	0.02
636.159	-0
636.346	-0.01
636.533	0.04
636.72	0
636.907	0
637.094	0.03
637.281	0.01
637.468	0.05
637.655	0.02
637.842	0.02
638.029	0
638.215	0.04
638.402	0.05
638.589	0.01
638.776	0.02
638.963	-0.01
639.149	0.05
639.336	0.06
639.523	0.04
639.709	0.03
639.896	0.02
640.083	0.08
640.27	0
640.456	0.02
640.643	0.06
640.829	-0.01
641.016	-0.01
641.203	-0.03
641.389	0.03
641.576	0.06
641.762	0.04
641.949	-0.04
642.135	0.07
642.322	0.06
642.508	-0.03
642.695	0.03
642.881	-0
643.068	0.05
643.254	-0
643.441	0.08
643.627	0.03
643.813	0.01
644	0.07
644.186	0.02
644.372	0.03
644.559	0.09
644.745	0.04
644.931	0.01
645.118	0.06
645.304	0.05
645.49	0.02
645.676	-0.01
645.862	0.05
646.049	0.09
646.235	0.05
646.421	0.12
646.607	0.1
646.793	0.04
646.979	0
647.165	0.06
647.352	0.05
647.538	0.09
647.724	0.05
647.91	0.05
648.096	0.06
648.282	0.04
648.468	0.05
648.654	0.05
648.84	0.06
649.026	0.05
649.212	0.07
649.397	0.03
649.583	0.02
649.769	0.1
649.955	0.08
650.141	0.09
650.327	0.07
650.513	0.02
650.698	0.06
650.884	0.01
651.07	0.1
651.256	0.06
651.442	0.07
651.627	0.05
651.813	0.07
651.999	0.05
652.184	0.07
652.37	0.06
652.556	0.05
652.741	0.13
652.927	0.01
653.113	0.07
653.298	0.1
653.484	0.09
653.669	0.02
653.855	0.08
654.04	0.1
654.226	0.12
654.412	0.05
654.597	0.08
654.782	0.11
654.968	0.11
655.153	0.09
655.339	0.11
655.524	0.06
655.71	0.11
655.895	0.05
656.08	0.1
656.266	0.14
656.451	0.12
656.636	0.06
656.822	0.13
657.007	0.06
657.192	0.07
657.378	0.05
657.563	0.1
657.748	0.13
657.933	0.14
658.118	0.06
658.304	0.09
658.489	0.14
658.674	0.08
658.859	0.07
659.044	0.11
659.229	0.12
659.414	0.08
659.599	0.07
659.785	0.05
659.97	0.09
660.155	0.11
660.34	0.1
660.525	0.1
660.71	0.09
660.895	0.14
661.08	0.06
661.264	0.09
661.449	0.15
661.634	0.14
661.819	0.12
662.004	0.15
662.189	0.02
662.374	0.04
662.559	0.06
662.743	0.05
662.928	0.06
663.113	0.06
663.298	-0.01
663.483	0.04
663.667	0.06
663.852	0.03
664.037	0.12
664.221	0.02
664.406	0.07
664.591	0.05
664.775	0.05
664.96	0.02
665.145	0.04
665.329	0.08
665.514	0.07
665.698	0.01
665.883	-0
666.068	0.1
666.252	0.05
666.437	0.02
666.621	0.02
666.806	0.05
666.99	0.03
667.174	0.02
667.359	0.13
667.543	-0
667.728	0
667.912	-0.09
668.096	0.07
668.281	0.03
668.465	0.01
668.649	0.02
668.834	0.01
669.018	0.01
669.202	0.01
669.387	-0
669.571	0.03
669.755	-0.03
669.939	0.02
670.124	-0
670.308	0.08
670.492	0.07
670.676	0.03
670.86	0.04
671.044	0
671.228	0.04
671.413	0.02
671.597	0.01
671.781	0.01
671.965	0.04
672.149	0
672.333	0.02
672.517	-0.01
672.701	0
672.885	0.01
673.069	-0.03
673.253	0.03
673.437	0.01
673.621	-0.01
673.804	0
673.988	0.02
674.172	0.03
674.356	-0.04
674.54	-0.03
674.724	0.07
674.908	0.04
675.091	0.04
675.275	-0.01
675.459	0.01
675.643	-0
675.826	0.02
676.01	0.01
676.194	0.01
676.377	0.02
676.561	0.06
676.745	0
676.928	0
677.112	0.05
677.296	-0.04
677.479	-0.01
677.663	-0.03
677.846	0.01
678.03	0
678.213	-0.02
678.397	0.01
678.58	0.01
678.764	-0.02
678.947	-0.01
679.131	-0.05
679.314	0.06
679.498	-0.02
679.681	-0
679.865	0.05
680.048	-0.03
680.231	-0.04
680.415	-0
680.598	-0
680.781	-0.01
680.965	0.04
681.148	0.02
681.331	-0.01
681.514	-0
681.698	-0.05
681.881	0.02
682.064	0.04
682.247	0.02
682.43	-0.01
682.614	0.03
682.797	0.03
682.98	-0
683.163	-0.04
683.346	0.02
683.529	-0.03
683.712	-0.07
683.895	0.01
684.078	-0.09
684.261	0.02
684.444	0.02
684.627	0.03
684.81	-0.03
684.993	-0.06
685.176	-0
685.359	-0.04
685.542	-0.04
685.725	0.04
685.908	-0.01
686.091	-0.02
686.274	0.03
686.457	0.01
686.639	-0.02
686.822	0.07
687.005	-0.02
687.188	0.01
687.371	0.08
687.553	0
687.736	0.02
687.919	0.11
688.102	0.07
688.284	0
688.467	-0.01
688.65	-0.05
688.832	-0.03
689.015	0
689.197	-0.01
689.38	0.06
689.563	0.04
689.745	-0
689.928	-0.05
690.11	0.01
690.293	0
690.475	-0.03
690.658	0
690.84	-0.02
691.023	-0.01
691.205	0
691.388	0.05
691.57	0.04
691.752	0.02
691.935	-0.14
692.117	-0.07
692.3	0.04
692.482	0.03
692.664	-0
692.847	0.02
693.029	0.03
693.211	0.07
693.393	0.01
693.576	-0.03
693.758	-0.01
693.94	-0.04
694.122	-0.08
694.304	-0.01
694.487	-0.01
694.669	0.07
694.851	-0.05
695.033	0
695.215	-0
695.397	-0.06
695.579	0.01
695.761	-0
695.943	-0.08
696.125	0.07
696.308	-0.01
696.49	-0.03
696.671	0.11
696.853	0.04
697.035	0.1
697.217	-0.01
697.399	0.02
697.581	0
697.763	0.02
697.945	-0.09
698.127	0.01
698.309	-0.04
698.491	-0.01
698.672	0.02
698.854	0.03
699.036	0.06
699.218	-0.02
699.399	0.06
699.581	0.06
699.763	0.04
699.945	-0.02
700.126	-0.02
700.308	0.02
700.49	-0.03
700.671	-0.04
700.853	-0.02
701.035	-0.02
701.216	0.02
701.398	-0.05
701.579	0.01
701.761	0.11
701.943	-0.02
702.124	-0.04
702.306	0.04
702.487	0.09
702.669	-0.01
702.85	-0.09
703.031	-0.05
703.213	0.1
703.394	0.07
703.576	-0.03
703.757	0.08
703.938	0.02
704.12	0.14
704.301	-0.03
704.483	-0.02
704.664	0.03
704.845	0.11
705.026	0.02
705.208	0.04
705.389	-0.03
705.57	0.05
705.751	-0.03
705.933	-0
706.114	0.05
706.295	0.01
706.476	-0.04
706.657	0.06
706.838	0.03
707.02	0.04
707.201	-0.04
707.382	0.07
707.563	-0
707.744	-0.06
707.925	-0.06
708.106	-0.03
708.287	0.01
708.468	0.07
708.649	-0.07
708.83	0.08
709.011	-0.05
709.192	0.05
709.373	0.01
709.554	0
709.734	0.07
709.915	0.03
710.096	0.02
710.277	-0.05
710.458	0.02
710.639	0.06
710.819	-0.05
711	0.01
711.181	0.1
711.362	0.02
711.542	0.03
711.723	-0.05
711.904	0.08
712.085	0.04
712.265	-0.01
712.446	-0.01
712.627	0.02
712.807	0.01
712.988	0.02
713.168	-0.05
713.349	0.08
713.53	-0.09
713.71	-0.01
713.891	-0.03
714.071	0.04
714.252	-0.04
714.432	-0.02
714.613	-0.05
714.793	0.07
714.974	0.07
715.154	0.09
715.334	0.07
715.515	0.1
715.695	-0.05
715.876	0.04
716.056	0.02
716.236	-0.02
716.417	0.02
716.597	0.01
716.777	0.12
716.957	0.02
717.138	0.06
717.318	0.03
717.498	-0.04
717.678	-0
717.859	0.02
718.039	-0.02
718.219	0.1
718.399	0.13
718.579	-0.08
718.759	-0.01
718.939	0.1
719.12	0.07
719.3	0.1
719.48	-0.07
719.66	-0.05
719.84	0.13
720.02	0.02
720.2	0.04
720.38	-0.01
720.56	0.16
720.74	0
720.92	0.06
721.1	0.13
721.279	0.13
721.459	0.04
721.639	-0.04
721.819	0.03
721.999	0.08
722.179	0.11
722.359	-0.07
722.538	0.1
722.718	0.06
722.898	0.02
723.078	0.03
723.257	0.06
723.437	0.1
723.617	0.03
723.797	0.01
723.976	0.09
724.156	0.09
724.336	0.08
724.515	0.19
724.695	-0.1
724.874	0
725.054	0.11
725.234	0.04
725.413	0.03
725.593	-0.03
725.772	0.04
725.952	0.02
726.131	0.06
726.311	0.04
726.49	0.06
726.67	0.01
726.849	0.01
727.028	0.03
727.208	0.05
727.387	0.1
727.567	-0.02
727.746	0.04
727.925	0.09
728.105	0.01
728.284	0.01
728.463	0.03
728.643	0.2
728.822	0.02
729.001	0.13
729.18	0.01
729.359	0.1
729.539	0.11
729.718	0.11
729.897	0.07
730.076	0.02
730.255	0
730.434	0.09
730.614	0.14
730.793	0.08
730.972	0.05
731.151	0.1
731.33	0.16
731.509	0.09
731.688	0.09
731.867	0.12
732.046	-0.02
732.225	0.24
732.404	0.02
732.583	-0.03
732.762	0.17
732.941	0.18
733.12	0.06
733.298	0
733.477	0.19
733.656	0.03
733.835	0.01
734.014	0.2
734.193	0.04
734.371	0.16
734.55	0.14
734.729	-0.02
734.908	0.18
735.086	0.12
735.265	0.08
735.444	-0.07
735.623	-0.03
735.801	0.02
735.98	0.08
736.159	0.09
736.337	0.2
736.516	0.24
736.694	0.22
736.873	0.02
737.052	0.14
737.23	0.29
737.409	0.07
737.587	0.25
737.766	-0.08
737.944	0.05
738.123	0.1
738.301	0.12
738.479	0.01
738.658	0.13
738.836	-0.14
739.015	0.11
739.193	0.25
739.371	-0.02
739.55	0.06
739.728	-0.11
739.906	0.23
740.085	0.23
740.263	0.07
740.441	-0.11
740.62	0.25
740.798	0.12
740.976	0
741.154	0.04
741.332	0.27
741.511	0.05
741.689	0.02
741.867	0.17
742.045	0.07
742.223	0.03
742.401	0.09
742.579	-0.03
742.757	0.09
742.935	-0.02
743.114	0.03
743.292	0.06
743.47	0.06
743.648	0.1
743.826	-0.1
744.004	0.13
744.181	0.11
744.359	0.04
744.537	0.08
744.715	0.1
744.893	-0.07
745.071	0.04
745.249	-0.02
745.427	0.04
745.605	0.19
745.782	0.15
745.96	0.04
746.138	0.07
746.316	0.17
746.493	-0.04
746.671	0.06
746.849	0.06
747.027	0.19
747.204	-0.09
747.382	0.09
747.56	-0.11
747.737	0.07
747.915	-0.08
748.093	0.02
748.27	0.03
748.448	-0.06
748.625	-0.07
748.803	-0.06
748.98	-0.04
749.158	0.16
749.335	0.09
749.513	-0.02
749.69	-0.04
749.868	0.12
750.045	0.09
750.223	-0.03
750.4	-0.09
750.578	0.27
750.755	-0.05
750.932	-0.09
751.11	0.17
751.287	-0.12
751.464	0.08
751.642	-0.02
751.819	0.09
751.996	0.08
752.173	-0.03
752.351	-0.11
752.528	-0
752.705	-0.01
752.882	-0.01
753.06	0.06
753.237	0.09
753.414	0.13
753.591	0.08
753.768	-0.03
753.945	-0.09
754.122	-0.02
754.299	-0.02
754.476	-0.08
754.654	0.09
754.831	0.1
755.008	0.17
755.185	0.02
755.362	-0.1
755.539	0.08
755.716	-0.1
755.892	-0.02
756.069	-0.03
756.246	-0.07
756.423	-0.01
756.6	0.1
756.777	-0.02
756.954	0.16
757.131	0.12
757.307	-0.18
757.484	-0.1
757.661	0.09
757.838	0
758.015	-0.19
758.191	0
758.368	0.02
758.545	0.11
758.721	0.09
758.898	-0.03
759.075	0.07
759.251	0.03
759.428	0.09
759.605	-0.04
759.781	0.04
759.958	0.07
760.134	0.11
760.311	-0.02
760.488	0.09
760.664	0.17
760.841	0.06
761.017	-0.03
761.194	0.08
761.37	0.08
761.547	0.04
761.723	0.08
761.899	0.17
762.076	-0.03
762.252	-0.1
762.429	-0.06
762.605	0.03
762.781	-0.09
762.958	0.03
763.134	-0.12
763.31	-0.06
763.486	0.17
763.663	-0.08
763.839	0.12
764.015	-0.16
764.191	-0.21
764.368	-0.01
764.544	0.02
764.72	-0
764.896	0.07
765.072	-0.04
765.248	-0.11
765.425	0.12
765.601	-0.01
765.777	0.08
765.953	-0.25
766.129	-0.1
766.305	-0.04
766.481	0.11
766.657	-0.04
766.833	0.25
767.009	-0.18
767.185	-0.05
767.361	-0.11
767.537	-0.02
767.713	0.1
767.889	-0.12
768.065	0.15
768.24	-0.15
768.416	0.06
768.592	-0.05
768.768	-0.05
768.944	-0.05
769.12	-0.1
769.295	0.07
769.471	-0.06
769.647	-0.01
769.823	0.06
769.998	-0.1
770.174	-0.14
770.35	0.24
770.525	0.29
770.701	0.08
770.877	0.02
771.052	-0.03
771.228	0.18
771.403	0.03
771.579	0.2
771.755	0.17
771.93	-0.14
772.106	-0.14
772.281	-0.12
772.457	0.09
772.632	-0.03
772.808	-0.12
772.983	-0.07
773.159	-0.11
773.334	0.17
773.509	0.02
773.685	-0.06
773.86	0.18
774.036	0.04
774.211	-0.04
774.386	-0.06
774.562	0.02
774.737	0.05
774.912	-0.01
775.087	0.04
775.263	-0.13
775.438	0.12
775.613	0.03
775.788	-0.02
775.964	0.03
776.139	0.21
776.314	-0.18
776.489	0.07
776.664	-0.07
776.839	-0.19
777.014	0.11
777.19	0.06
777.365	0.25
777.54	0.17
777.715	-0
777.89	0.16
778.065	-0.14
778.24	0.01
778.415	0.11
778.59	-0.08
778.765	-0.1
778.94	0.02
779.115	0.2
779.289	-0.12
779.464	-0.16
779.639	0.05
779.814	-0.24
779.989	-0.21
780.164	0.1
780.339	-0.03
780.513	-0.11
780.688	-0.07
780.863	-0
781.038	0.16
781.212	-0.12
781.387	0.04
781.562	0.3
781.737	0.15
781.911	0.25
782.086	-0.07
782.261	0.02
782.435	0.2
782.61	-0.2
782.784	0.11
782.959	0.19
783.134	-0.12
783.308	-0.17
783.483	0
783.657	0.43
783.832	0.21
784.006	-0.26
784.181	-0.09
784.355	0.04
784.53	0.09
784.704	-0.14
784.878	0.17
785.053	0.18
785.227	0.23
785.402	0.38
785.576	-0.1
785.75	0.01
785.925	0.07
786.099	0.06
786.273	-0.1
786.448	0.12
786.622	0.15
786.796	-0.02
786.97	-0.1
787.145	0.39
787.319	-0.51
787.493	0.02
787.667	-0.28
787.841	-0.01
788.015	0.14
788.19	-0.15
788.364	-0.01
788.538	0.29
788.712	0.18
788.886	0.04
789.06	0.2
789.234	0.14
789.408	-0.19
789.582	0.02
789.756	-0.18
789.93	-0.16
790.104	-0.02
790.278	-0.04
790.452	-0.05
790.626	0.1
790.8	-0.11
790.973	-0.16
791.147	0.26
791.321	-0.09
791.495	0.17
791.669	0.08
791.843	0.07
792.016	0.15
792.19	0.45
792.364	-0.22
792.538	0.37
792.711	0.19
792.885	-0.07
793.059	-0.27
793.233	-0.57
793.406	0.25
793.58	-0.16
793.754	0.02
793.927	0.07
794.101	0.22
794.274	0.09
794.448	0.32
794.622	-0.19
794.795	-0.01
794.969	-0.09
795.142	0.54
795.316	0.02
795.489	0.04
795.663	0.33
795.836	0.05
796.009	-0.08
796.183	0.31
796.356	0.13
796.53	0.25
796.703	-0.07
796.876	0.55
797.05	-0.16
797.223	0.01
797.396	-0.04
797.57	0.18
797.743	0.32
797.916	0.25
798.09	-0.11
798.263	0.26
798.436	0.01
798.609	-0.22
798.782	-0.26
798.956	-0.05
799.129	0.1
799.302	0.02
799.475	-0.15
799.648	-0.26
799.821	-0.33
799.994	-0.01
800.167	-0.29
800.34	0.18
800.514	0.3
800.687	-0.17
800.86	-0.09
801.033	-0.12
801.206	0.03
801.379	-0.05
801.551	0.16
801.724	0.22
801.897	0.29
802.07	-0.33
802.243	-0.64
802.416	-0.01
802.589	-0.12
802.762	0.12
802.935	0.39
803.107	0.35
803.28	0.14
803.453	0.07
803.626	-0.12
803.798	0.15
803.971	-0.23
804.144	0.03
804.317	0.29
804.489	-0.1
804.662	-0.28
804.835	-0.28
805.007	-0.17
805.18	0.15
805.353	0.3
805.525	-0.25
805.698	-0.09
805.87	0.23
806.043	0.31
806.215	-0.11
806.388	-0.06
806.56	0.09
806.733	0.34
806.905	0.1
807.078	-0.12
807.25	-0.3
807.423	0.08
807.595	0.15
807.768	-0.06
807.94	0.53
808.112	0.02
808.285	0.15
808.457	0.05
808.629	-0.01
808.802	0.23
808.974	0.04
809.146	-0.09
809.318	0.24
809.491	-0.02
809.663	0.16
809.835	-0.22
810.007	0.3
810.18	0.32
810.352	-0.26
810.524	-0.06
810.696	0.09
810.868	0.74
811.04	0.18
811.212	-0.22
811.384	0.19
811.556	-0.01
811.728	-0.13
811.901	0.59
812.073	-0.02
812.245	0.41
812.417	-0.06
812.589	-0.63
812.76	-0.02
812.932	0.39
813.104	0.14
813.276	-0.17
813.448	0.56
813.62	0.39
813.792	0.28
813.964	0.12
814.136	0.16
814.307	-0.2
814.479	-0.2
814.651	0.2
814.823	0.82
814.995	-0.1
815.166	-0.08
815.338	-0.11
815.51	-0.04
815.681	0.75
815.853	-0.15
816.025	-0.26
816.196	0.13
816.368	0.09
816.54	-0.39
816.711	-0.24
816.883	-0.22
817.054	1.07
817.226	-0.38
817.398	-0.05
817.569	-0.17
817.741	0.23
817.912	-0.21
818.084	0.09
818.255	0.39
818.426	-0.34
818.598	0.12
818.769	0.04
818.941	0.06
819.112	0.17
819.283	0.34
819.455	-0.31
819.626	-0.13
819.798	0.6
819.969	-0.18
820.14	-0.2
820.311	0.02
820.483	-0.01
820.654	-0.44
820.825	-0.25
820.996	-0.32
821.168	-0.47
821.339	-0.2
821.51	-0.26
821.681	-0.17
821.852	0.16
822.023	-0.47
822.195	-0.67
822.366	0.46
822.537	-0.5
822.708	0.06
822.879	-0.09
823.05	0.61
823.221	-0.17
823.392	0.2
823.563	0.09
823.734	-0.03
823.905	0.01
824.076	-0.09
824.247	-0.29
824.418	-0.1
824.589	1.05
824.759	0.12
824.93	-0.31
825.101	-0.65
825.272	0.8
825.443	0.1
825.614	0.64
825.784	-0.43
825.955	1.06
826.126	1.32
826.297	-0.1
826.467	1.01
826.638	0.58
826.809	-0.74
826.98	-0.22
827.15	0.27
827.321	0.04
827.492	0.52
827.662	0.43
827.833	0.93
828.003	0.29
828.174	-0.67
828.345	-0.11
828.515	1.3
828.686	0.69
828.856	-0.26
829.027	-0.07
829.197	-0.35
829.368	0.17
829.538	0.05
829.709	-0.16
829.879	0.43
830.049	-0.18
830.22	-0.44
830.39	0.33
830.56	0.42
830.731	-0.23
830.901	-0.57
831.072	0.42
831.242	-0.16
831.412	0.23
831.582	0.01
831.753	-0.5
831.923	0.86
832.093	0.22
832.263	-0.18
832.434	-0.67
832.604	-0.39
832.774	0.17
832.944	0.28
833.114	-0.62
833.284	0.26
833.454	-0.92
833.624	-0.36
833.795	-0.33
833.965	0.49
834.135	0.55
834.305	-0.72
834.475	-0.51
834.645	-0.33
834.815	0.09
834.985	-0.72
835.155	-0.17
835.325	0.65
835.494	0.61
835.664	-0.04
835.834	-0.41
836.004	-0.24
836.174	0.31
836.344	0.32
836.514	-1.14
836.684	0.02
836.853	0.28
837.023	0.27
837.193	0.31
837.363	0.21
837.532	0.8
837.702	-0.39
837.872	-0.28
838.041	0.61
838.211	1.42
838.381	-0.63
838.55	0.03
838.72	1.12
838.89	0.88
839.059	-0.58
839.229	-0.23
839.398	0.77
839.568	-0.12
839.738	-0.08
839.907	0.48
840.077	0.14
840.246	-0.06
840.416	-0.53
840.585	-0.58
840.755	0.28
840.924	0.36
841.093	0.15
841.263	-0.14
841.432	-0.21
841.602	-1.09
841.771	0.09
841.94	0.28
842.11	1.59
842.279	1.51
842.448	-0.64
842.617	-0.16
842.787	0.95
842.956	-0.63
843.125	-0.13
843.294	-0.04
843.464	1.2
843.633	0.24
843.802	-0.6
843.971	0.19
844.14	-0.29
844.309	0.54
844.479	-0.85
844.648	-0.55
844.817	-0.45
844.986	0.07
845.155	-0.53
845.324	0.7
845.493	0.2
845.662	-0.76
845.831	1.01
846	0.35
846.169	-0.18
846.338	1.07
846.507	0.35
846.676	0.8
846.844	0.59
847.013	0.41
847.182	0.51
847.351	-0.36
847.52	0.03
847.689	-0.22
847.858	-0.31
848.026	0.23
848.195	-0.43
848.364	-0.36
848.533	-0.22
848.701	-0.31
848.87	-0.04
849.039	0.95
849.207	0.79
849.376	0.75
849.545	1.29
849.713	-0.42
849.882	-0.18
850.051	0.26
850.219	0.67
850.388	0.79
850.556	-0.69
850.725	-0.74
850.893	-0.26
851.062	0.41
851.23	1.1
851.399	-1.14
851.567	-0.55
851.736	-0.19
851.904	-1.47
852.073	0.32
852.241	1.11
852.41	0.9
852.578	-0.29
852.746	-0.76
852.915	0.7
853.083	0.47
853.251	-1.32
853.42	-0.55
853.588	0.36
853.756	1.41
853.924	0.14
854.093	0.52
854.261	-0.39
854.429	-1.8
854.597	0.31
854.765	-1.73
854.934	-0.05
855.102	2.29
855.27	-0.13
855.438	0.7
855.606	1.04
855.774	0.22
855.942	-0.86
856.11	-0.7
856.278	0.23
856.446	1.41
856.614	0.37
856.782	-0.99
856.95	1.27
857.118	1.17
857.286	1.44
857.454	-1.17
857.622	1.06
857.79	0.79
857.958	-0.5
858.126	0.24
858.294	-1.23
858.462	-0.14
858.629	-0.38
858.797	-0.08
858.965	0.9
859.133	0.42
859.301	-0.99
859.468	0.26
859.636	-0.92
859.804	1.78
859.971	2.01
860.139	-0.64
860.307	0.73
860.474	0.65
860.642	-0.42
860.81	-0.71
860.977	-0.06
861.145	1.17
861.313	-1.01
861.48	-0.24
861.648	1.42
861.815	-0.93
861.983	-1.1
862.15	0.47
862.318	0.25
862.485	1.07
862.653	-0.08
862.82	-0.58
862.988	1.38
863.155	0.19
863.322	0.22
863.49	-1.11
863.657	-0.88
863.824	1.53
863.992	1.41
864.159	-0.91
864.326	0.31
864.494	-1.2
864.661	2.25
864.828	-1.01
864.996	0.78
865.163	2.13
865.33	-0.59
865.497	-2.26
865.664	-0.59
865.832	-1.72
865.999	-0.61
866.166	-0.65
866.333	0.3
866.5	-1.47
866.667	-0.1
866.834	-0.55
867.001	1.3
867.168	-2.51
867.335	-0.41
867.502	-1.6
867.669	0.37
867.836	2.17
868.003	-1.27
868.17	1.7
868.337	-1.22
868.504	1.84
868.671	-1.94
868.838	-0.78
869.005	-0.43
869.172	0.83
869.339	0.46
869.505	1.07
869.672	-0.3
869.839	1.1
870.006	0.85
870.173	-1.15
870.339	0.63
870.506	1.52
870.673	-1.01
870.84	1.85
871.006	1.62
871.173	0
871.34	0.66
871.506	-0.66
871.673	0.73
871.839	-1.31
872.006	0.67
872.173	-0.64
872.339	-0.31
872.506	2.32
872.672	-1.51
872.839	-1.56
873.005	-0.85
873.172	3.12
873.338	1.92
873.505	0.4
873.671	-1.97
873.838	2.02
874.004	-1.85
874.171	-1.11
874.337	-0.17
874.503	1.14
874.67	0.57
874.836	0.4
875.002	2.37
875.169	0.7
875.335	1.01
875.501	-0.91
875.668	0.55
875.834	0.76
876	0.25
876.166	0.86
876.332	0.31
876.499	2.85
876.665	0.29
876.831	-0.53
876.997	3.55
877.163	0.26
877.329	-1.04
877.495	1.89
877.662	0.81
877.828	0.53
877.994	-0.33
878.16	-1.33
878.326	-1.98
878.492	0.63
878.658	-0.63
878.824	0.41
878.99	1.3
879.156	-1.26
879.322	1.91
879.487	-0.07
879.653	0.81
879.819	0.15
879.985	-1.65
880.151	-0.13
880.317	0.06
880.483	0.66
880.648	1.74
880.814	-2.22
880.98	2.01
881.146	-0.86
881.312	-1.48
881.477	-1.74
881.643	-0.45
881.809	2.66
881.974	1.6
882.14	-0.28
882.306	-1.52
882.471	2.79
882.637	-0.13
882.803	1.26
882.968	2.94
883.134	2.08
883.299	0
883.465	0.62
883.63	1.72
883.796	2.48
883.961	0.27
884.127	1.25
884.292	-3.43
884.458	-0.35
884.623	-0.35
