Data from Apollo_Calib_20240827__AbsoluteIrradiance__373__05-22-00-713.txt Node

Date: Wed Aug 28 05:22:00 BST 2024
User: biology
Spectrometer: FLMT08252
Trigger mode: 0
Integration Time (sec): 5.000000E-1
Scans to average: 5
Electric dark correction enabled: true
Nonlinearity correction enabled: false
Boxcar width: 0
XAxis mode: Wavelengths
Number of Pixels in Spectrum: 3648
>>>>>Begin Spectral Data<<<<<
179.588	-0
179.809	-0
180.03	-0
180.251	-0
180.473	-0
180.694	0
180.915	0
181.136	-0
181.357	0
181.578	-0
181.799	-0
182.02	-0
182.241	0
182.462	-0
182.683	0
182.904	-0
183.125	-0
183.346	0
183.567	0
183.788	-0
184.009	-0
184.23	0
184.451	0
184.672	-0
184.892	-0
185.113	0
185.334	0
185.555	-0
185.776	-0
185.996	0
186.217	0
186.438	0
186.659	-0
186.879	0
187.1	-0
187.321	-0
187.541	-0
187.762	-0
187.983	-0
188.203	0
188.424	-0
188.644	-0
188.865	0
189.086	-0
189.306	-0
189.527	-0
189.747	-0
189.968	-0
190.188	0
190.409	0
190.629	0
190.849	-0
191.07	-0
191.29	0
191.511	0
191.731	-0
191.951	-0
192.172	-0
192.392	-0
192.612	-0
192.833	-0
193.053	0
193.273	0
193.493	-0
193.714	-0
193.934	0
194.154	0
194.374	-0
194.594	0
194.815	0
195.035	0
195.255	-0
195.475	-0
195.695	0
195.915	0
196.135	-0
196.355	0
196.575	0
196.795	0
197.015	-0
197.235	-0
197.455	-0
197.675	0
197.895	-0
198.115	-0
198.335	0
198.555	-0
198.775	0
198.995	-0
199.214	0
199.434	-0
199.654	-0
199.874	-0
200.094	0.84
200.313	-0.76
200.533	-0.83
200.753	-1.11
200.973	1.08
201.192	0.5
201.412	-1.24
201.632	-0.4
201.851	0.9
202.071	-0.66
202.291	-0.13
202.51	-0.68
202.73	0.66
202.95	-0.38
203.169	-0.6
203.389	-0.29
203.608	0.44
203.828	-0.4
204.047	-0.58
204.267	0.25
204.486	0.5
204.706	0.12
204.925	-0.32
205.145	-0.41
205.364	0.49
205.583	0.6
205.803	-0.3
206.022	-0.66
206.242	-0.25
206.461	0.07
206.68	-0.3
206.9	-0.12
207.119	0.57
207.338	0.66
207.557	-0.17
207.777	-0.49
207.996	-0.23
208.215	0.49
208.434	-0.47
208.654	-0.57
208.873	0.1
209.092	0.49
209.311	-0.24
209.53	-0.38
209.749	-0.21
209.968	-0.42
210.187	-0.31
210.407	-0.37
210.626	-0.17
210.845	0.03
211.064	-0.02
211.283	-0.38
211.502	0.15
211.721	-0.04
211.94	-0.36
212.159	0.08
212.377	0.11
212.596	0.33
212.815	-0.04
213.034	-0.03
213.253	-0.02
213.472	0.25
213.691	-0.1
213.91	-0.37
214.128	-0.26
214.347	0.26
214.566	-0.45
214.785	-0.54
215.003	0.03
215.222	0
215.441	-0.14
215.66	-0.46
215.878	-0.02
216.097	0.13
216.316	-0.24
216.534	-0.2
216.753	0.07
216.972	-0.19
217.19	-0.12
217.409	-0.22
217.627	-0.09
217.846	-0.12
218.064	-0.12
218.283	-0.3
218.501	0.47
218.72	0.14
218.938	-0.51
219.157	-0.15
219.375	0.13
219.594	-0.1
219.812	-0.26
220.031	-0.25
220.249	0.24
220.467	0.23
220.686	-0.09
220.904	-0.21
221.122	0.01
221.341	0.35
221.559	0.09
221.777	-0.3
221.995	-0.08
222.214	-0
222.432	-0.14
222.65	0.04
222.868	-0.04
223.086	0.14
223.305	0.05
223.523	-0.06
223.741	0.27
223.959	-0.21
224.177	-0.3
224.395	-0.11
224.613	0.15
224.831	0.3
225.049	-0.29
225.267	-0.08
225.485	-0.07
225.703	-0.11
225.921	-0.09
226.139	-0.17
226.357	0.28
226.575	0.09
226.793	-0.05
227.011	0.45
227.229	0.03
227.447	0.12
227.665	-0.25
227.883	-0.2
228.1	0.02
228.318	0.12
228.536	-0.27
228.754	-0.11
228.972	0.04
229.189	0.13
229.407	-0.12
229.625	-0.19
229.843	0.08
230.06	0.12
230.278	-0.01
230.496	-0.05
230.713	-0.02
230.931	0.15
231.149	-0.28
231.366	-0.24
231.584	-0
231.801	0.26
232.019	-0.04
232.236	-0.14
232.454	-0.08
232.671	0.03
232.889	-0.02
233.106	-0.13
233.324	-0.05
233.541	0.01
233.759	-0.05
233.976	0
234.194	-0.04
234.411	0.04
234.628	-0.11
234.846	-0.13
235.063	-0.12
235.28	-0.04
235.498	-0.09
235.715	-0.11
235.932	0.16
236.149	-0
236.367	-0.07
236.584	0
236.801	-0.12
237.018	0.06
237.236	-0.11
237.453	-0.18
237.67	0.1
237.887	-0.04
238.104	-0.02
238.321	-0.17
238.538	-0.13
238.755	0.12
238.973	-0.16
239.19	-0.02
239.407	0
239.624	0.04
239.841	-0.13
240.058	-0.2
240.275	0.03
240.492	-0.07
240.709	-0.08
240.925	-0.11
241.142	0.01
241.359	-0.17
241.576	-0.09
241.793	-0.08
242.01	-0.08
242.227	0.05
242.444	0
242.66	-0
242.877	-0.04
243.094	-0.11
243.311	-0.03
243.527	-0.06
243.744	0
243.961	0.03
244.178	-0.19
244.394	-0.07
244.611	0.15
244.828	0.11
245.044	-0.17
245.261	-0.1
245.477	-0.02
245.694	0.02
245.911	-0.12
246.127	-0.04
246.344	0.12
246.56	-0.02
246.777	-0.07
246.993	0.01
247.21	-0.02
247.426	0.02
247.643	-0.07
247.859	-0.16
248.076	-0.06
248.292	0.19
248.508	-0.18
248.725	-0.03
248.941	0.04
249.157	0.06
249.374	-0.08
249.59	-0.07
249.806	0.02
250.023	0.04
250.239	-0.14
250.455	-0.08
250.671	-0.05
250.888	-0.03
251.104	0
251.32	-0.05
251.536	-0.02
251.752	-0.02
251.969	0.02
252.185	0
252.401	0.13
252.617	-0.11
252.833	-0.07
253.049	-0.03
253.265	0.05
253.481	-0
253.697	-0.05
253.913	-0.05
254.129	0.01
254.345	-0.01
254.561	-0.05
254.777	-0.03
254.993	0.02
255.209	0.01
255.425	0.03
255.641	-0.09
255.857	0.05
256.073	-0.06
256.288	-0.09
256.504	-0.04
256.72	0.01
256.936	0.1
257.152	-0.05
257.367	-0.1
257.583	0.01
257.799	0.08
258.015	-0.08
258.23	-0.11
258.446	0.1
258.662	-0.06
258.877	-0.07
259.093	-0.08
259.309	-0.03
259.524	-0.09
259.74	-0.04
259.955	-0.16
260.171	-0.04
260.387	-0.02
260.602	0.01
260.818	-0.02
261.033	-0.06
261.249	-0.12
261.464	-0.04
261.68	-0.08
261.895	0.04
262.11	0.07
262.326	-0.03
262.541	-0.11
262.757	0.13
262.972	0.01
263.187	0.01
263.403	-0
263.618	0.06
263.833	-0.03
264.049	-0.03
264.264	-0.03
264.479	0.01
264.694	0.12
264.91	-0.09
265.125	-0.05
265.34	0.05
265.555	0.13
265.77	-0.02
265.986	-0.06
266.201	0.08
266.416	0.08
266.631	-0.06
266.846	-0.03
267.061	0.04
267.276	-0
267.491	-0.17
267.706	0.01
267.921	0.09
268.136	-0.01
268.351	-0.03
268.566	-0.11
268.781	0.09
268.996	0.05
269.211	-0.04
269.426	-0.11
269.641	-0.07
269.856	0.03
270.071	-0.11
270.285	-0.15
270.5	0.08
270.715	0.02
270.93	-0.02
271.145	0.01
271.359	0.01
271.574	-0.02
271.789	0.01
272.004	-0.07
272.218	-0.04
272.433	0.06
272.648	-0.11
272.862	-0.01
273.077	-0.06
273.292	-0.01
273.506	-0.11
273.721	-0.08
273.936	-0
274.15	0.07
274.365	-0.05
274.579	0.02
274.794	0.02
275.008	0.03
275.223	-0.02
275.437	-0.07
275.652	0.05
275.866	0.05
276.081	-0.03
276.295	0.05
276.509	-0
276.724	0.01
276.938	-0.03
277.153	0.02
277.367	0.02
277.581	-0.07
277.796	-0.07
278.01	-0.12
278.224	0.07
278.438	0.09
278.653	-0.03
278.867	-0.07
279.081	-0.07
279.295	-0.02
279.51	-0.03
279.724	-0.08
279.938	0.06
280.152	0.03
280.366	-0.07
280.58	0.01
280.794	0.09
281.008	0.03
281.222	0.05
281.437	0.05
281.651	0.04
281.865	0.06
282.079	-0.06
282.293	-0.14
282.507	-0.08
282.721	-0.01
282.935	-0.02
283.148	-0.09
283.362	0
283.576	-0.08
283.79	-0.02
284.004	-0.09
284.218	0.07
284.432	-0
284.646	-0.01
284.859	0.01
285.073	-0.02
285.287	0.04
285.501	-0.02
285.714	0
285.928	0.03
286.142	-0.01
286.356	-0.03
286.569	-0.08
286.783	0.13
286.997	0.04
287.21	0.02
287.424	-0.04
287.637	-0.03
287.851	-0.04
288.065	0.02
288.278	-0.07
288.492	0.02
288.705	0.01
288.919	0.03
289.132	-0.07
289.346	0.07
289.559	-0.13
289.773	-0.05
289.986	0.01
290.2	-0.03
290.413	0.03
290.626	-0.08
290.84	0.01
291.053	0.04
291.267	0.1
291.48	-0
291.693	-0
291.906	-0.05
292.12	-0.02
292.333	-0.06
292.546	-0.05
292.76	0.11
292.973	-0.01
293.186	0.03
293.399	-0.05
293.612	0.06
293.826	0.02
294.039	-0.02
294.252	-0.01
294.465	0.02
294.678	0.02
294.891	0.02
295.104	-0.06
295.317	0
295.53	-0.02
295.743	0.02
295.956	-0.03
296.169	0.09
296.382	0.05
296.595	-0.05
296.808	-0.02
297.021	0.03
297.234	0.07
297.447	0.01
297.66	0.03
297.873	0.09
298.086	0.06
298.299	-0.04
298.511	-0.09
298.724	-0.01
298.937	-0.08
299.15	-0.02
299.363	0
299.575	0.06
299.788	0.02
300.001	0.01
300.213	-0.03
300.426	0.02
300.639	-0.04
300.852	-0.02
301.064	0.02
301.277	0.06
301.489	0.08
301.702	0.09
301.915	-0.03
302.127	0
302.34	0
302.552	0.03
302.765	-0.05
302.977	0.09
303.19	-0.03
303.402	-0.04
303.615	-0.04
303.827	-0.06
304.04	-0.03
304.252	0.01
304.464	-0
304.677	0.11
304.889	0.06
305.102	-0.06
305.314	-0.04
305.526	0.02
305.739	0.04
305.951	-0.06
306.163	-0
306.375	0.05
306.588	-0.05
306.8	-0.04
307.012	-0.05
307.224	0.03
307.436	0.1
307.649	-0.04
307.861	0.02
308.073	0.02
308.285	-0.02
308.497	-0.05
308.709	-0.04
308.921	-0.01
309.133	0.08
309.346	-0.01
309.558	-0
309.77	0.07
309.982	0.1
310.194	0.07
310.406	-0.07
310.617	0.07
310.829	0.01
311.041	0.02
311.253	-0.08
311.465	-0.02
311.677	0.01
311.889	-0.02
312.101	-0.03
312.313	0.07
312.524	0.04
312.736	-0.04
312.948	-0.04
313.16	0.06
313.372	0.01
313.583	0.03
313.795	-0.03
314.007	-0.02
314.218	0.05
314.43	-0.01
314.642	-0.04
314.853	-0.02
315.065	0.03
315.277	0
315.488	-0.01
315.7	-0.01
315.912	0.03
316.123	-0.02
316.335	0
316.546	0.1
316.758	0
316.969	-0.03
317.181	0.01
317.392	0.02
317.604	0.09
317.815	-0.03
318.026	-0
318.238	0.03
318.449	0.06
318.661	-0.07
318.872	-0.02
319.083	-0.07
319.295	0.02
319.506	0
319.717	0.03
319.929	0.01
320.14	-0.04
320.351	-0
320.562	-0.04
320.774	0.02
320.985	-0
321.196	-0.05
321.407	-0.07
321.618	0.03
321.829	0.01
322.041	0.04
322.252	0.02
322.463	0.03
322.674	0.04
322.885	-0.02
323.096	-0.01
323.307	-0.02
323.518	0.05
323.729	-0.01
323.94	0.05
324.151	-0
324.362	0
324.573	0.03
324.784	-0.04
324.995	0.04
325.206	0.03
325.417	-0.02
325.628	0.01
325.838	-0.01
326.049	0.01
326.26	0.02
326.471	-0.04
326.682	0.01
326.892	-0
327.103	-0.07
327.314	-0.08
327.525	0.03
327.735	0
327.946	-0.02
328.157	-0.03
328.368	0.03
328.578	-0.01
328.789	0.02
328.999	-0.04
329.21	0.01
329.421	0.05
329.631	-0.07
329.842	-0.04
330.052	0.01
330.263	-0
330.473	0.04
330.684	-0.03
330.894	-0.04
331.105	-0
331.315	0.02
331.526	-0.08
331.736	0.05
331.947	-0
332.157	0.01
332.367	-0.05
332.578	0
332.788	0.07
332.999	0.03
333.209	0.03
333.419	-0.09
333.629	0.03
333.84	0.01
334.05	-0.01
334.26	0.07
334.47	-0
334.681	0.06
334.891	-0.05
335.101	-0
335.311	0.12
335.521	0
335.732	-0.1
335.942	0.06
336.152	0.01
336.362	0.03
336.572	0.03
336.782	0.05
336.992	-0.01
337.202	-0
337.412	-0.01
337.622	-0.05
337.832	-0.02
338.042	-0.03
338.252	-0.03
338.462	0.01
338.672	-0.03
338.882	-0.05
339.092	0.01
339.302	0.07
339.511	0.03
339.721	-0.07
339.931	-0.03
340.141	0.08
340.351	0.05
340.561	-0
340.77	0.01
340.98	0.01
341.19	-0.02
341.4	-0.01
341.609	-0.09
341.819	-0.01
342.029	-0.06
342.238	0.05
342.448	-0.06
342.658	0.05
342.867	0.01
343.077	-0.01
343.286	0.01
343.496	0.04
343.706	0.06
343.915	-0.06
344.125	-0.02
344.334	0.02
344.544	-0.03
344.753	-0.03
344.963	-0.02
345.172	-0.03
345.381	-0.02
345.591	-0.03
345.8	-0.01
346.01	0.04
346.219	0.04
346.428	-0.15
346.638	-0.02
346.847	-0.02
347.056	0.03
347.266	-0.06
347.475	-0.03
347.684	0.06
347.893	0.01
348.103	0.02
348.312	-0.03
348.521	-0.03
348.73	-0.01
348.94	0.03
349.149	-0.01
349.358	-0.03
349.567	-0.02
349.776	-0.07
349.985	-0.06
350.194	0.06
350.403	0.03
350.612	-0.04
350.821	-0.01
351.03	-0.01
351.239	-0.03
351.448	0.02
351.657	-0.03
351.866	0.08
352.075	-0.03
352.284	-0.05
352.493	-0.03
352.702	0.05
352.911	0.03
353.12	0
353.329	0.01
353.538	0.03
353.746	-0.04
353.955	-0.03
354.164	0
354.373	-0.04
354.582	0.02
354.79	0.02
354.999	0.05
355.208	-0.04
355.416	0.03
355.625	-0.03
355.834	-0.03
356.042	-0
356.251	0
356.46	-0.05
356.668	-0.05
356.877	0.09
357.085	0.04
357.294	-0.07
357.503	0.02
357.711	0
357.92	0.11
358.128	0.02
358.337	0
358.545	0.01
358.754	-0.02
358.962	0.04
359.17	-0.04
359.379	-0
359.587	0.02
359.796	-0.01
360.004	0.04
360.212	-0.01
360.421	0.04
360.629	-0.01
360.837	-0.01
361.046	0
361.254	0.09
361.462	-0.02
361.67	0.01
361.879	0
362.087	0.08
362.295	0
362.503	-0.01
362.711	-0.06
362.92	-0.02
363.128	-0.06
363.336	-0.04
363.544	-0.04
363.752	-0.03
363.96	-0.01
364.168	-0.06
364.376	0.02
364.584	-0
364.792	0.04
365	-0
365.208	0.01
365.416	0.03
365.624	0.04
365.832	-0.03
366.04	0.05
366.248	0.01
366.456	0
366.664	0
366.872	0
367.079	-0.03
367.287	0.01
367.495	0.03
367.703	-0.01
367.911	0.05
368.118	0
368.326	0.01
368.534	-0.06
368.742	0.01
368.949	-0.08
369.157	-0.04
369.365	0
369.572	-0.01
369.78	-0.05
369.988	0
370.195	0
370.403	0.05
370.61	-0.04
370.818	-0.01
371.026	0.02
371.233	-0.06
371.441	0.08
371.648	-0.03
371.856	-0.01
372.063	-0.01
372.271	0
372.478	-0.04
372.685	-0.07
372.893	0.08
373.1	-0.03
373.308	-0.03
373.515	0.06
373.722	0.04
373.93	0.01
374.137	0.02
374.344	0.05
374.552	0.04
374.759	0.03
374.966	0.01
375.173	-0
375.381	0.02
375.588	-0.04
375.795	-0.11
376.002	-0.01
376.209	-0.02
376.417	0
376.624	-0.02
376.831	0.02
377.038	-0
377.245	-0.09
377.452	-0.01
377.659	-0.04
377.866	-0.03
378.073	-0.04
378.28	-0.01
378.487	0.03
378.694	-0.02
378.901	-0.02
379.108	-0
379.315	0.05
379.522	0.05
379.729	-0.01
379.936	0
380.143	-0
380.35	0.01
380.557	-0.05
380.763	0.05
380.97	0.03
381.177	0.02
381.384	0.02
381.591	-0.06
381.797	0
382.004	0.04
382.211	0.05
382.418	0.01
382.624	0.08
382.831	0.04
383.038	-0
383.244	0.01
383.451	-0.01
383.658	-0.02
383.864	-0.02
384.071	-0.06
384.277	0.07
384.484	-0.05
384.69	0.05
384.897	-0.05
385.103	-0.04
385.31	-0.06
385.516	-0.06
385.723	-0.07
385.929	0.01
386.136	-0.03
386.342	0.05
386.549	-0.03
386.755	0.05
386.961	-0.02
387.168	-0.03
387.374	0.02
387.58	0.05
387.787	0.01
387.993	0.04
388.199	-0.01
388.406	-0.04
388.612	-0
388.818	-0.02
389.024	-0.04
389.231	0.01
389.437	0.07
389.643	-0
389.849	0.01
390.055	0.01
390.261	-0.01
390.467	0.01
390.674	-0.05
390.88	-0.02
391.086	0.03
391.292	-0.1
391.498	0.05
391.704	0.02
391.91	-0.02
392.116	0
392.322	-0.11
392.528	0.01
392.734	-0.07
392.94	-0.05
393.146	-0.04
393.352	0.01
393.557	-0.05
393.763	-0.06
393.969	0.01
394.175	0.01
394.381	0.01
394.587	-0.06
394.792	-0.03
394.998	0.03
395.204	0.04
395.41	-0.04
395.615	-0
395.821	-0.02
396.027	0.02
396.233	-0.04
396.438	0.05
396.644	0.08
396.85	0.01
397.055	-0.02
397.261	0.01
397.466	0.1
397.672	0.02
397.878	0
398.083	0.03
398.289	-0.02
398.494	0.05
398.7	0.06
398.905	-0.08
399.111	0.08
399.316	-0.06
399.522	-0.04
399.727	-0.02
399.932	0
400.138	-0.08
400.343	0.05
400.549	0.02
400.754	0.01
400.959	0
401.165	-0.05
401.37	-0.04
401.575	-0.02
401.78	-0
401.986	-0.02
402.191	-0.02
402.396	-0.03
402.601	0.02
402.807	-0.01
403.012	-0.01
403.217	0.05
403.422	0.02
403.627	0
403.832	-0.05
404.037	0.03
404.243	-0.01
404.448	-0.07
404.653	0.01
404.858	0.01
405.063	0.03
405.268	-0.03
405.473	-0.02
405.678	-0.03
405.883	0.15
406.088	0
406.293	-0.09
406.498	-0.04
406.703	0.05
406.907	-0.01
407.112	-0.05
407.317	0.01
407.522	0.02
407.727	-0.09
407.932	-0.02
408.136	0.04
408.341	-0.04
408.546	-0.02
408.751	-0
408.956	-0.02
409.16	-0.02
409.365	-0.01
409.57	-0.04
409.774	-0.01
409.979	0.06
410.184	0.01
410.388	-0.06
410.593	0.02
410.798	0.04
411.002	-0.06
411.207	0.03
411.411	0.05
411.616	-0.06
411.82	-0.05
412.025	0.04
412.229	-0.04
412.434	0.08
412.638	0.01
412.843	-0.04
413.047	0.03
413.252	-0.05
413.456	-0.03
413.66	0.03
413.865	-0.03
414.069	0.06
414.273	-0.02
414.478	-0.03
414.682	-0.03
414.886	-0.02
415.091	-0.07
415.295	-0.06
415.499	0.03
415.703	-0.05
415.908	0.03
416.112	-0.09
416.316	0.05
416.52	0.01
416.724	-0.08
416.929	-0.09
417.133	0.05
417.337	-0.01
417.541	-0.04
417.745	-0.02
417.949	0.04
418.153	-0.01
418.357	-0.1
418.561	0.08
418.765	-0.05
418.969	0.11
419.173	0.01
419.377	-0.05
419.581	0.09
419.785	0
419.989	-0.05
420.193	-0.06
420.397	-0
420.601	0.06
420.804	-0.04
421.008	-0.03
421.212	0.03
421.416	0.06
421.62	-0.06
421.823	-0.01
422.027	0.11
422.231	0
422.435	0.01
422.638	0.02
422.842	-0.02
423.046	-0.07
423.249	-0.01
423.453	0.01
423.657	0
423.86	-0.03
424.064	0.01
424.268	0.03
424.471	0
424.675	0.08
424.878	0.08
425.082	0.01
425.285	0.01
425.489	-0.07
425.692	-0.01
425.896	-0.06
426.099	0.05
426.303	-0.08
426.506	-0.07
426.71	0.04
426.913	0.04
427.116	0.04
427.32	-0.01
427.523	0.01
427.726	0.1
427.93	-0.03
428.133	-0
428.336	-0.08
428.54	-0.05
428.743	0.04
428.946	0.01
429.149	-0.01
429.353	-0.03
429.556	-0.04
429.759	-0.02
429.962	-0.07
430.165	-0.01
430.368	-0
430.571	-0.06
430.775	-0.02
430.978	-0.04
431.181	-0
431.384	-0
431.587	-0.06
431.79	-0.06
431.993	0.04
432.196	-0.04
432.399	-0.04
432.602	0.02
432.805	-0.02
433.008	-0.04
433.211	-0.13
433.414	0.04
433.616	0.04
433.819	0.05
434.022	-0.12
434.225	0.03
434.428	0.03
434.631	0
434.833	-0.03
435.036	-0.02
435.239	0.07
435.442	-0.05
435.645	-0.02
435.847	-0
436.05	0.05
436.253	-0
436.455	-0.04
436.658	-0.03
436.861	0.09
437.063	-0.01
437.266	-0.02
437.468	-0
437.671	0.06
437.874	-0.06
438.076	-0.04
438.279	-0.1
438.481	-0.01
438.684	-0.05
438.886	0.03
439.089	-0.08
439.291	0.05
439.494	0.01
439.696	-0.01
439.899	0.01
440.101	-0.03
440.303	-0.11
440.506	-0.01
440.708	-0.03
440.91	0.05
441.113	-0.05
441.315	0.05
441.517	-0.07
441.72	0.05
441.922	-0.05
442.124	-0.06
442.326	0.02
442.529	0.05
442.731	-0.04
442.933	0.1
443.135	-0.03
443.337	-0.04
443.539	-0.04
443.742	-0.04
443.944	0.01
444.146	-0.04
444.348	-0
444.55	-0.04
444.752	-0.02
444.954	-0.06
445.156	0.02
445.358	-0.08
445.56	0.05
445.762	0.03
445.964	-0.05
446.166	-0.05
446.368	-0.05
446.57	0.02
446.772	-0.02
446.974	0.01
447.175	-0.01
447.377	-0.03
447.579	-0.06
447.781	-0.11
447.983	0.02
448.184	0.02
448.386	0.02
448.588	-0.06
448.79	0
448.991	-0.06
449.193	-0.05
449.395	-0.04
449.597	0.03
449.798	0.03
450	0.02
450.202	-0.02
450.403	0.02
450.605	0.04
450.806	0.01
451.008	-0.07
451.21	-0.01
451.411	-0.02
451.613	-0.01
451.814	-0.04
452.016	0.02
452.217	-0.02
452.419	0.06
452.62	-0.02
452.821	0.01
453.023	0.04
453.224	0.03
453.426	-0.01
453.627	0.02
453.828	0.05
454.03	0.01
454.231	0.01
454.432	-0.04
454.634	0.1
454.835	-0.04
455.036	-0.04
455.238	0.02
455.439	0.06
455.64	-0.08
455.841	-0.02
456.042	0.07
456.244	0.04
456.445	-0.04
456.646	-0.08
456.847	-0.02
457.048	0.06
457.249	0.08
457.45	0.23
457.651	-0.07
457.852	0.08
458.054	-0
458.255	-0.02
458.456	0.02
458.657	-0
458.858	-0.02
459.058	-0
459.259	0.04
459.46	-0.07
459.661	-0.04
459.862	0.07
460.063	-0.02
460.264	0.05
460.465	-0.03
460.666	0.13
460.866	-0.03
461.067	0.05
461.268	-0.02
461.469	-0.05
461.67	-0.01
461.87	-0.02
462.071	0.02
462.272	-0.05
462.473	0.02
462.673	0.04
462.874	-0.05
463.075	-0.04
463.275	-0.02
463.476	0.03
463.676	-0.03
463.877	-0.02
464.078	-0.01
464.278	0.02
464.479	-0.06
464.679	-0.03
464.88	-0.01
465.08	0.08
465.281	-0.08
465.481	-0.02
465.682	-0.04
465.882	0.06
466.083	0
466.283	0.02
466.483	-0.02
466.684	-0.05
466.884	-0
467.085	-0.03
467.285	0.05
467.485	-0.03
467.686	-0.03
467.886	-0.07
468.086	0
468.286	-0.01
468.487	0.04
468.687	-0.03
468.887	-0.05
469.087	0.03
469.287	-0.01
469.488	-0.05
469.688	0.05
469.888	0.02
470.088	0.02
470.288	-0.01
470.488	0.07
470.688	-0.07
470.888	-0.07
471.088	-0.08
471.288	0.04
471.488	-0.02
471.688	-0.01
471.888	-0.07
472.088	0.05
472.288	0.03
472.488	-0.03
472.688	-0.01
472.888	-0
473.088	0
473.288	0.05
473.488	-0.03
473.688	0.07
473.887	0.01
474.087	-0.02
474.287	0.02
474.487	-0.02
474.687	-0
474.886	-0.04
475.086	-0.01
475.286	-0.01
475.486	-0.05
475.685	-0.02
475.885	-0.02
476.085	-0.02
476.284	0.01
476.484	0.01
476.684	0
476.883	0.02
477.083	0.03
477.282	-0.01
477.482	0.03
477.681	0.06
477.881	-0.01
478.08	-0.01
478.28	-0.03
478.479	0.04
478.679	0.08
478.878	-0.02
479.078	-0.03
479.277	-0
479.477	-0.02
479.676	0
479.875	-0.01
480.075	-0.07
480.274	0.02
480.473	0.04
480.673	-0.07
480.872	0.04
481.071	-0
481.271	0.01
481.47	-0.02
481.669	-0
481.868	-0.02
482.067	-0.03
482.267	-0.03
482.466	-0.02
482.665	-0.04
482.864	-0.05
483.063	-0.05
483.262	0.02
483.461	0.03
483.661	0.01
483.86	0
484.059	-0.01
484.258	-0
484.457	-0.01
484.656	-0.02
484.855	0.06
485.054	-0.07
485.253	-0.03
485.452	-0.03
485.651	-0.02
485.849	-0.01
486.048	-0.03
486.247	-0.04
486.446	0.03
486.645	-0.06
486.844	-0.02
487.043	-0.01
487.241	0.02
487.44	-0.03
487.639	-0.03
487.838	0
488.037	0.01
488.235	0.05
488.434	-0.01
488.633	-0.02
488.831	0.02
489.03	0.05
489.229	-0.01
489.427	-0.03
489.626	0.02
489.825	0.05
490.023	-0.03
490.222	-0.01
490.42	0
490.619	0.05
490.817	0.02
491.016	-0.02
491.214	0.03
491.413	-0.02
491.611	-0.01
491.81	-0.01
492.008	0.03
492.207	0.02
492.405	-0.01
492.604	-0.06
492.802	-0.01
493	-0.01
493.199	-0.04
493.397	0.01
493.595	0.01
493.794	-0
493.992	0.05
494.19	0.01
494.388	0.01
494.587	-0.01
494.785	-0
494.983	-0.03
495.181	0
495.379	0
495.578	-0.03
495.776	0.03
495.974	0
496.172	-0.03
496.37	-0.01
496.568	-0.03
496.766	-0.04
496.964	0.02
497.162	-0.01
497.36	-0.03
497.558	0
497.756	0.01
497.954	-0.03
498.152	-0.04
498.35	-0
498.548	-0.02
498.746	0.01
498.944	-0.02
499.142	-0.03
499.34	-0.05
499.538	-0
499.736	-0.01
499.933	0.02
500.131	0.03
500.329	-0.01
500.527	0.02
500.725	0.03
500.922	0.02
501.12	0.01
501.318	-0
501.516	-0.02
501.713	0.01
501.911	-0.02
502.109	-0.03
502.306	0.01
502.504	-0
502.701	-0.01
502.899	0
503.097	0.02
503.294	-0.01
503.492	-0.02
503.689	0.01
503.887	0.03
504.084	0.05
504.282	0.01
504.479	-0.04
504.677	0.02
504.874	-0.05
505.072	0.02
505.269	-0.02
505.466	0.04
505.664	0.02
505.861	-0.03
506.059	-0.03
506.256	0
506.453	0.01
506.651	0.03
506.848	0.03
507.045	-0
507.242	-0
507.44	-0.02
507.637	0
507.834	-0
508.031	0.03
508.229	-0.01
508.426	0
508.623	0.03
508.82	-0.02
509.017	-0.01
509.214	-0.02
509.411	0.01
509.608	-0.03
509.805	-0
510.003	-0.02
510.2	-0.01
510.397	0
510.594	-0.02
510.791	-0.02
510.988	-0.02
511.184	0.03
511.381	0
511.578	-0.02
511.775	0.03
511.972	-0.01
512.169	-0.01
512.366	-0.01
512.563	-0
512.76	-0.02
512.956	0
513.153	-0.01
513.35	0.02
513.547	-0.02
513.744	-0.04
513.94	-0.05
514.137	-0.02
514.334	-0
514.53	0
514.727	-0.02
514.924	0.05
515.12	-0.02
515.317	-0.05
515.514	-0.03
515.71	-0.01
515.907	0
516.103	-0.01
516.3	0.01
516.497	0.02
516.693	0.04
516.89	-0.03
517.086	-0.04
517.283	-0
517.479	0.01
517.676	-0.01
517.872	0.01
518.068	-0.02
518.265	-0.01
518.461	-0.02
518.658	-0.02
518.854	-0
519.05	-0.01
519.247	-0.03
519.443	-0.01
519.639	0
519.836	-0.01
520.032	-0
520.228	-0.02
520.424	0.04
520.621	0.02
520.817	-0.02
521.013	0.01
521.209	-0
521.405	0.02
521.601	-0
521.798	-0.02
521.994	0.04
522.19	-0.01
522.386	-0.04
522.582	-0
522.778	0.01
522.974	-0.03
523.17	-0
523.366	0
523.562	0.02
523.758	0
523.954	-0.02
524.15	0
524.346	0.01
524.542	-0.03
524.738	-0.02
524.934	-0.01
525.129	-0
525.325	0.01
525.521	0.01
525.717	0.03
525.913	-0
526.109	0
526.304	0.01
526.5	-0
526.696	0.04
526.892	0.01
527.087	0.01
527.283	-0.03
527.479	0.02
527.674	-0.03
527.87	0
528.066	-0.02
528.261	0.01
528.457	0.01
528.653	-0.02
528.848	-0.01
529.044	0.02
529.239	-0.01
529.435	0.02
529.63	-0.02
529.826	0.07
530.021	0.02
530.217	0.04
530.412	-0.02
530.608	-0.01
530.803	0.02
530.999	-0.02
531.194	-0.05
531.389	0
531.585	-0.05
531.78	-0
531.975	-0.02
532.171	0.02
532.366	-0
532.561	-0.01
532.757	-0.03
532.952	-0
533.147	0.01
533.342	-0.02
533.538	-0
533.733	0.02
533.928	-0.01
534.123	-0.02
534.318	-0.04
534.513	0
534.709	0.01
534.904	-0.02
535.099	-0.01
535.294	-0.01
535.489	-0.01
535.684	-0.02
535.879	-0.04
536.074	-0.02
536.269	-0.01
536.464	0
536.659	-0
536.854	-0.01
537.049	0.03
537.244	-0.01
537.439	0
537.634	0.02
537.828	-0.01
538.023	-0.01
538.218	-0.06
538.413	0.02
538.608	-0.05
538.803	0.02
538.997	-0.06
539.192	0.03
539.387	0.02
539.582	0.01
539.776	-0
539.971	-0.02
540.166	-0.02
540.36	-0.03
540.555	-0
540.75	-0.02
540.944	-0.03
541.139	-0.04
541.334	-0.04
541.528	0.01
541.723	0.02
541.917	-0.01
542.112	-0.04
542.306	-0.01
542.501	-0.01
542.695	0.01
542.89	-0.01
543.084	0
543.279	-0.03
543.473	-0.03
543.668	-0.01
543.862	0
544.056	-0.01
544.251	-0
544.445	-0
544.64	-0.02
544.834	-0.03
545.028	0
545.222	0
545.417	0.03
545.611	-0
545.805	-0.01
546	-0.03
546.194	-0
546.388	-0.03
546.582	0.02
546.776	-0.01
546.97	-0.01
547.165	0.01
547.359	-0.01
547.553	-0.02
547.747	-0.01
547.941	-0
548.135	-0.01
548.329	0.01
548.523	0.02
548.717	-0.03
548.911	-0.01
549.105	-0.01
549.299	-0.01
549.493	0.02
549.687	0.01
549.881	0.01
550.075	-0.02
550.269	-0.05
550.463	0.01
550.657	-0.01
550.85	-0
551.044	-0.03
551.238	0
551.432	-0.02
551.626	-0.05
551.82	0
552.013	-0.02
552.207	0.02
552.401	0.01
552.594	-0
552.788	-0.01
552.982	0
553.176	-0.04
553.369	0.03
553.563	0.01
553.756	-0.05
553.95	-0.01
554.144	0
554.337	0.02
554.531	0.01
554.724	-0.02
554.918	-0.02
555.111	0.03
555.305	-0.01
555.498	0.03
555.692	0.03
555.885	-0.01
556.079	0.01
556.272	-0.03
556.466	0.02
556.659	0.01
556.852	-0
557.046	-0.02
557.239	0
557.432	-0.03
557.626	-0.02
557.819	-0.01
558.012	0.02
558.206	0
558.399	0
558.592	0
558.785	-0.02
558.979	0.01
559.172	-0.01
559.365	-0.01
559.558	-0
559.751	-0.01
559.944	0.02
560.138	-0.02
560.331	-0.03
560.524	-0.01
560.717	-0.03
560.91	-0
561.103	0
561.296	-0.01
561.489	0.01
561.682	0.02
561.875	0.05
562.068	0
562.261	0
562.454	0.03
562.647	0.01
562.84	0
563.032	-0.02
563.225	-0
563.418	-0.03
563.611	-0.02
563.804	-0.02
563.997	-0.04
564.19	-0.03
564.382	0.03
564.575	-0.01
564.768	0.01
564.961	-0.02
565.153	-0
565.346	0
565.539	0.03
565.731	0.03
565.924	0.03
566.117	0
566.309	-0
566.502	-0.03
566.695	-0.01
566.887	-0
567.08	0.01
567.272	0.01
567.465	-0.03
567.657	-0.01
567.85	0.02
568.042	0.02
568.235	0.01
568.427	-0.01
568.62	0
568.812	-0.01
569.005	-0.02
569.197	-0.05
569.389	-0.02
569.582	0.02
569.774	0.01
569.966	-0.03
570.159	-0.01
570.351	0
570.543	-0.03
570.736	0.01
570.928	-0.02
571.12	-0
571.312	-0.04
571.505	-0.06
571.697	0.04
571.889	-0.02
572.081	-0.02
572.273	-0.03
572.465	0.02
572.658	-0
572.85	0
573.042	-0.02
573.234	-0.01
573.426	0.02
573.618	-0.02
573.81	0.01
574.002	0.03
574.194	0.03
574.386	-0.03
574.578	-0.08
574.77	-0.03
574.962	0.01
575.154	-0.05
575.346	-0.02
575.538	0.01
575.729	-0.01
575.921	-0.02
576.113	-0.03
576.305	0.01
576.497	-0.02
576.689	-0.03
576.88	-0.03
577.072	-0
577.264	-0.01
577.456	-0.01
577.647	-0.07
577.839	0.02
578.031	0.02
578.223	-0.04
578.414	-0.03
578.606	0.01
578.798	0
578.989	-0.04
579.181	-0
579.372	-0
579.564	-0.03
579.755	0.01
579.947	0.01
580.139	-0
580.33	-0.05
580.522	-0.04
580.713	-0.08
580.905	-0.02
581.096	0.01
581.287	-0
581.479	-0.01
581.67	0.02
581.862	-0
582.053	-0.03
582.244	-0.05
582.436	-0
582.627	-0.03
582.818	-0.03
583.01	-0.05
583.201	0
583.392	0.03
583.583	-0.02
583.775	-0.02
583.966	-0.03
584.157	-0.04
584.348	-0.03
584.54	-0.04
584.731	0.01
584.922	-0.03
585.113	-0.05
585.304	0.02
585.495	0.01
585.686	-0
585.877	0
586.068	0.01
586.259	0.02
586.45	0.04
586.641	-0.02
586.832	-0.07
587.023	-0.01
587.214	-0.03
587.405	0
587.596	-0.03
587.787	0.02
587.978	-0.01
588.169	-0.03
588.36	-0.02
588.551	0
588.742	-0
588.932	-0.01
589.123	-0.01
589.314	0.02
589.505	0.01
589.696	-0.03
589.886	-0
590.077	-0.04
590.268	0.02
590.458	-0.06
590.649	-0.06
590.84	0.04
591.03	-0.02
591.221	-0.04
591.412	-0.05
591.602	0.04
591.793	0.02
591.984	-0.06
592.174	-0.02
592.365	0.05
592.555	-0.02
592.746	0
592.936	-0.01
593.127	0.01
593.317	0.02
593.508	-0.03
593.698	0.01
593.889	0.01
594.079	0.01
594.269	-0.02
594.46	0
594.65	-0
594.84	-0.02
595.031	-0.05
595.221	-0.03
595.411	-0.04
595.602	0.02
595.792	-0.02
595.982	-0.01
596.172	0.05
596.363	0.01
596.553	-0.01
596.743	-0.01
596.933	-0
597.123	0.04
597.314	-0.03
597.504	-0.03
597.694	0.02
597.884	0.03
598.074	-0.03
598.264	-0.03
598.454	-0
598.644	-0.01
598.834	-0
599.024	-0.03
599.214	-0.03
599.404	0.02
599.594	-0.02
599.784	-0.04
599.974	0.03
600.164	0.03
600.354	-0.04
600.544	-0.05
600.734	0.02
600.924	0.02
601.114	-0.03
601.303	0.01
601.493	-0
601.683	-0.02
601.873	-0.01
602.063	-0.03
602.252	0.02
602.442	-0.05
602.632	-0.04
602.821	-0.03
603.011	0.02
603.201	-0.01
603.39	-0.03
603.58	-0.02
603.77	-0.01
603.959	0.03
604.149	-0.02
604.339	-0.02
604.528	0.04
604.718	-0
604.907	-0.03
605.097	-0.01
605.286	-0.05
605.476	0.03
605.665	0
605.855	-0.03
606.044	0.05
606.234	0
606.423	-0.01
606.612	-0.03
606.802	0.01
606.991	0.01
607.181	-0
607.37	-0.06
607.559	0.01
607.749	-0.04
607.938	0.01
608.127	-0.03
608.316	-0.01
608.506	0.02
608.695	-0.02
608.884	-0.03
609.073	0.01
609.263	0
609.452	-0.01
609.641	0
609.83	-0.03
610.019	0.01
610.208	-0.02
610.397	-0.01
610.586	0.03
610.775	-0.02
610.965	-0.01
611.154	-0.04
611.343	-0.01
611.532	-0.05
611.721	-0.03
611.91	-0.04
612.099	0.01
612.287	-0.02
612.476	-0.04
612.665	-0.01
612.854	-0.03
613.043	0.03
613.232	-0.05
613.421	-0.06
613.61	0.02
613.798	-0.05
613.987	0.01
614.176	-0.01
614.365	0.03
614.554	0
614.742	0.01
614.931	-0.02
615.12	0.03
615.309	-0.02
615.497	0.01
615.686	-0.02
615.875	-0.04
616.063	-0.01
616.252	-0.03
616.44	-0.03
616.629	0.01
616.818	0.03
617.006	-0.03
617.195	-0.04
617.383	0.01
617.572	0.01
617.76	-0.04
617.949	-0.04
618.137	-0
618.326	0.01
618.514	-0.01
618.703	-0.05
618.891	0.04
619.079	-0.08
619.268	0.03
619.456	-0.02
619.644	0.02
619.833	-0.04
620.021	-0.02
620.209	-0.07
620.398	0
620.586	0
620.774	0.02
620.962	-0.01
621.151	0.06
621.339	-0.01
621.527	-0.07
621.715	-0.04
621.903	-0.03
622.092	-0.05
622.28	0
622.468	-0.01
622.656	-0.01
622.844	-0
623.032	-0.03
623.22	-0.08
623.408	0.01
623.596	0.01
623.784	-0
623.972	-0.05
624.16	-0.02
624.348	0.04
624.536	-0.04
624.724	-0.03
624.912	0.05
625.1	0.02
625.288	-0.03
625.476	-0.05
625.664	0.04
625.851	-0.04
626.039	-0.01
626.227	0.01
626.415	0
626.603	-0.07
626.79	-0
626.978	-0.03
627.166	0.01
627.354	-0.03
627.541	-0.05
627.729	-0.08
627.917	0.05
628.104	0.05
628.292	-0
628.48	-0.04
628.667	0.02
628.855	0
629.042	-0
629.23	-0.06
629.418	-0.04
629.605	-0.02
629.793	-0.03
629.98	-0.05
630.168	-0.02
630.355	-0.01
630.543	-0.01
630.73	-0.03
630.917	-0
631.105	0.09
631.292	-0.05
631.48	-0.01
631.667	0.07
631.854	0
632.042	-0.04
632.229	-0.07
632.416	-0.01
632.604	-0.01
632.791	-0.04
632.978	-0.01
633.165	0.01
633.353	0.08
633.54	0.02
633.727	-0.07
633.914	-0.01
634.101	-0.08
634.289	0.03
634.476	-0.05
634.663	-0.05
634.85	0.02
635.037	-0.06
635.224	-0.04
635.411	0.01
635.598	0.05
635.785	-0.03
635.972	-0.03
636.159	0.01
636.346	-0.05
636.533	-0
636.72	-0.01
636.907	-0.04
637.094	0.02
637.281	-0.03
637.468	-0.01
637.655	-0.03
637.842	-0.02
638.029	-0.04
638.215	0.01
638.402	0.01
638.589	-0.04
638.776	-0.02
638.963	-0.04
639.149	0.04
639.336	0.08
639.523	-0.03
639.709	-0.02
639.896	-0.02
640.083	0.03
640.27	0
640.456	-0.05
640.643	0.02
640.829	-0.04
641.016	-0.03
641.203	-0.04
641.389	0.02
641.576	0.01
641.762	-0.01
641.949	-0.04
642.135	0.01
642.322	0.02
642.508	-0.07
642.695	0
642.881	-0.01
643.068	-0.01
643.254	-0.03
643.441	0.06
643.627	-0.05
643.813	-0.04
644	0.02
644.186	-0.01
644.372	0.03
644.559	0.05
644.745	-0.02
644.931	-0.04
645.118	-0.04
645.304	-0
645.49	-0.06
645.676	-0.02
645.862	-0.01
646.049	0.01
646.235	-0.03
646.421	0.05
646.607	0.08
646.793	-0.05
646.979	-0.05
647.165	0.02
647.352	0
647.538	0.03
647.724	0
647.91	-0.02
648.096	0.06
648.282	0
648.468	-0.03
648.654	-0.02
648.84	-0.01
649.026	-0.02
649.212	-0.02
649.397	-0.06
649.583	-0.06
649.769	0.03
649.955	0
650.141	0
650.327	0.04
650.513	-0.05
650.698	-0.02
650.884	-0.07
651.07	-0.02
651.256	0.03
651.442	0
651.627	-0.02
651.813	-0
651.999	0
652.184	-0.02
652.37	-0.04
652.556	-0.04
652.741	0.04
652.927	-0.06
653.113	-0.03
653.298	-0.01
653.484	-0.02
653.669	-0.06
653.855	0
654.04	-0
654.226	0.01
654.412	-0.06
654.597	-0.04
654.782	-0
654.968	0.04
655.153	-0.03
655.339	-0.04
655.524	-0.05
655.71	-0.01
655.895	-0.01
656.08	-0.03
656.266	0.07
656.451	-0.01
656.636	-0.05
656.822	-0.02
657.007	-0.06
657.192	-0.02
657.378	-0.05
657.563	-0.03
657.748	0.02
657.933	0
658.118	-0.02
658.304	-0.03
658.489	0.01
658.674	-0.01
658.859	-0.06
659.044	-0.01
659.229	0.01
659.414	-0.04
659.599	0.02
659.785	-0.09
659.97	-0.06
660.155	0.04
660.34	-0.01
660.525	-0.01
660.71	-0.06
660.895	0.04
661.08	-0.07
661.264	-0.04
661.449	0.08
661.634	0.05
661.819	-0.03
662.004	0.02
662.189	-0.09
662.374	-0.06
662.559	-0.06
662.743	-0.05
662.928	-0.02
663.113	-0.03
663.298	-0.09
663.483	-0.05
663.667	0.01
663.852	-0.06
664.037	0.02
664.221	-0.03
664.406	-0.01
664.591	0.02
664.775	-0.03
664.96	0.01
665.145	0.01
665.329	-0.03
665.514	-0.02
665.698	0.01
665.883	-0.08
666.068	0.05
666.252	-0.03
666.437	-0.05
666.621	-0.01
666.806	0.01
666.99	0.01
667.174	-0.04
667.359	0.08
667.543	-0.02
667.728	-0.03
667.912	-0.09
668.096	-0.03
668.281	-0.02
668.465	-0.02
668.649	-0.01
668.834	0.01
669.018	-0.03
669.202	-0.04
669.387	-0.03
669.571	0.03
669.755	-0.04
669.939	-0.01
670.124	0.01
670.308	0.06
670.492	0.07
670.676	0
670.86	0
671.044	-0.07
671.228	0.03
671.413	-0.05
671.597	-0.03
671.781	-0.04
671.965	0.04
672.149	-0.01
672.333	-0.03
672.517	-0.06
672.701	0.03
672.885	-0.05
673.069	-0.1
673.253	0.05
673.437	-0.04
673.621	-0.05
673.804	-0.02
673.988	0.01
674.172	-0.03
674.356	-0.07
674.54	-0.03
674.724	0.06
674.908	-0.03
675.091	0.04
675.275	-0.03
675.459	0
675.643	-0.07
675.826	0.01
676.01	-0
676.194	-0.03
676.377	0.03
676.561	0
676.745	0.01
676.928	0
677.112	0.05
677.296	-0.04
677.479	-0.05
677.663	-0.04
677.846	0.03
678.03	-0.04
678.213	-0.03
678.397	-0.02
678.58	-0.04
678.764	-0.06
678.947	-0.07
679.131	-0.02
679.314	0.1
679.498	0.02
679.681	-0.02
679.865	0.06
680.048	-0.01
680.231	0.01
680.415	-0.04
680.598	-0.02
680.781	-0.01
680.965	0
681.148	-0.02
681.331	-0.03
681.514	0.04
681.698	-0.02
681.881	-0.02
682.064	-0.01
682.247	-0.01
682.43	-0.08
682.614	0.03
682.797	0.02
682.98	0.03
683.163	-0.12
683.346	0.01
683.529	-0.05
683.712	-0.08
683.895	0.05
684.078	-0.11
684.261	-0.04
684.444	-0.01
684.627	-0.03
684.81	-0.01
684.993	-0.03
685.176	-0.01
685.359	-0.06
685.542	-0.09
685.725	0.06
685.908	0
686.091	-0.02
686.274	0.02
686.457	0.05
686.639	-0.01
686.822	0.01
687.005	0.01
687.188	0.02
687.371	0.07
687.553	0.03
687.736	0.02
687.919	0.08
688.102	0.06
688.284	-0.03
688.467	-0.05
688.65	-0.04
688.832	-0.07
689.015	-0.02
689.197	-0.04
689.38	0.12
689.563	0.06
689.745	-0.06
689.928	-0.02
690.11	-0.02
690.293	0.02
690.475	-0.08
690.658	0.05
690.84	0.02
691.023	-0.01
691.205	-0.05
691.388	0.01
691.57	0.03
691.752	0.06
691.935	-0.08
692.117	-0.05
692.3	-0.02
692.482	-0.01
692.664	0
692.847	0.02
693.029	0.03
693.211	0.02
693.393	0
693.576	0.01
693.758	-0.05
693.94	0.01
694.122	-0.01
694.304	-0.04
694.487	-0.01
694.669	0.04
694.851	-0.05
695.033	-0.05
695.215	-0.11
695.397	-0.09
695.579	0.02
695.761	-0.04
695.943	-0.09
696.125	0.04
696.308	-0.01
696.49	-0.07
696.671	0.13
696.853	0.04
697.035	0.1
697.217	0
697.399	0.01
697.581	0.02
697.763	-0.02
697.945	-0.08
698.127	-0.05
698.309	0.01
698.491	0.03
698.672	0.02
698.854	0.01
699.036	0.03
699.218	-0.07
699.399	0.03
699.581	0.03
699.763	-0.03
699.945	-0.04
700.126	-0.05
700.308	0.03
700.49	-0.07
700.671	-0.09
700.853	-0.06
701.035	-0.03
701.216	-0.02
701.398	-0.11
701.579	-0.02
701.761	0.01
701.943	-0.01
702.124	-0.07
702.306	-0.02
702.487	0.13
702.669	0.01
702.85	-0.03
703.031	-0.09
703.213	0.11
703.394	0.04
703.576	-0.06
703.757	0.02
703.938	0.02
704.12	0.12
704.301	-0.01
704.483	-0.08
704.664	0.03
704.845	0.1
705.026	0.09
705.208	-0.04
705.389	-0
705.57	-0.02
705.751	-0.01
705.933	-0.02
706.114	0.03
706.295	-0.02
706.476	-0.07
706.657	0.09
706.838	0.03
707.02	0.05
707.201	-0.06
707.382	-0.11
707.563	0.06
707.744	-0.05
707.925	-0.05
708.106	-0.06
708.287	0.06
708.468	0.07
708.649	-0.05
708.83	0.05
709.011	-0.11
709.192	0.06
709.373	-0.13
709.554	-0.04
709.734	0.04
709.915	0.08
710.096	-0.05
710.277	-0.1
710.458	-0.04
710.639	0
710.819	-0.07
711	-0.03
711.181	0.02
711.362	0.02
711.542	0
711.723	0
711.904	0.06
712.085	0.02
712.265	0.01
712.446	-0.08
712.627	-0.02
712.807	-0
712.988	-0.05
713.168	-0.09
713.349	-0.03
713.53	-0.14
713.71	-0.08
713.891	-0.1
714.071	0.03
714.252	-0.06
714.432	-0.02
714.613	-0.09
714.793	-0.01
714.974	0.07
715.154	0.05
715.334	0.08
715.515	0.09
715.695	-0.02
715.876	-0.03
716.056	-0.02
716.236	-0.01
716.417	-0.07
716.597	-0.09
716.777	0.11
716.957	-0
717.138	0.01
717.318	-0.03
717.498	-0.05
717.678	0.03
717.859	0.02
718.039	-0.08
718.219	-0.01
718.399	0.06
718.579	-0.09
718.759	-0.08
718.939	0
719.12	-0.06
719.3	-0.02
719.48	-0.17
719.66	-0.2
719.84	0.08
720.02	-0.05
720.2	-0.04
720.38	-0.01
720.56	0.19
720.74	-0.04
720.92	-0.02
721.1	0.09
721.279	0.1
721.459	0
721.639	-0.08
721.819	0.06
721.999	-0.08
722.179	0.05
722.359	-0.11
722.538	-0
722.718	0.05
722.898	-0.01
723.078	-0.06
723.257	-0.04
723.437	0.02
723.617	-0.03
723.797	-0.05
723.976	-0.02
724.156	-0
724.336	0.01
724.515	0.09
724.695	-0.16
724.874	-0.06
725.054	0.04
725.234	-0.01
725.413	0
725.593	-0.02
725.772	-0.01
725.952	0.02
726.131	-0.09
726.311	-0.06
726.49	0.01
726.67	-0.06
726.849	-0.06
727.028	0.07
727.208	-0.09
727.387	-0.02
727.567	-0.06
727.746	-0.02
727.925	-0.05
728.105	-0.15
728.284	-0.06
728.463	-0.08
728.643	0.09
728.822	-0.12
729.001	-0.13
729.18	-0.01
729.359	0.02
729.539	-0.04
729.718	0.03
729.897	0.08
730.076	0.01
730.255	-0.13
730.434	-0.05
730.614	0.07
730.793	0.1
730.972	-0.04
731.151	0.03
731.33	0.03
731.509	0.05
731.688	0.04
731.867	-0.02
732.046	-0.22
732.225	0.16
732.404	-0.05
732.583	-0.14
732.762	0.02
732.941	0.04
733.12	-0.1
733.298	-0.03
733.477	0.14
733.656	-0.03
733.835	-0.08
734.014	-0.03
734.193	0.02
734.371	0.06
734.55	-0.01
734.729	-0.11
734.908	-0.02
735.086	0.05
735.265	0.09
735.444	-0.24
735.623	-0.11
735.801	-0.12
735.98	0.02
736.159	-0.07
736.337	-0
736.516	0.07
736.694	-0.02
736.873	-0.15
737.052	0.16
737.23	0.09
737.409	-0.14
737.587	0.12
737.766	-0.14
737.944	-0.1
738.123	0.1
738.301	0.07
738.479	-0.08
738.658	0.02
738.836	-0.27
739.015	-0
739.193	0.13
739.371	-0.08
739.55	-0.07
739.728	-0.17
739.906	0.07
740.085	0.14
740.263	-0.11
740.441	-0.18
740.62	0.2
740.798	-0.04
740.976	-0.15
741.154	-0.12
741.332	0.17
741.511	0.04
741.689	0.04
741.867	0
742.045	0.03
742.223	-0.04
742.401	-0.04
742.579	0.03
742.757	0.12
742.935	-0.09
743.114	-0.05
743.292	-0.07
743.47	-0.06
743.648	0.03
743.826	0.08
744.004	0.05
744.181	0.01
744.359	0.01
744.537	-0.09
744.715	-0.09
744.893	0.01
745.071	-0.07
745.249	-0.04
745.427	-0.04
745.605	0.07
745.782	0.08
745.96	0.12
746.138	0.03
746.316	0.1
746.493	0.01
746.671	-0
746.849	-0.02
747.027	0.16
747.204	-0.06
747.382	0.04
747.56	-0.18
747.737	-0.13
747.915	-0.09
748.093	0.05
748.27	-0.02
748.448	-0.02
748.625	-0.15
748.803	-0.07
748.98	-0.08
749.158	0.01
749.335	0.01
749.513	-0.08
749.69	0.01
749.868	0.01
750.045	0.01
750.223	-0.1
750.4	-0.23
750.578	0.06
750.755	-0.07
750.932	-0.14
751.11	0.01
751.287	-0.19
751.464	0.17
751.642	-0.1
751.819	-0.02
751.996	0.01
752.173	-0.01
752.351	-0.06
752.528	-0.03
752.705	-0.01
752.882	-0.1
753.06	-0.12
753.237	0.06
753.414	0.18
753.591	0.1
753.768	0.01
753.945	-0.06
754.122	-0.08
754.299	0.01
754.476	-0.04
754.654	0
754.831	0.06
755.008	0.09
755.185	-0.02
755.362	-0.12
755.539	0.12
755.716	-0.08
755.892	-0.01
756.069	-0.04
756.246	-0.02
756.423	0.05
756.6	0.06
756.777	-0.07
756.954	0.13
757.131	0.07
757.307	-0.13
757.484	-0.07
757.661	-0.03
757.838	0.07
758.015	-0.15
758.191	0
758.368	0.03
758.545	0.18
758.721	0.04
758.898	-0.18
759.075	0.07
759.251	0.06
759.428	-0.03
759.605	-0.27
759.781	-0.18
759.958	0.09
760.134	0.03
760.311	-0.07
760.488	0.2
760.664	0.14
760.841	-0.07
761.017	-0.15
761.194	0.1
761.37	0.04
761.547	-0.02
761.723	-0.02
761.899	0.07
762.076	-0.18
762.252	-0.1
762.429	-0.2
762.605	0.08
762.781	-0.04
762.958	-0.06
763.134	-0.11
763.31	-0.08
763.486	0.07
763.663	-0.16
763.839	0.09
764.015	-0.17
764.191	-0.08
764.368	-0.07
764.544	-0.03
764.72	0.06
764.896	0.06
765.072	0
765.248	-0.07
765.425	-0.15
765.601	0.07
765.777	0.06
765.953	-0.23
766.129	0.02
766.305	-0.1
766.481	0.06
766.657	0.06
766.833	0.19
767.009	-0.1
767.185	-0.03
767.361	-0.04
767.537	-0.22
767.713	-0.03
767.889	-0.08
768.065	-0.03
768.24	0.02
768.416	0.09
768.592	-0.06
768.768	0.08
768.944	0.13
769.12	-0.13
769.295	0.09
769.471	-0.06
769.647	-0.02
769.823	0.08
769.998	-0.1
770.174	-0.23
770.35	0.28
770.525	0.19
770.701	-0.07
770.877	-0.03
771.052	-0
771.228	0.14
771.403	0.14
771.579	0.04
771.755	0.24
771.93	-0.06
772.106	-0.25
772.281	-0.26
772.457	-0.12
772.632	0.06
772.808	-0.23
772.983	-0.01
773.159	-0.26
773.334	0.05
773.509	0.05
773.685	-0.2
773.86	0.16
774.036	0.25
774.211	-0.07
774.386	-0.11
774.562	0.04
774.737	0.04
774.912	-0.17
775.087	0.12
775.263	0.08
775.438	-0.05
775.613	-0.11
775.788	-0.2
775.964	0.18
776.139	0.26
776.314	-0.31
776.489	0.06
776.664	0.1
776.839	-0.19
777.014	0.1
777.19	0.2
777.365	0.12
777.54	0.12
777.715	0.01
777.89	0.22
778.065	-0.12
778.24	-0.12
778.415	0.12
778.59	-0.17
778.765	-0
778.94	0.13
779.115	-0.19
779.289	-0.05
779.464	-0.06
779.639	-0.02
779.814	-0.23
779.989	-0.09
780.164	0.15
780.339	0.07
780.513	-0.27
780.688	-0.26
780.863	0.05
781.038	0.27
781.212	-0.2
781.387	0.01
781.562	0.41
781.737	-0.13
781.911	0.18
782.086	-0.11
782.261	0.02
782.435	0.34
782.61	0.06
782.784	-0.16
782.959	0.26
783.134	-0.29
783.308	-0.22
783.483	-0.11
783.657	0.33
783.832	0.03
784.006	-0.26
784.181	-0.15
784.355	0.2
784.53	-0.25
784.704	-0.31
784.878	0.41
785.053	0.11
785.227	0.37
785.402	0.32
785.576	-0.24
785.75	-0.15
785.925	0.1
786.099	-0.11
786.273	0.14
786.448	0.2
786.622	0.03
786.796	-0.19
786.97	-0.3
787.145	0.52
787.319	-0.27
787.493	-0.01
787.667	-0.42
787.841	0.31
788.015	0.07
788.19	-0.1
788.364	0.09
788.538	0.12
788.712	0.19
788.886	-0.02
789.06	0.15
789.234	0.3
789.408	-0.24
789.582	-0.05
789.756	-0.17
789.93	-0.26
790.104	0.07
790.278	-0.17
790.452	-0.25
790.626	0.35
790.8	-0.24
790.973	0.14
791.147	0.29
791.321	0.29
791.495	0.21
791.669	0.14
791.843	0.17
792.016	0.12
792.19	0.41
792.364	-0.15
792.538	0.49
792.711	0.17
792.885	-0.14
793.059	-0.13
793.233	-0.29
793.406	0.32
793.58	0.13
793.754	0.14
793.927	0.04
794.101	0.25
794.274	0.01
794.448	0.01
794.622	-0.29
794.795	0.23
794.969	-0.23
795.142	0.15
795.316	-0.13
795.489	-0.21
795.663	0.2
795.836	-0
796.009	-0.14
796.183	0.39
796.356	0.18
796.53	-0.02
796.703	-0.14
796.876	0.52
797.05	-0.17
797.223	-0.07
797.396	0.05
797.57	-0.06
797.743	0.53
797.916	0.03
798.09	0.07
798.263	0.07
798.436	0.12
798.609	0.02
798.782	0.01
798.956	-0.08
799.129	-0.06
799.302	-0.2
799.475	-0.13
799.648	-0.19
799.821	0.03
799.994	0.05
800.167	-0.36
800.34	-0.22
800.514	-0.01
800.687	-0
800.86	-0.1
801.033	0.03
801.206	0.12
801.379	-0.26
801.551	0.24
801.724	0.47
801.897	0.21
802.07	-0.21
802.243	-0.61
802.416	-0.06
802.589	-0.31
802.762	0.38
802.935	-0.12
803.107	-0.03
803.28	0.27
803.453	0.45
803.626	-0.07
803.798	-0
803.971	0.1
804.144	0.26
804.317	0.27
804.489	0.23
804.662	0.01
804.835	-0.26
805.007	-0.09
805.18	0.48
805.353	0.03
805.525	0.06
805.698	-0.31
805.87	0.43
806.043	0.02
806.215	-0.26
806.388	0.03
806.56	0.06
806.733	-0.09
806.905	0.36
807.078	-0.3
807.25	-0.03
807.423	0.03
807.595	0.12
807.768	-0.08
807.94	-0.02
808.112	-0.08
808.285	0.05
808.457	-0.02
808.629	-0.29
808.802	0
808.974	0.01
809.146	-0.24
809.318	-0.35
809.491	-0.18
809.663	0.34
809.835	-0.31
810.007	-0.21
810.18	0.07
810.352	-0.23
810.524	-0.07
810.696	0.09
810.868	0.32
811.04	0.01
811.212	0.12
811.384	0.3
811.556	0.19
811.728	-0.43
811.901	0.45
812.073	-0.15
812.245	0.7
812.417	0.18
812.589	-0.42
812.76	0.42
812.932	0.19
813.104	0.47
813.276	0.02
813.448	0.06
813.62	0.16
813.792	-0.01
813.964	-0.17
814.136	0.48
814.307	-0.61
814.479	-0.21
814.651	-0.22
814.823	1.01
814.995	0.09
815.166	0.09
815.338	-0.5
815.51	-0.17
815.681	0.73
815.853	0.04
816.025	-0.21
816.196	0.39
816.368	0.24
816.54	-0.53
816.711	-0.2
816.883	0.31
817.054	0.76
817.226	-0.74
817.398	-0.01
817.569	-0.2
817.741	-0.09
817.912	0.24
818.084	-0.07
818.255	0.04
818.426	-0.48
818.598	-0.01
818.769	-0.45
818.941	0.38
819.112	0.89
819.283	0.16
819.455	-0.26
819.626	0.15
819.798	0.32
819.969	-0.07
820.14	-0.11
820.311	0.1
820.483	-0.13
820.654	0.21
820.825	0.22
820.996	-0.12
821.168	-0.33
821.339	-0.54
821.51	-0.29
821.681	0.02
821.852	0.17
822.023	-0.47
822.195	-0.11
822.366	0.25
822.537	0.07
822.708	0.31
822.879	-0.48
823.05	0.6
823.221	-0.09
823.392	0.13
823.563	0.48
823.734	-0.14
823.905	-0.15
824.076	-0.38
824.247	-0.6
824.418	-0.13
824.589	0.89
824.759	-0.13
824.93	-0.25
825.101	-0.5
825.272	0.75
825.443	0.94
825.614	0.12
825.784	-0.93
825.955	0.71
826.126	0.29
826.297	-0.05
826.467	0.33
826.638	0.54
826.809	-0.83
826.98	-0.12
827.15	0.15
827.321	-0.07
827.492	1.01
827.662	-0.28
827.833	1.31
828.003	0.49
828.174	-0.65
828.345	-0.53
828.515	0.8
828.686	0.5
828.856	0.06
829.027	-0.03
829.197	0.56
829.368	0.42
829.538	-0.46
829.709	-0.5
829.879	0.46
830.049	-0.25
830.22	-0.12
830.39	-0.04
830.56	1.01
830.731	-0.36
830.901	-0.37
831.072	0.19
831.242	0.02
831.412	0.27
831.582	0.14
831.753	-0.55
831.923	0.13
832.093	0.3
832.263	-0.4
832.434	-0.22
832.604	-0.47
832.774	0.66
832.944	-0.6
833.114	-0.29
833.284	0.14
833.454	-0.47
833.624	-0.07
833.795	-0.03
833.965	0.74
834.135	0.88
834.305	-0.8
834.475	-0.66
834.645	0.17
834.815	-0.52
834.985	-0.56
835.155	-0.25
835.325	-0.39
835.494	0.8
835.664	-0.33
835.834	0.11
836.004	-0.5
836.174	0.19
836.344	0.66
836.514	-0.55
836.684	-0.78
836.853	0.22
837.023	0.02
837.193	-0.12
837.363	0.44
837.532	0.76
837.702	-0.58
837.872	-0.93
838.041	0.43
838.211	1.7
838.381	-1.43
838.55	0.4
838.72	2.35
838.89	1.17
839.059	-0.61
839.229	-0.91
839.398	1.33
839.568	-0.24
839.738	-0.56
839.907	0.42
840.077	0.41
840.246	-0.42
840.416	-0.67
840.585	-0.98
840.755	1.39
840.924	1.13
841.093	-1.23
841.263	-0
841.432	0.68
841.602	-0.49
841.771	-1.04
841.94	-0.6
842.11	2.14
842.279	1.69
842.448	-1.16
842.617	-0.41
842.787	0.82
842.956	-0.45
843.125	-1.06
843.294	0.41
843.464	0.47
843.633	0.21
843.802	-0.84
843.971	0.29
844.14	0.52
844.309	0.49
844.479	-0.68
844.648	-0.8
844.817	-0.85
844.986	-0.08
845.155	-1.01
845.324	-0.4
845.493	0.01
845.662	-0.74
845.831	0.48
846	0.8
846.169	-0.93
846.338	1.51
846.507	-0.19
846.676	0.39
846.844	0.17
847.013	0.97
847.182	0.09
847.351	-0.98
847.52	0.64
847.689	0.89
847.858	0.1
848.026	0.23
848.195	-0.23
848.364	-0.47
848.533	-0.92
848.701	-1.03
848.87	0.13
849.039	1.97
849.207	1.34
849.376	0.66
849.545	1.01
849.713	-0.88
849.882	-0.82
850.051	-0.66
850.219	0.71
850.388	0.93
850.556	-1.37
850.725	0.01
850.893	0.6
851.062	-0.75
851.23	1.07
851.399	-1.43
851.567	-0.37
851.736	-0.54
851.904	-1.48
852.073	-0.35
852.241	1.64
852.41	0.18
852.578	-1.06
852.746	-0.16
852.915	0.8
853.083	0.1
853.251	-1.23
853.42	-0.47
853.588	0.41
853.756	0.82
853.924	0.26
854.093	0.05
854.261	-0.83
854.429	-1.07
854.597	0.21
854.765	-0.86
854.934	0.3
855.102	2.49
855.27	0.27
855.438	0.14
855.606	1.43
855.774	0.61
855.942	-1.79
856.11	-1.89
856.278	1.19
856.446	0.83
856.614	-0.17
856.782	-1.38
856.95	0.41
857.118	1.23
857.286	0.85
857.454	-0.86
857.622	1.94
857.79	0.96
857.958	-1.32
858.126	-0.11
858.294	-2.07
858.462	0.35
858.629	-1.07
858.797	-1.25
858.965	0.07
859.133	0.71
859.301	-1.3
859.468	0.01
859.636	-1.88
859.804	1.43
859.971	-1.2
860.139	-0.33
860.307	1.52
860.474	1.01
860.642	-1.27
860.81	0.2
860.977	-0.8
861.145	0.93
861.313	-0.8
861.48	-0.24
861.648	1.52
861.815	-0.77
861.983	-1.45
862.15	0.26
862.318	0.44
862.485	0.49
862.653	-0.25
862.82	-0.73
862.988	2.08
863.155	0.11
863.322	-0.83
863.49	-1.62
863.657	0.92
863.824	2.23
863.992	-0.14
864.159	0.85
864.326	2.21
864.494	0.46
864.661	1.72
864.828	-1.12
864.996	0.71
865.163	2.24
865.33	-0.7
865.497	-2.31
865.664	-1.74
865.832	-1.38
865.999	-1.79
866.166	-0.21
866.333	-1.14
866.5	-2.4
866.667	-0.59
866.834	-0.52
867.001	1.57
867.168	-1.88
867.335	-0.61
867.502	-1.66
867.669	0.33
867.836	2.57
868.003	-0.7
868.17	1.42
868.337	3.42
868.504	2.52
868.671	-1.9
868.838	-0.89
869.005	1.15
869.172	1.49
869.339	-0.13
869.505	0.02
869.672	-0.47
869.839	1.11
870.006	0.01
870.173	-2.78
870.339	1.08
870.506	1.51
870.673	-1.62
870.84	0.36
871.006	1.98
871.173	-0.39
871.34	0.07
871.506	-0.09
871.673	-0.54
871.839	-2.9
872.006	-0.51
872.173	0.9
872.339	1.2
872.506	1.73
872.672	-1.39
872.839	-1.72
873.005	0.93
873.172	4.28
873.338	0.58
873.505	0.04
873.671	1.42
873.838	0.42
874.004	-1.4
874.171	-0.71
874.337	1.81
874.503	2.19
874.67	-1.78
874.836	-0.11
875.002	2.65
875.169	2.08
875.335	0.6
875.501	-1.16
875.668	1.82
875.834	0.42
876	-0.33
876.166	0.82
876.332	2.25
876.499	2.48
876.665	0.16
876.831	-0.3
876.997	3.95
877.163	-0.28
877.329	-0.59
877.495	0.69
877.662	2.57
877.828	0.91
877.994	-2.05
878.16	-4.15
878.326	0.69
878.492	1.88
878.658	0.51
878.824	0.09
878.99	0.46
879.156	-0.9
879.322	3.05
879.487	0.24
879.653	0.67
879.819	1.67
879.985	-1.27
880.151	1.34
880.317	2.14
880.483	0.55
880.648	1.11
880.814	-3.55
880.98	-0.83
881.146	-3.09
881.312	-1.1
881.477	-0.68
881.643	0.5
881.809	2.2
881.974	2.66
882.14	-2.66
882.306	-0.87
882.471	2.95
882.637	0.72
882.803	1.12
882.968	3.26
883.134	1.94
883.299	-0.57
883.465	0.37
883.63	0.46
883.796	2.04
883.961	0.73
884.127	1.15
884.292	-3.87
884.458	-1.54
884.623	-1.54
