Data from Apollo_Calib_20240827__AbsoluteIrradiance__442__06-31-01-354.txt Node

Date: Wed Aug 28 06:31:01 BST 2024
User: biology
Spectrometer: FLMT08252
Trigger mode: 0
Integration Time (sec): 5.000000E-1
Scans to average: 5
Electric dark correction enabled: true
Nonlinearity correction enabled: false
Boxcar width: 0
XAxis mode: Wavelengths
Number of Pixels in Spectrum: 3648
>>>>>Begin Spectral Data<<<<<
179.588	-0
179.809	-0
180.03	-0
180.251	-0
180.473	-0
180.694	0
180.915	0
181.136	-0
181.357	0
181.578	-0
181.799	-0
182.02	-0
182.241	-0
182.462	-0
182.683	0
182.904	-0
183.125	0
183.346	0
183.567	0
183.788	0
184.009	0
184.23	0
184.451	0
184.672	0
184.892	0
185.113	0
185.334	0
185.555	0
185.776	0
185.996	0
186.217	0
186.438	0
186.659	0
186.879	0
187.1	0
187.321	0
187.541	0
187.762	0
187.983	0
188.203	0
188.424	0
188.644	0
188.865	0
189.086	0
189.306	0
189.527	0
189.747	0
189.968	0
190.188	0
190.409	0
190.629	0
190.849	0
191.07	0
191.29	0
191.511	0
191.731	0
191.951	0
192.172	0
192.392	0
192.612	0
192.833	0
193.053	0
193.273	0
193.493	0
193.714	0
193.934	0
194.154	0
194.374	0
194.594	0
194.815	0
195.035	0
195.255	0
195.475	0
195.695	0
195.915	0
196.135	0
196.355	0
196.575	0
196.795	0
197.015	-0
197.235	0
197.455	0
197.675	0
197.895	0
198.115	0
198.335	0
198.555	0
198.775	0
198.995	0
199.214	0
199.434	0
199.654	0
199.874	0
200.094	0.14
200.313	1.43
200.533	0.91
200.753	0.8
200.973	2.25
201.192	1.89
201.412	0.4
201.632	0.81
201.851	2.31
202.071	0.62
202.291	0.84
202.51	0.4
202.73	1.7
202.95	0.74
203.169	0.56
203.389	0.94
203.608	1.34
203.828	0.44
204.047	0.89
204.267	1.88
204.486	1.13
204.706	0.87
204.925	0.87
205.145	0.91
205.364	1.47
205.583	1.67
205.803	0.64
206.022	0.43
206.242	0.91
206.461	0.87
206.68	0.6
206.9	0.85
207.119	1.65
207.338	1.58
207.557	0.37
207.777	0.61
207.996	0.89
208.215	1.29
208.434	0.63
208.654	0.24
208.873	0.86
209.092	1.13
209.311	0.43
209.53	0.64
209.749	0.59
209.968	0.18
210.187	0.72
210.407	0.42
210.626	0.56
210.845	0.93
211.064	0.58
211.283	0.37
211.502	0.83
211.721	0.46
211.94	0.59
212.159	0.92
212.377	0.91
212.596	0.97
212.815	0.69
213.034	0.6
213.253	0.84
213.472	0.71
213.691	0.38
213.91	0.35
214.128	0.36
214.347	0.87
214.566	0.11
214.785	0.02
215.003	0.67
215.222	0.65
215.441	0.4
215.66	0.2
215.878	0.35
216.097	0.8
216.316	0.29
216.534	0.49
216.753	0.51
216.972	0.54
217.19	0.25
217.409	0.3
217.627	0.31
217.846	0.37
218.064	0.52
218.283	0.37
218.501	0.94
218.72	0.57
218.938	0.32
219.157	0.41
219.375	0.63
219.594	0.54
219.812	0.16
220.031	0.13
220.249	0.42
220.467	0.53
220.686	0.25
220.904	0.21
221.122	0.22
221.341	0.78
221.559	0.41
221.777	0.13
221.995	0.46
222.214	0.55
222.432	0.22
222.65	0.45
222.868	0.34
223.086	0.37
223.305	0.56
223.523	0.3
223.741	0.58
223.959	0.27
224.177	0.1
224.395	0.23
224.613	0.42
224.831	0.52
225.049	0.34
225.267	0.32
225.485	0.41
225.703	0.35
225.921	0.24
226.139	0.3
226.357	0.26
226.575	0.41
226.793	0.23
227.011	0.85
227.229	0.46
227.447	0.48
227.665	0.3
227.883	0.01
228.1	0.27
228.318	0.45
228.536	0.05
228.754	0.26
228.972	0.34
229.189	0.5
229.407	0.29
229.625	0.26
229.843	0.55
230.06	0.41
230.278	0.19
230.496	0.36
230.713	0.39
230.931	0.37
231.149	0.27
231.366	0.21
231.584	0.29
231.801	0.56
232.019	0.26
232.236	0.11
232.454	0.18
232.671	0.39
232.889	0.36
233.106	0.17
233.324	0.31
233.541	0.37
233.759	0.28
233.976	0.1
234.194	0.21
234.411	0.29
234.628	0.19
234.846	0.22
235.063	0.23
235.28	0.26
235.498	0.28
235.715	0.19
235.932	0.49
236.149	0.24
236.367	0.21
236.584	0.24
236.801	0.22
237.018	0.35
237.236	0.32
237.453	0.15
237.67	0.43
237.887	0.19
238.104	0.26
238.321	0.15
238.538	0.2
238.755	0.42
238.973	0.07
239.19	0.28
239.407	0.41
239.624	0.28
239.841	0.12
240.058	0.17
240.275	0.19
240.492	0.29
240.709	0.32
240.925	0.25
241.142	0.25
241.359	0.12
241.576	0.16
241.793	0.06
242.01	0.24
242.227	0.44
242.444	0.23
242.66	0.41
242.877	0.38
243.094	0.13
243.311	0.25
243.527	0.15
243.744	0.28
243.961	0.28
244.178	0.16
244.394	0.23
244.611	0.29
244.828	0.3
245.044	0.17
245.261	0.23
245.477	0.24
245.694	0.23
245.911	0.09
246.127	0.19
246.344	0.31
246.56	0.3
246.777	0.26
246.993	0.3
247.21	0.25
247.426	0.31
247.643	0.18
247.859	0.18
248.076	0.22
248.292	0.36
248.508	0.17
248.725	0.22
248.941	0.22
249.157	0.25
249.374	0.15
249.59	0.21
249.806	0.24
250.023	0.4
250.239	0.15
250.455	0.08
250.671	0.24
250.888	0.24
251.104	0.24
251.32	0.19
251.536	0.24
251.752	0.18
251.969	0.21
252.185	0.15
252.401	0.41
252.617	0.24
252.833	0.28
253.049	0.18
253.265	0.16
253.481	0.28
253.697	0.13
253.913	0.24
254.129	0.3
254.345	0.16
254.561	0.17
254.777	0.16
254.993	0.36
255.209	0.19
255.425	0.23
255.641	0.17
255.857	0.25
256.073	0.23
256.288	0.11
256.504	0.15
256.72	0.27
256.936	0.34
257.152	0.2
257.367	0.2
257.583	0.22
257.799	0.25
258.015	0.19
258.23	0.14
258.446	0.32
258.662	0.14
258.877	0.13
259.093	0.15
259.309	0.21
259.524	0.24
259.74	0.13
259.955	0.05
260.171	0.13
260.387	0.2
260.602	0.3
260.818	0.27
261.033	0.13
261.249	0.11
261.464	0.19
261.68	0.14
261.895	0.2
262.11	0.21
262.326	0.21
262.541	0.1
262.757	0.22
262.972	0.23
263.187	0.22
263.403	0.18
263.618	0.24
263.833	0.14
264.049	0.13
264.264	0.12
264.479	0.2
264.694	0.24
264.91	0.13
265.125	0.15
265.34	0.24
265.555	0.28
265.77	0.13
265.986	0.08
266.201	0.12
266.416	0.29
266.631	0.19
266.846	0.18
267.061	0.23
267.276	0.26
267.491	0.08
267.706	0.18
267.921	0.23
268.136	0.18
268.351	0.21
268.566	0.14
268.781	0.23
268.996	0.27
269.211	0.17
269.426	0.09
269.641	0.15
269.856	0.25
270.071	0.13
270.285	0.12
270.5	0.26
270.715	0.27
270.93	0.14
271.145	0.14
271.359	0.25
271.574	0.12
271.789	0.15
272.004	0.14
272.218	0.16
272.433	0.2
272.648	0.15
272.862	0.23
273.077	0.14
273.292	0.21
273.506	0.1
273.721	0.14
273.936	0.28
274.15	0.23
274.365	0.15
274.579	0.17
274.794	0.21
275.008	0.27
275.223	0.07
275.437	0.15
275.652	0.23
275.866	0.17
276.081	0.12
276.295	0.19
276.509	0.12
276.724	0.13
276.938	0.18
277.153	0.17
277.367	0.23
277.581	0.14
277.796	0.1
278.01	0.14
278.224	0.18
278.438	0.3
278.653	0.11
278.867	0.12
279.081	0.03
279.295	0.09
279.51	0.19
279.724	0.08
279.938	0.26
280.152	0.2
280.366	0.1
280.58	0.13
280.794	0.22
281.008	0.15
281.222	0.2
281.437	0.33
281.651	0.19
281.865	0.19
282.079	0.08
282.293	0.07
282.507	0.14
282.721	0.14
282.935	0.16
283.148	0.04
283.362	0.11
283.576	0.07
283.79	0.16
284.004	0.1
284.218	0.21
284.432	0.08
284.646	0.16
284.859	0.13
285.073	0.11
285.287	0.15
285.501	0.13
285.714	0.16
285.928	0.17
286.142	0.18
286.356	0.09
286.569	0.14
286.783	0.24
286.997	0.2
287.21	0.17
287.424	0.11
287.637	0.14
287.851	0.11
288.065	0.15
288.278	0.13
288.492	0.14
288.705	0.13
288.919	0.21
289.132	0.08
289.346	0.19
289.559	0.12
289.773	0.09
289.986	0.16
290.2	0.18
290.413	0.21
290.626	0.14
290.84	0.13
291.053	0.13
291.267	0.21
291.48	0.11
291.693	0.15
291.906	0.13
292.12	0.11
292.333	0.1
292.546	0.1
292.76	0.24
292.973	0.13
293.186	0.16
293.399	0.1
293.612	0.19
293.826	0.11
294.039	0.12
294.252	0.11
294.465	0.16
294.678	0.18
294.891	0.18
295.104	0.1
295.317	0.14
295.53	0.17
295.743	0.13
295.956	0.09
296.169	0.23
296.382	0.17
296.595	0.12
296.808	0.09
297.021	0.16
297.234	0.21
297.447	0.14
297.66	0.16
297.873	0.18
298.086	0.18
298.299	0.1
298.511	0.07
298.724	0.07
298.937	0.1
299.15	0.12
299.363	0.16
299.575	0.16
299.788	0.17
300.001	0.15
300.213	0.08
300.426	0.08
300.639	0.1
300.852	0.09
301.064	0.18
301.277	0.22
301.489	0.19
301.702	0.15
301.915	0.16
302.127	0.13
302.34	0.1
302.552	0.15
302.765	0.13
302.977	0.14
303.19	0.11
303.402	0.14
303.615	0.11
303.827	0.09
304.04	0.13
304.252	0.16
304.464	0.12
304.677	0.2
304.889	0.19
305.102	0.08
305.314	0.08
305.526	0.17
305.739	0.17
305.951	0.1
306.163	0.13
306.375	0.21
306.588	0.08
306.8	0.13
307.012	0.06
307.224	0.14
307.436	0.18
307.649	0.06
307.861	0.16
308.073	0.13
308.285	0.07
308.497	0.08
308.709	0.14
308.921	0.16
309.133	0.18
309.346	0.13
309.558	0.19
309.77	0.15
309.982	0.11
310.194	0.18
310.406	0.1
310.617	0.21
310.829	0.14
311.041	0.13
311.253	0.07
311.465	0.1
311.677	0.13
311.889	0.1
312.101	0.09
312.313	0.21
312.524	0.18
312.736	0.07
312.948	0.1
313.16	0.19
313.372	0.18
313.583	0.16
313.795	0.13
314.007	0.07
314.218	0.17
314.43	0.11
314.642	0.11
314.853	0.06
315.065	0.15
315.277	0.14
315.488	0.1
315.7	0.18
315.912	0.16
316.123	0.13
316.335	0.11
316.546	0.21
316.758	0.14
316.969	0.1
317.181	0.15
317.392	0.13
317.604	0.16
317.815	0.09
318.026	0.09
318.238	0.06
318.449	0.14
318.661	0.05
318.872	0.12
319.083	0.08
319.295	0.17
319.506	0.07
319.717	0.15
319.929	0.16
320.14	0.15
320.351	0.13
320.562	0.14
320.774	0.14
320.985	0.14
321.196	0.09
321.407	0.07
321.618	0.19
321.829	0.12
322.041	0.17
322.252	0.12
322.463	0.17
322.674	0.12
322.885	0.06
323.096	0.09
323.307	0.1
323.518	0.16
323.729	0.09
323.94	0.1
324.151	0.13
324.362	0.14
324.573	0.17
324.784	0.06
324.995	0.15
325.206	0.14
325.417	0.13
325.628	0.14
325.838	0.13
326.049	0.13
326.26	0.16
326.471	0.09
326.682	0.15
326.892	0.13
327.103	0.04
327.314	0.04
327.525	0.19
327.735	0.13
327.946	0.12
328.157	0.09
328.368	0.18
328.578	0.09
328.789	0.18
328.999	0.14
329.21	0.13
329.421	0.18
329.631	0.12
329.842	0.11
330.052	0.13
330.263	0.15
330.473	0.18
330.684	0.15
330.894	0.11
331.105	0.14
331.315	0.13
331.526	0.08
331.736	0.19
331.947	0.14
332.157	0.12
332.367	0.07
332.578	0.17
332.788	0.14
332.999	0.18
333.209	0.13
333.419	0.09
333.629	0.15
333.84	0.13
334.05	0.08
334.26	0.18
334.47	0.1
334.681	0.2
334.891	0.1
335.101	0.18
335.311	0.17
335.521	0.13
335.732	0.09
335.942	0.15
336.152	0.12
336.362	0.16
336.572	0.12
336.782	0.18
336.992	0.09
337.202	0.1
337.412	0.12
337.622	0.15
337.832	0.13
338.042	0.12
338.252	0.09
338.462	0.12
338.672	0.12
338.882	0.09
339.092	0.05
339.302	0.22
339.511	0.12
339.721	0.07
339.931	0.1
340.141	0.18
340.351	0.17
340.561	0.15
340.77	0.1
340.98	0.15
341.19	0.15
341.4	0.11
341.609	0.06
341.819	0.11
342.029	0.05
342.238	0.13
342.448	0.11
342.658	0.12
342.867	0.12
343.077	0.12
343.286	0.19
343.496	0.13
343.706	0.16
343.915	0.09
344.125	0.12
344.334	0.15
344.544	0.05
344.753	0.11
344.963	0.12
345.172	0.12
345.381	0.12
345.591	0.11
345.8	0.16
346.01	0.16
346.219	0.16
346.428	-0.02
346.638	0.1
346.847	0.11
347.056	0.19
347.266	0.1
347.475	0.13
347.684	0.13
347.893	0.17
348.103	0.14
348.312	0.09
348.521	0.08
348.73	0.11
348.94	0.14
349.149	0.1
349.358	0.11
349.567	0.12
349.776	0.07
349.985	0.11
350.194	0.16
350.403	0.18
350.612	0.07
350.821	0.11
351.03	0.11
351.239	0.08
351.448	0.08
351.657	0.08
351.866	0.15
352.075	0.06
352.284	0.16
352.493	0.08
352.702	0.16
352.911	0.12
353.12	0.17
353.329	0.11
353.538	0.12
353.746	0.13
353.955	0.09
354.164	0.15
354.373	0.1
354.582	0.15
354.79	0.14
354.999	0.13
355.208	0.11
355.416	0.18
355.625	0.09
355.834	0.1
356.042	0.16
356.251	0.11
356.46	0.11
356.668	0.14
356.877	0.21
357.085	0.2
357.294	-0
357.503	0.15
357.711	0.13
357.92	0.24
358.128	0.14
358.337	0.1
358.545	0.14
358.754	0.09
358.962	0.16
359.17	0.1
359.379	0.15
359.587	0.15
359.796	0.11
360.004	0.16
360.212	0.15
360.421	0.14
360.629	0.13
360.837	0.08
361.046	0.12
361.254	0.21
361.462	0.12
361.67	0.11
361.879	0.13
362.087	0.2
362.295	0.15
362.503	0.13
362.711	0.08
362.92	0.07
363.128	0.09
363.336	0.07
363.544	0.06
363.752	0.1
363.96	0.12
364.168	0.1
364.376	0.1
364.584	0.11
364.792	0.19
365	0.14
365.208	0.15
365.416	0.12
365.624	0.17
365.832	0.08
366.04	0.18
366.248	0.14
366.456	0.16
366.664	0.09
366.872	0.13
367.079	0.13
367.287	0.13
367.495	0.15
367.703	0.14
367.911	0.14
368.118	0.12
368.326	0.14
368.534	0.05
368.742	0.2
368.949	0.09
369.157	0.1
369.365	0.13
369.572	0.1
369.78	0.1
369.988	0.15
370.195	0.13
370.403	0.15
370.61	0.08
370.818	0.13
371.026	0.2
371.233	0.1
371.441	0.11
371.648	0.14
371.856	0.12
372.063	0.14
372.271	0.09
372.478	0.11
372.685	0.13
372.893	0.17
373.1	0.14
373.308	0.09
373.515	0.18
373.722	0.15
373.93	0.15
374.137	0.17
374.344	0.2
374.552	0.19
374.759	0.14
374.966	0.18
375.173	0.09
375.381	0.18
375.588	0.12
375.795	0.08
376.002	0.14
376.209	0.09
376.417	0.1
376.624	0.16
376.831	0.17
377.038	0.12
377.245	0.06
377.452	0.11
377.659	0.17
377.866	0.12
378.073	0.11
378.28	0.11
378.487	0.15
378.694	0.18
378.901	0.13
379.108	0.14
379.315	0.16
379.522	0.22
379.729	0.19
379.936	0.15
380.143	0.15
380.35	0.15
380.557	0.1
380.763	0.17
380.97	0.13
381.177	0.15
381.384	0.14
381.591	0.07
381.797	0.08
382.004	0.13
382.211	0.15
382.418	0.16
382.624	0.18
382.831	0.18
383.038	0.11
383.244	0.12
383.451	0.13
383.658	0.14
383.864	0.16
384.071	0.12
384.277	0.18
384.484	0.11
384.69	0.16
384.897	0.11
385.103	0.15
385.31	0.12
385.516	0.15
385.723	0.1
385.929	0.11
386.136	0.13
386.342	0.2
386.549	0.13
386.755	0.19
386.961	0.14
387.168	0.12
387.374	0.19
387.58	0.13
387.787	0.2
387.993	0.2
388.199	0.13
388.406	0.12
388.612	0.17
388.818	0.13
389.024	0.07
389.231	0.14
389.437	0.18
389.643	0.16
389.849	0.18
390.055	0.15
390.261	0.17
390.467	0.17
390.674	0.1
390.88	0.14
391.086	0.19
391.292	0.11
391.498	0.19
391.704	0.18
391.91	0.16
392.116	0.12
392.322	0.06
392.528	0.16
392.734	0.09
392.94	0.14
393.146	0.14
393.352	0.12
393.557	0.13
393.763	0.13
393.969	0.17
394.175	0.15
394.381	0.18
394.587	0.05
394.792	0.11
394.998	0.19
395.204	0.21
395.41	0.16
395.615	0.17
395.821	0.16
396.027	0.16
396.233	0.12
396.438	0.16
396.644	0.13
396.85	0.19
397.055	0.16
397.261	0.21
397.466	0.24
397.672	0.14
397.878	0.21
398.083	0.21
398.289	0.13
398.494	0.15
398.7	0.18
398.905	0.09
399.111	0.23
399.316	0.11
399.522	0.13
399.727	0.12
399.932	0.15
400.138	0.13
400.343	0.18
400.549	0.17
400.754	0.18
400.959	0.17
401.165	0.2
401.37	0.15
401.575	0.26
401.78	0.13
401.986	0.14
402.191	0.16
402.396	0.19
402.601	0.21
402.807	0.19
403.012	0.18
403.217	0.19
403.422	0.14
403.627	0.16
403.832	0.13
404.037	0.17
404.243	0.18
404.448	0.14
404.653	0.15
404.858	0.18
405.063	0.2
405.268	0.16
405.473	0.11
405.678	0.14
405.883	0.31
406.088	0.24
406.293	0.12
406.498	0.11
406.703	0.19
406.907	0.09
407.112	0.11
407.317	0.18
407.522	0.15
407.727	0.1
407.932	0.2
408.136	0.23
408.341	0.18
408.546	0.2
408.751	0.19
408.956	0.14
409.16	0.25
409.365	0.18
409.57	0.14
409.774	0.15
409.979	0.21
410.184	0.17
410.388	0.17
410.593	0.22
410.798	0.18
411.002	0.15
411.207	0.21
411.411	0.14
411.616	0.1
411.82	0.18
412.025	0.24
412.229	0.17
412.434	0.26
412.638	0.18
412.843	0.15
413.047	0.19
413.252	0.14
413.456	0.15
413.66	0.24
413.865	0.12
414.069	0.26
414.273	0.15
414.478	0.12
414.682	0.16
414.886	0.16
415.091	0.12
415.295	0.07
415.499	0.19
415.703	0.13
415.908	0.24
416.112	0.1
416.316	0.19
416.52	0.19
416.724	0.11
416.929	0.17
417.133	0.29
417.337	0.15
417.541	0.17
417.745	0.16
417.949	0.25
418.153	0.22
418.357	0.13
418.561	0.3
418.765	0.19
418.969	0.29
419.173	0.26
419.377	0.18
419.581	0.25
419.785	0.16
419.989	0.16
420.193	0.18
420.397	0.21
420.601	0.24
420.804	0.29
421.008	0.21
421.212	0.27
421.416	0.26
421.62	0.19
421.823	0.17
422.027	0.31
422.231	0.21
422.435	0.2
422.638	0.22
422.842	0.16
423.046	0.16
423.249	0.22
423.453	0.24
423.657	0.22
423.86	0.22
424.064	0.21
424.268	0.21
424.471	0.22
424.675	0.27
424.878	0.26
425.082	0.22
425.285	0.23
425.489	0.23
425.692	0.23
425.896	0.18
426.099	0.27
426.303	0.19
426.506	0.17
426.71	0.26
426.913	0.28
427.116	0.26
427.32	0.19
427.523	0.23
427.726	0.29
427.93	0.2
428.133	0.21
428.336	0.2
428.54	0.2
428.743	0.2
428.946	0.32
429.149	0.19
429.353	0.23
429.556	0.24
429.759	0.21
429.962	0.15
430.165	0.27
430.368	0.2
430.571	0.22
430.775	0.2
430.978	0.16
431.181	0.21
431.384	0.23
431.587	0.21
431.79	0.2
431.993	0.24
432.196	0.2
432.399	0.18
432.602	0.28
432.805	0.19
433.008	0.22
433.211	0.1
433.414	0.24
433.616	0.27
433.819	0.23
434.022	0.12
434.225	0.33
434.428	0.22
434.631	0.24
434.833	0.23
435.036	0.21
435.239	0.27
435.442	0.25
435.645	0.22
435.847	0.2
436.05	0.24
436.253	0.25
436.455	0.18
436.658	0.23
436.861	0.36
437.063	0.2
437.266	0.25
437.468	0.19
437.671	0.31
437.874	0.23
438.076	0.2
438.279	0.14
438.481	0.22
438.684	0.2
438.886	0.23
439.089	0.15
439.291	0.31
439.494	0.27
439.696	0.17
439.899	0.23
440.101	0.31
440.303	0.19
440.506	0.3
440.708	0.19
440.91	0.28
441.113	0.22
441.315	0.28
441.517	0.23
441.72	0.27
441.922	0.18
442.124	0.22
442.326	0.23
442.529	0.31
442.731	0.27
442.933	0.31
443.135	0.24
443.337	0.17
443.539	0.26
443.742	0.27
443.944	0.25
444.146	0.26
444.348	0.23
444.55	0.26
444.752	0.27
444.954	0.2
445.156	0.26
445.358	0.21
445.56	0.31
445.762	0.28
445.964	0.26
446.166	0.2
446.368	0.27
446.57	0.29
446.772	0.27
446.974	0.25
447.175	0.29
447.377	0.26
447.579	0.2
447.781	0.2
447.983	0.32
448.184	0.24
448.386	0.26
448.588	0.18
448.79	0.28
448.991	0.3
449.193	0.27
449.395	0.27
449.597	0.29
449.798	0.28
450	0.28
450.202	0.3
450.403	0.3
450.605	0.34
450.806	0.32
451.008	0.22
451.21	0.3
451.411	0.32
451.613	0.26
451.814	0.29
452.016	0.35
452.217	0.29
452.419	0.32
452.62	0.32
452.821	0.29
453.023	0.36
453.224	0.33
453.426	0.28
453.627	0.35
453.828	0.32
454.03	0.32
454.231	0.32
454.432	0.28
454.634	0.38
454.835	0.31
455.036	0.27
455.238	0.36
455.439	0.38
455.64	0.26
455.841	0.32
456.042	0.44
456.244	0.33
456.445	0.24
456.646	0.25
456.847	0.31
457.048	0.42
457.249	0.41
457.45	0.52
457.651	0.35
457.852	0.37
458.054	0.37
458.255	0.33
458.456	0.4
458.657	0.36
458.858	0.32
459.058	0.33
459.259	0.39
459.46	0.35
459.661	0.36
459.862	0.48
460.063	0.36
460.264	0.43
460.465	0.32
460.666	0.52
460.866	0.35
461.067	0.38
461.268	0.37
461.469	0.34
461.67	0.32
461.87	0.36
462.071	0.4
462.272	0.34
462.473	0.39
462.673	0.46
462.874	0.37
463.075	0.42
463.275	0.35
463.476	0.49
463.676	0.48
463.877	0.46
464.078	0.41
464.278	0.51
464.479	0.42
464.679	0.5
464.88	0.46
465.08	0.55
465.281	0.4
465.481	0.47
465.682	0.44
465.882	0.51
466.083	0.49
466.283	0.52
466.483	0.48
466.684	0.43
466.884	0.43
467.085	0.45
467.285	0.56
467.485	0.46
467.686	0.49
467.886	0.47
468.086	0.51
468.286	0.52
468.487	0.58
468.687	0.47
468.887	0.55
469.087	0.58
469.287	0.54
469.488	0.51
469.688	0.6
469.888	0.64
470.088	0.63
470.288	0.63
470.488	0.68
470.688	0.55
470.888	0.63
471.088	0.55
471.288	0.72
471.488	0.67
471.688	0.65
471.888	0.64
472.088	0.8
472.288	0.76
472.488	0.65
472.688	0.67
472.888	0.76
473.088	0.76
473.288	0.78
473.488	0.75
473.688	0.88
473.887	0.83
474.087	0.81
474.287	0.84
474.487	0.81
474.687	0.9
474.886	0.84
475.086	0.88
475.286	0.9
475.486	0.88
475.685	0.9
475.885	0.82
476.085	0.99
476.284	1
476.484	0.99
476.684	1.05
476.883	1.09
477.083	1.01
477.282	1.01
477.482	1.11
477.681	1.12
477.881	1.07
478.08	1.09
478.28	1.13
478.479	1.18
478.679	1.21
478.878	1.17
479.078	1.15
479.277	1.24
479.477	1.25
479.676	1.28
479.875	1.31
480.075	1.27
480.274	1.31
480.473	1.41
480.673	1.37
480.872	1.46
481.071	1.46
481.271	1.48
481.47	1.52
481.669	1.5
481.868	1.5
482.067	1.54
482.267	1.5
482.466	1.59
482.665	1.62
482.864	1.65
483.063	1.67
483.262	1.78
483.461	1.78
483.661	1.86
483.86	1.82
484.059	1.93
484.258	1.94
484.457	1.97
484.656	1.94
484.855	2.08
485.054	1.93
485.253	2.03
485.452	2.06
485.651	2.13
485.849	2.14
486.048	2.17
486.247	2.26
486.446	2.28
486.645	2.3
486.844	2.36
487.043	2.39
487.241	2.42
487.44	2.52
487.639	2.52
487.838	2.55
488.037	2.64
488.235	2.71
488.434	2.73
488.633	2.63
488.831	2.82
489.03	2.86
489.229	2.92
489.427	2.97
489.626	3.01
489.825	3.07
490.023	3.15
490.222	3.13
490.42	3.18
490.619	3.26
490.817	3.35
491.016	3.39
491.214	3.42
491.413	3.5
491.611	3.47
491.81	3.55
492.008	3.61
492.207	3.73
492.405	3.78
492.604	3.78
492.802	3.89
493	4.02
493.199	4.05
493.397	4.13
493.595	4.31
493.794	4.22
493.992	4.39
494.19	4.43
494.388	4.61
494.587	4.54
494.785	4.61
494.983	4.55
495.181	4.76
495.379	4.84
495.578	4.98
495.776	5.02
495.974	4.99
496.172	5.07
496.37	5.34
496.568	5.41
496.766	5.41
496.964	5.57
497.162	5.63
497.36	5.76
497.558	5.79
497.756	5.97
497.954	5.97
498.152	6.1
498.35	6.32
498.548	6.24
498.746	6.3
498.944	6.5
499.142	6.5
499.34	6.72
499.538	7
499.736	6.8
499.933	6.97
500.131	7.03
500.329	7.4
500.527	7.4
500.725	7.59
500.922	7.67
501.12	7.79
501.318	8.06
501.516	8.08
501.713	8.24
501.911	8.25
502.109	8.3
502.306	8.52
502.504	8.46
502.701	8.65
502.899	8.9
503.097	9.3
503.294	9.12
503.492	9.44
503.689	9.59
503.887	9.53
504.084	9.73
504.282	9.83
504.479	9.89
504.677	10.26
504.874	10.3
505.072	10.17
505.269	10.71
505.466	10.82
505.664	10.94
505.861	10.89
506.059	11.25
506.256	11.16
506.453	11.52
506.651	11.73
506.848	11.89
507.045	11.91
507.242	12.02
507.44	12.24
507.637	12.51
507.834	12.45
508.031	12.81
508.229	12.71
508.426	12.65
508.623	13.18
508.82	13.53
509.017	13.3
509.214	13.43
509.411	13.82
509.608	13.73
509.805	14.07
510.003	14.1
510.2	14.25
510.397	14.66
510.594	14.43
510.791	14.83
510.988	14.79
511.184	14.71
511.381	14.63
511.578	15.15
511.775	15.43
511.972	15.25
512.169	15.52
512.366	15.6
512.563	15.92
512.76	16.07
512.956	16.18
513.153	16.13
513.35	16.06
513.547	16.18
513.744	16.49
513.94	16.49
514.137	16.7
514.334	16.74
514.53	16.87
514.727	17.34
514.924	17.04
515.12	17.15
515.317	17.31
515.514	17.02
515.71	17.03
515.907	17.67
516.103	17.66
516.3	17.39
516.497	17.72
516.693	17.66
516.89	17.69
517.086	17.85
517.283	17.79
517.479	17.5
517.676	18.09
517.872	18.04
518.068	18.07
518.265	17.96
518.461	17.8
518.658	18.17
518.854	17.98
519.05	18.29
519.247	18.27
519.443	18.01
519.639	18.35
519.836	17.94
520.032	17.74
520.228	18.18
520.424	17.94
520.621	17.97
520.817	18.11
521.013	17.86
521.209	18.24
521.405	18.03
521.601	17.96
521.798	17.72
521.994	17.64
522.19	17.48
522.386	17.53
522.582	17.72
522.778	17.9
522.974	17.38
523.17	17.36
523.366	17.12
523.562	17.26
523.758	17.1
523.954	16.67
524.15	17.04
524.346	16.97
524.542	16.89
524.738	16.64
524.934	16.92
525.129	16.67
525.325	16.3
525.521	16.16
525.717	16.53
525.913	16.05
526.109	15.96
526.304	16.18
526.5	15.87
526.696	15.76
526.892	15.54
527.087	15.96
527.283	15.53
527.479	15.34
527.674	14.95
527.87	15.14
528.066	14.95
528.261	14.87
528.457	14.5
528.653	14.82
528.848	14.56
529.044	14.54
529.239	14.11
529.435	14.02
529.63	13.8
529.826	13.71
530.021	13.66
530.217	13.63
530.412	13.4
530.608	13.39
530.803	13.28
530.999	12.96
531.194	12.92
531.389	12.97
531.585	12.79
531.78	12.86
531.975	12.43
532.171	12.53
532.366	12.32
532.561	12.2
532.757	11.98
532.952	12.2
533.147	11.64
533.342	11.75
533.538	11.5
533.733	11.62
533.928	11.04
534.123	11.26
534.318	11.14
534.513	10.88
534.709	11.02
534.904	10.78
535.099	10.79
535.294	10.58
535.489	10.56
535.684	10.34
535.879	10.24
536.074	10.21
536.269	10.14
536.464	9.98
536.659	9.85
536.854	9.7
537.049	9.63
537.244	9.51
537.439	9.42
537.634	9.3
537.828	9.3
538.023	9.18
538.218	9.07
538.413	8.84
538.608	8.91
538.803	8.73
538.997	8.64
539.192	8.6
539.387	8.39
539.582	8.39
539.776	8.21
539.971	8.22
540.166	8.12
540.36	7.96
540.555	8.1
540.75	7.91
540.944	7.79
541.139	7.78
541.334	7.59
541.528	7.6
541.723	7.52
541.917	7.46
542.112	7.22
542.306	7.13
542.501	7.05
542.695	7.03
542.89	6.9
543.084	6.93
543.279	6.87
543.473	6.81
543.668	6.8
543.862	6.51
544.056	6.45
544.251	6.52
544.445	6.42
544.64	6.32
544.834	6.06
545.028	5.88
545.222	6.1
545.417	6.12
545.611	5.98
545.805	5.85
546	5.7
546.194	5.74
546.388	5.71
546.582	5.57
546.776	5.49
546.97	5.45
547.165	5.42
547.359	5.36
547.553	5.2
547.747	5.23
547.941	5.22
548.135	5.12
548.329	5.07
548.523	4.99
548.717	4.91
548.911	4.78
549.105	4.73
549.299	4.77
549.493	4.66
549.687	4.62
549.881	4.62
550.075	4.54
550.269	4.39
550.463	4.42
550.657	4.32
550.85	4.28
551.044	4.23
551.238	4.21
551.432	4.1
551.626	4.08
551.82	4.03
552.013	3.91
552.207	3.95
552.401	3.91
552.594	3.81
552.788	3.72
552.982	3.73
553.176	3.64
553.369	3.75
553.563	3.64
553.756	3.55
553.95	3.51
554.144	3.48
554.337	3.44
554.531	3.29
554.724	3.33
554.918	3.32
555.111	3.24
555.305	3.22
555.498	3.18
555.692	3.18
555.885	3.11
556.079	3.07
556.272	3.02
556.466	2.97
556.659	2.91
556.852	2.92
557.046	2.83
557.239	2.78
557.432	2.77
557.626	2.76
557.819	2.77
558.012	2.7
558.206	2.71
558.399	2.6
558.592	2.59
558.785	2.48
558.979	2.51
559.172	2.5
559.365	2.46
559.558	2.42
559.751	2.34
559.944	2.4
560.138	2.3
560.331	2.35
560.524	2.31
560.717	2.27
560.91	2.23
561.103	2.19
561.296	2.14
561.489	2.15
561.682	2.11
561.875	2.13
562.068	2.11
562.261	2.03
562.454	2.06
562.647	1.96
562.84	1.98
563.032	1.93
563.225	1.9
563.418	1.89
563.611	1.9
563.804	1.86
563.997	1.76
564.19	1.73
564.382	1.77
564.575	1.72
564.768	1.73
564.961	1.67
565.153	1.71
565.346	1.66
565.539	1.72
565.731	1.64
565.924	1.68
566.117	1.63
566.309	1.55
566.502	1.52
566.695	1.51
566.887	1.55
567.08	1.47
567.272	1.51
567.465	1.44
567.657	1.43
567.85	1.43
568.042	1.4
568.235	1.41
568.427	1.32
568.62	1.35
568.812	1.36
569.005	1.32
569.197	1.29
569.389	1.3
569.582	1.29
569.774	1.27
569.966	1.21
570.159	1.19
570.351	1.19
570.543	1.17
570.736	1.14
570.928	1.07
571.12	1.14
571.312	1.13
571.505	1.09
571.697	1.14
571.889	1.08
572.081	1.08
572.273	1.03
572.465	1.13
572.658	1.04
572.85	1.05
573.042	1.01
573.234	1
573.426	1.03
573.618	0.95
573.81	0.98
574.002	1
574.194	0.98
574.386	0.89
574.578	0.84
574.77	0.89
574.962	0.89
575.154	0.85
575.346	0.88
575.538	0.84
575.729	0.82
575.921	0.84
576.113	0.82
576.305	0.84
576.497	0.81
576.689	0.79
576.88	0.77
577.072	0.81
577.264	0.76
577.456	0.79
577.647	0.68
577.839	0.78
578.031	0.78
578.223	0.7
578.414	0.69
578.606	0.75
578.798	0.71
578.989	0.69
579.181	0.72
579.372	0.72
579.564	0.69
579.755	0.68
579.947	0.66
580.139	0.67
580.33	0.57
580.522	0.63
580.713	0.57
580.905	0.62
581.096	0.63
581.287	0.62
581.479	0.62
581.67	0.61
581.862	0.61
582.053	0.56
582.244	0.52
582.436	0.56
582.627	0.56
582.818	0.56
583.01	0.52
583.201	0.54
583.392	0.55
583.583	0.54
583.775	0.49
583.966	0.49
584.157	0.53
584.348	0.5
584.54	0.46
584.731	0.51
584.922	0.49
585.113	0.47
585.304	0.48
585.495	0.52
585.686	0.5
585.877	0.51
586.068	0.48
586.259	0.45
586.45	0.47
586.641	0.41
586.832	0.41
587.023	0.44
587.214	0.43
587.405	0.44
587.596	0.39
587.787	0.49
587.978	0.44
588.169	0.4
588.36	0.36
588.551	0.41
588.742	0.4
588.932	0.44
589.123	0.38
589.314	0.42
589.505	0.41
589.696	0.38
589.886	0.36
590.077	0.31
590.268	0.36
590.458	0.35
590.649	0.32
590.84	0.4
591.03	0.33
591.221	0.34
591.412	0.32
591.602	0.37
591.793	0.37
591.984	0.31
592.174	0.29
592.365	0.42
592.555	0.35
592.746	0.33
592.936	0.35
593.127	0.34
593.317	0.35
593.508	0.29
593.698	0.3
593.889	0.33
594.079	0.29
594.269	0.3
594.46	0.29
594.65	0.31
594.84	0.31
595.031	0.29
595.221	0.28
595.411	0.24
595.602	0.32
595.792	0.28
595.982	0.27
596.172	0.36
596.363	0.3
596.553	0.3
596.743	0.29
596.933	0.26
597.123	0.32
597.314	0.24
597.504	0.26
597.694	0.31
597.884	0.26
598.074	0.24
598.264	0.23
598.454	0.26
598.644	0.25
598.834	0.24
599.024	0.19
599.214	0.24
599.404	0.3
599.594	0.25
599.784	0.2
599.974	0.27
600.164	0.28
600.354	0.21
600.544	0.18
600.734	0.25
600.924	0.29
601.114	0.2
601.303	0.24
601.493	0.23
601.683	0.22
601.873	0.25
602.063	0.15
602.252	0.23
602.442	0.14
602.632	0.18
602.821	0.19
603.011	0.24
603.201	0.21
603.39	0.2
603.58	0.19
603.77	0.24
603.959	0.21
604.149	0.22
604.339	0.22
604.528	0.24
604.718	0.22
604.907	0.22
605.097	0.19
605.286	0.19
605.476	0.23
605.665	0.22
605.855	0.19
606.044	0.23
606.234	0.22
606.423	0.15
606.612	0.18
606.802	0.21
606.991	0.23
607.181	0.18
607.37	0.12
607.559	0.19
607.749	0.14
607.938	0.16
608.127	0.17
608.316	0.16
608.506	0.19
608.695	0.18
608.884	0.17
609.073	0.17
609.263	0.18
609.452	0.22
609.641	0.21
609.83	0.14
610.019	0.18
610.208	0.12
610.397	0.18
610.586	0.19
610.775	0.12
610.965	0.16
611.154	0.15
611.343	0.19
611.532	0.14
611.721	0.14
611.91	0.13
612.099	0.17
612.287	0.15
612.476	0.16
612.665	0.18
612.854	0.13
613.043	0.21
613.232	0.16
613.421	0.12
613.61	0.18
613.798	0.16
613.987	0.18
614.176	0.17
614.365	0.18
614.554	0.14
614.742	0.18
614.931	0.14
615.12	0.19
615.309	0.13
615.497	0.15
615.686	0.14
615.875	0.12
616.063	0.15
616.252	0.13
616.44	0.14
616.629	0.14
616.818	0.17
617.006	0.18
617.195	0.15
617.383	0.16
617.572	0.13
617.76	0.14
617.949	0.12
618.137	0.16
618.326	0.2
618.514	0.13
618.703	0.1
618.891	0.18
619.079	0.09
619.268	0.18
619.456	0.11
619.644	0.18
619.833	0.18
620.021	0.11
620.209	0.08
620.398	0.14
620.586	0.13
620.774	0.17
620.962	0.09
621.151	0.19
621.339	0.14
621.527	0.11
621.715	0.12
621.903	0.11
622.092	0.11
622.28	0.15
622.468	0.15
622.656	0.12
622.844	0.13
623.032	0.13
623.22	0.09
623.408	0.17
623.596	0.12
623.784	0.18
623.972	0.09
624.16	0.14
624.348	0.21
624.536	0.12
624.724	0.08
624.912	0.22
625.1	0.17
625.288	0.11
625.476	0.12
625.664	0.17
625.851	0.09
626.039	0.16
626.227	0.13
626.415	0.11
626.603	0.07
626.79	0.13
626.978	0.12
627.166	0.14
627.354	0.13
627.541	0.06
627.729	0.1
627.917	0.15
628.104	0.17
628.292	0.13
628.48	0.14
628.667	0.15
628.855	0.14
629.042	0.12
629.23	0.13
629.418	0.13
629.605	0.12
629.793	0.11
629.98	0.09
630.168	0.1
630.355	0.1
630.543	0.11
630.73	0.07
630.917	0.14
631.105	0.18
631.292	0.1
631.48	0.13
631.667	0.22
631.854	0.14
632.042	0.13
632.229	0.09
632.416	0.12
632.604	0.1
632.791	0.09
632.978	0.12
633.165	0.16
633.353	0.16
633.54	0.15
633.727	0.07
633.914	0.09
634.101	0.07
634.289	0.17
634.476	0.11
634.663	0.06
634.85	0.14
635.037	0.11
635.224	0.07
635.411	0.13
635.598	0.16
635.785	0.09
635.972	0.11
636.159	0.21
636.346	0.07
636.533	0.15
636.72	0.1
636.907	0.12
637.094	0.12
637.281	0.11
637.468	0.12
637.655	0.09
637.842	0.11
638.029	0.08
638.215	0.14
638.402	0.15
638.589	0.08
638.776	0.08
638.963	0.11
639.149	0.15
639.336	0.17
639.523	0.09
639.709	0.12
639.896	0.12
640.083	0.16
640.27	0.12
640.456	0.13
640.643	0.13
640.829	0.06
641.016	0.07
641.203	0.07
641.389	0.12
641.576	0.12
641.762	0.12
641.949	0.07
642.135	0.12
642.322	0.13
642.508	0.07
642.695	0.1
642.881	0.08
643.068	0.07
643.254	0.11
643.441	0.16
643.627	0.12
643.813	0.04
644	0.15
644.186	0.08
644.372	0.05
644.559	0.15
644.745	0.09
644.931	0.11
645.118	0.12
645.304	0.11
645.49	0.09
645.676	0.1
645.862	0.12
646.049	0.15
646.235	0.12
646.421	0.18
646.607	0.17
646.793	0.09
646.979	0.09
647.165	0.12
647.352	0.15
647.538	0.17
647.724	0.11
647.91	0.12
648.096	0.16
648.282	0.18
648.468	0.11
648.654	0.11
648.84	0.1
649.026	0.13
649.212	0.11
649.397	0.06
649.583	0.08
649.769	0.13
649.955	0.12
650.141	0.12
650.327	0.16
650.513	0.07
650.698	0.13
650.884	0.05
651.07	0.14
651.256	0.13
651.442	0.12
651.627	0.12
651.813	0.15
651.999	0.1
652.184	0.15
652.37	0.1
652.556	0.08
652.741	0.14
652.927	0.07
653.113	0.09
653.298	0.12
653.484	0.09
653.669	0.07
653.855	0.09
654.04	0.13
654.226	0.12
654.412	0.12
654.597	0.07
654.782	0.14
654.968	0.15
655.153	0.09
655.339	0.11
655.524	0.09
655.71	0.14
655.895	0.1
656.08	0.12
656.266	0.15
656.451	0.12
656.636	0.06
656.822	0.09
657.007	0.12
657.192	0.09
657.378	0.07
657.563	0.12
657.748	0.13
657.933	0.12
658.118	0.09
658.304	0.08
658.489	0.11
658.674	0.1
658.859	0.08
659.044	0.16
659.229	0.13
659.414	0.1
659.599	0.11
659.785	0.04
659.97	0.08
660.155	0.13
660.34	0.14
660.525	0.09
660.71	0.1
660.895	0.13
661.08	0.12
661.264	0.09
661.449	0.15
661.634	0.18
661.819	0.12
662.004	0.13
662.189	0.03
662.374	0.08
662.559	0.09
662.743	0.04
662.928	0.08
663.113	0.09
663.298	0.1
663.483	0.08
663.667	0.14
663.852	0.07
664.037	0.17
664.221	0.09
664.406	0.15
664.591	0.11
664.775	0.12
664.96	0.14
665.145	0.16
665.329	0.14
665.514	0.1
665.698	0.11
665.883	0.02
666.068	0.19
666.252	0.09
666.437	0.12
666.621	0.11
666.806	0.16
666.99	0.14
667.174	0.07
667.359	0.19
667.543	0.1
667.728	0.12
667.912	0.05
668.096	0.13
668.281	0.12
668.465	0.13
668.649	0.11
668.834	0.12
669.018	0.14
669.202	0.12
669.387	0.1
669.571	0.2
669.755	0.12
669.939	0.15
670.124	0.13
670.308	0.16
670.492	0.14
670.676	0.12
670.86	0.13
671.044	0.09
671.228	0.18
671.413	0.12
671.597	0.12
671.781	0.12
671.965	0.16
672.149	0.14
672.333	0.17
672.517	0.12
672.701	0.13
672.885	0.11
673.069	0.07
673.253	0.19
673.437	0.1
673.621	0.14
673.804	0.16
673.988	0.13
674.172	0.16
674.356	0.08
674.54	0.19
674.724	0.25
674.908	0.15
675.091	0.17
675.275	0.15
675.459	0.16
675.643	0.18
675.826	0.15
676.01	0.14
676.194	0.12
676.377	0.16
676.561	0.18
676.745	0.17
676.928	0.14
677.112	0.17
677.296	0.11
677.479	0.13
677.663	0.13
677.846	0.18
678.03	0.16
678.213	0.14
678.397	0.16
678.58	0.1
678.764	0.18
678.947	0.12
679.131	0.1
679.314	0.2
679.498	0.11
679.681	0.17
679.865	0.18
680.048	0.18
680.231	0.14
680.415	0.11
680.598	0.14
680.781	0.13
680.965	0.11
681.148	0.16
681.331	0.14
681.514	0.18
681.698	0.12
681.881	0.16
682.064	0.13
682.247	0.14
682.43	0.04
682.614	0.24
682.797	0.21
682.98	0.17
683.163	0.1
683.346	0.19
683.529	0.11
683.712	0.13
683.895	0.14
684.078	0.08
684.261	0.11
684.444	0.19
684.627	0.15
684.81	0.12
684.993	0.15
685.176	0.17
685.359	0.1
685.542	0.11
685.725	0.22
685.908	0.15
686.091	0.13
686.274	0.15
686.457	0.17
686.639	0.11
686.822	0.17
687.005	0.14
687.188	0.15
687.371	0.26
687.553	0.17
687.736	0.17
687.919	0.2
688.102	0.21
688.284	0.15
688.467	0.15
688.65	0.11
688.832	0.1
689.015	0.13
689.197	0.08
689.38	0.21
689.563	0.24
689.745	0.11
689.928	0.1
690.11	0.13
690.293	0.17
690.475	0.1
690.658	0.16
690.84	0.09
691.023	0.07
691.205	0.11
691.388	0.11
691.57	0.24
691.752	0.17
691.935	0.1
692.117	0.09
692.3	0.15
692.482	0.15
692.664	0.13
692.847	0.17
693.029	0.19
693.211	0.17
693.393	0.15
693.576	0.13
693.758	0.12
693.94	0.17
694.122	0.13
694.304	0.15
694.487	0.12
694.669	0.16
694.851	0.08
695.033	0.12
695.215	0.11
695.397	0.06
695.579	0.17
695.761	0.08
695.943	0.03
696.125	0.16
696.308	0.15
696.49	0.01
696.671	0.24
696.853	0.14
697.035	0.27
697.217	0.12
697.399	0.14
697.581	0.11
697.763	0.21
697.945	0.1
698.127	0.17
698.309	0.2
698.491	0.14
698.672	0.17
698.854	0.15
699.036	0.21
699.218	0.08
699.399	0.21
699.581	0.17
699.763	0.07
699.945	0.1
700.126	0.11
700.308	0.18
700.49	0.14
700.671	0.11
700.853	0.12
701.035	0.14
701.216	0.2
701.398	0.08
701.579	0.09
701.761	0.16
701.943	0.06
702.124	0.1
702.306	0.21
702.487	0.23
702.669	0.18
702.85	0.08
703.031	0.08
703.213	0.28
703.394	0.22
703.576	0.12
703.757	0.19
703.938	0.23
704.12	0.28
704.301	0.12
704.483	0.09
704.664	0.16
704.845	0.19
705.026	0.2
705.208	0.15
705.389	0.17
705.57	0.12
705.751	0.12
705.933	0.13
706.114	0.23
706.295	0.15
706.476	0.13
706.657	0.24
706.838	0.19
707.02	0.21
707.201	0.15
707.382	0.12
707.563	0.16
707.744	0.15
707.925	0.12
708.106	0.05
708.287	0.23
708.468	0.24
708.649	0.17
708.83	0.21
709.011	0.08
709.192	0.14
709.373	0.05
709.554	0.13
709.734	0.21
709.915	0.2
710.096	0.1
710.277	0.05
710.458	0.21
710.639	0.2
710.819	-0
711	0.14
711.181	0.22
711.362	0.21
711.542	0.2
711.723	0.11
711.904	0.2
712.085	0.2
712.265	0.2
712.446	0.1
712.627	0.17
712.807	0.09
712.988	0.14
713.168	0.12
713.349	0.21
713.53	0.03
713.71	0.03
713.891	0.05
714.071	0.15
714.252	0.03
714.432	0.1
714.613	0.04
714.793	0.16
714.974	0.21
715.154	0.24
715.334	0.2
715.515	0.32
715.695	0.1
715.876	0.16
716.056	0.13
716.236	0.09
716.417	0.14
716.597	0.07
716.777	0.25
716.957	0.13
717.138	0.12
717.318	0.18
717.498	0.1
717.678	0.16
717.859	0.15
718.039	0.06
718.219	0.16
718.399	0.21
718.579	0.08
718.759	0.06
718.939	0.16
719.12	0.14
719.3	0.2
719.48	0.02
719.66	0.02
719.84	0.21
720.02	0.09
720.2	0.14
720.38	0.22
720.56	0.24
720.74	0.13
720.92	0.16
721.1	0.24
721.279	0.26
721.459	0.2
721.639	0.11
721.819	0.14
721.999	0.08
722.179	0.19
722.359	0.09
722.538	0.17
722.718	0.16
722.898	0.16
723.078	0.15
723.257	0.1
723.437	0.19
723.617	0.17
723.797	0.11
723.976	0.1
724.156	0.2
724.336	0.2
724.515	0.28
724.695	0.03
724.874	0.15
725.054	0.27
725.234	0.12
725.413	0.19
725.593	0.21
725.772	0.16
725.952	0.17
726.131	0.12
726.311	0.16
726.49	0.1
726.67	0.12
726.849	0.09
727.028	0.2
727.208	0.09
727.387	0.17
727.567	0.06
727.746	0.14
727.925	0.12
728.105	0.12
728.284	0.09
728.463	0.15
728.643	0.18
728.822	0.06
729.001	0.09
729.18	0.14
729.359	0.26
729.539	0.2
729.718	0.24
729.897	0.27
730.076	0.08
730.255	0.06
730.434	0.21
730.614	0.18
730.793	0.21
730.972	0.15
731.151	0.14
731.33	0.26
731.509	0.21
731.688	0.13
731.867	0.16
732.046	0.02
732.225	0.33
732.404	0.16
732.583	0.03
732.762	0.14
732.941	0.23
733.12	0.13
733.298	0.15
733.477	0.27
733.656	0.14
733.835	0.08
734.014	0.23
734.193	0.14
734.371	0.17
734.55	0.2
734.729	0.07
734.908	0.2
735.086	0.16
735.265	0.25
735.444	0.07
735.623	0.06
735.801	0.01
735.98	0.17
736.159	0.11
736.337	0.29
736.516	0.21
736.694	0.16
736.873	0.06
737.052	0.32
737.23	0.2
737.409	0.08
737.587	0.28
737.766	-0.04
737.944	0.1
738.123	0.25
738.301	0.29
738.479	0.22
738.658	0.2
738.836	0.06
739.015	0.16
739.193	0.32
739.371	0.05
739.55	0.11
739.728	0.09
739.906	0.2
740.085	0.41
740.263	0.12
740.441	-0.06
740.62	0.39
740.798	0.25
740.976	0.09
741.154	0.05
741.332	0.28
741.511	0.14
741.689	0.23
741.867	0.25
742.045	0.19
742.223	0.18
742.401	-0.03
742.579	0.13
742.757	0.2
742.935	0.04
743.114	0.14
743.292	0.17
743.47	0.19
743.648	0.19
743.826	0.21
744.004	0.19
744.181	0.25
744.359	0.14
744.537	0.27
744.715	0.18
744.893	0.19
745.071	0.25
745.249	0.18
745.427	0.16
745.605	0.23
745.782	0.09
745.96	0.16
746.138	0.15
746.316	0.3
746.493	0.09
746.671	0.11
746.849	0.07
747.027	0.31
747.204	0.04
747.382	0.38
747.56	0.12
747.737	0.28
747.915	0.1
748.093	0.21
748.27	0.09
748.448	0.06
748.625	0.03
748.803	0.17
748.98	0.21
749.158	0.17
749.335	0.23
749.513	0.04
749.69	0.14
749.868	0.14
750.045	0.18
750.223	0.17
750.4	-0.01
750.578	0.35
750.755	0.08
750.932	0.01
751.11	0.36
751.287	0.06
751.464	0.34
751.642	0.09
751.819	0.22
751.996	0.11
752.173	0.06
752.351	0.09
752.528	0.18
752.705	0.22
752.882	0.13
753.06	0.11
753.237	0.2
753.414	0.33
753.591	0.3
753.768	0.15
753.945	0.05
754.122	0.07
754.299	0.22
754.476	0.09
754.654	0.15
754.831	0.14
755.008	0.32
755.185	0.09
755.362	0.08
755.539	0.24
755.716	0.02
755.892	0.08
756.069	0.16
756.246	0.26
756.423	0.17
756.6	0.45
756.777	0.1
756.954	0.19
757.131	0.18
757.307	0.05
757.484	0.06
757.661	0.17
757.838	0.14
758.015	0.08
758.191	0.3
758.368	0.32
758.545	0.33
758.721	0.2
758.898	0.02
759.075	0.22
759.251	0.24
759.428	0.19
759.605	-0.04
759.781	0.06
759.958	0.21
760.134	0.22
760.311	0.18
760.488	0.39
760.664	0.29
760.841	0.16
761.017	0.13
761.194	0.23
761.37	0.23
761.547	0.29
761.723	-0.03
761.899	0.42
762.076	0.13
762.252	0.12
762.429	0.21
762.605	0.16
762.781	0.13
762.958	0.29
763.134	0.06
763.31	0.05
763.486	0.34
763.663	0.16
763.839	0.12
764.015	-0.08
764.191	-0.05
764.368	0.12
764.544	0.11
764.72	0.17
764.896	0.23
765.072	0.23
765.248	0.17
765.425	0.02
765.601	0.13
765.777	0.12
765.953	-0.17
766.129	-0.01
766.305	0.17
766.481	0.31
766.657	0.25
766.833	0.35
767.009	0
767.185	0.15
767.361	0.13
767.537	0.02
767.713	0.23
767.889	0.05
768.065	0.2
768.24	0.24
768.416	0.31
768.592	0.05
768.768	0.14
768.944	0.24
769.12	0.1
769.295	0.09
769.471	0.07
769.647	0.15
769.823	0.28
769.998	0.14
770.174	0.03
770.35	0.37
770.525	0.36
770.701	0.24
770.877	0.12
771.052	0.15
771.228	0.31
771.403	0.2
771.579	0.25
771.755	0.37
771.93	0.27
772.106	0
772.281	0.03
772.457	0.22
772.632	0.05
772.808	0
772.983	0.02
773.159	0.08
773.334	0.28
773.509	0.16
773.685	0.08
773.86	0.52
774.036	0.37
774.211	0.15
774.386	0.25
774.562	0.19
774.737	0.09
774.912	0.06
775.087	0.16
775.263	0.19
775.438	0.24
775.613	0.23
775.788	0.2
775.964	0.37
776.139	0.55
776.314	0.04
776.489	0.2
776.664	0.29
776.839	0.11
777.014	0.41
777.19	0.12
777.365	0.47
777.54	0.45
777.715	0.14
777.89	0.14
778.065	0.07
778.24	0.19
778.415	0.34
778.59	0.08
778.765	0.28
778.94	0.33
779.115	0.25
779.289	0.11
779.464	0.07
779.639	0.1
779.814	0.06
779.989	0.02
780.164	0.5
780.339	0.27
780.513	0.17
780.688	-0.03
780.863	0.1
781.038	0.43
781.212	0.02
781.387	0.18
781.562	0.47
781.737	0.21
781.911	0.15
782.086	-0.02
782.261	0.1
782.435	0.3
782.61	0.03
782.784	0.45
782.959	0.47
783.134	0.14
783.308	0.04
783.483	0.03
783.657	0.53
783.832	0.29
784.006	-0.13
784.181	0.29
784.355	0.57
784.53	0.19
784.704	0.15
784.878	0.51
785.053	0.37
785.227	0.32
785.402	0.49
785.576	-0.03
785.75	0.26
785.925	0.31
786.099	0.15
786.273	0.22
786.448	0.16
786.622	0.52
786.796	-0.08
786.97	0.03
787.145	0.53
787.319	-0.18
787.493	-0.03
787.667	0.03
787.841	0.18
788.015	0.41
788.19	0.2
788.364	0.17
788.538	0.46
788.712	0.39
788.886	0.23
789.06	0.38
789.234	0.49
789.408	0.07
789.582	0.12
789.756	0.15
789.93	0.04
790.104	-0.01
790.278	0.09
790.452	-0.03
790.626	0.43
790.8	0.15
790.973	0.44
791.147	0.34
791.321	0.5
791.495	0.34
791.669	0.46
791.843	0.36
792.016	0.34
792.19	0.5
792.364	0.13
792.538	0.74
792.711	0.61
792.885	0.08
793.059	0.11
793.233	-0.33
793.406	0.37
793.58	0.08
793.754	0.33
793.927	0.26
794.101	0.24
794.274	-0.02
794.448	0.67
794.622	0.01
794.795	0.45
794.969	-0.07
795.142	0.6
795.316	0.21
795.489	-0.03
795.663	0.69
795.836	0.34
796.009	0.21
796.183	0.45
796.356	0.35
796.53	0.37
796.703	0.28
796.876	0.76
797.05	0.23
797.223	0.08
797.396	0.38
797.57	0.35
797.743	0.66
797.916	0.19
798.09	0.27
798.263	0.5
798.436	0.22
798.609	-0.2
798.782	0.26
798.956	0.21
799.129	0.42
799.302	0.29
799.475	0.04
799.648	0.09
799.821	-0.3
799.994	0.16
800.167	-0.05
800.34	0.37
800.514	0.39
800.687	0.16
800.86	-0.06
801.033	0.09
801.206	0.37
801.379	0.04
801.551	0.7
801.724	0.43
801.897	0.76
802.07	0.2
802.243	-0.11
802.416	0.42
802.589	0.12
802.762	0.61
802.935	0.27
803.107	0.29
803.28	0.28
803.453	0.38
803.626	0.11
803.798	0.56
803.971	0.07
804.144	0.43
804.317	0.38
804.489	0.66
804.662	-0.03
804.835	0.38
805.007	0.13
805.18	0.55
805.353	-0.05
805.525	0.07
805.698	-0.03
805.87	0.45
806.043	0.71
806.215	0.09
806.388	0.18
806.56	0.4
806.733	0.81
806.905	0.15
807.078	0.25
807.25	-0.21
807.423	0.54
807.595	0.29
807.768	0.24
807.94	0.51
808.112	0.16
808.285	-0.08
808.457	0.34
808.629	0.36
808.802	0.34
808.974	0.55
809.146	0.12
809.318	0.16
809.491	0.21
809.663	0.37
809.835	0.06
810.007	0.4
810.18	0.16
810.352	-0.19
810.524	-0.07
810.696	0.45
810.868	0.69
811.04	0.2
811.212	0.18
811.384	0.64
811.556	0.18
811.728	0.2
811.901	0.76
812.073	0
812.245	0.51
812.417	0.61
812.589	-0.2
812.76	0.06
812.932	0.51
813.104	0.77
813.276	0.07
813.448	0.82
813.62	0.54
813.792	0.53
813.964	0.58
814.136	0.48
814.307	0.35
814.479	-0.21
814.651	0.04
814.823	1.47
814.995	0.19
815.166	0.36
815.338	-0.06
815.51	0.11
815.681	1.16
815.853	0.24
816.025	0.39
816.196	0.83
816.368	0.75
816.54	-0.1
816.711	0.36
816.883	0.54
817.054	0.99
817.226	-0.32
817.398	0.27
817.569	0.39
817.741	0.18
817.912	0.47
818.084	0.34
818.255	0.47
818.426	0.13
818.598	0.44
818.769	0.31
818.941	0.48
819.112	0.83
819.283	-0.02
819.455	0.39
819.626	0.6
819.798	0.42
819.969	0.21
820.14	0.3
820.311	0.18
820.483	0.47
820.654	0.69
820.825	0.44
820.996	0.12
821.168	0.05
821.339	0.28
821.51	-0.16
821.681	0.09
821.852	0.32
822.023	-0.16
822.195	-0.69
822.366	0.99
822.537	-0.05
822.708	0.64
822.879	0.05
823.05	0.87
823.221	0.17
823.392	0.64
823.563	0.27
823.734	0.67
823.905	0.47
824.076	0.06
824.247	-0.11
824.418	-0.1
824.589	0.71
824.759	0.55
824.93	0.54
825.101	0.02
825.272	0.58
825.443	1.06
825.614	1.03
825.784	0.06
825.955	0.9
826.126	0.9
826.297	0.49
826.467	0.72
826.638	1.11
826.809	-0.57
826.98	0.75
827.15	0.24
827.321	0.78
827.492	1.02
827.662	0.16
827.833	1.09
828.003	0.86
828.174	-0.01
828.345	-0.28
828.515	1.07
828.686	0.75
828.856	-0.39
829.027	0.19
829.197	0.71
829.368	0.9
829.538	0.34
829.709	0.38
829.879	0.49
830.049	0.12
830.22	0.37
830.39	0.58
830.56	1.09
830.731	-0.47
830.901	0.3
831.072	0.83
831.242	0.53
831.412	0.78
831.582	0.74
831.753	0.12
831.923	0.67
832.093	1
832.263	-0.42
832.434	0.21
832.604	0.05
832.774	0.99
832.944	0.14
833.114	0.61
833.284	0.66
833.454	0.25
833.624	-0.22
833.795	0.4
833.965	0.95
834.135	0.99
834.305	-0.69
834.475	-0.49
834.645	0.67
834.815	-0.48
834.985	0.32
835.155	0.11
835.325	0.48
835.494	0.93
835.664	-0.06
835.834	-0.32
836.004	1.05
836.174	0.32
836.344	0.24
836.514	-0.7
836.684	0.25
836.853	0.39
837.023	0.54
837.193	0.03
837.363	0.99
837.532	1.13
837.702	0.44
837.872	-0.22
838.041	1.26
838.211	1.43
838.381	-0.03
838.55	0.49
838.72	2.77
838.89	1.56
839.059	-0.25
839.229	0.01
839.398	2.32
839.568	0.03
839.738	-0.22
839.907	1.49
840.077	0.38
840.246	0.11
840.416	-0.06
840.585	-0.04
840.755	2.2
840.924	1.07
841.093	-0.07
841.263	0.25
841.432	0.18
841.602	-0.08
841.771	0.43
841.94	0.61
842.11	2.18
842.279	2.34
842.448	0.39
842.617	-0.5
842.787	1.87
842.956	-0.59
843.125	-0.07
843.294	0.54
843.464	1.49
843.633	0.59
843.802	-0.84
843.971	0.65
844.14	0.96
844.309	1.2
844.479	0.51
844.648	0.21
844.817	0.37
844.986	0.91
845.155	-0.11
845.324	0.13
845.493	0.5
845.662	-0.57
845.831	1.24
846	1.49
846.169	0.25
846.338	2.15
846.507	1.38
846.676	0.92
846.844	-0.07
847.013	1.18
847.182	0.2
847.351	0.29
847.52	0.2
847.689	0.99
847.858	0.44
848.026	-0.94
848.195	0.42
848.364	0.67
848.533	0.7
848.701	0.13
848.87	1.78
849.039	2.05
849.207	1.47
849.376	1.79
849.545	0.87
849.713	1.39
849.882	0.53
850.051	0.42
850.219	1.45
850.388	1.23
850.556	0.1
850.725	1.06
850.893	0.76
851.062	0.4
851.23	1.35
851.399	-0.88
851.567	1.13
851.736	0.01
851.904	-0.13
852.073	1.19
852.241	1.12
852.41	0.93
852.578	0.82
852.746	0.16
852.915	1.69
853.083	1.74
853.251	-0.7
853.42	0.54
853.588	0.55
853.756	1.56
853.924	-0.08
854.093	0.52
854.261	0.1
854.429	-0.08
854.597	1.25
854.765	-0.6
854.934	3.01
855.102	1.43
855.27	-0.1
855.438	0.89
855.606	1.61
855.774	2.11
855.942	-1.52
856.11	-0.06
856.278	0.34
856.446	0.69
856.614	0.43
856.782	0.37
856.95	3.03
857.118	1.39
857.286	0.55
857.454	-0.21
857.622	2.28
857.79	0.76
857.958	0.61
858.126	0.82
858.294	-1.71
858.462	1.79
858.629	0.42
858.797	-0.87
858.965	0.8
859.133	0.84
859.301	-0.55
859.468	0.82
859.636	0.37
859.804	2.75
859.971	1.43
860.139	0.06
860.307	2.19
860.474	0.82
860.642	0.43
860.81	-0.2
860.977	0.89
861.145	1.5
861.313	0.45
861.48	1.02
861.648	2.52
861.815	0.51
861.983	-0.49
862.15	0.43
862.318	1.8
862.485	2.14
862.653	1.23
862.82	-0.3
862.988	2.34
863.155	0.6
863.322	0.24
863.49	-0.11
863.657	0.04
863.824	2.26
863.992	2.73
864.159	-0.04
864.326	1.16
864.494	-0.43
864.661	3.33
864.828	-0.08
864.996	2.24
865.163	3.7
865.33	0.51
865.497	-1.43
865.664	0.25
865.832	-1.95
865.999	-0.06
866.166	-0.18
866.333	1.49
866.5	-1.03
866.667	-0.58
866.834	0.56
867.001	0.94
867.168	-0.98
867.335	0.86
867.502	-1.24
867.669	0.59
867.836	4.03
868.003	0.77
868.17	2.37
868.337	0.21
868.504	3.73
868.671	-0.5
868.838	0.41
869.005	1.27
869.172	0.87
869.339	1.9
869.505	1.15
869.672	1.55
869.839	3.23
870.006	1.34
870.173	-0.96
870.339	0.55
870.506	4.06
870.673	0.57
870.84	2.19
871.006	1.86
871.173	1.42
871.34	1.82
871.506	1.12
871.673	0.68
871.839	-0.54
872.006	1.41
872.173	0.76
872.339	-0.53
872.506	1.51
872.672	0.3
872.839	-1.05
873.005	1.7
873.172	4.99
873.338	2.64
873.505	0.6
873.671	1.18
873.838	2.36
874.004	-1.46
874.171	-1.09
874.337	2.55
874.503	2.61
874.67	0.04
874.836	-0.22
875.002	2.78
875.169	1.62
875.335	1.31
875.501	-0.16
875.668	1.23
875.834	1.53
876	-0.83
876.166	1.81
876.332	2.69
876.499	5
876.665	0.42
876.831	0.49
876.997	4.82
877.163	2.98
877.329	1.15
877.495	0.68
877.662	0.66
877.828	2.49
877.994	1.25
878.16	-3.36
878.326	-0.18
878.492	2.7
878.658	0.5
878.824	1.06
878.99	2.16
879.156	0.11
879.322	3.79
879.487	1.18
879.653	0.9
879.819	1.18
879.985	0.11
880.151	1.61
880.317	2.69
880.483	2.22
880.648	0.71
880.814	-1.21
880.98	2.55
881.146	-0.67
881.312	0.26
881.477	0.62
881.643	2.13
881.809	2.52
881.974	2.48
882.14	-1.88
882.306	2.5
882.471	2.21
882.637	-0.19
882.803	1.48
882.968	4.23
883.134	4.17
883.299	2.47
883.465	1.12
883.63	2.93
883.796	0.56
883.961	2.92
884.127	4.11
884.292	-4.45
884.458	-0.79
884.623	-0.79
