Data from Apollo_Calib_20240827__AbsoluteIrradiance__124__01-13-03-184.txt Node

Date: Wed Aug 28 01:13:03 BST 2024
User: biology
Spectrometer: FLMT08252
Trigger mode: 0
Integration Time (sec): 5.000000E-1
Scans to average: 5
Electric dark correction enabled: true
Nonlinearity correction enabled: false
Boxcar width: 0
XAxis mode: Wavelengths
Number of Pixels in Spectrum: 3648
>>>>>Begin Spectral Data<<<<<
179.588	-0
179.809	-0
180.03	-0
180.251	-0
180.473	-0
180.694	0
180.915	0
181.136	-0
181.357	0
181.578	0
181.799	-0
182.02	-0
182.241	0
182.462	-0
182.683	0
182.904	-0
183.125	-0
183.346	0
183.567	0
183.788	0
184.009	-0
184.23	0
184.451	0
184.672	-0
184.892	-0
185.113	0
185.334	-0
185.555	-0
185.776	-0
185.996	0
186.217	0
186.438	0
186.659	-0
186.879	0
187.1	-0
187.321	-0
187.541	-0
187.762	0
187.983	-0
188.203	-0
188.424	-0
188.644	0
188.865	-0
189.086	0
189.306	-0
189.527	0
189.747	-0
189.968	-0
190.188	0
190.409	-0
190.629	0
190.849	-0
191.07	-0
191.29	0
191.511	0
191.731	-0
191.951	-0
192.172	-0
192.392	-0
192.612	-0
192.833	-0
193.053	0
193.273	0
193.493	0
193.714	-0
193.934	0
194.154	0
194.374	0
194.594	0
194.815	0
195.035	0
195.255	0
195.475	-0
195.695	0
195.915	0
196.135	0
196.355	0
196.575	0
196.795	-0
197.015	-0
197.235	-0
197.455	-0
197.675	0
197.895	-0
198.115	-0
198.335	0
198.555	-0
198.775	0
198.995	0
199.214	0
199.434	0
199.654	-0
199.874	-0
200.094	0.66
200.313	-0.66
200.533	-0.45
200.753	-0.91
200.973	0.56
201.192	0.54
201.412	-1.08
201.632	-0.42
201.851	0.99
202.071	-0.41
202.291	-0.06
202.51	-0.39
202.73	0.34
202.95	-0.3
203.169	-0.92
203.389	-0.11
203.608	0.04
203.828	-0.66
204.047	-0.27
204.267	0.39
204.486	-0.11
204.706	-0.01
204.925	-0.24
205.145	-0.31
205.364	0.29
205.583	0.65
205.803	0.05
206.022	-0.07
206.242	0.02
206.461	-0.14
206.68	-0.37
206.9	0.16
207.119	0.52
207.338	0.64
207.557	-0.03
207.777	-0.24
207.996	0.14
208.215	0.33
208.434	-0.17
208.654	-0.61
208.873	0.33
209.092	0.34
209.311	-0.37
209.53	-0.04
209.749	-0.23
209.968	0.03
210.187	0.03
210.407	-0.63
210.626	-0.04
210.845	0.27
211.064	0.11
211.283	-0.11
211.502	0.34
211.721	-0.18
211.94	-0.33
212.159	0.2
212.377	0.12
212.596	0.39
212.815	-0.04
213.034	-0.02
213.253	0.09
213.472	0.24
213.691	-0.05
213.91	-0.23
214.128	0.1
214.347	0.4
214.566	-0.5
214.785	-0.14
215.003	0.19
215.222	0.21
215.441	0
215.66	-0.31
215.878	-0.01
216.097	0.29
216.316	-0.23
216.534	-0.08
216.753	-0.24
216.972	-0.07
217.19	0.03
217.409	-0.16
217.627	-0.1
217.846	-0.09
218.064	0.08
218.283	-0.3
218.501	0.32
218.72	0.24
218.938	-0.26
219.157	-0.14
219.375	0.19
219.594	-0.11
219.812	-0.09
220.031	-0.16
220.249	0.23
220.467	0.22
220.686	-0.11
220.904	-0.13
221.122	-0.19
221.341	0.33
221.559	0.12
221.777	-0.12
221.995	0.04
222.214	0.1
222.432	-0.12
222.65	0.1
222.868	0.12
223.086	0.06
223.305	0.14
223.523	-0.06
223.741	0.21
223.959	-0.2
224.177	-0.24
224.395	-0.05
224.613	-0.04
224.831	0.21
225.049	-0.11
225.267	-0.07
225.485	0.01
225.703	-0.03
225.921	0.06
226.139	-0.04
226.357	0.04
226.575	-0.12
226.793	-0.16
227.011	0.4
227.229	0.02
227.447	0.13
227.665	-0.12
227.883	-0.27
228.1	-0.07
228.318	0.11
228.536	-0.19
228.754	-0.23
228.972	-0.07
229.189	0.1
229.407	-0.22
229.625	0.02
229.843	0.1
230.06	0.14
230.278	-0.08
230.496	0.01
230.713	0.03
230.931	0.2
231.149	-0.08
231.366	-0.22
231.584	-0.1
231.801	0.36
232.019	-0.05
232.236	-0.23
232.454	-0.09
232.671	-0.01
232.889	-0.04
233.106	-0.08
233.324	0.01
233.541	-0.03
233.759	0.03
233.976	0.02
234.194	0.01
234.411	0.05
234.628	-0.11
234.846	-0.04
235.063	0.08
235.28	0.03
235.498	-0.03
235.715	-0.14
235.932	0.17
236.149	-0.05
236.367	-0.15
236.584	-0.04
236.801	-0.09
237.018	0.05
237.236	0.03
237.453	-0.09
237.67	0.11
237.887	-0.08
238.104	-0
238.321	-0.04
238.538	-0.16
238.755	0.11
238.973	-0.16
239.19	0.01
239.407	0.05
239.624	-0
239.841	-0.17
240.058	-0.13
240.275	0.08
240.492	-0.07
240.709	-0.11
240.925	-0.05
241.142	0.1
241.359	-0.12
241.576	-0.12
241.793	-0.08
242.01	-0.02
242.227	0.11
242.444	0.06
242.66	0.04
242.877	0.06
243.094	-0.09
243.311	0.03
243.527	-0.06
243.744	0.05
243.961	0.12
244.178	-0.09
244.394	-0.05
244.611	0.09
244.828	0.19
245.044	-0.11
245.261	-0.01
245.477	0.08
245.694	0.07
245.911	0.07
246.127	0.04
246.344	0.14
246.56	0.07
246.777	-0
246.993	0.06
247.21	0.05
247.426	0.14
247.643	-0.01
247.859	-0.07
248.076	0.05
248.292	0.17
248.508	-0.05
248.725	0.05
248.941	0.07
249.157	0.16
249.374	-0.1
249.59	-0.06
249.806	0.01
250.023	0.02
250.239	-0.02
250.455	-0.04
250.671	0.09
250.888	0.03
251.104	0.05
251.32	0.02
251.536	0.01
251.752	-0.1
251.969	0.06
252.185	0.02
252.401	0.13
252.617	0.03
252.833	-0.05
253.049	-0.01
253.265	0.06
253.481	-0
253.697	0.03
253.913	-0.07
254.129	0.06
254.345	0
254.561	-0
254.777	-0.02
254.993	0.04
255.209	-0.04
255.425	-0.01
255.641	-0.09
255.857	0.13
256.073	0.02
256.288	-0.05
256.504	-0.05
256.72	0.07
256.936	0.14
257.152	0.07
257.367	-0.1
257.583	-0.04
257.799	0.06
258.015	-0.04
258.23	0.02
258.446	0.09
258.662	-0.02
258.877	-0.05
259.093	-0.02
259.309	0.01
259.524	0.04
259.74	-0.05
259.955	-0.1
260.171	0
260.387	-0
260.602	0.1
260.818	0.03
261.033	-0.07
261.249	-0.07
261.464	-0.03
261.68	-0.04
261.895	0.03
262.11	0.07
262.326	-0.04
262.541	-0.07
262.757	0.03
262.972	-0.01
263.187	0.02
263.403	-0.02
263.618	0.06
263.833	-0.02
264.049	-0.06
264.264	0.03
264.479	0.06
264.694	0.07
264.91	-0.06
265.125	-0.05
265.34	0.06
265.555	0.13
265.77	0.02
265.986	0.02
266.201	0.02
266.416	0.05
266.631	-0.04
266.846	-0.07
267.061	0.02
267.276	0.04
267.491	-0.14
267.706	-0.02
267.921	0.05
268.136	0.01
268.351	-0.02
268.566	-0.08
268.781	0.03
268.996	0.12
269.211	0.01
269.426	-0.05
269.641	-0.03
269.856	0.12
270.071	-0.05
270.285	-0.02
270.5	0.11
270.715	0.11
270.93	-0.06
271.145	0.02
271.359	0.01
271.574	-0.05
271.789	0.01
272.004	-0.05
272.218	-0.01
272.433	0.07
272.648	-0.03
272.862	0.02
273.077	-0.05
273.292	-0.01
273.506	-0.02
273.721	-0.03
273.936	0.03
274.15	0.1
274.365	-0.01
274.579	0.02
274.794	0.05
275.008	0.12
275.223	-0.07
275.437	0.05
275.652	0.04
275.866	0.03
276.081	-0.03
276.295	0.03
276.509	0
276.724	0.03
276.938	0.04
277.153	0.04
277.367	0.04
277.581	-0.04
277.796	-0.07
278.01	-0.03
278.224	0.07
278.438	0.1
278.653	-0.06
278.867	-0
279.081	-0.17
279.295	-0.02
279.51	0.04
279.724	-0.11
279.938	0.04
280.152	0
280.366	-0.04
280.58	0.06
280.794	0.04
281.008	-0.04
281.222	0.07
281.437	0.12
281.651	-0.07
281.865	0.08
282.079	-0.02
282.293	-0.09
282.507	-0.07
282.721	0.01
282.935	0.06
283.148	-0.06
283.362	-0.01
283.576	-0.08
283.79	0.02
284.004	-0.05
284.218	0.07
284.432	-0.01
284.646	-0.02
284.859	-0.07
285.073	-0
285.287	-0.01
285.501	-0
285.714	0.03
285.928	0.05
286.142	-0.02
286.356	-0.02
286.569	0.01
286.783	0.05
286.997	0.04
287.21	0.02
287.424	0.02
287.637	-0.03
287.851	-0.02
288.065	0.07
288.278	-0.02
288.492	0.02
288.705	0.03
288.919	0.02
289.132	-0.06
289.346	0.09
289.559	-0.05
289.773	-0.05
289.986	0.02
290.2	0.03
290.413	0.06
290.626	-0.01
290.84	0
291.053	0.04
291.267	0.12
291.48	0
291.693	0.03
291.906	-0.03
292.12	-0.01
292.333	-0.03
292.546	0
292.76	0.04
292.973	0.03
293.186	0.06
293.399	-0.05
293.612	0.06
293.826	0.01
294.039	0.06
294.252	-0.03
294.465	0.04
294.678	0.05
294.891	-0.01
295.104	-0.03
295.317	0.02
295.53	0.02
295.743	0.02
295.956	0.04
296.169	0.06
296.382	0.04
296.595	0.02
296.808	-0.02
297.021	0.06
297.234	0.04
297.447	0.02
297.66	0.03
297.873	0.01
298.086	0.05
298.299	-0.02
298.511	-0.07
298.724	0.03
298.937	-0.03
299.15	0.01
299.363	0.03
299.575	0.05
299.788	0.03
300.001	0.03
300.213	-0
300.426	0.01
300.639	-0.01
300.852	-0.03
301.064	0.08
301.277	0.08
301.489	0.07
301.702	0.02
301.915	0.02
302.127	-0.01
302.34	0.01
302.552	0.05
302.765	-0.03
302.977	0.04
303.19	0.01
303.402	0
303.615	-0.01
303.827	-0.04
304.04	-0
304.252	0.05
304.464	0.03
304.677	0.1
304.889	0.03
305.102	-0.03
305.314	-0
305.526	0.02
305.739	-0.03
305.951	-0.01
306.163	-0.01
306.375	0.11
306.588	-0.02
306.8	-0.05
307.012	-0.04
307.224	0.02
307.436	0.05
307.649	-0.06
307.861	-0.01
308.073	0.04
308.285	0.02
308.497	0
308.709	0.01
308.921	0.07
309.133	0.06
309.346	0.01
309.558	-0.01
309.77	0.04
309.982	0.05
310.194	0.03
310.406	-0.02
310.617	0.09
310.829	0.02
311.041	0.02
311.253	-0.01
311.465	-0.01
311.677	0.02
311.889	0.02
312.101	-0.02
312.313	0.06
312.524	0.07
312.736	-0.04
312.948	-0
313.16	0.09
313.372	-0
313.583	0.04
313.795	0.01
314.007	-0.06
314.218	0.04
314.43	0.04
314.642	0.02
314.853	-0.07
315.065	0.04
315.277	-0.03
315.488	0.06
315.7	0.08
315.912	0.02
316.123	-0.03
316.335	-0
316.546	0.13
316.758	0.04
316.969	0.02
317.181	0.02
317.392	0
317.604	0.07
317.815	-0.01
318.026	-0.04
318.238	-0.03
318.449	0.05
318.661	-0.02
318.872	-0.03
319.083	-0.06
319.295	0.02
319.506	-0
319.717	-0.01
319.929	0.03
320.14	-0.01
320.351	-0.01
320.562	-0.01
320.774	-0.02
320.985	0.03
321.196	-0.05
321.407	-0.02
321.618	0.05
321.829	0.05
322.041	0.06
322.252	0.02
322.463	0.03
322.674	0.08
322.885	0.01
323.096	-0.02
323.307	-0.01
323.518	0.04
323.729	-0.04
323.94	0.03
324.151	-0.03
324.362	0.03
324.573	0.01
324.784	-0.02
324.995	0.03
325.206	0.01
325.417	0.01
325.628	0.02
325.838	-0
326.049	0.02
326.26	0.02
326.471	-0.01
326.682	0.01
326.892	-0
327.103	-0.02
327.314	-0.03
327.525	0.02
327.735	0.01
327.946	-0.07
328.157	-0.01
328.368	0.04
328.578	-0.02
328.789	0.02
328.999	0.03
329.21	0.01
329.421	0.07
329.631	-0.02
329.842	0
330.052	0.02
330.263	0.09
330.473	0.02
330.684	0
330.894	0.01
331.105	0.02
331.315	0
331.526	-0
331.736	0.07
331.947	0.03
332.157	0.05
332.367	0.01
332.578	0.04
332.788	0.04
332.999	0.09
333.209	0.04
333.419	-0.03
333.629	0.01
333.84	0.04
334.05	-0.02
334.26	0.08
334.47	0.03
334.681	0.08
334.891	0.02
335.101	0.03
335.311	0.09
335.521	0.02
335.732	-0.05
335.942	0.04
336.152	0.01
336.362	0.02
336.572	0.03
336.782	0.06
336.992	-0.01
337.202	0
337.412	-0.02
337.622	0.04
337.832	0.01
338.042	0.03
338.252	-0.02
338.462	0.04
338.672	0.03
338.882	-0.01
339.092	0.01
339.302	0.1
339.511	0.09
339.721	-0.01
339.931	-0.02
340.141	0.03
340.351	0.06
340.561	0.04
340.77	0.01
340.98	0
341.19	0.07
341.4	0
341.609	-0.03
341.819	0.01
342.029	-0.04
342.238	0.04
342.448	-0.03
342.658	0.05
342.867	0
343.077	0.01
343.286	0.02
343.496	0.04
343.706	0.07
343.915	-0.01
344.125	-0
344.334	0.02
344.544	-0.05
344.753	0.04
344.963	0.01
345.172	0.01
345.381	-0.02
345.591	-0.05
345.8	0.02
346.01	0.1
346.219	0.05
346.428	-0.12
346.638	-0
346.847	-0
347.056	0.11
347.266	-0
347.475	0.04
347.684	0.02
347.893	0.02
348.103	0
348.312	-0.03
348.521	0.05
348.73	0.04
348.94	0.02
349.149	0.02
349.358	0.01
349.567	-0.01
349.776	-0.05
349.985	-0.01
350.194	0.02
350.403	0.05
350.612	-0
350.821	0.01
351.03	0
351.239	-0.01
351.448	0.03
351.657	-0.02
351.866	0.07
352.075	0
352.284	0.09
352.493	-0
352.702	0.06
352.911	0.07
353.12	-0.02
353.329	-0.02
353.538	0.03
353.746	-0.01
353.955	-0
354.164	0.05
354.373	0.01
354.582	0.02
354.79	0.02
354.999	0.09
355.208	0.03
355.416	0.09
355.625	-0.02
355.834	0.01
356.042	0.01
356.251	0.03
356.46	-0.03
356.668	0.05
356.877	0.08
357.085	0.05
357.294	-0.04
357.503	0.03
357.711	0.01
357.92	0.13
358.128	0.01
358.337	0.02
358.545	0.03
358.754	-0.01
358.962	0.05
359.17	-0.01
359.379	0.04
359.587	0.07
359.796	0.05
360.004	0.06
360.212	0.07
360.421	0.02
360.629	0.03
360.837	0.03
361.046	0.03
361.254	0.09
361.462	0.03
361.67	-0.01
361.879	0.05
362.087	0.09
362.295	0.02
362.503	0.02
362.711	-0
362.92	-0.03
363.128	0.03
363.336	-0.02
363.544	-0.01
363.752	0.02
363.96	-0.01
364.168	0.03
364.376	0.02
364.584	0.06
364.792	0.09
365	0.07
365.208	0.01
365.416	0.04
365.624	0.04
365.832	-0
366.04	0.06
366.248	0.03
366.456	0.04
366.664	0.05
366.872	0.06
367.079	0.06
367.287	0.03
367.495	0.05
367.703	0.04
367.911	0.04
368.118	0.05
368.326	0.07
368.534	0.03
368.742	0.15
368.949	0.05
369.157	0.08
369.365	0.14
369.572	0.13
369.78	0.13
369.988	0.17
370.195	0.22
370.403	0.23
370.61	0.18
370.818	0.22
371.026	0.32
371.233	0.21
371.441	0.34
371.648	0.28
371.856	0.33
372.063	0.38
372.271	0.39
372.478	0.4
372.685	0.45
372.893	0.51
373.1	0.51
373.308	0.53
373.515	0.68
373.722	0.65
373.93	0.71
374.137	0.75
374.344	0.83
374.552	0.86
374.759	0.91
374.966	0.93
375.173	0.99
375.381	1.07
375.588	1.06
375.795	1.04
376.002	1.18
376.209	1.21
376.417	1.28
376.624	1.39
376.831	1.45
377.038	1.48
377.245	1.45
377.452	1.63
377.659	1.71
377.866	1.75
378.073	1.96
378.28	1.93
378.487	2.15
378.694	2.21
378.901	2.29
379.108	2.37
379.315	2.41
379.522	2.57
379.729	2.67
379.936	2.71
380.143	2.87
380.35	2.96
380.557	3.11
380.763	3.2
380.97	3.26
381.177	3.44
381.384	3.66
381.591	3.72
381.797	3.76
382.004	4.03
382.211	4.08
382.418	4.11
382.624	4.27
382.831	4.28
383.038	4.45
383.244	4.42
383.451	4.4
383.658	4.4
383.864	4.54
384.071	4.46
384.277	4.57
384.484	4.54
384.69	4.49
384.897	4.37
385.103	4.38
385.31	4.31
385.516	4.22
385.723	4.16
385.929	4.12
386.136	3.8
386.342	3.89
386.549	3.68
386.755	3.65
386.961	3.55
387.168	3.36
387.374	3.22
387.58	3.2
387.787	2.99
387.993	2.87
388.199	2.75
388.406	2.6
388.612	2.5
388.818	2.41
389.024	2.32
389.231	2.24
389.437	2.22
389.643	2.14
389.849	2.05
390.055	1.98
390.261	1.88
390.467	1.93
390.674	1.8
390.88	1.78
391.086	1.69
391.292	1.67
391.498	1.59
391.704	1.6
391.91	1.51
392.116	1.4
392.322	1.29
392.528	1.39
392.734	1.27
392.94	1.24
393.146	1.21
393.352	1.21
393.557	1.09
393.763	1.1
393.969	1.09
394.175	1.07
394.381	1
394.587	0.91
394.792	0.94
394.998	0.98
395.204	0.98
395.41	0.85
395.615	0.87
395.821	0.87
396.027	0.85
396.233	0.71
396.438	0.79
396.644	0.79
396.85	0.72
397.055	0.73
397.261	0.7
397.466	0.73
397.672	0.64
397.878	0.61
398.083	0.61
398.289	0.47
398.494	0.57
398.7	0.54
398.905	0.46
399.111	0.51
399.316	0.38
399.522	0.43
399.727	0.42
399.932	0.4
400.138	0.35
400.343	0.48
400.549	0.38
400.754	0.33
400.959	0.3
401.165	0.35
401.37	0.37
401.575	0.38
401.78	0.29
401.986	0.29
402.191	0.29
402.396	0.3
402.601	0.34
402.807	0.28
403.012	0.32
403.217	0.33
403.422	0.24
403.627	0.28
403.832	0.24
404.037	0.29
404.243	0.3
404.448	0.2
404.653	0.23
404.858	0.26
405.063	0.27
405.268	0.23
405.473	0.17
405.678	0.17
405.883	0.35
406.088	0.23
406.293	0.15
406.498	0.18
406.703	0.23
406.907	0.2
407.112	0.18
407.317	0.17
407.522	0.22
407.727	0.1
407.932	0.15
408.136	0.22
408.341	0.21
408.546	0.17
408.751	0.19
408.956	0.12
409.16	0.2
409.365	0.18
409.57	0.1
409.774	0.15
409.979	0.2
410.184	0.17
410.388	0.07
410.593	0.17
410.798	0.11
411.002	0.13
411.207	0.16
411.411	0.1
411.616	0.12
411.82	0.1
412.025	0.15
412.229	0.11
412.434	0.19
412.638	0.15
412.843	0.1
413.047	0.13
413.252	0.05
413.456	0.09
413.66	0.14
413.865	0.04
414.069	0.17
414.273	0.09
414.478	0.09
414.682	0.07
414.886	0.08
415.091	0.05
415.295	0.03
415.499	0.12
415.703	0.08
415.908	0.07
416.112	0.01
416.316	0.11
416.52	0.08
416.724	0.03
416.929	0.08
417.133	0.11
417.337	0.05
417.541	0.04
417.745	0.07
417.949	0.08
418.153	0.09
418.357	0.04
418.561	0.07
418.765	0.06
418.969	0.13
419.173	0.09
419.377	0.06
419.581	0.21
419.785	0.08
419.989	0.01
420.193	0.02
420.397	0.04
420.601	0.11
420.804	0.12
421.008	0.09
421.212	0.06
421.416	0.07
421.62	0.05
421.823	0.06
422.027	0.13
422.231	0.1
422.435	0.08
422.638	0.11
422.842	0.06
423.046	-0
423.249	0.08
423.453	0.11
423.657	0.07
423.86	0.04
424.064	0.05
424.268	0.1
424.471	0.07
424.675	0.09
424.878	0.1
425.082	0.08
425.285	0.12
425.489	0.07
425.692	0.08
425.896	0.06
426.099	0.05
426.303	-0.01
426.506	-0.01
426.71	0.12
426.913	0.08
427.116	0.1
427.32	0.09
427.523	0.02
427.726	0.12
427.93	0.04
428.133	0.08
428.336	0.01
428.54	0.05
428.743	0.06
428.946	0.1
429.149	0.06
429.353	0.13
429.556	0.06
429.759	0.13
429.962	0.07
430.165	0.06
430.368	0.08
430.571	0.03
430.775	0.12
430.978	0.11
431.181	0.07
431.384	0.06
431.587	0.04
431.79	0.08
431.993	0.09
432.196	0.07
432.399	0.04
432.602	0.16
432.805	0.07
433.008	0.09
433.211	0.03
433.414	0.07
433.616	0.1
433.819	0.08
434.022	-0
434.225	0.17
434.428	0.12
434.631	0.18
434.833	0.09
435.036	0.05
435.239	0.12
435.442	0.11
435.645	0.09
435.847	0.06
436.05	0.11
436.253	0.12
436.455	0.05
436.658	0.04
436.861	0.17
437.063	0.06
437.266	0.04
437.468	0.08
437.671	0.2
437.874	0.1
438.076	0.03
438.279	0.04
438.481	0.09
438.684	0.01
438.886	0.13
439.089	0.01
439.291	0.07
439.494	0.08
439.696	0.09
439.899	0.07
440.101	0.09
440.303	0.05
440.506	0.11
440.708	0.11
440.91	0.11
441.113	0.02
441.315	0.15
441.517	0.09
441.72	0.12
441.922	0.09
442.124	0.01
442.326	0.12
442.529	0.17
442.731	0.07
442.933	0.13
443.135	0.12
443.337	0.01
443.539	0.11
443.742	0.06
443.944	0.08
444.146	0.05
444.348	0.06
444.55	0.1
444.752	0.09
444.954	0.03
445.156	0.08
445.358	0.07
445.56	0.15
445.762	0.08
445.964	0.14
446.166	0.09
446.368	0.06
446.57	0.11
446.772	0.08
446.974	0.09
447.175	0.12
447.377	0.08
447.579	0.09
447.781	0.03
447.983	0.12
448.184	0.11
448.386	0.12
448.588	0.05
448.79	0.08
448.991	0.09
449.193	0.1
449.395	0.14
449.597	0.15
449.798	0.13
450	0.09
450.202	0.08
450.403	0.09
450.605	0.15
450.806	0.06
451.008	0.08
451.21	0.13
451.411	0.11
451.613	0.07
451.814	0.14
452.016	0.11
452.217	0.12
452.419	0.13
452.62	0.1
452.821	0.1
453.023	0.17
453.224	0.12
453.426	0.05
453.627	0.08
453.828	0.09
454.03	0.08
454.231	0.13
454.432	0.04
454.634	0.17
454.835	0.04
455.036	0.05
455.238	0.11
455.439	0.17
455.64	0
455.841	0.04
456.042	0.18
456.244	0.14
456.445	0.03
456.646	0.02
456.847	0.04
457.048	0.11
457.249	0.11
457.45	0.32
457.651	0.02
457.852	0.13
458.054	0.05
458.255	0.04
458.456	0.03
458.657	0.07
458.858	0
459.058	0.07
459.259	0.06
459.46	0.04
459.661	0.04
459.862	0.13
460.063	0.07
460.264	0.1
460.465	-0.02
460.666	0.18
460.866	0.02
461.067	0.05
461.268	0.03
461.469	0.03
461.67	0.08
461.87	0.01
462.071	0.05
462.272	-0
462.473	0.03
462.673	0.12
462.874	-0.02
463.075	0.06
463.275	0
463.476	0.08
463.676	0.07
463.877	0.06
464.078	0.03
464.278	0.07
464.479	0.06
464.679	0.06
464.88	0.04
465.08	0.09
465.281	0.02
465.481	0.02
465.682	0.05
465.882	0.06
466.083	0.04
466.283	0.06
466.483	0.05
466.684	-0.01
466.884	0.03
467.085	0.03
467.285	0.08
467.485	0.01
467.686	0.02
467.886	0.01
468.086	0.04
468.286	0.06
468.487	0.05
468.687	-0.01
468.887	0.04
469.087	0.03
469.287	0.05
469.488	-0.03
469.688	0.04
469.888	0.08
470.088	0.07
470.288	0.09
470.488	0.09
470.688	-0.03
470.888	0
471.088	-0.01
471.288	0.08
471.488	0.04
471.688	0.07
471.888	0.05
472.088	0.05
472.288	0.09
472.488	-0.01
472.688	0.02
472.888	0.05
473.088	0.05
473.288	-0.02
473.488	0.04
473.688	0.13
473.887	0.01
474.087	0.07
474.287	0.05
474.487	-0.01
474.687	0.06
474.886	0.03
475.086	0.03
475.286	0.04
475.486	-0.01
475.685	0.03
475.885	0.02
476.085	0.01
476.284	0.03
476.484	0.04
476.684	0.06
476.883	0.09
477.083	0.05
477.282	-0
477.482	0.1
477.681	0.09
477.881	0.02
478.08	0.02
478.28	0.02
478.479	0.04
478.679	0.07
478.878	0.01
479.078	0.02
479.277	0.01
479.477	0.02
479.676	0.06
479.875	0.03
480.075	-0.01
480.274	0.03
480.473	0.01
480.673	0.01
480.872	0.07
481.071	0.03
481.271	0.03
481.47	0.05
481.669	0.02
481.868	0.02
482.067	0.01
482.267	-0.01
482.466	-0.02
482.665	-0.01
482.864	-0.01
483.063	-0.01
483.262	0.04
483.461	0.05
483.661	0.03
483.86	0
484.059	0.01
484.258	0.01
484.457	-0
484.656	0.02
484.855	0.04
485.054	-0.04
485.253	-0.02
485.452	-0.02
485.651	0.02
485.849	0
486.048	0.02
486.247	0
486.446	-0
486.645	-0.02
486.844	-0
487.043	0.02
487.241	0.06
487.44	-0.01
487.639	0.01
487.838	0.05
488.037	0.01
488.235	0.06
488.434	-0.01
488.633	0
488.831	0.02
489.03	0.02
489.229	0.02
489.427	0.02
489.626	0.03
489.825	0.06
490.023	0.02
490.222	-0.01
490.42	0.02
490.619	0.04
490.817	0.03
491.016	-0
491.214	0.03
491.413	0
491.611	0.02
491.81	0.02
492.008	0.02
492.207	0.01
492.405	0.02
492.604	-0.02
492.802	0.01
493	0.02
493.199	-0.01
493.397	0.02
493.595	-0
493.794	-0.02
493.992	0.06
494.19	0.03
494.388	0.04
494.587	-0
494.785	0.02
494.983	-0.03
495.181	0.03
495.379	0.01
495.578	-0.01
495.776	0.02
495.974	0.03
496.172	0.01
496.37	0.02
496.568	-0.01
496.766	-0.01
496.964	0.03
497.162	0.01
497.36	-0.01
497.558	0.01
497.756	0.03
497.954	0.01
498.152	-0.03
498.35	0.02
498.548	-0.01
498.746	0.01
498.944	-0.02
499.142	-0.02
499.34	-0.02
499.538	0.02
499.736	-0.01
499.933	0.07
500.131	0.04
500.329	0.02
500.527	0.05
500.725	0.04
500.922	0.03
501.12	0.01
501.318	0.01
501.516	0.01
501.713	0.01
501.911	0.02
502.109	-0.01
502.306	0.01
502.504	0.01
502.701	-0.01
502.899	0
503.097	0.04
503.294	0
503.492	0.02
503.689	0.02
503.887	0.04
504.084	0.04
504.282	0.01
504.479	-0.01
504.677	0.02
504.874	-0.02
505.072	0
505.269	0.02
505.466	0.04
505.664	0.04
505.861	-0.01
506.059	-0
506.256	0.02
506.453	0.01
506.651	0.04
506.848	0.01
507.045	0.02
507.242	0.01
507.44	0.01
507.637	-0.01
507.834	-0
508.031	0.03
508.229	-0.01
508.426	0.02
508.623	0.01
508.82	-0.01
509.017	-0.02
509.214	0
509.411	-0
509.608	-0.01
509.805	-0
510.003	-0
510.2	-0.03
510.397	0.03
510.594	0.01
510.791	0
510.988	-0.03
511.184	0.02
511.381	0.02
511.578	-0.01
511.775	0.05
511.972	-0.02
512.169	-0.02
512.366	0
512.563	0.02
512.76	0.01
512.956	0
513.153	-0.02
513.35	0.01
513.547	-0.01
513.744	-0.01
513.94	-0.02
514.137	0.02
514.334	0.02
514.53	0.02
514.727	0.02
514.924	0.03
515.12	0.02
515.317	-0.02
515.514	-0.01
515.71	-0.01
515.907	-0.01
516.103	0.01
516.3	0.03
516.497	0.04
516.693	0.05
516.89	0
517.086	-0.01
517.283	0.02
517.479	0.01
517.676	0.02
517.872	-0.01
518.068	0.01
518.265	-0
518.461	-0.02
518.658	-0.01
518.854	-0
519.05	0.01
519.247	-0.03
519.443	0.02
519.639	0.01
519.836	0.02
520.032	0.02
520.228	0.03
520.424	0.06
520.621	0.02
520.817	-0.01
521.013	0.02
521.209	0.03
521.405	0.04
521.601	0
521.798	0.01
521.994	0.02
522.19	-0.01
522.386	-0.01
522.582	-0.01
522.778	0.01
522.974	0.01
523.17	0.01
523.366	0.01
523.562	0.03
523.758	0
523.954	0
524.15	0
524.346	0.02
524.542	0.01
524.738	-0.02
524.934	0.02
525.129	-0
525.325	0.02
525.521	-0
525.717	0.01
525.913	0
526.109	0.01
526.304	-0
526.5	0.02
526.696	0.03
526.892	0.01
527.087	-0
527.283	-0.01
527.479	0.02
527.674	-0.01
527.87	-0
528.066	0.02
528.261	0.03
528.457	0.02
528.653	0.02
528.848	-0.01
529.044	-0
529.239	0
529.435	0.02
529.63	0.01
529.826	0.05
530.021	0
530.217	0.02
530.412	0
530.608	-0.01
530.803	-0.01
530.999	0.02
531.194	-0.03
531.389	-0
531.585	-0.02
531.78	0
531.975	0.01
532.171	0.03
532.366	0.02
532.561	0.01
532.757	-0.01
532.952	0.02
533.147	0
533.342	0.01
533.538	0
533.733	0.03
533.928	0.02
534.123	-0.01
534.318	-0.02
534.513	0
534.709	0.03
534.904	-0.01
535.099	-0.01
535.294	0.02
535.489	0.01
535.684	0.01
535.879	-0.01
536.074	0.02
536.269	-0.02
536.464	0
536.659	0.01
536.854	0
537.049	-0
537.244	0.01
537.439	-0
537.634	0.04
537.828	0
538.023	0.01
538.218	-0.01
538.413	0.01
538.608	-0.03
538.803	-0.01
538.997	-0.02
539.192	0.02
539.387	0.03
539.582	0.02
539.776	0.04
539.971	-0.01
540.166	-0.01
540.36	-0.03
540.555	0.03
540.75	-0
540.944	0.01
541.139	-0.03
541.334	-0.01
541.528	0
541.723	0.02
541.917	-0.01
542.112	-0.03
542.306	0.01
542.501	-0.01
542.695	0.02
542.89	-0
543.084	0.02
543.279	0
543.473	0.01
543.668	0
543.862	0.01
544.056	0.03
544.251	0.01
544.445	0.02
544.64	-0
544.834	-0.02
545.028	0.02
545.222	0.03
545.417	0.02
545.611	0.04
545.805	-0.01
546	-0
546.194	-0
546.388	0.01
546.582	0.03
546.776	0.01
546.97	0.01
547.165	0.03
547.359	0.03
547.553	-0.01
547.747	0
547.941	0.03
548.135	-0.01
548.329	0.03
548.523	0.03
548.717	-0.01
548.911	-0.02
549.105	0.03
549.299	0.01
549.493	0.04
549.687	0.01
549.881	0.01
550.075	0.01
550.269	-0.03
550.463	0.01
550.657	-0.01
550.85	0.01
551.044	-0
551.238	0.01
551.432	-0.02
551.626	-0.02
551.82	-0.02
552.013	-0.02
552.207	0
552.401	0.03
552.594	0
552.788	-0.01
552.982	-0
553.176	-0.01
553.369	0.04
553.563	0.02
553.756	-0.03
553.95	-0.02
554.144	-0.01
554.337	0.04
554.531	0.02
554.724	0
554.918	-0.01
555.111	0.02
555.305	-0.01
555.498	0.03
555.692	0.04
555.885	-0.01
556.079	0.03
556.272	-0.02
556.466	0.03
556.659	0.04
556.852	0.01
557.046	0.01
557.239	0.03
557.432	-0.02
557.626	-0.01
557.819	0.01
558.012	0.01
558.206	0.02
558.399	-0.01
558.592	0
558.785	0
558.979	0.03
559.172	0.03
559.365	0.02
559.558	0.01
559.751	0.01
559.944	0
560.138	0.01
560.331	0.01
560.524	0
560.717	0.02
560.91	0.02
561.103	0.01
561.296	-0.01
561.489	0.03
561.682	0.02
561.875	0.03
562.068	0.04
562.261	0.01
562.454	0.04
562.647	0.01
562.84	0.02
563.032	0
563.225	0.02
563.418	-0.01
563.611	-0.01
563.804	0.01
563.997	-0
564.19	-0.04
564.382	0.01
564.575	0.01
564.768	0.01
564.961	0.02
565.153	-0.02
565.346	0.02
565.539	0.05
565.731	0.02
565.924	0.02
566.117	0.01
566.309	0.01
566.502	-0.02
566.695	0.01
566.887	0.01
567.08	-0.01
567.272	0.01
567.465	-0.02
567.657	0.02
567.85	0.02
568.042	0.01
568.235	0.04
568.427	0
568.62	-0
568.812	0.02
569.005	0
569.197	-0.04
569.389	0.01
569.582	0.01
569.774	-0.01
569.966	-0
570.159	-0.02
570.351	0.02
570.543	-0
570.736	0
570.928	-0.01
571.12	0.01
571.312	-0.01
571.505	-0.01
571.697	0.03
571.889	0
572.081	0
572.273	-0.01
572.465	0.02
572.658	0.02
572.85	0.02
573.042	0.01
573.234	0.01
573.426	0.04
573.618	-0.01
573.81	0
574.002	0.05
574.194	0.03
574.386	-0.02
574.578	-0.06
574.77	-0
574.962	0.02
575.154	-0.02
575.346	0.01
575.538	0.01
575.729	-0.01
575.921	-0
576.113	-0.01
576.305	0
576.497	0
576.689	-0.01
576.88	-0.01
577.072	0.03
577.264	-0.01
577.456	0.01
577.647	-0.08
577.839	0.02
578.031	0.04
578.223	-0.02
578.414	-0.02
578.606	0.02
578.798	-0
578.989	0.02
579.181	0.01
579.372	0
579.564	-0.02
579.755	0.01
579.947	0
580.139	0.02
580.33	-0.04
580.522	-0.02
580.713	-0.04
580.905	-0.01
581.096	0.02
581.287	0
581.479	0
581.67	0.03
581.862	0
582.053	-0.01
582.244	-0.03
582.436	-0
582.627	-0.01
582.818	-0.01
583.01	-0.04
583.201	0.01
583.392	0.02
583.583	-0.01
583.775	-0
583.966	-0
584.157	-0.02
584.348	0
584.54	-0.02
584.731	0.04
584.922	-0
585.113	-0.02
585.304	0.02
585.495	0.02
585.686	0.02
585.877	0.02
586.068	0.01
586.259	0
586.45	0
586.641	-0.01
586.832	-0.05
587.023	-0
587.214	-0
587.405	0.01
587.596	-0.02
587.787	0.03
587.978	0.01
588.169	-0.02
588.36	-0
588.551	0.01
588.742	-0.01
588.932	0.01
589.123	0
589.314	-0
589.505	0.04
589.696	0.02
589.886	-0.02
590.077	-0.02
590.268	0.02
590.458	-0.05
590.649	-0.03
590.84	0.04
591.03	-0.02
591.221	-0.03
591.412	-0.03
591.602	0.04
591.793	0.02
591.984	-0.03
592.174	-0
592.365	0.05
592.555	-0.02
592.746	0.03
592.936	0.01
593.127	0.01
593.317	0.04
593.508	-0.02
593.698	-0.02
593.889	0.02
594.079	-0.01
594.269	-0.01
594.46	0.01
594.65	0.01
594.84	-0
595.031	-0.03
595.221	0.01
595.411	-0.04
595.602	0.02
595.792	0.02
595.982	-0.02
596.172	0.03
596.363	0.01
596.553	0
596.743	0.02
596.933	-0.01
597.123	0.02
597.314	-0.02
597.504	-0
597.694	0.03
597.884	0.01
598.074	0.01
598.264	0.01
598.454	0.02
598.644	0.01
598.834	0.01
599.024	-0.08
599.214	-0.02
599.404	0.04
599.594	-0.01
599.784	-0.03
599.974	0.01
600.164	0.03
600.354	-0.02
600.544	-0.04
600.734	-0.01
600.924	0.02
601.114	-0.01
601.303	0.01
601.493	0.01
601.683	-0.02
601.873	0.01
602.063	-0.04
602.252	0.01
602.442	-0.05
602.632	0.01
602.821	-0.03
603.011	0.02
603.201	-0.01
603.39	-0.03
603.58	-0.01
603.77	-0
603.959	0.06
604.149	0.01
604.339	0.01
604.528	0.03
604.718	0.01
604.907	0.01
605.097	-0
605.286	-0.03
605.476	0.04
605.665	-0
605.855	-0
606.044	0.07
606.234	0.03
606.423	-0.02
606.612	-0.01
606.802	0.02
606.991	0.02
607.181	0.01
607.37	0
607.559	-0.01
607.749	-0.04
607.938	0.02
608.127	-0.03
608.316	-0.04
608.506	0.01
608.695	0.02
608.884	-0.01
609.073	0.01
609.263	0.01
609.452	0.02
609.641	-0
609.83	-0.07
610.019	0
610.208	-0.01
610.397	-0
610.586	0
610.775	-0.01
610.965	-0.01
611.154	-0.02
611.343	0.01
611.532	-0
611.721	-0.03
611.91	-0.03
612.099	0.02
612.287	-0.02
612.476	-0.01
612.665	0.01
612.854	-0.02
613.043	0.02
613.232	-0.01
613.421	-0.02
613.61	0.04
613.798	-0.02
613.987	0.04
614.176	0.01
614.365	0.02
614.554	-0.02
614.742	0.03
614.931	-0
615.12	0.02
615.309	-0
615.497	0.02
615.686	-0.03
615.875	-0.01
616.063	0.02
616.252	0.01
616.44	0.02
616.629	-0.02
616.818	0.03
617.006	-0.01
617.195	-0
617.383	-0
617.572	0.01
617.76	-0.01
617.949	0
618.137	0.02
618.326	-0.01
618.514	-0.03
618.703	-0.02
618.891	0.06
619.079	-0.06
619.268	0.01
619.456	-0.02
619.644	0.04
619.833	-0.02
620.021	-0.01
620.209	-0.04
620.398	0.04
620.586	0.01
620.774	0.03
620.962	0.01
621.151	0.02
621.339	0.01
621.527	-0.05
621.715	-0.02
621.903	-0
622.092	-0.04
622.28	0.02
622.468	-0.01
622.656	0
622.844	0.03
623.032	-0.02
623.22	-0.04
623.408	0.04
623.596	0.03
623.784	0
623.972	-0.03
624.16	0.02
624.348	0.06
624.536	-0.02
624.724	-0.03
624.912	0.03
625.1	0.05
625.288	0.01
625.476	-0.02
625.664	0.06
625.851	-0.03
626.039	0.01
626.227	0.02
626.415	-0
626.603	-0.04
626.79	-0
626.978	-0.03
627.166	0.03
627.354	0.01
627.541	-0.01
627.729	-0.05
627.917	0.03
628.104	0.02
628.292	0.02
628.48	0.01
628.667	-0
628.855	-0
629.042	0.02
629.23	-0.01
629.418	0.03
629.605	0.04
629.793	0
629.98	-0
630.168	-0.02
630.355	-0.01
630.543	0
630.73	-0.02
630.917	0.06
631.105	0.08
631.292	-0.01
631.48	-0.01
631.667	0.07
631.854	0.03
632.042	0.02
632.229	-0.04
632.416	0.05
632.604	-0.01
632.791	-0.01
632.978	0.05
633.165	0.04
633.353	0.08
633.54	0.01
633.727	-0.08
633.914	-0.01
634.101	-0.05
634.289	0.06
634.476	0.01
634.663	-0
634.85	0.01
635.037	-0.01
635.224	-0.01
635.411	0.06
635.598	0.02
635.785	0.02
635.972	0.01
636.159	0
636.346	-0.01
636.533	0.01
636.72	0.02
636.907	0
637.094	0.02
637.281	0.01
637.468	0.04
637.655	0
637.842	0.02
638.029	0.01
638.215	0.05
638.402	0.04
638.589	0.01
638.776	0.02
638.963	-0.01
639.149	0.04
639.336	0.08
639.523	0.04
639.709	0.03
639.896	0.02
640.083	0.07
640.27	0.03
640.456	0.02
640.643	0.04
640.829	-0.04
641.016	0.01
641.203	-0.02
641.389	0.06
641.576	0.04
641.762	0.03
641.949	-0.03
642.135	0.05
642.322	0.03
642.508	-0.04
642.695	0.03
642.881	0.02
643.068	0.03
643.254	0.03
643.441	0.07
643.627	0.05
643.813	0.01
644	0.06
644.186	0
644.372	0.04
644.559	0.04
644.745	0.05
644.931	0.01
645.118	0.04
645.304	0.04
645.49	0.04
645.676	0.06
645.862	0.04
646.049	0.06
646.235	0.09
646.421	0.13
646.607	0.09
646.793	0.02
646.979	0.01
647.165	0.09
647.352	0.06
647.538	0.08
647.724	0.06
647.91	0.05
648.096	0.07
648.282	0.09
648.468	0.09
648.654	0.05
648.84	0.07
649.026	0.07
649.212	0.05
649.397	0.05
649.583	0.04
649.769	0.06
649.955	0.06
650.141	0.11
650.327	0.12
650.513	0.03
650.698	0.09
650.884	-0
651.07	0.09
651.256	0.06
651.442	0.09
651.627	0.06
651.813	0.09
651.999	0.07
652.184	0.09
652.37	0.03
652.556	0.09
652.741	0.13
652.927	0.04
653.113	0.09
653.298	0.07
653.484	0.06
653.669	0.01
653.855	0.09
654.04	0.13
654.226	0.1
654.412	0.07
654.597	0.04
654.782	0.1
654.968	0.16
655.153	0.08
655.339	0.1
655.524	0.04
655.71	0.1
655.895	0.11
656.08	0.09
656.266	0.13
656.451	0.09
656.636	0.07
656.822	0.12
657.007	0.04
657.192	0.09
657.378	0.04
657.563	0.12
657.748	0.11
657.933	0.12
658.118	0.11
658.304	0.08
658.489	0.13
658.674	0.15
658.859	0.09
659.044	0.12
659.229	0.13
659.414	0.08
659.599	0.09
659.785	0.03
659.97	0.12
660.155	0.12
660.34	0.11
660.525	0.1
660.71	0.1
660.895	0.14
661.08	0.09
661.264	0.05
661.449	0.12
661.634	0.13
661.819	0.13
662.004	0.08
662.189	0.02
662.374	0.06
662.559	0.06
662.743	0.03
662.928	0.06
663.113	0.06
663.298	0.02
663.483	0.06
663.667	0.1
663.852	0.06
664.037	0.06
664.221	0.05
664.406	0.08
664.591	0.04
664.775	0.06
664.96	-0.02
665.145	0.07
665.329	0.07
665.514	0.01
665.698	0.03
665.883	0.03
666.068	0.12
666.252	0.04
666.437	-0
666.621	0.02
666.806	0.05
666.99	0.01
667.174	0
667.359	0.07
667.543	-0.01
667.728	0.03
667.912	-0.05
668.096	0.05
668.281	0.01
668.465	0.03
668.649	0.02
668.834	-0.03
669.018	0.03
669.202	0.02
669.387	0.01
669.571	0.05
669.755	-0.01
669.939	-0.02
670.124	-0.01
670.308	0.06
670.492	0.02
670.676	0.04
670.86	-0.03
671.044	-0.01
671.228	0.04
671.413	-0.01
671.597	-0.02
671.781	-0.02
671.965	0.04
672.149	-0
672.333	0.01
672.517	-0
672.701	0.01
672.885	-0
673.069	-0.02
673.253	0.08
673.437	-0.06
673.621	0.01
673.804	-0.02
673.988	0.04
674.172	-0.02
674.356	-0.04
674.54	-0.01
674.724	0.06
674.908	-0.02
675.091	0.02
675.275	-0
675.459	0.07
675.643	0.03
675.826	-0
676.01	-0.02
676.194	0.03
676.377	0.04
676.561	0.03
676.745	0
676.928	0.02
677.112	0.09
677.296	-0.06
677.479	-0.04
677.663	0.01
677.846	-0.02
678.03	-0
678.213	0.01
678.397	0.02
678.58	-0.05
678.764	0
678.947	-0.06
679.131	-0
679.314	0.08
679.498	-0.01
679.681	0.01
679.865	0.05
680.048	-0.01
680.231	-0.02
680.415	-0.03
680.598	-0.01
680.781	-0.03
680.965	-0.03
681.148	0.02
681.331	-0.03
681.514	0.03
681.698	-0.07
681.881	0.01
682.064	0.02
682.247	0.04
682.43	-0.06
682.614	0.04
682.797	0.04
682.98	0.04
683.163	-0.03
683.346	0.02
683.529	-0.02
683.712	-0.06
683.895	0.05
684.078	-0.05
684.261	-0.01
684.444	-0.01
684.627	-0.03
684.81	-0.04
684.993	-0.02
685.176	0.03
685.359	-0.02
685.542	0
685.725	0.07
685.908	-0.01
686.091	-0.01
686.274	0.06
686.457	0.01
686.639	-0
686.822	0.04
687.005	-0.02
687.188	0
687.371	0.07
687.553	0
687.736	0.02
687.919	0.05
688.102	0.06
688.284	-0.04
688.467	0.01
688.65	0
688.832	-0
689.015	0
689.197	-0.07
689.38	0.06
689.563	0.01
689.745	-0.01
689.928	-0.04
690.11	-0.01
690.293	-0
690.475	-0.07
690.658	0.07
690.84	-0.04
691.023	0.02
691.205	0.01
691.388	-0.04
691.57	0.05
691.752	0.04
691.935	-0.06
692.117	-0.02
692.3	-0.01
692.482	0.02
692.664	0.02
692.847	0.01
693.029	0.04
693.211	0.05
693.393	-0
693.576	0.02
693.758	0
693.94	-0.06
694.122	-0.02
694.304	-0.04
694.487	-0.02
694.669	0.12
694.851	-0.05
695.033	0
695.215	-0.03
695.397	-0.06
695.579	0.05
695.761	-0.06
695.943	-0.09
696.125	0.08
696.308	-0.01
696.49	-0.1
696.671	0.15
696.853	0.04
697.035	0.09
697.217	-0
697.399	0.03
697.581	-0.04
697.763	-0.01
697.945	-0.04
698.127	0
698.309	0.06
698.491	0.05
698.672	0.05
698.854	0.02
699.036	0.06
699.218	-0.04
699.399	0.06
699.581	0.06
699.763	-0.01
699.945	-0.02
700.126	-0.07
700.308	-0.01
700.49	0.03
700.671	-0.1
700.853	-0.03
701.035	-0.04
701.216	0.03
701.398	-0.01
701.579	0.03
701.761	0.03
701.943	-0.06
702.124	-0.04
702.306	-0.05
702.487	0.08
702.669	0.02
702.85	-0.03
703.031	-0.03
703.213	0.04
703.394	0.03
703.576	-0.04
703.757	0.04
703.938	0.07
704.12	0.13
704.301	0.03
704.483	-0.06
704.664	0.05
704.845	0.09
705.026	0.01
705.208	0.01
705.389	0.02
705.57	0.02
705.751	-0
705.933	-0
706.114	0.1
706.295	0.05
706.476	-0
706.657	0.13
706.838	-0.01
707.02	0.04
707.201	-0.09
707.382	-0.03
707.563	0.02
707.744	-0.02
707.925	-0.03
708.106	-0.08
708.287	0.06
708.468	0.16
708.649	-0
708.83	0.05
709.011	-0.03
709.192	0.04
709.373	-0.08
709.554	0.01
709.734	0.08
709.915	0.06
710.096	0.02
710.277	-0.05
710.458	0.05
710.639	0.03
710.819	-0.07
711	0.02
711.181	0.07
711.362	0.04
711.542	0.04
711.723	0.02
711.904	0.09
712.085	0.02
712.265	0.05
712.446	-0.05
712.627	0.06
712.807	0.02
712.988	0
713.168	-0.06
713.349	0
713.53	-0.07
713.71	0.02
713.891	-0.05
714.071	0.09
714.252	-0.01
714.432	-0.02
714.613	-0.1
714.793	0.04
714.974	0.11
715.154	0.09
715.334	0.12
715.515	0.08
715.695	-0.07
715.876	0.02
716.056	0.01
716.236	0.03
716.417	-0.06
716.597	-0.08
716.777	0.16
716.957	-0
717.138	-0.03
717.318	0.07
717.498	-0.08
717.678	0.03
717.859	0.02
718.039	-0.07
718.219	-0.01
718.399	0.03
718.579	-0.02
718.759	-0.02
718.939	0.1
719.12	0.05
719.3	0.05
719.48	-0.11
719.66	-0.14
719.84	0.17
720.02	0.02
720.2	-0.03
720.38	0.08
720.56	0.07
720.74	-0.01
720.92	0.05
721.1	0.03
721.279	0.08
721.459	-0.02
721.639	-0.04
721.819	0.04
721.999	0.05
722.179	0.13
722.359	-0.02
722.538	-0
722.718	0.02
722.898	0.02
723.078	0.08
723.257	0.03
723.437	0.02
723.617	0.01
723.797	-0.01
723.976	0.08
724.156	0.07
724.336	0.09
724.515	0.24
724.695	-0.03
724.874	0.04
725.054	0.17
725.234	-0.04
725.413	0.05
725.593	-0.03
725.772	0.02
725.952	0.1
726.131	0.02
726.311	0.02
726.49	-0.01
726.67	-0.05
726.849	0.03
727.028	-0.04
727.208	-0.03
727.387	0.01
727.567	0.04
727.746	0.11
727.925	-0.1
728.105	-0.01
728.284	0.04
728.463	0.05
728.643	0.15
728.822	-0.03
729.001	-0
729.18	0.12
729.359	0.14
729.539	0.14
729.718	0.11
729.897	0.09
730.076	0.06
730.255	0.05
730.434	0.15
730.614	0.17
730.793	0.1
730.972	0.03
731.151	0.01
731.33	0.23
731.509	0.1
731.688	0.11
731.867	0.19
732.046	0
732.225	0.16
732.404	0.06
732.583	-0.01
732.762	0.1
732.941	0.17
733.12	0.12
733.298	0
733.477	0.19
733.656	0.02
733.835	0.03
734.014	0.07
734.193	0.02
734.371	0.17
734.55	0.11
734.729	-0.02
734.908	0.13
735.086	0.15
735.265	0.16
735.444	-0.04
735.623	-0.01
735.801	0.03
735.98	0.14
736.159	0.02
736.337	0.14
736.516	0.11
736.694	0.13
736.873	0.09
737.052	0.28
737.23	0.23
737.409	0.01
737.587	0.35
737.766	-0.18
737.944	0.03
738.123	0.08
738.301	0.08
738.479	0.03
738.658	0.05
738.836	-0.17
739.015	0.04
739.193	0.12
739.371	-0.11
739.55	0.13
739.728	-0.05
739.906	0.16
740.085	0.2
740.263	0.02
740.441	-0.09
740.62	0.15
740.798	0.1
740.976	0.01
741.154	0.02
741.332	0.19
741.511	0.07
741.689	0.09
741.867	0.16
742.045	-0.01
742.223	0.08
742.401	-0.08
742.579	-0.03
742.757	0.06
742.935	-0.03
743.114	0.03
743.292	0.06
743.47	0.08
743.648	0.08
743.826	0.07
744.004	0.1
744.181	-0.02
744.359	0.09
744.537	0.02
744.715	0.03
744.893	0.11
745.071	-0.01
745.249	0.06
745.427	0.05
745.605	0.18
745.782	0.09
745.96	0.13
746.138	0.04
746.316	0.12
746.493	-0.08
746.671	0.02
746.849	0.01
747.027	0.13
747.204	0.01
747.382	0.01
747.56	-0.17
747.737	0.17
747.915	-0.1
748.093	0.05
748.27	0.03
748.448	0.01
748.625	-0.06
748.803	-0.04
748.98	0.01
749.158	0.08
749.335	0.17
749.513	0.04
749.69	-0.05
749.868	0.03
750.045	0.08
750.223	-0.02
750.4	-0.11
750.578	0.11
750.755	-0.02
750.932	-0.15
751.11	0.18
751.287	-0.1
751.464	0.12
751.642	-0.01
751.819	0.12
751.996	-0.04
752.173	0.02
752.351	-0.06
752.528	-0.12
752.705	0.09
752.882	-0.1
753.06	-0.01
753.237	0.06
753.414	0.03
753.591	0.15
753.768	-0.01
753.945	-0.01
754.122	-0.14
754.299	0.02
754.476	-0.09
754.654	0.02
754.831	0.07
755.008	-0.01
755.185	0.01
755.362	-0.08
755.539	0.08
755.716	-0.12
755.892	0.01
756.069	-0.06
756.246	-0.06
756.423	-0.04
756.6	0.13
756.777	-0.07
756.954	0.11
757.131	-0.05
757.307	-0.14
757.484	-0.06
757.661	-0.04
757.838	0.04
758.015	-0.05
758.191	0.08
758.368	0.15
758.545	0.17
758.721	0.07
758.898	-0.11
759.075	0.1
759.251	0.2
759.428	0.08
759.605	-0.08
759.781	0.06
759.958	-0
760.134	0.11
760.311	-0.12
760.488	0.09
760.664	0.13
760.841	-0.08
761.017	-0.06
761.194	0.07
761.37	0.09
761.547	0
761.723	0.04
761.899	0.04
762.076	-0.13
762.252	-0.1
762.429	0.02
762.605	0.05
762.781	-0.06
762.958	0.13
763.134	0
763.31	-0.07
763.486	0.12
763.663	-0.2
763.839	0.05
764.015	-0.1
764.191	-0.17
764.368	-0.03
764.544	-0.05
764.72	0.06
764.896	0.09
765.072	0.07
765.248	-0.06
765.425	-0.03
765.601	0.18
765.777	0.1
765.953	-0.15
766.129	-0.12
766.305	-0.22
766.481	0.05
766.657	0.01
766.833	0.17
767.009	-0.08
767.185	-0.1
767.361	0.05
767.537	-0.11
767.713	0.08
767.889	-0.05
768.065	0.09
768.24	-0.28
768.416	0.22
768.592	-0
768.768	-0.01
768.944	-0.02
769.12	-0.13
769.295	-0.09
769.471	-0.06
769.647	-0.05
769.823	0.03
769.998	-0.19
770.174	-0.1
770.35	0.2
770.525	0.18
770.701	0.06
770.877	0.03
771.052	-0.14
771.228	0.1
771.403	0.04
771.579	0.07
771.755	0.21
771.93	-0.1
772.106	-0.12
772.281	-0.05
772.457	-0.04
772.632	-0.04
772.808	-0.17
772.983	-0.07
773.159	-0.24
773.334	0.12
773.509	-0.05
773.685	-0.09
773.86	0.25
774.036	0.16
774.211	0.02
774.386	-0.08
774.562	-0.08
774.737	0.19
774.912	-0.01
775.087	0.11
775.263	-0.1
775.438	0.12
775.613	-0.04
775.788	-0.06
775.964	0.15
776.139	0.22
776.314	-0.07
776.489	0.11
776.664	0.01
776.839	-0.16
777.014	0.1
777.19	0.16
777.365	0.22
777.54	0.22
777.715	-0.14
777.89	-0.11
778.065	-0.11
778.24	-0.03
778.415	0.18
778.59	-0.21
778.765	-0.02
778.94	-0.03
779.115	-0.06
779.289	0.03
779.464	0.09
779.639	-0.02
779.814	-0.15
779.989	-0.13
780.164	0.21
780.339	-0.09
780.513	-0.1
780.688	0.01
780.863	0.02
781.038	0.14
781.212	-0
781.387	-0.17
781.562	0.16
781.737	0.16
781.911	0.11
782.086	-0.19
782.261	-0.07
782.435	0.32
782.61	0.02
782.784	-0
782.959	0.3
783.134	-0.12
783.308	-0.33
783.483	-0.14
783.657	0.4
783.832	0.24
784.006	-0.17
784.181	-0.24
784.355	0.23
784.53	0.03
784.704	-0.26
784.878	0.13
785.053	0.17
785.227	0.07
785.402	0.41
785.576	-0.04
785.75	0.01
785.925	-0.07
786.099	-0.04
786.273	0.09
786.448	0.21
786.622	0.16
786.796	0
786.97	-0.13
787.145	0.33
787.319	-0.25
787.493	-0.17
787.667	-0.44
787.841	0.07
788.015	-0.03
788.19	-0.05
788.364	0.08
788.538	0.07
788.712	0.12
788.886	0.09
789.06	0.19
789.234	0.15
789.408	-0.35
789.582	0.01
789.756	0.13
789.93	0.09
790.104	-0.07
790.278	-0.02
790.452	-0.25
790.626	0.19
790.8	-0.22
790.973	0.04
791.147	0.04
791.321	0.16
791.495	0.19
791.669	0.09
791.843	0.05
792.016	0.09
792.19	0.32
792.364	-0.39
792.538	0.35
792.711	0.31
792.885	-0.03
793.059	-0.18
793.233	-0.53
793.406	0.36
793.58	0.05
793.754	0.1
793.927	0
794.101	0.4
794.274	0.13
794.448	0.22
794.622	-0.35
794.795	0.18
794.969	-0.1
795.142	0.47
795.316	-0.19
795.489	-0.12
795.663	0.47
795.836	0.03
796.009	-0.19
796.183	0.38
796.356	0.13
796.53	0.21
796.703	0.17
796.876	0.51
797.05	0.29
797.223	-0.01
797.396	0.31
797.57	0.15
797.743	0.25
797.916	-0.1
798.09	-0.01
798.263	0.31
798.436	0.1
798.609	-0.12
798.782	-0.03
798.956	0.01
799.129	-0.05
799.302	0.08
799.475	-0.24
799.648	-0.23
799.821	0
799.994	0.01
800.167	-0.29
800.34	0.13
800.514	0.1
800.687	0.07
800.86	-0.31
801.033	0.19
801.206	-0.02
801.379	-0.32
801.551	0.21
801.724	0.08
801.897	0.13
802.07	-0.1
802.243	-0.55
802.416	-0.04
802.589	-0.08
802.762	-0.06
802.935	0.01
803.107	0.19
803.28	0.13
803.453	0.51
803.626	-0.36
803.798	0.11
803.971	-0.35
804.144	0.43
804.317	0.31
804.489	0.42
804.662	-0.16
804.835	0.08
805.007	-0.15
805.18	0.29
805.353	-0.11
805.525	-0.23
805.698	-0.36
805.87	0.09
806.043	0.39
806.215	-0.44
806.388	0.02
806.56	0.04
806.733	0.5
806.905	0.24
807.078	-0.23
807.25	-0.12
807.423	0.29
807.595	-0.02
807.768	0.27
807.94	0.28
808.112	0.3
808.285	0.12
808.457	-0.04
808.629	0.05
808.802	0.52
808.974	-0.09
809.146	-0.02
809.318	-0.42
809.491	0.29
809.663	0.08
809.835	-0.41
810.007	0.25
810.18	-0.07
810.352	0.08
810.524	-0.08
810.696	0.38
810.868	0.57
811.04	-0.15
811.212	-0.36
811.384	0.03
811.556	-0.02
811.728	0.15
811.901	0.24
812.073	0.04
812.245	0.35
812.417	0.4
812.589	-0.42
812.76	0.21
812.932	0.17
813.104	0.15
813.276	-0.01
813.448	0.38
813.62	-0.27
813.792	0.05
813.964	0.3
814.136	0.16
814.307	-0.18
814.479	-0.17
814.651	-0.06
814.823	0.86
814.995	-0.05
815.166	0.2
815.338	-0.3
815.51	-0.68
815.681	0.34
815.853	0.09
816.025	-0.06
816.196	-0.08
816.368	0.22
816.54	-0.08
816.711	-0.41
816.883	0.55
817.054	1.06
817.226	-0.45
817.398	0.11
817.569	-0.12
817.741	0.17
817.912	0.19
818.084	0.02
818.255	0.29
818.426	-0.33
818.598	-0.09
818.769	0.01
818.941	0.04
819.112	0.81
819.283	0.46
819.455	-0.13
819.626	0.21
819.798	0.24
819.969	0.18
820.14	0.2
820.311	-0
820.483	0.19
820.654	-0.32
820.825	0.36
820.996	-0.66
821.168	-0.3
821.339	-0.32
821.51	-0.3
821.681	-0.22
821.852	-0.1
822.023	-0.28
822.195	-0.45
822.366	-0.14
822.537	0.16
822.708	-0.06
822.879	-0.32
823.05	0.5
823.221	-0.15
823.392	0.25
823.563	-0.15
823.734	0.49
823.905	0.11
824.076	-0.11
824.247	-0.78
824.418	-0.64
824.589	0.6
824.759	0.23
824.93	-0.21
825.101	-0.17
825.272	0.7
825.443	0.32
825.614	0.58
825.784	-0.84
825.955	1.09
826.126	0.74
826.297	0.4
826.467	0.47
826.638	0.48
826.809	-0.95
826.98	-0.16
827.15	-0.35
827.321	-0.16
827.492	0.88
827.662	0.15
827.833	1.09
828.003	0.5
828.174	-0.34
828.345	-0.33
828.515	0.51
828.686	-0.09
828.856	-0.54
829.027	0.18
829.197	-0.15
829.368	0.15
829.538	0.27
829.709	-0.22
829.879	0.02
830.049	0.06
830.22	-0.58
830.39	0.22
830.56	0.18
830.731	0.36
830.901	0.03
831.072	0.37
831.242	0.39
831.412	0.24
831.582	-0.35
831.753	-0.33
831.923	0.89
832.093	0.21
832.263	0.22
832.434	-0.65
832.604	0.14
832.774	0.03
832.944	-0.38
833.114	-0.22
833.284	0.42
833.454	-0.26
833.624	-0.07
833.795	0.07
833.965	0.2
834.135	0.8
834.305	-0.39
834.475	-0.58
834.645	-0.25
834.815	0.02
834.985	-0.36
835.155	-0.11
835.325	0.42
835.494	0.76
835.664	-0.38
835.834	-1.25
836.004	-0.04
836.174	-0.08
836.344	0.12
836.514	-0.31
836.684	-0.28
836.853	-0.15
837.023	0.3
837.193	-0.12
837.363	0.7
837.532	0.81
837.702	-0.39
837.872	-0.1
838.041	0.22
838.211	0.6
838.381	-0.47
838.55	-0.1
838.72	2.07
838.89	1.11
839.059	-0.29
839.229	-0.13
839.398	1.5
839.568	-0.44
839.738	-0.16
839.907	1.36
840.077	0.31
840.246	-0.29
840.416	-0.69
840.585	-1.12
840.755	0.59
840.924	0.42
841.093	-0.26
841.263	-0.65
841.432	-0.25
841.602	-1.13
841.771	-0.61
841.94	-0.34
842.11	1.97
842.279	1.13
842.448	-0.76
842.617	-0.15
842.787	0.3
842.956	-0.65
843.125	0
843.294	-0.24
843.464	-0.23
843.633	-0.84
843.802	-0.32
843.971	-0.27
844.14	0.27
844.309	0.72
844.479	-0.11
844.648	-0.42
844.817	0.02
844.986	1.06
845.155	-0.17
845.324	-1.1
845.493	-0.35
845.662	-0.33
845.831	0.16
846	0.19
846.169	0.05
846.338	1.19
846.507	0.34
846.676	-0.33
846.844	-0.66
847.013	0.43
847.182	0.92
847.351	-0.46
847.52	0.18
847.689	0.7
847.858	-0.17
848.026	-0.34
848.195	1.13
848.364	-0.23
848.533	-0.35
848.701	-0.75
848.87	0.35
849.039	0.76
849.207	1.4
849.376	0.28
849.545	1.4
849.713	-1.15
849.882	0.26
850.051	0.05
850.219	0.28
850.388	1.69
850.556	-1.39
850.725	-0.09
850.893	1.01
851.062	0.44
851.23	1.31
851.399	-0.84
851.567	-0.59
851.736	-0.34
851.904	-0.65
852.073	0.29
852.241	0.92
852.41	0.19
852.578	-1.17
852.746	-0.75
852.915	-0.05
853.083	-0.37
853.251	0.1
853.42	0.03
853.588	-0.47
853.756	0.79
853.924	0.55
854.093	-0.34
854.261	-0.28
854.429	-0.29
854.597	0.49
854.765	-0.85
854.934	-0.09
855.102	0.28
855.27	0.34
855.438	-0.49
855.606	-0.35
855.774	0.85
855.942	-0.59
856.11	-1.45
856.278	-0.16
856.446	1.04
856.614	-0.46
856.782	0.53
856.95	1.43
857.118	0.56
857.286	0.02
857.454	-0.88
857.622	1.65
857.79	0.24
857.958	-1.59
858.126	-0.72
858.294	-2.09
858.462	0.42
858.629	-0.14
858.797	-0.83
858.965	0.93
859.133	0.21
859.301	-0.4
859.468	1.2
859.636	-1.48
859.804	1.3
859.971	0.91
860.139	1.19
860.307	1.29
860.474	0.59
860.642	-1.98
860.81	-0.04
860.977	-0.09
861.145	1.52
861.313	-0.18
861.48	0.28
861.648	2.54
861.815	-0.8
861.983	-1.33
862.15	0.4
862.318	0.51
862.485	1.31
862.653	0.41
862.82	-0.68
862.988	1.31
863.155	0.48
863.322	-0.36
863.49	-1.77
863.657	-1.61
863.824	1.09
863.992	0.75
864.159	0.38
864.326	0.96
864.494	0.52
864.661	3.05
864.828	-0.33
864.996	2.18
865.163	0.74
865.33	-0.59
865.497	-2.21
865.664	0.19
865.832	-0.85
865.999	-0.53
866.166	-0.01
866.333	0.69
866.5	1.49
866.667	-0.44
866.834	-0.98
867.001	1.39
867.168	-1.64
867.335	0.19
867.502	-1.95
867.669	0.56
867.836	0.75
868.003	-0.08
868.17	0.89
868.337	1.34
868.504	3.27
868.671	-1.14
868.838	-1.12
869.005	-0.67
869.172	1.19
869.339	0.09
869.505	-0.01
869.672	0.45
869.839	2.68
870.006	0.34
870.173	0.04
870.339	1.1
870.506	2.76
870.673	-0.72
870.84	1.41
871.006	-0.82
871.173	-0.71
871.34	-0.02
871.506	-1.63
871.673	1.05
871.839	-1.69
872.006	0.32
872.173	-1
872.339	-0.93
872.506	1.02
872.672	0.66
872.839	-1.46
873.005	1.22
873.172	2.46
873.338	2.18
873.505	0.43
873.671	0.35
873.838	1.23
874.004	-0.76
874.171	0.71
874.337	0.28
874.503	0.73
874.67	0.46
874.836	-0.11
875.002	1.34
875.169	1.09
875.335	0.86
875.501	-1.32
875.668	1.08
875.834	-0.04
876	-0.51
876.166	1.3
876.332	0.8
876.499	1.83
876.665	-1.04
876.831	-0.21
876.997	2.68
877.163	0.16
877.329	0.14
877.495	-0.32
877.662	1.4
877.828	0.69
877.994	-0.1
878.16	-1.56
878.326	-0.75
878.492	-1.9
878.658	-1.16
878.824	0.94
878.99	0.68
879.156	-1.76
879.322	2.08
879.487	0.01
879.653	0.1
879.819	1.03
879.985	1.33
880.151	0.76
880.317	-0.14
880.483	0.76
880.648	1
880.814	-3.8
880.98	1.64
881.146	-2.09
881.312	-0.25
881.477	-0.74
881.643	-0.48
881.809	1.65
881.974	-0.07
882.14	-2.45
882.306	-0.22
882.471	2.7
882.637	-0.61
882.803	2.41
882.968	3.24
883.134	3.15
883.299	0.2
883.465	0.16
883.63	1.56
883.796	1.44
883.961	0.74
884.127	0.96
884.292	-2.27
884.458	-2.61
884.623	-2.61
