Data from Apollo_Calib_20240827__AbsoluteIrradiance__245__03-14-00-505.txt Node

Date: Wed Aug 28 03:14:00 BST 2024
User: biology
Spectrometer: FLMT08252
Trigger mode: 0
Integration Time (sec): 5.000000E-1
Scans to average: 5
Electric dark correction enabled: true
Nonlinearity correction enabled: false
Boxcar width: 0
XAxis mode: Wavelengths
Number of Pixels in Spectrum: 3648
>>>>>Begin Spectral Data<<<<<
179.588	-0
179.809	-0
180.03	-0
180.251	-0
180.473	-0
180.694	0
180.915	0
181.136	-0
181.357	0
181.578	-0
181.799	-0
182.02	-0
182.241	-0
182.462	0
182.683	0
182.904	-0
183.125	-0
183.346	0
183.567	0
183.788	-0
184.009	-0
184.23	0
184.451	0
184.672	-0
184.892	-0
185.113	0
185.334	0
185.555	-0
185.776	-0
185.996	0
186.217	0
186.438	0
186.659	-0
186.879	0
187.1	0
187.321	-0
187.541	-0
187.762	0
187.983	0
188.203	0
188.424	-0
188.644	-0
188.865	0
189.086	-0
189.306	-0
189.527	-0
189.747	0
189.968	-0
190.188	0
190.409	0
190.629	0
190.849	-0
191.07	-0
191.29	0
191.511	0
191.731	-0
191.951	-0
192.172	0
192.392	0
192.612	0
192.833	-0
193.053	0
193.273	0
193.493	-0
193.714	-0
193.934	0
194.154	0
194.374	0
194.594	-0
194.815	0
195.035	0
195.255	0
195.475	-0
195.695	0
195.915	0
196.135	-0
196.355	0
196.575	0
196.795	0
197.015	-0
197.235	-0
197.455	0
197.675	0
197.895	-0
198.115	-0
198.335	0
198.555	-0
198.775	-0
198.995	0
199.214	0
199.434	0
199.654	-0
199.874	0
200.094	1.27
200.313	-0.46
200.533	-0.45
200.753	-0.32
200.973	0.81
201.192	0.38
201.412	-1.07
201.632	-0.02
201.851	0.98
202.071	-0.04
202.291	-0.45
202.51	-0.78
202.73	0.62
202.95	0.06
203.169	-0.62
203.389	-0.1
203.608	0.09
203.828	-0.37
204.047	-0.34
204.267	0.16
204.486	0.51
204.706	0.17
204.925	-0.07
205.145	-0.17
205.364	0.85
205.583	0.25
205.803	-0.29
206.022	-0.58
206.242	0.21
206.461	0.09
206.68	-0.25
206.9	0.07
207.119	0.49
207.338	0.81
207.557	-0.14
207.777	-0.18
207.996	0.13
208.215	0.52
208.434	-0.07
208.654	-0.37
208.873	0.19
209.092	0.58
209.311	0.01
209.53	-0.06
209.749	-0.44
209.968	-0.1
210.187	-0.26
210.407	-0.34
210.626	0.02
210.845	0.36
211.064	0.08
211.283	-0.11
211.502	0.5
211.721	-0.04
211.94	-0.01
212.159	0.19
212.377	0.35
212.596	0.38
212.815	-0.1
213.034	0.07
213.253	0.36
213.472	0.42
213.691	-0.15
213.91	-0.05
214.128	0
214.347	0.25
214.566	-0.38
214.785	-0.34
215.003	0.32
215.222	0.03
215.441	-0.02
215.66	-0.29
215.878	-0.1
216.097	0.2
216.316	-0.22
216.534	-0.08
216.753	0.07
216.972	-0.08
217.19	-0
217.409	-0.01
217.627	-0.34
217.846	-0.09
218.064	0.22
218.283	-0.04
218.501	0.59
218.72	-0.02
218.938	-0.26
219.157	-0.12
219.375	0.26
219.594	0.25
219.812	-0.17
220.031	-0.19
220.249	0.31
220.467	0.26
220.686	-0.18
220.904	-0.17
221.122	-0.15
221.341	0.27
221.559	-0.01
221.777	-0.19
221.995	0.05
222.214	0.21
222.432	-0.03
222.65	0.16
222.868	0.07
223.086	0.09
223.305	0.23
223.523	-0.06
223.741	0.27
223.959	-0.14
224.177	-0.13
224.395	-0.05
224.613	0.06
224.831	0.31
225.049	-0.14
225.267	-0.12
225.485	0.04
225.703	0.17
225.921	-0.06
226.139	-0.08
226.357	0.25
226.575	0.11
226.793	-0.24
227.011	0.57
227.229	0.15
227.447	0.2
227.665	0.01
227.883	-0.18
228.1	0.1
228.318	0.04
228.536	-0.27
228.754	-0.15
228.972	0.1
229.189	0.16
229.407	-0.12
229.625	-0.01
229.843	0.21
230.06	0.24
230.278	-0.18
230.496	0.03
230.713	0.09
230.931	0.27
231.149	-0.11
231.366	-0.29
231.584	-0.03
231.801	0.33
232.019	0.01
232.236	-0.19
232.454	-0.18
232.671	0.1
232.889	-0.03
233.106	-0.08
233.324	0.1
233.541	0
233.759	0.09
233.976	0.02
234.194	0.05
234.411	-0.01
234.628	-0.09
234.846	-0.03
235.063	0.02
235.28	0.01
235.498	0.02
235.715	-0.17
235.932	0.21
236.149	-0.06
236.367	-0.16
236.584	0.11
236.801	-0.02
237.018	0.07
237.236	0.07
237.453	-0.2
237.67	0.21
237.887	-0.04
238.104	-0.08
238.321	-0.03
238.538	-0.16
238.755	0.1
238.973	-0.18
239.19	0.03
239.407	0.15
239.624	0.05
239.841	-0.14
240.058	-0.04
240.275	0.09
240.492	-0.07
240.709	0.02
240.925	-0.09
241.142	0.04
241.359	-0.15
241.576	-0.06
241.793	-0.01
242.01	0.04
242.227	0.13
242.444	-0
242.66	0.14
242.877	-0
243.094	-0.09
243.311	0.05
243.527	-0.04
243.744	0.08
243.961	0.08
244.178	-0.05
244.394	0.02
244.611	0.13
244.828	0.21
245.044	-0.07
245.261	-0.04
245.477	-0.02
245.694	0.06
245.911	-0.05
246.127	0.07
246.344	0.14
246.56	0.07
246.777	-0.01
246.993	0.04
247.21	0.04
247.426	0.1
247.643	-0
247.859	-0.09
248.076	-0.04
248.292	0.23
248.508	-0.04
248.725	0.04
248.941	0.13
249.157	0.08
249.374	-0.01
249.59	0.03
249.806	0.11
250.023	0.1
250.239	-0.04
250.455	-0.08
250.671	0.03
250.888	-0.02
251.104	0.06
251.32	-0.02
251.536	0.06
251.752	-0.01
251.969	0.03
252.185	0.02
252.401	0.15
252.617	0.06
252.833	0.01
253.049	-0.08
253.265	-0
253.481	0.07
253.697	-0.05
253.913	-0.05
254.129	-0.01
254.345	0.1
254.561	-0.02
254.777	0.08
254.993	0.12
255.209	0.01
255.425	-0.02
255.641	-0.09
255.857	0.14
256.073	0.01
256.288	-0.06
256.504	-0.01
256.72	0.01
256.936	0.07
257.152	-0.07
257.367	-0.11
257.583	0.03
257.799	0.11
258.015	0.01
258.23	-0.07
258.446	0.16
258.662	-0.01
258.877	-0.03
259.093	-0.01
259.309	0.04
259.524	0.05
259.74	-0.03
259.955	-0.07
260.171	0.06
260.387	0.1
260.602	0.05
260.818	0.08
261.033	-0.03
261.249	-0.08
261.464	-0.05
261.68	-0.09
261.895	0.05
262.11	0.05
262.326	-0.02
262.541	-0.06
262.757	0.11
262.972	0.04
263.187	0.05
263.403	-0.01
263.618	0.12
263.833	0.05
264.049	0.01
264.264	0.01
264.479	0.08
264.694	0.12
264.91	0.02
265.125	-0.05
265.34	0.1
265.555	0.14
265.77	0.03
265.986	-0.05
266.201	0.1
266.416	0.19
266.631	-0.02
266.846	-0.01
267.061	0.06
267.276	0.06
267.491	-0.07
267.706	0.01
267.921	0.04
268.136	-0.01
268.351	-0.02
268.566	-0.04
268.781	0.11
268.996	0.08
269.211	0.07
269.426	-0.04
269.641	-0.04
269.856	0.08
270.071	-0.06
270.285	-0.08
270.5	0.05
270.715	0.06
270.93	-0.06
271.145	0.05
271.359	0.06
271.574	-0.05
271.789	-0.04
272.004	-0.01
272.218	-0.03
272.433	0.07
272.648	-0.03
272.862	-0.01
273.077	-0.02
273.292	0.02
273.506	-0.12
273.721	0
273.936	0.06
274.15	0.1
274.365	0.01
274.579	0.03
274.794	0.06
275.008	0.05
275.223	-0.06
275.437	-0.02
275.652	0.1
275.866	0.11
276.081	-0.02
276.295	0.09
276.509	-0
276.724	0.01
276.938	0.04
277.153	-0
277.367	0.06
277.581	-0.01
277.796	-0.01
278.01	-0.05
278.224	0.09
278.438	0.12
278.653	0.02
278.867	-0.03
279.081	-0.1
279.295	-0.01
279.51	-0
279.724	-0.09
279.938	0.09
280.152	0.08
280.366	-0.06
280.58	0.08
280.794	0.1
281.008	0.03
281.222	0.09
281.437	0.14
281.651	0.02
281.865	0.07
282.079	0.04
282.293	-0.1
282.507	-0.05
282.721	0.01
282.935	0.01
283.148	-0.13
283.362	-0.07
283.576	0.01
283.79	-0.01
284.004	-0.07
284.218	0.06
284.432	0.03
284.646	-0.01
284.859	-0
285.073	0.01
285.287	0.03
285.501	-0.03
285.714	0.03
285.928	0.06
286.142	0.03
286.356	0
286.569	0
286.783	0.11
286.997	0.1
287.21	0.02
287.424	0.01
287.637	-0.01
287.851	-0.01
288.065	0.04
288.278	0.01
288.492	-0
288.705	-0.03
288.919	0.03
289.132	-0.01
289.346	0.13
289.559	-0.09
289.773	-0.03
289.986	-0.01
290.2	-0.03
290.413	0.05
290.626	-0.07
290.84	0.05
291.053	0.03
291.267	0.04
291.48	-0.01
291.693	0.02
291.906	-0.04
292.12	-0.02
292.333	-0.01
292.546	-0.03
292.76	0.13
292.973	0.01
293.186	0.04
293.399	-0
293.612	0.05
293.826	0.03
294.039	0.03
294.252	0.01
294.465	0.05
294.678	0.04
294.891	0.04
295.104	0
295.317	0.01
295.53	0.06
295.743	0.02
295.956	-0
296.169	0.08
296.382	0.03
296.595	0
296.808	-0.04
297.021	0.09
297.234	0.05
297.447	-0.04
297.66	0.05
297.873	0.08
298.086	0.09
298.299	-0.01
298.511	-0.02
298.724	-0.06
298.937	0.01
299.15	-0
299.363	0.04
299.575	0.05
299.788	0.1
300.001	-0.04
300.213	-0.03
300.426	-0
300.639	0.02
300.852	-0.03
301.064	0.08
301.277	0.05
301.489	0.09
301.702	0.05
301.915	0.04
302.127	0
302.34	0.04
302.552	0.06
302.765	0
302.977	0.03
303.19	0.02
303.402	0.03
303.615	0.03
303.827	0.01
304.04	0.01
304.252	0.05
304.464	0.01
304.677	0.12
304.889	0.07
305.102	-0.01
305.314	-0.01
305.526	0.08
305.739	0.09
305.951	-0.05
306.163	-0.01
306.375	0.09
306.588	0.02
306.8	0.01
307.012	-0.03
307.224	0.02
307.436	0.05
307.649	-0.06
307.861	0.02
308.073	0.06
308.285	0.01
308.497	-0.04
308.709	-0.04
308.921	-0.03
309.133	0.07
309.346	0.03
309.558	-0
309.77	0.06
309.982	0.07
310.194	0.05
310.406	-0.02
310.617	0.1
310.829	0.01
311.041	0.07
311.253	-0.02
311.465	0.04
311.677	0.04
311.889	0.04
312.101	-0
312.313	0.09
312.524	0.09
312.736	-0.03
312.948	0
313.16	0.11
313.372	0.07
313.583	0.03
313.795	0.04
314.007	-0.03
314.218	0.05
314.43	0.05
314.642	0
314.853	-0.04
315.065	0.08
315.277	0.02
315.488	0.02
315.7	0.03
315.912	0.06
316.123	0.04
316.335	0
316.546	0.12
316.758	0.01
316.969	0.01
317.181	0.03
317.392	0.05
317.604	0.08
317.815	0.01
318.026	-0.03
318.238	0.02
318.449	0.08
318.661	-0.03
318.872	-0.04
319.083	-0.02
319.295	0.04
319.506	-0.01
319.717	0.06
319.929	0.05
320.14	0
320.351	0.05
320.562	-0.02
320.774	0.01
320.985	0.01
321.196	-0.05
321.407	-0.03
321.618	0.07
321.829	0.03
322.041	0.06
322.252	0.02
322.463	0.03
322.674	0.03
322.885	0.01
323.096	-0.03
323.307	0.05
323.518	0.06
323.729	-0
323.94	0.01
324.151	0
324.362	0.03
324.573	0.03
324.784	-0.04
324.995	0.08
325.206	0.03
325.417	0
325.628	-0.01
325.838	0.02
326.049	0.01
326.26	0.04
326.471	-0.01
326.682	0.05
326.892	0.02
327.103	-0.04
327.314	-0.03
327.525	0.05
327.735	0.03
327.946	-0
328.157	0.01
328.368	0.05
328.578	-0.01
328.789	0.03
328.999	0.02
329.21	0.01
329.421	0.01
329.631	-0.02
329.842	-0
330.052	0.03
330.263	0.03
330.473	0.07
330.684	-0.01
330.894	0.03
331.105	0.06
331.315	0.03
331.526	-0.03
331.736	0.13
331.947	0.02
332.157	0.03
332.367	-0.03
332.578	0.05
332.788	0.04
332.999	0.02
333.209	0.01
333.419	-0.02
333.629	-0
333.84	0.03
334.05	0.02
334.26	0.09
334.47	0.02
334.681	0.08
334.891	-0.05
335.101	0.06
335.311	0.11
335.521	0.03
335.732	-0.05
335.942	0.09
336.152	0.06
336.362	0.04
336.572	0.07
336.782	0.05
336.992	-0.01
337.202	0.01
337.412	-0.02
337.622	0.04
337.832	0
338.042	0.03
338.252	-0.01
338.462	-0
338.672	0.06
338.882	-0.01
339.092	-0.01
339.302	0.1
339.511	0.05
339.721	0.03
339.931	0
340.141	0.09
340.351	0.1
340.561	0.03
340.77	0.05
340.98	-0.01
341.19	0.04
341.4	-0
341.609	-0.02
341.819	0.03
342.029	-0.02
342.238	0.03
342.448	0.01
342.658	0.05
342.867	0.06
343.077	0.02
343.286	0.06
343.496	0.03
343.706	0.06
343.915	-0.07
344.125	0.01
344.334	0.08
344.544	-0.04
344.753	0.02
344.963	-0.02
345.172	-0.02
345.381	0.02
345.591	-0.04
345.8	0.04
346.01	0.07
346.219	0.05
346.428	-0.11
346.638	0.02
346.847	0.02
347.056	0.09
347.266	-0.01
347.475	0.05
347.684	0.04
347.893	0.04
348.103	0.02
348.312	0.03
348.521	-0
348.73	0.04
348.94	0.05
349.149	0.01
349.358	0.02
349.567	0.03
349.776	-0.04
349.985	0.01
350.194	0.04
350.403	0.06
350.612	-0.05
350.821	0.01
351.03	0
351.239	-0.02
351.448	0.02
351.657	-0.04
351.866	0.13
352.075	0.05
352.284	0.04
352.493	-0.07
352.702	0.06
352.911	0.05
353.12	0.08
353.329	0.02
353.538	0.09
353.746	0.04
353.955	-0
354.164	0.06
354.373	-0
354.582	0.08
354.79	0.04
354.999	0.06
355.208	0.04
355.416	0.07
355.625	-0.01
355.834	-0.02
356.042	0.01
356.251	0.04
356.46	-0.05
356.668	0.03
356.877	0.11
357.085	0.09
357.294	-0.06
357.503	0.04
357.711	-0.02
357.92	0.16
358.128	0.01
358.337	0.04
358.545	0.03
358.754	-0.03
358.962	0.06
359.17	0.02
359.379	0.03
359.587	0.07
359.796	0.03
360.004	0.07
360.212	0.05
360.421	0.06
360.629	0.03
360.837	0.03
361.046	0.05
361.254	0.11
361.462	0.02
361.67	-0.02
361.879	0.04
362.087	0.12
362.295	0.02
362.503	0.01
362.711	-0.03
362.92	0.01
363.128	-0.01
363.336	-0.04
363.544	-0.04
363.752	0.01
363.96	0.01
364.168	0.01
364.376	0.01
364.584	0.03
364.792	0.05
365	0.04
365.208	0.03
365.416	0.04
365.624	0.08
365.832	0.03
366.04	0.08
366.248	0.06
366.456	0
366.664	0.03
366.872	0.02
367.079	-0.01
367.287	0.03
367.495	0.01
367.703	0.01
367.911	0.01
368.118	0.03
368.326	0.02
368.534	-0
368.742	0.08
368.949	-0.01
369.157	-0.01
369.365	0.09
369.572	0.06
369.78	-0.01
369.988	0.06
370.195	0.07
370.403	0.08
370.61	-0.01
370.818	0.04
371.026	0.11
371.233	0.01
371.441	0.03
371.648	-0.01
371.856	0.04
372.063	0.04
372.271	0.01
372.478	0.01
372.685	0.03
372.893	0.08
373.1	0.04
373.308	0.02
373.515	0.13
373.722	0.06
373.93	0.01
374.137	0.05
374.344	0.11
374.552	0.04
374.759	0.07
374.966	0
375.173	0.01
375.381	0.08
375.588	0.04
375.795	-0.06
376.002	-0.03
376.209	-0.03
376.417	0.03
376.624	0.05
376.831	0.07
377.038	0.02
377.245	-0.02
377.452	-0.02
377.659	0.05
377.866	-0.01
378.073	-0.01
378.28	0
378.487	0.09
378.694	0.07
378.901	-0
379.108	0.05
379.315	0.08
379.522	0.08
379.729	-0
379.936	0.04
380.143	0.03
380.35	0.08
380.557	0.03
380.763	0.04
380.97	0.01
381.177	0.02
381.384	0.05
381.591	-0.03
381.797	0.04
382.004	0.07
382.211	0.06
382.418	0.05
382.624	0.06
382.831	0.04
383.038	0.01
383.244	0.07
383.451	0.03
383.658	0.05
383.864	0.04
384.071	0
384.277	0.11
384.484	0.03
384.69	0.06
384.897	0.01
385.103	0.03
385.31	-0.05
385.516	0.02
385.723	-0
385.929	0.01
386.136	0.01
386.342	0.06
386.549	0.05
386.755	0.11
386.961	0.03
387.168	0.02
387.374	0.03
387.58	0.09
387.787	0.09
387.993	0.06
388.199	0.04
388.406	0
388.612	0.04
388.818	-0.01
389.024	0.03
389.231	0.06
389.437	0.11
389.643	0.09
389.849	0.06
390.055	0.1
390.261	0.06
390.467	0.05
390.674	-0.01
390.88	0
391.086	0.09
391.292	0.01
391.498	0.1
391.704	0.07
391.91	0.04
392.116	0.05
392.322	-0.06
392.528	0.1
392.734	0.03
392.94	0.06
393.146	0.08
393.352	0.02
393.557	0.05
393.763	0.03
393.969	0.08
394.175	0.02
394.381	0.08
394.587	0.03
394.792	0.04
394.998	0.11
395.204	0.07
395.41	0.06
395.615	0.1
395.821	0.09
396.027	0.1
396.233	0.05
396.438	0.09
396.644	0.15
396.85	0.12
397.055	0.05
397.261	0.11
397.466	0.16
397.672	0.1
397.878	0.09
398.083	0.13
398.289	0.07
398.494	0.13
398.7	0.09
398.905	0.05
399.111	0.2
399.316	0.09
399.522	0.18
399.727	0.15
399.932	0.07
400.138	0.15
400.343	0.17
400.549	0.15
400.754	0.17
400.959	0.19
401.165	0.19
401.37	0.16
401.575	0.29
401.78	0.17
401.986	0.17
402.191	0.19
402.396	0.25
402.601	0.27
402.807	0.22
403.012	0.23
403.217	0.33
403.422	0.23
403.627	0.24
403.832	0.28
404.037	0.33
404.243	0.36
404.448	0.3
404.653	0.28
404.858	0.41
405.063	0.39
405.268	0.36
405.473	0.37
405.678	0.39
405.883	0.6
406.088	0.52
406.293	0.42
406.498	0.47
406.703	0.55
406.907	0.56
407.112	0.52
407.317	0.66
407.522	0.71
407.727	0.59
407.932	0.7
408.136	0.87
408.341	0.75
408.546	0.78
408.751	0.82
408.956	0.86
409.16	0.92
409.365	0.93
409.57	0.95
409.774	1
409.979	1.14
410.184	1.15
410.388	1.1
410.593	1.25
410.798	1.29
411.002	1.36
411.207	1.46
411.411	1.45
411.616	1.41
411.82	1.57
412.025	1.63
412.229	1.69
412.434	1.82
412.638	1.81
412.843	1.92
413.047	1.88
413.252	1.97
413.456	2.16
413.66	2.26
413.865	2.23
414.069	2.38
414.273	2.42
414.478	2.42
414.682	2.53
414.886	2.69
415.091	2.75
415.295	2.77
415.499	3.04
415.703	2.96
415.908	3.22
416.112	3.19
416.316	3.39
416.52	3.56
416.724	3.55
416.929	3.69
417.133	4.1
417.337	3.92
417.541	4.2
417.745	4.21
417.949	4.39
418.153	4.56
418.357	4.66
418.561	4.96
418.765	4.94
418.969	5.12
419.173	5.36
419.377	5.38
419.581	5.66
419.785	5.82
419.989	5.83
420.193	6.18
420.397	6.23
420.601	6.41
420.804	6.54
421.008	6.55
421.212	6.7
421.416	6.61
421.62	6.65
421.823	6.75
422.027	6.82
422.231	6.7
422.435	6.65
422.638	6.66
422.842	6.8
423.046	6.86
423.249	6.96
423.453	6.83
423.657	6.93
423.86	6.91
424.064	7.02
424.268	7.03
424.471	6.92
424.675	7.04
424.878	6.86
425.082	6.96
425.285	7.17
425.489	6.88
425.692	6.78
425.896	6.64
426.099	6.6
426.303	6.61
426.506	6.56
426.71	6.49
426.913	6.47
427.116	6.51
427.32	6.24
427.523	6.1
427.726	6.15
427.93	5.98
428.133	5.98
428.336	5.9
428.54	5.72
428.743	5.82
428.946	5.72
429.149	5.44
429.353	5.18
429.556	5.08
429.759	4.9
429.962	4.77
430.165	4.63
430.368	4.22
430.571	4.13
430.775	3.91
430.978	3.87
431.181	3.65
431.384	3.5
431.587	3.46
431.79	3.48
431.993	3.24
432.196	3.24
432.399	3.25
432.602	3.25
432.805	3.06
433.008	3.18
433.211	2.96
433.414	3.01
433.616	2.88
433.819	2.79
434.022	2.73
434.225	2.76
434.428	2.63
434.631	2.67
434.833	2.42
435.036	2.35
435.239	2.37
435.442	2.29
435.645	2.24
435.847	2.17
436.05	2.2
436.253	2.19
436.455	2.01
436.658	2.03
436.861	2.04
437.063	1.86
437.266	1.85
437.468	1.83
437.671	1.91
437.874	1.78
438.076	1.73
438.279	1.66
438.481	1.59
438.684	1.69
438.886	1.62
439.089	1.5
439.291	1.56
439.494	1.53
439.696	1.39
439.899	1.38
440.101	1.46
440.303	1.38
440.506	1.42
440.708	1.33
440.91	1.37
441.113	1.28
441.315	1.26
441.517	1.08
441.72	1.16
441.922	1.08
442.124	1.02
442.326	1.09
442.529	1.03
442.731	0.99
442.933	1.08
443.135	0.94
443.337	0.85
443.539	0.89
443.742	0.83
443.944	0.86
444.146	0.73
444.348	0.81
444.55	0.72
444.752	0.68
444.954	0.68
445.156	0.65
445.358	0.62
445.56	0.66
445.762	0.57
445.964	0.64
446.166	0.58
446.368	0.51
446.57	0.67
446.772	0.56
446.974	0.5
447.175	0.54
447.377	0.45
447.579	0.53
447.781	0.39
447.983	0.55
448.184	0.47
448.386	0.49
448.588	0.37
448.79	0.45
448.991	0.36
449.193	0.36
449.395	0.4
449.597	0.44
449.798	0.4
450	0.37
450.202	0.36
450.403	0.37
450.605	0.4
450.806	0.34
451.008	0.3
451.21	0.32
451.411	0.35
451.613	0.29
451.814	0.29
452.016	0.37
452.217	0.29
452.419	0.34
452.62	0.29
452.821	0.31
453.023	0.36
453.224	0.3
453.426	0.26
453.627	0.24
453.828	0.25
454.03	0.23
454.231	0.33
454.432	0.22
454.634	0.3
454.835	0.18
455.036	0.2
455.238	0.3
455.439	0.32
455.64	0.18
455.841	0.21
456.042	0.34
456.244	0.25
456.445	0.13
456.646	0.11
456.847	0.13
457.048	0.26
457.249	0.26
457.45	0.43
457.651	0.14
457.852	0.2
458.054	0.21
458.255	0.14
458.456	0.2
458.657	0.17
458.858	0.09
459.058	0.21
459.259	0.21
459.46	0.13
459.661	0.12
459.862	0.28
460.063	0.13
460.264	0.19
460.465	0.07
460.666	0.28
460.866	0.1
461.067	0.15
461.268	0.12
461.469	0.12
461.67	0.1
461.87	0.13
462.071	0.11
462.272	0.07
462.473	0.12
462.673	0.17
462.874	0.04
463.075	0.12
463.275	0.06
463.476	0.13
463.676	0.15
463.877	0.12
464.078	0.03
464.278	0.17
464.479	0.08
464.679	0.11
464.88	0.13
465.08	0.15
465.281	0.04
465.481	0.03
465.682	0.07
465.882	0.12
466.083	0.1
466.283	0.05
466.483	0.11
466.684	0.04
466.884	0.07
467.085	0.09
467.285	0.11
467.485	0.03
467.686	0.08
467.886	0.03
468.086	0.06
468.286	0.05
468.487	0.08
468.687	0.01
468.887	0.05
469.087	0.12
469.287	0.07
469.488	0.02
469.688	0.04
469.888	0.15
470.088	0.13
470.288	0.08
470.488	0.12
470.688	0
470.888	0.06
471.088	0.03
471.288	0.09
471.488	0.08
471.688	0.09
471.888	0.04
472.088	0.09
472.288	0.12
472.488	0.03
472.688	0.05
472.888	0.06
473.088	0.09
473.288	0.07
473.488	0.07
473.688	0.14
473.887	0.07
474.087	0.02
474.287	0.06
474.487	0.01
474.687	0.06
474.886	0.02
475.086	0.05
475.286	0.08
475.486	0.08
475.685	0.06
475.885	0.04
476.085	0.04
476.284	0.08
476.484	0.03
476.684	0.06
476.883	0.09
477.083	0.06
477.282	0.04
477.482	0.11
477.681	0.09
477.881	0.08
478.08	0.02
478.28	0.02
478.479	0.07
478.679	0.14
478.878	0.03
479.078	0.03
479.277	0.04
479.477	0.03
479.676	0.09
479.875	0.04
480.075	-0.05
480.274	0.07
480.473	0.07
480.673	0.02
480.872	0.06
481.071	0.05
481.271	0.06
481.47	0.01
481.669	0.02
481.868	0.01
482.067	-0.02
482.267	0.01
482.466	-0
482.665	0
482.864	-0.01
483.063	-0
483.262	0.03
483.461	0.09
483.661	0.06
483.86	0.03
484.059	0.05
484.258	0.02
484.457	0.02
484.656	0.03
484.855	0.04
485.054	-0.02
485.253	-0.04
485.452	0.02
485.651	0.03
485.849	0.02
486.048	-0.03
486.247	-0
486.446	0.05
486.645	-0.03
486.844	0
487.043	0.02
487.241	0.03
487.44	-0.01
487.639	0.03
487.838	0.05
488.037	0.04
488.235	0.05
488.434	0.04
488.633	-0
488.831	0.04
489.03	0.07
489.229	0.05
489.427	0.05
489.626	0.05
489.825	0.07
490.023	0.02
490.222	0.01
490.42	0.04
490.619	0.06
490.817	0.03
491.016	0.04
491.214	0.05
491.413	0.02
491.611	0
491.81	0.02
492.008	0.05
492.207	0.03
492.405	-0.01
492.604	0
492.802	0.01
493	0.02
493.199	0.03
493.397	-0
493.595	0.02
493.794	-0.01
493.992	0.05
494.19	0.03
494.388	0.05
494.587	-0
494.785	0.03
494.983	-0.03
495.181	0.03
495.379	0.05
495.578	-0.01
495.776	0.05
495.974	0.05
496.172	0
496.37	-0.01
496.568	-0.01
496.766	-0.01
496.964	0.04
497.162	0.02
497.36	-0
497.558	0.05
497.756	0.04
497.954	0.02
498.152	-0
498.35	0.03
498.548	0.03
498.746	-0
498.944	-0
499.142	0.02
499.34	-0.03
499.538	0.01
499.736	0
499.933	0.07
500.131	0.05
500.329	0.02
500.527	0.03
500.725	0.05
500.922	0.04
501.12	0.02
501.318	0.03
501.516	0
501.713	0.03
501.911	0.02
502.109	-0.03
502.306	0.02
502.504	0.01
502.701	-0.01
502.899	-0
503.097	0.07
503.294	0.02
503.492	-0
503.689	0.03
503.887	0.05
504.084	0.07
504.282	0.02
504.479	-0.02
504.677	0.01
504.874	0.01
505.072	0.01
505.269	0
505.466	0.03
505.664	0.03
505.861	-0.03
506.059	0.02
506.256	0.05
506.453	0.02
506.651	0.06
506.848	0.03
507.045	0.02
507.242	0.02
507.44	0
507.637	0
507.834	-0.01
508.031	0.02
508.229	-0.01
508.426	0.03
508.623	0.04
508.82	0
509.017	-0.01
509.214	0.02
509.411	0.02
509.608	0
509.805	0
510.003	-0.01
510.2	-0
510.397	0.02
510.594	-0
510.791	-0.01
510.988	0.03
511.184	0.04
511.381	0.02
511.578	0.01
511.775	0.03
511.972	0.02
512.169	0.01
512.366	0.01
512.563	0.04
512.76	-0
512.956	0.03
513.153	-0.01
513.35	0.02
513.547	-0.01
513.744	-0.01
513.94	-0.01
514.137	-0
514.334	0.01
514.53	-0
514.727	-0
514.924	0.07
515.12	-0
515.317	-0.02
515.514	0
515.71	-0.01
515.907	-0
516.103	-0.01
516.3	0.01
516.497	0.02
516.693	0.03
516.89	0.02
517.086	-0.02
517.283	0.06
517.479	0.02
517.676	0
517.872	0.02
518.068	0.02
518.265	-0.01
518.461	-0.01
518.658	-0.01
518.854	0.01
519.05	-0.01
519.247	-0.03
519.443	0.02
519.639	0.02
519.836	-0
520.032	0.02
520.228	0.02
520.424	0.07
520.621	0.04
520.817	0.01
521.013	0.02
521.209	0.03
521.405	0.05
521.601	0.02
521.798	0.03
521.994	0.05
522.19	-0.01
522.386	-0.04
522.582	-0
522.778	0.01
522.974	-0
523.17	-0
523.366	0.03
523.562	0.04
523.758	0.01
523.954	-0.03
524.15	-0
524.346	0.02
524.542	-0.01
524.738	0
524.934	-0
525.129	0
525.325	0
525.521	-0
525.717	0.03
525.913	0.01
526.109	0.03
526.304	0
526.5	0.03
526.696	0.03
526.892	0.02
527.087	0.01
527.283	-0
527.479	0.03
527.674	-0.01
527.87	0
528.066	-0
528.261	0.03
528.457	0.03
528.653	0.01
528.848	-0.01
529.044	0.03
529.239	0.01
529.435	0.02
529.63	0.03
529.826	0.05
530.021	0.04
530.217	0.03
530.412	-0
530.608	-0
530.803	0.01
530.999	0.02
531.194	-0.03
531.389	0.03
531.585	-0.04
531.78	0.01
531.975	-0.03
532.171	0.05
532.366	0.01
532.561	0.02
532.757	-0
532.952	0.01
533.147	0.04
533.342	0.01
533.538	0.01
533.733	0.03
533.928	0.01
534.123	-0.01
534.318	-0
534.513	-0.02
534.709	0.01
534.904	0
535.099	0
535.294	0
535.489	-0
535.684	0.01
535.879	-0.02
536.074	0.01
536.269	-0.01
536.464	0.03
536.659	0.01
536.854	0.01
537.049	0.03
537.244	0.03
537.439	-0
537.634	0.04
537.828	-0
538.023	0.01
538.218	-0.01
538.413	-0
538.608	-0.02
538.803	0.04
538.997	-0.03
539.192	0.02
539.387	0.01
539.582	0.01
539.776	0.04
539.971	-0.01
540.166	0.03
540.36	-0.04
540.555	-0
540.75	0
540.944	0.01
541.139	-0.05
541.334	-0.01
541.528	0.03
541.723	0.01
541.917	-0.01
542.112	-0.03
542.306	0
542.501	0
542.695	0
542.89	0.01
543.084	0
543.279	-0.03
543.473	0.01
543.668	-0
543.862	-0.01
544.056	0.01
544.251	0.01
544.445	0.01
544.64	0.01
544.834	-0.02
545.028	0.02
545.222	0.01
545.417	0.03
545.611	0.02
545.805	-0.01
546	-0
546.194	-0.01
546.388	-0
546.582	0.02
546.776	0
546.97	0.02
547.165	0.02
547.359	0.03
547.553	-0.01
547.747	0.01
547.941	0.02
548.135	-0.01
548.329	0.05
548.523	-0
548.717	-0.01
548.911	-0.03
549.105	0
549.299	0.01
549.493	0.04
549.687	0.02
549.881	0.02
550.075	-0.01
550.269	-0.02
550.463	0
550.657	-0.02
550.85	0.02
551.044	-0.02
551.238	0.03
551.432	-0.02
551.626	-0.01
551.82	0.02
552.013	-0.01
552.207	0.02
552.401	0.02
552.594	0.01
552.788	0
552.982	-0
553.176	0.01
553.369	0.02
553.563	0.01
553.756	-0.05
553.95	-0.04
554.144	0.01
554.337	0.03
554.531	0.02
554.724	0.02
554.918	0.01
555.111	0.04
555.305	-0
555.498	0.06
555.692	0.03
555.885	0.01
556.079	0.01
556.272	-0.01
556.466	0.03
556.659	0.03
556.852	0
557.046	-0.02
557.239	0.04
557.432	-0.02
557.626	-0.03
557.819	0.02
558.012	0.02
558.206	0.02
558.399	0.02
558.592	-0.02
558.785	0
558.979	0.03
559.172	0.01
559.365	0.03
559.558	0.03
559.751	0
559.944	0.03
560.138	-0
560.331	0.01
560.524	-0
560.717	0.02
560.91	-0.01
561.103	0.03
561.296	0
561.489	0.02
561.682	0.02
561.875	0.04
562.068	0.04
562.261	0
562.454	0.02
562.647	0.03
562.84	0.02
563.032	-0.02
563.225	0.02
563.418	0.01
563.611	-0.01
563.804	-0.01
563.997	-0.05
564.19	-0
564.382	0.01
564.575	-0.01
564.768	0
564.961	-0.01
565.153	-0.02
565.346	0.03
565.539	0.04
565.731	0.01
565.924	0.04
566.117	0.04
566.309	0
566.502	0.01
566.695	0.03
566.887	0
567.08	-0.01
567.272	-0.01
567.465	-0
567.657	0
567.85	-0
568.042	0.04
568.235	0.02
568.427	0.01
568.62	0.01
568.812	0.02
569.005	-0
569.197	-0.02
569.389	0.03
569.582	0
569.774	-0
569.966	-0.03
570.159	-0.03
570.351	0.02
570.543	-0.01
570.736	-0
570.928	0
571.12	0.02
571.312	-0
571.505	-0.03
571.697	0.05
571.889	0
572.081	-0.01
572.273	-0.01
572.465	0.04
572.658	0.01
572.85	0.01
573.042	-0.01
573.234	0.02
573.426	0.04
573.618	-0.01
573.81	0.01
574.002	0.04
574.194	0.07
574.386	-0.04
574.578	-0.08
574.77	-0.03
574.962	0.01
575.154	-0.02
575.346	0.01
575.538	0.01
575.729	-0.01
575.921	0
576.113	0.01
576.305	0.03
576.497	-0
576.689	-0
576.88	-0.01
577.072	0.04
577.264	0.02
577.456	-0
577.647	-0.1
577.839	0.02
578.031	0.03
578.223	-0.01
578.414	-0.04
578.606	0.03
578.798	0
578.989	-0.03
579.181	0.04
579.372	0.01
579.564	-0.01
579.755	0.02
579.947	0.01
580.139	0.02
580.33	-0.04
580.522	-0.01
580.713	-0.06
580.905	-0.02
581.096	0.03
581.287	-0.02
581.479	0
581.67	0.03
581.862	-0.01
582.053	-0
582.244	-0.05
582.436	-0.01
582.627	-0
582.818	-0
583.01	-0.02
583.201	0.03
583.392	0.02
583.583	0.03
583.775	-0.02
583.966	-0.02
584.157	0.01
584.348	-0.02
584.54	-0.04
584.731	0.03
584.922	0
585.113	-0.01
585.304	0.02
585.495	0.05
585.686	0.01
585.877	0.03
586.068	0
586.259	0.02
586.45	0
586.641	0
586.832	-0.05
587.023	0.01
587.214	-0.01
587.405	0.01
587.596	-0.03
587.787	0.05
587.978	0
588.169	-0.03
588.36	-0.02
588.551	0.02
588.742	-0.03
588.932	0.02
589.123	-0.01
589.314	0.04
589.505	0.01
589.696	0.02
589.886	-0
590.077	-0.04
590.268	0
590.458	-0.03
590.649	-0.03
590.84	0.03
591.03	-0.03
591.221	-0.04
591.412	-0.02
591.602	0.02
591.793	0.03
591.984	-0.03
592.174	-0.02
592.365	0.07
592.555	-0.04
592.746	0.02
592.936	0.01
593.127	0.03
593.317	0.02
593.508	-0.01
593.698	-0.01
593.889	0.02
594.079	0.02
594.269	-0.04
594.46	-0.01
594.65	0.02
594.84	-0.02
595.031	-0.02
595.221	-0.02
595.411	-0.06
595.602	0.01
595.792	-0.02
595.982	-0.01
596.172	0.05
596.363	0.01
596.553	0
596.743	-0
596.933	0
597.123	0.05
597.314	-0.01
597.504	-0.03
597.694	0.09
597.884	0.03
598.074	0
598.264	-0.03
598.454	-0
598.644	-0
598.834	-0
599.024	-0.05
599.214	-0
599.404	0.01
599.594	-0.01
599.784	-0.04
599.974	0.06
600.164	0.03
600.354	-0.01
600.544	-0.06
600.734	0.01
600.924	0.03
601.114	-0.04
601.303	-0.02
601.493	0.03
601.683	0
601.873	0.04
602.063	-0.05
602.252	0.03
602.442	-0.07
602.632	-0.02
602.821	-0.04
603.011	0.03
603.201	-0
603.39	-0.04
603.58	-0.04
603.77	0.02
603.959	0.05
604.149	0.01
604.339	-0
604.528	0
604.718	0.03
604.907	-0
605.097	-0.01
605.286	-0.02
605.476	0.03
605.665	0.02
605.855	-0.03
606.044	0.03
606.234	0.03
606.423	0.01
606.612	-0.03
606.802	0.04
606.991	0.06
607.181	0.01
607.37	-0.05
607.559	-0.03
607.749	-0.06
607.938	-0.01
608.127	-0.02
608.316	-0.01
608.506	0.02
608.695	-0.02
608.884	-0.03
609.073	0.03
609.263	0.01
609.452	-0.01
609.641	0.01
609.83	-0.05
610.019	0
610.208	0.01
610.397	0
610.586	0.03
610.775	-0.03
610.965	-0
611.154	-0.03
611.343	0
611.532	0.02
611.721	-0.04
611.91	-0.05
612.099	0.02
612.287	0.01
612.476	-0.01
612.665	0.03
612.854	-0.02
613.043	0.02
613.232	0
613.421	-0.03
613.61	-0
613.798	-0.01
613.987	0.02
614.176	-0.01
614.365	0.03
614.554	0.01
614.742	0.03
614.931	-0.02
615.12	0.03
615.309	-0
615.497	-0.01
615.686	-0.05
615.875	-0
616.063	-0
616.252	-0.03
616.44	-0.01
616.629	-0
616.818	0.04
617.006	0.01
617.195	-0
617.383	0.01
617.572	-0.01
617.76	-0.05
617.949	-0.03
618.137	0.05
618.326	0.07
618.514	-0.01
618.703	-0.01
618.891	0.07
619.079	-0.02
619.268	0
619.456	-0.02
619.644	0.04
619.833	-0.01
620.021	-0.04
620.209	-0.03
620.398	-0
620.586	-0.01
620.774	0
620.962	-0.01
621.151	0.05
621.339	0
621.527	-0.03
621.715	-0.04
621.903	-0.02
622.092	-0.03
622.28	0.01
622.468	0
622.656	0.03
622.844	0.03
623.032	-0.03
623.22	-0.06
623.408	0.04
623.596	0.02
623.784	0.04
623.972	-0.04
624.16	-0
624.348	0.09
624.536	-0
624.724	-0.03
624.912	0.06
625.1	0.04
625.288	-0.03
625.476	-0.04
625.664	0.03
625.851	-0.02
626.039	-0.01
626.227	-0.01
626.415	-0.03
626.603	-0.07
626.79	-0.02
626.978	-0.03
627.166	-0.02
627.354	0.01
627.541	-0.02
627.729	-0.05
627.917	-0
628.104	0.05
628.292	-0.02
628.48	0.01
628.667	0.01
628.855	0.04
629.042	0.01
629.23	-0.01
629.418	-0.01
629.605	-0.02
629.793	-0.03
629.98	-0
630.168	-0.02
630.355	-0
630.543	-0.03
630.73	-0.03
630.917	0.01
631.105	0.07
631.292	-0.03
631.48	-0.02
631.667	0.06
631.854	0.01
632.042	0
632.229	-0.03
632.416	-0.01
632.604	0.01
632.791	-0.03
632.978	0.03
633.165	0.01
633.353	0.07
633.54	0.06
633.727	-0.08
633.914	-0.03
634.101	-0.05
634.289	0.06
634.476	-0.02
634.663	-0.04
634.85	0.03
635.037	-0.03
635.224	-0.02
635.411	0.04
635.598	0.04
635.785	0.02
635.972	0.01
636.159	0.03
636.346	-0.05
636.533	0.01
636.72	-0
636.907	-0
637.094	0.02
637.281	-0.02
637.468	0.04
637.655	-0
637.842	0.01
638.029	-0.03
638.215	0.03
638.402	0.02
638.589	-0.03
638.776	-0.02
638.963	-0.03
639.149	0.04
639.336	0.09
639.523	-0.01
639.709	0
639.896	-0.01
640.083	0.06
640.27	0.02
640.456	-0.04
640.643	0.02
640.829	-0.05
641.016	-0.01
641.203	-0.04
641.389	0.02
641.576	-0
641.762	-0
641.949	-0.01
642.135	0.01
642.322	0
642.508	-0.04
642.695	0.03
642.881	0.01
643.068	-0.01
643.254	-0
643.441	0.02
643.627	-0
643.813	-0.03
644	0.04
644.186	-0.05
644.372	0
644.559	0.01
644.745	0.01
644.931	-0.02
645.118	-0.01
645.304	-0.01
645.49	-0.06
645.676	-0.04
645.862	0.04
646.049	0.06
646.235	0.02
646.421	0.07
646.607	0.08
646.793	-0.01
646.979	-0.03
647.165	0
647.352	0.02
647.538	0.06
647.724	-0
647.91	-0.01
648.096	0.06
648.282	0
648.468	0.01
648.654	-0.02
648.84	0
649.026	0
649.212	-0.04
649.397	-0.03
649.583	-0.03
649.769	0.04
649.955	0.02
650.141	0.03
650.327	0.06
650.513	-0.01
650.698	0.03
650.884	-0.09
651.07	0.01
651.256	0
651.442	-0.03
651.627	-0.01
651.813	0.01
651.999	0.02
652.184	0.04
652.37	-0.03
652.556	-0.01
652.741	0.07
652.927	-0.07
653.113	-0.03
653.298	-0.02
653.484	-0.02
653.669	-0.05
653.855	-0
654.04	0.03
654.226	-0.01
654.412	-0.03
654.597	-0.06
654.782	0.01
654.968	0.03
655.153	0
655.339	-0.01
655.524	-0.07
655.71	0.06
655.895	0
656.08	-0.02
656.266	0.07
656.451	0.05
656.636	-0.02
656.822	-0.03
657.007	-0.06
657.192	0.01
657.378	-0.06
657.563	-0.01
657.748	0.01
657.933	-0.01
658.118	-0.01
658.304	0.02
658.489	0.03
658.674	0.02
658.859	-0.02
659.044	0.01
659.229	0.04
659.414	-0.04
659.599	0
659.785	-0.04
659.97	-0.01
660.155	-0
660.34	0.01
660.525	0
660.71	-0.02
660.895	-0.02
661.08	-0.01
661.264	-0.02
661.449	0.06
661.634	0.04
661.819	0.02
662.004	0.01
662.189	-0.09
662.374	-0.01
662.559	-0.04
662.743	-0.06
662.928	0
663.113	-0.02
663.298	-0.03
663.483	-0.02
663.667	0.02
663.852	-0.06
664.037	0.04
664.221	-0.02
664.406	0.01
664.591	0.02
664.775	0.01
664.96	0
665.145	0.03
665.329	0.03
665.514	-0.02
665.698	0.02
665.883	-0.08
666.068	0.05
666.252	0.02
666.437	-0.05
666.621	-0.02
666.806	0.01
666.99	0.04
667.174	-0.02
667.359	0.09
667.543	-0.02
667.728	-0.01
667.912	-0.06
668.096	0.03
668.281	-0.02
668.465	-0.01
668.649	-0.02
668.834	-0.05
669.018	-0.06
669.202	-0.04
669.387	-0.04
669.571	0.04
669.755	-0.05
669.939	-0.03
670.124	0.01
670.308	0.05
670.492	0.06
670.676	0.01
670.86	0.01
671.044	-0.05
671.228	0.04
671.413	-0.08
671.597	0.02
671.781	-0.02
671.965	0.03
672.149	-0.01
672.333	-0
672.517	-0.04
672.701	0.07
672.885	-0.06
673.069	-0.08
673.253	0.06
673.437	-0.02
673.621	-0.05
673.804	-0.02
673.988	-0.02
674.172	-0.01
674.356	-0.06
674.54	-0.03
674.724	0.1
674.908	-0.01
675.091	0.03
675.275	-0.04
675.459	0.01
675.643	-0.01
675.826	0.04
676.01	-0.04
676.194	-0.01
676.377	0.03
676.561	0
676.745	0.05
676.928	0.04
677.112	0.05
677.296	-0.03
677.479	-0.01
677.663	-0.02
677.846	0.01
678.03	-0.01
678.213	0.02
678.397	0.01
678.58	-0
678.764	-0.02
678.947	-0.02
679.131	-0.03
679.314	0.04
679.498	0.03
679.681	0.01
679.865	0.01
680.048	0.02
680.231	0.01
680.415	0
680.598	0.02
680.781	-0.04
680.965	-0.01
681.148	-0.01
681.331	-0.03
681.514	0.02
681.698	-0.03
681.881	0.04
682.064	0
682.247	0
682.43	-0.05
682.614	0
682.797	0.06
682.98	0.07
683.163	-0.02
683.346	0.03
683.529	0.03
683.712	-0.01
683.895	0.02
684.078	-0.05
684.261	-0.03
684.444	0.06
684.627	0.01
684.81	-0.04
684.993	0.01
685.176	0.03
685.359	-0.02
685.542	-0.01
685.725	0.08
685.908	-0.02
686.091	-0.03
686.274	0.06
686.457	0.05
686.639	-0.01
686.822	0.01
687.005	-0.04
687.188	0.05
687.371	0.06
687.553	0.04
687.736	0.04
687.919	0.05
688.102	0.04
688.284	0.02
688.467	0.02
688.65	-0.05
688.832	-0.03
689.015	0
689.197	-0.04
689.38	0.07
689.563	0.1
689.745	-0.04
689.928	0
690.11	0.03
690.293	0.03
690.475	-0.09
690.658	-0.02
690.84	-0.01
691.023	0
691.205	-0.03
691.388	0.03
691.57	0.07
691.752	0.05
691.935	-0.12
692.117	-0.07
692.3	0.02
692.482	0.07
692.664	-0.03
692.847	0.02
693.029	0.05
693.211	0.04
693.393	-0.02
693.576	-0.02
693.758	0.03
693.94	-0.09
694.122	-0
694.304	-0.03
694.487	-0.01
694.669	0.09
694.851	-0.03
695.033	-0.01
695.215	0.01
695.397	0.01
695.579	0.01
695.761	-0.04
695.943	-0.05
696.125	0.06
696.308	0
696.49	-0.07
696.671	0.07
696.853	0.01
697.035	0.13
697.217	0.02
697.399	0.05
697.581	-0.09
697.763	-0.03
697.945	-0.05
698.127	0.03
698.309	0.03
698.491	0.03
698.672	0.06
698.854	0
699.036	0.1
699.218	-0.02
699.399	0.01
699.581	0.06
699.763	0.07
699.945	-0.06
700.126	-0.07
700.308	0.01
700.49	-0.05
700.671	-0.1
700.853	-0.03
701.035	-0.05
701.216	-0
701.398	-0.04
701.579	0.01
701.761	0.06
701.943	-0.01
702.124	-0.05
702.306	-0
702.487	0.17
702.669	0.02
702.85	-0.03
703.031	-0.04
703.213	0.05
703.394	0.06
703.576	-0.01
703.757	0.05
703.938	0.01
704.12	0.16
704.301	0
704.483	-0.06
704.664	0.06
704.845	0.04
705.026	0.01
705.208	-0.01
705.389	0.02
705.57	0.03
705.751	-0
705.933	0.04
706.114	0.04
706.295	0.05
706.476	-0.06
706.657	0.12
706.838	0.06
707.02	0.03
707.201	-0.08
707.382	0.01
707.563	0.11
707.744	-0.06
707.925	0.03
708.106	-0.02
708.287	0.01
708.468	0.11
708.649	0.01
708.83	0.08
709.011	0.01
709.192	0.02
709.373	-0.11
709.554	-0.01
709.734	0.03
709.915	-0.03
710.096	-0.02
710.277	-0.12
710.458	0.04
710.639	0.09
710.819	-0.16
711	0.01
711.181	0.1
711.362	0.06
711.542	-0.02
711.723	-0.05
711.904	0.02
712.085	0.01
712.265	0.03
712.446	-0.02
712.627	0.02
712.807	0.01
712.988	-0.07
713.168	-0.04
713.349	0.09
713.53	-0.07
713.71	-0.06
713.891	-0.13
714.071	0.02
714.252	-0.05
714.432	-0.04
714.613	-0.11
714.793	-0.01
714.974	0.15
715.154	0.08
715.334	0.08
715.515	0.1
715.695	-0.07
715.876	-0.02
716.056	-0.03
716.236	-0.04
716.417	-0.04
716.597	0
716.777	0.12
716.957	-0.02
717.138	-0.03
717.318	-0.02
717.498	-0.11
717.678	0.03
717.859	0.03
718.039	-0.14
718.219	0.05
718.399	0.03
718.579	-0.08
718.759	-0.09
718.939	0.03
719.12	0.07
719.3	-0
719.48	-0.13
719.66	-0.1
719.84	0.13
720.02	-0.07
720.2	-0.07
720.38	0.03
720.56	0.09
720.74	0.01
720.92	-0.02
721.1	0.01
721.279	0.12
721.459	0.01
721.639	-0.1
721.819	-0.01
721.999	-0.02
722.179	0.03
722.359	-0.16
722.538	0.05
722.718	0.01
722.898	-0.04
723.078	-0.03
723.257	-0.01
723.437	-0.01
723.617	0.05
723.797	-0.02
723.976	0.01
724.156	0.03
724.336	0.12
724.515	0.16
724.695	-0.05
724.874	-0.04
725.054	0.06
725.234	-0
725.413	0.03
725.593	-0.02
725.772	-0.04
725.952	-0.11
726.131	-0.05
726.311	-0.03
726.49	-0.01
726.67	-0.13
726.849	-0
727.028	0.04
727.208	-0
727.387	0.02
727.567	-0.12
727.746	0.01
727.925	0.01
728.105	-0.13
728.284	-0.08
728.463	-0.03
728.643	0.06
728.822	-0.13
729.001	-0.06
729.18	0
729.359	0.1
729.539	0.01
729.718	0.07
729.897	0.05
730.076	-0.03
730.255	-0.18
730.434	0
730.614	0.09
730.793	0.05
730.972	-0
731.151	-0.05
731.33	0.09
731.509	0.03
731.688	0.01
731.867	0
732.046	-0.08
732.225	0.19
732.404	-0.1
732.583	-0.04
732.762	0.06
732.941	0.07
733.12	0.06
733.298	-0.02
733.477	0.11
733.656	0
733.835	-0.12
734.014	0.08
734.193	-0.03
734.371	0.11
734.55	0.07
734.729	-0.16
734.908	0.06
735.086	0.02
735.265	-0.01
735.444	-0.11
735.623	-0.17
735.801	-0.1
735.98	-0.05
736.159	0.03
736.337	0.2
736.516	-0.05
736.694	-0
736.873	-0.11
737.052	0.16
737.23	0.15
737.409	0.01
737.587	0.2
737.766	-0.09
737.944	-0
738.123	0
738.301	0.06
738.479	-0.05
738.658	0.01
738.836	-0.24
739.015	-0.02
739.193	0.11
739.371	-0.13
739.55	0.03
739.728	-0.04
739.906	0.08
740.085	0.19
740.263	0.07
740.441	-0.18
740.62	0.28
740.798	0.07
740.976	-0.09
741.154	-0.11
741.332	0.12
741.511	0.05
741.689	-0.01
741.867	0.11
742.045	-0
742.223	0.05
742.401	-0.13
742.579	0.02
742.757	0.03
742.935	-0.22
743.114	-0.03
743.292	-0.09
743.47	-0.03
743.648	0.04
743.826	-0.18
744.004	-0.01
744.181	0.06
744.359	-0.09
744.537	0.04
744.715	-0.02
744.893	-0.07
745.071	0.06
745.249	0.04
745.427	-0.07
745.605	-0.01
745.782	-0.02
745.96	0.07
746.138	0.04
746.316	0.08
746.493	0.03
746.671	-0.05
746.849	0.01
747.027	0.1
747.204	-0.01
747.382	0.02
747.56	-0.14
747.737	-0.01
747.915	-0.06
748.093	0.09
748.27	-0.11
748.448	0.1
748.625	-0.04
748.803	-0.04
748.98	-0.12
749.158	0.03
749.335	0.14
749.513	-0.03
749.69	-0.05
749.868	0.06
750.045	0.09
750.223	-0.01
750.4	-0.2
750.578	0.25
750.755	0.11
750.932	-0.14
751.11	0.19
751.287	-0.08
751.464	0.07
751.642	-0.06
751.819	0.06
751.996	0.03
752.173	0.05
752.351	-0.03
752.528	-0.07
752.705	-0.05
752.882	-0.11
753.06	0.04
753.237	0.08
753.414	0.12
753.591	0.21
753.768	0.05
753.945	0.03
754.122	-0.08
754.299	0.02
754.476	-0.09
754.654	0.01
754.831	0.03
755.008	0.08
755.185	-0.11
755.362	-0.15
755.539	0.05
755.716	-0.09
755.892	0.05
756.069	-0.09
756.246	0.01
756.423	-0.05
756.6	0.19
756.777	0
756.954	0.06
757.131	-0.02
757.307	-0.08
757.484	-0.05
757.661	-0.03
757.838	-0
758.015	-0.21
758.191	0.04
758.368	0.14
758.545	0.22
758.721	0.13
758.898	-0.05
759.075	0.06
759.251	0.02
759.428	0.09
759.605	-0.11
759.781	-0.09
759.958	0.06
760.134	0.07
760.311	-0.02
760.488	0.14
760.664	0.1
760.841	-0.08
761.017	-0.14
761.194	0.08
761.37	0.13
761.547	0.05
761.723	0.03
761.899	0.17
762.076	-0.07
762.252	-0.09
762.429	-0.04
762.605	0.11
762.781	-0.01
762.958	0.19
763.134	-0.06
763.31	0.03
763.486	0.16
763.663	-0.12
763.839	0.04
764.015	-0.17
764.191	-0.03
764.368	-0.15
764.544	-0.02
764.72	0.13
764.896	0.06
765.072	0.02
765.248	0.02
765.425	-0.06
765.601	-0.04
765.777	-0.03
765.953	-0.24
766.129	-0.04
766.305	-0.05
766.481	0.13
766.657	0
766.833	0.16
767.009	-0.1
767.185	-0.03
767.361	-0.02
767.537	-0.12
767.713	0.16
767.889	-0.09
768.065	-0.04
768.24	-0.12
768.416	-0.09
768.592	0.05
768.768	-0.03
768.944	0.04
769.12	-0.19
769.295	-0.11
769.471	0
769.647	-0.01
769.823	0.14
769.998	-0.11
770.174	-0.19
770.35	0.25
770.525	0.2
770.701	0.05
770.877	-0.2
771.052	-0.01
771.228	0.16
771.403	0.04
771.579	0.09
771.755	0.44
771.93	-0.13
772.106	-0.17
772.281	-0.17
772.457	0.04
772.632	0.03
772.808	-0.09
772.983	-0.03
773.159	-0.23
773.334	0.17
773.509	-0.02
773.685	-0.1
773.86	0.35
774.036	0.16
774.211	-0.13
774.386	-0.14
774.562	-0.11
774.737	0.15
774.912	-0.04
775.087	0.06
775.263	0.03
775.438	0.03
775.613	-0.04
775.788	0.02
775.964	0.35
776.139	0.41
776.314	-0.15
776.489	0.08
776.664	0.1
776.839	-0.13
777.014	0.07
777.19	0.15
777.365	0.21
777.54	0.25
777.715	-0.1
777.89	-0.03
778.065	-0.08
778.24	0.05
778.415	0.09
778.59	-0.29
778.765	-0.09
778.94	0.17
779.115	-0.08
779.289	-0.11
779.464	-0.05
779.639	0.05
779.814	-0.19
779.989	-0.12
780.164	0.24
780.339	0.01
780.513	-0.11
780.688	-0.17
780.863	-0.06
781.038	0.15
781.212	-0.07
781.387	-0.02
781.562	0.23
781.737	0.18
781.911	0.23
782.086	-0.05
782.261	-0.19
782.435	0.15
782.61	-0.13
782.784	-0.03
782.959	0.25
783.134	-0.11
783.308	-0.12
783.483	-0.15
783.657	0.4
783.832	0.01
784.006	-0.37
784.181	-0.04
784.355	0.1
784.53	-0.23
784.704	-0.3
784.878	0.37
785.053	-0.04
785.227	0.18
785.402	0.3
785.576	-0.32
785.75	-0.01
785.925	0.07
786.099	0.1
786.273	0.14
786.448	0.06
786.622	0.12
786.796	-0.05
786.97	-0.19
787.145	0.52
787.319	-0.32
787.493	-0.01
787.667	-0.16
787.841	0.13
788.015	0.32
788.19	0.04
788.364	0.15
788.538	0.05
788.712	0.18
788.886	0.22
789.06	0.27
789.234	0.3
789.408	-0.03
789.582	-0.13
789.756	-0.02
789.93	-0.19
790.104	-0.02
790.278	-0.1
790.452	-0.3
790.626	0.04
790.8	-0.03
790.973	0.1
791.147	0.33
791.321	0.21
791.495	0.33
791.669	0.13
791.843	0.24
792.016	0.19
792.19	0.61
792.364	-0.11
792.538	0.51
792.711	0.16
792.885	-0
793.059	-0.33
793.233	-0.42
793.406	0.47
793.58	0.08
793.754	0.19
793.927	-0.01
794.101	0.3
794.274	0.11
794.448	0.3
794.622	-0.06
794.795	0.42
794.969	0.04
795.142	0.47
795.316	0
795.489	-0.21
795.663	0.49
795.836	-0.01
796.009	-0.19
796.183	0.31
796.356	0.04
796.53	0.1
796.703	-0.05
796.876	0.84
797.05	-0.07
797.223	-0.04
797.396	-0.05
797.57	0.1
797.743	0.42
797.916	-0.03
798.09	-0.08
798.263	0.21
798.436	0.15
798.609	-0.01
798.782	0.04
798.956	0.24
799.129	0.13
799.302	-0.15
799.475	-0.12
799.648	-0.08
799.821	-0.21
799.994	-0.11
800.167	-0.35
800.34	-0.04
800.514	-0.04
800.687	-0.15
800.86	-0.19
801.033	0.03
801.206	-0.14
801.379	-0.28
801.551	0.35
801.724	0.15
801.897	0.56
802.07	-0.16
802.243	-0.31
802.416	-0.19
802.589	0.14
802.762	0.07
802.935	-0.17
803.107	0.16
803.28	0.31
803.453	0.13
803.626	-0.23
803.798	0.14
803.971	-0.31
804.144	0.01
804.317	0.23
804.489	0.1
804.662	0.26
804.835	-0.05
805.007	-0.3
805.18	0.59
805.353	0.07
805.525	-0.21
805.698	-0.36
805.87	-0.01
806.043	0.02
806.215	-0.21
806.388	0.12
806.56	0.01
806.733	0.47
806.905	0.08
807.078	-0.17
807.25	-0.16
807.423	0.55
807.595	0.1
807.768	0.09
807.94	0.49
808.112	0.15
808.285	0.12
808.457	-0.12
808.629	-0.24
808.802	0.28
808.974	0.08
809.146	-0.16
809.318	-0.27
809.491	-0.01
809.663	0.41
809.835	-0.34
810.007	0.13
810.18	-0.12
810.352	-0.5
810.524	-0
810.696	0.03
810.868	0.39
811.04	-0.07
811.212	-0.11
811.384	0.45
811.556	0.2
811.728	-0.1
811.901	0.68
812.073	0.16
812.245	0.45
812.417	-0.27
812.589	-0.67
812.76	0.11
812.932	0.23
813.104	0.45
813.276	-0.02
813.448	0.69
813.62	-0.05
813.792	0.32
813.964	0.13
814.136	-0.16
814.307	0.1
814.479	-0.18
814.651	-0.21
814.823	0.8
814.995	-0.21
815.166	0.18
815.338	-0.2
815.51	-0.54
815.681	0.76
815.853	0.09
816.025	-0.14
816.196	0.28
816.368	0.33
816.54	-0.3
816.711	-0.22
816.883	0.31
817.054	0.94
817.226	-0.88
817.398	0.24
817.569	-0.18
817.741	0.22
817.912	-0.04
818.084	0.02
818.255	0.6
818.426	-0.14
818.598	-0.3
818.769	-0.15
818.941	0.43
819.112	1.02
819.283	0.47
819.455	-0.26
819.626	0.11
819.798	-0.06
819.969	-0.22
820.14	-0.02
820.311	0.42
820.483	0.14
820.654	0.52
820.825	0.06
820.996	-0.2
821.168	-0.31
821.339	-0.05
821.51	-0.67
821.681	0.09
821.852	-0.15
822.023	-0.32
822.195	-0.23
822.366	0.35
822.537	0.81
822.708	-0.08
822.879	0.03
823.05	0.42
823.221	-0.07
823.392	-0.03
823.563	-0.21
823.734	0.14
823.905	-0.05
824.076	-0.28
824.247	-0.33
824.418	0.27
824.589	0.61
824.759	0.2
824.93	-0.14
825.101	-0.63
825.272	0.32
825.443	0.56
825.614	0.4
825.784	-0.2
825.955	0.67
826.126	0.19
826.297	0.14
826.467	0.31
826.638	0.79
826.809	-0.86
826.98	0.17
827.15	0.45
827.321	-0.31
827.492	1.22
827.662	0.69
827.833	1.06
828.003	0.02
828.174	-0.55
828.345	-0.79
828.515	0.56
828.686	0.23
828.856	-0.45
829.027	0.14
829.197	-0.15
829.368	0.37
829.538	-0.08
829.709	0.32
829.879	-0.16
830.049	0.26
830.22	-0.11
830.39	0.03
830.56	0.72
830.731	-0.66
830.901	-0.67
831.072	-0.05
831.242	0.2
831.412	0.11
831.582	-0.35
831.753	-0.85
831.923	0.68
832.093	0.18
832.263	-0.26
832.434	-0.66
832.604	0.07
832.774	0.68
832.944	-0.42
833.114	0.15
833.284	-0.33
833.454	-0.49
833.624	-0.64
833.795	-0.3
833.965	0.26
834.135	0.22
834.305	-0.63
834.475	-0.89
834.645	-0.14
834.815	0.31
834.985	-1.02
835.155	-0
835.325	-0.01
835.494	0.28
835.664	0.06
835.834	-1.25
836.004	0.13
836.174	0.26
836.344	-0.11
836.514	-0.88
836.684	-0.38
836.853	-0.15
837.023	-0.03
837.193	0.21
837.363	0.57
837.532	0.03
837.702	-0.47
837.872	0.08
838.041	0.92
838.211	1.26
838.381	-0.7
838.55	-0.22
838.72	1.41
838.89	1.21
839.059	0.21
839.229	-0.16
839.398	1.79
839.568	-0.3
839.738	-0.14
839.907	0.32
840.077	0.41
840.246	-0.48
840.416	0.06
840.585	-0.45
840.755	1.13
840.924	0.32
841.093	-0.48
841.263	-0.2
841.432	0.99
841.602	-0.37
841.771	-0.74
841.94	0.2
842.11	1.42
842.279	1.5
842.448	-0.65
842.617	-0.27
842.787	1.29
842.956	-0.63
843.125	0.25
843.294	1.3
843.464	1.12
843.633	0.73
843.802	-1.11
843.971	-0.41
844.14	0.5
844.309	0.99
844.479	-0.29
844.648	-0.78
844.817	0.25
844.986	0.26
845.155	-0.59
845.324	-0.3
845.493	0.16
845.662	-1.04
845.831	0.55
846	-0.21
846.169	-1
846.338	0.73
846.507	0.33
846.676	0.75
846.844	-0.91
847.013	1.58
847.182	0.04
847.351	-0.81
847.52	0.11
847.689	-0.18
847.858	0.23
848.026	-0.52
848.195	-0.37
848.364	-0.04
848.533	-1.11
848.701	-0.45
848.87	0.33
849.039	1.5
849.207	0.14
849.376	1.5
849.545	0.63
849.713	-0.33
849.882	-0.65
850.051	0.31
850.219	-0.25
850.388	1.53
850.556	-0.4
850.725	-1.56
850.893	0.69
851.062	-0.04
851.23	0.56
851.399	-1.63
851.567	-1.14
851.736	-0.17
851.904	-0.43
852.073	0.08
852.241	0.57
852.41	-0.24
852.578	0.47
852.746	-1.02
852.915	0.93
853.083	-0.59
853.251	-0.88
853.42	0.26
853.588	1.3
853.756	0.86
853.924	-0.22
854.093	0.34
854.261	-0.21
854.429	-0.45
854.597	-0.2
854.765	-0.89
854.934	0.41
855.102	0.79
855.27	-0.74
855.438	1
855.606	1.32
855.774	1.63
855.942	-1.96
856.11	-1.47
856.278	1.25
856.446	1.64
856.614	-0.4
856.782	-0.52
856.95	1.32
857.118	0.49
857.286	0.63
857.454	-0.71
857.622	0.99
857.79	1.21
857.958	-1.12
858.126	-0.58
858.294	-2.63
858.462	-0.18
858.629	-1.19
858.797	-0.63
858.965	0.96
859.133	0.38
859.301	-0.47
859.468	0.88
859.636	-0.71
859.804	2.2
859.971	1.55
860.139	-1.21
860.307	1.54
860.474	-0.69
860.642	-0.31
860.81	-0.33
860.977	0.07
861.145	1.9
861.313	-0.87
861.48	-0.14
861.648	1.28
861.815	-0.11
861.983	-0.5
862.15	-1.11
862.318	0.51
862.485	0.15
862.653	-1.05
862.82	-1.02
862.988	1.78
863.155	0.43
863.322	-1.2
863.49	-1.44
863.657	0.11
863.824	2.69
863.992	0.27
864.159	0.97
864.326	2.79
864.494	-0.59
864.661	2.79
864.828	-2.2
864.996	1.38
865.163	1.56
865.33	-0.04
865.497	-1.5
865.664	-0.75
865.832	-1.96
865.999	-0.07
866.166	-2.11
866.333	-0.37
866.5	-0.71
866.667	-0.66
866.834	-0.18
867.001	0.68
867.168	-1.25
867.335	0.59
867.502	-0.49
867.669	0.06
867.836	1.93
868.003	-1.16
868.17	0.64
868.337	-0.21
868.504	3.43
868.671	-0.49
868.838	-1.02
869.005	1.34
869.172	1.56
869.339	0.17
869.505	1.35
869.672	0.76
869.839	2.81
870.006	-0.79
870.173	-1.39
870.339	0.36
870.506	2.92
870.673	-2.2
870.84	0.03
871.006	1.71
871.173	-0.18
871.34	-0.45
871.506	-1.64
871.673	0.14
871.839	-2.27
872.006	0.23
872.173	0.56
872.339	1.37
872.506	0.78
872.672	0.15
872.839	-1.13
873.005	0.46
873.172	2.95
873.338	1
873.505	0.67
873.671	4.14
873.838	0.17
874.004	-2.62
874.171	-0.5
874.337	1.25
874.503	2.01
874.67	-0.6
874.836	-0.42
875.002	1.73
875.169	2.36
875.335	2.23
875.501	-0.23
875.668	1.62
875.834	1.26
876	0.07
876.166	1.45
876.332	-0.06
876.499	3.63
876.665	-0.82
876.831	0.33
876.997	4.57
877.163	0.4
877.329	-1.12
877.495	1.61
877.662	0.62
877.828	0.24
877.994	-0.98
878.16	-2.79
878.326	0.92
878.492	1.35
878.658	-0.09
878.824	0.31
878.99	2.3
879.156	-0.77
879.322	3.47
879.487	0.95
879.653	1.25
879.819	0.69
879.985	-1.67
880.151	1.32
880.317	-1.01
880.483	0.39
880.648	1.59
880.814	-1.21
880.98	0.73
881.146	-2.1
881.312	-1.76
881.477	-0.68
881.643	-0.88
881.809	-0.17
881.974	2.42
882.14	-2.93
882.306	0.19
882.471	3.56
882.637	-0.32
882.803	1.23
882.968	3.76
883.134	2.22
883.299	-0.26
883.465	0.84
883.63	2.59
883.796	-0.52
883.961	1.56
884.127	0.61
884.292	-3.86
884.458	-1.68
884.623	-1.68
