Data from Apollo_Calib_20240827__AbsoluteIrradiance__66__00-15-01-719.txt Node

Date: Wed Aug 28 00:15:01 BST 2024
User: biology
Spectrometer: FLMT08252
Trigger mode: 0
Integration Time (sec): 5.000000E-1
Scans to average: 5
Electric dark correction enabled: true
Nonlinearity correction enabled: false
Boxcar width: 0
XAxis mode: Wavelengths
Number of Pixels in Spectrum: 3648
>>>>>Begin Spectral Data<<<<<
179.588	-0
179.809	-0
180.03	-0
180.251	-0
180.473	-0
180.694	0
180.915	0
181.136	-0
181.357	0
181.578	-0
181.799	-0
182.02	-0
182.241	0
182.462	-0
182.683	0
182.904	-0
183.125	0
183.346	0
183.567	0
183.788	-0
184.009	-0
184.23	0
184.451	0
184.672	-0
184.892	-0
185.113	0
185.334	0
185.555	-0
185.776	-0
185.996	0
186.217	-0
186.438	0
186.659	-0
186.879	0
187.1	-0
187.321	-0
187.541	-0
187.762	-0
187.983	-0
188.203	-0
188.424	-0
188.644	-0
188.865	-0
189.086	-0
189.306	-0
189.527	-0
189.747	0
189.968	-0
190.188	-0
190.409	0
190.629	0
190.849	-0
191.07	-0
191.29	-0
191.511	-0
191.731	-0
191.951	-0
192.172	-0
192.392	-0
192.612	-0
192.833	-0
193.053	0
193.273	0
193.493	-0
193.714	-0
193.934	0
194.154	0
194.374	0
194.594	-0
194.815	0
195.035	-0
195.255	-0
195.475	-0
195.695	0
195.915	0
196.135	-0
196.355	0
196.575	0
196.795	0
197.015	-0
197.235	-0
197.455	-0
197.675	0
197.895	-0
198.115	-0
198.335	0
198.555	-0
198.775	0
198.995	0
199.214	0
199.434	-0
199.654	-0
199.874	-0
200.094	0.41
200.313	-0.23
200.533	-0.66
200.753	-0.9
200.973	0.7
201.192	0.33
201.412	-1.91
201.632	-0.44
201.851	1.01
202.071	-0.52
202.291	-0.21
202.51	-0.84
202.73	0.15
202.95	-0.44
203.169	-0.54
203.389	0.16
203.608	-0.44
203.828	-0.21
204.047	-0.6
204.267	-0.06
204.486	-0.17
204.706	0
204.925	-0.07
205.145	-0.54
205.364	0.4
205.583	0.6
205.803	-0.27
206.022	-0.61
206.242	0.19
206.461	-0.04
206.68	-0.2
206.9	0.2
207.119	0.22
207.338	0.22
207.557	-0.2
207.777	-0.16
207.996	-0.36
208.215	0.46
208.434	-0.47
208.654	-0.41
208.873	-0.03
209.092	0.53
209.311	-0.05
209.53	-0.14
209.749	-0.35
209.968	-0.44
210.187	-0
210.407	-0.59
210.626	-0.26
210.845	0.2
211.064	-0.03
211.283	-0.36
211.502	0.03
211.721	-0.3
211.94	-0.05
212.159	0.06
212.377	0.23
212.596	0.23
212.815	0.07
213.034	0.1
213.253	0.1
213.472	0.12
213.691	-0.15
213.91	-0.41
214.128	-0.31
214.347	0.37
214.566	-0.47
214.785	-0.36
215.003	-0.04
215.222	0.18
215.441	-0.03
215.66	-0.32
215.878	-0.22
216.097	0.14
216.316	-0.16
216.534	-0.14
216.753	-0.1
216.972	-0.25
217.19	-0.1
217.409	-0.22
217.627	-0.34
217.846	-0.07
218.064	-0.2
218.283	-0.23
218.501	0.44
218.72	-0.01
218.938	-0.26
219.157	-0.21
219.375	0.15
219.594	0.17
219.812	-0.26
220.031	-0.33
220.249	0.24
220.467	0.23
220.686	-0.22
220.904	-0.24
221.122	-0.21
221.341	0.21
221.559	-0.05
221.777	-0.14
221.995	-0.18
222.214	-0.04
222.432	-0.17
222.65	0.05
222.868	-0.05
223.086	-0.02
223.305	-0.01
223.523	-0.1
223.741	0.22
223.959	-0.06
224.177	-0.36
224.395	-0.21
224.613	0.02
224.831	-0.13
225.049	-0.21
225.267	-0
225.485	-0.04
225.703	-0.29
225.921	-0.1
226.139	-0.2
226.357	0.08
226.575	0.04
226.793	-0.24
227.011	0.4
227.229	0.06
227.447	0.11
227.665	-0.13
227.883	-0.22
228.1	0.13
228.318	-0.03
228.536	-0.32
228.754	-0.22
228.972	0
229.189	-0.07
229.407	-0.11
229.625	-0.14
229.843	0.18
230.06	-0.01
230.278	-0.24
230.496	-0.13
230.713	0.02
230.931	0.13
231.149	-0.16
231.366	-0.3
231.584	-0.07
231.801	0.23
232.019	-0.03
232.236	-0.24
232.454	-0.23
232.671	0.03
232.889	-0
233.106	-0.11
233.324	-0.06
233.541	0.04
233.759	-0.09
233.976	-0.14
234.194	-0.04
234.411	-0.01
234.628	-0.12
234.846	-0.06
235.063	0.03
235.28	-0.11
235.498	-0.02
235.715	-0.14
235.932	0.1
236.149	0.06
236.367	-0.19
236.584	-0.14
236.801	-0.05
237.018	-0.01
237.236	0.06
237.453	-0.23
237.67	0.12
237.887	-0.08
238.104	-0.05
238.321	-0.14
238.538	-0.11
238.755	0.11
238.973	-0.25
239.19	-0.05
239.407	-0.08
239.624	-0.06
239.841	-0.09
240.058	-0.13
240.275	0.01
240.492	-0.04
240.709	-0.02
240.925	-0.08
241.142	-0.01
241.359	-0.09
241.576	-0.16
241.793	-0.05
242.01	-0.11
242.227	0.04
242.444	-0.01
242.66	-0.03
242.877	0.08
243.094	-0.1
243.311	-0.04
243.527	-0.03
243.744	0.11
243.961	0.05
244.178	-0.12
244.394	-0.09
244.611	0.05
244.828	0.17
245.044	-0.07
245.261	-0.03
245.477	0.01
245.694	0
245.911	-0.12
246.127	-0.02
246.344	0.12
246.56	-0.04
246.777	-0.04
246.993	-0.01
247.21	0
247.426	0.1
247.643	-0.15
247.859	-0.17
248.076	-0.1
248.292	0.16
248.508	-0.1
248.725	-0.05
248.941	-0.01
249.157	0.07
249.374	-0.05
249.59	-0.1
249.806	0.02
250.023	-0.04
250.239	-0.15
250.455	-0.1
250.671	-0.05
250.888	-0.02
251.104	-0.01
251.32	-0.06
251.536	-0.1
251.752	-0.07
251.969	0
252.185	0.02
252.401	0.17
252.617	-0.03
252.833	-0.04
253.049	-0.07
253.265	-0.07
253.481	0
253.697	-0.04
253.913	-0.08
254.129	-0.03
254.345	-0.03
254.561	-0.06
254.777	0.05
254.993	0.05
255.209	-0.02
255.425	-0.04
255.641	-0.06
255.857	0.1
256.073	0.05
256.288	-0.15
256.504	-0.03
256.72	-0.03
256.936	0.07
257.152	-0.07
257.367	-0.12
257.583	0.03
257.799	0.03
258.015	-0.06
258.23	-0.06
258.446	0.06
258.662	-0.08
258.877	-0.08
259.093	-0.09
259.309	-0.01
259.524	-0.01
259.74	-0.09
259.955	-0.17
260.171	-0
260.387	-0
260.602	0.04
260.818	0
261.033	-0.09
261.249	-0.12
261.464	-0.09
261.68	-0.12
261.895	0.09
262.11	-0
262.326	-0.06
262.541	-0.11
262.757	0.03
262.972	0.01
263.187	0.04
263.403	0.03
263.618	0.02
263.833	-0.01
264.049	-0.09
264.264	0.01
264.479	0.03
264.694	0.05
264.91	-0.11
265.125	-0.05
265.34	0.05
265.555	0.13
265.77	-0
265.986	-0.05
266.201	0
266.416	0.02
266.631	-0.03
266.846	-0.02
267.061	0.03
267.276	0.03
267.491	-0.19
267.706	0.06
267.921	0.02
268.136	-0.04
268.351	-0.01
268.566	-0.13
268.781	0.06
268.996	-0
269.211	-0.03
269.426	-0.11
269.641	-0.06
269.856	-0.08
270.071	-0.05
270.285	-0.11
270.5	-0.02
270.715	0.08
270.93	-0.02
271.145	-0.02
271.359	0.03
271.574	-0.11
271.789	-0.07
272.004	-0.01
272.218	-0.1
272.433	0.04
272.648	-0.07
272.862	-0.04
273.077	-0.01
273.292	-0.01
273.506	-0.07
273.721	-0.1
273.936	0.04
274.15	0.01
274.365	-0.07
274.579	0.04
274.794	-0.05
275.008	0.01
275.223	-0.13
275.437	-0.06
275.652	0.01
275.866	0
276.081	-0.02
276.295	0.03
276.509	-0.04
276.724	-0.04
276.938	0.02
277.153	0.02
277.367	0.06
277.581	-0.06
277.796	-0.04
278.01	-0.08
278.224	0.04
278.438	0.1
278.653	0
278.867	-0.1
279.081	-0.19
279.295	0.01
279.51	-0.01
279.724	-0.05
279.938	0.05
280.152	-0
280.366	-0.1
280.58	0.04
280.794	0.08
281.008	0.05
281.222	0.05
281.437	0.12
281.651	-0.02
281.865	0.06
282.079	-0.06
282.293	-0.09
282.507	-0.04
282.721	0.01
282.935	-0.03
283.148	-0.12
283.362	-0.06
283.576	-0.01
283.79	-0.01
284.004	-0.04
284.218	-0.02
284.432	-0.06
284.646	-0.04
284.859	-0.03
285.073	-0.05
285.287	-0.04
285.501	-0.07
285.714	0.01
285.928	0.02
286.142	-0.01
286.356	-0.03
286.569	-0.01
286.783	0.06
286.997	-0.01
287.21	-0.03
287.424	-0.06
287.637	-0.01
287.851	-0
288.065	-0.04
288.278	-0.04
288.492	0.02
288.705	-0.02
288.919	0.02
289.132	-0.08
289.346	0.01
289.559	-0.08
289.773	-0.1
289.986	-0.07
290.2	0.02
290.413	0.04
290.626	-0.1
290.84	0
291.053	-0.04
291.267	0.05
291.48	0.03
291.693	0.01
291.906	-0.05
292.12	-0.02
292.333	-0.09
292.546	-0
292.76	0.08
292.973	0.02
293.186	0.01
293.399	-0.06
293.612	0.06
293.826	-0.06
294.039	-0.03
294.252	-0.02
294.465	0.01
294.678	0.01
294.891	-0.01
295.104	-0.02
295.317	-0.03
295.53	-0.03
295.743	-0.01
295.956	-0.04
296.169	0.02
296.382	0.05
296.595	-0
296.808	-0.06
297.021	0.04
297.234	-0.01
297.447	-0
297.66	0
297.873	0.05
298.086	0.02
298.299	-0.06
298.511	-0.08
298.724	-0.03
298.937	-0.04
299.15	-0.04
299.363	-0
299.575	0.02
299.788	0.01
300.001	-0.01
300.213	-0
300.426	-0.04
300.639	-0.02
300.852	-0.04
301.064	0.03
301.277	0.05
301.489	0.02
301.702	0.03
301.915	-0.05
302.127	0
302.34	0.01
302.552	-0
302.765	-0
302.977	0.01
303.19	-0.03
303.402	-0.01
303.615	-0.01
303.827	-0.04
304.04	-0.04
304.252	0.01
304.464	-0.03
304.677	0.1
304.889	0.05
305.102	-0.02
305.314	-0.07
305.526	-0.01
305.739	0
305.951	-0.03
306.163	-0.05
306.375	0.08
306.588	-0.05
306.8	-0.02
307.012	-0.04
307.224	0.01
307.436	0.09
307.649	-0.08
307.861	0.03
308.073	0.03
308.285	-0.03
308.497	-0.05
308.709	-0.01
308.921	-0.01
309.133	0.04
309.346	-0.01
309.558	-0.03
309.77	0.03
309.982	0.05
310.194	0.02
310.406	-0.04
310.617	0.08
310.829	-0.02
311.041	0
311.253	-0.07
311.465	-0.04
311.677	-0.02
311.889	-0.02
312.101	0
312.313	0.02
312.524	0.02
312.736	-0.05
312.948	0.02
313.16	0.06
313.372	0.01
313.583	-0.01
313.795	0.01
314.007	-0.03
314.218	0.06
314.43	0.02
314.642	-0.04
314.853	-0.07
315.065	0.02
315.277	0.01
315.488	-0.02
315.7	0.01
315.912	0.02
316.123	-0.02
316.335	-0.01
316.546	0.1
316.758	-0
316.969	-0.02
317.181	0.01
317.392	-0.04
317.604	0.04
317.815	-0.05
318.026	-0.04
318.238	-0.03
318.449	0.02
318.661	-0.1
318.872	-0.05
319.083	-0.08
319.295	0.02
319.506	-0.03
319.717	0.01
319.929	0.04
320.14	-0.01
320.351	-0.01
320.562	-0.05
320.774	-0.02
320.985	0.01
321.196	-0.1
321.407	-0.08
321.618	0.02
321.829	0.02
322.041	0.03
322.252	0
322.463	0.03
322.674	0.01
322.885	-0.05
323.096	-0.04
323.307	0
323.518	0.02
323.729	-0.01
323.94	0.04
324.151	-0.03
324.362	-0.02
324.573	-0.04
324.784	-0.05
324.995	0.06
325.206	-0.01
325.417	-0.02
325.628	-0.05
325.838	-0.02
326.049	-0.02
326.26	-0.03
326.471	-0.05
326.682	0.03
326.892	-0.03
327.103	-0.07
327.314	-0.08
327.525	0.07
327.735	0.02
327.946	-0.04
328.157	-0
328.368	-0.01
328.578	-0.05
328.789	-0.02
328.999	-0.02
329.21	-0.07
329.421	0.02
329.631	-0.06
329.842	-0.04
330.052	0.02
330.263	-0
330.473	0.04
330.684	-0.03
330.894	-0.01
331.105	0.02
331.315	0
331.526	-0.07
331.736	0.09
331.947	0.05
332.157	0.01
332.367	-0.04
332.578	0.05
332.788	0.04
332.999	0.02
333.209	-0.02
333.419	-0.07
333.629	0
333.84	0.02
334.05	0.04
334.26	0.04
334.47	0.03
334.681	0.01
334.891	-0.05
335.101	0.01
335.311	0.07
335.521	-0.03
335.732	-0.05
335.942	0.04
336.152	0.05
336.362	-0.01
336.572	0
336.782	0.03
336.992	-0.01
337.202	-0.03
337.412	-0.06
337.622	0.02
337.832	-0.01
338.042	-0.01
338.252	-0.03
338.462	-0.03
338.672	-0.02
338.882	0
339.092	-0.04
339.302	0.06
339.511	0.01
339.721	-0.03
339.931	-0.07
340.141	0
340.351	0.03
340.561	-0.01
340.77	-0.05
340.98	-0.02
341.19	0.05
341.4	-0.04
341.609	-0.04
341.819	-0.05
342.029	-0.05
342.238	0.01
342.448	-0.06
342.658	0.03
342.867	0.02
343.077	-0.01
343.286	0.01
343.496	0.01
343.706	0.08
343.915	-0.02
344.125	-0.01
344.334	-0.01
344.544	-0.07
344.753	-0.02
344.963	-0.03
345.172	-0.04
345.381	-0.02
345.591	-0.05
345.8	-0.02
346.01	0.05
346.219	0.05
346.428	-0.13
346.638	-0
346.847	-0.01
347.056	0.05
347.266	-0.04
347.475	0.02
347.684	0.03
347.893	0.01
348.103	0.03
348.312	-0.03
348.521	-0.06
348.73	-0.02
348.94	-0.02
349.149	-0.04
349.358	-0.02
349.567	-0.03
349.776	-0.04
349.985	-0.04
350.194	0.03
350.403	0.04
350.612	-0.05
350.821	0
351.03	0.01
351.239	-0.06
351.448	-0.03
351.657	-0.01
351.866	0.06
352.075	0.01
352.284	0.01
352.493	-0.03
352.702	0.04
352.911	0.02
353.12	0.04
353.329	-0.05
353.538	0
353.746	-0.01
353.955	-0.03
354.164	0.01
354.373	-0.01
354.582	0.03
354.79	-0
354.999	0.05
355.208	-0.01
355.416	0.06
355.625	-0.07
355.834	-0.01
356.042	0.01
356.251	-0.01
356.46	-0.02
356.668	0.01
356.877	0.03
357.085	0.02
357.294	-0.1
357.503	0.04
357.711	-0.01
357.92	0.07
358.128	0.01
358.337	-0.01
358.545	0.03
358.754	-0.01
358.962	0.02
359.17	-0.03
359.379	-0.01
359.587	0
359.796	0.01
360.004	0
360.212	0.04
360.421	0.04
360.629	-0.02
360.837	-0
361.046	0.05
361.254	0.1
361.462	-0.03
361.67	-0.02
361.879	-0.03
362.087	0.07
362.295	0.02
362.503	-0.04
362.711	-0.02
362.92	0.01
363.128	-0.06
363.336	-0.05
363.544	-0.07
363.752	-0.05
363.96	-0.02
364.168	-0.04
364.376	0
364.584	-0
364.792	-0.02
365	0.03
365.208	-0.01
365.416	0.01
365.624	0.03
365.832	-0.05
366.04	0.05
366.248	0.01
366.456	0.04
366.664	-0.02
366.872	-0.02
367.079	0
367.287	0.02
367.495	-0.04
367.703	-0.02
367.911	-0.03
368.118	-0.01
368.326	-0.03
368.534	-0.03
368.742	0.06
368.949	-0.07
369.157	-0.01
369.365	0.01
369.572	-0.03
369.78	-0.04
369.988	0.03
370.195	0.02
370.403	0.02
370.61	-0.01
370.818	0.07
371.026	0.05
371.233	-0.01
371.441	0.04
371.648	-0.02
371.856	-0
372.063	0.04
372.271	-0.03
372.478	-0.02
372.685	-0.05
372.893	0.06
373.1	0.02
373.308	-0.01
373.515	0.06
373.722	0.02
373.93	0.01
374.137	0.04
374.344	0.11
374.552	0.06
374.759	0.04
374.966	0.02
375.173	-0.01
375.381	0.05
375.588	0.01
375.795	-0.05
376.002	0.01
376.209	-0.01
376.417	0.01
376.624	-0.02
376.831	0.06
377.038	0
377.245	-0.07
377.452	-0.01
377.659	0.04
377.866	-0.04
378.073	-0.01
378.28	0.02
378.487	0.08
378.694	0.03
378.901	0.04
379.108	0.03
379.315	0.07
379.522	0.07
379.729	0.01
379.936	0.02
380.143	0.05
380.35	0.06
380.557	0.03
380.763	0.06
380.97	0.09
381.177	0.1
381.384	0.05
381.591	0.07
381.797	0.01
382.004	0.03
382.211	0.11
382.418	0.05
382.624	0.07
382.831	0.08
383.038	0.07
383.244	0.06
383.451	0.03
383.658	0.05
383.864	0.05
384.071	-0.02
384.277	0.07
384.484	0
384.69	0.02
384.897	-0
385.103	-0.01
385.31	-0.03
385.516	0.03
385.723	-0.02
385.929	-0.01
386.136	-0.02
386.342	0.03
386.549	-0.01
386.755	0.09
386.961	0.03
387.168	-0.02
387.374	0.02
387.58	0.02
387.787	-0.01
387.993	-0
388.199	0
388.406	-0.01
388.612	-0.01
388.818	-0.05
389.024	-0
389.231	0.02
389.437	0.1
389.643	0.04
389.849	-0.05
390.055	0
390.261	0.02
390.467	-0.01
390.674	-0.02
390.88	0.02
391.086	0.09
391.292	-0.03
391.498	0.04
391.704	0.04
391.91	-0.03
392.116	-0.05
392.322	-0.07
392.528	-0.03
392.734	-0.02
392.94	-0.02
393.146	0.03
393.352	0
393.557	-0.04
393.763	-0
393.969	-0.01
394.175	0.01
394.381	-0
394.587	-0.07
394.792	-0.03
394.998	0
395.204	0.05
395.41	0.01
395.615	0.01
395.821	0
396.027	0.02
396.233	-0.05
396.438	-0.01
396.644	0.1
396.85	0.06
397.055	-0.01
397.261	-0.01
397.466	-0.03
397.672	-0.05
397.878	0.03
398.083	0.03
398.289	-0.05
398.494	0.02
398.7	0
398.905	-0.09
399.111	0.05
399.316	-0.05
399.522	0.02
399.727	-0.04
399.932	-0.02
400.138	0
400.343	0.02
400.549	0.04
400.754	-0.02
400.959	-0
401.165	-0.01
401.37	-0.01
401.575	0.07
401.78	-0.02
401.986	-0.04
402.191	0.01
402.396	-0.02
402.601	0.02
402.807	-0
403.012	0.01
403.217	0.04
403.422	-0.04
403.627	-0.04
403.832	-0.01
404.037	-0.03
404.243	-0.01
404.448	-0.01
404.653	-0.06
404.858	0.03
405.063	-0.03
405.268	-0.02
405.473	-0.04
405.678	-0.06
405.883	0.07
406.088	0.04
406.293	-0.06
406.498	-0.04
406.703	0.03
406.907	0
407.112	-0.02
407.317	-0.03
407.522	-0.01
407.727	-0.06
407.932	0.05
408.136	0.08
408.341	-0.01
408.546	-0.01
408.751	-0.02
408.956	-0.07
409.16	0
409.365	-0.03
409.57	-0.02
409.774	0.02
409.979	0.05
410.184	-0
410.388	-0.04
410.593	0.01
410.798	-0.02
411.002	-0.04
411.207	0
411.411	0.04
411.616	-0.09
411.82	-0.01
412.025	0.04
412.229	-0.03
412.434	0.03
412.638	-0.04
412.843	-0
413.047	-0.02
413.252	-0.06
413.456	-0.04
413.66	0.04
413.865	-0.05
414.069	0.03
414.273	-0.05
414.478	0
414.682	-0.03
414.886	-0
415.091	-0.06
415.295	-0.06
415.499	-0.02
415.703	-0.05
415.908	0.06
416.112	-0.07
416.316	-0.04
416.52	-0.03
416.724	-0.07
416.929	-0.03
417.133	0.07
417.337	-0.03
417.541	-0.08
417.745	-0.04
417.949	-0.03
418.153	-0.01
418.357	-0.09
418.561	0.02
418.765	-0.02
418.969	0.1
419.173	0
419.377	-0.05
419.581	0.08
419.785	-0.05
419.989	-0.08
420.193	-0.04
420.397	-0.02
420.601	0.05
420.804	0.01
421.008	-0.03
421.212	0.01
421.416	0.02
421.62	-0.1
421.823	-0.01
422.027	0.07
422.231	0.02
422.435	-0.03
422.638	-0
422.842	0.04
423.046	-0.05
423.249	-0.01
423.453	0.09
423.657	-0.01
423.86	-0.02
424.064	-0.05
424.268	0.07
424.471	-0.06
424.675	0.08
424.878	0.08
425.082	-0.01
425.285	-0
425.489	0.01
425.692	-0
425.896	-0.04
426.099	0.01
426.303	-0.04
426.506	-0.07
426.71	0.01
426.913	0
427.116	0.05
427.32	-0.02
427.523	0.05
427.726	0.09
427.93	-0.07
428.133	0.03
428.336	-0.05
428.54	-0.01
428.743	0.01
428.946	0.02
429.149	-0.04
429.353	-0
429.556	-0.06
429.759	-0.03
429.962	-0.01
430.165	-0
430.368	0.01
430.571	-0.02
430.775	0.02
430.978	-0
431.181	0
431.384	0.05
431.587	0
431.79	-0.02
431.993	-0.07
432.196	-0
432.399	-0.05
432.602	0.04
432.805	-0.01
433.008	-0.03
433.211	-0.08
433.414	0.04
433.616	0.01
433.819	-0.05
434.022	-0.08
434.225	0.02
434.428	0.03
434.631	0.07
434.833	-0.01
435.036	-0
435.239	0.08
435.442	0.01
435.645	-0.06
435.847	0.03
436.05	0.04
436.253	0.01
436.455	-0.04
436.658	-0.01
436.861	0.08
437.063	-0.04
437.266	-0.01
437.468	-0.01
437.671	0.13
437.874	0.01
438.076	-0.09
438.279	-0.04
438.481	-0
438.684	-0.05
438.886	0.05
439.089	-0.05
439.291	0.01
439.494	0.05
439.696	-0.05
439.899	-0.01
440.101	0.03
440.303	-0.06
440.506	0.08
440.708	0.04
440.91	0.06
441.113	0.02
441.315	0.03
441.517	-0.03
441.72	0.06
441.922	-0.03
442.124	-0.01
442.326	0.05
442.529	0.1
442.731	-0.04
442.933	0.11
443.135	0.04
443.337	-0
443.539	-0.03
443.742	-0.01
443.944	0.01
444.146	-0.01
444.348	-0.03
444.55	0.01
444.752	0.03
444.954	0
445.156	0.03
445.358	0.03
445.56	0.08
445.762	0
445.964	0.07
446.166	0.06
446.368	-0.01
446.57	0.09
446.772	0.02
446.974	0.04
447.175	0.05
447.377	0.01
447.579	0.1
447.781	-0.03
447.983	0.06
448.184	0.07
448.386	0.05
448.588	0.03
448.79	0.07
448.991	0.03
449.193	0.03
449.395	0.04
449.597	0.11
449.798	0.05
450	0.08
450.202	0.04
450.403	0.03
450.605	0.09
450.806	0.02
451.008	-0.01
451.21	0.01
451.411	0.04
451.613	0.03
451.814	0.04
452.016	0.09
452.217	0.05
452.419	0.12
452.62	0.03
452.821	0.09
453.023	0.09
453.224	0.11
453.426	0.06
453.627	0.04
453.828	0.08
454.03	0.05
454.231	0.14
454.432	-0.01
454.634	0.13
454.835	-0
455.036	-0.05
455.238	0.07
455.439	0.11
455.64	-0.02
455.841	-0.02
456.042	0.1
456.244	0.03
456.445	-0.04
456.646	-0.04
456.847	0
457.048	0.04
457.249	0.07
457.45	0.22
457.651	-0.03
457.852	0.04
458.054	0.05
458.255	-0.03
458.456	0.05
458.657	0
458.858	-0.04
459.058	0.02
459.259	0.08
459.46	0.03
459.661	-0.01
459.862	0.12
460.063	0
460.264	0.07
460.465	-0.07
460.666	0.14
460.866	-0.01
461.067	0.03
461.268	-0.03
461.469	-0.03
461.67	0.03
461.87	-0.01
462.071	-0.02
462.272	-0.04
462.473	0
462.673	0.01
462.874	-0.06
463.075	0.06
463.275	-0
463.476	0.02
463.676	0.01
463.877	0.01
464.078	-0
464.278	0.04
464.479	-0.01
464.679	-0.04
464.88	-0.02
465.08	0.07
465.281	-0.05
465.481	-0.05
465.682	0.03
465.882	0.06
466.083	-0.01
466.283	0.01
466.483	0.01
466.684	-0.02
466.884	-0.04
467.085	0.03
467.285	0.07
467.485	-0.03
467.686	-0.03
467.886	-0.02
468.086	0
468.286	-0.02
468.487	0.03
468.687	-0.06
468.887	-0.05
469.087	0.02
469.287	-0.05
469.488	-0.04
469.688	0.02
469.888	0.04
470.088	-0.02
470.288	0.07
470.488	0.04
470.688	-0.04
470.888	-0.03
471.088	-0.01
471.288	-0.01
471.488	0.05
471.688	0.01
471.888	-0.05
472.088	0.05
472.288	0.01
472.488	-0.01
472.688	-0.02
472.888	0.01
473.088	0.01
473.288	-0.01
473.488	-0.01
473.688	0.08
473.887	-0
474.087	-0.03
474.287	0
474.487	-0.05
474.687	0.04
474.886	-0.01
475.086	-0.02
475.286	0.01
475.486	-0.02
475.685	-0.03
475.885	-0.01
476.085	-0.03
476.284	0.02
476.484	-0.01
476.684	0.01
476.883	0.02
477.083	-0
477.282	-0.01
477.482	0.04
477.681	0.03
477.881	0.03
478.08	-0.06
478.28	-0.04
478.479	-0.01
478.679	0.1
478.878	-0.03
479.078	-0.02
479.277	-0.04
479.477	-0.02
479.676	-0
479.875	-0.01
480.075	-0.07
480.274	-0
480.473	0.03
480.673	-0.05
480.872	0.04
481.071	-0
481.271	-0.01
481.47	-0.02
481.669	-0.03
481.868	-0.02
482.067	-0.05
482.267	-0.04
482.466	-0.03
482.665	-0.04
482.864	-0.07
483.063	-0.06
483.262	0.01
483.461	0.05
483.661	0.01
483.86	-0.02
484.059	0
484.258	-0
484.457	-0.03
484.656	-0.04
484.855	-0
485.054	-0.06
485.253	-0.04
485.452	-0.03
485.651	-0.02
485.849	-0
486.048	-0.03
486.247	-0.06
486.446	-0.03
486.645	-0.04
486.844	-0.04
487.043	-0.04
487.241	-0.01
487.44	-0.02
487.639	-0.01
487.838	0.01
488.037	-0
488.235	0.05
488.434	0.01
488.633	-0.02
488.831	0
489.03	0.01
489.229	0.01
489.427	0.01
489.626	0.05
489.825	0.06
490.023	-0
490.222	-0.03
490.42	0.02
490.619	0.03
490.817	0.02
491.016	-0.03
491.214	0.04
491.413	-0.02
491.611	-0.01
491.81	-0.04
492.008	0
492.207	0.01
492.405	0.02
492.604	-0.05
492.802	-0.02
493	0
493.199	-0.03
493.397	-0.01
493.595	-0.03
493.794	-0.03
493.992	0.04
494.19	-0.02
494.388	0.01
494.587	-0.01
494.785	-0.01
494.983	-0.02
495.181	-0.01
495.379	-0
495.578	-0.02
495.776	-0
495.974	0
496.172	-0.01
496.37	-0.03
496.568	-0.03
496.766	-0.04
496.964	0.03
497.162	-0.02
497.36	-0.04
497.558	-0.01
497.756	0.02
497.954	-0.01
498.152	-0.02
498.35	-0
498.548	-0.04
498.746	0
498.944	-0.05
499.142	-0.03
499.34	-0.04
499.538	-0.02
499.736	-0.03
499.933	0.02
500.131	0.01
500.329	-0
500.527	0.02
500.725	0.02
500.922	0.01
501.12	0.01
501.318	-0.01
501.516	-0.02
501.713	0
501.911	-0.02
502.109	-0.06
502.306	-0
502.504	-0
502.701	-0
502.899	-0.03
503.097	0.04
503.294	0
503.492	-0.02
503.689	-0.01
503.887	0.03
504.084	0.04
504.282	-0.03
504.479	-0.06
504.677	-0
504.874	-0.04
505.072	-0.02
505.269	-0.02
505.466	0.01
505.664	0
505.861	-0.04
506.059	-0.04
506.256	0.01
506.453	-0.04
506.651	0.02
506.848	0
507.045	0
507.242	0.01
507.44	-0.02
507.637	-0.01
507.834	0.01
508.031	0.03
508.229	-0.05
508.426	-0.01
508.623	0
508.82	-0.03
509.017	-0.03
509.214	-0.01
509.411	0
509.608	-0.04
509.805	-0.01
510.003	-0.02
510.2	-0.02
510.397	0.01
510.594	-0.02
510.791	-0.03
510.988	-0.01
511.184	0.03
511.381	-0.02
511.578	-0.02
511.775	0.03
511.972	-0.03
512.169	-0
512.366	-0.02
512.563	0.03
512.76	-0.02
512.956	0.03
513.153	-0.03
513.35	-0.03
513.547	-0.02
513.744	-0.01
513.94	-0.04
514.137	-0
514.334	0.01
514.53	-0
514.727	0.01
514.924	0.03
515.12	-0.02
515.317	-0.04
515.514	-0.02
515.71	-0.03
515.907	0.01
516.103	-0
516.3	-0.01
516.497	0.01
516.693	0.05
516.89	0.02
517.086	-0.02
517.283	0.04
517.479	0.01
517.676	-0.01
517.872	-0.01
518.068	-0.02
518.265	-0.01
518.461	-0.03
518.658	-0.03
518.854	0
519.05	-0.03
519.247	-0.03
519.443	0.01
519.639	0.02
519.836	0
520.032	-0.02
520.228	-0
520.424	0.03
520.621	0
520.817	0.01
521.013	0.01
521.209	-0.01
521.405	0.01
521.601	-0.01
521.798	-0.01
521.994	0.03
522.19	-0.01
522.386	-0.04
522.582	-0.02
522.778	0
522.974	-0.02
523.17	-0.02
523.366	0.02
523.562	0
523.758	0
523.954	-0.04
524.15	0
524.346	0.01
524.542	-0.01
524.738	-0
524.934	-0.01
525.129	-0.02
525.325	-0.01
525.521	-0.01
525.717	0.01
525.913	-0
526.109	-0
526.304	-0.01
526.5	0
526.696	-0
526.892	-0.02
527.087	0
527.283	-0.03
527.479	0.02
527.674	-0.03
527.87	-0.02
528.066	-0.01
528.261	0.02
528.457	0.01
528.653	-0.03
528.848	-0.01
529.044	-0.01
529.239	-0.01
529.435	0.02
529.63	0.01
529.826	0.03
530.021	0.01
530.217	0
530.412	-0.02
530.608	-0.02
530.803	-0
530.999	-0.01
531.194	-0.03
531.389	-0
531.585	-0.04
531.78	-0.02
531.975	0
532.171	0.03
532.366	-0
532.561	-0.01
532.757	-0.03
532.952	-0.01
533.147	-0
533.342	0
533.538	-0.02
533.733	0.01
533.928	0
534.123	-0.01
534.318	-0.04
534.513	0
534.709	-0.02
534.904	-0.02
535.099	-0.03
535.294	-0.01
535.489	-0.01
535.684	-0.02
535.879	-0.03
536.074	-0
536.269	-0.04
536.464	0
536.659	-0.01
536.854	-0.02
537.049	0
537.244	-0.02
537.439	-0.03
537.634	0.01
537.828	0.02
538.023	-0.02
538.218	-0.04
538.413	-0.03
538.608	-0.03
538.803	0.03
538.997	-0.04
539.192	0.01
539.387	0.01
539.582	-0
539.776	0.01
539.971	-0.02
540.166	0
540.36	-0.04
540.555	-0.01
540.75	-0
540.944	-0.01
541.139	-0.05
541.334	-0.03
541.528	-0
541.723	0.01
541.917	-0.04
542.112	-0.06
542.306	-0.02
542.501	0.01
542.695	-0.01
542.89	-0
543.084	0
543.279	-0.02
543.473	-0.02
543.668	-0.02
543.862	0
544.056	0.03
544.251	-0.02
544.445	-0.01
544.64	-0.03
544.834	-0.04
545.028	0
545.222	-0.01
545.417	0.01
545.611	0.01
545.805	-0.03
546	-0.03
546.194	-0.02
546.388	-0.03
546.582	0.01
546.776	0
546.97	-0.01
547.165	-0.01
547.359	0.02
547.553	-0.02
547.747	0.01
547.941	0
548.135	-0.01
548.329	0.01
548.523	0.02
548.717	0.01
548.911	-0.02
549.105	-0.02
549.299	-0.01
549.493	0.02
549.687	-0
549.881	0
550.075	-0.01
550.269	-0.02
550.463	-0
550.657	-0.01
550.85	0.01
551.044	-0.01
551.238	-0.01
551.432	-0.03
551.626	-0.06
551.82	-0
552.013	-0.04
552.207	0
552.401	0.02
552.594	0
552.788	-0.02
552.982	-0
553.176	-0.01
553.369	-0
553.563	0.01
553.756	-0.01
553.95	-0.02
554.144	-0
554.337	0.01
554.531	0
554.724	-0.01
554.918	0.01
555.111	-0.01
555.305	-0.02
555.498	0.04
555.692	0
555.885	-0.03
556.079	0
556.272	-0.04
556.466	0.01
556.659	0
556.852	-0.01
557.046	-0.02
557.239	0.01
557.432	-0.03
557.626	-0.02
557.819	-0
558.012	0.02
558.206	0.01
558.399	-0
558.592	-0
558.785	-0.02
558.979	0.01
559.172	0.02
559.365	-0
559.558	0.01
559.751	-0.03
559.944	-0.02
560.138	-0.03
560.331	-0.01
560.524	0
560.717	-0.02
560.91	-0.02
561.103	0
561.296	-0.02
561.489	-0.01
561.682	-0.01
561.875	0.04
562.068	0.02
562.261	-0.02
562.454	0.04
562.647	-0.01
562.84	0.02
563.032	-0.02
563.225	0.01
563.418	-0.02
563.611	-0.01
563.804	-0
563.997	-0.03
564.19	-0.04
564.382	-0.02
564.575	-0.02
564.768	-0
564.961	-0.03
565.153	-0.04
565.346	0.01
565.539	0.02
565.731	0.03
565.924	0
566.117	-0.02
566.309	-0
566.502	-0.02
566.695	-0.02
566.887	-0
567.08	-0.04
567.272	0
567.465	-0.03
567.657	-0
567.85	-0.02
568.042	0
568.235	0.01
568.427	-0.01
568.62	-0.01
568.812	0.01
569.005	-0.02
569.197	-0.04
569.389	0.02
569.582	0
569.774	0.01
569.966	-0.04
570.159	-0.02
570.351	-0.01
570.543	-0.02
570.736	-0.03
570.928	-0.04
571.12	-0
571.312	-0.03
571.505	-0.04
571.697	0.01
571.889	-0.03
572.081	-0.01
572.273	-0.01
572.465	0.03
572.658	-0.02
572.85	-0.01
573.042	-0.02
573.234	-0.01
573.426	0.03
573.618	-0.05
573.81	-0.01
574.002	0.03
574.194	0.01
574.386	-0.03
574.578	-0.07
574.77	-0.06
574.962	-0.01
575.154	-0.04
575.346	-0.03
575.538	-0.01
575.729	-0.02
575.921	-0.02
576.113	-0.04
576.305	0.01
576.497	-0.02
576.689	-0
576.88	-0.01
577.072	0.01
577.264	0
577.456	-0.02
577.647	-0.08
577.839	0.03
578.031	0.02
578.223	-0.02
578.414	-0.04
578.606	0.02
578.798	-0
578.989	-0.04
579.181	-0.02
579.372	-0
579.564	-0.03
579.755	-0.01
579.947	-0.01
580.139	0.04
580.33	-0.05
580.522	-0.01
580.713	-0.07
580.905	-0.01
581.096	0.01
581.287	-0.01
581.479	0.02
581.67	0.01
581.862	0.02
582.053	-0.02
582.244	-0.05
582.436	-0.01
582.627	0.01
582.818	-0.02
583.01	-0.04
583.201	0.03
583.392	0.01
583.583	-0.01
583.775	-0.03
583.966	-0.01
584.157	-0.03
584.348	-0.01
584.54	-0.03
584.731	0.01
584.922	0
585.113	-0.05
585.304	0.02
585.495	0.02
585.686	-0
585.877	0.01
586.068	-0.01
586.259	0
586.45	0.01
586.641	-0.02
586.832	-0.06
587.023	0.01
587.214	-0.01
587.405	0
587.596	-0.04
587.787	0.02
587.978	-0.03
588.169	-0.03
588.36	-0.04
588.551	0.01
588.742	-0.03
588.932	-0.01
589.123	0
589.314	0.04
589.505	0.02
589.696	0
589.886	-0.03
590.077	-0.06
590.268	0.01
590.458	-0.06
590.649	-0.03
590.84	0.01
591.03	-0.04
591.221	-0.06
591.412	-0.06
591.602	0.03
591.793	-0
591.984	-0.05
592.174	-0.02
592.365	0.04
592.555	-0.04
592.746	0.05
592.936	0.01
593.127	0.01
593.317	0.03
593.508	-0.01
593.698	-0.02
593.889	-0.01
594.079	-0.01
594.269	-0.06
594.46	-0.01
594.65	-0.01
594.84	-0
595.031	-0
595.221	-0.03
595.411	-0.07
595.602	0.02
595.792	-0.04
595.982	-0.01
596.172	0.05
596.363	0.01
596.553	-0.01
596.743	-0.03
596.933	-0.02
597.123	0.03
597.314	-0.02
597.504	-0.03
597.694	0.02
597.884	0
598.074	0
598.264	-0.02
598.454	0
598.644	-0.02
598.834	-0.01
599.024	-0.09
599.214	-0.02
599.404	-0.02
599.594	-0.02
599.784	-0.06
599.974	0.02
600.164	0
600.354	-0.03
600.544	-0.05
600.734	-0.01
600.924	0.03
601.114	-0.04
601.303	-0.01
601.493	0.02
601.683	-0.02
601.873	0.01
602.063	-0.06
602.252	0.01
602.442	-0.1
602.632	-0.04
602.821	-0.04
603.011	-0.01
603.201	-0.02
603.39	-0.04
603.58	-0.02
603.77	-0
603.959	0.02
604.149	-0.02
604.339	-0.01
604.528	0.03
604.718	0.02
604.907	-0.03
605.097	-0.02
605.286	0.01
605.476	0
605.665	-0.01
605.855	-0.02
606.044	0.04
606.234	0.01
606.423	-0.02
606.612	-0.04
606.802	0.01
606.991	-0.01
607.181	-0.02
607.37	-0.07
607.559	-0.02
607.749	-0.06
607.938	-0
608.127	-0.03
608.316	-0.02
608.506	0.01
608.695	-0.02
608.884	-0.03
609.073	-0.02
609.263	0.05
609.452	0.02
609.641	-0.02
609.83	-0.01
610.019	-0.01
610.208	-0.07
610.397	-0.02
610.586	0
610.775	-0.03
610.965	-0.02
611.154	-0.04
611.343	0.02
611.532	0.01
611.721	-0.06
611.91	-0.02
612.099	0.01
612.287	-0.03
612.476	-0.04
612.665	-0.01
612.854	-0.04
613.043	0.03
613.232	-0.03
613.421	-0.06
613.61	-0.02
613.798	-0.02
613.987	0.03
614.176	-0.03
614.365	0.05
614.554	0.03
614.742	0.03
614.931	-0.05
615.12	0.02
615.309	-0.03
615.497	-0.01
615.686	-0.04
615.875	-0.01
616.063	0
616.252	-0.03
616.44	-0.02
616.629	-0
616.818	0.02
617.006	-0.01
617.195	-0.01
617.383	0
617.572	0
617.76	-0.01
617.949	-0.02
618.137	0.02
618.326	0.02
618.514	-0.04
618.703	-0.05
618.891	0.04
619.079	-0.05
619.268	0
619.456	-0.04
619.644	0.05
619.833	0.01
620.021	-0.06
620.209	-0.06
620.398	0.03
620.586	-0.01
620.774	0.01
620.962	-0.02
621.151	0.05
621.339	-0
621.527	-0.04
621.715	-0.05
621.903	-0.04
622.092	-0.04
622.28	-0
622.468	-0
622.656	-0.04
622.844	0.06
623.032	-0
623.22	-0.05
623.408	0
623.596	0.03
623.784	0.02
623.972	-0.03
624.16	-0.02
624.348	0.06
624.536	-0.04
624.724	-0.05
624.912	0.05
625.1	0.04
625.288	-0.01
625.476	0
625.664	0.02
625.851	-0.05
626.039	0.01
626.227	-0.02
626.415	0.02
626.603	-0.07
626.79	-0.01
626.978	-0.03
627.166	-0.01
627.354	-0.01
627.541	-0.01
627.729	-0.06
627.917	-0.01
628.104	0.07
628.292	-0
628.48	-0.01
628.667	0.02
628.855	0.02
629.042	0.02
629.23	-0.04
629.418	-0
629.605	-0.01
629.793	-0.03
629.98	-0.03
630.168	-0.03
630.355	0.01
630.543	0.04
630.73	-0.04
630.917	0.03
631.105	0.06
631.292	-0.03
631.48	-0.01
631.667	0.09
631.854	0.01
632.042	-0.03
632.229	-0.02
632.416	-0.02
632.604	-0.01
632.791	-0
632.978	0.03
633.165	0.01
633.353	0.04
633.54	0.05
633.727	-0.05
633.914	0.01
634.101	-0.05
634.289	0.04
634.476	-0.01
634.663	-0.05
634.85	0.03
635.037	-0.02
635.224	-0.06
635.411	0.02
635.598	0.03
635.785	-0.01
635.972	0.01
636.159	0.05
636.346	-0.05
636.533	-0.02
636.72	-0
636.907	-0.02
637.094	0.04
637.281	0.04
637.468	0.03
637.655	-0.01
637.842	0.01
638.029	-0.01
638.215	0.04
638.402	0.01
638.589	-0.03
638.776	0.02
638.963	-0.04
639.149	0.05
639.336	0.08
639.523	0.02
639.709	-0.01
639.896	-0
640.083	0.06
640.27	0.01
640.456	0
640.643	0.02
640.829	-0.04
641.016	-0.01
641.203	-0.03
641.389	0.05
641.576	0.05
641.762	0.04
641.949	0
642.135	0.03
642.322	0.04
642.508	-0.06
642.695	-0
642.881	0.03
643.068	-0.01
643.254	0
643.441	0.06
643.627	0.02
643.813	0.01
644	0.07
644.186	-0.01
644.372	0.05
644.559	0.06
644.745	0.02
644.931	0
645.118	-0
645.304	0.01
645.49	0.03
645.676	0.03
645.862	0.02
646.049	0.07
646.235	0.03
646.421	0.09
646.607	0.09
646.793	-0
646.979	0.01
647.165	0.03
647.352	0.06
647.538	0.05
647.724	0.03
647.91	0.04
648.096	0.06
648.282	0.11
648.468	0.02
648.654	0.04
648.84	0.03
649.026	0.03
649.212	0.03
649.397	0.05
649.583	0.01
649.769	0.05
649.955	0.05
650.141	0.09
650.327	0.13
650.513	0.01
650.698	0.07
650.884	-0.01
651.07	0.05
651.256	0.06
651.442	0.08
651.627	0.05
651.813	0.06
651.999	0.06
652.184	0.08
652.37	0.06
652.556	0.05
652.741	0.12
652.927	0.02
653.113	0.11
653.298	0.1
653.484	0.07
653.669	0.04
653.855	0.05
654.04	0.09
654.226	0.09
654.412	0.03
654.597	0.03
654.782	0.07
654.968	0.1
655.153	0.08
655.339	0.07
655.524	0.05
655.71	0.13
655.895	0.05
656.08	0.07
656.266	0.11
656.451	0.11
656.636	0.04
656.822	0.08
657.007	0.08
657.192	0.06
657.378	0.06
657.563	0.1
657.748	0.06
657.933	0.1
658.118	0.05
658.304	0.07
658.489	0.15
658.674	0.09
658.859	0.05
659.044	0.09
659.229	0.1
659.414	0.1
659.599	0.1
659.785	0.03
659.97	0.09
660.155	0.09
660.34	0.11
660.525	0.07
660.71	0.08
660.895	0.1
661.08	0.08
661.264	0.1
661.449	0.15
661.634	0.15
661.819	0.1
662.004	0.11
662.189	0.03
662.374	0.03
662.559	0.05
662.743	0.04
662.928	0.05
663.113	0.04
663.298	-0.03
663.483	0.03
663.667	0.06
663.852	0.02
664.037	0.08
664.221	0.04
664.406	0.08
664.591	0.03
664.775	0.08
664.96	0.07
665.145	0.04
665.329	0.03
665.514	-0.02
665.698	0.01
665.883	0.02
666.068	0.07
666.252	0.03
666.437	-0
666.621	0.02
666.806	0.03
666.99	-0.01
667.174	-0.02
667.359	0.06
667.543	0.02
667.728	-0.01
667.912	-0.07
668.096	0.04
668.281	0.01
668.465	0.01
668.649	0.03
668.834	-0.05
669.018	0.01
669.202	-0.05
669.387	-0.01
669.571	0.05
669.755	-0.01
669.939	0
670.124	-0.01
670.308	0.04
670.492	0.01
670.676	0.03
670.86	0
671.044	-0.05
671.228	0.01
671.413	-0.02
671.597	-0.01
671.781	-0.03
671.965	0
672.149	-0.05
672.333	-0.02
672.517	-0.04
672.701	0.01
672.885	-0.02
673.069	-0.04
673.253	0.07
673.437	0
673.621	-0.06
673.804	-0.02
673.988	0.01
674.172	-0.01
674.356	-0.03
674.54	-0.02
674.724	0.05
674.908	-0.01
675.091	0.04
675.275	-0.02
675.459	0.03
675.643	0.07
675.826	0.01
676.01	-0.01
676.194	-0.02
676.377	-0.01
676.561	0.01
676.745	-0.04
676.928	-0.02
677.112	0.06
677.296	-0.06
677.479	-0.06
677.663	-0.09
677.846	0.02
678.03	-0.03
678.213	-0.05
678.397	0.02
678.58	-0.04
678.764	-0
678.947	-0.06
679.131	-0.03
679.314	0.06
679.498	-0.01
679.681	-0.02
679.865	0.01
680.048	-0.01
680.231	-0.01
680.415	-0.01
680.598	-0.04
680.781	-0.06
680.965	-0.06
681.148	0.01
681.331	0
681.514	-0.02
681.698	-0.05
681.881	0.01
682.064	-0.01
682.247	0.01
682.43	-0.08
682.614	-0.04
682.797	0.07
682.98	0.05
683.163	-0.08
683.346	0.04
683.529	-0.05
683.712	-0.02
683.895	0.04
684.078	-0.06
684.261	-0.05
684.444	0
684.627	-0.01
684.81	-0.06
684.993	-0.02
685.176	0.02
685.359	-0.03
685.542	-0.01
685.725	0.06
685.908	-0
686.091	-0.02
686.274	0.01
686.457	0.02
686.639	-0.02
686.822	0.02
687.005	-0.04
687.188	0.04
687.371	0.06
687.553	-0.05
687.736	0
687.919	0.09
688.102	0
688.284	-0.03
688.467	-0.03
688.65	-0.01
688.832	-0.05
689.015	-0.01
689.197	-0.07
689.38	0.1
689.563	0.04
689.745	-0.03
689.928	-0.03
690.11	0.01
690.293	-0.02
690.475	-0.07
690.658	0.03
690.84	0.03
691.023	-0.04
691.205	-0.05
691.388	-0.02
691.57	0.05
691.752	-0.03
691.935	-0.07
692.117	-0.04
692.3	-0.01
692.482	0
692.664	-0.02
692.847	0.01
693.029	0.05
693.211	0.04
693.393	-0.01
693.576	-0
693.758	0.05
693.94	-0.06
694.122	-0.07
694.304	-0.03
694.487	-0.05
694.669	0.06
694.851	-0.08
695.033	-0.04
695.215	-0.1
695.397	-0.11
695.579	0.03
695.761	-0.06
695.943	-0.03
696.125	0.05
696.308	-0.04
696.49	-0.15
696.671	0.12
696.853	-0.02
697.035	0.1
697.217	-0.03
697.399	0.07
697.581	-0.04
697.763	-0.06
697.945	-0.08
698.127	-0.01
698.309	0.06
698.491	-0.01
698.672	0.04
698.854	0.03
699.036	0.05
699.218	-0.05
699.399	0.04
699.581	0.04
699.763	0.04
699.945	-0.01
700.126	-0.09
700.308	-0.01
700.49	-0.03
700.671	-0.07
700.853	-0.08
701.035	-0.03
701.216	0.02
701.398	-0.06
701.579	-0.04
701.761	0.03
701.943	0.01
702.124	-0.09
702.306	-0.03
702.487	0.08
702.669	-0.02
702.85	-0.04
703.031	-0.06
703.213	0.09
703.394	0.01
703.576	-0.06
703.757	0.07
703.938	0.02
704.12	0.12
704.301	-0.06
704.483	-0.07
704.664	0.01
704.845	0.08
705.026	0.06
705.208	0.02
705.389	0.03
705.57	-0.02
705.751	-0.01
705.933	-0.07
706.114	0.08
706.295	-0.01
706.476	-0.05
706.657	0.05
706.838	0.04
707.02	0.01
707.201	0
707.382	0.01
707.563	0.03
707.744	-0.01
707.925	-0.05
708.106	-0.02
708.287	0.02
708.468	0.15
708.649	-0.03
708.83	0.05
709.011	-0.01
709.192	0.05
709.373	-0.04
709.554	-0.01
709.734	0.02
709.915	0.04
710.096	-0.02
710.277	-0.11
710.458	-0.02
710.639	0.02
710.819	-0.07
711	0
711.181	0.09
711.362	0.03
711.542	0.02
711.723	-0.03
711.904	0.11
712.085	0.02
712.265	0.05
712.446	-0.06
712.627	-0.01
712.807	-0.05
712.988	0.03
713.168	-0.05
713.349	0.01
713.53	-0.16
713.71	-0.03
713.891	-0.08
714.071	-0.02
714.252	0.02
714.432	-0.01
714.613	-0.05
714.793	0.01
714.974	0.15
715.154	0.11
715.334	0.05
715.515	-0
715.695	-0.11
715.876	-0.02
716.056	0.04
716.236	-0.05
716.417	-0.04
716.597	-0.02
716.777	0.18
716.957	0.01
717.138	-0.02
717.318	0.01
717.498	-0.1
717.678	-0.01
717.859	0
718.039	-0.05
718.219	-0.03
718.399	0.04
718.579	-0.03
718.759	-0.07
718.939	0.08
719.12	0.04
719.3	-0
719.48	-0.16
719.66	-0.03
719.84	0.1
720.02	-0.03
720.2	-0.03
720.38	-0
720.56	0.11
720.74	-0.04
720.92	0.06
721.1	0.11
721.279	0.14
721.459	0.04
721.639	-0.04
721.819	0.01
721.999	-0.07
722.179	0.07
722.359	-0.09
722.538	-0.01
722.718	0.03
722.898	0.02
723.078	0
723.257	-0.07
723.437	0.07
723.617	0.02
723.797	0.05
723.976	0.1
724.156	0.11
724.336	0.12
724.515	0.19
724.695	-0.14
724.874	0.03
725.054	0.05
725.234	0.01
725.413	0.11
725.593	-0.01
725.772	0.04
725.952	0
726.131	0.02
726.311	0.07
726.49	0.04
726.67	-0
726.849	-0
727.028	0.01
727.208	0.04
727.387	0.09
727.567	-0.08
727.746	-0
727.925	0.08
728.105	-0.06
728.284	-0.01
728.463	-0.03
728.643	0.03
728.822	-0.06
729.001	-0.01
729.18	0.15
729.359	0.1
729.539	0.06
729.718	0.07
729.897	0.15
730.076	0.04
730.255	-0.04
730.434	0.08
730.614	0.02
730.793	0.15
730.972	0.05
731.151	0.03
731.33	0.1
731.509	0.11
731.688	0.04
731.867	0.13
732.046	-0.04
732.225	0.19
732.404	0.06
732.583	0.02
732.762	0.11
732.941	0.12
733.12	0.1
733.298	0.06
733.477	0.21
733.656	-0.01
733.835	0.01
734.014	0.19
734.193	0.08
734.371	0.15
734.55	0.01
734.729	-0.01
734.908	0.11
735.086	0.15
735.265	0.13
735.444	-0.05
735.623	0.01
735.801	-0.11
735.98	0.03
736.159	0.04
736.337	0.14
736.516	0.09
736.694	0.13
736.873	-0.09
737.052	0.12
737.23	0.17
737.409	0.03
737.587	0.2
737.766	-0.18
737.944	-0.03
738.123	0.08
738.301	0.08
738.479	0.04
738.658	0.16
738.836	-0.06
739.015	0.11
739.193	0.19
739.371	-0.06
739.55	0.08
739.728	0.02
739.906	0.18
740.085	0.17
740.263	0.02
740.441	-0.05
740.62	0.2
740.798	0.13
740.976	-0.02
741.154	0.01
741.332	0.22
741.511	0.01
741.689	0.13
741.867	0.09
742.045	-0.04
742.223	-0.02
742.401	-0.01
742.579	-0
742.757	0.06
742.935	0.02
743.114	-0.01
743.292	-0.01
743.47	0.16
743.648	0.03
743.826	0.1
744.004	0.18
744.181	0.07
744.359	-0.04
744.537	0.1
744.715	-0.01
744.893	0.06
745.071	0
745.249	0
745.427	-0.02
745.605	0.14
745.782	-0.05
745.96	0.04
746.138	0
746.316	0.06
746.493	-0.02
746.671	0.06
746.849	-0.04
747.027	0.1
747.204	-0.11
747.382	0.15
747.56	-0.03
747.737	-0.02
747.915	-0.08
748.093	0.05
748.27	-0.07
748.448	-0.06
748.625	-0.03
748.803	-0.07
748.98	-0.08
749.158	0.03
749.335	-0.02
749.513	-0.01
749.69	-0.02
749.868	0.03
750.045	-0.01
750.223	-0.02
750.4	-0.22
750.578	0.18
750.755	-0.04
750.932	-0.06
751.11	0.06
751.287	-0.17
751.464	0.08
751.642	-0.04
751.819	-0.01
751.996	-0.05
752.173	-0.05
752.351	-0.11
752.528	-0.03
752.705	0.06
752.882	-0.2
753.06	0.04
753.237	0.12
753.414	0.18
753.591	0.1
753.768	0.06
753.945	-0.01
754.122	0.02
754.299	0.07
754.476	-0.11
754.654	-0.01
754.831	0.01
755.008	0.02
755.185	-0.08
755.362	-0.11
755.539	-0.02
755.716	-0.05
755.892	-0
756.069	-0.04
756.246	-0.08
756.423	-0.08
756.6	0.11
756.777	-0.01
756.954	0.11
757.131	-0.06
757.307	-0.11
757.484	-0.16
757.661	0.02
757.838	0.06
758.015	-0.06
758.191	0.05
758.368	-0.02
758.545	0.1
758.721	0.09
758.898	-0.14
759.075	-0.03
759.251	0.13
759.428	0.08
759.605	-0.11
759.781	-0.04
759.958	0.01
760.134	0.13
760.311	-0.12
760.488	0.15
760.664	0.2
760.841	-0.15
761.017	-0.16
761.194	-0.04
761.37	0.03
761.547	-0.04
761.723	-0.15
761.899	0.1
762.076	-0.11
762.252	-0.1
762.429	-0.12
762.605	0.08
762.781	-0.07
762.958	0.08
763.134	-0.06
763.31	-0
763.486	0.18
763.663	-0.18
763.839	0
764.015	-0.22
764.191	-0.13
764.368	-0.16
764.544	-0.11
764.72	0.05
764.896	0.03
765.072	0.07
765.248	-0.13
765.425	-0.07
765.601	-0.02
765.777	0.03
765.953	-0.37
766.129	-0.13
766.305	-0.13
766.481	0.03
766.657	0.02
766.833	0.2
767.009	-0.12
767.185	0.01
767.361	-0.11
767.537	-0.18
767.713	-0.01
767.889	-0.09
768.065	-0.05
768.24	-0.27
768.416	0.09
768.592	-0.07
768.768	-0.07
768.944	-0.04
769.12	-0.04
769.295	-0.08
769.471	-0.13
769.647	-0.11
769.823	0.13
769.998	-0.08
770.174	-0.07
770.35	0.23
770.525	0.22
770.701	0.06
770.877	-0.01
771.052	-0.12
771.228	0.12
771.403	-0.03
771.579	0.04
771.755	0.23
771.93	-0.14
772.106	-0.21
772.281	-0.21
772.457	-0.09
772.632	0.02
772.808	-0.21
772.983	-0.12
773.159	-0.2
773.334	0.18
773.509	-0.06
773.685	-0.02
773.86	0.21
774.036	0.19
774.211	-0.13
774.386	-0.16
774.562	-0
774.737	-0.01
774.912	-0.18
775.087	0.07
775.263	-0.06
775.438	-0.06
775.613	-0.13
775.788	0.02
775.964	0.12
776.139	0.29
776.314	-0.27
776.489	0
776.664	-0.04
776.839	-0.11
777.014	0.07
777.19	0.17
777.365	0.27
777.54	0.15
777.715	-0.01
777.89	0.04
778.065	-0.08
778.24	-0.03
778.415	0.08
778.59	-0.18
778.765	-0.16
778.94	0.06
779.115	0.06
779.289	-0
779.464	0.05
779.639	-0.02
779.814	-0.2
779.989	-0.14
780.164	0.02
780.339	0.15
780.513	-0.24
780.688	-0.19
780.863	0.07
781.038	0.17
781.212	-0.16
781.387	-0.03
781.562	0.08
781.737	-0.03
781.911	-0.02
782.086	-0.03
782.261	-0.01
782.435	0.09
782.61	-0.05
782.784	-0.03
782.959	0.15
783.134	-0.24
783.308	-0.17
783.483	-0.21
783.657	0.32
783.832	0.11
784.006	-0.21
784.181	-0.12
784.355	0.08
784.53	-0
784.704	-0.19
784.878	0.26
785.053	0.06
785.227	0.05
785.402	0.24
785.576	-0.36
785.75	-0.07
785.925	-0.08
786.099	-0.03
786.273	-0.05
786.448	-0.08
786.622	-0.02
786.796	-0.09
786.97	-0.24
787.145	0.46
787.319	-0.21
787.493	-0.14
787.667	-0.3
787.841	-0.08
788.015	0.13
788.19	0.03
788.364	0.05
788.538	0.04
788.712	0.25
788.886	-0.04
789.06	0.31
789.234	0.04
789.408	-0.39
789.582	-0.15
789.756	0.07
789.93	-0.08
790.104	-0.01
790.278	-0.3
790.452	-0.31
790.626	0.11
790.8	-0.16
790.973	0.27
791.147	0.16
791.321	0.18
791.495	0.03
791.669	0.05
791.843	-0.04
792.016	0.08
792.19	0.48
792.364	-0.38
792.538	0.29
792.711	0.18
792.885	-0.03
793.059	-0.36
793.233	-0.47
793.406	0.2
793.58	-0.15
793.754	0.06
793.927	-0.1
794.101	0.16
794.274	0.08
794.448	0.15
794.622	-0.21
794.795	0.25
794.969	-0.16
795.142	0.21
795.316	0.07
795.489	-0.16
795.663	0.27
795.836	-0.17
796.009	-0.26
796.183	0.29
796.356	0.08
796.53	0.11
796.703	-0.32
796.876	0.51
797.05	-0.36
797.223	0.04
797.396	0.07
797.57	0.06
797.743	0.34
797.916	-0.07
798.09	-0.08
798.263	0.24
798.436	0.08
798.609	-0.04
798.782	-0.1
798.956	-0.08
799.129	-0.15
799.302	-0.06
799.475	-0.23
799.648	-0.06
799.821	0.01
799.994	-0.07
800.167	-0.5
800.34	-0.11
800.514	-0.07
800.687	-0.03
800.86	-0.46
801.033	-0.13
801.206	-0.01
801.379	-0.24
801.551	0.38
801.724	0.12
801.897	0.1
802.07	0.05
802.243	-0.27
802.416	-0.15
802.589	-0.42
802.762	-0.05
802.935	-0.31
803.107	0.14
803.28	-0.25
803.453	0.32
803.626	-0.31
803.798	0.13
803.971	-0.65
804.144	0.03
804.317	-0.18
804.489	0.37
804.662	0.12
804.835	0.1
805.007	-0.23
805.18	0.47
805.353	0.18
805.525	-0.35
805.698	-0.21
805.87	0.07
806.043	0.09
806.215	-0.42
806.388	-0.27
806.56	0.26
806.733	0.3
806.905	-0.02
807.078	-0.32
807.25	-0.32
807.423	-0.15
807.595	-0.09
807.768	-0.15
807.94	0.32
808.112	-0.32
808.285	-0.06
808.457	-0.26
808.629	-0.27
808.802	0.5
808.974	0
809.146	-0.3
809.318	-0.6
809.491	-0.34
809.663	0.36
809.835	-0.04
810.007	0.27
810.18	-0.33
810.352	-0.38
810.524	-0.17
810.696	0.27
810.868	0.23
811.04	0.21
811.212	-0.3
811.384	0.08
811.556	-0.18
811.728	0.28
811.901	0.49
812.073	-0.1
812.245	0.09
812.417	0.08
812.589	-0.65
812.76	0.03
812.932	0.21
813.104	0.21
813.276	-0.08
813.448	0.52
813.62	0.05
813.792	-0.16
813.964	-0.16
814.136	0.53
814.307	-0.09
814.479	-0.17
814.651	-0.52
814.823	0.46
814.995	-0.5
815.166	-0.22
815.338	-0.55
815.51	-0.33
815.681	0.63
815.853	0.19
816.025	-0.19
816.196	0.73
816.368	-0.17
816.54	-0.46
816.711	-0.28
816.883	0.06
817.054	0.46
817.226	-0.67
817.398	-0.13
817.569	-0.15
817.741	-0.25
817.912	-0.47
818.084	0.03
818.255	-0.03
818.426	-0.46
818.598	-0.16
818.769	-0.31
818.941	0.43
819.112	0.6
819.283	0.06
819.455	-0.38
819.626	0.24
819.798	0.24
819.969	-0.17
820.14	-0.13
820.311	-0.21
820.483	-0.22
820.654	0.08
820.825	-0.04
820.996	-0.36
821.168	-0.7
821.339	-0.42
821.51	-0.39
821.681	0.06
821.852	-0.29
822.023	-0.78
822.195	-0.05
822.366	0.02
822.537	0.1
822.708	-0.5
822.879	-0.56
823.05	0.98
823.221	-0.25
823.392	0.22
823.563	-0.09
823.734	0.05
823.905	0.01
824.076	-0.61
824.247	-0.01
824.418	-0.87
824.589	0.55
824.759	-0.11
824.93	-0.45
825.101	-0.72
825.272	0.54
825.443	0.07
825.614	0.29
825.784	-1.05
825.955	1.11
826.126	0.34
826.297	-0.2
826.467	0.54
826.638	0.49
826.809	-0.21
826.98	-0.07
827.15	0.7
827.321	-0.11
827.492	0.63
827.662	-0.03
827.833	0.57
828.003	0.69
828.174	-0.46
828.345	-0.7
828.515	-0.15
828.686	-0.24
828.856	-0.4
829.027	-0.12
829.197	-0.54
829.368	0.23
829.538	-0.11
829.709	-0.39
829.879	0.29
830.049	0.02
830.22	-0.45
830.39	0.12
830.56	0.5
830.731	-0.6
830.901	-0.4
831.072	-0.11
831.242	-0.18
831.412	-0.07
831.582	-0.04
831.753	-0.77
831.923	0.58
832.093	0.04
832.263	-0.33
832.434	-0.45
832.604	-0.34
832.774	0.37
832.944	0.44
833.114	-0.48
833.284	0.66
833.454	-1.27
833.624	-0.41
833.795	-0.36
833.965	0.21
834.135	0.04
834.305	-1.16
834.475	-0.59
834.645	0.11
834.815	0.35
834.985	-0.57
835.155	-0.49
835.325	0.45
835.494	0.3
835.664	-0.82
835.834	-0.77
836.004	-0.56
836.174	-0.09
836.344	-0.46
836.514	-1.04
836.684	-0.23
836.853	-0.32
837.023	0.15
837.193	-0.9
837.363	0.75
837.532	0.48
837.702	-0.45
837.872	-0.55
838.041	0.37
838.211	1.48
838.381	-1.06
838.55	0.3
838.72	1.43
838.89	1.49
839.059	0.11
839.229	-0.39
839.398	1.69
839.568	-0.14
839.738	-0.07
839.907	0.45
840.077	0.26
840.246	-0.67
840.416	-0.67
840.585	-0.88
840.755	0.79
840.924	0.41
841.093	-0.82
841.263	-0.55
841.432	-0.07
841.602	0.02
841.771	-0.73
841.94	0.07
842.11	1.59
842.279	1.57
842.448	-0.27
842.617	-0.63
842.787	1.36
842.956	-1.42
843.125	0.33
843.294	-0.05
843.464	0.65
843.633	0.06
843.802	-1.19
843.971	0.34
844.14	0.23
844.309	0.39
844.479	-0.64
844.648	-0.99
844.817	-1.32
844.986	-0.45
845.155	-1.15
845.324	0.12
845.493	-0.5
845.662	-0.5
845.831	-0.37
846	-0.24
846.169	0.04
846.338	0.33
846.507	0.17
846.676	0.88
846.844	-0.78
847.013	0.74
847.182	-0.79
847.351	0.06
847.52	-0.14
847.689	0.66
847.858	0.34
848.026	-0.03
848.195	-0.67
848.364	0.1
848.533	-0.12
848.701	-0.81
848.87	-0.64
849.039	0.07
849.207	0.52
849.376	0.8
849.545	1.46
849.713	-1.54
849.882	-0.56
850.051	-0.13
850.219	-0.35
850.388	0.6
850.556	-0.53
850.725	-0.58
850.893	0.01
851.062	-0.42
851.23	0.17
851.399	-1.07
851.567	-0.64
851.736	-0.78
851.904	-1.28
852.073	-0.67
852.241	1.92
852.41	0.44
852.578	0.24
852.746	-1.76
852.915	0.48
853.083	0.52
853.251	-1.77
853.42	-0.07
853.588	-0.68
853.756	0.53
853.924	-0.17
854.093	-0.52
854.261	-0.48
854.429	-0.66
854.597	-0.24
854.765	-0.56
854.934	0.42
855.102	0.87
855.27	-0.6
855.438	0.29
855.606	1.52
855.774	1.99
855.942	-2.39
856.11	-2.24
856.278	0.16
856.446	0.88
856.614	-0.01
856.782	-0.38
856.95	0.91
857.118	-0.15
857.286	0.11
857.454	0.44
857.622	1.13
857.79	0.4
857.958	-0.81
858.126	-0.37
858.294	-2.25
858.462	0.22
858.629	-1.26
858.797	-0.62
858.965	-0.71
859.133	1.47
859.301	-0.25
859.468	-0.26
859.636	-0.97
859.804	1.65
859.971	1.33
860.139	-0.13
860.307	0.26
860.474	0.36
860.642	-0.59
860.81	-0.01
860.977	-0.8
861.145	1.16
861.313	-0.4
861.48	-0.1
861.648	0.5
861.815	-0.43
861.983	-1.81
862.15	-0.1
862.318	0.12
862.485	0.85
862.653	-1.87
862.82	-1.17
862.988	1.79
863.155	0.08
863.322	-1.38
863.49	-2.25
863.657	-0.88
863.824	0.45
863.992	0.72
864.159	-0.69
864.326	0.75
864.494	-0.29
864.661	3.5
864.828	-2.58
864.996	1.62
865.163	1.13
865.33	-1.25
865.497	-1.67
865.664	0.52
865.832	-2.53
865.999	0.56
866.166	-1.17
866.333	-1.4
866.5	-1.81
866.667	-0.43
866.834	0.33
867.001	1.06
867.168	-2.77
867.335	0.68
867.502	-1.29
867.669	0.91
867.836	1.34
868.003	0.27
868.17	1.96
868.337	0.6
868.504	1.94
868.671	-2.79
868.838	-1.16
869.005	-0.66
869.172	-0.56
869.339	-0.83
869.505	0.16
869.672	-0.44
869.839	1.35
870.006	-0.69
870.173	-1.23
870.339	-0.3
870.506	1.12
870.673	-2.1
870.84	0.63
871.006	-0.97
871.173	-0.56
871.34	0.32
871.506	-1.72
871.673	0.46
871.839	-1.7
872.006	0.02
872.173	-0.29
872.339	1.27
872.506	1.91
872.672	0.52
872.839	-1.05
873.005	-0.83
873.172	3.64
873.338	1.49
873.505	-0.33
873.671	-0.32
873.838	0.22
874.004	-1.16
874.171	-0.51
874.337	0.14
874.503	0.24
874.67	-0.84
874.836	-1.33
875.002	2.23
875.169	1.3
875.335	-0.14
875.501	0.51
875.668	1.82
875.834	-0.02
876	-0.28
876.166	1.45
876.332	-0.64
876.499	2.76
876.665	-1.27
876.831	-0.22
876.997	2.84
877.163	-0.71
877.329	-0.51
877.495	0.2
877.662	-0.27
877.828	0.44
877.994	-0.59
878.16	-3.16
878.326	-0.52
878.492	1.04
878.658	-0.15
878.824	-1.21
878.99	1.12
879.156	-0.72
879.322	0.47
879.487	0.45
879.653	0.41
879.819	-1.92
879.985	-1.19
880.151	-0.45
880.317	0.08
880.483	-0.91
880.648	1.1
880.814	-3.06
880.98	-0.24
881.146	-2.42
881.312	-0.65
881.477	-2.8
881.643	-0.64
881.809	1.87
881.974	1.15
882.14	-0.92
882.306	-0.9
882.471	2.22
882.637	-1.18
882.803	0.56
882.968	2.94
883.134	2.97
883.299	-0.67
883.465	1.33
883.63	1.59
883.796	1.18
883.961	2.19
884.127	1.27
884.292	-5.42
884.458	-3.16
884.623	-3.15
