Data from Apollo_Calib_20240827__AbsoluteIrradiance__161__01-50-00-698.txt Node

Date: Wed Aug 28 01:50:00 BST 2024
User: biology
Spectrometer: FLMT08252
Trigger mode: 0
Integration Time (sec): 5.000000E-1
Scans to average: 5
Electric dark correction enabled: true
Nonlinearity correction enabled: false
Boxcar width: 0
XAxis mode: Wavelengths
Number of Pixels in Spectrum: 3648
>>>>>Begin Spectral Data<<<<<
179.588	-0
179.809	-0
180.03	-0
180.251	-0
180.473	-0
180.694	0
180.915	0
181.136	-0
181.357	0
181.578	-0
181.799	-0
182.02	-0
182.241	0
182.462	-0
182.683	0
182.904	0
183.125	-0
183.346	0
183.567	0
183.788	-0
184.009	-0
184.23	0
184.451	0
184.672	-0
184.892	-0
185.113	0
185.334	0
185.555	-0
185.776	-0
185.996	0
186.217	-0
186.438	0
186.659	-0
186.879	0
187.1	-0
187.321	-0
187.541	-0
187.762	-0
187.983	-0
188.203	-0
188.424	-0
188.644	-0
188.865	0
189.086	-0
189.306	-0
189.527	-0
189.747	0
189.968	-0
190.188	-0
190.409	0
190.629	0
190.849	-0
191.07	-0
191.29	0
191.511	-0
191.731	-0
191.951	-0
192.172	0
192.392	-0
192.612	-0
192.833	-0
193.053	0
193.273	0
193.493	-0
193.714	-0
193.934	0
194.154	0
194.374	-0
194.594	0
194.815	0
195.035	-0
195.255	0
195.475	-0
195.695	0
195.915	0
196.135	-0
196.355	0
196.575	0
196.795	0
197.015	-0
197.235	-0
197.455	-0
197.675	0
197.895	-0
198.115	-0
198.335	0
198.555	-0
198.775	-0
198.995	-0
199.214	0
199.434	-0
199.654	-0
199.874	0
200.094	0.82
200.313	-0.17
200.533	-0.39
200.753	-1.31
200.973	0.98
201.192	0.11
201.412	-1.22
201.632	-0.42
201.851	0.54
202.071	-0.78
202.291	-0.64
202.51	-0.55
202.73	0.49
202.95	-0.44
203.169	-0.91
203.389	-0.52
203.608	-0.12
203.828	-0.59
204.047	-0.41
204.267	0.17
204.486	-0.2
204.706	0.34
204.925	0.09
205.145	-0.16
205.364	0.09
205.583	0.75
205.803	-0.3
206.022	-0.63
206.242	-0.19
206.461	-0.07
206.68	-0.05
206.9	0.17
207.119	0.3
207.338	0.42
207.557	-0.39
207.777	-0.16
207.996	-0.4
208.215	0.49
208.434	-0.26
208.654	-0.48
208.873	-0.09
209.092	0.42
209.311	-0.37
209.53	-0.24
209.749	-0.19
209.968	-0.24
210.187	-0.43
210.407	-0.65
210.626	-0.16
210.845	0.02
211.064	-0
211.283	-0.37
211.502	0.28
211.721	-0.24
211.94	-0.24
212.159	0.03
212.377	0.22
212.596	0.28
212.815	-0.34
213.034	-0.01
213.253	0.18
213.472	0.16
213.691	-0.35
213.91	-0.28
214.128	-0.25
214.347	0.11
214.566	-0.38
214.785	-0.38
215.003	0.09
215.222	0.13
215.441	0.06
215.66	-0.47
215.878	-0.04
216.097	0.16
216.316	-0.38
216.534	-0.17
216.753	-0
216.972	-0.06
217.19	-0.15
217.409	-0.3
217.627	-0.23
217.846	-0.19
218.064	-0.15
218.283	-0.19
218.501	0.35
218.72	0.23
218.938	-0.34
219.157	-0.22
219.375	0.12
219.594	-0.11
219.812	-0.33
220.031	-0.19
220.249	0.08
220.467	0.3
220.686	-0.26
220.904	-0.21
221.122	-0.25
221.341	0.19
221.559	-0.08
221.777	-0.32
221.995	-0.04
222.214	0.05
222.432	-0.27
222.65	0.01
222.868	0.01
223.086	-0.11
223.305	0.04
223.523	-0.11
223.741	0.24
223.959	-0.11
224.177	-0.31
224.395	-0.22
224.613	-0.19
224.831	0.06
225.049	-0.17
225.267	-0.09
225.485	-0.14
225.703	-0.04
225.921	-0.07
226.139	-0.01
226.357	0.03
226.575	0.03
226.793	-0.15
227.011	0.54
227.229	0.03
227.447	0.21
227.665	-0.02
227.883	-0.27
228.1	0.02
228.318	0.04
228.536	-0.32
228.754	-0.11
228.972	-0.01
229.189	0.05
229.407	-0.09
229.625	-0.15
229.843	0.11
230.06	-0.05
230.278	-0.13
230.496	-0.09
230.713	-0.01
230.931	0.13
231.149	-0.14
231.366	-0.29
231.584	-0.05
231.801	0.31
232.019	-0.11
232.236	-0.2
232.454	-0.27
232.671	-0.06
232.889	-0.11
233.106	-0.22
233.324	-0.12
233.541	-0.05
233.759	-0.02
233.976	-0.04
234.194	-0.1
234.411	0.03
234.628	-0.17
234.846	-0.04
235.063	-0.17
235.28	-0.09
235.498	-0.04
235.715	-0.22
235.932	0.1
236.149	0.07
236.367	-0.15
236.584	-0.03
236.801	-0.09
237.018	0.07
237.236	-0
237.453	-0.18
237.67	0.03
237.887	-0.05
238.104	-0.06
238.321	-0.13
238.538	-0.16
238.755	0.09
238.973	-0.18
239.19	0.03
239.407	0.02
239.624	0.06
239.841	-0.18
240.058	-0.13
240.275	0.04
240.492	-0.09
240.709	-0.07
240.925	-0.08
241.142	0.06
241.359	-0.1
241.576	-0.17
241.793	-0.13
242.01	-0.05
242.227	0.08
242.444	0.04
242.66	0.03
242.877	0.01
243.094	-0.08
243.311	0.01
243.527	-0.04
243.744	-0.04
243.961	-0.01
244.178	-0.12
244.394	-0.06
244.611	0.06
244.828	0
245.044	-0.18
245.261	-0.04
245.477	-0.04
245.694	-0.02
245.911	-0.05
246.127	-0.01
246.344	0.04
246.56	0.02
246.777	-0.11
246.993	-0.06
247.21	0
247.426	0.07
247.643	-0.11
247.859	-0.13
248.076	-0.08
248.292	0.15
248.508	-0.07
248.725	-0.05
248.941	0.03
249.157	0.04
249.374	-0.09
249.59	-0.04
249.806	-0.02
250.023	0.12
250.239	-0.11
250.455	-0.11
250.671	0.01
250.888	-0.01
251.104	-0.02
251.32	-0.08
251.536	-0.03
251.752	-0.09
251.969	0.06
252.185	0.09
252.401	0.11
252.617	-0.04
252.833	-0.07
253.049	0
253.265	0.03
253.481	0.07
253.697	-0.06
253.913	-0.13
254.129	-0.02
254.345	0.07
254.561	-0.06
254.777	-0.06
254.993	0.09
255.209	0.01
255.425	-0.09
255.641	-0.05
255.857	0.07
256.073	-0.02
256.288	-0.12
256.504	-0.03
256.72	-0.03
256.936	0.12
257.152	-0.04
257.367	-0.11
257.583	-0.03
257.799	0.1
258.015	-0.08
258.23	-0.08
258.446	0.12
258.662	-0.04
258.877	-0.13
259.093	-0.09
259.309	0
259.524	-0
259.74	-0.04
259.955	-0.16
260.171	-0.01
260.387	-0.06
260.602	0.05
260.818	-0.02
261.033	-0.09
261.249	-0.02
261.464	-0.08
261.68	-0.11
261.895	0.03
262.11	0.02
262.326	-0.09
262.541	-0.1
262.757	0.03
262.972	-0.04
263.187	-0
263.403	0.01
263.618	0.08
263.833	-0.09
264.049	-0.09
264.264	-0.08
264.479	0
264.694	0.11
264.91	-0.12
265.125	-0.1
265.34	0.02
265.555	0.09
265.77	0.01
265.986	-0.07
266.201	-0.03
266.416	0.07
266.631	-0.05
266.846	-0.02
267.061	-0.02
267.276	0.04
267.491	-0.18
267.706	0.02
267.921	0
268.136	-0
268.351	-0.04
268.566	-0.05
268.781	0.12
268.996	0.03
269.211	-0
269.426	-0.09
269.641	-0.04
269.856	0.05
270.071	-0.09
270.285	-0.13
270.5	0.07
270.715	0.04
270.93	-0.04
271.145	0.01
271.359	0.06
271.574	-0.13
271.789	-0.05
272.004	-0.08
272.218	-0.04
272.433	0.03
272.648	-0.07
272.862	0.06
273.077	0.02
273.292	-0.02
273.506	-0.07
273.721	-0.09
273.936	-0
274.15	0.02
274.365	-0.06
274.579	-0.01
274.794	0.09
275.008	0.07
275.223	-0.05
275.437	-0.02
275.652	0.05
275.866	0.01
276.081	-0.04
276.295	0.03
276.509	-0.01
276.724	0.04
276.938	-0.03
277.153	0.01
277.367	0.03
277.581	-0.04
277.796	-0.03
278.01	-0.09
278.224	0.05
278.438	0.07
278.653	-0.08
278.867	-0.04
279.081	-0.21
279.295	-0.08
279.51	0.03
279.724	-0.1
279.938	0.06
280.152	-0
280.366	-0.04
280.58	-0.03
280.794	0.05
281.008	0.03
281.222	-0.01
281.437	0.11
281.651	0.02
281.865	0.04
282.079	-0.03
282.293	-0.12
282.507	-0.06
282.721	-0.04
282.935	-0.02
283.148	-0.1
283.362	-0.02
283.576	-0.07
283.79	-0.03
284.004	-0.04
284.218	0.04
284.432	-0.03
284.646	0.01
284.859	-0.04
285.073	-0.03
285.287	0.05
285.501	-0.02
285.714	-0.05
285.928	0.02
286.142	0
286.356	-0.05
286.569	-0.01
286.783	0.08
286.997	0.03
287.21	0.02
287.424	0.03
287.637	-0.05
287.851	-0.07
288.065	0.06
288.278	0
288.492	-0.02
288.705	-0.05
288.919	-0.04
289.132	-0.06
289.346	0.05
289.559	-0.07
289.773	-0.05
289.986	0.01
290.2	0.03
290.413	0
290.626	-0.04
290.84	-0
291.053	-0.04
291.267	0.06
291.48	-0.02
291.693	-0.03
291.906	-0.06
292.12	-0.01
292.333	-0.09
292.546	-0.04
292.76	0.07
292.973	0.02
293.186	0.02
293.399	-0.01
293.612	0.04
293.826	0.01
294.039	-0.03
294.252	-0.02
294.465	0.04
294.678	0
294.891	-0.03
295.104	0
295.317	-0.03
295.53	0.02
295.743	-0.06
295.956	-0
296.169	0.04
296.382	0.05
296.595	-0.02
296.808	-0.07
297.021	0.05
297.234	0.04
297.447	-0.02
297.66	-0.01
297.873	0.06
298.086	0.01
298.299	-0.05
298.511	-0.06
298.724	-0.01
298.937	-0.09
299.15	-0.04
299.363	-0.02
299.575	0.03
299.788	0.06
300.001	-0.02
300.213	-0.02
300.426	-0.02
300.639	-0
300.852	-0.03
301.064	0.02
301.277	0.05
301.489	0.03
301.702	0.01
301.915	-0.04
302.127	0.01
302.34	0
302.552	-0
302.765	-0.05
302.977	0.03
303.19	-0.02
303.402	-0.04
303.615	-0.03
303.827	-0.03
304.04	-0.06
304.252	0.03
304.464	-0.05
304.677	0.08
304.889	0.04
305.102	-0.04
305.314	-0.01
305.526	0.03
305.739	0.03
305.951	-0.02
306.163	-0.01
306.375	0.06
306.588	-0.04
306.8	-0.03
307.012	-0.06
307.224	0.01
307.436	0.09
307.649	-0.06
307.861	0.01
308.073	0.02
308.285	-0.02
308.497	-0.06
308.709	-0.04
308.921	0
309.133	0.03
309.346	0.01
309.558	-0.02
309.77	0.02
309.982	0.03
310.194	0.06
310.406	-0.07
310.617	0.04
310.829	0.01
311.041	0.01
311.253	-0.04
311.465	-0.03
311.677	-0.01
311.889	0.03
312.101	-0.04
312.313	0.05
312.524	0
312.736	-0.07
312.948	-0.03
313.16	0.08
313.372	0.03
313.583	-0
313.795	-0.01
314.007	-0.03
314.218	0.07
314.43	0.01
314.642	-0.01
314.853	-0.03
315.065	-0
315.277	-0.02
315.488	0.01
315.7	0.06
315.912	-0.03
316.123	-0.02
316.335	0.02
316.546	0.15
316.758	0.04
316.969	-0.04
317.181	-0.01
317.392	-0.01
317.604	0.07
317.815	-0.06
318.026	-0.07
318.238	-0.06
318.449	-0.01
318.661	-0.07
318.872	-0.06
319.083	-0.07
319.295	-0
319.506	-0.05
319.717	-0.01
319.929	0.02
320.14	0.02
320.351	0.02
320.562	-0.05
320.774	0.06
320.985	0.03
321.196	-0.05
321.407	-0.05
321.618	0.05
321.829	-0
322.041	0.03
322.252	-0
322.463	0.02
322.674	-0.03
322.885	-0.03
323.096	-0.02
323.307	-0
323.518	0.02
323.729	-0.03
323.94	-0.02
324.151	-0.02
324.362	0.01
324.573	0.01
324.784	-0.03
324.995	0.02
325.206	0.01
325.417	-0.02
325.628	-0.01
325.838	0.01
326.049	0.01
326.26	-0.01
326.471	-0.02
326.682	0.03
326.892	0.02
327.103	-0.07
327.314	-0.1
327.525	-0
327.735	0.03
327.946	-0.05
328.157	-0.01
328.368	0.02
328.578	-0.02
328.789	-0.02
328.999	0.02
329.21	0.03
329.421	0.02
329.631	-0.01
329.842	-0.05
330.052	0.03
330.263	-0.01
330.473	0.04
330.684	-0.03
330.894	-0.03
331.105	0.01
331.315	-0.01
331.526	-0.05
331.736	0.11
331.947	0.05
332.157	0.04
332.367	-0.05
332.578	0.04
332.788	0.03
332.999	-0
333.209	-0.02
333.419	-0.08
333.629	0.01
333.84	0.04
334.05	-0.01
334.26	0.03
334.47	-0.01
334.681	0.03
334.891	-0
335.101	0.05
335.311	0.1
335.521	0.01
335.732	-0.07
335.942	0.07
336.152	0.04
336.362	-0.01
336.572	0
336.782	0.05
336.992	-0
337.202	-0.01
337.412	-0.05
337.622	-0
337.832	-0.01
338.042	-0.02
338.252	-0.05
338.462	0.01
338.672	-0
338.882	-0.01
339.092	-0.01
339.302	0.06
339.511	0
339.721	-0.02
339.931	-0.02
340.141	0.04
340.351	0.04
340.561	0.02
340.77	0.01
340.98	-0
341.19	0.01
341.4	-0.01
341.609	-0.06
341.819	-0.02
342.029	-0.03
342.238	0.01
342.448	-0.07
342.658	0.03
342.867	-0.01
343.077	0.01
343.286	-0.01
343.496	-0.04
343.706	0.09
343.915	-0.09
344.125	-0.02
344.334	0.01
344.544	-0.04
344.753	-0.02
344.963	-0.04
345.172	0
345.381	-0.05
345.591	-0.04
345.8	0.03
346.01	0.04
346.219	0.03
346.428	-0.17
346.638	-0.02
346.847	-0.03
347.056	0.03
347.266	-0.02
347.475	0.04
347.684	0.01
347.893	0.01
348.103	-0.03
348.312	0.01
348.521	-0
348.73	0.05
348.94	-0.02
349.149	-0.02
349.358	-0.04
349.567	-0.03
349.776	-0.04
349.985	-0.02
350.194	0.06
350.403	0.01
350.612	-0.07
350.821	-0.03
351.03	-0
351.239	-0.06
351.448	-0.01
351.657	-0.05
351.866	0.08
352.075	-0.02
352.284	-0.02
352.493	-0.08
352.702	0.03
352.911	0.03
353.12	0
353.329	0.02
353.538	0.05
353.746	-0.02
353.955	0.01
354.164	-0
354.373	0.01
354.582	-0
354.79	0.04
354.999	0.02
355.208	-0.01
355.416	0.04
355.625	-0.05
355.834	-0.06
356.042	0.03
356.251	-0.03
356.46	-0.04
356.668	0.02
356.877	0.09
357.085	0.06
357.294	-0.09
357.503	0.02
357.711	-0.02
357.92	0.15
358.128	0.02
358.337	0
358.545	0.03
358.754	-0
358.962	0.03
359.17	0.01
359.379	0.01
359.587	0.02
359.796	-0.02
360.004	-0
360.212	0.05
360.421	0.08
360.629	-0.03
360.837	0.03
361.046	0.03
361.254	0.08
361.462	0.01
361.67	-0.03
361.879	-0.01
362.087	0.08
362.295	-0.01
362.503	-0
362.711	-0.04
362.92	-0
363.128	0
363.336	-0.02
363.544	-0.05
363.752	-0.02
363.96	-0.03
364.168	-0.02
364.376	-0.02
364.584	0
364.792	0.04
365	0.01
365.208	0.01
365.416	0.02
365.624	0.03
365.832	-0.01
366.04	0.07
366.248	-0.01
366.456	-0.01
366.664	0.03
366.872	-0
367.079	0
367.287	0.03
367.495	0.03
367.703	0
367.911	-0
368.118	-0.01
368.326	-0.01
368.534	-0.02
368.742	0.04
368.949	-0.04
369.157	-0.04
369.365	0.01
369.572	0.03
369.78	-0.03
369.988	-0.01
370.195	0
370.403	0.04
370.61	-0.04
370.818	0.07
371.026	0.06
371.233	-0.07
371.441	0.01
371.648	0
371.856	0.05
372.063	-0.01
372.271	0.01
372.478	-0.04
372.685	-0.02
372.893	0.01
373.1	0
373.308	-0.03
373.515	0.05
373.722	0.03
373.93	-0.03
374.137	0.05
374.344	0.08
374.552	0.08
374.759	0.06
374.966	0.02
375.173	0.02
375.381	0.04
375.588	0.02
375.795	-0.03
376.002	-0.02
376.209	-0.06
376.417	-0.02
376.624	-0.02
376.831	0.03
377.038	0.01
377.245	-0.09
377.452	-0.03
377.659	-0.02
377.866	-0.03
378.073	0
378.28	0.01
378.487	0.03
378.694	-0.01
378.901	-0
379.108	0
379.315	0.06
379.522	0.09
379.729	0.04
379.936	-0
380.143	0.02
380.35	0.01
380.557	-0.01
380.763	-0.02
380.97	0.01
381.177	0.02
381.384	-0.02
381.591	-0.02
381.797	0.04
382.004	0.02
382.211	0.05
382.418	0.01
382.624	0.03
382.831	0.06
383.038	0.02
383.244	0.02
383.451	0.02
383.658	0.01
383.864	-0
384.071	-0.01
384.277	0.09
384.484	-0.01
384.69	0.03
384.897	-0.02
385.103	0.02
385.31	-0.05
385.516	0.01
385.723	-0
385.929	0.01
386.136	0
386.342	0.06
386.549	0.03
386.755	0.09
386.961	0.06
387.168	-0.01
387.374	0.04
387.58	0.11
387.787	0.05
387.993	0.08
388.199	0.05
388.406	0.03
388.612	0.02
388.818	0.03
389.024	0.05
389.231	0.1
389.437	0.16
389.643	0.11
389.849	0.12
390.055	0.09
390.261	0.12
390.467	0.09
390.674	0.04
390.88	0.07
391.086	0.15
391.292	0.09
391.498	0.15
391.704	0.15
391.91	0.12
392.116	0.12
392.322	0.09
392.528	0.19
392.734	0.17
392.94	0.17
393.146	0.13
393.352	0.21
393.557	0.15
393.763	0.21
393.969	0.26
394.175	0.21
394.381	0.25
394.587	0.24
394.792	0.26
394.998	0.32
395.204	0.32
395.41	0.25
395.615	0.36
395.821	0.36
396.027	0.42
396.233	0.37
396.438	0.45
396.644	0.51
396.85	0.53
397.055	0.47
397.261	0.51
397.466	0.55
397.672	0.61
397.878	0.66
398.083	0.67
398.289	0.64
398.494	0.73
398.7	0.75
398.905	0.65
399.111	0.85
399.316	0.77
399.522	0.85
399.727	0.86
399.932	0.93
400.138	0.91
400.343	1.06
400.549	1.03
400.754	1.09
400.959	1.17
401.165	1.23
401.37	1.33
401.575	1.58
401.78	1.37
401.986	1.43
402.191	1.51
402.396	1.62
402.601	1.69
402.807	1.79
403.012	1.75
403.217	2.01
403.422	1.95
403.627	2.03
403.832	2.06
404.037	2.2
404.243	2.2
404.448	2.28
404.653	2.35
404.858	2.46
405.063	2.44
405.268	2.54
405.473	2.52
405.678	2.53
405.883	2.88
406.088	2.75
406.293	2.68
406.498	2.79
406.703	2.84
406.907	2.89
407.112	2.86
407.317	3.02
407.522	3.2
407.727	3.03
407.932	3.06
408.136	3.27
408.341	3.05
408.546	3.06
408.751	3.03
408.956	3.03
409.16	3.14
409.365	3.04
409.57	2.93
409.774	2.86
409.979	2.82
410.184	2.85
410.388	2.63
410.593	2.78
410.798	2.68
411.002	2.69
411.207	2.63
411.411	2.58
411.616	2.38
411.82	2.42
412.025	2.34
412.229	2.3
412.434	2.25
412.638	2.09
412.843	2.08
413.047	1.96
413.252	1.85
413.456	1.87
413.66	1.88
413.865	1.73
414.069	1.79
414.273	1.66
414.478	1.58
414.682	1.58
414.886	1.51
415.091	1.47
415.295	1.33
415.499	1.47
415.703	1.31
415.908	1.35
416.112	1.18
416.316	1.28
416.52	1.17
416.724	1.16
416.929	1.1
417.133	1.31
417.337	1
417.541	1.06
417.745	1.04
417.949	1.08
418.153	0.96
418.357	0.91
418.561	1.09
418.765	0.88
418.969	1.01
419.173	0.95
419.377	0.81
419.581	1
419.785	0.83
419.989	0.78
420.193	0.79
420.397	0.8
420.601	0.84
420.804	0.83
421.008	0.78
421.212	0.81
421.416	0.78
421.62	0.65
421.823	0.62
422.027	0.69
422.231	0.62
422.435	0.53
422.638	0.58
422.842	0.52
423.046	0.46
423.249	0.53
423.453	0.48
423.657	0.5
423.86	0.45
424.064	0.46
424.268	0.48
424.471	0.38
424.675	0.5
424.878	0.43
425.082	0.4
425.285	0.4
425.489	0.34
425.692	0.38
425.896	0.33
426.099	0.32
426.303	0.3
426.506	0.26
426.71	0.34
426.913	0.33
427.116	0.37
427.32	0.32
427.523	0.24
427.726	0.37
427.93	0.2
428.133	0.22
428.336	0.23
428.54	0.28
428.743	0.25
428.946	0.3
429.149	0.25
429.353	0.32
429.556	0.24
429.759	0.21
429.962	0.17
430.165	0.24
430.368	0.22
430.571	0.21
430.775	0.25
430.978	0.22
431.181	0.17
431.384	0.21
431.587	0.16
431.79	0.2
431.993	0.13
432.196	0.15
432.399	0.15
432.602	0.26
432.805	0.15
433.008	0.2
433.211	0.13
433.414	0.16
433.616	0.16
433.819	0.2
434.022	0.07
434.225	0.22
434.428	0.19
434.631	0.29
434.833	0.15
435.036	0.14
435.239	0.19
435.442	0.19
435.645	0.1
435.847	0.15
436.05	0.2
436.253	0.11
436.455	0.08
436.658	0.12
436.861	0.19
437.063	0.09
437.266	0.08
437.468	0.1
437.671	0.18
437.874	0.15
438.076	0
438.279	0.01
438.481	0.09
438.684	0.05
438.886	0.12
439.089	0.02
439.291	0.1
439.494	0.12
439.696	0.03
439.899	0.1
440.101	0.14
440.303	0.03
440.506	0.12
440.708	0.06
440.91	0.16
441.113	0.04
441.315	0.09
441.517	0.03
441.72	0.14
441.922	0.09
442.124	0.01
442.326	0.12
442.529	0.1
442.731	0.01
442.933	0.14
443.135	0.05
443.337	0.06
443.539	0.04
443.742	0.05
443.944	0.06
444.146	0.02
444.348	0.01
444.55	0.02
444.752	0.05
444.954	0.01
445.156	0.07
445.358	0.01
445.56	0.12
445.762	0.02
445.964	0.04
446.166	-0.05
446.368	0
446.57	0.12
446.772	0.08
446.974	0.07
447.175	0.03
447.377	0.04
447.579	0.04
447.781	-0.05
447.983	0.11
448.184	-0.01
448.386	0.07
448.588	-0.02
448.79	0.07
448.991	0
449.193	0.05
449.395	0.06
449.597	0.08
449.798	0.06
450	0.08
450.202	0.05
450.403	-0.01
450.605	0.05
450.806	0.05
451.008	-0.03
451.21	0.04
451.411	0.06
451.613	0.04
451.814	0.05
452.016	0.02
452.217	0.06
452.419	0.05
452.62	0.03
452.821	0.03
453.023	0.03
453.224	0.08
453.426	0.05
453.627	0.03
453.828	0.04
454.03	-0.01
454.231	0.04
454.432	0
454.634	0.1
454.835	-0.01
455.036	-0.04
455.238	0.1
455.439	0.12
455.64	-0.02
455.841	0.02
456.042	0.08
456.244	0.04
456.445	-0.01
456.646	0
456.847	0.03
457.048	0.05
457.249	0.05
457.45	0.18
457.651	0.01
457.852	0.02
458.054	0.06
458.255	-0.02
458.456	0.06
458.657	-0.01
458.858	-0.01
459.058	0.06
459.259	0.06
459.46	0.03
459.661	0.03
459.862	0.16
460.063	-0.02
460.264	0.05
460.465	-0.04
460.666	0.15
460.866	-0.02
461.067	0.06
461.268	0.03
461.469	0.03
461.67	0
461.87	0.01
462.071	-0.05
462.272	-0.03
462.473	0.03
462.673	0.08
462.874	-0.05
463.075	0.07
463.275	-0.03
463.476	0.04
463.676	0.03
463.877	0.05
464.078	-0.01
464.278	0.05
464.479	-0.02
464.679	0.02
464.88	0.05
465.08	0.11
465.281	0.02
465.481	0.04
465.682	-0.01
465.882	0.02
466.083	0.02
466.283	0.05
466.483	0.03
466.684	-0.01
466.884	-0.02
467.085	0.02
467.285	0.04
467.485	-0.02
467.686	-0.04
467.886	-0.02
468.086	0.03
468.286	-0
468.487	0.04
468.687	-0.06
468.887	-0
469.087	0.05
469.287	-0
469.488	-0.02
469.688	0.03
469.888	0.05
470.088	0.02
470.288	0.05
470.488	0.11
470.688	-0.04
470.888	-0.02
471.088	-0.01
471.288	0.07
471.488	0.04
471.688	0.05
471.888	-0.02
472.088	0.05
472.288	0.06
472.488	-0.01
472.688	0.03
472.888	0
473.088	0.05
473.288	0.03
473.488	-0.01
473.688	0.11
473.887	0.02
474.087	-0.03
474.287	0.03
474.487	-0.01
474.687	0.05
474.886	-0.03
475.086	0.02
475.286	0.02
475.486	0.02
475.685	-0.02
475.885	-0.01
476.085	0.02
476.284	0.07
476.484	0.02
476.684	0.04
476.883	0.07
477.083	0.01
477.282	0.02
477.482	0.06
477.681	0.05
477.881	0.03
478.08	-0.01
478.28	-0.03
478.479	0.04
478.679	0.04
478.878	-0.04
479.078	0.01
479.277	0.04
479.477	-0.01
479.676	0.05
479.875	0
480.075	-0.07
480.274	-0.01
480.473	0.04
480.673	-0.04
480.872	0.03
481.071	0.01
481.271	0.03
481.47	-0.01
481.669	-0.01
481.868	-0
482.067	-0.02
482.267	-0.01
482.466	-0.03
482.665	-0.01
482.864	-0.03
483.063	-0.03
483.262	0.01
483.461	0.05
483.661	0.03
483.86	-0.01
484.059	0.03
484.258	-0.02
484.457	-0.01
484.656	0.01
484.855	0.06
485.054	-0.05
485.253	-0.03
485.452	-0.04
485.651	-0
485.849	-0.04
486.048	-0.03
486.247	-0.02
486.446	0.02
486.645	-0.01
486.844	-0.01
487.043	0.01
487.241	0.05
487.44	-0.02
487.639	0.01
487.838	0.03
488.037	0.01
488.235	0.08
488.434	-0
488.633	0.01
488.831	0
489.03	0.03
489.229	0
489.427	-0.01
489.626	0.05
489.825	0.06
490.023	-0
490.222	-0.01
490.42	0.04
490.619	0.05
490.817	0.01
491.016	-0
491.214	0.04
491.413	0.02
491.611	-0
491.81	-0.01
492.008	0.03
492.207	0.03
492.405	0.01
492.604	-0.03
492.802	-0.02
493	0
493.199	-0.01
493.397	0
493.595	0.01
493.794	-0.02
493.992	0.05
494.19	0.01
494.388	-0
494.587	-0.02
494.785	0.04
494.983	-0.01
495.181	0.01
495.379	0.01
495.578	-0
495.776	0.02
495.974	0.02
496.172	-0.01
496.37	-0.01
496.568	-0.03
496.766	-0.02
496.964	0.02
497.162	0.02
497.36	-0.02
497.558	0.03
497.756	0.02
497.954	0.01
498.152	-0.02
498.35	-0.01
498.548	-0.01
498.746	0.02
498.944	-0.01
499.142	-0
499.34	-0.04
499.538	-0
499.736	-0.02
499.933	0.05
500.131	0.05
500.329	-0.01
500.527	0.04
500.725	0.04
500.922	0.03
501.12	0
501.318	0.02
501.516	-0
501.713	0.02
501.911	-0
502.109	-0.02
502.306	0
502.504	-0.01
502.701	-0.01
502.899	-0
503.097	0.06
503.294	-0
503.492	-0.02
503.689	0
503.887	0.02
504.084	0.03
504.282	-0
504.479	-0.03
504.677	0.01
504.874	-0.02
505.072	0.01
505.269	-0.01
505.466	0.01
505.664	0.02
505.861	-0.05
506.059	-0
506.256	0.02
506.453	-0.02
506.651	0.04
506.848	0.01
507.045	0.02
507.242	0.01
507.44	0
507.637	-0
507.834	0
508.031	0.03
508.229	-0.04
508.426	0.01
508.623	0.02
508.82	-0.02
509.017	-0.03
509.214	-0
509.411	0.01
509.608	-0.02
509.805	-0.03
510.003	-0.01
510.2	-0.01
510.397	0.05
510.594	-0.01
510.791	-0.02
510.988	-0.01
511.184	0.04
511.381	0
511.578	-0.02
511.775	0.01
511.972	0.01
512.169	0
512.366	0.01
512.563	0
512.76	-0.01
512.956	0.03
513.153	-0
513.35	-0.01
513.547	-0
513.744	-0.01
513.94	-0.04
514.137	0.02
514.334	0.01
514.53	0.02
514.727	-0
514.924	0.02
515.12	-0.01
515.317	-0.03
515.514	-0.03
515.71	-0.05
515.907	-0.01
516.103	0
516.3	0.01
516.497	0.01
516.693	0.02
516.89	-0.01
517.086	-0.01
517.283	0.02
517.479	0.01
517.676	-0.02
517.872	0
518.068	-0.01
518.265	-0.02
518.461	-0.01
518.658	-0.03
518.854	0.01
519.05	0
519.247	-0.02
519.443	0.01
519.639	-0
519.836	-0.01
520.032	0
520.228	0.02
520.424	0.05
520.621	0.01
520.817	0
521.013	0.02
521.209	-0.01
521.405	0.04
521.601	-0
521.798	0.01
521.994	0.02
522.19	-0.01
522.386	-0.03
522.582	-0
522.778	-0.01
522.974	-0.02
523.17	-0.01
523.366	0
523.562	0.01
523.758	0.01
523.954	-0.03
524.15	-0
524.346	0.01
524.542	-0.02
524.738	-0.01
524.934	-0
525.129	-0.09
525.325	0.02
525.521	0.01
525.717	0.01
525.913	0
526.109	0.01
526.304	-0
526.5	-0
526.696	0.02
526.892	0.01
527.087	-0.01
527.283	-0.03
527.479	0.02
527.674	-0.02
527.87	-0
528.066	-0.01
528.261	0.02
528.457	0.02
528.653	-0.02
528.848	-0.01
529.044	0
529.239	-0.01
529.435	0.01
529.63	0.01
529.826	0.06
530.021	0.01
530.217	0.03
530.412	-0.02
530.608	-0.02
530.803	0
530.999	-0.01
531.194	-0.04
531.389	0.03
531.585	-0.04
531.78	-0.02
531.975	-0
532.171	0
532.366	-0.01
532.561	0.01
532.757	-0.01
532.952	0.01
533.147	0.01
533.342	-0.01
533.538	-0.03
533.733	0.03
533.928	0.01
534.123	-0.01
534.318	-0.03
534.513	-0.01
534.709	0.01
534.904	-0.03
535.099	-0.03
535.294	-0.03
535.489	0
535.684	-0
535.879	-0.03
536.074	0.02
536.269	-0.04
536.464	0.01
536.659	0.01
536.854	-0.01
537.049	0
537.244	0
537.439	-0.01
537.634	0.02
537.828	-0
538.023	-0.02
538.218	-0.04
538.413	-0.02
538.608	-0.03
538.803	0.03
538.997	-0.05
539.192	0.01
539.387	0.01
539.582	-0.01
539.776	-0
539.971	-0
540.166	-0.02
540.36	-0.04
540.555	0
540.75	-0.01
540.944	-0.01
541.139	-0.02
541.334	0
541.528	0.01
541.723	0.03
541.917	-0
542.112	-0.04
542.306	-0.01
542.501	-0.03
542.695	-0.01
542.89	-0.02
543.084	-0
543.279	-0.01
543.473	-0.01
543.668	-0
543.862	-0.01
544.056	-0.01
544.251	0.01
544.445	0.02
544.64	0.01
544.834	-0.03
545.028	-0.03
545.222	0
545.417	0.01
545.611	0.01
545.805	-0
546	-0.02
546.194	-0
546.388	-0
546.582	0
546.776	-0.01
546.97	-0.02
547.165	0.02
547.359	0.03
547.553	-0.02
547.747	-0
547.941	0.01
548.135	-0
548.329	0
548.523	0.01
548.717	-0.02
548.911	-0.03
549.105	0.02
549.299	-0.02
549.493	0.01
549.687	0.01
549.881	0.01
550.075	0.01
550.269	-0.03
550.463	0
550.657	-0.01
550.85	-0.02
551.044	-0.04
551.238	-0.01
551.432	-0.02
551.626	-0.03
551.82	0
552.013	-0.02
552.207	-0.02
552.401	0
552.594	0.01
552.788	-0.01
552.982	-0.01
553.176	-0.02
553.369	0.01
553.563	0
553.756	-0.04
553.95	-0.01
554.144	-0
554.337	0.01
554.531	0
554.724	-0.02
554.918	-0.01
555.111	0.01
555.305	0.01
555.498	0.05
555.692	0.01
555.885	-0.01
556.079	-0.01
556.272	-0.02
556.466	0.02
556.659	0.01
556.852	0.01
557.046	-0.02
557.239	0.01
557.432	-0.05
557.626	-0.02
557.819	0.01
558.012	0
558.206	0.01
558.399	-0
558.592	-0.02
558.785	-0.01
558.979	0.05
559.172	0
559.365	0
559.558	-0
559.751	-0
559.944	-0.03
560.138	-0.01
560.331	-0
560.524	-0.01
560.717	-0.02
560.91	-0.02
561.103	0
561.296	-0.01
561.489	0
561.682	0.01
561.875	0.02
562.068	-0
562.261	0.01
562.454	0.05
562.647	-0
562.84	0.01
563.032	-0.02
563.225	-0
563.418	-0.01
563.611	-0.02
563.804	-0.01
563.997	-0.03
564.19	-0.05
564.382	-0.01
564.575	-0.03
564.768	0.01
564.961	-0.02
565.153	-0.04
565.346	-0.01
565.539	0.01
565.731	0.01
565.924	0.01
566.117	0.01
566.309	0.01
566.502	-0.02
566.695	-0.03
566.887	0
567.08	-0.03
567.272	-0.01
567.465	-0.03
567.657	-0.01
567.85	0.01
568.042	-0.01
568.235	0.01
568.427	-0
568.62	0.01
568.812	0.04
569.005	-0
569.197	-0.03
569.389	-0.02
569.582	-0.02
569.774	-0.01
569.966	-0.02
570.159	-0.04
570.351	-0
570.543	-0.02
570.736	-0
570.928	-0.03
571.12	0.01
571.312	-0.02
571.505	-0.03
571.697	0.02
571.889	-0.03
572.081	-0.01
572.273	-0.02
572.465	-0
572.658	0.01
572.85	0.01
573.042	-0
573.234	-0
573.426	0.03
573.618	-0.04
573.81	-0
574.002	0.03
574.194	0.02
574.386	-0.04
574.578	-0.07
574.77	-0.04
574.962	0.01
575.154	-0.06
575.346	-0.03
575.538	0.02
575.729	-0.03
575.921	-0.02
576.113	-0.01
576.305	0.02
576.497	-0.03
576.689	-0.01
576.88	-0.04
577.072	0.01
577.264	-0
577.456	-0.01
577.647	-0.09
577.839	-0.01
578.031	0.04
578.223	-0.05
578.414	-0.02
578.606	-0.02
578.798	-0
578.989	-0.05
579.181	-0.01
579.372	-0.04
579.564	-0
579.755	-0.01
579.947	-0.02
580.139	0.01
580.33	-0.06
580.522	-0.04
580.713	-0.08
580.905	-0.01
581.096	0.01
581.287	-0
581.479	-0.02
581.67	0.02
581.862	-0
582.053	-0.04
582.244	-0.06
582.436	-0.04
582.627	0.02
582.818	-0.02
583.01	-0.03
583.201	0
583.392	0.01
583.583	0
583.775	-0.02
583.966	-0.02
584.157	-0.01
584.348	-0.05
584.54	-0.03
584.731	-0.01
584.922	0
585.113	-0.03
585.304	0.01
585.495	0.01
585.686	0.01
585.877	-0
586.068	-0.01
586.259	0.02
586.45	-0.03
586.641	-0.02
586.832	-0.06
587.023	-0.01
587.214	-0.01
587.405	-0
587.596	-0.04
587.787	0.04
587.978	0.01
588.169	-0.04
588.36	-0.01
588.551	-0.02
588.742	-0.02
588.932	-0
589.123	-0.01
589.314	0.02
589.505	0.01
589.696	0.02
589.886	-0.04
590.077	-0.06
590.268	0
590.458	-0.05
590.649	-0.04
590.84	0.02
591.03	-0.01
591.221	-0.05
591.412	-0.03
591.602	0.01
591.793	0.01
591.984	-0.04
592.174	-0.02
592.365	0.04
592.555	-0.02
592.746	-0.01
592.936	-0
593.127	0.01
593.317	0.02
593.508	-0.04
593.698	-0.01
593.889	0.01
594.079	-0.01
594.269	-0.03
594.46	0.01
594.65	-0.03
594.84	0.02
595.031	-0.04
595.221	-0.04
595.411	-0.05
595.602	0.02
595.792	-0.04
595.982	-0.04
596.172	0.06
596.363	-0
596.553	-0.01
596.743	-0.01
596.933	-0
597.123	0.01
597.314	-0.03
597.504	-0.04
597.694	0.03
597.884	0.03
598.074	-0.01
598.264	-0.04
598.454	-0.01
598.644	-0.03
598.834	-0.01
599.024	-0.07
599.214	-0.01
599.404	0.03
599.594	-0.02
599.784	-0.03
599.974	0.03
600.164	0.03
600.354	-0.04
600.544	-0.07
600.734	-0
600.924	0.01
601.114	-0.01
601.303	0.01
601.493	0.01
601.683	-0.02
601.873	-0.01
602.063	-0.06
602.252	0.03
602.442	-0.08
602.632	-0.04
602.821	-0.04
603.011	0.02
603.201	-0.03
603.39	-0.03
603.58	-0.02
603.77	0
603.959	0.03
604.149	-0.02
604.339	-0.03
604.528	0.01
604.718	0.01
604.907	-0.01
605.097	-0.04
605.286	-0.05
605.476	-0.02
605.665	0
605.855	-0.02
606.044	0.04
606.234	-0.02
606.423	-0.02
606.612	-0.03
606.802	-0.01
606.991	0.03
607.181	-0
607.37	-0.08
607.559	-0.03
607.749	-0.06
607.938	0.01
608.127	-0.04
608.316	-0.04
608.506	0
608.695	-0.02
608.884	-0.06
609.073	-0.04
609.263	-0.02
609.452	-0.01
609.641	-0.01
609.83	-0.05
610.019	-0.02
610.208	-0.05
610.397	-0.01
610.586	0.02
610.775	-0.01
610.965	-0.03
611.154	-0.03
611.343	0.01
611.532	0.01
611.721	-0.05
611.91	-0.03
612.099	0
612.287	-0.01
612.476	-0.05
612.665	-0.02
612.854	-0.04
613.043	0.01
613.232	-0.03
613.421	-0.06
613.61	-0.01
613.798	-0.04
613.987	0.02
614.176	-0.04
614.365	0.02
614.554	0.01
614.742	0.03
614.931	-0.04
615.12	0.02
615.309	-0.04
615.497	0.01
615.686	-0.03
615.875	-0.01
616.063	-0.01
616.252	-0.03
616.44	-0.01
616.629	-0.02
616.818	0.01
617.006	-0.02
617.195	-0.01
617.383	0.01
617.572	0.01
617.76	-0.02
617.949	0.01
618.137	0.02
618.326	0.05
618.514	-0.03
618.703	-0.05
618.891	0.06
619.079	-0.06
619.268	0.01
619.456	-0.06
619.644	0.02
619.833	-0.06
620.021	-0.05
620.209	-0.06
620.398	-0
620.586	-0.03
620.774	0
620.962	-0.02
621.151	0.01
621.339	-0.02
621.527	-0.08
621.715	-0.05
621.903	-0.04
622.092	-0.04
622.28	-0.03
622.468	-0.03
622.656	-0.03
622.844	0
623.032	-0.04
623.22	-0.06
623.408	0.03
623.596	-0.02
623.784	0
623.972	-0.06
624.16	-0.01
624.348	0.03
624.536	-0.04
624.724	-0.05
624.912	0.02
625.1	0.04
625.288	-0.04
625.476	-0.02
625.664	0.01
625.851	-0.05
626.039	-0.01
626.227	-0
626.415	-0.03
626.603	-0.07
626.79	-0.01
626.978	-0.03
627.166	-0.01
627.354	-0.02
627.541	-0
627.729	-0.08
627.917	0.02
628.104	-0
628.292	0.03
628.48	-0.05
628.667	0.02
628.855	0.01
629.042	-0.03
629.23	-0.02
629.418	-0.02
629.605	0
629.793	-0.04
629.98	-0.06
630.168	-0.03
630.355	-0.02
630.543	-0.01
630.73	-0.08
630.917	0.02
631.105	0.06
631.292	-0.05
631.48	-0.03
631.667	0.06
631.854	-0.01
632.042	-0.04
632.229	-0.05
632.416	0.01
632.604	-0.03
632.791	-0.07
632.978	0.02
633.165	-0.02
633.353	0.05
633.54	0.03
633.727	-0.09
633.914	-0.04
634.101	-0.1
634.289	0.01
634.476	-0.06
634.663	-0.07
634.85	-0.01
635.037	-0.04
635.224	-0.08
635.411	0.01
635.598	-0.01
635.785	-0
635.972	0.01
636.159	0.03
636.346	-0.05
636.533	-0.02
636.72	-0.03
636.907	-0.02
637.094	0.02
637.281	-0
637.468	0.02
637.655	-0.01
637.842	-0.03
638.029	-0.02
638.215	0.01
638.402	-0.02
638.589	-0.05
638.776	-0.05
638.963	-0.01
639.149	0.01
639.336	0.05
639.523	-0.03
639.709	-0.01
639.896	-0.03
640.083	0.03
640.27	-0
640.456	-0.05
640.643	-0.02
640.829	-0.08
641.016	-0.02
641.203	-0.06
641.389	0.01
641.576	-0.02
641.762	-0.02
641.949	-0.03
642.135	0.01
642.322	0
642.508	-0.06
642.695	-0.02
642.881	-0.03
643.068	-0.03
643.254	-0.01
643.441	0.06
643.627	-0
643.813	-0.05
644	0.02
644.186	-0.03
644.372	-0.07
644.559	0.02
644.745	-0.02
644.931	-0.05
645.118	-0.02
645.304	-0.04
645.49	-0.04
645.676	-0.02
645.862	-0.02
646.049	0.04
646.235	-0.02
646.421	0.03
646.607	0.03
646.793	-0.05
646.979	-0.06
647.165	-0
647.352	0.01
647.538	0.04
647.724	-0.04
647.91	-0.02
648.096	0.05
648.282	0.01
648.468	-0.03
648.654	-0
648.84	-0
649.026	-0.04
649.212	-0.04
649.397	-0.04
649.583	-0.05
649.769	0.05
649.955	-0.02
650.141	0
650.327	0.03
650.513	-0.07
650.698	-0.03
650.884	-0.1
651.07	-0.01
651.256	-0.01
651.442	-0.01
651.627	-0.04
651.813	-0.01
651.999	-0.04
652.184	0.02
652.37	-0.04
652.556	-0.03
652.741	0.05
652.927	-0.09
653.113	-0.01
653.298	0.01
653.484	-0.01
653.669	-0.06
653.855	0
654.04	0.02
654.226	-0.01
654.412	-0.02
654.597	-0.04
654.782	-0.03
654.968	0.03
655.153	0.03
655.339	0
655.524	-0.08
655.71	0.01
655.895	0.01
656.08	-0.05
656.266	0.03
656.451	0.01
656.636	-0.06
656.822	0.01
657.007	-0.06
657.192	-0.03
657.378	-0.07
657.563	-0.03
657.748	-0.01
657.933	-0.02
658.118	-0.03
658.304	-0.02
658.489	0.02
658.674	-0.02
658.859	-0.08
659.044	-0.01
659.229	-0.03
659.414	-0.04
659.599	-0.02
659.785	-0.08
659.97	-0.02
660.155	-0.01
660.34	-0.01
660.525	-0.03
660.71	-0.03
660.895	0.01
661.08	-0.04
661.264	-0.06
661.449	0.02
661.634	0.02
661.819	-0
662.004	0
662.189	-0.1
662.374	-0.07
662.559	-0.05
662.743	-0.1
662.928	-0.04
663.113	-0.02
663.298	-0.11
663.483	-0.05
663.667	0.03
663.852	-0.04
664.037	0.02
664.221	-0.05
664.406	0.03
664.591	-0.01
664.775	-0.02
664.96	-0.05
665.145	-0
665.329	0.01
665.514	-0.06
665.698	-0.04
665.883	-0.08
666.068	0.05
666.252	-0.04
666.437	-0.05
666.621	-0
666.806	0.04
666.99	-0
667.174	-0.07
667.359	0.05
667.543	-0.03
667.728	-0.03
667.912	-0.1
668.096	0.02
668.281	-0.03
668.465	-0.02
668.649	-0
668.834	-0.03
669.018	-0
669.202	-0.05
669.387	-0.06
669.571	0.03
669.755	-0.07
669.939	-0.04
670.124	-0.02
670.308	0.04
670.492	0
670.676	-0.06
670.86	-0.04
671.044	-0.06
671.228	0.05
671.413	-0.05
671.597	-0.04
671.781	-0.04
671.965	0
672.149	-0.04
672.333	-0.01
672.517	-0.06
672.701	-0.02
672.885	-0.03
673.069	-0.1
673.253	0.01
673.437	-0.04
673.621	-0.03
673.804	-0.03
673.988	-0.04
674.172	-0.06
674.356	-0.06
674.54	-0.04
674.724	0.09
674.908	-0.04
675.091	0
675.275	-0.02
675.459	-0.01
675.643	-0.02
675.826	-0
676.01	0.01
676.194	-0.02
676.377	0.04
676.561	0.02
676.745	-0
676.928	0.02
677.112	0
677.296	-0.03
677.479	-0.03
677.663	-0.03
677.846	-0.01
678.03	-0.03
678.213	-0.06
678.397	0.03
678.58	-0.04
678.764	-0.04
678.947	-0.07
679.131	-0.1
679.314	0.06
679.498	-0.02
679.681	-0.03
679.865	-0.02
680.048	-0.06
680.231	-0.02
680.415	-0.04
680.598	-0.03
680.781	-0.03
680.965	-0.06
681.148	-0.01
681.331	-0.03
681.514	0.05
681.698	-0
681.881	-0.03
682.064	-0.04
682.247	-0.02
682.43	-0.06
682.614	-0.02
682.797	0.03
682.98	0
683.163	-0.04
683.346	-0.01
683.529	-0.06
683.712	-0.09
683.895	0.01
684.078	-0.09
684.261	-0.04
684.444	-0.03
684.627	-0
684.81	-0.03
684.993	-0.04
685.176	0.01
685.359	-0.07
685.542	-0.07
685.725	0.04
685.908	-0.05
686.091	-0.05
686.274	0.01
686.457	-0.01
686.639	-0.03
686.822	0.02
687.005	-0.01
687.188	0.03
687.371	0.1
687.553	-0.01
687.736	0.04
687.919	0.04
688.102	0.01
688.284	-0.05
688.467	-0.01
688.65	-0.04
688.832	-0.08
689.015	-0.04
689.197	-0.06
689.38	0.04
689.563	0.08
689.745	-0.04
689.928	-0.1
690.11	-0.04
690.293	0.02
690.475	-0.08
690.658	-0
690.84	-0.01
691.023	-0.03
691.205	-0.04
691.388	-0.02
691.57	0.06
691.752	-0.01
691.935	-0.09
692.117	-0.06
692.3	-0.04
692.482	-0.02
692.664	-0.02
692.847	-0.01
693.029	0.04
693.211	-0
693.393	-0.1
693.576	-0.07
693.758	-0
693.94	-0.05
694.122	-0.07
694.304	0.02
694.487	-0.04
694.669	0.06
694.851	-0.06
695.033	-0
695.215	-0.02
695.397	-0.08
695.579	0.03
695.761	-0.03
695.943	-0.11
696.125	0.09
696.308	-0.02
696.49	-0.11
696.671	0.08
696.853	-0.05
697.035	0.09
697.217	0.01
697.399	-0
697.581	-0.08
697.763	-0.01
697.945	-0.12
698.127	0
698.309	0.05
698.491	0.02
698.672	0
698.854	-0.01
699.036	0.01
699.218	-0.03
699.399	0.04
699.581	-0.02
699.763	-0.04
699.945	-0.08
700.126	-0.07
700.308	-0.06
700.49	-0.01
700.671	-0.14
700.853	-0.03
701.035	-0.05
701.216	-0.03
701.398	-0.05
701.579	-0.03
701.761	-0
701.943	-0.01
702.124	-0.08
702.306	-0.04
702.487	0.1
702.669	0.02
702.85	-0.08
703.031	-0.12
703.213	0.1
703.394	0.04
703.576	-0.08
703.757	0.01
703.938	0.06
704.12	0.09
704.301	-0.04
704.483	-0.06
704.664	-0.04
704.845	0.09
705.026	0
705.208	-0.01
705.389	-0.01
705.57	-0.03
705.751	0.03
705.933	-0.01
706.114	0.05
706.295	0.01
706.476	-0.09
706.657	0.05
706.838	-0.01
707.02	0.03
707.201	-0.13
707.382	-0.03
707.563	-0
707.744	-0.04
707.925	-0.09
708.106	-0.06
708.287	-0.01
708.468	0.13
708.649	-0.03
708.83	0.03
709.011	-0.06
709.192	0.06
709.373	-0.09
709.554	-0.05
709.734	-0.02
709.915	0.02
710.096	0.01
710.277	-0.12
710.458	0.01
710.639	-0.04
710.819	-0.12
711	-0.11
711.181	0.01
711.362	0.02
711.542	-0.05
711.723	-0.03
711.904	0.03
712.085	-0.01
712.265	0.05
712.446	-0.12
712.627	-0.1
712.807	0.03
712.988	0.01
713.168	-0.09
713.349	0.06
713.53	-0.16
713.71	-0.16
713.891	-0.08
714.071	-0.02
714.252	-0.03
714.432	-0.06
714.613	-0.1
714.793	-0.06
714.974	0.03
715.154	-0.01
715.334	0.05
715.515	-0.02
715.695	-0.11
715.876	-0.01
716.056	-0.03
716.236	-0.02
716.417	-0.05
716.597	-0.08
716.777	0.05
716.957	0.01
717.138	-0.1
717.318	-0.05
717.498	-0.1
717.678	-0.04
717.859	-0.03
718.039	-0.14
718.219	-0.04
718.399	0.03
718.579	-0.1
718.759	-0.12
718.939	0.01
719.12	-0
719.3	-0.03
719.48	-0.23
719.66	-0.12
719.84	0.01
720.02	-0.02
720.2	-0.01
720.38	-0.03
720.56	0.05
720.74	-0.04
720.92	-0.07
721.1	0.03
721.279	0.01
721.459	0.05
721.639	-0.16
721.819	-0.03
721.999	-0.07
722.179	-0.01
722.359	-0.14
722.538	-0.05
722.718	-0.09
722.898	-0.07
723.078	-0.06
723.257	-0.09
723.437	-0.01
723.617	0.02
723.797	-0.09
723.976	-0.04
724.156	0
724.336	0.05
724.515	0.05
724.695	-0.17
724.874	-0.08
725.054	0.04
725.234	-0.01
725.413	-0.02
725.593	-0.1
725.772	-0.01
725.952	-0.01
726.131	-0.08
726.311	-0.03
726.49	-0.11
726.67	-0.05
726.849	0
727.028	0.05
727.208	-0.12
727.387	-0.02
727.567	-0.18
727.746	-0.02
727.925	-0.15
728.105	-0.03
728.284	-0.04
728.463	-0.06
728.643	0.04
728.822	-0.07
729.001	-0.08
729.18	0.02
729.359	-0.06
729.539	-0.04
729.718	-0.12
729.897	-0
730.076	-0.03
730.255	-0.23
730.434	-0.04
730.614	0.02
730.793	0.05
730.972	-0.03
731.151	0.02
731.33	0.11
731.509	0.06
731.688	-0.06
731.867	0.06
732.046	-0.17
732.225	0.07
732.404	-0.2
732.583	-0.09
732.762	0.03
732.941	0.03
733.12	-0.04
733.298	-0.03
733.477	0.11
733.656	-0.05
733.835	-0.13
734.014	0.07
734.193	-0.08
734.371	0.11
734.55	-0.03
734.729	-0.16
734.908	-0.05
735.086	-0.06
735.265	-0.06
735.444	-0.24
735.623	-0.06
735.801	-0.1
735.98	-0.03
736.159	-0.05
736.337	0.02
736.516	-0.07
736.694	-0.01
736.873	-0.05
737.052	0.15
737.23	-0.01
737.409	-0.01
737.587	0.08
737.766	-0.13
737.944	-0.18
738.123	0.01
738.301	-0.01
738.479	-0.05
738.658	-0.08
738.836	-0.29
739.015	-0.05
739.193	0.13
739.371	-0.05
739.55	-0.05
739.728	-0.27
739.906	0.06
740.085	0.15
740.263	0.03
740.441	-0.24
740.62	0.04
740.798	0.07
740.976	-0.11
741.154	-0.17
741.332	0.16
741.511	-0.09
741.689	-0.02
741.867	-0.03
742.045	-0.03
742.223	-0.13
742.401	-0.11
742.579	-0.12
742.757	-0.1
742.935	-0.23
743.114	-0
743.292	-0.08
743.47	-0.05
743.648	-0.04
743.826	-0.07
744.004	-0.05
744.181	0.08
744.359	-0.13
744.537	0.03
744.715	-0.16
744.893	-0.1
745.071	-0.1
745.249	-0.05
745.427	-0.02
745.605	-0.02
745.782	0.04
745.96	-0.01
746.138	-0.05
746.316	0.15
746.493	-0.07
746.671	-0.05
746.849	-0.06
747.027	0.09
747.204	-0.12
747.382	-0.07
747.56	-0.09
747.737	-0.18
747.915	-0.05
748.093	0.05
748.27	-0.11
748.448	-0.14
748.625	-0.18
748.803	-0.18
748.98	-0.06
749.158	-0.07
749.335	0.02
749.513	-0.13
749.69	-0.05
749.868	0.02
750.045	0.06
750.223	-0.06
750.4	-0.14
750.578	0.1
750.755	-0.08
750.932	-0.22
751.11	0.08
751.287	-0.19
751.464	0.11
751.642	-0.04
751.819	-0.07
751.996	0.01
752.173	-0.13
752.351	-0.1
752.528	0.02
752.705	-0.04
752.882	-0.1
753.06	-0.08
753.237	-0.06
753.414	0.14
753.591	0.16
753.768	-0.07
753.945	0.03
754.122	-0.14
754.299	-0.06
754.476	-0.14
754.654	-0.07
754.831	-0
755.008	-0.01
755.185	-0.03
755.362	-0.11
755.539	-0.01
755.716	-0.09
755.892	-0.06
756.069	-0.03
756.246	-0.03
756.423	0.02
756.6	0.09
756.777	-0.08
756.954	0.04
757.131	0.01
757.307	-0.15
757.484	-0.2
757.661	0.05
757.838	-0.02
758.015	-0.12
758.191	0.01
758.368	-0.02
758.545	0.17
758.721	0.09
758.898	-0.16
759.075	-0.04
759.251	0.06
759.428	0.07
759.605	-0.2
759.781	0
759.958	-0.07
760.134	0.04
760.311	-0.16
760.488	0.18
760.664	0.13
760.841	-0.13
761.017	-0.15
761.194	-0.02
761.37	0.04
761.547	-0.07
761.723	0.03
761.899	0.14
762.076	-0.14
762.252	-0.21
762.429	-0.28
762.605	0.02
762.781	-0.11
762.958	0.04
763.134	-0.21
763.31	-0.08
763.486	0.13
763.663	-0.25
763.839	-0.01
764.015	-0.22
764.191	-0.03
764.368	0.01
764.544	-0.08
764.72	0.01
764.896	0.01
765.072	-0.06
765.248	-0.04
765.425	-0.02
765.601	-0.09
765.777	-0.01
765.953	-0.25
766.129	-0.1
766.305	-0.08
766.481	0.04
766.657	-0.12
766.833	0.11
767.009	-0.21
767.185	-0.07
767.361	-0.05
767.537	-0.24
767.713	0.13
767.889	-0.09
768.065	0.02
768.24	0.05
768.416	0.1
768.592	-0.03
768.768	-0.03
768.944	0.03
769.12	-0.08
769.295	-0.1
769.471	0
769.647	-0.07
769.823	0.07
769.998	-0.18
770.174	-0.11
770.35	0.31
770.525	0.16
770.701	-0.08
770.877	-0.18
771.052	-0.16
771.228	0.17
771.403	-0
771.579	-0.06
771.755	0.3
771.93	-0.15
772.106	-0.15
772.281	-0.16
772.457	-0.03
772.632	-0.01
772.808	-0.29
772.983	-0.19
773.159	-0.28
773.334	0.14
773.509	-0.03
773.685	-0.21
773.86	0.27
774.036	0.17
774.211	-0.06
774.386	-0.08
774.562	0.07
774.737	-0.12
774.912	-0.06
775.087	-0.01
775.263	-0.05
775.438	-0.11
775.613	-0.26
775.788	0.01
775.964	0.1
776.139	0.27
776.314	-0.26
776.489	-0.01
776.664	-0.08
776.839	-0.32
777.014	0.09
777.19	0.13
777.365	0.19
777.54	0.15
777.715	-0.15
777.89	-0.03
778.065	-0.15
778.24	-0.02
778.415	0.2
778.59	-0.18
778.765	-0.05
778.94	-0.03
779.115	-0.24
779.289	-0.06
779.464	-0.12
779.639	-0.08
779.814	-0.25
779.989	-0.26
780.164	0.16
780.339	-0.04
780.513	-0.05
780.688	-0.14
780.863	-0.05
781.038	0.05
781.212	-0.27
781.387	0.03
781.562	0.13
781.737	0.05
781.911	-0.03
782.086	-0.13
782.261	-0.16
782.435	0.05
782.61	-0.17
782.784	-0.12
782.959	0.13
783.134	-0.05
783.308	-0.26
783.483	0
783.657	0.42
783.832	0.15
784.006	-0.42
784.181	-0.05
784.355	-0.12
784.53	0.04
784.704	-0.3
784.878	0.08
785.053	-0.12
785.227	0.38
785.402	0.29
785.576	-0.45
785.75	0.02
785.925	-0.01
786.099	0.09
786.273	0.08
786.448	0.21
786.622	0.26
786.796	-0.1
786.97	-0.15
787.145	0.43
787.319	-0.17
787.493	-0.1
787.667	-0.22
787.841	-0.23
788.015	0.05
788.19	-0
788.364	0.05
788.538	0.05
788.712	0.13
788.886	-0.1
789.06	0.12
789.234	0.1
789.408	-0.29
789.582	-0.1
789.756	0.02
789.93	-0.21
790.104	-0.27
790.278	-0
790.452	-0.34
790.626	-0.1
790.8	-0.38
790.973	-0.04
791.147	0.12
791.321	0.28
791.495	0.27
791.669	0.02
791.843	0.01
792.016	0.12
792.19	0.51
792.364	-0.39
792.538	0.47
792.711	0.1
792.885	-0.1
793.059	-0.53
793.233	-0.49
793.406	0.38
793.58	0.05
793.754	0.19
793.927	-0.03
794.101	0.3
794.274	0.01
794.448	0.1
794.622	-0.39
794.795	0.36
794.969	-0.22
795.142	0.09
795.316	-0.03
795.489	-0.28
795.663	0.31
795.836	-0.12
796.009	-0.28
796.183	0.21
796.356	0.02
796.53	0.09
796.703	-0.01
796.876	0.44
797.05	-0.13
797.223	-0.11
797.396	-0.05
797.57	0.05
797.743	0.52
797.916	-0.1
798.09	-0.21
798.263	-0.01
798.436	0.01
798.609	-0.01
798.782	-0.17
798.956	-0.08
799.129	-0.01
799.302	-0.3
799.475	-0.51
799.648	-0.34
799.821	-0.24
799.994	-0.16
800.167	-0.63
800.34	0.09
800.514	0.3
800.687	0.01
800.86	-0.27
801.033	0.12
801.206	0.18
801.379	-0.23
801.551	-0.2
801.724	0.11
801.897	0.34
802.07	-0.37
802.243	-0.71
802.416	-0.04
802.589	-0.33
802.762	0.14
802.935	-0.02
803.107	-0.04
803.28	-0.03
803.453	-0.1
803.626	-0.33
803.798	-0.17
803.971	-0.44
804.144	-0.15
804.317	0.21
804.489	0.28
804.662	-0.09
804.835	0.24
805.007	-0.12
805.18	0.14
805.353	-0.08
805.525	-0.31
805.698	-0.36
805.87	0.2
806.043	0.24
806.215	-0.68
806.388	-0.11
806.56	0.13
806.733	0.46
806.905	-0.14
807.078	-0.14
807.25	-0.44
807.423	0.07
807.595	-0.1
807.768	-0.17
807.94	0.33
808.112	0.09
808.285	-0.59
808.457	0.01
808.629	0.01
808.802	0.54
808.974	-0.23
809.146	-0.74
809.318	-0.6
809.491	-0.24
809.663	0.28
809.835	-0.09
810.007	0.11
810.18	-0.18
810.352	-0.56
810.524	-0.37
810.696	0.01
810.868	0.17
811.04	-0.01
811.212	-0.07
811.384	0.17
811.556	-0.07
811.728	-0.4
811.901	0.52
812.073	-0.43
812.245	0.14
812.417	-0.12
812.589	-0.8
812.76	0.38
812.932	0.37
813.104	0.4
813.276	-0.03
813.448	0.37
813.62	-0.45
813.792	0.14
813.964	-0.06
814.136	0.01
814.307	-0.37
814.479	-0.26
814.651	-0.57
814.823	0.62
814.995	0.01
815.166	-0.1
815.338	-0.27
815.51	-0.72
815.681	0.16
815.853	-0.5
816.025	-0.43
816.196	0.51
816.368	-0.28
816.54	-0.73
816.711	-0.47
816.883	0.25
817.054	1.09
817.226	-0.87
817.398	-0.31
817.569	-0.22
817.741	-0.34
817.912	-0.16
818.084	-0.06
818.255	0.33
818.426	-0.55
818.598	-0.41
818.769	-0.21
818.941	0.44
819.112	0.52
819.283	-0.1
819.455	-0.59
819.626	-0.06
819.798	0.49
819.969	-0.29
820.14	0.1
820.311	0.03
820.483	0.09
820.654	0.09
820.825	-0.22
820.996	-0.19
821.168	-0.35
821.339	-0.12
821.51	-0.25
821.681	-0.58
821.852	-0.1
822.023	-0.55
822.195	-0.45
822.366	0.7
822.537	-0.24
822.708	0.12
822.879	-0.31
823.05	0.41
823.221	-0.45
823.392	0.2
823.563	-0.25
823.734	-0.24
823.905	-0.03
824.076	-0.48
824.247	-0.44
824.418	0.03
824.589	0.7
824.759	-0.85
824.93	0.29
825.101	-0.81
825.272	0.31
825.443	0.19
825.614	0.42
825.784	-0.96
825.955	0.62
826.126	0.23
826.297	-0.04
826.467	0.01
826.638	0.71
826.809	-0.57
826.98	0.16
827.15	-0.44
827.321	-0.04
827.492	0.39
827.662	-0.12
827.833	0.99
828.003	-0.17
828.174	-0.92
828.345	-0.85
828.515	0.66
828.686	-0.05
828.856	-0.62
829.027	-0.08
829.197	0.03
829.368	0.48
829.538	-0.03
829.709	-0.75
829.879	0.38
830.049	0.15
830.22	-0.16
830.39	-0.06
830.56	0.54
830.731	-0.1
830.901	-0.15
831.072	-0.47
831.242	0.15
831.412	-0.04
831.582	0.51
831.753	-1.08
831.923	0.32
832.093	-0.62
832.263	-0.55
832.434	-0.64
832.604	-0.59
832.774	0.23
832.944	-0.81
833.114	-0.1
833.284	-0.17
833.454	-0.66
833.624	-0.92
833.795	-1.13
833.965	0.62
834.135	0.32
834.305	-1
834.475	-0.6
834.645	0.08
834.815	-0.47
834.985	-0.74
835.155	-0.56
835.325	0.23
835.494	-0.01
835.664	-0.91
835.834	-0.69
836.004	-0.1
836.174	0.4
836.344	-0.67
836.514	-1.17
836.684	-0.58
836.853	0.16
837.023	0.33
837.193	-0.4
837.363	0.38
837.532	0.17
837.702	0.19
837.872	-0.43
838.041	0.23
838.211	0.9
838.381	-1.15
838.55	-0.71
838.72	2.02
838.89	0.92
839.059	-0.9
839.229	-0.72
839.398	0.99
839.568	-0.08
839.738	-0.21
839.907	0.78
840.077	0.05
840.246	-0.43
840.416	-1.34
840.585	-0.79
840.755	0.78
840.924	0.62
841.093	-0.23
841.263	-0.54
841.432	-0.32
841.602	-0.77
841.771	-0.52
841.94	-0.8
842.11	2.19
842.279	0.69
842.448	-0.57
842.617	-1.56
842.787	0.29
842.956	-0.62
843.125	-0.12
843.294	0.31
843.464	-0.1
843.633	-0.7
843.802	-0.95
843.971	0.22
844.14	0.56
844.309	1.06
844.479	-0.55
844.648	-0.98
844.817	0.09
844.986	-0.2
845.155	-0.66
845.324	-0.78
845.493	-0.13
845.662	-0.41
845.831	-0.01
846	0.11
846.169	-0.41
846.338	1.38
846.507	-0.53
846.676	-0.27
846.844	-0.51
847.013	-0.1
847.182	0.32
847.351	-0.57
847.52	0.82
847.689	-0
847.858	-0.07
848.026	-0.19
848.195	-0.54
848.364	-0.42
848.533	-0.51
848.701	0.04
848.87	0.37
849.039	0.59
849.207	0.8
849.376	0.83
849.545	1.04
849.713	-1.05
849.882	-0.61
850.051	-0.51
850.219	-0.3
850.388	1.01
850.556	-0.73
850.725	-1.48
850.893	-0.69
851.062	-1.17
851.23	0.29
851.399	-0.82
851.567	-0.35
851.736	-0.34
851.904	-1.91
852.073	-0.74
852.241	0.41
852.41	-1.64
852.578	-0.17
852.746	-1.07
852.915	0.04
853.083	-0.21
853.251	-0.99
853.42	0.02
853.588	-0.15
853.756	0.59
853.924	-0.74
854.093	-1.84
854.261	-1.35
854.429	-1.19
854.597	0.96
854.765	-0.58
854.934	0.19
855.102	-0.05
855.27	-1.11
855.438	0.11
855.606	0.1
855.774	1.48
855.942	-2.43
856.11	-1.65
856.278	0.27
856.446	0.06
856.614	-0.93
856.782	-0.43
856.95	0.61
857.118	-0.72
857.286	-0.88
857.454	-1.59
857.622	0.62
857.79	0.58
857.958	-1.26
858.126	-0.77
858.294	-3.34
858.462	-0.34
858.629	-0.42
858.797	-0.79
858.965	0.25
859.133	0.77
859.301	-0.44
859.468	0.16
859.636	-1.14
859.804	1.66
859.971	-0.82
860.139	-1.99
860.307	1.62
860.474	-0.2
860.642	-1.78
860.81	-0.25
860.977	-0.6
861.145	0.22
861.313	0.08
861.48	-0.65
861.648	0.35
861.815	-0.16
861.983	-1.53
862.15	-0.62
862.318	0.98
862.485	0.33
862.653	-1.43
862.82	-1.3
862.988	0.25
863.155	-1.48
863.322	-0.04
863.49	-1.62
863.657	-0.56
863.824	1.12
863.992	0.42
864.159	-0.52
864.326	0.99
864.494	-1.01
864.661	1.99
864.828	-1.71
864.996	0.93
865.163	1.83
865.33	-1.11
865.497	-2.31
865.664	-0.95
865.832	-2.44
865.999	-0.19
866.166	-2.55
866.333	-1.72
866.5	-1.28
866.667	-0.35
866.834	-0.71
867.001	2.19
867.168	-2.15
867.335	-0.29
867.502	-2.54
867.669	0.26
867.836	1.54
868.003	0.44
868.17	-1.19
868.337	1.54
868.504	1.12
868.671	-1.55
868.838	-0.56
869.005	-0.39
869.172	0.31
869.339	-0.63
869.505	-1.27
869.672	-0.67
869.839	0.15
870.006	0.45
870.173	-2.24
870.339	0.77
870.506	1.51
870.673	-1.68
870.84	1.02
871.006	-0.2
871.173	-1.34
871.34	-1.06
871.506	-1.91
871.673	0.79
871.839	-3.04
872.006	-1.49
872.173	-1.47
872.339	-1.26
872.506	0.41
872.672	-0.14
872.839	-1.64
873.005	-0.87
873.172	2.58
873.338	-0.64
873.505	-0.41
873.671	1.19
873.838	0.54
874.004	-2.44
874.171	-1.59
874.337	0.71
874.503	0.82
874.67	-0.11
874.836	-1.59
875.002	2.22
875.169	-0.51
875.335	0.05
875.501	-1.02
875.668	1.97
875.834	1.13
876	-2.07
876.166	0.07
876.332	1.81
876.499	1.83
876.665	-0.93
876.831	0.05
876.997	-0.52
877.163	-0.04
877.329	-2.06
877.495	-0.52
877.662	1.37
877.828	-0.34
877.994	-0.45
878.16	-4.16
878.326	-1.32
878.492	0.14
878.658	0.16
878.824	0.79
878.99	0.09
879.156	-2.26
879.322	2.63
879.487	-2.68
879.653	0.82
879.819	0.22
879.985	0.09
880.151	-0.64
880.317	-1.37
880.483	-1.39
880.648	-1.09
880.814	-3.87
880.98	0.16
881.146	-3.23
881.312	-1.6
881.477	-1.92
881.643	-0.31
881.809	1.54
881.974	2.34
882.14	-3.73
882.306	1.42
882.471	2.29
882.637	-1.19
882.803	0.11
882.968	2.87
883.134	1.9
883.299	-0.06
883.465	0.76
883.63	0.48
883.796	0.44
883.961	1.41
884.127	0.24
884.292	-2.68
884.458	-3.03
884.623	-3.03
