Data from Apollo_Calib_20240827__AbsoluteIrradiance__632__09-41-02-523.txt Node

Date: Wed Aug 28 09:41:02 BST 2024
User: biology
Spectrometer: FLMT08252
Trigger mode: 0
Integration Time (sec): 5.000000E-1
Scans to average: 5
Electric dark correction enabled: true
Nonlinearity correction enabled: false
Boxcar width: 0
XAxis mode: Wavelengths
Number of Pixels in Spectrum: 3648
>>>>>Begin Spectral Data<<<<<
179.588	-0
179.809	-0
180.03	-0
180.251	-0
180.473	-0
180.694	0
180.915	0
181.136	-0
181.357	0
181.578	-0
181.799	-0
182.02	-0
182.241	0
182.462	-0
182.683	0
182.904	-0
183.125	-0
183.346	0
183.567	0
183.788	-0
184.009	-0
184.23	0
184.451	0
184.672	-0
184.892	-0
185.113	0
185.334	0
185.555	-0
185.776	-0
185.996	-0
186.217	0
186.438	0
186.659	-0
186.879	0
187.1	-0
187.321	-0
187.541	-0
187.762	-0
187.983	-0
188.203	0
188.424	0
188.644	-0
188.865	-0
189.086	-0
189.306	0
189.527	-0
189.747	0
189.968	-0
190.188	-0
190.409	0
190.629	0
190.849	-0
191.07	-0
191.29	0
191.511	-0
191.731	-0
191.951	-0
192.172	-0
192.392	0
192.612	-0
192.833	-0
193.053	-0
193.273	0
193.493	-0
193.714	0
193.934	0
194.154	-0
194.374	0
194.594	0
194.815	0
195.035	0
195.255	0
195.475	-0
195.695	0
195.915	0
196.135	-0
196.355	0
196.575	0
196.795	0
197.015	-0
197.235	-0
197.455	-0
197.675	0
197.895	-0
198.115	-0
198.335	0
198.555	-0
198.775	-0
198.995	0
199.214	0
199.434	-0
199.654	-0
199.874	-0
200.094	0.17
200.313	-0.8
200.533	-1.08
200.753	-0.9
200.973	0.61
201.192	0.1
201.412	-1.42
201.632	-0.32
201.851	0.96
202.071	-0.7
202.291	-0.45
202.51	-0.69
202.73	0.15
202.95	-0.28
203.169	-0.76
203.389	-0.19
203.608	-0.16
203.828	-0.74
204.047	-0.19
204.267	0.68
204.486	0.19
204.706	-0.08
204.925	0.11
205.145	-0.75
205.364	0.6
205.583	0.32
205.803	-0.3
206.022	-0.62
206.242	-0.11
206.461	0.11
206.68	-0.13
206.9	-0.07
207.119	0.21
207.338	0.16
207.557	-0.01
207.777	-0.12
207.996	-0.23
208.215	0.42
208.434	-0.24
208.654	-0.31
208.873	-0.23
209.092	0.3
209.311	-0.16
209.53	-0.13
209.749	-0.31
209.968	-0.46
210.187	-0.32
210.407	-0.5
210.626	-0.37
210.845	0.04
211.064	-0.14
211.283	-0.43
211.502	0.17
211.721	0.04
211.94	-0.1
212.159	0.03
212.377	0.06
212.596	0.21
212.815	-0.03
213.034	0
213.253	0.32
213.472	0.18
213.691	-0.22
213.91	-0.48
214.128	-0.24
214.347	0.14
214.566	-0.59
214.785	-0.32
215.003	0.25
215.222	-0.02
215.441	-0.07
215.66	-0.21
215.878	0.02
216.097	0.02
216.316	-0.28
216.534	-0.34
216.753	0.08
216.972	-0.16
217.19	-0.02
217.409	-0.28
217.627	-0.21
217.846	-0.18
218.064	-0.04
218.283	-0.29
218.501	0.22
218.72	0.11
218.938	-0.24
219.157	-0.23
219.375	0.16
219.594	-0.01
219.812	-0.29
220.031	-0.18
220.249	0.12
220.467	0.24
220.686	-0.06
220.904	-0.26
221.122	-0.22
221.341	0.31
221.559	0.11
221.777	-0.25
221.995	-0.14
222.214	0.01
222.432	-0.15
222.65	0.01
222.868	0.08
223.086	-0.06
223.305	0.04
223.523	-0.08
223.741	0.16
223.959	-0.22
224.177	-0.3
224.395	-0.1
224.613	0.01
224.831	0.04
225.049	-0.3
225.267	-0.09
225.485	0.01
225.703	-0.07
225.921	-0.12
226.139	-0.08
226.357	-0.02
226.575	-0.01
226.793	-0.13
227.011	0.25
227.229	0.08
227.447	0.07
227.665	-0.19
227.883	-0.23
228.1	-0.14
228.318	-0.02
228.536	-0.14
228.754	-0.13
228.972	0.06
229.189	0.03
229.407	-0.02
229.625	-0.17
229.843	0.16
230.06	-0.01
230.278	-0.22
230.496	-0.09
230.713	-0.04
230.931	0.08
231.149	-0.11
231.366	-0.18
231.584	0.02
231.801	0.34
232.019	-0.09
232.236	-0.12
232.454	-0.1
232.671	0.06
232.889	-0.05
233.106	-0.16
233.324	-0.02
233.541	-0.08
233.759	-0.01
233.976	-0.22
234.194	-0.14
234.411	0.02
234.628	-0.1
234.846	-0.06
235.063	0.06
235.28	-0.02
235.498	-0.07
235.715	-0.19
235.932	0.03
236.149	-0.03
236.367	-0.2
236.584	0.01
236.801	-0.1
237.018	0.02
237.236	-0.03
237.453	-0.12
237.67	-0.01
237.887	-0.11
238.104	-0.07
238.321	-0.19
238.538	-0.14
238.755	0.15
238.973	-0.22
239.19	-0.05
239.407	-0.04
239.624	-0.04
239.841	-0.19
240.058	-0.12
240.275	0
240.492	-0.07
240.709	-0.08
240.925	-0.07
241.142	0.01
241.359	-0.16
241.576	-0.12
241.793	0.02
242.01	0
242.227	0.06
242.444	0.05
242.66	0.06
242.877	-0.02
243.094	-0.19
243.311	0.03
243.527	-0.07
243.744	-0.02
243.961	0.08
244.178	-0.11
244.394	-0.07
244.611	0.19
244.828	0.11
245.044	-0.18
245.261	-0.08
245.477	-0.02
245.694	-0.03
245.911	-0.13
246.127	-0.06
246.344	0.14
246.56	0.03
246.777	-0.04
246.993	-0.05
247.21	0.01
247.426	0.02
247.643	-0.16
247.859	-0.02
248.076	-0.1
248.292	0.15
248.508	-0.1
248.725	0.06
248.941	-0.05
249.157	0.06
249.374	-0.06
249.59	0.02
249.806	-0.08
250.023	-0.02
250.239	-0.1
250.455	-0.14
250.671	0.04
250.888	0.03
251.104	-0.03
251.32	-0.02
251.536	-0.09
251.752	-0.07
251.969	-0.02
252.185	-0.04
252.401	0.2
252.617	0.02
252.833	-0.08
253.049	-0.06
253.265	-0.04
253.481	0.01
253.697	-0.11
253.913	-0.11
254.129	0.05
254.345	-0
254.561	-0.01
254.777	-0.03
254.993	0.05
255.209	0.07
255.425	-0.03
255.641	-0.09
255.857	0.06
256.073	0.04
256.288	-0.08
256.504	-0.07
256.72	-0
256.936	0.04
257.152	-0.02
257.367	-0.08
257.583	-0.08
257.799	0.03
258.015	-0.09
258.23	-0.04
258.446	0.09
258.662	-0.03
258.877	-0.02
259.093	-0.09
259.309	-0.1
259.524	-0.05
259.74	-0.06
259.955	-0.15
260.171	-0
260.387	-0.03
260.602	0.06
260.818	-0.01
261.033	-0.07
261.249	-0.06
261.464	-0.06
261.68	-0.14
261.895	-0.03
262.11	-0.01
262.326	-0.04
262.541	-0.14
262.757	0.03
262.972	0.05
263.187	0.02
263.403	-0.06
263.618	0.01
263.833	-0.05
264.049	-0.05
264.264	-0.01
264.479	0.03
264.694	0.07
264.91	-0.13
265.125	0.01
265.34	0.01
265.555	0.14
265.77	-0
265.986	-0.05
266.201	0.03
266.416	0.12
266.631	-0.06
266.846	-0.03
267.061	-0.01
267.276	0.02
267.491	-0.18
267.706	-0.02
267.921	0
268.136	0
268.351	0.01
268.566	-0.12
268.781	0.06
268.996	-0
269.211	0.03
269.426	-0.12
269.641	-0.05
269.856	-0.04
270.071	-0.15
270.285	-0.06
270.5	0.03
270.715	0.06
270.93	0.02
271.145	-0.03
271.359	-0
271.574	-0.08
271.789	0.01
272.004	-0.02
272.218	-0.04
272.433	0.07
272.648	-0.08
272.862	0.02
273.077	-0.03
273.292	0.01
273.506	-0.05
273.721	0.01
273.936	-0
274.15	0.02
274.365	-0
274.579	0.02
274.794	-0.04
275.008	0.05
275.223	-0.14
275.437	-0.03
275.652	0.06
275.866	0.02
276.081	-0.04
276.295	0.03
276.509	0
276.724	0.02
276.938	-0.03
277.153	-0
277.367	0.01
277.581	-0.05
277.796	-0.05
278.01	-0.04
278.224	0
278.438	0.07
278.653	-0.13
278.867	-0.04
279.081	-0.18
279.295	-0.04
279.51	0.03
279.724	-0.13
279.938	0.01
280.152	0.03
280.366	-0.09
280.58	-0.04
280.794	0.03
281.008	0.06
281.222	-0.01
281.437	0.12
281.651	0.03
281.865	-0.02
282.079	-0.01
282.293	-0.12
282.507	-0.06
282.721	-0.03
282.935	-0.03
283.148	-0.06
283.362	-0.06
283.576	-0.06
283.79	-0.01
284.004	-0.08
284.218	0.04
284.432	-0.02
284.646	-0.04
284.859	-0.03
285.073	-0.03
285.287	-0.02
285.501	-0.03
285.714	-0.02
285.928	0.01
286.142	0
286.356	-0.03
286.569	-0.06
286.783	0.05
286.997	0.05
287.21	0.03
287.424	0.01
287.637	-0.03
287.851	-0.09
288.065	-0.01
288.278	-0.01
288.492	0.02
288.705	-0.02
288.919	0.04
289.132	-0.06
289.346	0.05
289.559	-0.09
289.773	-0.07
289.986	0
290.2	-0.03
290.413	0.09
290.626	-0.06
290.84	-0.02
291.053	-0.01
291.267	0.07
291.48	-0.03
291.693	0
291.906	-0.08
292.12	-0.05
292.333	-0.09
292.546	-0.05
292.76	0.06
292.973	0.01
293.186	0.04
293.399	-0.02
293.612	0.01
293.826	-0.03
294.039	-0.01
294.252	0.01
294.465	-0
294.678	0.06
294.891	-0.02
295.104	-0.06
295.317	0.02
295.53	-0
295.743	0
295.956	-0.04
296.169	0.06
296.382	0.06
296.595	-0.03
296.808	-0.07
297.021	0.02
297.234	0.02
297.447	0.01
297.66	0.01
297.873	0.06
298.086	0.01
298.299	-0.07
298.511	-0.05
298.724	-0.03
298.937	-0.09
299.15	-0.02
299.363	0.03
299.575	0.05
299.788	0.01
300.001	-0.04
300.213	-0.05
300.426	0
300.639	-0.03
300.852	-0.05
301.064	0.05
301.277	0.05
301.489	-0.01
301.702	0.04
301.915	-0
302.127	0.02
302.34	-0.03
302.552	0
302.765	-0.02
302.977	0.02
303.19	-0
303.402	0
303.615	-0.06
303.827	-0
304.04	-0
304.252	-0.03
304.464	-0.02
304.677	0.1
304.889	0.05
305.102	-0.02
305.314	-0.02
305.526	0.03
305.739	-0
305.951	-0.04
306.163	-0.03
306.375	0.05
306.588	-0.05
306.8	-0.03
307.012	-0.04
307.224	-0.03
307.436	0.01
307.649	-0.1
307.861	0.04
308.073	-0
308.285	-0.05
308.497	-0.06
308.709	-0.02
308.921	-0.02
309.133	0.04
309.346	-0.01
309.558	-0.01
309.77	0.04
309.982	0.01
310.194	0.01
310.406	-0.03
310.617	0.07
310.829	0.02
311.041	0.03
311.253	-0.01
311.465	-0.02
311.677	-0.05
311.889	-0.02
312.101	-0.02
312.313	0.06
312.524	0.02
312.736	-0.05
312.948	-0.05
313.16	0.08
313.372	0.04
313.583	-0.04
313.795	-0.02
314.007	-0.03
314.218	0.03
314.43	-0.01
314.642	-0.04
314.853	-0.06
315.065	0.02
315.277	-0.02
315.488	0.03
315.7	-0.02
315.912	0.03
316.123	-0
316.335	-0
316.546	0.07
316.758	0
316.969	-0.06
317.181	0.04
317.392	0
317.604	0.05
317.815	-0.03
318.026	-0.02
318.238	-0.06
318.449	0.03
318.661	-0.04
318.872	-0.06
319.083	-0.04
319.295	0.02
319.506	-0.06
319.717	0.01
319.929	0.01
320.14	0
320.351	-0.01
320.562	-0.04
320.774	-0.01
320.985	-0
321.196	-0.04
321.407	-0.12
321.618	0.04
321.829	0.06
322.041	0.02
322.252	-0.01
322.463	0
322.674	0.02
322.885	-0.04
323.096	-0.05
323.307	-0.03
323.518	-0.02
323.729	-0.03
323.94	-0.03
324.151	-0.02
324.362	-0.01
324.573	-0.03
324.784	-0.04
324.995	0.02
325.206	0
325.417	-0.05
325.628	-0.01
325.838	-0.04
326.049	0.03
326.26	0.04
326.471	-0.04
326.682	0.04
326.892	0.01
327.103	-0.1
327.314	-0.04
327.525	0.05
327.735	0.02
327.946	-0.08
328.157	-0
328.368	0.01
328.578	-0.03
328.789	-0.01
328.999	-0.02
329.21	-0.01
329.421	0.01
329.631	-0.07
329.842	-0.05
330.052	0.01
330.263	-0.01
330.473	0.02
330.684	-0.02
330.894	-0.03
331.105	-0.02
331.315	0.03
331.526	-0.08
331.736	0.09
331.947	-0.04
332.157	0.04
332.367	-0.07
332.578	0.03
332.788	-0.02
332.999	-0.01
333.209	-0.04
333.419	-0.01
333.629	-0
333.84	0.02
334.05	-0.03
334.26	0.06
334.47	-0.04
334.681	0.06
334.891	-0.05
335.101	0.05
335.311	0.07
335.521	-0.01
335.732	-0.06
335.942	0.03
336.152	-0
336.362	-0
336.572	-0.02
336.782	0.03
336.992	-0.06
337.202	-0.06
337.412	-0.03
337.622	0.02
337.832	-0
338.042	0.01
338.252	-0.03
338.462	-0.04
338.672	-0.01
338.882	-0.02
339.092	-0.02
339.302	0.03
339.511	-0.01
339.721	-0.01
339.931	-0.07
340.141	0.07
340.351	0.06
340.561	-0.03
340.77	0.04
340.98	-0.01
341.19	0.02
341.4	-0.05
341.609	-0.06
341.819	-0.01
342.029	-0.05
342.238	-0
342.448	-0.04
342.658	0.02
342.867	-0.02
343.077	-0
343.286	-0.01
343.496	-0.01
343.706	0.04
343.915	-0.04
344.125	0.03
344.334	0.03
344.544	-0.06
344.753	-0.12
344.963	-0.04
345.172	-0.03
345.381	-0.03
345.591	-0.06
345.8	0.02
346.01	0.04
346.219	0.01
346.428	-0.15
346.638	-0.04
346.847	-0.02
347.056	0.03
347.266	-0.02
347.475	-0.01
347.684	-0
347.893	-0.01
348.103	-0
348.312	-0.04
348.521	0.02
348.73	0.03
348.94	-0.01
349.149	-0.05
349.358	-0.03
349.567	-0.03
349.776	-0.06
349.985	-0.03
350.194	0.01
350.403	0.05
350.612	-0.04
350.821	-0.04
351.03	-0.02
351.239	-0.09
351.448	0.01
351.657	-0.02
351.866	0.05
352.075	-0.02
352.284	-0
352.493	-0.06
352.702	0.04
352.911	-0
353.12	-0.01
353.329	-0.04
353.538	0.02
353.746	0.01
353.955	-0.03
354.164	0.01
354.373	-0.04
354.582	-0.01
354.79	0
354.999	0.05
355.208	-0.04
355.416	0.03
355.625	-0.03
355.834	-0.04
356.042	-0.01
356.251	-0.01
356.46	-0.04
356.668	0.02
356.877	0.03
357.085	0.03
357.294	-0.11
357.503	0.01
357.711	-0.01
357.92	0.11
358.128	0.01
358.337	-0.05
358.545	-0.03
358.754	-0.02
358.962	0
359.17	-0.03
359.379	0.01
359.587	0.03
359.796	-0.07
360.004	0.03
360.212	0.02
360.421	0.01
360.629	-0.01
360.837	-0.07
361.046	0.04
361.254	0.09
361.462	0.04
361.67	-0.04
361.879	-0.01
362.087	0.06
362.295	-0.01
362.503	0
362.711	-0.02
362.92	-0.04
363.128	-0.05
363.336	-0.07
363.544	-0.07
363.752	-0.02
363.96	-0.05
364.168	-0.02
364.376	-0.01
364.584	-0
364.792	0.06
365	0.01
365.208	-0.02
365.416	-0.02
365.624	0.02
365.832	-0.04
366.04	0.09
366.248	0.03
366.456	0.04
366.664	0.02
366.872	-0
367.079	-0.03
367.287	-0.04
367.495	-0.02
367.703	-0.01
367.911	0
368.118	-0.01
368.326	-0
368.534	-0.05
368.742	0.06
368.949	-0.06
369.157	-0.02
369.365	0.01
369.572	-0.03
369.78	-0.04
369.988	0.02
370.195	0.02
370.403	0
370.61	-0.01
370.818	0.01
371.026	0.05
371.233	-0.04
371.441	-0.04
371.648	-0
371.856	-0.01
372.063	0.02
372.271	-0.04
372.478	-0.05
372.685	-0.05
372.893	0.03
373.1	-0.02
373.308	-0.02
373.515	0
373.722	0.03
373.93	-0
374.137	0.01
374.344	0.09
374.552	0.01
374.759	-0
374.966	0
375.173	-0.04
375.381	0.02
375.588	-0.02
375.795	-0.08
376.002	-0.01
376.209	-0.03
376.417	-0.02
376.624	-0.02
376.831	0.02
377.038	0.01
377.245	-0.08
377.452	-0.04
377.659	-0.02
377.866	-0.04
378.073	-0.03
378.28	-0.02
378.487	0.03
378.694	0.01
378.901	-0.04
379.108	-0.03
379.315	0.03
379.522	0.03
379.729	-0.01
379.936	0
380.143	0
380.35	0.05
380.557	-0.03
380.763	-0
380.97	-0.03
381.177	0.03
381.384	-0.01
381.591	-0.02
381.797	-0.02
382.004	-0.01
382.211	-0
382.418	-0.07
382.624	0.03
382.831	0.02
383.038	-0.03
383.244	0
383.451	-0.02
383.658	0.02
383.864	-0.05
384.071	-0.04
384.277	0.05
384.484	-0.04
384.69	0.03
384.897	-0.01
385.103	-0.01
385.31	-0.04
385.516	-0.04
385.723	-0.07
385.929	-0.01
386.136	0.01
386.342	-0
386.549	0.01
386.755	0.06
386.961	0.04
387.168	-0.05
387.374	-0.02
387.58	0
387.787	-0.01
387.993	-0.03
388.199	-0.01
388.406	-0.02
388.612	-0.03
388.818	-0.09
389.024	-0.04
389.231	-0.02
389.437	0.06
389.643	0.01
389.849	-0.02
390.055	0
390.261	0.02
390.467	0.02
390.674	-0.05
390.88	0.01
391.086	0.02
391.292	-0.08
391.498	0.02
391.704	0.01
391.91	-0.02
392.116	-0.08
392.322	-0.08
392.528	-0.01
392.734	-0.06
392.94	0
393.146	-0.05
393.352	0.02
393.557	-0.04
393.763	-0.04
393.969	0.03
394.175	-0.02
394.381	0.01
394.587	0.02
394.792	-0.02
394.998	0.04
395.204	0.03
395.41	-0.01
395.615	0.06
395.821	0.01
396.027	-0.04
396.233	-0.09
396.438	-0.04
396.644	0.07
396.85	-0
397.055	-0.04
397.261	-0.01
397.466	-0.03
397.672	-0.04
397.878	0.03
398.083	-0
398.289	-0.04
398.494	0
398.7	0.04
398.905	-0.1
399.111	0.05
399.316	-0.03
399.522	0
399.727	-0.05
399.932	-0.01
400.138	-0
400.343	0.07
400.549	-0.05
400.754	0
400.959	-0
401.165	-0.04
401.37	-0
401.575	0.06
401.78	-0
401.986	-0.02
402.191	-0.07
402.396	-0.02
402.601	-0
402.807	0.01
403.012	-0.01
403.217	0
403.422	-0.04
403.627	-0.03
403.832	-0.02
404.037	-0.03
404.243	0.03
404.448	-0.06
404.653	-0.04
404.858	-0
405.063	0.03
405.268	-0.03
405.473	-0.04
405.678	-0.07
405.883	0.1
406.088	0.05
406.293	-0.07
406.498	-0.02
406.703	0.02
406.907	-0.02
407.112	-0.04
407.317	0.04
407.522	0.03
407.727	-0.08
407.932	-0.02
408.136	0.04
408.341	-0.05
408.546	-0.01
408.751	-0.03
408.956	-0.01
409.16	-0.03
409.365	-0.01
409.57	-0.02
409.774	-0.01
409.979	0.01
410.184	-0.02
410.388	-0.06
410.593	-0.01
410.798	-0.02
411.002	-0.03
411.207	-0
411.411	0.01
411.616	-0.03
411.82	-0.06
412.025	0.02
412.229	-0.05
412.434	-0.01
412.638	0.01
412.843	-0.05
413.047	0.02
413.252	-0.07
413.456	-0.06
413.66	0
413.865	-0.03
414.069	0.03
414.273	-0.02
414.478	-0.07
414.682	-0.05
414.886	-0.05
415.091	-0.06
415.295	-0.1
415.499	-0
415.703	-0.04
415.908	0.04
416.112	-0.16
416.316	0.02
416.52	-0.01
416.724	-0.09
416.929	-0.03
417.133	0.07
417.337	0.01
417.541	-0.06
417.745	-0.03
417.949	-0
418.153	-0.06
418.357	-0.06
418.561	0.03
418.765	-0.01
418.969	0.1
419.173	0.05
419.377	-0.06
419.581	0.07
419.785	-0.04
419.989	-0.09
420.193	-0.01
420.397	-0.07
420.601	0.03
420.804	0.04
421.008	-0.04
421.212	0
421.416	0.03
421.62	-0.1
421.823	-0
422.027	0.07
422.231	0.03
422.435	-0.07
422.638	-0.02
422.842	-0.02
423.046	-0.09
423.249	0
423.453	-0.01
423.657	-0.02
423.86	-0.03
424.064	-0.08
424.268	0.02
424.471	-0.05
424.675	0.08
424.878	0.08
425.082	-0.03
425.285	0.02
425.489	-0.03
425.692	0.01
425.896	-0.07
426.099	0.03
426.303	-0.07
426.506	-0.13
426.71	0.02
426.913	0.04
427.116	0.03
427.32	-0
427.523	0.03
427.726	0.05
427.93	-0.01
428.133	-0.03
428.336	-0.04
428.54	-0.02
428.743	-0.01
428.946	0.03
429.149	-0.06
429.353	-0.03
429.556	0
429.759	-0.02
429.962	-0.04
430.165	-0.01
430.368	0
430.571	-0.08
430.775	-0.03
430.978	-0.05
431.181	0.03
431.384	0.02
431.587	-0.03
431.79	-0.02
431.993	-0.07
432.196	-0.03
432.399	-0.03
432.602	0.05
432.805	-0.04
433.008	-0.05
433.211	-0.07
433.414	-0
433.616	0.03
433.819	-0.03
434.022	-0.07
434.225	0.07
434.428	0.02
434.631	0.08
434.833	-0.02
435.036	-0.03
435.239	0.03
435.442	-0.04
435.645	-0.04
435.847	0.03
436.05	0.01
436.253	-0
436.455	-0.1
436.658	-0.05
436.861	0.04
437.063	-0.07
437.266	-0.07
437.468	0.02
437.671	0.12
437.874	-0
438.076	-0.08
438.279	-0.11
438.481	-0.05
438.684	-0.05
438.886	0.03
439.089	-0.13
439.291	-0.06
439.494	0.05
439.696	-0.05
439.899	-0.06
440.101	0.01
440.303	-0.11
440.506	0.03
440.708	-0.03
440.91	0.02
441.113	-0.06
441.315	0.03
441.517	-0.1
441.72	0.03
441.922	-0.03
442.124	-0.05
442.326	0.04
442.529	0.05
442.731	-0.02
442.933	0.07
443.135	-0.03
443.337	-0.02
443.539	-0.04
443.742	-0.03
443.944	0.03
444.146	-0.05
444.348	-0.03
444.55	-0.06
444.752	-0
444.954	-0.06
445.156	-0
445.358	-0.05
445.56	0.05
445.762	-0.02
445.964	-0.04
446.166	-0.02
446.368	-0.07
446.57	0.02
446.772	-0.07
446.974	-0.06
447.175	-0
447.377	-0.05
447.579	-0.05
447.781	-0.08
447.983	0.09
448.184	-0.03
448.386	-0.01
448.588	-0.1
448.79	-0.05
448.991	-0.09
449.193	-0.06
449.395	-0.04
449.597	-0
449.798	-0.02
450	-0
450.202	-0.05
450.403	-0.02
450.605	0
450.806	-0.02
451.008	-0.15
451.21	-0.03
451.411	0.04
451.613	-0.04
451.814	-0.03
452.016	0.01
452.217	-0.04
452.419	-0
452.62	-0.04
452.821	0.01
453.023	0.08
453.224	-0.01
453.426	-0.03
453.627	0.05
453.828	0.02
454.03	-0.02
454.231	0.02
454.432	-0.04
454.634	0.06
454.835	-0.06
455.036	-0.1
455.238	0.02
455.439	0.03
455.64	-0.06
455.841	-0.06
456.042	0.07
456.244	-0.02
456.445	-0.07
456.646	-0.1
456.847	-0.07
457.048	0.01
457.249	-0.01
457.45	0.19
457.651	-0.08
457.852	0.02
458.054	-0.01
458.255	-0.01
458.456	0.01
458.657	-0
458.858	-0.02
459.058	-0.05
459.259	0.03
459.46	-0.03
459.661	-0.07
459.862	0.05
460.063	-0.04
460.264	0.02
460.465	-0.06
460.666	0.07
460.866	0
461.067	-0.03
461.268	-0.03
461.469	-0
461.67	-0.02
461.87	-0.02
462.071	-0.07
462.272	-0.04
462.473	-0.02
462.673	0.05
462.874	-0.02
463.075	-0.01
463.275	-0.03
463.476	-0.02
463.676	0.03
463.877	0
464.078	-0
464.278	0.02
464.479	-0.06
464.679	-0.03
464.88	-0.01
465.08	0.06
465.281	-0.11
465.481	-0.02
465.682	-0.04
465.882	0.02
466.083	0
466.283	-0.02
466.483	-0.02
466.684	-0.02
466.884	-0.06
467.085	-0.03
467.285	0.01
467.485	-0.08
467.686	-0.04
467.886	-0.05
468.086	-0.07
468.286	-0.01
468.487	0.01
468.687	-0.04
468.887	0
469.087	-0
469.287	-0.01
469.488	-0.08
469.688	-0.02
469.888	0
470.088	0.02
470.288	0.07
470.488	0.03
470.688	-0.06
470.888	-0.02
471.088	-0.03
471.288	0.05
471.488	-0
471.688	0.03
471.888	-0.04
472.088	0.04
472.288	0.04
472.488	-0.01
472.688	-0.02
472.888	-0.02
473.088	0.02
473.288	-0.03
473.488	-0.01
473.688	0.05
473.887	-0
474.087	-0.03
474.287	-0.01
474.487	-0.04
474.687	0.01
474.886	-0.07
475.086	-0.03
475.286	-0.02
475.486	-0
475.685	-0.01
475.885	-0.02
476.085	-0.02
476.284	-0.02
476.484	-0.03
476.684	0.02
476.883	0.1
477.083	-0
477.282	-0.03
477.482	0.04
477.681	0.02
477.881	-0
478.08	-0.05
478.28	-0.05
478.479	0.04
478.679	0.07
478.878	-0.01
479.078	-0.06
479.277	-0.01
479.477	-0.01
479.676	0.05
479.875	0
480.075	-0.06
480.274	-0.03
480.473	-0.01
480.673	-0.03
480.872	0.04
481.071	-0
481.271	0.01
481.47	-0.02
481.669	-0.01
481.868	-0.05
482.067	-0.06
482.267	-0.04
482.466	-0.03
482.665	-0.03
482.864	-0.03
483.063	-0.04
483.262	0
483.461	0.05
483.661	0
483.86	0.01
484.059	0.01
484.258	-0.01
484.457	0
484.656	0.02
484.855	0.02
485.054	-0.04
485.253	-0.05
485.452	-0.04
485.651	-0.03
485.849	0.01
486.048	0
486.247	-0.05
486.446	0.01
486.645	-0.02
486.844	0
487.043	-0.02
487.241	0.03
487.44	-0.06
487.639	-0.02
487.838	0.01
488.037	0.01
488.235	0.03
488.434	-0.01
488.633	-0.02
488.831	-0.01
489.03	0.05
489.229	0.03
489.427	-0.04
489.626	0.04
489.825	0.04
490.023	-0.01
490.222	-0.03
490.42	0.05
490.619	0.03
490.817	0.01
491.016	-0.02
491.214	0
491.413	-0.05
491.611	-0.03
491.81	-0.01
492.008	0.02
492.207	0.01
492.405	0
492.604	-0.02
492.802	0.01
493	0.02
493.199	-0.03
493.397	-0.01
493.595	-0.03
493.794	-0.04
493.992	0.02
494.19	0
494.388	0
494.587	-0.01
494.785	0
494.983	-0
495.181	-0.01
495.379	-0.02
495.578	-0.02
495.776	0.01
495.974	0.01
496.172	-0
496.37	-0.01
496.568	-0.04
496.766	-0
496.964	0.01
497.162	-0
497.36	-0.03
497.558	-0
497.756	0
497.954	-0.03
498.152	-0.02
498.35	0
498.548	-0.02
498.746	-0
498.944	-0.04
499.142	-0.02
499.34	-0.05
499.538	-0.01
499.736	-0.01
499.933	0.04
500.131	0.01
500.329	0
500.527	0.02
500.725	0.02
500.922	-0.02
501.12	-0
501.318	0.01
501.516	-0.02
501.713	-0.01
501.911	-0.01
502.109	-0.05
502.306	-0.01
502.504	-0.01
502.701	-0.03
502.899	-0.02
503.097	0.02
503.294	-0
503.492	-0.01
503.689	0
503.887	-0
504.084	0.04
504.282	-0
504.479	-0.04
504.677	-0.02
504.874	-0.05
505.072	-0.02
505.269	-0.02
505.466	0
505.664	0.01
505.861	-0.04
506.059	-0.06
506.256	0.01
506.453	-0.02
506.651	0.03
506.848	0.01
507.045	0.01
507.242	0.02
507.44	-0.02
507.637	-0
507.834	-0.01
508.031	0.02
508.229	-0.03
508.426	-0.01
508.623	0
508.82	-0.02
509.017	-0.02
509.214	-0.02
509.411	-0
509.608	-0.02
509.805	-0.02
510.003	-0.05
510.2	-0.01
510.397	0.01
510.594	-0.03
510.791	-0.02
510.988	-0.01
511.184	0.02
511.381	0
511.578	-0.02
511.775	0.03
511.972	-0.04
512.169	-0.01
512.366	-0.01
512.563	0.01
512.76	-0.01
512.956	0.01
513.153	-0.01
513.35	0
513.547	-0.02
513.744	-0.02
513.94	-0.01
514.137	0.01
514.334	-0.02
514.53	-0
514.727	0.01
514.924	0.04
515.12	-0.03
515.317	-0.03
515.514	-0.01
515.71	-0.02
515.907	-0.01
516.103	-0
516.3	0.01
516.497	-0
516.693	0.02
516.89	-0.01
517.086	-0.03
517.283	-0
517.479	0
517.676	-0.01
517.872	-0.01
518.068	-0
518.265	-0.03
518.461	-0.01
518.658	-0.03
518.854	-0.01
519.05	-0.03
519.247	-0.04
519.443	0.01
519.639	0.01
519.836	0.01
520.032	-0.01
520.228	-0.01
520.424	0.03
520.621	-0.01
520.817	0
521.013	0
521.209	0
521.405	0.03
521.601	0
521.798	-0.01
521.994	0.03
522.19	-0.01
522.386	-0.03
522.582	0
522.778	-0
522.974	-0.02
523.17	-0
523.366	-0
523.562	0.02
523.758	0
523.954	-0.02
524.15	-0.01
524.346	0.01
524.542	-0.04
524.738	-0
524.934	-0.02
525.129	-0
525.325	-0.02
525.521	-0.01
525.717	0.02
525.913	0.01
526.109	-0.01
526.304	-0.01
526.5	-0
526.696	0.02
526.892	-0.01
527.087	-0.01
527.283	-0.02
527.479	0
527.674	-0.04
527.87	-0.01
528.066	-0.02
528.261	-0.01
528.457	-0.03
528.653	-0
528.848	-0.02
529.044	-0.01
529.239	-0.01
529.435	0.01
529.63	-0
529.826	0.02
530.021	-0
530.217	0
530.412	-0.01
530.608	-0.02
530.803	-0
530.999	0.01
531.194	-0.05
531.389	-0.02
531.585	-0.04
531.78	-0.01
531.975	0
532.171	0.01
532.366	-0.01
532.561	-0.01
532.757	-0.03
532.952	-0.01
533.147	0.01
533.342	-0.02
533.538	-0.02
533.733	0.03
533.928	-0.01
534.123	-0.02
534.318	-0.04
534.513	-0.02
534.709	-0.01
534.904	-0.01
535.099	-0
535.294	-0.02
535.489	-0.01
535.684	-0.01
535.879	-0.05
536.074	-0.01
536.269	-0.05
536.464	-0.02
536.659	-0.02
536.854	-0.02
537.049	0.01
537.244	-0
537.439	-0.01
537.634	0.01
537.828	-0.01
538.023	-0.02
538.218	-0.03
538.413	-0
538.608	-0.02
538.803	0
538.997	-0.04
539.192	0.02
539.387	0.01
539.582	0
539.776	0.01
539.971	-0.02
540.166	-0.01
540.36	-0.05
540.555	-0.02
540.75	-0.03
540.944	-0.02
541.139	-0.05
541.334	-0.02
541.528	-0
541.723	0.01
541.917	-0.02
542.112	-0.04
542.306	-0.02
542.501	-0.02
542.695	-0.01
542.89	-0.02
543.084	-0
543.279	-0.04
543.473	-0.01
543.668	0
543.862	-0.02
544.056	0.01
544.251	-0.02
544.445	0.01
544.64	-0.02
544.834	-0.05
545.028	-0.03
545.222	0
545.417	0.01
545.611	0.01
545.805	-0.01
546	-0
546.194	0.01
546.388	-0.02
546.582	0.01
546.776	-0.02
546.97	0.01
547.165	-0.02
547.359	0.01
547.553	-0.02
547.747	-0
547.941	-0.01
548.135	-0
548.329	-0.01
548.523	0.01
548.717	-0.01
548.911	-0.03
549.105	-0.01
549.299	-0.01
549.493	0.02
549.687	0
549.881	0.01
550.075	-0.03
550.269	-0.05
550.463	0.02
550.657	-0.01
550.85	-0
551.044	-0.02
551.238	-0.01
551.432	-0.01
551.626	-0.04
551.82	-0.01
552.013	-0.02
552.207	0
552.401	-0.01
552.594	0.01
552.788	-0.02
552.982	-0.02
553.176	-0.02
553.369	0.01
553.563	-0
553.756	-0.01
553.95	-0.03
554.144	-0.01
554.337	0.04
554.531	-0
554.724	0.02
554.918	-0
555.111	0.01
555.305	0
555.498	0.02
555.692	0.02
555.885	-0.01
556.079	0
556.272	-0.03
556.466	0.01
556.659	0
556.852	-0.02
557.046	-0.02
557.239	0.02
557.432	-0.05
557.626	-0.02
557.819	0.01
558.012	0.01
558.206	0.02
558.399	-0.01
558.592	-0.01
558.785	-0.02
558.979	0.02
559.172	0.02
559.365	-0
559.558	-0
559.751	0
559.944	-0.01
560.138	-0.03
560.331	-0.01
560.524	-0.04
560.717	-0.01
560.91	-0.01
561.103	0.01
561.296	-0.01
561.489	0.03
561.682	-0.02
561.875	0
562.068	0.01
562.261	-0.02
562.454	0.03
562.647	0.03
562.84	0.02
563.032	-0.02
563.225	-0.01
563.418	-0.01
563.611	0.01
563.804	0.02
563.997	-0.03
564.19	-0.06
564.382	-0.07
564.575	-0.02
564.768	-0.02
564.961	-0.01
565.153	-0.01
565.346	0.02
565.539	0.02
565.731	0.01
565.924	0
566.117	0
566.309	0
566.502	-0.03
566.695	-0.01
566.887	0
567.08	-0.01
567.272	-0.01
567.465	-0.01
567.657	-0.01
567.85	0.01
568.042	-0.01
568.235	0.02
568.427	-0.02
568.62	-0.02
568.812	0.02
569.005	-0.02
569.197	-0.05
569.389	-0
569.582	0.02
569.774	0.01
569.966	-0.02
570.159	-0.06
570.351	0.01
570.543	-0.02
570.736	-0.02
570.928	-0.05
571.12	-0.02
571.312	-0.02
571.505	-0.04
571.697	0.02
571.889	-0.02
572.081	-0.02
572.273	-0.02
572.465	0
572.658	-0.01
572.85	0
573.042	-0.02
573.234	-0.02
573.426	0.01
573.618	-0.01
573.81	-0.01
574.002	0.04
574.194	0.01
574.386	-0.05
574.578	-0.07
574.77	-0.01
574.962	-0.01
575.154	-0.04
575.346	-0.02
575.538	0
575.729	-0.02
575.921	-0.03
576.113	-0.02
576.305	0.03
576.497	-0.02
576.689	-0.01
576.88	-0.04
577.072	0.01
577.264	-0.02
577.456	-0
577.647	-0.08
577.839	-0.01
578.031	0.01
578.223	-0.03
578.414	-0.03
578.606	0
578.798	-0.04
578.989	-0.03
579.181	-0.02
579.372	-0
579.564	-0.03
579.755	0.01
579.947	-0.02
580.139	0.04
580.33	-0.05
580.522	-0.01
580.713	-0.08
580.905	-0.01
581.096	-0
581.287	-0.02
581.479	-0.02
581.67	0
581.862	-0
582.053	-0.01
582.244	-0.05
582.436	-0.02
582.627	-0.03
582.818	-0.04
583.01	-0.04
583.201	-0
583.392	0
583.583	-0.01
583.775	-0.02
583.966	-0.04
584.157	-0.05
584.348	-0.05
584.54	-0.06
584.731	0.01
584.922	-0.03
585.113	-0
585.304	-0.01
585.495	-0
585.686	-0.01
585.877	0.01
586.068	-0.02
586.259	-0
586.45	-0.01
586.641	-0.03
586.832	-0.08
587.023	0.01
587.214	-0
587.405	0.01
587.596	-0.02
587.787	0.03
587.978	-0.03
588.169	-0.04
588.36	-0.03
588.551	0.01
588.742	-0.07
588.932	-0.01
589.123	-0.02
589.314	-0
589.505	-0.01
589.696	-0
589.886	-0.05
590.077	-0.05
590.268	-0.01
590.458	-0.05
590.649	-0.04
590.84	-0
591.03	-0.03
591.221	-0.04
591.412	-0.04
591.602	-0.01
591.793	0.02
591.984	-0.03
592.174	-0.03
592.365	0.06
592.555	-0.05
592.746	0.01
592.936	-0.01
593.127	0.02
593.317	0.01
593.508	-0.03
593.698	-0.01
593.889	-0.01
594.079	-0
594.269	-0.02
594.46	-0.01
594.65	-0.01
594.84	-0.01
595.031	-0.03
595.221	-0.02
595.411	-0.04
595.602	0.02
595.792	-0.01
595.982	-0.04
596.172	0.03
596.363	0.01
596.553	-0.02
596.743	-0.02
596.933	0
597.123	0.05
597.314	-0.01
597.504	-0.03
597.694	0.01
597.884	0.02
598.074	-0.02
598.264	-0.01
598.454	0.01
598.644	-0
598.834	-0.02
599.024	-0.03
599.214	-0.02
599.404	0.01
599.594	-0.02
599.784	-0.05
599.974	0.02
600.164	0
600.354	-0.04
600.544	-0.06
600.734	-0.01
600.924	-0.01
601.114	-0.02
601.303	0
601.493	0
601.683	-0.03
601.873	-0.01
602.063	-0.03
602.252	0.06
602.442	-0.06
602.632	-0
602.821	-0.03
603.011	-0
603.201	-0
603.39	-0.05
603.58	-0.04
603.77	-0.01
603.959	-0.01
604.149	-0.02
604.339	-0.03
604.528	0
604.718	0.02
604.907	-0.01
605.097	-0.02
605.286	-0.07
605.476	0.02
605.665	0.01
605.855	-0.02
606.044	0.06
606.234	0.01
606.423	0.01
606.612	-0.05
606.802	-0.02
606.991	0.02
607.181	-0.01
607.37	-0.05
607.559	-0.03
607.749	-0.04
607.938	-0
608.127	-0.01
608.316	-0.03
608.506	0.01
608.695	-0.01
608.884	-0.01
609.073	-0.02
609.263	0.02
609.452	0.02
609.641	-0.01
609.83	-0.06
610.019	-0.02
610.208	-0.03
610.397	-0.04
610.586	-0.01
610.775	-0.05
610.965	-0.02
611.154	-0.05
611.343	-0.04
611.532	0.03
611.721	-0.04
611.91	-0.05
612.099	0.02
612.287	-0.04
612.476	-0.06
612.665	0.01
612.854	-0.04
613.043	0.02
613.232	-0.03
613.421	-0.05
613.61	-0.02
613.798	-0.04
613.987	0.02
614.176	0.01
614.365	-0.02
614.554	-0.02
614.742	0.02
614.931	-0.02
615.12	0.02
615.309	-0.03
615.497	-0.02
615.686	-0.03
615.875	-0
616.063	0
616.252	-0.03
616.44	-0.01
616.629	-0.01
616.818	0.01
617.006	-0.02
617.195	-0.03
617.383	-0.03
617.572	0.02
617.76	-0.04
617.949	-0.04
618.137	-0
618.326	-0.01
618.514	-0.07
618.703	-0.02
618.891	0.04
619.079	-0.06
619.268	-0.01
619.456	-0.03
619.644	0.03
619.833	0.01
620.021	-0.05
620.209	-0.08
620.398	-0
620.586	-0.02
620.774	0
620.962	-0
621.151	0.05
621.339	-0.01
621.527	-0.04
621.715	-0.04
621.903	-0.06
622.092	-0.05
622.28	0.02
622.468	-0.01
622.656	-0.06
622.844	-0.01
623.032	-0
623.22	-0.06
623.408	-0.01
623.596	0.01
623.784	0
623.972	-0.07
624.16	-0.03
624.348	0.01
624.536	-0.02
624.724	-0.03
624.912	0.04
625.1	0.03
625.288	-0.03
625.476	-0.02
625.664	-0.01
625.851	-0.07
626.039	-0.01
626.227	0
626.415	-0.01
626.603	-0.07
626.79	0
626.978	-0.01
627.166	0.02
627.354	-0.03
627.541	-0.05
627.729	-0.05
627.917	-0.01
628.104	0.01
628.292	-0.03
628.48	-0.03
628.667	-0
628.855	0
629.042	-0
629.23	-0.04
629.418	-0.05
629.605	-0.03
629.793	-0.02
629.98	-0.03
630.168	-0.01
630.355	-0.02
630.543	-0.01
630.73	-0.04
630.917	-0
631.105	0.05
631.292	-0.02
631.48	-0.04
631.667	0.04
631.854	-0.03
632.042	-0.03
632.229	-0.04
632.416	-0.02
632.604	-0.03
632.791	-0.06
632.978	0
633.165	0.02
633.353	0.04
633.54	0.02
633.727	-0.07
633.914	-0.05
634.101	-0.1
634.289	-0
634.476	-0.04
634.663	-0.07
634.85	0.03
635.037	-0.06
635.224	-0.08
635.411	0.02
635.598	0.03
635.785	-0.02
635.972	-0.01
636.159	0.04
636.346	-0.02
636.533	-0.01
636.72	-0.01
636.907	-0.02
637.094	-0.01
637.281	-0.01
637.468	-0.03
637.655	-0
637.842	0.01
638.029	-0.06
638.215	0.02
638.402	0
638.589	-0.02
638.776	-0.03
638.963	-0.03
639.149	0.02
639.336	0.03
639.523	-0.03
639.709	-0.02
639.896	-0.02
640.083	0.03
640.27	-0
640.456	-0.07
640.643	0.04
640.829	-0.05
641.016	-0.04
641.203	-0.06
641.389	0.01
641.576	0.01
641.762	-0.01
641.949	-0.05
642.135	0.01
642.322	-0.01
642.508	-0.08
642.695	-0.02
642.881	-0.02
643.068	0
643.254	-0.04
643.441	-0
643.627	-0.01
643.813	-0.05
644	0.02
644.186	-0.05
644.372	-0
644.559	0.05
644.745	-0.03
644.931	-0.05
645.118	0.01
645.304	-0.03
645.49	-0.04
645.676	-0.02
645.862	-0.03
646.049	0.03
646.235	-0.01
646.421	0.07
646.607	0.03
646.793	-0.03
646.979	-0.03
647.165	-0.03
647.352	-0.04
647.538	0.03
647.724	-0.03
647.91	-0.01
648.096	0.03
648.282	0.03
648.468	-0.03
648.654	-0.03
648.84	0.03
649.026	-0.03
649.212	-0.01
649.397	-0.01
649.583	-0.06
649.769	0.02
649.955	-0.03
650.141	-0
650.327	0.03
650.513	-0.02
650.698	0
650.884	-0.07
651.07	-0.02
651.256	-0
651.442	-0.03
651.627	-0.02
651.813	0.01
651.999	0.01
652.184	-0.01
652.37	-0.02
652.556	-0.03
652.741	0.02
652.927	-0.06
653.113	-0.02
653.298	0.01
653.484	-0.03
653.669	-0.07
653.855	-0.03
654.04	0.01
654.226	-0.02
654.412	-0
654.597	-0.05
654.782	-0.03
654.968	0.01
655.153	-0.01
655.339	-0.06
655.524	-0.04
655.71	0.01
655.895	-0.02
656.08	-0.02
656.266	-0.01
656.451	0.01
656.636	-0.06
656.822	0.03
657.007	-0.03
657.192	-0.02
657.378	-0.08
657.563	-0.01
657.748	0.02
657.933	-0
658.118	-0.07
658.304	-0.03
658.489	0.02
658.674	-0.01
658.859	-0.02
659.044	-0
659.229	0
659.414	-0.04
659.599	-0
659.785	-0.03
659.97	-0.04
660.155	-0.03
660.34	-0
660.525	-0.05
660.71	-0.03
660.895	0.05
661.08	-0.04
661.264	-0.04
661.449	0.02
661.634	0.06
661.819	0.03
662.004	-0.02
662.189	-0.06
662.374	-0.02
662.559	-0.04
662.743	-0.06
662.928	-0.08
663.113	-0.02
663.298	-0.05
663.483	-0.02
663.667	0.01
663.852	-0.04
664.037	0.06
664.221	-0.05
664.406	0.05
664.591	-0
664.775	0.01
664.96	-0.01
665.145	-0.01
665.329	-0.01
665.514	-0.05
665.698	0.01
665.883	-0.05
666.068	0.03
666.252	-0
666.437	-0.07
666.621	-0
666.806	-0.01
666.99	-0.02
667.174	-0.07
667.359	0.06
667.543	-0.08
667.728	-0.05
667.912	-0.04
668.096	0.03
668.281	-0.07
668.465	-0.04
668.649	-0.03
668.834	-0.02
669.018	-0
669.202	-0.04
669.387	-0.06
669.571	0.04
669.755	-0.04
669.939	-0.03
670.124	0.01
670.308	0.05
670.492	0.03
670.676	-0.01
670.86	0.01
671.044	-0.03
671.228	0.02
671.413	-0.04
671.597	-0.05
671.781	-0.04
671.965	-0.02
672.149	-0.03
672.333	-0.03
672.517	-0.05
672.701	0.03
672.885	-0.01
673.069	-0.07
673.253	0
673.437	-0
673.621	-0.05
673.804	0
673.988	-0.02
674.172	-0.01
674.356	-0.05
674.54	0.01
674.724	0.08
674.908	-0.02
675.091	0.03
675.275	-0.05
675.459	0.04
675.643	0.01
675.826	0.01
676.01	-0.05
676.194	0.02
676.377	0.03
676.561	0.01
676.745	-0.01
676.928	0.01
677.112	0.03
677.296	-0.04
677.479	-0.04
677.663	-0.03
677.846	-0.01
678.03	-0.04
678.213	-0.07
678.397	0
678.58	-0.06
678.764	-0.04
678.947	-0.05
679.131	-0.06
679.314	0.06
679.498	0
679.681	0
679.865	0.05
680.048	0.01
680.231	0.03
680.415	0.01
680.598	-0
680.781	-0.01
680.965	-0.03
681.148	-0.01
681.331	-0.03
681.514	0.01
681.698	-0.02
681.881	0.01
682.064	-0
682.247	-0.02
682.43	-0.06
682.614	0.03
682.797	0.04
682.98	0.02
683.163	-0.05
683.346	0.04
683.529	-0.05
683.712	-0.08
683.895	0.04
684.078	-0.06
684.261	-0.03
684.444	0.02
684.627	0.03
684.81	-0.02
684.993	-0.02
685.176	-0.01
685.359	-0.07
685.542	-0.04
685.725	0.11
685.908	0
686.091	-0.02
686.274	0.03
686.457	-0.02
686.639	-0.03
686.822	0.04
687.005	-0
687.188	0.04
687.371	0.09
687.553	0.02
687.736	-0.01
687.919	0.05
688.102	0.06
688.284	-0.03
688.467	0.01
688.65	-0.01
688.832	-0
689.015	0.02
689.197	-0.07
689.38	0.12
689.563	0.07
689.745	0.01
689.928	-0.04
690.11	0.01
690.293	0
690.475	-0.07
690.658	0.07
690.84	-0.04
691.023	0.02
691.205	-0.01
691.388	-0.03
691.57	0.09
691.752	0.04
691.935	-0.09
692.117	-0
692.3	-0.02
692.482	0.01
692.664	0.01
692.847	0.05
693.029	0.06
693.211	0.07
693.393	0.02
693.576	-0
693.758	0.05
693.94	0.03
694.122	0.01
694.304	0.01
694.487	-0.03
694.669	0.08
694.851	-0.03
695.033	0.01
695.215	-0.05
695.397	-0.01
695.579	0.04
695.761	-0.01
695.943	-0.04
696.125	0.08
696.308	0.03
696.49	-0.08
696.671	0.11
696.853	-0.01
697.035	0.18
697.217	-0.01
697.399	0.04
697.581	-0.04
697.763	0.05
697.945	-0
698.127	0.04
698.309	0.1
698.491	0.04
698.672	0.06
698.854	0.07
699.036	0.08
699.218	-0.02
699.399	0.08
699.581	0.06
699.763	0.07
699.945	-0.02
700.126	0.02
700.308	0.1
700.49	0.01
700.671	-0.02
700.853	0.02
701.035	0.03
701.216	0.03
701.398	-0.03
701.579	0.08
701.761	0.1
701.943	-0.04
702.124	-0.02
702.306	0.04
702.487	0.14
702.669	0.09
702.85	0.05
703.031	0.04
703.213	0.13
703.394	0.12
703.576	0.02
703.757	0.16
703.938	0.1
704.12	0.25
704.301	0.05
704.483	0.01
704.664	0.08
704.845	0.14
705.026	0.14
705.208	0.06
705.389	0.04
705.57	0.07
705.751	0.08
705.933	0.08
706.114	0.14
706.295	0.1
706.476	0.03
706.657	0.2
706.838	0.13
707.02	0.11
707.201	0.02
707.382	-0.02
707.563	0.12
707.744	0.04
707.925	-0
708.106	0.03
708.287	0.09
708.468	0.17
708.649	0.1
708.83	0.11
709.011	0.06
709.192	0.19
709.373	0.05
709.554	0.13
709.734	0.2
709.915	0.17
710.096	0.16
710.277	0.02
710.458	0.1
710.639	0.15
710.819	0.01
711	0.09
711.181	0.21
711.362	0.18
711.542	0.16
711.723	0.17
711.904	0.21
712.085	0.16
712.265	0.16
712.446	0.09
712.627	0.1
712.807	0.16
712.988	0.15
713.168	0.12
713.349	0.19
713.53	0.04
713.71	0.07
713.891	0.07
714.071	0.22
714.252	0.15
714.432	0.18
714.613	0.09
714.793	0.26
714.974	0.3
715.154	0.33
715.334	0.22
715.515	0.32
715.695	0.19
715.876	0.23
716.056	0.19
716.236	0.21
716.417	0.23
716.597	0.16
716.777	0.41
716.957	0.22
717.138	0.25
717.318	0.27
717.498	0.14
717.678	0.25
717.859	0.25
718.039	0.16
718.219	0.28
718.399	0.27
718.579	0.27
718.759	0.23
718.939	0.33
719.12	0.29
719.3	0.26
719.48	0.15
719.66	0.14
719.84	0.44
720.02	0.27
720.2	0.22
720.38	0.32
720.56	0.47
720.74	0.31
720.92	0.36
721.1	0.49
721.279	0.39
721.459	0.33
721.639	0.25
721.819	0.41
721.999	0.37
722.179	0.44
722.359	0.29
722.538	0.38
722.718	0.44
722.898	0.37
723.078	0.35
723.257	0.38
723.437	0.48
723.617	0.42
723.797	0.35
723.976	0.46
724.156	0.5
724.336	0.51
724.515	0.62
724.695	0.4
724.874	0.44
725.054	0.57
725.234	0.43
725.413	0.51
725.593	0.4
725.772	0.56
725.952	0.48
726.131	0.46
726.311	0.5
726.49	0.56
726.67	0.43
726.849	0.55
727.028	0.59
727.208	0.49
727.387	0.55
727.567	0.46
727.746	0.55
727.925	0.55
728.105	0.48
728.284	0.61
728.463	0.52
728.643	0.59
728.822	0.44
729.001	0.52
729.18	0.67
729.359	0.67
729.539	0.66
729.718	0.71
729.897	0.73
730.076	0.67
730.255	0.58
730.434	0.77
730.614	0.82
730.793	0.79
730.972	0.69
731.151	0.73
731.33	0.82
731.509	0.84
731.688	0.73
731.867	0.78
732.046	0.62
732.225	0.98
732.404	0.76
732.583	0.72
732.762	0.77
732.941	0.87
733.12	0.94
733.298	0.85
733.477	0.96
733.656	0.85
733.835	0.8
734.014	0.97
734.193	0.86
734.371	0.95
734.55	0.92
734.729	0.84
734.908	0.98
735.086	0.88
735.265	1.03
735.444	0.79
735.623	0.79
735.801	0.86
735.98	0.96
736.159	0.9
736.337	1.05
736.516	0.88
736.694	0.87
736.873	0.78
737.052	1.02
737.23	1.04
737.409	0.85
737.587	1.08
737.766	0.68
737.944	0.79
738.123	0.82
738.301	0.89
738.479	0.77
738.658	0.81
738.836	0.5
739.015	0.86
739.193	0.84
739.371	0.64
739.55	0.52
739.728	0.48
739.906	0.74
740.085	0.88
740.263	0.67
740.441	0.49
740.62	0.84
740.798	0.72
740.976	0.52
741.154	0.53
741.332	0.74
741.511	0.47
741.689	0.5
741.867	0.69
742.045	0.48
742.223	0.45
742.401	0.39
742.579	0.35
742.757	0.5
742.935	0.29
743.114	0.26
743.292	0.33
743.47	0.37
743.648	0.4
743.826	0.23
744.004	0.46
744.181	0.42
744.359	0.3
744.537	0.25
744.715	0.24
744.893	0.2
745.071	0.21
745.249	0.29
745.427	0.21
745.605	0.33
745.782	0.36
745.96	0.37
746.138	0.21
746.316	0.28
746.493	0.11
746.671	0.24
746.849	0.12
747.027	0.24
747.204	0.14
747.382	0.24
747.56	0.16
747.737	0.21
747.915	0.05
748.093	0.21
748.27	0.1
748.448	0.04
748.625	0.02
748.803	0.2
748.98	0.14
749.158	0.11
749.335	0.21
749.513	0.05
749.69	0.17
749.868	0.13
750.045	0.11
750.223	0.02
750.4	-0.12
750.578	0.27
750.755	0
750.932	-0.12
751.11	0.18
751.287	-0.1
751.464	0.12
751.642	-0.04
751.819	0.14
751.996	0
752.173	0.05
752.351	-0.16
752.528	0.02
752.705	0.01
752.882	-0.04
753.06	0.05
753.237	0.09
753.414	0.16
753.591	0.12
753.768	0.06
753.945	0.02
754.122	-0.01
754.299	0.04
754.476	-0.03
754.654	0.11
754.831	0.13
755.008	0.03
755.185	-0.05
755.362	-0.16
755.539	0.06
755.716	-0.08
755.892	-0.08
756.069	-0.02
756.246	0.03
756.423	-0.03
756.6	0.15
756.777	-0.06
756.954	0.14
757.131	-0.01
757.307	-0.11
757.484	-0.09
757.661	0.07
757.838	-0.02
758.015	-0.11
758.191	0.03
758.368	0.06
758.545	0.21
758.721	0.03
758.898	0.01
759.075	0.01
759.251	0.14
759.428	0.1
759.605	-0.11
759.781	-0.19
759.958	-0.1
760.134	0.05
760.311	-0
760.488	0.07
760.664	0.02
760.841	-0.07
761.017	-0.06
761.194	0
761.37	0.03
761.547	0.04
761.723	-0.05
761.899	0.15
762.076	-0.09
762.252	-0.19
762.429	0.05
762.605	0.1
762.781	-0.04
762.958	0.06
763.134	-0.1
763.31	-0.03
763.486	0.12
763.663	-0.2
763.839	0.02
764.015	-0.14
764.191	-0.1
764.368	-0.05
764.544	-0.07
764.72	-0.04
764.896	0.17
765.072	-0.05
765.248	-0.02
765.425	0
765.601	-0.03
765.777	-0.05
765.953	-0.13
766.129	-0.12
766.305	-0.17
766.481	0.03
766.657	-0.11
766.833	0.07
767.009	-0.03
767.185	-0.03
767.361	-0.07
767.537	-0.26
767.713	0.06
767.889	-0.04
768.065	0.03
768.24	0.15
768.416	0.07
768.592	-0.01
768.768	-0.07
768.944	-0
769.12	-0.06
769.295	-0.02
769.471	0.03
769.647	-0.06
769.823	0.05
769.998	-0.05
770.174	-0.1
770.35	0.26
770.525	0.26
770.701	0.01
770.877	-0.02
771.052	-0.13
771.228	0.07
771.403	0.04
771.579	-0
771.755	0.21
771.93	-0.06
772.106	-0.11
772.281	-0.34
772.457	-0.03
772.632	0.05
772.808	-0.22
772.983	-0.11
773.159	-0.15
773.334	0.15
773.509	0
773.685	-0.11
773.86	0.22
774.036	0.1
774.211	-0
774.386	0.03
774.562	-0.07
774.737	0.09
774.912	-0.04
775.087	-0.17
775.263	-0.02
775.438	-0.11
775.613	-0.02
775.788	-0.16
775.964	0.08
776.139	0.22
776.314	-0.24
776.489	0.12
776.664	0.06
776.839	-0.14
777.014	0.04
777.19	0.04
777.365	0.16
777.54	0.14
777.715	-0.09
777.89	0.01
778.065	-0.16
778.24	-0.12
778.415	0.19
778.59	-0.36
778.765	-0.08
778.94	0.07
779.115	-0.08
779.289	-0.02
779.464	-0.12
779.639	-0.08
779.814	-0.19
779.989	-0.12
780.164	0.02
780.339	0.15
780.513	-0.05
780.688	-0.25
780.863	0.09
781.038	0.1
781.212	-0.35
781.387	-0.01
781.562	0.22
781.737	-0.2
781.911	0
782.086	-0.1
782.261	-0.16
782.435	0.17
782.61	-0.23
782.784	-0.17
782.959	0.07
783.134	-0.19
783.308	-0.14
783.483	-0.25
783.657	0.03
783.832	0.26
784.006	-0.44
784.181	-0.03
784.355	0.03
784.53	-0.27
784.704	-0.08
784.878	0.19
785.053	0.06
785.227	0.24
785.402	0.13
785.576	-0.3
785.75	-0.06
785.925	-0.07
786.099	-0.05
786.273	-0.05
786.448	0.12
786.622	0.06
786.796	-0.06
786.97	-0.13
787.145	0.26
787.319	-0.34
787.493	-0.05
787.667	-0.34
787.841	0.02
788.015	0.03
788.19	-0.21
788.364	0.17
788.538	0.15
788.712	0.12
788.886	0.07
789.06	0.15
789.234	0.17
789.408	-0.32
789.582	-0.03
789.756	0.04
789.93	-0.25
790.104	0.01
790.278	-0.08
790.452	-0.2
790.626	0.03
790.8	-0.11
790.973	0.11
791.147	-0.06
791.321	0.26
791.495	0.04
791.669	-0.18
791.843	0.04
792.016	0.11
792.19	0.26
792.364	0.04
792.538	0.37
792.711	0.32
792.885	-0.25
793.059	-0.25
793.233	-0.64
793.406	-0.12
793.58	-0.02
793.754	-0.02
793.927	-0.09
794.101	0.35
794.274	-0.09
794.448	0.39
794.622	-0.39
794.795	0.13
794.969	-0.22
795.142	0.34
795.316	-0.02
795.489	-0.14
795.663	0.12
795.836	0.35
796.009	-0
796.183	0.09
796.356	0.15
796.53	-0.04
796.703	0.01
796.876	0.64
797.05	-0.08
797.223	-0.02
797.396	-0.08
797.57	0.19
797.743	0.36
797.916	-0.03
798.09	-0.15
798.263	0.06
798.436	-0
798.609	-0.14
798.782	-0.1
798.956	-0.02
799.129	-0.18
799.302	-0.27
799.475	0.01
799.648	-0.31
799.821	-0.48
799.994	0.04
800.167	-0.43
800.34	0.08
800.514	-0.02
800.687	-0.33
800.86	-0.09
801.033	0.04
801.206	0.05
801.379	-0.22
801.551	-0.08
801.724	0.13
801.897	0.14
802.07	-0.11
802.243	-0.6
802.416	0.09
802.589	-0.03
802.762	-0.08
802.935	-0.02
803.107	-0.06
803.28	0.1
803.453	0.21
803.626	0.1
803.798	-0.25
803.971	-0.17
804.144	0.21
804.317	0.13
804.489	0.12
804.662	0.19
804.835	-0.06
805.007	-0.14
805.18	0.11
805.353	-0.22
805.525	-0.11
805.698	-0.13
805.87	0.21
806.043	0.42
806.215	-0.14
806.388	-0.34
806.56	0.08
806.733	0.43
806.905	0.02
807.078	-0.24
807.25	-0.08
807.423	-0.02
807.595	0.21
807.768	-0.01
807.94	0.47
808.112	0.11
808.285	0.18
808.457	-0.41
808.629	-0.01
808.802	-0.02
808.974	-0.06
809.146	-0.1
809.318	-0.26
809.491	-0.05
809.663	0.24
809.835	-0.44
810.007	0.24
810.18	-0.18
810.352	-0.31
810.524	-0.05
810.696	0.35
810.868	0.15
811.04	-0.23
811.212	-0.21
811.384	0.46
811.556	-0.14
811.728	-0.16
811.901	0.58
812.073	-0.25
812.245	0.31
812.417	0.06
812.589	-0.67
812.76	0.05
812.932	-0.02
813.104	0.05
813.276	-0.27
813.448	0.3
813.62	0.07
813.792	0.25
813.964	-0.15
814.136	0.19
814.307	-0.34
814.479	-0.29
814.651	-0.16
814.823	0.91
814.995	0.14
815.166	-0.31
815.338	-0.78
815.51	-0.81
815.681	0.83
815.853	0.19
816.025	-0.24
816.196	0.33
816.368	0.08
816.54	-0.77
816.711	-0.65
816.883	0.16
817.054	0.93
817.226	-0.64
817.398	-0.03
817.569	-0.35
817.741	-0.25
817.912	-0.35
818.084	-0.22
818.255	-0.11
818.426	-0.39
818.598	0.02
818.769	-0.41
818.941	0.03
819.112	0.6
819.283	0.31
819.455	-0.2
819.626	-0.04
819.798	-0.16
819.969	0.08
820.14	-0.37
820.311	-0.03
820.483	-0.16
820.654	-0.26
820.825	-0.07
820.996	-0.04
821.168	-0.84
821.339	-0.48
821.51	-0.76
821.681	-0.17
821.852	-0.11
822.023	-0.56
822.195	-0.57
822.366	0.15
822.537	-0.29
822.708	-0.05
822.879	-0.53
823.05	0.51
823.221	-0.46
823.392	0.04
823.563	0.35
823.734	0.31
823.905	0
824.076	-0.26
824.247	-0.38
824.418	-0.46
824.589	0.59
824.759	-0.81
824.93	-0.19
825.101	-0.7
825.272	0.34
825.443	0.02
825.614	0.38
825.784	-1.03
825.955	0.51
826.126	0.51
826.297	-0.11
826.467	0.57
826.638	0.7
826.809	-0.53
826.98	-0.3
827.15	0.17
827.321	0.13
827.492	0.63
827.662	-0.35
827.833	0.81
828.003	0.03
828.174	-0.82
828.345	-0.7
828.515	0.69
828.686	0.21
828.856	-0.64
829.027	-0.24
829.197	0.17
829.368	0.52
829.538	-0.3
829.709	-0.33
829.879	-0.1
830.049	0.06
830.22	0.04
830.39	-0.02
830.56	0.41
830.731	-0.37
830.901	-0.79
831.072	-0.69
831.242	-0.02
831.412	0.36
831.582	-0.34
831.753	-0.82
831.923	0.18
832.093	-0.28
832.263	-0.34
832.434	-0.89
832.604	-0.07
832.774	-0.27
832.944	-0.3
833.114	-0.03
833.284	0.22
833.454	-0.94
833.624	-0.3
833.795	-0.54
833.965	0.58
834.135	0.32
834.305	-0.84
834.475	-0.84
834.645	-0.05
834.815	-0.42
834.985	-1.18
835.155	-0.37
835.325	0.11
835.494	0.24
835.664	0.12
835.834	-0.77
836.004	0.19
836.174	0.49
836.344	-0.45
836.514	-0.71
836.684	-0.4
836.853	-0.66
837.023	0.23
837.193	-0.29
837.363	-0.18
837.532	0.04
837.702	-0.55
837.872	-0.75
838.041	0.56
838.211	1.17
838.381	-0.54
838.55	0.2
838.72	0.93
838.89	1.06
839.059	-0.37
839.229	0.2
839.398	0.34
839.568	0.35
839.738	-0.14
839.907	0.97
840.077	0.41
840.246	-0.42
840.416	-0.67
840.585	-0.93
840.755	1.02
840.924	0.89
841.093	-0.44
841.263	-0.57
841.432	-0.15
841.602	-0.44
841.771	-1
841.94	-0.4
842.11	1.17
842.279	1.24
842.448	-0.64
842.617	-0.54
842.787	1
842.956	-1.42
843.125	0.02
843.294	0.74
843.464	0.57
843.633	0.32
843.802	-1.35
843.971	0.34
844.14	-0.32
844.309	0.44
844.479	-0.83
844.648	-0.64
844.817	-1.15
844.986	0.02
845.155	-0.61
845.324	-0.11
845.493	0.2
845.662	-1.57
845.831	-0.19
846	0.42
846.169	-0.42
846.338	0.63
846.507	0.29
846.676	-0.24
846.844	-0.72
847.013	0.63
847.182	0.15
847.351	-0.75
847.52	-0.3
847.689	0.17
847.858	-0.18
848.026	-1.39
848.195	0.21
848.364	-0.06
848.533	0.2
848.701	-0.26
848.87	-0.79
849.039	0.11
849.207	0.97
849.376	0.92
849.545	0.5
849.713	-1.31
849.882	0.12
850.051	-0.11
850.219	0.1
850.388	0.76
850.556	-0.44
850.725	-0.12
850.893	0.08
851.062	-0.42
851.23	0.73
851.399	-1.34
851.567	-0.58
851.736	-0.87
851.904	-0.81
852.073	-0.05
852.241	0.66
852.41	-0.62
852.578	0.25
852.746	-1.14
852.915	0.38
853.083	-0.73
853.251	-1.99
853.42	-1.31
853.588	0.03
853.756	0.74
853.924	-0.41
854.093	-0.38
854.261	0.61
854.429	-0.43
854.597	-0.77
854.765	0.24
854.934	0.21
855.102	0.59
855.27	-0.26
855.438	0
855.606	0.42
855.774	0.83
855.942	-1.98
856.11	-1.85
856.278	0.82
856.446	-0.08
856.614	-0.04
856.782	-0.62
856.95	1.65
857.118	1.06
857.286	-0.13
857.454	-0.62
857.622	0.83
857.79	0.96
857.958	-1.63
858.126	0.96
858.294	-2.3
858.462	0.75
858.629	-1.19
858.797	-0.97
858.965	0.44
859.133	-0.02
859.301	-1.26
859.468	0.57
859.636	-0.25
859.804	1.73
859.971	0
860.139	-0.48
860.307	0.2
860.474	0.05
860.642	-1.09
860.81	-0.92
860.977	-0.89
861.145	0.91
861.313	-0.02
861.48	-0.15
861.648	0.96
861.815	0
861.983	-0.86
862.15	-1.6
862.318	0.93
862.485	2.07
862.653	-0.43
862.82	-0.76
862.988	1.01
863.155	0.32
863.322	-0.97
863.49	-0.96
863.657	-0.58
863.824	1.38
863.992	-1.13
864.159	-0.18
864.326	0.47
864.494	-0.91
864.661	2.28
864.828	-1.9
864.996	0.03
865.163	1.74
865.33	-0.2
865.497	-2.64
865.664	-0.15
865.832	-1.52
865.999	-0.6
866.166	-3.19
866.333	-1.28
866.5	0.74
866.667	0.3
866.834	-0.45
867.001	1.24
867.168	-0.47
867.335	0.77
867.502	-3
867.669	-1
867.836	2.33
868.003	-1.17
868.17	-0.04
868.337	0.47
868.504	1.12
868.671	-2.31
868.838	-0.9
869.005	-0.68
869.172	0.69
869.339	-0.76
869.505	-0.5
869.672	-0.01
869.839	0.57
870.006	-0.97
870.173	-1.87
870.339	-0.86
870.506	2.17
870.673	-2.16
870.84	-0.33
871.006	0.72
871.173	-0.9
871.34	-0.14
871.506	-1.06
871.673	0.38
871.839	-1.79
872.006	0.54
872.173	-0.52
872.339	-1.04
872.506	0.55
872.672	0.09
872.839	-2.79
873.005	0.12
873.172	3.09
873.338	2.81
873.505	1.48
873.671	0.59
873.838	1.21
874.004	-1.53
874.171	-0.17
874.337	0.06
874.503	1.02
874.67	0.26
874.836	-1.6
875.002	3.13
875.169	1.43
875.335	-0.82
875.501	-2.06
875.668	-1.65
875.834	-0.99
876	-0.88
876.166	1.85
876.332	0.08
876.499	3.07
876.665	-1.61
876.831	-0.52
876.997	1.45
877.163	1.07
877.329	-0.42
877.495	-0.25
877.662	0.21
877.828	-0.33
877.994	-0.35
878.16	-2.1
878.326	-1.14
878.492	0.21
878.658	-0.05
878.824	0.08
878.99	-0.76
879.156	-2.01
879.322	2.08
879.487	-1
879.653	1.71
879.819	-1.67
879.985	-1.35
880.151	-0.39
880.317	-0.54
880.483	0.53
880.648	-1.34
880.814	-2.61
880.98	-0.35
881.146	-0.9
881.312	-3.78
881.477	-0.82
881.643	-0.37
881.809	1.17
881.974	1.53
882.14	-3.28
882.306	-0.45
882.471	1.42
882.637	-1.37
882.803	0.87
882.968	0.94
883.134	1.8
883.299	-0.93
883.465	-2.27
883.63	1.57
883.796	1.7
883.961	1.44
884.127	0.49
884.292	-3.6
884.458	-2.1
884.623	-2.1
