Data from Apollo_Calib_20240827__AbsoluteIrradiance__300__04-09-00-078.txt Node

Date: Wed Aug 28 04:09:00 BST 2024
User: biology
Spectrometer: FLMT08252
Trigger mode: 0
Integration Time (sec): 5.000000E-1
Scans to average: 5
Electric dark correction enabled: true
Nonlinearity correction enabled: false
Boxcar width: 0
XAxis mode: Wavelengths
Number of Pixels in Spectrum: 3648
>>>>>Begin Spectral Data<<<<<
179.588	-0
179.809	-0
180.03	-0
180.251	-0
180.473	-0
180.694	0
180.915	0
181.136	-0
181.357	-0
181.578	0
181.799	-0
182.02	-0
182.241	-0
182.462	-0
182.683	0
182.904	-0
183.125	-0
183.346	0
183.567	0
183.788	-0
184.009	-0
184.23	0
184.451	0
184.672	-0
184.892	-0
185.113	0
185.334	0
185.555	-0
185.776	-0
185.996	-0
186.217	-0
186.438	0
186.659	-0
186.879	0
187.1	0
187.321	-0
187.541	-0
187.762	-0
187.983	0
188.203	-0
188.424	0
188.644	-0
188.865	-0
189.086	-0
189.306	-0
189.527	-0
189.747	-0
189.968	-0
190.188	0
190.409	0
190.629	0
190.849	-0
191.07	-0
191.29	0
191.511	0
191.731	-0
191.951	-0
192.172	-0
192.392	-0
192.612	-0
192.833	-0
193.053	0
193.273	0
193.493	-0
193.714	-0
193.934	0
194.154	0
194.374	0
194.594	-0
194.815	0
195.035	0
195.255	0
195.475	-0
195.695	0
195.915	0
196.135	-0
196.355	0
196.575	0
196.795	0
197.015	-0
197.235	-0
197.455	-0
197.675	0
197.895	-0
198.115	-0
198.335	0
198.555	-0
198.775	0
198.995	0
199.214	0
199.434	0
199.654	-0
199.874	-0
200.094	0.74
200.313	-0.4
200.533	-0.89
200.753	-1.11
200.973	0.33
201.192	0.69
201.412	-0.79
201.632	-0.53
201.851	0.2
202.071	-0.3
202.291	-0.77
202.51	-0.57
202.73	0.14
202.95	-0.55
203.169	-0.97
203.389	-0.32
203.608	-0.11
203.828	-0.76
204.047	-0.07
204.267	0.29
204.486	0.31
204.706	-0.03
204.925	-0.02
205.145	-0.12
205.364	0.59
205.583	0.55
205.803	-0.47
206.022	-0.87
206.242	-0.31
206.461	-0.23
206.68	-0.39
206.9	0.19
207.119	0.38
207.338	0.42
207.557	-0.11
207.777	-0.36
207.996	-0.14
208.215	0.39
208.434	-0.32
208.654	-0.43
208.873	0.15
209.092	0.68
209.311	-0.2
209.53	-0.18
209.749	-0.24
209.968	-0.29
210.187	-0.14
210.407	-0.66
210.626	-0.28
210.845	0.25
211.064	-0.01
211.283	-0.6
211.502	0.23
211.721	-0.04
211.94	-0.22
212.159	-0.07
212.377	0.13
212.596	0.33
212.815	-0.01
213.034	-0.16
213.253	0.22
213.472	0.19
213.691	-0.21
213.91	-0.44
214.128	-0.12
214.347	0.49
214.566	-0.53
214.785	-0.33
215.003	0.08
215.222	-0.03
215.441	-0.23
215.66	-0.53
215.878	-0.05
216.097	0.13
216.316	-0.26
216.534	-0.09
216.753	-0.16
216.972	-0.2
217.19	-0.1
217.409	-0.34
217.627	-0.16
217.846	-0.23
218.064	-0.07
218.283	-0.14
218.501	0.49
218.72	0.27
218.938	-0.05
219.157	-0.15
219.375	0.19
219.594	-0.01
219.812	-0.29
220.031	-0.3
220.249	0.27
220.467	0.16
220.686	-0.32
220.904	-0.2
221.122	-0.24
221.341	0.19
221.559	-0.06
221.777	-0.26
221.995	-0.06
222.214	0.06
222.432	-0.22
222.65	0.23
222.868	-0.07
223.086	0.02
223.305	0.12
223.523	-0.04
223.741	0.27
223.959	0.05
224.177	-0.49
224.395	-0.32
224.613	0.01
224.831	0.01
225.049	-0.25
225.267	-0.15
225.485	-0.08
225.703	-0.12
225.921	-0.1
226.139	-0.26
226.357	0
226.575	0.07
226.793	-0.08
227.011	0.5
227.229	0.13
227.447	0.2
227.665	-0.14
227.883	-0.31
228.1	0.08
228.318	0.17
228.536	-0.35
228.754	-0.07
228.972	0.06
229.189	0.16
229.407	-0.12
229.625	-0.05
229.843	0.19
230.06	0.11
230.278	-0.12
230.496	-0.11
230.713	-0.01
230.931	0.1
231.149	-0.09
231.366	-0.28
231.584	-0.03
231.801	0.37
232.019	-0.16
232.236	-0.21
232.454	-0.19
232.671	0.03
232.889	-0.08
233.106	-0.11
233.324	-0.13
233.541	-0.11
233.759	-0.03
233.976	-0.15
234.194	-0.05
234.411	-0.1
234.628	-0.15
234.846	0.04
235.063	-0.04
235.28	-0.04
235.498	-0.08
235.715	-0.14
235.932	0.09
236.149	-0.15
236.367	-0.08
236.584	-0
236.801	-0.14
237.018	-0.06
237.236	-0.03
237.453	-0.25
237.67	0.1
237.887	-0.04
238.104	-0.1
238.321	-0.18
238.538	-0.07
238.755	0.12
238.973	-0.19
239.19	-0.07
239.407	-0.1
239.624	0.04
239.841	-0.2
240.058	-0.22
240.275	0.02
240.492	-0.07
240.709	0
240.925	-0.12
241.142	-0.05
241.359	-0.1
241.576	-0.23
241.793	-0
242.01	0.01
242.227	0
242.444	0
242.66	0.06
242.877	0.05
243.094	-0.06
243.311	0.05
243.527	-0.02
243.744	0.07
243.961	0.01
244.178	-0.1
244.394	-0.03
244.611	0.1
244.828	0.18
245.044	-0.15
245.261	-0.05
245.477	0.01
245.694	0.03
245.911	-0.18
246.127	-0.01
246.344	0.15
246.56	0.08
246.777	-0.1
246.993	0.01
247.21	0.1
247.426	0.02
247.643	-0.12
247.859	-0.05
248.076	-0.05
248.292	0.2
248.508	-0.05
248.725	-0.04
248.941	0.03
249.157	0.04
249.374	-0.14
249.59	-0.13
249.806	0.1
250.023	0.06
250.239	-0.05
250.455	-0.1
250.671	-0.04
250.888	0.04
251.104	0.09
251.32	-0.1
251.536	-0.07
251.752	0
251.969	-0.03
252.185	0.02
252.401	0.07
252.617	0.03
252.833	-0.02
253.049	-0.01
253.265	-0.02
253.481	-0.05
253.697	-0.06
253.913	-0.12
254.129	0.05
254.345	-0
254.561	-0.03
254.777	-0.09
254.993	0.05
255.209	-0.03
255.425	-0.01
255.641	-0.03
255.857	0.04
256.073	0.01
256.288	-0.11
256.504	-0.03
256.72	-0.04
256.936	0.08
257.152	-0.04
257.367	-0.12
257.583	-0.02
257.799	0.06
258.015	-0.17
258.23	-0.09
258.446	0.05
258.662	-0.06
258.877	-0.1
259.093	-0.04
259.309	0.01
259.524	0.02
259.74	-0.07
259.955	-0.13
260.171	0.01
260.387	-0
260.602	0.02
260.818	-0.02
261.033	-0.08
261.249	-0.02
261.464	-0.01
261.68	-0.1
261.895	-0.02
262.11	0.03
262.326	-0.1
262.541	-0.09
262.757	0.05
262.972	0.03
263.187	-0.08
263.403	0.01
263.618	0.05
263.833	0.03
264.049	-0.09
264.264	-0.07
264.479	0.03
264.694	0.07
264.91	-0.08
265.125	-0.04
265.34	0.08
265.555	0.15
265.77	0.01
265.986	-0.1
266.201	0.07
266.416	0.03
266.631	-0.09
266.846	-0.07
267.061	0.05
267.276	0.02
267.491	-0.17
267.706	0.09
267.921	-0
268.136	0.04
268.351	-0.02
268.566	-0.13
268.781	0.13
268.996	0.01
269.211	-0.03
269.426	-0.08
269.641	-0.01
269.856	0.02
270.071	-0.06
270.285	-0.17
270.5	0.09
270.715	0.1
270.93	-0
271.145	-0.03
271.359	0.04
271.574	-0.06
271.789	-0.06
272.004	-0.05
272.218	-0.04
272.433	0.04
272.648	-0.11
272.862	0.02
273.077	-0.02
273.292	0.01
273.506	-0.08
273.721	0.03
273.936	0.03
274.15	0.03
274.365	-0.01
274.579	0.03
274.794	0.05
275.008	0.07
275.223	-0.12
275.437	-0.03
275.652	0.09
275.866	0.08
276.081	-0.04
276.295	-0.01
276.509	0.04
276.724	0.04
276.938	0.01
277.153	0.03
277.367	0.06
277.581	-0.06
277.796	-0.1
278.01	-0.08
278.224	0.06
278.438	0.09
278.653	-0.09
278.867	-0.1
279.081	-0.18
279.295	-0.02
279.51	0.01
279.724	-0.14
279.938	0.02
280.152	0.04
280.366	-0.06
280.58	0.04
280.794	0.07
281.008	0.02
281.222	0.04
281.437	0.12
281.651	0.04
281.865	0.06
282.079	-0.03
282.293	-0.11
282.507	-0.03
282.721	0.01
282.935	-0.02
283.148	-0.11
283.362	0.02
283.576	-0.08
283.79	-0.02
284.004	-0.07
284.218	0.06
284.432	-0.01
284.646	-0.05
284.859	-0.04
285.073	-0.02
285.287	0.02
285.501	-0.02
285.714	-0
285.928	0
286.142	0.07
286.356	-0.04
286.569	-0.05
286.783	0.08
286.997	0.05
287.21	0
287.424	0.03
287.637	-0.03
287.851	-0.07
288.065	0
288.278	-0.05
288.492	-0.03
288.705	-0.06
288.919	0.01
289.132	-0.1
289.346	0.08
289.559	-0.1
289.773	-0.12
289.986	-0.03
290.2	-0.03
290.413	0.06
290.626	-0.07
290.84	-0.02
291.053	-0.03
291.267	0.06
291.48	0.01
291.693	0.01
291.906	-0.05
292.12	-0.04
292.333	-0.05
292.546	-0.05
292.76	0.08
292.973	0.01
293.186	0.07
293.399	-0.07
293.612	0.05
293.826	-0.01
294.039	0.01
294.252	-0.03
294.465	-0
294.678	0.03
294.891	0.02
295.104	-0.03
295.317	0
295.53	-0
295.743	-0.01
295.956	-0.01
296.169	0.04
296.382	0.04
296.595	-0.02
296.808	-0.08
297.021	0.06
297.234	0.04
297.447	0.01
297.66	-0
297.873	0.07
298.086	0.02
298.299	-0.01
298.511	-0.08
298.724	0.01
298.937	-0.06
299.15	-0.02
299.363	-0.03
299.575	0.03
299.788	0.03
300.001	0
300.213	-0.06
300.426	0.01
300.639	-0.07
300.852	-0.04
301.064	0.02
301.277	0.08
301.489	0.06
301.702	0.02
301.915	0.01
302.127	0.01
302.34	-0.02
302.552	0.01
302.765	-0.04
302.977	0.02
303.19	-0.05
303.402	-0.04
303.615	-0.02
303.827	-0.03
304.04	-0.04
304.252	0.02
304.464	-0.03
304.677	0.12
304.889	0.06
305.102	-0.02
305.314	-0.03
305.526	0.02
305.739	0.1
305.951	-0.02
306.163	-0.04
306.375	0.09
306.588	-0.02
306.8	-0.05
307.012	-0.04
307.224	0.01
307.436	0.09
307.649	-0.08
307.861	-0.05
308.073	0.01
308.285	-0.01
308.497	-0.04
308.709	-0.03
308.921	0.06
309.133	0.05
309.346	-0.02
309.558	0.03
309.77	0.02
309.982	0.06
310.194	0.02
310.406	-0.04
310.617	0.06
310.829	-0.02
311.041	0.04
311.253	-0.05
311.465	-0.01
311.677	0
311.889	-0.03
312.101	-0.04
312.313	0.01
312.524	0.08
312.736	-0.01
312.948	-0.04
313.16	0.08
313.372	0.01
313.583	0.03
313.795	-0.05
314.007	-0.03
314.218	0.02
314.43	-0.01
314.642	-0.02
314.853	-0.03
315.065	0.03
315.277	-0.03
315.488	-0
315.7	0.05
315.912	0
316.123	0.01
316.335	0
316.546	0.11
316.758	-0
316.969	-0.03
317.181	-0.01
317.392	0.02
317.604	0.07
317.815	-0.06
318.026	-0.06
318.238	-0.02
318.449	-0.01
318.661	-0.08
318.872	-0.04
319.083	-0.06
319.295	0.06
319.506	-0.02
319.717	-0
319.929	0.01
320.14	-0.01
320.351	-0.01
320.562	-0
320.774	-0.01
320.985	0.04
321.196	-0.07
321.407	-0.1
321.618	0.01
321.829	0.01
322.041	0.02
322.252	0.01
322.463	0
322.674	0.03
322.885	-0.05
323.096	-0.03
323.307	0
323.518	0.05
323.729	-0.03
323.94	-0.03
324.151	0.01
324.362	0.03
324.573	0
324.784	-0.02
324.995	0.04
325.206	0.04
325.417	-0.02
325.628	-0.03
325.838	0.04
326.049	-0
326.26	0.03
326.471	-0.02
326.682	-0
326.892	0
327.103	-0.1
327.314	-0.06
327.525	0.08
327.735	0.03
327.946	-0.03
328.157	-0.05
328.368	0.02
328.578	0.01
328.789	-0.01
328.999	0
329.21	0.01
329.421	0
329.631	-0.06
329.842	-0.08
330.052	-0.01
330.263	0.01
330.473	0.07
330.684	0.01
330.894	-0.03
331.105	0.02
331.315	0
331.526	-0.05
331.736	0.08
331.947	0.01
332.157	-0
332.367	-0.07
332.578	0.06
332.788	0.04
332.999	-0.01
333.209	-0.06
333.419	-0.05
333.629	0.02
333.84	0.04
334.05	0
334.26	0.04
334.47	0.08
334.681	0.02
334.891	-0.05
335.101	0.07
335.311	0.09
335.521	0.02
335.732	-0.06
335.942	0.05
336.152	-0
336.362	0.03
336.572	-0.02
336.782	0
336.992	-0.02
337.202	-0.02
337.412	-0.04
337.622	-0
337.832	-0.03
338.042	-0.03
338.252	-0.06
338.462	-0.03
338.672	-0.01
338.882	-0.01
339.092	0.05
339.302	0.05
339.511	0.05
339.721	-0.01
339.931	-0.03
340.141	0.04
340.351	0.06
340.561	0
340.77	-0.02
340.98	0
341.19	0.07
341.4	-0.02
341.609	-0.07
341.819	-0
342.029	-0.06
342.238	0.02
342.448	-0.05
342.658	0.02
342.867	-0
343.077	-0.02
343.286	-0
343.496	-0.03
343.706	0.06
343.915	-0.05
344.125	0.01
344.334	0.03
344.544	-0.07
344.753	-0.02
344.963	-0.06
345.172	-0
345.381	-0.01
345.591	-0.02
345.8	0.01
346.01	0.04
346.219	0.04
346.428	-0.14
346.638	-0.01
346.847	0
347.056	0.05
347.266	-0.02
347.475	-0.02
347.684	0.04
347.893	0.02
348.103	0.03
348.312	-0.04
348.521	-0
348.73	0.02
348.94	0.03
349.149	-0.05
349.358	-0
349.567	-0.02
349.776	-0.07
349.985	-0.02
350.194	0.04
350.403	0.04
350.612	-0.12
350.821	-0
351.03	0
351.239	-0.02
351.448	0.02
351.657	-0.05
351.866	0.07
352.075	-0.02
352.284	-0
352.493	-0.06
352.702	0.07
352.911	0.01
353.12	0.01
353.329	0
353.538	-0.01
353.746	-0.01
353.955	-0.03
354.164	0
354.373	-0.02
354.582	0.03
354.79	0.03
354.999	0.04
355.208	0
355.416	0.07
355.625	-0.07
355.834	-0.01
356.042	0.04
356.251	-0.02
356.46	-0.05
356.668	0.02
356.877	0.08
357.085	0.09
357.294	-0.07
357.503	-0.01
357.711	-0.01
357.92	0.15
358.128	0.01
358.337	-0.04
358.545	0.04
358.754	-0.02
358.962	0.01
359.17	-0.03
359.379	-0.04
359.587	0.01
359.796	-0.01
360.004	0.02
360.212	-0.01
360.421	0.06
360.629	-0.04
360.837	-0.03
361.046	0.06
361.254	0.11
361.462	-0
361.67	-0.03
361.879	0.03
362.087	0.09
362.295	0.01
362.503	-0.07
362.711	-0.02
362.92	-0.02
363.128	-0.04
363.336	-0.01
363.544	-0.06
363.752	-0.03
363.96	-0.05
364.168	-0.01
364.376	0.02
364.584	-0.01
364.792	0.03
365	0.02
365.208	0.02
365.416	0.04
365.624	0.05
365.832	-0.03
366.04	0.03
366.248	0.05
366.456	-0.01
366.664	0
366.872	-0
367.079	-0.01
367.287	-0.02
367.495	-0
367.703	0.01
367.911	-0.02
368.118	-0.01
368.326	-0.01
368.534	-0.05
368.742	0.08
368.949	-0.04
369.157	-0.01
369.365	0.03
369.572	0.01
369.78	-0.06
369.988	0
370.195	0.03
370.403	-0
370.61	-0.03
370.818	0
371.026	0.07
371.233	-0.03
371.441	-0.01
371.648	-0
371.856	0.08
372.063	-0.01
372.271	-0.02
372.478	-0.02
372.685	-0.01
372.893	0.03
373.1	0.02
373.308	-0.01
373.515	0.04
373.722	0
373.93	-0.04
374.137	0.05
374.344	0.08
374.552	0.01
374.759	0.01
374.966	0.03
375.173	-0.02
375.381	0.04
375.588	-0.04
375.795	-0.09
376.002	-0.01
376.209	-0.01
376.417	-0.04
376.624	-0.02
376.831	-0
377.038	-0
377.245	-0.1
377.452	-0.01
377.659	-0
377.866	-0.04
378.073	-0.02
378.28	-0.03
378.487	0.03
378.694	-0
378.901	-0
379.108	-0.01
379.315	-0
379.522	0.09
379.729	0.01
379.936	-0.03
380.143	0.01
380.35	-0.03
380.557	-0.02
380.763	-0
380.97	0.04
381.177	-0.02
381.384	0.03
381.591	-0.05
381.797	-0.03
382.004	0.01
382.211	0.03
382.418	-0.02
382.624	0.06
382.831	0.01
383.038	-0.01
383.244	-0.02
383.451	-0.04
383.658	0.02
383.864	-0.04
384.071	-0.05
384.277	0.08
384.484	-0.03
384.69	0
384.897	0.01
385.103	-0.02
385.31	-0.08
385.516	-0.02
385.723	-0.07
385.929	0.01
386.136	-0.03
386.342	0.01
386.549	-0.02
386.755	0.02
386.961	0.01
387.168	-0.04
387.374	-0.01
387.58	0.01
387.787	-0.01
387.993	0
388.199	-0
388.406	0.03
388.612	-0.01
388.818	-0.02
389.024	-0.01
389.231	-0.01
389.437	0.06
389.643	0.03
389.849	0.01
390.055	0.01
390.261	0.01
390.467	-0.06
390.674	-0.04
390.88	-0.01
391.086	0.02
391.292	-0.08
391.498	0.01
391.704	-0.01
391.91	0.01
392.116	-0.03
392.322	-0.08
392.528	0.06
392.734	0
392.94	0.02
393.146	-0.03
393.352	-0
393.557	-0.02
393.763	0
393.969	-0.01
394.175	-0.02
394.381	-0.01
394.587	-0.03
394.792	-0.03
394.998	0.05
395.204	0.07
395.41	-0.02
395.615	0.02
395.821	-0.01
396.027	0.02
396.233	-0.07
396.438	0.02
396.644	0.09
396.85	0.04
397.055	-0.04
397.261	0.04
397.466	0.07
397.672	-0.04
397.878	0.05
398.083	-0.01
398.289	-0.02
398.494	0.04
398.7	0.06
398.905	-0.07
399.111	0.07
399.316	-0.06
399.522	-0.02
399.727	-0.04
399.932	-0
400.138	0
400.343	0.02
400.549	-0.01
400.754	-0.04
400.959	0
401.165	0.01
401.37	0
401.575	0.09
401.78	-0.03
401.986	-0.01
402.191	0
402.396	-0.02
402.601	0.02
402.807	0
403.012	-0
403.217	0.05
403.422	0.02
403.627	-0.01
403.832	-0
404.037	0.03
404.243	-0.03
404.448	-0.03
404.653	-0.02
404.858	0.01
405.063	0.07
405.268	-0.02
405.473	-0.03
405.678	-0.04
405.883	0.13
406.088	0.01
406.293	-0.05
406.498	-0.05
406.703	0.02
406.907	-0.01
407.112	-0.05
407.317	-0.01
407.522	0.02
407.727	-0.03
407.932	-0.02
408.136	0.05
408.341	0.01
408.546	0.01
408.751	0.01
408.956	-0.05
409.16	0.03
409.365	-0.04
409.57	-0.02
409.774	-0.01
409.979	-0
410.184	-0.04
410.388	-0.09
410.593	0.05
410.798	-0
411.002	-0.03
411.207	0.01
411.411	0.01
411.616	-0.07
411.82	-0.06
412.025	0.03
412.229	-0.02
412.434	0.06
412.638	0.05
412.843	-0.03
413.047	-0.01
413.252	-0.02
413.456	-0.01
413.66	0.01
413.865	-0.05
414.069	0.04
414.273	-0.04
414.478	-0.05
414.682	-0.02
414.886	-0.05
415.091	-0.05
415.295	-0.07
415.499	0
415.703	0
415.908	0.01
416.112	-0.09
416.316	-0
416.52	-0.03
416.724	-0.1
416.929	-0.02
417.133	0.09
417.337	-0.01
417.541	-0.08
417.745	-0.04
417.949	-0.01
418.153	-0.02
418.357	-0.1
418.561	0.09
418.765	0
418.969	0.11
419.173	-0.02
419.377	-0.05
419.581	0.07
419.785	-0.03
419.989	-0.08
420.193	0.02
420.397	-0.06
420.601	0.06
420.804	0.04
421.008	-0.01
421.212	-0.03
421.416	0.04
421.62	-0.06
421.823	-0.04
422.027	0.11
422.231	0.04
422.435	0.02
422.638	0.01
422.842	-0
423.046	-0.03
423.249	0.02
423.453	0.03
423.657	-0.01
423.86	-0.01
424.064	0.01
424.268	0.08
424.471	0.01
424.675	0.1
424.878	0.08
425.082	-0
425.285	0.06
425.489	0.01
425.692	0
425.896	-0.05
426.099	0.01
426.303	-0.06
426.506	-0.08
426.71	0
426.913	0.04
427.116	0.1
427.32	-0.05
427.523	0
427.726	0.06
427.93	-0.05
428.133	-0.01
428.336	-0.03
428.54	-0.07
428.743	0.02
428.946	0.01
429.149	0.03
429.353	-0
429.556	-0.04
429.759	-0.01
429.962	-0.07
430.165	0.03
430.368	-0
430.571	-0.01
430.775	0.03
430.978	0.02
431.181	0.02
431.384	0
431.587	-0.02
431.79	0.01
431.993	-0.1
432.196	-0.02
432.399	-0.01
432.602	0.06
432.805	-0
433.008	0.01
433.211	-0.1
433.414	-0.02
433.616	0.01
433.819	0.06
434.022	-0.1
434.225	0.07
434.428	-0
434.631	0.05
434.833	0.02
435.036	-0.06
435.239	0.05
435.442	-0.01
435.645	-0.01
435.847	0.05
436.05	0.05
436.253	0
436.455	-0.02
436.658	-0.02
436.861	0.07
437.063	-0.03
437.266	0.01
437.468	0.06
437.671	0.17
437.874	-0.01
438.076	-0.06
438.279	-0.02
438.481	-0
438.684	-0.01
438.886	0.04
439.089	-0.07
439.291	0.01
439.494	0.03
439.696	-0.05
439.899	0.02
440.101	0.04
440.303	-0.05
440.506	0.03
440.708	0
440.91	0.04
441.113	-0.02
441.315	0.06
441.517	-0.03
441.72	0.06
441.922	-0.03
442.124	0.02
442.326	0.07
442.529	0.13
442.731	-0.03
442.933	0.08
443.135	-0.01
443.337	-0.04
443.539	0.03
443.742	-0.01
443.944	0.05
444.146	-0
444.348	0.02
444.55	-0
444.752	0.02
444.954	-0.01
445.156	0.03
445.358	0.04
445.56	0.06
445.762	-0.01
445.964	0.03
446.166	0.03
446.368	0.02
446.57	0.07
446.772	0.02
446.974	-0
447.175	0.02
447.377	0.01
447.579	0.02
447.781	-0.06
447.983	0.11
448.184	0.04
448.386	0.04
448.588	-0.04
448.79	0.05
448.991	-0.02
449.193	0.04
449.395	0.04
449.597	0.08
449.798	0.07
450	0.06
450.202	0.01
450.403	0.03
450.605	-0.01
450.806	0.05
451.008	-0.06
451.21	0.02
451.411	0.04
451.613	-0
451.814	0.03
452.016	0.1
452.217	0.05
452.419	0.06
452.62	0.01
452.821	0.02
453.023	0.06
453.224	0.08
453.426	0.02
453.627	0.06
453.828	0.07
454.03	-0.01
454.231	0.03
454.432	-0.03
454.634	0.11
454.835	-0.04
455.036	-0.04
455.238	0.01
455.439	0.12
455.64	-0.08
455.841	-0.03
456.042	0.17
456.244	0.01
456.445	-0.03
456.646	-0.06
456.847	0
457.048	0.1
457.249	0.07
457.45	0.25
457.651	-0.04
457.852	0.08
458.054	0.03
458.255	-0.01
458.456	0.07
458.657	0.06
458.858	-0.03
459.058	-0.01
459.259	0.07
459.46	0.04
459.661	-0.01
459.862	0.13
460.063	0.01
460.264	0.07
460.465	-0.03
460.666	0.06
460.866	-0.02
461.067	0.03
461.268	0.01
461.469	-0.03
461.67	-0.01
461.87	0.01
462.071	-0.02
462.272	-0.05
462.473	0.03
462.673	0.04
462.874	0
463.075	-0.02
463.275	-0.02
463.476	0.04
463.676	0
463.877	0
464.078	0.02
464.278	0.02
464.479	-0.03
464.679	0.01
464.88	0.02
465.08	0.09
465.281	-0.03
465.481	0
465.682	-0.02
465.882	0.07
466.083	0.04
466.283	-0.01
466.483	0
466.684	-0.03
466.884	-0.02
467.085	0.02
467.285	0.03
467.485	-0.01
467.686	0.02
467.886	-0.08
468.086	-0.02
468.286	0.01
468.487	0.01
468.687	-0.04
468.887	-0.03
469.087	0.04
469.287	-0.02
469.488	-0.06
469.688	0.02
469.888	0.02
470.088	0.03
470.288	0.04
470.488	0.04
470.688	-0.01
470.888	-0.03
471.088	-0.08
471.288	0.05
471.488	0.04
471.688	0.01
471.888	-0.01
472.088	0.05
472.288	0.02
472.488	-0.07
472.688	-0.04
472.888	-0.02
473.088	0.03
473.288	0.04
473.488	-0.04
473.688	0.09
473.887	0.04
474.087	-0.05
474.287	0.02
474.487	-0.06
474.687	0
474.886	-0.02
475.086	-0.03
475.286	0.01
475.486	-0
475.685	0.01
475.885	-0.01
476.085	-0.03
476.284	0.01
476.484	0
476.684	0
476.883	0.04
477.083	0.03
477.282	-0.02
477.482	0.05
477.681	0.07
477.881	-0.02
478.08	-0.03
478.28	-0.05
478.479	0.03
478.679	0.07
478.878	-0.02
479.078	-0.03
479.277	-0.02
479.477	-0.01
479.676	0.04
479.875	0.01
480.075	-0.08
480.274	0.02
480.473	0.03
480.673	-0.02
480.872	0.03
481.071	0.01
481.271	0
481.47	-0.04
481.669	0
481.868	0.02
482.067	-0.02
482.267	-0.04
482.466	-0.04
482.665	-0.01
482.864	-0.07
483.063	-0.06
483.262	0.03
483.461	0.05
483.661	0
483.86	-0.03
484.059	0.02
484.258	0.01
484.457	-0.01
484.656	-0.02
484.855	0.03
485.054	-0.06
485.253	-0.02
485.452	-0.04
485.651	-0.02
485.849	0.01
486.048	-0.05
486.247	-0.02
486.446	0
486.645	-0.06
486.844	-0.06
487.043	-0.02
487.241	0
487.44	-0.03
487.639	0.01
487.838	0.03
488.037	0
488.235	0.05
488.434	-0.01
488.633	-0.04
488.831	0.01
489.03	0.02
489.229	-0
489.427	-0.01
489.626	0.03
489.825	0.02
490.023	0
490.222	-0.02
490.42	-0.01
490.619	0.02
490.817	0
491.016	-0.03
491.214	0
491.413	-0.01
491.611	0
491.81	-0.01
492.008	0.02
492.207	0.01
492.405	0.02
492.604	-0.06
492.802	-0.01
493	0.02
493.199	-0.01
493.397	0
493.595	-0.01
493.794	0
493.992	0.05
494.19	-0.03
494.388	0.01
494.587	-0.03
494.785	-0
494.983	-0.02
495.181	-0
495.379	0.01
495.578	-0.02
495.776	0
495.974	0
496.172	0.01
496.37	-0.01
496.568	-0.03
496.766	-0.02
496.964	0.04
497.162	0
497.36	-0.03
497.558	0.02
497.756	0.01
497.954	-0.01
498.152	-0.03
498.35	0
498.548	-0.01
498.746	-0
498.944	-0.03
499.142	-0
499.34	-0.03
499.538	-0.02
499.736	-0.02
499.933	0.04
500.131	0.04
500.329	0.01
500.527	0.03
500.725	0.03
500.922	0.02
501.12	-0.01
501.318	-0
501.516	-0.02
501.713	0.03
501.911	0.02
502.109	-0.02
502.306	0
502.504	-0.01
502.701	-0.03
502.899	-0.03
503.097	0.03
503.294	0.02
503.492	-0.01
503.689	0.02
503.887	0.01
504.084	0.05
504.282	-0
504.479	-0.04
504.677	0.01
504.874	-0.03
505.072	-0.01
505.269	-0
505.466	0.01
505.664	0.01
505.861	-0.04
506.059	-0.01
506.256	0.01
506.453	-0.03
506.651	0.02
506.848	0.03
507.045	0
507.242	-0.01
507.44	-0.01
507.637	-0
507.834	-0.01
508.031	0.02
508.229	-0.04
508.426	0.01
508.623	0.04
508.82	-0.04
509.017	-0.03
509.214	-0.03
509.411	0.02
509.608	-0.03
509.805	-0.02
510.003	-0.02
510.2	-0.02
510.397	0
510.594	-0.01
510.791	-0.03
510.988	-0.01
511.184	0
511.381	0.01
511.578	-0.04
511.775	0.01
511.972	0
512.169	-0.02
512.366	-0.01
512.563	0
512.76	-0.03
512.956	-0.01
513.153	-0.03
513.35	-0
513.547	-0.01
513.744	-0.03
513.94	-0.03
514.137	0.01
514.334	0.01
514.53	-0.02
514.727	0.01
514.924	0.06
515.12	-0.02
515.317	-0.04
515.514	-0.02
515.71	-0.02
515.907	-0.02
516.103	0
516.3	0
516.497	0.02
516.693	0.01
516.89	-0.01
517.086	-0.03
517.283	0.01
517.479	0.01
517.676	-0.02
517.872	-0.01
518.068	-0.01
518.265	-0.01
518.461	-0.03
518.658	-0.03
518.854	0
519.05	-0.01
519.247	-0.03
519.443	0
519.639	-0.01
519.836	0.01
520.032	-0.01
520.228	0
520.424	0.05
520.621	0.01
520.817	0
521.013	-0.01
521.209	-0
521.405	0.03
521.601	0
521.798	-0
521.994	0.06
522.19	-0.02
522.386	-0.04
522.582	0
522.778	-0
522.974	-0.03
523.17	-0.01
523.366	-0.01
523.562	0.02
523.758	-0.01
523.954	-0.01
524.15	-0.02
524.346	0
524.542	-0
524.738	-0.04
524.934	-0.02
525.129	-0.03
525.325	0
525.521	-0.01
525.717	0.03
525.913	-0.02
526.109	-0
526.304	-0.01
526.5	0.01
526.696	0.03
526.892	0
527.087	-0.02
527.283	-0.01
527.479	0.01
527.674	-0.02
527.87	0
528.066	-0.02
528.261	0.04
528.457	0
528.653	-0.02
528.848	-0.01
529.044	0.01
529.239	-0
529.435	0.02
529.63	0.02
529.826	0.04
530.021	0.01
530.217	0.02
530.412	-0.01
530.608	-0.05
530.803	-0.01
530.999	-0.02
531.194	-0.05
531.389	-0
531.585	-0.05
531.78	-0.01
531.975	-0.03
532.171	0.01
532.366	-0.03
532.561	0
532.757	-0.02
532.952	-0.02
533.147	0.03
533.342	-0
533.538	-0.01
533.733	0.03
533.928	0.01
534.123	-0.03
534.318	-0.03
534.513	0
534.709	0.01
534.904	-0.03
535.099	-0.03
535.294	-0.02
535.489	0.01
535.684	-0.01
535.879	-0.04
536.074	-0.01
536.269	-0.04
536.464	-0
536.659	-0.01
536.854	-0.01
537.049	-0
537.244	0.01
537.439	-0.02
537.634	0.03
537.828	0.02
538.023	-0.02
538.218	-0.05
538.413	-0
538.608	-0.03
538.803	0.02
538.997	-0.05
539.192	0.03
539.387	0.01
539.582	-0.01
539.776	0.01
539.971	-0.03
540.166	0
540.36	-0.03
540.555	0
540.75	-0.02
540.944	0.01
541.139	-0.04
541.334	-0.01
541.528	-0.01
541.723	0.02
541.917	-0.02
542.112	-0.05
542.306	0.02
542.501	0
542.695	0.03
542.89	-0.01
543.084	-0
543.279	-0
543.473	-0.03
543.668	0
543.862	-0.02
544.056	0.01
544.251	-0
544.445	0.01
544.64	-0.02
544.834	-0.03
545.028	0
545.222	0.02
545.417	0.02
545.611	0
545.805	0
546	-0.03
546.194	-0.02
546.388	-0.02
546.582	0.01
546.776	-0.01
546.97	0.01
547.165	0.02
547.359	-0
547.553	-0.03
547.747	0.02
547.941	-0.01
548.135	-0.02
548.329	0.01
548.523	0.03
548.717	-0.02
548.911	-0.01
549.105	-0.01
549.299	0
549.493	0
549.687	0.02
549.881	0.02
550.075	-0.02
550.269	-0.03
550.463	0
550.657	-0
550.85	-0.02
551.044	-0.03
551.238	-0.01
551.432	-0.01
551.626	-0.03
551.82	-0.01
552.013	-0.01
552.207	-0.02
552.401	-0.02
552.594	-0.01
552.788	-0
552.982	-0
553.176	-0.02
553.369	0.02
553.563	0.01
553.756	-0.04
553.95	-0.02
554.144	0.01
554.337	0.02
554.531	-0.02
554.724	-0
554.918	-0.03
555.111	0.02
555.305	-0
555.498	0.03
555.692	0.03
555.885	-0.01
556.079	0
556.272	-0.02
556.466	0.02
556.659	0
556.852	-0.02
557.046	-0.03
557.239	0.03
557.432	-0.04
557.626	-0.05
557.819	0.01
558.012	0.01
558.206	0.01
558.399	-0.01
558.592	0.01
558.785	0
558.979	0.03
559.172	-0.01
559.365	0.03
559.558	0.02
559.751	0.01
559.944	-0
560.138	-0.03
560.331	-0.01
560.524	-0.01
560.717	-0.02
560.91	-0.02
561.103	0.01
561.296	-0.01
561.489	-0.03
561.682	-0.01
561.875	0.03
562.068	0.01
562.261	0
562.454	0.02
562.647	0
562.84	-0
563.032	-0.02
563.225	0.02
563.418	-0.01
563.611	-0.01
563.804	-0
563.997	-0.04
564.19	-0.05
564.382	0.01
564.575	-0.01
564.768	-0.01
564.961	-0.01
565.153	-0.02
565.346	0.02
565.539	0.04
565.731	0.02
565.924	-0
566.117	0.03
566.309	0
566.502	-0.01
566.695	-0.03
566.887	0.01
567.08	-0.03
567.272	-0.03
567.465	-0.05
567.657	-0.02
567.85	0.01
568.042	0.01
568.235	0.02
568.427	0
568.62	-0.01
568.812	0.03
569.005	-0.01
569.197	-0.06
569.389	0
569.582	0.02
569.774	-0.02
569.966	-0.05
570.159	-0.05
570.351	0
570.543	-0.03
570.736	-0.01
570.928	-0.04
571.12	-0.01
571.312	-0.02
571.505	-0.03
571.697	0.03
571.889	-0.04
572.081	-0.03
572.273	-0.02
572.465	0.02
572.658	0
572.85	0.02
573.042	-0.02
573.234	-0
573.426	0.04
573.618	-0.03
573.81	0.02
574.002	0.04
574.194	0.04
574.386	-0.04
574.578	-0.08
574.77	-0.03
574.962	-0.01
575.154	-0.03
575.346	-0.02
575.538	-0
575.729	-0.03
575.921	-0
576.113	-0.03
576.305	0.01
576.497	-0.01
576.689	-0.02
576.88	-0.02
577.072	0.03
577.264	-0
577.456	-0.01
577.647	-0.08
577.839	-0.02
578.031	0.01
578.223	-0.04
578.414	-0.05
578.606	0.01
578.798	0.03
578.989	-0.02
579.181	-0.01
579.372	-0.01
579.564	-0.02
579.755	-0
579.947	-0.01
580.139	0.02
580.33	-0.05
580.522	-0.03
580.713	-0.07
580.905	-0.02
581.096	0.01
581.287	0.01
581.479	-0.02
581.67	0.02
581.862	-0.01
582.053	-0.02
582.244	-0.05
582.436	-0.04
582.627	-0.02
582.818	-0.02
583.01	-0.05
583.201	0
583.392	0.04
583.583	0
583.775	-0.02
583.966	-0.02
584.157	-0.01
584.348	-0.04
584.54	-0.04
584.731	0.01
584.922	-0
585.113	-0.03
585.304	0.02
585.495	0.04
585.686	-0.01
585.877	0.02
586.068	-0
586.259	-0
586.45	-0
586.641	-0.03
586.832	-0.08
587.023	-0.01
587.214	-0.02
587.405	-0.01
587.596	-0.02
587.787	0.03
587.978	0.01
588.169	-0.03
588.36	-0.03
588.551	0.01
588.742	-0
588.932	-0.01
589.123	-0.01
589.314	0.03
589.505	0.04
589.696	0.01
589.886	-0.03
590.077	-0.03
590.268	0.01
590.458	-0.04
590.649	-0.03
590.84	0.03
591.03	-0
591.221	-0.06
591.412	-0.04
591.602	0.02
591.793	0.04
591.984	-0.03
592.174	-0.01
592.365	0.09
592.555	-0.02
592.746	0.02
592.936	-0
593.127	0.02
593.317	0.02
593.508	-0.02
593.698	-0.02
593.889	0.02
594.079	0.02
594.269	-0.02
594.46	-0.01
594.65	0.02
594.84	-0.01
595.031	-0.04
595.221	-0.02
595.411	-0.06
595.602	0.04
595.792	0.01
595.982	-0.01
596.172	0.05
596.363	0.01
596.553	-0
596.743	-0.03
596.933	-0.01
597.123	0.03
597.314	-0.05
597.504	-0.04
597.694	0.03
597.884	-0.01
598.074	-0.02
598.264	-0.03
598.454	0.02
598.644	0.01
598.834	-0.04
599.024	-0.06
599.214	0.01
599.404	0.02
599.594	-0
599.784	-0.02
599.974	0.05
600.164	0.02
600.354	-0.05
600.544	-0.06
600.734	0
600.924	0.04
601.114	-0.02
601.303	-0.03
601.493	-0.01
601.683	0
601.873	-0.02
602.063	-0.04
602.252	0.02
602.442	-0.09
602.632	-0.03
602.821	-0.04
603.011	0.01
603.201	-0
603.39	-0.07
603.58	-0.03
603.77	0.01
603.959	0.03
604.149	-0.03
604.339	-0.03
604.528	0.02
604.718	0.01
604.907	-0.01
605.097	-0.04
605.286	-0.04
605.476	0.02
605.665	-0.01
605.855	-0.02
606.044	0.04
606.234	0.02
606.423	0
606.612	-0.05
606.802	-0.01
606.991	0.02
607.181	-0.01
607.37	-0.04
607.559	0.01
607.749	-0.04
607.938	-0.02
608.127	-0.01
608.316	-0.03
608.506	0
608.695	-0.04
608.884	-0.06
609.073	0.01
609.263	0
609.452	0.01
609.641	-0.03
609.83	-0.02
610.019	-0
610.208	-0.04
610.397	0
610.586	0.02
610.775	-0.04
610.965	-0.03
611.154	0
611.343	0.01
611.532	-0.02
611.721	-0.05
611.91	-0.05
612.099	0.02
612.287	-0
612.476	-0.03
612.665	-0
612.854	-0.03
613.043	0.02
613.232	-0.01
613.421	-0.05
613.61	0
613.798	-0.04
613.987	0.01
614.176	-0.02
614.365	0.03
614.554	0.01
614.742	0.01
614.931	-0.03
615.12	0.05
615.309	-0.02
615.497	0.03
615.686	-0.02
615.875	-0.03
616.063	-0.01
616.252	-0.04
616.44	-0.01
616.629	-0.01
616.818	0.01
617.006	0.01
617.195	-0.03
617.383	0.01
617.572	-0.01
617.76	-0.02
617.949	-0.02
618.137	0.03
618.326	0.01
618.514	-0.04
618.703	-0.02
618.891	0.04
619.079	-0.05
619.268	0.03
619.456	-0.03
619.644	0.04
619.833	0
620.021	-0.04
620.209	-0.06
620.398	-0
620.586	0
620.774	0.02
620.962	-0.01
621.151	0.07
621.339	0.02
621.527	-0.02
621.715	-0.07
621.903	-0.05
622.092	-0.04
622.28	0.01
622.468	-0.02
622.656	-0.02
622.844	0.03
623.032	-0.04
623.22	-0.05
623.408	0.01
623.596	0.03
623.784	0.02
623.972	-0.05
624.16	-0.04
624.348	0.06
624.536	-0.03
624.724	-0.05
624.912	0.05
625.1	0.01
625.288	-0.02
625.476	-0.02
625.664	0
625.851	-0.04
626.039	-0.01
626.227	-0.01
626.415	-0.05
626.603	-0.07
626.79	-0.03
626.978	-0.01
627.166	0.01
627.354	-0.04
627.541	-0.04
627.729	-0.07
627.917	0.01
628.104	0.03
628.292	0.01
628.48	-0.03
628.667	-0.01
628.855	-0
629.042	-0.01
629.23	-0.03
629.418	0.01
629.605	-0.02
629.793	-0.03
629.98	-0.06
630.168	-0.01
630.355	-0.04
630.543	0.01
630.73	-0.04
630.917	0.03
631.105	0.07
631.292	-0.03
631.48	-0.01
631.667	0.04
631.854	-0.01
632.042	-0.05
632.229	-0.09
632.416	-0.01
632.604	-0.01
632.791	-0.05
632.978	0.03
633.165	0.04
633.353	0.07
633.54	0.02
633.727	-0.08
633.914	-0.04
634.101	-0.06
634.289	0.03
634.476	-0.05
634.663	-0.01
634.85	0.03
635.037	-0.05
635.224	-0.07
635.411	0.03
635.598	0.02
635.785	-0
635.972	-0.06
636.159	0.02
636.346	-0.07
636.533	-0.03
636.72	-0
636.907	-0.05
637.094	0.04
637.281	-0.03
637.468	0.01
637.655	-0.03
637.842	-0.01
638.029	-0.04
638.215	0.01
638.402	-0.03
638.589	-0.04
638.776	-0.02
638.963	-0.05
639.149	0.02
639.336	0.04
639.523	0
639.709	-0.01
639.896	-0.02
640.083	0.04
640.27	-0.03
640.456	-0.01
640.643	-0.01
640.829	-0.05
641.016	0.02
641.203	-0.03
641.389	0.01
641.576	-0
641.762	-0.03
641.949	-0.05
642.135	0.02
642.322	0
642.508	-0.07
642.695	-0.03
642.881	-0.03
643.068	-0.03
643.254	0
643.441	0.03
643.627	-0
643.813	-0.03
644	0.03
644.186	-0.07
644.372	0.03
644.559	0.01
644.745	-0.02
644.931	-0.02
645.118	-0.04
645.304	-0.02
645.49	-0.02
645.676	-0.03
645.862	0.01
646.049	0.04
646.235	-0.03
646.421	0.02
646.607	0.05
646.793	-0.03
646.979	-0.02
647.165	0
647.352	-0.01
647.538	0.05
647.724	-0.02
647.91	-0.01
648.096	0.02
648.282	0
648.468	-0.04
648.654	-0.03
648.84	0
649.026	-0.02
649.212	0.01
649.397	-0.06
649.583	-0.04
649.769	0.02
649.955	0.02
650.141	-0
650.327	0.04
650.513	-0.05
650.698	-0.01
650.884	-0.08
651.07	0.01
651.256	-0.01
651.442	-0.02
651.627	-0.03
651.813	-0.02
651.999	-0
652.184	-0
652.37	-0.03
652.556	-0.05
652.741	0.05
652.927	-0.07
653.113	-0.02
653.298	-0.01
653.484	0.01
653.669	-0.08
653.855	-0.01
654.04	0.02
654.226	-0.02
654.412	-0.03
654.597	-0.04
654.782	-0.01
654.968	0.05
655.153	0.03
655.339	-0.04
655.524	-0.08
655.71	0.01
655.895	-0.02
656.08	-0.01
656.266	0.03
656.451	-0.01
656.636	-0.04
656.822	-0.03
657.007	-0.07
657.192	-0.02
657.378	-0.06
657.563	-0.01
657.748	0.02
657.933	0.04
658.118	-0.03
658.304	-0.04
658.489	0.02
658.674	0.01
658.859	-0.05
659.044	0.04
659.229	0.01
659.414	-0.05
659.599	-0.02
659.785	-0.05
659.97	-0.05
660.155	0.01
660.34	-0.03
660.525	-0.02
660.71	-0.01
660.895	0.01
661.08	-0.04
661.264	-0.03
661.449	0.07
661.634	0.07
661.819	-0.01
662.004	0.01
662.189	-0.06
662.374	0
662.559	-0.04
662.743	-0.03
662.928	-0.01
663.113	-0.03
663.298	-0.07
663.483	-0.02
663.667	0.01
663.852	-0.08
664.037	0.04
664.221	-0.04
664.406	0.01
664.591	-0.02
664.775	0.02
664.96	-0.01
665.145	0.01
665.329	0.01
665.514	-0.06
665.698	-0.04
665.883	-0.09
666.068	0.08
666.252	-0.02
666.437	-0.04
666.621	-0
666.806	0.01
666.99	-0
667.174	-0.07
667.359	0.04
667.543	0
667.728	-0.04
667.912	-0.05
668.096	0.04
668.281	-0.02
668.465	-0.03
668.649	-0.03
668.834	-0.03
669.018	-0.02
669.202	-0.02
669.387	-0.07
669.571	0.06
669.755	-0.04
669.939	-0.03
670.124	-0.01
670.308	0.03
670.492	0.02
670.676	-0.01
670.86	-0.02
671.044	-0.05
671.228	0.04
671.413	-0.05
671.597	-0.04
671.781	-0.04
671.965	0
672.149	0
672.333	-0.03
672.517	-0.07
672.701	0.02
672.885	-0.03
673.069	-0.08
673.253	0.04
673.437	-0.02
673.621	-0.11
673.804	-0.01
673.988	0.02
674.172	0.02
674.356	-0.08
674.54	-0.02
674.724	0.14
674.908	-0.04
675.091	0.01
675.275	-0.03
675.459	0.01
675.643	0.05
675.826	0.01
676.01	-0
676.194	-0.03
676.377	0.02
676.561	-0.03
676.745	-0
676.928	0.04
677.112	0.06
677.296	-0.04
677.479	0
677.663	0.02
677.846	0.02
678.03	0
678.213	-0.05
678.397	0.02
678.58	-0.06
678.764	-0.07
678.947	-0.05
679.131	-0.03
679.314	0.06
679.498	-0.04
679.681	-0.03
679.865	-0.01
680.048	0.02
680.231	-0.02
680.415	-0.03
680.598	-0.04
680.781	-0.03
680.965	-0.04
681.148	0.05
681.331	-0.01
681.514	0.02
681.698	-0.06
681.881	-0.03
682.064	0.01
682.247	0.03
682.43	-0.09
682.614	-0.01
682.797	0.01
682.98	0.06
683.163	-0.08
683.346	0
683.529	-0.03
683.712	-0.08
683.895	0.01
684.078	-0.06
684.261	-0.02
684.444	0.03
684.627	0.02
684.81	-0.09
684.993	-0.06
685.176	-0.02
685.359	-0.08
685.542	-0.07
685.725	0.01
685.908	0
686.091	-0.04
686.274	0.03
686.457	0.05
686.639	-0.02
686.822	0.05
687.005	0
687.188	-0
687.371	0.08
687.553	-0.01
687.736	-0.01
687.919	0.12
688.102	0.08
688.284	-0.03
688.467	-0.04
688.65	-0.01
688.832	-0.07
689.015	-0.02
689.197	-0.1
689.38	0.07
689.563	0.05
689.745	-0.04
689.928	-0.1
690.11	-0.03
690.293	0.02
690.475	-0.08
690.658	0
690.84	-0.03
691.023	-0.01
691.205	-0.03
691.388	0.02
691.57	0.03
691.752	0.02
691.935	-0.09
692.117	-0.03
692.3	0.04
692.482	-0.02
692.664	0.03
692.847	-0.03
693.029	0.06
693.211	-0.03
693.393	0.01
693.576	-0.05
693.758	-0.01
693.94	-0.03
694.122	-0.05
694.304	-0.02
694.487	-0.04
694.669	0.06
694.851	-0.08
695.033	0.05
695.215	-0.02
695.397	-0.1
695.579	0.01
695.761	-0.04
695.943	-0.1
696.125	0.04
696.308	0.03
696.49	-0.08
696.671	0.08
696.853	-0
697.035	0.1
697.217	-0
697.399	0.01
697.581	-0.1
697.763	-0.01
697.945	-0.07
698.127	0
698.309	0.09
698.491	-0.01
698.672	0.02
698.854	0.07
699.036	0.09
699.218	-0.03
699.399	0.06
699.581	0.02
699.763	0.01
699.945	-0.1
700.126	-0.07
700.308	0.02
700.49	0.02
700.671	-0.1
700.853	-0.08
701.035	-0.07
701.216	0.02
701.398	-0.09
701.579	-0.03
701.761	0.03
701.943	0.01
702.124	-0.1
702.306	0.01
702.487	0.12
702.669	0.02
702.85	-0.03
703.031	-0.07
703.213	0.06
703.394	0.07
703.576	-0.04
703.757	0.1
703.938	0.03
704.12	0.2
704.301	0.02
704.483	-0.03
704.664	0.03
704.845	0.09
705.026	0.04
705.208	-0.02
705.389	0.04
705.57	0.06
705.751	-0.05
705.933	-0
706.114	0.08
706.295	-0.01
706.476	-0.1
706.657	0.08
706.838	0.02
707.02	0.06
707.201	-0.06
707.382	-0.06
707.563	0.05
707.744	-0.02
707.925	-0.07
708.106	-0.03
708.287	-0.02
708.468	0.12
708.649	-0.06
708.83	0.09
709.011	-0.02
709.192	0.03
709.373	-0.14
709.554	-0.02
709.734	0.02
709.915	0.01
710.096	0.03
710.277	-0.09
710.458	-0.02
710.639	0.05
710.819	-0.1
711	-0.03
711.181	0.03
711.362	0.05
711.542	-0.02
711.723	-0.03
711.904	0.04
712.085	0.05
712.265	0.02
712.446	-0.03
712.627	-0.05
712.807	-0
712.988	0.01
713.168	-0.14
713.349	0.02
713.53	-0.15
713.71	-0.03
713.891	-0.15
714.071	-0.03
714.252	-0.07
714.432	-0.09
714.613	-0.1
714.793	-0.04
714.974	0.05
715.154	0.09
715.334	0.01
715.515	0.08
715.695	-0.08
715.876	0
716.056	0.01
716.236	0.02
716.417	-0.03
716.597	-0.08
716.777	0.1
716.957	-0.06
717.138	-0.03
717.318	-0.08
717.498	-0.11
717.678	-0.01
717.859	-0.03
718.039	-0.08
718.219	-0.05
718.399	0.06
718.579	-0.09
718.759	-0.1
718.939	-0.01
719.12	0.04
719.3	0.03
719.48	-0.2
719.66	-0.1
719.84	0.1
720.02	0.05
720.2	-0.04
720.38	-0.07
720.56	0.05
720.74	-0.03
720.92	-0.02
721.1	0.04
721.279	0.07
721.459	0.02
721.639	-0.12
721.819	-0.06
721.999	-0.06
722.179	-0
722.359	-0.09
722.538	-0.05
722.718	-0.03
722.898	-0.1
723.078	-0.01
723.257	-0.06
723.437	-0.02
723.617	-0
723.797	-0.06
723.976	0.08
724.156	0.03
724.336	0.11
724.515	0.14
724.695	-0.13
724.874	-0.02
725.054	0.07
725.234	-0.02
725.413	0.07
725.593	-0.08
725.772	-0.08
725.952	-0.02
726.131	-0.11
726.311	0.06
726.49	-0
726.67	-0.12
726.849	-0.08
727.028	0.04
727.208	-0.09
727.387	-0.01
727.567	-0.05
727.746	-0.05
727.925	-0.03
728.105	-0.11
728.284	-0.08
728.463	-0.03
728.643	0.03
728.822	-0.15
729.001	-0.08
729.18	0.01
729.359	0.05
729.539	-0.07
729.718	-0.05
729.897	0.12
730.076	-0.1
730.255	-0.07
730.434	-0.03
730.614	0.13
730.793	0.05
730.972	-0.07
731.151	-0
731.33	0.06
731.509	0.1
731.688	-0.04
731.867	-0.05
732.046	-0.17
732.225	0.18
732.404	-0.02
732.583	-0.14
732.762	-0.03
732.941	-0.03
733.12	0.01
733.298	-0.05
733.477	0.1
733.656	-0.02
733.835	-0.04
734.014	0.09
734.193	-0.05
734.371	0.05
734.55	-0.04
734.729	-0.14
734.908	-0.02
735.086	0.06
735.265	0.05
735.444	-0.2
735.623	-0.14
735.801	-0.08
735.98	0.1
736.159	0
736.337	0.02
736.516	-0.01
736.694	0.04
736.873	-0.14
737.052	0.24
737.23	0.15
737.409	-0.11
737.587	0.15
737.766	-0.11
737.944	-0.07
738.123	0.02
738.301	0.05
738.479	-0.03
738.658	-0.02
738.836	-0.16
739.015	-0.02
739.193	0.1
739.371	-0.22
739.55	0.03
739.728	-0.1
739.906	0.16
740.085	0.09
740.263	-0.09
740.441	-0.16
740.62	0.14
740.798	-0.02
740.976	-0.11
741.154	-0.02
741.332	0.06
741.511	-0.06
741.689	0.08
741.867	0.01
742.045	0.12
742.223	0.04
742.401	-0.06
742.579	-0.06
742.757	0.08
742.935	-0.1
743.114	-0
743.292	-0.02
743.47	0.01
743.648	0.06
743.826	-0.2
744.004	0.08
744.181	0.02
744.359	-0.06
744.537	-0
744.715	-0.05
744.893	-0.01
745.071	0.06
745.249	-0.11
745.427	-0.01
745.605	0.12
745.782	-0.03
745.96	0.09
746.138	0.06
746.316	0.1
746.493	-0.04
746.671	0.04
746.849	-0.02
747.027	-0.02
747.204	-0.05
747.382	0.06
747.56	-0.11
747.737	-0.12
747.915	-0.05
748.093	-0.05
748.27	-0.13
748.448	-0.03
748.625	-0.1
748.803	-0.15
748.98	-0.02
749.158	0.03
749.335	0.06
749.513	-0.06
749.69	-0.04
749.868	-0.03
750.045	0.08
750.223	-0.08
750.4	-0.18
750.578	0.19
750.755	-0.01
750.932	-0.24
751.11	0.07
751.287	-0.15
751.464	0.12
751.642	-0.13
751.819	0.14
751.996	0.07
752.173	-0.08
752.351	-0.13
752.528	0.01
752.705	-0.09
752.882	-0.1
753.06	0.06
753.237	0.03
753.414	0.16
753.591	0.09
753.768	-0
753.945	-0.09
754.122	-0.03
754.299	0.14
754.476	-0.07
754.654	0.08
754.831	0.06
755.008	0.13
755.185	-0.07
755.362	-0.16
755.539	-0.02
755.716	-0.21
755.892	-0.03
756.069	-0.06
756.246	-0.09
756.423	-0.18
756.6	0.2
756.777	-0.06
756.954	0.21
757.131	-0.03
757.307	-0.12
757.484	-0.17
757.661	0.04
757.838	0.02
758.015	-0.12
758.191	0.05
758.368	0.01
758.545	0.19
758.721	-0.04
758.898	-0.08
759.075	0.01
759.251	0.14
759.428	0.01
759.605	-0.25
759.781	-0.08
759.958	0.08
760.134	0.04
760.311	-0.13
760.488	0.27
760.664	0.06
760.841	-0.04
761.017	-0.01
761.194	0.16
761.37	-0.01
761.547	0.04
761.723	0.02
761.899	0.14
762.076	0
762.252	-0.12
762.429	-0.05
762.605	0.04
762.781	0.03
762.958	0.07
763.134	-0.08
763.31	-0.16
763.486	0.2
763.663	-0.11
763.839	0.04
764.015	-0.17
764.191	-0.05
764.368	0.01
764.544	-0.2
764.72	0.05
764.896	0.12
765.072	0.04
765.248	-0.03
765.425	-0.03
765.601	0.05
765.777	-0.1
765.953	-0.21
766.129	-0.14
766.305	-0.16
766.481	-0.02
766.657	-0.03
766.833	0.26
767.009	-0.07
767.185	0.03
767.361	-0.03
767.537	-0.06
767.713	0.1
767.889	-0.16
768.065	0.02
768.24	-0.05
768.416	0.04
768.592	-0.05
768.768	-0.11
768.944	-0.01
769.12	-0.14
769.295	-0.14
769.471	-0.13
769.647	-0.14
769.823	-0.01
769.998	-0.12
770.174	-0.09
770.35	0.33
770.525	0.28
770.701	0.07
770.877	-0.2
771.052	-0.18
771.228	0.1
771.403	-0.06
771.579	0
771.755	0.33
771.93	0.04
772.106	-0.23
772.281	-0.31
772.457	0.06
772.632	0.04
772.808	-0.18
772.983	-0.15
773.159	-0.04
773.334	0.17
773.509	-0.04
773.685	-0.17
773.86	0.34
774.036	0.05
774.211	0.03
774.386	-0.15
774.562	-0.17
774.737	0.05
774.912	-0.04
775.087	0.02
775.263	-0.02
775.438	0.04
775.613	-0.21
775.788	-0.02
775.964	0.11
776.139	0.39
776.314	-0.24
776.489	0.04
776.664	0.03
776.839	-0.24
777.014	0.2
777.19	0.13
777.365	0.15
777.54	0.33
777.715	-0.01
777.89	-0.16
778.065	-0.04
778.24	-0.07
778.415	0.11
778.59	-0.26
778.765	-0.13
778.94	0.21
779.115	-0.15
779.289	-0.08
779.464	0.05
779.639	-0.05
779.814	-0.21
779.989	-0.21
780.164	0.2
780.339	-0.12
780.513	-0.09
780.688	-0.22
780.863	-0
781.038	0.11
781.212	-0.09
781.387	-0.07
781.562	0.31
781.737	-0.17
781.911	0.15
782.086	-0.12
782.261	-0.06
782.435	0.33
782.61	-0.01
782.784	-0.08
782.959	0.13
783.134	0.03
783.308	-0.44
783.483	-0.23
783.657	0.24
783.832	0.15
784.006	-0.48
784.181	0.03
784.355	0.22
784.53	-0.22
784.704	-0.3
784.878	0.23
785.053	-0.01
785.227	0.25
785.402	0.19
785.576	-0.28
785.75	0.02
785.925	0.02
786.099	-0.05
786.273	0.09
786.448	0.14
786.622	0.22
786.796	-0.16
786.97	-0.18
787.145	0.56
787.319	-0.19
787.493	-0.37
787.667	-0.39
787.841	0.1
788.015	0.08
788.19	-0.19
788.364	-0.06
788.538	0.24
788.712	0.09
788.886	-0.09
789.06	0.19
789.234	0.21
789.408	-0.21
789.582	-0.05
789.756	0.14
789.93	-0.19
790.104	-0.23
790.278	0.1
790.452	-0.33
790.626	0.13
790.8	-0.15
790.973	0.16
791.147	0.27
791.321	0.03
791.495	0.26
791.669	-0.01
791.843	0.23
792.016	0.03
792.19	0.23
792.364	-0.29
792.538	0.54
792.711	0.23
792.885	-0.07
793.059	-0.3
793.233	-0.47
793.406	0.05
793.58	-0.25
793.754	0.05
793.927	0.05
794.101	0.18
794.274	-0.17
794.448	0.2
794.622	-0.17
794.795	0.32
794.969	-0.35
795.142	0.34
795.316	-0.22
795.489	-0.24
795.663	0.4
795.836	0.02
796.009	-0.23
796.183	0.39
796.356	0.01
796.53	0.14
796.703	0.11
796.876	0.55
797.05	-0.01
797.223	0.07
797.396	0.06
797.57	0.13
797.743	0.41
797.916	0.21
798.09	-0.04
798.263	0.19
798.436	0.1
798.609	-0.07
798.782	-0.11
798.956	0.2
799.129	-0.17
799.302	-0.25
799.475	-0.36
799.648	-0.05
799.821	-0.13
799.994	-0.01
800.167	-0.51
800.34	-0.03
800.514	-0.07
800.687	-0.23
800.86	-0.21
801.033	0.16
801.206	0.01
801.379	-0.32
801.551	0.24
801.724	-0.08
801.897	0.48
802.07	-0.26
802.243	-0.52
802.416	-0.14
802.589	-0.25
802.762	0.24
802.935	-0.2
803.107	0.24
803.28	0.28
803.453	0.35
803.626	-0.51
803.798	-0.1
803.971	-0.24
804.144	0.22
804.317	-0.05
804.489	0.25
804.662	0.09
804.835	0.25
805.007	-0.14
805.18	0.46
805.353	-0.03
805.525	-0.18
805.698	-0.09
805.87	0.24
806.043	0.24
806.215	-0.52
806.388	-0.12
806.56	0
806.733	0.07
806.905	0.19
807.078	-0.19
807.25	-0.29
807.423	0.22
807.595	0.11
807.768	0.14
807.94	0.34
808.112	0.01
808.285	-0.27
808.457	-0.3
808.629	-0.04
808.802	0.43
808.974	0.08
809.146	-0.44
809.318	-0.45
809.491	0.1
809.663	0.36
809.835	-0.05
810.007	0.42
810.18	-0.05
810.352	-0.48
810.524	-0.07
810.696	0.1
810.868	0.66
811.04	-0.04
811.212	-0.23
811.384	0.09
811.556	0.34
811.728	-0.29
811.901	0.6
812.073	0.06
812.245	0.2
812.417	0.25
812.589	-0.38
812.76	0.03
812.932	0.26
813.104	0.45
813.276	0.22
813.448	0.44
813.62	0.2
813.792	-0.11
813.964	0.05
814.136	0.2
814.307	-0.36
814.479	-0.48
814.651	0.13
814.823	0.51
814.995	-0.3
815.166	0.31
815.338	0.05
815.51	-0.74
815.681	0.69
815.853	0.28
816.025	-0.12
816.196	0.6
816.368	0.61
816.54	-0.76
816.711	-0.45
816.883	0.05
817.054	1
817.226	-0.84
817.398	0.43
817.569	-0.17
817.741	0.06
817.912	-0.26
818.084	0.03
818.255	-0.2
818.426	-0.36
818.598	0.01
818.769	0.02
818.941	0.21
819.112	0.54
819.283	0.12
819.455	-0.41
819.626	0.02
819.798	0.17
819.969	-0.23
820.14	-0.19
820.311	0.02
820.483	0.32
820.654	0.04
820.825	-0.29
820.996	0.21
821.168	-0.39
821.339	0.26
821.51	-0.74
821.681	-0.45
821.852	0.11
822.023	-0.41
822.195	-0.49
822.366	0.64
822.537	-0.06
822.708	0.12
822.879	-0.46
823.05	0.41
823.221	-0.65
823.392	0.08
823.563	-0.12
823.734	-0.25
823.905	-0.21
824.076	-0.13
824.247	-0.73
824.418	0.06
824.589	0.38
824.759	-0.03
824.93	-0.37
825.101	-1.06
825.272	1.21
825.443	0.04
825.614	0.24
825.784	-0.73
825.955	0.7
826.126	0.55
826.297	0.09
826.467	0.8
826.638	0.97
826.809	-0.61
826.98	0.39
827.15	0.04
827.321	0.08
827.492	1
827.662	-0.24
827.833	0.95
828.003	0.66
828.174	-0.44
828.345	-0.61
828.515	0.79
828.686	0.15
828.856	-0.37
829.027	-0.3
829.197	0.25
829.368	0.52
829.538	-0.23
829.709	-0.01
829.879	0.36
830.049	-0.09
830.22	-0.19
830.39	0.05
830.56	0.43
830.731	-0.17
830.901	-0.4
831.072	-0.12
831.242	-0.03
831.412	-0.03
831.582	-0.14
831.753	-0.92
831.923	0.27
832.093	-0.18
832.263	-0.7
832.434	-0.54
832.604	-0.28
832.774	0.6
832.944	-0.64
833.114	-0.33
833.284	0.52
833.454	-0.27
833.624	-0.49
833.795	-0.46
833.965	0.69
834.135	0.79
834.305	-1.18
834.475	-0.92
834.645	-0.08
834.815	-0.43
834.985	-0.22
835.155	-0.14
835.325	0.21
835.494	0.34
835.664	-0.14
835.834	-1.17
836.004	0.34
836.174	-0.44
836.344	0.25
836.514	-0.55
836.684	-0.67
836.853	0.29
837.023	0.55
837.193	-0.52
837.363	0.27
837.532	0.29
837.702	0.06
837.872	-1.01
838.041	0.25
838.211	0.89
838.381	-0.89
838.55	0.33
838.72	2.26
838.89	0.69
839.059	0.01
839.229	-0.43
839.398	0.96
839.568	0.54
839.738	-0.55
839.907	0.81
840.077	0.81
840.246	-0.35
840.416	0.14
840.585	-1.33
840.755	1.13
840.924	1.04
841.093	-1.11
841.263	-0.24
841.432	0.54
841.602	-0.76
841.771	-0.4
841.94	0.26
842.11	1.92
842.279	1.09
842.448	-1.17
842.617	-0.94
842.787	1.17
842.956	-1.5
843.125	-0.12
843.294	0.33
843.464	0.68
843.633	0.23
843.802	-1.05
843.971	-0.46
844.14	0.76
844.309	0.24
844.479	-0.79
844.648	-0.44
844.817	0.54
844.986	-0.09
845.155	-0.26
845.324	-0.59
845.493	-0.21
845.662	-0.58
845.831	0.56
846	-0.84
846.169	-0.23
846.338	1.59
846.507	-0.06
846.676	0.79
846.844	-0.69
847.013	1.09
847.182	-0.77
847.351	-0.13
847.52	0.35
847.689	0.19
847.858	-0.79
848.026	-1.08
848.195	-0.36
848.364	0.8
848.533	-1
848.701	-0.33
848.87	0.23
849.039	1.55
849.207	1.33
849.376	0.31
849.545	1.6
849.713	-0.73
849.882	0.54
850.051	-0.42
850.219	0.1
850.388	0.86
850.556	-1.3
850.725	-1.13
850.893	-0.15
851.062	-0.11
851.23	0.7
851.399	-1.09
851.567	0.35
851.736	0.46
851.904	-0.71
852.073	-0.24
852.241	1.36
852.41	0.11
852.578	-0.51
852.746	-0.54
852.915	0.91
853.083	0.11
853.251	-0.53
853.42	0.1
853.588	-0.62
853.756	0.27
853.924	-0.38
854.093	0.06
854.261	-1.26
854.429	-1.62
854.597	0.23
854.765	-0.99
854.934	-0.01
855.102	1.11
855.27	-0.4
855.438	0.38
855.606	0.84
855.774	1.68
855.942	-1.95
856.11	-3.46
856.278	0.25
856.446	0.28
856.614	-0.67
856.782	-1.23
856.95	1.39
857.118	0.33
857.286	-0.78
857.454	-1.18
857.622	0.76
857.79	1.94
857.958	-0.73
858.126	-0.07
858.294	-1.92
858.462	-0.86
858.629	-1.48
858.797	-0.58
858.965	-0.01
859.133	0.72
859.301	0.91
859.468	-0.13
859.636	0.15
859.804	1.63
859.971	0.96
860.139	0.11
860.307	0.2
860.474	1.32
860.642	-0.53
860.81	0.84
860.977	-0.38
861.145	0.99
861.313	0.17
861.48	-0.14
861.648	1.55
861.815	0.4
861.983	-1.88
862.15	-1
862.318	0.02
862.485	1.02
862.653	-1.66
862.82	-0.72
862.988	2.32
863.155	1.04
863.322	-1.39
863.49	-1.08
863.657	-0.25
863.824	1.63
863.992	0.6
864.159	0.55
864.326	1.06
864.494	-0.59
864.661	2.56
864.828	-0.55
864.996	1.18
865.163	1.36
865.33	-1.43
865.497	-2.07
865.664	-1.43
865.832	-1.25
865.999	-0.45
866.166	-1.41
866.333	-0.55
866.5	-0.49
866.667	-0.97
866.834	-1.96
867.001	1.14
867.168	-1.41
867.335	-0.81
867.502	-1.67
867.669	0.69
867.836	1.56
868.003	-1.02
868.17	0.35
868.337	-0.1
868.504	2.22
868.671	-1.72
868.838	-1.06
869.005	-0.46
869.172	0.85
869.339	-0.64
869.505	-1.3
869.672	0.21
869.839	2.98
870.006	0.27
870.173	-2.28
870.339	1.02
870.506	3.72
870.673	-0.09
870.84	-0.39
871.006	-0.36
871.173	0.64
871.34	0.39
871.506	-1.52
871.673	0.25
871.839	-0.19
872.006	-0.34
872.173	-1.75
872.339	0.86
872.506	1.43
872.672	-0.69
872.839	-2.21
873.005	1.71
873.172	4.07
873.338	1.94
873.505	0.02
873.671	2.48
873.838	1.31
874.004	-2.34
874.171	-2.06
874.337	-0.23
874.503	1.31
874.67	0.13
874.836	-0.77
875.002	2.08
875.169	1.55
875.335	-0.1
875.501	-0.4
875.668	1.5
875.834	-0.05
876	-0.15
876.166	-0.92
876.332	0.33
876.499	3.91
876.665	-0.45
876.831	-0.45
876.997	4.47
877.163	2.58
877.329	-0.4
877.495	-0.21
877.662	1.62
877.828	1.16
877.994	-0.95
878.16	-1.97
878.326	0.21
878.492	0.42
878.658	0.73
878.824	-0.16
878.99	0.27
879.156	-2.56
879.322	2.01
879.487	-0.81
879.653	0.29
879.819	-0.25
879.985	0.31
880.151	0.19
880.317	0.83
880.483	0.12
880.648	1.82
880.814	-2.79
880.98	0.61
881.146	-3.16
881.312	0.78
881.477	-1.53
881.643	-0.05
881.809	1.4
881.974	0.82
882.14	-2.87
882.306	0.14
882.471	3.79
882.637	-1.55
882.803	0.61
882.968	1.93
883.134	3.47
883.299	-0.33
883.465	0.68
883.63	1.03
883.796	1.31
883.961	2.32
884.127	0.51
884.292	-3.22
884.458	-2.3
884.623	-2.3
