Data from Apollo_Calib_20240827__AbsoluteIrradiance__223__02-52-02-156.txt Node

Date: Wed Aug 28 02:52:02 BST 2024
User: biology
Spectrometer: FLMT08252
Trigger mode: 0
Integration Time (sec): 5.000000E-1
Scans to average: 5
Electric dark correction enabled: true
Nonlinearity correction enabled: false
Boxcar width: 0
XAxis mode: Wavelengths
Number of Pixels in Spectrum: 3648
>>>>>Begin Spectral Data<<<<<
179.588	-0
179.809	-0
180.03	-0
180.251	-0
180.473	-0
180.694	0
180.915	0
181.136	-0
181.357	0
181.578	-0
181.799	0
182.02	-0
182.241	-0
182.462	-0
182.683	0
182.904	-0
183.125	0
183.346	0
183.567	-0
183.788	-0
184.009	-0
184.23	0
184.451	0
184.672	-0
184.892	-0
185.113	-0
185.334	0
185.555	-0
185.776	-0
185.996	0
186.217	0
186.438	-0
186.659	-0
186.879	-0
187.1	-0
187.321	-0
187.541	-0
187.762	-0
187.983	0
188.203	-0
188.424	-0
188.644	-0
188.865	-0
189.086	-0
189.306	-0
189.527	-0
189.747	-0
189.968	-0
190.188	-0
190.409	0
190.629	0
190.849	-0
191.07	-0
191.29	0
191.511	-0
191.731	-0
191.951	-0
192.172	-0
192.392	-0
192.612	-0
192.833	-0
193.053	0
193.273	0
193.493	-0
193.714	0
193.934	0
194.154	0
194.374	0
194.594	-0
194.815	-0
195.035	-0
195.255	-0
195.475	-0
195.695	0
195.915	0
196.135	-0
196.355	0
196.575	0
196.795	0
197.015	-0
197.235	-0
197.455	-0
197.675	0
197.895	-0
198.115	-0
198.335	0
198.555	-0
198.775	0
198.995	0
199.214	0
199.434	-0
199.654	-0
199.874	-0
200.094	0.7
200.313	-0.3
200.533	-0.7
200.753	-0.78
200.973	0.16
201.192	0.35
201.412	-1.22
201.632	-0.55
201.851	0.9
202.071	-0.57
202.291	-0.23
202.51	-0.79
202.73	0.46
202.95	-0.75
203.169	-0.89
203.389	-0.42
203.608	-0.2
203.828	-0.68
204.047	-0.67
204.267	0.31
204.486	0.04
204.706	0.21
204.925	-0.39
205.145	-0.6
205.364	0.2
205.583	0.66
205.803	-0.33
206.022	-0.57
206.242	-0.31
206.461	-0.2
206.68	-0.71
206.9	-0.03
207.119	0.28
207.338	0.02
207.557	-0.39
207.777	-0.48
207.996	-0.35
208.215	0.41
208.434	-0.5
208.654	-0.41
208.873	0.14
209.092	0.28
209.311	-0.18
209.53	-0.1
209.749	-0.25
209.968	-0.29
210.187	-0.28
210.407	-0.72
210.626	-0.34
210.845	0.13
211.064	-0.13
211.283	-0.37
211.502	0.18
211.721	0.07
211.94	-0.34
212.159	0.03
212.377	0.14
212.596	0.18
212.815	-0.13
213.034	-0.16
213.253	0.13
213.472	0.19
213.691	-0.26
213.91	-0.24
214.128	-0.23
214.347	0.22
214.566	-0.66
214.785	-0.45
215.003	0.19
215.222	0.01
215.441	-0.05
215.66	-0.5
215.878	-0.2
216.097	0.16
216.316	-0.29
216.534	-0.06
216.753	0.07
216.972	-0.04
217.19	-0.19
217.409	-0.19
217.627	-0.28
217.846	-0.13
218.064	-0.14
218.283	-0.22
218.501	0.24
218.72	0.18
218.938	-0.21
219.157	-0.24
219.375	0.14
219.594	-0.29
219.812	-0.39
220.031	-0.2
220.249	0.3
220.467	0.2
220.686	-0.23
220.904	-0.24
221.122	-0.05
221.341	0.22
221.559	0.03
221.777	-0.4
221.995	-0.01
222.214	0.05
222.432	-0.13
222.65	0.08
222.868	-0.2
223.086	-0.04
223.305	0.22
223.523	-0.01
223.741	0.17
223.959	-0.22
224.177	-0.32
224.395	-0.19
224.613	0.02
224.831	0.15
225.049	-0.26
225.267	-0.13
225.485	-0.14
225.703	-0.04
225.921	0.09
226.139	-0.15
226.357	-0.03
226.575	0
226.793	-0.24
227.011	0.56
227.229	0.06
227.447	0.08
227.665	-0.12
227.883	-0.31
228.1	-0.07
228.318	0.04
228.536	-0.36
228.754	-0.23
228.972	0.06
229.189	0.01
229.407	-0.08
229.625	0.01
229.843	0.12
230.06	0
230.278	-0.11
230.496	-0.09
230.713	-0
230.931	0.13
231.149	-0.16
231.366	-0.23
231.584	-0.06
231.801	0.35
232.019	-0.2
232.236	-0.22
232.454	-0.21
232.671	-0.04
232.889	-0.12
233.106	-0.25
233.324	-0.03
233.541	-0.06
233.759	0.01
233.976	-0.22
234.194	0.01
234.411	-0.12
234.628	-0.2
234.846	-0.05
235.063	-0.03
235.28	-0.07
235.498	-0.02
235.715	-0.16
235.932	0.09
236.149	-0.04
236.367	-0.14
236.584	-0.02
236.801	-0.12
237.018	0.05
237.236	-0.05
237.453	-0.32
237.67	0.06
237.887	-0
238.104	-0.14
238.321	-0.12
238.538	-0.13
238.755	0.06
238.973	-0.31
239.19	-0.03
239.407	0.05
239.624	-0.04
239.841	-0.23
240.058	-0.19
240.275	-0
240.492	-0.09
240.709	-0.09
240.925	-0.12
241.142	-0.02
241.359	-0.13
241.576	-0.1
241.793	-0.1
242.01	-0.02
242.227	0.09
242.444	-0.03
242.66	0.05
242.877	0.02
243.094	-0.08
243.311	-0.06
243.527	-0.06
243.744	0.09
243.961	0.03
244.178	-0.16
244.394	-0.06
244.611	0.03
244.828	0.15
245.044	-0.08
245.261	-0.07
245.477	0.01
245.694	-0.06
245.911	-0.12
246.127	-0.02
246.344	0.2
246.56	0.07
246.777	-0.09
246.993	-0.04
247.21	-0
247.426	0.01
247.643	-0.08
247.859	-0.11
248.076	-0.15
248.292	0.1
248.508	-0.1
248.725	0.02
248.941	-0
249.157	0.07
249.374	-0.13
249.59	-0.11
249.806	0.05
250.023	0.15
250.239	-0.12
250.455	-0.1
250.671	0.03
250.888	0.07
251.104	0.02
251.32	-0.09
251.536	-0.05
251.752	0.01
251.969	-0.02
252.185	0.05
252.401	0.12
252.617	-0.14
252.833	-0.01
253.049	-0.03
253.265	0.04
253.481	0.05
253.697	-0.09
253.913	-0.11
254.129	0.06
254.345	-0.08
254.561	-0.05
254.777	-0.11
254.993	0.04
255.209	0.05
255.425	-0.07
255.641	-0.07
255.857	0.12
256.073	0.05
256.288	-0.11
256.504	-0.04
256.72	-0.04
256.936	0.11
257.152	-0.02
257.367	-0.12
257.583	0.04
257.799	-0
258.015	-0.12
258.23	-0.03
258.446	0.14
258.662	0.01
258.877	-0.07
259.093	-0.1
259.309	-0.01
259.524	0.01
259.74	-0.11
259.955	-0.17
260.171	-0.04
260.387	-0.04
260.602	0.06
260.818	0.06
261.033	-0.13
261.249	-0.05
261.464	-0.12
261.68	-0.11
261.895	0.06
262.11	0.03
262.326	-0.09
262.541	-0.11
262.757	0.04
262.972	0
263.187	-0.02
263.403	0
263.618	-0.01
263.833	-0.08
264.049	-0.09
264.264	-0.06
264.479	0.01
264.694	0.02
264.91	-0.11
265.125	-0.02
265.34	0.06
265.555	0.12
265.77	0.01
265.986	-0.07
266.201	-0.01
266.416	0.09
266.631	-0.09
266.846	-0.04
267.061	-0.01
267.276	0.03
267.491	-0.13
267.706	0.01
267.921	0.04
268.136	0
268.351	0.01
268.566	-0.09
268.781	0.04
268.996	0.01
269.211	-0.06
269.426	-0.1
269.641	-0.06
269.856	-0.01
270.071	-0.12
270.285	-0.13
270.5	0.02
270.715	0.05
270.93	0
271.145	-0.07
271.359	0.06
271.574	-0.05
271.789	-0.04
272.004	-0.06
272.218	0
272.433	0.01
272.648	-0.1
272.862	0
273.077	0.02
273.292	-0.04
273.506	-0.07
273.721	-0.09
273.936	0.01
274.15	0.02
274.365	-0.06
274.579	0.01
274.794	0.03
275.008	0.1
275.223	-0.1
275.437	-0.03
275.652	0
275.866	0.09
276.081	0
276.295	0.03
276.509	-0.02
276.724	0.05
276.938	-0.06
277.153	0
277.367	0.1
277.581	-0.08
277.796	-0.07
278.01	-0.12
278.224	0.02
278.438	0.06
278.653	-0.03
278.867	-0.04
279.081	-0.2
279.295	-0.03
279.51	0.03
279.724	-0.11
279.938	0.08
280.152	0.02
280.366	-0.08
280.58	0.02
280.794	0.05
281.008	0.03
281.222	0.02
281.437	0.07
281.651	-0.03
281.865	0.05
282.079	-0.08
282.293	-0.12
282.507	-0.07
282.721	-0.01
282.935	-0.04
283.148	-0.05
283.362	-0.09
283.576	-0.13
283.79	-0.04
284.004	-0.05
284.218	0.04
284.432	-0.03
284.646	0.01
284.859	-0.04
285.073	-0.06
285.287	0.05
285.501	-0.03
285.714	-0.04
285.928	0.06
286.142	-0
286.356	-0.06
286.569	0.02
286.783	0.06
286.997	0.06
287.21	0
287.424	-0.07
287.637	-0.06
287.851	-0.03
288.065	0.06
288.278	-0.01
288.492	-0.01
288.705	-0.03
288.919	0.02
289.132	-0.08
289.346	0.04
289.559	-0.1
289.773	-0.15
289.986	-0.05
290.2	-0.05
290.413	0.05
290.626	-0.08
290.84	0
291.053	-0.01
291.267	0.1
291.48	-0.05
291.693	0.01
291.906	-0.05
292.12	-0.02
292.333	-0.07
292.546	0
292.76	0.07
292.973	0.02
293.186	0.04
293.399	-0.05
293.612	0.01
293.826	0
294.039	-0.01
294.252	-0.03
294.465	0.02
294.678	-0.03
294.891	0.01
295.104	-0.1
295.317	-0.05
295.53	0.03
295.743	0.01
295.956	0.02
296.169	0.05
296.382	0.04
296.595	-0.02
296.808	-0.05
297.021	0.07
297.234	0.04
297.447	-0.02
297.66	-0.03
297.873	0.07
298.086	0.04
298.299	-0.06
298.511	-0.09
298.724	-0.05
298.937	-0.05
299.15	-0.05
299.363	-0.04
299.575	0.01
299.788	0.05
300.001	-0.05
300.213	-0.08
300.426	-0.06
300.639	-0.03
300.852	-0.06
301.064	0
301.277	0.03
301.489	0.02
301.702	0.02
301.915	0.01
302.127	-0.01
302.34	0.04
302.552	-0.01
302.765	-0.06
302.977	-0
303.19	-0.02
303.402	-0.02
303.615	-0.03
303.827	-0
304.04	-0.03
304.252	-0
304.464	-0.05
304.677	0.11
304.889	-0
305.102	-0.04
305.314	-0.02
305.526	0.01
305.739	0.05
305.951	-0.02
306.163	-0.02
306.375	0.05
306.588	-0.04
306.8	-0.08
307.012	-0.03
307.224	-0.02
307.436	0.05
307.649	-0.11
307.861	0.01
308.073	0.08
308.285	-0.02
308.497	-0.07
308.709	-0.05
308.921	0
309.133	0.02
309.346	-0.05
309.558	-0.04
309.77	0.05
309.982	0.07
310.194	0
310.406	-0.04
310.617	0.08
310.829	0.01
311.041	0.04
311.253	-0.07
311.465	-0.01
311.677	-0.03
311.889	-0.04
312.101	-0.08
312.313	0.05
312.524	0.01
312.736	-0.06
312.948	-0.01
313.16	0.04
313.372	0.03
313.583	0
313.795	-0.04
314.007	-0.03
314.218	0.06
314.43	-0.01
314.642	-0.05
314.853	-0.05
315.065	0.02
315.277	-0.03
315.488	-0.01
315.7	0
315.912	0.01
316.123	-0.05
316.335	-0.04
316.546	0.12
316.758	-0.01
316.969	-0.05
317.181	0.03
317.392	-0.01
317.604	0.01
317.815	-0.04
318.026	-0.05
318.238	-0.04
318.449	0.02
318.661	-0.11
318.872	-0.08
319.083	-0.08
319.295	0.04
319.506	-0.02
319.717	0
319.929	0
320.14	-0.01
320.351	-0
320.562	-0.07
320.774	0.01
320.985	-0.01
321.196	-0.05
321.407	-0.1
321.618	0.01
321.829	0
322.041	-0.02
322.252	-0.02
322.463	-0.01
322.674	-0.02
322.885	-0.05
323.096	-0.03
323.307	0.01
323.518	0.02
323.729	-0.01
323.94	0.01
324.151	-0.02
324.362	0.02
324.573	0.05
324.784	-0.07
324.995	0.02
325.206	-0.04
325.417	-0.03
325.628	-0.02
325.838	-0.02
326.049	0.02
326.26	0.02
326.471	-0.01
326.682	-0.01
326.892	-0.02
327.103	-0.07
327.314	-0.03
327.525	0.03
327.735	-0
327.946	-0.04
328.157	-0.06
328.368	0.02
328.578	-0.05
328.789	0.02
328.999	-0.03
329.21	-0.03
329.421	0.01
329.631	-0.01
329.842	-0.06
330.052	0
330.263	0.04
330.473	0.04
330.684	-0.01
330.894	-0.03
331.105	-0.01
331.315	-0.03
331.526	-0.08
331.736	0.08
331.947	0.01
332.157	-0.02
332.367	-0.08
332.578	0.02
332.788	0.03
332.999	0.05
333.209	-0.02
333.419	-0.08
333.629	0.02
333.84	0.01
334.05	-0.01
334.26	0.07
334.47	-0.04
334.681	-0
334.891	-0.03
335.101	0.03
335.311	0.06
335.521	-0
335.732	-0.06
335.942	0.06
336.152	0.03
336.362	-0.04
336.572	-0.02
336.782	0.02
336.992	-0.01
337.202	-0.01
337.412	-0.06
337.622	-0.01
337.832	-0.01
338.042	0.01
338.252	-0.07
338.462	-0.02
338.672	-0.03
338.882	-0.02
339.092	-0.03
339.302	0.07
339.511	0
339.721	-0.04
339.931	-0.04
340.141	0.07
340.351	0.04
340.561	-0.03
340.77	0.02
340.98	0.01
341.19	0.01
341.4	-0.05
341.609	-0.1
341.819	-0
342.029	-0.05
342.238	0.03
342.448	-0.02
342.658	0.03
342.867	-0
343.077	0.01
343.286	-0
343.496	0.05
343.706	0.04
343.915	-0.05
344.125	-0.02
344.334	0
344.544	-0.08
344.753	-0.01
344.963	-0.07
345.172	-0.05
345.381	-0.04
345.591	-0.04
345.8	0
346.01	0.03
346.219	0.03
346.428	-0.13
346.638	-0.02
346.847	-0.02
347.056	0.03
347.266	-0.05
347.475	0.01
347.684	0.03
347.893	0.02
348.103	-0.02
348.312	-0.04
348.521	0.01
348.73	0.02
348.94	-0.03
349.149	-0.03
349.358	-0.05
349.567	-0.03
349.776	-0.08
349.985	-0.06
350.194	0.02
350.403	0.04
350.612	-0.05
350.821	-0.01
351.03	-0.01
351.239	-0.05
351.448	-0.01
351.657	-0.07
351.866	0.06
352.075	-0.01
352.284	0.01
352.493	-0.02
352.702	0.05
352.911	0.07
353.12	-0.02
353.329	-0.01
353.538	0
353.746	-0.01
353.955	-0.08
354.164	0.01
354.373	-0.02
354.582	0.01
354.79	-0.02
354.999	0.05
355.208	-0.01
355.416	0.06
355.625	-0.02
355.834	-0.02
356.042	0.02
356.251	-0.05
356.46	-0.06
356.668	-0.01
356.877	0.09
357.085	0.02
357.294	-0.02
357.503	0.02
357.711	-0.02
357.92	0.07
358.128	0.01
358.337	-0.02
358.545	0.01
358.754	-0.02
358.962	0.02
359.17	-0.02
359.379	-0.01
359.587	0.01
359.796	-0.04
360.004	0.04
360.212	0.02
360.421	0.02
360.629	-0.02
360.837	-0.04
361.046	0.05
361.254	0.11
361.462	-0.01
361.67	-0.06
361.879	0.03
362.087	0.03
362.295	-0
362.503	-0.02
362.711	-0.06
362.92	-0.06
363.128	-0.04
363.336	-0.04
363.544	-0.07
363.752	-0.02
363.96	-0.02
364.168	-0.05
364.376	0.03
364.584	0.02
364.792	0.02
365	-0.01
365.208	-0.01
365.416	-0
365.624	0.04
365.832	-0.04
366.04	0.05
366.248	-0.01
366.456	0.01
366.664	-0.03
366.872	-0.03
367.079	-0.03
367.287	-0.01
367.495	0
367.703	0.01
367.911	-0.04
368.118	-0.01
368.326	-0.02
368.534	-0.05
368.742	0.02
368.949	-0.06
369.157	-0.04
369.365	0.04
369.572	-0.02
369.78	-0.01
369.988	0.01
370.195	-0.01
370.403	0.05
370.61	-0.03
370.818	-0.02
371.026	0.08
371.233	-0.02
371.441	0
371.648	-0.02
371.856	0.01
372.063	-0
372.271	-0.04
372.478	-0.04
372.685	-0.02
372.893	0.06
373.1	-0.01
373.308	-0.04
373.515	0.09
373.722	0.04
373.93	-0.02
374.137	0.01
374.344	0.03
374.552	0.04
374.759	0.04
374.966	0.03
375.173	-0.03
375.381	0.03
375.588	0.03
375.795	-0.06
376.002	-0.01
376.209	-0.01
376.417	-0.02
376.624	-0.01
376.831	0.03
377.038	-0.05
377.245	-0.1
377.452	-0.04
377.659	-0.01
377.866	-0.03
378.073	-0.03
378.28	-0.06
378.487	0.04
378.694	0.01
378.901	-0.06
379.108	-0
379.315	0.02
379.522	0.1
379.729	-0.04
379.936	-0.01
380.143	-0.03
380.35	0.03
380.557	-0.05
380.763	-0.01
380.97	0.01
381.177	0.03
381.384	-0
381.591	-0.04
381.797	-0.02
382.004	0.01
382.211	0.03
382.418	0.01
382.624	0.02
382.831	0.03
383.038	-0.04
383.244	-0.01
383.451	-0.04
383.658	0.04
383.864	-0
384.071	-0.07
384.277	0.03
384.484	-0.02
384.69	0.02
384.897	-0.05
385.103	-0.05
385.31	-0.04
385.516	-0.05
385.723	-0.04
385.929	0
386.136	-0.03
386.342	-0.01
386.549	-0.06
386.755	0.07
386.961	0.05
387.168	-0.02
387.374	-0.01
387.58	0.03
387.787	-0.02
387.993	0.04
388.199	0.01
388.406	-0.01
388.612	-0
388.818	-0.03
389.024	-0.06
389.231	0.01
389.437	0.07
389.643	0.03
389.849	-0.02
390.055	-0.04
390.261	0.03
390.467	-0.01
390.674	-0.08
390.88	-0.01
391.086	-0
391.292	-0.04
391.498	0.08
391.704	0.01
391.91	0.01
392.116	-0.06
392.322	-0.1
392.528	-0.02
392.734	-0.03
392.94	-0.01
393.146	0.01
393.352	0.02
393.557	-0.05
393.763	-0
393.969	0
394.175	-0.01
394.381	-0.02
394.587	-0.02
394.792	-0.03
394.998	0.01
395.204	0.03
395.41	-0.03
395.615	-0
395.821	-0.01
396.027	0.01
396.233	-0.07
396.438	-0.01
396.644	0.04
396.85	0.02
397.055	-0
397.261	0.01
397.466	-0
397.672	0.01
397.878	-0
398.083	0
398.289	-0.07
398.494	0.06
398.7	0.04
398.905	-0.11
399.111	0.11
399.316	-0.03
399.522	0.02
399.727	-0.03
399.932	-0.02
400.138	-0.02
400.343	0.01
400.549	0.02
400.754	0.06
400.959	0.01
401.165	-0.04
401.37	0.04
401.575	-0.08
401.78	-0.03
401.986	-0.02
402.191	-0.03
402.396	-0.03
402.601	0.04
402.807	-0.03
403.012	0.01
403.217	-0.02
403.422	0
403.627	-0.03
403.832	-0.03
404.037	0.07
404.243	0.01
404.448	-0.02
404.653	-0.01
404.858	-0.01
405.063	0.05
405.268	-0.06
405.473	-0.06
405.678	-0.03
405.883	0.16
406.088	0.04
406.293	-0.02
406.498	-0
406.703	0.04
406.907	-0.03
407.112	-0
407.317	0.05
407.522	0.07
407.727	-0.05
407.932	0.05
408.136	0.05
408.341	0.05
408.546	0.03
408.751	0.05
408.956	0.05
409.16	0.07
409.365	0.05
409.57	0.01
409.774	0.01
409.979	0.05
410.184	0.06
410.388	-0.06
410.593	0.1
410.798	0.04
411.002	0.04
411.207	0.07
411.411	0.08
411.616	-0
411.82	0.02
412.025	0.08
412.229	0.02
412.434	0.15
412.638	0.07
412.843	0.07
413.047	0.12
413.252	0.06
413.456	0.05
413.66	0.14
413.865	0.06
414.069	0.16
414.273	0.05
414.478	0.1
414.682	0.07
414.886	0.08
415.091	0.06
415.295	0
415.499	0.17
415.703	0.11
415.908	0.15
416.112	0.03
416.316	0.19
416.52	0.14
416.724	0.1
416.929	0.08
417.133	0.23
417.337	0.13
417.541	0.13
417.745	0.15
417.949	0.23
418.153	0.15
418.357	0.13
418.561	0.26
418.765	0.23
418.969	0.29
419.173	0.25
419.377	0.22
419.581	0.31
419.785	0.24
419.989	0.18
420.193	0.25
420.397	0.2
420.601	0.33
420.804	0.24
421.008	0.28
421.212	0.29
421.416	0.36
421.62	0.26
421.823	0.28
422.027	0.33
422.231	0.32
422.435	0.25
422.638	0.33
422.842	0.29
423.046	0.28
423.249	0.33
423.453	0.3
423.657	0.35
423.86	0.34
424.064	0.3
424.268	0.38
424.471	0.31
424.675	0.35
424.878	0.38
425.082	0.32
425.285	0.35
425.489	0.34
425.692	0.32
425.896	0.22
426.099	0.28
426.303	0.2
426.506	0.22
426.71	0.25
426.913	0.36
427.116	0.34
427.32	0.27
427.523	0.31
427.726	0.35
427.93	0.24
428.133	0.24
428.336	0.15
428.54	0.22
428.743	0.23
428.946	0.3
429.149	0.21
429.353	0.21
429.556	0.19
429.759	0.18
429.962	0.14
430.165	0.23
430.368	0.15
430.571	0.11
430.775	0.17
430.978	0.1
431.181	0.17
431.384	0.13
431.587	0.1
431.79	0.15
431.993	0.1
432.196	0.09
432.399	0.14
432.602	0.19
432.805	0.1
433.008	0.09
433.211	0.06
433.414	0.18
433.616	0.14
433.819	0.08
434.022	0.01
434.225	0.19
434.428	0.11
434.631	0.15
434.833	0.07
435.036	0.05
435.239	0.15
435.442	0.07
435.645	0.07
435.847	0.08
436.05	0.13
436.253	0.08
436.455	0.02
436.658	0.04
436.861	0.15
437.063	0.05
437.266	0.07
437.468	0.11
437.671	0.22
437.874	0.09
438.076	0.01
438.279	0.01
438.481	0.05
438.684	-0.01
438.886	0.09
439.089	-0.05
439.291	0.08
439.494	0.1
439.696	-0.01
439.899	-0
440.101	0.08
440.303	-0.05
440.506	0.09
440.708	0
440.91	0.1
441.113	-0.04
441.315	0.1
441.517	0.02
441.72	0.05
441.922	0.01
442.124	-0.04
442.326	0.04
442.529	0.16
442.731	-0.03
442.933	0.08
443.135	0.04
443.337	-0.03
443.539	0
443.742	-0.01
443.944	0.06
444.146	-0.01
444.348	0
444.55	0.01
444.752	0
444.954	-0.01
445.156	0.05
445.358	-0
445.56	0.06
445.762	-0.02
445.964	0.01
446.166	-0.05
446.368	-0.06
446.57	0.1
446.772	0
446.974	-0.02
447.175	0.04
447.377	-0.05
447.579	0.02
447.781	-0.11
447.983	0.05
448.184	0.02
448.386	0.03
448.588	-0.09
448.79	0.02
448.991	0
449.193	-0.02
449.395	-0.02
449.597	0.05
449.798	0
450	0.02
450.202	-0.01
450.403	0.01
450.605	0.04
450.806	-0.02
451.008	-0.08
451.21	-0
451.411	-0
451.613	-0.02
451.814	-0
452.016	0.02
452.217	0.02
452.419	-0
452.62	-0.01
452.821	0.02
453.023	0.06
453.224	0.06
453.426	-0.03
453.627	0.02
453.828	0
454.03	0
454.231	0.05
454.432	-0.08
454.634	0.09
454.835	-0.04
455.036	-0.07
455.238	0.02
455.439	0.1
455.64	-0.08
455.841	-0.04
456.042	0.09
456.244	0.01
456.445	-0.07
456.646	-0.09
456.847	0.02
457.048	0.03
457.249	0.03
457.45	0.15
457.651	-0.06
457.852	0.07
458.054	-0.03
458.255	-0.02
458.456	0.04
458.657	0.04
458.858	-0.01
459.058	0.02
459.259	0.02
459.46	-0.04
459.661	-0.01
459.862	0.07
460.063	-0.04
460.264	0.05
460.465	-0.06
460.666	0.1
460.866	-0.05
461.067	0.01
461.268	0.01
461.469	-0.09
461.67	0.01
461.87	-0.01
462.071	-0.02
462.272	-0.05
462.473	0
462.673	0
462.874	-0.05
463.075	0.06
463.275	-0.06
463.476	-0
463.676	-0.01
463.877	0.03
464.078	-0.06
464.278	0.01
464.479	-0.02
464.679	-0.03
464.88	0.01
465.08	0.06
465.281	-0.02
465.481	-0.03
465.682	-0.03
465.882	0.04
466.083	-0.02
466.283	-0.02
466.483	0
466.684	-0.04
466.884	-0.04
467.085	-0.02
467.285	0.1
467.485	-0.03
467.686	-0.02
467.886	-0.06
468.086	-0.04
468.286	0
468.487	-0.01
468.687	-0.06
468.887	-0.01
469.087	0.04
469.287	-0.04
469.488	-0.07
469.688	0.02
469.888	0.07
470.088	0.03
470.288	-0.01
470.488	0.05
470.688	-0.03
470.888	-0.04
471.088	-0.07
471.288	0.06
471.488	-0
471.688	-0.01
471.888	-0.06
472.088	0.02
472.288	0.03
472.488	-0.02
472.688	-0.06
472.888	-0.02
473.088	-0
473.288	0
473.488	-0.03
473.688	0.08
473.887	0
474.087	-0.04
474.287	-0.03
474.487	-0.03
474.687	-0.01
474.886	-0.03
475.086	-0.01
475.286	0.02
475.486	-0
475.685	-0
475.885	-0.01
476.085	-0.01
476.284	0.01
476.484	-0.02
476.684	0.02
476.883	0.05
477.083	0.05
477.282	-0.01
477.482	0.04
477.681	0.06
477.881	0.04
478.08	-0.03
478.28	-0.03
478.479	-0.01
478.679	0.08
478.878	0
479.078	-0.06
479.277	0
479.477	-0.03
479.676	0.03
479.875	0.01
480.075	-0.07
480.274	0.01
480.473	0.02
480.673	-0.01
480.872	0.01
481.071	0.02
481.271	0.01
481.47	-0.01
481.669	-0.01
481.868	-0.02
482.067	-0.03
482.267	-0.05
482.466	-0.06
482.665	-0.03
482.864	-0.04
483.063	-0.04
483.262	0.01
483.461	0.05
483.661	0.03
483.86	-0.01
484.059	-0.01
484.258	-0.01
484.457	0.01
484.656	-0.01
484.855	0.01
485.054	-0.05
485.253	-0.04
485.452	-0.06
485.651	-0.02
485.849	-0.03
486.048	-0.05
486.247	-0.05
486.446	0
486.645	-0.05
486.844	-0.03
487.043	-0.03
487.241	0.01
487.44	-0.01
487.639	-0.02
487.838	0.01
488.037	-0.01
488.235	0.07
488.434	-0.02
488.633	-0.03
488.831	-0.01
489.03	-0.01
489.229	-0.02
489.427	-0.02
489.626	0.01
489.825	0.04
490.023	-0
490.222	-0.03
490.42	0.03
490.619	0.01
490.817	0
491.016	-0.02
491.214	0.03
491.413	-0.02
491.611	-0.02
491.81	-0
492.008	0.01
492.207	0.03
492.405	0
492.604	-0.05
492.802	-0.04
493	0.01
493.199	-0.03
493.397	-0.01
493.595	-0.01
493.794	-0.02
493.992	0.04
494.19	-0
494.388	0.03
494.587	-0.03
494.785	0
494.983	-0.04
495.181	0.03
495.379	-0.01
495.578	-0.04
495.776	0
495.974	0.01
496.172	-0.01
496.37	-0.04
496.568	-0.03
496.766	-0.02
496.964	0.01
497.162	-0.01
497.36	-0.03
497.558	0.03
497.756	0.03
497.954	-0
498.152	-0.03
498.35	-0.02
498.548	-0.03
498.746	-0.04
498.944	-0.03
499.142	-0.04
499.34	-0.04
499.538	0
499.736	-0.04
499.933	0.03
500.131	0.02
500.329	0.02
500.527	0.02
500.725	0.04
500.922	0
501.12	0
501.318	0.01
501.516	-0.03
501.713	-0.02
501.911	-0.02
502.109	-0.02
502.306	-0
502.504	-0.02
502.701	-0.02
502.899	-0.02
503.097	0.04
503.294	0.01
503.492	-0.01
503.689	-0.01
503.887	0.02
504.084	0.03
504.282	-0.01
504.479	-0.05
504.677	0.02
504.874	-0.03
505.072	-0.02
505.269	-0.01
505.466	0.01
505.664	0.01
505.861	-0.06
506.059	-0.04
506.256	0.01
506.453	-0.03
506.651	0.04
506.848	0.01
507.045	0.02
507.242	-0.02
507.44	-0
507.637	-0.01
507.834	-0.01
508.031	0.02
508.229	-0.03
508.426	0.03
508.623	0.01
508.82	-0.03
509.017	-0.01
509.214	-0.01
509.411	-0.01
509.608	-0.02
509.805	-0
510.003	-0.02
510.2	-0.01
510.397	0.03
510.594	-0.02
510.791	-0.04
510.988	-0
511.184	0.03
511.381	-0.01
511.578	-0.04
511.775	0.02
511.972	-0.02
512.169	-0.02
512.366	-0.01
512.563	0.02
512.76	-0.02
512.956	0
513.153	-0.03
513.35	0.01
513.547	-0.05
513.744	-0.04
513.94	-0.04
514.137	0
514.334	-0.04
514.53	-0.01
514.727	0
514.924	0.04
515.12	-0.01
515.317	-0.04
515.514	-0.02
515.71	-0.02
515.907	-0.04
516.103	-0.03
516.3	-0
516.497	0.02
516.693	0.03
516.89	-0.03
517.086	-0.02
517.283	0.02
517.479	0.01
517.676	-0.02
517.872	-0.01
518.068	-0.02
518.265	-0
518.461	-0.01
518.658	-0.03
518.854	-0.01
519.05	-0.03
519.247	-0.03
519.443	-0.01
519.639	0.01
519.836	0.01
520.032	-0.01
520.228	-0.01
520.424	0.05
520.621	0
520.817	-0.01
521.013	0
521.209	0.02
521.405	0.02
521.601	0
521.798	-0
521.994	0.01
522.19	-0.03
522.386	-0.05
522.582	-0.01
522.778	-0
522.974	-0.03
523.17	-0.01
523.366	0
523.562	0.01
523.758	-0.01
523.954	-0.02
524.15	-0.02
524.346	0.01
524.542	-0.04
524.738	-0.02
524.934	-0.02
525.129	-0.01
525.325	0
525.521	-0.01
525.717	0
525.913	0.01
526.109	0
526.304	-0.02
526.5	-0.01
526.696	0.02
526.892	0
527.087	0.01
527.283	-0.02
527.479	-0
527.674	-0.02
527.87	-0.02
528.066	-0.02
528.261	-0
528.457	0
528.653	-0.01
528.848	-0
529.044	0.01
529.239	-0.01
529.435	0.03
529.63	-0.01
529.826	0.04
530.021	0.01
530.217	0.03
530.412	-0.03
530.608	-0.02
530.803	-0
530.999	0
531.194	-0.06
531.389	-0.01
531.585	-0.07
531.78	-0.01
531.975	-0.01
532.171	0.02
532.366	-0.01
532.561	-0
532.757	-0.02
532.952	0
533.147	0.01
533.342	-0.02
533.538	-0.04
533.733	0.02
533.928	-0.02
534.123	-0.04
534.318	-0.04
534.513	-0.02
534.709	-0
534.904	-0.02
535.099	-0.02
535.294	-0.01
535.489	-0.01
535.684	-0.04
535.879	-0.04
536.074	0.02
536.269	-0.03
536.464	0.02
536.659	-0.03
536.854	-0.01
537.049	0.01
537.244	-0.02
537.439	-0.02
537.634	0.02
537.828	0
538.023	-0
538.218	-0.04
538.413	0
538.608	-0.04
538.803	0.02
538.997	-0.05
539.192	0.01
539.387	0.02
539.582	0.02
539.776	-0
539.971	-0.03
540.166	-0
540.36	-0.04
540.555	-0.02
540.75	-0.02
540.944	-0.01
541.139	-0.04
541.334	-0
541.528	0
541.723	0.02
541.917	-0.02
542.112	-0.04
542.306	-0.01
542.501	-0.02
542.695	-0
542.89	-0.02
543.084	0.01
543.279	-0.02
543.473	-0
543.668	-0
543.862	-0.01
544.056	0.01
544.251	-0.03
544.445	-0.01
544.64	-0.02
544.834	-0.03
545.028	-0
545.222	0
545.417	0
545.611	0.01
545.805	-0
546	-0.01
546.194	-0
546.388	-0.04
546.582	-0.01
546.776	-0.01
546.97	0
547.165	0.01
547.359	0.03
547.553	-0.04
547.747	0.03
547.941	0
548.135	-0.02
548.329	0.03
548.523	0
548.717	0.01
548.911	-0.03
549.105	-0.01
549.299	-0.02
549.493	0.01
549.687	0.01
549.881	-0.02
550.075	-0
550.269	-0.06
550.463	0.01
550.657	-0.02
550.85	-0
551.044	-0.03
551.238	-0.01
551.432	-0.03
551.626	-0.03
551.82	-0.02
552.013	-0.01
552.207	-0
552.401	-0
552.594	-0.01
552.788	-0.01
552.982	-0.02
553.176	-0.04
553.369	-0
553.563	-0.01
553.756	-0.05
553.95	-0.05
554.144	0
554.337	0.01
554.531	-0
554.724	0.02
554.918	-0.02
555.111	0.04
555.305	-0.01
555.498	0.06
555.692	0
555.885	-0.03
556.079	0.01
556.272	-0
556.466	0.01
556.659	0
556.852	-0.02
557.046	0.01
557.239	0.02
557.432	-0.05
557.626	-0.03
557.819	0.01
558.012	0.03
558.206	-0
558.399	0
558.592	0.01
558.785	0
558.979	0.01
559.172	-0.01
559.365	0
559.558	0
559.751	-0.02
559.944	-0.01
560.138	-0.03
560.331	-0
560.524	-0.03
560.717	0.02
560.91	-0.01
561.103	0.01
561.296	-0.01
561.489	0.01
561.682	-0.01
561.875	0.02
562.068	0.01
562.261	0.01
562.454	0.01
562.647	-0
562.84	0.02
563.032	-0.02
563.225	0
563.418	-0.01
563.611	-0.03
563.804	-0.01
563.997	-0.03
564.19	-0.03
564.382	0
564.575	-0.03
564.768	-0.01
564.961	-0
565.153	-0.03
565.346	0.01
565.539	-0.01
565.731	0.01
565.924	0.02
566.117	0.01
566.309	0
566.502	-0
566.695	0
566.887	0
567.08	-0.03
567.272	-0.04
567.465	-0.03
567.657	-0.02
567.85	0.01
568.042	-0.01
568.235	0
568.427	-0.01
568.62	0.01
568.812	0.01
569.005	-0.01
569.197	-0.05
569.389	-0
569.582	-0.01
569.774	-0.01
569.966	-0.03
570.159	-0.02
570.351	0.02
570.543	-0.02
570.736	-0.01
570.928	-0.03
571.12	0.02
571.312	-0.04
571.505	-0.03
571.697	0.03
571.889	-0.03
572.081	-0.03
572.273	-0.01
572.465	0.02
572.658	-0.04
572.85	0.01
573.042	-0.02
573.234	-0.01
573.426	0.03
573.618	-0.05
573.81	0.01
574.002	0.04
574.194	0.03
574.386	-0.06
574.578	-0.09
574.77	-0.05
574.962	-0.02
575.154	-0.05
575.346	-0.02
575.538	0.02
575.729	-0.04
575.921	-0.05
576.113	-0.02
576.305	0.01
576.497	-0.01
576.689	-0.04
576.88	-0.04
577.072	0.01
577.264	-0.02
577.456	0.01
577.647	-0.04
577.839	-0.02
578.031	0.03
578.223	-0.05
578.414	-0.05
578.606	0.01
578.798	-0.03
578.989	-0.04
579.181	-0.01
579.372	-0.01
579.564	-0.04
579.755	-0.01
579.947	-0.01
580.139	0.02
580.33	-0.05
580.522	-0.05
580.713	-0.07
580.905	-0.02
581.096	-0.01
581.287	-0.01
581.479	-0.01
581.67	0.01
581.862	-0.01
582.053	-0.04
582.244	-0.06
582.436	-0.03
582.627	0.02
582.818	-0.04
583.01	-0.06
583.201	0.01
583.392	0
583.583	0
583.775	-0.04
583.966	-0.03
584.157	-0.01
584.348	-0.02
584.54	-0.06
584.731	0.02
584.922	-0.03
585.113	-0.03
585.304	0.01
585.495	0.01
585.686	0
585.877	-0.01
586.068	-0.01
586.259	0
586.45	-0.01
586.641	-0.02
586.832	-0.08
587.023	0.01
587.214	-0.01
587.405	0.01
587.596	-0.07
587.787	0.04
587.978	0
588.169	-0.05
588.36	-0.03
588.551	-0
588.742	-0.03
588.932	-0.01
589.123	-0.04
589.314	0.04
589.505	0.02
589.696	-0.02
589.886	-0.05
590.077	-0.03
590.268	-0.02
590.458	-0.05
590.649	-0.07
590.84	0.02
591.03	-0.05
591.221	-0.05
591.412	-0.06
591.602	-0
591.793	0.04
591.984	-0.04
592.174	-0.02
592.365	0.05
592.555	-0.05
592.746	0
592.936	0.01
593.127	0.02
593.317	0.03
593.508	-0.05
593.698	-0.03
593.889	-0
594.079	0.01
594.269	-0.04
594.46	-0.05
594.65	-0.01
594.84	-0
595.031	-0.06
595.221	-0.04
595.411	-0.04
595.602	0
595.792	-0
595.982	-0.03
596.172	0.06
596.363	-0.02
596.553	-0.03
596.743	-0.04
596.933	-0
597.123	0.02
597.314	-0.04
597.504	-0.02
597.694	0.04
597.884	0.04
598.074	-0.02
598.264	-0.02
598.454	0.02
598.644	-0.01
598.834	-0.03
599.024	-0.07
599.214	-0.05
599.404	0.01
599.594	-0.01
599.784	-0.04
599.974	0.02
600.164	0.03
600.354	-0.05
600.544	-0.03
600.734	0.01
600.924	-0
601.114	-0.05
601.303	0.01
601.493	-0.03
601.683	-0.01
601.873	-0
602.063	-0.06
602.252	0.02
602.442	-0.06
602.632	-0.04
602.821	-0.04
603.011	0.01
603.201	-0.03
603.39	-0.04
603.58	-0.03
603.77	0.01
603.959	0.01
604.149	-0.03
604.339	-0.01
604.528	0.02
604.718	0.03
604.907	-0.04
605.097	-0.06
605.286	-0.03
605.476	0.01
605.665	0.01
605.855	-0.02
606.044	0.02
606.234	0.02
606.423	-0.03
606.612	-0.06
606.802	0
606.991	0.01
607.181	-0.01
607.37	-0.06
607.559	-0.01
607.749	-0.07
607.938	-0.01
608.127	-0.03
608.316	-0.04
608.506	0
608.695	-0.03
608.884	-0.05
609.073	0.01
609.263	0.01
609.452	0
609.641	0
609.83	-0.05
610.019	-0.03
610.208	-0.04
610.397	-0.01
610.586	0.03
610.775	-0.05
610.965	-0.01
611.154	-0.03
611.343	-0
611.532	-0.03
611.721	-0.03
611.91	-0.03
612.099	-0
612.287	0.01
612.476	-0.05
612.665	-0.04
612.854	-0.03
613.043	0.02
613.232	-0.02
613.421	-0.03
613.61	-0.01
613.798	-0.05
613.987	-0.02
614.176	0
614.365	0.02
614.554	-0.01
614.742	0.02
614.931	-0.05
615.12	0.05
615.309	-0.02
615.497	0
615.686	-0.04
615.875	-0.01
616.063	0
616.252	-0.04
616.44	-0.03
616.629	-0.02
616.818	0.04
617.006	-0.01
617.195	-0.03
617.383	0.02
617.572	-0.01
617.76	-0.05
617.949	-0.03
618.137	0.02
618.326	0
618.514	-0.04
618.703	-0.02
618.891	0.06
619.079	-0.07
619.268	-0
619.456	-0.05
619.644	0.02
619.833	-0.05
620.021	-0.04
620.209	-0.06
620.398	-0.01
620.586	0
620.774	-0.01
620.962	-0.03
621.151	0.02
621.339	-0.04
621.527	-0.05
621.715	-0.04
621.903	-0.05
622.092	-0.03
622.28	0
622.468	-0.04
622.656	0.02
622.844	0.03
623.032	-0.06
623.22	-0.06
623.408	-0
623.596	-0.03
623.784	0.01
623.972	-0.08
624.16	-0.02
624.348	0.04
624.536	-0.01
624.724	-0.02
624.912	0.02
625.1	0.04
625.288	-0.05
625.476	0
625.664	-0.01
625.851	-0.06
626.039	-0.03
626.227	-0.01
626.415	-0.05
626.603	-0.06
626.79	-0.01
626.978	0.01
627.166	-0
627.354	-0.01
627.541	-0.03
627.729	-0.09
627.917	0.01
628.104	0.05
628.292	-0.01
628.48	-0.03
628.667	-0.01
628.855	-0.02
629.042	0.01
629.23	-0.05
629.418	-0.01
629.605	-0.04
629.793	-0.04
629.98	-0.05
630.168	-0.01
630.355	-0.02
630.543	-0.02
630.73	-0.04
630.917	-0.01
631.105	0.04
631.292	-0.03
631.48	-0.03
631.667	0.1
631.854	-0.02
632.042	-0.02
632.229	-0.07
632.416	-0.03
632.604	-0.03
632.791	-0.05
632.978	-0.02
633.165	-0
633.353	0.04
633.54	0.03
633.727	-0.07
633.914	-0.04
634.101	0.01
634.289	0.02
634.476	-0.04
634.663	-0.03
634.85	-0.01
635.037	-0.06
635.224	-0.07
635.411	0.02
635.598	0.03
635.785	-0.03
635.972	-0.03
636.159	0.03
636.346	-0.05
636.533	-0.01
636.72	-0.04
636.907	-0.05
637.094	-0.02
637.281	-0.04
637.468	-0.01
637.655	-0.01
637.842	-0.04
638.029	-0.03
638.215	0.05
638.402	-0.02
638.589	-0.04
638.776	-0.04
638.963	-0.05
639.149	0.02
639.336	0.06
639.523	-0.02
639.709	-0.01
639.896	-0.04
640.083	0.04
640.27	0
640.456	-0.03
640.643	0.01
640.829	-0.05
641.016	-0.07
641.203	-0.09
641.389	0.01
641.576	0.01
641.762	-0.01
641.949	-0.07
642.135	0.01
642.322	0.01
642.508	-0.06
642.695	-0.02
642.881	-0.02
643.068	-0.02
643.254	-0.03
643.441	0.05
643.627	-0.01
643.813	-0.04
644	0.02
644.186	-0.03
644.372	0.02
644.559	-0
644.745	-0
644.931	-0.05
645.118	-0.05
645.304	-0
645.49	-0.07
645.676	-0.04
645.862	-0.03
646.049	0.02
646.235	-0.01
646.421	0.05
646.607	0.07
646.793	-0.05
646.979	-0.06
647.165	-0.04
647.352	-0.02
647.538	0.01
647.724	-0.02
647.91	-0.02
648.096	0.01
648.282	-0.01
648.468	-0.03
648.654	-0.01
648.84	0.02
649.026	-0.03
649.212	0.01
649.397	-0.03
649.583	-0.06
649.769	0.02
649.955	-0.03
650.141	0
650.327	0.03
650.513	-0.05
650.698	-0.01
650.884	-0.09
651.07	-0.01
651.256	0.02
651.442	-0.02
651.627	-0.02
651.813	0.01
651.999	-0.01
652.184	0.02
652.37	-0.01
652.556	-0.03
652.741	0.03
652.927	-0.1
653.113	-0.02
653.298	0.01
653.484	-0.02
653.669	-0.08
653.855	-0.02
654.04	-0
654.226	0.03
654.412	-0.03
654.597	-0.04
654.782	-0.01
654.968	0.05
655.153	-0
655.339	-0.05
655.524	-0.06
655.71	0.02
655.895	-0.04
656.08	-0.04
656.266	0.02
656.451	0
656.636	-0.05
656.822	-0.02
657.007	-0.02
657.192	-0.07
657.378	-0.09
657.563	0.01
657.748	-0.01
657.933	0.02
658.118	-0.02
658.304	-0.05
658.489	0.01
658.674	0.02
658.859	-0.09
659.044	-0.01
659.229	0.03
659.414	-0.03
659.599	-0.04
659.785	-0.09
659.97	-0.04
660.155	0
660.34	-0.02
660.525	-0.03
660.71	-0.07
660.895	0.02
661.08	-0.06
661.264	-0.03
661.449	0.02
661.634	0.03
661.819	-0
662.004	0.02
662.189	-0.1
662.374	-0.07
662.559	-0.08
662.743	-0.09
662.928	-0.01
663.113	-0.07
663.298	-0.08
663.483	-0.08
663.667	0.02
663.852	-0.04
664.037	0.03
664.221	-0.09
664.406	-0.01
664.591	-0
664.775	-0.03
664.96	-0.05
665.145	-0.01
665.329	-0.01
665.514	-0.03
665.698	-0.03
665.883	-0.09
666.068	0.05
666.252	-0.01
666.437	-0.06
666.621	-0.01
666.806	0.01
666.99	-0.03
667.174	-0.06
667.359	0.01
667.543	-0.05
667.728	-0.06
667.912	-0.07
668.096	0.03
668.281	-0.01
668.465	-0.05
668.649	-0.03
668.834	-0.07
669.018	-0.02
669.202	-0.09
669.387	-0.05
669.571	0.04
669.755	-0.04
669.939	-0.03
670.124	-0.05
670.308	0.04
670.492	0.01
670.676	-0.01
670.86	-0.01
671.044	-0.09
671.228	0.03
671.413	-0.06
671.597	-0.03
671.781	-0.08
671.965	0.02
672.149	-0.03
672.333	-0.01
672.517	-0.07
672.701	0.03
672.885	-0.03
673.069	-0.11
673.253	0.02
673.437	-0.02
673.621	-0.05
673.804	-0.02
673.988	-0.01
674.172	-0.01
674.356	-0.1
674.54	-0.03
674.724	0.07
674.908	-0.03
675.091	0.02
675.275	-0.03
675.459	0.01
675.643	0.02
675.826	-0.01
676.01	0.01
676.194	-0.05
676.377	0.02
676.561	-0.03
676.745	0
676.928	-0
677.112	0.05
677.296	-0.05
677.479	-0.02
677.663	-0.07
677.846	0.01
678.03	-0.03
678.213	-0.05
678.397	-0.04
678.58	-0.08
678.764	-0.04
678.947	-0.01
679.131	-0.11
679.314	0.1
679.498	-0.02
679.681	-0.04
679.865	0.03
680.048	-0.04
680.231	-0.04
680.415	-0.03
680.598	-0.03
680.781	-0.05
680.965	-0.02
681.148	-0.01
681.331	-0.02
681.514	0.01
681.698	-0.08
681.881	0.02
682.064	-0.01
682.247	0
682.43	-0.09
682.614	0.02
682.797	0.02
682.98	0.04
683.163	-0.03
683.346	-0.02
683.529	0.02
683.712	-0.06
683.895	-0.01
684.078	-0.07
684.261	-0.04
684.444	0.01
684.627	-0.03
684.81	-0.08
684.993	-0.03
685.176	0.02
685.359	-0.02
685.542	-0.02
685.725	0.05
685.908	-0.03
686.091	-0.02
686.274	0.02
686.457	0.03
686.639	-0.07
686.822	0.05
687.005	-0.05
687.188	0.06
687.371	0.04
687.553	0.02
687.736	-0.01
687.919	0.04
688.102	0.06
688.284	-0.03
688.467	-0
688.65	0.01
688.832	-0.03
689.015	-0.07
689.197	-0.08
689.38	0.06
689.563	0.09
689.745	-0.03
689.928	-0.09
690.11	-0.03
690.293	0.04
690.475	-0.09
690.658	0.02
690.84	-0.03
691.023	-0.04
691.205	-0.1
691.388	0.01
691.57	0.02
691.752	-0.02
691.935	-0.11
692.117	-0.05
692.3	0.04
692.482	0.02
692.664	-0.06
692.847	-0
693.029	0.04
693.211	0.01
693.393	-0.05
693.576	-0.04
693.758	-0.01
693.94	-0.05
694.122	-0.05
694.304	-0.06
694.487	-0.01
694.669	0.06
694.851	-0.08
695.033	-0.01
695.215	-0.06
695.397	-0.04
695.579	-0.02
695.761	-0.06
695.943	-0.12
696.125	0.1
696.308	0.03
696.49	-0.15
696.671	0.11
696.853	-0.03
697.035	0.11
697.217	-0.04
697.399	0.04
697.581	-0.05
697.763	0.01
697.945	-0.07
698.127	-0
698.309	0.05
698.491	-0
698.672	0.02
698.854	0.02
699.036	0.04
699.218	-0.08
699.399	0.05
699.581	0.07
699.763	0.01
699.945	-0.05
700.126	-0.08
700.308	0.01
700.49	-0.04
700.671	-0.12
700.853	-0.09
701.035	-0.04
701.216	-0.02
701.398	-0.09
701.579	-0.1
701.761	-0.02
701.943	-0.08
702.124	-0.1
702.306	0.03
702.487	0.14
702.669	0
702.85	-0.06
703.031	-0.09
703.213	0.1
703.394	0.06
703.576	-0.02
703.757	0.09
703.938	0.04
704.12	0.12
704.301	-0.04
704.483	-0.04
704.664	-0.02
704.845	0.04
705.026	0.05
705.208	-0.03
705.389	0.02
705.57	0.04
705.751	-0.03
705.933	-0.02
706.114	0.06
706.295	-0.03
706.476	-0.07
706.657	0.05
706.838	0.01
707.02	0.03
707.201	-0.09
707.382	-0.1
707.563	0.02
707.744	-0.11
707.925	-0.09
708.106	-0.12
708.287	0.04
708.468	0.09
708.649	-0.01
708.83	0.08
709.011	-0.02
709.192	0.12
709.373	-0.05
709.554	-0.07
709.734	-0.04
709.915	0.08
710.096	-0.06
710.277	-0.14
710.458	-0.01
710.639	0.04
710.819	-0.18
711	-0.06
711.181	0.02
711.362	-0.01
711.542	-0.03
711.723	-0.07
711.904	0.04
712.085	0.01
712.265	0.01
712.446	-0.11
712.627	-0.01
712.807	-0.04
712.988	-0.03
713.168	-0.13
713.349	0.01
713.53	-0.17
713.71	-0.06
713.891	-0.09
714.071	0.01
714.252	-0.08
714.432	-0.04
714.613	-0.16
714.793	-0.04
714.974	0.04
715.154	0.06
715.334	-0.02
715.515	0.06
715.695	-0.09
715.876	-0.01
716.056	-0.02
716.236	-0.01
716.417	-0.07
716.597	-0.09
716.777	0.14
716.957	-0
717.138	-0.01
717.318	-0.06
717.498	-0.16
717.678	-0.01
717.859	-0.01
718.039	-0.07
718.219	0.06
718.399	0.04
718.579	-0.09
718.759	-0.11
718.939	0.01
719.12	0
719.3	-0.01
719.48	-0.16
719.66	-0.16
719.84	0.06
720.02	-0.15
720.2	-0.05
720.38	-0.08
720.56	0.08
720.74	-0.08
720.92	0.01
721.1	0.06
721.279	-0.01
721.459	-0.01
721.639	-0.12
721.819	-0.04
721.999	-0.02
722.179	-0
722.359	-0.15
722.538	0.01
722.718	0.02
722.898	-0.06
723.078	-0.02
723.257	0
723.437	-0.04
723.617	-0.02
723.797	-0.06
723.976	-0.06
724.156	0.01
724.336	0.06
724.515	0.12
724.695	-0.13
724.874	-0.03
725.054	0.01
725.234	-0.07
725.413	-0.01
725.593	-0.1
725.772	-0
725.952	-0.08
726.131	-0.09
726.311	-0.07
726.49	-0.05
726.67	-0.17
726.849	-0.06
727.028	0.01
727.208	-0.03
727.387	0.01
727.567	-0.1
727.746	-0.05
727.925	-0.05
728.105	-0.16
728.284	-0.09
728.463	-0.24
728.643	-0.01
728.822	-0.1
729.001	-0.07
729.18	-0.03
729.359	-0.02
729.539	-0.08
729.718	-0.04
729.897	0.08
730.076	-0.08
730.255	-0.18
730.434	-0.07
730.614	0.12
730.793	0.09
730.972	-0.11
731.151	-0.08
731.33	0.02
731.509	0.04
731.688	0.04
731.867	-0.12
732.046	-0.25
732.225	0.2
732.404	-0.17
732.583	-0.11
732.762	0
732.941	0.02
733.12	-0.02
733.298	-0.06
733.477	0.1
733.656	-0.04
733.835	-0.1
734.014	0.01
734.193	-0.04
734.371	-0.01
734.55	0.04
734.729	-0.13
734.908	-0.04
735.086	0.11
735.265	-0
735.444	-0.12
735.623	-0.08
735.801	-0.18
735.98	-0.06
736.159	-0.12
736.337	0.02
736.516	-0.01
736.694	-0.03
736.873	-0.1
737.052	0.12
737.23	0.08
737.409	-0.06
737.587	0.09
737.766	-0.13
737.944	-0.06
738.123	0.09
738.301	0.01
738.479	-0.15
738.658	0.05
738.836	-0.18
739.015	0.08
739.193	0.03
739.371	-0.11
739.55	-0.02
739.728	-0.13
739.906	-0.01
740.085	0.13
740.263	0.09
740.441	-0.14
740.62	0.08
740.798	0.22
740.976	-0.06
741.154	-0.11
741.332	0.03
741.511	-0.07
741.689	-0.02
741.867	0.08
742.045	-0.08
742.223	-0.09
742.401	-0.15
742.579	-0.17
742.757	-0.06
742.935	-0.1
743.114	-0.02
743.292	-0.07
743.47	-0.03
743.648	-0.09
743.826	0.06
744.004	0.01
744.181	0.06
744.359	-0.2
744.537	0.08
744.715	-0.12
744.893	-0.1
745.071	-0.05
745.249	-0.12
745.427	-0.04
745.605	0.08
745.782	-0.04
745.96	0.04
746.138	0.08
746.316	0.05
746.493	-0.01
746.671	-0.06
746.849	-0.17
747.027	0.24
747.204	-0.07
747.382	-0.01
747.56	-0.12
747.737	-0
747.915	-0.09
748.093	0.06
748.27	-0.15
748.448	-0.13
748.625	-0.18
748.803	-0.11
748.98	-0.1
749.158	0.05
749.335	0.05
749.513	-0.14
749.69	0.05
749.868	-0.13
750.045	0.02
750.223	-0.09
750.4	-0.28
750.578	0.11
750.755	-0.01
750.932	-0.17
751.11	0.08
751.287	-0.21
751.464	0.06
751.642	-0.11
751.819	0.13
751.996	-0.02
752.173	0
752.351	-0.22
752.528	-0.15
752.705	-0.13
752.882	-0
753.06	0.02
753.237	-0.04
753.414	0.06
753.591	0.11
753.768	-0.09
753.945	-0.14
754.122	0.01
754.299	0.12
754.476	-0.19
754.654	0.05
754.831	0.01
755.008	-0.13
755.185	-0.07
755.362	-0.2
755.539	0.03
755.716	-0.09
755.892	-0.02
756.069	0
756.246	0.01
756.423	0.03
756.6	0.12
756.777	-0.08
756.954	0.12
757.131	-0.04
757.307	-0.1
757.484	-0.21
757.661	0.15
757.838	0.04
758.015	-0.18
758.191	0.06
758.368	-0.05
758.545	0.19
758.721	0.06
758.898	-0.14
759.075	0.06
759.251	0.09
759.428	0.01
759.605	-0.2
759.781	-0.14
759.958	0.03
760.134	-0.03
760.311	-0.16
760.488	0.06
760.664	0.14
760.841	-0.1
761.017	-0.17
761.194	0.09
761.37	0.06
761.547	-0.02
761.723	-0.13
761.899	0.07
762.076	-0.09
762.252	-0.11
762.429	-0.13
762.605	0.02
762.781	-0.04
762.958	0.11
763.134	0.03
763.31	-0.08
763.486	0.09
763.663	-0.25
763.839	0.01
764.015	-0.27
764.191	-0.16
764.368	-0.16
764.544	-0.02
764.72	-0.07
764.896	0.07
765.072	0.06
765.248	-0.08
765.425	0.02
765.601	0.08
765.777	-0.09
765.953	-0.24
766.129	-0.14
766.305	-0.14
766.481	0.06
766.657	-0.07
766.833	0.01
767.009	-0.12
767.185	-0.01
767.361	-0.09
767.537	-0.18
767.713	0.1
767.889	-0.1
768.065	-0.17
768.24	-0.2
768.416	-0.01
768.592	-0.05
768.768	-0.11
768.944	-0.02
769.12	-0.15
769.295	-0.02
769.471	-0.1
769.647	-0.15
769.823	0.18
769.998	-0.02
770.174	-0.16
770.35	0.36
770.525	0.23
770.701	-0.05
770.877	-0.23
771.052	-0.11
771.228	0.06
771.403	0.09
771.579	0.04
771.755	0.27
771.93	-0.17
772.106	-0.21
772.281	-0.19
772.457	0.01
772.632	-0.07
772.808	-0.13
772.983	-0.11
773.159	-0.24
773.334	0.19
773.509	0.11
773.685	-0.17
773.86	0.38
774.036	0.09
774.211	-0.05
774.386	-0.17
774.562	-0.14
774.737	-0
774.912	-0.12
775.087	-0.02
775.263	-0.06
775.438	-0.04
775.613	-0.3
775.788	-0.05
775.964	0.11
776.139	0.33
776.314	-0.19
776.489	0.08
776.664	-0
776.839	-0.21
777.014	0.03
777.19	0.14
777.365	0.15
777.54	0.23
777.715	-0.07
777.89	-0.13
778.065	-0.21
778.24	-0.1
778.415	0.05
778.59	-0.11
778.765	-0.24
778.94	0.11
779.115	-0.18
779.289	-0.08
779.464	-0.11
779.639	-0.1
779.814	-0.4
779.989	-0.16
780.164	0.29
780.339	0.09
780.513	-0.12
780.688	-0.17
780.863	-0.1
781.038	0.12
781.212	-0.11
781.387	-0.04
781.562	0.14
781.737	0.12
781.911	0.04
782.086	-0.21
782.261	-0.02
782.435	0.09
782.61	-0.21
782.784	0.02
782.959	0.05
783.134	-0.31
783.308	-0.24
783.483	0
783.657	0.57
783.832	0.13
784.006	-0.46
784.181	-0.08
784.355	0.25
784.53	-0.32
784.704	-0.27
784.878	0.15
785.053	0.08
785.227	0.1
785.402	0.36
785.576	-0.32
785.75	-0.06
785.925	0.03
786.099	-0.18
786.273	-0.02
786.448	-0.03
786.622	0.17
786.796	-0.14
786.97	-0.11
787.145	0.5
787.319	-0.18
787.493	-0.18
787.667	-0.3
787.841	-0.11
788.015	0.13
788.19	-0.28
788.364	-0.03
788.538	0.06
788.712	0.06
788.886	-0.17
789.06	0.01
789.234	0.28
789.408	-0.3
789.582	-0.18
789.756	-0.14
789.93	-0.13
790.104	-0.24
790.278	-0.1
790.452	-0.25
790.626	0.1
790.8	-0.3
790.973	0.2
791.147	0.11
791.321	0.31
791.495	0.1
791.669	-0.02
791.843	-0.14
792.016	-0.04
792.19	0.63
792.364	-0.34
792.538	0.38
792.711	0.41
792.885	-0.13
793.059	-0.27
793.233	-0.67
793.406	0.07
793.58	-0.18
793.754	-0.17
793.927	-0.34
794.101	0.11
794.274	0.09
794.448	0.18
794.622	-0.3
794.795	0.42
794.969	-0.44
795.142	0.28
795.316	-0.26
795.489	-0.06
795.663	0.37
795.836	0.03
796.009	-0.35
796.183	0.33
796.356	-0.17
796.53	-0.07
796.703	-0.21
796.876	0.44
797.05	-0.04
797.223	-0.14
797.396	0.09
797.57	-0
797.743	0.21
797.916	-0.12
798.09	-0.03
798.263	0.3
798.436	0.03
798.609	-0.14
798.782	-0.22
798.956	-0.23
799.129	-0.02
799.302	-0.05
799.475	0.06
799.648	0.08
799.821	-0.14
799.994	0.01
800.167	-0.43
800.34	0.1
800.514	0.05
800.687	0
800.86	-0.18
801.033	-0.12
801.206	0.05
801.379	-0.36
801.551	0.17
801.724	0.17
801.897	0.42
802.07	-0.19
802.243	-0.63
802.416	-0
802.589	-0.24
802.762	-0.04
802.935	-0.1
803.107	0.11
803.28	0.19
803.453	-0.01
803.626	-0.23
803.798	0.07
803.971	0.02
804.144	0.05
804.317	0.14
804.489	0.13
804.662	-0.18
804.835	-0.12
805.007	-0.28
805.18	0.37
805.353	0.17
805.525	-0.18
805.698	-0.08
805.87	0.26
806.043	-0.07
806.215	-0.59
806.388	-0.36
806.56	0.03
806.733	0.21
806.905	-0.01
807.078	-0.35
807.25	-0.34
807.423	0.03
807.595	-0.08
807.768	-0.02
807.94	0.27
808.112	0.09
808.285	0.13
808.457	-0.17
808.629	0.01
808.802	0.26
808.974	-0.09
809.146	-0
809.318	-0.44
809.491	0
809.663	0.19
809.835	-0.41
810.007	0.03
810.18	-0.07
810.352	-0.36
810.524	-0.19
810.696	0.03
810.868	0.2
811.04	-0.33
811.212	-0.38
811.384	0.29
811.556	0.26
811.728	-0.2
811.901	0.65
812.073	-0.13
812.245	-0.21
812.417	-0.01
812.589	-0.88
812.76	0.25
812.932	0.11
813.104	0.43
813.276	-0.31
813.448	0.11
813.62	0.2
813.792	-0.24
813.964	-0.25
814.136	-0.48
814.307	-0.23
814.479	-0.4
814.651	-0.48
814.823	0.51
814.995	-0.31
815.166	0.23
815.338	-0.7
815.51	-0.41
815.681	0.82
815.853	0.1
816.025	-0.05
816.196	0.37
816.368	0.38
816.54	-0.62
816.711	-0.95
816.883	0.4
817.054	0.64
817.226	-0.49
817.398	0.32
817.569	-0.64
817.741	0.19
817.912	-0.37
818.084	-0.14
818.255	0.73
818.426	-0.48
818.598	0.07
818.769	-0.08
818.941	0.45
819.112	0.83
819.283	0.06
819.455	-0.68
819.626	0.05
819.798	0.02
819.969	0.1
820.14	-0.25
820.311	-0.17
820.483	0.12
820.654	-0.15
820.825	-0.28
820.996	-0.24
821.168	-0.32
821.339	-0.04
821.51	-0.46
821.681	-0.56
821.852	-0.18
822.023	-0.56
822.195	-0.47
822.366	0.51
822.537	-0.12
822.708	-0.09
822.879	-0.06
823.05	1.12
823.221	0.07
823.392	0.01
823.563	-0.41
823.734	-0.09
823.905	-0.18
824.076	-0.4
824.247	-0.8
824.418	-0.42
824.589	0.32
824.759	-0.24
824.93	-0.47
825.101	-1.07
825.272	0.27
825.443	0.4
825.614	0.4
825.784	-0.79
825.955	1.3
826.126	0.64
826.297	-0.01
826.467	0.49
826.638	0.4
826.809	-0.8
826.98	-0.74
827.15	0.21
827.321	-0.06
827.492	0.27
827.662	0.24
827.833	0.85
828.003	0.63
828.174	-0.52
828.345	-0.99
828.515	0.84
828.686	0.35
828.856	-0.2
829.027	0.11
829.197	-0.29
829.368	0.07
829.538	-0.02
829.709	-0.37
829.879	0.54
830.049	-0.45
830.22	-0.46
830.39	-0.39
830.56	0.63
830.731	-0.07
830.901	-0.39
831.072	-0.01
831.242	0.03
831.412	-0.21
831.582	-0.35
831.753	-0.59
831.923	0.24
832.093	-0.34
832.263	0.21
832.434	-0.92
832.604	-0.44
832.774	0.6
832.944	-0.09
833.114	-0.16
833.284	-0.15
833.454	-0.87
833.624	-0.43
833.795	-0.42
833.965	0.72
834.135	0.75
834.305	-1.14
834.475	-1.17
834.645	0.29
834.815	0.14
834.985	-0.67
835.155	-0.63
835.325	0.49
835.494	-0.23
835.664	-0.36
835.834	-0.71
836.004	-0.13
836.174	-0.13
836.344	-0.23
836.514	-1.13
836.684	-1.15
836.853	0.08
837.023	-0.1
837.193	-0.25
837.363	0.6
837.532	0.36
837.702	-0.14
837.872	-0.66
838.041	0.67
838.211	1.13
838.381	-0.93
838.55	0.05
838.72	2.21
838.89	0.73
839.059	-0.64
839.229	-0.47
839.398	1.32
839.568	-0.2
839.738	-0.35
839.907	0.61
840.077	0.6
840.246	-0.98
840.416	-1.23
840.585	-0.47
840.755	1
840.924	0.41
841.093	-0.74
841.263	-0.4
841.432	-0.64
841.602	-0.93
841.771	-0.52
841.94	-0.95
842.11	1.42
842.279	1.35
842.448	-1
842.617	-1.14
842.787	1.03
842.956	-1.82
843.125	-0.13
843.294	-0.08
843.464	0.92
843.633	0.52
843.802	-1.39
843.971	-0.49
844.14	0.15
844.309	0.09
844.479	-1.27
844.648	-1.44
844.817	-0.47
844.986	-0.01
845.155	-0.99
845.324	-0.42
845.493	-0.32
845.662	-1.22
845.831	-0.07
846	-0.32
846.169	-0.1
846.338	1.3
846.507	0.13
846.676	-0.14
846.844	-0.41
847.013	1.08
847.182	-0.35
847.351	-0.64
847.52	-0.19
847.689	0.16
847.858	-0.99
848.026	-1.48
848.195	-0.04
848.364	-0.78
848.533	-0.66
848.701	-0.57
848.87	-0.34
849.039	0.73
849.207	0.5
849.376	0.59
849.545	0.8
849.713	-0.98
849.882	-0.71
850.051	-0.27
850.219	-0.01
850.388	0.08
850.556	-1.4
850.725	-0.7
850.893	0.08
851.062	0.08
851.23	1.04
851.399	-1.06
851.567	-0.7
851.736	-0.04
851.904	-0.62
852.073	-0.47
852.241	1.09
852.41	-0.32
852.578	-0.61
852.746	-0.35
852.915	-0.28
853.083	-0.06
853.251	-1.52
853.42	0.07
853.588	0
853.756	1.6
853.924	-0.03
854.093	-0.61
854.261	-0.68
854.429	-2.27
854.597	0.91
854.765	-1.45
854.934	0.28
855.102	2.02
855.27	0.21
855.438	1.12
855.606	0.68
855.774	1.23
855.942	-2.26
856.11	-2.24
856.278	-0.54
856.446	0.48
856.614	-0.87
856.782	-1.2
856.95	0.66
857.118	0.45
857.286	0.4
857.454	-1.27
857.622	0.28
857.79	0.93
857.958	-1.01
858.126	-0.77
858.294	-1.74
858.462	0.07
858.629	-0.51
858.797	-1.42
858.965	1.45
859.133	-0.83
859.301	-0.93
859.468	-0.62
859.636	-0.06
859.804	1.74
859.971	-0.2
860.139	-1.07
860.307	1.48
860.474	1.28
860.642	0.42
860.81	0.2
860.977	-0.36
861.145	0.46
861.313	-0.67
861.48	-1.32
861.648	-0.11
861.815	-0.98
861.983	-0.71
862.15	-0.76
862.318	0.48
862.485	-0.23
862.653	-0.9
862.82	-0.68
862.988	1.52
863.155	-0.06
863.322	-0.39
863.49	-0.92
863.657	-0.27
863.824	1.35
863.992	0
864.159	-0.25
864.326	1.15
864.494	-0.6
864.661	1.8
864.828	-1.89
864.996	1.5
865.163	2.63
865.33	-2.42
865.497	-3.33
865.664	-2.2
865.832	-1.94
865.999	1
866.166	-1.93
866.333	0.39
866.5	0.06
866.667	-0.61
866.834	-1.96
867.001	-0.3
867.168	-2.1
867.335	-0.15
867.502	-1.21
867.669	1.2
867.836	3.07
868.003	-1.33
868.17	0.82
868.337	-0.25
868.504	3.43
868.671	-1.69
868.838	-1.54
869.005	0.74
869.172	0.83
869.339	-0.56
869.505	-2.27
869.672	-0.5
869.839	1.5
870.006	0.43
870.173	-2.22
870.339	-0.14
870.506	2.75
870.673	0.18
870.84	1.28
871.006	0.35
871.173	0.02
871.34	0.24
871.506	-2.95
871.673	-0.5
871.839	-2.07
872.006	0.74
872.173	-1.2
872.339	-0.03
872.506	2.07
872.672	-0.91
872.839	-3.19
873.005	0.3
873.172	1.12
873.338	0.9
873.505	-0.3
873.671	-0.67
873.838	0.24
874.004	-2.12
874.171	-2.66
874.337	1.9
874.503	1.67
874.67	0.02
874.836	0.05
875.002	3.48
875.169	-0.01
875.335	0.44
875.501	-1.28
875.668	0.95
875.834	0.98
876	-1.7
876.166	0.24
876.332	1.49
876.499	3.31
876.665	-0.94
876.831	-0.34
876.997	2.22
877.163	0.17
877.329	0.26
877.495	-0.38
877.662	2.53
877.828	2
877.994	-0.33
878.16	-2.75
878.326	-0.33
878.492	0.5
878.658	-0.87
878.824	-0.98
878.99	0.39
879.156	-0.72
879.322	1.12
879.487	-1.21
879.653	0.97
879.819	-1.08
879.985	-0.65
880.151	0.3
880.317	1.2
880.483	0.43
880.648	1.74
880.814	-2.09
880.98	1.24
881.146	-2.98
881.312	-0.9
881.477	-0.56
881.643	0.53
881.809	1.47
881.974	1.24
882.14	-3
882.306	-1.07
882.471	2.6
882.637	-0.65
882.803	0.1
882.968	2.4
883.134	4.21
883.299	-1.27
883.465	-0.24
883.63	1.4
883.796	0.69
883.961	-0.39
884.127	1.25
884.292	-4.08
884.458	-3.26
884.623	-3.26
