Data from Apollo_Calib_20240827__AbsoluteIrradiance__553__08-22-00-302.txt Node

Date: Wed Aug 28 08:22:00 BST 2024
User: biology
Spectrometer: FLMT08252
Trigger mode: 0
Integration Time (sec): 5.000000E-1
Scans to average: 5
Electric dark correction enabled: true
Nonlinearity correction enabled: false
Boxcar width: 0
XAxis mode: Wavelengths
Number of Pixels in Spectrum: 3648
>>>>>Begin Spectral Data<<<<<
179.588	-0
179.809	-0
180.03	-0
180.251	-0
180.473	-0
180.694	0
180.915	0
181.136	-0
181.357	0
181.578	-0
181.799	-0
182.02	-0
182.241	0
182.462	-0
182.683	0
182.904	-0
183.125	0
183.346	0
183.567	0
183.788	-0
184.009	-0
184.23	0
184.451	0
184.672	-0
184.892	-0
185.113	0
185.334	0
185.555	-0
185.776	-0
185.996	-0
186.217	0
186.438	-0
186.659	-0
186.879	-0
187.1	-0
187.321	-0
187.541	-0
187.762	-0
187.983	0
188.203	-0
188.424	-0
188.644	-0
188.865	-0
189.086	-0
189.306	-0
189.527	-0
189.747	0
189.968	-0
190.188	0
190.409	-0
190.629	0
190.849	-0
191.07	-0
191.29	0
191.511	-0
191.731	-0
191.951	-0
192.172	0
192.392	-0
192.612	-0
192.833	-0
193.053	0
193.273	0
193.493	-0
193.714	-0
193.934	0
194.154	0
194.374	0
194.594	-0
194.815	-0
195.035	0
195.255	0
195.475	-0
195.695	0
195.915	0
196.135	-0
196.355	0
196.575	0
196.795	0
197.015	-0
197.235	-0
197.455	-0
197.675	0
197.895	-0
198.115	-0
198.335	0
198.555	-0
198.775	0
198.995	0
199.214	0
199.434	-0
199.654	-0
199.874	-0
200.094	0.93
200.313	-0.36
200.533	-0.41
200.753	-1.01
200.973	0.57
201.192	0.44
201.412	-0.28
201.632	-0.7
201.851	0.93
202.071	-0.27
202.291	-0.03
202.51	-0.47
202.73	0.27
202.95	-0.42
203.169	-0.33
203.389	-0.34
203.608	-0.14
203.828	-0.82
204.047	-0.12
204.267	0.37
204.486	-0.16
204.706	-0.46
204.925	0.31
205.145	-0.5
205.364	0.13
205.583	0.23
205.803	-0.16
206.022	-0.72
206.242	-0.06
206.461	-0.15
206.68	0.03
206.9	-0.04
207.119	0.23
207.338	0.49
207.557	-0.06
207.777	-0.03
207.996	-0.32
208.215	0.39
208.434	-0.05
208.654	-0.43
208.873	0.01
209.092	0.3
209.311	-0.24
209.53	-0.17
209.749	-0.31
209.968	-0.15
210.187	-0.03
210.407	-0.5
210.626	-0.31
210.845	0.13
211.064	-0.14
211.283	-0.22
211.502	0.21
211.721	-0.09
211.94	-0.12
212.159	0.12
212.377	0.03
212.596	0.26
212.815	-0.09
213.034	0.03
213.253	0.09
213.472	0.01
213.691	-0.25
213.91	-0.26
214.128	-0.15
214.347	0.13
214.566	-0.42
214.785	-0.39
215.003	0.05
215.222	-0.1
215.441	-0.14
215.66	-0.34
215.878	0.14
216.097	0.2
216.316	-0.26
216.534	-0.11
216.753	-0.09
216.972	-0.14
217.19	0.02
217.409	-0.25
217.627	-0.17
217.846	-0.02
218.064	-0.11
218.283	-0.14
218.501	0.29
218.72	0.16
218.938	-0.21
219.157	-0.19
219.375	0.22
219.594	0.16
219.812	-0.28
220.031	-0.22
220.249	0.3
220.467	0.21
220.686	-0.11
220.904	-0.38
221.122	-0.22
221.341	0.25
221.559	-0.05
221.777	-0.12
221.995	-0.2
222.214	0.11
222.432	-0.16
222.65	0.04
222.868	0.15
223.086	-0.02
223.305	0.09
223.523	-0.13
223.741	0.06
223.959	-0.14
224.177	-0.38
224.395	-0.05
224.613	0.04
224.831	0.15
225.049	-0.28
225.267	-0.11
225.485	0.05
225.703	-0.21
225.921	-0.1
226.139	-0.08
226.357	0.02
226.575	-0.01
226.793	-0.07
227.011	0.39
227.229	0.06
227.447	-0
227.665	-0.21
227.883	-0.26
228.1	0.01
228.318	-0.02
228.536	-0.32
228.754	-0.1
228.972	0.12
229.189	0.09
229.407	-0.17
229.625	-0.08
229.843	0.15
230.06	0.16
230.278	-0.1
230.496	-0.05
230.713	0.03
230.931	0.12
231.149	-0.05
231.366	-0.21
231.584	-0.06
231.801	0.27
232.019	-0.08
232.236	-0.14
232.454	-0.08
232.671	-0.05
232.889	-0.07
233.106	-0.17
233.324	-0.04
233.541	-0.03
233.759	-0.1
233.976	-0.06
234.194	-0.09
234.411	-0.07
234.628	-0.12
234.846	-0.06
235.063	-0
235.28	0.03
235.498	-0
235.715	-0.19
235.932	0.03
236.149	-0.03
236.367	-0.08
236.584	0.02
236.801	-0.12
237.018	0.11
237.236	-0.02
237.453	-0.18
237.67	0.09
237.887	-0.11
238.104	-0.06
238.321	-0.04
238.538	-0.13
238.755	0.09
238.973	-0.17
239.19	0.05
239.407	-0.05
239.624	-0.08
239.841	-0.12
240.058	-0.09
240.275	-0
240.492	-0.13
240.709	-0.01
240.925	-0.04
241.142	0.02
241.359	-0.12
241.576	-0.1
241.793	-0.04
242.01	-0
242.227	0.07
242.444	0.02
242.66	0.05
242.877	0.01
243.094	-0.09
243.311	0
243.527	-0.12
243.744	-0.05
243.961	0.03
244.178	-0.12
244.394	-0.01
244.611	0.06
244.828	0.04
245.044	-0.07
245.261	-0.07
245.477	0
245.694	0.11
245.911	-0.13
246.127	0.02
246.344	0.08
246.56	0.01
246.777	-0.08
246.993	-0.08
247.21	-0.07
247.426	0.04
247.643	-0.06
247.859	-0.07
248.076	-0.05
248.292	0.16
248.508	-0.01
248.725	-0.01
248.941	0.03
249.157	0.07
249.374	-0.08
249.59	-0.09
249.806	-0.04
250.023	0.13
250.239	-0.13
250.455	-0.09
250.671	-0.07
250.888	0.04
251.104	0.04
251.32	-0.08
251.536	-0.01
251.752	0.01
251.969	-0
252.185	-0
252.401	0.14
252.617	-0.09
252.833	-0.07
253.049	-0.06
253.265	-0.01
253.481	0.02
253.697	-0.02
253.913	-0.11
254.129	-0.12
254.345	-0.02
254.561	-0.03
254.777	-0.01
254.993	0.03
255.209	-0.01
255.425	-0.06
255.641	-0.08
255.857	0.13
256.073	-0.01
256.288	-0.15
256.504	-0.08
256.72	-0.07
256.936	0.13
257.152	-0.04
257.367	-0.05
257.583	-0.02
257.799	0
258.015	-0.05
258.23	-0.01
258.446	0.14
258.662	-0.02
258.877	-0.13
259.093	-0.07
259.309	-0.02
259.524	-0.03
259.74	-0
259.955	-0.09
260.171	-0.02
260.387	-0.03
260.602	0.09
260.818	0.03
261.033	-0.02
261.249	-0.01
261.464	-0.02
261.68	-0.14
261.895	0.01
262.11	0.05
262.326	-0.09
262.541	-0.08
262.757	0
262.972	-0
263.187	-0.03
263.403	-0.03
263.618	-0.01
263.833	0.03
264.049	-0.13
264.264	-0.06
264.479	0.07
264.694	0.05
264.91	-0.11
265.125	-0.03
265.34	-0.05
265.555	0.13
265.77	0.07
265.986	-0.07
266.201	0.04
266.416	0.11
266.631	-0.03
266.846	-0.04
267.061	0.02
267.276	0.02
267.491	-0.12
267.706	0.03
267.921	0.03
268.136	0.01
268.351	-0.01
268.566	-0.04
268.781	0.05
268.996	-0.01
269.211	-0.01
269.426	-0.09
269.641	-0.02
269.856	0.08
270.071	-0.07
270.285	-0.08
270.5	0.05
270.715	0.05
270.93	-0.09
271.145	-0.04
271.359	-0
271.574	-0.02
271.789	-0.02
272.004	-0.05
272.218	-0.06
272.433	0.06
272.648	-0.06
272.862	0.05
273.077	-0.01
273.292	-0.03
273.506	-0.02
273.721	-0.09
273.936	-0.02
274.15	0.02
274.365	-0.05
274.579	0.01
274.794	0.01
275.008	0.03
275.223	-0.06
275.437	0.06
275.652	0.03
275.866	-0.01
276.081	-0.01
276.295	0.03
276.509	-0.04
276.724	-0.03
276.938	0.04
277.153	0.02
277.367	0.03
277.581	-0.06
277.796	-0.09
278.01	-0.06
278.224	0.05
278.438	0.09
278.653	-0.1
278.867	0.03
279.081	-0.09
279.295	-0.04
279.51	0.04
279.724	-0.1
279.938	0.05
280.152	-0.05
280.366	-0.03
280.58	-0
280.794	0.08
281.008	0.02
281.222	0.07
281.437	0.07
281.651	0.02
281.865	0.07
282.079	-0.06
282.293	-0.1
282.507	-0.06
282.721	-0.05
282.935	-0.03
283.148	-0.07
283.362	-0.05
283.576	-0.05
283.79	-0.01
284.004	-0.05
284.218	0.04
284.432	-0.06
284.646	-0.02
284.859	-0.06
285.073	-0.02
285.287	0.03
285.501	-0.03
285.714	0.01
285.928	0.01
286.142	0.02
286.356	-0.03
286.569	-0.02
286.783	0.1
286.997	-0
287.21	0.01
287.424	-0.02
287.637	-0.01
287.851	-0.04
288.065	0.03
288.278	0.01
288.492	-0
288.705	-0.05
288.919	0.04
289.132	-0.07
289.346	0.06
289.559	-0.11
289.773	-0.06
289.986	-0.07
290.2	-0.01
290.413	0.03
290.626	-0.06
290.84	-0.05
291.053	-0
291.267	0.13
291.48	-0.04
291.693	-0.05
291.906	-0.07
292.12	-0.01
292.333	-0.05
292.546	0.01
292.76	0.06
292.973	-0.04
293.186	-0.01
293.399	-0.04
293.612	0.05
293.826	0.02
294.039	-0.02
294.252	-0.01
294.465	0.02
294.678	0.01
294.891	-0.02
295.104	-0.04
295.317	0.02
295.53	0.03
295.743	-0.01
295.956	-0.05
296.169	0.03
296.382	0.03
296.595	-0
296.808	-0.04
297.021	0.05
297.234	0.05
297.447	-0.04
297.66	-0.01
297.873	0.03
298.086	0.01
298.299	-0.02
298.511	-0.06
298.724	-0.05
298.937	-0.1
299.15	-0.04
299.363	-0.02
299.575	0.02
299.788	0.03
300.001	-0.04
300.213	-0.05
300.426	-0.04
300.639	-0.02
300.852	-0.05
301.064	0.02
301.277	0.06
301.489	0.02
301.702	0.02
301.915	0.01
302.127	0
302.34	0.02
302.552	0.01
302.765	-0.05
302.977	0.01
303.19	0.01
303.402	-0.03
303.615	-0.02
303.827	-0.06
304.04	-0.01
304.252	0.02
304.464	-0
304.677	0.1
304.889	0.05
305.102	-0.04
305.314	-0.01
305.526	0.05
305.739	0.04
305.951	-0.07
306.163	-0
306.375	0.03
306.588	-0.05
306.8	-0.03
307.012	-0.06
307.224	-0
307.436	0.02
307.649	-0.08
307.861	0.06
308.073	0.03
308.285	-0.02
308.497	-0.05
308.709	-0.03
308.921	0.01
309.133	0.06
309.346	-0.02
309.558	-0.02
309.77	0.02
309.982	0
310.194	0.03
310.406	0
310.617	0.04
310.829	-0
311.041	-0.04
311.253	-0.05
311.465	-0.04
311.677	0.03
311.889	-0.02
312.101	-0.02
312.313	0.02
312.524	0.01
312.736	-0.07
312.948	0.01
313.16	0.06
313.372	0.01
313.583	-0.02
313.795	-0.02
314.007	-0.01
314.218	0.06
314.43	0
314.642	-0.02
314.853	-0.08
315.065	0.03
315.277	-0.03
315.488	0.02
315.7	0.04
315.912	0.03
316.123	-0.01
316.335	-0.01
316.546	0.08
316.758	-0.02
316.969	-0.04
317.181	-0.01
317.392	-0.02
317.604	0.02
317.815	-0.03
318.026	-0.02
318.238	-0.03
318.449	0.02
318.661	-0.1
318.872	-0.04
319.083	-0.05
319.295	0.01
319.506	-0.08
319.717	0.01
319.929	0.03
320.14	-0.03
320.351	-0.01
320.562	-0.07
320.774	0
320.985	0.03
321.196	-0.03
321.407	-0.1
321.618	0.04
321.829	-0.02
322.041	0.01
322.252	-0.02
322.463	-0.03
322.674	-0.02
322.885	-0.03
323.096	-0.02
323.307	-0.03
323.518	0.04
323.729	-0.03
323.94	-0.05
324.151	-0.03
324.362	-0.01
324.573	-0
324.784	-0.03
324.995	0.07
325.206	-0.04
325.417	-0.02
325.628	-0.06
325.838	0.01
326.049	-0.04
326.26	-0
326.471	-0.06
326.682	0
326.892	-0
327.103	-0.08
327.314	-0.04
327.525	0.02
327.735	-0.03
327.946	-0.03
328.157	-0.03
328.368	0
328.578	-0.02
328.789	0.02
328.999	-0.01
329.21	-0.01
329.421	0.01
329.631	-0.02
329.842	-0.04
330.052	0.05
330.263	0.05
330.473	0
330.684	-0.03
330.894	0
331.105	-0.01
331.315	0
331.526	-0.1
331.736	0.07
331.947	0.02
332.157	-0.01
332.367	-0.07
332.578	0.04
332.788	0.07
332.999	0.04
333.209	-0.04
333.419	-0.04
333.629	0
333.84	0.04
334.05	-0.01
334.26	0.04
334.47	-0.01
334.681	0.03
334.891	-0.06
335.101	0.02
335.311	0.02
335.521	0.01
335.732	-0.08
335.942	0.05
336.152	0.07
336.362	-0.01
336.572	0.02
336.782	0.02
336.992	-0.05
337.202	-0.02
337.412	-0.04
337.622	-0
337.832	-0.03
338.042	-0
338.252	-0.04
338.462	0.01
338.672	0.01
338.882	0
339.092	0.03
339.302	-0
339.511	0.03
339.721	-0.05
339.931	-0.03
340.141	0.05
340.351	0.02
340.561	-0
340.77	-0.01
340.98	-0.03
341.19	0.03
341.4	-0.03
341.609	-0.05
341.819	-0.04
342.029	-0.03
342.238	0
342.448	-0.05
342.658	0.02
342.867	0.01
343.077	-0.01
343.286	0.03
343.496	0
343.706	0.02
343.915	-0.05
344.125	-0.02
344.334	-0
344.544	-0.06
344.753	-0.01
344.963	-0.03
345.172	-0.03
345.381	-0.06
345.591	-0.04
345.8	0.01
346.01	0.03
346.219	0.01
346.428	-0.16
346.638	-0.02
346.847	-0.05
347.056	0.03
347.266	-0.01
347.475	-0.01
347.684	0.01
347.893	0.02
348.103	0.02
348.312	-0
348.521	-0.02
348.73	-0.03
348.94	0.05
349.149	-0.01
349.358	-0.04
349.567	-0.04
349.776	-0.03
349.985	-0.01
350.194	0.04
350.403	0.04
350.612	-0.06
350.821	-0.01
351.03	-0.02
351.239	-0.07
351.448	-0.01
351.657	-0.06
351.866	0.05
352.075	0.01
352.284	0.02
352.493	-0.07
352.702	0.06
352.911	0.03
353.12	-0.01
353.329	-0.02
353.538	-0.03
353.746	-0.01
353.955	-0.06
354.164	-0.01
354.373	-0.02
354.582	0.03
354.79	-0.02
354.999	0.01
355.208	-0.02
355.416	0.04
355.625	-0.05
355.834	-0.02
356.042	-0.01
356.251	-0.01
356.46	-0.04
356.668	0.04
356.877	0.06
357.085	0.02
357.294	-0.08
357.503	0
357.711	-0.02
357.92	0.1
358.128	0.03
358.337	-0.02
358.545	-0
358.754	-0.05
358.962	-0
359.17	-0.02
359.379	-0.01
359.587	-0
359.796	-0.02
360.004	0.02
360.212	0.01
360.421	0.01
360.629	-0.04
360.837	-0.05
361.046	-0.03
361.254	0.05
361.462	-0
361.67	-0.04
361.879	0.01
362.087	0.04
362.295	0.02
362.503	0.01
362.711	-0.02
362.92	-0.03
363.128	-0.03
363.336	-0.06
363.544	-0.07
363.752	-0.04
363.96	-0.03
364.168	-0.04
364.376	-0
364.584	-0.01
364.792	0.01
365	0.03
365.208	0.01
365.416	0.03
365.624	0.06
365.832	-0.04
366.04	0.07
366.248	0.01
366.456	-0.02
366.664	-0.03
366.872	-0.01
367.079	-0.04
367.287	-0
367.495	-0.01
367.703	0.02
367.911	0
368.118	-0.05
368.326	-0.03
368.534	-0.05
368.742	0.04
368.949	-0.06
369.157	-0.05
369.365	0.04
369.572	-0.04
369.78	-0.04
369.988	0.02
370.195	0
370.403	0.05
370.61	-0
370.818	0.01
371.026	0.01
371.233	0.01
371.441	0.01
371.648	-0.02
371.856	0.02
372.063	-0.01
372.271	-0.01
372.478	-0.04
372.685	-0.02
372.893	0.07
373.1	0.02
373.308	-0
373.515	0.09
373.722	0.02
373.93	0
374.137	-0
374.344	0.02
374.552	0.05
374.759	0.05
374.966	-0.02
375.173	-0.04
375.381	0.04
375.588	-0.01
375.795	-0.11
376.002	-0.05
376.209	-0.04
376.417	-0.04
376.624	0.02
376.831	-0.02
377.038	0.01
377.245	-0.08
377.452	-0.02
377.659	-0.01
377.866	-0.05
378.073	0
378.28	0
378.487	0
378.694	-0
378.901	-0.01
379.108	-0.02
379.315	0.01
379.522	0.1
379.729	0.02
379.936	0.01
380.143	0.01
380.35	0.01
380.557	-0.03
380.763	-0
380.97	-0.01
381.177	-0
381.384	-0
381.591	-0.06
381.797	-0.06
382.004	-0.02
382.211	0.02
382.418	-0.04
382.624	0.01
382.831	0.01
383.038	-0.03
383.244	-0
383.451	0.01
383.658	-0.03
383.864	-0
384.071	-0.02
384.277	0.04
384.484	-0.04
384.69	0.03
384.897	-0.02
385.103	-0.02
385.31	-0.02
385.516	-0.05
385.723	-0.09
385.929	-0.04
386.136	-0.02
386.342	0.01
386.549	-0.02
386.755	0
386.961	0.03
387.168	-0.04
387.374	-0.04
387.58	-0.02
387.787	-0.02
387.993	-0.01
388.199	-0.03
388.406	-0.02
388.612	-0.05
388.818	-0.06
389.024	-0.01
389.231	0.02
389.437	0.09
389.643	0.01
389.849	-0.03
390.055	-0.02
390.261	-0.05
390.467	0.01
390.674	-0.04
390.88	-0.02
391.086	0.01
391.292	-0.03
391.498	0.02
391.704	0.02
391.91	-0.05
392.116	-0.04
392.322	-0.09
392.528	-0
392.734	-0.03
392.94	-0.03
393.146	-0.03
393.352	0
393.557	-0.04
393.763	-0.04
393.969	0.01
394.175	-0.01
394.381	0.04
394.587	-0.03
394.792	-0.03
394.998	0.02
395.204	0.07
395.41	-0.04
395.615	0.01
395.821	-0.04
396.027	0.01
396.233	-0.04
396.438	-0.01
396.644	0.01
396.85	-0.01
397.055	-0.01
397.261	0.02
397.466	0.11
397.672	-0.01
397.878	0.02
398.083	-0.02
398.289	-0.05
398.494	0
398.7	-0.01
398.905	-0.1
399.111	0.03
399.316	-0.03
399.522	-0.01
399.727	-0.03
399.932	-0.02
400.138	-0.06
400.343	0.03
400.549	0.01
400.754	0.05
400.959	0
401.165	-0.02
401.37	0.01
401.575	0.03
401.78	0.01
401.986	-0.04
402.191	-0.05
402.396	-0.02
402.601	0.01
402.807	0.02
403.012	0.03
403.217	0.03
403.422	-0.01
403.627	-0.01
403.832	-0.01
404.037	0.01
404.243	0.01
404.448	-0.02
404.653	-0.06
404.858	0.01
405.063	0.02
405.268	-0
405.473	-0.02
405.678	-0.01
405.883	0.12
406.088	0.01
406.293	-0.04
406.498	-0.05
406.703	0.01
406.907	-0.03
407.112	-0.05
407.317	-0.06
407.522	0.01
407.727	-0.06
407.932	-0.01
408.136	0.03
408.341	0.02
408.546	-0.01
408.751	-0.03
408.956	-0.03
409.16	0.06
409.365	-0.02
409.57	-0.02
409.774	-0
409.979	0.01
410.184	-0.01
410.388	-0.08
410.593	0.04
410.798	-0.01
411.002	-0.03
411.207	0.03
411.411	-0.02
411.616	-0.07
411.82	-0.04
412.025	0.01
412.229	-0.03
412.434	0.04
412.638	-0.01
412.843	-0.04
413.047	-0
413.252	-0.04
413.456	-0.02
413.66	0.01
413.865	-0.04
414.069	0.07
414.273	-0.04
414.478	0
414.682	-0.05
414.886	-0.06
415.091	-0.13
415.295	-0.06
415.499	-0.04
415.703	-0.02
415.908	-0.02
416.112	-0.12
416.316	0.01
416.52	-0.02
416.724	-0.08
416.929	-0.04
417.133	0.07
417.337	-0.03
417.541	-0.05
417.745	-0.02
417.949	0.03
418.153	0.03
418.357	-0.05
418.561	0.01
418.765	0.01
418.969	0.05
419.173	0.05
419.377	-0.03
419.581	0.07
419.785	-0.07
419.989	-0.07
420.193	0.02
420.397	-0.01
420.601	0.02
420.804	0.06
421.008	-0.06
421.212	-0.02
421.416	0.04
421.62	-0.06
421.823	-0.01
422.027	0.07
422.231	-0.03
422.435	-0.03
422.638	0.01
422.842	0.02
423.046	-0.04
423.249	0.02
423.453	0.01
423.657	-0.02
423.86	-0.05
424.064	-0.01
424.268	0
424.471	-0
424.675	0.08
424.878	0.06
425.082	-0.04
425.285	0.04
425.489	-0.03
425.692	-0.05
425.896	-0.03
426.099	0
426.303	-0.1
426.506	-0.07
426.71	-0.01
426.913	0.01
427.116	0.08
427.32	-0.01
427.523	-0.01
427.726	0.06
427.93	-0.09
428.133	-0.04
428.336	-0.06
428.54	-0.01
428.743	0.02
428.946	0.01
429.149	-0.02
429.353	-0.02
429.556	-0.05
429.759	-0.07
429.962	-0.03
430.165	-0.02
430.368	-0.02
430.571	-0.01
430.775	0.04
430.978	-0.04
431.181	-0.02
431.384	-0.01
431.587	0.02
431.79	-0.05
431.993	0.02
432.196	-0.06
432.399	-0.04
432.602	0.02
432.805	-0.06
433.008	-0.1
433.211	-0.08
433.414	0.03
433.616	-0.04
433.819	-0.05
434.022	-0.05
434.225	0.04
434.428	0.01
434.631	0.08
434.833	0
435.036	-0.01
435.239	-0.01
435.442	-0.01
435.645	-0.03
435.847	-0
436.05	0.03
436.253	0.06
436.455	-0.05
436.658	-0.02
436.861	0.06
437.063	-0.08
437.266	-0.06
437.468	0.03
437.671	0.05
437.874	-0
438.076	-0.08
438.279	-0.07
438.481	-0.01
438.684	-0.06
438.886	-0.01
439.089	-0.12
439.291	-0.02
439.494	-0.01
439.696	-0.04
439.899	-0.04
440.101	0
440.303	-0.09
440.506	-0.01
440.708	0.03
440.91	0.04
441.113	-0.08
441.315	-0
441.517	-0.1
441.72	-0
441.922	-0.03
442.124	-0.04
442.326	-0.01
442.529	0.02
442.731	-0.01
442.933	0.05
443.135	-0.03
443.337	-0.06
443.539	-0.05
443.742	-0.04
443.944	0
444.146	-0.08
444.348	-0.05
444.55	-0.01
444.752	-0.04
444.954	-0.05
445.156	-0.03
445.358	-0.04
445.56	0.01
445.762	-0.03
445.964	-0.04
446.166	-0.07
446.368	-0.12
446.57	0.01
446.772	-0
446.974	-0.03
447.175	-0.02
447.377	-0.08
447.579	-0.04
447.781	-0.13
447.983	0.04
448.184	-0.02
448.386	0.01
448.588	-0.09
448.79	-0.01
448.991	-0.04
449.193	-0.01
449.395	-0.01
449.597	0.01
449.798	-0
450	0.03
450.202	-0.04
450.403	-0.04
450.605	0.03
450.806	-0.02
451.008	-0.07
451.21	-0.02
451.411	0.01
451.613	-0.01
451.814	-0.01
452.016	0.03
452.217	0.01
452.419	0.03
452.62	0.02
452.821	0.02
453.023	0.05
453.224	0.01
453.426	0
453.627	-0.03
453.828	0.08
454.03	-0.05
454.231	-0.01
454.432	-0.06
454.634	0.06
454.835	-0.01
455.036	-0.07
455.238	0.04
455.439	0.04
455.64	-0.09
455.841	-0.02
456.042	0.09
456.244	0.04
456.445	-0.02
456.646	-0.1
456.847	-0.04
457.048	0.03
457.249	0.06
457.45	0.13
457.651	-0.1
457.852	-0
458.054	-0.01
458.255	-0.01
458.456	0.02
458.657	0.03
458.858	-0.03
459.058	-0.01
459.259	-0.01
459.46	-0.04
459.661	-0.01
459.862	0.1
460.063	-0.02
460.264	0.04
460.465	-0.07
460.666	0.08
460.866	-0.03
461.067	-0.04
461.268	-0.01
461.469	-0.03
461.67	-0
461.87	-0.07
462.071	-0.03
462.272	-0.07
462.473	-0
462.673	0.02
462.874	-0.02
463.075	0.02
463.275	-0.08
463.476	-0.02
463.676	0.02
463.877	-0.01
464.078	-0.01
464.278	0.01
464.479	-0.02
464.679	-0.05
464.88	-0.05
465.08	0.02
465.281	-0.09
465.481	-0.08
465.682	-0.01
465.882	0.05
466.083	-0.03
466.283	-0.03
466.483	0.01
466.684	-0.06
466.884	-0.06
467.085	-0
467.285	0.02
467.485	-0.05
467.686	0.01
467.886	-0.06
468.086	-0.02
468.286	-0.02
468.487	0.04
468.687	-0.06
468.887	0.04
469.087	0.04
469.287	-0
469.488	-0.06
469.688	0.06
469.888	0.01
470.088	0.03
470.288	0.02
470.488	-0.02
470.688	-0.07
470.888	-0.05
471.088	-0.02
471.288	0.01
471.488	0.01
471.688	-0
471.888	-0.03
472.088	0.04
472.288	0.05
472.488	-0.01
472.688	-0.01
472.888	0
473.088	-0.02
473.288	-0
473.488	0
473.688	0.07
473.887	-0.01
474.087	-0.03
474.287	-0.02
474.487	-0.04
474.687	0.03
474.886	-0.03
475.086	-0
475.286	0.02
475.486	-0.03
475.685	-0.03
475.885	-0.02
476.085	0.02
476.284	0.01
476.484	-0.02
476.684	0
476.883	0.04
477.083	0.01
477.282	-0.01
477.482	0.04
477.681	0.03
477.881	0.01
478.08	-0.03
478.28	-0.03
478.479	0.04
478.679	0.05
478.878	-0.02
479.078	-0.04
479.277	-0.01
479.477	-0.04
479.676	-0.02
479.875	-0.01
480.075	-0.03
480.274	0.01
480.473	0.03
480.673	-0.04
480.872	0.04
481.071	0.04
481.271	0.01
481.47	-0.03
481.669	-0.01
481.868	-0.02
482.067	-0.04
482.267	-0.02
482.466	-0.07
482.665	-0.02
482.864	-0.04
483.063	-0.05
483.262	0
483.461	0.02
483.661	0.01
483.86	-0.01
484.059	-0.02
484.258	0
484.457	-0.01
484.656	0.02
484.855	0.03
485.054	-0.05
485.253	-0.03
485.452	-0.03
485.651	-0.01
485.849	0
486.048	-0.03
486.247	-0.05
486.446	-0
486.645	-0.05
486.844	-0.02
487.043	-0.02
487.241	0.04
487.44	-0.05
487.639	-0.02
487.838	0.01
488.037	-0.01
488.235	0.01
488.434	-0.01
488.633	-0.03
488.831	0
489.03	0.03
489.229	-0.01
489.427	-0
489.626	0.02
489.825	0.04
490.023	0
490.222	-0.01
490.42	0.03
490.619	0.03
490.817	0.01
491.016	-0
491.214	0.03
491.413	-0.01
491.611	-0
491.81	-0
492.008	0.02
492.207	0.01
492.405	0.01
492.604	-0.04
492.802	-0.01
493	-0.01
493.199	-0.02
493.397	0.01
493.595	-0.02
493.794	-0.02
493.992	0.04
494.19	-0.01
494.388	0.01
494.587	-0.03
494.785	-0.02
494.983	-0.04
495.181	-0
495.379	-0.02
495.578	-0.03
495.776	-0
495.974	0
496.172	-0.02
496.37	-0.02
496.568	-0.04
496.766	-0.01
496.964	0.02
497.162	-0.02
497.36	-0.03
497.558	0.02
497.756	0.02
497.954	-0.01
498.152	-0.05
498.35	-0
498.548	-0.02
498.746	0.01
498.944	-0.01
499.142	-0.02
499.34	-0.04
499.538	-0
499.736	-0.04
499.933	0.03
500.131	0.05
500.329	-0.01
500.527	0.02
500.725	0.03
500.922	0
501.12	0.02
501.318	-0.01
501.516	-0.01
501.713	-0.01
501.911	-0.01
502.109	-0.03
502.306	0.01
502.504	-0.01
502.701	-0.04
502.899	-0.01
503.097	0.03
503.294	-0.03
503.492	-0.02
503.689	-0
503.887	0.01
504.084	0.03
504.282	-0.01
504.479	-0.02
504.677	-0
504.874	-0.04
505.072	0.01
505.269	-0.01
505.466	0
505.664	0.01
505.861	-0.05
506.059	-0.04
506.256	0.01
506.453	-0.02
506.651	0.03
506.848	0.01
507.045	0
507.242	0.01
507.44	-0.01
507.637	-0.03
507.834	-0.01
508.031	0.03
508.229	-0.04
508.426	-0.02
508.623	-0.01
508.82	-0
509.017	-0.02
509.214	-0
509.411	-0.01
509.608	-0.03
509.805	-0
510.003	-0.02
510.2	-0.02
510.397	0.01
510.594	-0.03
510.791	-0.04
510.988	-0.02
511.184	0.03
511.381	-0.01
511.578	-0.02
511.775	0
511.972	-0.02
512.169	-0.02
512.366	0
512.563	-0.01
512.76	-0.04
512.956	-0.01
513.153	-0.02
513.35	0.02
513.547	-0.02
513.744	-0.02
513.94	-0.05
514.137	0.01
514.334	0
514.53	-0.01
514.727	0
514.924	0.05
515.12	-0.03
515.317	-0.04
515.514	-0.03
515.71	-0.01
515.907	-0
516.103	-0
516.3	0.01
516.497	0.02
516.693	0.03
516.89	-0
517.086	-0.03
517.283	0.05
517.479	0.02
517.676	-0
517.872	0.01
518.068	-0.03
518.265	-0.03
518.461	-0.01
518.658	-0.03
518.854	0
519.05	-0.01
519.247	-0.02
519.443	0
519.639	0.02
519.836	0.02
520.032	0.01
520.228	0
520.424	0.01
520.621	0.01
520.817	0.01
521.013	0.01
521.209	0.01
521.405	0.03
521.601	-0.01
521.798	-0
521.994	0.04
522.19	-0.01
522.386	-0.05
522.582	-0.01
522.778	-0.02
522.974	-0.02
523.17	0
523.366	-0
523.562	0
523.758	-0.02
523.954	-0.01
524.15	-0.02
524.346	0.03
524.542	-0.01
524.738	-0.03
524.934	-0.01
525.129	-0.02
525.325	-0
525.521	-0.04
525.717	0.01
525.913	-0
526.109	-0
526.304	-0
526.5	0.02
526.696	0
526.892	0
527.087	0
527.283	-0.04
527.479	0
527.674	-0.03
527.87	-0.01
528.066	-0
528.261	0.01
528.457	0.01
528.653	-0.02
528.848	-0.02
529.044	0
529.239	-0.03
529.435	0.02
529.63	-0
529.826	0.02
530.021	0.01
530.217	0.01
530.412	-0.01
530.608	-0.01
530.803	-0
530.999	-0.01
531.194	-0.05
531.389	0.02
531.585	-0.05
531.78	-0.02
531.975	0
532.171	0.01
532.366	-0.02
532.561	-0.01
532.757	-0.02
532.952	-0.01
533.147	0.01
533.342	-0
533.538	-0.02
533.733	0.01
533.928	0
534.123	-0.02
534.318	-0.03
534.513	-0.01
534.709	0.01
534.904	-0.01
535.099	-0.02
535.294	-0.01
535.489	-0.01
535.684	-0
535.879	-0.03
536.074	0.01
536.269	-0.03
536.464	-0.01
536.659	-0.02
536.854	-0.02
537.049	0.01
537.244	-0.02
537.439	-0.03
537.634	0.04
537.828	0.01
538.023	0
538.218	-0.03
538.413	-0
538.608	-0.03
538.803	0.01
538.997	-0.04
539.192	0.02
539.387	0.02
539.582	-0
539.776	0
539.971	-0.01
540.166	-0.01
540.36	-0.03
540.555	0
540.75	-0.04
540.944	-0.02
541.139	-0.05
541.334	-0.03
541.528	-0
541.723	0.01
541.917	-0.01
542.112	-0.04
542.306	-0.02
542.501	-0.01
542.695	0
542.89	-0.02
543.084	0.01
543.279	-0.03
543.473	-0.02
543.668	-0.02
543.862	-0.01
544.056	-0.01
544.251	-0
544.445	0.01
544.64	-0.01
544.834	-0.02
545.028	0
545.222	0.01
545.417	0.01
545.611	-0.01
545.805	-0
546	-0.03
546.194	0
546.388	-0.01
546.582	0.02
546.776	-0.02
546.97	-0.01
547.165	-0
547.359	0
547.553	-0.02
547.747	-0
547.941	-0.01
548.135	-0.01
548.329	0.01
548.523	-0
548.717	0
548.911	-0.03
549.105	-0
549.299	-0.01
549.493	0.01
549.687	0.01
549.881	-0
550.075	0
550.269	-0.03
550.463	-0
550.657	-0.05
550.85	-0.02
551.044	-0.02
551.238	-0.01
551.432	-0.04
551.626	-0.02
551.82	-0.01
552.013	-0.04
552.207	-0
552.401	0.02
552.594	-0.01
552.788	-0.01
552.982	-0.02
553.176	-0.03
553.369	0.01
553.563	-0.01
553.756	-0.05
553.95	-0.02
554.144	-0.02
554.337	0
554.531	0
554.724	-0.02
554.918	0.01
555.111	0.03
555.305	0.02
555.498	0.03
555.692	0.02
555.885	-0.03
556.079	0
556.272	-0.03
556.466	0.03
556.659	0.01
556.852	-0.01
557.046	-0.02
557.239	0.03
557.432	-0
557.626	-0.03
557.819	0.01
558.012	0.02
558.206	0.02
558.399	-0.01
558.592	0.01
558.785	-0.01
558.979	0
559.172	-0.01
559.365	0
559.558	-0.02
559.751	0.01
559.944	-0.02
560.138	-0.01
560.331	-0.01
560.524	-0
560.717	0
560.91	-0.03
561.103	-0.01
561.296	-0.01
561.489	0.01
561.682	0
561.875	0.01
562.068	0.02
562.261	-0
562.454	0.03
562.647	0
562.84	0.02
563.032	-0.02
563.225	-0
563.418	-0.01
563.611	-0.03
563.804	-0.01
563.997	-0.02
564.19	-0.03
564.382	-0.04
564.575	-0.02
564.768	-0.01
564.961	-0.01
565.153	-0.03
565.346	-0.01
565.539	0.03
565.731	0.02
565.924	0.01
566.117	-0
566.309	0.01
566.502	-0.02
566.695	-0.03
566.887	-0.01
567.08	-0.03
567.272	-0.03
567.465	-0
567.657	-0
567.85	0.01
568.042	-0
568.235	0.04
568.427	-0.01
568.62	-0.02
568.812	-0.02
569.005	-0
569.197	-0.06
569.389	0
569.582	0
569.774	0.01
569.966	-0.03
570.159	-0.05
570.351	-0.01
570.543	-0.03
570.736	-0
570.928	-0.05
571.12	0.01
571.312	0
571.505	-0.02
571.697	0.02
571.889	-0.04
572.081	-0.01
572.273	-0.04
572.465	0.02
572.658	-0.01
572.85	0
573.042	-0.01
573.234	-0.01
573.426	0.03
573.618	-0.03
573.81	0
574.002	0.01
574.194	0.02
574.386	-0.05
574.578	-0.08
574.77	-0.03
574.962	-0.01
575.154	-0.04
575.346	-0.02
575.538	-0
575.729	-0.03
575.921	-0.01
576.113	-0
576.305	0.03
576.497	0.01
576.689	-0.01
576.88	-0.04
577.072	0.01
577.264	-0.01
577.456	-0
577.647	-0.07
577.839	-0.01
578.031	0.03
578.223	-0.04
578.414	-0.04
578.606	0.01
578.798	-0
578.989	-0.05
579.181	-0.04
579.372	-0.02
579.564	-0.02
579.755	-0.01
579.947	0.02
580.139	0
580.33	-0.07
580.522	-0.03
580.713	-0.07
580.905	-0.01
581.096	0.01
581.287	-0
581.479	-0.02
581.67	0.01
581.862	-0.01
582.053	-0.03
582.244	-0.05
582.436	-0.01
582.627	0
582.818	-0.01
583.01	-0.04
583.201	0.03
583.392	0
583.583	-0
583.775	-0.02
583.966	-0.03
584.157	-0.02
584.348	-0.02
584.54	-0.03
584.731	-0
584.922	0.01
585.113	-0.03
585.304	-0.01
585.495	0.02
585.686	-0.01
585.877	-0.03
586.068	-0.02
586.259	0.02
586.45	-0.01
586.641	-0.03
586.832	-0.06
587.023	-0
587.214	-0.02
587.405	-0.01
587.596	-0.04
587.787	0.02
587.978	-0.01
588.169	-0.05
588.36	-0
588.551	0.01
588.742	-0.05
588.932	-0.01
589.123	-0.01
589.314	0.03
589.505	0.02
589.696	0
589.886	-0.04
590.077	-0.04
590.268	0.01
590.458	-0.02
590.649	-0.04
590.84	0.01
591.03	-0.05
591.221	-0.03
591.412	-0.03
591.602	0.01
591.793	0.03
591.984	-0.04
592.174	-0.04
592.365	0.03
592.555	-0.02
592.746	0.02
592.936	0.02
593.127	0.01
593.317	0.04
593.508	-0.01
593.698	-0.04
593.889	0.01
594.079	-0.02
594.269	-0.02
594.46	0.02
594.65	-0
594.84	0.01
595.031	-0.01
595.221	-0.04
595.411	-0.04
595.602	0.04
595.792	-0.01
595.982	-0.04
596.172	0.03
596.363	-0.01
596.553	0
596.743	-0
596.933	-0.01
597.123	0.01
597.314	-0.02
597.504	-0.03
597.694	0.03
597.884	0.02
598.074	0.01
598.264	-0.02
598.454	-0.01
598.644	0.02
598.834	-0.01
599.024	-0.04
599.214	-0.01
599.404	0.03
599.594	-0.02
599.784	-0.03
599.974	0.04
600.164	0.02
600.354	-0.02
600.544	-0.03
600.734	-0.01
600.924	0.05
601.114	-0.03
601.303	-0
601.493	0.01
601.683	-0.01
601.873	0.02
602.063	-0.05
602.252	0.03
602.442	-0.06
602.632	-0.02
602.821	-0.02
603.011	0.01
603.201	-0.01
603.39	-0.03
603.58	-0.02
603.77	0
603.959	0.03
604.149	-0.01
604.339	-0.04
604.528	0.04
604.718	0.03
604.907	0
605.097	-0.01
605.286	-0.05
605.476	0.02
605.665	0.03
605.855	0
606.044	0.04
606.234	0.01
606.423	-0.01
606.612	-0.04
606.802	0.03
606.991	0.02
607.181	0
607.37	-0.06
607.559	-0.02
607.749	-0.05
607.938	0.02
608.127	0
608.316	0
608.506	0.01
608.695	0.01
608.884	-0.02
609.073	-0.01
609.263	0.02
609.452	0.02
609.641	0
609.83	-0.03
610.019	-0.01
610.208	-0
610.397	0.01
610.586	0.03
610.775	0.01
610.965	-0.01
611.154	-0.01
611.343	0.01
611.532	0
611.721	0
611.91	0
612.099	0.01
612.287	-0
612.476	-0.02
612.665	0.01
612.854	-0.03
613.043	0.03
613.232	0
613.421	-0.04
613.61	0.02
613.798	0.02
613.987	0.05
614.176	0.01
614.365	0.03
614.554	0.02
614.742	0.03
614.931	-0
615.12	0.07
615.309	0.02
615.497	0.05
615.686	0
615.875	0
616.063	0.04
616.252	0.01
616.44	0.02
616.629	0.02
616.818	0.06
617.006	0.02
617.195	0.02
617.383	0.08
617.572	0.05
617.76	0
617.949	0.01
618.137	0.06
618.326	0.09
618.514	-0.01
618.703	0.02
618.891	0.08
619.079	-0.01
619.268	0.07
619.456	-0
619.644	0.05
619.833	0.03
620.021	0.01
620.209	-0
620.398	0.08
620.586	0.05
620.774	0.06
620.962	0.04
621.151	0.11
621.339	0.02
621.527	-0.01
621.715	0.05
621.903	0.04
622.092	0
622.28	0.06
622.468	0.05
622.656	0.04
622.844	0.08
623.032	0.04
623.22	0.03
623.408	0.09
623.596	0.06
623.784	0.09
623.972	0.04
624.16	0.08
624.348	0.11
624.536	0.07
624.724	0.06
624.912	0.11
625.1	0.11
625.288	0.05
625.476	0.07
625.664	0.08
625.851	0.08
626.039	0.08
626.227	0.11
626.415	0.1
626.603	0.04
626.79	0.08
626.978	0.1
627.166	0.15
627.354	0.12
627.541	0.07
627.729	0.04
627.917	0.17
628.104	0.16
628.292	0.1
628.48	0.07
628.667	0.11
628.855	0.13
629.042	0.14
629.23	0.11
629.418	0.15
629.605	0.1
629.793	0.14
629.98	0.12
630.168	0.13
630.355	0.15
630.543	0.15
630.73	0.13
630.917	0.17
631.105	0.21
631.292	0.11
631.48	0.13
631.667	0.22
631.854	0.17
632.042	0.15
632.229	0.1
632.416	0.16
632.604	0.17
632.791	0.15
632.978	0.22
633.165	0.21
633.353	0.21
633.54	0.24
633.727	0.12
633.914	0.16
634.101	0.22
634.289	0.26
634.476	0.16
634.663	0.17
634.85	0.23
635.037	0.16
635.224	0.16
635.411	0.26
635.598	0.27
635.785	0.24
635.972	0.24
636.159	0.27
636.346	0.21
636.533	0.24
636.72	0.22
636.907	0.25
637.094	0.28
637.281	0.25
637.468	0.27
637.655	0.27
637.842	0.26
638.029	0.28
638.215	0.33
638.402	0.3
638.589	0.26
638.776	0.31
638.963	0.29
639.149	0.38
639.336	0.37
639.523	0.32
639.709	0.31
639.896	0.36
640.083	0.4
640.27	0.4
640.456	0.34
640.643	0.4
640.829	0.36
641.016	0.36
641.203	0.32
641.389	0.41
641.576	0.42
641.762	0.42
641.949	0.36
642.135	0.42
642.322	0.44
642.508	0.39
642.695	0.48
642.881	0.42
643.068	0.46
643.254	0.47
643.441	0.53
643.627	0.53
643.813	0.48
644	0.55
644.186	0.5
644.372	0.51
644.559	0.59
644.745	0.56
644.931	0.54
645.118	0.6
645.304	0.6
645.49	0.57
645.676	0.58
645.862	0.62
646.049	0.7
646.235	0.65
646.421	0.78
646.607	0.73
646.793	0.72
646.979	0.68
647.165	0.75
647.352	0.74
647.538	0.78
647.724	0.77
647.91	0.81
648.096	0.84
648.282	0.83
648.468	0.81
648.654	0.9
648.84	0.86
649.026	0.89
649.212	0.89
649.397	0.9
649.583	0.86
649.769	0.97
649.955	0.98
650.141	1.01
650.327	0.98
650.513	0.99
650.698	1.08
650.884	0.98
651.07	1.1
651.256	1.04
651.442	1.07
651.627	1.11
651.813	1.12
651.999	1.16
652.184	1.19
652.37	1.15
652.556	1.22
652.741	1.29
652.927	1.17
653.113	1.27
653.298	1.26
653.484	1.32
653.669	1.27
653.855	1.27
654.04	1.38
654.226	1.34
654.412	1.32
654.597	1.34
654.782	1.43
654.968	1.45
655.153	1.49
655.339	1.44
655.524	1.46
655.71	1.49
655.895	1.53
656.08	1.53
656.266	1.59
656.451	1.56
656.636	1.53
656.822	1.62
657.007	1.57
657.192	1.63
657.378	1.55
657.563	1.57
657.748	1.6
657.933	1.61
658.118	1.54
658.304	1.63
658.489	1.63
658.674	1.6
658.859	1.58
659.044	1.58
659.229	1.55
659.414	1.52
659.599	1.5
659.785	1.48
659.97	1.46
660.155	1.47
660.34	1.43
660.525	1.38
660.71	1.34
660.895	1.35
661.08	1.32
661.264	1.2
661.449	1.25
661.634	1.21
661.819	1.19
662.004	1.13
662.189	0.94
662.374	0.99
662.559	0.96
662.743	0.88
662.928	0.91
663.113	0.86
663.298	0.77
663.483	0.81
663.667	0.75
663.852	0.72
664.037	0.76
664.221	0.69
664.406	0.73
664.591	0.64
664.775	0.62
664.96	0.6
665.145	0.54
665.329	0.52
665.514	0.46
665.698	0.5
665.883	0.38
666.068	0.45
666.252	0.44
666.437	0.39
666.621	0.41
666.806	0.4
666.99	0.34
667.174	0.34
667.359	0.38
667.543	0.3
667.728	0.29
667.912	0.23
668.096	0.31
668.281	0.23
668.465	0.26
668.649	0.29
668.834	0.22
669.018	0.23
669.202	0.24
669.387	0.2
669.571	0.28
669.755	0.17
669.939	0.14
670.124	0.21
670.308	0.27
670.492	0.25
670.676	0.17
670.86	0.16
671.044	0.13
671.228	0.18
671.413	0.13
671.597	0.13
671.781	0.07
671.965	0.16
672.149	0.14
672.333	0.12
672.517	0.08
672.701	0.13
672.885	0.07
673.069	0.06
673.253	0.14
673.437	0.09
673.621	0.04
673.804	0.05
673.988	0.08
674.172	0.07
674.356	0
674.54	0.06
674.724	0.15
674.908	0.08
675.091	0.12
675.275	0.05
675.459	0.1
675.643	0.05
675.826	0.02
676.01	0.06
676.194	0.02
676.377	0.08
676.561	0.06
676.745	0.05
676.928	0.06
677.112	0.05
677.296	-0.01
677.479	-0.01
677.663	0.01
677.846	0.07
678.03	0.01
678.213	0.02
678.397	0.05
678.58	-0.01
678.764	0.04
678.947	0.01
679.131	0.02
679.314	0.04
679.498	-0.01
679.681	0.02
679.865	0.02
680.048	0.02
680.231	0.03
680.415	-0.01
680.598	-0.01
680.781	0.01
680.965	-0.02
681.148	0.05
681.331	-0
681.514	0.05
681.698	-0.01
681.881	-0.02
682.064	0
682.247	-0.04
682.43	-0.04
682.614	0.04
682.797	0.05
682.98	0.07
683.163	-0.01
683.346	0.07
683.529	0.01
683.712	-0.01
683.895	0.03
684.078	-0.06
684.261	-0.04
684.444	0.01
684.627	-0.01
684.81	-0
684.993	-0
685.176	0.03
685.359	-0.02
685.542	-0.02
685.725	0.1
685.908	0
686.091	-0.03
686.274	-0
686.457	0.04
686.639	-0
686.822	0.01
687.005	-0.05
687.188	0.01
687.371	0.06
687.553	0.03
687.736	-0.03
687.919	0.11
688.102	0.06
688.284	0.01
688.467	0.03
688.65	-0.02
688.832	-0.03
689.015	-0
689.197	-0.08
689.38	0.09
689.563	0.1
689.745	-0.04
689.928	-0.04
690.11	-0.01
690.293	-0.03
690.475	-0.07
690.658	0.04
690.84	-0.04
691.023	-0.03
691.205	0.01
691.388	0.01
691.57	0.06
691.752	0.01
691.935	-0.11
692.117	-0.04
692.3	0.01
692.482	0.03
692.664	-0.01
692.847	-0
693.029	0.07
693.211	0.04
693.393	0.01
693.576	-0.01
693.758	-0.02
693.94	-0.01
694.122	0
694.304	-0.02
694.487	-0.03
694.669	0.09
694.851	0
695.033	-0
695.215	-0.06
695.397	-0.03
695.579	0.03
695.761	-0.03
695.943	-0.05
696.125	0.08
696.308	0.03
696.49	-0.12
696.671	0.08
696.853	-0.03
697.035	0.05
697.217	-0.07
697.399	0.04
697.581	-0.08
697.763	-0.03
697.945	-0.06
698.127	0.01
698.309	0.06
698.491	-0.04
698.672	0.05
698.854	0.02
699.036	0.06
699.218	-0.07
699.399	0.05
699.581	0
699.763	-0.03
699.945	-0.07
700.126	-0.04
700.308	0.05
700.49	-0.02
700.671	-0.09
700.853	-0.1
701.035	-0.02
701.216	0
701.398	-0.06
701.579	-0.04
701.761	-0.01
701.943	-0.07
702.124	-0
702.306	-0.05
702.487	0.14
702.669	-0.01
702.85	-0.08
703.031	-0.07
703.213	0.02
703.394	0.02
703.576	-0.03
703.757	0.07
703.938	0.06
704.12	0.13
704.301	0.01
704.483	-0.03
704.664	0.03
704.845	0.04
705.026	-0.01
705.208	0.04
705.389	-0.02
705.57	0.03
705.751	-0.04
705.933	-0.04
706.114	0.03
706.295	0
706.476	-0.12
706.657	0.02
706.838	-0
707.02	0.04
707.201	-0.05
707.382	-0.04
707.563	0.07
707.744	-0.02
707.925	-0.03
708.106	-0.05
708.287	0.03
708.468	0.04
708.649	-0.08
708.83	0.02
709.011	0
709.192	0.04
709.373	-0.05
709.554	-0.02
709.734	0.04
709.915	0.02
710.096	0.02
710.277	-0.15
710.458	-0.07
710.639	0.08
710.819	-0.12
711	-0.05
711.181	0
711.362	-0.03
711.542	0
711.723	0.01
711.904	0
712.085	0.01
712.265	-0.06
712.446	-0.06
712.627	-0.03
712.807	-0.04
712.988	0.01
713.168	-0.07
713.349	0.01
713.53	-0.16
713.71	-0.08
713.891	-0.03
714.071	-0.08
714.252	-0.07
714.432	-0.06
714.613	-0.08
714.793	-0.01
714.974	0.05
715.154	-0
715.334	0.02
715.515	0.04
715.695	-0.1
715.876	-0.01
716.056	-0.01
716.236	-0.03
716.417	-0.01
716.597	-0.06
716.777	0.09
716.957	-0.08
717.138	-0.04
717.318	0.04
717.498	-0.08
717.678	-0.05
717.859	-0.05
718.039	-0.12
718.219	-0.01
718.399	-0
718.579	-0.06
718.759	-0.09
718.939	0.03
719.12	-0.06
719.3	0.01
719.48	-0.1
719.66	-0.07
719.84	0.12
720.02	-0.03
720.2	-0.09
720.38	-0.05
720.56	0.03
720.74	-0.05
720.92	-0.07
721.1	0.06
721.279	0.07
721.459	-0.01
721.639	-0.15
721.819	-0.01
721.999	-0
722.179	0.05
722.359	-0.09
722.538	-0.03
722.718	-0.04
722.898	0.01
723.078	-0.03
723.257	-0.03
723.437	0.02
723.617	0.02
723.797	-0
723.976	-0.04
724.156	0.05
724.336	-0.02
724.515	0.07
724.695	-0.14
724.874	0.02
725.054	0.01
725.234	-0.11
725.413	0.03
725.593	-0.07
725.772	-0.11
725.952	0.02
726.131	-0.05
726.311	-0.01
726.49	-0.04
726.67	-0.08
726.849	-0.07
727.028	0
727.208	-0.05
727.387	-0.05
727.567	-0.08
727.746	-0
727.925	-0.06
728.105	-0.15
728.284	-0.1
728.463	-0.08
728.643	-0
728.822	-0.08
729.001	-0.01
729.18	0
729.359	0.06
729.539	-0.04
729.718	-0.01
729.897	0.02
730.076	-0.01
730.255	-0.15
730.434	0.01
730.614	-0.03
730.793	0
730.972	-0.07
731.151	-0.13
731.33	0
731.509	-0.03
731.688	-0.02
731.867	-0.02
732.046	-0.15
732.225	0.07
732.404	-0.12
732.583	-0.13
732.762	-0.1
732.941	-0.02
733.12	0.02
733.298	-0.05
733.477	0.04
733.656	-0.09
733.835	-0.14
734.014	0.07
734.193	-0.02
734.371	-0.04
734.55	0.04
734.729	-0.1
734.908	0.02
735.086	0.03
735.265	0.08
735.444	-0.21
735.623	-0.11
735.801	-0.07
735.98	0.04
736.159	-0.07
736.337	0.01
736.516	0.02
736.694	-0.12
736.873	-0.09
737.052	0.05
737.23	0
737.409	-0.05
737.587	0.06
737.766	-0.23
737.944	-0.05
738.123	0.1
738.301	0.05
738.479	-0.06
738.658	-0.03
738.836	-0.22
739.015	-0.05
739.193	0.01
739.371	-0.11
739.55	-0.03
739.728	-0.01
739.906	0.05
740.085	0.14
740.263	-0.11
740.441	-0.19
740.62	0.14
740.798	0.08
740.976	-0.14
741.154	-0.11
741.332	0.06
741.511	-0.07
741.689	0.03
741.867	0.07
742.045	-0.07
742.223	-0.03
742.401	-0.05
742.579	-0.16
742.757	-0.05
742.935	-0.11
743.114	-0.05
743.292	-0.04
743.47	-0.05
743.648	-0.01
743.826	-0.06
744.004	0
744.181	-0.07
744.359	-0.1
744.537	-0.1
744.715	-0.16
744.893	-0.07
745.071	-0.11
745.249	-0.08
745.427	-0.06
745.605	-0.01
745.782	0.02
745.96	0.03
746.138	-0
746.316	0.06
746.493	-0.14
746.671	-0.02
746.849	-0.12
747.027	0.15
747.204	-0.15
747.382	-0
747.56	-0.23
747.737	0
747.915	-0.15
748.093	0.02
748.27	-0.08
748.448	-0.19
748.625	-0.14
748.803	-0.2
748.98	0.05
749.158	-0.03
749.335	0
749.513	-0.13
749.69	-0.01
749.868	0.04
750.045	0.04
750.223	-0.14
750.4	-0.16
750.578	0.25
750.755	-0.04
750.932	-0.19
751.11	0.06
751.287	-0.2
751.464	0.09
751.642	-0.17
751.819	-0.03
751.996	-0.07
752.173	-0.11
752.351	-0.14
752.528	0.04
752.705	-0.05
752.882	-0.08
753.06	0.02
753.237	-0.04
753.414	0.09
753.591	0.03
753.768	-0.09
753.945	-0.05
754.122	-0.05
754.299	-0.05
754.476	-0.1
754.654	-0.05
754.831	0
755.008	-0.08
755.185	-0.07
755.362	-0.1
755.539	0.08
755.716	-0.17
755.892	-0.06
756.069	-0.01
756.246	0.01
756.423	-0.07
756.6	0.12
756.777	-0.04
756.954	0.12
757.131	-0.04
757.307	-0.1
757.484	-0.12
757.661	-0.01
757.838	-0.04
758.015	-0.1
758.191	0.06
758.368	-0.05
758.545	0.16
758.721	-0.04
758.898	-0.1
759.075	0.05
759.251	0.02
759.428	-0.06
759.605	-0.16
759.781	0.06
759.958	0.07
760.134	0.04
760.311	-0.11
760.488	0.02
760.664	0.19
760.841	0.04
761.017	-0.18
761.194	0
761.37	-0.04
761.547	0.01
761.723	0.06
761.899	0.13
762.076	-0.14
762.252	-0.11
762.429	-0.04
762.605	0.06
762.781	-0.06
762.958	0.1
763.134	-0.17
763.31	-0.15
763.486	0.02
763.663	-0.18
763.839	0.05
764.015	-0.13
764.191	-0.15
764.368	-0.02
764.544	-0.11
764.72	0.01
764.896	0.06
765.072	-0.01
765.248	-0.08
765.425	-0.03
765.601	-0.12
765.777	0.02
765.953	-0.19
766.129	-0.02
766.305	-0.29
766.481	0.08
766.657	0.03
766.833	0.12
767.009	-0.08
767.185	-0.17
767.361	-0.1
767.537	-0.07
767.713	0.07
767.889	-0.14
768.065	-0.06
768.24	-0.07
768.416	0.04
768.592	-0.08
768.768	-0.19
768.944	0.01
769.12	-0.14
769.295	0.04
769.471	-0.02
769.647	-0.04
769.823	0.15
769.998	-0.17
770.174	-0.04
770.35	0.08
770.525	0.15
770.701	0.04
770.877	0.07
771.052	-0.07
771.228	0.02
771.403	-0.02
771.579	0.01
771.755	0.27
771.93	-0.11
772.106	-0.14
772.281	-0.22
772.457	0.03
772.632	-0.05
772.808	-0.1
772.983	0.02
773.159	-0.18
773.334	0.12
773.509	-0.04
773.685	-0.11
773.86	0.21
774.036	0.09
774.211	0.11
774.386	-0.08
774.562	-0.04
774.737	-0.14
774.912	-0.26
775.087	0.13
775.263	-0.09
775.438	-0.1
775.613	-0.11
775.788	-0.03
775.964	0.02
776.139	0.18
776.314	-0.22
776.489	-0.01
776.664	0.06
776.839	-0.13
777.014	0.11
777.19	0.1
777.365	0.11
777.54	0.2
777.715	-0.02
777.89	0.04
778.065	-0.15
778.24	0.02
778.415	0.19
778.59	-0.16
778.765	-0.17
778.94	0.05
779.115	-0.19
779.289	-0.01
779.464	-0.03
779.639	-0.05
779.814	-0.3
779.989	-0.09
780.164	0.12
780.339	-0.12
780.513	-0.24
780.688	-0.1
780.863	-0.03
781.038	-0.02
781.212	-0.08
781.387	0.05
781.562	0.23
781.737	-0.04
781.911	0.02
782.086	-0.23
782.261	0.01
782.435	0.35
782.61	-0.14
782.784	0.09
782.959	0.01
783.134	-0.24
783.308	-0.24
783.483	-0.02
783.657	0.29
783.832	0.03
784.006	-0.46
784.181	-0.08
784.355	0.16
784.53	-0.31
784.704	-0.1
784.878	0.11
785.053	0.2
785.227	0.12
785.402	0.38
785.576	-0.39
785.75	-0.18
785.925	-0.16
786.099	-0.08
786.273	0.05
786.448	0.13
786.622	0.18
786.796	-0.13
786.97	-0.04
787.145	0.38
787.319	-0.44
787.493	-0.09
787.667	-0.24
787.841	-0.14
788.015	0.11
788.19	0
788.364	0.18
788.538	0.07
788.712	0.34
788.886	-0.07
789.06	0.12
789.234	0.18
789.408	-0.22
789.582	-0.19
789.756	-0.05
789.93	-0.36
790.104	-0.06
790.278	-0.21
790.452	-0.16
790.626	0.11
790.8	-0.26
790.973	0.22
791.147	0.22
791.321	0.18
791.495	0.27
791.669	0.09
791.843	-0.07
792.016	0.15
792.19	0.37
792.364	-0.37
792.538	0.38
792.711	0.23
792.885	-0.09
793.059	-0.22
793.233	-0.4
793.406	0.05
793.58	-0
793.754	-0.1
793.927	-0.14
794.101	0.31
794.274	-0.02
794.448	0.07
794.622	-0.2
794.795	0.17
794.969	-0.16
795.142	0.3
795.316	-0.12
795.489	-0.2
795.663	0.42
795.836	-0.07
796.009	-0.26
796.183	0.37
796.356	0.21
796.53	0.16
796.703	-0.02
796.876	0.48
797.05	-0.07
797.223	-0.14
797.396	0.21
797.57	-0.03
797.743	0.43
797.916	0.09
798.09	-0.13
798.263	0.27
798.436	-0.09
798.609	-0.16
798.782	-0.26
798.956	-0.39
799.129	0.04
799.302	-0.22
799.475	-0.41
799.648	-0.32
799.821	-0.17
799.994	-0.02
800.167	-0.5
800.34	0.11
800.514	0.06
800.687	0.03
800.86	-0.1
801.033	-0.19
801.206	0.2
801.379	-0.02
801.551	0.35
801.724	0.15
801.897	0.27
802.07	-0.28
802.243	-0.35
802.416	-0.1
802.589	-0.13
802.762	0.08
802.935	-0.02
803.107	0.25
803.28	0.58
803.453	0.25
803.626	-0.36
803.798	-0.08
803.971	-0.06
804.144	0.09
804.317	0.13
804.489	0.35
804.662	-0.17
804.835	-0.08
805.007	-0.24
805.18	0.05
805.353	-0.15
805.525	-0.45
805.698	-0.22
805.87	0.1
806.043	0.08
806.215	-0.48
806.388	-0.41
806.56	0.01
806.733	0.23
806.905	0.1
807.078	-0.24
807.25	-0.31
807.423	0.28
807.595	-0.26
807.768	-0
807.94	0.41
808.112	0.37
808.285	-0.49
808.457	-0.4
808.629	-0.28
808.802	0.02
808.974	-0.19
809.146	-0.22
809.318	-0.24
809.491	-0.15
809.663	0.25
809.835	-0.24
810.007	-0.05
810.18	0.03
810.352	-0.54
810.524	-0.29
810.696	0.03
810.868	0.32
811.04	-0.42
811.212	-0.38
811.384	0.42
811.556	-0.19
811.728	-0.16
811.901	0.16
812.073	-0.38
812.245	-0.17
812.417	-0.36
812.589	-0.43
812.76	-0.16
812.932	0.04
813.104	0.26
813.276	-0.1
813.448	0.44
813.62	-0.08
813.792	0.07
813.964	-0.22
814.136	0.08
814.307	-0.06
814.479	-0.08
814.651	-0.45
814.823	0.69
814.995	-0.06
815.166	0.24
815.338	-0.19
815.51	-0.36
815.681	0.65
815.853	0.02
816.025	-0.2
816.196	0.46
816.368	0.2
816.54	-0.82
816.711	-0.01
816.883	0.01
817.054	1.06
817.226	-0.6
817.398	0.03
817.569	-0.24
817.741	-0.28
817.912	-0.19
818.084	0.02
818.255	-0.04
818.426	0.06
818.598	0.01
818.769	-0.37
818.941	0.09
819.112	0.28
819.283	0.08
819.455	-0.66
819.626	-0.18
819.798	0.2
819.969	-0.12
820.14	-0.05
820.311	-0.33
820.483	0.01
820.654	-0.14
820.825	-0.3
820.996	-0.12
821.168	-0.45
821.339	-0.35
821.51	-0.21
821.681	-0.24
821.852	-0.03
822.023	-0.3
822.195	-0.19
822.366	0.17
822.537	0.21
822.708	-0.18
822.879	-0.22
823.05	0.68
823.221	-0.45
823.392	0.32
823.563	0.01
823.734	-0.37
823.905	-0.05
824.076	-0.21
824.247	-0.75
824.418	-0.11
824.589	0.72
824.759	-0.21
824.93	-0.03
825.101	-0.45
825.272	0.4
825.443	0.57
825.614	0.44
825.784	-0.57
825.955	0.81
826.126	0.55
826.297	-0.02
826.467	0.21
826.638	0.29
826.809	-1.23
826.98	0.08
827.15	0.53
827.321	0.02
827.492	0.63
827.662	0.02
827.833	1.21
828.003	-0.28
828.174	-0.59
828.345	-0.56
828.515	0.01
828.686	0.06
828.856	-0.22
829.027	-0.38
829.197	0.3
829.368	0.19
829.538	-0.71
829.709	-0.83
829.879	0.1
830.049	0
830.22	0.05
830.39	0.02
830.56	0.51
830.731	0.08
830.901	-0.83
831.072	0.07
831.242	0.05
831.412	-0.23
831.582	-0.62
831.753	-0.65
831.923	0.9
832.093	0.07
832.263	-0.2
832.434	-0.26
832.604	0.22
832.774	0.23
832.944	-0.21
833.114	-0.09
833.284	0.43
833.454	-0.66
833.624	-0.15
833.795	-0.55
833.965	0.14
834.135	0.37
834.305	-0.79
834.475	-0.88
834.645	-0.55
834.815	-0.71
834.985	-0.55
835.155	-0.29
835.325	0.19
835.494	0.03
835.664	-0.07
835.834	-0.63
836.004	-0.2
836.174	0.01
836.344	0.32
836.514	-0.8
836.684	-0.75
836.853	0.19
837.023	-0.14
837.193	-0.27
837.363	0.41
837.532	0.97
837.702	-0.05
837.872	-0.25
838.041	0.35
838.211	0.75
838.381	-1.44
838.55	0.49
838.72	1.16
838.89	1.01
839.059	-0.17
839.229	-0.47
839.398	1.08
839.568	-0.45
839.738	-0.24
839.907	0.72
840.077	-0.29
840.246	-0.52
840.416	-0.37
840.585	-1.06
840.755	-0.05
840.924	0.5
841.093	-0.5
841.263	-0.38
841.432	0.5
841.602	-1.05
841.771	-0.69
841.94	0.25
842.11	1.5
842.279	1.34
842.448	-0.98
842.617	-1
842.787	0.79
842.956	-0.67
843.125	-0.32
843.294	-0.32
843.464	0.71
843.633	0.57
843.802	-1.01
843.971	0.63
844.14	0.31
844.309	0.53
844.479	-0.45
844.648	-0.72
844.817	-0.76
844.986	-0.63
845.155	-0.59
845.324	-0.06
845.493	0.08
845.662	-0.75
845.831	0.05
846	-0.08
846.169	-0.12
846.338	0.77
846.507	-0.39
846.676	0.36
846.844	-0.73
847.013	0.34
847.182	-0.56
847.351	-1.2
847.52	-0.29
847.689	0.18
847.858	-0.28
848.026	-0.85
848.195	-0.59
848.364	-0.22
848.533	-0.31
848.701	-0.36
848.87	0.17
849.039	-0.22
849.207	0.63
849.376	1.16
849.545	0.4
849.713	-0.58
849.882	-0.29
850.051	-0.29
850.219	-0.61
850.388	-0.19
850.556	-0.95
850.725	-0.58
850.893	0.87
851.062	-0.93
851.23	0.63
851.399	-0.42
851.567	-0.54
851.736	-0.54
851.904	-0.81
852.073	-0.47
852.241	0.51
852.41	0.56
852.578	-1.24
852.746	-0.31
852.915	0.62
853.083	-0.72
853.251	-0.78
853.42	-0.82
853.588	-0.9
853.756	0.49
853.924	0.24
854.093	0.13
854.261	-0.1
854.429	-1.69
854.597	0.03
854.765	-0.94
854.934	0.02
855.102	0.23
855.27	0.06
855.438	0.78
855.606	0.33
855.774	1.1
855.942	-1.95
856.11	-1.58
856.278	-0.69
856.446	0.89
856.614	0.4
856.782	-0.64
856.95	0.68
857.118	-0.18
857.286	0
857.454	-0.74
857.622	0.48
857.79	0.69
857.958	-1.61
858.126	-1.06
858.294	-2.35
858.462	-0.48
858.629	-0.76
858.797	-0.57
858.965	-0.1
859.133	-0.59
859.301	0.37
859.468	1.06
859.636	-1.63
859.804	1.68
859.971	0.96
860.139	-1.01
860.307	1.26
860.474	0.77
860.642	-0.62
860.81	0.08
860.977	-1.88
861.145	-0.28
861.313	0.19
861.48	0.65
861.648	0.62
861.815	-0.48
861.983	-1.39
862.15	-0.57
862.318	0.85
862.485	0.5
862.653	-0.57
862.82	-1.22
862.988	1.16
863.155	-0.36
863.322	-1.17
863.49	-1.31
863.657	-1.21
863.824	1.32
863.992	-0.29
864.159	-0.95
864.326	1.32
864.494	-1.18
864.661	2.52
864.828	-3.12
864.996	1.21
865.163	1.54
865.33	-0.21
865.497	-1.57
865.664	-0.27
865.832	-2.18
865.999	-0.98
866.166	-2.26
866.333	-0.65
866.5	-1.38
866.667	-0.75
866.834	-1.92
867.001	1.75
867.168	-3.26
867.335	0.08
867.502	-1.8
867.669	-0.04
867.836	1.11
868.003	0.65
868.17	0.36
868.337	-0.33
868.504	1.58
868.671	-0.56
868.838	-2.01
869.005	-0.97
869.172	0.21
869.339	-0.92
869.505	0.21
869.672	-1.01
869.839	0.3
870.006	-0.06
870.173	-1.92
870.339	-1.01
870.506	0.87
870.673	-3.19
870.84	1.2
871.006	1.3
871.173	-0.16
871.34	0.31
871.506	-0.75
871.673	0.47
871.839	-0.85
872.006	-0.29
872.173	-1.64
872.339	0.46
872.506	1.38
872.672	-1.24
872.839	-1.45
873.005	-1.23
873.172	1.89
873.338	0.9
873.505	-0.15
873.671	1.69
873.838	0.22
874.004	-1.19
874.171	-2.39
874.337	-0.22
874.503	0.71
874.67	0.17
874.836	-0.95
875.002	2.42
875.169	0.73
875.335	-0.28
875.501	0.35
875.668	0.88
875.834	-0.17
876	-0.37
876.166	1.47
876.332	0.43
876.499	2.1
876.665	-1.23
876.831	-0.34
876.997	2.64
877.163	-1.47
877.329	-0.44
877.495	0.11
877.662	0.15
877.828	1.6
877.994	-0.53
878.16	-2.21
878.326	-1.35
878.492	0.02
878.658	0.15
878.824	-0.98
878.99	0.78
879.156	-2.29
879.322	3.27
879.487	0.36
879.653	-0.11
879.819	-1.02
879.985	-0.72
880.151	1.05
880.317	0.92
880.483	-0.03
880.648	2.97
880.814	-2.48
880.98	0.3
881.146	-3.36
881.312	-2.79
881.477	1.09
881.643	-0.37
881.809	1.83
881.974	0.47
882.14	-2.16
882.306	1.23
882.471	3.37
882.637	-1.35
882.803	-0.07
882.968	3.16
883.134	3.41
883.299	-0.11
883.465	-2.26
883.63	0.39
883.796	0.77
883.961	0.1
884.127	2.05
884.292	-4.56
884.458	-1.27
884.623	-1.27
