Data from Apollo_Calib_20240827__AbsoluteIrradiance__651__10-00-01-678.txt Node

Date: Wed Aug 28 10:00:01 BST 2024
User: biology
Spectrometer: FLMT08252
Trigger mode: 0
Integration Time (sec): 5.000000E-1
Scans to average: 5
Electric dark correction enabled: true
Nonlinearity correction enabled: false
Boxcar width: 0
XAxis mode: Wavelengths
Number of Pixels in Spectrum: 3648
>>>>>Begin Spectral Data<<<<<
179.588	-0
179.809	-0
180.03	-0
180.251	-0
180.473	-0
180.694	0
180.915	0
181.136	-0
181.357	0
181.578	-0
181.799	0
182.02	-0
182.241	0
182.462	-0
182.683	0
182.904	-0
183.125	-0
183.346	0
183.567	0
183.788	-0
184.009	-0
184.23	0
184.451	0
184.672	-0
184.892	-0
185.113	0
185.334	0
185.555	-0
185.776	-0
185.996	0
186.217	0
186.438	0
186.659	-0
186.879	-0
187.1	-0
187.321	-0
187.541	-0
187.762	0
187.983	0
188.203	0
188.424	0
188.644	-0
188.865	0
189.086	0
189.306	-0
189.527	-0
189.747	0
189.968	-0
190.188	0
190.409	-0
190.629	0
190.849	-0
191.07	-0
191.29	0
191.511	-0
191.731	-0
191.951	-0
192.172	-0
192.392	0
192.612	-0
192.833	0
193.053	0
193.273	0
193.493	-0
193.714	0
193.934	0
194.154	0
194.374	0
194.594	0
194.815	0
195.035	0
195.255	0
195.475	-0
195.695	0
195.915	0
196.135	-0
196.355	0
196.575	0
196.795	0
197.015	-0
197.235	-0
197.455	-0
197.675	0
197.895	-0
198.115	-0
198.335	0
198.555	-0
198.775	0
198.995	0
199.214	0
199.434	0
199.654	-0
199.874	0
200.094	0.99
200.313	-0.41
200.533	-0.35
200.753	-0.75
200.973	0.86
201.192	0.45
201.412	-0.74
201.632	-0.09
201.851	0.94
202.071	-0.14
202.291	-0.36
202.51	-0.53
202.73	0.15
202.95	-0.29
203.169	-0.41
203.389	-0.13
203.608	0.39
203.828	-0.29
204.047	0.06
204.267	0.41
204.486	0.31
204.706	0.48
204.925	-0.4
205.145	-0.14
205.364	0.2
205.583	0.6
205.803	-0.25
206.022	-0.32
206.242	0.11
206.461	-0.1
206.68	-0.28
206.9	0.16
207.119	0.48
207.338	0.37
207.557	-0.43
207.777	-0.2
207.996	0.15
208.215	0.58
208.434	-0.12
208.654	-0.42
208.873	0.21
209.092	0.67
209.311	-0.12
209.53	-0.13
209.749	0.08
209.968	0.06
210.187	-0.04
210.407	-0.57
210.626	0.06
210.845	0.46
211.064	0.03
211.283	-0.32
211.502	0.17
211.721	0.07
211.94	-0.09
212.159	0.05
212.377	0.08
212.596	0.21
212.815	0.07
213.034	0.13
213.253	0.42
213.472	0.25
213.691	-0.1
213.91	-0.13
214.128	0.08
214.347	0.3
214.566	-0.09
214.785	-0.21
215.003	0.27
215.222	0.1
215.441	-0.1
215.66	-0.24
215.878	0.05
216.097	0.23
216.316	-0.32
216.534	-0.1
216.753	0.12
216.972	-0.01
217.19	-0.09
217.409	-0.28
217.627	-0.22
217.846	0.06
218.064	0.03
218.283	-0.12
218.501	0.46
218.72	0.26
218.938	-0.33
219.157	-0.05
219.375	0.09
219.594	0.11
219.812	-0.17
220.031	-0.03
220.249	0.32
220.467	0.2
220.686	0.01
220.904	-0.21
221.122	-0.05
221.341	0.33
221.559	0.06
221.777	-0.22
221.995	-0.05
222.214	0.15
222.432	-0.04
222.65	0.09
222.868	0.05
223.086	0.12
223.305	0.14
223.523	-0.06
223.741	0.26
223.959	-0.17
224.177	-0.24
224.395	-0.19
224.613	0.14
224.831	0.14
225.049	-0.07
225.267	-0.08
225.485	0.05
225.703	-0.08
225.921	-0.03
226.139	-0.08
226.357	0.11
226.575	0.06
226.793	-0.06
227.011	0.45
227.229	0.04
227.447	0.16
227.665	-0.11
227.883	-0.13
228.1	0.14
228.318	-0.03
228.536	-0.26
228.754	-0.07
228.972	0.11
229.189	0.14
229.407	-0.14
229.625	0.02
229.843	0.26
230.06	-0.01
230.278	-0.06
230.496	0.05
230.713	0.09
230.931	0.23
231.149	-0.1
231.366	-0.21
231.584	-0.05
231.801	0.44
232.019	-0.06
232.236	-0.07
232.454	-0.17
232.671	0.03
232.889	0.08
233.106	-0.08
233.324	-0.1
233.541	0
233.759	-0.01
233.976	-0.04
234.194	0.07
234.411	-0.11
234.628	-0.02
234.846	-0
235.063	-0.01
235.28	0.01
235.498	0.04
235.715	-0.13
235.932	0.11
236.149	0
236.367	-0.1
236.584	0.01
236.801	0
237.018	0.06
237.236	0.13
237.453	-0.08
237.67	0.14
237.887	-0.01
238.104	-0.01
238.321	-0.05
238.538	-0.13
238.755	0.16
238.973	-0.14
239.19	0.02
239.407	0.06
239.624	0.04
239.841	-0.17
240.058	-0.09
240.275	0.04
240.492	-0.04
240.709	-0.04
240.925	-0.08
241.142	0.06
241.359	-0.04
241.576	-0.02
241.793	-0.09
242.01	0.03
242.227	0.09
242.444	0.08
242.66	0.15
242.877	-0.04
243.094	0.05
243.311	-0.02
243.527	0.07
243.744	0.05
243.961	-0.05
244.178	-0.07
244.394	0.1
244.611	0.18
244.828	0.19
245.044	-0.07
245.261	0.03
245.477	0.08
245.694	0.04
245.911	-0.1
246.127	0.04
246.344	0.11
246.56	-0.01
246.777	0.02
246.993	-0.01
247.21	0.05
247.426	0.09
247.643	-0.08
247.859	-0.02
248.076	-0.01
248.292	0.19
248.508	-0.05
248.725	0.04
248.941	0.09
249.157	0.09
249.374	-0.04
249.59	-0.02
249.806	-0.03
250.023	0.1
250.239	-0.02
250.455	-0.05
250.671	-0.03
250.888	0.08
251.104	0.12
251.32	0.06
251.536	0.03
251.752	-0.01
251.969	0.08
252.185	0.03
252.401	0.21
252.617	-0.03
252.833	-0.01
253.049	0.09
253.265	-0
253.481	0.11
253.697	0.01
253.913	-0.15
254.129	0.04
254.345	-0.05
254.561	-0.05
254.777	0.04
254.993	0.1
255.209	-0.01
255.425	0.03
255.641	-0.05
255.857	0.04
256.073	-0.03
256.288	-0.12
256.504	-0.02
256.72	0.07
256.936	0.09
257.152	-0.12
257.367	-0.07
257.583	0.04
257.799	0.13
258.015	-0.05
258.23	-0.01
258.446	0.1
258.662	0.05
258.877	0.01
259.093	-0.06
259.309	0.11
259.524	0.1
259.74	-0.05
259.955	-0.11
260.171	0.03
260.387	-0.03
260.602	0.09
260.818	0.06
261.033	0.02
261.249	0.05
261.464	-0.01
261.68	-0.08
261.895	0.02
262.11	0.08
262.326	0.02
262.541	-0.1
262.757	0.06
262.972	0.06
263.187	0
263.403	-0
263.618	0.08
263.833	-0.02
264.049	-0.01
264.264	0.03
264.479	0.01
264.694	0.14
264.91	-0.1
265.125	-0.05
265.34	0.06
265.555	0.15
265.77	-0.02
265.986	-0.06
266.201	0.01
266.416	0.05
266.631	0.03
266.846	-0
267.061	0.09
267.276	0.05
267.491	-0.12
267.706	0.05
267.921	0.06
268.136	0.07
268.351	-0.06
268.566	-0.04
268.781	0.07
268.996	0.02
269.211	0.02
269.426	-0.04
269.641	0
269.856	0.09
270.071	-0.03
270.285	-0.08
270.5	0.08
270.715	0.13
270.93	0.03
271.145	0.02
271.359	0.07
271.574	-0.04
271.789	0.01
272.004	-0.1
272.218	0.04
272.433	0.07
272.648	-0.04
272.862	0.07
273.077	0
273.292	-0
273.506	-0.08
273.721	-0.02
273.936	0.02
274.15	0.04
274.365	-0.02
274.579	0.04
274.794	0.05
275.008	0.06
275.223	-0.04
275.437	0.09
275.652	0.09
275.866	0.06
276.081	-0.02
276.295	0.03
276.509	0.01
276.724	-0.01
276.938	0.06
277.153	0.05
277.367	0.05
277.581	0.04
277.796	0
278.01	-0.04
278.224	0.06
278.438	0.2
278.653	-0.03
278.867	0.04
279.081	0.01
279.295	0.01
279.51	0.01
279.724	-0.05
279.938	0.01
280.152	0.08
280.366	-0.04
280.58	-0
280.794	0.1
281.008	0.07
281.222	0.04
281.437	0.16
281.651	0.07
281.865	0.09
282.079	0.02
282.293	-0.04
282.507	-0.01
282.721	-0.04
282.935	-0.01
283.148	-0.11
283.362	-0.04
283.576	-0.08
283.79	0.05
284.004	-0.09
284.218	0.09
284.432	-0.03
284.646	-0.04
284.859	-0.02
285.073	-0.04
285.287	0.06
285.501	-0.02
285.714	0.04
285.928	0.05
286.142	0.03
286.356	-0.03
286.569	-0.02
286.783	0.11
286.997	0.05
287.21	-0
287.424	0.07
287.637	-0.01
287.851	0.04
288.065	0.04
288.278	-0.04
288.492	0.02
288.705	-0.02
288.919	0.04
289.132	-0.09
289.346	0.06
289.559	-0.04
289.773	-0.04
289.986	-0.03
290.2	0.05
290.413	0.11
290.626	-0
290.84	-0.01
291.053	-0.06
291.267	0.07
291.48	0.01
291.693	-0.05
291.906	-0.02
292.12	-0.01
292.333	-0.04
292.546	-0.02
292.76	0.13
292.973	-0
293.186	0.02
293.399	-0.04
293.612	0.06
293.826	0.05
294.039	0.05
294.252	0.01
294.465	0.06
294.678	0.02
294.891	0.03
295.104	-0.04
295.317	0.02
295.53	0.04
295.743	-0.02
295.956	-0.02
296.169	0.09
296.382	0.08
296.595	0
296.808	-0.02
297.021	0.04
297.234	0.05
297.447	0.02
297.66	-0.01
297.873	0.07
298.086	0.02
298.299	-0.02
298.511	-0.04
298.724	0.01
298.937	-0.04
299.15	0.01
299.363	0.02
299.575	0.02
299.788	0.07
300.001	0.04
300.213	-0
300.426	0.04
300.639	-0.02
300.852	-0.05
301.064	0.05
301.277	0.07
301.489	0.04
301.702	0.02
301.915	0.01
302.127	0.02
302.34	0.04
302.552	0.04
302.765	0
302.977	0.02
303.19	-0.01
303.402	0.01
303.615	-0.01
303.827	-0.02
304.04	0.04
304.252	-0.03
304.464	-0.04
304.677	0.14
304.889	0.03
305.102	-0.01
305.314	-0.01
305.526	0.01
305.739	0
305.951	-0.01
306.163	0.01
306.375	0.07
306.588	-0.03
306.8	0.03
307.012	-0.03
307.224	0.02
307.436	0.1
307.649	-0.03
307.861	0.01
308.073	0.05
308.285	0
308.497	-0.01
308.709	0.01
308.921	-0
309.133	0.08
309.346	0.03
309.558	-0
309.77	0.06
309.982	0.07
310.194	0.06
310.406	-0
310.617	0.07
310.829	-0.02
311.041	0.05
311.253	-0.03
311.465	0.01
311.677	0.02
311.889	0.01
312.101	-0.02
312.313	0.08
312.524	0.06
312.736	-0.04
312.948	0.02
313.16	0.09
313.372	0.04
313.583	0.03
313.795	0
314.007	-0.03
314.218	0.06
314.43	-0.02
314.642	-0.01
314.853	-0.05
315.065	-0.01
315.277	0.01
315.488	0.02
315.7	0.02
315.912	0.01
316.123	-0.02
316.335	-0.01
316.546	0.11
316.758	0.03
316.969	0.01
317.181	0.01
317.392	0
317.604	0.07
317.815	-0.03
318.026	-0.01
318.238	-0.03
318.449	-0.02
318.661	-0.03
318.872	-0.02
319.083	-0
319.295	0.06
319.506	-0.03
319.717	0.01
319.929	-0
320.14	-0.02
320.351	0.04
320.562	0.02
320.774	0.06
320.985	0.01
321.196	-0.02
321.407	-0.05
321.618	0
321.829	0.05
322.041	0.01
322.252	0.03
322.463	0.02
322.674	0.05
322.885	-0.03
323.096	-0.02
323.307	-0
323.518	0.03
323.729	-0.04
323.94	-0.02
324.151	-0.03
324.362	0.03
324.573	0.04
324.784	-0.08
324.995	0.08
325.206	0.02
325.417	0.01
325.628	-0.01
325.838	0.05
326.049	0.01
326.26	0.05
326.471	0.02
326.682	0.01
326.892	-0.01
327.103	-0.06
327.314	-0.07
327.525	0.06
327.735	0.06
327.946	0.02
328.157	-0
328.368	-0
328.578	0.01
328.789	0.02
328.999	0.01
329.21	0.02
329.421	0.04
329.631	0.01
329.842	-0.03
330.052	0.09
330.263	0.01
330.473	0.05
330.684	-0.01
330.894	0.01
331.105	0.04
331.315	0.04
331.526	-0.04
331.736	0.04
331.947	0.01
332.157	0.02
332.367	-0.05
332.578	0.05
332.788	0.06
332.999	0.05
333.209	0.01
333.419	-0.06
333.629	0.04
333.84	0.04
334.05	0
334.26	0.05
334.47	0.01
334.681	0.03
334.891	0.03
335.101	0.07
335.311	0.1
335.521	0.02
335.732	0
335.942	0.06
336.152	0.03
336.362	0.01
336.572	0.03
336.782	0.05
336.992	0.01
337.202	0
337.412	-0
337.622	0.05
337.832	0.02
338.042	0.01
338.252	-0.05
338.462	0.03
338.672	0.02
338.882	-0.02
339.092	0.07
339.302	0.05
339.511	0.05
339.721	-0.03
339.931	-0.05
340.141	0.07
340.351	0.07
340.561	0.03
340.77	0.03
340.98	0.01
341.19	0.02
341.4	-0.05
341.609	-0.03
341.819	0.01
342.029	-0.05
342.238	-0.04
342.448	-0.06
342.658	0.04
342.867	0
343.077	0.02
343.286	0.02
343.496	0.01
343.706	0.07
343.915	-0.06
344.125	-0.02
344.334	0.03
344.544	-0.03
344.753	0.06
344.963	0
345.172	0.01
345.381	-0.04
345.591	-0.04
345.8	0.02
346.01	0.09
346.219	0.04
346.428	-0.12
346.638	0.01
346.847	0.02
347.056	0.06
347.266	-0.02
347.475	-0.02
347.684	0.02
347.893	0
348.103	0.04
348.312	-0.03
348.521	-0.01
348.73	0.01
348.94	0
349.149	-0.02
349.358	-0
349.567	-0.03
349.776	-0.03
349.985	0.01
350.194	0.07
350.403	0.06
350.612	-0.06
350.821	-0.01
351.03	0.02
351.239	-0.06
351.448	-0
351.657	0.02
351.866	0.08
352.075	0.01
352.284	0.04
352.493	-0.02
352.702	0.08
352.911	0.05
353.12	0
353.329	0.01
353.538	0.05
353.746	-0.01
353.955	-0
354.164	0.04
354.373	-0
354.582	0.05
354.79	0.01
354.999	0.06
355.208	-0.01
355.416	0.09
355.625	-0.05
355.834	-0.02
356.042	0
356.251	-0.02
356.46	-0.04
356.668	0.03
356.877	0.06
357.085	0.09
357.294	-0.06
357.503	0.04
357.711	0.01
357.92	0.09
358.128	-0.03
358.337	-0.03
358.545	0.03
358.754	0.03
358.962	0.02
359.17	-0
359.379	0.02
359.587	0.05
359.796	-0
360.004	0.04
360.212	0.04
360.421	0.03
360.629	0.02
360.837	0.02
361.046	-0
361.254	0.08
361.462	0.03
361.67	0
361.879	0.01
362.087	0.03
362.295	0.01
362.503	-0.02
362.711	-0.02
362.92	-0.05
363.128	-0.04
363.336	-0
363.544	-0.07
363.752	-0.01
363.96	-0.05
364.168	0.02
364.376	-0
364.584	0.03
364.792	0.05
365	0.08
365.208	-0.02
365.416	0.06
365.624	0.05
365.832	-0.04
366.04	0.04
366.248	0.02
366.456	0.02
366.664	0.03
366.872	0.02
367.079	0
367.287	-0
367.495	0.03
367.703	-0.03
367.911	-0.02
368.118	-0.01
368.326	0.01
368.534	-0.02
368.742	0.07
368.949	-0.04
369.157	0.01
369.365	0.01
369.572	0
369.78	-0.02
369.988	0.02
370.195	0.01
370.403	0.02
370.61	-0.01
370.818	0.01
371.026	0.08
371.233	0
371.441	0.04
371.648	0.03
371.856	0
372.063	-0
372.271	0
372.478	-0.03
372.685	-0.03
372.893	0.05
373.1	-0.02
373.308	0.02
373.515	0.06
373.722	-0.01
373.93	0.01
374.137	0.08
374.344	0.09
374.552	0.07
374.759	0.01
374.966	0
375.173	0.02
375.381	0.07
375.588	0.01
375.795	-0.07
376.002	-0.06
376.209	0
376.417	-0.04
376.624	0
376.831	0.05
377.038	-0.01
377.245	-0.05
377.452	-0.02
377.659	-0.01
377.866	-0.03
378.073	0.01
378.28	0.01
378.487	0.02
378.694	0.06
378.901	0.03
379.108	0.02
379.315	0.03
379.522	0.06
379.729	0.04
379.936	-0.02
380.143	0.03
380.35	0.03
380.557	0.02
380.763	-0
380.97	-0.01
381.177	0.05
381.384	0.06
381.591	-0.05
381.797	0.02
382.004	0.05
382.211	0.05
382.418	-0.03
382.624	0.04
382.831	0.03
383.038	-0.02
383.244	-0.06
383.451	-0.01
383.658	0.05
383.864	0.02
384.071	-0.02
384.277	0.04
384.484	-0.02
384.69	0.04
384.897	-0.02
385.103	0.02
385.31	-0.02
385.516	-0.02
385.723	-0.05
385.929	0.01
386.136	-0.02
386.342	0.03
386.549	-0
386.755	0.05
386.961	-0
387.168	-0.01
387.374	0
387.58	0.05
387.787	-0
387.993	0.04
388.199	0.01
388.406	-0.02
388.612	-0.02
388.818	0.01
389.024	-0.02
389.231	0.02
389.437	0.08
389.643	0.03
389.849	-0
390.055	0
390.261	-0.03
390.467	0.04
390.674	-0.01
390.88	0.05
391.086	0.05
391.292	-0.02
391.498	0.04
391.704	0.03
391.91	0.02
392.116	-0.06
392.322	-0.12
392.528	-0.03
392.734	-0.03
392.94	0.01
393.146	-0.02
393.352	0.03
393.557	0.01
393.763	-0
393.969	0.06
394.175	-0.01
394.381	0.02
394.587	-0.01
394.792	-0.03
394.998	0.01
395.204	0.04
395.41	-0.03
395.615	0.04
395.821	0.02
396.027	0.04
396.233	-0.03
396.438	-0.01
396.644	0.04
396.85	0
397.055	-0.04
397.261	0.03
397.466	0.07
397.672	0.02
397.878	0.06
398.083	0.03
398.289	-0.02
398.494	0.05
398.7	0.04
398.905	-0.09
399.111	0.09
399.316	-0.06
399.522	0.01
399.727	0.04
399.932	-0.02
400.138	0.02
400.343	0.08
400.549	0.04
400.754	0.07
400.959	0.06
401.165	-0.01
401.37	0.06
401.575	0.02
401.78	0.01
401.986	-0.01
402.191	0.04
402.396	0.01
402.601	0.05
402.807	-0.01
403.012	0.02
403.217	0.06
403.422	0.01
403.627	0.01
403.832	-0
404.037	-0
404.243	0.04
404.448	-0.04
404.653	-0.02
404.858	0.01
405.063	0.05
405.268	-0.02
405.473	-0.03
405.678	-0.02
405.883	0.11
406.088	0.02
406.293	-0.01
406.498	-0.02
406.703	0.04
406.907	0.01
407.112	-0.03
407.317	0.01
407.522	0.05
407.727	-0.04
407.932	0.04
408.136	0.13
408.341	-0.03
408.546	0.04
408.751	0.02
408.956	-0.02
409.16	0.03
409.365	-0.01
409.57	0.02
409.774	0.02
409.979	0.07
410.184	0.04
410.388	-0.03
410.593	0.05
410.798	0.04
411.002	-0.01
411.207	0.05
411.411	0.02
411.616	-0.02
411.82	0.01
412.025	-0.02
412.229	-0.03
412.434	0.1
412.638	0.05
412.843	-0.06
413.047	0.03
413.252	-0.03
413.456	-0.02
413.66	0.02
413.865	-0.05
414.069	0.07
414.273	-0.03
414.478	-0.04
414.682	-0.01
414.886	-0.01
415.091	-0.04
415.295	-0.09
415.499	-0
415.703	-0.02
415.908	0.02
416.112	-0.06
416.316	0.04
416.52	0.02
416.724	-0.07
416.929	-0.03
417.133	0.08
417.337	-0.01
417.541	-0.02
417.745	0.02
417.949	-0.01
418.153	0.03
418.357	-0.04
418.561	0.03
418.765	-0.02
418.969	0.11
419.173	0
419.377	-0.02
419.581	0.11
419.785	-0.02
419.989	-0.02
420.193	-0.01
420.397	-0.03
420.601	0.05
420.804	0.06
421.008	-0
421.212	0.03
421.416	0.04
421.62	-0.04
421.823	-0.01
422.027	0.12
422.231	0.04
422.435	-0
422.638	0.04
422.842	-0.01
423.046	-0.01
423.249	0.02
423.453	0.04
423.657	0.01
423.86	-0
424.064	0
424.268	0.06
424.471	-0.01
424.675	0.11
424.878	0.04
425.082	0
425.285	0.06
425.489	0.02
425.692	0.02
425.896	-0.04
426.099	0.06
426.303	-0.07
426.506	-0.09
426.71	0.03
426.913	0.02
427.116	0.04
427.32	0.02
427.523	-0.03
427.726	0.1
427.93	-0.05
428.133	0.01
428.336	-0.09
428.54	-0.01
428.743	0.04
428.946	0.02
429.149	-0.05
429.353	0.03
429.556	-0.04
429.759	-0.01
429.962	-0.02
430.165	-0.02
430.368	0.02
430.571	0.01
430.775	0
430.978	-0.02
431.181	0.04
431.384	-0.02
431.587	0.02
431.79	0.02
431.993	-0.05
432.196	-0.05
432.399	-0.01
432.602	0.05
432.805	-0.03
433.008	0.04
433.211	-0.05
433.414	0.01
433.616	-0
433.819	0.02
434.022	-0.04
434.225	0.04
434.428	0.01
434.631	0.09
434.833	0.01
435.036	0.04
435.239	0.04
435.442	-0
435.645	-0.09
435.847	-0.03
436.05	0.09
436.253	0.02
436.455	-0.02
436.658	-0.03
436.861	0.07
437.063	-0
437.266	-0.02
437.468	0.04
437.671	0.12
437.874	-0.02
438.076	-0.04
438.279	-0.08
438.481	0.01
438.684	-0.07
438.886	0.07
439.089	-0.03
439.291	-0.06
439.494	0.06
439.696	-0.03
439.899	-0.01
440.101	0.04
440.303	-0.05
440.506	-0.04
440.708	-0.03
440.91	0.08
441.113	-0.05
441.315	0.04
441.517	-0.06
441.72	0.06
441.922	-0.07
442.124	-0.03
442.326	0.02
442.529	0.06
442.731	-0.03
442.933	0.12
443.135	0.02
443.337	-0
443.539	0.01
443.742	0.01
443.944	0.04
444.146	-0.02
444.348	-0.02
444.55	-0.04
444.752	-0.03
444.954	-0.07
445.156	-0.01
445.358	-0.01
445.56	0.06
445.762	-0.04
445.964	0.03
446.166	-0.04
446.368	-0.01
446.57	0.05
446.772	0.02
446.974	-0.01
447.175	-0.02
447.377	-0
447.579	-0.04
447.781	-0.07
447.983	0.08
448.184	-0.01
448.386	0.02
448.588	-0.06
448.79	0
448.991	-0.02
449.193	-0.03
449.395	-0.05
449.597	0.04
449.798	-0.02
450	0.04
450.202	-0.05
450.403	-0.01
450.605	0.05
450.806	-0.01
451.008	-0.06
451.21	0
451.411	-0.02
451.613	0
451.814	-0.01
452.016	0.03
452.217	-0
452.419	0
452.62	0.01
452.821	0.03
453.023	0.04
453.224	0.01
453.426	-0.02
453.627	0.08
453.828	0.08
454.03	-0.03
454.231	0.03
454.432	-0.02
454.634	0.07
454.835	-0.01
455.036	-0.01
455.238	0.05
455.439	0.1
455.64	-0.03
455.841	-0.03
456.042	0.07
456.244	0.06
456.445	-0.02
456.646	-0.06
456.847	-0
457.048	0.03
457.249	0.02
457.45	0.2
457.651	-0.04
457.852	0.1
458.054	-0.01
458.255	-0.01
458.456	0.06
458.657	0
458.858	-0.03
459.058	0.03
459.259	0.05
459.46	-0.02
459.661	0.01
459.862	0.04
460.063	-0
460.264	0.05
460.465	0.01
460.666	0.11
460.866	0.01
461.067	0
461.268	-0
461.469	-0.02
461.67	-0.03
461.87	-0.03
462.071	-0.05
462.272	-0.02
462.473	-0.02
462.673	0.03
462.874	-0.05
463.075	0.04
463.275	-0.03
463.476	-0
463.676	0.02
463.877	0.01
464.078	-0
464.278	0.04
464.479	-0.01
464.679	-0.06
464.88	-0
465.08	0.07
465.281	-0.05
465.481	-0.02
465.682	-0.04
465.882	0.01
466.083	0
466.283	-0
466.483	-0.04
466.684	-0.03
466.884	0.01
467.085	-0
467.285	0.05
467.485	0
467.686	-0.04
467.886	-0.04
468.086	-0.01
468.286	0.03
468.487	0.02
468.687	-0.03
468.887	0.03
469.087	0.03
469.287	-0.02
469.488	-0.05
469.688	0.01
469.888	-0.02
470.088	-0.01
470.288	0.09
470.488	0.05
470.688	-0.04
470.888	0
471.088	-0.04
471.288	0.05
471.488	0.02
471.688	-0.01
471.888	0
472.088	0.04
472.288	0.08
472.488	-0.06
472.688	-0.01
472.888	0.01
473.088	0.01
473.288	0.04
473.488	-0.03
473.688	0.05
473.887	0.01
474.087	-0
474.287	0.06
474.487	-0.05
474.687	0.04
474.886	-0.02
475.086	-0.01
475.286	0.02
475.486	-0.02
475.685	0.01
475.885	-0.03
476.085	-0.01
476.284	0
476.484	-0.02
476.684	0.01
476.883	0.04
477.083	0.02
477.282	-0.02
477.482	0.05
477.681	0.07
477.881	0.03
478.08	-0.01
478.28	-0.03
478.479	0.01
478.679	0.07
478.878	-0.01
479.078	-0.01
479.277	-0.01
479.477	0
479.676	0.04
479.875	0.02
480.075	-0.04
480.274	0.03
480.473	0.01
480.673	-0.04
480.872	0.06
481.071	-0.02
481.271	0.03
481.47	-0.03
481.669	0.01
481.868	-0.03
482.067	-0.03
482.267	-0.04
482.466	-0.04
482.665	-0.02
482.864	-0.06
483.063	-0.02
483.262	0.01
483.461	0.05
483.661	0.03
483.86	0.01
484.059	-0
484.258	-0.01
484.457	0.01
484.656	0.01
484.855	0.05
485.054	-0.05
485.253	-0.01
485.452	-0.03
485.651	0
485.849	0.02
486.048	-0.01
486.247	-0.04
486.446	-0.01
486.645	-0.01
486.844	-0.01
487.043	-0.01
487.241	0.03
487.44	-0.02
487.639	-0.02
487.838	0.05
488.037	-0.01
488.235	0.04
488.434	0.01
488.633	-0.02
488.831	0.02
489.03	0.04
489.229	0.01
489.427	0
489.626	0.02
489.825	0.05
490.023	-0.01
490.222	-0
490.42	0.01
490.619	0.05
490.817	0.01
491.016	-0
491.214	0.03
491.413	-0.02
491.611	-0.01
491.81	-0
492.008	0.02
492.207	0
492.405	0.02
492.604	-0.02
492.802	-0.01
493	-0.01
493.199	-0.03
493.397	0.01
493.595	-0.02
493.794	-0.01
493.992	0.05
494.19	-0.01
494.388	0.02
494.587	0
494.785	-0
494.983	-0.03
495.181	0.02
495.379	0.02
495.578	-0.03
495.776	0.02
495.974	0.04
496.172	-0
496.37	-0.02
496.568	-0.04
496.766	-0.02
496.964	0.02
497.162	0.02
497.36	-0.02
497.558	0.01
497.756	0.03
497.954	0.02
498.152	-0.01
498.35	-0
498.548	-0.02
498.746	-0.01
498.944	-0.03
499.142	0
499.34	-0.04
499.538	-0.01
499.736	-0.02
499.933	0.02
500.131	0.02
500.329	0.01
500.527	0.03
500.725	0.02
500.922	0.04
501.12	0.01
501.318	-0.01
501.516	-0.04
501.713	0.02
501.911	-0.02
502.109	-0.03
502.306	0.01
502.504	-0.01
502.701	-0.01
502.899	-0.01
503.097	0.03
503.294	-0.02
503.492	-0.02
503.689	0.01
503.887	0.01
504.084	0.04
504.282	0.01
504.479	-0.03
504.677	0
504.874	-0.03
505.072	0.01
505.269	-0
505.466	0.03
505.664	0.01
505.861	-0.02
506.059	-0.04
506.256	0.02
506.453	-0.01
506.651	0.02
506.848	0.02
507.045	0.01
507.242	0.01
507.44	-0.01
507.637	0
507.834	-0.01
508.031	0.03
508.229	-0.02
508.426	-0.01
508.623	0.03
508.82	-0.01
509.017	-0.01
509.214	0
509.411	-0.02
509.608	-0.03
509.805	-0.01
510.003	0.02
510.2	-0.01
510.397	0.03
510.594	-0
510.791	-0.03
510.988	-0.02
511.184	0.03
511.381	0.01
511.578	-0.02
511.775	0.01
511.972	-0.02
512.169	-0.01
512.366	-0.01
512.563	0.02
512.76	-0.02
512.956	0.02
513.153	-0.01
513.35	0.01
513.547	-0.01
513.744	-0.04
513.94	-0.02
514.137	-0
514.334	-0
514.53	-0
514.727	-0
514.924	0.04
515.12	-0.02
515.317	-0.03
515.514	-0.03
515.71	-0.03
515.907	-0.01
516.103	-0
516.3	0.01
516.497	0.03
516.693	0.02
516.89	-0.01
517.086	-0.04
517.283	0
517.479	0.01
517.676	-0.02
517.872	-0.01
518.068	0
518.265	-0.01
518.461	-0.01
518.658	0.01
518.854	0.01
519.05	0
519.247	-0.02
519.443	0.02
519.639	0
519.836	0.01
520.032	0.01
520.228	-0
520.424	0.03
520.621	0.02
520.817	-0
521.013	0.01
521.209	0
521.405	0.05
521.601	0
521.798	0
521.994	0.03
522.19	-0.01
522.386	-0.05
522.582	-0
522.778	0
522.974	-0.01
523.17	0.01
523.366	-0.01
523.562	0.02
523.758	0.02
523.954	-0.04
524.15	-0.01
524.346	0.03
524.542	-0.01
524.738	-0.02
524.934	-0.01
525.129	-0.08
525.325	-0
525.521	0
525.717	0.02
525.913	-0.01
526.109	-0.01
526.304	-0.02
526.5	0.02
526.696	0.03
526.892	0.01
527.087	0.02
527.283	-0.01
527.479	-0
527.674	0
527.87	-0.01
528.066	-0.01
528.261	0.01
528.457	-0
528.653	0.01
528.848	0.01
529.044	0
529.239	0
529.435	0.01
529.63	0.01
529.826	0.04
530.021	0.01
530.217	0.01
530.412	-0.02
530.608	-0
530.803	-0.02
530.999	-0.01
531.194	-0.04
531.389	0
531.585	-0.05
531.78	0.01
531.975	-0.01
532.171	0.03
532.366	0
532.561	0.01
532.757	-0.01
532.952	-0.01
533.147	0.03
533.342	-0.02
533.538	-0.02
533.733	0.02
533.928	0.02
534.123	-0.02
534.318	-0.02
534.513	-0
534.709	0.01
534.904	-0.02
535.099	-0.02
535.294	0
535.489	-0
535.684	-0
535.879	-0.02
536.074	0
536.269	-0.02
536.464	0
536.659	-0.01
536.854	-0.02
537.049	0
537.244	-0.01
537.439	0
537.634	0.05
537.828	-0
538.023	0.01
538.218	-0.03
538.413	0.01
538.608	-0.04
538.803	0.01
538.997	-0.02
539.192	0.02
539.387	0.01
539.582	0
539.776	0.01
539.971	0
540.166	-0.01
540.36	-0.03
540.555	0.02
540.75	-0
540.944	0.01
541.139	-0.03
541.334	-0.02
541.528	-0
541.723	0.02
541.917	0
542.112	-0.04
542.306	-0
542.501	-0.01
542.695	-0
542.89	-0.01
543.084	0.01
543.279	0
543.473	-0
543.668	-0
543.862	0
544.056	0.01
544.251	-0.02
544.445	-0.02
544.64	0
544.834	-0.03
545.028	0
545.222	0.01
545.417	0.02
545.611	0
545.805	0
546	-0.01
546.194	-0.01
546.388	-0.02
546.582	0.02
546.776	0.02
546.97	-0.02
547.165	0.03
547.359	0.02
547.553	-0.03
547.747	0.01
547.941	0.01
548.135	0
548.329	0.04
548.523	-0.01
548.717	-0.02
548.911	-0
549.105	-0
549.299	-0
549.493	0.02
549.687	-0.01
549.881	0.01
550.075	-0.01
550.269	-0.01
550.463	0.02
550.657	-0.02
550.85	0.01
551.044	-0
551.238	-0.01
551.432	-0.01
551.626	-0.03
551.82	0
552.013	-0.03
552.207	0
552.401	0.01
552.594	0
552.788	-0.01
552.982	0
553.176	-0.02
553.369	-0
553.563	0.01
553.756	-0.02
553.95	-0.01
554.144	-0.01
554.337	0.03
554.531	0.01
554.724	0
554.918	-0.01
555.111	0.02
555.305	0.01
555.498	0.05
555.692	0
555.885	-0.01
556.079	0.01
556.272	-0
556.466	0.01
556.659	0.04
556.852	-0.01
557.046	-0.01
557.239	0
557.432	-0.03
557.626	-0.01
557.819	0.03
558.012	0.01
558.206	0.01
558.399	0.01
558.592	-0.01
558.785	-0
558.979	0.02
559.172	-0
559.365	0.02
559.558	0.01
559.751	-0
559.944	0.01
560.138	-0.01
560.331	-0.01
560.524	0
560.717	0
560.91	-0.01
561.103	0
561.296	0
561.489	0.01
561.682	0.01
561.875	0.02
562.068	0.03
562.261	0
562.454	0
562.647	-0
562.84	0.01
563.032	-0.01
563.225	0.02
563.418	-0
563.611	-0.01
563.804	0.01
563.997	-0.01
564.19	-0.04
564.382	-0.03
564.575	-0.02
564.768	-0.01
564.961	0.01
565.153	-0.01
565.346	0.03
565.539	0.03
565.731	0.02
565.924	0.01
566.117	0.02
566.309	-0.02
566.502	-0.01
566.695	-0.01
566.887	0.01
567.08	-0.03
567.272	-0.01
567.465	-0.02
567.657	0.01
567.85	0.01
568.042	-0.01
568.235	0.01
568.427	-0
568.62	0
568.812	0.01
569.005	0
569.197	-0.05
569.389	0.03
569.582	0
569.774	-0
569.966	-0.02
570.159	-0.05
570.351	-0.01
570.543	-0.01
570.736	-0
570.928	-0.05
571.12	0.01
571.312	-0
571.505	-0.02
571.697	0.03
571.889	-0.03
572.081	-0
572.273	-0.01
572.465	0.05
572.658	0
572.85	0.04
573.042	-0.02
573.234	-0.01
573.426	0.03
573.618	-0.02
573.81	0.02
574.002	0.02
574.194	0.04
574.386	-0.05
574.578	-0.09
574.77	-0.02
574.962	-0.01
575.154	-0.01
575.346	-0.01
575.538	0
575.729	-0.02
575.921	-0
576.113	-0.01
576.305	0.02
576.497	-0.02
576.689	-0.01
576.88	-0.02
577.072	0.01
577.264	-0.01
577.456	-0.01
577.647	-0.06
577.839	0.03
578.031	0.01
578.223	-0
578.414	-0.01
578.606	0.01
578.798	-0
578.989	-0.04
579.181	-0.01
579.372	-0
579.564	0.01
579.755	0.01
579.947	0.01
580.139	0.02
580.33	-0.03
580.522	-0
580.713	-0.08
580.905	0
581.096	-0
581.287	-0.01
581.479	0.01
581.67	-0
581.862	-0.01
582.053	-0
582.244	-0.03
582.436	-0.01
582.627	-0.01
582.818	-0.03
583.01	-0.04
583.201	0.02
583.392	0.02
583.583	-0.01
583.775	-0.01
583.966	-0.02
584.157	-0.04
584.348	-0
584.54	-0.05
584.731	0.01
584.922	-0.01
585.113	-0.01
585.304	0.03
585.495	0.01
585.686	-0.02
585.877	0.02
586.068	0.01
586.259	0
586.45	0.02
586.641	-0.01
586.832	-0.03
587.023	0.01
587.214	-0.01
587.405	-0.02
587.596	-0.03
587.787	0.02
587.978	0.01
588.169	-0
588.36	-0.02
588.551	-0
588.742	-0.03
588.932	0.02
589.123	0.02
589.314	0.01
589.505	0
589.696	0.04
589.886	-0.01
590.077	-0.04
590.268	0.02
590.458	-0.04
590.649	-0.04
590.84	0.03
591.03	-0.04
591.221	-0.05
591.412	-0.03
591.602	0.02
591.793	0.02
591.984	-0.03
592.174	-0.03
592.365	0.04
592.555	-0.03
592.746	-0.01
592.936	-0.01
593.127	-0.01
593.317	0.01
593.508	-0.02
593.698	-0.04
593.889	-0
594.079	0.01
594.269	-0.03
594.46	-0
594.65	0.01
594.84	0.01
595.031	-0.04
595.221	-0.02
595.411	-0.04
595.602	0.02
595.792	-0
595.982	-0.02
596.172	0.06
596.363	-0
596.553	0.03
596.743	0
596.933	-0.01
597.123	0.06
597.314	-0.03
597.504	0
597.694	0
597.884	0.01
598.074	-0.01
598.264	-0.02
598.454	0.03
598.644	-0.03
598.834	-0.01
599.024	-0.04
599.214	-0.03
599.404	0.02
599.594	-0.01
599.784	-0.02
599.974	0.07
600.164	0.02
600.354	-0.02
600.544	-0.05
600.734	-0.01
600.924	0.06
601.114	-0.01
601.303	-0.01
601.493	0.01
601.683	-0.01
601.873	0.01
602.063	-0.04
602.252	0.04
602.442	-0.04
602.632	-0.02
602.821	-0.05
603.011	-0
603.201	-0.01
603.39	-0.02
603.58	-0.02
603.77	0.02
603.959	0
604.149	-0.02
604.339	-0.01
604.528	0.06
604.718	0.01
604.907	-0.03
605.097	-0
605.286	-0.06
605.476	0.02
605.665	0.02
605.855	-0.02
606.044	0.04
606.234	0.01
606.423	-0.02
606.612	-0.03
606.802	-0
606.991	0.04
607.181	0.01
607.37	-0.06
607.559	0
607.749	-0.03
607.938	0
608.127	0
608.316	-0.03
608.506	0.01
608.695	0.01
608.884	0
609.073	-0.01
609.263	0.02
609.452	0.02
609.641	-0
609.83	-0.03
610.019	-0.03
610.208	-0.04
610.397	0.01
610.586	0.02
610.775	-0
610.965	-0.03
611.154	-0.02
611.343	-0.02
611.532	0
611.721	-0.01
611.91	-0.01
612.099	0
612.287	-0.04
612.476	-0.04
612.665	0.03
612.854	-0.01
613.043	0.01
613.232	0.02
613.421	-0.07
613.61	0.01
613.798	-0.03
613.987	0.02
614.176	-0.02
614.365	0.03
614.554	0.03
614.742	0.02
614.931	0
615.12	0.04
615.309	-0.02
615.497	0
615.686	-0.01
615.875	-0.03
616.063	0
616.252	-0.01
616.44	-0.02
616.629	-0.03
616.818	0.03
617.006	-0.02
617.195	-0.01
617.383	0
617.572	0.01
617.76	-0
617.949	-0.02
618.137	0.01
618.326	0.03
618.514	-0.03
618.703	-0.04
618.891	0.05
619.079	-0.06
619.268	0.03
619.456	0.01
619.644	0.04
619.833	-0.05
620.021	-0.03
620.209	-0.05
620.398	0.02
620.586	0.01
620.774	0.04
620.962	0.01
621.151	0.06
621.339	0
621.527	-0.06
621.715	-0.05
621.903	-0.02
622.092	-0.04
622.28	0.01
622.468	0.01
622.656	-0.01
622.844	0
623.032	-0
623.22	-0.05
623.408	0.02
623.596	-0
623.784	-0.01
623.972	-0.03
624.16	0
624.348	0.01
624.536	-0.03
624.724	0.01
624.912	0.02
625.1	0.04
625.288	-0.03
625.476	0
625.664	-0.01
625.851	-0.02
626.039	0
626.227	0.03
626.415	0
626.603	-0.06
626.79	-0.01
626.978	-0.02
627.166	0.03
627.354	-0.02
627.541	-0.01
627.729	-0.07
627.917	0.03
628.104	0.04
628.292	0.01
628.48	-0
628.667	0.01
628.855	0
629.042	0.02
629.23	-0.01
629.418	-0
629.605	0
629.793	-0.03
629.98	-0.04
630.168	-0.04
630.355	-0.02
630.543	-0
630.73	-0.03
630.917	0
631.105	0.02
631.292	-0.04
631.48	-0.01
631.667	0.06
631.854	0.02
632.042	-0
632.229	-0.06
632.416	0.01
632.604	-0.01
632.791	-0.03
632.978	0.02
633.165	0.04
633.353	0.07
633.54	0.02
633.727	-0.05
633.914	-0.02
634.101	0.03
634.289	0.06
634.476	-0.01
634.663	-0.04
634.85	0.02
635.037	-0.05
635.224	-0.06
635.411	0.06
635.598	0.03
635.785	-0.02
635.972	-0.01
636.159	0.05
636.346	-0.06
636.533	-0.02
636.72	-0.02
636.907	-0.01
637.094	0.04
637.281	-0.01
637.468	0.01
637.655	-0.04
637.842	0.01
638.029	-0.02
638.215	0
638.402	-0
638.589	-0.03
638.776	-0.01
638.963	-0.01
639.149	0.03
639.336	0.04
639.523	-0.03
639.709	-0.02
639.896	0
640.083	0.04
640.27	0.03
640.456	0
640.643	0.03
640.829	-0.01
641.016	-0.03
641.203	-0.04
641.389	0.03
641.576	-0.01
641.762	0
641.949	-0.03
642.135	0.03
642.322	0.01
642.508	-0.03
642.695	-0.01
642.881	-0.02
643.068	0.01
643.254	0.01
643.441	-0
643.627	-0.03
643.813	-0.02
644	0.04
644.186	-0.02
644.372	-0.05
644.559	0.04
644.745	-0.02
644.931	-0.04
645.118	0.01
645.304	-0.01
645.49	-0.03
645.676	0.01
645.862	-0.01
646.049	0.06
646.235	0.03
646.421	0.04
646.607	0.05
646.793	-0.04
646.979	-0.03
647.165	0.01
647.352	0.03
647.538	0.04
647.724	0.01
647.91	0.02
648.096	0.03
648.282	0.05
648.468	-0
648.654	0.02
648.84	0.01
649.026	-0.04
649.212	-0.01
649.397	-0.01
649.583	-0.03
649.769	0
649.955	0.03
650.141	-0.02
650.327	0.04
650.513	-0.03
650.698	0.05
650.884	-0.08
651.07	-0.01
651.256	0.01
651.442	0.02
651.627	-0.01
651.813	0
651.999	-0.01
652.184	0.01
652.37	-0
652.556	-0.01
652.741	0.09
652.927	-0.04
653.113	0.03
653.298	0.04
653.484	-0.02
653.669	-0.04
653.855	0.01
654.04	0
654.226	-0.01
654.412	-0.02
654.597	-0.04
654.782	0.05
654.968	0.04
655.153	-0.01
655.339	0
655.524	-0.02
655.71	0.03
655.895	-0.01
656.08	-0.01
656.266	0.04
656.451	0.01
656.636	-0.03
656.822	0.01
657.007	-0.03
657.192	0
657.378	-0.04
657.563	0.02
657.748	0.03
657.933	0.06
658.118	-0.03
658.304	-0.01
658.489	0.03
658.674	0.01
658.859	-0.02
659.044	0.02
659.229	0.02
659.414	-0
659.599	-0
659.785	-0.03
659.97	0.03
660.155	0.05
660.34	0.02
660.525	0.01
660.71	0.02
660.895	0.06
661.08	-0.02
661.264	-0.03
661.449	0.06
661.634	0.03
661.819	0.03
662.004	0.05
662.189	-0.05
662.374	-0.02
662.559	-0.01
662.743	-0.03
662.928	0.03
663.113	-0.03
663.298	-0.07
663.483	0.01
663.667	0.05
663.852	-0.01
664.037	0.04
664.221	-0.02
664.406	0.04
664.591	0.01
664.775	0.03
664.96	0.01
665.145	0
665.329	0.03
665.514	-0.01
665.698	0
665.883	-0.05
666.068	0.03
666.252	0.04
666.437	-0.03
666.621	0.03
666.806	0.05
666.99	0.02
667.174	-0.02
667.359	0.05
667.543	0.03
667.728	-0
667.912	-0.04
668.096	0.05
668.281	0.03
668.465	0.02
668.649	0.03
668.834	0.01
669.018	-0.01
669.202	0.03
669.387	0
669.571	0.08
669.755	0.02
669.939	0.02
670.124	0.01
670.308	0.07
670.492	0.04
670.676	0.04
670.86	0.01
671.044	-0.01
671.228	0.08
671.413	-0.01
671.597	-0.04
671.781	-0.01
671.965	0.06
672.149	0.04
672.333	0.03
672.517	-0.04
672.701	0.07
672.885	-0
673.069	-0.04
673.253	0.07
673.437	0.02
673.621	0.02
673.804	0.01
673.988	0.06
674.172	0.04
674.356	0.01
674.54	0.03
674.724	0.14
674.908	0.02
675.091	0.08
675.275	0.03
675.459	0.05
675.643	0.12
675.826	0.04
676.01	0.03
676.194	0.01
676.377	0.08
676.561	0.06
676.745	0.09
676.928	0.09
677.112	0.11
677.296	0.03
677.479	0.02
677.663	0.04
677.846	0.1
678.03	0.04
678.213	0.06
678.397	0.05
678.58	0.06
678.764	0.06
678.947	0.05
679.131	0.03
679.314	0.12
679.498	0.1
679.681	0.07
679.865	0.14
680.048	0.04
680.231	0.05
680.415	0.09
680.598	0.04
680.781	0.02
680.965	0.04
681.148	0.05
681.331	0.05
681.514	0.13
681.698	0.04
681.881	0.14
682.064	0.07
682.247	0.12
682.43	0.01
682.614	0.09
682.797	0.14
682.98	0.12
683.163	0.02
683.346	0.12
683.529	0.07
683.712	0.06
683.895	0.11
684.078	0.04
684.261	0.06
684.444	0.09
684.627	0.11
684.81	0.09
684.993	0.07
685.176	0.11
685.359	0.03
685.542	0.08
685.725	0.15
685.908	0.15
686.091	0.07
686.274	0.15
686.457	0.1
686.639	0.1
686.822	0.12
687.005	0.15
687.188	0.11
687.371	0.22
687.553	0.13
687.736	0.15
687.919	0.2
688.102	0.2
688.284	0.11
688.467	0.14
688.65	0.1
688.832	0.07
689.015	0.15
689.197	0.05
689.38	0.24
689.563	0.22
689.745	0.13
689.928	0.05
690.11	0.14
690.293	0.18
690.475	0.12
690.658	0.2
690.84	0.11
691.023	0.17
691.205	0.16
691.388	0.14
691.57	0.18
691.752	0.22
691.935	0.07
692.117	0.15
692.3	0.2
692.482	0.2
692.664	0.14
692.847	0.22
693.029	0.26
693.211	0.2
693.393	0.19
693.576	0.22
693.758	0.24
693.94	0.19
694.122	0.21
694.304	0.23
694.487	0.19
694.669	0.32
694.851	0.22
695.033	0.25
695.215	0.24
695.397	0.19
695.579	0.31
695.761	0.25
695.943	0.23
696.125	0.32
696.308	0.3
696.49	0.18
696.671	0.38
696.853	0.25
697.035	0.44
697.217	0.28
697.399	0.33
697.581	0.25
697.763	0.31
697.945	0.3
698.127	0.27
698.309	0.39
698.491	0.36
698.672	0.38
698.854	0.29
699.036	0.42
699.218	0.37
699.399	0.44
699.581	0.4
699.763	0.4
699.945	0.31
700.126	0.29
700.308	0.42
700.49	0.31
700.671	0.3
700.853	0.36
701.035	0.38
701.216	0.46
701.398	0.43
701.579	0.39
701.761	0.48
701.943	0.41
702.124	0.46
702.306	0.43
702.487	0.55
702.669	0.52
702.85	0.46
703.031	0.42
703.213	0.64
703.394	0.54
703.576	0.48
703.757	0.68
703.938	0.55
704.12	0.6
704.301	0.53
704.483	0.51
704.664	0.61
704.845	0.62
705.026	0.68
705.208	0.64
705.389	0.68
705.57	0.69
705.751	0.57
705.933	0.7
706.114	0.73
706.295	0.66
706.476	0.6
706.657	0.76
706.838	0.67
707.02	0.74
707.201	0.69
707.382	0.73
707.563	0.66
707.744	0.72
707.925	0.75
708.106	0.78
708.287	0.83
708.468	0.85
708.649	0.84
708.83	0.88
709.011	0.83
709.192	0.96
709.373	0.76
709.554	0.87
709.734	0.95
709.915	0.96
710.096	0.93
710.277	0.82
710.458	1.06
710.639	0.96
710.819	0.92
711	0.94
711.181	1.11
711.362	1.12
711.542	1.03
711.723	1.09
711.904	1.21
712.085	1.11
712.265	1.13
712.446	1.08
712.627	1.15
712.807	1.26
712.988	1.18
713.168	1.15
713.349	1.28
713.53	1.11
713.71	1.25
713.891	1.22
714.071	1.36
714.252	1.32
714.432	1.3
714.613	1.27
714.793	1.44
714.974	1.61
715.154	1.5
715.334	1.53
715.515	1.57
715.695	1.5
715.876	1.53
716.056	1.63
716.236	1.61
716.417	1.64
716.597	1.65
716.777	1.96
716.957	1.72
717.138	1.8
717.318	1.68
717.498	1.72
717.678	1.9
717.859	1.93
718.039	1.79
718.219	1.97
718.399	1.99
718.579	2
718.759	2.03
718.939	2.16
719.12	2.13
719.3	2.15
719.48	2.08
719.66	2.08
719.84	2.34
720.02	2.33
720.2	2.31
720.38	2.47
720.56	2.56
720.74	2.31
720.92	2.6
721.1	2.61
721.279	2.66
721.459	2.65
721.639	2.64
721.819	2.69
721.999	2.74
722.179	2.81
722.359	2.68
722.538	2.85
722.718	2.87
722.898	3.06
723.078	3.04
723.257	3.1
723.437	3.04
723.617	3.27
723.797	3.24
723.976	3.23
724.156	3.43
724.336	3.43
724.515	3.59
724.695	3.37
724.874	3.53
725.054	3.6
725.234	3.53
725.413	3.62
725.593	3.55
725.772	3.72
725.952	3.79
726.131	3.76
726.311	3.84
726.49	3.87
726.67	3.84
726.849	3.92
727.028	3.99
727.208	3.94
727.387	4.25
727.567	4.17
727.746	4.24
727.925	4.2
728.105	4.17
728.284	4.37
728.463	4.45
728.643	4.52
728.822	4.44
729.001	4.59
729.18	4.61
729.359	4.79
729.539	4.81
729.718	4.8
729.897	4.96
730.076	4.98
730.255	4.96
730.434	4.99
730.614	5.27
730.793	5.18
730.972	5.28
731.151	5.38
731.33	5.43
731.509	5.5
731.688	5.51
731.867	5.61
732.046	5.48
732.225	5.83
732.404	5.8
732.583	5.78
732.762	6.01
732.941	6.17
733.12	6.15
733.298	6.03
733.477	6.09
733.656	6.15
733.835	6.34
734.014	6.54
734.193	6.35
734.371	6.43
734.55	6.51
734.729	6.34
734.908	6.39
735.086	6.54
735.265	6.58
735.444	6.32
735.623	6.5
735.801	6.64
735.98	6.72
736.159	6.56
736.337	6.66
736.516	6.67
736.694	6.44
736.873	6.55
737.052	6.93
737.23	6.52
737.409	6.42
737.587	6.68
737.766	6.09
737.944	6.3
738.123	6.46
738.301	6.3
738.479	6.27
738.658	6.14
738.836	5.78
739.015	6.05
739.193	5.8
739.371	5.57
739.55	5.47
739.728	5.37
739.906	5.63
740.085	5.45
740.263	5.3
740.441	4.94
740.62	5.31
740.798	4.85
740.976	4.59
741.154	4.49
741.332	4.69
741.511	4.29
741.689	4.12
741.867	4.13
742.045	3.82
742.223	3.72
742.401	3.64
742.579	3.51
742.757	3.49
742.935	3.15
743.114	3.2
743.292	3.04
743.47	3.01
743.648	3.09
743.826	2.74
744.004	2.88
744.181	2.61
744.359	2.48
744.537	2.6
744.715	2.39
744.893	2.4
745.071	2.26
745.249	2.21
745.427	2.04
745.605	2.06
745.782	1.92
745.96	1.92
746.138	1.85
746.316	1.82
746.493	1.73
746.671	1.66
746.849	1.54
747.027	1.8
747.204	1.5
747.382	1.45
747.56	1.34
747.737	1.42
747.915	1.27
748.093	1.36
748.27	1.22
748.448	1.2
748.625	1.04
748.803	1.05
748.98	0.96
749.158	1.08
749.335	1.14
749.513	0.95
749.69	0.86
749.868	0.99
750.045	0.9
750.223	0.88
750.4	0.7
750.578	0.87
750.755	0.8
750.932	0.67
751.11	0.8
751.287	0.57
751.464	0.79
751.642	0.65
751.819	0.61
751.996	0.46
752.173	0.64
752.351	0.47
752.528	0.74
752.705	0.55
752.882	0.5
753.06	0.51
753.237	0.63
753.414	0.7
753.591	0.62
753.768	0.52
753.945	0.39
754.122	0.39
754.299	0.55
754.476	0.36
754.654	0.51
754.831	0.43
755.008	0.45
755.185	0.36
755.362	0.2
755.539	0.39
755.716	0.18
755.892	0.32
756.069	0.38
756.246	0.31
756.423	0.28
756.6	0.39
756.777	0.28
756.954	0.35
757.131	0.2
757.307	0.21
757.484	0.14
757.661	0.33
757.838	0.28
758.015	0.11
758.191	0.32
758.368	0.17
758.545	0.36
758.721	0.22
758.898	0.24
759.075	0.23
759.251	0.28
759.428	0.16
759.605	0.06
759.781	0.09
759.958	0.22
760.134	0.29
760.311	0.07
760.488	0.27
760.664	0.29
760.841	0.17
761.017	0.1
761.194	0.18
761.37	0.3
761.547	0.2
761.723	0.06
761.899	0.36
762.076	0.05
762.252	0.01
762.429	0.08
762.605	0.3
762.781	0.02
762.958	0.21
763.134	0.08
763.31	0.04
763.486	0.14
763.663	-0.08
763.839	0.2
764.015	-0.02
764.191	0.04
764.368	0.08
764.544	0
764.72	0.2
764.896	0.17
765.072	0.24
765.248	0.11
765.425	0.09
765.601	0.17
765.777	0.17
765.953	-0.1
766.129	0.05
766.305	0
766.481	0.1
766.657	0.05
766.833	0.26
767.009	-0.03
767.185	0.05
767.361	0.08
767.537	0.03
767.713	0.27
767.889	-0.02
768.065	0.1
768.24	0.19
768.416	0.13
768.592	-0.08
768.768	0.1
768.944	0.04
769.12	-0.03
769.295	0.06
769.471	0.06
769.647	0.07
769.823	0.03
769.998	-0.03
770.174	-0.02
770.35	0.22
770.525	0.25
770.701	0.14
770.877	0.02
771.052	0.01
771.228	0.19
771.403	0.19
771.579	0.1
771.755	0.18
771.93	0.01
772.106	-0.09
772.281	-0.17
772.457	0.07
772.632	0.01
772.808	0
772.983	-0.03
773.159	-0.13
773.334	0.28
773.509	0.05
773.685	-0.02
773.86	0.45
774.036	0.24
774.211	0.1
774.386	-0.11
774.562	-0.01
774.737	0.06
774.912	-0.1
775.087	0.12
775.263	0.1
775.438	0.27
775.613	0.01
775.788	0.05
775.964	0.29
776.139	0.36
776.314	-0.12
776.489	0.19
776.664	0.13
776.839	-0.08
777.014	0.18
777.19	0.16
777.365	0.35
777.54	0.3
777.715	-0.18
777.89	-0.02
778.065	-0.16
778.24	0.06
778.415	0.18
778.59	-0.22
778.765	0.04
778.94	0
779.115	-0.13
779.289	-0.01
779.464	0.03
779.639	0
779.814	-0.08
779.989	-0.14
780.164	0.16
780.339	0.08
780.513	0.07
780.688	-0.03
780.863	-0.07
781.038	0.12
781.212	-0.03
781.387	0.07
781.562	0.35
781.737	-0.08
781.911	0.2
782.086	-0.07
782.261	-0.19
782.435	0.37
782.61	0.08
782.784	-0.04
782.959	0.24
783.134	0.11
783.308	-0.24
783.483	-0.02
783.657	0.26
783.832	0.11
784.006	-0.3
784.181	0.05
784.355	0.24
784.53	-0.2
784.704	-0.05
784.878	0.41
785.053	0.07
785.227	0.3
785.402	0.15
785.576	-0.16
785.75	0.09
785.925	-0.3
786.099	0.02
786.273	0.04
786.448	0.11
786.622	0.11
786.796	-0.03
786.97	-0.2
787.145	0.42
787.319	-0.22
787.493	-0.05
787.667	-0.13
787.841	0.02
788.015	0.36
788.19	-0.05
788.364	0.15
788.538	0.18
788.712	0.19
788.886	0.22
789.06	0.31
789.234	0.2
789.408	-0.22
789.582	0.09
789.756	0.03
789.93	-0.1
790.104	-0.12
790.278	-0.05
790.452	-0.06
790.626	0.1
790.8	-0.15
790.973	0.2
791.147	0.34
791.321	0.33
791.495	0.18
791.669	0.07
791.843	0.25
792.016	-0.06
792.19	0.35
792.364	-0.23
792.538	0.6
792.711	0.25
792.885	-0.1
793.059	-0.21
793.233	-0.56
793.406	0.17
793.58	0.12
793.754	0.06
793.927	-0.11
794.101	0.26
794.274	-0.12
794.448	0.37
794.622	-0.25
794.795	0.14
794.969	-0.14
795.142	0.35
795.316	-0.08
795.489	-0.17
795.663	0.46
795.836	-0.08
796.009	-0.23
796.183	0.08
796.356	0.07
796.53	0.24
796.703	0.1
796.876	0.66
797.05	-0.22
797.223	0.22
797.396	0.16
797.57	0.11
797.743	0.37
797.916	0
798.09	-0.06
798.263	0.35
798.436	0.04
798.609	0.16
798.782	-0.09
798.956	0.22
799.129	0.01
799.302	-0.04
799.475	-0.24
799.648	-0.08
799.821	0.2
799.994	0.08
800.167	-0.38
800.34	0.11
800.514	0.07
800.687	0.04
800.86	-0.12
801.033	0.04
801.206	0.35
801.379	-0.07
801.551	0.27
801.724	0.13
801.897	0.4
802.07	-0.03
802.243	-0.51
802.416	0.21
802.589	-0.28
802.762	0.32
802.935	0.15
803.107	0.16
803.28	0.15
803.453	-0.01
803.626	-0.19
803.798	0.15
803.971	-0.16
804.144	0.37
804.317	0.18
804.489	0.23
804.662	-0.02
804.835	0.11
805.007	-0.11
805.18	0.11
805.353	0.05
805.525	-0.19
805.698	-0.14
805.87	0.42
806.043	0.36
806.215	-0.31
806.388	0
806.56	0.27
806.733	0.2
806.905	0.07
807.078	-0.31
807.25	-0.23
807.423	0.26
807.595	0.04
807.768	0.13
807.94	0.28
808.112	-0.02
808.285	-0.05
808.457	-0.17
808.629	-0.12
808.802	0.48
808.974	0.04
809.146	-0.12
809.318	-0.33
809.491	0.06
809.663	0.16
809.835	-0.13
810.007	0.5
810.18	-0.06
810.352	-0.33
810.524	-0.32
810.696	0.16
810.868	0.35
811.04	0.38
811.212	-0.03
811.384	0.57
811.556	0.01
811.728	0.2
811.901	0.67
812.073	-0.3
812.245	0.45
812.417	-0.12
812.589	-0.58
812.76	0.18
812.932	0.03
813.104	0.44
813.276	-0.08
813.448	0.54
813.62	0.36
813.792	0.13
813.964	-0.3
814.136	-0.07
814.307	-0.09
814.479	-0.28
814.651	0.09
814.823	0.91
814.995	-0.04
815.166	0.15
815.338	0.47
815.51	-0.41
815.681	1.16
815.853	-0.01
816.025	0.06
816.196	1.08
816.368	0.7
816.54	-0.2
816.711	-0.65
816.883	0.26
817.054	1.05
817.226	-0.44
817.398	0.34
817.569	-0.19
817.741	0.26
817.912	-0.2
818.084	-0.08
818.255	-0.03
818.426	0.03
818.598	-0.51
818.769	-0.34
818.941	0.53
819.112	0.8
819.283	0.43
819.455	-0.46
819.626	0.14
819.798	0.13
819.969	0.35
820.14	0.32
820.311	0.15
820.483	0.54
820.654	0.08
820.825	0.23
820.996	-0.17
821.168	-0.28
821.339	-0.05
821.51	-0.29
821.681	-0.41
821.852	0.11
822.023	-0.43
822.195	-0.5
822.366	0.09
822.537	0.1
822.708	-0.09
822.879	-0.42
823.05	0.08
823.221	-0.05
823.392	0.69
823.563	0.2
823.734	0.42
823.905	0.29
824.076	-0.28
824.247	-0.5
824.418	0.15
824.589	1.08
824.759	-0
824.93	-0.05
825.101	-0.45
825.272	0.43
825.443	0.83
825.614	0.36
825.784	-0.88
825.955	0.69
826.126	0.63
826.297	-0.3
826.467	0.6
826.638	1.22
826.809	-0.15
826.98	-0.63
827.15	0.53
827.321	-0.16
827.492	0.84
827.662	0.12
827.833	0.79
828.003	0.49
828.174	-0.35
828.345	-0.59
828.515	0.76
828.686	0.13
828.856	-0.06
829.027	-0.05
829.197	0.39
829.368	0.26
829.538	0.02
829.709	-0.4
829.879	-0.21
830.049	-0.12
830.22	0.1
830.39	0.32
830.56	1.07
830.731	-0.15
830.901	-0.33
831.072	0.51
831.242	0.59
831.412	0.13
831.582	0.06
831.753	-0.37
831.923	0.93
832.093	0.1
832.263	0.26
832.434	-0.43
832.604	-0.06
832.774	0.35
832.944	-0.3
833.114	0.07
833.284	0.13
833.454	-0.46
833.624	0.07
833.795	-0.81
833.965	0.88
834.135	0.64
834.305	-0.42
834.475	-0.49
834.645	-0.38
834.815	-0.44
834.985	-0.36
835.155	-0.37
835.325	0.3
835.494	0.63
835.664	0.14
835.834	-0.06
836.004	0.25
836.174	0.71
836.344	0.27
836.514	-0.99
836.684	-0.13
836.853	-0.11
837.023	0.06
837.193	-0.46
837.363	0.57
837.532	0.55
837.702	0.33
837.872	-0.65
838.041	0.6
838.211	1.82
838.381	-0.42
838.55	0.21
838.72	1.31
838.89	0.54
839.059	-0.24
839.229	-0.15
839.398	1.23
839.568	0.19
839.738	-0.09
839.907	0.83
840.077	0.99
840.246	-1.35
840.416	-0.42
840.585	-1.04
840.755	1.41
840.924	0.41
841.093	-0.2
841.263	0.27
841.432	-0.15
841.602	-0.67
841.771	-1.04
841.94	0
842.11	1.4
842.279	1.32
842.448	-0.17
842.617	-1.06
842.787	1.39
842.956	-0.47
843.125	-0.59
843.294	0.47
843.464	0.68
843.633	0.1
843.802	-0.78
843.971	-0.1
844.14	0.53
844.309	0.5
844.479	-0.57
844.648	-0.9
844.817	-0.05
844.986	0.04
845.155	0
845.324	0.41
845.493	-0.46
845.662	-0.45
845.831	0.54
846	0.55
846.169	0.1
846.338	1.18
846.507	0.16
846.676	1.19
846.844	-0.52
847.013	0.63
847.182	0.42
847.351	0.25
847.52	0.14
847.689	0.92
847.858	0.38
848.026	-0.01
848.195	-0.42
848.364	-0.54
848.533	-0.84
848.701	-0.52
848.87	0.95
849.039	0.79
849.207	0.72
849.376	1.37
849.545	0.31
849.713	0.2
849.882	-0.22
850.051	-0.6
850.219	1.12
850.388	0.53
850.556	-0.64
850.725	-1.18
850.893	0.69
851.062	-0.15
851.23	2.05
851.399	-0.69
851.567	-0.53
851.736	-0.26
851.904	-1.38
852.073	0.57
852.241	1.47
852.41	0.19
852.578	-0.9
852.746	-0.41
852.915	1.2
853.083	-0.07
853.251	-0.63
853.42	-0.44
853.588	0.4
853.756	1.02
853.924	0.29
854.093	0.22
854.261	-0.21
854.429	-0.68
854.597	0.87
854.765	-1.37
854.934	0.99
855.102	1.8
855.27	-0.97
855.438	-0.06
855.606	1.26
855.774	1.73
855.942	-2
856.11	-1.16
856.278	-0.67
856.446	0.37
856.614	0.14
856.782	0.15
856.95	2.27
857.118	1.34
857.286	0.06
857.454	-0.41
857.622	1.06
857.79	0.35
857.958	-1.05
858.126	0.02
858.294	-2.54
858.462	1.4
858.629	-0.15
858.797	0.07
858.965	1.14
859.133	0.67
859.301	-0.04
859.468	0.34
859.636	-0.51
859.804	1.65
859.971	0.27
860.139	-0.62
860.307	1.09
860.474	0.11
860.642	-0.18
860.81	0.25
860.977	-0.48
861.145	0.85
861.313	-0.24
861.48	0.74
861.648	1.39
861.815	-0.32
861.983	-0.97
862.15	0.34
862.318	0.79
862.485	1.04
862.653	-0.6
862.82	0.07
862.988	1.77
863.155	0.51
863.322	-0.41
863.49	-1.77
863.657	-0.69
863.824	0.46
863.992	1.3
864.159	1.08
864.326	1.32
864.494	0.39
864.661	3.64
864.828	-1.83
864.996	-0.32
865.163	1.88
865.33	-2.1
865.497	-1.15
865.664	-0.44
865.832	-1.56
865.999	0.41
866.166	-0.88
866.333	-0.9
866.5	0.17
866.667	0.76
866.834	0.2
867.001	1.36
867.168	-2.12
867.335	1.16
867.502	-1.14
867.669	0.66
867.836	1.4
868.003	-0.93
868.17	2.55
868.337	-1.91
868.504	2.23
868.671	-1.57
868.838	-1.23
869.005	0.33
869.172	1.52
869.339	-0.42
869.505	-0.2
869.672	0.83
869.839	1.23
870.006	-0.44
870.173	-1.63
870.339	-0.26
870.506	2.61
870.673	-1.08
870.84	1.61
871.006	1.94
871.173	0.69
871.34	-1.24
871.506	-1.45
871.673	0.41
871.839	-1.66
872.006	0.84
872.173	0.04
872.339	0.4
872.506	2.16
872.672	0.47
872.839	0.24
873.005	-0.68
873.172	3.42
873.338	2.07
873.505	0.31
873.671	-0.16
873.838	1.07
874.004	-0.37
874.171	-1.74
874.337	1.07
874.503	0.62
874.67	0.49
874.836	-1.46
875.002	3
875.169	2.02
875.335	0.27
875.501	-1.66
875.668	1.47
875.834	1.1
876	1.94
876.166	1.87
876.332	1.68
876.499	4.5
876.665	-0.65
876.831	0.92
876.997	3.69
877.163	0.04
877.329	-1.2
877.495	1.25
877.662	1.71
877.828	3.1
877.994	-0.21
878.16	-3.12
878.326	0.76
878.492	-0.29
878.658	1.6
878.824	-0.79
878.99	2.29
879.156	-1.58
879.322	3.89
879.487	-0.85
879.653	0.32
879.819	-0.4
879.985	0.23
880.151	1.03
880.317	2.75
880.483	0.94
880.648	0.44
880.814	-2.29
880.98	0.74
881.146	-1.5
881.312	-0.59
881.477	0.04
881.643	0.59
881.809	2.81
881.974	0.7
882.14	-1.7
882.306	0.57
882.471	2.47
882.637	0.16
882.803	2.7
882.968	2.66
883.134	3.67
883.299	-0.76
883.465	0.44
883.63	2.9
883.796	2.45
883.961	2.45
884.127	2.22
884.292	-2.98
884.458	-1.08
884.623	-1.08
