Data from Apollo_Calib_20240827__AbsoluteIrradiance__635__09-44-01-713.txt Node

Date: Wed Aug 28 09:44:01 BST 2024
User: biology
Spectrometer: FLMT08252
Trigger mode: 0
Integration Time (sec): 5.000000E-1
Scans to average: 5
Electric dark correction enabled: true
Nonlinearity correction enabled: false
Boxcar width: 0
XAxis mode: Wavelengths
Number of Pixels in Spectrum: 3648
>>>>>Begin Spectral Data<<<<<
179.588	-0
179.809	-0
180.03	-0
180.251	-0
180.473	-0
180.694	0
180.915	0
181.136	-0
181.357	-0
181.578	-0
181.799	0
182.02	-0
182.241	-0
182.462	-0
182.683	0
182.904	-0
183.125	-0
183.346	0
183.567	-0
183.788	-0
184.009	-0
184.23	0
184.451	0
184.672	-0
184.892	-0
185.113	-0
185.334	0
185.555	-0
185.776	-0
185.996	0
186.217	-0
186.438	-0
186.659	-0
186.879	-0
187.1	-0
187.321	-0
187.541	-0
187.762	-0
187.983	-0
188.203	0
188.424	0
188.644	-0
188.865	-0
189.086	-0
189.306	0
189.527	0
189.747	0
189.968	-0
190.188	0
190.409	-0
190.629	0
190.849	-0
191.07	-0
191.29	0
191.511	0
191.731	-0
191.951	-0
192.172	-0
192.392	-0
192.612	0
192.833	-0
193.053	0
193.273	0
193.493	-0
193.714	-0
193.934	0
194.154	0
194.374	0
194.594	0
194.815	0
195.035	-0
195.255	0
195.475	-0
195.695	0
195.915	0
196.135	-0
196.355	0
196.575	0
196.795	0
197.015	-0
197.235	-0
197.455	-0
197.675	0
197.895	-0
198.115	-0
198.335	0
198.555	-0
198.775	0
198.995	-0
199.214	0
199.434	-0
199.654	-0
199.874	-0
200.094	0.91
200.313	-0.07
200.533	-0.5
200.753	-0.54
200.973	0.77
201.192	0.3
201.412	-0.76
201.632	-0.53
201.851	0.58
202.071	-0.43
202.291	-0.56
202.51	-0.67
202.73	0.05
202.95	-0.25
203.169	-0.63
203.389	-0.2
203.608	0.03
203.828	-0.34
204.047	-0.38
204.267	0.46
204.486	0.23
204.706	0.5
204.925	-0.21
205.145	-0.62
205.364	0.35
205.583	0.52
205.803	-0.35
206.022	-0.35
206.242	-0.23
206.461	0.16
206.68	-0.45
206.9	0.08
207.119	0.88
207.338	0.24
207.557	0.07
207.777	-0.17
207.996	-0.03
208.215	-0.02
208.434	-0.29
208.654	-0.46
208.873	0.18
209.092	0.45
209.311	-0.09
209.53	-0.2
209.749	-0.18
209.968	-0.52
210.187	-0.18
210.407	-0.71
210.626	-0.18
210.845	0.2
211.064	-0.01
211.283	-0.14
211.502	0.12
211.721	-0.15
211.94	-0.27
212.159	-0.01
212.377	0.04
212.596	0.19
212.815	0.03
213.034	0.2
213.253	-0.03
213.472	0.08
213.691	-0.17
213.91	-0.38
214.128	-0.07
214.347	0.36
214.566	-0.48
214.785	-0.44
215.003	0.19
215.222	0.04
215.441	-0.17
215.66	-0.33
215.878	0.11
216.097	0.01
216.316	-0.37
216.534	-0.3
216.753	-0.01
216.972	0.08
217.19	-0.05
217.409	-0.18
217.627	-0.23
217.846	-0.08
218.064	-0.11
218.283	-0.35
218.501	0.46
218.72	0.02
218.938	-0.26
219.157	-0.04
219.375	0.27
219.594	0.16
219.812	-0.35
220.031	-0.12
220.249	0.25
220.467	0.24
220.686	-0.24
220.904	-0.3
221.122	-0.22
221.341	0.23
221.559	0.04
221.777	-0.29
221.995	-0.11
222.214	0.2
222.432	-0.06
222.65	0.1
222.868	0.01
223.086	0.1
223.305	0.04
223.523	-0.01
223.741	0.26
223.959	-0.21
224.177	-0.28
224.395	-0.2
224.613	-0.04
224.831	0.21
225.049	-0.19
225.267	-0.11
225.485	0.03
225.703	-0.06
225.921	-0.04
226.139	-0.14
226.357	0.12
226.575	-0.15
226.793	-0.08
227.011	0.33
227.229	0.05
227.447	0.18
227.665	-0.2
227.883	-0.28
228.1	-0.04
228.318	0.04
228.536	-0.27
228.754	-0.19
228.972	0.03
229.189	0.13
229.407	-0
229.625	-0.16
229.843	0.23
230.06	0.07
230.278	-0.07
230.496	-0
230.713	0.03
230.931	0.07
231.149	-0.09
231.366	-0.22
231.584	-0.12
231.801	0.36
232.019	-0.04
232.236	-0.2
232.454	-0.14
232.671	0.02
232.889	0.02
233.106	-0.18
233.324	-0.06
233.541	-0.08
233.759	-0.04
233.976	-0.17
234.194	-0.08
234.411	0.05
234.628	-0.1
234.846	-0.09
235.063	-0.02
235.28	-0.08
235.498	-0.03
235.715	-0.09
235.932	0.01
236.149	-0.05
236.367	-0.15
236.584	0.07
236.801	-0.01
237.018	0.04
237.236	0.05
237.453	-0.15
237.67	0.06
237.887	-0.05
238.104	-0.06
238.321	-0.13
238.538	-0.07
238.755	-0.02
238.973	-0.21
239.19	-0.01
239.407	-0.05
239.624	-0.09
239.841	-0.19
240.058	-0.08
240.275	-0.05
240.492	0.04
240.709	0.02
240.925	-0.12
241.142	-0.07
241.359	-0.12
241.576	-0.15
241.793	-0.15
242.01	-0.05
242.227	0.1
242.444	0.05
242.66	0.08
242.877	0.04
243.094	-0.05
243.311	0.06
243.527	-0.02
243.744	0.06
243.961	0.07
244.178	-0.08
244.394	-0.02
244.611	0.05
244.828	0.18
245.044	-0.17
245.261	-0.04
245.477	-0.02
245.694	0.09
245.911	-0.03
246.127	-0.04
246.344	0.12
246.56	0.03
246.777	-0.09
246.993	0.03
247.21	0
247.426	0.03
247.643	-0.12
247.859	-0.13
248.076	-0.1
248.292	0.09
248.508	-0.1
248.725	0
248.941	-0.02
249.157	0.07
249.374	-0.1
249.59	0.04
249.806	-0.07
250.023	-0.04
250.239	-0.02
250.455	-0.15
250.671	-0.02
250.888	0.04
251.104	0.02
251.32	-0.09
251.536	0.01
251.752	-0.07
251.969	-0.02
252.185	-0.02
252.401	0.1
252.617	-0.02
252.833	-0.06
253.049	0.02
253.265	-0
253.481	-0.01
253.697	-0.02
253.913	-0.05
254.129	0.02
254.345	0.03
254.561	-0.04
254.777	0
254.993	0.05
255.209	-0.04
255.425	-0.09
255.641	-0.09
255.857	0.04
256.073	-0.06
256.288	-0.12
256.504	-0.01
256.72	-0.02
256.936	0.14
257.152	0.05
257.367	-0.07
257.583	0.02
257.799	0.08
258.015	-0.08
258.23	-0.11
258.446	0.06
258.662	-0.01
258.877	-0.06
259.093	-0.12
259.309	-0.02
259.524	0.04
259.74	-0.07
259.955	-0.12
260.171	-0.03
260.387	-0.03
260.602	-0
260.818	-0.02
261.033	-0.11
261.249	-0.08
261.464	-0.02
261.68	-0.14
261.895	0.02
262.11	-0.01
262.326	-0.02
262.541	-0.1
262.757	0.07
262.972	0.01
263.187	0.04
263.403	0.03
263.618	0.05
263.833	-0.01
264.049	-0.08
264.264	-0.03
264.479	0.12
264.694	0.11
264.91	-0.12
265.125	-0.02
265.34	-0.03
265.555	0.09
265.77	0.01
265.986	-0.05
266.201	0.03
266.416	0.08
266.631	-0.06
266.846	-0.03
267.061	0.07
267.276	0.03
267.491	-0.13
267.706	0.02
267.921	0.01
268.136	0.03
268.351	-0.02
268.566	-0.06
268.781	0.09
268.996	0.02
269.211	0.04
269.426	-0.08
269.641	-0.06
269.856	-0.05
270.071	-0.05
270.285	-0.08
270.5	0.08
270.715	0.04
270.93	-0.05
271.145	-0.02
271.359	0.04
271.574	-0.04
271.789	-0.01
272.004	-0.12
272.218	0.03
272.433	0.04
272.648	-0.05
272.862	0.05
273.077	-0.02
273.292	0.01
273.506	-0.02
273.721	-0.02
273.936	-0.01
274.15	0
274.365	-0.04
274.579	0.01
274.794	-0.03
275.008	0.07
275.223	-0.09
275.437	0
275.652	0.01
275.866	0.01
276.081	-0
276.295	0.07
276.509	0.05
276.724	0.01
276.938	0.06
277.153	0.01
277.367	0.06
277.581	-0.03
277.796	-0.05
278.01	-0.1
278.224	0.03
278.438	0.05
278.653	-0.03
278.867	-0.04
279.081	-0.18
279.295	-0.02
279.51	-0
279.724	-0.08
279.938	0.02
280.152	0.01
280.366	-0.05
280.58	-0.03
280.794	0.03
281.008	0.02
281.222	0.08
281.437	0.06
281.651	-0.01
281.865	0.06
282.079	-0.06
282.293	-0.13
282.507	-0.01
282.721	-0.01
282.935	-0.05
283.148	-0.11
283.362	-0.03
283.576	-0.05
283.79	0
284.004	-0.08
284.218	0.02
284.432	0.01
284.646	-0.02
284.859	-0.01
285.073	-0.06
285.287	0
285.501	-0.04
285.714	-0.02
285.928	0.01
286.142	-0.03
286.356	-0.02
286.569	0.02
286.783	0.04
286.997	0.05
287.21	-0.02
287.424	0.01
287.637	-0.02
287.851	-0.03
288.065	-0
288.278	-0.03
288.492	0.03
288.705	-0.03
288.919	0.03
289.132	-0.08
289.346	0.03
289.559	-0.07
289.773	-0.11
289.986	-0
290.2	0.02
290.413	0.08
290.626	-0.05
290.84	-0.03
291.053	-0.02
291.267	0.01
291.48	-0.04
291.693	-0
291.906	-0.06
292.12	-0.04
292.333	-0.06
292.546	0.01
292.76	0.08
292.973	0
293.186	-0.02
293.399	-0.02
293.612	0.03
293.826	0
294.039	-0.05
294.252	-0.01
294.465	0.03
294.678	0.05
294.891	0.05
295.104	-0.05
295.317	-0.04
295.53	-0.02
295.743	0.01
295.956	-0.01
296.169	0.06
296.382	0.07
296.595	-0.04
296.808	-0.03
297.021	0.07
297.234	0.05
297.447	-0.02
297.66	0.01
297.873	0.03
298.086	0.04
298.299	-0.04
298.511	-0.06
298.724	-0.04
298.937	-0.03
299.15	-0.02
299.363	0
299.575	0.01
299.788	-0.01
300.001	-0.02
300.213	-0.04
300.426	-0.03
300.639	-0.03
300.852	-0.02
301.064	0.07
301.277	0.09
301.489	0.02
301.702	0.02
301.915	0.02
302.127	-0.02
302.34	0.02
302.552	-0.01
302.765	-0.02
302.977	0.01
303.19	-0.02
303.402	-0.04
303.615	0.01
303.827	-0.04
304.04	-0.03
304.252	0.04
304.464	-0
304.677	0.1
304.889	0.03
305.102	-0.05
305.314	-0.03
305.526	0
305.739	0.03
305.951	-0.09
306.163	-0
306.375	0.03
306.588	-0.07
306.8	-0.01
307.012	-0.06
307.224	-0.01
307.436	0.12
307.649	-0.07
307.861	0
308.073	0.02
308.285	-0.02
308.497	-0.06
308.709	-0.04
308.921	-0
309.133	0.05
309.346	-0
309.558	-0.01
309.77	0.02
309.982	0.04
310.194	0.03
310.406	-0.06
310.617	0.11
310.829	0
311.041	0.01
311.253	-0.04
311.465	0.03
311.677	-0.01
311.889	-0.01
312.101	-0.04
312.313	0.01
312.524	0.04
312.736	-0.03
312.948	-0.02
313.16	0.06
313.372	0.04
313.583	0.02
313.795	-0.01
314.007	-0.02
314.218	0.01
314.43	-0.04
314.642	0.02
314.853	-0.09
315.065	0.02
315.277	-0.02
315.488	0.02
315.7	0.05
315.912	0.02
316.123	-0.04
316.335	0.03
316.546	0.04
316.758	0.04
316.969	-0.04
317.181	-0.02
317.392	-0.03
317.604	0.05
317.815	-0.04
318.026	-0.03
318.238	-0.02
318.449	0.01
318.661	-0.07
318.872	-0.06
319.083	-0.04
319.295	0.01
319.506	-0.02
319.717	-0.01
319.929	0.02
320.14	0.01
320.351	-0.01
320.562	-0.04
320.774	-0.01
320.985	0.01
321.196	-0.01
321.407	-0.11
321.618	0.05
321.829	0
322.041	0.02
322.252	-0.04
322.463	0.03
322.674	0.01
322.885	-0.03
323.096	-0.03
323.307	-0
323.518	0.01
323.729	-0.04
323.94	-0.05
324.151	-0.01
324.362	0.02
324.573	-0.01
324.784	-0.03
324.995	0.05
325.206	-0.01
325.417	-0.03
325.628	-0.02
325.838	-0.02
326.049	-0.01
326.26	0.02
326.471	-0.04
326.682	0.02
326.892	0.01
327.103	-0.06
327.314	-0.04
327.525	0.05
327.735	-0.02
327.946	-0.02
328.157	-0.04
328.368	0.03
328.578	-0.05
328.789	0
328.999	-0
329.21	0
329.421	-0.02
329.631	-0.08
329.842	-0.05
330.052	-0.01
330.263	-0.01
330.473	0.04
330.684	-0.01
330.894	0.01
331.105	0.01
331.315	-0.02
331.526	-0.01
331.736	0.04
331.947	0.03
332.157	0.04
332.367	-0.06
332.578	0.03
332.788	-0.05
332.999	0.05
333.209	-0.01
333.419	-0.01
333.629	0
333.84	0.04
334.05	-0.05
334.26	0.05
334.47	0
334.681	0.06
334.891	-0.05
335.101	0.02
335.311	0.09
335.521	-0.01
335.732	-0.05
335.942	0.06
336.152	0.04
336.362	0.04
336.572	-0.01
336.782	0.04
336.992	-0
337.202	-0.04
337.412	-0.06
337.622	0.05
337.832	-0.02
338.042	0.02
338.252	-0.01
338.462	-0.04
338.672	-0.01
338.882	-0
339.092	0.01
339.302	0.08
339.511	0.02
339.721	-0.03
339.931	-0.06
340.141	0.05
340.351	0.06
340.561	-0.01
340.77	-0.01
340.98	-0.01
341.19	0
341.4	-0.01
341.609	-0.07
341.819	-0.02
342.029	-0.06
342.238	0
342.448	-0.04
342.658	0.04
342.867	-0.01
343.077	0.01
343.286	-0.02
343.496	-0.01
343.706	0.08
343.915	-0.1
344.125	-0.04
344.334	0.02
344.544	-0.08
344.753	-0.05
344.963	0.03
345.172	-0.07
345.381	-0.03
345.591	-0.02
345.8	0
346.01	0.05
346.219	0.03
346.428	-0.14
346.638	-0.02
346.847	-0.01
347.056	0
347.266	-0.01
347.475	0.01
347.684	0.05
347.893	0.02
348.103	-0.04
348.312	-0.02
348.521	-0.04
348.73	-0.01
348.94	0.04
349.149	-0.01
349.358	0
349.567	-0.01
349.776	-0.06
349.985	-0.04
350.194	-0.01
350.403	0.02
350.612	-0.02
350.821	-0.01
351.03	-0.03
351.239	-0.07
351.448	0
351.657	-0.05
351.866	0.11
352.075	-0.02
352.284	0.02
352.493	-0.04
352.702	-0.01
352.911	-0
353.12	-0.04
353.329	-0.03
353.538	0.02
353.746	-0.01
353.955	-0.03
354.164	-0.02
354.373	-0.02
354.582	-0.01
354.79	0.03
354.999	0.04
355.208	-0.04
355.416	0.07
355.625	-0.04
355.834	-0.03
356.042	0.01
356.251	-0.05
356.46	-0.05
356.668	0.05
356.877	0.06
357.085	0.02
357.294	-0.1
357.503	0.04
357.711	-0
357.92	0.11
358.128	0
358.337	-0.01
358.545	-0.02
358.754	-0.04
358.962	0.02
359.17	-0.03
359.379	-0.01
359.587	-0.01
359.796	-0.02
360.004	0.01
360.212	0.03
360.421	0.06
360.629	0
360.837	-0.02
361.046	0
361.254	0.08
361.462	0
361.67	-0.01
361.879	0.01
362.087	0.06
362.295	-0.03
362.503	0.02
362.711	-0.05
362.92	-0.04
363.128	-0.07
363.336	-0.04
363.544	-0.07
363.752	-0.01
363.96	-0.02
364.168	0
364.376	-0.05
364.584	-0.01
364.792	0.02
365	0.02
365.208	-0.01
365.416	0.02
365.624	0.01
365.832	-0.05
366.04	0.02
366.248	-0.01
366.456	0
366.664	0
366.872	0.01
367.079	-0
367.287	-0.03
367.495	0.01
367.703	-0.04
367.911	-0.03
368.118	-0.01
368.326	-0.02
368.534	-0.08
368.742	0.05
368.949	-0.08
369.157	-0.02
369.365	0.05
369.572	0.01
369.78	-0.04
369.988	0.02
370.195	-0
370.403	0.02
370.61	-0.04
370.818	-0.03
371.026	0.03
371.233	-0.02
371.441	0.03
371.648	-0.01
371.856	0.03
372.063	-0.01
372.271	0.02
372.478	-0.02
372.685	-0.04
372.893	0.03
373.1	-0.01
373.308	-0.04
373.515	0.07
373.722	-0.01
373.93	-0.03
374.137	0.03
374.344	0.06
374.552	0.05
374.759	0
374.966	-0
375.173	-0.03
375.381	0.06
375.588	-0.07
375.795	-0.08
376.002	0
376.209	-0.04
376.417	0.02
376.624	-0.01
376.831	0.05
377.038	-0.01
377.245	-0.04
377.452	-0.03
377.659	0.03
377.866	-0.01
378.073	-0.04
378.28	0.05
378.487	0.03
378.694	0.03
378.901	0.01
379.108	-0.03
379.315	0
379.522	0.09
379.729	0.03
379.936	-0.02
380.143	-0.01
380.35	0.04
380.557	-0
380.763	0.02
380.97	0.01
381.177	0.03
381.384	0.03
381.591	-0.06
381.797	0.01
382.004	0.04
382.211	0.02
382.418	-0.01
382.624	0.03
382.831	0.05
383.038	-0
383.244	-0.03
383.451	-0.05
383.658	0.01
383.864	0.02
384.071	-0.04
384.277	0.03
384.484	-0.05
384.69	0.02
384.897	-0.02
385.103	-0.01
385.31	-0.01
385.516	-0.05
385.723	-0.02
385.929	-0.03
386.136	-0.05
386.342	0.03
386.549	-0.02
386.755	-0.02
386.961	-0.02
387.168	-0.05
387.374	-0
387.58	0
387.787	-0.03
387.993	0.01
388.199	0.01
388.406	-0.04
388.612	-0.02
388.818	0.02
389.024	-0.04
389.231	-0
389.437	0.06
389.643	0.04
389.849	0
390.055	-0.05
390.261	-0.01
390.467	0
390.674	-0.05
390.88	0.03
391.086	0.02
391.292	-0.08
391.498	0.01
391.704	0.01
391.91	-0.01
392.116	-0.02
392.322	-0.09
392.528	-0.02
392.734	-0.04
392.94	0.01
393.146	-0.03
393.352	0.04
393.557	-0.05
393.763	-0.02
393.969	0.03
394.175	-0.01
394.381	-0.01
394.587	-0.06
394.792	-0.04
394.998	0.06
395.204	0.06
395.41	-0.03
395.615	0.05
395.821	0.03
396.027	0.02
396.233	-0.01
396.438	0.01
396.644	0.07
396.85	0.01
397.055	-0.02
397.261	0
397.466	0.05
397.672	0.04
397.878	0.01
398.083	-0.02
398.289	-0.01
398.494	0.03
398.7	0.03
398.905	-0.06
399.111	0
399.316	-0.03
399.522	0
399.727	0.01
399.932	-0.01
400.138	-0.02
400.343	0.01
400.549	0.02
400.754	-0.02
400.959	0.03
401.165	-0.02
401.37	0
401.575	0.08
401.78	0.01
401.986	-0.06
402.191	-0.03
402.396	0.01
402.601	0.05
402.807	-0.01
403.012	0.02
403.217	0.05
403.422	0.06
403.627	-0.02
403.832	-0.02
404.037	0.03
404.243	-0.03
404.448	-0.03
404.653	-0.01
404.858	0.02
405.063	0.02
405.268	-0.01
405.473	-0.03
405.678	-0.05
405.883	0.11
406.088	0.01
406.293	-0.07
406.498	-0.04
406.703	0.05
406.907	0.01
407.112	0
407.317	0
407.522	0.03
407.727	-0.06
407.932	-0.04
408.136	0.07
408.341	0.02
408.546	0.03
408.751	-0.01
408.956	-0.05
409.16	-0.03
409.365	-0.02
409.57	-0.04
409.774	-0
409.979	0.02
410.184	-0.03
410.388	-0.08
410.593	0.01
410.798	0
411.002	-0.05
411.207	0.03
411.411	0.01
411.616	-0.04
411.82	0.03
412.025	0
412.229	-0.02
412.434	0.06
412.638	-0.01
412.843	0.03
413.047	-0.02
413.252	-0.04
413.456	-0.02
413.66	0.02
413.865	-0
414.069	0.04
414.273	-0.04
414.478	-0.04
414.682	-0.08
414.886	-0.03
415.091	-0.07
415.295	-0.11
415.499	-0.01
415.703	-0.01
415.908	-0.01
416.112	-0.13
416.316	0.04
416.52	-0.04
416.724	-0.06
416.929	-0.05
417.133	0.05
417.337	-0.01
417.541	0.02
417.745	-0.06
417.949	0.01
418.153	0.01
418.357	-0.13
418.561	0.03
418.765	-0.01
418.969	0.13
419.173	0
419.377	-0.05
419.581	0.05
419.785	-0.01
419.989	-0.11
420.193	-0.04
420.397	-0.05
420.601	0.06
420.804	0.01
421.008	0.01
421.212	0.02
421.416	0.01
421.62	-0.04
421.823	-0.02
422.027	0.08
422.231	-0.03
422.435	-0.04
422.638	-0
422.842	0.04
423.046	-0.06
423.249	0.05
423.453	0.01
423.657	0.01
423.86	-0.04
424.064	-0.03
424.268	0.03
424.471	-0.01
424.675	0.06
424.878	0.06
425.082	-0.02
425.285	0.05
425.489	-0.01
425.692	-0.02
425.896	-0.04
426.099	0.03
426.303	-0.07
426.506	-0.09
426.71	0.02
426.913	0.02
427.116	0.03
427.32	0.04
427.523	-0
427.726	0.09
427.93	-0.08
428.133	0
428.336	-0.08
428.54	-0.08
428.743	-0.03
428.946	0.03
429.149	-0.06
429.353	-0
429.556	-0.01
429.759	-0.04
429.962	-0.05
430.165	-0.03
430.368	-0.01
430.571	-0.02
430.775	-0.01
430.978	-0.04
431.181	0.01
431.384	-0
431.587	-0.05
431.79	-0.02
431.993	-0.01
432.196	-0.01
432.399	-0.05
432.602	0.05
432.805	-0.08
433.008	-0.03
433.211	-0.12
433.414	0
433.616	-0
433.819	-0.04
434.022	-0.13
434.225	-0
434.428	0.01
434.631	0.07
434.833	0.02
435.036	0.01
435.239	0.02
435.442	0.01
435.645	-0.07
435.847	-0
436.05	0.01
436.253	0
436.455	-0.02
436.658	0.01
436.861	0.03
437.063	-0.05
437.266	0.01
437.468	-0.05
437.671	0.09
437.874	-0.03
438.076	-0.08
438.279	-0.1
438.481	-0.03
438.684	-0.05
438.886	0.04
439.089	-0.09
439.291	-0.01
439.494	-0.04
439.696	-0.12
439.899	-0.02
440.101	-0.02
440.303	-0.05
440.506	0.05
440.708	-0.03
440.91	0.01
441.113	-0.04
441.315	0.01
441.517	-0.06
441.72	-0
441.922	-0.07
442.124	-0.03
442.326	-0.03
442.529	0.04
442.731	-0.04
442.933	0.08
443.135	-0.02
443.337	-0.06
443.539	-0.02
443.742	-0.01
443.944	-0.01
444.146	0.01
444.348	-0.01
444.55	-0.06
444.752	0.03
444.954	-0.1
445.156	0.02
445.358	-0.03
445.56	0.02
445.762	-0.06
445.964	-0.02
446.166	-0.01
446.368	-0.02
446.57	0.03
446.772	-0.02
446.974	-0.06
447.175	-0.01
447.377	-0.04
447.579	-0.02
447.781	-0.06
447.983	0.02
448.184	-0.03
448.386	0.01
448.588	-0.04
448.79	0.01
448.991	-0.05
449.193	-0.04
449.395	-0.03
449.597	0.02
449.798	-0.01
450	0.02
450.202	-0.06
450.403	-0.04
450.605	0.01
450.806	-0.01
451.008	-0.08
451.21	-0.04
451.411	-0.05
451.613	0.01
451.814	0.01
452.016	-0.01
452.217	-0.02
452.419	0.02
452.62	0.02
452.821	0.03
453.023	0.06
453.224	-0.02
453.426	-0.05
453.627	0.01
453.828	0.01
454.03	-0
454.231	0.01
454.432	-0.02
454.634	0.08
454.835	-0.02
455.036	-0.06
455.238	0.05
455.439	0.05
455.64	-0.04
455.841	-0.04
456.042	0.11
456.244	0.01
456.445	-0.01
456.646	-0.07
456.847	-0.01
457.048	0
457.249	0.04
457.45	0.21
457.651	-0.07
457.852	0
458.054	-0.03
458.255	-0.02
458.456	-0.01
458.657	0.02
458.858	-0.01
459.058	-0.01
459.259	0.03
459.46	0.03
459.661	-0.02
459.862	0.09
460.063	-0.04
460.264	0.01
460.465	-0.07
460.666	0.06
460.866	-0.06
461.067	-0.02
461.268	-0.02
461.469	-0
461.67	-0.06
461.87	-0.02
462.071	-0.02
462.272	-0.06
462.473	-0.01
462.673	0.03
462.874	-0.03
463.075	0.01
463.275	-0.01
463.476	0.05
463.676	-0.02
463.877	-0
464.078	-0.05
464.278	0.02
464.479	0
464.679	-0.05
464.88	-0.03
465.08	0.03
465.281	-0.05
465.481	-0.05
465.682	-0.02
465.882	0.01
466.083	0
466.283	0.01
466.483	-0.03
466.684	-0.01
466.884	-0.06
467.085	0.01
467.285	0.05
467.485	-0.02
467.686	-0.03
467.886	-0.02
468.086	-0.01
468.286	-0.01
468.487	-0.01
468.687	-0.06
468.887	-0.01
469.087	0.02
469.287	0
469.488	-0.08
469.688	0
469.888	0.01
470.088	0.03
470.288	0.01
470.488	0.04
470.688	-0.04
470.888	-0.04
471.088	-0.02
471.288	0.03
471.488	0.04
471.688	-0
471.888	-0.02
472.088	-0
472.288	0.02
472.488	-0.06
472.688	-0.06
472.888	-0
473.088	0.03
473.288	-0.01
473.488	-0.02
473.688	0.03
473.887	-0.01
474.087	-0.03
474.287	0.03
474.487	-0.03
474.687	0.03
474.886	-0.06
475.086	-0
475.286	0
475.486	-0.02
475.685	0.04
475.885	-0.01
476.085	-0.03
476.284	0.04
476.484	-0.03
476.684	0.03
476.883	0.05
477.083	0
477.282	-0.05
477.482	0.05
477.681	0.03
477.881	-0.02
478.08	-0.08
478.28	-0.04
478.479	0.01
478.679	0.04
478.878	-0
479.078	-0.03
479.277	-0
479.477	-0.01
479.676	0.03
479.875	-0.03
480.075	-0.07
480.274	0.02
480.473	-0
480.673	-0.03
480.872	0.01
481.071	-0.01
481.271	0.01
481.47	-0.03
481.669	-0.04
481.868	-0.02
482.067	-0.05
482.267	-0.06
482.466	-0.04
482.665	-0.06
482.864	-0.06
483.063	-0.05
483.262	-0.01
483.461	0.03
483.661	0
483.86	-0
484.059	-0
484.258	-0.02
484.457	-0.03
484.656	-0.03
484.855	0.05
485.054	-0.07
485.253	-0.05
485.452	-0.04
485.651	-0
485.849	-0
486.048	-0.01
486.247	-0.04
486.446	-0
486.645	-0.04
486.844	-0.03
487.043	-0.03
487.241	0.03
487.44	-0.04
487.639	-0.01
487.838	0.03
488.037	0.01
488.235	0.06
488.434	-0.01
488.633	-0.03
488.831	0
489.03	0.04
489.229	-0
489.427	-0.02
489.626	0.03
489.825	0.04
490.023	-0.03
490.222	-0.01
490.42	0.03
490.619	0.02
490.817	0
491.016	-0.01
491.214	0.03
491.413	-0.03
491.611	-0.02
491.81	-0
492.008	0.01
492.207	0.02
492.405	0
492.604	-0.03
492.802	-0.01
493	0.01
493.199	-0.04
493.397	0.01
493.595	-0.01
493.794	-0.03
493.992	0.03
494.19	-0
494.388	0
494.587	0.01
494.785	0
494.983	-0.04
495.181	-0.01
495.379	0
495.578	-0.01
495.776	0
495.974	0.02
496.172	-0.02
496.37	-0.02
496.568	-0.01
496.766	-0.03
496.964	0.03
497.162	-0
497.36	-0.05
497.558	0.01
497.756	-0
497.954	-0.02
498.152	-0.01
498.35	-0.01
498.548	-0.03
498.746	-0.01
498.944	-0.03
499.142	-0.03
499.34	-0.02
499.538	0
499.736	-0.03
499.933	0.02
500.131	0.03
500.329	-0
500.527	0.03
500.725	0.03
500.922	-0.01
501.12	0
501.318	0.02
501.516	-0.02
501.713	-0.02
501.911	-0.03
502.109	-0.04
502.306	-0.02
502.504	-0.01
502.701	-0.03
502.899	0
503.097	0.02
503.294	-0.02
503.492	0
503.689	-0.01
503.887	0.02
504.084	0.03
504.282	0
504.479	-0.05
504.677	-0
504.874	-0.02
505.072	-0
505.269	-0.01
505.466	0.01
505.664	-0.01
505.861	-0.06
506.059	-0.06
506.256	0.01
506.453	-0.02
506.651	0.01
506.848	0.01
507.045	0.02
507.242	0
507.44	-0.03
507.637	-0
507.834	0.01
508.031	0
508.229	-0.02
508.426	0
508.623	-0
508.82	-0.03
509.017	-0.02
509.214	-0.01
509.411	-0.01
509.608	-0.01
509.805	-0.02
510.003	-0.02
510.2	-0.01
510.397	0.03
510.594	-0.03
510.791	-0.02
510.988	-0.02
511.184	0.01
511.381	-0
511.578	-0.03
511.775	0.02
511.972	-0.02
512.169	-0.01
512.366	-0.03
512.563	0.01
512.76	-0.01
512.956	0.02
513.153	-0.01
513.35	-0.01
513.547	-0.03
513.744	-0.04
513.94	-0.02
514.137	0.02
514.334	0
514.53	0
514.727	0.02
514.924	0.02
515.12	-0.04
515.317	-0.04
515.514	-0.01
515.71	-0.03
515.907	0.01
516.103	-0.01
516.3	0.01
516.497	0.02
516.693	0.02
516.89	0.01
517.086	-0.02
517.283	0.03
517.479	-0.01
517.676	0
517.872	-0
518.068	-0.02
518.265	-0.01
518.461	-0.01
518.658	-0.03
518.854	0.01
519.05	-0.02
519.247	-0.03
519.443	0.01
519.639	0
519.836	0
520.032	-0.02
520.228	-0.01
520.424	0.04
520.621	0
520.817	0
521.013	0.01
521.209	-0.02
521.405	0.02
521.601	-0.02
521.798	0.01
521.994	0.01
522.19	-0.05
522.386	-0.05
522.582	0.01
522.778	-0
522.974	-0.01
523.17	-0.02
523.366	-0.01
523.562	0.04
523.758	0
523.954	-0.02
524.15	-0.04
524.346	0.01
524.542	-0.02
524.738	-0.02
524.934	-0.02
525.129	-0.02
525.325	0.02
525.521	-0.02
525.717	0.02
525.913	-0.01
526.109	-0.01
526.304	-0.01
526.5	-0
526.696	0.01
526.892	-0.01
527.087	-0.01
527.283	-0.02
527.479	0.02
527.674	-0.03
527.87	-0.01
528.066	0
528.261	0.01
528.457	0
528.653	-0.01
528.848	-0.03
529.044	-0
529.239	-0.01
529.435	0.03
529.63	0.01
529.826	0.03
530.021	0.02
530.217	0.01
530.412	0.01
530.608	-0.01
530.803	0.01
530.999	-0.01
531.194	-0.04
531.389	0
531.585	-0.05
531.78	-0
531.975	0
532.171	0.01
532.366	-0.01
532.561	-0.01
532.757	-0.03
532.952	-0
533.147	-0
533.342	-0.01
533.538	-0.02
533.733	0.02
533.928	-0
534.123	-0.03
534.318	-0.03
534.513	-0
534.709	-0.02
534.904	-0.02
535.099	-0.02
535.294	0.01
535.489	-0.01
535.684	-0.01
535.879	-0.04
536.074	-0.01
536.269	-0.02
536.464	0.01
536.659	-0
536.854	-0.01
537.049	-0
537.244	-0.01
537.439	0
537.634	0.02
537.828	-0.01
538.023	-0
538.218	-0.01
538.413	-0.01
538.608	-0.03
538.803	0
538.997	-0.04
539.192	0.03
539.387	0.02
539.582	0.02
539.776	-0
539.971	-0.01
540.166	-0.02
540.36	-0.04
540.555	0.02
540.75	-0.01
540.944	-0.01
541.139	-0.05
541.334	-0.01
541.528	0.01
541.723	0.02
541.917	-0.02
542.112	-0.05
542.306	-0.02
542.501	-0.02
542.695	0
542.89	-0.01
543.084	-0
543.279	-0.01
543.473	-0.01
543.668	-0.01
543.862	-0.01
544.056	-0
544.251	-0.02
544.445	-0
544.64	0.01
544.834	-0.03
545.028	0
545.222	-0
545.417	0.01
545.611	0
545.805	-0.02
546	-0.02
546.194	-0.01
546.388	-0.01
546.582	0.01
546.776	-0.01
546.97	-0
547.165	0.01
547.359	0
547.553	-0.02
547.747	-0.01
547.941	0.01
548.135	-0.02
548.329	0.01
548.523	0
548.717	0
548.911	-0.01
549.105	-0.02
549.299	-0.01
549.493	0.01
549.687	0.01
549.881	0.01
550.075	-0.02
550.269	-0.04
550.463	0.01
550.657	-0.03
550.85	0
551.044	-0.03
551.238	0.01
551.432	-0.05
551.626	-0.03
551.82	0
552.013	-0.02
552.207	-0.01
552.401	0.01
552.594	-0.03
552.788	-0.01
552.982	0.01
553.176	-0.02
553.369	0.01
553.563	0.01
553.756	-0.04
553.95	-0.04
554.144	-0
554.337	0.02
554.531	-0
554.724	-0.02
554.918	-0.01
555.111	0.02
555.305	0
555.498	0.04
555.692	0
555.885	-0
556.079	-0.02
556.272	-0.01
556.466	0.02
556.659	0.02
556.852	-0.01
557.046	0.01
557.239	0.01
557.432	-0.04
557.626	-0.02
557.819	-0
558.012	0.01
558.206	0.01
558.399	0
558.592	0
558.785	-0.03
558.979	-0
559.172	-0.01
559.365	-0
559.558	-0.01
559.751	-0
559.944	-0.01
560.138	-0.03
560.331	-0.02
560.524	-0.01
560.717	-0.02
560.91	-0
561.103	0.02
561.296	0.01
561.489	-0
561.682	0.01
561.875	0.02
562.068	0.01
562.261	-0
562.454	0.02
562.647	-0
562.84	0.02
563.032	-0.03
563.225	-0.01
563.418	-0.02
563.611	-0.02
563.804	-0.01
563.997	-0.02
564.19	-0.04
564.382	-0.07
564.575	-0.01
564.768	-0.02
564.961	-0.01
565.153	-0.02
565.346	0.01
565.539	0.02
565.731	0.01
565.924	0.02
566.117	0.01
566.309	0.02
566.502	-0.01
566.695	0
566.887	-0.02
567.08	-0.02
567.272	-0.01
567.465	-0.01
567.657	-0.01
567.85	-0.01
568.042	0
568.235	0.02
568.427	-0.02
568.62	-0.03
568.812	0.02
569.005	0
569.197	-0.03
569.389	-0.02
569.582	-0.01
569.774	0.02
569.966	-0.04
570.159	-0.03
570.351	0.02
570.543	-0.02
570.736	-0
570.928	-0.02
571.12	-0.03
571.312	-0.01
571.505	-0.05
571.697	0.02
571.889	-0.04
572.081	-0.03
572.273	-0.04
572.465	0.03
572.658	-0.02
572.85	0.01
573.042	-0.02
573.234	-0.01
573.426	0.04
573.618	-0.03
573.81	0.01
574.002	0.02
574.194	0.01
574.386	-0.04
574.578	-0.08
574.77	-0.02
574.962	-0.01
575.154	-0.05
575.346	-0
575.538	0
575.729	-0.04
575.921	-0.01
576.113	-0.02
576.305	0.01
576.497	-0.02
576.689	-0.01
576.88	-0.03
577.072	0.01
577.264	-0
577.456	0.01
577.647	-0.06
577.839	-0.01
578.031	0.04
578.223	-0.04
578.414	-0.03
578.606	0.03
578.798	0.01
578.989	-0.03
579.181	-0.02
579.372	-0.02
579.564	-0.02
579.755	0.01
579.947	0.01
580.139	0.01
580.33	-0.06
580.522	-0.04
580.713	-0.09
580.905	-0.03
581.096	-0
581.287	-0.02
581.479	-0.02
581.67	0.01
581.862	0.02
582.053	-0.03
582.244	-0.04
582.436	-0.02
582.627	0.02
582.818	-0.05
583.01	-0.04
583.201	0.01
583.392	0
583.583	-0.02
583.775	-0.03
583.966	-0.03
584.157	-0.03
584.348	-0.04
584.54	-0.05
584.731	0.02
584.922	-0.01
585.113	-0.03
585.304	0
585.495	0.01
585.686	-0
585.877	0.01
586.068	0
586.259	-0.02
586.45	0.01
586.641	-0.04
586.832	-0.06
587.023	-0
587.214	-0.04
587.405	0.01
587.596	-0.03
587.787	0.03
587.978	-0.02
588.169	-0.04
588.36	-0.03
588.551	-0
588.742	-0
588.932	-0.01
589.123	0.01
589.314	0.03
589.505	-0.01
589.696	-0.01
589.886	-0.02
590.077	-0.04
590.268	0.01
590.458	-0.06
590.649	-0.04
590.84	0.01
591.03	-0.03
591.221	-0.06
591.412	-0.06
591.602	-0.02
591.793	0.03
591.984	-0.05
592.174	-0.05
592.365	0.06
592.555	-0.05
592.746	0
592.936	-0
593.127	0.02
593.317	0.02
593.508	-0.04
593.698	-0.01
593.889	-0.02
594.079	-0
594.269	-0.01
594.46	-0.02
594.65	-0.01
594.84	-0.02
595.031	-0.03
595.221	-0.04
595.411	-0.04
595.602	0.04
595.792	-0.02
595.982	-0.04
596.172	0.04
596.363	0
596.553	-0.02
596.743	-0.01
596.933	-0.01
597.123	0.05
597.314	-0.04
597.504	-0.03
597.694	0.01
597.884	0.01
598.074	-0.01
598.264	-0.05
598.454	-0
598.644	0
598.834	-0.02
599.024	-0.02
599.214	-0.03
599.404	0.04
599.594	-0.02
599.784	-0.04
599.974	0.03
600.164	-0.02
600.354	-0.05
600.544	-0.06
600.734	0
600.924	0.04
601.114	-0.04
601.303	-0.02
601.493	0.01
601.683	-0.03
601.873	-0.01
602.063	-0.04
602.252	0.03
602.442	-0.05
602.632	-0.06
602.821	-0.03
603.011	-0.01
603.201	-0.04
603.39	-0.02
603.58	-0.05
603.77	0.01
603.959	0.01
604.149	0.01
604.339	-0.02
604.528	0.02
604.718	-0.01
604.907	-0.01
605.097	-0.03
605.286	-0.05
605.476	-0
605.665	-0.03
605.855	-0.02
606.044	0.04
606.234	0.01
606.423	-0.02
606.612	-0.01
606.802	0
606.991	0.01
607.181	-0
607.37	-0.03
607.559	0.01
607.749	-0.02
607.938	0.01
608.127	0
608.316	-0.04
608.506	-0.01
608.695	-0.02
608.884	-0.03
609.073	0
609.263	0.05
609.452	0
609.641	0
609.83	-0.03
610.019	-0.03
610.208	-0.02
610.397	-0.02
610.586	0.01
610.775	-0.03
610.965	-0.05
611.154	-0.02
611.343	-0
611.532	0.01
611.721	-0.03
611.91	-0.03
612.099	0.01
612.287	-0.01
612.476	-0.03
612.665	-0
612.854	-0.03
613.043	0.05
613.232	-0.02
613.421	-0.04
613.61	-0
613.798	-0.02
613.987	0.03
614.176	-0.03
614.365	0
614.554	-0.01
614.742	0.01
614.931	-0.03
615.12	0
615.309	-0.05
615.497	0
615.686	-0.04
615.875	-0.01
616.063	-0.01
616.252	-0.06
616.44	-0.05
616.629	-0.01
616.818	-0.01
617.006	-0.02
617.195	-0.05
617.383	-0.01
617.572	-0.01
617.76	-0.04
617.949	0
618.137	-0.02
618.326	0.05
618.514	-0.05
618.703	-0.04
618.891	0.06
619.079	-0.07
619.268	-0.01
619.456	-0.01
619.644	0.02
619.833	-0
620.021	-0.02
620.209	-0.05
620.398	-0.01
620.586	0
620.774	0.02
620.962	-0.03
621.151	0.03
621.339	-0.02
621.527	-0.04
621.715	-0.05
621.903	-0.03
622.092	-0.05
622.28	-0.01
622.468	-0.01
622.656	0.02
622.844	0.01
623.032	-0.06
623.22	-0.03
623.408	0.03
623.596	-0.03
623.784	0
623.972	-0.03
624.16	-0.02
624.348	0.04
624.536	-0.01
624.724	-0.03
624.912	-0.01
625.1	0.02
625.288	-0.03
625.476	-0.04
625.664	-0
625.851	-0.03
626.039	0
626.227	0
626.415	-0.05
626.603	-0.05
626.79	-0.01
626.978	-0.03
627.166	-0.01
627.354	0.02
627.541	-0.02
627.729	-0.07
627.917	-0.01
628.104	-0
628.292	-0.04
628.48	-0.01
628.667	0.01
628.855	-0.02
629.042	0
629.23	-0.01
629.418	-0.04
629.605	-0.03
629.793	-0.03
629.98	-0.03
630.168	0
630.355	-0.02
630.543	0.01
630.73	-0.02
630.917	0.01
631.105	0.04
631.292	-0.06
631.48	-0.02
631.667	0.04
631.854	-0.01
632.042	-0.02
632.229	-0.05
632.416	-0.03
632.604	-0.03
632.791	-0.06
632.978	-0.01
633.165	-0
633.353	0.04
633.54	0.03
633.727	-0.09
633.914	-0.03
634.101	-0.07
634.289	-0
634.476	-0.03
634.663	-0.05
634.85	-0.02
635.037	-0.07
635.224	-0.06
635.411	0.01
635.598	0.05
635.785	-0.02
635.972	-0.02
636.159	0.01
636.346	-0.05
636.533	-0.03
636.72	-0.03
636.907	-0.03
637.094	-0
637.281	-0.01
637.468	-0.01
637.655	-0.03
637.842	-0.01
638.029	-0.02
638.215	0.04
638.402	-0.02
638.589	-0.02
638.776	-0.07
638.963	-0.01
639.149	0.01
639.336	0.02
639.523	-0.02
639.709	-0.02
639.896	-0.02
640.083	0.03
640.27	0.01
640.456	-0.01
640.643	0.01
640.829	-0.08
641.016	-0.02
641.203	-0.06
641.389	-0.01
641.576	0.01
641.762	-0.01
641.949	-0.05
642.135	0.02
642.322	0.03
642.508	-0.07
642.695	-0
642.881	-0.03
643.068	-0.01
643.254	-0
643.441	0.05
643.627	-0.03
643.813	-0.03
644	0.02
644.186	-0.02
644.372	0.01
644.559	-0
644.745	-0.03
644.931	-0.02
645.118	-0.02
645.304	-0
645.49	-0.03
645.676	-0.01
645.862	0
646.049	0.02
646.235	-0.03
646.421	0.04
646.607	0.04
646.793	-0.02
646.979	-0.04
647.165	-0.01
647.352	0.02
647.538	0.04
647.724	-0.03
647.91	0.03
648.096	0.04
648.282	0.01
648.468	-0
648.654	-0.01
648.84	-0.02
649.026	0.02
649.212	-0
649.397	-0.03
649.583	-0.05
649.769	-0
649.955	-0.02
650.141	0.01
650.327	0.06
650.513	-0.05
650.698	0.03
650.884	-0.07
651.07	0
651.256	-0.03
651.442	-0.01
651.627	-0.01
651.813	0.01
651.999	-0.01
652.184	0
652.37	-0.02
652.556	-0.01
652.741	0.07
652.927	-0.08
653.113	0.01
653.298	0
653.484	-0.03
653.669	-0.06
653.855	-0.01
654.04	0
654.226	-0.04
654.412	-0.04
654.597	-0.04
654.782	0.01
654.968	0.03
655.153	-0.01
655.339	-0.03
655.524	-0.07
655.71	0.01
655.895	-0.03
656.08	-0.02
656.266	0.02
656.451	0.03
656.636	-0.03
656.822	0.01
657.007	-0.03
657.192	-0.06
657.378	-0.08
657.563	-0.02
657.748	0
657.933	-0.02
658.118	-0.03
658.304	-0.04
658.489	0.03
658.674	0.01
658.859	-0.04
659.044	0.01
659.229	-0.02
659.414	-0.05
659.599	-0.03
659.785	-0.09
659.97	-0.02
660.155	-0.01
660.34	-0.02
660.525	-0.02
660.71	-0.02
660.895	0.02
661.08	-0.04
661.264	-0.03
661.449	0.03
661.634	0.02
661.819	0.01
662.004	0.02
662.189	-0.06
662.374	-0.04
662.559	-0.07
662.743	-0.09
662.928	-0.01
663.113	-0.04
663.298	-0.05
663.483	-0.03
663.667	0.02
663.852	-0.07
664.037	0.03
664.221	-0.01
664.406	0.01
664.591	0.02
664.775	-0.01
664.96	-0.03
665.145	-0.01
665.329	0.04
665.514	-0.03
665.698	-0.02
665.883	-0.06
666.068	0.06
666.252	0.01
666.437	-0.05
666.621	-0
666.806	0.02
666.99	-0.03
667.174	-0.06
667.359	0.01
667.543	-0.04
667.728	0.01
667.912	-0.07
668.096	0.02
668.281	-0.03
668.465	-0.02
668.649	-0.03
668.834	-0.06
669.018	-0.01
669.202	-0.04
669.387	-0.04
669.571	0.04
669.755	-0.05
669.939	0
670.124	-0
670.308	0.02
670.492	-0.02
670.676	0.01
670.86	0
671.044	-0.08
671.228	0.03
671.413	-0.06
671.597	-0.06
671.781	-0.04
671.965	-0.01
672.149	-0.04
672.333	0.01
672.517	-0.02
672.701	0.03
672.885	-0.02
673.069	-0.07
673.253	0.03
673.437	-0.03
673.621	-0.01
673.804	-0.04
673.988	-0.02
674.172	0
674.356	-0.09
674.54	-0.02
674.724	0.07
674.908	-0.03
675.091	0.02
675.275	-0.01
675.459	0.02
675.643	-0.03
675.826	0.01
676.01	0
676.194	-0.03
676.377	0.05
676.561	0.02
676.745	-0.03
676.928	-0
677.112	0.06
677.296	-0.04
677.479	-0.02
677.663	-0.02
677.846	-0.01
678.03	-0
678.213	-0.05
678.397	0.01
678.58	-0
678.764	-0.03
678.947	-0.02
679.131	-0.03
679.314	0.03
679.498	-0.02
679.681	0.01
679.865	0.05
680.048	-0.03
680.231	0
680.415	-0.03
680.598	-0.03
680.781	-0.02
680.965	0.01
681.148	-0.03
681.331	-0.05
681.514	0.04
681.698	-0.05
681.881	-0
682.064	-0.01
682.247	0.02
682.43	-0.09
682.614	0.01
682.797	0.06
682.98	-0.02
683.163	-0.06
683.346	0.04
683.529	-0.01
683.712	-0.02
683.895	-0
684.078	-0.09
684.261	0
684.444	-0
684.627	0.07
684.81	-0.02
684.993	-0.04
685.176	0.04
685.359	-0.03
685.542	0.03
685.725	0.05
685.908	-0.01
686.091	-0.01
686.274	0.05
686.457	-0
686.639	0.02
686.822	-0.01
687.005	0.01
687.188	0.03
687.371	0.07
687.553	0.01
687.736	-0.03
687.919	0.04
688.102	0.08
688.284	-0.02
688.467	0.03
688.65	-0.03
688.832	-0.03
689.015	-0.04
689.197	-0.03
689.38	0.07
689.563	0.11
689.745	-0.03
689.928	-0.06
690.11	0.03
690.293	-0.01
690.475	-0.04
690.658	0.05
690.84	0.02
691.023	0.04
691.205	0.02
691.388	0.03
691.57	0.12
691.752	0.07
691.935	-0.05
692.117	-0.02
692.3	0
692.482	-0
692.664	0.01
692.847	0.06
693.029	0.06
693.211	0.05
693.393	0.01
693.576	0.01
693.758	0.01
693.94	0.02
694.122	-0.06
694.304	0
694.487	0.03
694.669	0.07
694.851	-0.02
695.033	0.03
695.215	-0.04
695.397	0.01
695.579	0.08
695.761	-0.08
695.943	-0
696.125	0.06
696.308	0.08
696.49	-0.08
696.671	0.14
696.853	0
697.035	0.14
697.217	0.03
697.399	0.08
697.581	-0.03
697.763	0.03
697.945	-0.03
698.127	0.04
698.309	0.11
698.491	0.03
698.672	0.09
698.854	0.07
699.036	0.09
699.218	0.01
699.399	0.1
699.581	0.07
699.763	0.03
699.945	-0.04
700.126	-0.01
700.308	0.01
700.49	0.09
700.671	0.02
700.853	-0.01
701.035	0.05
701.216	0.06
701.398	0.01
701.579	0.02
701.761	0.02
701.943	0.03
702.124	0.02
702.306	0.09
702.487	0.13
702.669	0.04
702.85	0.05
703.031	-0.03
703.213	0.14
703.394	0.14
703.576	0.03
703.757	0.12
703.938	0.13
704.12	0.22
704.301	0.03
704.483	-0.01
704.664	0.12
704.845	0.16
705.026	0.12
705.208	0.05
705.389	0.12
705.57	0.03
705.751	0.03
705.933	0.1
706.114	0.18
706.295	0.14
706.476	-0.03
706.657	0.13
706.838	0.08
707.02	0.16
707.201	0.1
707.382	0.08
707.563	0.13
707.744	0.07
707.925	0.09
708.106	0.02
708.287	0.08
708.468	0.22
708.649	0.1
708.83	0.16
709.011	0.06
709.192	0.11
709.373	0.09
709.554	0.11
709.734	0.1
709.915	0.18
710.096	0.16
710.277	0.07
710.458	0.2
710.639	0.18
710.819	0.02
711	0.11
711.181	0.17
711.362	0.2
711.542	0.16
711.723	0.14
711.904	0.16
712.085	0.16
712.265	0.19
712.446	0.09
712.627	0.09
712.807	0.18
712.988	0.16
713.168	0.07
713.349	0.23
713.53	0.15
713.71	0.07
713.891	0.12
714.071	0.22
714.252	0.19
714.432	0.19
714.613	0.15
714.793	0.2
714.974	0.25
715.154	0.25
715.334	0.34
715.515	0.29
715.695	0.13
715.876	0.21
716.056	0.23
716.236	0.21
716.417	0.16
716.597	0.15
716.777	0.4
716.957	0.2
717.138	0.24
717.318	0.29
717.498	0.12
717.678	0.28
717.859	0.25
718.039	0.21
718.219	0.25
718.399	0.28
718.579	0.3
718.759	0.2
718.939	0.31
719.12	0.31
719.3	0.32
719.48	0.19
719.66	0.2
719.84	0.47
720.02	0.37
720.2	0.25
720.38	0.39
720.56	0.45
720.74	0.27
720.92	0.39
721.1	0.49
721.279	0.4
721.459	0.32
721.639	0.27
721.819	0.38
721.999	0.37
722.179	0.41
722.359	0.32
722.538	0.44
722.718	0.44
722.898	0.35
723.078	0.42
723.257	0.38
723.437	0.52
723.617	0.4
723.797	0.45
723.976	0.46
724.156	0.48
724.336	0.53
724.515	0.63
724.695	0.34
724.874	0.54
725.054	0.5
725.234	0.45
725.413	0.6
725.593	0.47
725.772	0.51
725.952	0.45
726.131	0.44
726.311	0.57
726.49	0.54
726.67	0.52
726.849	0.49
727.028	0.47
727.208	0.6
727.387	0.61
727.567	0.54
727.746	0.56
727.925	0.49
728.105	0.52
728.284	0.57
728.463	0.53
728.643	0.69
728.822	0.55
729.001	0.56
729.18	0.63
729.359	0.69
729.539	0.64
729.718	0.62
729.897	0.72
730.076	0.66
730.255	0.63
730.434	0.67
730.614	0.8
730.793	0.91
730.972	0.69
731.151	0.68
731.33	0.9
731.509	0.79
731.688	0.8
731.867	0.9
732.046	0.72
732.225	1.1
732.404	0.82
732.583	0.74
732.762	0.87
732.941	0.95
733.12	0.89
733.298	0.82
733.477	0.95
733.656	0.79
733.835	0.88
734.014	0.9
734.193	0.87
734.371	0.96
734.55	0.9
734.729	0.82
734.908	0.87
735.086	0.89
735.265	0.98
735.444	0.72
735.623	0.86
735.801	0.83
735.98	0.99
736.159	0.92
736.337	1.03
736.516	0.89
736.694	0.96
736.873	0.97
737.052	1.05
737.23	1.05
737.409	0.76
737.587	1.04
737.766	0.65
737.944	0.81
738.123	0.84
738.301	0.84
738.479	0.76
738.658	0.82
738.836	0.64
739.015	0.69
739.193	0.86
739.371	0.62
739.55	0.59
739.728	0.54
739.906	0.82
740.085	0.83
740.263	0.63
740.441	0.47
740.62	0.78
740.798	0.65
740.976	0.57
741.154	0.48
741.332	0.5
741.511	0.52
741.689	0.62
741.867	0.55
742.045	0.46
742.223	0.41
742.401	0.39
742.579	0.31
742.757	0.41
742.935	0.3
743.114	0.41
743.292	0.26
743.47	0.29
743.648	0.4
743.826	0.36
744.004	0.35
744.181	0.41
744.359	0.26
744.537	0.3
744.715	0.22
744.893	0.33
745.071	0.19
745.249	0.37
745.427	0.25
745.605	0.37
745.782	0.24
745.96	0.23
746.138	0.21
746.316	0.37
746.493	0.13
746.671	0.25
746.849	0.25
747.027	0.33
747.204	0.13
747.382	0.27
747.56	0.05
747.737	0.11
747.915	0.08
748.093	0.14
748.27	0.12
748.448	0.06
748.625	0.03
748.803	0.07
748.98	0.04
749.158	0.09
749.335	0.18
749.513	0.13
749.69	0.04
749.868	0.1
750.045	0.18
750.223	0.06
750.4	-0.12
750.578	0.22
750.755	0.01
750.932	-0.07
751.11	0.2
751.287	0.01
751.464	0.19
751.642	-0.01
751.819	0.11
751.996	0.08
752.173	0.14
752.351	-0.04
752.528	0.01
752.705	0.04
752.882	0.01
753.06	0.05
753.237	0.1
753.414	0.24
753.591	0.23
753.768	0.06
753.945	-0.07
754.122	-0.05
754.299	0.12
754.476	-0.02
754.654	0.05
754.831	0.13
755.008	0.03
755.185	-0.02
755.362	-0.1
755.539	0.05
755.716	-0.05
755.892	0.08
756.069	0.01
756.246	-0
756.423	-0.03
756.6	0.16
756.777	-0.05
756.954	0.08
757.131	-0.03
757.307	-0.1
757.484	-0.13
757.661	-0.03
757.838	-0.07
758.015	-0
758.191	0.1
758.368	0.12
758.545	0.14
758.721	0.02
758.898	-0.13
759.075	0.06
759.251	0.22
759.428	0.1
759.605	-0.12
759.781	-0.03
759.958	-0
760.134	0.02
760.311	-0.03
760.488	0.03
760.664	0.11
760.841	0
761.017	-0.03
761.194	0.06
761.37	0.16
761.547	-0
761.723	-0.06
761.899	0.07
762.076	-0.11
762.252	-0.12
762.429	0.02
762.605	0.03
762.781	-0.07
762.958	0.17
763.134	-0.13
763.31	-0.12
763.486	0.11
763.663	-0.15
763.839	-0
764.015	-0.08
764.191	0.01
764.368	-0.03
764.544	-0.11
764.72	0.05
764.896	0.09
765.072	0.06
765.248	-0.04
765.425	-0
765.601	-0
765.777	-0.01
765.953	-0.15
766.129	-0.04
766.305	-0.16
766.481	0.01
766.657	-0
766.833	0.09
767.009	-0.14
767.185	-0.05
767.361	0.01
767.537	-0.17
767.713	0.1
767.889	-0.11
768.065	-0.05
768.24	0.08
768.416	0.16
768.592	-0.04
768.768	0.03
768.944	0.02
769.12	-0.13
769.295	-0.04
769.471	-0.06
769.647	-0.02
769.823	0.17
769.998	0.08
770.174	-0.07
770.35	0.19
770.525	0.28
770.701	-0.06
770.877	0.03
771.052	-0.02
771.228	0.04
771.403	0.01
771.579	0.02
771.755	0.16
771.93	-0.07
772.106	-0.11
772.281	-0.38
772.457	0
772.632	-0.08
772.808	-0.27
772.983	-0.09
773.159	-0.12
773.334	0.06
773.509	0.01
773.685	-0.04
773.86	0.23
774.036	0.13
774.211	-0.07
774.386	-0.19
774.562	0.04
774.737	0.06
774.912	-0.16
775.087	0.06
775.263	-0.13
775.438	-0.12
775.613	-0.09
775.788	0.01
775.964	0.06
776.139	0.24
776.314	-0.01
776.489	0.09
776.664	0.1
776.839	-0.06
777.014	0.19
777.19	0.14
777.365	0.22
777.54	0.2
777.715	-0.08
777.89	-0.11
778.065	-0.09
778.24	-0.06
778.415	0.19
778.59	-0.29
778.765	-0.05
778.94	-0.01
779.115	-0.03
779.289	-0.1
779.464	0.02
779.639	-0.06
779.814	-0.24
779.989	-0.18
780.164	-0
780.339	0.1
780.513	-0.11
780.688	-0.09
780.863	0.01
781.038	-0.1
781.212	-0.19
781.387	0.03
781.562	0.16
781.737	-0.28
781.911	0.18
782.086	-0.15
782.261	-0.01
782.435	0.27
782.61	-0.06
782.784	-0.01
782.959	0.12
783.134	-0.04
783.308	-0.22
783.483	-0.12
783.657	0.23
783.832	0.12
784.006	-0.43
784.181	-0.15
784.355	0.12
784.53	-0.08
784.704	-0.26
784.878	0.17
785.053	-0.09
785.227	0.06
785.402	0.35
785.576	-0.23
785.75	-0.05
785.925	-0.08
786.099	-0.06
786.273	0.17
786.448	-0.03
786.622	0.11
786.796	-0
786.97	-0.13
787.145	0.18
787.319	-0.38
787.493	-0.16
787.667	-0.34
787.841	0.09
788.015	0.02
788.19	-0.05
788.364	0.11
788.538	0.18
788.712	0.16
788.886	-0.15
789.06	0.12
789.234	0.16
789.408	-0.39
789.582	-0.16
789.756	0.06
789.93	-0.34
790.104	-0.04
790.278	-0.2
790.452	-0.14
790.626	0.15
790.8	-0.23
790.973	0.03
791.147	0.09
791.321	0.14
791.495	0.37
791.669	0.07
791.843	-0.07
792.016	0.05
792.19	0.37
792.364	-0.32
792.538	0.41
792.711	0.12
792.885	-0.15
793.059	-0.12
793.233	-0.59
793.406	0.03
793.58	-0.01
793.754	-0.03
793.927	-0.16
794.101	0.29
794.274	0.16
794.448	0.18
794.622	-0.27
794.795	0.2
794.969	-0.14
795.142	0.32
795.316	0.14
795.489	0.01
795.663	0.15
795.836	-0.26
796.009	-0.1
796.183	0.21
796.356	0.21
796.53	0.2
796.703	-0.05
796.876	0.43
797.05	0.05
797.223	0.08
797.396	0.04
797.57	0.13
797.743	0.04
797.916	0.15
798.09	0.14
798.263	0.24
798.436	0.01
798.609	-0.13
798.782	-0.11
798.956	0.17
799.129	-0.11
799.302	-0.19
799.475	-0.09
799.648	-0.5
799.821	-0.11
799.994	-0.11
800.167	-0.21
800.34	0.04
800.514	0.1
800.687	-0.2
800.86	-0.21
801.033	-0.1
801.206	0.22
801.379	-0.38
801.551	0.1
801.724	-0.01
801.897	0.5
802.07	-0.14
802.243	-0.43
802.416	-0.02
802.589	0.03
802.762	-0.06
802.935	-0.5
803.107	0.24
803.28	0.39
803.453	0.13
803.626	-0.13
803.798	0.01
803.971	-0.4
804.144	0.14
804.317	0.11
804.489	-0.07
804.662	-0.1
804.835	0.15
805.007	-0.26
805.18	0.3
805.353	0.17
805.525	-0.38
805.698	-0.17
805.87	0.34
806.043	0.19
806.215	-0.4
806.388	-0.4
806.56	0.1
806.733	0.04
806.905	0.04
807.078	0.15
807.25	-0.33
807.423	-0.12
807.595	0.11
807.768	-0.09
807.94	0.27
808.112	0.22
808.285	-0.16
808.457	0.28
808.629	0.22
808.802	0.44
808.974	-0.21
809.146	0.06
809.318	-0.33
809.491	-0.25
809.663	0.54
809.835	-0.06
810.007	0.21
810.18	0.06
810.352	-0.24
810.524	0.15
810.696	0.21
810.868	0.55
811.04	0.18
811.212	0.02
811.384	0.15
811.556	-0.15
811.728	0.02
811.901	0.45
812.073	-0.4
812.245	0.28
812.417	0.13
812.589	-0.55
812.76	0.05
812.932	0.12
813.104	0.47
813.276	0.03
813.448	0.21
813.62	0.03
813.792	-0.02
813.964	-0.04
814.136	-0.17
814.307	-0.16
814.479	-0.43
814.651	0.08
814.823	0.61
814.995	-0.12
815.166	0.08
815.338	-0.07
815.51	-0.55
815.681	0.84
815.853	-0.19
816.025	0.23
816.196	0.21
816.368	0.27
816.54	-0.57
816.711	-0.15
816.883	0.21
817.054	1.22
817.226	-0.43
817.398	0
817.569	-0.52
817.741	-0.04
817.912	-0.25
818.084	-0.09
818.255	0.15
818.426	-0.36
818.598	-0.08
818.769	-0.12
818.941	0.08
819.112	0.55
819.283	0.46
819.455	-0.63
819.626	-0.18
819.798	0.26
819.969	0.2
820.14	-0.03
820.311	-0.18
820.483	0.54
820.654	0.32
820.825	-0.08
820.996	-0.51
821.168	-0.4
821.339	0.01
821.51	-0.37
821.681	-0.2
821.852	0.13
822.023	-0.26
822.195	-0.23
822.366	-0.01
822.537	0.14
822.708	-0.26
822.879	-0.46
823.05	0.51
823.221	-0.08
823.392	0.33
823.563	0.08
823.734	0.16
823.905	0.25
824.076	-0.62
824.247	-0.34
824.418	-0.25
824.589	0.65
824.759	0.14
824.93	-0.23
825.101	-0.58
825.272	0.18
825.443	0.6
825.614	0.11
825.784	-0.91
825.955	0.87
826.126	0.13
826.297	-0.19
826.467	-0.02
826.638	-0.08
826.809	-0.52
826.98	0.16
827.15	-0.05
827.321	0.07
827.492	0.58
827.662	-0.49
827.833	0.89
828.003	0.06
828.174	-0.67
828.345	-0.75
828.515	0.87
828.686	0.25
828.856	-0.17
829.027	-0.03
829.197	0.65
829.368	0.01
829.538	-0.33
829.709	0.03
829.879	-0.06
830.049	0.03
830.22	-0.51
830.39	-0.01
830.56	0.52
830.731	-0.46
830.901	-0.26
831.072	0
831.242	0.4
831.412	-0.5
831.582	-0.51
831.753	-1.08
831.923	0.97
832.093	-0.13
832.263	0.32
832.434	-0.53
832.604	-0.04
832.774	0.35
832.944	-0.28
833.114	-0.3
833.284	0.12
833.454	-0.13
833.624	0.05
833.795	-0.54
833.965	0.33
834.135	0.08
834.305	-0.89
834.475	-0.56
834.645	-0.11
834.815	-0.72
834.985	-0.49
835.155	-0.01
835.325	0.58
835.494	0.61
835.664	-0.65
835.834	-0.39
836.004	-0.42
836.174	0.27
836.344	0.17
836.514	-1.28
836.684	-0.7
836.853	0.18
837.023	0.24
837.193	-0.47
837.363	0.06
837.532	-0.05
837.702	-0.56
837.872	0.28
838.041	1.07
838.211	1.49
838.381	-1.02
838.55	0.15
838.72	1.37
838.89	1.33
839.059	-0.19
839.229	-0.84
839.398	0.69
839.568	0.1
839.738	0.11
839.907	0.46
840.077	0.22
840.246	-0.02
840.416	-0.66
840.585	-0.24
840.755	0.73
840.924	-0.04
841.093	-0.96
841.263	-0.12
841.432	0.54
841.602	-0.47
841.771	-0.95
841.94	0.05
842.11	1.38
842.279	1.49
842.448	-0.55
842.617	-0.85
842.787	0.74
842.956	-0.75
843.125	0.37
843.294	0.74
843.464	0.81
843.633	-0.39
843.802	-0.97
843.971	-0.47
844.14	0.43
844.309	-0.11
844.479	-0.45
844.648	-0.49
844.817	-0.11
844.986	0.39
845.155	0.4
845.324	-0.48
845.493	0.12
845.662	-0.62
845.831	0.48
846	0.6
846.169	0.48
846.338	1.05
846.507	-0.03
846.676	0.19
846.844	-0.63
847.013	0.38
847.182	0.09
847.351	-0.78
847.52	-0.66
847.689	-0.11
847.858	0.13
848.026	-0.82
848.195	-0.49
848.364	-0.16
848.533	-0.44
848.701	-0.52
848.87	0.19
849.039	1.61
849.207	0.34
849.376	1.06
849.545	1
849.713	-0.44
849.882	-0.03
850.051	-0.06
850.219	0.42
850.388	0.87
850.556	-0.37
850.725	-1.58
850.893	0.31
851.062	-0.17
851.23	0.58
851.399	-0.87
851.567	-0.17
851.736	-0.42
851.904	-1.36
852.073	0.79
852.241	-0.08
852.41	0.7
852.578	-0.5
852.746	-1.37
852.915	0.76
853.083	-0.36
853.251	-2.17
853.42	0.24
853.588	0.59
853.756	0.33
853.924	0.26
854.093	-1.19
854.261	0.78
854.429	-0.87
854.597	0.03
854.765	-1.29
854.934	0.36
855.102	-0.04
855.27	0.61
855.438	0.82
855.606	1.6
855.774	2.04
855.942	-1.81
856.11	-1.66
856.278	-0.32
856.446	0.4
856.614	-0.28
856.782	-0.76
856.95	0.35
857.118	0.84
857.286	0.38
857.454	-1.1
857.622	1.06
857.79	0.19
857.958	-0.38
858.126	-0.94
858.294	-2.43
858.462	-0.33
858.629	-1.26
858.797	-0.94
858.965	0.28
859.133	0
859.301	0.25
859.468	1.04
859.636	-0.31
859.804	0.5
859.971	0.46
860.139	-0.9
860.307	0.14
860.474	0.37
860.642	-0.69
860.81	-0.44
860.977	-1.21
861.145	0.68
861.313	-0.33
861.48	-0.89
861.648	0.65
861.815	-0.92
861.983	-2.36
862.15	-0.62
862.318	0.54
862.485	0.83
862.653	-1.48
862.82	-0.46
862.988	0.59
863.155	1.46
863.322	-1.69
863.49	-1.3
863.657	-1.7
863.824	1.87
863.992	1.13
864.159	0.28
864.326	1.66
864.494	-0.73
864.661	3.4
864.828	-1.46
864.996	1.02
865.163	1.28
865.33	-1.38
865.497	-1.97
865.664	-1.19
865.832	-1.29
865.999	-0.77
866.166	-1.12
866.333	-1.64
866.5	-2.8
866.667	-0.57
866.834	0.15
867.001	2.88
867.168	-1.69
867.335	-0.65
867.502	-2.19
867.669	-0.09
867.836	1.85
868.003	-0.83
868.17	0.55
868.337	-2.69
868.504	0.8
868.671	-2.42
868.838	-1.69
869.005	-0.77
869.172	0.76
869.339	-0.03
869.505	-0.53
869.672	-1.03
869.839	0.49
870.006	0.02
870.173	-0.82
870.339	0.54
870.506	1.55
870.673	-1.04
870.84	0.6
871.006	0.83
871.173	-0.3
871.34	0.74
871.506	-2.42
871.673	0.72
871.839	-2.82
872.006	0.21
872.173	-0.31
872.339	-0.44
872.506	0.88
872.672	-0.11
872.839	-1.35
873.005	0.58
873.172	3.2
873.338	1.04
873.505	0.32
873.671	-0.05
873.838	2.63
874.004	-1.75
874.171	-1.45
874.337	0.79
874.503	1.2
874.67	0.79
874.836	-0.71
875.002	2.77
875.169	1.62
875.335	1.66
875.501	-0.82
875.668	-1.3
875.834	-0.65
876	-1.17
876.166	0.79
876.332	0.97
876.499	2.24
876.665	0.44
876.831	-0.6
876.997	1.74
877.163	-0.73
877.329	0.06
877.495	0.31
877.662	0.51
877.828	-0.69
877.994	-0.86
878.16	-2.16
878.326	-0.94
878.492	-0.83
878.658	0.56
878.824	0.84
878.99	-0.59
879.156	-1.69
879.322	1.74
879.487	0.26
879.653	0.54
879.819	-0.71
879.985	-1.21
880.151	0.71
880.317	0.56
880.483	1.4
880.648	1.03
880.814	-2.28
880.98	2.1
881.146	-2.85
881.312	-1.09
881.477	-0.39
881.643	1.39
881.809	1.45
881.974	3.03
882.14	-3.64
882.306	1.11
882.471	1.77
882.637	-0.81
882.803	1.44
882.968	1.76
883.134	2.17
883.299	1.68
883.465	-0.13
883.63	2.26
883.796	0.54
883.961	1.51
884.127	-0.07
884.292	-5.36
884.458	-1.07
884.623	-1.07
