Data from Apollo_Calib_20240827__AbsoluteIrradiance__563__08-32-01-885.txt Node

Date: Wed Aug 28 08:32:01 BST 2024
User: biology
Spectrometer: FLMT08252
Trigger mode: 0
Integration Time (sec): 5.000000E-1
Scans to average: 5
Electric dark correction enabled: true
Nonlinearity correction enabled: false
Boxcar width: 0
XAxis mode: Wavelengths
Number of Pixels in Spectrum: 3648
>>>>>Begin Spectral Data<<<<<
179.588	-0
179.809	-0
180.03	-0
180.251	-0
180.473	-0
180.694	0
180.915	0
181.136	-0
181.357	0
181.578	-0
181.799	-0
182.02	-0
182.241	0
182.462	-0
182.683	0
182.904	-0
183.125	0
183.346	-0
183.567	0
183.788	-0
184.009	-0
184.23	0
184.451	0
184.672	-0
184.892	-0
185.113	0
185.334	0
185.555	-0
185.776	-0
185.996	-0
186.217	0
186.438	0
186.659	-0
186.879	-0
187.1	-0
187.321	-0
187.541	-0
187.762	-0
187.983	0
188.203	-0
188.424	0
188.644	-0
188.865	0
189.086	-0
189.306	0
189.527	0
189.747	0
189.968	-0
190.188	0
190.409	0
190.629	0
190.849	-0
191.07	-0
191.29	0
191.511	0
191.731	-0
191.951	-0
192.172	0
192.392	0
192.612	-0
192.833	-0
193.053	-0
193.273	0
193.493	-0
193.714	-0
193.934	0
194.154	0
194.374	0
194.594	0
194.815	-0
195.035	0
195.255	0
195.475	-0
195.695	0
195.915	0
196.135	0
196.355	0
196.575	0
196.795	0
197.015	-0
197.235	-0
197.455	-0
197.675	0
197.895	-0
198.115	-0
198.335	0
198.555	-0
198.775	0
198.995	0
199.214	0
199.434	0
199.654	-0
199.874	-0
200.094	1.62
200.313	-0.33
200.533	-0.15
200.753	-0.74
200.973	1.07
201.192	0.91
201.412	-0.93
201.632	0.09
201.851	0.77
202.071	0.05
202.291	-0.26
202.51	-0.63
202.73	0.56
202.95	-0.38
203.169	-0.01
203.389	0.11
203.608	0.37
203.828	-0.27
204.047	-0.18
204.267	0.42
204.486	0.06
204.706	0.19
204.925	-0.12
205.145	-0.08
205.364	0.42
205.583	0.8
205.803	-0.32
206.022	-0.27
206.242	0.18
206.461	-0.19
206.68	-0.2
206.9	-0.03
207.119	0.85
207.338	0.4
207.557	-0.04
207.777	-0.29
207.996	-0.1
208.215	0.62
208.434	-0.2
208.654	-0.53
208.873	0.04
209.092	0.73
209.311	-0.23
209.53	-0.04
209.749	0.14
209.968	-0.26
210.187	-0.05
210.407	-0.21
210.626	-0.16
210.845	0.22
211.064	0
211.283	0
211.502	0.19
211.721	-0.06
211.94	0.06
212.159	0.3
212.377	-0.16
212.596	0.44
212.815	0.24
213.034	0.08
213.253	0.18
213.472	0.3
213.691	-0.09
213.91	-0.31
214.128	-0.18
214.347	0.31
214.566	-0.37
214.785	-0.24
215.003	0.22
215.222	0.07
215.441	0.25
215.66	-0.25
215.878	0.01
216.097	0.28
216.316	-0.1
216.534	-0.11
216.753	0.34
216.972	-0.02
217.19	-0.12
217.409	-0.2
217.627	-0.18
217.846	0.12
218.064	0.1
218.283	-0.2
218.501	0.49
218.72	0.18
218.938	-0.17
219.157	-0.05
219.375	0.08
219.594	0.16
219.812	-0.12
220.031	-0.18
220.249	0.28
220.467	0.31
220.686	0.04
220.904	-0.23
221.122	-0.39
221.341	0.26
221.559	-0.02
221.777	-0.22
221.995	0.01
222.214	0.05
222.432	-0.04
222.65	0.25
222.868	0.08
223.086	0.19
223.305	-0
223.523	0.01
223.741	0.33
223.959	-0.1
224.177	-0.09
224.395	0.07
224.613	0.2
224.831	0.14
225.049	-0.17
225.267	-0.06
225.485	0.12
225.703	0
225.921	0.16
226.139	-0.1
226.357	0.13
226.575	0.11
226.793	-0.02
227.011	0.52
227.229	0.05
227.447	0.18
227.665	0
227.883	-0.23
228.1	0.03
228.318	-0.05
228.536	-0.12
228.754	-0.09
228.972	0.15
229.189	0.08
229.407	-0.02
229.625	-0.01
229.843	0.26
230.06	0.18
230.278	-0.03
230.496	0.08
230.713	0.01
230.931	0.2
231.149	-0.02
231.366	-0.22
231.584	0.02
231.801	0.23
232.019	-0.03
232.236	-0.12
232.454	-0.09
232.671	0.04
232.889	0
233.106	-0.05
233.324	0.08
233.541	-0.14
233.759	0.09
233.976	0.01
234.194	-0
234.411	-0.03
234.628	-0.04
234.846	0.01
235.063	-0.03
235.28	-0.08
235.498	-0.03
235.715	-0.11
235.932	0.19
236.149	-0.05
236.367	-0.17
236.584	0.04
236.801	0.01
237.018	0.13
237.236	-0.03
237.453	-0.11
237.67	0.14
237.887	0.03
238.104	0.08
238.321	0.01
238.538	-0.01
238.755	0.08
238.973	-0.16
239.19	0.03
239.407	0.09
239.624	0.06
239.841	-0.1
240.058	-0.11
240.275	0.11
240.492	-0.09
240.709	0.01
240.925	-0.05
241.142	-0
241.359	-0.04
241.576	-0.02
241.793	-0.06
242.01	-0.01
242.227	0.01
242.444	0.08
242.66	0.07
242.877	0.08
243.094	-0.03
243.311	0.11
243.527	-0.02
243.744	0.02
243.961	0.12
244.178	-0
244.394	0.03
244.611	0.18
244.828	0.1
245.044	-0.06
245.261	-0.1
245.477	-0.01
245.694	0.02
245.911	0.02
246.127	0.05
246.344	0.12
246.56	0.08
246.777	0.01
246.993	0.02
247.21	0.07
247.426	0.07
247.643	-0.01
247.859	-0.12
248.076	0.04
248.292	0.21
248.508	-0.01
248.725	-0.01
248.941	0.05
249.157	0.08
249.374	-0.07
249.59	-0.04
249.806	0.02
250.023	0.09
250.239	-0.08
250.455	-0.04
250.671	0.02
250.888	0.01
251.104	0.03
251.32	-0.06
251.536	0.09
251.752	0.04
251.969	0.02
252.185	0.06
252.401	0.15
252.617	0.05
252.833	-0.04
253.049	0.05
253.265	-0.03
253.481	0.05
253.697	-0.04
253.913	-0.01
254.129	0.08
254.345	0.02
254.561	-0.02
254.777	-0.03
254.993	0.02
255.209	0.02
255.425	-0.01
255.641	-0.03
255.857	0.09
256.073	0.02
256.288	-0.1
256.504	-0.01
256.72	0.03
256.936	0.06
257.152	-0
257.367	-0.05
257.583	0.04
257.799	0.07
258.015	-0.03
258.23	0.01
258.446	0.1
258.662	0.04
258.877	-0.06
259.093	0.01
259.309	-0.02
259.524	0.13
259.74	-0.07
259.955	-0.09
260.171	-0
260.387	0.01
260.602	0.07
260.818	0.04
261.033	0.03
261.249	0.01
261.464	-0.01
261.68	-0.04
261.895	0.03
262.11	0.02
262.326	-0.04
262.541	-0.13
262.757	0.1
262.972	0.01
263.187	0.01
263.403	-0.01
263.618	0.05
263.833	-0.07
264.049	-0.06
264.264	-0.06
264.479	0.12
264.694	0.13
264.91	-0.06
265.125	0.02
265.34	0.03
265.555	0.15
265.77	0.04
265.986	-0.04
266.201	0.02
266.416	0.09
266.631	0.01
266.846	0.01
267.061	0.01
267.276	0.04
267.491	-0.09
267.706	0.08
267.921	0.04
268.136	0.02
268.351	-0.03
268.566	-0.1
268.781	0.08
268.996	0.04
269.211	-0
269.426	-0.05
269.641	0.02
269.856	0.07
270.071	-0.02
270.285	-0.11
270.5	0.06
270.715	0.05
270.93	0
271.145	0.02
271.359	0.04
271.574	-0.03
271.789	-0.01
272.004	-0.04
272.218	-0.04
272.433	0.09
272.648	-0.01
272.862	0.08
273.077	-0
273.292	0.03
273.506	-0.02
273.721	-0.02
273.936	0.07
274.15	0.06
274.365	0.02
274.579	0.03
274.794	-0.01
275.008	0.09
275.223	-0.08
275.437	0.02
275.652	0.05
275.866	0.11
276.081	-0
276.295	0.08
276.509	0
276.724	-0
276.938	0.01
277.153	0.06
277.367	0.06
277.581	-0.02
277.796	-0.02
278.01	-0.09
278.224	0.07
278.438	0.11
278.653	-0.02
278.867	-0.03
279.081	-0.15
279.295	-0.02
279.51	0.04
279.724	-0.05
279.938	0.1
280.152	0.02
280.366	0.01
280.58	0.03
280.794	0.06
281.008	0.06
281.222	0.07
281.437	0.12
281.651	0.03
281.865	0.05
282.079	0.02
282.293	-0.08
282.507	-0.02
282.721	0.04
282.935	0
283.148	-0.11
283.362	0.01
283.576	-0.06
283.79	0.04
284.004	-0
284.218	0.07
284.432	-0.02
284.646	0.01
284.859	0.01
285.073	-0.04
285.287	0
285.501	0.06
285.714	0.01
285.928	-0.02
286.142	0.03
286.356	-0.02
286.569	0
286.783	0.05
286.997	0.03
287.21	-0
287.424	0.06
287.637	-0
287.851	0
288.065	0.04
288.278	-0
288.492	0.03
288.705	-0.02
288.919	0.03
289.132	-0.08
289.346	0.11
289.559	-0.08
289.773	-0.08
289.986	-0
290.2	-0
290.413	0.02
290.626	-0.01
290.84	0.02
291.053	-0.07
291.267	0.06
291.48	-0
291.693	0.01
291.906	-0.02
292.12	-0.01
292.333	-0.02
292.546	-0.04
292.76	0.09
292.973	0.05
293.186	0.03
293.399	-0.02
293.612	0.06
293.826	0.03
294.039	0.01
294.252	0.05
294.465	0.05
294.678	0.04
294.891	0.05
295.104	0.02
295.317	-0.02
295.53	0.02
295.743	0.03
295.956	0.03
296.169	0.1
296.382	0.07
296.595	0.02
296.808	0.05
297.021	0.08
297.234	0.04
297.447	0.03
297.66	0.04
297.873	0.07
298.086	0.05
298.299	-0.03
298.511	-0.07
298.724	-0.03
298.937	-0.05
299.15	0
299.363	0.02
299.575	0.06
299.788	0.03
300.001	-0
300.213	-0.04
300.426	0
300.639	-0.02
300.852	-0.03
301.064	0.02
301.277	0.07
301.489	0.05
301.702	0.02
301.915	-0.01
302.127	0.03
302.34	0.02
302.552	0.05
302.765	-0.03
302.977	0.06
303.19	0.02
303.402	0.01
303.615	0.01
303.827	0.03
304.04	-0
304.252	0.03
304.464	-0.01
304.677	0.12
304.889	0.08
305.102	-0.01
305.314	-0.03
305.526	0.08
305.739	0.05
305.951	-0
306.163	-0.03
306.375	0.06
306.588	-0.05
306.8	-0.1
307.012	-0.03
307.224	0.02
307.436	0.06
307.649	-0.04
307.861	0.02
308.073	0.05
308.285	-0
308.497	-0.04
308.709	0.02
308.921	0
309.133	0.05
309.346	0
309.558	0.05
309.77	0.05
309.982	0.03
310.194	0.07
310.406	-0.01
310.617	0.03
310.829	-0.02
311.041	0.06
311.253	-0.01
311.465	0.02
311.677	0.04
311.889	0.03
312.101	-0
312.313	0.1
312.524	0.05
312.736	-0.05
312.948	-0
313.16	0.09
313.372	0.03
313.583	0.06
313.795	0.02
314.007	-0.04
314.218	0.05
314.43	0.02
314.642	-0.01
314.853	-0.05
315.065	0.04
315.277	-0.04
315.488	0.05
315.7	0.03
315.912	0.03
316.123	0
316.335	0
316.546	0.08
316.758	0.02
316.969	-0.01
317.181	0
317.392	-0.02
317.604	0.05
317.815	0.02
318.026	-0.01
318.238	-0
318.449	0.1
318.661	-0.08
318.872	-0.07
319.083	-0.01
319.295	0.03
319.506	-0.01
319.717	0.07
319.929	-0.01
320.14	0.02
320.351	0.04
320.562	-0.01
320.774	0.04
320.985	-0
321.196	-0
321.407	-0.02
321.618	0.02
321.829	-0.01
322.041	0.01
322.252	0.02
322.463	0.02
322.674	0.01
322.885	-0.04
323.096	-0.02
323.307	0
323.518	0.03
323.729	-0.04
323.94	0
324.151	-0.02
324.362	0.04
324.573	0.01
324.784	0
324.995	0.04
325.206	0.02
325.417	-0.01
325.628	-0
325.838	0.01
326.049	0.04
326.26	0.02
326.471	0
326.682	0.06
326.892	0.01
327.103	-0.03
327.314	-0.07
327.525	0.07
327.735	-0.01
327.946	0
328.157	-0
328.368	0.03
328.578	-0
328.789	0.06
328.999	0.01
329.21	0.01
329.421	0.06
329.631	-0.07
329.842	-0.02
330.052	0.03
330.263	0.05
330.473	0.01
330.684	-0.01
330.894	-0.01
331.105	-0.02
331.315	0
331.526	-0.01
331.736	0.09
331.947	-0
332.157	-0
332.367	-0.02
332.578	0.02
332.788	0.05
332.999	0.05
333.209	0
333.419	-0.01
333.629	0.06
333.84	0.05
334.05	0.04
334.26	0.08
334.47	0.01
334.681	0.06
334.891	-0.01
335.101	0.03
335.311	0.07
335.521	-0.02
335.732	-0.03
335.942	0.05
336.152	0.05
336.362	0.08
336.572	0.02
336.782	0.02
336.992	0.02
337.202	-0.05
337.412	-0.03
337.622	0.04
337.832	0.03
338.042	-0.01
338.252	-0.04
338.462	-0.02
338.672	0.03
338.882	-0.01
339.092	-0.01
339.302	0.05
339.511	0.03
339.721	-0.02
339.931	-0.02
340.141	0.03
340.351	0.05
340.561	0.07
340.77	0
340.98	0
341.19	0.02
341.4	-0.01
341.609	-0.03
341.819	0.01
342.029	-0.06
342.238	0.04
342.448	-0.01
342.658	0.08
342.867	0.02
343.077	0.04
343.286	0.02
343.496	0.03
343.706	0.06
343.915	-0.05
344.125	0
344.334	0.04
344.544	-0.03
344.753	-0.02
344.963	-0
345.172	-0.02
345.381	-0
345.591	0.04
345.8	0.03
346.01	0.05
346.219	0.08
346.428	-0.12
346.638	0.04
346.847	-0
347.056	0.05
347.266	-0.01
347.475	-0.04
347.684	0.06
347.893	0.01
348.103	0.05
348.312	-0.03
348.521	-0.01
348.73	0.02
348.94	0.03
349.149	-0.02
349.358	-0.01
349.567	-0.03
349.776	-0.05
349.985	-0.01
350.194	0.02
350.403	0.07
350.612	-0.07
350.821	-0.02
351.03	-0.01
351.239	-0
351.448	0.02
351.657	0.02
351.866	0.05
352.075	0
352.284	0.04
352.493	-0.06
352.702	0.01
352.911	0.02
353.12	-0.01
353.329	-0.03
353.538	0.02
353.746	-0.03
353.955	0.02
354.164	0.01
354.373	0.02
354.582	0.03
354.79	0
354.999	0.02
355.208	-0
355.416	0.03
355.625	-0.02
355.834	-0
356.042	0.06
356.251	-0.01
356.46	-0.07
356.668	0.02
356.877	0.08
357.085	0.06
357.294	-0.07
357.503	-0.03
357.711	-0.01
357.92	0.11
358.128	-0.01
358.337	-0.01
358.545	0.04
358.754	-0.03
358.962	0.01
359.17	-0.01
359.379	0.03
359.587	0.01
359.796	0.01
360.004	0.06
360.212	0.02
360.421	0.06
360.629	-0.02
360.837	-0.01
361.046	0.02
361.254	0.11
361.462	0.04
361.67	-0.02
361.879	-0.01
362.087	0.06
362.295	0
362.503	-0.05
362.711	-0.02
362.92	-0.03
363.128	0
363.336	-0.01
363.544	-0.04
363.752	-0.03
363.96	-0
364.168	0
364.376	0.02
364.584	-0.02
364.792	0.03
365	0.02
365.208	0
365.416	0
365.624	0.03
365.832	-0.02
366.04	0.07
366.248	0.02
366.456	0.02
366.664	0.02
366.872	0.02
367.079	0.03
367.287	0.01
367.495	0.02
367.703	0.04
367.911	-0.02
368.118	0.01
368.326	-0.04
368.534	-0.06
368.742	0.05
368.949	-0.01
369.157	-0.01
369.365	0.04
369.572	-0
369.78	-0.02
369.988	0.06
370.195	0.04
370.403	0.04
370.61	0
370.818	0.02
371.026	0.07
371.233	-0.03
371.441	0.01
371.648	-0.02
371.856	0.03
372.063	0.04
372.271	0
372.478	0.01
372.685	0
372.893	0.06
373.1	-0.01
373.308	-0.02
373.515	0.05
373.722	0.05
373.93	0.04
374.137	0.05
374.344	0.1
374.552	0.02
374.759	0.03
374.966	0.01
375.173	-0.03
375.381	0.04
375.588	0.01
375.795	-0.05
376.002	0.03
376.209	-0.01
376.417	-0.01
376.624	0.02
376.831	0.04
377.038	0.01
377.245	-0.05
377.452	0
377.659	0.01
377.866	0.01
378.073	-0
378.28	0.02
378.487	0
378.694	0.04
378.901	-0.01
379.108	0.01
379.315	-0
379.522	0.04
379.729	0
379.936	0.01
380.143	0.05
380.35	0.05
380.557	0.02
380.763	0.01
380.97	0.03
381.177	0.05
381.384	0.03
381.591	-0.03
381.797	0.02
382.004	0.03
382.211	0.02
382.418	-0.01
382.624	0.06
382.831	0.05
383.038	-0.03
383.244	-0
383.451	-0.01
383.658	0.02
383.864	-0.01
384.071	-0.04
384.277	0.06
384.484	-0.03
384.69	-0.02
384.897	-0.04
385.103	0.03
385.31	-0.05
385.516	-0.02
385.723	-0.01
385.929	-0.01
386.136	-0
386.342	0.03
386.549	-0.03
386.755	0
386.961	0.04
387.168	-0.01
387.374	0.06
387.58	0.04
387.787	-0
387.993	0.01
388.199	0
388.406	-0.05
388.612	0.04
388.818	-0.03
389.024	0
389.231	0.07
389.437	0.08
389.643	0.02
389.849	0.01
390.055	0.01
390.261	-0.02
390.467	0.03
390.674	-0
390.88	0.01
391.086	0.02
391.292	-0.04
391.498	0.03
391.704	0
391.91	-0.01
392.116	-0.02
392.322	-0.06
392.528	0.01
392.734	0.01
392.94	-0.01
393.146	0
393.352	0.01
393.557	-0.01
393.763	0.02
393.969	0.01
394.175	-0.01
394.381	-0.01
394.587	-0.02
394.792	-0.04
394.998	0.01
395.204	0.06
395.41	-0
395.615	0.05
395.821	0.01
396.027	0.07
396.233	0.01
396.438	0.02
396.644	0.05
396.85	0.01
397.055	-0.03
397.261	0.02
397.466	0
397.672	0.02
397.878	0.01
398.083	0.04
398.289	-0.04
398.494	0.01
398.7	0.07
398.905	-0.04
399.111	0.07
399.316	-0.06
399.522	0.05
399.727	-0.01
399.932	0.03
400.138	0
400.343	0.07
400.549	0.07
400.754	-0
400.959	0.04
401.165	-0.01
401.37	0.04
401.575	0.11
401.78	0.04
401.986	-0.04
402.191	0
402.396	-0.03
402.601	0.02
402.807	0.04
403.012	-0.01
403.217	0.07
403.422	-0.02
403.627	-0.03
403.832	-0
404.037	0.08
404.243	0.03
404.448	-0.03
404.653	-0.01
404.858	0.03
405.063	0.06
405.268	-0.05
405.473	-0.05
405.678	0.01
405.883	0.14
406.088	0.03
406.293	0.01
406.498	-0.03
406.703	0.01
406.907	-0.02
407.112	-0.03
407.317	0.02
407.522	0.07
407.727	-0.02
407.932	0.01
408.136	0.07
408.341	-0.01
408.546	0.01
408.751	0.04
408.956	-0.02
409.16	0.03
409.365	0.01
409.57	0
409.774	0
409.979	0.05
410.184	0.02
410.388	-0.04
410.593	0.02
410.798	-0.01
411.002	-0.01
411.207	0.03
411.411	-0
411.616	-0.08
411.82	-0.02
412.025	0.01
412.229	-0.04
412.434	0.07
412.638	0
412.843	0.02
413.047	0.04
413.252	-0.02
413.456	-0.03
413.66	0.07
413.865	-0.09
414.069	0.08
414.273	0
414.478	-0.02
414.682	-0.03
414.886	-0.07
415.091	-0.09
415.295	-0.07
415.499	0.02
415.703	-0.04
415.908	0.03
416.112	-0.07
416.316	0.02
416.52	0.02
416.724	-0.03
416.929	-0.04
417.133	0.1
417.337	-0.02
417.541	-0.02
417.745	0.03
417.949	0.04
418.153	0.05
418.357	-0.02
418.561	0.1
418.765	-0.02
418.969	0.06
419.173	0.01
419.377	-0.04
419.581	0.05
419.785	-0
419.989	-0.07
420.193	-0.03
420.397	-0.02
420.601	0.02
420.804	0.06
421.008	-0.02
421.212	0.02
421.416	0.07
421.62	-0.03
421.823	-0.01
422.027	0.07
422.231	0.02
422.435	0
422.638	0.04
422.842	0.03
423.046	-0.04
423.249	0.03
423.453	-0
423.657	0.02
423.86	-0.02
424.064	0.03
424.268	0.05
424.471	-0.02
424.675	0.08
424.878	0.04
425.082	0.02
425.285	0.02
425.489	0
425.692	0.01
425.896	-0.04
426.099	-0.02
426.303	-0.02
426.506	-0.07
426.71	0.01
426.913	0.1
427.116	0.04
427.32	0.02
427.523	0.03
427.726	0.08
427.93	-0.03
428.133	-0.03
428.336	-0.03
428.54	-0.05
428.743	0.04
428.946	0.06
429.149	-0.05
429.353	0.06
429.556	0.03
429.759	0.04
429.962	-0.02
430.165	0.01
430.368	-0.02
430.571	-0.05
430.775	-0.01
430.978	0.04
431.181	0.02
431.384	-0
431.587	-0.02
431.79	-0.03
431.993	0.01
432.196	-0.03
432.399	-0.01
432.602	0.04
432.805	-0.01
433.008	-0
433.211	-0.05
433.414	0.01
433.616	0.04
433.819	-0.01
434.022	-0.06
434.225	0.01
434.428	0.02
434.631	0.12
434.833	-0.01
435.036	0
435.239	0.03
435.442	0.04
435.645	-0.02
435.847	0.01
436.05	0.04
436.253	-0
436.455	-0.07
436.658	-0.01
436.861	0.04
437.063	-0.02
437.266	-0
437.468	0
437.671	0.12
437.874	0.05
438.076	-0.03
438.279	-0.07
438.481	0.02
438.684	-0.05
438.886	0.05
439.089	-0.06
439.291	-0
439.494	0.03
439.696	-0.04
439.899	-0.01
440.101	0
440.303	-0.04
440.506	0.01
440.708	0.01
440.91	0.04
441.113	-0.04
441.315	0.06
441.517	-0.02
441.72	0.02
441.922	-0.01
442.124	-0.04
442.326	0
442.529	0.09
442.731	-0.04
442.933	0.06
443.135	-0.02
443.337	-0.03
443.539	-0.01
443.742	-0.04
443.944	0.02
444.146	-0.04
444.348	-0.04
444.55	-0.07
444.752	-0.01
444.954	-0.04
445.156	0.02
445.358	-0.01
445.56	0.02
445.762	-0.05
445.964	0.05
446.166	-0.04
446.368	-0.05
446.57	0.04
446.772	-0.01
446.974	0.02
447.175	0.01
447.377	-0.03
447.579	-0.06
447.781	-0.11
447.983	0.06
448.184	0.01
448.386	-0.02
448.588	-0.1
448.79	-0.01
448.991	0.02
449.193	-0
449.395	-0
449.597	0.05
449.798	-0.02
450	0.03
450.202	-0.01
450.403	-0.02
450.605	0.02
450.806	-0.02
451.008	-0.07
451.21	0.01
451.411	0.01
451.613	0.08
451.814	0.03
452.016	0.05
452.217	0.02
452.419	0.07
452.62	0.04
452.821	0.05
453.023	0.12
453.224	0.05
453.426	-0.02
453.627	0.02
453.828	0.06
454.03	0
454.231	-0
454.432	-0.04
454.634	0.07
454.835	-0.03
455.036	-0.11
455.238	0.05
455.439	0.03
455.64	-0.05
455.841	-0.06
456.042	0.07
456.244	0.03
456.445	-0.06
456.646	-0.07
456.847	-0.03
457.048	0.02
457.249	0.05
457.45	0.2
457.651	-0.04
457.852	0.06
458.054	0.06
458.255	0.01
458.456	0.01
458.657	0.01
458.858	-0.03
459.058	-0.02
459.259	0.05
459.46	-0.03
459.661	-0.05
459.862	0.05
460.063	-0.01
460.264	0.07
460.465	-0.07
460.666	0.09
460.866	-0.02
461.067	-0
461.268	0.02
461.469	-0.03
461.67	0
461.87	-0.03
462.071	-0.01
462.272	-0.05
462.473	0.02
462.673	0.03
462.874	-0.05
463.075	-0.04
463.275	-0.02
463.476	0.01
463.676	0.01
463.877	0.04
464.078	-0.03
464.278	0.04
464.479	-0.01
464.679	0.01
464.88	0.01
465.08	0.08
465.281	-0.08
465.481	-0.01
465.682	0
465.882	0.04
466.083	0.04
466.283	0.01
466.483	0.01
466.684	-0.04
466.884	-0.04
467.085	-0.01
467.285	0.04
467.485	-0.02
467.686	-0.02
467.886	-0.08
468.086	0
468.286	0.03
468.487	0
468.687	-0.01
468.887	-0.05
469.087	0.01
469.287	-0.03
469.488	-0.05
469.688	0.05
469.888	0.04
470.088	0.02
470.288	0.06
470.488	0.05
470.688	-0.04
470.888	-0.02
471.088	-0.02
471.288	0.07
471.488	0.03
471.688	0.01
471.888	-0.03
472.088	0.06
472.288	0.02
472.488	-0.02
472.688	-0.01
472.888	0.03
473.088	-0
473.288	0
473.488	0.02
473.688	0.09
473.887	0
474.087	-0.02
474.287	0.02
474.487	-0.06
474.687	0.04
474.886	0.01
475.086	-0.01
475.286	0.02
475.486	-0.01
475.685	-0
475.885	-0.02
476.085	0.02
476.284	0.05
476.484	0
476.684	0.04
476.883	0.09
477.083	0.03
477.282	-0.03
477.482	0.05
477.681	0.05
477.881	0.03
478.08	-0
478.28	-0.01
478.479	0.02
478.679	0.08
478.878	-0.02
479.078	0
479.277	0.01
479.477	0.02
479.676	0.04
479.875	0.01
480.075	-0.06
480.274	-0
480.473	0.04
480.673	-0.05
480.872	0.02
481.071	0.02
481.271	-0
481.47	-0
481.669	0
481.868	-0.01
482.067	-0.02
482.267	-0.03
482.466	-0.02
482.665	-0.03
482.864	-0.04
483.063	-0.01
483.262	0.04
483.461	0.07
483.661	0.02
483.86	0.02
484.059	-0
484.258	0
484.457	0.02
484.656	0.02
484.855	0.05
485.054	-0.03
485.253	-0.03
485.452	-0.02
485.651	0.01
485.849	0.03
486.048	-0.02
486.247	-0.05
486.446	0.02
486.645	-0.01
486.844	-0.01
487.043	0
487.241	0.02
487.44	-0.01
487.639	-0.02
487.838	0
488.037	0.01
488.235	0.04
488.434	-0.01
488.633	-0.03
488.831	0.02
489.03	0.03
489.229	0.01
489.427	-0.01
489.626	0.02
489.825	0.06
490.023	-0.01
490.222	-0.04
490.42	0.01
490.619	0.03
490.817	0.01
491.016	-0.02
491.214	0.05
491.413	0.01
491.611	0
491.81	-0
492.008	0.02
492.207	0.02
492.405	-0
492.604	-0.04
492.802	-0
493	0.02
493.199	-0.01
493.397	0.02
493.595	-0
493.794	-0.02
493.992	0.06
494.19	0.01
494.388	0.01
494.587	-0.01
494.785	0.02
494.983	-0.03
495.181	-0
495.379	-0.01
495.578	-0.02
495.776	0.03
495.974	0.01
496.172	0.01
496.37	-0
496.568	-0.03
496.766	-0.04
496.964	0.02
497.162	-0
497.36	0.01
497.558	0.01
497.756	0
497.954	-0.01
498.152	-0.02
498.35	0.01
498.548	-0.02
498.746	0.03
498.944	-0.03
499.142	-0.01
499.34	-0.01
499.538	0.01
499.736	0
499.933	0.02
500.131	0.03
500.329	-0
500.527	0.03
500.725	0.03
500.922	0.01
501.12	0.02
501.318	0
501.516	-0.03
501.713	0.01
501.911	0
502.109	-0.03
502.306	0.01
502.504	0.01
502.701	-0.03
502.899	-0
503.097	0.04
503.294	0
503.492	-0
503.689	0.02
503.887	0.02
504.084	0.05
504.282	0
504.479	-0.03
504.677	-0.01
504.874	0
505.072	0.03
505.269	-0.01
505.466	0.02
505.664	0.01
505.861	-0.04
506.059	-0.03
506.256	0.03
506.453	-0.02
506.651	0.04
506.848	0.02
507.045	0.01
507.242	0.02
507.44	-0.01
507.637	0.01
507.834	-0
508.031	0.03
508.229	-0.01
508.426	0
508.623	-0
508.82	-0.03
509.017	-0.02
509.214	-0.02
509.411	-0
509.608	-0.03
509.805	0
510.003	-0.01
510.2	-0.01
510.397	-0.01
510.594	-0.02
510.791	-0.02
510.988	-0.01
511.184	0.02
511.381	-0.01
511.578	-0.02
511.775	0.04
511.972	-0.02
512.169	0.02
512.366	-0.01
512.563	-0
512.76	-0.01
512.956	0.01
513.153	-0.03
513.35	0.01
513.547	-0.01
513.744	-0.02
513.94	-0.02
514.137	-0
514.334	0.01
514.53	0.01
514.727	-0.01
514.924	0.06
515.12	0
515.317	-0.02
515.514	-0.01
515.71	-0
515.907	-0.03
516.103	0.02
516.3	-0
516.497	0.02
516.693	0.04
516.89	0.02
517.086	-0.02
517.283	0.05
517.479	0.01
517.676	-0.02
517.872	-0.03
518.068	-0
518.265	-0
518.461	0.01
518.658	-0.01
518.854	0.02
519.05	0.01
519.247	-0.03
519.443	0.03
519.639	0.01
519.836	0.03
520.032	0.01
520.228	-0
520.424	0.05
520.621	0.04
520.817	-0
521.013	0.02
521.209	0
521.405	0.04
521.601	0.01
521.798	0.02
521.994	0.05
522.19	-0.01
522.386	-0.01
522.582	0.02
522.778	-0
522.974	0.01
523.17	-0.01
523.366	0.01
523.562	0.05
523.758	0.01
523.954	-0.02
524.15	0.02
524.346	0.01
524.542	0.01
524.738	0.01
524.934	0
525.129	-0.02
525.325	0.01
525.521	0
525.717	0.03
525.913	-0.01
526.109	0
526.304	-0.02
526.5	0.01
526.696	0.03
526.892	0
527.087	0.01
527.283	-0.01
527.479	0.03
527.674	-0.02
527.87	-0.01
528.066	-0.01
528.261	0.03
528.457	-0.01
528.653	-0.01
528.848	0
529.044	0.01
529.239	-0.01
529.435	0.01
529.63	0.02
529.826	0.05
530.021	0.01
530.217	0.01
530.412	-0.01
530.608	-0.01
530.803	-0.01
530.999	-0.01
531.194	-0.03
531.389	0.01
531.585	-0.04
531.78	-0.01
531.975	-0.01
532.171	0.03
532.366	-0.01
532.561	0.02
532.757	-0.01
532.952	-0.01
533.147	0.03
533.342	0.01
533.538	-0.01
533.733	0.02
533.928	-0.01
534.123	0.01
534.318	-0.01
534.513	0
534.709	0.01
534.904	0.01
535.099	-0.01
535.294	0.01
535.489	0
535.684	-0.02
535.879	-0.02
536.074	0.01
536.269	-0.01
536.464	0
536.659	-0.01
536.854	0.01
537.049	0.02
537.244	0.02
537.439	-0.02
537.634	0.01
537.828	-0
538.023	0.01
538.218	-0.02
538.413	0.01
538.608	-0.03
538.803	0
538.997	-0.04
539.192	0.04
539.387	0.02
539.582	0.02
539.776	0.01
539.971	-0.03
540.166	0
540.36	-0.01
540.555	0.02
540.75	0
540.944	0
541.139	-0.03
541.334	0.01
541.528	-0.01
541.723	0.01
541.917	0.01
542.112	-0.03
542.306	-0.02
542.501	-0
542.695	0.01
542.89	-0.02
543.084	-0
543.279	-0.02
543.473	-0
543.668	-0
543.862	0.01
544.056	0.02
544.251	0.01
544.445	0.03
544.64	-0
544.834	-0.01
545.028	-0.01
545.222	0
545.417	0.02
545.611	-0.01
545.805	0.01
546	-0
546.194	-0
546.388	-0
546.582	0.03
546.776	-0.01
546.97	0.01
547.165	0.01
547.359	0.02
547.553	-0.02
547.747	0.02
547.941	-0
548.135	0
548.329	0.03
548.523	0.01
548.717	-0.01
548.911	-0.02
549.105	0.01
549.299	0.01
549.493	0.03
549.687	0.01
549.881	0.02
550.075	0.01
550.269	-0.03
550.463	0.02
550.657	-0.01
550.85	0.01
551.044	-0.01
551.238	0.02
551.432	-0.02
551.626	-0.02
551.82	-0.01
552.013	-0.01
552.207	-0
552.401	0.02
552.594	-0.01
552.788	0
552.982	0.02
553.176	-0.01
553.369	0.02
553.563	0.03
553.756	-0.03
553.95	0
554.144	-0.02
554.337	0.02
554.531	0.01
554.724	-0.01
554.918	0.02
555.111	0.01
555.305	0.01
555.498	0.06
555.692	0.01
555.885	-0.01
556.079	0.03
556.272	-0.02
556.466	0.01
556.659	0.01
556.852	0.01
557.046	0.01
557.239	0.02
557.432	-0.03
557.626	-0.02
557.819	-0
558.012	0.02
558.206	-0.01
558.399	-0.01
558.592	0.01
558.785	-0.01
558.979	0.02
559.172	-0.01
559.365	0.02
559.558	0.02
559.751	0.01
559.944	0.01
560.138	-0
560.331	-0.02
560.524	-0.01
560.717	-0
560.91	0.02
561.103	0
561.296	0.01
561.489	0.03
561.682	0.01
561.875	0.05
562.068	0
562.261	-0
562.454	0.04
562.647	0.04
562.84	0.01
563.032	0
563.225	0.02
563.418	-0
563.611	0.02
563.804	0.02
563.997	-0.02
564.19	-0.03
564.382	-0.06
564.575	0.01
564.768	0.01
564.961	0.02
565.153	-0
565.346	0.02
565.539	0.02
565.731	0.04
565.924	0.02
566.117	0.03
566.309	0.01
566.502	0
566.695	0.01
566.887	0.02
567.08	-0.01
567.272	0.01
567.465	-0.01
567.657	-0.01
567.85	0.02
568.042	0.01
568.235	0.02
568.427	0
568.62	0.01
568.812	0.02
569.005	0
569.197	-0.04
569.389	0.02
569.582	0
569.774	0.01
569.966	-0.03
570.159	-0.02
570.351	0.04
570.543	0.01
570.736	-0
570.928	-0.01
571.12	-0
571.312	-0.02
571.505	-0.02
571.697	0.03
571.889	-0.02
572.081	-0.01
572.273	-0
572.465	0.05
572.658	0.01
572.85	0.02
573.042	-0
573.234	-0
573.426	0.02
573.618	-0.04
573.81	0.03
574.002	0.02
574.194	0.04
574.386	-0.03
574.578	-0.05
574.77	-0.01
574.962	0
575.154	-0.03
575.346	-0
575.538	-0.02
575.729	-0.02
575.921	-0.02
576.113	0.01
576.305	0.04
576.497	-0.02
576.689	0.01
576.88	0
577.072	0.05
577.264	0.01
577.456	0
577.647	-0.06
577.839	-0.01
578.031	0.04
578.223	-0.01
578.414	0.01
578.606	0.03
578.798	0.03
578.989	-0.03
579.181	-0.01
579.372	-0.01
579.564	0.01
579.755	0
579.947	0.02
580.139	0.01
580.33	-0.01
580.522	-0.01
580.713	-0.06
580.905	0
581.096	0.03
581.287	0.02
581.479	0.02
581.67	0
581.862	-0
582.053	0.01
582.244	-0.02
582.436	0.01
582.627	-0
582.818	-0.01
583.01	-0.01
583.201	0.03
583.392	0.04
583.583	0.03
583.775	0.01
583.966	-0.01
584.157	0.02
584.348	-0.01
584.54	-0.02
584.731	0.01
584.922	0.01
585.113	-0
585.304	0.02
585.495	0.06
585.686	0.03
585.877	0.04
586.068	0.04
586.259	0.01
586.45	0.03
586.641	0.01
586.832	-0.03
587.023	0.02
587.214	-0
587.405	0.01
587.596	-0
587.787	0.04
587.978	0.02
588.169	-0.01
588.36	-0.01
588.551	0.04
588.742	-0.01
588.932	0.03
589.123	-0
589.314	0.04
589.505	0.01
589.696	0.01
589.886	-0.02
590.077	-0.01
590.268	0.03
590.458	-0
590.649	-0
590.84	0.04
591.03	-0.01
591.221	-0.01
591.412	-0.02
591.602	0.05
591.793	0.04
591.984	0.01
592.174	0.01
592.365	0.06
592.555	-0.01
592.746	0.04
592.936	0.02
593.127	0.02
593.317	0.04
593.508	0.01
593.698	0
593.889	0.02
594.079	0.04
594.269	-0.02
594.46	0.02
594.65	0.04
594.84	0
595.031	-0
595.221	0.01
595.411	-0.04
595.602	0.06
595.792	0.05
595.982	0.02
596.172	0.07
596.363	0.04
596.553	0.02
596.743	0.03
596.933	0.05
597.123	0.05
597.314	-0.01
597.504	0.01
597.694	0.09
597.884	0.04
598.074	0.03
598.264	0.01
598.454	0.03
598.644	0.04
598.834	0.03
599.024	-0.03
599.214	0.04
599.404	0.06
599.594	0.03
599.784	0.04
599.974	0.06
600.164	0.05
600.354	0.01
600.544	0.02
600.734	0.05
600.924	0.06
601.114	0.02
601.303	0.05
601.493	0.06
601.683	0.05
601.873	0.04
602.063	0.02
602.252	0.07
602.442	0
602.632	0.04
602.821	0.01
603.011	0.09
603.201	0.07
603.39	0.04
603.58	0.04
603.77	0.06
603.959	0.08
604.149	0.06
604.339	0.07
604.528	0.11
604.718	0.07
604.907	0.05
605.097	0.04
605.286	0.01
605.476	0.1
605.665	0.09
605.855	0.08
606.044	0.1
606.234	0.11
606.423	0.07
606.612	0.05
606.802	0.1
606.991	0.07
607.181	0.07
607.37	0.07
607.559	0.05
607.749	0.02
607.938	0.06
608.127	0.09
608.316	0.05
608.506	0.1
608.695	0.08
608.884	0.04
609.073	0.07
609.263	0.11
609.452	0.14
609.641	0.07
609.83	0.08
610.019	0.08
610.208	0.08
610.397	0.11
610.586	0.11
610.775	0.08
610.965	0.1
611.154	0.1
611.343	0.13
611.532	0.11
611.721	0.11
611.91	0.11
612.099	0.14
612.287	0.12
612.476	0.1
612.665	0.13
612.854	0.11
613.043	0.16
613.232	0.12
613.421	0.1
613.61	0.16
613.798	0.13
613.987	0.16
614.176	0.16
614.365	0.17
614.554	0.19
614.742	0.19
614.931	0.15
615.12	0.2
615.309	0.16
615.497	0.21
615.686	0.16
615.875	0.17
616.063	0.2
616.252	0.19
616.44	0.18
616.629	0.2
616.818	0.23
617.006	0.21
617.195	0.21
617.383	0.19
617.572	0.24
617.76	0.23
617.949	0.23
618.137	0.25
618.326	0.24
618.514	0.19
618.703	0.23
618.891	0.29
619.079	0.22
619.268	0.28
619.456	0.23
619.644	0.35
619.833	0.28
620.021	0.28
620.209	0.25
620.398	0.29
620.586	0.29
620.774	0.32
620.962	0.34
621.151	0.35
621.339	0.34
621.527	0.27
621.715	0.31
621.903	0.32
622.092	0.32
622.28	0.4
622.468	0.35
622.656	0.37
622.844	0.41
623.032	0.39
623.22	0.37
623.408	0.45
623.596	0.44
623.784	0.47
623.972	0.39
624.16	0.45
624.348	0.5
624.536	0.46
624.724	0.44
624.912	0.52
625.1	0.51
625.288	0.48
625.476	0.5
625.664	0.52
625.851	0.48
626.039	0.54
626.227	0.55
626.415	0.53
626.603	0.49
626.79	0.61
626.978	0.57
627.166	0.63
627.354	0.62
627.541	0.59
627.729	0.56
627.917	0.7
628.104	0.69
628.292	0.67
628.48	0.7
628.667	0.71
628.855	0.71
629.042	0.77
629.23	0.74
629.418	0.75
629.605	0.77
629.793	0.75
629.98	0.73
630.168	0.82
630.355	0.82
630.543	0.85
630.73	0.84
630.917	0.91
631.105	0.93
631.292	0.94
631.48	0.9
631.667	1.03
631.854	0.99
632.042	0.99
632.229	0.95
632.416	1.01
632.604	1.02
632.791	1.02
632.978	1.14
633.165	1.05
633.353	1.16
633.54	1.17
633.727	1.09
633.914	1.13
634.101	1.09
634.289	1.28
634.476	1.18
634.663	1.2
634.85	1.3
635.037	1.26
635.224	1.2
635.411	1.38
635.598	1.35
635.785	1.36
635.972	1.39
636.159	1.48
636.346	1.4
636.533	1.44
636.72	1.54
636.907	1.48
637.094	1.54
637.281	1.49
637.468	1.58
637.655	1.66
637.842	1.65
638.029	1.71
638.215	1.71
638.402	1.74
638.589	1.76
638.776	1.76
638.963	1.77
639.149	1.93
639.336	2.01
639.523	1.94
639.709	1.95
639.896	2
640.083	2.05
640.27	2.1
640.456	2.07
640.643	2.13
640.829	2.12
641.016	2.24
641.203	2.2
641.389	2.32
641.576	2.34
641.762	2.36
641.949	2.37
642.135	2.46
642.322	2.5
642.508	2.53
642.695	2.65
642.881	2.58
643.068	2.61
643.254	2.72
643.441	2.86
643.627	2.86
643.813	2.82
644	2.97
644.186	2.9
644.372	3.01
644.559	3.11
644.745	3.1
644.931	3.16
645.118	3.29
645.304	3.3
645.49	3.36
645.676	3.38
645.862	3.49
646.049	3.63
646.235	3.69
646.421	3.76
646.607	3.92
646.793	3.9
646.979	3.87
647.165	4.02
647.352	4.15
647.538	4.18
647.724	4.2
647.91	4.32
648.096	4.39
648.282	4.53
648.468	4.54
648.654	4.61
648.84	4.73
649.026	4.86
649.212	4.84
649.397	4.85
649.583	5.05
649.769	5.1
649.955	5.16
650.141	5.37
650.327	5.36
650.513	5.39
650.698	5.61
650.884	5.57
651.07	5.77
651.256	5.83
651.442	5.92
651.627	5.93
651.813	6.14
651.999	6.18
652.184	6.21
652.37	6.38
652.556	6.39
652.741	6.58
652.927	6.44
653.113	6.78
653.298	6.86
653.484	6.88
653.669	6.97
653.855	7.12
654.04	7.28
654.226	7.28
654.412	7.37
654.597	7.35
654.782	7.56
654.968	7.59
655.153	7.79
655.339	7.89
655.524	7.9
655.71	8.07
655.895	8.09
656.08	8.19
656.266	8.33
656.451	8.27
656.636	8.29
656.822	8.46
657.007	8.58
657.192	8.65
657.378	8.55
657.563	8.49
657.748	8.68
657.933	8.73
658.118	8.44
658.304	8.7
658.489	8.73
658.674	8.62
658.859	8.51
659.044	8.56
659.229	8.42
659.414	8.42
659.599	8.34
659.785	8.17
659.97	8.05
660.155	7.88
660.34	7.94
660.525	7.71
660.71	7.53
660.895	7.41
661.08	7.25
661.264	6.99
661.449	6.93
661.634	6.64
661.819	6.59
662.004	6.26
662.189	6.09
662.374	5.91
662.559	5.68
662.743	5.4
662.928	5.39
663.113	5.09
663.298	4.96
663.483	4.76
663.667	4.65
663.852	4.46
664.037	4.35
664.221	4.09
664.406	4.03
664.591	3.85
664.775	3.69
664.96	3.62
665.145	3.43
665.329	3.33
665.514	3.16
665.698	3.01
665.883	2.86
666.068	2.83
666.252	2.68
666.437	2.54
666.621	2.47
666.806	2.39
666.99	2.37
667.174	2.18
667.359	2.16
667.543	2.05
667.728	1.97
667.912	1.86
668.096	1.9
668.281	1.68
668.465	1.71
668.649	1.66
668.834	1.57
669.018	1.57
669.202	1.48
669.387	1.4
669.571	1.41
669.755	1.28
669.939	1.29
670.124	1.23
670.308	1.25
670.492	1.18
670.676	1.05
670.86	1.09
671.044	0.99
671.228	1.06
671.413	0.94
671.597	0.91
671.781	0.87
671.965	0.91
672.149	0.83
672.333	0.79
672.517	0.74
672.701	0.79
672.885	0.69
673.069	0.64
673.253	0.73
673.437	0.61
673.621	0.64
673.804	0.61
673.988	0.58
674.172	0.56
674.356	0.49
674.54	0.53
674.724	0.58
674.908	0.48
675.091	0.52
675.275	0.44
675.459	0.48
675.643	0.43
675.826	0.38
676.01	0.4
676.194	0.39
676.377	0.39
676.561	0.38
676.745	0.33
676.928	0.32
677.112	0.38
677.296	0.33
677.479	0.28
677.663	0.31
677.846	0.3
678.03	0.3
678.213	0.24
678.397	0.3
678.58	0.19
678.764	0.23
678.947	0.23
679.131	0.2
679.314	0.24
679.498	0.22
679.681	0.27
679.865	0.27
680.048	0.22
680.231	0.16
680.415	0.17
680.598	0.15
680.781	0.17
680.965	0.14
681.148	0.2
681.331	0.13
681.514	0.16
681.698	0.12
681.881	0.18
682.064	0.16
682.247	0.14
682.43	0.07
682.614	0.18
682.797	0.19
682.98	0.16
683.163	0.08
683.346	0.16
683.529	0.1
683.712	0.07
683.895	0.12
684.078	0.11
684.261	0.12
684.444	0.13
684.627	0.16
684.81	0.11
684.993	0.12
685.176	0.15
685.359	0.08
685.542	0.02
685.725	0.11
685.908	0.1
686.091	0.05
686.274	0.11
686.457	0.11
686.639	0.07
686.822	0.11
687.005	0.12
687.188	0.11
687.371	0.15
687.553	0.11
687.736	0.17
687.919	0.15
688.102	0.11
688.284	0.05
688.467	0.08
688.65	0.07
688.832	0.08
689.015	0.07
689.197	0.02
689.38	0.12
689.563	0.16
689.745	0.04
689.928	0.06
690.11	0.07
690.293	0.12
690.475	0.01
690.658	0.09
690.84	0.07
691.023	0.09
691.205	0.02
691.388	0.02
691.57	0.07
691.752	0.08
691.935	0.04
692.117	0.02
692.3	0.01
692.482	0.05
692.664	0.02
692.847	0.12
693.029	0.07
693.211	0.07
693.393	0.08
693.576	0.02
693.758	0.03
693.94	-0
694.122	0
694.304	0.07
694.487	0.02
694.669	0.12
694.851	-0
695.033	0.05
695.215	0.06
695.397	0.03
695.579	0.08
695.761	-0.02
695.943	-0.03
696.125	0.09
696.308	0.11
696.49	-0.06
696.671	0.13
696.853	0.05
697.035	0.11
697.217	0.02
697.399	0.05
697.581	-0.01
697.763	0.04
697.945	-0.04
698.127	0.06
698.309	0.05
698.491	0.01
698.672	0.08
698.854	0.14
699.036	0.15
699.218	-0.04
699.399	0.09
699.581	0.08
699.763	0.02
699.945	0.02
700.126	-0.02
700.308	0.06
700.49	0.03
700.671	-0.04
700.853	-0.01
701.035	0.06
701.216	0.04
701.398	0
701.579	0.04
701.761	0.08
701.943	-0.01
702.124	0
702.306	0.06
702.487	0.12
702.669	0.06
702.85	0.03
703.031	-0.05
703.213	0.11
703.394	0.11
703.576	-0.05
703.757	0.06
703.938	0.1
704.12	0.18
704.301	0.03
704.483	0.03
704.664	0.03
704.845	0.05
705.026	0.03
705.208	0.04
705.389	-0.01
705.57	0.05
705.751	-0.03
705.933	0.02
706.114	0.1
706.295	0.1
706.476	-0.11
706.657	0.13
706.838	0.09
707.02	0.07
707.201	-0.02
707.382	0
707.563	0.1
707.744	-0.01
707.925	0.01
708.106	-0.04
708.287	0.02
708.468	0.1
708.649	-0
708.83	0.1
709.011	0.03
709.192	0.05
709.373	-0.06
709.554	-0.05
709.734	0.11
709.915	0.04
710.096	-0.01
710.277	-0.08
710.458	0.1
710.639	0.11
710.819	-0.07
711	0.02
711.181	0.1
711.362	0.07
711.542	0.03
711.723	-0.03
711.904	0.07
712.085	0.05
712.265	0.04
712.446	-0.04
712.627	-0.02
712.807	0.01
712.988	-0.02
713.168	-0.03
713.349	-0
713.53	-0.13
713.71	-0.05
713.891	-0.05
714.071	0.01
714.252	-0.03
714.432	0.01
714.613	-0.03
714.793	0.09
714.974	0.11
715.154	0.1
715.334	0.1
715.515	0.13
715.695	-0.06
715.876	-0.01
716.056	0.04
716.236	0.01
716.417	0.08
716.597	-0.05
716.777	0.19
716.957	0.01
717.138	-0
717.318	0.01
717.498	-0.08
717.678	0.05
717.859	0.02
718.039	-0.08
718.219	0.13
718.399	0.09
718.579	-0.03
718.759	-0.03
718.939	0.08
719.12	-0.02
719.3	0.08
719.48	-0.1
719.66	-0.08
719.84	0.07
720.02	0.03
720.2	0
720.38	-0.01
720.56	0.1
720.74	-0.03
720.92	0.04
721.1	0.09
721.279	0.1
721.459	0.02
721.639	-0.03
721.819	0.1
721.999	0.03
722.179	0.05
722.359	-0.02
722.538	0.04
722.718	0.04
722.898	0.02
723.078	-0.02
723.257	-0.04
723.437	0.02
723.617	0.03
723.797	-0.08
723.976	0.12
724.156	0.1
724.336	0.08
724.515	0.14
724.695	-0.13
724.874	-0.07
725.054	0.08
725.234	-0.05
725.413	0.05
725.593	-0.09
725.772	-0.08
725.952	0.02
726.131	-0.02
726.311	0.07
726.49	0
726.67	-0.03
726.849	0.01
727.028	0
727.208	0.04
727.387	-0.01
727.567	-0.03
727.746	-0
727.925	-0.04
728.105	-0.08
728.284	0.02
728.463	-0.05
728.643	-0
728.822	-0.04
729.001	-0.01
729.18	0.13
729.359	0.04
729.539	0.04
729.718	0.14
729.897	-0.01
730.076	-0.04
730.255	-0.11
730.434	0.06
730.614	-0
730.793	0.06
730.972	0.02
731.151	-0.07
731.33	0.06
731.509	0.07
731.688	0.02
731.867	0.03
732.046	-0.16
732.225	0.18
732.404	0.02
732.583	0
732.762	0.04
732.941	0.06
733.12	0.02
733.298	-0.06
733.477	0.05
733.656	-0.08
733.835	-0.19
734.014	0.06
734.193	-0.05
734.371	0.12
734.55	0.05
734.729	-0.21
734.908	0.12
735.086	0.09
735.265	0.18
735.444	-0.15
735.623	-0.15
735.801	-0.02
735.98	0
736.159	0.03
736.337	0.03
736.516	0.01
736.694	0.02
736.873	-0.08
737.052	0.18
737.23	0.02
737.409	-0.08
737.587	0.17
737.766	-0.13
737.944	-0.05
738.123	-0.09
738.301	0.14
738.479	0
738.658	0.05
738.836	-0.21
739.015	0.03
739.193	0.14
739.371	-0.13
739.55	-0.03
739.728	-0.19
739.906	0.1
740.085	0.18
740.263	-0.05
740.441	-0.11
740.62	0.22
740.798	0.1
740.976	-0.08
741.154	-0.17
741.332	0.14
741.511	0.03
741.689	0.09
741.867	0.05
742.045	-0.01
742.223	0.07
742.401	-0.01
742.579	-0
742.757	0.13
742.935	0.02
743.114	-0
743.292	-0.02
743.47	0.09
743.648	0.05
743.826	0.08
744.004	0.1
744.181	0.09
744.359	-0.05
744.537	-0.02
744.715	-0.09
744.893	0.03
745.071	0.12
745.249	-0.06
745.427	0.01
745.605	0.09
745.782	0.07
745.96	0.12
746.138	-0.09
746.316	0.05
746.493	-0.01
746.671	0.01
746.849	-0.05
747.027	0.15
747.204	0.03
747.382	0.09
747.56	-0.1
747.737	0.17
747.915	-0.04
748.093	0.04
748.27	-0.04
748.448	-0.06
748.625	-0.18
748.803	0.01
748.98	0
749.158	-0.09
749.335	0.13
749.513	-0.01
749.69	-0.03
749.868	0.02
750.045	0.03
750.223	-0.08
750.4	-0.25
750.578	0.18
750.755	-0.08
750.932	-0.08
751.11	0.08
751.287	-0.16
751.464	0.07
751.642	0.01
751.819	0.1
751.996	0.07
752.173	-0.12
752.351	-0.12
752.528	0.06
752.705	-0.07
752.882	-0.03
753.06	0.03
753.237	0.15
753.414	0.17
753.591	0.18
753.768	-0.04
753.945	0.01
754.122	-0.11
754.299	-0.02
754.476	-0.06
754.654	-0
754.831	0.06
755.008	-0.07
755.185	-0.1
755.362	-0.1
755.539	-0.04
755.716	-0.06
755.892	0.01
756.069	0.04
756.246	-0.09
756.423	0
756.6	0.23
756.777	0.05
756.954	0.08
757.131	0.04
757.307	-0.09
757.484	-0.14
757.661	0.05
757.838	0.08
758.015	-0.1
758.191	0.07
758.368	-0.02
758.545	0.14
758.721	-0
758.898	-0.09
759.075	0.07
759.251	0.09
759.428	0.07
759.605	-0.11
759.781	-0.08
759.958	0.08
760.134	0.07
760.311	0.03
760.488	0.03
760.664	0.12
760.841	-0.11
761.017	-0.1
761.194	-0.03
761.37	0.04
761.547	0.11
761.723	-0.01
761.899	0.18
762.076	-0.12
762.252	-0.09
762.429	-0.08
762.605	0.03
762.781	-0
762.958	0.1
763.134	-0.11
763.31	-0.07
763.486	0.05
763.663	-0.17
763.839	0.07
764.015	-0.19
764.191	-0.1
764.368	-0.11
764.544	-0.02
764.72	-0.04
764.896	-0.02
765.072	0.05
765.248	-0.01
765.425	0.04
765.601	0.02
765.777	0.01
765.953	-0.19
766.129	-0.05
766.305	-0.11
766.481	0.04
766.657	0.08
766.833	0.14
767.009	-0.14
767.185	-0.12
767.361	-0.02
767.537	-0.15
767.713	0.1
767.889	-0.16
768.065	0.06
768.24	-0.01
768.416	0.05
768.592	-0.09
768.768	0.05
768.944	0
769.12	-0.13
769.295	-0.13
769.471	0.03
769.647	-0.03
769.823	0.1
769.998	-0.03
770.174	-0.04
770.35	0.28
770.525	0.27
770.701	0.02
770.877	0.01
771.052	-0.17
771.228	0.25
771.403	0.07
771.579	0.09
771.755	0.29
771.93	-0.22
772.106	-0.11
772.281	-0.14
772.457	0.17
772.632	0.06
772.808	-0.06
772.983	-0.12
773.159	-0.07
773.334	0.07
773.509	0.05
773.685	-0.02
773.86	0.32
774.036	0.26
774.211	0.06
774.386	-0.13
774.562	0.05
774.737	-0.06
774.912	-0.05
775.087	-0.02
775.263	-0.05
775.438	0.01
775.613	-0.09
775.788	-0.07
775.964	0.06
776.139	0.33
776.314	-0.16
776.489	-0.06
776.664	0.04
776.839	0.02
777.014	0.15
777.19	0.22
777.365	0.14
777.54	0.24
777.715	0
777.89	-0.08
778.065	-0.06
778.24	-0.1
778.415	0.12
778.59	-0.08
778.765	-0.03
778.94	0.17
779.115	-0.08
779.289	-0.07
779.464	0
779.639	0.14
779.814	-0.09
779.989	-0.2
780.164	0.29
780.339	-0.03
780.513	-0.13
780.688	-0.21
780.863	-0.03
781.038	0.05
781.212	-0.26
781.387	-0.11
781.562	0.24
781.737	-0.14
781.911	0.29
782.086	-0.07
782.261	0.03
782.435	0.18
782.61	-0.04
782.784	-0.02
782.959	0.17
783.134	-0.09
783.308	-0.03
783.483	-0.14
783.657	0.21
783.832	0.08
784.006	-0.32
784.181	-0.04
784.355	0.12
784.53	-0.28
784.704	0.07
784.878	0.28
785.053	0.1
785.227	0.05
785.402	0.36
785.576	-0.29
785.75	-0.15
785.925	-0.14
786.099	-0.1
786.273	-0.03
786.448	0.19
786.622	0.14
786.796	-0.1
786.97	-0.03
787.145	0.48
787.319	-0.25
787.493	-0.02
787.667	-0.14
787.841	-0.13
788.015	0.29
788.19	-0.13
788.364	-0
788.538	0.18
788.712	0.2
788.886	-0.14
789.06	0.2
789.234	-0.02
789.408	-0.14
789.582	-0.09
789.756	0.01
789.93	-0.06
790.104	-0.04
790.278	-0.12
790.452	-0.08
790.626	-0.07
790.8	-0.02
790.973	0.08
791.147	0.26
791.321	0.23
791.495	0.05
791.669	0.34
791.843	0.15
792.016	0.23
792.19	0.28
792.364	-0.19
792.538	0.37
792.711	0.2
792.885	-0.05
793.059	-0.18
793.233	-0.39
793.406	0.36
793.58	0.14
793.754	0.08
793.927	-0.13
794.101	0.29
794.274	-0.11
794.448	0.05
794.622	-0.1
794.795	0.4
794.969	-0.15
795.142	0.25
795.316	-0.28
795.489	-0.22
795.663	0.47
795.836	-0.06
796.009	-0.08
796.183	0.51
796.356	0.3
796.53	0.1
796.703	0.08
796.876	0.63
797.05	-0.02
797.223	-0.01
797.396	0.08
797.57	-0.05
797.743	0.57
797.916	0.05
798.09	-0.03
798.263	0.16
798.436	0.21
798.609	-0.05
798.782	0.05
798.956	0.05
799.129	-0.1
799.302	0
799.475	-0.16
799.648	-0.27
799.821	0.07
799.994	0.11
800.167	-0.32
800.34	0.08
800.514	-0.08
800.687	0.13
800.86	-0.11
801.033	0.24
801.206	0.01
801.379	-0.21
801.551	0.16
801.724	-0.11
801.897	0.38
802.07	-0.19
802.243	-0.54
802.416	-0.07
802.589	-0.21
802.762	0.26
802.935	-0.05
803.107	0.06
803.28	0.35
803.453	0.46
803.626	-0.42
803.798	-0.05
803.971	-0.15
804.144	0.17
804.317	0.31
804.489	0.22
804.662	-0.21
804.835	-0.04
805.007	-0.28
805.18	0.28
805.353	0.3
805.525	-0.43
805.698	-0.26
805.87	0.37
806.043	0.17
806.215	-0.29
806.388	-0.32
806.56	0.1
806.733	0.54
806.905	0.14
807.078	-0.02
807.25	-0.35
807.423	0.07
807.595	0.01
807.768	0.1
807.94	0.51
808.112	-0.08
808.285	-0.07
808.457	-0.31
808.629	-0.09
808.802	0
808.974	0.02
809.146	-0.07
809.318	-0.37
809.491	-0.09
809.663	0.22
809.835	-0.19
810.007	0.26
810.18	0.35
810.352	-0.35
810.524	-0.07
810.696	0.07
810.868	0.3
811.04	0.15
811.212	-0.1
811.384	0.21
811.556	-0.05
811.728	0.06
811.901	0.43
812.073	-0.23
812.245	0.28
812.417	0.13
812.589	-0.34
812.76	-0.12
812.932	-0
813.104	0.19
813.276	-0.23
813.448	0.37
813.62	-0.34
813.792	0
813.964	0.15
814.136	0.13
814.307	-0.28
814.479	-0.2
814.651	0.07
814.823	0.7
814.995	-0.03
815.166	-0.02
815.338	-0.03
815.51	-0.46
815.681	0.88
815.853	0.09
816.025	-0.17
816.196	0.21
816.368	0.34
816.54	-0.64
816.711	-0.46
816.883	-0.15
817.054	1.47
817.226	-0.1
817.398	0.36
817.569	-0.01
817.741	0.02
817.912	-0.32
818.084	0.41
818.255	0.31
818.426	-0.06
818.598	-0.06
818.769	-0.38
818.941	0.26
819.112	0.17
819.283	0.43
819.455	-0.53
819.626	0.03
819.798	-0.25
819.969	0.12
820.14	-0.07
820.311	0.01
820.483	-0.13
820.654	-0.04
820.825	0.13
820.996	-0.06
821.168	-0.27
821.339	-0.06
821.51	-0.43
821.681	0.05
821.852	0.24
822.023	-0.58
822.195	-0.35
822.366	0.24
822.537	0.3
822.708	-0.25
822.879	-0.46
823.05	0.79
823.221	0.02
823.392	0.27
823.563	0
823.734	-0.06
823.905	0.16
824.076	-0.57
824.247	-0.39
824.418	-0.02
824.589	0.48
824.759	-0.27
824.93	0.11
825.101	-0.66
825.272	0.4
825.443	0.7
825.614	0.85
825.784	-1.06
825.955	0.48
826.126	0.17
826.297	-0.24
826.467	0.61
826.638	0.68
826.809	-0.54
826.98	0
827.15	-0.3
827.321	-0.11
827.492	0.61
827.662	0.15
827.833	0.61
828.003	0.28
828.174	-0.51
828.345	-0.68
828.515	0.41
828.686	0.05
828.856	0.03
829.027	-0.32
829.197	0.48
829.368	0.19
829.538	-0.57
829.709	-0.17
829.879	0.38
830.049	-0.03
830.22	-0.25
830.39	0.03
830.56	0.21
830.731	-0.22
830.901	-0.43
831.072	0.54
831.242	0.14
831.412	0.32
831.582	-0.16
831.753	-0.55
831.923	0.25
832.093	0.28
832.263	0.42
832.434	-0.67
832.604	0.17
832.774	0.33
832.944	0.16
833.114	-0.46
833.284	-0.08
833.454	-0.13
833.624	0.16
833.795	-0.15
833.965	0.86
834.135	0.47
834.305	-0.72
834.475	-0.68
834.645	-0.42
834.815	-0.27
834.985	-0.43
835.155	-0.3
835.325	0.1
835.494	0.32
835.664	0.1
835.834	-0.37
836.004	-0.26
836.174	0.31
836.344	0.01
836.514	-0.74
836.684	-0.04
836.853	0.21
837.023	0.08
837.193	-0.62
837.363	0.27
837.532	0.03
837.702	-0.62
837.872	-0.45
838.041	0.93
838.211	1.33
838.381	-0.97
838.55	0.03
838.72	1.96
838.89	1.13
839.059	-0.06
839.229	-0.55
839.398	1.42
839.568	-0.31
839.738	-0.1
839.907	1.31
840.077	0.29
840.246	-0.62
840.416	-0.31
840.585	-0.2
840.755	1.2
840.924	0.84
841.093	-0.57
841.263	0.08
841.432	0.04
841.602	-0.66
841.771	-0.14
841.94	-0.24
842.11	0.9
842.279	1.09
842.448	-1.19
842.617	-0.13
842.787	0.45
842.956	-0.48
843.125	0.24
843.294	0.67
843.464	0.88
843.633	0.43
843.802	-0.94
843.971	-0.32
844.14	0.86
844.309	0.8
844.479	-0.85
844.648	-0.63
844.817	-0.47
844.986	0.25
845.155	-0.07
845.324	-0.97
845.493	0.98
845.662	-0.85
845.831	-0.17
846	0.44
846.169	-0.25
846.338	0.75
846.507	0.18
846.676	0.26
846.844	-0
847.013	0.94
847.182	-0.02
847.351	-0.04
847.52	0.03
847.689	-0
847.858	-0.88
848.026	-0.34
848.195	-0.08
848.364	-0.47
848.533	-1.03
848.701	-0.98
848.87	-0.68
849.039	0.68
849.207	0.87
849.376	0.68
849.545	1.05
849.713	-0.45
849.882	-0.29
850.051	-0.28
850.219	0.33
850.388	0.14
850.556	-0.82
850.725	-0.89
850.893	0.33
851.062	0.22
851.23	0.62
851.399	-1.05
851.567	0.22
851.736	0.39
851.904	0.15
852.073	-0.03
852.241	-0.35
852.41	0.58
852.578	0.28
852.746	-1.29
852.915	0.69
853.083	-0.89
853.251	-0.78
853.42	-0.34
853.588	0.55
853.756	1.83
853.924	-0.57
854.093	-0.49
854.261	-0.31
854.429	-1.06
854.597	-0.11
854.765	-1.21
854.934	0.31
855.102	1.12
855.27	-0.19
855.438	-0.06
855.606	0.85
855.774	2.05
855.942	-0.91
856.11	-2.09
856.278	-0.92
856.446	1.52
856.614	0.24
856.782	-0.57
856.95	1.99
857.118	0.82
857.286	0.13
857.454	-0.98
857.622	0.36
857.79	0
857.958	0.07
858.126	0.13
858.294	-2.82
858.462	-0.49
858.629	-1.48
858.797	-1.69
858.965	-0.06
859.133	-0.29
859.301	0.76
859.468	0.29
859.636	0.68
859.804	1.73
859.971	0.97
860.139	-0.58
860.307	2.11
860.474	-0.66
860.642	-1.56
860.81	-0.57
860.977	0.01
861.145	1.29
861.313	-0.86
861.48	-0.07
861.648	1.62
861.815	-0.26
861.983	-1.36
862.15	-0.57
862.318	0.55
862.485	1.45
862.653	0.03
862.82	-1.6
862.988	1.29
863.155	0.36
863.322	0.3
863.49	-1.53
863.657	-0.33
863.824	1.31
863.992	0.72
864.159	1.13
864.326	2.06
864.494	-1.31
864.661	2.78
864.828	-0.74
864.996	1.47
865.163	2.75
865.33	-0.72
865.497	-2.55
865.664	1.16
865.832	-2
865.999	0.32
866.166	-0.93
866.333	-1.51
866.5	-0.54
866.667	0.59
866.834	-0.13
867.001	2.31
867.168	-1.52
867.335	0.13
867.502	-1.56
867.669	0.43
867.836	0.77
868.003	-1.07
868.17	0.7
868.337	-0.04
868.504	1.99
868.671	-0.73
868.838	0.61
869.005	-0.49
869.172	1.17
869.339	0.5
869.505	0.3
869.672	0.79
869.839	2.08
870.006	1.84
870.173	-2.08
870.339	0.44
870.506	2.56
870.673	-1.72
870.84	0.9
871.006	0.48
871.173	-1.02
871.34	-0.43
871.506	-0.08
871.673	0.7
871.839	-1.24
872.006	0.38
872.173	0.69
872.339	0.58
872.506	1.9
872.672	-0.93
872.839	-2.85
873.005	-0.33
873.172	1.95
873.338	1.52
873.505	0.67
873.671	-1.31
873.838	0.54
874.004	-1.8
874.171	-2.75
874.337	0.19
874.503	1.19
874.67	-1.2
874.836	-0.26
875.002	1.42
875.169	1.86
875.335	1.24
875.501	-0.26
875.668	-1.44
875.834	0.09
876	0.8
876.166	1.22
876.332	-0.25
876.499	3.14
876.665	-0.09
876.831	-0.31
876.997	1.57
877.163	0.51
877.329	-1.37
877.495	1.88
877.662	-0.73
877.828	0.2
877.994	0.35
878.16	-3.31
878.326	-1.53
878.492	-0.78
878.658	-2.91
878.824	0.8
878.99	1.12
879.156	-1.4
879.322	1.36
879.487	-0.97
879.653	-0.71
879.819	-0.6
879.985	-0.69
880.151	0.88
880.317	1.4
880.483	-0.73
880.648	0.49
880.814	-2.93
880.98	1.42
881.146	-1.6
881.312	-0.86
881.477	1.39
881.643	-0.38
881.809	2.73
881.974	1.77
882.14	0.58
882.306	0.04
882.471	2.3
882.637	-1.09
882.803	2.06
882.968	2.95
883.134	4.64
883.299	0.36
883.465	-1.21
883.63	2.22
883.796	0.73
883.961	1.45
884.127	-0.11
884.292	-3.36
884.458	-1.37
884.623	-1.36
