Data from Apollo_Calib_20240827__AbsoluteIrradiance__394__05-43-01-466.txt Node

Date: Wed Aug 28 05:43:01 BST 2024
User: biology
Spectrometer: FLMT08252
Trigger mode: 0
Integration Time (sec): 5.000000E-1
Scans to average: 5
Electric dark correction enabled: true
Nonlinearity correction enabled: false
Boxcar width: 0
XAxis mode: Wavelengths
Number of Pixels in Spectrum: 3648
>>>>>Begin Spectral Data<<<<<
179.588	-0
179.809	-0
180.03	-0
180.251	-0
180.473	-0
180.694	0
180.915	0
181.136	-0
181.357	0
181.578	-0
181.799	-0
182.02	-0
182.241	-0
182.462	-0
182.683	0
182.904	-0
183.125	-0
183.346	0
183.567	0
183.788	-0
184.009	-0
184.23	0
184.451	0
184.672	-0
184.892	-0
185.113	0
185.334	0
185.555	-0
185.776	-0
185.996	0
186.217	-0
186.438	0
186.659	-0
186.879	0
187.1	-0
187.321	-0
187.541	-0
187.762	-0
187.983	0
188.203	-0
188.424	-0
188.644	-0
188.865	0
189.086	-0
189.306	-0
189.527	-0
189.747	-0
189.968	-0
190.188	0
190.409	-0
190.629	0
190.849	-0
191.07	0
191.29	0
191.511	0
191.731	-0
191.951	-0
192.172	-0
192.392	-0
192.612	-0
192.833	-0
193.053	0
193.273	0
193.493	-0
193.714	-0
193.934	0
194.154	0
194.374	-0
194.594	0
194.815	-0
195.035	-0
195.255	0
195.475	-0
195.695	0
195.915	0
196.135	-0
196.355	0
196.575	0
196.795	-0
197.015	-0
197.235	-0
197.455	-0
197.675	0
197.895	-0
198.115	-0
198.335	0
198.555	-0
198.775	-0
198.995	0
199.214	0
199.434	-0
199.654	-0
199.874	-0
200.094	0.41
200.313	-0.43
200.533	-0.85
200.753	-1.12
200.973	1.42
201.192	0.8
201.412	-0.96
201.632	-0.27
201.851	0.64
202.071	-0.28
202.291	-0.25
202.51	-0.78
202.73	0.27
202.95	-0.19
203.169	-0.78
203.389	-0.29
203.608	0.22
203.828	-0.53
204.047	-0.36
204.267	0.31
204.486	-0.13
204.706	0.05
204.925	-0.24
205.145	-0.22
205.364	0.49
205.583	0.39
205.803	-0.46
206.022	-0.39
206.242	0.07
206.461	-0.1
206.68	-0.32
206.9	0.01
207.119	0.51
207.338	0.34
207.557	-0.24
207.777	-0.4
207.996	-0.22
208.215	0.56
208.434	-0.49
208.654	-0.44
208.873	0.23
209.092	0.32
209.311	-0.42
209.53	-0.22
209.749	-0.33
209.968	-0.17
210.187	-0.21
210.407	-0.5
210.626	-0.2
210.845	0.46
211.064	-0.21
211.283	-0.42
211.502	0.13
211.721	-0.03
211.94	-0.13
212.159	0.17
212.377	0.19
212.596	0.59
212.815	-0.02
213.034	-0.03
213.253	0.15
213.472	0.12
213.691	0.08
213.91	-0.27
214.128	-0.16
214.347	0.5
214.566	-0.72
214.785	-0.47
215.003	-0.07
215.222	-0.06
215.441	-0.06
215.66	-0.23
215.878	0.02
216.097	0.25
216.316	-0.29
216.534	-0.1
216.753	-0.08
216.972	-0.01
217.19	0.05
217.409	-0.32
217.627	-0.12
217.846	-0.15
218.064	-0.05
218.283	-0.22
218.501	0.46
218.72	0.14
218.938	-0.23
219.157	-0.06
219.375	0.31
219.594	0.03
219.812	-0.15
220.031	-0.29
220.249	0.2
220.467	0.29
220.686	-0.05
220.904	-0.25
221.122	-0.14
221.341	0.24
221.559	-0.08
221.777	-0.26
221.995	0.03
222.214	0.01
222.432	-0.12
222.65	0.17
222.868	0.1
223.086	-0.06
223.305	0.05
223.523	-0.06
223.741	0.13
223.959	-0.11
224.177	-0.43
224.395	-0.05
224.613	0.04
224.831	0.17
225.049	-0.2
225.267	-0.21
225.485	0.01
225.703	-0.15
225.921	-0.16
226.139	-0.1
226.357	0.13
226.575	0.12
226.793	-0.11
227.011	0.53
227.229	-0.05
227.447	0.13
227.665	-0.11
227.883	-0.12
228.1	-0.03
228.318	-0.07
228.536	-0.35
228.754	-0.22
228.972	0.04
229.189	0.08
229.407	0
229.625	-0.11
229.843	0.23
230.06	0.08
230.278	-0.15
230.496	-0.06
230.713	0.12
230.931	0.18
231.149	-0.18
231.366	-0.12
231.584	-0.03
231.801	0.3
232.019	-0.17
232.236	-0.22
232.454	-0.03
232.671	0.09
232.889	-0.12
233.106	-0.19
233.324	0.07
233.541	-0.1
233.759	-0.03
233.976	-0.09
234.194	-0.06
234.411	-0.01
234.628	-0.09
234.846	-0.18
235.063	0.01
235.28	-0.02
235.498	-0.01
235.715	-0.15
235.932	0.11
236.149	-0.11
236.367	-0.15
236.584	-0
236.801	-0.09
237.018	0.07
237.236	-0.02
237.453	-0.23
237.67	0.12
237.887	-0.02
238.104	-0.01
238.321	-0.2
238.538	-0.17
238.755	0.12
238.973	-0.16
239.19	-0.06
239.407	0.04
239.624	-0.03
239.841	-0.17
240.058	-0.15
240.275	-0.02
240.492	-0.07
240.709	0.01
240.925	-0.15
241.142	-0.07
241.359	-0.17
241.576	-0.09
241.793	-0.18
242.01	0.09
242.227	0.04
242.444	0.11
242.66	0
242.877	0.08
243.094	-0.05
243.311	-0.01
243.527	0.03
243.744	0.02
243.961	0.07
244.178	-0.23
244.394	-0.05
244.611	0.13
244.828	0.2
245.044	-0.07
245.261	0.01
245.477	0
245.694	0.09
245.911	-0.06
246.127	-0.06
246.344	0.1
246.56	0.04
246.777	0
246.993	-0.03
247.21	0.01
247.426	0.06
247.643	-0.03
247.859	-0.1
248.076	-0.09
248.292	0.13
248.508	0.03
248.725	0.01
248.941	0.07
249.157	0.16
249.374	-0.1
249.59	-0.02
249.806	0.08
250.023	0.01
250.239	-0.15
250.455	-0.09
250.671	-0.03
250.888	0.1
251.104	0.01
251.32	-0.02
251.536	0.01
251.752	-0.07
251.969	-0.04
252.185	-0.03
252.401	0.09
252.617	0.09
252.833	-0.12
253.049	-0.04
253.265	-0.06
253.481	-0.06
253.697	-0.08
253.913	-0.05
254.129	0.08
254.345	0.05
254.561	-0.02
254.777	-0.06
254.993	0.05
255.209	0.07
255.425	-0.03
255.641	-0.1
255.857	0.08
256.073	0.01
256.288	-0.12
256.504	-0.05
256.72	0.06
256.936	0.17
257.152	-0.03
257.367	-0.08
257.583	-0
257.799	0
258.015	-0.06
258.23	0.01
258.446	0.1
258.662	-0.04
258.877	-0.08
259.093	-0.1
259.309	0.01
259.524	0.04
259.74	-0.03
259.955	-0.08
260.171	-0.03
260.387	-0
260.602	0.1
260.818	0.09
261.033	-0.07
261.249	0
261.464	-0.05
261.68	-0.16
261.895	0.06
262.11	0.05
262.326	-0.11
262.541	-0.08
262.757	0.07
262.972	0.02
263.187	0
263.403	-0.05
263.618	0.04
263.833	0
264.049	-0.08
264.264	-0.01
264.479	0.03
264.694	0.12
264.91	-0.04
265.125	0.02
265.34	0.08
265.555	0.14
265.77	-0
265.986	-0.09
266.201	0.05
266.416	0.08
266.631	-0.05
266.846	-0.01
267.061	-0.03
267.276	0.02
267.491	-0.14
267.706	0.04
267.921	-0.04
268.136	0.08
268.351	-0.05
268.566	-0.08
268.781	0.07
268.996	0.09
269.211	-0.01
269.426	-0.09
269.641	-0.01
269.856	0.08
270.071	-0.1
270.285	-0.09
270.5	-0
270.715	0.01
270.93	-0.03
271.145	0.05
271.359	0.09
271.574	-0.05
271.789	-0.04
272.004	-0.08
272.218	-0.08
272.433	0.03
272.648	-0.09
272.862	0.04
273.077	-0.06
273.292	0.04
273.506	-0.02
273.721	0.01
273.936	0.03
274.15	0.03
274.365	-0.09
274.579	0.08
274.794	0.03
275.008	0.07
275.223	-0.11
275.437	-0.03
275.652	0.06
275.866	-0.01
276.081	0
276.295	0.05
276.509	0
276.724	-0.01
276.938	-0.04
277.153	0.05
277.367	0.05
277.581	0.01
277.796	-0.02
278.01	-0.05
278.224	0.05
278.438	0.11
278.653	-0.09
278.867	-0.06
279.081	-0.21
279.295	-0.08
279.51	-0.01
279.724	-0.11
279.938	0.08
280.152	0
280.366	-0.03
280.58	0
280.794	0.05
281.008	0.01
281.222	0.07
281.437	0.1
281.651	0
281.865	0.04
282.079	-0.06
282.293	-0.07
282.507	-0.09
282.721	0.01
282.935	0.01
283.148	-0.08
283.362	-0.06
283.576	-0.04
283.79	-0.04
284.004	-0.06
284.218	0.06
284.432	-0.06
284.646	-0.02
284.859	0
285.073	-0.05
285.287	-0
285.501	-0.01
285.714	-0.03
285.928	0.01
286.142	0.01
286.356	-0.05
286.569	-0.02
286.783	0.1
286.997	0.05
287.21	-0.02
287.424	0.03
287.637	-0.01
287.851	-0.03
288.065	0.07
288.278	-0
288.492	-0.01
288.705	-0.03
288.919	0.03
289.132	-0.05
289.346	0.11
289.559	-0.1
289.773	-0.09
289.986	-0.02
290.2	-0.01
290.413	0.01
290.626	-0.03
290.84	-0.02
291.053	-0.02
291.267	0.08
291.48	-0.02
291.693	-0.01
291.906	-0.04
292.12	-0.02
292.333	-0.03
292.546	0
292.76	0.04
292.973	0.04
293.186	0.06
293.399	-0.06
293.612	0.03
293.826	0.01
294.039	-0.02
294.252	-0.02
294.465	-0
294.678	0.05
294.891	0.01
295.104	-0.03
295.317	0.03
295.53	0.01
295.743	-0.03
295.956	-0
296.169	0.05
296.382	0.03
296.595	0.02
296.808	-0.05
297.021	0.07
297.234	-0.02
297.447	-0.01
297.66	0.08
297.873	0.09
298.086	0.03
298.299	-0.04
298.511	-0.07
298.724	0.01
298.937	-0.04
299.15	-0.05
299.363	0
299.575	0.03
299.788	-0.02
300.001	-0.02
300.213	-0.1
300.426	-0.01
300.639	-0.02
300.852	-0.04
301.064	0.07
301.277	0.08
301.489	0.08
301.702	0.03
301.915	-0.02
302.127	-0.02
302.34	-0.01
302.552	-0
302.765	-0.02
302.977	0.05
303.19	-0.07
303.402	-0.02
303.615	-0.03
303.827	-0.02
304.04	-0.04
304.252	0.03
304.464	-0.06
304.677	0.13
304.889	0.02
305.102	-0.05
305.314	-0.08
305.526	0.03
305.739	0.04
305.951	-0.04
306.163	-0.03
306.375	0.04
306.588	-0.04
306.8	-0.02
307.012	-0.04
307.224	-0.01
307.436	0.02
307.649	-0.05
307.861	0.04
308.073	0.05
308.285	-0.03
308.497	-0.02
308.709	0.01
308.921	0.02
309.133	0.01
309.346	0.01
309.558	-0.02
309.77	0
309.982	0.08
310.194	0.01
310.406	-0.01
310.617	0.08
310.829	0.02
311.041	0.04
311.253	-0.04
311.465	-0.02
311.677	-0.02
311.889	-0.02
312.101	-0.04
312.313	0.06
312.524	0.07
312.736	-0.05
312.948	-0.03
313.16	0.11
313.372	0.04
313.583	-0.01
313.795	0.01
314.007	-0.03
314.218	0.04
314.43	0.02
314.642	-0.05
314.853	-0.05
315.065	0.05
315.277	-0.01
315.488	-0.05
315.7	0.04
315.912	0.03
316.123	0.02
316.335	-0.03
316.546	0.1
316.758	0.01
316.969	-0.03
317.181	0.01
317.392	-0.01
317.604	0.08
317.815	-0.03
318.026	-0.03
318.238	-0.02
318.449	0
318.661	-0.05
318.872	-0.08
319.083	0.02
319.295	0
319.506	-0.05
319.717	0.04
319.929	0.02
320.14	0.01
320.351	-0.02
320.562	-0.05
320.774	0.05
320.985	0.01
321.196	-0.04
321.407	-0.09
321.618	0.04
321.829	0.02
322.041	-0.01
322.252	0.02
322.463	0
322.674	0.04
322.885	-0.07
323.096	0.02
323.307	-0.03
323.518	0.01
323.729	-0.02
323.94	0.03
324.151	0.01
324.362	0
324.573	-0
324.784	-0.02
324.995	0.08
325.206	0.05
325.417	-0.03
325.628	-0.02
325.838	-0.03
326.049	-0.03
326.26	0.03
326.471	-0.03
326.682	0.05
326.892	0.02
327.103	-0.05
327.314	-0.09
327.525	0.07
327.735	-0.03
327.946	-0.03
328.157	-0.02
328.368	0
328.578	-0.04
328.789	0.03
328.999	0
329.21	-0.04
329.421	0.02
329.631	-0.03
329.842	-0.08
330.052	0.04
330.263	-0
330.473	0.01
330.684	-0.03
330.894	0.02
331.105	0.02
331.315	0.02
331.526	-0.06
331.736	0.04
331.947	0.02
332.157	0.04
332.367	-0.08
332.578	0.02
332.788	0.06
332.999	0.02
333.209	0.03
333.419	-0.05
333.629	0.01
333.84	-0.02
334.05	0.01
334.26	0.08
334.47	-0.02
334.681	0.02
334.891	-0.03
335.101	0.02
335.311	0.1
335.521	-0.01
335.732	-0.07
335.942	0.05
336.152	0.06
336.362	0.02
336.572	-0.03
336.782	0.05
336.992	-0
337.202	-0
337.412	-0.1
337.622	-0.01
337.832	0.03
338.042	-0.01
338.252	-0
338.462	0.02
338.672	0
338.882	0.01
339.092	-0
339.302	0.06
339.511	0
339.721	-0.05
339.931	-0.03
340.141	0.04
340.351	0.09
340.561	0.01
340.77	-0.02
340.98	-0
341.19	0
341.4	-0.06
341.609	-0.04
341.819	-0.02
342.029	-0.02
342.238	-0
342.448	-0.04
342.658	-0.03
342.867	0.02
343.077	-0.01
343.286	0.05
343.496	0.07
343.706	0.07
343.915	-0.04
344.125	-0.01
344.334	0
344.544	-0.08
344.753	-0.04
344.963	0.01
345.172	-0.03
345.381	-0.01
345.591	-0.05
345.8	0
346.01	0.06
346.219	0.03
346.428	-0.13
346.638	-0.01
346.847	0.01
347.056	0.01
347.266	-0.03
347.475	-0.05
347.684	0.02
347.893	0.02
348.103	0.01
348.312	0
348.521	0.02
348.73	-0.02
348.94	0.04
349.149	-0.02
349.358	-0.02
349.567	-0
349.776	-0.06
349.985	-0.04
350.194	0.04
350.403	0.06
350.612	-0.06
350.821	0
351.03	0
351.239	-0.07
351.448	-0.04
351.657	-0.03
351.866	0.1
352.075	-0.01
352.284	0.06
352.493	-0.08
352.702	0.06
352.911	0.05
353.12	-0
353.329	-0.03
353.538	0.03
353.746	0.01
353.955	-0.03
354.164	-0.02
354.373	0
354.582	0.05
354.79	0.04
354.999	0.02
355.208	-0
355.416	0.05
355.625	-0.05
355.834	-0.01
356.042	-0
356.251	-0.02
356.46	-0.05
356.668	-0.01
356.877	0.07
357.085	0.01
357.294	-0.04
357.503	0.05
357.711	-0.01
357.92	0.09
358.128	0
358.337	-0.03
358.545	-0.01
358.754	-0.03
358.962	0.02
359.17	0.01
359.379	0.01
359.587	0.02
359.796	0.01
360.004	0.04
360.212	0.05
360.421	0.04
360.629	-0.01
360.837	0.01
361.046	0.03
361.254	0.1
361.462	0.03
361.67	-0.02
361.879	0
362.087	0.06
362.295	-0.01
362.503	-0.02
362.711	-0.02
362.92	-0.03
363.128	-0.04
363.336	-0.02
363.544	-0.07
363.752	-0.02
363.96	-0.03
364.168	-0.02
364.376	-0.04
364.584	0.01
364.792	0.03
365	0.02
365.208	0.01
365.416	0.05
365.624	0.02
365.832	-0.01
366.04	0.06
366.248	0.03
366.456	0.01
366.664	0.05
366.872	0
367.079	-0.01
367.287	-0.02
367.495	0.02
367.703	0.02
367.911	-0
368.118	-0.01
368.326	0
368.534	-0.02
368.742	0.05
368.949	-0.05
369.157	-0.03
369.365	0.06
369.572	-0.03
369.78	0
369.988	0.05
370.195	0.03
370.403	-0.01
370.61	-0.03
370.818	0
371.026	0.01
371.233	-0.04
371.441	0.01
371.648	-0.04
371.856	0.02
372.063	0.03
372.271	-0.02
372.478	-0.02
372.685	-0.03
372.893	0.04
373.1	-0.01
373.308	-0.01
373.515	0.06
373.722	0.06
373.93	0.01
374.137	0.01
374.344	0.08
374.552	0.03
374.759	0.03
374.966	0.01
375.173	-0.05
375.381	0.03
375.588	-0.04
375.795	-0.08
376.002	-0.05
376.209	-0.04
376.417	-0.06
376.624	-0.03
376.831	0.01
377.038	-0.01
377.245	-0.09
377.452	-0.04
377.659	0.02
377.866	-0.04
378.073	-0.02
378.28	0.02
378.487	0.06
378.694	0.02
378.901	-0.02
379.108	-0.04
379.315	0.02
379.522	0.09
379.729	-0.01
379.936	-0.03
380.143	-0.01
380.35	0
380.557	-0.04
380.763	0.02
380.97	0.04
381.177	0
381.384	-0.01
381.591	-0.04
381.797	-0.02
382.004	-0.01
382.211	0.01
382.418	0.01
382.624	0.05
382.831	0.03
383.038	0.03
383.244	0.04
383.451	-0.02
383.658	0
383.864	-0.05
384.071	0.02
384.277	0.06
384.484	-0.02
384.69	0.03
384.897	-0.05
385.103	-0.03
385.31	-0.02
385.516	-0
385.723	-0.03
385.929	-0
386.136	0.02
386.342	0.02
386.549	-0.03
386.755	0.05
386.961	0.03
387.168	-0.01
387.374	-0.05
387.58	-0.01
387.787	-0.01
387.993	-0.01
388.199	-0
388.406	-0.05
388.612	-0.02
388.818	-0
389.024	-0.03
389.231	0
389.437	0.08
389.643	0.01
389.849	0
390.055	0.02
390.261	0.01
390.467	0.03
390.674	-0.03
390.88	-0.03
391.086	0
391.292	-0.03
391.498	0.07
391.704	0.01
391.91	0.01
392.116	0.01
392.322	-0.08
392.528	0.02
392.734	-0.01
392.94	0.01
393.146	-0.02
393.352	0.01
393.557	-0.02
393.763	0.01
393.969	0.03
394.175	-0.02
394.381	-0.02
394.587	-0.01
394.792	-0.05
394.998	0.03
395.204	0.04
395.41	-0.02
395.615	0.03
395.821	0.03
396.027	0.04
396.233	-0.04
396.438	0.06
396.644	0.05
396.85	0.03
397.055	0.03
397.261	-0
397.466	0.06
397.672	-0.02
397.878	0.01
398.083	0.01
398.289	-0.06
398.494	0.04
398.7	-0
398.905	-0.09
399.111	0.05
399.316	-0.07
399.522	0.01
399.727	-0.01
399.932	-0.01
400.138	-0.06
400.343	0.03
400.549	-0.01
400.754	-0
400.959	-0.01
401.165	0.01
401.37	0.01
401.575	0.07
401.78	-0.03
401.986	-0.01
402.191	-0.01
402.396	-0.01
402.601	0.02
402.807	0.01
403.012	-0.02
403.217	0.04
403.422	-0.02
403.627	0.01
403.832	-0
404.037	0.04
404.243	0.02
404.448	-0.02
404.653	-0.03
404.858	0
405.063	0.04
405.268	-0.03
405.473	-0.07
405.678	-0.01
405.883	0.09
406.088	0.05
406.293	-0.05
406.498	-0.01
406.703	0.03
406.907	0
407.112	-0.02
407.317	-0
407.522	0.05
407.727	-0.05
407.932	0.02
408.136	0.07
408.341	0
408.546	-0.01
408.751	0.01
408.956	-0.02
409.16	-0.03
409.365	-0.03
409.57	-0.04
409.774	0.02
409.979	0.07
410.184	0
410.388	-0.05
410.593	0.05
410.798	0.03
411.002	-0.02
411.207	-0.01
411.411	-0
411.616	-0.03
411.82	-0.05
412.025	0.01
412.229	0.01
412.434	0.05
412.638	-0
412.843	-0.02
413.047	0.02
413.252	-0.01
413.456	-0.02
413.66	0.04
413.865	-0.04
414.069	0.06
414.273	-0.01
414.478	-0.05
414.682	0.01
414.886	-0.02
415.091	-0.07
415.295	-0.06
415.499	0.05
415.703	-0.05
415.908	-0.02
416.112	-0.09
416.316	0.04
416.52	-0.02
416.724	-0.06
416.929	-0.05
417.133	0.11
417.337	-0
417.541	-0.03
417.745	-0.02
417.949	0.03
418.153	0.04
418.357	-0.05
418.561	0.06
418.765	-0
418.969	0.12
419.173	0.04
419.377	-0.01
419.581	0.08
419.785	-0.01
419.989	-0.05
420.193	-0.04
420.397	0.01
420.601	0.04
420.804	0.02
421.008	-0.03
421.212	-0.02
421.416	0.04
421.62	0
421.823	0.01
422.027	0.08
422.231	0.02
422.435	-0.03
422.638	0.07
422.842	0.01
423.046	-0.01
423.249	0.03
423.453	0.03
423.657	0.03
423.86	-0.02
424.064	0.04
424.268	0.06
424.471	-0.01
424.675	0.06
424.878	0.08
425.082	0
425.285	0.03
425.489	0.05
425.692	0.01
425.896	-0.06
426.099	0
426.303	-0.03
426.506	-0.06
426.71	0.02
426.913	0.03
427.116	0.05
427.32	-0.06
427.523	-0.01
427.726	0.08
427.93	-0.02
428.133	0.02
428.336	-0.06
428.54	-0.06
428.743	0.01
428.946	0.03
429.149	0
429.353	0.02
429.556	-0.01
429.759	-0.05
429.962	-0.07
430.165	-0.01
430.368	0.01
430.571	-0.04
430.775	0.02
430.978	-0.03
431.181	0.04
431.384	0.04
431.587	0
431.79	0
431.993	0.06
432.196	-0.03
432.399	0
432.602	0.03
432.805	-0.01
433.008	-0.01
433.211	-0.1
433.414	0.01
433.616	0.01
433.819	0.01
434.022	-0.14
434.225	0.06
434.428	0.01
434.631	0.12
434.833	-0
435.036	-0.04
435.239	0.04
435.442	-0.02
435.645	-0.04
435.847	0.01
436.05	0.05
436.253	-0.01
436.455	-0.07
436.658	0.02
436.861	0.08
437.063	-0.01
437.266	-0.02
437.468	0.04
437.671	0.11
437.874	-0.03
438.076	-0.05
438.279	-0.06
438.481	0.02
438.684	-0.05
438.886	0.08
439.089	-0.08
439.291	0.02
439.494	0.06
439.696	-0.03
439.899	-0.02
440.101	0.02
440.303	-0.09
440.506	0.02
440.708	-0.01
440.91	0.01
441.113	-0.08
441.315	0.03
441.517	-0.03
441.72	0.05
441.922	-0.03
442.124	-0.03
442.326	-0
442.529	0.11
442.731	-0.02
442.933	0.09
443.135	-0.04
443.337	-0.02
443.539	-0.01
443.742	-0.01
443.944	0
444.146	-0.06
444.348	-0.01
444.55	-0.03
444.752	-0.07
444.954	-0.05
445.156	0
445.358	-0.01
445.56	0.04
445.762	-0.04
445.964	0
446.166	-0
446.368	0
446.57	0.03
446.772	0.01
446.974	0.02
447.175	0.03
447.377	-0.05
447.579	0.01
447.781	-0.13
447.983	0.05
448.184	-0.02
448.386	-0.01
448.588	-0.12
448.79	0.01
448.991	0.01
449.193	-0.02
449.395	-0.03
449.597	0.03
449.798	0.01
450	0
450.202	0.03
450.403	-0.01
450.605	0.03
450.806	0.04
451.008	-0.09
451.21	-0.05
451.411	0.05
451.613	-0
451.814	0.03
452.016	0.06
452.217	-0.01
452.419	0.06
452.62	0.05
452.821	0.02
453.023	0.03
453.224	0.04
453.426	0.01
453.627	0.02
453.828	0.05
454.03	-0.01
454.231	0.07
454.432	-0.05
454.634	0.1
454.835	-0.05
455.036	-0.07
455.238	0.09
455.439	0.09
455.64	-0.02
455.841	-0.01
456.042	0.08
456.244	0.01
456.445	-0.06
456.646	-0.04
456.847	-0.02
457.048	0.01
457.249	0.03
457.45	0.2
457.651	-0.03
457.852	0.09
458.054	0.04
458.255	0
458.456	0.01
458.657	-0.03
458.858	-0.01
459.058	0.04
459.259	0.07
459.46	-0.03
459.661	-0.07
459.862	0.13
460.063	-0.01
460.264	0.05
460.465	-0
460.666	0.06
460.866	-0.01
461.067	0.01
461.268	-0.01
461.469	-0.01
461.67	0.02
461.87	-0.03
462.071	-0.02
462.272	-0.03
462.473	-0
462.673	0.01
462.874	0.01
463.075	0.01
463.275	-0.01
463.476	0.03
463.676	0.07
463.877	0.04
464.078	-0.02
464.278	0.04
464.479	-0
464.679	-0.03
464.88	-0.01
465.08	0.08
465.281	-0.02
465.481	-0.02
465.682	-0.02
465.882	0.07
466.083	0.04
466.283	0.01
466.483	0.05
466.684	-0.01
466.884	-0.03
467.085	-0.03
467.285	0.05
467.485	-0.02
467.686	0
467.886	-0.04
468.086	0.04
468.286	0.03
468.487	-0.01
468.687	-0.04
468.887	-0.01
469.087	0.06
469.287	0
469.488	-0.06
469.688	0.02
469.888	0.02
470.088	0.05
470.288	0.05
470.488	0.06
470.688	-0.06
470.888	-0.03
471.088	-0.03
471.288	0.07
471.488	0.02
471.688	0.05
471.888	-0.05
472.088	0.1
472.288	0
472.488	-0.05
472.688	-0.02
472.888	0.02
473.088	0.03
473.288	0
473.488	0.05
473.688	0.12
473.887	0.03
474.087	-0.04
474.287	0.03
474.487	-0.02
474.687	0.06
474.886	-0.01
475.086	0.03
475.286	0.03
475.486	0.01
475.685	-0.01
475.885	0.01
476.085	0.02
476.284	0.05
476.484	0.04
476.684	0.03
476.883	0.06
477.083	0.03
477.282	-0.02
477.482	0.1
477.681	0.06
477.881	0.06
478.08	-0.03
478.28	-0
478.479	0.05
478.679	0.12
478.878	-0
479.078	-0.02
479.277	0.02
479.477	0
479.676	0.06
479.875	0.03
480.075	-0.04
480.274	0.03
480.473	0.02
480.673	0
480.872	0.08
481.071	0.02
481.271	0.04
481.47	-0.01
481.669	0.02
481.868	-0
482.067	-0.02
482.267	0.02
482.466	-0.01
482.665	-0.02
482.864	0.01
483.063	-0.01
483.262	0.07
483.461	0.1
483.661	0.08
483.86	0.06
484.059	0.06
484.258	0.07
484.457	0.06
484.656	0.05
484.855	0.09
485.054	-0.01
485.253	-0
485.452	0.01
485.651	0.04
485.849	0.04
486.048	0.03
486.247	0.03
486.446	0.05
486.645	0.01
486.844	0.02
487.043	0.04
487.241	0.11
487.44	0.04
487.639	0.04
487.838	0.08
488.037	0.08
488.235	0.12
488.434	0.06
488.633	0.06
488.831	0.08
489.03	0.1
489.229	0.06
489.427	0.07
489.626	0.09
489.825	0.12
490.023	0.06
490.222	0.06
490.42	0.1
490.619	0.12
490.817	0.1
491.016	0.07
491.214	0.12
491.413	0.07
491.611	0.11
491.81	0.1
492.008	0.09
492.207	0.11
492.405	0.1
492.604	0.05
492.802	0.08
493	0.12
493.199	0.12
493.397	0.12
493.595	0.1
493.794	0.11
493.992	0.16
494.19	0.12
494.388	0.12
494.587	0.12
494.785	0.13
494.983	0.1
495.181	0.13
495.379	0.13
495.578	0.14
495.776	0.17
495.974	0.16
496.172	0.15
496.37	0.15
496.568	0.13
496.766	0.15
496.964	0.21
497.162	0.17
497.36	0.13
497.558	0.2
497.756	0.21
497.954	0.18
498.152	0.17
498.35	0.2
498.548	0.19
498.746	0.19
498.944	0.19
499.142	0.19
499.34	0.2
499.538	0.23
499.736	0.21
499.933	0.26
500.131	0.24
500.329	0.27
500.527	0.26
500.725	0.29
500.922	0.3
501.12	0.29
501.318	0.27
501.516	0.25
501.713	0.31
501.911	0.29
502.109	0.27
502.306	0.35
502.504	0.31
502.701	0.3
502.899	0.35
503.097	0.39
503.294	0.35
503.492	0.36
503.689	0.4
503.887	0.42
504.084	0.46
504.282	0.38
504.479	0.38
504.677	0.44
504.874	0.42
505.072	0.42
505.269	0.46
505.466	0.49
505.664	0.51
505.861	0.45
506.059	0.47
506.256	0.53
506.453	0.5
506.651	0.58
506.848	0.59
507.045	0.56
507.242	0.58
507.44	0.57
507.637	0.6
507.834	0.6
508.031	0.64
508.229	0.57
508.426	0.63
508.623	0.71
508.82	0.65
509.017	0.63
509.214	0.66
509.411	0.72
509.608	0.71
509.805	0.76
510.003	0.71
510.2	0.74
510.397	0.83
510.594	0.78
510.791	0.84
510.988	0.84
511.184	0.88
511.381	0.82
511.578	0.85
511.775	0.95
511.972	0.87
512.169	0.94
512.366	0.92
512.563	0.98
512.76	0.96
512.956	1.04
513.153	0.98
513.35	1.02
513.547	1.02
513.744	1.03
513.94	1.02
514.137	1.08
514.334	1.1
514.53	1.1
514.727	1.16
514.924	1.19
515.12	1.14
515.317	1.17
515.514	1.14
515.71	1.16
515.907	1.23
516.103	1.25
516.3	1.25
516.497	1.31
516.693	1.28
516.89	1.3
517.086	1.27
517.283	1.36
517.479	1.31
517.676	1.33
517.872	1.38
518.068	1.37
518.265	1.37
518.461	1.38
518.658	1.39
518.854	1.4
519.05	1.42
519.247	1.44
519.443	1.43
519.639	1.52
519.836	1.44
520.032	1.47
520.228	1.46
520.424	1.51
520.621	1.5
520.817	1.51
521.013	1.52
521.209	1.56
521.405	1.57
521.601	1.51
521.798	1.5
521.994	1.6
522.19	1.47
522.386	1.48
522.582	1.53
522.778	1.57
522.974	1.54
523.17	1.51
523.366	1.54
523.562	1.55
523.758	1.54
523.954	1.47
524.15	1.54
524.346	1.57
524.542	1.54
524.738	1.5
524.934	1.53
525.129	1.53
525.325	1.49
525.521	1.5
525.717	1.53
525.913	1.49
526.109	1.49
526.304	1.51
526.5	1.52
526.696	1.51
526.892	1.45
527.087	1.52
527.283	1.45
527.479	1.48
527.674	1.37
527.87	1.4
528.066	1.39
528.261	1.41
528.457	1.4
528.653	1.43
528.848	1.39
529.044	1.41
529.239	1.31
529.435	1.37
529.63	1.34
529.826	1.38
530.021	1.34
530.217	1.31
530.412	1.26
530.608	1.27
530.803	1.24
530.999	1.25
531.194	1.21
531.389	1.23
531.585	1.15
531.78	1.22
531.975	1.2
532.171	1.22
532.366	1.17
532.561	1.15
532.757	1.15
532.952	1.16
533.147	1.13
533.342	1.1
533.538	1.1
533.733	1.11
533.928	1.02
534.123	1.03
534.318	1
534.513	1.01
534.709	1.03
534.904	0.99
535.099	0.99
535.294	0.98
535.489	1
535.684	0.98
535.879	0.91
536.074	0.95
536.269	0.9
536.464	0.9
536.659	0.91
536.854	0.89
537.049	0.89
537.244	0.87
537.439	0.84
537.634	0.9
537.828	0.86
538.023	0.82
538.218	0.78
538.413	0.79
538.608	0.76
538.803	0.81
538.997	0.74
539.192	0.8
539.387	0.78
539.582	0.77
539.776	0.75
539.971	0.75
540.166	0.73
540.36	0.71
540.555	0.73
540.75	0.71
540.944	0.67
541.139	0.65
541.334	0.66
541.528	0.67
541.723	0.67
541.917	0.66
542.112	0.62
542.306	0.62
542.501	0.62
542.695	0.62
542.89	0.61
543.084	0.62
543.279	0.61
543.473	0.6
543.668	0.6
543.862	0.57
544.056	0.57
544.251	0.56
544.445	0.6
544.64	0.55
544.834	0.53
545.028	0.53
545.222	0.56
545.417	0.59
545.611	0.55
545.805	0.53
546	0.5
546.194	0.51
546.388	0.49
546.582	0.52
546.776	0.49
546.97	0.5
547.165	0.49
547.359	0.49
547.553	0.44
547.747	0.45
547.941	0.46
548.135	0.44
548.329	0.47
548.523	0.47
548.717	0.41
548.911	0.42
549.105	0.42
549.299	0.43
549.493	0.42
549.687	0.41
549.881	0.44
550.075	0.39
550.269	0.37
550.463	0.41
550.657	0.36
550.85	0.37
551.044	0.36
551.238	0.35
551.432	0.33
551.626	0.33
551.82	0.37
552.013	0.31
552.207	0.33
552.401	0.36
552.594	0.33
552.788	0.31
552.982	0.31
553.176	0.29
553.369	0.34
553.563	0.33
553.756	0.25
553.95	0.27
554.144	0.29
554.337	0.33
554.531	0.29
554.724	0.29
554.918	0.26
555.111	0.32
555.305	0.27
555.498	0.33
555.692	0.29
555.885	0.25
556.079	0.26
556.272	0.23
556.466	0.25
556.659	0.23
556.852	0.25
557.046	0.24
557.239	0.28
557.432	0.19
557.626	0.22
557.819	0.27
558.012	0.24
558.206	0.22
558.399	0.2
558.592	0.23
558.785	0.21
558.979	0.25
559.172	0.21
559.365	0.19
559.558	0.21
559.751	0.17
559.944	0.2
560.138	0.16
560.331	0.18
560.524	0.17
560.717	0.18
560.91	0.19
561.103	0.18
561.296	0.15
561.489	0.17
561.682	0.16
561.875	0.18
562.068	0.18
562.261	0.16
562.454	0.19
562.647	0.15
562.84	0.17
563.032	0.13
563.225	0.17
563.418	0.13
563.611	0.14
563.804	0.14
563.997	0.12
564.19	0.1
564.382	0.15
564.575	0.13
564.768	0.13
564.961	0.11
565.153	0.11
565.346	0.15
565.539	0.14
565.731	0.12
565.924	0.14
566.117	0.15
566.309	0.12
566.502	0.1
566.695	0.14
566.887	0.14
567.08	0.1
567.272	0.12
567.465	0.09
567.657	0.12
567.85	0.1
568.042	0.12
568.235	0.15
568.427	0.1
568.62	0.1
568.812	0.14
569.005	0.12
569.197	0.05
569.389	0.1
569.582	0.11
569.774	0.12
569.966	0.04
570.159	0.06
570.351	0.11
570.543	0.07
570.736	0.09
570.928	0.05
571.12	0.1
571.312	0.05
571.505	0.03
571.697	0.11
571.889	0.05
572.081	0.09
572.273	0.06
572.465	0.11
572.658	0.07
572.85	0.1
573.042	0.07
573.234	0.08
573.426	0.11
573.618	0.04
573.81	0.08
574.002	0.1
574.194	0.1
574.386	0.05
574.578	-0
574.77	0.06
574.962	0.07
575.154	0.04
575.346	0.05
575.538	0.07
575.729	0.06
575.921	0.05
576.113	0.05
576.305	0.09
576.497	0.05
576.689	0.05
576.88	0.02
577.072	0.07
577.264	0.05
577.456	0.08
577.647	0
577.839	0.05
578.031	0.08
578.223	0.02
578.414	0.03
578.606	0.06
578.798	0.03
578.989	0.02
579.181	0.04
579.372	0.06
579.564	0.02
579.755	0.04
579.947	0.05
580.139	0.08
580.33	-0
580.522	0.01
580.713	-0.04
580.905	0.05
581.096	0.09
581.287	0.05
581.479	0.05
581.67	0.07
581.862	0.04
582.053	0.04
582.244	-0
582.436	0.05
582.627	0.04
582.818	0.01
583.01	-0.02
583.201	0.05
583.392	0.07
583.583	0.03
583.775	0.02
583.966	0.03
584.157	-0
584.348	0.02
584.54	-0.02
584.731	0.05
584.922	0.05
585.113	0
585.304	0.04
585.495	0.03
585.686	0.05
585.877	0.04
586.068	0.03
586.259	0.05
586.45	0.05
586.641	0.01
586.832	-0.01
587.023	0.02
587.214	0.01
587.405	0.03
587.596	-0.03
587.787	0.05
587.978	0.02
588.169	0
588.36	-0.01
588.551	0.05
588.742	-0.01
588.932	0.02
589.123	0.01
589.314	0.05
589.505	0.04
589.696	0.04
589.886	-0
590.077	-0.02
590.268	0.03
590.458	-0.02
590.649	-0.03
590.84	0.05
591.03	0.01
591.221	-0.02
591.412	-0.05
591.602	0.03
591.793	0.05
591.984	-0.04
592.174	0.01
592.365	0.09
592.555	-0
592.746	0.04
592.936	0.03
593.127	0.04
593.317	0.05
593.508	0
593.698	-0.01
593.889	0.01
594.079	0.03
594.269	-0.02
594.46	0.02
594.65	0.03
594.84	0.02
595.031	-0.03
595.221	-0.01
595.411	-0.04
595.602	0.04
595.792	0
595.982	-0.02
596.172	0.09
596.363	0.02
596.553	0.05
596.743	0.01
596.933	0.01
597.123	0.06
597.314	-0.01
597.504	-0.01
597.694	0.03
597.884	0.02
598.074	-0.01
598.264	-0.03
598.454	0.01
598.644	-0.02
598.834	0.01
599.024	-0.03
599.214	0.01
599.404	0.03
599.594	-0.01
599.784	-0.01
599.974	0.02
600.164	0.03
600.354	-0.04
600.544	-0.05
600.734	0.03
600.924	0.04
601.114	-0.01
601.303	0.01
601.493	0.03
601.683	0.01
601.873	0.03
602.063	-0.06
602.252	0.03
602.442	-0.03
602.632	-0.03
602.821	-0.03
603.011	0.02
603.201	-0.01
603.39	-0.02
603.58	-0.01
603.77	0.02
603.959	0.05
604.149	0.01
604.339	-0.02
604.528	0.05
604.718	0.03
604.907	-0.01
605.097	-0.01
605.286	-0.05
605.476	0.05
605.665	0.02
605.855	0.03
606.044	0
606.234	0
606.423	0
606.612	-0.03
606.802	0.01
606.991	0.04
607.181	-0.01
607.37	-0.05
607.559	-0
607.749	-0.02
607.938	0
608.127	-0.02
608.316	-0.01
608.506	-0
608.695	0.01
608.884	-0.04
609.073	0.01
609.263	0.02
609.452	0.02
609.641	0.02
609.83	-0.03
610.019	0.01
610.208	-0.02
610.397	-0.01
610.586	0.02
610.775	0.01
610.965	-0.03
611.154	-0.02
611.343	0.01
611.532	-0
611.721	-0.02
611.91	-0
612.099	0.04
612.287	-0.05
612.476	-0.03
612.665	-0.02
612.854	-0.04
613.043	0.05
613.232	-0
613.421	-0.05
613.61	0.01
613.798	0.01
613.987	0.02
614.176	0.01
614.365	0.03
614.554	0.01
614.742	0.04
614.931	-0.01
615.12	0.06
615.309	0.02
615.497	0.05
615.686	-0.03
615.875	0.01
616.063	0.02
616.252	0.02
616.44	0.01
616.629	-0.01
616.818	0.02
617.006	-0.02
617.195	-0.03
617.383	0.04
617.572	-0.01
617.76	-0.01
617.949	-0.01
618.137	0.04
618.326	0.03
618.514	-0.05
618.703	-0.02
618.891	0.06
619.079	-0.08
619.268	0.01
619.456	-0.01
619.644	-0
619.833	-0.02
620.021	-0.01
620.209	-0.05
620.398	0.02
620.586	0
620.774	0.03
620.962	-0.01
621.151	0.05
621.339	0.01
621.527	-0.03
621.715	-0.03
621.903	-0.02
622.092	-0.02
622.28	-0.01
622.468	0.02
622.656	0.01
622.844	0.01
623.032	-0.03
623.22	-0.04
623.408	0.02
623.596	0.03
623.784	0.02
623.972	-0.04
624.16	0
624.348	0.07
624.536	-0.02
624.724	-0
624.912	0.03
625.1	0.02
625.288	-0.04
625.476	-0.02
625.664	0.02
625.851	-0.03
626.039	-0.01
626.227	-0.01
626.415	0.01
626.603	-0.07
626.79	0.02
626.978	-0.02
627.166	0.03
627.354	0.01
627.541	-0.01
627.729	-0.06
627.917	0.01
628.104	0.03
628.292	0.04
628.48	0
628.667	-0
628.855	-0.01
629.042	0.02
629.23	-0.04
629.418	-0.01
629.605	-0.01
629.793	-0
629.98	-0
630.168	-0.02
630.355	0.01
630.543	0
630.73	-0.05
630.917	0
631.105	0.07
631.292	-0
631.48	-0.01
631.667	0.06
631.854	-0.01
632.042	-0.06
632.229	-0.06
632.416	-0.01
632.604	-0.02
632.791	-0.04
632.978	0.01
633.165	-0
633.353	0.07
633.54	-0.02
633.727	-0.08
633.914	-0.05
634.101	-0.08
634.289	0
634.476	-0.02
634.663	-0.04
634.85	0.01
635.037	-0.02
635.224	-0.08
635.411	0.04
635.598	-0.01
635.785	-0.04
635.972	0.01
636.159	0.03
636.346	-0.03
636.533	-0.01
636.72	-0.03
636.907	-0.01
637.094	0.05
637.281	-0.01
637.468	0.02
637.655	0.02
637.842	-0
638.029	-0.01
638.215	0.05
638.402	-0
638.589	-0.02
638.776	-0.01
638.963	-0.04
639.149	0.02
639.336	0.08
639.523	-0.02
639.709	-0.01
639.896	-0.03
640.083	0.04
640.27	0.02
640.456	-0.02
640.643	-0
640.829	-0.03
641.016	0
641.203	-0.04
641.389	0.02
641.576	0.02
641.762	0.01
641.949	-0.04
642.135	0.02
642.322	0.01
642.508	-0.05
642.695	-0.01
642.881	0
643.068	-0.01
643.254	-0.02
643.441	0.03
643.627	-0
643.813	-0.07
644	0.02
644.186	-0.04
644.372	0.04
644.559	0.02
644.745	-0.01
644.931	-0
645.118	-0
645.304	0.01
645.49	-0.01
645.676	-0.01
645.862	-0.01
646.049	0.06
646.235	0
646.421	0.04
646.607	0.06
646.793	0
646.979	-0.03
647.165	0.01
647.352	-0
647.538	0.02
647.724	-0.03
647.91	-0.01
648.096	0.03
648.282	0.03
648.468	-0.01
648.654	-0.02
648.84	-0.03
649.026	-0
649.212	0.02
649.397	-0.02
649.583	-0.04
649.769	0.02
649.955	-0.03
650.141	0.03
650.327	0.04
650.513	-0.06
650.698	0.02
650.884	-0.08
651.07	0
651.256	0.01
651.442	-0
651.627	-0.02
651.813	-0.01
651.999	0
652.184	0.03
652.37	-0.02
652.556	-0.04
652.741	0.08
652.927	-0.07
653.113	0
653.298	-0.03
653.484	-0.05
653.669	-0.04
653.855	-0.03
654.04	0.04
654.226	-0.02
654.412	-0.06
654.597	-0.05
654.782	0.05
654.968	0.04
655.153	0
655.339	-0.05
655.524	-0.05
655.71	0.01
655.895	-0.04
656.08	-0.03
656.266	0.01
656.451	0.01
656.636	-0.06
656.822	-0.02
657.007	-0.03
657.192	0
657.378	-0.07
657.563	0.01
657.748	0.02
657.933	0.02
658.118	-0.07
658.304	-0.02
658.489	0.01
658.674	-0.05
658.859	-0.04
659.044	0.03
659.229	-0
659.414	0
659.599	-0.03
659.785	-0.06
659.97	-0.01
660.155	-0.01
660.34	-0.02
660.525	-0.01
660.71	-0.01
660.895	0.03
661.08	-0.02
661.264	-0.03
661.449	0.05
661.634	0.05
661.819	0.02
662.004	0.03
662.189	-0.07
662.374	-0.04
662.559	-0.03
662.743	-0.08
662.928	0
663.113	-0.06
663.298	-0.09
663.483	-0.02
663.667	0.01
663.852	-0.05
664.037	0.03
664.221	-0.03
664.406	0.02
664.591	-0.01
664.775	-0.01
664.96	-0
665.145	0.03
665.329	0.02
665.514	-0.02
665.698	-0.02
665.883	-0.07
666.068	0.06
666.252	-0.04
666.437	-0.03
666.621	0.02
666.806	0.04
666.99	-0
667.174	-0.06
667.359	0.06
667.543	-0.01
667.728	-0
667.912	-0.1
668.096	0.02
668.281	-0.02
668.465	-0.02
668.649	-0
668.834	-0.01
669.018	-0.01
669.202	-0.04
669.387	-0.05
669.571	0.05
669.755	-0.04
669.939	0
670.124	-0.03
670.308	0.02
670.492	0.03
670.676	-0.02
670.86	0.01
671.044	-0.06
671.228	0.05
671.413	-0.05
671.597	-0.01
671.781	-0.04
671.965	-0
672.149	-0.02
672.333	-0.04
672.517	-0.01
672.701	0.03
672.885	0.01
673.069	-0.03
673.253	0.07
673.437	-0.03
673.621	-0.02
673.804	-0.07
673.988	0
674.172	-0.01
674.356	-0.08
674.54	-0.01
674.724	0.12
674.908	-0.03
675.091	0.01
675.275	0
675.459	0.02
675.643	0.06
675.826	-0.01
676.01	0.03
676.194	-0.02
676.377	0.05
676.561	0.01
676.745	-0.01
676.928	-0.01
677.112	0.02
677.296	-0.03
677.479	-0.01
677.663	-0.06
677.846	0.03
678.03	-0.03
678.213	-0.02
678.397	-0.01
678.58	-0.03
678.764	0.01
678.947	-0.08
679.131	-0.02
679.314	0.09
679.498	-0.01
679.681	-0
679.865	0.01
680.048	-0.04
680.231	-0.01
680.415	-0.01
680.598	0.02
680.781	-0.07
680.965	0.02
681.148	0.02
681.331	-0.04
681.514	0.02
681.698	-0.04
681.881	0.03
682.064	-0
682.247	-0.02
682.43	-0.11
682.614	0.02
682.797	0.05
682.98	0.02
683.163	-0.05
683.346	0.05
683.529	-0.04
683.712	-0.04
683.895	0.03
684.078	-0.08
684.261	-0.02
684.444	0.02
684.627	0.02
684.81	-0.03
684.993	-0.04
685.176	0.03
685.359	-0.1
685.542	-0.07
685.725	0.04
685.908	0.01
686.091	-0.04
686.274	0.07
686.457	0.02
686.639	0
686.822	0.03
687.005	-0.02
687.188	0.07
687.371	0.09
687.553	0.04
687.736	-0.03
687.919	0.1
688.102	0.11
688.284	-0.01
688.467	-0
688.65	-0.03
688.832	-0.06
689.015	0
689.197	-0.07
689.38	0.09
689.563	0.09
689.745	-0.05
689.928	-0.02
690.11	-0.05
690.293	-0
690.475	-0.05
690.658	0.06
690.84	-0.03
691.023	0.03
691.205	-0.09
691.388	0.01
691.57	0.06
691.752	0.08
691.935	-0.11
692.117	-0.05
692.3	0.05
692.482	-0.05
692.664	-0
692.847	0.05
693.029	0.07
693.211	0.03
693.393	-0.05
693.576	-0.07
693.758	-0.01
693.94	-0.03
694.122	-0.02
694.304	0
694.487	-0.05
694.669	0.08
694.851	-0.05
695.033	-0
695.215	-0.03
695.397	-0.08
695.579	0.01
695.761	-0.06
695.943	-0.09
696.125	0.09
696.308	-0.02
696.49	-0.06
696.671	0.13
696.853	-0
697.035	0.1
697.217	-0.02
697.399	0.03
697.581	-0.03
697.763	-0.02
697.945	-0.03
698.127	0.01
698.309	0.04
698.491	0.03
698.672	0.01
698.854	0.08
699.036	0.1
699.218	-0.03
699.399	0.07
699.581	0.04
699.763	0.01
699.945	-0.05
700.126	-0.04
700.308	-0
700.49	0.03
700.671	-0.04
700.853	-0.08
701.035	-0.05
701.216	-0.03
701.398	-0.04
701.579	-0.01
701.761	0.04
701.943	0.02
702.124	-0.08
702.306	-0.07
702.487	0.1
702.669	-0.02
702.85	-0.07
703.031	-0.08
703.213	0.09
703.394	0.02
703.576	-0.05
703.757	0.08
703.938	0.05
704.12	0.16
704.301	0.04
704.483	-0.04
704.664	0.03
704.845	0.09
705.026	0
705.208	-0.06
705.389	0.01
705.57	0.04
705.751	-0.02
705.933	-0.05
706.114	0.1
706.295	-0.03
706.476	-0.04
706.657	-0
706.838	0.05
707.02	0.05
707.201	-0.06
707.382	-0.03
707.563	0.05
707.744	-0.07
707.925	-0.07
708.106	-0.03
708.287	-0
708.468	0.09
708.649	0.04
708.83	-0
709.011	0
709.192	-0.02
709.373	-0.09
709.554	-0.03
709.734	0.03
709.915	0.03
710.096	0.04
710.277	-0.12
710.458	0.01
710.639	-0
710.819	-0.07
711	-0.01
711.181	-0.02
711.362	0.01
711.542	0
711.723	-0.01
711.904	0.1
712.085	0
712.265	0.05
712.446	-0.06
712.627	-0.06
712.807	0.04
712.988	-0.01
713.168	-0.05
713.349	-0.01
713.53	-0.17
713.71	-0.09
713.891	-0.06
714.071	-0.06
714.252	0.01
714.432	-0.08
714.613	-0.15
714.793	0.02
714.974	0.02
715.154	0.06
715.334	0.07
715.515	0.05
715.695	-0.06
715.876	-0.02
716.056	-0.05
716.236	-0.03
716.417	-0.04
716.597	-0.05
716.777	0.14
716.957	0.01
717.138	0.01
717.318	-0.01
717.498	-0.13
717.678	0.01
717.859	-0.04
718.039	-0.08
718.219	-0.04
718.399	0.05
718.579	-0.08
718.759	-0.08
718.939	0
719.12	-0.02
719.3	-0.01
719.48	-0.09
719.66	-0.17
719.84	0.18
720.02	-0.07
720.2	-0.06
720.38	0.02
720.56	0.11
720.74	-0.06
720.92	-0.06
721.1	0.12
721.279	0.04
721.459	-0.01
721.639	-0.1
721.819	-0.03
721.999	-0.06
722.179	0.07
722.359	-0.07
722.538	0.06
722.718	-0.01
722.898	-0.03
723.078	-0.02
723.257	-0.03
723.437	-0.06
723.617	-0.05
723.797	-0.04
723.976	0.01
724.156	0.04
724.336	0.11
724.515	0.1
724.695	-0.14
724.874	-0.03
725.054	0.12
725.234	-0.05
725.413	-0.01
725.593	-0.08
725.772	-0.01
725.952	-0.05
726.131	-0.03
726.311	-0.05
726.49	-0.03
726.67	-0.08
726.849	-0.07
727.028	-0.01
727.208	-0.02
727.387	-0.01
727.567	-0.13
727.746	-0.03
727.925	-0.03
728.105	-0.06
728.284	-0.03
728.463	0
728.643	0.05
728.822	-0.21
729.001	-0.08
729.18	-0.05
729.359	0.03
729.539	0.01
729.718	0.04
729.897	0
730.076	-0.07
730.255	-0.04
730.434	0.07
730.614	-0.01
730.793	0.09
730.972	-0.02
731.151	-0.03
731.33	0.11
731.509	0.05
731.688	0.05
731.867	-0.01
732.046	-0.11
732.225	0.11
732.404	-0.08
732.583	-0.1
732.762	0.03
732.941	0.07
733.12	-0
733.298	0.02
733.477	0.07
733.656	-0.05
733.835	-0.11
734.014	0.02
734.193	-0.05
734.371	0.04
734.55	0.06
734.729	-0.11
734.908	0.04
735.086	-0.01
735.265	0.09
735.444	-0.14
735.623	-0.21
735.801	-0.11
735.98	-0.01
736.159	-0.04
736.337	0.09
736.516	-0.03
736.694	0.04
736.873	-0.05
737.052	0.1
737.23	0.12
737.409	-0.11
737.587	0.09
737.766	-0.14
737.944	-0.03
738.123	-0.07
738.301	-0
738.479	-0.01
738.658	0.08
738.836	-0.19
739.015	-0.03
739.193	-0.04
739.371	-0.18
739.55	-0.04
739.728	-0.14
739.906	0.09
740.085	0.15
740.263	0.05
740.441	-0.16
740.62	0.14
740.798	-0.04
740.976	-0.07
741.154	-0.09
741.332	0.12
741.511	0.02
741.689	0.05
741.867	0.08
742.045	-0.01
742.223	0.01
742.401	-0.19
742.579	-0.06
742.757	0.03
742.935	-0.09
743.114	-0.1
743.292	-0.02
743.47	-0.02
743.648	0.01
743.826	-0.21
744.004	-0.06
744.181	0.07
744.359	0.03
744.537	-0.02
744.715	-0.02
744.893	-0.09
745.071	-0.05
745.249	-0.03
745.427	-0.02
745.605	0.03
745.782	-0.05
745.96	0.09
746.138	0.07
746.316	0.02
746.493	-0.01
746.671	-0.1
746.849	-0.18
747.027	0.06
747.204	-0.16
747.382	0.07
747.56	-0.14
747.737	-0.03
747.915	-0.14
748.093	0.01
748.27	-0.18
748.448	-0.05
748.625	-0.07
748.803	-0.04
748.98	-0.09
749.158	0.12
749.335	0.06
749.513	-0.04
749.69	-0.13
749.868	0.07
750.045	0.05
750.223	-0.05
750.4	-0.2
750.578	0.19
750.755	-0.07
750.932	-0.22
751.11	0.1
751.287	-0.12
751.464	0.02
751.642	-0.15
751.819	-0.07
751.996	0.06
752.173	-0.03
752.351	-0.12
752.528	-0.04
752.705	0.04
752.882	-0.01
753.06	0.01
753.237	0.12
753.414	0.12
753.591	0.28
753.768	0.02
753.945	-0.12
754.122	-0.04
754.299	0.1
754.476	-0.09
754.654	-0.02
754.831	0.03
755.008	0.02
755.185	0
755.362	-0.11
755.539	0.05
755.716	-0.07
755.892	-0.1
756.069	-0.11
756.246	-0.08
756.423	-0.06
756.6	0.12
756.777	-0.09
756.954	0.12
757.131	-0.07
757.307	-0.16
757.484	-0.1
757.661	0.05
757.838	0.06
758.015	-0.22
758.191	-0.05
758.368	0.03
758.545	-0.01
758.721	0.06
758.898	-0.14
759.075	-0.01
759.251	-0.05
759.428	0.17
759.605	-0.11
759.781	0.12
759.958	0.1
760.134	0.01
760.311	-0.11
760.488	0.22
760.664	0.15
760.841	-0.04
761.017	-0.05
761.194	0.16
761.37	-0.04
761.547	0.02
761.723	-0.04
761.899	-0.01
762.076	-0.01
762.252	-0.1
762.429	-0.03
762.605	0.18
762.781	-0.03
762.958	0.12
763.134	-0.1
763.31	0
763.486	0.14
763.663	-0.13
763.839	0.01
764.015	-0.1
764.191	-0.06
764.368	-0.06
764.544	-0
764.72	0.1
764.896	0.14
765.072	0.02
765.248	-0.15
765.425	-0.06
765.601	-0.01
765.777	0.08
765.953	-0.17
766.129	-0.04
766.305	-0.14
766.481	0.12
766.657	-0.05
766.833	0.19
767.009	-0.17
767.185	-0.15
767.361	0.02
767.537	-0.25
767.713	-0.01
767.889	-0.04
768.065	0.04
768.24	0.04
768.416	0.11
768.592	-0.04
768.768	0.1
768.944	0.05
769.12	-0.1
769.295	-0.04
769.471	-0.05
769.647	0
769.823	0.18
769.998	-0.1
770.174	-0.15
770.35	0.28
770.525	0.15
770.701	-0.04
770.877	-0.04
771.052	-0.21
771.228	0.03
771.403	0.03
771.579	0.03
771.755	0.18
771.93	-0.03
772.106	-0.14
772.281	-0.27
772.457	0.08
772.632	-0.01
772.808	-0.26
772.983	-0.03
773.159	-0.18
773.334	0.13
773.509	0.08
773.685	-0.08
773.86	0.27
774.036	0.1
774.211	-0.02
774.386	-0.24
774.562	0.06
774.737	0.15
774.912	-0.2
775.087	0
775.263	0.07
775.438	-0.08
775.613	-0.09
775.788	-0.02
775.964	0.18
776.139	0.3
776.314	-0.2
776.489	-0.05
776.664	0.03
776.839	-0.15
777.014	0.16
777.19	0.2
777.365	0.2
777.54	0.13
777.715	-0.22
777.89	0.04
778.065	-0.12
778.24	0.13
778.415	0.12
778.59	-0.3
778.765	-0.09
778.94	0.2
779.115	-0.03
779.289	-0.07
779.464	0.05
779.639	-0.12
779.814	-0.31
779.989	-0.11
780.164	0.3
780.339	0.07
780.513	-0.13
780.688	-0.2
780.863	0.05
781.038	0.12
781.212	-0.16
781.387	0.04
781.562	0.2
781.737	-0.02
781.911	0.17
782.086	-0.24
782.261	0
782.435	0.47
782.61	-0.17
782.784	0.11
782.959	0.18
783.134	-0.09
783.308	-0.14
783.483	-0.03
783.657	0.41
783.832	-0.1
784.006	-0.34
784.181	-0.24
784.355	0.15
784.53	-0.27
784.704	-0.19
784.878	0.19
785.053	0.13
785.227	0.31
785.402	0.23
785.576	-0.4
785.75	0.08
785.925	-0.07
786.099	-0.01
786.273	0.01
786.448	0.18
786.622	0.23
786.796	-0.1
786.97	-0.05
787.145	0.54
787.319	-0.2
787.493	-0.09
787.667	-0.44
787.841	-0.05
788.015	0.31
788.19	-0.24
788.364	0.14
788.538	0.04
788.712	0.23
788.886	-0.13
789.06	0.15
789.234	0.04
789.408	-0.2
789.582	-0.25
789.756	-0
789.93	-0.3
790.104	-0.2
790.278	-0.18
790.452	-0.08
790.626	0.16
790.8	0.02
790.973	0.13
791.147	0.28
791.321	0.31
791.495	-0.02
791.669	0.19
791.843	0.29
792.016	-0.08
792.19	0.45
792.364	-0.19
792.538	0.58
792.711	0.17
792.885	-0.13
793.059	-0.25
793.233	-0.6
793.406	0.32
793.58	0.11
793.754	0.09
793.927	-0.06
794.101	0.03
794.274	-0.04
794.448	0.34
794.622	-0.19
794.795	0.47
794.969	-0.25
795.142	0.14
795.316	0.01
795.489	-0.13
795.663	0.2
795.836	-0.03
796.009	-0.11
796.183	0.39
796.356	-0.12
796.53	-0.05
796.703	-0.22
796.876	0.51
797.05	-0.14
797.223	-0.24
797.396	-0.03
797.57	0.18
797.743	0.12
797.916	-0.13
798.09	0.01
798.263	0.38
798.436	0.16
798.609	-0.11
798.782	-0.27
798.956	-0.13
799.129	-0.08
799.302	-0.16
799.475	-0.48
799.648	-0.26
799.821	-0.18
799.994	0.1
800.167	-0.31
800.34	0.01
800.514	0.29
800.687	-0.18
800.86	-0.23
801.033	-0.15
801.206	-0
801.379	-0.3
801.551	0.36
801.724	0.12
801.897	0.18
802.07	-0.06
802.243	-0.6
802.416	-0.13
802.589	-0.37
802.762	-0.01
802.935	-0.05
803.107	0.1
803.28	-0.07
803.453	0.37
803.626	-0.41
803.798	-0.15
803.971	-0.2
804.144	0.11
804.317	0.43
804.489	0.36
804.662	0.03
804.835	0.03
805.007	-0.26
805.18	0.52
805.353	0.18
805.525	-0.05
805.698	-0.3
805.87	-0.22
806.043	0.18
806.215	-0.31
806.388	-0.21
806.56	0.24
806.733	0.12
806.905	0.33
807.078	-0.24
807.25	-0.13
807.423	0.05
807.595	-0.3
807.768	-0.03
807.94	0
808.112	-0.11
808.285	-0.29
808.457	-0.3
808.629	-0.01
808.802	0.09
808.974	-0.11
809.146	-0.24
809.318	-0.37
809.491	0.21
809.663	0.26
809.835	-0.19
810.007	0.12
810.18	0.16
810.352	-0.45
810.524	-0.55
810.696	0.1
810.868	0.42
811.04	-0.11
811.212	-0.33
811.384	0.4
811.556	0.12
811.728	-0.11
811.901	0.28
812.073	-0.26
812.245	0.38
812.417	0.16
812.589	-0.45
812.76	-0.04
812.932	0.49
813.104	0.27
813.276	-0.48
813.448	0.18
813.62	0.08
813.792	0.19
813.964	0.23
814.136	-0.24
814.307	-0.2
814.479	-0.08
814.651	-0.4
814.823	1.06
814.995	-0.26
815.166	0.21
815.338	-0.28
815.51	-0.79
815.681	0.66
815.853	-0.21
816.025	-0.2
816.196	0.33
816.368	0.14
816.54	-0.94
816.711	-0.4
816.883	-0.17
817.054	0.76
817.226	-0.73
817.398	-0.1
817.569	-0.78
817.741	0.03
817.912	0.02
818.084	-0.39
818.255	0.21
818.426	-0.01
818.598	-0.16
818.769	-0.48
818.941	0.13
819.112	0.53
819.283	0.32
819.455	-0.6
819.626	0.13
819.798	0.37
819.969	0.35
820.14	-0.35
820.311	-0.32
820.483	-0.01
820.654	0.25
820.825	-0.22
820.996	-0.25
821.168	-0.43
821.339	-0.07
821.51	-0.53
821.681	-0.19
821.852	-0.39
822.023	-0.53
822.195	-0.45
822.366	0.56
822.537	-0.37
822.708	0.27
822.879	-0.1
823.05	0.38
823.221	0.04
823.392	0.29
823.563	-0.01
823.734	0.02
823.905	-0.24
824.076	-0.12
824.247	-0.48
824.418	-0.27
824.589	0.18
824.759	-0.42
824.93	-0.51
825.101	-0.14
825.272	0.52
825.443	0.59
825.614	0.33
825.784	-0.78
825.955	0.41
826.126	0.3
826.297	0.1
826.467	0.51
826.638	0.95
826.809	-1.16
826.98	0.09
827.15	0.06
827.321	0.38
827.492	0.96
827.662	-0.35
827.833	1.07
828.003	0.52
828.174	-0.2
828.345	-0.22
828.515	0.9
828.686	0.37
828.856	-0.01
829.027	0.08
829.197	-0.08
829.368	0.04
829.538	-0.19
829.709	-0.73
829.879	-0.16
830.049	0.49
830.22	-0.34
830.39	-0.38
830.56	0.61
830.731	0.15
830.901	-0.27
831.072	-0.34
831.242	0.37
831.412	-0.15
831.582	0.09
831.753	-0.93
831.923	0.43
832.093	0.06
832.263	0.28
832.434	-0.29
832.604	-0.07
832.774	0.2
832.944	-0.19
833.114	-0.34
833.284	0.24
833.454	-0.67
833.624	-0.54
833.795	-0.16
833.965	0.89
834.135	0.86
834.305	-1.42
834.475	-0.62
834.645	0.39
834.815	-0.23
834.985	-0.92
835.155	-0.7
835.325	-0.17
835.494	-0.17
835.664	-0.82
835.834	-0.23
836.004	-0.09
836.174	0.16
836.344	0.47
836.514	-0.72
836.684	-0.17
836.853	0.54
837.023	0.52
837.193	-0.52
837.363	0.54
837.532	0.63
837.702	-0.25
837.872	-0.64
838.041	0.55
838.211	1.43
838.381	-1.2
838.55	0.12
838.72	1.8
838.89	0.8
839.059	-0.1
839.229	-0.87
839.398	0.52
839.568	-0.22
839.738	0.83
839.907	1.13
840.077	0.16
840.246	0.12
840.416	-0.91
840.585	-0.33
840.755	1.04
840.924	0.5
841.093	-0.63
841.263	-0.75
841.432	0.25
841.602	-0.35
841.771	-0.52
841.94	-0
842.11	1.95
842.279	1.25
842.448	-0.37
842.617	-0.26
842.787	1.21
842.956	-0.99
843.125	-0.9
843.294	0.07
843.464	1.1
843.633	0.5
843.802	-1.38
843.971	-0.2
844.14	0.94
844.309	0.55
844.479	-0.74
844.648	-0.62
844.817	-0.77
844.986	-0.22
845.155	-0.54
845.324	-0.28
845.493	-0.54
845.662	-0.93
845.831	0.1
846	-0.04
846.169	0.05
846.338	1.22
846.507	0.26
846.676	0.23
846.844	-0.2
847.013	0.78
847.182	-0.08
847.351	-0.27
847.52	-0.05
847.689	-0.05
847.858	-0.46
848.026	-0.33
848.195	-0.81
848.364	0.02
848.533	0.24
848.701	-1.36
848.87	-0.42
849.039	0.74
849.207	0.19
849.376	0.64
849.545	1.38
849.713	-0.94
849.882	-0.03
850.051	-0.11
850.219	-0.2
850.388	0.41
850.556	-1.04
850.725	-1.37
850.893	0.51
851.062	0.3
851.23	-0.16
851.399	-0.58
851.567	-0.93
851.736	0.24
851.904	-1.08
852.073	-0.43
852.241	1.08
852.41	-0.69
852.578	-0.39
852.746	-0.7
852.915	1.18
853.083	-0.35
853.251	-0.72
853.42	-0.32
853.588	-0.78
853.756	1.19
853.924	0.87
854.093	-0.09
854.261	-0.32
854.429	-1.29
854.597	-0.64
854.765	-0.25
854.934	0.76
855.102	1.01
855.27	-0.14
855.438	-1.99
855.606	1.17
855.774	1.03
855.942	-2.08
856.11	-1.79
856.278	0.88
856.446	0.28
856.614	-1.01
856.782	0.03
856.95	1.42
857.118	1.14
857.286	0.22
857.454	-0.53
857.622	0.65
857.79	0.85
857.958	-1.6
858.126	-0.19
858.294	-3.34
858.462	-0.95
858.629	-0.77
858.797	-1.38
858.965	0.7
859.133	0.64
859.301	-0.3
859.468	0.83
859.636	-0.19
859.804	2.63
859.971	1.01
860.139	-1.42
860.307	0.27
860.474	-1.11
860.642	-0.41
860.81	-1.46
860.977	-0.8
861.145	1.05
861.313	-0.62
861.48	0.13
861.648	0.86
861.815	-0.37
861.983	-1.69
862.15	0.07
862.318	1.24
862.485	1.33
862.653	-1.54
862.82	-1.43
862.988	1.48
863.155	-0.29
863.322	-1.93
863.49	-1.52
863.657	-0.76
863.824	1.09
863.992	0.41
864.159	0.31
864.326	0.21
864.494	-0.53
864.661	3.05
864.828	-0.72
864.996	0.69
865.163	1.71
865.33	-1.87
865.497	-3.51
865.664	0.06
865.832	-1.31
865.999	-0.29
866.166	-1.56
866.333	-0.19
866.5	-0.22
866.667	0.53
866.834	-0.86
867.001	0.23
867.168	-1.57
867.335	-1.09
867.502	-1.7
867.669	-0.23
867.836	2.35
868.003	0.19
868.17	1.35
868.337	-1.67
868.504	3.42
868.671	-1.72
868.838	-0.34
869.005	-0.36
869.172	0.99
869.339	-0.04
869.505	-1.8
869.672	-0.18
869.839	1.99
870.006	-0.02
870.173	-1.36
870.339	0.97
870.506	2.46
870.673	-0.91
870.84	0.18
871.006	-0.47
871.173	-0.41
871.34	-1.05
871.506	-1.31
871.673	-0.07
871.839	-1.76
872.006	-0.81
872.173	-1.82
872.339	-1.51
872.506	0.19
872.672	-0.01
872.839	-1.97
873.005	0.87
873.172	2.93
873.338	2.56
873.505	-1.15
873.671	0.8
873.838	1.01
874.004	-2.19
874.171	-0.76
874.337	-0.04
874.503	0.15
874.67	-0.39
874.836	-0.92
875.002	1.75
875.169	0.36
875.335	-0.92
875.501	-0.9
875.668	-2.49
875.834	-1.44
876	-0.92
876.166	0.17
876.332	1.91
876.499	2.01
876.665	-1.64
876.831	1.47
876.997	3.05
877.163	1.64
877.329	-1.24
877.495	0.12
877.662	1.66
877.828	0.96
877.994	0.38
878.16	-3.56
878.326	-2.69
878.492	-0.23
878.658	-0.34
878.824	1.59
878.99	0.07
879.156	-3.1
879.322	3.03
879.487	-1.92
879.653	0.91
879.819	-2.36
879.985	-1.37
880.151	-0.42
880.317	0.27
880.483	-0.4
880.648	-0.05
880.814	-2.64
880.98	-0.33
881.146	-2.96
881.312	-1.96
881.477	-0.7
881.643	-0.82
881.809	0.97
881.974	0.16
882.14	-1.02
882.306	-0.14
882.471	1.2
882.637	0.01
882.803	1.7
882.968	2.42
883.134	3.19
883.299	-0.01
883.465	-0.87
883.63	1.45
883.796	0.44
883.961	0.1
884.127	-0.33
884.292	-3.11
884.458	-3.54
884.623	-3.53
