Data from Apollo_Calib_20240827__AbsoluteIrradiance__676__10-25-02-420.txt Node

Date: Wed Aug 28 10:25:02 BST 2024
User: biology
Spectrometer: FLMT08252
Trigger mode: 0
Integration Time (sec): 5.000000E-1
Scans to average: 5
Electric dark correction enabled: true
Nonlinearity correction enabled: false
Boxcar width: 0
XAxis mode: Wavelengths
Number of Pixels in Spectrum: 3648
>>>>>Begin Spectral Data<<<<<
179.588	-0
179.809	-0
180.03	-0
180.251	-0
180.473	-0
180.694	0
180.915	0
181.136	-0
181.357	0
181.578	-0
181.799	-0
182.02	-0
182.241	-0
182.462	0
182.683	0
182.904	-0
183.125	-0
183.346	0
183.567	0
183.788	0
184.009	0
184.23	0
184.451	0
184.672	-0
184.892	-0
185.113	0
185.334	0
185.555	0
185.776	-0
185.996	0
186.217	0
186.438	0
186.659	-0
186.879	0
187.1	0
187.321	-0
187.541	-0
187.762	0
187.983	0
188.203	0
188.424	0
188.644	0
188.865	0
189.086	0
189.306	0
189.527	0
189.747	0
189.968	-0
190.188	0
190.409	0
190.629	0
190.849	0
191.07	0
191.29	0
191.511	0
191.731	0
191.951	0
192.172	0
192.392	0
192.612	0
192.833	0
193.053	0
193.273	0
193.493	0
193.714	0
193.934	0
194.154	0
194.374	0
194.594	0
194.815	0
195.035	0
195.255	0
195.475	-0
195.695	0
195.915	0
196.135	-0
196.355	0
196.575	0
196.795	0
197.015	-0
197.235	-0
197.455	0
197.675	0
197.895	0
198.115	-0
198.335	0
198.555	0
198.775	0
198.995	0
199.214	0
199.434	0
199.654	0
199.874	0
200.094	1.23
200.313	0.91
200.533	-0.03
200.753	-0.42
200.973	0.98
201.192	0.64
201.412	-0.66
201.632	-0.16
201.851	1.61
202.071	-0.31
202.291	0.31
202.51	-0.42
202.73	0.86
202.95	0.1
203.169	-0.22
203.389	0.42
203.608	0.34
203.828	-0.08
204.047	-0.03
204.267	0.66
204.486	0.38
204.706	0.39
204.925	0.31
205.145	-0.1
205.364	0.89
205.583	0.76
205.803	0.1
206.022	-0.24
206.242	0.33
206.461	0.27
206.68	0.25
206.9	0.63
207.119	0.96
207.338	0.77
207.557	0.17
207.777	0.19
207.996	0.26
208.215	0.43
208.434	0.08
208.654	-0.17
208.873	0.01
209.092	0.69
209.311	-0.14
209.53	0.04
209.749	0.18
209.968	0.05
210.187	0.03
210.407	-0.08
210.626	0.18
210.845	0.41
211.064	0.26
211.283	0.23
211.502	0.45
211.721	0.28
211.94	0.14
212.159	0.18
212.377	0.54
212.596	0.48
212.815	0.16
213.034	0.27
213.253	0.47
213.472	0.4
213.691	0.12
213.91	0.08
214.128	0.07
214.347	0.54
214.566	-0.16
214.785	-0.17
215.003	0.25
215.222	0.44
215.441	0.22
215.66	-0.03
215.878	0.12
216.097	0.39
216.316	-0.06
216.534	-0.01
216.753	0.3
216.972	0.08
217.19	0.19
217.409	0.02
217.627	-0.01
217.846	0.09
218.064	0.13
218.283	-0.2
218.501	0.5
218.72	0.4
218.938	0.08
219.157	0.03
219.375	0.22
219.594	0.06
219.812	-0.01
220.031	-0.11
220.249	0.26
220.467	0.43
220.686	0.02
220.904	0.02
221.122	0.14
221.341	0.38
221.559	0.2
221.777	0.04
221.995	0.15
222.214	0.23
222.432	0.04
222.65	0.25
222.868	0.2
223.086	0.22
223.305	0.09
223.523	0.03
223.741	0.25
223.959	0.01
224.177	-0.06
224.395	0.04
224.613	0.19
224.831	0.3
225.049	-0.07
225.267	-0.01
225.485	0.14
225.703	0.01
225.921	0.22
226.139	0.07
226.357	0.25
226.575	0.08
226.793	0.02
227.011	0.57
227.229	0.12
227.447	0.26
227.665	0.03
227.883	-0.04
228.1	0.11
228.318	0.23
228.536	-0.1
228.754	-0
228.972	0.16
229.189	0.1
229.407	0.14
229.625	0.17
229.843	0.29
230.06	0.19
230.278	0.02
230.496	0.01
230.713	0.22
230.931	0.2
231.149	0
231.366	-0.07
231.584	0.18
231.801	0.44
232.019	0
232.236	0
232.454	0.03
232.671	0.14
232.889	0.11
233.106	-0
233.324	0.09
233.541	0.16
233.759	0.07
233.976	0.04
234.194	0.2
234.411	0.13
234.628	-0.06
234.846	0.12
235.063	0.07
235.28	0.06
235.498	0.02
235.715	-0.01
235.932	0.26
236.149	0.08
236.367	-0.03
236.584	0.05
236.801	-0
237.018	0.11
237.236	0.13
237.453	-0.07
237.67	0.21
237.887	0.04
238.104	-0.01
238.321	-0.01
238.538	0.11
238.755	0.22
238.973	-0.12
239.19	0.07
239.407	0.07
239.624	0.12
239.841	-0.1
240.058	-0.07
240.275	0.11
240.492	0.06
240.709	0.13
240.925	0.09
241.142	0.08
241.359	-0.11
241.576	-0.01
241.793	0.11
242.01	0.05
242.227	0.15
242.444	0.09
242.66	0.12
242.877	0.05
243.094	0.06
243.311	0.12
243.527	0.04
243.744	0.12
243.961	0.16
244.178	0.06
244.394	0.12
244.611	0.25
244.828	0.22
245.044	0.09
245.261	0.1
245.477	0.15
245.694	0.09
245.911	0
246.127	0.11
246.344	0.23
246.56	0.1
246.777	0.08
246.993	-0.01
247.21	0.13
247.426	0.23
247.643	0.08
247.859	0.03
248.076	0.1
248.292	0.25
248.508	0.07
248.725	0.03
248.941	0.1
249.157	0.22
249.374	0.03
249.59	0.12
249.806	0.08
250.023	0.12
250.239	0.05
250.455	0.07
250.671	0.07
250.888	0.07
251.104	0.07
251.32	0.03
251.536	0.08
251.752	0.03
251.969	0.07
252.185	0.04
252.401	0.2
252.617	0.02
252.833	0.03
253.049	0.01
253.265	0.11
253.481	0.12
253.697	0.04
253.913	0.01
254.129	0.04
254.345	0.1
254.561	0.05
254.777	0.04
254.993	0.15
255.209	0.07
255.425	0.04
255.641	-0.02
255.857	0.13
256.073	0.13
256.288	-0.08
256.504	-0
256.72	0.12
256.936	0.15
257.152	0.03
257.367	0.04
257.583	0.05
257.799	0.2
258.015	-0.05
258.23	0.04
258.446	0.2
258.662	0.06
258.877	0
259.093	0.01
259.309	0.13
259.524	0.1
259.74	0.01
259.955	-0.09
260.171	0.09
260.387	0.01
260.602	0.17
260.818	0.12
261.033	-0.01
261.249	-0.01
261.464	0.02
261.68	-0.07
261.895	0.13
262.11	0.12
262.326	0.08
262.541	-0.06
262.757	0.13
262.972	0.12
263.187	0
263.403	0.04
263.618	0.15
263.833	0.03
264.049	0.03
264.264	0.04
264.479	0.15
264.694	0.2
264.91	0.01
265.125	0.07
265.34	0.11
265.555	0.18
265.77	0.12
265.986	0.05
266.201	0.06
266.416	0.16
266.631	0.03
266.846	0.09
267.061	0.08
267.276	0.11
267.491	-0.09
267.706	0.04
267.921	0.08
268.136	0.07
268.351	0.03
268.566	-0.01
268.781	0.15
268.996	0.1
269.211	0.09
269.426	-0.03
269.641	-0
269.856	0.02
270.071	-0.01
270.285	-0.03
270.5	0.12
270.715	0.09
270.93	0.07
271.145	0.04
271.359	0.09
271.574	0.04
271.789	0.06
272.004	-0.02
272.218	0.05
272.433	0.12
272.648	-0.03
272.862	0.1
273.077	0.02
273.292	0.07
273.506	-0.02
273.721	0.04
273.936	0.06
274.15	0.1
274.365	0.03
274.579	0.09
274.794	0.08
275.008	0.07
275.223	-0.02
275.437	0.03
275.652	0.13
275.866	0.06
276.081	0.1
276.295	0.14
276.509	0.07
276.724	0.04
276.938	0.03
277.153	0.05
277.367	0.13
277.581	-0.02
277.796	0.04
278.01	-0.03
278.224	0.1
278.438	0.17
278.653	-0.02
278.867	-0.01
279.081	0.09
279.295	0.04
279.51	0.07
279.724	-0.04
279.938	0.07
280.152	0.06
280.366	0.01
280.58	0.05
280.794	0.12
281.008	0.08
281.222	0.14
281.437	0.17
281.651	0.05
281.865	0.07
282.079	0.04
282.293	-0.06
282.507	-0.02
282.721	0.06
282.935	0.02
283.148	-0.05
283.362	0.02
283.576	-0
283.79	0.07
284.004	-0.04
284.218	0.08
284.432	-0.06
284.646	0.04
284.859	0.01
285.073	0.03
285.287	0.05
285.501	0.02
285.714	0.01
285.928	0.07
286.142	0.08
286.356	0.03
286.569	0.05
286.783	0.16
286.997	0.05
287.21	0.07
287.424	0.08
287.637	0.02
287.851	0.05
288.065	0.09
288.278	0.03
288.492	0.06
288.705	0.02
288.919	0.07
289.132	-0
289.346	0.09
289.559	-0
289.773	0.03
289.986	0.01
290.2	0.04
290.413	0.11
290.626	-0.01
290.84	0.05
291.053	0.02
291.267	0.14
291.48	0.09
291.693	0.04
291.906	0.01
292.12	-0.03
292.333	-0.01
292.546	0.01
292.76	0.15
292.973	0.09
293.186	0.09
293.399	0.01
293.612	0.08
293.826	0.07
294.039	0.03
294.252	0.03
294.465	0.06
294.678	0.08
294.891	0.03
295.104	0.02
295.317	0.06
295.53	0.03
295.743	0.04
295.956	0.03
296.169	0.12
296.382	0.09
296.595	0.03
296.808	-0.01
297.021	0.1
297.234	0.05
297.447	0.04
297.66	0.04
297.873	0.09
298.086	0.04
298.299	0.02
298.511	-0.03
298.724	0.02
298.937	0
299.15	0.02
299.363	0.06
299.575	0.05
299.788	0.08
300.001	0
300.213	0
300.426	0.09
300.639	-0
300.852	-0.01
301.064	0.05
301.277	0.12
301.489	0.07
301.702	0.06
301.915	0.06
302.127	0
302.34	0.05
302.552	0.09
302.765	0.04
302.977	0.09
303.19	0.04
303.402	-0
303.615	-0.01
303.827	0.01
304.04	0.04
304.252	0.04
304.464	0.05
304.677	0.18
304.889	0.09
305.102	0.02
305.314	0.01
305.526	0.07
305.739	0.03
305.951	-0.02
306.163	0.05
306.375	0.11
306.588	0.05
306.8	-0.01
307.012	-0
307.224	0.07
307.436	0.11
307.649	0
307.861	0.08
308.073	0.05
308.285	-0
308.497	-0.01
308.709	0.01
308.921	0.03
309.133	0.07
309.346	0.03
309.558	0.06
309.77	0.13
309.982	0.11
310.194	0.06
310.406	0.01
310.617	0.1
310.829	0.05
311.041	0.07
311.253	0.01
311.465	0.02
311.677	0.05
311.889	0.04
312.101	0
312.313	0.1
312.524	0.07
312.736	-0.01
312.948	0.01
313.16	0.1
313.372	0.05
313.583	0.02
313.795	0.01
314.007	0.04
314.218	0.06
314.43	0.04
314.642	0.01
314.853	-0.05
315.065	0.05
315.277	0.05
315.488	0.07
315.7	0.08
315.912	0.04
316.123	-0.02
316.335	0.05
316.546	0.13
316.758	0.02
316.969	0.01
317.181	0.01
317.392	0.03
317.604	0.08
317.815	0.01
318.026	0.03
318.238	0.05
318.449	0.08
318.661	-0.02
318.872	0.01
319.083	0.01
319.295	0.08
319.506	0.01
319.717	0.09
319.929	0.11
320.14	0.06
320.351	0.05
320.562	-0
320.774	0.06
320.985	0.03
321.196	0.05
321.407	-0.01
321.618	0.07
321.829	0.01
322.041	0.08
322.252	0.04
322.463	0.06
322.674	0.04
322.885	0.04
323.096	0.04
323.307	0.02
323.518	0.06
323.729	0.01
323.94	0
324.151	0.02
324.362	0.05
324.573	0.03
324.784	-0
324.995	0.08
325.206	0.05
325.417	0.02
325.628	0.01
325.838	0.02
326.049	0.05
326.26	0.09
326.471	0.01
326.682	0.06
326.892	0.06
327.103	-0.05
327.314	-0.02
327.525	0.13
327.735	0.03
327.946	0.03
328.157	0.02
328.368	0.05
328.578	-0.01
328.789	0.06
328.999	0.08
329.21	0.05
329.421	0.05
329.631	0.03
329.842	0.03
330.052	0.06
330.263	0.06
330.473	0.09
330.684	0.03
330.894	0.01
331.105	0.06
331.315	0.03
331.526	-0.04
331.736	0.12
331.947	0.04
332.157	0.02
332.367	-0.02
332.578	0.09
332.788	0.06
332.999	0.05
333.209	0.05
333.419	-0.02
333.629	0.06
333.84	0.04
334.05	0.01
334.26	0.07
334.47	0.03
334.681	0.1
334.891	-0.01
335.101	0.05
335.311	0.09
335.521	0.06
335.732	-0
335.942	0.08
336.152	0.04
336.362	0.06
336.572	0.05
336.782	0.08
336.992	0.04
337.202	0.03
337.412	-0.01
337.622	0.03
337.832	0.03
338.042	0.04
338.252	0.01
338.462	0.04
338.672	0.05
338.882	0.02
339.092	0.01
339.302	0.08
339.511	0.06
339.721	0.01
339.931	-0.02
340.141	0.05
340.351	0.08
340.561	0.07
340.77	0.02
340.98	-0.01
341.19	0.03
341.4	-0.01
341.609	0
341.819	0.04
342.029	-0.02
342.238	0.02
342.448	0.04
342.658	0.05
342.867	0.05
343.077	0.04
343.286	0.01
343.496	0.05
343.706	0.11
343.915	0
344.125	0.07
344.334	0.06
344.544	-0.03
344.753	0.01
344.963	-0
345.172	-0.01
345.381	0.02
345.591	0.01
345.8	0.04
346.01	0.09
346.219	0.05
346.428	-0.12
346.638	0.01
346.847	0.04
347.056	0.09
347.266	-0.01
347.475	0.03
347.684	0.04
347.893	0.05
348.103	0.07
348.312	0.04
348.521	-0.01
348.73	0.03
348.94	0.06
349.149	0.05
349.358	-0.01
349.567	-0
349.776	-0.01
349.985	0.02
350.194	0.06
350.403	0.08
350.612	-0.01
350.821	0.05
351.03	0.03
351.239	-0.01
351.448	0.01
351.657	0.01
351.866	0.11
352.075	0.05
352.284	0.07
352.493	-0.02
352.702	0.11
352.911	0.04
353.12	0.06
353.329	-0.02
353.538	0.05
353.746	0.03
353.955	-0
354.164	0.03
354.373	0.02
354.582	0.08
354.79	0.07
354.999	0.06
355.208	0.02
355.416	0.08
355.625	-0.01
355.834	0.01
356.042	0.08
356.251	0.02
356.46	0.02
356.668	0.07
356.877	0.09
357.085	0.08
357.294	-0.04
357.503	0.03
357.711	0.01
357.92	0.15
358.128	0.06
358.337	0.05
358.545	0.03
358.754	-0.05
358.962	0.06
359.17	0.02
359.379	0.01
359.587	0.05
359.796	0.03
360.004	0.05
360.212	0.07
360.421	0.06
360.629	0.03
360.837	0.04
361.046	0.04
361.254	0.1
361.462	0.03
361.67	0.04
361.879	0.05
362.087	0.11
362.295	0.04
362.503	0.01
362.711	-0.01
362.92	0.01
363.128	-0
363.336	-0.01
363.544	-0.02
363.752	0.02
363.96	0.02
364.168	0.04
364.376	0.03
364.584	0.04
364.792	0.06
365	0.07
365.208	0.05
365.416	0.04
365.624	0.06
365.832	0
366.04	0.07
366.248	0.05
366.456	0.05
366.664	0.05
366.872	0
367.079	0.05
367.287	0.07
367.495	0.04
367.703	0
367.911	0
368.118	0.02
368.326	-0.03
368.534	-0.01
368.742	0.09
368.949	-0.02
369.157	0.01
369.365	0.06
369.572	0.04
369.78	-0.02
369.988	0.1
370.195	0.07
370.403	0.06
370.61	0.03
370.818	0.05
371.026	0.08
371.233	0.02
371.441	0.03
371.648	-0.01
371.856	0.04
372.063	-0
372.271	0.02
372.478	-0
372.685	0
372.893	0.06
373.1	0.05
373.308	0.04
373.515	0.11
373.722	0.09
373.93	0.05
374.137	0.04
374.344	0.08
374.552	0.09
374.759	0.02
374.966	0.05
375.173	-0.01
375.381	0.05
375.588	0.03
375.795	-0.03
376.002	-0
376.209	-0.02
376.417	0.04
376.624	0
376.831	0.07
377.038	0
377.245	-0.06
377.452	0.01
377.659	0.04
377.866	-0
378.073	-0.02
378.28	0.04
378.487	0.06
378.694	0.02
378.901	-0
379.108	0.01
379.315	0.05
379.522	0.08
379.729	0.04
379.936	-0.01
380.143	0.02
380.35	0.02
380.557	-0
380.763	-0.01
380.97	0.05
381.177	0.07
381.384	0.01
381.591	0.02
381.797	0.03
382.004	0.01
382.211	0.08
382.418	-0.04
382.624	0.05
382.831	0.05
383.038	0.03
383.244	0.03
383.451	-0.01
383.658	0.02
383.864	0.02
384.071	-0.01
384.277	0.1
384.484	-0.03
384.69	0.04
384.897	0.06
385.103	-0.01
385.31	-0.02
385.516	-0
385.723	0.01
385.929	0.03
386.136	0.01
386.342	0.06
386.549	0.01
386.755	0.09
386.961	0.07
387.168	-0.01
387.374	0.07
387.58	0.07
387.787	0.05
387.993	0.03
388.199	0.02
388.406	0.01
388.612	0.01
388.818	-0.01
389.024	0.01
389.231	0.02
389.437	0.13
389.643	0.07
389.849	0.04
390.055	0.01
390.261	0.02
390.467	0.06
390.674	-0.01
390.88	0.03
391.086	0.06
391.292	-0.03
391.498	0.08
391.704	0.05
391.91	0.01
392.116	0
392.322	-0.04
392.528	0.05
392.734	0.03
392.94	-0.02
393.146	0.02
393.352	0.03
393.557	0.05
393.763	0.02
393.969	0.06
394.175	0.01
394.381	0.04
394.587	0.01
394.792	-0.02
394.998	0.06
395.204	0.08
395.41	-0.04
395.615	0.05
395.821	0.05
396.027	0.06
396.233	-0.05
396.438	0.08
396.644	0.07
396.85	0.03
397.055	0
397.261	0.02
397.466	0.01
397.672	0.04
397.878	0.06
398.083	0.04
398.289	0
398.494	0.07
398.7	0.04
398.905	-0.03
399.111	0.06
399.316	0.02
399.522	0.02
399.727	0.03
399.932	0.02
400.138	0.02
400.343	0.05
400.549	0.05
400.754	0.04
400.959	0.02
401.165	0.04
401.37	0.04
401.575	0.12
401.78	0.03
401.986	-0.01
402.191	0.04
402.396	0.04
402.601	0.07
402.807	-0.02
403.012	0.02
403.217	0.08
403.422	0.05
403.627	0.04
403.832	0.02
404.037	0.04
404.243	0.07
404.448	0.05
404.653	-0.01
404.858	0.03
405.063	0.06
405.268	-0.02
405.473	-0.01
405.678	-0.02
405.883	0.15
406.088	0.03
406.293	0.01
406.498	-0.03
406.703	0.07
406.907	0.03
407.112	-0
407.317	0.04
407.522	0.05
407.727	0.03
407.932	0.01
408.136	0.09
408.341	0.01
408.546	0.07
408.751	0.01
408.956	0.03
409.16	0.05
409.365	-0.01
409.57	-0.01
409.774	0.01
409.979	0.06
410.184	0.04
410.388	0
410.593	0.09
410.798	0.02
411.002	0.01
411.207	0.02
411.411	0.08
411.616	0.03
411.82	-0
412.025	0.01
412.229	0.02
412.434	0.07
412.638	0.02
412.843	0.04
413.047	0.03
413.252	-0.02
413.456	0.01
413.66	0.07
413.865	-0.02
414.069	0.1
414.273	-0
414.478	-0.01
414.682	-0.02
414.886	0.01
415.091	-0.02
415.295	-0.04
415.499	0.06
415.703	-0.03
415.908	0.03
416.112	-0.04
416.316	0.02
416.52	-0.02
416.724	-0.04
416.929	0.03
417.133	0.11
417.337	0.02
417.541	0.04
417.745	0.03
417.949	0.07
418.153	0.02
418.357	-0.03
418.561	0.07
418.765	0.03
418.969	0.13
419.173	0.06
419.377	-0.01
419.581	0.09
419.785	-0.01
419.989	-0.04
420.193	-0.01
420.397	-0.02
420.601	0.08
420.804	0.1
421.008	0.02
421.212	0.02
421.416	0.03
421.62	-0.02
421.823	-0.03
422.027	0.11
422.231	0.04
422.435	-0.01
422.638	0.03
422.842	0.01
423.046	-0.01
423.249	0.06
423.453	0.06
423.657	0.01
423.86	-0.03
424.064	0.01
424.268	0.12
424.471	0.01
424.675	0.14
424.878	0.12
425.082	0.02
425.285	0.07
425.489	0.02
425.692	0.03
425.896	-0.02
426.099	0.04
426.303	-0.01
426.506	-0.02
426.71	0.04
426.913	0.04
427.116	0.08
427.32	0.01
427.523	0.02
427.726	0.1
427.93	-0.02
428.133	0.05
428.336	-0.01
428.54	-0.04
428.743	0.08
428.946	0.07
429.149	-0.02
429.353	-0.01
429.556	0.04
429.759	0.03
429.962	-0.02
430.165	0.05
430.368	0.03
430.571	-0.02
430.775	0.04
430.978	0.05
431.181	0.03
431.384	0.05
431.587	0.04
431.79	-0.02
431.993	-0.05
432.196	0.03
432.399	-0
432.602	0.1
432.805	-0.02
433.008	0.02
433.211	-0.02
433.414	0.1
433.616	0.06
433.819	0.01
434.022	-0.06
434.225	0.1
434.428	0.05
434.631	0.12
434.833	-0.01
435.036	0.01
435.239	0.09
435.442	0.06
435.645	-0.03
435.847	0
436.05	0.07
436.253	0.03
436.455	-0.01
436.658	0.02
436.861	0.09
437.063	0.02
437.266	-0
437.468	0
437.671	0.14
437.874	-0.01
438.076	-0.04
438.279	-0.07
438.481	0.04
438.684	-0.02
438.886	-0
439.089	-0.08
439.291	-0.02
439.494	0.05
439.696	-0.01
439.899	0.01
440.101	0.06
440.303	-0.01
440.506	0.06
440.708	0.02
440.91	0.02
441.113	-0.01
441.315	0.08
441.517	-0.05
441.72	0.05
441.922	0.01
442.124	-0.05
442.326	0.04
442.529	0.11
442.731	-0.01
442.933	0.14
443.135	-0.01
443.337	0.01
443.539	0
443.742	0.01
443.944	0.02
444.146	-0.04
444.348	0.02
444.55	-0.05
444.752	0.04
444.954	-0.04
445.156	0.06
445.358	-0.03
445.56	0.07
445.762	0.05
445.964	-0
446.166	-0.01
446.368	0.03
446.57	0.06
446.772	0.01
446.974	0.03
447.175	0
447.377	-0.03
447.579	-0.03
447.781	-0.06
447.983	0.13
448.184	0.02
448.386	-0.01
448.588	-0.06
448.79	0.01
448.991	0
449.193	0.01
449.395	-0.02
449.597	0.08
449.798	0
450	0.07
450.202	0.02
450.403	-0
450.605	0.03
450.806	0.04
451.008	-0.06
451.21	0.03
451.411	0.03
451.613	0.01
451.814	-0.01
452.016	0.07
452.217	0.01
452.419	0.05
452.62	-0.01
452.821	0.09
453.023	0.08
453.224	0.06
453.426	0.04
453.627	0.03
453.828	0.05
454.03	0.03
454.231	0.03
454.432	-0.01
454.634	0.11
454.835	-0.06
455.036	-0.03
455.238	0.07
455.439	0.1
455.64	0.01
455.841	-0.01
456.042	0.05
456.244	0.04
456.445	0.01
456.646	0
456.847	-0.04
457.048	0.03
457.249	0.11
457.45	0.22
457.651	-0.01
457.852	0.09
458.054	0.03
458.255	0.02
458.456	0.08
458.657	0.07
458.858	-0.04
459.058	0.05
459.259	0.1
459.46	0.04
459.661	-0.05
459.862	0.15
460.063	0
460.264	0.07
460.465	-0.05
460.666	0.12
460.866	0.02
461.067	0.03
461.268	-0.01
461.469	0
461.67	-0.01
461.87	0.05
462.071	-0.03
462.272	-0.02
462.473	0.05
462.673	0.05
462.874	-0.06
463.075	0.04
463.275	0.02
463.476	-0.01
463.676	0.01
463.877	0.02
464.078	0.03
464.278	0.04
464.479	-0.04
464.679	0.01
464.88	-0.03
465.08	0.06
465.281	-0.05
465.481	-0.01
465.682	0.01
465.882	0.06
466.083	0.03
466.283	-0.03
466.483	0.03
466.684	-0.02
466.884	-0.03
467.085	0
467.285	0.07
467.485	-0.02
467.686	0.02
467.886	-0.04
468.086	0.01
468.286	0.05
468.487	0.02
468.687	-0.05
468.887	0.02
469.087	0.06
469.287	0.03
469.488	-0.01
469.688	0.04
469.888	0.04
470.088	0.09
470.288	0.05
470.488	0.09
470.688	-0.03
470.888	0.01
471.088	0.02
471.288	0.02
471.488	0.03
471.688	0.05
471.888	-0.01
472.088	0.05
472.288	0.08
472.488	-0.02
472.688	-0.01
472.888	0.02
473.088	-0.01
473.288	-0.01
473.488	0.03
473.688	0.05
473.887	0.04
474.087	-0
474.287	0.04
474.487	-0.06
474.687	0.03
474.886	0.02
475.086	0.01
475.286	0.02
475.486	0.02
475.685	0.03
475.885	0.01
476.085	-0.02
476.284	0.05
476.484	-0.03
476.684	0.04
476.883	0.08
477.083	0.02
477.282	-0.01
477.482	0.05
477.681	0.06
477.881	0.04
478.08	-0.02
478.28	0.03
478.479	0.02
478.679	0.09
478.878	0.01
479.078	-0.01
479.277	0.01
479.477	0.01
479.676	0.06
479.875	0.01
480.075	-0.05
480.274	0.03
480.473	0.05
480.673	-0.03
480.872	0.06
481.071	0.02
481.271	0.02
481.47	-0.02
481.669	0.01
481.868	-0.01
482.067	-0.02
482.267	-0
482.466	-0.01
482.665	-0.02
482.864	-0.01
483.063	-0.01
483.262	-0
483.461	0.06
483.661	0.04
483.86	0
484.059	0.01
484.258	0.03
484.457	-0.01
484.656	0.02
484.855	0.06
485.054	-0.03
485.253	-0.02
485.452	-0.02
485.651	0.03
485.849	0.01
486.048	-0.01
486.247	-0.01
486.446	0.02
486.645	-0.02
486.844	-0
487.043	0
487.241	0.04
487.44	-0.04
487.639	-0
487.838	0.03
488.037	0.02
488.235	0.05
488.434	0
488.633	0.01
488.831	0
489.03	0.06
489.229	0.02
489.427	-0.01
489.626	0.06
489.825	0.07
490.023	0
490.222	-0.01
490.42	0.03
490.619	0.05
490.817	0.04
491.016	-0
491.214	0.02
491.413	0.02
491.611	0
491.81	0.01
492.008	0.03
492.207	0.02
492.405	0.02
492.604	-0.01
492.802	0.02
493	0.01
493.199	0.01
493.397	0
493.595	0.03
493.794	-0.01
493.992	0.07
494.19	0.03
494.388	0.03
494.587	-0.03
494.785	0.04
494.983	-0.01
495.181	0.01
495.379	0.01
495.578	0.01
495.776	0.03
495.974	0.01
496.172	0
496.37	0
496.568	-0.02
496.766	-0.01
496.964	0.03
497.162	0
497.36	-0.02
497.558	0.04
497.756	0.03
497.954	0.01
498.152	-0.02
498.35	0.04
498.548	-0
498.746	0.02
498.944	-0.01
499.142	-0.01
499.34	-0.02
499.538	0.02
499.736	-0.03
499.933	0.07
500.131	0.05
500.329	0.03
500.527	0.03
500.725	0.05
500.922	0.03
501.12	0.03
501.318	0.01
501.516	-0.02
501.713	0.03
501.911	-0.02
502.109	-0.01
502.306	0.01
502.504	0.01
502.701	-0.02
502.899	0.02
503.097	0.03
503.294	0.02
503.492	0.01
503.689	0.01
503.887	0.03
504.084	0.05
504.282	0
504.479	-0.04
504.677	0.02
504.874	-0.02
505.072	0.01
505.269	0.02
505.466	0.03
505.664	0.03
505.861	-0.02
506.059	-0.03
506.256	0.02
506.453	-0.01
506.651	0.05
506.848	0.03
507.045	0.02
507.242	-0.02
507.44	0
507.637	0.02
507.834	0.02
508.031	0.04
508.229	0
508.426	-0
508.623	0.03
508.82	-0.01
509.017	-0.01
509.214	-0.01
509.411	-0.01
509.608	-0.01
509.805	0.02
510.003	-0.02
510.2	0.02
510.397	0.02
510.594	-0.01
510.791	0
510.988	-0.01
511.184	0.02
511.381	0.02
511.578	-0.01
511.775	0.03
511.972	0.01
512.169	0
512.366	0.04
512.563	0.05
512.76	-0
512.956	0.01
513.153	0.01
513.35	0.02
513.547	-0.02
513.744	-0.02
513.94	-0.02
514.137	0.02
514.334	0
514.53	0.02
514.727	0
514.924	0.05
515.12	-0
515.317	-0.02
515.514	0.02
515.71	-0.02
515.907	0.02
516.103	0.03
516.3	0.02
516.497	0.01
516.693	0.05
516.89	-0
517.086	-0
517.283	0.04
517.479	0.01
517.676	0
517.872	0.01
518.068	0
518.265	-0
518.461	-0.01
518.658	0
518.854	0.02
519.05	0.01
519.247	-0.02
519.443	0.03
519.639	0.01
519.836	-0
520.032	0.02
520.228	0.02
520.424	0.05
520.621	0.01
520.817	-0.01
521.013	0.02
521.209	0.03
521.405	0.04
521.601	0.01
521.798	0.01
521.994	0.04
522.19	-0.02
522.386	-0.02
522.582	-0.01
522.778	0.01
522.974	0.01
523.17	0.01
523.366	-0
523.562	0.04
523.758	0.02
523.954	-0.01
524.15	-0.01
524.346	0.04
524.542	0
524.738	-0.01
524.934	-0.01
525.129	-0.01
525.325	0
525.521	0.02
525.717	0.04
525.913	0.02
526.109	0.02
526.304	0.02
526.5	0.02
526.696	0.02
526.892	0.02
527.087	0
527.283	-0.01
527.479	0.01
527.674	-0.02
527.87	0
528.066	-0.02
528.261	0.03
528.457	0.01
528.653	0.01
528.848	-0.02
529.044	-0
529.239	-0.01
529.435	0.02
529.63	0
529.826	0.05
530.021	0.01
530.217	0.04
530.412	0
530.608	-0.01
530.803	-0
530.999	0.02
531.194	-0.04
531.389	0.02
531.585	-0.03
531.78	0.01
531.975	0.02
532.171	0.02
532.366	-0.01
532.561	0.01
532.757	-0.02
532.952	0.02
533.147	0.01
533.342	0.01
533.538	-0.01
533.733	0.04
533.928	0
534.123	0.01
534.318	-0.04
534.513	-0.01
534.709	-0.01
534.904	-0.02
535.099	0
535.294	0.02
535.489	-0
535.684	-0.02
535.879	0
536.074	0
536.269	-0.01
536.464	0.01
536.659	0
536.854	0.01
537.049	0.04
537.244	0.01
537.439	0.01
537.634	0.03
537.828	0.02
538.023	-0.01
538.218	-0.03
538.413	0.02
538.608	-0.03
538.803	0.02
538.997	-0
539.192	0.02
539.387	0
539.582	0
539.776	0.03
539.971	-0.01
540.166	0.01
540.36	-0.03
540.555	0.02
540.75	-0.01
540.944	0.03
541.139	-0.02
541.334	-0.01
541.528	0.03
541.723	0.02
541.917	0
542.112	-0.05
542.306	-0
542.501	0
542.695	0.02
542.89	-0.03
543.084	0.01
543.279	0.01
543.473	0.02
543.668	0
543.862	0.01
544.056	0.02
544.251	0.03
544.445	0.01
544.64	0.01
544.834	0.02
545.028	0.01
545.222	0.02
545.417	-0
545.611	0.01
545.805	0.02
546	-0
546.194	-0
546.388	-0
546.582	0.03
546.776	0
546.97	-0.01
547.165	0.02
547.359	0.03
547.553	-0.03
547.747	-0
547.941	0.01
548.135	-0
548.329	0.02
548.523	-0.01
548.717	-0.01
548.911	-0.02
549.105	0.02
549.299	0
549.493	0.02
549.687	0.03
549.881	0.04
550.075	0.01
550.269	-0.02
550.463	0.04
550.657	-0
550.85	0
551.044	-0.03
551.238	0
551.432	-0.02
551.626	-0.01
551.82	0.01
552.013	-0.01
552.207	-0.01
552.401	0.03
552.594	0.02
552.788	0.01
552.982	-0
553.176	-0.01
553.369	0.02
553.563	-0.01
553.756	-0.02
553.95	-0
554.144	0.03
554.337	0.04
554.531	0
554.724	0.03
554.918	-0.02
555.111	0.04
555.305	0
555.498	0.05
555.692	0.02
555.885	-0.01
556.079	0.01
556.272	-0.01
556.466	0.04
556.659	0.01
556.852	-0
557.046	0
557.239	0.03
557.432	-0.01
557.626	-0.01
557.819	0
558.012	0.02
558.206	0.02
558.399	0.01
558.592	0.03
558.785	-0.02
558.979	0.02
559.172	0
559.365	0.02
559.558	0.02
559.751	0.02
559.944	-0.01
560.138	0.02
560.331	-0.01
560.524	0.01
560.717	-0
560.91	0.01
561.103	-0.01
561.296	0.01
561.489	0.02
561.682	0.01
561.875	0.03
562.068	0.01
562.261	-0
562.454	0.05
562.647	0.02
562.84	0.04
563.032	0
563.225	0.02
563.418	-0
563.611	0
563.804	0.01
563.997	-0
564.19	-0.03
564.382	-0.05
564.575	-0.01
564.768	0.01
564.961	0
565.153	-0.03
565.346	0.05
565.539	0.04
565.731	0.02
565.924	0.03
566.117	0.02
566.309	0.01
566.502	0
566.695	0.01
566.887	0
567.08	-0.04
567.272	-0.01
567.465	0
567.657	-0.01
567.85	0.01
568.042	0.04
568.235	0.04
568.427	0.01
568.62	0.02
568.812	0
569.005	0.01
569.197	-0.02
569.389	-0.01
569.582	0.01
569.774	0.03
569.966	-0.01
570.159	-0.03
570.351	0.02
570.543	0.01
570.736	-0.01
570.928	0
571.12	0.01
571.312	-0.01
571.505	-0.02
571.697	0.05
571.889	-0
572.081	0.02
572.273	-0.01
572.465	0.04
572.658	0.01
572.85	0
573.042	0
573.234	-0
573.426	0.04
573.618	-0
573.81	0
574.002	0.05
574.194	0.03
574.386	-0.04
574.578	-0.07
574.77	-0.01
574.962	-0.02
575.154	-0.03
575.346	-0.02
575.538	0.03
575.729	-0.01
575.921	-0.02
576.113	0.02
576.305	0.04
576.497	-0.01
576.689	-0.01
576.88	-0.02
577.072	0.04
577.264	-0.01
577.456	0.02
577.647	-0.05
577.839	-0.01
578.031	0.04
578.223	-0.01
578.414	-0.01
578.606	0.02
578.798	0
578.989	-0.02
579.181	0.02
579.372	0
579.564	-0
579.755	0.02
579.947	0.02
580.139	0.02
580.33	-0.03
580.522	0.01
580.713	-0.05
580.905	-0.01
581.096	0.04
581.287	-0.01
581.479	-0
581.67	0.02
581.862	-0
582.053	-0
582.244	-0.02
582.436	-0.01
582.627	0
582.818	-0.01
583.01	-0.03
583.201	0.04
583.392	0.04
583.583	0
583.775	-0
583.966	-0
584.157	0.01
584.348	-0.01
584.54	-0.02
584.731	0.02
584.922	0.01
585.113	-0.01
585.304	0.02
585.495	0.04
585.686	0.02
585.877	0.01
586.068	0.02
586.259	0.03
586.45	0.01
586.641	0
586.832	-0.05
587.023	0.04
587.214	-0.01
587.405	0.03
587.596	0.03
587.787	0.06
587.978	0
588.169	-0.03
588.36	-0.03
588.551	0
588.742	-0
588.932	0.03
589.123	0.01
589.314	0.03
589.505	0.02
589.696	0.03
589.886	-0.03
590.077	-0.04
590.268	0.01
590.458	-0.03
590.649	-0.02
590.84	0.04
591.03	-0.02
591.221	-0.02
591.412	-0
591.602	0.03
591.793	0.03
591.984	-0.02
592.174	-0
592.365	0.08
592.555	0.01
592.746	0.02
592.936	0.04
593.127	0.01
593.317	0.06
593.508	-0
593.698	0.02
593.889	0.02
594.079	0
594.269	-0.02
594.46	0.01
594.65	0.02
594.84	-0.02
595.031	0
595.221	-0
595.411	-0.04
595.602	0.04
595.792	0
595.982	-0.02
596.172	0.08
596.363	0.02
596.553	0.03
596.743	-0.01
596.933	0.01
597.123	0.05
597.314	0
597.504	-0
597.694	0.03
597.884	0.03
598.074	0.02
598.264	-0
598.454	0.02
598.644	0.03
598.834	0.03
599.024	-0.05
599.214	-0.02
599.404	0.05
599.594	0.01
599.784	-0.01
599.974	0.05
600.164	0.01
600.354	-0.02
600.544	-0.02
600.734	0.04
600.924	0.04
601.114	-0.01
601.303	-0.01
601.493	0.02
601.683	-0.01
601.873	0.02
602.063	-0.03
602.252	0.02
602.442	-0.06
602.632	-0.02
602.821	-0.02
603.011	0.05
603.201	0
603.39	-0.01
603.58	0
603.77	0.03
603.959	0.03
604.149	-0
604.339	0.02
604.528	0.03
604.718	0.06
604.907	-0.02
605.097	-0.02
605.286	-0.04
605.476	0.01
605.665	0.04
605.855	0
606.044	0.03
606.234	0.01
606.423	-0
606.612	0.01
606.802	0.01
606.991	0.03
607.181	0.01
607.37	-0.05
607.559	0.02
607.749	-0.03
607.938	0.02
608.127	0.02
608.316	-0.01
608.506	0.03
608.695	0.01
608.884	-0.03
609.073	0.03
609.263	0.01
609.452	-0
609.641	0.04
609.83	-0.03
610.019	0.02
610.208	0.01
610.397	-0.02
610.586	0.01
610.775	-0.01
610.965	0
611.154	0
611.343	-0
611.532	0
611.721	-0.01
611.91	-0.02
612.099	0.03
612.287	-0
612.476	-0.04
612.665	-0.01
612.854	0
613.043	0.04
613.232	0
613.421	-0.03
613.61	0.01
613.798	0
613.987	0.03
614.176	0.04
614.365	0.04
614.554	0.02
614.742	0.01
614.931	-0.02
615.12	0.04
615.309	-0
615.497	0.02
615.686	0.01
615.875	-0.01
616.063	0.04
616.252	-0.03
616.44	-0.01
616.629	0.01
616.818	0.05
617.006	-0.01
617.195	-0.01
617.383	0.03
617.572	0.03
617.76	-0
617.949	-0.02
618.137	0.04
618.326	0.03
618.514	-0.01
618.703	-0.01
618.891	0.04
619.079	-0.03
619.268	0.04
619.456	0
619.644	0.06
619.833	-0
620.021	0.01
620.209	-0.02
620.398	0.03
620.586	0.01
620.774	0.04
620.962	0.02
621.151	0.07
621.339	-0.02
621.527	-0
621.715	-0.02
621.903	-0.03
622.092	-0.04
622.28	0.01
622.468	0
622.656	0
622.844	0.02
623.032	-0.01
623.22	-0.02
623.408	0.05
623.596	0.04
623.784	0.04
623.972	-0
624.16	-0.01
624.348	0.09
624.536	0.01
624.724	-0.03
624.912	0.08
625.1	0.07
625.288	-0.01
625.476	0
625.664	0.03
625.851	-0.01
626.039	-0
626.227	0.01
626.415	0.02
626.603	-0.04
626.79	0.01
626.978	-0
627.166	0.06
627.354	0.02
627.541	-0.01
627.729	-0.07
627.917	0.02
628.104	0.04
628.292	0.04
628.48	0.02
628.667	0.03
628.855	0.02
629.042	0.04
629.23	0.03
629.418	0.02
629.605	0.01
629.793	0.01
629.98	-0.01
630.168	0
630.355	-0.02
630.543	0.03
630.73	-0.01
630.917	0.06
631.105	0.07
631.292	-0.02
631.48	-0
631.667	0.07
631.854	0
632.042	-0.02
632.229	-0.04
632.416	0
632.604	0.03
632.791	-0.04
632.978	0.03
633.165	0.01
633.353	0.09
633.54	0.04
633.727	-0.04
633.914	-0.03
634.101	-0.04
634.289	0.05
634.476	-0.03
634.663	-0.02
634.85	0.05
635.037	-0.03
635.224	-0.04
635.411	0.03
635.598	0.08
635.785	0.02
635.972	0.01
636.159	0.01
636.346	-0
636.533	0.01
636.72	0.01
636.907	0.02
637.094	0.01
637.281	0.02
637.468	0.05
637.655	0.02
637.842	0.01
638.029	-0.02
638.215	0.02
638.402	0
638.589	-0.02
638.776	-0.03
638.963	0.02
639.149	0.05
639.336	0.05
639.523	0.01
639.709	0.01
639.896	0.01
640.083	0.05
640.27	0.05
640.456	0.02
640.643	0.01
640.829	-0.02
641.016	0.01
641.203	-0.04
641.389	0.03
641.576	0.04
641.762	0.01
641.949	-0.01
642.135	0.06
642.322	0
642.508	-0.02
642.695	0.05
642.881	0.02
643.068	-0
643.254	-0
643.441	0.02
643.627	0.01
643.813	-0.02
644	0.07
644.186	0.01
644.372	-0.04
644.559	0.06
644.745	0.03
644.931	-0.01
645.118	0.02
645.304	0.01
645.49	-0.02
645.676	-0.02
645.862	0.03
646.049	0.07
646.235	0.03
646.421	0.07
646.607	0.05
646.793	-0.02
646.979	-0.02
647.165	0.01
647.352	0.03
647.538	0.07
647.724	0.04
647.91	0.02
648.096	0.05
648.282	0.04
648.468	0.02
648.654	0.03
648.84	0.06
649.026	0.03
649.212	0.05
649.397	-0.01
649.583	-0.03
649.769	0.03
649.955	0.02
650.141	0.05
650.327	0.06
650.513	0
650.698	0.05
650.884	-0.05
651.07	0.04
651.256	0.03
651.442	0.03
651.627	-0
651.813	0.03
651.999	0.02
652.184	0.05
652.37	0.01
652.556	0.02
652.741	0.06
652.927	-0.06
653.113	-0
653.298	0.03
653.484	0.01
653.669	-0.02
653.855	0
654.04	0.07
654.226	0.02
654.412	0.04
654.597	-0
654.782	0.04
654.968	0.06
655.153	0.04
655.339	0.03
655.524	0
655.71	0.06
655.895	-0.01
656.08	0
656.266	0.06
656.451	0.06
656.636	-0.03
656.822	0.03
657.007	-0.02
657.192	0
657.378	-0.01
657.563	-0.01
657.748	0.05
657.933	0.05
658.118	0.06
658.304	0.01
658.489	0.06
658.674	0.09
658.859	-0
659.044	0.05
659.229	0.03
659.414	0.01
659.599	0.03
659.785	-0
659.97	0.01
660.155	0.08
660.34	0.07
660.525	0.02
660.71	-0.02
660.895	0.04
661.08	0.01
661.264	-0
661.449	0.1
661.634	0.09
661.819	0.05
662.004	0.05
662.189	-0.02
662.374	0.02
662.559	-0.03
662.743	0.01
662.928	0.05
663.113	0.05
663.298	-0.02
663.483	0
663.667	0.09
663.852	0.03
664.037	0.09
664.221	0.05
664.406	0.06
664.591	0.06
664.775	0.07
664.96	0.07
665.145	0.05
665.329	0.1
665.514	0.03
665.698	0.08
665.883	0.02
666.068	0.1
666.252	0.03
666.437	0.01
666.621	0.05
666.806	0.07
666.99	0.07
667.174	-0.01
667.359	0.1
667.543	0.06
667.728	0.06
667.912	-0
668.096	0.08
668.281	0.08
668.465	0.04
668.649	0.03
668.834	0.05
669.018	0.05
669.202	0.05
669.387	0.03
669.571	0.08
669.755	0.03
669.939	0.08
670.124	0.07
670.308	0.14
670.492	0.09
670.676	0.08
670.86	0.08
671.044	0.02
671.228	0.12
671.413	0.02
671.597	0.04
671.781	0.09
671.965	0.07
672.149	0.13
672.333	0.08
672.517	0.09
672.701	0.11
672.885	0.06
673.069	0.04
673.253	0.11
673.437	0.09
673.621	0.06
673.804	0.07
673.988	0.07
674.172	0.12
674.356	0.06
674.54	0.11
674.724	0.19
674.908	0.1
675.091	0.13
675.275	0.1
675.459	0.19
675.643	0.23
675.826	0.12
676.01	0.09
676.194	0.13
676.377	0.11
676.561	0.11
676.745	0.17
676.928	0.12
677.112	0.15
677.296	0.06
677.479	0.15
677.663	0.11
677.846	0.15
678.03	0.14
678.213	0.1
678.397	0.14
678.58	0.15
678.764	0.15
678.947	0.11
679.131	0.14
679.314	0.15
679.498	0.14
679.681	0.15
679.865	0.18
680.048	0.14
680.231	0.15
680.415	0.17
680.598	0.16
680.781	0.14
680.965	0.12
681.148	0.15
681.331	0.19
681.514	0.23
681.698	0.14
681.881	0.23
682.064	0.18
682.247	0.2
682.43	0.11
682.614	0.18
682.797	0.23
682.98	0.2
683.163	0.17
683.346	0.24
683.529	0.2
683.712	0.21
683.895	0.26
684.078	0.14
684.261	0.16
684.444	0.24
684.627	0.22
684.81	0.22
684.993	0.2
685.176	0.27
685.359	0.19
685.542	0.2
685.725	0.32
685.908	0.27
686.091	0.26
686.274	0.36
686.457	0.27
686.639	0.29
686.822	0.31
687.005	0.25
687.188	0.29
687.371	0.4
687.553	0.29
687.736	0.35
687.919	0.37
688.102	0.38
688.284	0.29
688.467	0.35
688.65	0.26
688.832	0.3
689.015	0.34
689.197	0.28
689.38	0.44
689.563	0.4
689.745	0.3
689.928	0.33
690.11	0.31
690.293	0.41
690.475	0.31
690.658	0.37
690.84	0.37
691.023	0.3
691.205	0.34
691.388	0.4
691.57	0.46
691.752	0.4
691.935	0.34
692.117	0.38
692.3	0.42
692.482	0.4
692.664	0.41
692.847	0.44
693.029	0.53
693.211	0.47
693.393	0.44
693.576	0.44
693.758	0.48
693.94	0.43
694.122	0.5
694.304	0.5
694.487	0.5
694.669	0.65
694.851	0.51
695.033	0.55
695.215	0.52
695.397	0.49
695.579	0.59
695.761	0.55
695.943	0.48
696.125	0.62
696.308	0.61
696.49	0.58
696.671	0.76
696.853	0.63
697.035	0.81
697.217	0.61
697.399	0.72
697.581	0.67
697.763	0.7
697.945	0.63
698.127	0.67
698.309	0.74
698.491	0.76
698.672	0.82
698.854	0.78
699.036	0.84
699.218	0.76
699.399	0.86
699.581	0.83
699.763	0.75
699.945	0.76
700.126	0.79
700.308	0.82
700.49	0.77
700.671	0.75
700.853	0.85
701.035	0.87
701.216	0.98
701.398	0.85
701.579	0.97
701.761	1.09
701.943	0.97
702.124	1
702.306	1.02
702.487	1.12
702.669	1.04
702.85	1.03
703.031	0.97
703.213	1.22
703.394	1.16
703.576	1.14
703.757	1.26
703.938	1.26
704.12	1.35
704.301	1.22
704.483	1.21
704.664	1.26
704.845	1.37
705.026	1.3
705.208	1.33
705.389	1.39
705.57	1.39
705.751	1.45
705.933	1.53
706.114	1.5
706.295	1.49
706.476	1.38
706.657	1.6
706.838	1.59
707.02	1.61
707.201	1.49
707.382	1.59
707.563	1.63
707.744	1.63
707.925	1.57
708.106	1.63
708.287	1.76
708.468	1.81
708.649	1.79
708.83	1.88
709.011	1.84
709.192	1.91
709.373	1.85
709.554	1.9
709.734	1.97
709.915	1.99
710.096	2.02
710.277	1.85
710.458	2.1
710.639	2.1
710.819	2.08
711	2.18
711.181	2.29
711.362	2.34
711.542	2.32
711.723	2.26
711.904	2.54
712.085	2.38
712.265	2.44
712.446	2.41
712.627	2.52
712.807	2.49
712.988	2.63
713.168	2.58
713.349	2.69
713.53	2.6
713.71	2.81
713.891	2.68
714.071	2.77
714.252	2.87
714.432	2.96
714.613	2.86
714.793	3.07
714.974	3.04
715.154	3.23
715.334	3.23
715.515	3.2
715.695	3.13
715.876	3.34
716.056	3.3
716.236	3.28
716.417	3.5
716.597	3.46
716.777	3.75
716.957	3.56
717.138	3.66
717.318	3.62
717.498	3.75
717.678	3.91
717.859	3.84
718.039	3.92
718.219	4.07
718.399	4.1
718.579	4.02
718.759	4.28
718.939	4.26
719.12	4.44
719.3	4.41
719.48	4.31
719.66	4.33
719.84	4.8
720.02	4.63
720.2	4.7
720.38	4.92
720.56	5.01
720.74	4.94
720.92	4.99
721.1	5.25
721.279	5.28
721.459	5.29
721.639	5.2
721.819	5.5
721.999	5.65
722.179	5.68
722.359	5.49
722.538	5.81
722.718	5.91
722.898	5.94
723.078	6.03
723.257	6.08
723.437	6.28
723.617	6.29
723.797	6.3
723.976	6.35
724.156	6.6
724.336	6.73
724.515	6.82
724.695	6.86
724.874	6.96
725.054	7.16
725.234	6.98
725.413	7.28
725.593	7.25
725.772	7.24
725.952	7.53
726.131	7.53
726.311	7.73
726.49	7.61
726.67	7.83
726.849	7.98
727.028	8.12
727.208	7.98
727.387	8.29
727.567	8.18
727.746	8.34
727.925	8.6
728.105	8.54
728.284	8.59
728.463	8.6
728.643	9
728.822	8.87
729.001	9.15
729.18	9.23
729.359	9.35
729.539	9.41
729.718	9.37
729.897	9.55
730.076	9.74
730.255	9.61
730.434	9.96
730.614	10.09
730.793	10.27
730.972	10.29
731.151	10.41
731.33	10.45
731.509	10.53
731.688	10.51
731.867	10.94
732.046	10.64
732.225	11.07
732.404	10.9
732.583	11.18
732.762	11.44
732.941	11.6
733.12	11.7
733.298	11.54
733.477	11.93
733.656	11.85
733.835	11.94
734.014	12.3
734.193	12.11
734.371	12.4
734.55	12.67
734.729	12.18
734.908	12.61
735.086	12.65
735.265	12.74
735.444	12.5
735.623	13
735.801	13.14
735.98	13.1
736.159	13.01
736.337	13.34
736.516	13.12
736.694	13.3
736.873	13.09
737.052	13.79
737.23	13.33
737.409	13.1
737.587	13.67
737.766	13.04
737.944	13.25
738.123	13.66
738.301	13.61
738.479	13.39
738.658	13.28
738.836	13.13
739.015	13.25
739.193	13.1
739.371	12.79
739.55	12.66
739.728	12.54
739.906	12.77
740.085	12.58
740.263	12.53
740.441	12.06
740.62	12.32
740.798	11.83
740.976	11.51
741.154	11.23
741.332	11.59
741.511	11.04
741.689	11.06
741.867	10.86
742.045	10.44
742.223	10.07
742.401	10
742.579	9.75
742.757	9.63
742.935	9.35
743.114	9.13
743.292	9.02
743.47	8.57
743.648	8.38
743.826	8.4
744.004	8.19
744.181	7.82
744.359	7.5
744.537	7.4
744.715	7.15
744.893	7.13
745.071	6.8
745.249	6.51
745.427	6.37
745.605	6.25
745.782	5.95
745.96	5.97
746.138	5.84
746.316	5.57
746.493	5.29
746.671	5.11
746.849	4.93
747.027	5.05
747.204	4.55
747.382	4.8
747.56	4.15
747.737	4.17
747.915	4.06
748.093	4.04
748.27	3.85
748.448	3.7
748.625	3.49
748.803	3.4
748.98	3.37
749.158	3.39
749.335	3.23
749.513	3.15
749.69	2.97
749.868	2.86
750.045	2.88
750.223	2.71
750.4	2.43
750.578	2.73
750.755	2.46
750.932	2.3
751.11	2.41
751.287	2.17
751.464	2.23
751.642	2.14
751.819	2.13
751.996	2.1
752.173	2
752.351	1.87
752.528	1.91
752.705	1.74
752.882	1.78
753.06	1.7
753.237	1.77
753.414	1.89
753.591	1.76
753.768	1.59
753.945	1.32
754.122	1.4
754.299	1.39
754.476	1.3
754.654	1.35
754.831	1.34
755.008	1.23
755.185	1.22
755.362	1.07
755.539	1.13
755.716	0.99
755.892	1.07
756.069	1.12
756.246	1.02
756.423	1.03
756.6	1.13
756.777	0.81
756.954	1.04
757.131	0.85
757.307	0.89
757.484	0.7
757.661	0.87
757.838	0.89
758.015	0.66
758.191	0.82
758.368	0.79
758.545	0.84
758.721	0.74
758.898	0.65
759.075	0.78
759.251	0.68
759.428	0.73
759.605	0.47
759.781	0.59
759.958	0.62
760.134	0.58
760.311	0.55
760.488	0.69
760.664	0.63
760.841	0.53
761.017	0.54
761.194	0.6
761.37	0.47
761.547	0.43
761.723	0.38
761.899	0.64
762.076	0.37
762.252	0.25
762.429	0.35
762.605	0.52
762.781	0.37
762.958	0.51
763.134	0.31
763.31	0.36
763.486	0.42
763.663	0.29
763.839	0.35
764.015	0.26
764.191	0.23
764.368	0.22
764.544	0.26
764.72	0.46
764.896	0.37
765.072	0.35
765.248	0.25
765.425	0.21
765.601	0.23
765.777	0.28
765.953	0.09
766.129	0.3
766.305	0.16
766.481	0.35
766.657	0.35
766.833	0.4
767.009	0.15
767.185	0.21
767.361	0.28
767.537	0.1
767.713	0.54
767.889	0.17
768.065	0.22
768.24	0.33
768.416	0.33
768.592	0.14
768.768	0.31
768.944	0.28
769.12	0.2
769.295	0.06
769.471	0.2
769.647	0.11
769.823	0.34
769.998	0.22
770.174	0.02
770.35	0.54
770.525	0.41
770.701	0.31
770.877	0.21
771.052	0.13
771.228	0.35
771.403	0.25
771.579	0.29
771.755	0.37
771.93	0.12
772.106	0.03
772.281	-0.07
772.457	0.1
772.632	0.15
772.808	0.01
772.983	0.05
773.159	0.08
773.334	0.29
773.509	0.12
773.685	0.12
773.86	0.37
774.036	0.37
774.211	0.18
774.386	0.14
774.562	0.26
774.737	0.28
774.912	0.09
775.087	0.29
775.263	0.18
775.438	0
775.613	0.1
775.788	0.14
775.964	0.34
776.139	0.33
776.314	0.05
776.489	0.24
776.664	0.17
776.839	-0.1
777.014	0.16
777.19	0.33
777.365	0.29
777.54	0.25
777.715	0.1
777.89	0.21
778.065	-0.06
778.24	0.02
778.415	0.22
778.59	-0.1
778.765	0.07
778.94	0.1
779.115	0.05
779.289	0.06
779.464	0.19
779.639	0.07
779.814	-0.02
779.989	0.04
780.164	0.37
780.339	0.12
780.513	0.04
780.688	-0.06
780.863	0.27
781.038	0.23
781.212	0.09
781.387	0.06
781.562	0.36
781.737	-0.04
781.911	0.26
782.086	0.03
782.261	0.24
782.435	0.31
782.61	-0.1
782.784	0.12
782.959	0.22
783.134	-0
783.308	0.01
783.483	0.02
783.657	0.49
783.832	0.29
784.006	-0.04
784.181	-0.04
784.355	0.4
784.53	0.17
784.704	0.04
784.878	0.37
785.053	0.19
785.227	0.16
785.402	0.53
785.576	0.04
785.75	0.05
785.925	0.12
786.099	0.3
786.273	0.17
786.448	0.31
786.622	0.22
786.796	0.22
786.97	0.1
787.145	0.62
787.319	-0.24
787.493	0.1
787.667	-0.11
787.841	0.09
788.015	0.37
788.19	0.16
788.364	0.03
788.538	0.23
788.712	0.21
788.886	0.33
789.06	0.43
789.234	0.36
789.408	-0.1
789.582	0.06
789.756	-0.09
789.93	0.03
790.104	0.15
790.278	-0.03
790.452	-0.21
790.626	0.28
790.8	-0.06
790.973	0.2
791.147	0.3
791.321	0.34
791.495	0.14
791.669	0.3
791.843	0.32
792.016	0.27
792.19	0.41
792.364	-0.02
792.538	0.58
792.711	0.36
792.885	-0
793.059	-0.08
793.233	-0.24
793.406	0.54
793.58	0.4
793.754	0.1
793.927	-0.06
794.101	0.46
794.274	0.06
794.448	0.16
794.622	-0.25
794.795	0.36
794.969	-0.1
795.142	0.58
795.316	0.1
795.489	-0.1
795.663	0.52
795.836	0.08
796.009	-0.28
796.183	0.64
796.356	0.2
796.53	0.22
796.703	0.22
796.876	0.59
797.05	0.04
797.223	0.01
797.396	0.13
797.57	0.21
797.743	0.6
797.916	0.13
798.09	0.27
798.263	0.17
798.436	-0.03
798.609	0.03
798.782	-0.04
798.956	0.02
799.129	0.34
799.302	0.13
799.475	-0.01
799.648	-0.24
799.821	0.07
799.994	0.06
800.167	-0.32
800.34	0.08
800.514	0.52
800.687	-0.04
800.86	0.09
801.033	0.16
801.206	0.15
801.379	-0.02
801.551	0.37
801.724	0.38
801.897	0.65
802.07	0.14
802.243	-0.26
802.416	0.07
802.589	-0
802.762	0.34
802.935	0.27
803.107	0.35
803.28	0.42
803.453	0.24
803.626	-0.05
803.798	0.1
803.971	0.03
804.144	0.14
804.317	0.21
804.489	0.29
804.662	-0.11
804.835	0.07
805.007	-0.08
805.18	0.51
805.353	0.15
805.525	0.03
805.698	-0.2
805.87	0.25
806.043	0.65
806.215	0.02
806.388	0.08
806.56	0.06
806.733	0.43
806.905	0.05
807.078	-0.21
807.25	-0.09
807.423	0.11
807.595	0.27
807.768	0.09
807.94	0.25
808.112	0.17
808.285	0.13
808.457	-0.02
808.629	0.25
808.802	0.49
808.974	0.26
809.146	0.3
809.318	0.13
809.491	0.38
809.663	0.37
809.835	0.45
810.007	0.34
810.18	0.34
810.352	0.02
810.524	-0.1
810.696	0.27
810.868	0.36
811.04	-0.02
811.212	0.02
811.384	0.28
811.556	0.26
811.728	-0.21
811.901	1.14
812.073	0.02
812.245	0.69
812.417	0.23
812.589	-0.29
812.76	0.19
812.932	0.58
813.104	0.4
813.276	-0.07
813.448	0.5
813.62	-0.02
813.792	0.28
813.964	0.17
814.136	0.18
814.307	0.18
814.479	0.26
814.651	0.14
814.823	0.94
814.995	0.22
815.166	0.43
815.338	-0.08
815.51	-0.45
815.681	1.14
815.853	0.1
816.025	0.05
816.196	0.47
816.368	0.52
816.54	0
816.711	-0.42
816.883	-0.04
817.054	0.9
817.226	-0.46
817.398	0.26
817.569	0.08
817.741	0.3
817.912	0.23
818.084	0.01
818.255	0.65
818.426	-0.25
818.598	0.57
818.769	0.03
818.941	0.86
819.112	0.84
819.283	0.69
819.455	-0.06
819.626	-0.06
819.798	0.38
819.969	0.41
820.14	0.3
820.311	-0.01
820.483	0.18
820.654	0.01
820.825	0.19
820.996	0.2
821.168	-0
821.339	0.06
821.51	-0
821.681	1.02
821.852	0.43
822.023	-0.05
822.195	-0.06
822.366	0.45
822.537	0.3
822.708	0.41
822.879	0.1
823.05	0.84
823.221	-0.1
823.392	0.58
823.563	0.05
823.734	0.41
823.905	-0.09
824.076	0.18
824.247	-0.39
824.418	-0.14
824.589	0.84
824.759	0.19
824.93	0.82
825.101	0.16
825.272	1.14
825.443	0.86
825.614	0.74
825.784	-0.45
825.955	1.45
826.126	0.14
826.297	0.79
826.467	0.83
826.638	1.13
826.809	-0.13
826.98	-0.12
827.15	0.34
827.321	0.34
827.492	1.58
827.662	0.53
827.833	0.49
828.003	0.35
828.174	-0.05
828.345	-0.45
828.515	0.62
828.686	-0.1
828.856	0.23
829.027	-0.13
829.197	0.13
829.368	-0.12
829.538	0.09
829.709	-0.32
829.879	0.38
830.049	0.49
830.22	-0.18
830.39	0.37
830.56	1.09
830.731	-0.16
830.901	-0.28
831.072	0.58
831.242	0.15
831.412	0.06
831.582	0.64
831.753	-0.55
831.923	1.32
832.093	0.31
832.263	0.48
832.434	-0.63
832.604	0.23
832.774	0.41
832.944	0.02
833.114	0.12
833.284	0.56
833.454	-0.29
833.624	0.15
833.795	-0.21
833.965	0.52
834.135	0.71
834.305	-0.61
834.475	-0.06
834.645	0.33
834.815	0.05
834.985	-0.58
835.155	-0.44
835.325	0.36
835.494	1.39
835.664	0.11
835.834	-0.16
836.004	0.59
836.174	0.18
836.344	0.65
836.514	-0.39
836.684	0.18
836.853	0.49
837.023	0.85
837.193	-0.26
837.363	0.68
837.532	0.76
837.702	-0.05
837.872	-0.34
838.041	0.97
838.211	1.95
838.381	-0.96
838.55	0.84
838.72	2.04
838.89	1.31
839.059	0.17
839.229	-0.27
839.398	1.03
839.568	0.34
839.738	0.2
839.907	1.11
840.077	0.55
840.246	-0.31
840.416	-0.66
840.585	0.01
840.755	1.16
840.924	0.83
841.093	-0.67
841.263	-0.3
841.432	0.55
841.602	0.1
841.771	-0.32
841.94	0.7
842.11	2.03
842.279	1.24
842.448	-0.65
842.617	0.39
842.787	1.24
842.956	-0.53
843.125	0.76
843.294	0.59
843.464	1.88
843.633	0.05
843.802	-0.44
843.971	-0.05
844.14	1.13
844.309	1.15
844.479	-1.17
844.648	-0.92
844.817	-0.24
844.986	0.53
845.155	0.28
845.324	0.34
845.493	-0.25
845.662	-0.4
845.831	1.52
846	0.96
846.169	0.54
846.338	1.3
846.507	0.84
846.676	0.27
846.844	0.26
847.013	0.9
847.182	0.15
847.351	-0.04
847.52	0.4
847.689	0.58
847.858	0.36
848.026	0.48
848.195	0.12
848.364	-0.58
848.533	-0.52
848.701	-0.13
848.87	-0.15
849.039	0.75
849.207	1.71
849.376	1.23
849.545	1.41
849.713	0.01
849.882	-0.14
850.051	-0.07
850.219	-0.53
850.388	1.05
850.556	0.44
850.725	-0.05
850.893	1.45
851.062	0.61
851.23	1.48
851.399	-0.46
851.567	0.03
851.736	0.08
851.904	0.05
852.073	-0.04
852.241	1.19
852.41	1.61
852.578	0.8
852.746	0.32
852.915	0.14
853.083	0.08
853.251	-0.45
853.42	0.33
853.588	0.76
853.756	1.96
853.924	0.5
854.093	0.25
854.261	0.29
854.429	-0.17
854.597	0.49
854.765	0.25
854.934	0.69
855.102	2.04
855.27	-0.41
855.438	1.69
855.606	1.36
855.774	2.3
855.942	-1.09
856.11	-1.28
856.278	0.35
856.446	1.18
856.614	-0.06
856.782	0.23
856.95	2.04
857.118	0.83
857.286	0.65
857.454	0.52
857.622	1.37
857.79	0.95
857.958	-0.23
858.126	0.18
858.294	-0.94
858.462	0.63
858.629	0.08
858.797	-0.44
858.965	0.35
859.133	0.81
859.301	1.23
859.468	1.86
859.636	0.02
859.804	1.98
859.971	0.02
860.139	0.02
860.307	1.33
860.474	1.47
860.642	0.1
860.81	1.14
860.977	-0.04
861.145	1.22
861.313	0.4
861.48	1.2
861.648	0.8
861.815	1.08
861.983	-0.05
862.15	1.06
862.318	2.14
862.485	2.34
862.653	0.98
862.82	-0.58
862.988	2.36
863.155	1.18
863.322	0.41
863.49	-0.98
863.657	1.17
863.824	2.11
863.992	1.61
864.159	1.24
864.326	2.24
864.494	-0.2
864.661	3.61
864.828	0.16
864.996	0.8
865.163	2.72
865.33	0.45
865.497	-0.57
865.664	0.34
865.832	-0.02
865.999	-0.13
866.166	-0.68
866.333	0.98
866.5	-1.01
866.667	-0.93
866.834	0.88
867.001	2.97
867.168	-0.98
867.335	0.26
867.502	-0.85
867.669	2.8
867.836	3.79
868.003	-0.12
868.17	1.8
868.337	3.57
868.504	3.1
868.671	-0.9
868.838	0.7
869.005	1.48
869.172	0.98
869.339	1.3
869.505	0.93
869.672	-0.4
869.839	2.11
870.006	1.21
870.173	-0.76
870.339	0.69
870.506	3.55
870.673	0.25
870.84	2.08
871.006	1.03
871.173	-0.23
871.34	0.94
871.506	-0.48
871.673	0.73
871.839	-0.92
872.006	2.76
872.173	1.54
872.339	1.35
872.506	2.76
872.672	1.26
872.839	0.06
873.005	0.75
873.172	5.45
873.338	3.37
873.505	2.66
873.671	1.92
873.838	1.84
874.004	-1.3
874.171	-0.11
874.337	1.54
874.503	1.89
874.67	1
874.836	1.76
875.002	1.98
875.169	1.02
875.335	1.44
875.501	1.07
875.668	1.85
875.834	2.07
876	1.03
876.166	3.04
876.332	2.58
876.499	5.16
876.665	0.03
876.831	1.99
876.997	3.36
877.163	2.9
877.329	0.53
877.495	-0.42
877.662	1.22
877.828	2.6
877.994	1.89
878.16	-0.78
878.326	0.63
878.492	1.29
878.658	0.57
878.824	2.35
878.99	3.4
879.156	0.15
879.322	2.31
879.487	-0.19
879.653	3.45
879.819	1.25
879.985	0.68
880.151	0.56
880.317	2.24
880.483	1.21
880.648	2.84
880.814	-0.64
880.98	2.1
881.146	0.09
881.312	-0.02
881.477	1.03
881.643	0.3
881.809	2.5
881.974	1.91
882.14	-0.4
882.306	1.86
882.471	4.24
882.637	0.69
882.803	3.01
882.968	3.83
883.134	4.09
883.299	0.84
883.465	0.8
883.63	1.58
883.796	1.99
883.961	3.55
884.127	0.7
884.292	-4.05
884.458	-1.63
884.623	-1.63
