Data from Apollo_Calib_20240827__AbsoluteIrradiance__386__05-35-01-484.txt Node

Date: Wed Aug 28 05:35:01 BST 2024
User: biology
Spectrometer: FLMT08252
Trigger mode: 0
Integration Time (sec): 5.000000E-1
Scans to average: 5
Electric dark correction enabled: true
Nonlinearity correction enabled: false
Boxcar width: 0
XAxis mode: Wavelengths
Number of Pixels in Spectrum: 3648
>>>>>Begin Spectral Data<<<<<
179.588	-0
179.809	-0
180.03	-0
180.251	-0
180.473	-0
180.694	0
180.915	0
181.136	-0
181.357	0
181.578	-0
181.799	0
182.02	-0
182.241	0
182.462	0
182.683	0
182.904	-0
183.125	-0
183.346	0
183.567	0
183.788	-0
184.009	-0
184.23	0
184.451	0
184.672	-0
184.892	-0
185.113	0
185.334	0
185.555	-0
185.776	-0
185.996	0
186.217	0
186.438	0
186.659	-0
186.879	-0
187.1	-0
187.321	-0
187.541	-0
187.762	-0
187.983	-0
188.203	-0
188.424	0
188.644	-0
188.865	-0
189.086	-0
189.306	-0
189.527	-0
189.747	-0
189.968	-0
190.188	-0
190.409	-0
190.629	0
190.849	-0
191.07	-0
191.29	0
191.511	-0
191.731	-0
191.951	-0
192.172	0
192.392	-0
192.612	-0
192.833	-0
193.053	-0
193.273	0
193.493	-0
193.714	-0
193.934	0
194.154	0
194.374	-0
194.594	-0
194.815	-0
195.035	-0
195.255	-0
195.475	-0
195.695	0
195.915	0
196.135	-0
196.355	0
196.575	0
196.795	0
197.015	-0
197.235	-0
197.455	-0
197.675	-0
197.895	-0
198.115	-0
198.335	0
198.555	-0
198.775	0
198.995	-0
199.214	0
199.434	-0
199.654	-0
199.874	-0
200.094	0.8
200.313	-0.35
200.533	-0.8
200.753	-1.17
200.973	0.98
201.192	0.19
201.412	-1.1
201.632	-0.4
201.851	1.37
202.071	-0.37
202.291	-0.28
202.51	-0.84
202.73	0.73
202.95	-0.34
203.169	-0.95
203.389	-0.48
203.608	-0.07
203.828	-0.56
204.047	-0.6
204.267	0.21
204.486	-0.1
204.706	0.16
204.925	-0.14
205.145	-0.37
205.364	0.2
205.583	0.51
205.803	-0.25
206.022	-0.39
206.242	-0.1
206.461	-0.29
206.68	-0.74
206.9	-0.15
207.119	0.59
207.338	0.58
207.557	-0.46
207.777	-0.09
207.996	-0.27
208.215	0.13
208.434	-0.29
208.654	-0.41
208.873	0
209.092	0.35
209.311	-0.48
209.53	0.1
209.749	-0.12
209.968	-0.47
210.187	-0.11
210.407	-0.46
210.626	-0.39
210.845	0.13
211.064	-0.16
211.283	-0.39
211.502	0.1
211.721	0.05
211.94	-0.07
212.159	0.14
212.377	0.2
212.596	0.07
212.815	-0.15
213.034	-0.1
213.253	0.31
213.472	0.16
213.691	0.05
213.91	-0.29
214.128	-0.25
214.347	0.44
214.566	-0.3
214.785	-0.4
215.003	0.19
215.222	0.25
215.441	-0
215.66	-0.38
215.878	0.02
216.097	0.15
216.316	-0.2
216.534	-0.22
216.753	-0.1
216.972	-0.18
217.19	-0.06
217.409	-0.2
217.627	-0.2
217.846	-0.18
218.064	-0.11
218.283	-0.21
218.501	0.49
218.72	0.24
218.938	-0.11
219.157	-0.16
219.375	0.04
219.594	0.05
219.812	-0.23
220.031	-0.28
220.249	0.25
220.467	0.14
220.686	-0.09
220.904	-0.18
221.122	-0.13
221.341	0.45
221.559	0.06
221.777	-0.21
221.995	-0.11
222.214	0
222.432	-0.15
222.65	0.1
222.868	0.04
223.086	0.06
223.305	0.16
223.523	-0.12
223.741	0.07
223.959	-0.08
224.177	-0.42
224.395	-0.17
224.613	-0.08
224.831	0.05
225.049	-0.24
225.267	-0.17
225.485	-0.06
225.703	-0.09
225.921	-0.06
226.139	-0.03
226.357	0.09
226.575	0.04
226.793	-0.06
227.011	0.54
227.229	0.07
227.447	0.09
227.665	-0.07
227.883	-0.23
228.1	-0.01
228.318	0.01
228.536	-0.36
228.754	-0.26
228.972	0.08
229.189	0.1
229.407	-0.05
229.625	-0.12
229.843	0.19
230.06	0.04
230.278	-0.18
230.496	-0.16
230.713	-0.08
230.931	0.14
231.149	-0.08
231.366	-0.15
231.584	-0.05
231.801	0.34
232.019	-0.09
232.236	-0.14
232.454	-0.21
232.671	0.15
232.889	-0.01
233.106	-0.09
233.324	-0.09
233.541	-0.11
233.759	-0.07
233.976	-0.07
234.194	-0.13
234.411	-0.03
234.628	-0.18
234.846	-0.11
235.063	0.04
235.28	-0.1
235.498	-0.05
235.715	-0.22
235.932	0.11
236.149	-0.05
236.367	-0.21
236.584	0.03
236.801	0.01
237.018	0.06
237.236	-0.07
237.453	-0.18
237.67	0.11
237.887	-0.16
238.104	0
238.321	-0.15
238.538	-0.12
238.755	0.08
238.973	-0.18
239.19	0.03
239.407	0.06
239.624	-0.09
239.841	-0.2
240.058	-0.15
240.275	0.04
240.492	-0.1
240.709	-0.16
240.925	-0.1
241.142	-0.09
241.359	-0.09
241.576	-0.15
241.793	-0.1
242.01	-0.05
242.227	0.13
242.444	0.03
242.66	0.07
242.877	-0.03
243.094	-0.06
243.311	0.01
243.527	-0.07
243.744	0.03
243.961	0.02
244.178	-0.1
244.394	-0.04
244.611	0.1
244.828	0.16
245.044	-0.08
245.261	-0.09
245.477	-0.07
245.694	0.03
245.911	-0.06
246.127	0.03
246.344	0.05
246.56	0.06
246.777	-0.08
246.993	-0.03
247.21	0.06
247.426	0.07
247.643	-0.13
247.859	-0.14
248.076	-0.07
248.292	0.09
248.508	-0.1
248.725	0.04
248.941	0.02
249.157	0.13
249.374	-0.09
249.59	-0.06
249.806	0.02
250.023	0.16
250.239	-0.14
250.455	-0.08
250.671	0.07
250.888	0.01
251.104	0.02
251.32	-0.05
251.536	-0.01
251.752	-0.04
251.969	0.02
252.185	-0.07
252.401	0.22
252.617	0.03
252.833	-0.05
253.049	-0.05
253.265	0.01
253.481	0.04
253.697	-0.08
253.913	-0.09
254.129	0.05
254.345	-0.04
254.561	-0.12
254.777	-0.1
254.993	-0.01
255.209	0.05
255.425	-0.08
255.641	-0.07
255.857	0.03
256.073	0.04
256.288	-0.17
256.504	-0.09
256.72	-0.01
256.936	0.06
257.152	-0.04
257.367	-0.11
257.583	0.01
257.799	-0.01
258.015	-0.12
258.23	-0.14
258.446	0.19
258.662	-0.04
258.877	-0.16
259.093	-0.07
259.309	0
259.524	0.02
259.74	-0.06
259.955	-0.09
260.171	0.04
260.387	-0.08
260.602	0.06
260.818	-0.06
261.033	-0.13
261.249	-0.02
261.464	0.01
261.68	-0.11
261.895	0.02
262.11	0.03
262.326	-0.05
262.541	-0.1
262.757	0.1
262.972	0.07
263.187	0
263.403	-0.01
263.618	-0.01
263.833	-0.03
264.049	-0.05
264.264	-0.03
264.479	0.01
264.694	0.13
264.91	-0.09
265.125	-0.06
265.34	0.05
265.555	0.13
265.77	-0.01
265.986	-0.08
266.201	0
266.416	0.07
266.631	-0.06
266.846	0
267.061	0.04
267.276	0.07
267.491	-0.14
267.706	0.05
267.921	0.02
268.136	-0.04
268.351	-0.03
268.566	-0.06
268.781	0.08
268.996	-0.01
269.211	-0.02
269.426	-0.1
269.641	-0
269.856	0.06
270.071	-0.14
270.285	-0.08
270.5	0.07
270.715	0.02
270.93	-0.05
271.145	-0
271.359	0.07
271.574	-0.11
271.789	0
272.004	-0.09
272.218	-0.04
272.433	0.07
272.648	-0.06
272.862	0.03
273.077	-0.04
273.292	0.01
273.506	-0.02
273.721	-0.14
273.936	0.02
274.15	0.08
274.365	-0.01
274.579	-0.01
274.794	0.02
275.008	0.04
275.223	-0.06
275.437	-0.02
275.652	0.02
275.866	-0.01
276.081	0.05
276.295	0
276.509	-0.03
276.724	0.01
276.938	-0.02
277.153	0
277.367	0.05
277.581	-0
277.796	-0.03
278.01	-0.08
278.224	0.08
278.438	0.11
278.653	-0.16
278.867	-0.04
279.081	-0.15
279.295	-0.03
279.51	0.03
279.724	-0.11
279.938	0.08
280.152	-0
280.366	-0.1
280.58	0.03
280.794	0.12
281.008	0.03
281.222	0.08
281.437	0.11
281.651	-0.03
281.865	0.14
282.079	-0.06
282.293	-0.12
282.507	-0.07
282.721	-0.03
282.935	0.01
283.148	-0.05
283.362	-0.03
283.576	-0.06
283.79	-0.01
284.004	-0.04
284.218	0.06
284.432	-0.06
284.646	-0.05
284.859	-0.07
285.073	-0.04
285.287	0.02
285.501	0.01
285.714	-0.02
285.928	0.06
286.142	0.03
286.356	-0.04
286.569	0
286.783	0.09
286.997	0.01
287.21	-0.03
287.424	0.03
287.637	-0.01
287.851	-0.03
288.065	0.02
288.278	0.01
288.492	0.07
288.705	-0.02
288.919	0.04
289.132	-0.06
289.346	0.06
289.559	-0.09
289.773	-0.1
289.986	-0.02
290.2	-0.01
290.413	0.08
290.626	-0.05
290.84	-0
291.053	0.01
291.267	0.06
291.48	0.02
291.693	0.01
291.906	-0.06
292.12	-0.05
292.333	-0
292.546	-0.03
292.76	0.07
292.973	0.04
293.186	0.01
293.399	-0.05
293.612	0.02
293.826	-0.01
294.039	0.01
294.252	-0.02
294.465	0.03
294.678	0.03
294.891	0.02
295.104	-0.06
295.317	-0.02
295.53	0.03
295.743	-0.03
295.956	0.01
296.169	0.07
296.382	0.05
296.595	-0.01
296.808	-0.03
297.021	0.04
297.234	0.08
297.447	-0.01
297.66	0.06
297.873	0.04
298.086	0.03
298.299	-0.05
298.511	-0.05
298.724	-0.03
298.937	-0.06
299.15	-0.05
299.363	0.02
299.575	0.02
299.788	0.02
300.001	-0.03
300.213	-0.09
300.426	0
300.639	-0.04
300.852	-0.04
301.064	0.02
301.277	0.06
301.489	0.03
301.702	0.03
301.915	-0.01
302.127	-0.02
302.34	0.01
302.552	0.01
302.765	-0.03
302.977	0.04
303.19	0
303.402	-0.06
303.615	-0.01
303.827	-0.03
304.04	-0.02
304.252	0
304.464	-0.06
304.677	0.11
304.889	0.03
305.102	-0.03
305.314	0
305.526	0.07
305.739	0.03
305.951	-0.06
306.163	-0.04
306.375	0.06
306.588	-0.03
306.8	-0.06
307.012	-0.03
307.224	0.04
307.436	0.08
307.649	-0.09
307.861	0.02
308.073	0.05
308.285	0.02
308.497	-0.08
308.709	-0.03
308.921	0.01
309.133	0.07
309.346	-0.02
309.558	-0.02
309.77	0.02
309.982	0.08
310.194	0.02
310.406	-0.04
310.617	0.11
310.829	0.02
311.041	0.01
311.253	-0.03
311.465	-0
311.677	-0.02
311.889	-0.07
312.101	-0.01
312.313	0.05
312.524	0.07
312.736	-0.08
312.948	-0
313.16	0.06
313.372	0.04
313.583	0.02
313.795	-0
314.007	-0.01
314.218	0.05
314.43	0.01
314.642	-0.04
314.853	-0.07
315.065	0.04
315.277	-0.04
315.488	0
315.7	0.06
315.912	0
316.123	-0.03
316.335	-0.02
316.546	0.04
316.758	-0.04
316.969	-0.02
317.181	0
317.392	0.02
317.604	0.05
317.815	-0.04
318.026	-0.07
318.238	-0.07
318.449	0.03
318.661	-0.07
318.872	-0.05
319.083	-0.06
319.295	0.03
319.506	-0.04
319.717	0
319.929	0.05
320.14	0.01
320.351	0
320.562	-0.07
320.774	-0.03
320.985	0.02
321.196	-0.07
321.407	-0.08
321.618	0.06
321.829	-0.01
322.041	-0
322.252	-0.01
322.463	0
322.674	0.03
322.885	-0.05
323.096	-0.03
323.307	-0.01
323.518	0.01
323.729	-0.03
323.94	-0.03
324.151	0.02
324.362	0.03
324.573	-0.01
324.784	-0.05
324.995	0.02
325.206	0.03
325.417	-0
325.628	-0.03
325.838	-0.02
326.049	0
326.26	0.02
326.471	-0.05
326.682	0.05
326.892	-0.01
327.103	-0.11
327.314	-0.03
327.525	0.01
327.735	-0.01
327.946	-0.03
328.157	-0.03
328.368	0.03
328.578	-0.02
328.789	0
328.999	-0.02
329.21	0.01
329.421	-0.02
329.631	-0.02
329.842	-0.07
330.052	-0.03
330.263	-0
330.473	-0
330.684	-0
330.894	0.01
331.105	-0.01
331.315	0.02
331.526	-0.08
331.736	0.13
331.947	0.03
332.157	-0.01
332.367	-0.06
332.578	0.02
332.788	0.06
332.999	0.02
333.209	-0.02
333.419	-0.04
333.629	0.04
333.84	-0.03
334.05	0.01
334.26	0.07
334.47	-0.03
334.681	0.04
334.891	-0.01
335.101	0.04
335.311	0.1
335.521	0.02
335.732	-0.04
335.942	0.06
336.152	0.05
336.362	0
336.572	-0.03
336.782	0.01
336.992	-0.01
337.202	-0.05
337.412	-0.03
337.622	0.01
337.832	0.02
338.042	-0.02
338.252	-0.05
338.462	-0.01
338.672	-0.03
338.882	-0.02
339.092	0.04
339.302	0.07
339.511	0.06
339.721	-0.01
339.931	-0.08
340.141	0.06
340.351	0.01
340.561	-0.01
340.77	0.05
340.98	0.01
341.19	-0.01
341.4	-0.04
341.609	-0.02
341.819	-0.03
342.029	-0.05
342.238	0
342.448	-0.03
342.658	0.03
342.867	-0.01
343.077	0.01
343.286	-0.01
343.496	0.01
343.706	0.09
343.915	-0.03
344.125	0.02
344.334	0.02
344.544	-0.07
344.753	0
344.963	-0.01
345.172	-0.02
345.381	-0.02
345.591	-0.03
345.8	-0.03
346.01	0.03
346.219	0.05
346.428	-0.19
346.638	0.01
346.847	-0.02
347.056	0.03
347.266	-0.07
347.475	0.01
347.684	0.04
347.893	0.01
348.103	0.01
348.312	-0.02
348.521	-0.01
348.73	-0
348.94	-0
349.149	-0.01
349.358	-0.03
349.567	-0.04
349.776	-0.07
349.985	0.04
350.194	0.03
350.403	0.03
350.612	-0.08
350.821	-0.04
351.03	-0.01
351.239	-0.07
351.448	-0.04
351.657	-0.04
351.866	0.07
352.075	0.01
352.284	-0.06
352.493	-0.07
352.702	0.04
352.911	0.03
353.12	0.02
353.329	-0.01
353.538	0.06
353.746	0.01
353.955	-0.09
354.164	0.02
354.373	0.02
354.582	0.02
354.79	0.03
354.999	0.01
355.208	-0.04
355.416	0.09
355.625	-0.11
355.834	-0.02
356.042	-0.01
356.251	-0.02
356.46	-0.03
356.668	0.01
356.877	0.1
357.085	0.02
357.294	-0.11
357.503	-0.03
357.711	-0.01
357.92	0.17
358.128	0.02
358.337	-0.04
358.545	0.03
358.754	-0.02
358.962	-0.01
359.17	-0
359.379	0.03
359.587	0.02
359.796	-0
360.004	0.04
360.212	0.05
360.421	0.05
360.629	-0.05
360.837	0.02
361.046	0.01
361.254	0.09
361.462	-0.02
361.67	-0.06
361.879	-0.02
362.087	0.07
362.295	0.01
362.503	0
362.711	-0.03
362.92	0.01
363.128	-0.04
363.336	-0.03
363.544	-0.05
363.752	-0
363.96	-0.08
364.168	0.01
364.376	0.03
364.584	-0
364.792	-0.01
365	-0.02
365.208	-0.02
365.416	0.01
365.624	0.01
365.832	0.02
366.04	0.08
366.248	0.05
366.456	0.04
366.664	-0.01
366.872	0
367.079	-0.04
367.287	-0.03
367.495	0.02
367.703	0.01
367.911	-0.04
368.118	-0.01
368.326	-0.02
368.534	-0.07
368.742	0.05
368.949	-0.07
369.157	-0.02
369.365	0.03
369.572	-0.04
369.78	-0.05
369.988	0.05
370.195	0.04
370.403	0.04
370.61	-0.03
370.818	0.02
371.026	0.1
371.233	-0.05
371.441	0.01
371.648	-0.01
371.856	-0.02
372.063	0.03
372.271	0.03
372.478	-0.04
372.685	-0.05
372.893	0.05
373.1	-0
373.308	-0.02
373.515	0.08
373.722	0.05
373.93	-0.03
374.137	0.02
374.344	0.06
374.552	0.04
374.759	0.02
374.966	0.01
375.173	0.01
375.381	0.02
375.588	-0
375.795	-0.04
376.002	0.02
376.209	-0.04
376.417	-0.01
376.624	-0.01
376.831	0.02
377.038	-0.01
377.245	-0.09
377.452	-0.03
377.659	-0.01
377.866	-0.05
378.073	-0.06
378.28	-0.02
378.487	0.03
378.694	0.04
378.901	-0
379.108	-0.03
379.315	0.03
379.522	0.09
379.729	0.03
379.936	0
380.143	0.02
380.35	-0
380.557	0.01
380.763	-0.01
380.97	-0.03
381.177	0.02
381.384	-0.03
381.591	0
381.797	0.01
382.004	0.03
382.211	0.01
382.418	-0.01
382.624	0.04
382.831	0.04
383.038	-0.02
383.244	-0
383.451	-0.01
383.658	0.01
383.864	-0.04
384.071	-0.05
384.277	0.04
384.484	-0.06
384.69	0.06
384.897	-0.06
385.103	-0.01
385.31	-0.03
385.516	0.01
385.723	-0.02
385.929	-0.01
386.136	-0.03
386.342	0.03
386.549	-0.03
386.755	0.05
386.961	0.03
387.168	-0.02
387.374	0.02
387.58	0.01
387.787	-0.03
387.993	-0
388.199	-0.04
388.406	-0.04
388.612	-0.02
388.818	-0.03
389.024	-0.06
389.231	-0.02
389.437	0.09
389.643	0.01
389.849	0.01
390.055	-0.02
390.261	0
390.467	0.03
390.674	-0.05
390.88	-0.01
391.086	0.02
391.292	-0.05
391.498	0.02
391.704	0.02
391.91	0.02
392.116	-0.03
392.322	-0.07
392.528	0.04
392.734	-0.01
392.94	0.01
393.146	-0.04
393.352	-0
393.557	0
393.763	-0.02
393.969	0.03
394.175	-0.05
394.381	0.03
394.587	-0.03
394.792	-0.06
394.998	0.01
395.204	0.05
395.41	0
395.615	0.07
395.821	-0
396.027	0.06
396.233	-0.06
396.438	0.01
396.644	0.01
396.85	0.02
397.055	-0.02
397.261	-0.03
397.466	-0.03
397.672	-0.01
397.878	0.01
398.083	0
398.289	-0.03
398.494	-0.01
398.7	0.01
398.905	-0.06
399.111	0.07
399.316	-0.02
399.522	-0.01
399.727	-0.01
399.932	-0
400.138	0.03
400.343	0.01
400.549	0
400.754	-0.02
400.959	-0.02
401.165	0.02
401.37	-0.01
401.575	-0.07
401.78	0
401.986	-0.04
402.191	-0.01
402.396	-0.03
402.601	0.02
402.807	-0.01
403.012	-0.02
403.217	0.06
403.422	-0.02
403.627	-0.02
403.832	-0.04
404.037	0.07
404.243	0.03
404.448	-0.04
404.653	-0.01
404.858	0.01
405.063	-0.02
405.268	-0.04
405.473	-0.05
405.678	-0.04
405.883	0.1
406.088	0.03
406.293	-0.04
406.498	-0.03
406.703	0
406.907	-0.03
407.112	-0.06
407.317	0.04
407.522	0.08
407.727	-0.05
407.932	0
408.136	0.02
408.341	-0.04
408.546	-0
408.751	0.02
408.956	0.01
409.16	0.01
409.365	0.01
409.57	-0.01
409.774	-0.03
409.979	0.04
410.184	-0.01
410.388	-0.07
410.593	0.05
410.798	0.01
411.002	0.01
411.207	-0.02
411.411	-0.04
411.616	-0.09
411.82	-0.04
412.025	0
412.229	-0.02
412.434	-0.01
412.638	-0.02
412.843	-0.01
413.047	-0.01
413.252	-0.05
413.456	0
413.66	0.01
413.865	-0.01
414.069	0.05
414.273	-0
414.478	-0.05
414.682	-0.05
414.886	-0.05
415.091	-0.05
415.295	-0.12
415.499	-0.01
415.703	-0.01
415.908	0.02
416.112	-0.07
416.316	0.02
416.52	-0.04
416.724	-0.06
416.929	-0.02
417.133	0.07
417.337	-0.04
417.541	-0.05
417.745	-0.01
417.949	0.01
418.153	0.02
418.357	-0.07
418.561	0.05
418.765	0
418.969	0.09
419.173	0.05
419.377	-0.05
419.581	0.09
419.785	-0.07
419.989	-0.08
420.193	-0.03
420.397	-0.01
420.601	0.06
420.804	-0.01
421.008	-0
421.212	-0.02
421.416	0.05
421.62	-0.01
421.823	-0.03
422.027	0.08
422.231	0.02
422.435	-0.01
422.638	0
422.842	0
423.046	-0.04
423.249	0.01
423.453	0
423.657	0.04
423.86	0
424.064	-0.02
424.268	0.04
424.471	-0.02
424.675	0.1
424.878	0.06
425.082	0.01
425.285	0.03
425.489	0.04
425.692	-0.01
425.896	-0.01
426.099	0.06
426.303	-0.01
426.506	-0.1
426.71	0.02
426.913	0.04
427.116	0.04
427.32	0.01
427.523	-0.02
427.726	0.1
427.93	-0.08
428.133	-0.04
428.336	-0.04
428.54	-0.04
428.743	0.04
428.946	0.06
429.149	-0
429.353	0.02
429.556	-0.02
429.759	-0.04
429.962	-0.01
430.165	-0.04
430.368	-0.05
430.571	-0.02
430.775	0
430.978	-0.03
431.181	0.08
431.384	0
431.587	-0.01
431.79	0.02
431.993	0.01
432.196	-0.02
432.399	-0
432.602	0.07
432.805	0.02
433.008	-0.05
433.211	-0.08
433.414	0.02
433.616	0.04
433.819	-0.06
434.022	-0.1
434.225	0.05
434.428	0.06
434.631	0.05
434.833	0.01
435.036	-0.01
435.239	0.08
435.442	-0.02
435.645	-0.05
435.847	-0.02
436.05	0.01
436.253	-0.01
436.455	-0.05
436.658	-0.02
436.861	0.02
437.063	-0.02
437.266	-0.02
437.468	0.01
437.671	0.13
437.874	0
438.076	-0.1
438.279	-0.11
438.481	0.01
438.684	-0.06
438.886	0
439.089	-0.08
439.291	0.02
439.494	-0
439.696	-0.06
439.899	-0.04
440.101	0.01
440.303	-0.07
440.506	0.04
440.708	-0.04
440.91	-0.02
441.113	-0.07
441.315	0.01
441.517	-0.06
441.72	-0.01
441.922	-0.06
442.124	-0.05
442.326	0.01
442.529	0.02
442.731	-0.07
442.933	0.04
443.135	-0.07
443.337	-0.04
443.539	-0
443.742	-0.05
443.944	0.04
444.146	-0.01
444.348	-0.04
444.55	0.01
444.752	-0.02
444.954	-0.05
445.156	-0.04
445.358	-0.03
445.56	0.04
445.762	-0.02
445.964	0.01
446.166	-0.04
446.368	-0.01
446.57	0.04
446.772	-0.01
446.974	-0.03
447.175	0.02
447.377	-0.03
447.579	-0.03
447.781	-0.09
447.983	0.03
448.184	-0.04
448.386	0.06
448.588	-0.06
448.79	0.02
448.991	-0.06
449.193	-0.07
449.395	-0.01
449.597	0.04
449.798	-0.02
450	-0
450.202	-0.03
450.403	0
450.605	0.01
450.806	-0
451.008	-0.05
451.21	0.02
451.411	0.03
451.613	-0.07
451.814	-0.01
452.016	0.01
452.217	-0.02
452.419	0.01
452.62	0.01
452.821	-0.01
453.023	0.03
453.224	0.02
453.426	-0.04
453.627	-0.04
453.828	0.05
454.03	0
454.231	-0.05
454.432	-0.11
454.634	0.13
454.835	-0.01
455.036	-0.06
455.238	0.05
455.439	0.07
455.64	-0.07
455.841	-0.04
456.042	0.07
456.244	0.02
456.445	-0.07
456.646	-0.06
456.847	-0.04
457.048	0.03
457.249	0.08
457.45	0.2
457.651	-0.11
457.852	0.04
458.054	-0.01
458.255	-0.03
458.456	0.04
458.657	-0
458.858	-0.03
459.058	-0.01
459.259	0.04
459.46	-0.04
459.661	-0.02
459.862	0.11
460.063	-0.03
460.264	0.04
460.465	-0.05
460.666	0.06
460.866	-0.02
461.067	0.04
461.268	-0.02
461.469	-0.01
461.67	-0.01
461.87	-0.03
462.071	-0.03
462.272	-0.04
462.473	0.01
462.673	0.05
462.874	-0.06
463.075	-0.05
463.275	-0
463.476	-0.01
463.676	-0.01
463.877	-0.03
464.078	-0.03
464.278	0.07
464.479	0.03
464.679	-0.01
464.88	0
465.08	0.09
465.281	-0
465.481	-0.03
465.682	0
465.882	0.01
466.083	-0.01
466.283	0.02
466.483	0.02
466.684	-0.04
466.884	-0.04
467.085	0.01
467.285	0.07
467.485	-0.01
467.686	0.02
467.886	-0.05
468.086	0.01
468.286	0.01
468.487	0.05
468.687	-0.08
468.887	0.02
469.087	0.02
469.287	-0.03
469.488	-0.03
469.688	0.02
469.888	0.05
470.088	0.02
470.288	0.04
470.488	0.06
470.688	-0.05
470.888	-0.02
471.088	-0.06
471.288	0.03
471.488	0
471.688	0.05
471.888	-0.03
472.088	0.05
472.288	0.01
472.488	-0.03
472.688	-0
472.888	0.04
473.088	-0.02
473.288	0
473.488	-0.01
473.688	0.08
473.887	0.01
474.087	-0.03
474.287	0.02
474.487	-0.03
474.687	0.03
474.886	-0.02
475.086	-0.02
475.286	-0
475.486	0.01
475.685	-0.02
475.885	-0.01
476.085	-0.01
476.284	-0.01
476.484	-0.03
476.684	-0.03
476.883	0.04
477.083	0.05
477.282	-0.05
477.482	0.06
477.681	0.06
477.881	0.03
478.08	-0.03
478.28	-0
478.479	0.05
478.679	0.08
478.878	0.02
479.078	-0.05
479.277	0
479.477	0
479.676	0.04
479.875	-0
480.075	-0.06
480.274	0.04
480.473	0.02
480.673	-0.06
480.872	0.03
481.071	0.02
481.271	0.01
481.47	-0.03
481.669	-0.02
481.868	-0.02
482.067	-0.01
482.267	-0.03
482.466	-0.04
482.665	-0.05
482.864	-0.03
483.063	-0.02
483.262	0.04
483.461	0.05
483.661	0.04
483.86	-0.01
484.059	0.05
484.258	-0.02
484.457	0.03
484.656	0.01
484.855	0.03
485.054	-0.04
485.253	-0.05
485.452	-0.03
485.651	0
485.849	0.01
486.048	-0.01
486.247	-0.03
486.446	0.01
486.645	-0.02
486.844	0.02
487.043	-0
487.241	0.01
487.44	-0.02
487.639	0
487.838	0.04
488.037	0.03
488.235	0.06
488.434	-0
488.633	0
488.831	-0.02
489.03	0.03
489.229	0.02
489.427	0.01
489.626	0.05
489.825	0.04
490.023	0.01
490.222	-0.01
490.42	0.05
490.619	0.04
490.817	0
491.016	0.01
491.214	0.03
491.413	0.01
491.611	0.01
491.81	0.03
492.008	0.03
492.207	0.05
492.405	0.01
492.604	-0.03
492.802	0.02
493	0.02
493.199	0.02
493.397	0.02
493.595	-0
493.794	0.02
493.992	0.08
494.19	-0
494.388	0.05
494.587	0.02
494.785	0.02
494.983	-0.03
495.181	0.03
495.379	0.03
495.578	0.02
495.776	0.05
495.974	0.06
496.172	0.03
496.37	0.02
496.568	-0
496.766	-0.01
496.964	0.07
497.162	0.04
497.36	0.01
497.558	0.04
497.756	0.02
497.954	0.02
498.152	0.02
498.35	0.03
498.548	0.03
498.746	0.05
498.944	0.01
499.142	0.02
499.34	0
499.538	0.02
499.736	0.02
499.933	0.06
500.131	0.09
500.329	0.06
500.527	0.05
500.725	0.1
500.922	0.09
501.12	0.06
501.318	0.07
501.516	0
501.713	0.05
501.911	0.04
502.109	0.03
502.306	0.07
502.504	0.06
502.701	0.06
502.899	0.04
503.097	0.12
503.294	0.09
503.492	0.06
503.689	0.08
503.887	0.1
504.084	0.12
504.282	0.09
504.479	0.08
504.677	0.09
504.874	0.07
505.072	0.1
505.269	0.1
505.466	0.11
505.664	0.12
505.861	0.05
506.059	0.07
506.256	0.11
506.453	0.1
506.651	0.13
506.848	0.13
507.045	0.11
507.242	0.14
507.44	0.1
507.637	0.12
507.834	0.11
508.031	0.15
508.229	0.08
508.426	0.12
508.623	0.13
508.82	0.12
509.017	0.1
509.214	0.14
509.411	0.14
509.608	0.12
509.805	0.15
510.003	0.15
510.2	0.14
510.397	0.2
510.594	0.13
510.791	0.16
510.988	0.17
511.184	0.17
511.381	0.16
511.578	0.15
511.775	0.2
511.972	0.15
512.169	0.19
512.366	0.18
512.563	0.19
512.76	0.16
512.956	0.21
513.153	0.18
513.35	0.21
513.547	0.18
513.744	0.18
513.94	0.17
514.137	0.21
514.334	0.22
514.53	0.23
514.727	0.23
514.924	0.28
515.12	0.2
515.317	0.21
515.514	0.2
515.71	0.22
515.907	0.23
516.103	0.24
516.3	0.25
516.497	0.27
516.693	0.29
516.89	0.26
517.086	0.24
517.283	0.27
517.479	0.26
517.676	0.26
517.872	0.26
518.068	0.26
518.265	0.26
518.461	0.27
518.658	0.25
518.854	0.29
519.05	0.27
519.247	0.29
519.443	0.3
519.639	0.31
519.836	0.3
520.032	0.29
520.228	0.29
520.424	0.35
520.621	0.31
520.817	0.29
521.013	0.31
521.209	0.31
521.405	0.37
521.601	0.3
521.798	0.29
521.994	0.37
522.19	0.28
522.386	0.26
522.582	0.3
522.778	0.32
522.974	0.32
523.17	0.3
523.366	0.33
523.562	0.34
523.758	0.32
523.954	0.32
524.15	0.31
524.346	0.33
524.542	0.29
524.738	0.28
524.934	0.31
525.129	0.31
525.325	0.33
525.521	0.31
525.717	0.34
525.913	0.31
526.109	0.32
526.304	0.29
526.5	0.33
526.696	0.36
526.892	0.32
527.087	0.31
527.283	0.27
527.479	0.3
527.674	0.28
527.87	0.26
528.066	0.26
528.261	0.3
528.457	0.28
528.653	0.28
528.848	0.29
529.044	0.28
529.239	0.27
529.435	0.29
529.63	0.26
529.826	0.32
530.021	0.27
530.217	0.29
530.412	0.25
530.608	0.23
530.803	0.26
530.999	0.26
531.194	0.19
531.389	0.22
531.585	0.2
531.78	0.24
531.975	0.22
532.171	0.27
532.366	0.22
532.561	0.22
532.757	0.2
532.952	0.22
533.147	0.25
533.342	0.21
533.538	0.18
533.733	0.23
533.928	0.19
534.123	0.18
534.318	0.18
534.513	0.19
534.709	0.22
534.904	0.2
535.099	0.19
535.294	0.2
535.489	0.2
535.684	0.19
535.879	0.15
536.074	0.21
536.269	0.16
536.464	0.19
536.659	0.18
536.854	0.18
537.049	0.19
537.244	0.2
537.439	0.17
537.634	0.19
537.828	0.16
538.023	0.18
538.218	0.12
538.413	0.17
538.608	0.13
538.803	0.19
538.997	0.13
539.192	0.17
539.387	0.18
539.582	0.15
539.776	0.15
539.971	0.14
540.166	0.15
540.36	0.12
540.555	0.15
540.75	0.15
540.944	0.13
541.139	0.08
541.334	0.13
541.528	0.17
541.723	0.14
541.917	0.13
542.112	0.1
542.306	0.15
542.501	0.11
542.695	0.13
542.89	0.08
543.084	0.13
543.279	0.12
543.473	0.12
543.668	0.11
543.862	0.13
544.056	0.12
544.251	0.11
544.445	0.13
544.64	0.11
544.834	0.08
545.028	0.08
545.222	0.12
545.417	0.12
545.611	0.12
545.805	0.11
546	0.1
546.194	0.09
546.388	0.08
546.582	0.1
546.776	0.09
546.97	0.11
547.165	0.13
547.359	0.12
547.553	0.08
547.747	0.12
547.941	0.11
548.135	0.1
548.329	0.11
548.523	0.09
548.717	0.07
548.911	0.06
549.105	0.08
549.299	0.09
549.493	0.11
549.687	0.1
549.881	0.09
550.075	0.08
550.269	0.05
550.463	0.11
550.657	0.05
550.85	0.08
551.044	0.06
551.238	0.1
551.432	0.05
551.626	0.04
551.82	0.09
552.013	0.04
552.207	0.08
552.401	0.08
552.594	0.07
552.788	0.05
552.982	0.08
553.176	0.04
553.369	0.1
553.563	0.08
553.756	0.03
553.95	0.03
554.144	0.06
554.337	0.09
554.531	0.06
554.724	0.07
554.918	0.05
555.111	0.07
555.305	0.06
555.498	0.11
555.692	0.05
555.885	0.04
556.079	0.05
556.272	0.05
556.466	0.06
556.659	0.05
556.852	0.06
557.046	0.05
557.239	0.07
557.432	0.02
557.626	0.02
557.819	0.07
558.012	0.04
558.206	0.05
558.399	0.03
558.592	0.06
558.785	0.02
558.979	0.07
559.172	0.03
559.365	0.06
559.558	0.05
559.751	0.05
559.944	0.06
560.138	0.01
560.331	0.02
560.524	0.02
560.717	0.03
560.91	0.04
561.103	0.05
561.296	0.02
561.489	0.04
561.682	0.03
561.875	0.05
562.068	0.04
562.261	0.04
562.454	0.07
562.647	0.06
562.84	0.04
563.032	0.02
563.225	0.01
563.418	0.02
563.611	0.03
563.804	0.04
563.997	-0.01
564.19	0.01
564.382	0.04
564.575	0.02
564.768	0.03
564.961	0.03
565.153	-0.01
565.346	0.03
565.539	0.04
565.731	0.03
565.924	0.06
566.117	0.05
566.309	0.03
566.502	-0.01
566.695	0.03
566.887	0.02
567.08	0.02
567.272	0.01
567.465	0.01
567.657	0.03
567.85	0.01
568.042	0.04
568.235	0.05
568.427	0.02
568.62	0.04
568.812	0.03
569.005	0.01
569.197	0
569.389	0.04
569.582	0.03
569.774	0.02
569.966	-0.02
570.159	-0.02
570.351	0.02
570.543	-0
570.736	0.02
570.928	-0.02
571.12	0.01
571.312	0.01
571.505	-0.03
571.697	0.05
571.889	-0
572.081	0.01
572.273	-0
572.465	0.04
572.658	-0
572.85	0.03
573.042	0.01
573.234	-0.01
573.426	0.05
573.618	-0.05
573.81	0
574.002	0.06
574.194	0.06
574.386	-0.02
574.578	-0.06
574.77	0
574.962	0.01
575.154	-0.02
575.346	0
575.538	0.03
575.729	-0
575.921	-0.01
576.113	0.02
576.305	0.06
576.497	0.01
576.689	-0
576.88	0
577.072	0.03
577.264	-0.01
577.456	0.02
577.647	-0.08
577.839	0.02
578.031	0.05
578.223	-0.01
578.414	-0.02
578.606	0.01
578.798	0
578.989	0
579.181	-0.02
579.372	-0.01
579.564	-0.01
579.755	0
579.947	-0.01
580.139	0.03
580.33	-0.05
580.522	-0.01
580.713	-0.08
580.905	0.01
581.096	0.04
581.287	0.01
581.479	-0
581.67	0.02
581.862	-0.02
582.053	-0
582.244	-0.05
582.436	0
582.627	0.02
582.818	-0.03
583.01	-0.02
583.201	0.01
583.392	0.02
583.583	-0.01
583.775	-0.01
583.966	-0.01
584.157	-0.01
584.348	-0.04
584.54	-0.04
584.731	0.01
584.922	-0.02
585.113	-0.03
585.304	0.01
585.495	0.02
585.686	-0
585.877	0.01
586.068	0
586.259	0.02
586.45	0.02
586.641	-0.04
586.832	-0.08
587.023	0.01
587.214	-0.01
587.405	0.01
587.596	-0.04
587.787	0.03
587.978	0.01
588.169	-0.02
588.36	-0.04
588.551	0.02
588.742	-0.02
588.932	-0.01
589.123	-0.03
589.314	0.03
589.505	0.03
589.696	0.01
589.886	-0.01
590.077	-0.05
590.268	0.04
590.458	-0.05
590.649	-0.03
590.84	0.02
591.03	-0.03
591.221	-0.03
591.412	-0.05
591.602	0.01
591.793	0.02
591.984	-0.03
592.174	-0.04
592.365	0.08
592.555	-0.03
592.746	0.02
592.936	0
593.127	0.02
593.317	0.03
593.508	-0.02
593.698	-0.04
593.889	-0.01
594.079	-0.01
594.269	-0.02
594.46	-0.01
594.65	-0
594.84	-0.01
595.031	-0.03
595.221	-0.04
595.411	-0.03
595.602	-0.01
595.792	-0.01
595.982	-0.02
596.172	0.03
596.363	-0
596.553	0.01
596.743	-0.02
596.933	-0.01
597.123	0.04
597.314	-0.04
597.504	-0.03
597.694	0.05
597.884	0.02
598.074	-0.01
598.264	-0.01
598.454	-0.01
598.644	0.01
598.834	-0.01
599.024	-0.06
599.214	-0.04
599.404	-0
599.594	-0.03
599.784	-0.05
599.974	0.06
600.164	0.02
600.354	-0.05
600.544	-0.05
600.734	-0.01
600.924	0.04
601.114	-0.05
601.303	-0.01
601.493	0.01
601.683	-0
601.873	-0.01
602.063	-0.07
602.252	-0.01
602.442	-0.06
602.632	-0.04
602.821	-0.06
603.011	0
603.201	-0.01
603.39	-0.05
603.58	-0.04
603.77	0.01
603.959	0.06
604.149	-0.01
604.339	-0.03
604.528	0.01
604.718	0.02
604.907	-0.03
605.097	-0.01
605.286	-0.04
605.476	0.01
605.665	0.01
605.855	-0.03
606.044	0.02
606.234	0.02
606.423	0
606.612	-0.02
606.802	-0.01
606.991	0.02
607.181	-0.01
607.37	-0.05
607.559	0
607.749	-0.03
607.938	-0.02
608.127	-0.01
608.316	-0.03
608.506	0.03
608.695	-0.01
608.884	-0.02
609.073	-0.01
609.263	0.01
609.452	0.01
609.641	0.01
609.83	-0.02
610.019	-0.02
610.208	-0.05
610.397	-0.01
610.586	0.01
610.775	-0.03
610.965	-0.04
611.154	-0.02
611.343	0
611.532	-0.01
611.721	-0.04
611.91	-0.03
612.099	0.05
612.287	-0.01
612.476	-0.04
612.665	-0.02
612.854	-0.04
613.043	0.02
613.232	-0.03
613.421	-0.05
613.61	-0.01
613.798	-0.05
613.987	-0.01
614.176	-0.03
614.365	0.03
614.554	-0
614.742	0.01
614.931	-0.04
615.12	0.03
615.309	-0.05
615.497	0.02
615.686	0.01
615.875	-0.03
616.063	-0.01
616.252	-0.05
616.44	-0.03
616.629	-0
616.818	0.03
617.006	-0.02
617.195	-0.03
617.383	-0
617.572	-0.02
617.76	-0.01
617.949	-0.04
618.137	0
618.326	0.03
618.514	-0.03
618.703	-0.05
618.891	0.05
619.079	-0.07
619.268	0.03
619.456	-0.02
619.644	0.02
619.833	-0.02
620.021	-0.04
620.209	-0.04
620.398	-0.01
620.586	-0.02
620.774	0.02
620.962	0
621.151	0.03
621.339	-0.03
621.527	-0.04
621.715	-0.08
621.903	-0.02
622.092	-0.06
622.28	-0.02
622.468	-0.02
622.656	-0.02
622.844	0.01
623.032	-0.05
623.22	-0.07
623.408	0.03
623.596	-0
623.784	0
623.972	-0.05
624.16	-0.02
624.348	0.05
624.536	0
624.724	-0.02
624.912	0.02
625.1	0.04
625.288	-0.07
625.476	-0.04
625.664	0.02
625.851	-0.05
626.039	-0.01
626.227	-0.01
626.415	-0.02
626.603	-0.03
626.79	-0.02
626.978	-0.02
627.166	0.01
627.354	-0
627.541	-0.02
627.729	-0.06
627.917	0.02
628.104	0.01
628.292	-0
628.48	-0.01
628.667	-0.03
628.855	-0.03
629.042	0.03
629.23	-0
629.418	-0.02
629.605	-0.01
629.793	-0.04
629.98	-0.03
630.168	-0.02
630.355	-0
630.543	0
630.73	-0.05
630.917	0
631.105	0.04
631.292	-0.04
631.48	0.01
631.667	0.06
631.854	-0.02
632.042	-0.03
632.229	-0.07
632.416	-0.02
632.604	-0.04
632.791	-0.05
632.978	0.03
633.165	0
633.353	0.03
633.54	0.01
633.727	-0.04
633.914	-0.06
634.101	-0.06
634.289	0.05
634.476	-0.07
634.663	-0.02
634.85	-0
635.037	-0.05
635.224	-0.1
635.411	-0.01
635.598	0.02
635.785	-0.02
635.972	0.01
636.159	0.03
636.346	-0.03
636.533	-0.03
636.72	-0.01
636.907	-0.04
637.094	0.01
637.281	-0.01
637.468	-0
637.655	-0.01
637.842	-0.03
638.029	-0.03
638.215	0.05
638.402	0.01
638.589	-0.06
638.776	-0.04
638.963	0
639.149	0.01
639.336	0.06
639.523	-0.02
639.709	-0.02
639.896	-0.04
640.083	0.03
640.27	0.03
640.456	-0
640.643	0.01
640.829	-0.05
641.016	0.01
641.203	-0.06
641.389	0.03
641.576	0.03
641.762	-0.01
641.949	-0.03
642.135	0.02
642.322	0.02
642.508	-0.06
642.695	-0.01
642.881	-0.02
643.068	-0.02
643.254	-0.01
643.441	0.01
643.627	-0.04
643.813	-0.03
644	0.03
644.186	-0.04
644.372	0.01
644.559	0.03
644.745	-0.03
644.931	-0.03
645.118	0
645.304	0
645.49	-0.04
645.676	-0.01
645.862	-0.02
646.049	0.02
646.235	-0.03
646.421	0.03
646.607	0.07
646.793	-0.02
646.979	-0.05
647.165	-0.02
647.352	-0
647.538	0.04
647.724	-0.02
647.91	0.01
648.096	0.01
648.282	0.02
648.468	-0.04
648.654	-0.03
648.84	-0.02
649.026	-0.01
649.212	-0.02
649.397	-0.02
649.583	-0.06
649.769	-0.01
649.955	-0.03
650.141	-0.01
650.327	0.06
650.513	-0.02
650.698	-0.01
650.884	-0.04
651.07	0.01
651.256	-0.01
651.442	-0.02
651.627	-0.03
651.813	0.01
651.999	0.03
652.184	-0
652.37	-0.05
652.556	-0.04
652.741	0.06
652.927	-0.12
653.113	-0.02
653.298	0.02
653.484	-0.03
653.669	-0.04
653.855	-0.05
654.04	0.04
654.226	0.04
654.412	-0.01
654.597	-0.04
654.782	-0.01
654.968	0.04
655.153	-0.02
655.339	-0.02
655.524	-0.05
655.71	0.06
655.895	-0.05
656.08	-0.01
656.266	0.04
656.451	-0.01
656.636	-0.04
656.822	-0.01
657.007	-0.04
657.192	-0.02
657.378	-0.03
657.563	-0.02
657.748	0.03
657.933	-0.02
658.118	-0.01
658.304	-0.03
658.489	0.04
658.674	0.02
658.859	-0.07
659.044	-0.01
659.229	0.01
659.414	-0.04
659.599	-0.01
659.785	-0.08
659.97	-0.02
660.155	0.02
660.34	-0.01
660.525	-0.03
660.71	-0.05
660.895	0.01
661.08	-0.02
661.264	-0.02
661.449	0.05
661.634	0.04
661.819	0.01
662.004	0.01
662.189	-0.12
662.374	-0.03
662.559	-0.05
662.743	-0.07
662.928	-0.02
663.113	-0.04
663.298	-0.09
663.483	-0.02
663.667	0.05
663.852	-0.12
664.037	0.03
664.221	-0.06
664.406	0.04
664.591	0.01
664.775	-0
664.96	0.02
665.145	-0.03
665.329	0.05
665.514	-0.05
665.698	-0.02
665.883	-0.09
666.068	0.06
666.252	-0.01
666.437	-0.04
666.621	0
666.806	0.02
666.99	-0.02
667.174	-0.06
667.359	0.07
667.543	-0.02
667.728	-0.01
667.912	-0.07
668.096	0.01
668.281	-0.01
668.465	-0.04
668.649	0.01
668.834	-0.07
669.018	-0.02
669.202	-0.02
669.387	-0.05
669.571	0.04
669.755	-0.02
669.939	-0
670.124	-0.01
670.308	0.04
670.492	0.03
670.676	-0.04
670.86	-0.03
671.044	-0.06
671.228	-0.03
671.413	-0.05
671.597	-0.02
671.781	-0.05
671.965	0.03
672.149	-0.01
672.333	-0.03
672.517	-0.02
672.701	-0.03
672.885	-0.04
673.069	-0.1
673.253	0.04
673.437	-0.03
673.621	-0.04
673.804	-0.05
673.988	-0.01
674.172	-0.04
674.356	-0.06
674.54	-0.03
674.724	0.09
674.908	-0.05
675.091	0
675.275	-0.01
675.459	0.05
675.643	-0.02
675.826	0
676.01	-0.01
676.194	-0.03
676.377	0.02
676.561	-0
676.745	-0.02
676.928	-0.01
677.112	-0.01
677.296	-0.03
677.479	-0.03
677.663	-0.04
677.846	0
678.03	-0.03
678.213	-0.02
678.397	-0.01
678.58	-0.07
678.764	-0.03
678.947	-0.08
679.131	-0.04
679.314	0.04
679.498	-0.03
679.681	0.01
679.865	0.03
680.048	-0.01
680.231	-0.04
680.415	-0.05
680.598	-0.04
680.781	0.06
680.965	-0.03
681.148	0.02
681.331	-0.04
681.514	-0
681.698	-0.04
681.881	-0.03
682.064	-0.01
682.247	0.02
682.43	-0.07
682.614	-0.01
682.797	0.06
682.98	0.01
683.163	-0.05
683.346	0.02
683.529	-0.03
683.712	-0.06
683.895	-0.01
684.078	-0.1
684.261	0.04
684.444	-0.01
684.627	-0.01
684.81	-0.06
684.993	-0.04
685.176	-0
685.359	-0.08
685.542	-0.07
685.725	0.02
685.908	0.01
686.091	-0.05
686.274	-0
686.457	0.01
686.639	0.04
686.822	0.01
687.005	-0.04
687.188	-0.01
687.371	0.05
687.553	-0
687.736	0.01
687.919	0.11
688.102	0.06
688.284	-0.05
688.467	-0.02
688.65	-0.03
688.832	-0.03
689.015	0.02
689.197	-0.08
689.38	0.08
689.563	0.05
689.745	-0.01
689.928	-0.07
690.11	-0.03
690.293	0.05
690.475	-0.11
690.658	0.02
690.84	-0
691.023	-0.02
691.205	-0.02
691.388	0.02
691.57	0.02
691.752	0.01
691.935	-0.07
692.117	-0.03
692.3	0.02
692.482	-0.04
692.664	-0.01
692.847	0.03
693.029	0.05
693.211	-0.02
693.393	-0.05
693.576	-0.08
693.758	0.03
693.94	-0.05
694.122	0.01
694.304	-0.02
694.487	-0.02
694.669	0.11
694.851	-0.13
695.033	-0.02
695.215	-0.06
695.397	-0.04
695.579	0.01
695.761	-0.06
695.943	-0.09
696.125	0.06
696.308	-0
696.49	-0.07
696.671	0.09
696.853	0
697.035	0.1
697.217	0
697.399	0.03
697.581	-0.07
697.763	-0.01
697.945	-0.07
698.127	0
698.309	0.06
698.491	-0.02
698.672	0.01
698.854	0.05
699.036	0.07
699.218	-0.04
699.399	0.07
699.581	0.03
699.763	0.03
699.945	-0.06
700.126	-0.05
700.308	-0
700.49	-0.05
700.671	-0.1
700.853	-0.04
701.035	-0.02
701.216	0.05
701.398	-0.1
701.579	-0.05
701.761	0.04
701.943	-0.01
702.124	-0.08
702.306	0
702.487	0.13
702.669	0.03
702.85	-0.05
703.031	0.01
703.213	0.08
703.394	0.06
703.576	-0.05
703.757	0.04
703.938	0.02
704.12	0.14
704.301	0
704.483	-0.09
704.664	0.01
704.845	0.06
705.026	0.04
705.208	-0.04
705.389	0.01
705.57	-0.02
705.751	-0.04
705.933	0.03
706.114	0.03
706.295	0
706.476	-0.08
706.657	0.1
706.838	0.03
707.02	0.02
707.201	0.01
707.382	-0.03
707.563	0.04
707.744	-0.04
707.925	-0.06
708.106	-0.05
708.287	0.05
708.468	0.07
708.649	-0.01
708.83	0.01
709.011	-0.07
709.192	0.05
709.373	-0.07
709.554	-0.01
709.734	0.06
709.915	0.04
710.096	0.04
710.277	-0.12
710.458	-0.01
710.639	0.04
710.819	-0.13
711	-0.01
711.181	0.08
711.362	0.07
711.542	0.04
711.723	-0.01
711.904	0
712.085	0.01
712.265	0.01
712.446	-0.04
712.627	-0.02
712.807	-0
712.988	-0.03
713.168	-0.12
713.349	0
713.53	-0.1
713.71	-0.08
713.891	-0.14
714.071	0.02
714.252	-0.04
714.432	-0
714.613	-0.12
714.793	-0
714.974	0.1
715.154	-0.01
715.334	0.07
715.515	0.06
715.695	-0.01
715.876	-0.01
716.056	-0.04
716.236	-0.07
716.417	-0.03
716.597	-0.04
716.777	0.06
716.957	-0.06
717.138	-0.04
717.318	-0.05
717.498	-0.1
717.678	-0.01
717.859	0.05
718.039	-0.08
718.219	-0.03
718.399	0.03
718.579	-0.07
718.759	-0.09
718.939	-0.02
719.12	-0.1
719.3	-0.04
719.48	-0.17
719.66	-0.08
719.84	0.06
720.02	-0.01
720.2	-0.06
720.38	0.03
720.56	0.11
720.74	-0.01
720.92	-0.01
721.1	0.04
721.279	0.08
721.459	-0.01
721.639	-0.07
721.819	-0.01
721.999	-0.07
722.179	-0.02
722.359	-0.08
722.538	0.01
722.718	0.03
722.898	-0.08
723.078	-0.03
723.257	-0.03
723.437	-0.06
723.617	-0.03
723.797	-0.02
723.976	0
724.156	0.08
724.336	0.05
724.515	0.06
724.695	-0.12
724.874	-0.05
725.054	0.09
725.234	-0.09
725.413	-0.04
725.593	0.03
725.772	-0.03
725.952	-0.09
726.131	-0
726.311	0.02
726.49	-0.04
726.67	-0.14
726.849	-0.01
727.028	0.05
727.208	0.02
727.387	0.04
727.567	-0.13
727.746	-0.02
727.925	0
728.105	-0.15
728.284	-0
728.463	-0.11
728.643	0.01
728.822	-0.04
729.001	-0.07
729.18	-0.05
729.359	0.04
729.539	-0.1
729.718	-0.07
729.897	0.03
730.076	-0.09
730.255	-0.16
730.434	-0.03
730.614	0.08
730.793	0.08
730.972	-0.1
731.151	0
731.33	0.08
731.509	0.01
731.688	-0.02
731.867	0.05
732.046	-0.17
732.225	0.2
732.404	-0.1
732.583	-0.01
732.762	-0.02
732.941	0.01
733.12	-0.04
733.298	0
733.477	0.02
733.656	-0.15
733.835	-0.14
734.014	0.09
734.193	-0.06
734.371	0.06
734.55	0.03
734.729	-0.11
734.908	0
735.086	0.02
735.265	0.01
735.444	-0.13
735.623	-0.1
735.801	-0.09
735.98	-0.05
736.159	-0.08
736.337	-0.02
736.516	-0.05
736.694	-0.03
736.873	-0.05
737.052	0.07
737.23	0.09
737.409	-0.09
737.587	0.13
737.766	-0.16
737.944	-0.09
738.123	0.02
738.301	0.08
738.479	-0.09
738.658	-0.01
738.836	-0.11
739.015	-0.09
739.193	0.05
739.371	-0.07
739.55	-0.02
739.728	-0.16
739.906	0.14
740.085	0.11
740.263	-0.02
740.441	-0.14
740.62	0.12
740.798	0.06
740.976	-0.14
741.154	-0.12
741.332	0.11
741.511	-0.08
741.689	0.03
741.867	0.17
742.045	-0.09
742.223	-0.04
742.401	-0.09
742.579	-0.01
742.757	-0.03
742.935	-0.11
743.114	-0.08
743.292	-0.02
743.47	0.06
743.648	0.08
743.826	-0.2
744.004	0.03
744.181	0.09
744.359	-0.16
744.537	0.03
744.715	-0.04
744.893	-0.1
745.071	0.04
745.249	-0.08
745.427	-0.11
745.605	0.04
745.782	0.04
745.96	0.08
746.138	-0.06
746.316	0.02
746.493	-0.09
746.671	0.1
746.849	-0.02
747.027	0.01
747.204	-0.04
747.382	0.04
747.56	-0.16
747.737	0.02
747.915	-0.12
748.093	0.09
748.27	-0.12
748.448	-0.06
748.625	-0.15
748.803	-0.13
748.98	-0.16
749.158	0.03
749.335	0.09
749.513	-0.08
749.69	-0.12
749.868	-0.12
750.045	-0.01
750.223	-0.05
750.4	-0.21
750.578	0.24
750.755	0.03
750.932	-0.11
751.11	0.08
751.287	-0.12
751.464	0.14
751.642	-0.14
751.819	0.05
751.996	0.03
752.173	-0.17
752.351	-0.09
752.528	-0.02
752.705	-0.13
752.882	-0.13
753.06	0
753.237	0.07
753.414	0.22
753.591	0.08
753.768	-0.05
753.945	-0
754.122	0.02
754.299	0.08
754.476	-0.16
754.654	-0.02
754.831	0.11
755.008	0.02
755.185	-0.16
755.362	-0.14
755.539	0.05
755.716	-0.15
755.892	0.05
756.069	0.02
756.246	-0.1
756.423	-0.09
756.6	0.21
756.777	-0.07
756.954	0.14
757.131	-0.09
757.307	-0.12
757.484	-0.08
757.661	-0.01
757.838	0
758.015	-0.18
758.191	0.05
758.368	0.03
758.545	0.14
758.721	-0.03
758.898	-0.07
759.075	-0
759.251	0.1
759.428	0.12
759.605	-0.14
759.781	-0.04
759.958	0.02
760.134	0.04
760.311	-0.11
760.488	0.07
760.664	0.2
760.841	-0.04
761.017	-0.23
761.194	-0.07
761.37	0.03
761.547	-0.03
761.723	-0.02
761.899	0.08
762.076	-0.05
762.252	-0.01
762.429	-0.06
762.605	0.18
762.781	-0.05
762.958	0.07
763.134	-0.09
763.31	-0.06
763.486	0.07
763.663	-0.17
763.839	0.02
764.015	-0.22
764.191	-0.17
764.368	-0.09
764.544	-0.12
764.72	0.03
764.896	0.09
765.072	-0.08
765.248	0.05
765.425	-0.04
765.601	0.01
765.777	-0.01
765.953	-0.28
766.129	-0.14
766.305	-0.05
766.481	0.08
766.657	-0.05
766.833	0.14
767.009	-0.09
767.185	0
767.361	-0.17
767.537	-0.18
767.713	0.02
767.889	-0.06
768.065	-0.04
768.24	0.06
768.416	0.12
768.592	-0
768.768	-0.05
768.944	0.05
769.12	-0.17
769.295	-0.06
769.471	-0.1
769.647	0.1
769.823	0.21
769.998	-0.17
770.174	-0.21
770.35	0.38
770.525	0.26
770.701	0.01
770.877	0.08
771.052	-0.15
771.228	0.11
771.403	0.11
771.579	-0.04
771.755	0.26
771.93	0.03
772.106	-0.23
772.281	-0.16
772.457	0.07
772.632	-0.08
772.808	-0.19
772.983	-0.05
773.159	-0.15
773.334	0.21
773.509	0.01
773.685	-0.16
773.86	0.33
774.036	0.13
774.211	0.06
774.386	-0.09
774.562	0.01
774.737	0.03
774.912	-0.08
775.087	0.04
775.263	-0.03
775.438	-0.05
775.613	-0.1
775.788	-0.05
775.964	0.15
776.139	0.38
776.314	-0.16
776.489	0.09
776.664	0.17
776.839	-0.1
777.014	0.1
777.19	0.07
777.365	0.23
777.54	0.2
777.715	0.01
777.89	-0.02
778.065	-0.03
778.24	-0.15
778.415	0.21
778.59	-0.2
778.765	-0.03
778.94	-0.05
779.115	-0.12
779.289	-0.09
779.464	-0.02
779.639	0.03
779.814	-0.26
779.989	-0.14
780.164	0.15
780.339	0.09
780.513	-0.34
780.688	-0.26
780.863	-0.04
781.038	0.02
781.212	-0.24
781.387	-0.09
781.562	0.4
781.737	0.01
781.911	0.13
782.086	-0.06
782.261	0.05
782.435	0.25
782.61	-0.18
782.784	-0.09
782.959	0.28
783.134	-0.03
783.308	-0.23
783.483	-0.14
783.657	0.38
783.832	0.21
784.006	-0.2
784.181	-0.05
784.355	0.03
784.53	-0.37
784.704	-0.13
784.878	0.34
785.053	0.11
785.227	0.19
785.402	0.15
785.576	-0.2
785.75	-0.17
785.925	-0.11
786.099	0.11
786.273	0.07
786.448	0.21
786.622	0.06
786.796	-0.16
786.97	-0.29
787.145	0.39
787.319	-0.19
787.493	-0.13
787.667	-0.34
787.841	-0.07
788.015	-0.04
788.19	-0.11
788.364	-0.06
788.538	0.01
788.712	0.01
788.886	0
789.06	0.14
789.234	-0.09
789.408	-0.44
789.582	-0.12
789.756	-0.23
789.93	-0.08
790.104	-0.04
790.278	-0.25
790.452	-0.23
790.626	-0.12
790.8	-0.16
790.973	0.17
791.147	0.15
791.321	0.14
791.495	0.22
791.669	0.07
791.843	0.04
792.016	0.05
792.19	0.43
792.364	-0.39
792.538	0.39
792.711	0.35
792.885	-0.09
793.059	-0.17
793.233	-0.53
793.406	0.19
793.58	0.01
793.754	0.08
793.927	-0.15
794.101	0.21
794.274	-0.11
794.448	0.35
794.622	-0.27
794.795	0.25
794.969	-0.21
795.142	0.43
795.316	-0.15
795.489	0.22
795.663	0.22
795.836	-0.26
796.009	-0.19
796.183	0.27
796.356	0.21
796.53	0.05
796.703	-0.21
796.876	0.21
797.05	0.02
797.223	-0.08
797.396	0.07
797.57	-0.02
797.743	0.06
797.916	0.08
798.09	-0.22
798.263	0.32
798.436	0.01
798.609	0.04
798.782	-0.11
798.956	0.01
799.129	0.05
799.302	-0.13
799.475	-0.27
799.648	-0.28
799.821	-0.31
799.994	-0.01
800.167	-0.22
800.34	0.16
800.514	0.01
800.687	-0.21
800.86	-0.16
801.033	0.1
801.206	0.43
801.379	-0.4
801.551	0.23
801.724	0.09
801.897	0.33
802.07	-0
802.243	-0.51
802.416	-0.29
802.589	0.03
802.762	0.19
802.935	-0.3
803.107	0
803.28	0.24
803.453	0.15
803.626	-0.3
803.798	0.08
803.971	-0.24
804.144	0.17
804.317	0.11
804.489	0.21
804.662	-0.05
804.835	-0.11
805.007	-0.27
805.18	0.44
805.353	0.1
805.525	-0.03
805.698	-0.09
805.87	0.09
806.043	0.2
806.215	-0.4
806.388	-0.24
806.56	0.29
806.733	-0.01
806.905	0.09
807.078	0.12
807.25	0.18
807.423	0.34
807.595	-0.01
807.768	-0.04
807.94	0.08
808.112	0.24
808.285	-0.15
808.457	-0.01
808.629	0.07
808.802	0.21
808.974	-0.17
809.146	-0.22
809.318	-0.31
809.491	0.12
809.663	0.23
809.835	-0.35
810.007	0.18
810.18	-0.27
810.352	-0.26
810.524	-0.39
810.696	0.15
810.868	0.13
811.04	0.05
811.212	0.01
811.384	0.09
811.556	0.1
811.728	0.11
811.901	0.29
812.073	-0.21
812.245	0.19
812.417	-0.03
812.589	-0.86
812.76	0.08
812.932	0.27
813.104	0.06
813.276	-0.08
813.448	0.43
813.62	0.11
813.792	-0.24
813.964	-0.32
814.136	0.19
814.307	-0.44
814.479	-0.1
814.651	0.02
814.823	0.59
814.995	-0.17
815.166	-0.01
815.338	-0.15
815.51	-0.43
815.681	1.15
815.853	0.1
816.025	-0.11
816.196	0.74
816.368	0.5
816.54	-0.53
816.711	-0.16
816.883	0.12
817.054	0.99
817.226	-0.62
817.398	0.29
817.569	-0.1
817.741	0.31
817.912	0.18
818.084	-0.07
818.255	0.58
818.426	0.02
818.598	0.2
818.769	-0.32
818.941	0.21
819.112	0.65
819.283	0.21
819.455	-0.71
819.626	0.05
819.798	0.43
819.969	0.03
820.14	-0.2
820.311	0.14
820.483	0.14
820.654	-0.04
820.825	0.3
820.996	-0.49
821.168	-0.17
821.339	-0.36
821.51	-0.69
821.681	0.79
821.852	0.06
822.023	-0.97
822.195	-0.53
822.366	0.68
822.537	0.22
822.708	0.15
822.879	-0.09
823.05	0.33
823.221	-0.09
823.392	0.35
823.563	0.13
823.734	0.27
823.905	0.15
824.076	-0.4
824.247	-0.29
824.418	-0.09
824.589	0.11
824.759	0.23
824.93	0.03
825.101	-0.71
825.272	0.69
825.443	0.18
825.614	0.22
825.784	-1.21
825.955	0.61
826.126	0.88
826.297	0.05
826.467	0.41
826.638	0.58
826.809	-0.88
826.98	-0.17
827.15	0.18
827.321	-0.59
827.492	0.57
827.662	-0.53
827.833	1.25
828.003	0.45
828.174	-0.7
828.345	-0.33
828.515	0.92
828.686	0.17
828.856	-0.19
829.027	-0.13
829.197	0.37
829.368	0.1
829.538	-0.01
829.709	-0.01
829.879	0.14
830.049	-0.27
830.22	-0.12
830.39	-0.11
830.56	0.68
830.731	-0.61
830.901	-0.62
831.072	0.07
831.242	-0.14
831.412	0.1
831.582	-0.62
831.753	-0.32
831.923	0.28
832.093	-0.28
832.263	-0.28
832.434	-0.49
832.604	-0.24
832.774	0.45
832.944	-0.7
833.114	0.08
833.284	0.52
833.454	-0.12
833.624	-0.69
833.795	-0.21
833.965	1.05
834.135	0.4
834.305	-1.17
834.475	-0.46
834.645	-0.1
834.815	0.21
834.985	-0.49
835.155	-0.05
835.325	0.55
835.494	0.22
835.664	-0.25
835.834	-1.06
836.004	-0.09
836.174	-0.19
836.344	0.13
836.514	-1.02
836.684	0.27
836.853	0.39
837.023	0.21
837.193	-0.28
837.363	0.4
837.532	0.54
837.702	-0.29
837.872	-0.8
838.041	0.5
838.211	1.62
838.381	-0.68
838.55	-0.31
838.72	1.94
838.89	0.18
839.059	0.05
839.229	-0.49
839.398	1.36
839.568	-0.31
839.738	-0.45
839.907	0.77
840.077	-0.18
840.246	-0.2
840.416	-0.78
840.585	-0.01
840.755	1.21
840.924	0.45
841.093	-0.56
841.263	-0.26
841.432	-0.28
841.602	-0.71
841.771	-0.62
841.94	-0.81
842.11	1.62
842.279	1.32
842.448	-0.59
842.617	-0.49
842.787	0.97
842.956	-0.82
843.125	0.48
843.294	-0.71
843.464	1.44
843.633	-0.04
843.802	-1.32
843.971	-0.07
844.14	0.75
844.309	0.24
844.479	-0.24
844.648	-0.95
844.817	-0.42
844.986	0.26
845.155	-0.69
845.324	-0.19
845.493	-0.6
845.662	-0.53
845.831	0.76
846	0.4
846.169	0.26
846.338	1.71
846.507	-0.22
846.676	0.72
846.844	-0.53
847.013	0.95
847.182	-0.19
847.351	-0.09
847.52	0.07
847.689	0.06
847.858	0.02
848.026	-0.51
848.195	-0.25
848.364	-0.06
848.533	-0.59
848.701	-1.08
848.87	-0.54
849.039	0.76
849.207	0.28
849.376	1.06
849.545	0.57
849.713	-0.53
849.882	0.02
850.051	0.24
850.219	0.12
850.388	0.62
850.556	-1.21
850.725	-1.8
850.893	0.33
851.062	-0.87
851.23	0.43
851.399	-1.74
851.567	-1.11
851.736	-0.27
851.904	-0.5
852.073	0.43
852.241	0.16
852.41	-0.35
852.578	0.35
852.746	-1.01
852.915	-0.01
853.083	0.13
853.251	-1.49
853.42	-0.65
853.588	0.09
853.756	1.07
853.924	-0.09
854.093	0.02
854.261	-0.79
854.429	-0.55
854.597	-0.14
854.765	-0.89
854.934	0.9
855.102	1.4
855.27	-0.11
855.438	0.22
855.606	0.28
855.774	0.95
855.942	-1.83
856.11	-1.72
856.278	0.36
856.446	0.42
856.614	0.14
856.782	-0.41
856.95	1.49
857.118	0.43
857.286	-0.36
857.454	-0.72
857.622	1.15
857.79	0.74
857.958	-0.83
858.126	-0.35
858.294	-2.82
858.462	-0.59
858.629	-0.72
858.797	-0.85
858.965	-0.49
859.133	0.4
859.301	-0.15
859.468	0.17
859.636	-1.04
859.804	1.67
859.971	1.16
860.139	-1.53
860.307	1.19
860.474	-0.54
860.642	-0.91
860.81	-1.48
860.977	-0.22
861.145	0.73
861.313	0.97
861.48	-0.24
861.648	1.57
861.815	0.09
861.983	-0.81
862.15	-1.2
862.318	0.76
862.485	1.3
862.653	-1.06
862.82	-0.74
862.988	2.2
863.155	0.7
863.322	-1.87
863.49	-1.29
863.657	-1.12
863.824	1.88
863.992	0.76
864.159	-0.44
864.326	-0.17
864.494	-0.34
864.661	3.34
864.828	-1.82
864.996	0.64
865.163	1.06
865.33	-0.6
865.497	-2.67
865.664	-0.24
865.832	-0.91
865.999	-0.67
866.166	-1.6
866.333	-1.42
866.5	-0.82
866.667	-0.84
866.834	-1.18
867.001	1.69
867.168	-2.72
867.335	0.36
867.502	-1.9
867.669	-0.56
867.836	2.61
868.003	-1.05
868.17	0.77
868.337	-0.9
868.504	2.57
868.671	0.05
868.838	-0.57
869.005	0.26
869.172	0.95
869.339	0.66
869.505	-0.46
869.672	-0.14
869.839	1.4
870.006	0
870.173	-2.92
870.339	0.79
870.506	2.75
870.673	-1.8
870.84	1.4
871.006	-0.08
871.173	1.13
871.34	-0.05
871.506	-0.71
871.673	0.44
871.839	-1.96
872.006	-0.82
872.173	-1.22
872.339	-0.41
872.506	0.68
872.672	-0.53
872.839	-2.3
873.005	0.78
873.172	3.33
873.338	1.8
873.505	-0.52
873.671	2.41
873.838	0.71
874.004	-3.28
874.171	-2.9
874.337	1.49
874.503	1.12
874.67	0.26
874.836	-0.16
875.002	2.32
875.169	1.34
875.335	1.19
875.501	-1.67
875.668	0.7
875.834	0.23
876	-0.66
876.166	0.27
876.332	-0.54
876.499	2.04
876.665	-1.12
876.831	0.62
876.997	3.04
877.163	-1.14
877.329	1.04
877.495	-0.26
877.662	-1.1
877.828	-1.01
877.994	-1.05
878.16	-3.99
878.326	-0.24
878.492	0.7
878.658	-0.98
878.824	1.41
878.99	1.06
879.156	-2.29
879.322	2.26
879.487	-1.07
879.653	0.3
879.819	-0.32
879.985	-1.43
880.151	0.93
880.317	-0.84
880.483	0.67
880.648	2.18
880.814	-5.08
880.98	1.26
881.146	-1.95
881.312	-0.9
881.477	0.49
881.643	0.62
881.809	0.26
881.974	1.39
882.14	-2.61
882.306	-2.24
882.471	2.88
882.637	-2.01
882.803	0.15
882.968	2.94
883.134	3.22
883.299	-0.65
883.465	0.41
883.63	2.31
883.796	2.72
883.961	1.05
884.127	1.43
884.292	-3.43
884.458	-3.64
884.623	-3.63
