Data from Apollo_Calib_20240827__AbsoluteIrradiance__642__09-51-00-897.txt Node

Date: Wed Aug 28 09:51:00 BST 2024
User: biology
Spectrometer: FLMT08252
Trigger mode: 0
Integration Time (sec): 5.000000E-1
Scans to average: 5
Electric dark correction enabled: true
Nonlinearity correction enabled: false
Boxcar width: 0
XAxis mode: Wavelengths
Number of Pixels in Spectrum: 3648
>>>>>Begin Spectral Data<<<<<
179.588	-0
179.809	-0
180.03	-0
180.251	-0
180.473	-0
180.694	0
180.915	0
181.136	-0
181.357	0
181.578	-0
181.799	-0
182.02	-0
182.241	0
182.462	-0
182.683	0
182.904	-0
183.125	-0
183.346	0
183.567	0
183.788	-0
184.009	-0
184.23	0
184.451	0
184.672	-0
184.892	-0
185.113	-0
185.334	0
185.555	-0
185.776	-0
185.996	0
186.217	0
186.438	-0
186.659	-0
186.879	0
187.1	-0
187.321	-0
187.541	-0
187.762	-0
187.983	0
188.203	-0
188.424	-0
188.644	-0
188.865	-0
189.086	-0
189.306	-0
189.527	-0
189.747	0
189.968	-0
190.188	0
190.409	-0
190.629	0
190.849	-0
191.07	-0
191.29	0
191.511	0
191.731	-0
191.951	-0
192.172	-0
192.392	-0
192.612	-0
192.833	0
193.053	0
193.273	0
193.493	-0
193.714	-0
193.934	0
194.154	0
194.374	0
194.594	0
194.815	0
195.035	0
195.255	0
195.475	-0
195.695	0
195.915	0
196.135	0
196.355	0
196.575	0
196.795	0
197.015	-0
197.235	-0
197.455	-0
197.675	0
197.895	-0
198.115	-0
198.335	0
198.555	-0
198.775	-0
198.995	-0
199.214	0
199.434	-0
199.654	-0
199.874	0
200.094	0.91
200.313	0.12
200.533	-0.15
200.753	-0.74
200.973	0.41
201.192	0.34
201.412	-0.75
201.632	-0.63
201.851	0.56
202.071	-0.84
202.291	-0.02
202.51	-0.71
202.73	-0.02
202.95	-0.34
203.169	-0.43
203.389	-0.36
203.608	-0.1
203.828	-0
204.047	0.04
204.267	-0.08
204.486	0.3
204.706	0.29
204.925	-0.29
205.145	-0.23
205.364	0.53
205.583	0.45
205.803	-0.18
206.022	-0.5
206.242	0.01
206.461	0.12
206.68	-0.04
206.9	0.09
207.119	0.36
207.338	0.29
207.557	-0.07
207.777	-0
207.996	0.2
208.215	0.61
208.434	-0.2
208.654	-0.18
208.873	0.11
209.092	0.39
209.311	-0.12
209.53	-0.3
209.749	-0.22
209.968	-0.09
210.187	-0.09
210.407	-0.31
210.626	-0.25
210.845	0.22
211.064	0.28
211.283	-0.24
211.502	0.04
211.721	0.04
211.94	-0.23
212.159	0.04
212.377	0.29
212.596	0.04
212.815	-0.01
213.034	0.09
213.253	0.23
213.472	0.18
213.691	-0.25
213.91	-0.16
214.128	-0.15
214.347	0.33
214.566	-0.22
214.785	-0.2
215.003	0.2
215.222	0.29
215.441	-0.04
215.66	-0.22
215.878	-0.04
216.097	0.21
216.316	-0.3
216.534	-0.1
216.753	-0
216.972	-0.13
217.19	-0.11
217.409	-0.38
217.627	-0.19
217.846	-0.04
218.064	-0.07
218.283	-0.36
218.501	0.42
218.72	0.16
218.938	-0.15
219.157	-0.03
219.375	0.17
219.594	0.29
219.812	-0.28
220.031	-0.15
220.249	0.28
220.467	0.2
220.686	-0.16
220.904	-0.17
221.122	-0.05
221.341	0.26
221.559	0.03
221.777	-0.1
221.995	0.1
222.214	0.17
222.432	-0.07
222.65	0.07
222.868	0.05
223.086	0.02
223.305	0.09
223.523	-0.04
223.741	0.14
223.959	-0.2
224.177	-0.2
224.395	-0.15
224.613	0.02
224.831	0.15
225.049	-0.11
225.267	-0.12
225.485	-0.05
225.703	-0.1
225.921	-0.1
226.139	-0.12
226.357	0.1
226.575	-0.07
226.793	0.01
227.011	0.39
227.229	0.12
227.447	0.25
227.665	-0.06
227.883	-0.33
228.1	-0.03
228.318	0.1
228.536	-0.16
228.754	-0.13
228.972	0.08
229.189	0.04
229.407	-0.07
229.625	-0.01
229.843	0.22
230.06	0.1
230.278	-0.11
230.496	-0.06
230.713	-0.14
230.931	0.19
231.149	-0.04
231.366	-0.17
231.584	-0.03
231.801	0.39
232.019	-0.07
232.236	-0.12
232.454	-0.07
232.671	-0.11
232.889	-0.03
233.106	-0.11
233.324	0.03
233.541	-0.12
233.759	-0
233.976	0.02
234.194	0.01
234.411	0.01
234.628	-0.1
234.846	-0.07
235.063	0.07
235.28	0.01
235.498	-0.03
235.715	-0.17
235.932	0.11
236.149	-0.02
236.367	-0.11
236.584	0.07
236.801	-0.02
237.018	0.08
237.236	-0.03
237.453	-0.17
237.67	0.15
237.887	-0.11
238.104	0
238.321	-0.1
238.538	-0.03
238.755	0.13
238.973	-0.16
239.19	-0.03
239.407	0.06
239.624	0.03
239.841	-0.11
240.058	-0.02
240.275	-0.02
240.492	-0.01
240.709	-0
240.925	-0.01
241.142	-0.01
241.359	-0.08
241.576	-0.06
241.793	-0.15
242.01	0.08
242.227	0.08
242.444	0.12
242.66	0.11
242.877	0.01
243.094	0.03
243.311	0.1
243.527	0.07
243.744	-0.03
243.961	-0
244.178	-0.03
244.394	0.02
244.611	0.08
244.828	0.17
245.044	-0.06
245.261	0.01
245.477	0.09
245.694	0.04
245.911	0.03
246.127	0
246.344	0.2
246.56	0.08
246.777	-0
246.993	0.01
247.21	0.07
247.426	0.11
247.643	-0.05
247.859	-0.1
248.076	-0.11
248.292	0.26
248.508	-0
248.725	0.07
248.941	0.01
249.157	0.16
249.374	-0.02
249.59	-0.1
249.806	0
250.023	0.05
250.239	-0.1
250.455	-0.03
250.671	0.08
250.888	0.06
251.104	0.01
251.32	-0.04
251.536	-0.04
251.752	-0.05
251.969	0.08
252.185	0.06
252.401	0.2
252.617	0.01
252.833	0.01
253.049	0.01
253.265	0
253.481	-0.02
253.697	-0.04
253.913	-0.08
254.129	0.03
254.345	0.03
254.561	-0.01
254.777	-0.01
254.993	0.04
255.209	0.05
255.425	0.03
255.641	-0.02
255.857	0.08
256.073	0.06
256.288	-0.09
256.504	-0.01
256.72	0.03
256.936	0.11
257.152	0.01
257.367	-0.02
257.583	0.03
257.799	0.01
258.015	-0.08
258.23	0
258.446	0.16
258.662	0.03
258.877	-0.01
259.093	-0.05
259.309	0.07
259.524	0.04
259.74	-0.01
259.955	-0.11
260.171	-0.04
260.387	-0.01
260.602	0.02
260.818	0.08
261.033	-0.05
261.249	0.01
261.464	-0.01
261.68	-0.05
261.895	0.01
262.11	0.04
262.326	-0.01
262.541	-0.18
262.757	0.02
262.972	0.11
263.187	-0
263.403	-0.07
263.618	0.07
263.833	0.06
264.049	-0.08
264.264	0.04
264.479	0.07
264.694	0.09
264.91	-0.16
265.125	0.04
265.34	0.09
265.555	0.17
265.77	-0
265.986	-0.05
266.201	-0.03
266.416	0.12
266.631	0
266.846	0.01
267.061	0.04
267.276	0.01
267.491	-0.14
267.706	-0.04
267.921	0.06
268.136	-0.03
268.351	0.02
268.566	-0.09
268.781	0.12
268.996	0.06
269.211	0.02
269.426	-0.05
269.641	-0.03
269.856	0.08
270.071	-0.04
270.285	0
270.5	0.06
270.715	0.02
270.93	0.01
271.145	0.02
271.359	0.02
271.574	-0.07
271.789	0.05
272.004	-0.01
272.218	-0.03
272.433	0.04
272.648	-0.06
272.862	0.07
273.077	-0.01
273.292	-0.03
273.506	-0.01
273.721	0
273.936	0.05
274.15	0.03
274.365	-0.01
274.579	0.09
274.794	0.05
275.008	0.06
275.223	-0.08
275.437	-0.03
275.652	0.09
275.866	0.04
276.081	0.06
276.295	0.05
276.509	0.07
276.724	0.03
276.938	-0.01
277.153	0.02
277.367	0.02
277.581	-0.09
277.796	-0.03
278.01	-0.12
278.224	0.15
278.438	0.13
278.653	-0.09
278.867	-0.03
279.081	-0.15
279.295	-0.08
279.51	0.04
279.724	-0.06
279.938	0.04
280.152	0.04
280.366	-0.06
280.58	0.02
280.794	0.03
281.008	0.03
281.222	0.06
281.437	0.09
281.651	-0.02
281.865	0.13
282.079	-0.02
282.293	-0.13
282.507	-0.05
282.721	0
282.935	0.03
283.148	-0.04
283.362	-0.01
283.576	-0.07
283.79	-0.01
284.004	-0.03
284.218	0.06
284.432	0.01
284.646	0.02
284.859	-0.03
285.073	-0.02
285.287	0.08
285.501	-0
285.714	-0.01
285.928	0.02
286.142	0
286.356	-0.03
286.569	-0.03
286.783	0.08
286.997	0.03
287.21	0.01
287.424	0.01
287.637	-0.07
287.851	-0.01
288.065	0.05
288.278	0.01
288.492	-0.01
288.705	-0.01
288.919	0.02
289.132	-0.03
289.346	0.08
289.559	-0.06
289.773	-0.04
289.986	-0.01
290.2	-0
290.413	0.08
290.626	-0.03
290.84	-0.03
291.053	-0
291.267	0.07
291.48	0.01
291.693	0.01
291.906	-0.05
292.12	-0.02
292.333	-0.02
292.546	-0.01
292.76	0.06
292.973	0.05
293.186	-0.01
293.399	-0.01
293.612	0.08
293.826	-0.02
294.039	-0.02
294.252	-0.01
294.465	0.05
294.678	0.04
294.891	0
295.104	-0.03
295.317	-0.01
295.53	0.01
295.743	0
295.956	0.02
296.169	0.05
296.382	0.07
296.595	-0.02
296.808	-0.03
297.021	0.06
297.234	0.07
297.447	0.02
297.66	0.02
297.873	0.04
298.086	0.05
298.299	-0.02
298.511	-0.03
298.724	-0.02
298.937	-0.03
299.15	-0.01
299.363	-0.01
299.575	0.07
299.788	0.04
300.001	-0.01
300.213	-0.04
300.426	-0.01
300.639	-0.04
300.852	-0.04
301.064	0.06
301.277	0.08
301.489	-0.02
301.702	0.06
301.915	-0.03
302.127	0.01
302.34	0.03
302.552	0.04
302.765	-0.01
302.977	0.04
303.19	-0.02
303.402	-0.01
303.615	-0.02
303.827	-0.05
304.04	0
304.252	0.05
304.464	-0.02
304.677	0.08
304.889	0.08
305.102	-0.06
305.314	-0.04
305.526	0.07
305.739	-0.03
305.951	-0
306.163	-0.02
306.375	0.08
306.588	-0
306.8	-0.03
307.012	-0.02
307.224	0.03
307.436	0.03
307.649	-0.06
307.861	0.03
308.073	0.06
308.285	-0.01
308.497	-0.06
308.709	0.02
308.921	0.03
309.133	0.07
309.346	0
309.558	-0.02
309.77	0.04
309.982	0.08
310.194	0.02
310.406	0.04
310.617	0.1
310.829	0.04
311.041	0.01
311.253	-0.05
311.465	0.04
311.677	0.03
311.889	-0
312.101	-0.03
312.313	0.07
312.524	0.03
312.736	-0.04
312.948	-0.02
313.16	0.07
313.372	0.08
313.583	0.05
313.795	0.02
314.007	-0.07
314.218	0.06
314.43	-0.02
314.642	-0.02
314.853	-0.01
315.065	0.04
315.277	0
315.488	-0.01
315.7	0.05
315.912	0.05
316.123	-0.01
316.335	0.01
316.546	0.08
316.758	-0.02
316.969	-0.01
317.181	-0.01
317.392	0
317.604	0.04
317.815	-0.01
318.026	0.03
318.238	0.01
318.449	0.04
318.661	-0.09
318.872	-0.02
319.083	-0.06
319.295	0.04
319.506	-0.02
319.717	0.04
319.929	0.03
320.14	0.01
320.351	0.03
320.562	0.01
320.774	-0.01
320.985	0.03
321.196	-0.03
321.407	-0.07
321.618	0.05
321.829	0.02
322.041	0.03
322.252	0.02
322.463	0.03
322.674	0.04
322.885	-0.06
323.096	-0.03
323.307	-0.01
323.518	-0.04
323.729	-0.04
323.94	-0.05
324.151	-0.04
324.362	0.05
324.573	0.02
324.784	-0.04
324.995	0.05
325.206	0.04
325.417	-0.02
325.628	0.01
325.838	0.02
326.049	0.04
326.26	0.04
326.471	-0.02
326.682	0.05
326.892	0.02
327.103	-0.05
327.314	-0.07
327.525	0.05
327.735	-0.02
327.946	0.01
328.157	-0.02
328.368	0.05
328.578	-0.01
328.789	0.05
328.999	-0.02
329.21	0.04
329.421	0.02
329.631	-0.03
329.842	-0.02
330.052	0.06
330.263	0.05
330.473	0.03
330.684	0
330.894	-0.02
331.105	-0.03
331.315	0.02
331.526	-0.05
331.736	0.07
331.947	0.05
332.157	-0
332.367	-0.04
332.578	0.06
332.788	0.07
332.999	0.05
333.209	0.03
333.419	-0.02
333.629	0.01
333.84	0.06
334.05	0.02
334.26	0.03
334.47	-0.02
334.681	0.08
334.891	-0.03
335.101	0.06
335.311	0.08
335.521	-0
335.732	-0.07
335.942	0.04
336.152	0.06
336.362	0.09
336.572	0
336.782	0.04
336.992	-0.03
337.202	-0.01
337.412	-0.03
337.622	0.03
337.832	0.02
338.042	0.04
338.252	-0.05
338.462	-0.04
338.672	0.03
338.882	-0.03
339.092	0.02
339.302	0.04
339.511	0.03
339.721	-0.02
339.931	-0.03
340.141	0.04
340.351	0.04
340.561	0.02
340.77	-0.01
340.98	0.01
341.19	0.04
341.4	-0.02
341.609	-0.05
341.819	0.03
342.029	-0.03
342.238	-0.04
342.448	-0.05
342.658	0
342.867	0.03
343.077	0.02
343.286	-0.01
343.496	0
343.706	0.12
343.915	-0.01
344.125	-0.01
344.334	0.01
344.544	-0.02
344.753	0.03
344.963	-0
345.172	-0.01
345.381	-0.07
345.591	-0.07
345.8	0.01
346.01	0.07
346.219	0.06
346.428	-0.02
346.638	-0.03
346.847	0.01
347.056	0.09
347.266	-0.04
347.475	-0.02
347.684	0.05
347.893	0.01
348.103	0.02
348.312	-0.01
348.521	-0.02
348.73	-0.02
348.94	-0.02
349.149	-0.04
349.358	0.01
349.567	-0.06
349.776	-0.07
349.985	-0
350.194	0.05
350.403	0.05
350.612	-0.02
350.821	-0
351.03	0.02
351.239	-0.08
351.448	-0.02
351.657	-0.04
351.866	0.07
352.075	-0.03
352.284	0.03
352.493	-0.07
352.702	0.03
352.911	0.02
353.12	0.03
353.329	-0.03
353.538	0.05
353.746	-0.01
353.955	-0.03
354.164	0.02
354.373	0.01
354.582	0.05
354.79	0.02
354.999	0.04
355.208	0.02
355.416	0.03
355.625	-0.02
355.834	0.01
356.042	0.03
356.251	-0.01
356.46	-0.01
356.668	0.01
356.877	0.06
357.085	0.04
357.294	-0.07
357.503	0.01
357.711	-0.02
357.92	0.14
358.128	0.01
358.337	0
358.545	0.03
358.754	-0.06
358.962	0.04
359.17	0
359.379	0.02
359.587	0.02
359.796	0.03
360.004	0.07
360.212	0.02
360.421	0.02
360.629	0.03
360.837	-0
361.046	-0.01
361.254	0.1
361.462	0.04
361.67	-0.03
361.879	0.01
362.087	0.04
362.295	0.02
362.503	0
362.711	-0.03
362.92	-0.03
363.128	-0.02
363.336	-0.02
363.544	-0.07
363.752	-0.03
363.96	0
364.168	-0.06
364.376	-0.01
364.584	0.03
364.792	0.01
365	0.05
365.208	0.02
365.416	0.04
365.624	0.01
365.832	-0.03
366.04	0.05
366.248	0.03
366.456	0.04
366.664	-0.01
366.872	-0
367.079	0
367.287	0.02
367.495	0.04
367.703	-0.03
367.911	0.01
368.118	-0.01
368.326	0.03
368.534	-0.06
368.742	0.06
368.949	-0.03
369.157	-0.03
369.365	0.03
369.572	-0.02
369.78	-0.02
369.988	0.03
370.195	0.03
370.403	0.02
370.61	-0.01
370.818	-0.01
371.026	0.04
371.233	-0.04
371.441	0.03
371.648	-0.01
371.856	0.03
372.063	0.03
372.271	-0.01
372.478	-0.03
372.685	-0.01
372.893	0.05
373.1	0
373.308	-0.03
373.515	0.06
373.722	0
373.93	-0.01
374.137	0.01
374.344	0.06
374.552	0.06
374.759	0.06
374.966	0.05
375.173	-0.01
375.381	0.02
375.588	0.02
375.795	-0.09
376.002	-0.01
376.209	-0.03
376.417	0.01
376.624	-0.01
376.831	0.02
377.038	-0.01
377.245	-0.06
377.452	-0.04
377.659	-0.05
377.866	-0.03
378.073	0
378.28	0.02
378.487	0.05
378.694	0.02
378.901	-0.03
379.108	-0.02
379.315	0.02
379.522	0.11
379.729	0.01
379.936	0.02
380.143	0.03
380.35	0.01
380.557	-0.01
380.763	0.02
380.97	-0.01
381.177	0.02
381.384	0.01
381.591	-0.07
381.797	0.01
382.004	-0.01
382.211	0.02
382.418	-0.04
382.624	0.01
382.831	0.04
383.038	-0
383.244	-0.01
383.451	-0
383.658	0.05
383.864	0.02
384.071	-0.05
384.277	0.08
384.484	-0.01
384.69	0.02
384.897	0.03
385.103	0.01
385.31	-0.04
385.516	-0.01
385.723	-0.02
385.929	-0.01
386.136	-0.01
386.342	-0.01
386.549	-0.03
386.755	0.05
386.961	0.06
387.168	-0.02
387.374	-0.02
387.58	-0.01
387.787	0.01
387.993	0.03
388.199	-0
388.406	0.01
388.612	0.01
388.818	-0.05
389.024	-0.01
389.231	0.05
389.437	0.09
389.643	0.04
389.849	0.02
390.055	-0.01
390.261	-0.03
390.467	0
390.674	-0
390.88	0.03
391.086	0.06
391.292	-0.06
391.498	0.02
391.704	0.06
391.91	-0.01
392.116	-0.05
392.322	-0.07
392.528	-0
392.734	-0.01
392.94	-0.03
393.146	-0.02
393.352	-0
393.557	0.01
393.763	0.03
393.969	-0
394.175	-0.01
394.381	-0
394.587	-0.05
394.792	-0.03
394.998	0.04
395.204	0.01
395.41	-0.01
395.615	0.03
395.821	0.03
396.027	-0
396.233	-0.04
396.438	0.01
396.644	0.07
396.85	-0.01
397.055	-0
397.261	0
397.466	0.05
397.672	-0.01
397.878	0.03
398.083	0.02
398.289	-0
398.494	0.03
398.7	0.02
398.905	-0.09
399.111	0.08
399.316	-0.05
399.522	0.01
399.727	0.02
399.932	-0.01
400.138	-0.03
400.343	0.02
400.549	0.03
400.754	-0
400.959	-0.01
401.165	0.03
401.37	0.01
401.575	-0.07
401.78	-0.01
401.986	-0.01
402.191	-0.02
402.396	0
402.601	0.05
402.807	0.02
403.012	-0
403.217	0.06
403.422	-0.05
403.627	-0.01
403.832	-0
404.037	0.03
404.243	-0.02
404.448	-0.01
404.653	0.02
404.858	0
405.063	0
405.268	-0.03
405.473	-0.03
405.678	-0.03
405.883	0.09
406.088	0.03
406.293	-0.02
406.498	0.02
406.703	0.03
406.907	-0.01
407.112	-0.04
407.317	0.01
407.522	-0.02
407.727	-0.04
407.932	0.02
408.136	0.08
408.341	-0.02
408.546	-0
408.751	0.04
408.956	0.02
409.16	0.03
409.365	0
409.57	-0.02
409.774	0.04
409.979	0.02
410.184	0.03
410.388	-0
410.593	0.03
410.798	0.01
411.002	-0.03
411.207	0.02
411.411	0.01
411.616	-0.02
411.82	-0.01
412.025	0.06
412.229	-0.06
412.434	0.06
412.638	0.04
412.843	-0.04
413.047	0.06
413.252	-0.03
413.456	-0.01
413.66	0.01
413.865	0
414.069	0.06
414.273	-0.01
414.478	-0.02
414.682	-0.01
414.886	-0.05
415.091	-0.07
415.295	-0.08
415.499	-0.01
415.703	0.01
415.908	0.02
416.112	-0.08
416.316	0.02
416.52	-0.03
416.724	-0.07
416.929	-0.04
417.133	0.07
417.337	-0.06
417.541	-0.04
417.745	-0.01
417.949	0.04
418.153	-0.01
418.357	-0.06
418.561	0.09
418.765	0.03
418.969	0.1
419.173	0.04
419.377	-0.04
419.581	0.08
419.785	-0.03
419.989	-0.03
420.193	-0.02
420.397	-0.03
420.601	0.07
420.804	0.03
421.008	0.01
421.212	-0.01
421.416	0.02
421.62	-0.08
421.823	-0.03
422.027	0.06
422.231	0
422.435	-0.01
422.638	0.04
422.842	-0.03
423.046	-0.04
423.249	0.04
423.453	0.06
423.657	0.04
423.86	-0.04
424.064	0
424.268	0.06
424.471	-0.01
424.675	0.08
424.878	0.09
425.082	-0.01
425.285	0.05
425.489	0.01
425.692	-0.01
425.896	-0.02
426.099	0.04
426.303	-0.06
426.506	-0.06
426.71	-0
426.913	-0.01
427.116	-0
427.32	0
427.523	0.01
427.726	0.06
427.93	-0.06
428.133	-0.01
428.336	-0.09
428.54	-0.08
428.743	0.04
428.946	0.09
429.149	0.02
429.353	0.01
429.556	-0.01
429.759	0.01
429.962	-0.06
430.165	0
430.368	-0
430.571	-0.01
430.775	0.01
430.978	-0.03
431.181	0.01
431.384	0.02
431.587	0.01
431.79	-0.01
431.993	-0.01
432.196	-0.03
432.399	-0.03
432.602	0.05
432.805	-0
433.008	0.01
433.211	-0.08
433.414	0.01
433.616	-0.02
433.819	-0
434.022	-0.11
434.225	0.07
434.428	0.01
434.631	0.04
434.833	0.01
435.036	-0.04
435.239	0.08
435.442	0.02
435.645	0
435.847	-0
436.05	0.07
436.253	-0.02
436.455	-0.06
436.658	0.02
436.861	0.07
437.063	-0.02
437.266	-0.01
437.468	0.02
437.671	0.1
437.874	-0.02
438.076	-0.05
438.279	-0.07
438.481	-0.03
438.684	-0.08
438.886	0
439.089	-0.07
439.291	-0.04
439.494	0.04
439.696	-0.06
439.899	0
440.101	0.04
440.303	-0.03
440.506	0.05
440.708	-0.04
440.91	-0.03
441.113	-0.06
441.315	0.02
441.517	-0.04
441.72	0.01
441.922	-0.04
442.124	-0.06
442.326	0.02
442.529	0.06
442.731	-0.01
442.933	0.05
443.135	-0.03
443.337	-0.05
443.539	-0.01
443.742	-0.04
443.944	-0.04
444.146	-0.06
444.348	-0.03
444.55	0
444.752	-0.01
444.954	-0.04
445.156	-0
445.358	-0.06
445.56	0.01
445.762	-0.04
445.964	0.03
446.166	-0.05
446.368	-0.09
446.57	0.03
446.772	0.01
446.974	-0.03
447.175	0.03
447.377	-0.02
447.579	-0.06
447.781	-0.11
447.983	0.07
448.184	-0.02
448.386	0.02
448.588	-0.11
448.79	-0
448.991	-0.02
449.193	-0.03
449.395	-0.02
449.597	0.02
449.798	0.03
450	0.05
450.202	0.01
450.403	0
450.605	0.04
450.806	-0.01
451.008	-0.06
451.21	-0
451.411	0.01
451.613	-0.02
451.814	0.03
452.016	0.01
452.217	-0
452.419	0.03
452.62	0.02
452.821	0.01
453.023	0.05
453.224	0.03
453.426	-0.02
453.627	0.04
453.828	0.08
454.03	0.02
454.231	0.06
454.432	-0.04
454.634	0.1
454.835	-0.04
455.036	-0.08
455.238	0.02
455.439	0.05
455.64	-0.07
455.841	-0.03
456.042	0.09
456.244	0
456.445	-0.04
456.646	-0.09
456.847	-0.04
457.048	0.04
457.249	0.03
457.45	0.18
457.651	-0.06
457.852	0
458.054	-0.01
458.255	-0.01
458.456	-0.02
458.657	-0.02
458.858	-0.07
459.058	0.03
459.259	0.09
459.46	-0.03
459.661	-0.03
459.862	0.11
460.063	0
460.264	0.04
460.465	-0.1
460.666	0.09
460.866	-0.01
461.067	0.01
461.268	-0.02
461.469	0
461.67	0.02
461.87	-0.02
462.071	-0.02
462.272	0.01
462.473	0.04
462.673	0.04
462.874	-0.06
463.075	-0.01
463.275	-0.03
463.476	0.01
463.676	0.02
463.877	0.01
464.078	0
464.278	-0.01
464.479	-0.01
464.679	-0
464.88	-0.03
465.08	0.11
465.281	-0.02
465.481	-0.02
465.682	0
465.882	0.01
466.083	-0.01
466.283	0.02
466.483	0.01
466.684	-0.07
466.884	-0.01
467.085	-0.03
467.285	0.06
467.485	-0.01
467.686	-0.01
467.886	-0.06
468.086	0.02
468.286	0.01
468.487	-0
468.687	-0.06
468.887	0.01
469.087	0.03
469.287	-0.03
469.488	-0.04
469.688	0.01
469.888	0.03
470.088	0.05
470.288	0.05
470.488	0.06
470.688	-0.06
470.888	-0.04
471.088	-0.01
471.288	0.01
471.488	0.03
471.688	0.02
471.888	-0.01
472.088	0.01
472.288	0.05
472.488	-0.03
472.688	-0.01
472.888	0.01
473.088	-0.01
473.288	0.01
473.488	-0.01
473.688	0.06
473.887	-0.03
474.087	-0.03
474.287	0.03
474.487	-0.03
474.687	0.03
474.886	-0.01
475.086	0.03
475.286	0.01
475.486	-0
475.685	-0.04
475.885	-0.03
476.085	-0
476.284	0.05
476.484	-0.01
476.684	-0
476.883	0.08
477.083	0
477.282	-0.02
477.482	0.04
477.681	0.08
477.881	-0
478.08	-0.06
478.28	-0.02
478.479	0.01
478.679	0.05
478.878	-0.04
479.078	-0
479.277	0.01
479.477	0
479.676	0.02
479.875	0.02
480.075	-0.04
480.274	0.02
480.473	0.02
480.673	-0.04
480.872	0.04
481.071	-0
481.271	0.01
481.47	0
481.669	-0.01
481.868	-0.02
482.067	-0.02
482.267	-0.01
482.466	-0.03
482.665	-0.01
482.864	-0.05
483.063	-0.04
483.262	0.03
483.461	0.04
483.661	0.02
483.86	0.01
484.059	-0.02
484.258	0
484.457	0
484.656	-0
484.855	0.02
485.054	-0.05
485.253	-0.04
485.452	-0.04
485.651	-0.03
485.849	0
486.048	-0.02
486.247	-0.04
486.446	-0.03
486.645	-0.03
486.844	-0.02
487.043	-0.01
487.241	0.05
487.44	-0.02
487.639	-0.01
487.838	0.01
488.037	-0.01
488.235	0.04
488.434	0.01
488.633	-0.02
488.831	0.01
489.03	0.04
489.229	-0.01
489.427	-0.02
489.626	0.04
489.825	0.04
490.023	0
490.222	-0.01
490.42	0.02
490.619	0.03
490.817	0.01
491.016	-0.01
491.214	0.02
491.413	-0
491.611	-0.02
491.81	0.01
492.008	0
492.207	0.03
492.405	0.03
492.604	-0.03
492.802	-0
493	0.01
493.199	-0.03
493.397	0.01
493.595	0
493.794	-0.03
493.992	0.04
494.19	-0
494.388	0.02
494.587	-0.02
494.785	-0.01
494.983	-0.03
495.181	0
495.379	-0.03
495.578	-0.01
495.776	0.03
495.974	0.02
496.172	-0.01
496.37	-0.02
496.568	-0.02
496.766	-0.02
496.964	0.02
497.162	-0
497.36	-0.02
497.558	0
497.756	0.03
497.954	-0.01
498.152	-0.03
498.35	0
498.548	-0.01
498.746	-0
498.944	-0.02
499.142	0
499.34	-0.03
499.538	-0.01
499.736	-0.02
499.933	0.03
500.131	0.02
500.329	-0.01
500.527	0.04
500.725	0.01
500.922	0.01
501.12	-0.01
501.318	0
501.516	-0.02
501.713	-0
501.911	-0.01
502.109	-0.02
502.306	0.02
502.504	-0
502.701	-0
502.899	-0.01
503.097	0.01
503.294	0.01
503.492	-0.02
503.689	0
503.887	0.01
504.084	0.04
504.282	-0
504.479	-0.03
504.677	0
504.874	-0.03
505.072	-0
505.269	0.01
505.466	0.02
505.664	0.01
505.861	-0.05
506.059	-0.05
506.256	-0.01
506.453	-0.01
506.651	0.05
506.848	0.01
507.045	0.02
507.242	0
507.44	-0.02
507.637	-0
507.834	-0
508.031	0.01
508.229	-0.02
508.426	0.01
508.623	0.04
508.82	-0.02
509.017	-0.04
509.214	-0.01
509.411	-0
509.608	-0.03
509.805	-0.01
510.003	0.01
510.2	-0.01
510.397	0.01
510.594	-0.02
510.791	-0.03
510.988	-0.01
511.184	0.03
511.381	-0.01
511.578	-0.01
511.775	0.02
511.972	-0.01
512.169	-0.03
512.366	-0
512.563	0.03
512.76	-0
512.956	0.04
513.153	-0.02
513.35	0.02
513.547	-0.02
513.744	-0.01
513.94	-0.03
514.137	0.01
514.334	0.02
514.53	-0
514.727	0
514.924	0.03
515.12	-0.02
515.317	-0.04
515.514	-0.01
515.71	-0.04
515.907	-0.01
516.103	-0.01
516.3	0.01
516.497	0.01
516.693	0.04
516.89	0.01
517.086	-0.04
517.283	0.04
517.479	0.01
517.676	0.01
517.872	0
518.068	-0.02
518.265	-0.02
518.461	-0.02
518.658	-0.04
518.854	-0.01
519.05	-0.02
519.247	-0
519.443	0.02
519.639	0.01
519.836	0
520.032	-0.01
520.228	-0.02
520.424	0.04
520.621	0
520.817	0
521.013	0.05
521.209	-0.01
521.405	0.03
521.601	0.02
521.798	-0.01
521.994	0
522.19	-0.02
522.386	-0.03
522.582	0
522.778	-0.01
522.974	-0.01
523.17	0.01
523.366	-0.02
523.562	0.03
523.758	0.02
523.954	-0.02
524.15	-0.01
524.346	0
524.542	0.01
524.738	-0.02
524.934	-0
525.129	-0.09
525.325	-0
525.521	-0.02
525.717	0.02
525.913	-0.01
526.109	-0.01
526.304	-0.01
526.5	-0.02
526.696	0.01
526.892	0.01
527.087	-0.01
527.283	-0
527.479	0.02
527.674	-0.01
527.87	-0.02
528.066	-0.01
528.261	0.01
528.457	0.01
528.653	0
528.848	-0.01
529.044	0.01
529.239	0.01
529.435	0.03
529.63	0.01
529.826	0.04
530.021	0.01
530.217	-0
530.412	0.01
530.608	-0.01
530.803	-0
530.999	-0
531.194	-0.04
531.389	-0.01
531.585	-0.04
531.78	0
531.975	0
532.171	0.01
532.366	-0
532.561	0.01
532.757	0
532.952	-0.01
533.147	-0.02
533.342	0
533.538	-0.03
533.733	0.02
533.928	-0
534.123	-0.01
534.318	-0.04
534.513	-0.02
534.709	-0.02
534.904	-0.01
535.099	-0.02
535.294	0.02
535.489	-0
535.684	-0.02
535.879	-0.02
536.074	-0
536.269	-0.03
536.464	0.01
536.659	-0.01
536.854	-0.01
537.049	-0.02
537.244	0
537.439	0.01
537.634	0.02
537.828	-0.01
538.023	-0.01
538.218	-0.04
538.413	0.01
538.608	-0.01
538.803	0.02
538.997	-0.05
539.192	0.01
539.387	0
539.582	0
539.776	0.02
539.971	-0.03
540.166	-0
540.36	-0.01
540.555	0.03
540.75	-0.03
540.944	-0.01
541.139	-0.04
541.334	-0
541.528	-0.02
541.723	0.03
541.917	0.02
542.112	-0.05
542.306	-0.03
542.501	0
542.695	-0
542.89	-0.01
543.084	-0
543.279	-0.02
543.473	0
543.668	-0.01
543.862	-0.01
544.056	0.01
544.251	-0
544.445	-0
544.64	-0.04
544.834	-0.02
545.028	0.01
545.222	0.02
545.417	0.02
545.611	-0
545.805	-0.02
546	-0.02
546.194	-0.02
546.388	-0.03
546.582	0.02
546.776	0.01
546.97	-0.02
547.165	0.01
547.359	0.02
547.553	-0.02
547.747	0
547.941	-0.01
548.135	-0
548.329	0.01
548.523	-0.03
548.717	-0.01
548.911	-0.04
549.105	-0.02
549.299	0.03
549.493	0.02
549.687	0.02
549.881	0.03
550.075	0.01
550.269	-0.04
550.463	0.02
550.657	-0.02
550.85	-0.01
551.044	-0.03
551.238	0.01
551.432	-0.01
551.626	-0.04
551.82	0.01
552.013	-0.03
552.207	0.02
552.401	0
552.594	0
552.788	-0.01
552.982	0.02
553.176	-0.03
553.369	0.02
553.563	0.01
553.756	-0.03
553.95	-0.03
554.144	-0.01
554.337	0.02
554.531	0.01
554.724	-0.01
554.918	-0.01
555.111	0.01
555.305	0
555.498	0.04
555.692	0.03
555.885	-0.01
556.079	0.01
556.272	-0.01
556.466	0.02
556.659	-0.01
556.852	-0
557.046	-0.02
557.239	0.03
557.432	-0.03
557.626	-0.02
557.819	0.01
558.012	0
558.206	0
558.399	-0
558.592	0.02
558.785	-0.01
558.979	0.02
559.172	0
559.365	0.01
559.558	-0.01
559.751	-0.01
559.944	-0.04
560.138	-0
560.331	-0.01
560.524	-0
560.717	-0.01
560.91	-0.02
561.103	0.01
561.296	0
561.489	0.02
561.682	-0.01
561.875	0
562.068	0.01
562.261	0.01
562.454	0.03
562.647	-0
562.84	0.03
563.032	-0.01
563.225	-0.02
563.418	-0.01
563.611	-0.03
563.804	-0.01
563.997	-0.03
564.19	-0.05
564.382	-0.06
564.575	-0
564.768	-0.01
564.961	-0
565.153	-0.03
565.346	0.02
565.539	0.03
565.731	0.03
565.924	0.02
566.117	0.02
566.309	-0.01
566.502	-0.03
566.695	0
566.887	-0
567.08	-0.02
567.272	0.01
567.465	-0.03
567.657	0.01
567.85	0.01
568.042	0.01
568.235	0.02
568.427	-0.02
568.62	0.01
568.812	0.02
569.005	-0.01
569.197	-0.04
569.389	-0.01
569.582	0.02
569.774	0.01
569.966	-0.04
570.159	-0.04
570.351	0.01
570.543	-0.01
570.736	0.01
570.928	-0.01
571.12	0.01
571.312	0
571.505	-0.05
571.697	0.03
571.889	-0.03
572.081	-0.01
572.273	-0.01
572.465	0.04
572.658	-0.01
572.85	0.01
573.042	0.01
573.234	-0.02
573.426	0.04
573.618	-0.03
573.81	0
574.002	0.03
574.194	0.03
574.386	-0.03
574.578	-0.05
574.77	-0.02
574.962	-0.01
575.154	-0.04
575.346	0
575.538	0.01
575.729	-0.02
575.921	-0.02
576.113	-0.02
576.305	0.03
576.497	-0.01
576.689	-0.02
576.88	-0.04
577.072	0.01
577.264	-0
577.456	-0.03
577.647	-0.06
577.839	-0.01
578.031	0.02
578.223	-0.02
578.414	-0.04
578.606	0.02
578.798	-0.02
578.989	-0.02
579.181	-0.03
579.372	-0.01
579.564	-0.04
579.755	-0.02
579.947	0.01
580.139	0.02
580.33	-0.04
580.522	-0.01
580.713	-0.06
580.905	0
581.096	0.02
581.287	-0.02
581.479	0
581.67	0
581.862	0
582.053	-0.03
582.244	-0.04
582.436	-0.03
582.627	-0.03
582.818	-0.04
583.01	-0.06
583.201	0.02
583.392	-0.01
583.583	-0.01
583.775	-0.01
583.966	-0.03
584.157	0
584.348	-0.01
584.54	-0.03
584.731	0
584.922	-0.03
585.113	-0.03
585.304	0.02
585.495	0.02
585.686	-0
585.877	0.01
586.068	0.01
586.259	0
586.45	-0.01
586.641	-0.01
586.832	-0.06
587.023	-0.03
587.214	-0.02
587.405	0.01
587.596	-0.01
587.787	0.02
587.978	0.01
588.169	-0.01
588.36	-0.03
588.551	-0.01
588.742	-0.03
588.932	0.01
589.123	-0
589.314	0.01
589.505	-0
589.696	0.01
589.886	-0.02
590.077	-0.05
590.268	0
590.458	-0.05
590.649	-0.04
590.84	0.03
591.03	-0.04
591.221	-0.01
591.412	-0.05
591.602	0.01
591.793	0
591.984	-0.06
592.174	-0.03
592.365	0.06
592.555	-0.04
592.746	0.02
592.936	0.02
593.127	0.01
593.317	0.03
593.508	0
593.698	-0.03
593.889	0.02
594.079	-0.01
594.269	-0.03
594.46	0.01
594.65	-0.01
594.84	0.03
595.031	-0.04
595.221	-0.02
595.411	-0.04
595.602	0.04
595.792	-0.02
595.982	-0.04
596.172	0.04
596.363	0.01
596.553	-0
596.743	0
596.933	0.01
597.123	0.04
597.314	-0.03
597.504	-0.04
597.694	0.03
597.884	0.01
598.074	-0.03
598.264	-0.02
598.454	0.01
598.644	-0.01
598.834	-0.01
599.024	-0.05
599.214	-0.02
599.404	0.03
599.594	-0.03
599.784	-0.04
599.974	0.02
600.164	0.02
600.354	-0.03
600.544	-0.05
600.734	0.01
600.924	0.03
601.114	-0.01
601.303	0
601.493	0
601.683	-0.03
601.873	0.02
602.063	-0.04
602.252	0.03
602.442	-0.1
602.632	-0.03
602.821	-0.05
603.011	0.03
603.201	0.01
603.39	-0.04
603.58	-0.04
603.77	0.01
603.959	0.03
604.149	0
604.339	-0.01
604.528	0.02
604.718	0
604.907	0.02
605.097	-0.01
605.286	-0.02
605.476	0.03
605.665	0.01
605.855	-0.01
606.044	0.03
606.234	0.03
606.423	-0.04
606.612	-0.05
606.802	0.02
606.991	0.01
607.181	0
607.37	-0.06
607.559	-0.02
607.749	-0.05
607.938	0
608.127	-0.02
608.316	-0.03
608.506	0.02
608.695	0.01
608.884	-0.02
609.073	-0.01
609.263	0.01
609.452	-0.02
609.641	0
609.83	-0.05
610.019	-0.01
610.208	-0.01
610.397	0.01
610.586	0.03
610.775	-0.02
610.965	-0.01
611.154	-0.03
611.343	-0.01
611.532	0.01
611.721	-0.03
611.91	-0.02
612.099	0.03
612.287	-0.03
612.476	-0.05
612.665	0.01
612.854	-0.02
613.043	0.04
613.232	0
613.421	-0.03
613.61	0.01
613.798	-0.06
613.987	0.04
614.176	0.01
614.365	-0
614.554	0.02
614.742	0
614.931	-0.04
615.12	0.02
615.309	-0.02
615.497	0.03
615.686	-0.07
615.875	0.01
616.063	-0
616.252	-0.05
616.44	-0.01
616.629	0.01
616.818	0.01
617.006	-0.01
617.195	-0.01
617.383	0.02
617.572	-0
617.76	-0.04
617.949	-0.02
618.137	0.02
618.326	0.06
618.514	-0.04
618.703	-0.02
618.891	0.03
619.079	-0.05
619.268	0.01
619.456	-0.02
619.644	0.04
619.833	0
620.021	-0.03
620.209	-0.04
620.398	0.01
620.586	0.01
620.774	-0.03
620.962	-0.02
621.151	0.05
621.339	0.01
621.527	-0.04
621.715	-0.04
621.903	-0.02
622.092	-0.04
622.28	-0.01
622.468	-0.02
622.656	-0
622.844	0.01
623.032	-0.01
623.22	-0.08
623.408	0.02
623.596	0.03
623.784	-0.01
623.972	-0.05
624.16	-0.01
624.348	0.04
624.536	-0.02
624.724	-0.03
624.912	0.03
625.1	-0.01
625.288	-0.06
625.476	-0.02
625.664	0.02
625.851	-0.02
626.039	-0.02
626.227	0
626.415	0.01
626.603	-0.07
626.79	-0.02
626.978	0.02
627.166	-0
627.354	0
627.541	-0.04
627.729	-0.07
627.917	0.01
628.104	0.01
628.292	0.01
628.48	0
628.667	-0
628.855	-0.02
629.042	-0.01
629.23	-0.02
629.418	-0.02
629.605	0.01
629.793	-0.05
629.98	-0.02
630.168	-0
630.355	-0.01
630.543	-0.01
630.73	-0.02
630.917	-0.02
631.105	0.02
631.292	-0
631.48	-0.01
631.667	0.05
631.854	-0.01
632.042	-0.01
632.229	-0.06
632.416	-0.02
632.604	-0.02
632.791	-0.03
632.978	0.01
633.165	0.01
633.353	0.04
633.54	0.02
633.727	-0.09
633.914	-0.02
634.101	-0.07
634.289	0.03
634.476	-0.02
634.663	-0.04
634.85	0.02
635.037	-0.05
635.224	-0.06
635.411	0.01
635.598	0.01
635.785	-0.02
635.972	-0.03
636.159	-0
636.346	-0.02
636.533	-0.01
636.72	-0.01
636.907	-0.03
637.094	0.02
637.281	-0.02
637.468	0.03
637.655	0.01
637.842	-0
638.029	-0.04
638.215	0.03
638.402	-0.02
638.589	-0.04
638.776	-0.03
638.963	-0.05
639.149	0
639.336	0.04
639.523	-0.03
639.709	-0.04
639.896	-0.01
640.083	0.06
640.27	0
640.456	-0.03
640.643	0
640.829	-0.05
641.016	-0
641.203	-0.05
641.389	0.02
641.576	0.03
641.762	0.01
641.949	-0.05
642.135	0.02
642.322	0.01
642.508	-0.04
642.695	0.01
642.881	-0.01
643.068	-0
643.254	-0.03
643.441	0.05
643.627	-0.01
643.813	-0.03
644	0.04
644.186	-0.02
644.372	-0.03
644.559	0.03
644.745	-0.02
644.931	-0.04
645.118	-0.03
645.304	-0.03
645.49	-0.04
645.676	0.01
645.862	0.01
646.049	0.05
646.235	-0.01
646.421	0.05
646.607	0.04
646.793	-0
646.979	-0.05
647.165	0.03
647.352	-0.03
647.538	0.01
647.724	0.03
647.91	0.01
648.096	0
648.282	0.03
648.468	-0
648.654	-0.01
648.84	-0.01
649.026	0.01
649.212	-0.02
649.397	-0.04
649.583	-0.05
649.769	0.01
649.955	0
650.141	0.04
650.327	0.03
650.513	-0.02
650.698	0.02
650.884	-0.06
651.07	-0.02
651.256	0.01
651.442	-0.02
651.627	-0
651.813	0.01
651.999	-0.02
652.184	-0.01
652.37	0.02
652.556	0.01
652.741	0.05
652.927	-0.07
653.113	-0.02
653.298	0.03
653.484	-0.01
653.669	-0.06
653.855	-0
654.04	-0.01
654.226	0.01
654.412	-0.01
654.597	-0.03
654.782	0.02
654.968	0.05
655.153	-0.02
655.339	-0.06
655.524	-0.06
655.71	0.05
655.895	0
656.08	-0.01
656.266	0.04
656.451	0.03
656.636	-0.02
656.822	0.02
657.007	-0.05
657.192	-0.06
657.378	-0.04
657.563	0.01
657.748	-0
657.933	0
658.118	-0.03
658.304	0.02
658.489	0.02
658.674	0.01
658.859	-0.05
659.044	0.03
659.229	0.01
659.414	-0.05
659.599	0
659.785	-0.07
659.97	-0.01
660.155	0.03
660.34	0
660.525	0
660.71	-0.01
660.895	0.01
661.08	-0.03
661.264	-0.02
661.449	0.06
661.634	0.07
661.819	0.01
662.004	0.04
662.189	-0.06
662.374	0.01
662.559	-0.05
662.743	-0.02
662.928	-0.03
663.113	-0.03
663.298	-0.03
663.483	-0.03
663.667	0.02
663.852	-0.06
664.037	0.03
664.221	-0.03
664.406	0.06
664.591	0.04
664.775	-0.03
664.96	0.02
665.145	0.01
665.329	0.01
665.514	0.01
665.698	-0.04
665.883	-0.05
666.068	0.06
666.252	-0.01
666.437	-0.06
666.621	-0
666.806	0.05
666.99	-0
667.174	-0.03
667.359	0.08
667.543	0.04
667.728	0.01
667.912	-0.03
668.096	0.03
668.281	-0.02
668.465	0.03
668.649	0.01
668.834	0.04
669.018	0
669.202	0.02
669.387	-0.04
669.571	0.03
669.755	-0.02
669.939	-0.01
670.124	0.01
670.308	0.09
670.492	0.03
670.676	0.04
670.86	-0.06
671.044	-0.02
671.228	0.07
671.413	-0.02
671.597	-0.04
671.781	-0.01
671.965	0.04
672.149	-0
672.333	0.03
672.517	-0
672.701	0.06
672.885	0
673.069	-0.05
673.253	0.09
673.437	0.01
673.621	-0
673.804	0
673.988	0.02
674.172	0
674.356	-0.03
674.54	0.04
674.724	0.08
674.908	0.02
675.091	0.08
675.275	0.03
675.459	0.07
675.643	0.11
675.826	0.05
676.01	0.04
676.194	0.03
676.377	0.08
676.561	0.08
676.745	0.06
676.928	0.02
677.112	0.09
677.296	-0.02
677.479	0
677.663	-0.01
677.846	0.09
678.03	0.08
678.213	0.02
678.397	0.05
678.58	0
678.764	0.01
678.947	0.02
679.131	0.05
679.314	0.11
679.498	0.06
679.681	0.07
679.865	0.08
680.048	0.03
680.231	0.02
680.415	0.04
680.598	0.05
680.781	0.03
680.965	0.06
681.148	0.12
681.331	0.04
681.514	0.06
681.698	0.01
681.881	0.07
682.064	0.06
682.247	0.05
682.43	0.02
682.614	0.05
682.797	0.11
682.98	0.11
683.163	0.03
683.346	0.09
683.529	0.09
683.712	0.06
683.895	0.12
684.078	0.06
684.261	0.07
684.444	0.08
684.627	0.06
684.81	0.05
684.993	0.06
685.176	0.07
685.359	0.04
685.542	0.04
685.725	0.14
685.908	0.07
686.091	0.04
686.274	0.08
686.457	0.1
686.639	0.1
686.822	0.12
687.005	0.08
687.188	0.09
687.371	0.17
687.553	0.15
687.736	0.13
687.919	0.15
688.102	0.17
688.284	0.05
688.467	0.1
688.65	0.08
688.832	0.15
689.015	0.11
689.197	0.06
689.38	0.19
689.563	0.2
689.745	0.11
689.928	0.1
690.11	0.12
690.293	0.13
690.475	0.09
690.658	0.16
690.84	0.08
691.023	0.11
691.205	0.13
691.388	0.15
691.57	0.14
691.752	0.18
691.935	0.06
692.117	0.12
692.3	0.14
692.482	0.16
692.664	0.14
692.847	0.19
693.029	0.23
693.211	0.18
693.393	0.15
693.576	0.12
693.758	0.18
693.94	0.13
694.122	0.14
694.304	0.11
694.487	0.15
694.669	0.23
694.851	0.12
695.033	0.2
695.215	0.13
695.397	0.16
695.579	0.15
695.761	0.14
695.943	0.13
696.125	0.23
696.308	0.21
696.49	0.13
696.671	0.28
696.853	0.14
697.035	0.4
697.217	0.17
697.399	0.28
697.581	0.19
697.763	0.24
697.945	0.19
698.127	0.25
698.309	0.34
698.491	0.23
698.672	0.36
698.854	0.33
699.036	0.34
699.218	0.25
699.399	0.33
699.581	0.37
699.763	0.26
699.945	0.23
700.126	0.24
700.308	0.29
700.49	0.32
700.671	0.21
700.853	0.3
701.035	0.3
701.216	0.33
701.398	0.29
701.579	0.37
701.761	0.41
701.943	0.29
702.124	0.26
702.306	0.34
702.487	0.51
702.669	0.4
702.85	0.33
703.031	0.32
703.213	0.5
703.394	0.48
703.576	0.4
703.757	0.54
703.938	0.43
704.12	0.58
704.301	0.43
704.483	0.42
704.664	0.5
704.845	0.57
705.026	0.5
705.208	0.48
705.389	0.51
705.57	0.51
705.751	0.52
705.933	0.49
706.114	0.57
706.295	0.45
706.476	0.45
706.657	0.65
706.838	0.62
707.02	0.59
707.201	0.54
707.382	0.52
707.563	0.66
707.744	0.57
707.925	0.52
708.106	0.57
708.287	0.6
708.468	0.72
708.649	0.67
708.83	0.72
709.011	0.63
709.192	0.68
709.373	0.61
709.554	0.77
709.734	0.79
709.915	0.68
710.096	0.79
710.277	0.72
710.458	0.8
710.639	0.82
710.819	0.75
711	0.8
711.181	0.84
711.362	0.93
711.542	0.88
711.723	0.88
711.904	0.96
712.085	0.96
712.265	0.93
712.446	0.92
712.627	0.9
712.807	0.97
712.988	0.97
713.168	0.93
713.349	1
713.53	0.86
713.71	0.98
713.891	1.05
714.071	1.04
714.252	1.05
714.432	1.08
714.613	0.96
714.793	1.2
714.974	1.36
715.154	1.17
715.334	1.16
715.515	1.3
715.695	1.18
715.876	1.33
716.056	1.25
716.236	1.27
716.417	1.26
716.597	1.28
716.777	1.61
716.957	1.37
717.138	1.41
717.318	1.43
717.498	1.34
717.678	1.56
717.859	1.55
718.039	1.46
718.219	1.59
718.399	1.62
718.579	1.55
718.759	1.6
718.939	1.7
719.12	1.73
719.3	1.75
719.48	1.69
719.66	1.65
719.84	1.96
720.02	1.8
720.2	1.83
720.38	1.93
720.56	2.11
720.74	1.9
720.92	2.03
721.1	2.14
721.279	2.22
721.459	2.13
721.639	1.99
721.819	2.18
721.999	2.22
722.179	2.23
722.359	2.12
722.538	2.27
722.718	2.41
722.898	2.3
723.078	2.4
723.257	2.44
723.437	2.46
723.617	2.58
723.797	2.58
723.976	2.57
724.156	2.69
724.336	2.75
724.515	2.91
724.695	2.66
724.874	2.72
725.054	2.9
725.234	2.79
725.413	2.83
725.593	2.93
725.772	2.96
725.952	3.08
726.131	3
726.311	3.15
726.49	3.07
726.67	3.07
726.849	3.09
727.028	3.21
727.208	3.21
727.387	3.34
727.567	3.26
727.746	3.32
727.925	3.34
728.105	3.37
728.284	3.44
728.463	3.47
728.643	3.68
728.822	3.55
729.001	3.63
729.18	3.69
729.359	3.93
729.539	3.92
729.718	3.91
729.897	3.95
730.076	4.07
730.255	3.98
730.434	4.13
730.614	4.24
730.793	4.26
730.972	4.18
731.151	4.18
731.33	4.4
731.509	4.46
731.688	4.29
731.867	4.66
732.046	4.46
732.225	4.87
732.404	4.6
732.583	4.58
732.762	4.91
732.941	4.89
733.12	5.04
733.298	4.97
733.477	5.01
733.656	4.91
733.835	5.01
734.014	5.14
734.193	5.11
734.371	5.26
734.55	5.37
734.729	5.11
734.908	5.24
735.086	5.28
735.265	5.44
735.444	5.05
735.623	5.25
735.801	5.33
735.98	5.49
736.159	5.27
736.337	5.31
736.516	5.27
736.694	5.21
736.873	5.21
737.052	5.51
737.23	5.27
737.409	5.04
737.587	5.27
737.766	4.97
737.944	4.95
738.123	5.12
738.301	4.91
738.479	4.82
738.658	4.93
738.836	4.67
739.015	4.66
739.193	4.71
739.371	4.33
739.55	4.14
739.728	4.18
739.906	4.18
740.085	4.14
740.263	3.98
740.441	3.62
740.62	3.98
740.798	3.7
740.976	3.44
741.154	3.29
741.332	3.56
741.511	3.26
741.689	3.2
741.867	3.25
742.045	2.83
742.223	2.84
742.401	2.65
742.579	2.53
742.757	2.68
742.935	2.39
743.114	2.5
743.292	2.39
743.47	2.18
743.648	2.2
743.826	2.03
744.004	2.16
744.181	1.98
744.359	1.83
744.537	1.76
744.715	1.73
744.893	1.76
745.071	1.74
745.249	1.63
745.427	1.44
745.605	1.54
745.782	1.39
745.96	1.54
746.138	1.48
746.316	1.4
746.493	1.18
746.671	1.24
746.849	1.15
747.027	1.22
747.204	0.94
747.382	1.17
747.56	0.9
747.737	1.02
747.915	0.96
748.093	0.94
748.27	0.75
748.448	0.78
748.625	0.75
748.803	0.83
748.98	0.67
749.158	0.94
749.335	0.76
749.513	0.7
749.69	0.63
749.868	0.67
750.045	0.71
750.223	0.61
750.4	0.46
750.578	0.82
750.755	0.56
750.932	0.45
751.11	0.66
751.287	0.43
751.464	0.67
751.642	0.45
751.819	0.61
751.996	0.56
752.173	0.4
752.351	0.27
752.528	0.54
752.705	0.33
752.882	0.37
753.06	0.46
753.237	0.4
753.414	0.58
753.591	0.43
753.768	0.35
753.945	0.34
754.122	0.28
754.299	0.35
754.476	0.12
754.654	0.29
754.831	0.35
755.008	0.26
755.185	0.17
755.362	0.13
755.539	0.28
755.716	0.19
755.892	0.17
756.069	0.14
756.246	0.15
756.423	0.29
756.6	0.38
756.777	0.13
756.954	0.32
757.131	0.15
757.307	0.11
757.484	0.19
757.661	0.17
757.838	0.22
758.015	0.06
758.191	0.24
758.368	0.15
758.545	0.25
758.721	0.29
758.898	0.05
759.075	0.15
759.251	0.2
759.428	0.24
759.605	-0.02
759.781	0.22
759.958	0.19
760.134	0.2
760.311	0.1
760.488	0.3
760.664	0.21
760.841	0.06
761.017	0.04
761.194	0.16
761.37	0.19
761.547	0.12
761.723	-0.01
761.899	0.21
762.076	-0.01
762.252	-0.02
762.429	0.06
762.605	0.29
762.781	0.12
762.958	0.2
763.134	0.19
763.31	0.07
763.486	0.21
763.663	-0.12
763.839	0.12
764.015	-0.09
764.191	0.07
764.368	0.06
764.544	0.01
764.72	-0.01
764.896	0.14
765.072	0.02
765.248	-0
765.425	0.01
765.601	-0
765.777	0.05
765.953	-0.05
766.129	0.01
766.305	-0.1
766.481	0.05
766.657	0.12
766.833	0.26
767.009	-0.07
767.185	-0.09
767.361	0.07
767.537	-0.11
767.713	0.12
767.889	0.01
768.065	-0.04
768.24	0.06
768.416	0.23
768.592	-0.11
768.768	0.09
768.944	-0.02
769.12	-0.11
769.295	-0.15
769.471	-0.01
769.647	-0
769.823	0.21
769.998	0.01
770.174	-0.11
770.35	0.28
770.525	0.37
770.701	0.02
770.877	0.09
771.052	0.02
771.228	0.17
771.403	0.05
771.579	0.19
771.755	0.35
771.93	-0.05
772.106	-0.09
772.281	-0.08
772.457	-0.02
772.632	0.21
772.808	-0.13
772.983	0.05
773.159	-0.17
773.334	0.07
773.509	0.09
773.685	-0
773.86	0.29
774.036	0.37
774.211	0.03
774.386	-0.07
774.562	-0.02
774.737	-0.04
774.912	-0.08
775.087	0.04
775.263	0.06
775.438	0.06
775.613	-0.15
775.788	0.09
775.964	0.12
776.139	0.36
776.314	-0.14
776.489	0.09
776.664	0.03
776.839	-0.07
777.014	0.18
777.19	0.01
777.365	0.12
777.54	0.17
777.715	0.05
777.89	0.02
778.065	0.08
778.24	0.06
778.415	0.06
778.59	-0.16
778.765	-0.1
778.94	0.02
779.115	-0.03
779.289	-0.02
779.464	-0.01
779.639	-0.04
779.814	-0.23
779.989	-0.23
780.164	0.11
780.339	0.05
780.513	-0.17
780.688	-0.18
780.863	-0.14
781.038	0.16
781.212	-0.06
781.387	-0.03
781.562	0.31
781.737	-0.17
781.911	0.2
782.086	-0.02
782.261	0.15
782.435	0.26
782.61	-0.1
782.784	-0.16
782.959	0.16
783.134	-0.08
783.308	0.06
783.483	-0.07
783.657	0.23
783.832	0.11
784.006	-0.4
784.181	-0.01
784.355	0.2
784.53	-0.29
784.704	-0.16
784.878	0.11
785.053	0.18
785.227	0.17
785.402	0.47
785.576	-0.03
785.75	-0.08
785.925	-0.05
786.099	0.04
786.273	-0.16
786.448	0.3
786.622	0.15
786.796	-0.12
786.97	-0.16
787.145	0.55
787.319	-0.38
787.493	-0.14
787.667	-0.3
787.841	0.21
788.015	0.25
788.19	-0.14
788.364	0.11
788.538	0.15
788.712	0.23
788.886	-0.23
789.06	0.07
789.234	0.22
789.408	-0.21
789.582	0.05
789.756	0.23
789.93	-0.21
790.104	-0.09
790.278	-0.18
790.452	-0.27
790.626	0.1
790.8	-0.1
790.973	0.12
791.147	0.35
791.321	0.07
791.495	0.25
791.669	0.01
791.843	0.06
792.016	0.03
792.19	0.28
792.364	-0.3
792.538	0.59
792.711	0.28
792.885	-0.28
793.059	-0.25
793.233	-0.45
793.406	0.18
793.58	0.01
793.754	0.16
793.927	-0
794.101	0.29
794.274	0.12
794.448	0.24
794.622	-0.23
794.795	0.19
794.969	-0.06
795.142	0.34
795.316	0.16
795.489	-0.05
795.663	0.36
795.836	-0.2
796.009	-0.34
796.183	0.12
796.356	0.09
796.53	0.12
796.703	-0.08
796.876	0.49
797.05	0.15
797.223	0.08
797.396	0.09
797.57	0.2
797.743	0.23
797.916	-0.06
798.09	-0.12
798.263	0.33
798.436	0.2
798.609	-0.06
798.782	-0.04
798.956	-0.02
799.129	0.17
799.302	0.24
799.475	-0.17
799.648	-0.4
799.821	-0.1
799.994	0.21
800.167	-0.43
800.34	0.3
800.514	-0.01
800.687	0.11
800.86	-0.1
801.033	0.11
801.206	-0.03
801.379	-0.31
801.551	0.1
801.724	0.1
801.897	0.25
802.07	-0.06
802.243	-0.25
802.416	-0.28
802.589	-0.12
802.762	0.17
802.935	-0.11
803.107	0.24
803.28	0.19
803.453	0.47
803.626	0.07
803.798	-0.13
803.971	-0.13
804.144	0.01
804.317	0.36
804.489	0.23
804.662	-0.07
804.835	-0.05
805.007	-0.28
805.18	0.31
805.353	-0.09
805.525	-0.08
805.698	-0.35
805.87	0.13
806.043	0.3
806.215	-0.51
806.388	-0.31
806.56	0.01
806.733	0.39
806.905	0.2
807.078	-0.06
807.25	-0.03
807.423	0.05
807.595	-0.01
807.768	0.2
807.94	0.45
808.112	0.11
808.285	0.16
808.457	-0.29
808.629	0.12
808.802	0.28
808.974	0.27
809.146	-0.35
809.318	-0.42
809.491	0.1
809.663	0.19
809.835	-0.24
810.007	0.28
810.18	-0.08
810.352	-0.12
810.524	-0.12
810.696	0.09
810.868	0.43
811.04	-0.17
811.212	-0.34
811.384	0
811.556	0.4
811.728	0.1
811.901	0.37
812.073	-0.16
812.245	0.34
812.417	-0.06
812.589	-0.38
812.76	0.07
812.932	0.22
813.104	0.2
813.276	0.16
813.448	0.43
813.62	-0.09
813.792	0.22
813.964	-0.09
814.136	0.05
814.307	-0.36
814.479	-0.01
814.651	-0.09
814.823	0.43
814.995	-0.03
815.166	-0.27
815.338	-0.25
815.51	-0.77
815.681	0.78
815.853	0.02
816.025	0.39
816.196	0.39
816.368	0.74
816.54	-0.26
816.711	-0.15
816.883	0.17
817.054	0.66
817.226	-0.7
817.398	0.04
817.569	0.02
817.741	0.25
817.912	-0.14
818.084	-0.44
818.255	0.59
818.426	-0.21
818.598	0.12
818.769	-0.04
818.941	0.06
819.112	0.48
819.283	0.43
819.455	-0.44
819.626	-0.13
819.798	0.53
819.969	-0.03
820.14	-0.14
820.311	-0.39
820.483	0.08
820.654	0.34
820.825	0.34
820.996	-0.31
821.168	-0.13
821.339	-0.18
821.51	-0.31
821.681	0.28
821.852	-0.17
822.023	-0.51
822.195	0.11
822.366	0.43
822.537	-0.03
822.708	-0.02
822.879	-0.18
823.05	0.98
823.221	-0.46
823.392	0.38
823.563	0.31
823.734	0.3
823.905	-0.06
824.076	-0.24
824.247	-0.13
824.418	-0.29
824.589	0.98
824.759	-0.39
824.93	-0.19
825.101	-0.05
825.272	0.55
825.443	0.65
825.614	0.41
825.784	-1.15
825.955	0.97
826.126	0.34
826.297	0.05
826.467	0.84
826.638	0.89
826.809	-0.18
826.98	-0.02
827.15	0.02
827.321	-0.37
827.492	0.2
827.662	0.28
827.833	0.82
828.003	0.23
828.174	-0.42
828.345	-0.26
828.515	0.57
828.686	0.7
828.856	0.03
829.027	0.21
829.197	-0.4
829.368	0.3
829.538	-0.71
829.709	-0.18
829.879	-0.1
830.049	-0.05
830.22	-0.17
830.39	0.08
830.56	0.84
830.731	0.48
830.901	-0.66
831.072	-0.13
831.242	0.29
831.412	0.23
831.582	-0.3
831.753	-0.72
831.923	0.17
832.093	-0.45
832.263	-0.44
832.434	-0.34
832.604	0.12
832.774	0.36
832.944	0.05
833.114	-0.54
833.284	0.46
833.454	-0.46
833.624	-0.46
833.795	-0.01
833.965	0.29
834.135	0.79
834.305	-1.3
834.475	-0.37
834.645	0.69
834.815	0.09
834.985	-0.65
835.155	-0.2
835.325	0.27
835.494	0.11
835.664	-0.53
835.834	-0.31
836.004	0.42
836.174	0.18
836.344	0.23
836.514	-0.86
836.684	-0.14
836.853	-0.21
837.023	-0.07
837.193	-0.69
837.363	1.09
837.532	0.62
837.702	0.38
837.872	-0.73
838.041	0.46
838.211	1.04
838.381	-0.78
838.55	0.06
838.72	1.85
838.89	0.73
839.059	0.09
839.229	0.07
839.398	1.55
839.568	-0.02
839.738	-0.29
839.907	1
840.077	0.57
840.246	-0.5
840.416	-0.92
840.585	-0.43
840.755	1.4
840.924	1.06
841.093	-0.05
841.263	-0.81
841.432	-0.2
841.602	-0.78
841.771	-0.12
841.94	0.16
842.11	1.55
842.279	1.5
842.448	-0.14
842.617	-0.52
842.787	0.66
842.956	-0.71
843.125	0.41
843.294	0.44
843.464	0.93
843.633	-0.18
843.802	-0.62
843.971	-0.27
844.14	1.03
844.309	0.85
844.479	-0.44
844.648	-0.64
844.817	-0.25
844.986	1.26
845.155	-0.05
845.324	-0.07
845.493	-0.48
845.662	-0.6
845.831	0.32
846	0.8
846.169	0.04
846.338	1.79
846.507	0.46
846.676	0.89
846.844	-0.17
847.013	0.89
847.182	0.35
847.351	-1
847.52	-0.4
847.689	0.94
847.858	-0.19
848.026	-0.47
848.195	-0.54
848.364	-0.99
848.533	-0.6
848.701	-0.38
848.87	0.12
849.039	0.57
849.207	1.41
849.376	-0.03
849.545	1.61
849.713	-0.62
849.882	0.03
850.051	-0.33
850.219	1.3
850.388	0.05
850.556	-0.78
850.725	-0.52
850.893	-0.07
851.062	0.16
851.23	1.17
851.399	-1.75
851.567	0.42
851.736	-0.82
851.904	-1.45
852.073	1.22
852.241	0.62
852.41	-0.36
852.578	-0.21
852.746	-0.1
852.915	0.61
853.083	-0.03
853.251	-1
853.42	0.63
853.588	-0.05
853.756	0.73
853.924	-0.61
854.093	-0.46
854.261	0.18
854.429	-0.95
854.597	1.04
854.765	0.08
854.934	0.64
855.102	0.23
855.27	-0.25
855.438	1.47
855.606	0.44
855.774	1.8
855.942	-1.2
856.11	-0.44
856.278	-0.62
856.446	0.59
856.614	-0.58
856.782	0.26
856.95	0.84
857.118	0.54
857.286	-0.36
857.454	-0.05
857.622	2.21
857.79	1.12
857.958	-0.18
858.126	0.08
858.294	-1.5
858.462	-0.61
858.629	-0.79
858.797	-1.56
858.965	0.39
859.133	0.18
859.301	-0.85
859.468	1.27
859.636	-0.6
859.804	1.48
859.971	1.22
860.139	-1.6
860.307	0.77
860.474	0.65
860.642	-0.36
860.81	0.53
860.977	-1.01
861.145	0.8
861.313	0.15
861.48	0.46
861.648	1.22
861.815	-0.34
861.983	-1.53
862.15	-0.53
862.318	0.19
862.485	0.29
862.653	-0.91
862.82	-1.11
862.988	1.54
863.155	0.41
863.322	0.08
863.49	-0.59
863.657	-0.63
863.824	1.41
863.992	0.93
864.159	1.16
864.326	2.24
864.494	0.11
864.661	3.04
864.828	-0.42
864.996	1.24
865.163	2.45
865.33	-0.22
865.497	-2.68
865.664	-1.02
865.832	-0.95
865.999	-0.94
866.166	-0.17
866.333	-0.51
866.5	-1.19
866.667	-0.74
866.834	-0.93
867.001	0.68
867.168	-0.32
867.335	-0.08
867.502	-2.95
867.669	-0.64
867.836	2.69
868.003	0.96
868.17	0.65
868.337	1.16
868.504	2.52
868.671	-2.05
868.838	0.67
869.005	-1.07
869.172	1.46
869.339	0.45
869.505	-0.41
869.672	-1.32
869.839	2.29
870.006	0.39
870.173	-0.3
870.339	0.44
870.506	2.9
870.673	-2.52
870.84	0.66
871.006	0.01
871.173	-0.56
871.34	1.02
871.506	-0.73
871.673	1.03
871.839	-1.79
872.006	-0.5
872.173	0.18
872.339	0.11
872.506	1.22
872.672	0.84
872.839	-2.12
873.005	0.51
873.172	4.31
873.338	1.98
873.505	0.28
873.671	-0.93
873.838	-0.41
874.004	-1.23
874.171	0.46
874.337	-0.38
874.503	1.03
874.67	0.87
874.836	-0.01
875.002	0.93
875.169	2.36
875.335	0.99
875.501	-1.01
875.668	2.3
875.834	-0.09
876	0.24
876.166	1.46
876.332	0.57
876.499	2.74
876.665	-1.08
876.831	0.83
876.997	3.65
877.163	1.02
877.329	-0.26
877.495	1.18
877.662	2.1
877.828	2.37
877.994	0.66
878.16	-1.23
878.326	-1.56
878.492	-0.23
878.658	0.77
878.824	1.02
878.99	1.46
879.156	-2.63
879.322	3.93
879.487	-0.04
879.653	-0.29
879.819	-0.17
879.985	-1.18
880.151	-0.38
880.317	2.52
880.483	1.49
880.648	2.57
880.814	-1.33
880.98	2.13
881.146	-3.97
881.312	-0.93
881.477	0.33
881.643	2.68
881.809	1.33
881.974	1.42
882.14	-2
882.306	0.45
882.471	3.14
882.637	-0.33
882.803	-0.36
882.968	2.05
883.134	1.55
883.299	-0.6
883.465	-0.12
883.63	2.51
883.796	1.28
883.961	1.99
884.127	2.06
884.292	-3.9
884.458	-1.59
884.623	-1.59
