Data from Apollo_Calib_20240827__AbsoluteIrradiance__475__07-04-02-079.txt Node

Date: Wed Aug 28 07:04:02 BST 2024
User: biology
Spectrometer: FLMT08252
Trigger mode: 0
Integration Time (sec): 5.000000E-1
Scans to average: 5
Electric dark correction enabled: true
Nonlinearity correction enabled: false
Boxcar width: 0
XAxis mode: Wavelengths
Number of Pixels in Spectrum: 3648
>>>>>Begin Spectral Data<<<<<
179.588	-0
179.809	-0
180.03	-0
180.251	-0
180.473	-0
180.694	0
180.915	0
181.136	-0
181.357	0
181.578	-0
181.799	-0
182.02	-0
182.241	-0
182.462	-0
182.683	0
182.904	-0
183.125	-0
183.346	0
183.567	0
183.788	-0
184.009	-0
184.23	0
184.451	0
184.672	-0
184.892	-0
185.113	0
185.334	0
185.555	-0
185.776	-0
185.996	0
186.217	-0
186.438	0
186.659	-0
186.879	-0
187.1	0
187.321	-0
187.541	-0
187.762	0
187.983	0
188.203	0
188.424	0
188.644	-0
188.865	0
189.086	-0
189.306	0
189.527	0
189.747	0
189.968	-0
190.188	0
190.409	0
190.629	0
190.849	-0
191.07	-0
191.29	0
191.511	-0
191.731	-0
191.951	-0
192.172	-0
192.392	-0
192.612	0
192.833	0
193.053	0
193.273	0
193.493	-0
193.714	-0
193.934	0
194.154	0
194.374	-0
194.594	-0
194.815	-0
195.035	0
195.255	0
195.475	0
195.695	-0
195.915	0
196.135	-0
196.355	0
196.575	0
196.795	-0
197.015	-0
197.235	-0
197.455	-0
197.675	-0
197.895	-0
198.115	-0
198.335	0
198.555	-0
198.775	-0
198.995	0
199.214	0
199.434	-0
199.654	-0
199.874	-0
200.094	-1.74
200.313	0.23
200.533	-0.53
200.753	-1.16
200.973	0.64
201.192	0.21
201.412	-1.25
201.632	0.09
201.851	0.98
202.071	-0.12
202.291	-0.74
202.51	-0.41
202.73	0.29
202.95	-0.55
203.169	-0.63
203.389	-0.42
203.608	0.13
203.828	-0.83
204.047	-0.2
204.267	0.14
204.486	-0.26
204.706	0.19
204.925	-0.14
205.145	0.13
205.364	0.16
205.583	0.44
205.803	-0.53
206.022	-0.75
206.242	0.03
206.461	-0.01
206.68	-0.57
206.9	0
207.119	0.26
207.338	0.43
207.557	-0.06
207.777	-0.21
207.996	-0.41
208.215	0.4
208.434	-0.26
208.654	-0.44
208.873	-0.12
209.092	0.48
209.311	-0.07
209.53	0.01
209.749	-0.32
209.968	-0.45
210.187	-0.21
210.407	-0.45
210.626	-0.47
210.845	-0.1
211.064	-0.27
211.283	-0.01
211.502	0.31
211.721	0.31
211.94	0.1
212.159	0.3
212.377	0.34
212.596	0.29
212.815	-0.03
213.034	0
213.253	0.08
213.472	0.01
213.691	-0.15
213.91	-0.36
214.128	-0.14
214.347	0.15
214.566	-0.41
214.785	-0.41
215.003	0.19
215.222	0.06
215.441	-0.02
215.66	-0.3
215.878	-0.08
216.097	0.26
216.316	-0.26
216.534	-0.08
216.753	0.08
216.972	-0.02
217.19	-0.06
217.409	-0.23
217.627	-0.26
217.846	-0.03
218.064	0
218.283	-0.37
218.501	0.2
218.72	0.2
218.938	-0.13
219.157	-0.2
219.375	0.17
219.594	-0.04
219.812	-0.2
220.031	-0.11
220.249	0.01
220.467	0.11
220.686	-0.04
220.904	-0.32
221.122	-0.23
221.341	0.16
221.559	-0.02
221.777	-0.25
221.995	0.07
222.214	0.11
222.432	-0.12
222.65	-0.02
222.868	0.02
223.086	0.09
223.305	0.14
223.523	-0.14
223.741	0.25
223.959	-0.04
224.177	-0.24
224.395	-0.11
224.613	0.13
224.831	0.15
225.049	-0.08
225.267	-0.09
225.485	0.03
225.703	-0.04
225.921	-0.08
226.139	-0.25
226.357	0.06
226.575	-0.07
226.793	-0
227.011	0.46
227.229	0.12
227.447	0.16
227.665	-0.04
227.883	-0.32
228.1	0.02
228.318	0.18
228.536	-0.26
228.754	-0.17
228.972	0.15
229.189	0.02
229.407	-0.08
229.625	-0.03
229.843	0.16
230.06	0.12
230.278	-0.07
230.496	-0.07
230.713	-0.02
230.931	0.04
231.149	-0.16
231.366	-0.18
231.584	-0.12
231.801	0.3
232.019	-0.15
232.236	-0.25
232.454	-0.1
232.671	-0.01
232.889	-0.03
233.106	-0.04
233.324	-0.08
233.541	-0.03
233.759	-0.04
233.976	-0.05
234.194	-0.05
234.411	0.03
234.628	-0.19
234.846	0.03
235.063	-0.02
235.28	-0.01
235.498	0
235.715	-0.22
235.932	0.11
236.149	-0.08
236.367	-0.06
236.584	0
236.801	-0.04
237.018	0.12
237.236	-0.06
237.453	-0.19
237.67	0.06
237.887	-0.1
238.104	-0.04
238.321	-0.12
238.538	-0.07
238.755	-0.04
238.973	-0.14
239.19	-0.06
239.407	0.07
239.624	-0.01
239.841	-0.25
240.058	-0.15
240.275	0.03
240.492	-0.02
240.709	0.03
240.925	-0.13
241.142	0.03
241.359	-0.19
241.576	-0.15
241.793	-0.13
242.01	-0.08
242.227	0.09
242.444	-0.01
242.66	0.06
242.877	-0.04
243.094	-0.07
243.311	0.01
243.527	-0.14
243.744	0
243.961	0.07
244.178	-0.14
244.394	0.01
244.611	0.03
244.828	0.05
245.044	-0.11
245.261	-0.05
245.477	-0.08
245.694	0.08
245.911	-0.1
246.127	-0
246.344	0.03
246.56	0.04
246.777	-0.09
246.993	-0.03
247.21	-0.04
247.426	0.07
247.643	-0.04
247.859	-0.14
248.076	-0.07
248.292	0.08
248.508	-0.07
248.725	0.1
248.941	0.02
249.157	0.1
249.374	-0.03
249.59	-0.06
249.806	0
250.023	0.02
250.239	-0.09
250.455	-0.07
250.671	0.09
250.888	-0.01
251.104	0.01
251.32	-0.02
251.536	-0
251.752	-0.04
251.969	-0.05
252.185	-0.02
252.401	0.12
252.617	-0.03
252.833	-0.06
253.049	-0.04
253.265	-0.02
253.481	-0.03
253.697	-0.08
253.913	-0.05
254.129	-0.01
254.345	0.03
254.561	-0.08
254.777	0.05
254.993	0.06
255.209	-0.02
255.425	-0.09
255.641	-0.05
255.857	0.1
256.073	0.01
256.288	-0.13
256.504	-0.05
256.72	0.04
256.936	0.1
257.152	-0.09
257.367	-0.06
257.583	-0.02
257.799	0.06
258.015	-0.06
258.23	-0.07
258.446	0.03
258.662	0
258.877	-0.05
259.093	-0.09
259.309	0.02
259.524	0.07
259.74	-0.06
259.955	-0.09
260.171	-0.04
260.387	-0.07
260.602	0.06
260.818	0.04
261.033	-0.09
261.249	-0.03
261.464	0
261.68	-0.12
261.895	-0.05
262.11	0.05
262.326	-0.06
262.541	-0.12
262.757	0.04
262.972	-0.02
263.187	0.01
263.403	-0.07
263.618	0.04
263.833	-0.03
264.049	-0.03
264.264	-0.08
264.479	0.01
264.694	0.05
264.91	-0.09
265.125	-0.04
265.34	0.08
265.555	0.12
265.77	0.04
265.986	-0.01
266.201	-0.02
266.416	0.05
266.631	-0.03
266.846	-0.01
267.061	0.02
267.276	0.02
267.491	-0.09
267.706	0.08
267.921	0.04
268.136	-0.04
268.351	-0.06
268.566	-0.07
268.781	0.07
268.996	-0.04
269.211	-0.02
269.426	-0.05
269.641	-0.06
269.856	0.08
270.071	-0.08
270.285	-0.14
270.5	-0.01
270.715	0.04
270.93	-0.01
271.145	0
271.359	0.04
271.574	-0.05
271.789	0.03
272.004	-0.09
272.218	-0.04
272.433	0.03
272.648	-0.07
272.862	0.08
273.077	0.01
273.292	0.01
273.506	-0.12
273.721	-0.1
273.936	-0.04
274.15	0.04
274.365	-0.04
274.579	-0.01
274.794	0.08
275.008	0.07
275.223	-0.06
275.437	-0.05
275.652	0.04
275.866	-0
276.081	-0.04
276.295	0.03
276.509	0.01
276.724	0.04
276.938	0.01
277.153	0.06
277.367	0.04
277.581	-0.06
277.796	-0.04
278.01	-0.04
278.224	0.07
278.438	0.1
278.653	-0.1
278.867	-0.02
279.081	0.08
279.295	0.02
279.51	-0.01
279.724	-0.06
279.938	-0.01
280.152	-0.03
280.366	-0.05
280.58	0.02
280.794	0.08
281.008	0.02
281.222	0.04
281.437	0.08
281.651	0.02
281.865	0.04
282.079	-0.02
282.293	-0.04
282.507	-0.07
282.721	-0.04
282.935	0.01
283.148	-0.08
283.362	-0.03
283.576	-0.06
283.79	-0.01
284.004	-0.05
284.218	0.06
284.432	-0.03
284.646	-0.06
284.859	-0.08
285.073	-0.05
285.287	-0.03
285.501	-0.03
285.714	-0.01
285.928	0.02
286.142	0.01
286.356	-0.03
286.569	-0.02
286.783	0.04
286.997	0.04
287.21	0.03
287.424	0.01
287.637	-0.02
287.851	0.02
288.065	0.02
288.278	0.02
288.492	0.01
288.705	-0
288.919	0.04
289.132	-0.05
289.346	0.07
289.559	-0.07
289.773	-0.06
289.986	0
290.2	-0.03
290.413	0.04
290.626	-0.08
290.84	-0.04
291.053	0
291.267	0.06
291.48	-0.03
291.693	0.02
291.906	-0.07
292.12	-0.01
292.333	-0.01
292.546	0.01
292.76	0.08
292.973	0.02
293.186	0.01
293.399	-0.02
293.612	0.05
293.826	0.01
294.039	-0.01
294.252	0.01
294.465	0.04
294.678	0.05
294.891	0.07
295.104	-0.06
295.317	-0.02
295.53	-0.01
295.743	-0.02
295.956	-0.03
296.169	0.06
296.382	0.06
296.595	0.01
296.808	-0.06
297.021	0.07
297.234	0.04
297.447	-0.01
297.66	-0.02
297.873	0.04
298.086	-0
298.299	-0.07
298.511	-0.05
298.724	-0.02
298.937	-0.04
299.15	-0.01
299.363	0.03
299.575	0.03
299.788	0.04
300.001	-0.03
300.213	-0.07
300.426	-0.03
300.639	-0.01
300.852	-0.02
301.064	0.08
301.277	0.04
301.489	0.04
301.702	0.03
301.915	0.03
302.127	-0
302.34	0.02
302.552	-0.05
302.765	-0.04
302.977	0.05
303.19	-0.05
303.402	-0.02
303.615	-0.03
303.827	-0.04
304.04	-0
304.252	0.05
304.464	0.01
304.677	0.13
304.889	0.05
305.102	-0
305.314	-0.05
305.526	0.06
305.739	-0.01
305.951	-0.04
306.163	-0.04
306.375	0.08
306.588	-0.05
306.8	-0.04
307.012	-0.02
307.224	0.01
307.436	-0
307.649	-0.07
307.861	0.04
308.073	0.03
308.285	-0
308.497	-0.04
308.709	-0.05
308.921	0.02
309.133	0.03
309.346	-0.03
309.558	-0.01
309.77	0.04
309.982	0.07
310.194	0.03
310.406	-0.02
310.617	0.05
310.829	0.04
311.041	0.03
311.253	-0.07
311.465	-0.04
311.677	-0
311.889	-0.01
312.101	-0.08
312.313	0.04
312.524	0.04
312.736	-0.05
312.948	-0.02
313.16	0.07
313.372	0
313.583	0.01
313.795	-0.03
314.007	-0.07
314.218	0.03
314.43	-0.03
314.642	-0.02
314.853	-0.07
315.065	0.05
315.277	-0.03
315.488	0.03
315.7	0.01
315.912	-0.02
316.123	0
316.335	-0.01
316.546	0.12
316.758	0.01
316.969	-0.05
317.181	-0.03
317.392	-0
317.604	0.05
317.815	-0.07
318.026	-0.07
318.238	0.02
318.449	0.04
318.661	-0.1
318.872	-0.05
319.083	-0.04
319.295	0.02
319.506	-0.02
319.717	0.01
319.929	0
320.14	-0.02
320.351	0
320.562	-0.03
320.774	-0.03
320.985	0.02
321.196	-0.06
321.407	-0.05
321.618	0.02
321.829	0
322.041	0.03
322.252	-0.04
322.463	0.01
322.674	0.01
322.885	-0.06
323.096	-0.05
323.307	0
323.518	0.02
323.729	-0.07
323.94	-0.02
324.151	-0.04
324.362	-0.01
324.573	0.03
324.784	-0.03
324.995	0.05
325.206	0.04
325.417	-0.05
325.628	-0.01
325.838	0.01
326.049	-0.03
326.26	-0.02
326.471	-0.04
326.682	0.04
326.892	-0
327.103	-0.08
327.314	-0.05
327.525	-0
327.735	0
327.946	-0.03
328.157	-0.03
328.368	0.02
328.578	-0.03
328.789	-0.02
328.999	-0.02
329.21	-0.03
329.421	-0
329.631	-0.04
329.842	-0.02
330.052	-0.01
330.263	0.01
330.473	0.06
330.684	0
330.894	-0.02
331.105	-0.04
331.315	-0.02
331.526	-0.03
331.736	0.06
331.947	0.05
332.157	0.03
332.367	-0.05
332.578	0.04
332.788	0.04
332.999	0.01
333.209	-0.01
333.419	-0.02
333.629	0.01
333.84	0.07
334.05	-0.02
334.26	0.06
334.47	0
334.681	0.04
334.891	-0.05
335.101	0.02
335.311	0.07
335.521	-0.02
335.732	-0.02
335.942	0.06
336.152	0.02
336.362	-0.01
336.572	0.02
336.782	0.03
336.992	-0.02
337.202	-0.04
337.412	-0.03
337.622	-0
337.832	-0.01
338.042	0
338.252	-0.05
338.462	-0.03
338.672	-0.01
338.882	-0.02
339.092	0
339.302	0.08
339.511	0.02
339.721	-0.04
339.931	-0.02
340.141	0.03
340.351	0.05
340.561	0.02
340.77	-0.03
340.98	0
341.19	-0.01
341.4	-0.03
341.609	-0.03
341.819	-0.02
342.029	-0.03
342.238	0.02
342.448	-0.02
342.658	0.03
342.867	0
343.077	0
343.286	0.05
343.496	0.03
343.706	0.04
343.915	-0.03
344.125	0.03
344.334	0.01
344.544	-0.1
344.753	-0.02
344.963	0.01
345.172	-0.05
345.381	-0
345.591	-0.01
345.8	-0.01
346.01	0.05
346.219	0.04
346.428	-0.11
346.638	-0.01
346.847	0.02
347.056	0.06
347.266	-0.07
347.475	-0.01
347.684	-0.02
347.893	0
348.103	-0.02
348.312	-0.02
348.521	-0.02
348.73	-0.02
348.94	0.03
349.149	-0.03
349.358	-0.03
349.567	-0.01
349.776	-0.06
349.985	-0.04
350.194	-0.01
350.403	0.05
350.612	-0.04
350.821	-0.03
351.03	-0.03
351.239	-0.09
351.448	-0.04
351.657	-0.04
351.866	0.05
352.075	-0.03
352.284	0.04
352.493	-0.02
352.702	0.04
352.911	0.03
353.12	-0.02
353.329	0.01
353.538	0.04
353.746	-0.03
353.955	-0.04
354.164	0.02
354.373	0.01
354.582	0.05
354.79	0.04
354.999	0.03
355.208	-0.04
355.416	0.07
355.625	-0.06
355.834	-0
356.042	-0.01
356.251	-0.01
356.46	-0.04
356.668	0.01
356.877	0.07
357.085	0.01
357.294	-0.1
357.503	0.03
357.711	0.02
357.92	0.1
358.128	0.01
358.337	-0
358.545	-0.01
358.754	-0
358.962	0.03
359.17	-0.01
359.379	0.03
359.587	0.04
359.796	-0
360.004	-0.01
360.212	0.04
360.421	0.05
360.629	-0.04
360.837	-0
361.046	0.01
361.254	0.08
361.462	-0
361.67	-0.02
361.879	0
362.087	0.06
362.295	-0.01
362.503	0.01
362.711	-0.04
362.92	-0.03
363.128	-0.03
363.336	-0.06
363.544	-0.04
363.752	-0.03
363.96	-0.03
364.168	-0.03
364.376	-0.03
364.584	0.01
364.792	0.02
365	0.05
365.208	0.02
365.416	0.03
365.624	0.08
365.832	-0.03
366.04	0.04
366.248	0
366.456	0
366.664	0.04
366.872	-0.02
367.079	-0.03
367.287	-0.01
367.495	0.04
367.703	-0.03
367.911	-0.02
368.118	-0.02
368.326	-0.02
368.534	-0.03
368.742	0.08
368.949	-0.09
369.157	-0.05
369.365	0.04
369.572	-0.03
369.78	-0.01
369.988	0.03
370.195	0.02
370.403	0.01
370.61	-0
370.818	0.02
371.026	0.02
371.233	-0.01
371.441	0.08
371.648	-0.05
371.856	-0
372.063	-0.03
372.271	-0.02
372.478	-0.03
372.685	-0.01
372.893	0.05
373.1	-0.01
373.308	-0.02
373.515	0.03
373.722	0.04
373.93	-0.03
374.137	0.02
374.344	0.06
374.552	0.03
374.759	0.01
374.966	-0.03
375.173	-0.04
375.381	0.01
375.588	-0.02
375.795	-0.08
376.002	-0.05
376.209	-0.03
376.417	-0.03
376.624	0.01
376.831	-0.01
377.038	-0.03
377.245	-0.08
377.452	-0.03
377.659	0.01
377.866	-0.07
378.073	-0
378.28	-0.03
378.487	0.01
378.694	0.02
378.901	-0.02
379.108	-0
379.315	0.07
379.522	0.05
379.729	0.01
379.936	0.03
380.143	0
380.35	-0.01
380.557	-0.06
380.763	-0.02
380.97	-0.01
381.177	-0.03
381.384	0.03
381.591	-0.02
381.797	0
382.004	-0.01
382.211	0.03
382.418	0.02
382.624	0.04
382.831	0.02
383.038	-0.07
383.244	-0.02
383.451	-0.04
383.658	0
383.864	-0.01
384.071	-0.02
384.277	0.04
384.484	-0.01
384.69	0.03
384.897	-0.04
385.103	0.01
385.31	-0.05
385.516	-0.02
385.723	-0.05
385.929	0.01
386.136	-0.06
386.342	-0.01
386.549	-0.03
386.755	0.04
386.961	0.02
387.168	-0
387.374	-0
387.58	0.04
387.787	-0.03
387.993	0.02
388.199	-0.01
388.406	-0.02
388.612	0.02
388.818	-0.02
389.024	-0.05
389.231	0.01
389.437	0.05
389.643	0.04
389.849	-0.03
390.055	-0.01
390.261	-0.01
390.467	0.01
390.674	-0.05
390.88	0.02
391.086	0.05
391.292	-0.06
391.498	0.02
391.704	0.03
391.91	-0.02
392.116	-0.02
392.322	-0.11
392.528	0.02
392.734	-0.04
392.94	0
393.146	0.01
393.352	-0.01
393.557	-0.07
393.763	-0.02
393.969	0.01
394.175	-0.01
394.381	0.03
394.587	-0.03
394.792	-0.04
394.998	0.02
395.204	0.11
395.41	-0.03
395.615	0.04
395.821	-0.01
396.027	-0
396.233	-0.02
396.438	-0.01
396.644	0.07
396.85	-0.05
397.055	-0
397.261	0.02
397.466	-0.02
397.672	-0
397.878	0.01
398.083	0.05
398.289	-0
398.494	-0.02
398.7	0.05
398.905	-0.08
399.111	0.05
399.316	-0.07
399.522	-0
399.727	-0.03
399.932	-0.05
400.138	-0
400.343	0.03
400.549	0.01
400.754	-0
400.959	0.03
401.165	-0.01
401.37	0
401.575	0.03
401.78	-0.04
401.986	-0.04
402.191	-0.06
402.396	-0.02
402.601	-0.03
402.807	0
403.012	-0.01
403.217	0.02
403.422	-0.01
403.627	-0.07
403.832	-0.02
404.037	0.01
404.243	-0.02
404.448	-0.06
404.653	-0.03
404.858	0.01
405.063	0.03
405.268	-0.03
405.473	-0.04
405.678	-0.03
405.883	0.15
406.088	0.04
406.293	-0.06
406.498	-0.01
406.703	-0.02
406.907	0.01
407.112	-0.08
407.317	-0
407.522	0.01
407.727	-0.04
407.932	-0.04
408.136	0.04
408.341	0.01
408.546	-0
408.751	0
408.956	-0.04
409.16	-0.01
409.365	-0.01
409.57	-0.02
409.774	0.02
409.979	0
410.184	-0
410.388	-0.04
410.593	0.04
410.798	-0
411.002	-0.03
411.207	0.02
411.411	0.01
411.616	-0.05
411.82	-0.04
412.025	-0.01
412.229	-0.02
412.434	0.02
412.638	0.02
412.843	-0.06
413.047	0.01
413.252	-0.05
413.456	-0.05
413.66	0.03
413.865	-0.03
414.069	0.08
414.273	-0.07
414.478	-0.04
414.682	-0.06
414.886	-0.02
415.091	-0.08
415.295	-0.08
415.499	0.03
415.703	-0.02
415.908	0.02
416.112	-0.05
416.316	0
416.52	-0.02
416.724	-0.07
416.929	-0.07
417.133	0.09
417.337	-0.03
417.541	-0.05
417.745	-0.01
417.949	0
418.153	-0
418.357	-0.03
418.561	0.07
418.765	-0.02
418.969	0.08
419.173	0.01
419.377	-0.06
419.581	0.05
419.785	-0.02
419.989	-0.09
420.193	-0.04
420.397	-0.03
420.601	0.02
420.804	0.02
421.008	0.02
421.212	0.01
421.416	0.02
421.62	0
421.823	-0.02
422.027	0.08
422.231	0.03
422.435	-0.01
422.638	-0.02
422.842	-0.01
423.046	-0.03
423.249	-0.01
423.453	0.03
423.657	0.04
423.86	-0.02
424.064	-0
424.268	0.03
424.471	0
424.675	0.07
424.878	0.06
425.082	-0.01
425.285	0.02
425.489	0.02
425.692	-0
425.896	-0.05
426.099	0.04
426.303	-0.08
426.506	-0.1
426.71	0.04
426.913	0.02
427.116	0.04
427.32	-0.02
427.523	-0.02
427.726	0.11
427.93	-0.08
428.133	0.02
428.336	-0.07
428.54	-0.07
428.743	0.03
428.946	0.04
429.149	0.02
429.353	-0.04
429.556	-0
429.759	0.02
429.962	-0.06
430.165	-0.01
430.368	-0.02
430.571	-0.04
430.775	0
430.978	-0.02
431.181	-0
431.384	0.02
431.587	-0
431.79	0.01
431.993	0.01
432.196	-0.06
432.399	-0.04
432.602	0.06
432.805	-0.05
433.008	-0.04
433.211	-0.08
433.414	0.02
433.616	0.03
433.819	-0.03
434.022	-0.1
434.225	0.09
434.428	0
434.631	0.07
434.833	-0.02
435.036	-0.03
435.239	0.04
435.442	0.05
435.645	-0.06
435.847	-0.02
436.05	0.04
436.253	-0.02
436.455	-0.07
436.658	-0.01
436.861	0.04
437.063	-0.04
437.266	-0.06
437.468	0
437.671	0.13
437.874	0.01
438.076	-0.07
438.279	-0.05
438.481	0.01
438.684	-0.02
438.886	0.01
439.089	-0.08
439.291	-0.02
439.494	0.01
439.696	-0.06
439.899	-0.08
440.101	0.01
440.303	-0.09
440.506	0
440.708	-0.04
440.91	0.02
441.113	-0.12
441.315	-0
441.517	-0.09
441.72	0.02
441.922	-0
442.124	-0.06
442.326	-0.01
442.529	0.08
442.731	-0.03
442.933	0.08
443.135	-0.03
443.337	-0.04
443.539	-0
443.742	-0.02
443.944	0.02
444.146	-0.01
444.348	-0.03
444.55	-0.09
444.752	-0.01
444.954	-0.04
445.156	0.01
445.358	-0.02
445.56	0.01
445.762	-0.01
445.964	-0.04
446.166	-0.03
446.368	-0.02
446.57	0.04
446.772	0
446.974	-0.05
447.175	-0.04
447.377	-0.04
447.579	-0.07
447.781	-0.08
447.983	0.03
448.184	-0.02
448.386	-0.02
448.588	-0.01
448.79	-0
448.991	-0.08
449.193	-0.04
449.395	0.01
449.597	0.02
449.798	-0.02
450	0.06
450.202	-0.01
450.403	-0.01
450.605	-0.01
450.806	-0.06
451.008	-0.09
451.21	-0.02
451.411	-0.01
451.613	0.01
451.814	-0
452.016	-0.03
452.217	0.01
452.419	0.01
452.62	-0.01
452.821	0.02
453.023	0.04
453.224	-0.01
453.426	-0.02
453.627	0.06
453.828	0.04
454.03	-0.05
454.231	-0.03
454.432	-0.07
454.634	0.04
454.835	-0.01
455.036	-0.03
455.238	0
455.439	0.06
455.64	-0.05
455.841	-0.06
456.042	0.04
456.244	0.03
456.445	-0.05
456.646	-0.04
456.847	-0.03
457.048	0.02
457.249	0.01
457.45	0.17
457.651	-0.08
457.852	0.02
458.054	-0.01
458.255	0
458.456	0.02
458.657	-0.02
458.858	-0.04
459.058	0.01
459.259	0.04
459.46	-0.05
459.661	-0.06
459.862	0.12
460.063	-0.01
460.264	0.07
460.465	-0.07
460.666	0.06
460.866	0.01
461.067	-0.03
461.268	-0.01
461.469	-0.06
461.67	0.02
461.87	-0.05
462.071	-0.02
462.272	-0.05
462.473	0.02
462.673	-0.02
462.874	-0.04
463.075	-0.01
463.275	-0.07
463.476	0
463.676	0.01
463.877	-0.02
464.078	-0.03
464.278	0.03
464.479	-0.01
464.679	-0.05
464.88	-0.02
465.08	-0
465.281	-0.03
465.481	-0.06
465.682	0
465.882	0.05
466.083	-0.02
466.283	-0.04
466.483	-0.06
466.684	-0.07
466.884	-0.03
467.085	-0.03
467.285	0.03
467.485	-0.03
467.686	-0.03
467.886	-0.04
468.086	-0.03
468.286	0.02
468.487	0.02
468.687	-0.04
468.887	0.03
469.087	-0.03
469.287	0.02
469.488	-0.1
469.688	0.02
469.888	-0.01
470.088	0.01
470.288	0.07
470.488	-0
470.688	-0.05
470.888	0
471.088	-0.01
471.288	0.02
471.488	0.02
471.688	-0.01
471.888	-0.05
472.088	0.03
472.288	0.03
472.488	-0.04
472.688	-0
472.888	-0.07
473.088	-0.02
473.288	0.01
473.488	-0.02
473.688	0.07
473.887	-0.01
474.087	-0.04
474.287	0.02
474.487	-0.07
474.687	0.01
474.886	-0.03
475.086	-0.02
475.286	-0.01
475.486	0.02
475.685	-0.01
475.885	-0.02
476.085	-0.01
476.284	-0.02
476.484	-0.05
476.684	0.01
476.883	0.03
477.083	0.01
477.282	0.02
477.482	0.06
477.681	0.02
477.881	0.02
478.08	-0.04
478.28	-0.01
478.479	0.04
478.679	0.08
478.878	-0.01
479.078	-0.04
479.277	-0.03
479.477	-0
479.676	0.05
479.875	-0.02
480.075	-0.07
480.274	0.01
480.473	-0
480.673	-0.02
480.872	0.02
481.071	-0
481.271	0.02
481.47	-0.02
481.669	-0.02
481.868	-0.04
482.067	-0.02
482.267	-0.06
482.466	-0.02
482.665	-0.04
482.864	-0.01
483.063	-0.05
483.262	0.03
483.461	0.04
483.661	0.03
483.86	-0
484.059	0.02
484.258	0.01
484.457	-0
484.656	-0.01
484.855	0.03
485.054	-0.06
485.253	-0.02
485.452	-0.06
485.651	-0.02
485.849	0.01
486.048	-0.03
486.247	-0.05
486.446	-0.01
486.645	-0.04
486.844	-0.02
487.043	-0
487.241	-0
487.44	-0.01
487.639	-0.03
487.838	0.01
488.037	0.02
488.235	0.04
488.434	0.01
488.633	-0.02
488.831	0.02
489.03	0.03
489.229	-0
489.427	0
489.626	0.04
489.825	0.05
490.023	0.01
490.222	-0.03
490.42	0.01
490.619	0.02
490.817	-0.01
491.016	-0.02
491.214	0.04
491.413	-0.02
491.611	-0.02
491.81	-0.02
492.008	0.01
492.207	0.01
492.405	0
492.604	-0.03
492.802	-0
493	0.01
493.199	-0.03
493.397	-0
493.595	-0.03
493.794	-0.02
493.992	0.05
494.19	-0
494.388	0.03
494.587	-0.03
494.785	0.03
494.983	-0.03
495.181	-0.01
495.379	-0.01
495.578	-0.01
495.776	0.03
495.974	-0
496.172	-0.03
496.37	-0.02
496.568	-0.04
496.766	-0.02
496.964	0.04
497.162	-0.01
497.36	-0.02
497.558	0.01
497.756	-0
497.954	-0.01
498.152	-0.02
498.35	-0
498.548	-0.03
498.746	0.01
498.944	-0.01
499.142	-0.03
499.34	-0.05
499.538	-0.03
499.736	0.02
499.933	0.01
500.131	0.01
500.329	0.01
500.527	0.01
500.725	0.04
500.922	0.03
501.12	-0.01
501.318	-0
501.516	-0.04
501.713	0.01
501.911	-0.01
502.109	-0.02
502.306	-0
502.504	-0
502.701	-0.03
502.899	-0.01
503.097	0.04
503.294	-0
503.492	0.01
503.689	0.03
503.887	-0
504.084	0.03
504.282	-0
504.479	-0.04
504.677	-0.02
504.874	-0.01
505.072	0.01
505.269	-0.02
505.466	0.01
505.664	0
505.861	-0.04
506.059	-0.07
506.256	0.01
506.453	-0.04
506.651	0.04
506.848	0.01
507.045	0
507.242	-0.01
507.44	-0.02
507.637	-0.01
507.834	0
508.031	0.02
508.229	-0.01
508.426	-0.02
508.623	0.01
508.82	-0.04
509.017	-0.03
509.214	-0.02
509.411	0.01
509.608	-0.02
509.805	-0.01
510.003	-0.01
510.2	-0.02
510.397	0.02
510.594	-0
510.791	-0.04
510.988	-0.02
511.184	0.03
511.381	-0
511.578	-0.02
511.775	0.02
511.972	-0.03
512.169	-0.03
512.366	0
512.563	-0
512.76	-0.01
512.956	-0.01
513.153	-0.02
513.35	0.01
513.547	-0.02
513.744	-0.02
513.94	-0.05
514.137	0.01
514.334	0
514.53	0
514.727	0.01
514.924	0.04
515.12	-0.01
515.317	-0.05
515.514	-0.03
515.71	-0.04
515.907	-0.02
516.103	0
516.3	-0.01
516.497	-0
516.693	0.03
516.89	0
517.086	-0.03
517.283	0.04
517.479	-0.01
517.676	-0.02
517.872	-0.02
518.068	-0.02
518.265	-0.01
518.461	-0.03
518.658	-0.03
518.854	0.01
519.05	-0
519.247	-0.02
519.443	0
519.639	-0.03
519.836	-0.01
520.032	0.01
520.228	-0.02
520.424	0.04
520.621	0.02
520.817	0.01
521.013	0.03
521.209	-0
521.405	0.02
521.601	0.01
521.798	-0.01
521.994	0.04
522.19	-0.01
522.386	-0.02
522.582	0.01
522.778	0
522.974	-0.01
523.17	0.01
523.366	-0.02
523.562	0.03
523.758	0.01
523.954	-0.02
524.15	-0
524.346	0
524.542	-0.01
524.738	-0.01
524.934	-0.01
525.129	-0.01
525.325	-0
525.521	-0.04
525.717	0.02
525.913	-0
526.109	-0.01
526.304	-0.02
526.5	0.01
526.696	0.01
526.892	-0.02
527.087	-0
527.283	-0.02
527.479	0.01
527.674	-0.01
527.87	0
528.066	-0.01
528.261	-0
528.457	0.03
528.653	-0.01
528.848	-0
529.044	-0
529.239	0
529.435	0.02
529.63	0.02
529.826	0.02
530.021	0.02
530.217	0.02
530.412	-0.02
530.608	-0.01
530.803	0
530.999	-0.02
531.194	-0.05
531.389	0.01
531.585	-0.04
531.78	-0.01
531.975	0.01
532.171	0.01
532.366	-0.01
532.561	0.01
532.757	-0.03
532.952	-0.02
533.147	0.01
533.342	-0.02
533.538	-0
533.733	0.02
533.928	-0.01
534.123	-0.01
534.318	-0.06
534.513	-0.01
534.709	0.01
534.904	-0.01
535.099	-0.01
535.294	0
535.489	0.01
535.684	-0
535.879	-0.04
536.074	0.01
536.269	-0.02
536.464	-0.01
536.659	-0.01
536.854	-0.01
537.049	-0
537.244	-0.01
537.439	-0.01
537.634	0.03
537.828	0.01
538.023	0.01
538.218	-0.05
538.413	-0.01
538.608	-0.02
538.803	0.01
538.997	-0.05
539.192	0.02
539.387	0.01
539.582	0.01
539.776	0.01
539.971	-0.02
540.166	-0.02
540.36	-0.03
540.555	-0.02
540.75	-0
540.944	-0.01
541.139	-0.03
541.334	-0.02
541.528	0.01
541.723	0
541.917	-0.02
542.112	-0.04
542.306	-0.03
542.501	-0.03
542.695	0
542.89	0.01
543.084	0.01
543.279	-0.02
543.473	-0.02
543.668	-0
543.862	-0.01
544.056	0.01
544.251	-0.02
544.445	0
544.64	-0.01
544.834	-0.02
545.028	-0.01
545.222	-0
545.417	0.02
545.611	-0.01
545.805	-0
546	-0.01
546.194	-0
546.388	-0.01
546.582	0.01
546.776	0.01
546.97	-0.02
547.165	-0.01
547.359	0.01
547.553	-0.04
547.747	-0
547.941	-0
548.135	-0.01
548.329	0.02
548.523	0.02
548.717	-0.01
548.911	-0.02
549.105	-0
549.299	-0.01
549.493	-0.02
549.687	0
549.881	0.01
550.075	-0
550.269	-0.03
550.463	0.03
550.657	-0.02
550.85	-0.02
551.044	-0.02
551.238	-0.01
551.432	-0.03
551.626	-0.03
551.82	0.01
552.013	-0.02
552.207	-0.02
552.401	0
552.594	-0.02
552.788	-0
552.982	0
553.176	-0.02
553.369	0.01
553.563	0.01
553.756	-0.06
553.95	-0.04
554.144	-0.01
554.337	0
554.531	-0.01
554.724	-0.01
554.918	-0.03
555.111	0.03
555.305	0.01
555.498	0.04
555.692	0.02
555.885	-0.03
556.079	-0.01
556.272	-0.02
556.466	0.01
556.659	0.02
556.852	0
557.046	-0.01
557.239	0.03
557.432	-0.03
557.626	-0.04
557.819	-0.01
558.012	0
558.206	0.02
558.399	0.01
558.592	0
558.785	-0.02
558.979	0.02
559.172	-0
559.365	0.02
559.558	0
559.751	0
559.944	-0.01
560.138	0.02
560.331	-0.01
560.524	-0.03
560.717	-0.03
560.91	-0.02
561.103	0
561.296	0.01
561.489	0.01
561.682	0.02
561.875	0.03
562.068	0.01
562.261	0
562.454	0.04
562.647	0.01
562.84	0.02
563.032	-0.01
563.225	0.01
563.418	0.01
563.611	-0.03
563.804	-0.01
563.997	-0
564.19	-0.04
564.382	-0.02
564.575	-0.03
564.768	-0.01
564.961	0.01
565.153	-0.01
565.346	0
565.539	-0
565.731	0
565.924	0.03
566.117	0.01
566.309	-0
566.502	-0.02
566.695	-0.01
566.887	-0.01
567.08	-0.01
567.272	-0.01
567.465	-0.01
567.657	0
567.85	0.01
568.042	0.01
568.235	0.03
568.427	-0.01
568.62	0.01
568.812	0.01
569.005	0
569.197	-0.03
569.389	-0
569.582	0
569.774	0.02
569.966	-0.03
570.159	0
570.351	0.01
570.543	-0.01
570.736	-0
570.928	-0.02
571.12	0.02
571.312	-0.01
571.505	-0.04
571.697	0.03
571.889	-0.02
572.081	-0.01
572.273	-0.03
572.465	0.02
572.658	-0
572.85	0.01
573.042	-0.01
573.234	-0.01
573.426	0.03
573.618	-0.01
573.81	0.02
574.002	0.03
574.194	0.02
574.386	-0.02
574.578	-0.08
574.77	-0.02
574.962	0.01
575.154	-0.03
575.346	-0.01
575.538	0
575.729	-0.01
575.921	-0
576.113	0
576.305	0.03
576.497	-0.01
576.689	-0.01
576.88	-0.02
577.072	0.02
577.264	-0.01
577.456	0.01
577.647	-0.05
577.839	-0.01
578.031	0.05
578.223	-0.02
578.414	-0.01
578.606	0.01
578.798	-0.01
578.989	-0.05
579.181	0.01
579.372	0.02
579.564	-0.01
579.755	0.01
579.947	0
580.139	0.02
580.33	-0.06
580.522	-0.02
580.713	-0.07
580.905	-0.01
581.096	0
581.287	-0
581.479	0.02
581.67	0.02
581.862	-0
582.053	-0.01
582.244	-0.03
582.436	-0.01
582.627	0.01
582.818	-0.03
583.01	-0.02
583.201	0.02
583.392	0.02
583.583	0.02
583.775	-0.02
583.966	-0.02
584.157	-0
584.348	-0.01
584.54	-0.05
584.731	0
584.922	-0
585.113	-0.03
585.304	0.03
585.495	0.03
585.686	0.02
585.877	0.04
586.068	0.03
586.259	0.03
586.45	0
586.641	-0.02
586.832	-0.04
587.023	-0
587.214	0.01
587.405	0.02
587.596	-0.01
587.787	0.06
587.978	0
588.169	-0.01
588.36	0.01
588.551	0.02
588.742	-0.01
588.932	0.01
589.123	0.01
589.314	0.05
589.505	0.04
589.696	0.04
589.886	-0.03
590.077	-0.02
590.268	0.02
590.458	-0.03
590.649	-0.01
590.84	0.06
591.03	-0.01
591.221	-0.02
591.412	-0.03
591.602	0.06
591.793	0.06
591.984	-0.01
592.174	0.01
592.365	0.06
592.555	0
592.746	0.04
592.936	0.05
593.127	0.02
593.317	0.07
593.508	0.02
593.698	0.01
593.889	0.01
594.079	0.04
594.269	0
594.46	0.01
594.65	0.04
594.84	0.04
595.031	0.02
595.221	0.02
595.411	0.01
595.602	0.08
595.792	0.06
595.982	0
596.172	0.09
596.363	0.07
596.553	0.05
596.743	0.03
596.933	0.04
597.123	0.07
597.314	0.03
597.504	0.02
597.694	0.08
597.884	0.06
598.074	0.04
598.264	0.03
598.454	0.06
598.644	0.08
598.834	0.06
599.024	-0.01
599.214	0.05
599.404	0.08
599.594	0.01
599.784	0.06
599.974	0.08
600.164	0.08
600.354	0.04
600.544	0.02
600.734	0.07
600.924	0.08
601.114	0.04
601.303	0.07
601.493	0.08
601.683	0.06
601.873	0.08
602.063	0.02
602.252	0.08
602.442	0.01
602.632	0.06
602.821	0.05
603.011	0.1
603.201	0.08
603.39	0.06
603.58	0.06
603.77	0.1
603.959	0.08
604.149	0.09
604.339	0.07
604.528	0.15
604.718	0.1
604.907	0.1
605.097	0.1
605.286	0.05
605.476	0.13
605.665	0.1
605.855	0.11
606.044	0.15
606.234	0.13
606.423	0.11
606.612	0.09
606.802	0.12
606.991	0.14
607.181	0.12
607.37	0.1
607.559	0.13
607.749	0.1
607.938	0.15
608.127	0.14
608.316	0.13
608.506	0.14
608.695	0.15
608.884	0.12
609.073	0.16
609.263	0.2
609.452	0.19
609.641	0.19
609.83	0.14
610.019	0.17
610.208	0.18
610.397	0.2
610.586	0.23
610.775	0.17
610.965	0.22
611.154	0.2
611.343	0.2
611.532	0.23
611.721	0.22
611.91	0.21
612.099	0.26
612.287	0.24
612.476	0.23
612.665	0.27
612.854	0.22
613.043	0.28
613.232	0.26
613.421	0.25
613.61	0.29
613.798	0.25
613.987	0.32
614.176	0.29
614.365	0.35
614.554	0.3
614.742	0.34
614.931	0.29
615.12	0.35
615.309	0.33
615.497	0.35
615.686	0.34
615.875	0.35
616.063	0.38
616.252	0.35
616.44	0.36
616.629	0.39
616.818	0.39
617.006	0.36
617.195	0.35
617.383	0.42
617.572	0.42
617.76	0.41
617.949	0.43
618.137	0.45
618.326	0.52
618.514	0.42
618.703	0.49
618.891	0.54
619.079	0.42
619.268	0.53
619.456	0.47
619.644	0.5
619.833	0.45
620.021	0.48
620.209	0.48
620.398	0.54
620.586	0.51
620.774	0.57
620.962	0.55
621.151	0.61
621.339	0.54
621.527	0.49
621.715	0.49
621.903	0.54
622.092	0.53
622.28	0.6
622.468	0.55
622.656	0.57
622.844	0.56
623.032	0.54
623.22	0.51
623.408	0.6
623.596	0.55
623.784	0.6
623.972	0.52
624.16	0.52
624.348	0.61
624.536	0.53
624.724	0.49
624.912	0.55
625.1	0.56
625.288	0.5
625.476	0.49
625.664	0.53
625.851	0.5
626.039	0.48
626.227	0.47
626.415	0.44
626.603	0.4
626.79	0.43
626.978	0.44
627.166	0.37
627.354	0.38
627.541	0.35
627.729	0.27
627.917	0.38
628.104	0.37
628.292	0.33
628.48	0.33
628.667	0.31
628.855	0.33
629.042	0.27
629.23	0.26
629.418	0.26
629.605	0.24
629.793	0.23
629.98	0.22
630.168	0.19
630.355	0.19
630.543	0.21
630.73	0.17
630.917	0.23
631.105	0.22
631.292	0.14
631.48	0.16
631.667	0.21
631.854	0.17
632.042	0.15
632.229	0.08
632.416	0.11
632.604	0.09
632.791	0.1
632.978	0.15
633.165	0.14
633.353	0.17
633.54	0.14
633.727	0.03
633.914	0.09
634.101	0.04
634.289	0.14
634.476	0.06
634.663	0.06
634.85	0.11
635.037	0.05
635.224	0.04
635.411	0.1
635.598	0.09
635.785	0.03
635.972	0.07
636.159	0.07
636.346	0.03
636.533	0.06
636.72	0.05
636.907	0.04
637.094	0.07
637.281	0.04
637.468	0.08
637.655	0.02
637.842	0.04
638.029	0.03
638.215	0.04
638.402	0
638.589	0.02
638.776	0.03
638.963	0.01
639.149	0.09
639.336	0.08
639.523	0.02
639.709	0.04
639.896	0.02
640.083	0.06
640.27	0.05
640.456	-0
640.643	0.06
640.829	-0.03
641.016	0.03
641.203	-0.03
641.389	0.05
641.576	0.05
641.762	0.02
641.949	-0.03
642.135	0.05
642.322	0.02
642.508	-0.04
642.695	-0.01
642.881	0.01
643.068	-0.01
643.254	0
643.441	0.05
643.627	0
643.813	-0.04
644	0.04
644.186	-0.02
644.372	0.02
644.559	0.05
644.745	-0.02
644.931	-0.02
645.118	0.04
645.304	0.02
645.49	0.01
645.676	-0.01
645.862	0.02
646.049	0.07
646.235	0.03
646.421	0.05
646.607	0.03
646.793	-0.05
646.979	-0.04
647.165	0
647.352	0.03
647.538	0.02
647.724	-0.04
647.91	0.03
648.096	0
648.282	0.01
648.468	-0.03
648.654	0.01
648.84	0.01
649.026	-0.03
649.212	0.01
649.397	-0.05
649.583	-0.02
649.769	0.03
649.955	0
650.141	0
650.327	0.06
650.513	-0.04
650.698	0.02
650.884	-0.06
651.07	-0.01
651.256	-0.03
651.442	0.02
651.627	-0.01
651.813	0.01
651.999	-0.04
652.184	0.02
652.37	-0.04
652.556	-0.03
652.741	0.04
652.927	-0.08
653.113	-0.01
653.298	0.01
653.484	-0.02
653.669	-0.04
653.855	-0.01
654.04	0.03
654.226	0.01
654.412	-0.06
654.597	-0.06
654.782	-0.02
654.968	0.02
655.153	-0.01
655.339	-0.05
655.524	-0.05
655.71	0.02
655.895	-0.02
656.08	-0.02
656.266	0.05
656.451	-0.01
656.636	-0.06
656.822	-0.03
657.007	0
657.192	-0.05
657.378	-0.06
657.563	-0.02
657.748	0.04
657.933	0.02
658.118	-0.02
658.304	-0.03
658.489	0.03
658.674	0.01
658.859	-0.02
659.044	-0.01
659.229	-0
659.414	-0.04
659.599	0
659.785	-0.04
659.97	-0.01
660.155	0
660.34	0
660.525	-0.03
660.71	-0.05
660.895	0.02
661.08	-0.02
661.264	-0.08
661.449	0.01
661.634	0.02
661.819	0.01
662.004	0.02
662.189	-0.1
662.374	-0.02
662.559	-0.03
662.743	-0.07
662.928	-0.02
663.113	-0.02
663.298	-0.07
663.483	-0.01
663.667	0.02
663.852	-0.05
664.037	0.02
664.221	-0.05
664.406	0.01
664.591	0
664.775	-0.01
664.96	-0.06
665.145	0.01
665.329	0.02
665.514	-0.01
665.698	-0.05
665.883	-0.09
666.068	0.02
666.252	-0.02
666.437	-0.05
666.621	-0.04
666.806	0.02
666.99	-0.04
667.174	-0.05
667.359	0.04
667.543	-0.04
667.728	-0.03
667.912	-0.04
668.096	0
668.281	-0.02
668.465	-0
668.649	0
668.834	-0.02
669.018	-0.02
669.202	-0.01
669.387	-0.03
669.571	0.02
669.755	-0.05
669.939	-0.04
670.124	-0.01
670.308	0.04
670.492	0.03
670.676	0
670.86	-0.03
671.044	-0.05
671.228	-0
671.413	-0.06
671.597	-0.02
671.781	-0.05
671.965	0
672.149	-0.03
672.333	-0.03
672.517	-0.06
672.701	0.01
672.885	0
673.069	-0.09
673.253	0.04
673.437	-0.03
673.621	-0.07
673.804	-0.06
673.988	-0.01
674.172	-0.02
674.356	-0.08
674.54	-0.02
674.724	0.06
674.908	-0.02
675.091	-0.02
675.275	-0.05
675.459	0.06
675.643	-0.04
675.826	0
676.01	-0
676.194	0.03
676.377	0.02
676.561	-0.02
676.745	-0.03
676.928	0
677.112	0.02
677.296	-0.02
677.479	-0.03
677.663	-0.03
677.846	0.02
678.03	-0.04
678.213	-0.05
678.397	0
678.58	0
678.764	-0.05
678.947	-0.08
679.131	-0.07
679.314	0.03
679.498	-0
679.681	0
679.865	0.07
680.048	0.02
680.231	-0.07
680.415	-0.02
680.598	-0.05
680.781	-0.02
680.965	-0.03
681.148	0.01
681.331	-0.06
681.514	0.02
681.698	-0.03
681.881	-0.05
682.064	-0.04
682.247	-0.05
682.43	-0.07
682.614	0.04
682.797	0.04
682.98	-0
683.163	-0.06
683.346	0.02
683.529	-0.01
683.712	-0.1
683.895	0.06
684.078	-0.02
684.261	-0
684.444	0.01
684.627	-0.02
684.81	-0.03
684.993	-0.05
685.176	0.01
685.359	-0.05
685.542	-0.02
685.725	0
685.908	-0.03
686.091	-0.04
686.274	0.07
686.457	0.02
686.639	-0.02
686.822	0.02
687.005	-0.01
687.188	0.02
687.371	0.07
687.553	-0.02
687.736	0.01
687.919	0.04
688.102	0.03
688.284	-0.03
688.467	0.01
688.65	-0.06
688.832	-0.06
689.015	-0
689.197	-0.03
689.38	0.12
689.563	0.09
689.745	-0.02
689.928	-0.02
690.11	-0.03
690.293	-0.02
690.475	-0.11
690.658	-0.03
690.84	-0.02
691.023	0.01
691.205	-0.03
691.388	-0.01
691.57	0.02
691.752	0.06
691.935	-0.12
692.117	-0.03
692.3	0.03
692.482	-0.03
692.664	0.02
692.847	-0
693.029	-0.03
693.211	0.03
693.393	0.02
693.576	-0.04
693.758	-0.04
693.94	-0.01
694.122	-0
694.304	-0
694.487	-0.01
694.669	0.04
694.851	-0.07
695.033	0.01
695.215	-0.04
695.397	-0.06
695.579	-0
695.761	-0.02
695.943	-0.06
696.125	-0
696.308	0.02
696.49	-0.11
696.671	0.1
696.853	-0.02
697.035	0.12
697.217	0.01
697.399	0.03
697.581	-0.03
697.763	-0
697.945	-0.08
698.127	0
698.309	0.06
698.491	-0.03
698.672	0.04
698.854	0.07
699.036	0.06
699.218	-0.02
699.399	0.01
699.581	0.04
699.763	-0.02
699.945	-0.05
700.126	-0.07
700.308	-0.02
700.49	-0.01
700.671	-0.08
700.853	-0.05
701.035	-0.02
701.216	0.03
701.398	-0.06
701.579	-0.05
701.761	0.01
701.943	-0.01
702.124	-0.02
702.306	-0.02
702.487	0.09
702.669	-0.07
702.85	-0.07
703.031	-0.08
703.213	0.1
703.394	-0
703.576	-0.08
703.757	0.04
703.938	0.03
704.12	0.16
704.301	-0.02
704.483	-0.03
704.664	0.03
704.845	0.07
705.026	0.03
705.208	-0.01
705.389	0.03
705.57	-0.03
705.751	-0.01
705.933	-0.07
706.114	0.01
706.295	0.01
706.476	-0.07
706.657	0.03
706.838	0.06
707.02	0
707.201	-0.04
707.382	-0.07
707.563	0.01
707.744	-0.06
707.925	-0.06
708.106	-0.02
708.287	-0
708.468	0.03
708.649	-0.01
708.83	0.05
709.011	-0.03
709.192	0.02
709.373	-0.17
709.554	-0.06
709.734	0.04
709.915	-0
710.096	-0.07
710.277	-0.21
710.458	-0.02
710.639	0.05
710.819	-0.1
711	0.03
711.181	-0
711.362	0.05
711.542	0
711.723	-0.09
711.904	0.05
712.085	0.01
712.265	0.06
712.446	-0.09
712.627	-0.02
712.807	-0.05
712.988	-0.06
713.168	-0.07
713.349	-0.01
713.53	-0.1
713.71	-0.05
713.891	-0.08
714.071	0
714.252	-0.03
714.432	-0.04
714.613	-0.15
714.793	0.01
714.974	0.05
715.154	-0.02
715.334	0.07
715.515	0.01
715.695	-0.05
715.876	-0.11
716.056	0.01
716.236	-0.06
716.417	-0.02
716.597	-0.13
716.777	0.1
716.957	-0.03
717.138	0.04
717.318	0.06
717.498	-0.07
717.678	-0.03
717.859	0.01
718.039	-0.03
718.219	0.02
718.399	0.04
718.579	-0.02
718.759	-0.11
718.939	0.02
719.12	-0.01
719.3	0.02
719.48	-0.13
719.66	-0.11
719.84	0.1
720.02	-0.02
720.2	-0.06
720.38	0.02
720.56	0.11
720.74	0
720.92	0.02
721.1	0.04
721.279	0.08
721.459	-0.03
721.639	-0.13
721.819	-0.05
721.999	-0.08
722.179	0.03
722.359	-0.09
722.538	-0.01
722.718	0.03
722.898	-0.06
723.078	-0.09
723.257	-0.03
723.437	0.04
723.617	0.03
723.797	-0.05
723.976	-0.01
724.156	0.06
724.336	0.08
724.515	0.15
724.695	-0.06
724.874	-0.02
725.054	0.02
725.234	-0.13
725.413	0.06
725.593	0.01
725.772	-0.05
725.952	-0
726.131	0.01
726.311	-0.06
726.49	-0.01
726.67	-0.07
726.849	-0.04
727.028	0.04
727.208	-0.07
727.387	0
727.567	-0.12
727.746	0.03
727.925	-0.1
728.105	-0.09
728.284	0
728.463	-0.11
728.643	0.04
728.822	-0.08
729.001	-0.06
729.18	-0.05
729.359	0.04
729.539	0.08
729.718	-0.01
729.897	0.06
730.076	-0.04
730.255	-0.09
730.434	-0
730.614	0.05
730.793	0.06
730.972	-0.03
731.151	-0.03
731.33	0.06
731.509	0.14
731.688	0.04
731.867	-0.03
732.046	-0.17
732.225	0.24
732.404	-0.06
732.583	-0.07
732.762	0.01
732.941	0.08
733.12	0.04
733.298	-0.12
733.477	0.01
733.656	-0.05
733.835	-0.12
734.014	0.01
734.193	-0.04
734.371	0.04
734.55	0.08
734.729	-0.13
734.908	0.06
735.086	-0
735.265	0.04
735.444	-0.19
735.623	-0.09
735.801	-0.08
735.98	-0.05
736.159	-0.08
736.337	0.08
736.516	-0.03
736.694	-0.08
736.873	-0.19
737.052	-0.03
737.23	0.08
737.409	-0.03
737.587	0.05
737.766	-0.13
737.944	-0.11
738.123	-0.03
738.301	0.03
738.479	0.02
738.658	-0.01
738.836	-0.18
739.015	-0.08
739.193	0.06
739.371	-0.13
739.55	0
739.728	-0.14
739.906	-0
740.085	0.1
740.263	0.03
740.441	-0.18
740.62	0.17
740.798	0.04
740.976	-0.06
741.154	-0.12
741.332	0.06
741.511	-0.09
741.689	0.14
741.867	0.11
742.045	-0.06
742.223	-0.03
742.401	-0.09
742.579	-0.04
742.757	0.06
742.935	-0.12
743.114	-0.03
743.292	-0.12
743.47	-0.05
743.648	0.03
743.826	-0.23
744.004	0.09
744.181	-0
744.359	-0.11
744.537	-0.1
744.715	-0.05
744.893	-0.05
745.071	-0.1
745.249	0.03
745.427	-0.01
745.605	0.02
745.782	0.02
745.96	0.06
746.138	0.01
746.316	-0.03
746.493	0.01
746.671	-0.04
746.849	-0.01
747.027	0.12
747.204	-0.15
747.382	0.04
747.56	-0.14
747.737	-0.04
747.915	-0.13
748.093	0.21
748.27	-0.06
748.448	-0.17
748.625	-0.17
748.803	-0.08
748.98	-0.08
749.158	-0.04
749.335	0.1
749.513	-0.06
749.69	-0.13
749.868	0.05
750.045	-0.04
750.223	-0.07
750.4	-0.12
750.578	0.12
750.755	0.03
750.932	-0.09
751.11	-0
751.287	-0.09
751.464	0.18
751.642	-0.13
751.819	0.13
751.996	-0.08
752.173	0.05
752.351	-0.21
752.528	0.01
752.705	-0.03
752.882	-0.14
753.06	0.04
753.237	0.07
753.414	0.11
753.591	0.16
753.768	-0.15
753.945	-0.09
754.122	-0.06
754.299	-0.03
754.476	-0.09
754.654	-0.05
754.831	0.02
755.008	0.07
755.185	-0.13
755.362	-0.12
755.539	0.05
755.716	-0.2
755.892	-0.08
756.069	0.01
756.246	-0.11
756.423	0.01
756.6	0.16
756.777	-0.01
756.954	0.04
757.131	-0.07
757.307	-0.11
757.484	-0.19
757.661	-0.06
757.838	0.02
758.015	-0.13
758.191	-0.01
758.368	-0.01
758.545	0.14
758.721	0.14
758.898	-0.06
759.075	0.03
759.251	0.08
759.428	0.04
759.605	-0.09
759.781	-0.06
759.958	-0.01
760.134	0.04
760.311	-0.04
760.488	0.19
760.664	0.12
760.841	-0.02
761.017	-0.14
761.194	0.06
761.37	0.02
761.547	-0
761.723	0.04
761.899	0.1
762.076	-0.1
762.252	-0.14
762.429	-0.12
762.605	0.03
762.781	-0.08
762.958	0.14
763.134	-0.06
763.31	-0.01
763.486	0.1
763.663	-0.27
763.839	0.08
764.015	-0.08
764.191	-0.15
764.368	-0
764.544	-0.11
764.72	0.06
764.896	0.02
765.072	-0.01
765.248	-0.11
765.425	-0.15
765.601	-0.03
765.777	0.01
765.953	-0.3
766.129	-0.04
766.305	-0.12
766.481	0.09
766.657	0.04
766.833	0.13
767.009	-0.17
767.185	0
767.361	0
767.537	-0.22
767.713	0.18
767.889	-0.08
768.065	0.02
768.24	-0.32
768.416	0.01
768.592	-0.03
768.768	-0.02
768.944	-0.01
769.12	-0.16
769.295	-0.1
769.471	0.05
769.647	0.02
769.823	0.04
769.998	-0.16
770.174	-0.09
770.35	0.18
770.525	0.34
770.701	0.12
770.877	-0.12
771.052	-0.05
771.228	0.14
771.403	-0.08
771.579	0.13
771.755	0.25
771.93	-0.18
772.106	-0.13
772.281	-0.06
772.457	-0.02
772.632	0.06
772.808	-0.18
772.983	0.05
773.159	-0.26
773.334	0.17
773.509	0.02
773.685	-0.1
773.86	0.27
774.036	0.24
774.211	0.06
774.386	0.01
774.562	0.04
774.737	0.11
774.912	-0.11
775.087	0.1
775.263	0.19
775.438	0.05
775.613	-0.02
775.788	-0.07
775.964	0.21
776.139	0.27
776.314	-0.16
776.489	-0.03
776.664	-0.05
776.839	-0.19
777.014	0.14
777.19	0.02
777.365	0.32
777.54	0.21
777.715	0.03
777.89	0.01
778.065	-0.08
778.24	0.01
778.415	0.19
778.59	-0.25
778.765	-0.04
778.94	0.05
779.115	0.04
779.289	0.02
779.464	-0.08
779.639	0.02
779.814	-0.33
779.989	-0.22
780.164	0.08
780.339	0.04
780.513	-0.11
780.688	-0.22
780.863	0.06
781.038	0.14
781.212	-0.23
781.387	-0.02
781.562	0.26
781.737	-0.15
781.911	0.04
782.086	-0.07
782.261	-0.11
782.435	0.16
782.61	-0.06
782.784	-0.04
782.959	0.27
783.134	-0.02
783.308	-0.17
783.483	0.04
783.657	0.33
783.832	0.11
784.006	-0.33
784.181	-0.07
784.355	0.11
784.53	-0.09
784.704	-0.07
784.878	-0.01
785.053	0.11
785.227	0.08
785.402	0.43
785.576	-0.34
785.75	0.02
785.925	-0.11
786.099	0.18
786.273	0.2
786.448	0.27
786.622	0.13
786.796	-0.13
786.97	-0.1
787.145	0.25
787.319	-0.52
787.493	-0.09
787.667	-0.43
787.841	0.08
788.015	0.04
788.19	-0.09
788.364	-0.13
788.538	-0.02
788.712	0.11
788.886	-0.04
789.06	0.13
789.234	0.33
789.408	-0.25
789.582	-0.01
789.756	-0.08
789.93	-0.07
790.104	0.1
790.278	-0.1
790.452	-0.26
790.626	0.07
790.8	-0.27
790.973	0.1
791.147	0.32
791.321	0.21
791.495	0.02
791.669	0.13
791.843	0.07
792.016	0.04
792.19	0.2
792.364	-0.22
792.538	0.51
792.711	0.24
792.885	-0.24
793.059	-0.14
793.233	-0.46
793.406	-0.01
793.58	0.04
793.754	-0
793.927	-0.09
794.101	0.17
794.274	-0.13
794.448	0.33
794.622	-0.29
794.795	0.08
794.969	-0.32
795.142	0.18
795.316	0.03
795.489	-0.22
795.663	0.09
795.836	-0.23
796.009	-0.22
796.183	0.55
796.356	0.16
796.53	0.09
796.703	-0.12
796.876	0.36
797.05	-0.01
797.223	-0.07
797.396	0.09
797.57	-0.12
797.743	0.29
797.916	0.13
798.09	-0.01
798.263	0.28
798.436	0.32
798.609	0.04
798.782	0.02
798.956	-0.01
799.129	0.11
799.302	0.05
799.475	0.03
799.648	-0.22
799.821	-0.31
799.994	0.12
800.167	-0.4
800.34	0.04
800.514	0.1
800.687	-0.05
800.86	-0.04
801.033	-0.24
801.206	-0.11
801.379	-0.22
801.551	0.16
801.724	0.46
801.897	0.54
802.07	-0.27
802.243	-0.46
802.416	-0.02
802.589	-0.23
802.762	0.01
802.935	0.01
803.107	0.2
803.28	0.38
803.453	0.03
803.626	0.02
803.798	0.13
803.971	-0.27
804.144	0.33
804.317	0.18
804.489	0.28
804.662	-0.3
804.835	0.06
805.007	-0.17
805.18	0.5
805.353	0.18
805.525	-0.34
805.698	-0.15
805.87	0.38
806.043	0.06
806.215	-0.25
806.388	-0.14
806.56	0.12
806.733	0.06
806.905	0.04
807.078	-0.26
807.25	0
807.423	0.27
807.595	-0.19
807.768	0.01
807.94	0.29
808.112	0.23
808.285	0.07
808.457	-0.09
808.629	0.04
808.802	0.44
808.974	-0
809.146	-0.06
809.318	-0.05
809.491	0.16
809.663	0.31
809.835	-0.12
810.007	-0.04
810.18	0.06
810.352	-0.23
810.524	0.03
810.696	-0
810.868	0.35
811.04	-0.14
811.212	0.1
811.384	0.06
811.556	0.03
811.728	-0.14
811.901	0.71
812.073	-0.22
812.245	-0.07
812.417	0.22
812.589	-0.68
812.76	-0.13
812.932	-0.01
813.104	0.03
813.276	0.04
813.448	0.52
813.62	-0.36
813.792	0.16
813.964	0.32
814.136	0.11
814.307	-0.15
814.479	-0.36
814.651	-0.04
814.823	0.85
814.995	-0.1
815.166	0.12
815.338	-0.3
815.51	-0.62
815.681	1.17
815.853	-0.14
816.025	-0.41
816.196	0.15
816.368	-0.33
816.54	-0.34
816.711	-0.34
816.883	-0.27
817.054	0.89
817.226	-0.4
817.398	0.08
817.569	-0.2
817.741	0.15
817.912	0.09
818.084	0.15
818.255	-0.05
818.426	-0.46
818.598	0.02
818.769	-0.1
818.941	0.22
819.112	0.52
819.283	0.5
819.455	-0.41
819.626	0.14
819.798	0.25
819.969	0.04
820.14	-0.36
820.311	-0.05
820.483	0.15
820.654	0.26
820.825	-0.07
820.996	0.04
821.168	-0.61
821.339	-0.31
821.51	-0.2
821.681	-0.05
821.852	-0.04
822.023	-0.34
822.195	-0.54
822.366	0.08
822.537	-0.06
822.708	-0.54
822.879	-0.1
823.05	0.57
823.221	-0.3
823.392	0.53
823.563	-0.38
823.734	-0.13
823.905	-0.02
824.076	-0.11
824.247	-0.17
824.418	-0.17
824.589	0.6
824.759	-0.03
824.93	0.03
825.101	-0.91
825.272	0.3
825.443	0.25
825.614	0.51
825.784	-1.03
825.955	0.81
826.126	0.86
826.297	-0.03
826.467	0.53
826.638	0.78
826.809	-0.96
826.98	0.02
827.15	0.18
827.321	-0.5
827.492	0.78
827.662	0.13
827.833	1.19
828.003	0.63
828.174	-0.37
828.345	-0.33
828.515	0.7
828.686	0.18
828.856	-0.3
829.027	-0.09
829.197	0.07
829.368	0.57
829.538	0.12
829.709	-0.02
829.879	0.41
830.049	-0.61
830.22	-0.77
830.39	0.15
830.56	0.14
830.731	0.01
830.901	0.18
831.072	0.13
831.242	-0.01
831.412	-0.33
831.582	-0.05
831.753	-0.88
831.923	0.25
832.093	-0.12
832.263	-0.25
832.434	-0.07
832.604	-0.03
832.774	0.85
832.944	-0.05
833.114	-0.59
833.284	0.6
833.454	-0.49
833.624	-0.35
833.795	-0.45
833.965	0.51
834.135	0.79
834.305	-0.7
834.475	-0.35
834.645	-0.03
834.815	-0.47
834.985	-0.58
835.155	0.06
835.325	0.59
835.494	0.38
835.664	-0.5
835.834	-0.49
836.004	-0.5
836.174	0.74
836.344	-0.02
836.514	-1
836.684	-0.83
836.853	0.02
837.023	-0.16
837.193	-0.34
837.363	0.24
837.532	0.38
837.702	-0.22
837.872	-0.44
838.041	0.32
838.211	1.45
838.381	-0.68
838.55	-0.55
838.72	1.35
838.89	0.85
839.059	-0.65
839.229	-0.53
839.398	0.78
839.568	0.42
839.738	-0.15
839.907	0.06
840.077	0.27
840.246	-0.17
840.416	-0.43
840.585	-0.24
840.755	2.12
840.924	0.75
841.093	-0.87
841.263	0.04
841.432	-0.35
841.602	-0.21
841.771	-0.39
841.94	0.06
842.11	1.87
842.279	1.13
842.448	0.01
842.617	-0.75
842.787	1.35
842.956	-1.05
843.125	-0.4
843.294	0.22
843.464	-0.16
843.633	-0.37
843.802	-0.39
843.971	-0.07
844.14	0.15
844.309	0.51
844.479	-0.09
844.648	-0.93
844.817	-0.2
844.986	0.25
845.155	-0.45
845.324	-0.58
845.493	0.36
845.662	-0.21
845.831	0.7
846	0.55
846.169	-0.55
846.338	1.14
846.507	0.01
846.676	-0.2
846.844	-0.75
847.013	0.72
847.182	0.25
847.351	-0.05
847.52	0.52
847.689	0.88
847.858	-0.17
848.026	0.16
848.195	0.29
848.364	-0.16
848.533	-0.34
848.701	-0.05
848.87	0.64
849.039	0.06
849.207	0.87
849.376	1.19
849.545	1.39
849.713	-0.64
849.882	-0.65
850.051	0.49
850.219	0.83
850.388	0.46
850.556	-0.28
850.725	-0.43
850.893	0.23
851.062	-0.4
851.23	0.79
851.399	-0.78
851.567	-0.91
851.736	0.18
851.904	-1.9
852.073	-0.2
852.241	0.52
852.41	0.56
852.578	-0.2
852.746	-0.61
852.915	0.18
853.083	-0.31
853.251	-0.71
853.42	0.01
853.588	0.13
853.756	0.21
853.924	0.67
854.093	-0.61
854.261	-0.09
854.429	-1.54
854.597	0.13
854.765	-1.3
854.934	0.33
855.102	0.71
855.27	-0.13
855.438	0.58
855.606	1.14
855.774	0.72
855.942	-2.07
856.11	-2.22
856.278	-0.28
856.446	1.23
856.614	0.35
856.782	-0.75
856.95	1.59
857.118	0.13
857.286	-0.48
857.454	-0.67
857.622	0.14
857.79	0.02
857.958	-1.16
858.126	-0.25
858.294	-1.45
858.462	-0.2
858.629	-0.13
858.797	-1.74
858.965	0.74
859.133	0.43
859.301	-1.07
859.468	0.04
859.636	-1.86
859.804	1.24
859.971	1.17
860.139	-0.03
860.307	1.69
860.474	0.99
860.642	-0.64
860.81	-1.66
860.977	-0.56
861.145	0.89
861.313	0.12
861.48	-0.47
861.648	0.35
861.815	0.7
861.983	-1.2
862.15	-1.08
862.318	0.23
862.485	0.01
862.653	0.23
862.82	-1.47
862.988	2.25
863.155	0.6
863.322	-0.85
863.49	-1.57
863.657	-1.61
863.824	2.72
863.992	1.69
864.159	1.06
864.326	0.18
864.494	-0.94
864.661	3.11
864.828	-0.69
864.996	1.38
865.163	0.63
865.33	-0.67
865.497	-1.76
865.664	-0.18
865.832	-0.95
865.999	-0.02
866.166	-0.12
866.333	-0.68
866.5	-0.54
866.667	0.03
866.834	-1.08
867.001	1.11
867.168	-2.34
867.335	-0.95
867.502	-1.52
867.669	-0
867.836	2.07
868.003	0.2
868.17	0.26
868.337	2.16
868.504	2.57
868.671	-1.88
868.838	-1.46
869.005	0.91
869.172	-0.39
869.339	-0.54
869.505	-1.25
869.672	-0.75
869.839	0.99
870.006	-1.03
870.173	-2.31
870.339	0.93
870.506	1.61
870.673	-1.21
870.84	0.47
871.006	-0.02
871.173	-0.9
871.34	-0.42
871.506	-0.63
871.673	-0.15
871.839	-1.3
872.006	0.91
872.173	-1.49
872.339	0.08
872.506	-0.42
872.672	0.91
872.839	-1.87
873.005	0.23
873.172	3.08
873.338	1.58
873.505	0.73
873.671	-0.8
873.838	2.26
874.004	-2
874.171	-1.44
874.337	1.48
874.503	1.16
874.67	-0.69
874.836	-1.4
875.002	3.5
875.169	-0.44
875.335	-0.22
875.501	-1.55
875.668	-0.36
875.834	-0.79
876	0.37
876.166	-0.11
876.332	0.53
876.499	1.91
876.665	-1.42
876.831	-0.5
876.997	4.17
877.163	0.67
877.329	-1.2
877.495	-0.41
877.662	2.15
877.828	-0.67
877.994	0.33
878.16	-2.89
878.326	-1.24
878.492	0.38
878.658	-1.12
878.824	1.4
878.99	-0.42
879.156	-1.09
879.322	2.42
879.487	-0.14
879.653	1.45
879.819	0.09
879.985	-0.92
880.151	0.96
880.317	0.39
880.483	2.2
880.648	1.84
880.814	-2.84
880.98	0.27
881.146	-1.79
881.312	-1.13
881.477	0.63
881.643	-0.21
881.809	2.54
881.974	1.8
882.14	-2.52
882.306	0.95
882.471	3.23
882.637	-0.76
882.803	1.29
882.968	3
883.134	2.99
883.299	0.12
883.465	-0.57
883.63	3.22
883.796	0.87
883.961	0.09
884.127	1.52
884.292	-3.76
884.458	-2.15
884.623	-2.14
