Data from Apollo_Calib_20240827__AbsoluteIrradiance__700__10-49-02-364.txt Node

Date: Wed Aug 28 10:49:02 BST 2024
User: biology
Spectrometer: FLMT08252
Trigger mode: 0
Integration Time (sec): 5.000000E-1
Scans to average: 5
Electric dark correction enabled: true
Nonlinearity correction enabled: false
Boxcar width: 0
XAxis mode: Wavelengths
Number of Pixels in Spectrum: 3648
>>>>>Begin Spectral Data<<<<<
179.588	-0
179.809	-0
180.03	-0
180.251	-0
180.473	-0
180.694	0
180.915	0
181.136	-0
181.357	0
181.578	0
181.799	-0
182.02	-0
182.241	-0
182.462	-0
182.683	0
182.904	-0
183.125	-0
183.346	0
183.567	-0
183.788	-0
184.009	-0
184.23	-0
184.451	0
184.672	-0
184.892	-0
185.113	-0
185.334	0
185.555	-0
185.776	-0
185.996	0
186.217	0
186.438	-0
186.659	-0
186.879	-0
187.1	-0
187.321	-0
187.541	-0
187.762	-0
187.983	-0
188.203	-0
188.424	-0
188.644	-0
188.865	-0
189.086	-0
189.306	-0
189.527	-0
189.747	0
189.968	-0
190.188	0
190.409	-0
190.629	0
190.849	-0
191.07	-0
191.29	0
191.511	0
191.731	-0
191.951	-0
192.172	-0
192.392	-0
192.612	-0
192.833	-0
193.053	-0
193.273	0
193.493	-0
193.714	-0
193.934	0
194.154	0
194.374	-0
194.594	0
194.815	-0
195.035	-0
195.255	0
195.475	-0
195.695	0
195.915	0
196.135	-0
196.355	0
196.575	0
196.795	0
197.015	-0
197.235	-0
197.455	-0
197.675	0
197.895	-0
198.115	-0
198.335	0
198.555	-0
198.775	-0
198.995	0
199.214	0
199.434	0
199.654	-0
199.874	-0
200.094	0.55
200.313	-0.38
200.533	-0.4
200.753	-1.26
200.973	0.64
201.192	0.05
201.412	-1.35
201.632	-0.46
201.851	0.88
202.071	-1.12
202.291	-0.65
202.51	-0.83
202.73	0.17
202.95	-0.36
203.169	-0.62
203.389	-0.21
203.608	0.13
203.828	-0.56
204.047	-0.34
204.267	0.06
204.486	0.29
204.706	0.01
204.925	-0.4
205.145	-0.32
205.364	-0.01
205.583	0.12
205.803	-0.27
206.022	-0.5
206.242	-0.25
206.461	-0.24
206.68	-0.73
206.9	-0.03
207.119	0.45
207.338	0.3
207.557	-0.23
207.777	-0.12
207.996	-0.27
208.215	0.25
208.434	-0.31
208.654	-0.54
208.873	-0.04
209.092	0.28
209.311	-0.18
209.53	-0.15
209.749	-0.34
209.968	-0.12
210.187	-0.34
210.407	-0.61
210.626	-0.33
210.845	0.13
211.064	-0.03
211.283	-0.34
211.502	0.04
211.721	-0.18
211.94	-0.25
212.159	-0.14
212.377	0.11
212.596	0.1
212.815	-0.14
213.034	-0.18
213.253	-0.04
213.472	0.02
213.691	-0.3
213.91	-0.35
214.128	-0.08
214.347	0.36
214.566	-0.39
214.785	-0.31
215.003	-0.16
215.222	-0.07
215.441	0.11
215.66	-0.5
215.878	-0.1
216.097	0.21
216.316	-0.29
216.534	-0.26
216.753	-0.07
216.972	0.03
217.19	-0.19
217.409	-0.11
217.627	-0.18
217.846	-0.22
218.064	-0.07
218.283	-0.17
218.501	0.23
218.72	0.19
218.938	-0.14
219.157	-0.14
219.375	0.07
219.594	-0.09
219.812	-0.21
220.031	-0.27
220.249	0.11
220.467	0.17
220.686	-0.18
220.904	-0.26
221.122	-0.2
221.341	0.26
221.559	0
221.777	-0.29
221.995	0.04
222.214	-0.18
222.432	-0.19
222.65	0.19
222.868	0.06
223.086	0.05
223.305	0.1
223.523	-0.12
223.741	0.08
223.959	-0.14
224.177	-0.16
224.395	-0.16
224.613	0.03
224.831	0.06
225.049	-0.22
225.267	-0.05
225.485	-0.01
225.703	-0.03
225.921	0.04
226.139	-0.05
226.357	0.03
226.575	-0.18
226.793	-0.08
227.011	0.39
227.229	0.07
227.447	0.06
227.665	-0.04
227.883	-0.27
228.1	0.04
228.318	-0.09
228.536	-0.34
228.754	-0.09
228.972	0.04
229.189	0.17
229.407	-0.1
229.625	-0.09
229.843	0.05
230.06	0.06
230.278	-0.16
230.496	-0.08
230.713	-0.03
230.931	0.1
231.149	-0.24
231.366	-0.28
231.584	-0.03
231.801	0.34
232.019	-0.15
232.236	-0.11
232.454	-0.22
232.671	-0.1
232.889	-0.12
233.106	-0.16
233.324	0.01
233.541	-0.1
233.759	0.03
233.976	-0.15
234.194	-0.12
234.411	-0.07
234.628	-0.09
234.846	-0.03
235.063	-0.12
235.28	0.02
235.498	-0.01
235.715	-0.26
235.932	0.09
236.149	-0.05
236.367	-0.07
236.584	-0.02
236.801	-0.03
237.018	0.02
237.236	-0.04
237.453	-0.22
237.67	0.09
237.887	-0.13
238.104	-0.08
238.321	-0.14
238.538	-0.13
238.755	0.09
238.973	-0.18
239.19	0.04
239.407	0.01
239.624	-0
239.841	-0.11
240.058	-0.15
240.275	0.03
240.492	-0.1
240.709	-0.03
240.925	-0.15
241.142	0.02
241.359	-0.12
241.576	-0.08
241.793	-0.07
242.01	-0.05
242.227	0.09
242.444	0.01
242.66	-0.02
242.877	-0.01
243.094	-0.05
243.311	-0.03
243.527	-0.09
243.744	-0.04
243.961	0.14
244.178	-0.15
244.394	-0.06
244.611	0.11
244.828	0.13
245.044	-0.08
245.261	-0.04
245.477	-0.16
245.694	0.03
245.911	-0.08
246.127	-0.01
246.344	0.13
246.56	0.03
246.777	-0.06
246.993	-0.12
247.21	-0.04
247.426	0.01
247.643	-0.12
247.859	-0.16
248.076	-0.16
248.292	0.1
248.508	-0.02
248.725	-0.08
248.941	0.03
249.157	0.13
249.374	-0.09
249.59	-0.03
249.806	-0.05
250.023	-0.05
250.239	-0.1
250.455	-0.11
250.671	-0.03
250.888	-0.02
251.104	0.01
251.32	-0.07
251.536	-0.02
251.752	-0.12
251.969	-0.01
252.185	-0.05
252.401	0.15
252.617	-0.04
252.833	-0.1
253.049	-0.01
253.265	-0.06
253.481	-0.02
253.697	-0.06
253.913	-0.14
254.129	-0.04
254.345	0.02
254.561	-0.03
254.777	-0.07
254.993	0.05
255.209	-0.01
255.425	-0.08
255.641	-0.06
255.857	0.04
256.073	-0.06
256.288	-0.08
256.504	-0.07
256.72	-0.04
256.936	0.03
257.152	-0.02
257.367	-0.16
257.583	-0.02
257.799	0.09
258.015	-0.07
258.23	-0.04
258.446	0.11
258.662	-0.02
258.877	-0.07
259.093	-0.13
259.309	0.02
259.524	0.05
259.74	-0.11
259.955	-0.14
260.171	-0.01
260.387	-0.07
260.602	0
260.818	0.05
261.033	-0.1
261.249	-0.06
261.464	-0.06
261.68	-0.09
261.895	-0.04
262.11	0.01
262.326	-0.06
262.541	-0.13
262.757	-0.01
262.972	0.02
263.187	-0.04
263.403	-0.04
263.618	0.07
263.833	0
264.049	-0.07
264.264	-0.02
264.479	0.02
264.694	0.07
264.91	-0.11
265.125	-0.01
265.34	0.08
265.555	0.09
265.77	0.02
265.986	-0.09
266.201	-0.01
266.416	0.11
266.631	-0.08
266.846	-0.02
267.061	-0.01
267.276	0.03
267.491	-0.2
267.706	-0.04
267.921	0.01
268.136	0.03
268.351	-0.01
268.566	-0.12
268.781	0.13
268.996	0.05
269.211	-0
269.426	-0.11
269.641	-0.07
269.856	0.02
270.071	-0.05
270.285	-0.12
270.5	0.1
270.715	0.05
270.93	-0.03
271.145	-0.04
271.359	0.07
271.574	-0.13
271.789	0.02
272.004	-0.11
272.218	-0.02
272.433	0.03
272.648	-0.07
272.862	0.07
273.077	0.01
273.292	-0.03
273.506	-0.12
273.721	-0.02
273.936	-0.04
274.15	-0.01
274.365	-0.04
274.579	-0
274.794	0.04
275.008	0.05
275.223	-0.13
275.437	-0.04
275.652	-0
275.866	0.07
276.081	-0.01
276.295	0.05
276.509	-0.04
276.724	-0
276.938	0
277.153	-0.07
277.367	0.02
277.581	-0.04
277.796	-0.07
278.01	-0.06
278.224	0.01
278.438	0.11
278.653	-0.09
278.867	-0.05
279.081	-0.16
279.295	-0.07
279.51	-0.01
279.724	-0.07
279.938	0.02
280.152	-0.04
280.366	-0.1
280.58	0
280.794	0.01
281.008	-0
281.222	-0.02
281.437	0.14
281.651	-0.1
281.865	0.07
282.079	-0
282.293	-0.1
282.507	-0.07
282.721	-0
282.935	-0.01
283.148	-0.11
283.362	-0.01
283.576	-0.1
283.79	0.02
284.004	-0.07
284.218	0.02
284.432	-0.05
284.646	-0.02
284.859	-0.03
285.073	-0.06
285.287	-0
285.501	0.01
285.714	-0.01
285.928	0.05
286.142	0.02
286.356	-0.04
286.569	-0.03
286.783	0.03
286.997	0.03
287.21	-0.01
287.424	-0.03
287.637	-0.06
287.851	-0.1
288.065	0.01
288.278	-0.04
288.492	0.01
288.705	-0.03
288.919	0.05
289.132	-0.02
289.346	0.03
289.559	-0.08
289.773	-0.06
289.986	-0.06
290.2	-0.04
290.413	0.08
290.626	-0.09
290.84	-0.01
291.053	-0.04
291.267	0.02
291.48	-0.02
291.693	0.04
291.906	-0.06
292.12	-0.04
292.333	-0.04
292.546	-0.01
292.76	0.07
292.973	-0.04
293.186	-0.03
293.399	-0.04
293.612	0.03
293.826	-0.03
294.039	-0.04
294.252	-0.04
294.465	-0
294.678	0.05
294.891	0.03
295.104	-0.06
295.317	-0.03
295.53	-0.02
295.743	-0.02
295.956	-0.02
296.169	0.07
296.382	0.02
296.595	-0.05
296.808	-0.04
297.021	0.02
297.234	0.03
297.447	-0.01
297.66	-0
297.873	0.03
298.086	0.02
298.299	-0.04
298.511	-0.05
298.724	-0.02
298.937	-0.06
299.15	-0.05
299.363	-0.02
299.575	0.03
299.788	-0.02
300.001	-0.06
300.213	-0.07
300.426	-0.03
300.639	-0.02
300.852	-0.06
301.064	0.04
301.277	0.04
301.489	-0.01
301.702	0.06
301.915	-0.03
302.127	-0.03
302.34	0.03
302.552	-0.02
302.765	-0.02
302.977	0.04
303.19	-0.04
303.402	-0.03
303.615	-0.03
303.827	-0.06
304.04	-0.02
304.252	-0.02
304.464	-0.02
304.677	0.08
304.889	0.02
305.102	-0.05
305.314	-0.06
305.526	0.02
305.739	0.01
305.951	-0.05
306.163	-0.04
306.375	0.04
306.588	-0.05
306.8	-0.05
307.012	-0.05
307.224	-0.03
307.436	0.05
307.649	-0.12
307.861	0.01
308.073	-0.02
308.285	-0.05
308.497	-0.05
308.709	-0.04
308.921	0
309.133	0
309.346	-0.03
309.558	-0.02
309.77	0.03
309.982	0.03
310.194	0.01
310.406	-0.05
310.617	0.04
310.829	-0.02
311.041	0.03
311.253	-0.06
311.465	-0.04
311.677	-0.03
311.889	-0.03
312.101	-0.03
312.313	0.06
312.524	0.02
312.736	-0.09
312.948	-0.02
313.16	0.05
313.372	-0
313.583	0.02
313.795	-0
314.007	-0.04
314.218	0.05
314.43	-0.01
314.642	-0.03
314.853	-0.03
315.065	0
315.277	-0.02
315.488	-0.02
315.7	0.05
315.912	0.04
316.123	-0.01
316.335	-0.04
316.546	0.14
316.758	-0.04
316.969	-0.06
317.181	-0
317.392	-0.01
317.604	0.03
317.815	-0.05
318.026	-0.05
318.238	-0.05
318.449	0.06
318.661	-0.05
318.872	-0.04
319.083	-0.06
319.295	0.03
319.506	-0.04
319.717	-0.01
319.929	0.03
320.14	-0.05
320.351	0
320.562	-0.02
320.774	-0.03
320.985	0.02
321.196	-0.05
321.407	-0.07
321.618	0.02
321.829	0.03
322.041	0.02
322.252	0
322.463	-0.01
322.674	-0.01
322.885	-0.04
323.096	-0.06
323.307	-0.02
323.518	-0.01
323.729	-0.06
323.94	-0.06
324.151	-0.04
324.362	0.01
324.573	0.03
324.784	-0.02
324.995	0.02
325.206	-0
325.417	-0.03
325.628	-0.02
325.838	-0.02
326.049	-0.03
326.26	-0.03
326.471	-0.02
326.682	0.03
326.892	-0.02
327.103	-0.08
327.314	-0.03
327.525	0.06
327.735	0.03
327.946	-0
328.157	-0.04
328.368	-0.01
328.578	0
328.789	0.02
328.999	-0.03
329.21	-0.01
329.421	0.05
329.631	-0.04
329.842	-0.03
330.052	-0.03
330.263	0.04
330.473	0.01
330.684	0
330.894	-0.05
331.105	0
331.315	-0.03
331.526	-0.05
331.736	0.05
331.947	-0.02
332.157	0
332.367	-0.07
332.578	-0
332.788	0.02
332.999	-0.01
333.209	-0.04
333.419	-0.04
333.629	0.01
333.84	0.03
334.05	-0.04
334.26	0.03
334.47	-0.01
334.681	0.04
334.891	-0.07
335.101	0.01
335.311	0.03
335.521	-0.02
335.732	-0.05
335.942	0.08
336.152	0.03
336.362	-0.01
336.572	-0.02
336.782	0.03
336.992	-0.02
337.202	-0.04
337.412	-0.04
337.622	0.01
337.832	-0.02
338.042	-0.01
338.252	-0.05
338.462	-0.02
338.672	-0.04
338.882	-0.02
339.092	0
339.302	0.08
339.511	0.02
339.721	-0.05
339.931	-0.05
340.141	-0
340.351	0.03
340.561	-0.01
340.77	-0
340.98	-0.02
341.19	-0.01
341.4	-0.01
341.609	-0.06
341.819	0.01
342.029	-0.06
342.238	0
342.448	-0.03
342.658	0.01
342.867	0
343.077	-0.01
343.286	0.01
343.496	-0.01
343.706	0.06
343.915	-0.04
344.125	-0.03
344.334	-0.01
344.544	-0.08
344.753	-0.01
344.963	-0.01
345.172	-0.03
345.381	-0.06
345.591	-0.05
345.8	0
346.01	0.03
346.219	0.01
346.428	-0.16
346.638	-0.02
346.847	0.02
347.056	0.07
347.266	-0.02
347.475	-0.02
347.684	0.03
347.893	0.01
348.103	0.01
348.312	-0.02
348.521	0.02
348.73	-0.02
348.94	0
349.149	-0.06
349.358	0
349.567	-0.07
349.776	-0.07
349.985	-0.04
350.194	0.04
350.403	0.05
350.612	-0.04
350.821	-0.01
351.03	-0.04
351.239	-0.05
351.448	0.01
351.657	-0.04
351.866	0.06
352.075	-0.02
352.284	0.07
352.493	-0.08
352.702	0.03
352.911	0.01
353.12	-0.01
353.329	-0.02
353.538	0.01
353.746	-0.01
353.955	-0.07
354.164	0.01
354.373	-0.04
354.582	0.01
354.79	-0.04
354.999	0.02
355.208	-0.03
355.416	0.06
355.625	-0.09
355.834	-0.08
356.042	0.01
356.251	-0.02
356.46	-0.06
356.668	0.04
356.877	0.04
357.085	0.02
357.294	-0.06
357.503	0.02
357.711	-0.01
357.92	0.1
358.128	-0.02
358.337	-0.02
358.545	0
358.754	-0.04
358.962	-0.01
359.17	0.02
359.379	0.01
359.587	0.04
359.796	-0.01
360.004	0.02
360.212	0
360.421	0.02
360.629	-0
360.837	-0.03
361.046	0.03
361.254	0.07
361.462	-0
361.67	-0.03
361.879	-0.01
362.087	0.04
362.295	0
362.503	-0.01
362.711	-0.07
362.92	-0.03
363.128	-0.03
363.336	-0
363.544	-0
363.752	-0.02
363.96	-0.01
364.168	0
364.376	-0.01
364.584	-0.01
364.792	0.03
365	-0
365.208	-0.03
365.416	-0.01
365.624	-0.01
365.832	-0.02
366.04	0.04
366.248	-0.02
366.456	-0.02
366.664	0.02
366.872	-0.01
367.079	-0.02
367.287	0.01
367.495	-0.03
367.703	-0.04
367.911	-0.04
368.118	0.01
368.326	-0
368.534	-0.07
368.742	0.04
368.949	-0.06
369.157	-0.09
369.365	-0
369.572	0
369.78	-0.05
369.988	0.03
370.195	0
370.403	-0
370.61	-0.06
370.818	0
371.026	0.03
371.233	-0.01
371.441	0
371.648	-0.04
371.856	-0.01
372.063	0.03
372.271	-0.03
372.478	-0.03
372.685	-0
372.893	0.05
373.1	-0.01
373.308	0.01
373.515	0.1
373.722	0.02
373.93	-0.03
374.137	0.02
374.344	0.09
374.552	0.04
374.759	0
374.966	-0.03
375.173	-0.05
375.381	0.08
375.588	-0.06
375.795	-0.04
376.002	-0.03
376.209	-0.04
376.417	0.03
376.624	-0
376.831	0.01
377.038	-0.04
377.245	-0.09
377.452	-0.01
377.659	-0.01
377.866	-0.05
378.073	-0.03
378.28	-0.04
378.487	0.05
378.694	0.02
378.901	-0.01
379.108	-0.02
379.315	0.03
379.522	0.07
379.729	0
379.936	-0.05
380.143	0
380.35	-0
380.557	0.01
380.763	0.01
380.97	0.03
381.177	0
381.384	0.03
381.591	-0.04
381.797	-0.03
382.004	-0
382.211	0.01
382.418	-0.02
382.624	0
382.831	0.02
383.038	-0.01
383.244	-0.03
383.451	-0.02
383.658	0.03
383.864	-0
384.071	-0.04
384.277	0.04
384.484	-0.01
384.69	0
384.897	-0.03
385.103	-0.05
385.31	-0.09
385.516	-0.03
385.723	-0.04
385.929	-0.03
386.136	-0.06
386.342	0.02
386.549	-0.04
386.755	0.02
386.961	-0.01
387.168	-0.02
387.374	0.02
387.58	0.01
387.787	-0.03
387.993	0.01
388.199	-0.05
388.406	-0.05
388.612	-0
388.818	-0.06
389.024	-0.08
389.231	0
389.437	0.04
389.643	0.02
389.849	-0.03
390.055	-0.03
390.261	0.02
390.467	-0.03
390.674	-0.06
390.88	0.01
391.086	0.03
391.292	-0.05
391.498	0.04
391.704	-0
391.91	-0.06
392.116	-0.06
392.322	-0.06
392.528	-0.05
392.734	-0.03
392.94	-0.03
393.146	-0
393.352	-0.02
393.557	-0.03
393.763	-0.02
393.969	-0
394.175	-0.04
394.381	-0.03
394.587	-0.09
394.792	0.01
394.998	0.04
395.204	0.01
395.41	-0.02
395.615	0.01
395.821	0.01
396.027	0
396.233	-0.02
396.438	-0
396.644	0.01
396.85	0.01
397.055	-0.06
397.261	0.02
397.466	-0.02
397.672	-0.01
397.878	0.04
398.083	-0.01
398.289	-0.05
398.494	0.02
398.7	0.03
398.905	-0.09
399.111	0.04
399.316	-0.04
399.522	0
399.727	-0.03
399.932	-0.02
400.138	-0.04
400.343	0
400.549	-0.02
400.754	0.01
400.959	-0
401.165	-0.02
401.37	-0
401.575	0.06
401.78	-0.01
401.986	-0.06
402.191	-0.01
402.396	-0.05
402.601	-0
402.807	0.03
403.012	-0.02
403.217	0.04
403.422	-0.01
403.627	-0.02
403.832	-0.04
404.037	0.05
404.243	-0.05
404.448	-0.05
404.653	-0.01
404.858	-0.01
405.063	0.01
405.268	-0.05
405.473	-0.03
405.678	-0.03
405.883	0.1
406.088	0.06
406.293	-0.06
406.498	-0.05
406.703	0.01
406.907	-0.02
407.112	-0.08
407.317	0.01
407.522	0
407.727	-0.08
407.932	-0.04
408.136	0.04
408.341	-0.02
408.546	-0.01
408.751	0
408.956	-0.05
409.16	0.02
409.365	-0.03
409.57	-0.06
409.774	0.01
409.979	0.06
410.184	-0.01
410.388	-0.06
410.593	0.04
410.798	-0.04
411.002	-0.04
411.207	-0.02
411.411	-0
411.616	-0.04
411.82	-0.04
412.025	-0.01
412.229	-0.06
412.434	0.01
412.638	0.01
412.843	-0.03
413.047	-0.01
413.252	-0.03
413.456	-0.02
413.66	0.04
413.865	-0.07
414.069	0.06
414.273	-0.06
414.478	-0.08
414.682	-0.04
414.886	-0.03
415.091	-0.06
415.295	-0.06
415.499	0
415.703	-0.05
415.908	0.03
416.112	-0.11
416.316	0
416.52	-0.05
416.724	-0.07
416.929	-0.04
417.133	0.05
417.337	-0.03
417.541	-0.1
417.745	-0.03
417.949	0.03
418.153	-0.02
418.357	-0.05
418.561	0.01
418.765	-0.02
418.969	0.07
419.173	0.01
419.377	-0.04
419.581	0.05
419.785	-0
419.989	-0.08
420.193	-0.01
420.397	-0.04
420.601	0.07
420.804	0.04
421.008	-0.05
421.212	0.01
421.416	0.04
421.62	-0.05
421.823	-0.01
422.027	0.04
422.231	0.01
422.435	-0.03
422.638	0.03
422.842	-0.02
423.046	0.01
423.249	-0.03
423.453	0.01
423.657	0.02
423.86	0
424.064	0
424.268	0.04
424.471	0
424.675	0.06
424.878	0.07
425.082	0.01
425.285	0.02
425.489	-0.01
425.692	-0.02
425.896	-0.09
426.099	0.02
426.303	-0.06
426.506	-0.08
426.71	-0.01
426.913	0.02
427.116	0.04
427.32	-0.04
427.523	-0.03
427.726	0.08
427.93	-0.05
428.133	-0.04
428.336	-0.04
428.54	-0.1
428.743	0.04
428.946	0.01
429.149	-0.05
429.353	-0
429.556	-0.05
429.759	-0.05
429.962	-0.09
430.165	-0.01
430.368	-0.02
430.571	-0.02
430.775	-0.03
430.978	-0.03
431.181	0
431.384	-0
431.587	-0.01
431.79	-0.06
431.993	-0.1
432.196	-0.01
432.399	-0.02
432.602	0.03
432.805	-0.01
433.008	-0.04
433.211	-0.03
433.414	0.01
433.616	0.02
433.819	-0.06
434.022	-0.05
434.225	0.04
434.428	0.01
434.631	0.08
434.833	-0.03
435.036	-0.04
435.239	0.06
435.442	0.01
435.645	-0
435.847	0
436.05	0.06
436.253	0.01
436.455	-0.06
436.658	-0.01
436.861	0.07
437.063	-0.07
437.266	-0.03
437.468	0
437.671	0.12
437.874	-0.02
438.076	-0.03
438.279	-0.08
438.481	-0.01
438.684	-0.07
438.886	0.02
439.089	-0.06
439.291	-0.03
439.494	0.01
439.696	-0.05
439.899	-0.04
440.101	-0.01
440.303	-0.08
440.506	0.02
440.708	-0.04
440.91	-0
441.113	-0.04
441.315	0.02
441.517	-0.11
441.72	0.03
441.922	-0.09
442.124	-0.04
442.326	0.02
442.529	0.06
442.731	-0.08
442.933	0.06
443.135	0
443.337	-0.05
443.539	-0
443.742	-0.01
443.944	0
444.146	-0.04
444.348	0.01
444.55	-0.02
444.752	-0.03
444.954	-0.08
445.156	-0
445.358	-0.05
445.56	0.04
445.762	-0.01
445.964	0.03
446.166	0.04
446.368	-0.05
446.57	0.05
446.772	-0.01
446.974	-0.03
447.175	0.04
447.377	-0.08
447.579	-0.02
447.781	-0.07
447.983	0.05
448.184	0.02
448.386	0.06
448.588	-0.1
448.79	-0.04
448.991	-0.04
449.193	-0.04
449.395	0.01
449.597	0.05
449.798	0.08
450	0.06
450.202	-0.05
450.403	0.04
450.605	0.04
450.806	0.01
451.008	-0.03
451.21	0.03
451.411	0.05
451.613	-0.02
451.814	-0.01
452.016	0.05
452.217	-0.02
452.419	0.06
452.62	0
452.821	0.06
453.023	0.07
453.224	0.05
453.426	0.01
453.627	-0.03
453.828	0.02
454.03	-0.05
454.231	-0.01
454.432	-0.03
454.634	0.08
454.835	-0.05
455.036	-0.09
455.238	0.05
455.439	0.07
455.64	-0.08
455.841	-0.02
456.042	0.1
456.244	0.01
456.445	-0.02
456.646	-0.14
456.847	-0.03
457.048	-0.01
457.249	0.03
457.45	0.21
457.651	-0.06
457.852	0.03
458.054	-0.01
458.255	-0.03
458.456	0.03
458.657	-0
458.858	-0.07
459.058	0
459.259	0.01
459.46	-0.01
459.661	0
459.862	0.1
460.063	-0.03
460.264	0.02
460.465	-0.07
460.666	0.07
460.866	0.01
461.067	-0.02
461.268	-0.03
461.469	-0.01
461.67	-0.02
461.87	-0.02
462.071	-0.04
462.272	-0.02
462.473	-0.06
462.673	0.05
462.874	-0.06
463.075	0.03
463.275	-0.09
463.476	0.03
463.676	-0.03
463.877	-0.03
464.078	-0.03
464.278	0.06
464.479	-0.03
464.679	0
464.88	-0.03
465.08	0.05
465.281	-0.02
465.481	-0.04
465.682	-0.01
465.882	0.05
466.083	-0
466.283	-0.02
466.483	-0.04
466.684	-0.04
466.884	-0.05
467.085	-0.03
467.285	0.01
467.485	-0.06
467.686	-0.08
467.886	-0.01
468.086	-0.03
468.286	0
468.487	0.01
468.687	-0.06
468.887	-0.02
469.087	0.02
469.287	-0.05
469.488	-0.05
469.688	0.01
469.888	0.04
470.088	0.03
470.288	0.08
470.488	-0
470.688	-0.07
470.888	0
471.088	-0.03
471.288	0.04
471.488	0.02
471.688	-0
471.888	0
472.088	0.01
472.288	-0.02
472.488	-0.02
472.688	-0.02
472.888	-0.03
473.088	-0.05
473.288	-0.05
473.488	0.01
473.688	0.07
473.887	-0.02
474.087	-0.02
474.287	0.01
474.487	-0.02
474.687	0.01
474.886	-0.02
475.086	-0.01
475.286	-0.01
475.486	0.02
475.685	-0.01
475.885	-0.05
476.085	-0.01
476.284	0.01
476.484	-0.04
476.684	0
476.883	0.02
477.083	0
477.282	-0.03
477.482	0.05
477.681	0.08
477.881	0
478.08	-0.04
478.28	-0.01
478.479	-0.02
478.679	0.05
478.878	-0.04
479.078	-0.04
479.277	-0.04
479.477	-0.01
479.676	0.03
479.875	0.03
480.075	-0.06
480.274	0.04
480.473	0.02
480.673	-0.02
480.872	0.05
481.071	0
481.271	-0
481.47	-0.05
481.669	-0.02
481.868	-0.07
482.067	-0.05
482.267	-0.02
482.466	-0.03
482.665	-0.03
482.864	-0.04
483.063	-0.04
483.262	-0
483.461	0.03
483.661	0.01
483.86	-0.02
484.059	-0.02
484.258	0
484.457	-0.02
484.656	-0.02
484.855	0.07
485.054	-0.05
485.253	-0.03
485.452	-0.02
485.651	-0.01
485.849	-0.02
486.048	-0.05
486.247	-0.02
486.446	0.01
486.645	-0.03
486.844	-0.04
487.043	-0.04
487.241	0.01
487.44	-0.05
487.639	-0.02
487.838	0.02
488.037	0
488.235	0
488.434	0.01
488.633	-0.03
488.831	0.01
489.03	0.02
489.229	-0.01
489.427	-0.04
489.626	0.02
489.825	0.04
490.023	0.01
490.222	-0
490.42	0.01
490.619	0.03
490.817	-0.01
491.016	-0.04
491.214	0.01
491.413	-0.03
491.611	-0.01
491.81	-0.01
492.008	0.04
492.207	0.02
492.405	0.01
492.604	-0.02
492.802	-0.01
493	0.01
493.199	-0.03
493.397	0
493.595	-0.02
493.794	-0.02
493.992	0.03
494.19	-0.03
494.388	0.02
494.587	-0.03
494.785	-0
494.983	-0.03
495.181	0.01
495.379	-0.02
495.578	-0.04
495.776	0.02
495.974	-0
496.172	-0.02
496.37	-0.02
496.568	-0.02
496.766	-0.03
496.964	0.01
497.162	-0.03
497.36	-0.03
497.558	0.02
497.756	0.02
497.954	-0.03
498.152	-0.04
498.35	0
498.548	-0.01
498.746	0.01
498.944	-0.02
499.142	-0
499.34	-0.03
499.538	0
499.736	-0.02
499.933	0.05
500.131	0.01
500.329	0.01
500.527	0.02
500.725	0.01
500.922	0.03
501.12	0.01
501.318	-0.01
501.516	-0.01
501.713	-0
501.911	-0.01
502.109	-0.01
502.306	0.02
502.504	-0.03
502.701	-0
502.899	-0.03
503.097	0.03
503.294	-0
503.492	-0.02
503.689	0.02
503.887	0.01
504.084	0.04
504.282	-0.01
504.479	-0.03
504.677	0.01
504.874	-0.03
505.072	0.01
505.269	-0
505.466	0
505.664	-0.01
505.861	-0.04
506.059	-0.03
506.256	0.02
506.453	-0.01
506.651	0.03
506.848	-0.01
507.045	-0.01
507.242	-0.02
507.44	-0.02
507.637	-0.03
507.834	-0.01
508.031	-0
508.229	-0.02
508.426	0.01
508.623	0
508.82	-0.02
509.017	-0.02
509.214	-0.02
509.411	0.02
509.608	-0.03
509.805	-0.02
510.003	-0.02
510.2	-0.04
510.397	0
510.594	-0.03
510.791	-0.02
510.988	-0.01
511.184	0.01
511.381	0.01
511.578	-0.02
511.775	0.01
511.972	-0.01
512.169	-0.01
512.366	0
512.563	0
512.76	-0.03
512.956	0.01
513.153	0
513.35	0
513.547	-0.02
513.744	-0.03
513.94	-0.03
514.137	0.02
514.334	-0.01
514.53	0
514.727	0
514.924	0.05
515.12	-0.03
515.317	-0.03
515.514	-0.01
515.71	-0.03
515.907	-0.02
516.103	-0
516.3	-0.01
516.497	0.03
516.693	0.01
516.89	-0.01
517.086	-0.01
517.283	0.03
517.479	0
517.676	-0.01
517.872	-0.02
518.068	-0.02
518.265	0
518.461	0
518.658	-0.03
518.854	-0.01
519.05	-0.02
519.247	-0.04
519.443	0
519.639	-0
519.836	-0.01
520.032	-0.01
520.228	-0
520.424	0.04
520.621	0.03
520.817	-0.03
521.013	0.03
521.209	0.02
521.405	0.02
521.601	0
521.798	0.02
521.994	-0
522.19	-0.04
522.386	-0.04
522.582	0.02
522.778	0.01
522.974	-0.01
523.17	-0.01
523.366	-0
523.562	0.02
523.758	0.02
523.954	-0.03
524.15	-0.02
524.346	0.01
524.542	-0.02
524.738	-0.01
524.934	-0.02
525.129	-0.01
525.325	0.02
525.521	0
525.717	0.03
525.913	-0.01
526.109	-0.01
526.304	0.01
526.5	0.03
526.696	0.03
526.892	0.01
527.087	-0.01
527.283	-0.01
527.479	0.02
527.674	-0.01
527.87	-0.01
528.066	0
528.261	0.02
528.457	0.01
528.653	-0.03
528.848	-0.02
529.044	0.03
529.239	0
529.435	0.01
529.63	0.01
529.826	0.06
530.021	0.01
530.217	-0.02
530.412	0
530.608	-0.02
530.803	-0
530.999	0
531.194	-0.05
531.389	0
531.585	-0.05
531.78	-0.01
531.975	-0.01
532.171	0
532.366	-0.01
532.561	0.01
532.757	-0.03
532.952	-0
533.147	0
533.342	-0.02
533.538	-0.02
533.733	0.03
533.928	0.01
534.123	-0.01
534.318	-0.03
534.513	-0.01
534.709	-0.02
534.904	-0.01
535.099	-0.02
535.294	0
535.489	0.01
535.684	-0.02
535.879	-0.03
536.074	0.02
536.269	-0
536.464	-0.01
536.659	-0.03
536.854	-0.01
537.049	0
537.244	0
537.439	-0.02
537.634	0.02
537.828	0.01
538.023	-0.01
538.218	-0.02
538.413	-0.01
538.608	-0.03
538.803	0.01
538.997	-0.03
539.192	0.02
539.387	-0
539.582	-0.01
539.776	0.01
539.971	-0.01
540.166	-0.02
540.36	-0.02
540.555	-0.01
540.75	-0.02
540.944	-0.01
541.139	-0.03
541.334	-0.02
541.528	0.02
541.723	0.03
541.917	-0.02
542.112	-0.04
542.306	-0.02
542.501	-0.01
542.695	0.02
542.89	-0.03
543.084	0.03
543.279	-0.03
543.473	-0
543.668	-0.02
543.862	-0.01
544.056	0.02
544.251	0
544.445	0.02
544.64	-0.01
544.834	-0.05
545.028	0
545.222	0
545.417	0.03
545.611	0.03
545.805	0.01
546	-0.01
546.194	0.01
546.388	-0.01
546.582	0.02
546.776	-0.02
546.97	-0.01
547.165	0.03
547.359	0.03
547.553	-0.04
547.747	0.01
547.941	-0
548.135	-0.01
548.329	0
548.523	-0.01
548.717	-0.01
548.911	-0.02
549.105	-0.01
549.299	-0
549.493	0
549.687	0
549.881	0.01
550.075	-0.01
550.269	-0.04
550.463	0.02
550.657	-0.02
550.85	-0.01
551.044	0.01
551.238	-0
551.432	-0
551.626	-0.03
551.82	-0.01
552.013	-0.02
552.207	0.01
552.401	0.02
552.594	-0.01
552.788	-0.01
552.982	-0.03
553.176	-0.02
553.369	0.02
553.563	0
553.756	-0.03
553.95	-0.02
554.144	-0
554.337	0
554.531	0.01
554.724	0.01
554.918	-0.01
555.111	0.03
555.305	-0
555.498	0.06
555.692	0.02
555.885	-0.01
556.079	-0.01
556.272	-0.01
556.466	-0.01
556.659	0.01
556.852	0
557.046	-0
557.239	0.04
557.432	-0.03
557.626	-0.02
557.819	0.01
558.012	0.01
558.206	0
558.399	-0.01
558.592	-0.01
558.785	-0
558.979	0
559.172	0.01
559.365	-0.02
559.558	0.04
559.751	-0.01
559.944	0.02
560.138	-0.01
560.331	0.01
560.524	-0.02
560.717	-0.02
560.91	0
561.103	0.02
561.296	-0.01
561.489	0.01
561.682	0
561.875	0.05
562.068	0.01
562.261	-0.02
562.454	0.04
562.647	-0
562.84	0.02
563.032	-0.02
563.225	0.02
563.418	0.01
563.611	0
563.804	-0.01
563.997	-0.04
564.19	-0.03
564.382	-0.08
564.575	-0.02
564.768	-0
564.961	-0.03
565.153	-0.03
565.346	0.04
565.539	0.03
565.731	0.02
565.924	0.02
566.117	0.03
566.309	-0.01
566.502	-0.02
566.695	-0.01
566.887	0
567.08	-0.03
567.272	-0.03
567.465	0
567.657	0.01
567.85	0
568.042	0.02
568.235	0.03
568.427	0.01
568.62	-0
568.812	0.01
569.005	-0.02
569.197	-0.01
569.389	0
569.582	0
569.774	-0.02
569.966	-0.04
570.159	-0.03
570.351	0.02
570.543	-0.03
570.736	-0.01
570.928	-0.04
571.12	0.01
571.312	-0.01
571.505	-0.01
571.697	0.02
571.889	-0.02
572.081	-0.01
572.273	-0.03
572.465	0.02
572.658	-0.02
572.85	0
573.042	-0.01
573.234	0
573.426	0.04
573.618	-0.04
573.81	0.03
574.002	0
574.194	0.04
574.386	-0.03
574.578	-0.05
574.77	-0.03
574.962	0
575.154	-0.05
575.346	-0.02
575.538	0.01
575.729	-0.02
575.921	-0.02
576.113	-0.01
576.305	0.02
576.497	-0.01
576.689	-0
576.88	-0.01
577.072	0.01
577.264	-0.04
577.456	-0.02
577.647	-0.05
577.839	-0.01
578.031	0.04
578.223	-0.03
578.414	-0.04
578.606	0.01
578.798	-0.01
578.989	-0.03
579.181	-0.03
579.372	0.01
579.564	0
579.755	0.01
579.947	0.01
580.139	0.01
580.33	-0.05
580.522	-0.04
580.713	-0.07
580.905	-0.01
581.096	-0
581.287	-0.01
581.479	-0.01
581.67	0.01
581.862	0
582.053	-0.05
582.244	-0.03
582.436	-0.03
582.627	-0.01
582.818	-0.01
583.01	-0.05
583.201	0.01
583.392	0.01
583.583	-0.01
583.775	-0.03
583.966	-0.02
584.157	-0.02
584.348	-0.02
584.54	-0.05
584.731	-0
584.922	-0.02
585.113	-0.02
585.304	0.02
585.495	0.02
585.686	-0
585.877	-0
586.068	-0.01
586.259	-0.01
586.45	0.01
586.641	-0.02
586.832	-0.06
587.023	0.01
587.214	-0.02
587.405	0.01
587.596	-0.03
587.787	0.03
587.978	-0.03
588.169	-0.02
588.36	-0.04
588.551	-0
588.742	-0.01
588.932	0.01
589.123	-0.02
589.314	0.03
589.505	0.02
589.696	0.02
589.886	-0.02
590.077	-0.04
590.268	-0.01
590.458	-0.05
590.649	-0.04
590.84	0.01
591.03	-0.01
591.221	-0.03
591.412	-0.05
591.602	0
591.793	0.04
591.984	-0.03
592.174	-0.02
592.365	0.06
592.555	-0.02
592.746	0
592.936	0.01
593.127	0.02
593.317	0.03
593.508	-0.02
593.698	-0.03
593.889	-0.02
594.079	0.01
594.269	-0.02
594.46	-0.02
594.65	0.01
594.84	-0.01
595.031	-0.03
595.221	-0.04
595.411	-0.05
595.602	0
595.792	-0.02
595.982	-0.02
596.172	0.04
596.363	0.01
596.553	-0
596.743	-0
596.933	-0.03
597.123	0.04
597.314	-0.04
597.504	-0.01
597.694	0.01
597.884	-0.06
598.074	-0.02
598.264	-0.02
598.454	0
598.644	-0.01
598.834	0.03
599.024	-0.07
599.214	-0.05
599.404	0.02
599.594	-0.02
599.784	-0.02
599.974	0
600.164	0.05
600.354	-0.04
600.544	-0.03
600.734	0
600.924	0.06
601.114	-0.02
601.303	-0
601.493	0
601.683	-0.01
601.873	0.02
602.063	-0.03
602.252	0.01
602.442	-0.07
602.632	-0
602.821	-0.04
603.011	0.02
603.201	-0.02
603.39	-0.07
603.58	-0
603.77	0.02
603.959	0.04
604.149	-0.01
604.339	-0.03
604.528	0.03
604.718	0.02
604.907	-0.02
605.097	-0.03
605.286	-0.05
605.476	0.03
605.665	-0.02
605.855	-0.01
606.044	0.02
606.234	0.02
606.423	-0.02
606.612	-0.04
606.802	-0.02
606.991	0.01
607.181	-0.03
607.37	-0.06
607.559	-0.01
607.749	-0.04
607.938	-0.03
608.127	-0.03
608.316	-0.01
608.506	-0
608.695	-0
608.884	-0.04
609.073	0.01
609.263	0.02
609.452	0
609.641	0
609.83	-0.05
610.019	-0
610.208	-0.03
610.397	-0.01
610.586	0
610.775	-0.04
610.965	-0.05
611.154	-0.03
611.343	-0.02
611.532	0.02
611.721	-0.05
611.91	-0.03
612.099	0.02
612.287	-0.01
612.476	-0.04
612.665	0.01
612.854	-0.02
613.043	0.01
613.232	-0.01
613.421	-0.05
613.61	-0.01
613.798	-0.03
613.987	0
614.176	-0.01
614.365	-0.01
614.554	-0.02
614.742	0.02
614.931	0
615.12	0.03
615.309	-0.03
615.497	0.01
615.686	-0.01
615.875	-0.03
616.063	-0
616.252	-0.03
616.44	-0.01
616.629	-0.01
616.818	0.01
617.006	-0.01
617.195	-0.01
617.383	0.02
617.572	-0.03
617.76	-0.01
617.949	-0.06
618.137	-0.01
618.326	0.03
618.514	-0.05
618.703	-0.04
618.891	0.06
619.079	-0.07
619.268	0.02
619.456	-0.02
619.644	0.04
619.833	-0.02
620.021	-0.05
620.209	-0.04
620.398	0.02
620.586	-0.02
620.774	0.01
620.962	-0.01
621.151	0.06
621.339	-0.02
621.527	-0.07
621.715	-0.04
621.903	-0.05
622.092	-0
622.28	-0.03
622.468	-0.03
622.656	0
622.844	0.03
623.032	-0.02
623.22	-0.07
623.408	0.03
623.596	0.01
623.784	0.02
623.972	-0.04
624.16	-0.03
624.348	0.09
624.536	-0.02
624.724	-0.04
624.912	0.04
625.1	0.04
625.288	-0.04
625.476	-0.06
625.664	-0.01
625.851	-0.05
626.039	-0.04
626.227	0.03
626.415	0.01
626.603	-0.08
626.79	-0.03
626.978	-0.03
627.166	0.01
627.354	0
627.541	-0.05
627.729	-0.09
627.917	-0
628.104	0.04
628.292	-0.01
628.48	-0.04
628.667	0
628.855	-0.03
629.042	-0
629.23	-0.01
629.418	-0.02
629.605	-0.03
629.793	-0.02
629.98	-0.04
630.168	-0.04
630.355	-0
630.543	0
630.73	-0.04
630.917	0.03
631.105	0.05
631.292	-0.05
631.48	-0.04
631.667	0.02
631.854	-0.01
632.042	-0.03
632.229	-0.04
632.416	0
632.604	0.02
632.791	-0.08
632.978	0
633.165	0.02
633.353	0.02
633.54	0.02
633.727	-0.07
633.914	-0.04
634.101	-0.01
634.289	0.03
634.476	-0.02
634.663	-0.06
634.85	0.01
635.037	-0.06
635.224	-0.06
635.411	0.01
635.598	0
635.785	-0.02
635.972	-0.04
636.159	0.01
636.346	-0.04
636.533	-0.02
636.72	-0
636.907	-0
637.094	-0.01
637.281	0
637.468	-0.03
637.655	0.01
637.842	-0.01
638.029	-0.02
638.215	0.03
638.402	-0.02
638.589	-0.05
638.776	-0.04
638.963	-0.05
639.149	0.01
639.336	0.07
639.523	-0.02
639.709	-0.02
639.896	-0.05
640.083	0.03
640.27	0.02
640.456	-0.04
640.643	0
640.829	-0.03
641.016	0.01
641.203	-0.05
641.389	0.04
641.576	0.02
641.762	0
641.949	-0.04
642.135	0.03
642.322	-0.02
642.508	-0.05
642.695	-0.01
642.881	-0
643.068	-0.03
643.254	-0.01
643.441	0.03
643.627	-0.02
643.813	-0.06
644	0.04
644.186	-0.02
644.372	-0.04
644.559	0.02
644.745	0
644.931	-0.06
645.118	-0.01
645.304	-0.03
645.49	-0.02
645.676	-0.03
645.862	-0.02
646.049	0.02
646.235	0
646.421	0.02
646.607	0.04
646.793	-0.05
646.979	-0.06
647.165	-0.04
647.352	-0.01
647.538	0.01
647.724	-0.01
647.91	-0.03
648.096	-0
648.282	-0.01
648.468	-0.03
648.654	-0.01
648.84	0
649.026	-0.01
649.212	-0.02
649.397	-0.04
649.583	-0.08
649.769	-0
649.955	-0.04
650.141	0
650.327	0.01
650.513	-0.04
650.698	0
650.884	-0.06
651.07	-0.03
651.256	0.02
651.442	-0.01
651.627	-0.05
651.813	0.01
651.999	-0.03
652.184	0.01
652.37	-0.02
652.556	-0.03
652.741	0.03
652.927	-0.07
653.113	-0.01
653.298	-0.01
653.484	-0.02
653.669	-0.07
653.855	-0
654.04	0.02
654.226	-0
654.412	-0.02
654.597	-0.08
654.782	-0.01
654.968	0.01
655.153	-0.01
655.339	0.02
655.524	-0.02
655.71	0.03
655.895	-0.04
656.08	-0.04
656.266	0.01
656.451	0.01
656.636	-0.05
656.822	-0
657.007	-0.08
657.192	-0.07
657.378	-0.08
657.563	-0.07
657.748	0.02
657.933	-0.01
658.118	-0.03
658.304	-0.04
658.489	0.01
658.674	-0
658.859	-0.07
659.044	-0
659.229	0.03
659.414	-0.03
659.599	-0
659.785	-0.09
659.97	-0.02
660.155	0.01
660.34	0.03
660.525	-0.02
660.71	-0.03
660.895	0.02
661.08	-0.02
661.264	0
661.449	0.03
661.634	0.02
661.819	-0.02
662.004	0.01
662.189	-0.08
662.374	-0.04
662.559	-0.03
662.743	-0.09
662.928	-0.03
663.113	-0.03
663.298	-0.09
663.483	-0.05
663.667	0
663.852	-0.03
664.037	0.03
664.221	-0.04
664.406	0
664.591	-0.03
664.775	-0.02
664.96	-0.06
665.145	-0.01
665.329	-0.01
665.514	-0.01
665.698	-0.05
665.883	-0.11
666.068	0.05
666.252	-0.01
666.437	-0.09
666.621	-0.04
666.806	0.03
666.99	-0.01
667.174	-0.07
667.359	0.06
667.543	-0.03
667.728	-0.02
667.912	-0.07
668.096	-0
668.281	0.01
668.465	-0.03
668.649	-0.03
668.834	-0.09
669.018	-0.01
669.202	-0.04
669.387	-0.04
669.571	0.02
669.755	-0.06
669.939	-0.02
670.124	-0.05
670.308	0.03
670.492	0.02
670.676	0.01
670.86	-0.01
671.044	-0.05
671.228	0.01
671.413	-0.03
671.597	-0.05
671.781	-0.04
671.965	-0.01
672.149	0.01
672.333	-0.01
672.517	-0.04
672.701	0.06
672.885	-0.02
673.069	-0.08
673.253	0.04
673.437	-0.05
673.621	-0.04
673.804	-0.02
673.988	0
674.172	0.02
674.356	-0.04
674.54	-0.04
674.724	0.06
674.908	-0.02
675.091	0.02
675.275	-0.02
675.459	0.02
675.643	0.05
675.826	-0
676.01	-0.03
676.194	-0.05
676.377	0.04
676.561	-0.02
676.745	0
676.928	0.03
677.112	0.06
677.296	-0.06
677.479	-0.06
677.663	-0.07
677.846	-0
678.03	-0.03
678.213	-0.03
678.397	-0.03
678.58	-0.03
678.764	-0.06
678.947	-0.08
679.131	-0.03
679.314	-0.02
679.498	-0
679.681	0.02
679.865	0.02
680.048	-0.04
680.231	-0.01
680.415	-0.06
680.598	-0.02
680.781	-0.02
680.965	-0.04
681.148	-0.01
681.331	-0.04
681.514	0.03
681.698	-0.07
681.881	0.01
682.064	0.01
682.247	-0.02
682.43	-0.06
682.614	-0.02
682.797	0.04
682.98	0.01
683.163	-0.06
683.346	-0.01
683.529	-0.04
683.712	-0.05
683.895	0.01
684.078	-0.07
684.261	-0.05
684.444	-0.04
684.627	-0.04
684.81	-0.03
684.993	-0.02
685.176	0
685.359	-0.08
685.542	-0.08
685.725	0.05
685.908	-0.01
686.091	-0.06
686.274	0.01
686.457	0.02
686.639	-0.04
686.822	0.01
687.005	-0.05
687.188	-0.02
687.371	0.09
687.553	0.02
687.736	0.04
687.919	0.04
688.102	0.01
688.284	-0.02
688.467	-0.02
688.65	-0.02
688.832	0.01
689.015	-0.04
689.197	-0.1
689.38	0.04
689.563	0.09
689.745	-0.08
689.928	-0.06
690.11	-0.03
690.293	-0.02
690.475	-0.08
690.658	-0.01
690.84	0
691.023	-0.02
691.205	-0.05
691.388	-0.02
691.57	0.02
691.752	0.01
691.935	-0.05
692.117	-0.03
692.3	0.03
692.482	0.03
692.664	-0.08
692.847	-0.02
693.029	0
693.211	0.02
693.393	-0.03
693.576	-0.03
693.758	-0.02
693.94	-0.05
694.122	-0.03
694.304	-0.03
694.487	-0.02
694.669	0.05
694.851	-0.08
695.033	-0.04
695.215	-0.07
695.397	-0
695.579	0.03
695.761	-0.06
695.943	-0.09
696.125	0.05
696.308	-0.01
696.49	-0.14
696.671	0.06
696.853	-0.04
697.035	0.09
697.217	0.03
697.399	0.05
697.581	-0.05
697.763	0.02
697.945	-0.04
698.127	0.02
698.309	0.01
698.491	-0.03
698.672	0.03
698.854	-0
699.036	0.02
699.218	-0.07
699.399	0.02
699.581	0.02
699.763	-0.04
699.945	-0.03
700.126	-0.09
700.308	0.02
700.49	-0.06
700.671	-0.12
700.853	-0.06
701.035	-0.04
701.216	-0.05
701.398	-0.08
701.579	-0.02
701.761	0.05
701.943	-0.08
702.124	-0.04
702.306	-0.07
702.487	0.07
702.669	-0.03
702.85	-0.08
703.031	-0.08
703.213	0.09
703.394	-0.02
703.576	-0.03
703.757	0.02
703.938	0.04
704.12	0.05
704.301	-0.04
704.483	-0.01
704.664	-0.02
704.845	0.09
705.026	0.03
705.208	-0.05
705.389	-0.06
705.57	-0.01
705.751	-0.04
705.933	0.02
706.114	0.03
706.295	-0.07
706.476	-0.07
706.657	0.05
706.838	-0.03
707.02	0.08
707.201	-0.07
707.382	-0.05
707.563	0.02
707.744	-0.02
707.925	-0.11
708.106	-0.06
708.287	-0.02
708.468	0.08
708.649	0
708.83	-0.01
709.011	-0.04
709.192	0.01
709.373	-0.13
709.554	-0.06
709.734	0.09
709.915	0.03
710.096	-0.01
710.277	-0.13
710.458	0.02
710.639	-0.01
710.819	-0.05
711	-0.09
711.181	0.06
711.362	-0
711.542	-0.07
711.723	-0.02
711.904	0.02
712.085	0
712.265	0.03
712.446	-0.21
712.627	-0.04
712.807	-0.07
712.988	0.05
713.168	-0.13
713.349	-0.03
713.53	-0.09
713.71	-0.06
713.891	-0.12
714.071	-0.05
714.252	-0.06
714.432	-0.06
714.613	-0.12
714.793	0
714.974	0.06
715.154	0.04
715.334	0.01
715.515	0.06
715.695	-0.02
715.876	-0.04
716.056	-0.06
716.236	-0.05
716.417	-0.08
716.597	-0.04
716.777	0.03
716.957	-0.08
717.138	-0.11
717.318	-0.04
717.498	-0.14
717.678	-0.03
717.859	0.01
718.039	-0.11
718.219	-0.01
718.399	0.04
718.579	-0.05
718.759	-0.07
718.939	0.03
719.12	-0.05
719.3	0.02
719.48	-0.18
719.66	-0.1
719.84	0.07
720.02	0
720.2	-0.1
720.38	0.02
720.56	0.1
720.74	-0.08
720.92	0.01
721.1	0.05
721.279	0.02
721.459	-0.04
721.639	-0.15
721.819	0.05
721.999	-0.12
722.179	-0.02
722.359	-0.1
722.538	-0.09
722.718	0.01
722.898	-0.09
723.078	-0.03
723.257	-0.05
723.437	-0.02
723.617	-0.01
723.797	-0
723.976	-0
724.156	-0.01
724.336	0.07
724.515	0.12
724.695	-0.18
724.874	-0.02
725.054	0.08
725.234	-0.06
725.413	0.01
725.593	0
725.772	-0.09
725.952	-0.02
726.131	-0.1
726.311	-0.06
726.49	-0.08
726.67	-0.07
726.849	-0.11
727.028	0.01
727.208	-0.06
727.387	0
727.567	-0.14
727.746	-0.02
727.925	-0.1
728.105	-0.13
728.284	-0.13
728.463	-0.2
728.643	0.05
728.822	-0.1
729.001	-0.1
729.18	0.01
729.359	0.07
729.539	-0.09
729.718	0.01
729.897	0.04
730.076	-0.04
730.255	-0.14
730.434	0.05
730.614	0
730.793	0.05
730.972	-0.07
731.151	-0.06
731.33	0.05
731.509	-0.05
731.688	-0.02
731.867	-0.02
732.046	-0.17
732.225	0.11
732.404	-0.04
732.583	-0.08
732.762	0.02
732.941	-0.01
733.12	-0.03
733.298	-0.1
733.477	0.08
733.656	-0.11
733.835	-0.08
734.014	0.06
734.193	0.03
734.371	0.02
734.55	0.01
734.729	-0.09
734.908	-0.02
735.086	0.12
735.265	0.05
735.444	-0.18
735.623	-0.15
735.801	-0.18
735.98	-0.04
736.159	-0.09
736.337	0.04
736.516	-0.02
736.694	-0.06
736.873	-0.05
737.052	0.06
737.23	0.1
737.409	-0.09
737.587	0.11
737.766	-0.24
737.944	-0.1
738.123	0.08
738.301	0.11
738.479	-0.06
738.658	0.05
738.836	-0.21
739.015	0.05
739.193	0.08
739.371	-0.08
739.55	-0.07
739.728	0.03
739.906	0.08
740.085	0.1
740.263	0.1
740.441	-0.23
740.62	0.15
740.798	0.13
740.976	-0.12
741.154	-0.09
741.332	0.08
741.511	-0.01
741.689	-0
741.867	0.04
742.045	-0.01
742.223	-0.07
742.401	-0.18
742.579	-0.05
742.757	-0.03
742.935	-0.1
743.114	-0.21
743.292	-0.12
743.47	-0.05
743.648	-0.04
743.826	-0.15
744.004	0.08
744.181	0.11
744.359	-0
744.537	-0.05
744.715	0.06
744.893	-0.03
745.071	-0.01
745.249	-0.05
745.427	-0.08
745.605	0.1
745.782	-0.09
745.96	0.09
746.138	0.02
746.316	-0.02
746.493	-0.12
746.671	-0.03
746.849	-0.04
747.027	0.15
747.204	-0.11
747.382	0.08
747.56	-0.17
747.737	-0.04
747.915	-0.1
748.093	0.09
748.27	-0.09
748.448	-0.12
748.625	-0.08
748.803	-0.03
748.98	-0.1
749.158	-0.03
749.335	0.05
749.513	-0.09
749.69	-0.12
749.868	-0.08
750.045	-0.02
750.223	-0.14
750.4	-0.23
750.578	0.27
750.755	0.01
750.932	-0.21
751.11	0.11
751.287	-0.2
751.464	0.03
751.642	-0.03
751.819	0.01
751.996	0.04
752.173	-0.02
752.351	-0.14
752.528	0.08
752.705	-0.1
752.882	-0.08
753.06	-0.01
753.237	0.06
753.414	0.12
753.591	0.08
753.768	0.06
753.945	-0.19
754.122	-0.07
754.299	0.01
754.476	-0.05
754.654	0.01
754.831	-0.01
755.008	-0.03
755.185	-0.06
755.362	-0.12
755.539	0.08
755.716	-0.11
755.892	0.02
756.069	-0.03
756.246	-0.05
756.423	-0.13
756.6	0.02
756.777	0
756.954	0.13
757.131	-0.13
757.307	-0.18
757.484	-0.09
757.661	-0.06
757.838	0
758.015	-0.08
758.191	0.09
758.368	0.01
758.545	0.08
758.721	-0.03
758.898	-0.18
759.075	0.03
759.251	-0.03
759.428	0
759.605	-0.19
759.781	-0.07
759.958	0.06
760.134	-0.04
760.311	-0.22
760.488	0.09
760.664	0.07
760.841	-0.09
761.017	-0.12
761.194	0
761.37	-0.01
761.547	-0.04
761.723	-0.11
761.899	-0.01
762.076	-0.09
762.252	-0.1
762.429	-0.09
762.605	-0.05
762.781	-0.08
762.958	0.13
763.134	-0.01
763.31	-0.08
763.486	0.05
763.663	-0.24
763.839	-0.02
764.015	-0.24
764.191	-0.07
764.368	-0.06
764.544	-0.04
764.72	-0
764.896	-0
765.072	-0.13
765.248	-0.11
765.425	-0.11
765.601	-0.04
765.777	-0.08
765.953	-0.32
766.129	-0.05
766.305	-0.08
766.481	0.02
766.657	-0.1
766.833	0.12
767.009	-0.04
767.185	-0.07
767.361	-0.07
767.537	-0.2
767.713	0.19
767.889	-0.12
768.065	-0.01
768.24	0.1
768.416	0.15
768.592	-0.11
768.768	-0.02
768.944	0.05
769.12	-0.1
769.295	-0.12
769.471	-0.15
769.647	0.01
769.823	0.09
769.998	-0.18
770.174	-0.23
770.35	0.1
770.525	0.12
770.701	-0.01
770.877	-0.15
771.052	-0.09
771.228	0.13
771.403	-0.03
771.579	0.13
771.755	0.27
771.93	-0.2
772.106	-0.18
772.281	-0.33
772.457	0.05
772.632	-0.04
772.808	-0.11
772.983	-0.19
773.159	-0.17
773.334	0.01
773.509	-0.01
773.685	-0.22
773.86	0.27
774.036	0.19
774.211	0
774.386	-0.05
774.562	-0.12
774.737	0.05
774.912	-0.11
775.087	0.11
775.263	0.03
775.438	-0.02
775.613	-0.16
775.788	-0.04
775.964	0.08
776.139	0.16
776.314	-0.17
776.489	-0.13
776.664	0.03
776.839	-0.15
777.014	0.09
777.19	0.13
777.365	0.15
777.54	0.19
777.715	-0.05
777.89	-0.15
778.065	-0.16
778.24	-0.09
778.415	0.12
778.59	-0.09
778.765	-0.1
778.94	0.07
779.115	-0.1
779.289	-0.03
779.464	-0.21
779.639	0.03
779.814	-0.14
779.989	-0.15
780.164	0.06
780.339	-0.07
780.513	-0.09
780.688	-0.2
780.863	-0.09
781.038	0.23
781.212	-0.16
781.387	0
781.562	0.13
781.737	-0.31
781.911	0.19
782.086	-0.21
782.261	0.02
782.435	0.3
782.61	-0.36
782.784	-0.01
782.959	0.03
783.134	-0.1
783.308	-0.25
783.483	-0.09
783.657	0.18
783.832	0.01
784.006	-0.25
784.181	0.07
784.355	0.18
784.53	-0.35
784.704	-0.22
784.878	0.1
785.053	0.06
785.227	0.12
785.402	0.21
785.576	-0.36
785.75	-0.13
785.925	-0.22
786.099	-0.12
786.273	-0.12
786.448	0.08
786.622	0.18
786.796	-0.29
786.97	-0.19
787.145	0.6
787.319	-0.35
787.493	-0.08
787.667	-0.27
787.841	-0.2
788.015	0.19
788.19	-0.1
788.364	-0.06
788.538	0.13
788.712	-0.08
788.886	-0.1
789.06	0.19
789.234	0.26
789.408	-0.39
789.582	-0.08
789.756	-0.08
789.93	-0.06
790.104	-0.13
790.278	-0.2
790.452	-0.25
790.626	0.13
790.8	-0.25
790.973	0.05
791.147	0.15
791.321	0.13
791.495	-0.04
791.669	0.1
791.843	0.03
792.016	-0.16
792.19	0.48
792.364	-0.3
792.538	0.39
792.711	0.33
792.885	-0.13
793.059	-0.29
793.233	-0.55
793.406	-0
793.58	0.03
793.754	0.17
793.927	0.06
794.101	0.34
794.274	-0.07
794.448	0.17
794.622	-0.28
794.795	0.32
794.969	-0.23
795.142	0.09
795.316	-0.24
795.489	-0.25
795.663	0.48
795.836	-0.16
796.009	-0.37
796.183	0.2
796.356	0.03
796.53	0.04
796.703	-0.09
796.876	0.54
797.05	-0.32
797.223	-0.21
797.396	0.03
797.57	-0.14
797.743	0.25
797.916	-0.22
798.09	-0.06
798.263	0.28
798.436	0.25
798.609	-0.06
798.782	-0.35
798.956	-0.04
799.129	-0.1
799.302	-0.18
799.475	-0.13
799.648	-0.25
799.821	-0.39
799.994	0.05
800.167	-0.37
800.34	-0.11
800.514	0.07
800.687	-0.07
800.86	-0.12
801.033	-0.04
801.206	0.11
801.379	-0.34
801.551	-0.03
801.724	0.06
801.897	0
802.07	-0.45
802.243	-0.14
802.416	-0.3
802.589	-0.13
802.762	0.04
802.935	-0.22
803.107	0.13
803.28	0.1
803.453	0.32
803.626	-0.18
803.798	0.25
803.971	-0.25
804.144	-0.07
804.317	0.13
804.489	-0.01
804.662	-0.11
804.835	-0.22
805.007	-0.17
805.18	0.59
805.353	0.15
805.525	-0.3
805.698	-0.22
805.87	0.12
806.043	0.29
806.215	-0.22
806.388	-0.57
806.56	0.27
806.733	0.25
806.905	0.08
807.078	-0.28
807.25	-0.16
807.423	0.18
807.595	0.13
807.768	-0.12
807.94	0.34
808.112	-0.05
808.285	-0.33
808.457	-0.28
808.629	-0.05
808.802	0.14
808.974	-0.09
809.146	-0.04
809.318	-0.16
809.491	0.16
809.663	0.22
809.835	0.16
810.007	0
810.18	0.08
810.352	-0.19
810.524	-0.28
810.696	0.01
810.868	0.11
811.04	-0.36
811.212	-0.21
811.384	0.17
811.556	0.3
811.728	-0.01
811.901	0.38
812.073	0.05
812.245	0.05
812.417	-0.35
812.589	-0.53
812.76	0.41
812.932	0.26
813.104	0.21
813.276	-0.37
813.448	0.52
813.62	-0.44
813.792	0.14
813.964	0.08
814.136	0.31
814.307	-0.19
814.479	-0.38
814.651	-0.11
814.823	0.5
814.995	-0.22
815.166	-0.29
815.338	-0.33
815.51	-0.65
815.681	1.15
815.853	-0.21
816.025	-0.35
816.196	0.06
816.368	0.35
816.54	-0.68
816.711	-0.43
816.883	0.03
817.054	1.17
817.226	-0.6
817.398	0.04
817.569	-0.25
817.741	-0.12
817.912	-0.17
818.084	0.06
818.255	0.33
818.426	-0.42
818.598	-0.36
818.769	-0.17
818.941	0.11
819.112	-0.03
819.283	0.09
819.455	-0.06
819.626	0.05
819.798	0.41
819.969	0.12
820.14	0
820.311	0.1
820.483	0.28
820.654	-0.06
820.825	-0.09
820.996	-0.26
821.168	-0.43
821.339	-0.24
821.51	-0.72
821.681	0.8
821.852	-0.21
822.023	-0.2
822.195	-0.29
822.366	0.67
822.537	0.18
822.708	0.13
822.879	-0.52
823.05	0.25
823.221	-0.23
823.392	0.33
823.563	0.3
823.734	-0.19
823.905	0.12
824.076	-0.67
824.247	-0.85
824.418	-0.6
824.589	0.85
824.759	0.15
824.93	-0.23
825.101	-1.1
825.272	0.41
825.443	0.68
825.614	0.23
825.784	-0.66
825.955	0.87
826.126	0.31
826.297	-0.36
826.467	0.51
826.638	0.8
826.809	-0.99
826.98	-0.32
827.15	-0.02
827.321	-0.17
827.492	0.61
827.662	-0.29
827.833	0.57
828.003	0.09
828.174	-0.37
828.345	-0.37
828.515	0.32
828.686	-0.04
828.856	-0.04
829.027	-0.04
829.197	-0.24
829.368	0.24
829.538	-0.34
829.709	-0.27
829.879	0.23
830.049	-0.27
830.22	-0.65
830.39	-0.33
830.56	0.08
830.731	-0.34
830.901	-0.97
831.072	0.14
831.242	-0.1
831.412	-0.19
831.582	-0.05
831.753	-0.73
831.923	0.09
832.093	-0.18
832.263	-0.47
832.434	-0.26
832.604	-0.46
832.774	-0.18
832.944	-0.16
833.114	-0.36
833.284	0.41
833.454	-0.32
833.624	-0.37
833.795	-0.43
833.965	0.64
834.135	0.72
834.305	-0.79
834.475	-0.61
834.645	-0.28
834.815	-0.79
834.985	-0.52
835.155	-0.82
835.325	0.45
835.494	-0.25
835.664	-0.12
835.834	-0.94
836.004	0.15
836.174	0.25
836.344	-0.02
836.514	-0.67
836.684	-0.35
836.853	-0.03
837.023	-0.36
837.193	-1.13
837.363	0.25
837.532	0.27
837.702	-0.27
837.872	-0.32
838.041	0.24
838.211	1.19
838.381	-0.98
838.55	0
838.72	1.96
838.89	1.36
839.059	-0.23
839.229	-0.83
839.398	0.37
839.568	0.01
839.738	0.18
839.907	0.53
840.077	0.23
840.246	-0.59
840.416	-0.9
840.585	-0.8
840.755	1.26
840.924	0.51
841.093	-1.4
841.263	0.23
841.432	0.26
841.602	-0.71
841.771	-0.07
841.94	-0.46
842.11	1.66
842.279	1.45
842.448	-0.88
842.617	-0.75
842.787	0.92
842.956	-1.04
843.125	0.72
843.294	0.51
843.464	0.88
843.633	0.27
843.802	-1.82
843.971	0.08
844.14	0.2
844.309	1.04
844.479	-1.38
844.648	-0.51
844.817	-0.67
844.986	-0.62
845.155	-0.79
845.324	-0.16
845.493	-0.22
845.662	-1.03
845.831	-0.18
846	0.45
846.169	-0.35
846.338	1.11
846.507	-0.47
846.676	0.2
846.844	-0.21
847.013	0.7
847.182	-0.12
847.351	-0.85
847.52	0.26
847.689	0.86
847.858	0.45
848.026	-0.5
848.195	-0.04
848.364	-0.16
848.533	-0.92
848.701	-0.65
848.87	0.19
849.039	-0.04
849.207	1.5
849.376	0.76
849.545	0.75
849.713	-1.2
849.882	0.29
850.051	0.22
850.219	-0.01
850.388	0.85
850.556	-0.76
850.725	-1.26
850.893	-0.12
851.062	-0.52
851.23	0.1
851.399	-1.21
851.567	-0.75
851.736	-0.9
851.904	-1.14
852.073	0.41
852.241	0.45
852.41	-0.64
852.578	-0.77
852.746	-0.68
852.915	0.53
853.083	0.08
853.251	-1.03
853.42	-0.54
853.588	-0.17
853.756	0.26
853.924	0.11
854.093	0.15
854.261	-0.57
854.429	-2.48
854.597	0.12
854.765	-1.99
854.934	0.77
855.102	0.79
855.27	-0.27
855.438	0.88
855.606	0.88
855.774	1.67
855.942	-2.17
856.11	-2.05
856.278	0.5
856.446	1.37
856.614	-0.34
856.782	-1.09
856.95	1.31
857.118	0.64
857.286	0.31
857.454	-0.98
857.622	0.79
857.79	-0.14
857.958	-1.27
858.126	-0.58
858.294	-2.42
858.462	-0.29
858.629	-0.85
858.797	-1.03
858.965	-0.97
859.133	-1
859.301	-0.83
859.468	0.5
859.636	-0.98
859.804	1.44
859.971	0.8
860.139	-0.77
860.307	0.23
860.474	-0.1
860.642	-0.45
860.81	-0.64
860.977	-0.02
861.145	0.21
861.313	0.02
861.48	-1.51
861.648	0.1
861.815	-0.55
861.983	-2.07
862.15	-0.15
862.318	0.64
862.485	0
862.653	-1.32
862.82	-2.11
862.988	1.94
863.155	0.43
863.322	-1.02
863.49	-1.84
863.657	-1.62
863.824	0.14
863.992	-0.34
864.159	-0.68
864.326	0.82
864.494	-1.41
864.661	2.34
864.828	-2.18
864.996	0.35
865.163	1.3
865.33	-1.11
865.497	-3.1
865.664	-1.68
865.832	-2.45
865.999	-0.54
866.166	-0.53
866.333	-0.81
866.5	-0.82
866.667	0.02
866.834	-1.29
867.001	1.42
867.168	-1.92
867.335	-0.53
867.502	-2.56
867.669	-0.95
867.836	1.14
868.003	-0.27
868.17	1.1
868.337	-1.78
868.504	1.25
868.671	-2.03
868.838	-0.95
869.005	-0.62
869.172	0.86
869.339	-1.07
869.505	-0.54
869.672	1
869.839	2.2
870.006	-0.88
870.173	-1.56
870.339	-0.38
870.506	2.01
870.673	-3.43
870.84	1.31
871.006	-0.3
871.173	0.02
871.34	0.8
871.506	-3.14
871.673	0.36
871.839	-1.16
872.006	0.54
872.173	-0.46
872.339	-0.05
872.506	0.96
872.672	-0.96
872.839	-2.4
873.005	0.68
873.172	1.22
873.338	-0.08
873.505	-1.32
873.671	0.12
873.838	1.37
874.004	-0.73
874.171	-1.13
874.337	-0.09
874.503	0.14
874.67	-0.29
874.836	-2.5
875.002	2.39
875.169	0.63
875.335	-1.43
875.501	-2.17
875.668	1.76
875.834	-0.09
876	-0.23
876.166	0.86
876.332	0.34
876.499	2.6
876.665	-2.97
876.831	0.22
876.997	3.15
877.163	0.06
877.329	-1.3
877.495	0.02
877.662	2
877.828	0.84
877.994	-0.17
878.16	-3.14
878.326	-1.03
878.492	-1.28
878.658	0.31
878.824	-0.48
878.99	-0.56
879.156	-2.96
879.322	1.66
879.487	-0.22
879.653	-0.78
879.819	0.54
879.985	-0.8
880.151	1.42
880.317	-0.73
880.483	0.04
880.648	1.03
880.814	-3.32
880.98	0.26
881.146	-3.64
881.312	-1.18
881.477	-0.98
881.643	0.96
881.809	3.43
881.974	1.52
882.14	-2.16
882.306	-1.58
882.471	3.64
882.637	0.34
882.803	1.85
882.968	3.67
883.134	2.45
883.299	0.3
883.465	-0.92
883.63	0.48
883.796	2.11
883.961	1.26
884.127	0.3
884.292	-5.94
884.458	-2.29
884.623	-2.29
