Data from Apollo_Calib_20240827__AbsoluteIrradiance__341__04-50-00-787.txt Node

Date: Wed Aug 28 04:50:00 BST 2024
User: biology
Spectrometer: FLMT08252
Trigger mode: 0
Integration Time (sec): 5.000000E-1
Scans to average: 5
Electric dark correction enabled: true
Nonlinearity correction enabled: false
Boxcar width: 0
XAxis mode: Wavelengths
Number of Pixels in Spectrum: 3648
>>>>>Begin Spectral Data<<<<<
179.588	-0
179.809	-0
180.03	-0
180.251	-0
180.473	-0
180.694	0
180.915	0
181.136	-0
181.357	-0
181.578	0
181.799	-0
182.02	-0
182.241	0
182.462	-0
182.683	0
182.904	-0
183.125	0
183.346	0
183.567	0
183.788	0
184.009	-0
184.23	0
184.451	0
184.672	-0
184.892	-0
185.113	0
185.334	0
185.555	-0
185.776	-0
185.996	0
186.217	0
186.438	-0
186.659	-0
186.879	0
187.1	-0
187.321	-0
187.541	-0
187.762	0
187.983	0
188.203	0
188.424	0
188.644	0
188.865	0
189.086	0
189.306	-0
189.527	0
189.747	0
189.968	-0
190.188	0
190.409	0
190.629	0
190.849	0
191.07	-0
191.29	0
191.511	0
191.731	-0
191.951	-0
192.172	-0
192.392	0
192.612	0
192.833	0
193.053	0
193.273	0
193.493	0
193.714	0
193.934	0
194.154	0
194.374	0
194.594	0
194.815	-0
195.035	0
195.255	0
195.475	-0
195.695	0
195.915	0
196.135	0
196.355	0
196.575	0
196.795	0
197.015	-0
197.235	0
197.455	0
197.675	0
197.895	-0
198.115	-0
198.335	0
198.555	0
198.775	0
198.995	0
199.214	0
199.434	0
199.654	-0
199.874	-0
200.094	1.27
200.313	0.22
200.533	0.01
200.753	-0.59
200.973	0.56
201.192	1.6
201.412	-0.58
201.632	-0.22
201.851	0.99
202.071	-0.16
202.291	0.01
202.51	0
202.73	0.51
202.95	-0.07
203.169	-0.06
203.389	0.41
203.608	0.22
203.828	-0.5
204.047	0.02
204.267	0.33
204.486	0.45
204.706	0.26
204.925	-0.08
205.145	-0.07
205.364	0.69
205.583	1.17
205.803	-0.06
206.022	-0.1
206.242	-0.11
206.461	0.53
206.68	-0.09
206.9	0.07
207.119	0.91
207.338	0.9
207.557	-0.14
207.777	0.02
207.996	0.28
208.215	0.47
208.434	-0.17
208.654	-0.39
208.873	0.09
209.092	1.03
209.311	0.11
209.53	0.09
209.749	-0.11
209.968	-0.01
210.187	0.13
210.407	-0.09
210.626	-0.13
210.845	0.61
211.064	0.21
211.283	-0.05
211.502	0.39
211.721	0.2
211.94	-0.02
212.159	0.53
212.377	0.31
212.596	0.56
212.815	0.38
213.034	0.2
213.253	0.5
213.472	0.42
213.691	-0.01
213.91	-0.06
214.128	-0.09
214.347	0.36
214.566	0.01
214.785	-0.18
215.003	0.26
215.222	0.55
215.441	-0.02
215.66	-0.17
215.878	0.32
216.097	0.32
216.316	-0.32
216.534	0.06
216.753	0.21
216.972	0.07
217.19	0.11
217.409	0.03
217.627	-0.11
217.846	0.15
218.064	0.15
218.283	-0.02
218.501	0.55
218.72	0.49
218.938	-0.08
219.157	-0.14
219.375	0.2
219.594	0.26
219.812	-0.1
220.031	-0.13
220.249	0.4
220.467	0.45
220.686	-0.03
220.904	-0.09
221.122	0.08
221.341	0.51
221.559	0.11
221.777	-0.15
221.995	0.16
222.214	0.27
222.432	-0.13
222.65	0.28
222.868	0.09
223.086	0.19
223.305	0.26
223.523	0.1
223.741	0.25
223.959	0.11
224.177	-0.1
224.395	0.17
224.613	0.2
224.831	0.31
225.049	-0.09
225.267	0
225.485	0.13
225.703	0.04
225.921	0.09
226.139	-0.04
226.357	0.3
226.575	0.18
226.793	0.07
227.011	0.91
227.229	0.15
227.447	0.32
227.665	-0.07
227.883	-0.17
228.1	0.14
228.318	0.13
228.536	-0.25
228.754	-0.02
228.972	0.16
229.189	0.24
229.407	-0
229.625	-0.02
229.843	0.23
230.06	0.21
230.278	-0.02
230.496	0.07
230.713	-0.01
230.931	0.3
231.149	0.03
231.366	-0.15
231.584	0.16
231.801	0.44
232.019	0.01
232.236	-0.01
232.454	-0.07
232.671	0.09
232.889	-0.04
233.106	0.08
233.324	0.17
233.541	0.06
233.759	0.04
233.976	0.04
234.194	0.09
234.411	0.09
234.628	-0.04
234.846	0.09
235.063	0.09
235.28	0.23
235.498	0.07
235.715	0.02
235.932	0.27
236.149	0.09
236.367	-0.02
236.584	0.08
236.801	0.03
237.018	0.15
237.236	0.09
237.453	-0.15
237.67	0.23
237.887	0.08
238.104	0.01
238.321	-0.07
238.538	0.05
238.755	0.2
238.973	-0.13
239.19	0.01
239.407	0.15
239.624	0.18
239.841	-0.04
240.058	-0.04
240.275	0.03
240.492	0.01
240.709	0.07
240.925	0.07
241.142	0.03
241.359	-0.08
241.576	-0.04
241.793	-0.06
242.01	0.12
242.227	0.17
242.444	0.19
242.66	0.15
242.877	0.06
243.094	0.02
243.311	0.14
243.527	-0.02
243.744	0.07
243.961	0.13
244.178	-0.05
244.394	0.03
244.611	0.2
244.828	0.23
245.044	0.03
245.261	0.05
245.477	0.21
245.694	0.06
245.911	-0.02
246.127	0.06
246.344	0.2
246.56	0.16
246.777	0.03
246.993	0.08
247.21	0.16
247.426	0.08
247.643	-0.02
247.859	-0.04
248.076	0.02
248.292	0.18
248.508	0
248.725	0.14
248.941	0.09
249.157	0.18
249.374	-0.01
249.59	0.12
249.806	0.1
250.023	0.26
250.239	-0.01
250.455	0.01
250.671	0.08
250.888	0.14
251.104	0.14
251.32	0
251.536	0.02
251.752	0.03
251.969	-0.01
252.185	0.02
252.401	0.28
252.617	0.15
252.833	0.05
253.049	0.04
253.265	0.11
253.481	0.12
253.697	0.05
253.913	-0
254.129	0.17
254.345	0.05
254.561	0
254.777	0.02
254.993	0.16
255.209	0.11
255.425	0.04
255.641	0.02
255.857	0.15
256.073	0.06
256.288	-0.05
256.504	0.03
256.72	0.06
256.936	0.18
257.152	-0.02
257.367	-0.05
257.583	0.05
257.799	0.15
258.015	-0
258.23	0.05
258.446	0.16
258.662	-0.02
258.877	-0.02
259.093	-0.01
259.309	0.13
259.524	0.14
259.74	-0.02
259.955	-0.01
260.171	0.02
260.387	0.07
260.602	0.16
260.818	0.2
261.033	0.03
261.249	0.05
261.464	0.04
261.68	0.03
261.895	0.12
262.11	0.16
262.326	0.09
262.541	-0.11
262.757	0.05
262.972	0.15
263.187	0.05
263.403	0.09
263.618	0.09
263.833	0.04
264.049	0.01
264.264	0.11
264.479	0.11
264.694	0.16
264.91	-0.03
265.125	0.08
265.34	0.14
265.555	0.25
265.77	0.07
265.986	0.02
266.201	0.13
266.416	0.17
266.631	0.05
266.846	0.05
267.061	0.13
267.276	0.08
267.491	-0.05
267.706	0.05
267.921	0.13
268.136	0.1
268.351	0.04
268.566	0.01
268.781	0.15
268.996	0.14
269.211	0.05
269.426	-0.03
269.641	0.02
269.856	0.1
270.071	-0.01
270.285	0.01
270.5	0.18
270.715	0.11
270.93	0.07
271.145	0.11
271.359	0.05
271.574	0.01
271.789	0.05
272.004	0.01
272.218	-0.03
272.433	0.06
272.648	-0
272.862	0.13
273.077	0.11
273.292	0.07
273.506	-0.02
273.721	0.08
273.936	0.1
274.15	0.12
274.365	0.02
274.579	0.04
274.794	0.1
275.008	0.11
275.223	-0.02
275.437	0.02
275.652	0.08
275.866	0.06
276.081	0.06
276.295	0.11
276.509	-0
276.724	0.07
276.938	0.11
277.153	0.11
277.367	0.13
277.581	0.03
277.796	-0.01
278.01	0.04
278.224	0.13
278.438	0.21
278.653	0.03
278.867	-0.01
279.081	-0.13
279.295	0.06
279.51	0.12
279.724	-0.02
279.938	0.07
280.152	0.09
280.366	0.06
280.58	0.06
280.794	0.13
281.008	0.07
281.222	0.14
281.437	0.19
281.651	0.04
281.865	0.16
282.079	0.03
282.293	-0.05
282.507	-0
282.721	0.06
282.935	0.02
283.148	-0.02
283.362	0.04
283.576	0.03
283.79	0.08
284.004	0.03
284.218	0.13
284.432	0.01
284.646	0.11
284.859	0.05
285.073	0.1
285.287	0.08
285.501	0.08
285.714	0.07
285.928	0.05
286.142	0.1
286.356	0.05
286.569	0.11
286.783	0.14
286.997	0.08
287.21	0.03
287.424	0.09
287.637	0.08
287.851	0.04
288.065	0.12
288.278	0.07
288.492	0.11
288.705	0.03
288.919	0.07
289.132	0.01
289.346	0.13
289.559	-0
289.773	0.02
289.986	0.06
290.2	0.08
290.413	0.08
290.626	-0.02
290.84	0.04
291.053	0.05
291.267	0.2
291.48	0.04
291.693	0.05
291.906	0.02
292.12	0.05
292.333	0.03
292.546	0.01
292.76	0.12
292.973	0.09
293.186	0.1
293.399	0.05
293.612	0.08
293.826	0.07
294.039	0.04
294.252	0.03
294.465	0.09
294.678	0.1
294.891	0.09
295.104	0.06
295.317	0.06
295.53	0.05
295.743	0.07
295.956	0.02
296.169	0.18
296.382	0.12
296.595	0.03
296.808	0.05
297.021	0.13
297.234	0.14
297.447	0.06
297.66	0.12
297.873	0.18
298.086	0.13
298.299	0.02
298.511	0.02
298.724	0.06
298.937	0.01
299.15	0.02
299.363	0.06
299.575	0.12
299.788	0.11
300.001	0.03
300.213	-0
300.426	0.09
300.639	0.05
300.852	0.05
301.064	0.12
301.277	0.12
301.489	0.15
301.702	0.07
301.915	0.07
302.127	0.02
302.34	0.09
302.552	0.04
302.765	0.02
302.977	0.12
303.19	0.01
303.402	0.07
303.615	0.06
303.827	0.07
304.04	0.08
304.252	0.12
304.464	0.11
304.677	0.19
304.889	0.13
305.102	0.06
305.314	0.05
305.526	0.16
305.739	0.1
305.951	0.02
306.163	0.07
306.375	0.14
306.588	0.05
306.8	0.08
307.012	0.03
307.224	0.1
307.436	0.15
307.649	0.01
307.861	0.06
308.073	0.1
308.285	0.04
308.497	0.01
308.709	0.06
308.921	0.12
309.133	0.12
309.346	0.05
309.558	0.06
309.77	0.14
309.982	0.15
310.194	0.12
310.406	0.06
310.617	0.14
310.829	0.07
311.041	0.1
311.253	-0
311.465	0.04
311.677	0.07
311.889	0.08
312.101	0.06
312.313	0.09
312.524	0.12
312.736	0.04
312.948	0.07
313.16	0.14
313.372	0.09
313.583	0.11
313.795	0.07
314.007	0.06
314.218	0.07
314.43	0.04
314.642	0.04
314.853	-0.01
315.065	0.12
315.277	0.07
315.488	0.11
315.7	0.09
315.912	0.07
316.123	0.09
316.335	0.1
316.546	0.19
316.758	0.02
316.969	0.07
317.181	0.1
317.392	0.03
317.604	0.11
317.815	0.03
318.026	0.07
318.238	0.07
318.449	0.07
318.661	0.02
318.872	0.03
319.083	0.01
319.295	0.12
319.506	0.06
319.717	0.09
319.929	0.12
320.14	0.08
320.351	0.14
320.562	0.02
320.774	0.08
320.985	0.1
321.196	0.02
321.407	-0.01
321.618	0.1
321.829	0.13
322.041	0.08
322.252	0.1
322.463	0.06
322.674	0.08
322.885	-0.01
323.096	0.02
323.307	0.05
323.518	0.08
323.729	0.04
323.94	0.06
324.151	0.04
324.362	0.1
324.573	0.09
324.784	0.03
324.995	0.11
325.206	0.09
325.417	0.05
325.628	0.04
325.838	0.07
326.049	0.08
326.26	0.1
326.471	0.07
326.682	0.09
326.892	0.06
327.103	0.01
327.314	-0.01
327.525	0.14
327.735	0.11
327.946	0.05
328.157	0.05
328.368	0.08
328.578	0.05
328.789	0.11
328.999	0.08
329.21	0.06
329.421	0.13
329.631	0.03
329.842	0.05
330.052	0.09
330.263	0.11
330.473	0.1
330.684	0.04
330.894	0.13
331.105	0.09
331.315	0.08
331.526	0.01
331.736	0.14
331.947	0.12
332.157	0.1
332.367	0.03
332.578	0.1
332.788	0.13
332.999	0.11
333.209	0.07
333.419	0.01
333.629	0.11
333.84	0.07
334.05	0.03
334.26	0.12
334.47	0.09
334.681	0.12
334.891	0.02
335.101	0.13
335.311	0.15
335.521	0.07
335.732	0.02
335.942	0.13
336.152	0.11
336.362	0.04
336.572	0.12
336.782	0.12
336.992	0
337.202	0.04
337.412	0.05
337.622	0.08
337.832	0.07
338.042	0.07
338.252	0.04
338.462	0.06
338.672	0.1
338.882	0
339.092	0.09
339.302	0.16
339.511	0.13
339.721	0.04
339.931	0.05
340.141	0.1
340.351	0.12
340.561	0.08
340.77	0.08
340.98	0.11
341.19	0.08
341.4	0.03
341.609	0.01
341.819	0.09
342.029	0.02
342.238	0.1
342.448	0.03
342.658	0.12
342.867	0.12
343.077	0.07
343.286	0.08
343.496	0.07
343.706	0.14
343.915	0.03
344.125	0.08
344.334	0.07
344.544	0.01
344.753	0.03
344.963	0.05
345.172	0.05
345.381	0.05
345.591	0.07
345.8	0.1
346.01	0.14
346.219	0.11
346.428	-0.06
346.638	0.04
346.847	0.08
347.056	0.11
347.266	0.03
347.475	0.08
347.684	0.15
347.893	0.11
348.103	0.13
348.312	0.06
348.521	0.08
348.73	0.1
348.94	0.1
349.149	0.03
349.358	0.02
349.567	0.03
349.776	-0
349.985	0.07
350.194	0.12
350.403	0.12
350.612	0.01
350.821	0.06
351.03	0.08
351.239	0.02
351.448	0.05
351.657	-0.02
351.866	0.14
352.075	0.05
352.284	0.09
352.493	0.04
352.702	0.12
352.911	0.08
353.12	0.1
353.329	0.04
353.538	0.09
353.746	0.04
353.955	0.03
354.164	0.08
354.373	0.07
354.582	0.13
354.79	0.05
354.999	0.11
355.208	0.07
355.416	0.13
355.625	0.03
355.834	0.02
356.042	0.08
356.251	0.06
356.46	0.04
356.668	0.1
356.877	0.17
357.085	0.17
357.294	-0.02
357.503	0.1
357.711	0.04
357.92	0.19
358.128	0.07
358.337	0.04
358.545	0.1
358.754	0.06
358.962	0.08
359.17	0.09
359.379	0.11
359.587	0.06
359.796	0.1
360.004	0.13
360.212	0.09
360.421	0.12
360.629	0.03
360.837	0.07
361.046	0.09
361.254	0.14
361.462	0.05
361.67	0.09
361.879	0.09
362.087	0.1
362.295	0.04
362.503	0.07
362.711	0.01
362.92	0.09
363.128	0.03
363.336	0.01
363.544	-0
363.752	0.08
363.96	0.03
364.168	0.06
364.376	0.06
364.584	0.11
364.792	0.11
365	0.09
365.208	0.06
365.416	0.11
365.624	0.11
365.832	0.05
366.04	0.12
366.248	0.09
366.456	0.09
366.664	0.09
366.872	0.07
367.079	0.07
367.287	0.06
367.495	0.08
367.703	0.09
367.911	0.08
368.118	0.06
368.326	0.04
368.534	0.04
368.742	0.14
368.949	0.01
369.157	0.05
369.365	0.12
369.572	0.07
369.78	0.06
369.988	0.08
370.195	0.1
370.403	0.08
370.61	0.02
370.818	0.08
371.026	0.14
371.233	0.04
371.441	0.06
371.648	0.04
371.856	0.06
372.063	0.09
372.271	0.07
372.478	0.04
372.685	0.07
372.893	0.11
373.1	0.07
373.308	0.07
373.515	0.13
373.722	0.11
373.93	0.1
374.137	0.11
374.344	0.12
374.552	0.11
374.759	0.11
374.966	0.05
375.173	0.05
375.381	0.15
375.588	0.02
375.795	0
376.002	0.06
376.209	0.04
376.417	0.09
376.624	0.1
376.831	0.09
377.038	0.06
377.245	-0
377.452	0.05
377.659	0.07
377.866	0.06
378.073	0.03
378.28	0.08
378.487	0.1
378.694	0.09
378.901	0.06
379.108	0.1
379.315	0.12
379.522	0.17
379.729	0.05
379.936	0.06
380.143	0.06
380.35	0.08
380.557	0.05
380.763	0.06
380.97	0.11
381.177	0.08
381.384	0.1
381.591	0.07
381.797	0.11
382.004	0.09
382.211	0.1
382.418	0.1
382.624	0.11
382.831	0.08
383.038	0.04
383.244	0.09
383.451	0.1
383.658	0.1
383.864	0.05
384.071	0.05
384.277	0.17
384.484	0.02
384.69	0.12
384.897	0.07
385.103	0.09
385.31	0.03
385.516	0.05
385.723	0.04
385.929	0.06
386.136	0.04
386.342	0.13
386.549	0.06
386.755	0.15
386.961	0.09
387.168	0.04
387.374	0.06
387.58	0.08
387.787	0.1
387.993	0.09
388.199	0.08
388.406	0.05
388.612	0.07
388.818	0.05
389.024	0.07
389.231	0.09
389.437	0.18
389.643	0.12
389.849	0.11
390.055	0.11
390.261	0.08
390.467	0.07
390.674	0.05
390.88	0.08
391.086	0.09
391.292	0.03
391.498	0.1
391.704	0.09
391.91	0.1
392.116	0.02
392.322	0
392.528	0.1
392.734	0.07
392.94	0.05
393.146	0.07
393.352	0.09
393.557	0.1
393.763	0.09
393.969	0.13
394.175	0.08
394.381	0.07
394.587	0.05
394.792	0.08
394.998	0.09
395.204	0.14
395.41	0.1
395.615	0.15
395.821	0.12
396.027	0.12
396.233	0.07
396.438	0.14
396.644	0.17
396.85	0.14
397.055	0.05
397.261	0.09
397.466	0.05
397.672	0.12
397.878	0.14
398.083	0.12
398.289	0.08
398.494	0.12
398.7	0.1
398.905	0.03
399.111	0.15
399.316	0.04
399.522	0.09
399.727	0.09
399.932	0.11
400.138	0.12
400.343	0.17
400.549	0.12
400.754	0.13
400.959	0.15
401.165	0.1
401.37	0.16
401.575	0.2
401.78	0.14
401.986	0.09
402.191	0.07
402.396	0.14
402.601	0.11
402.807	0.11
403.012	0.12
403.217	0.15
403.422	0.16
403.627	0.1
403.832	0.12
404.037	0.21
404.243	0.18
404.448	0.11
404.653	0.12
404.858	0.16
405.063	0.17
405.268	0.11
405.473	0.1
405.678	0.11
405.883	0.28
406.088	0.11
406.293	0.1
406.498	0.13
406.703	0.17
406.907	0.16
407.112	0.11
407.317	0.17
407.522	0.16
407.727	0.07
407.932	0.12
408.136	0.25
408.341	0.16
408.546	0.15
408.751	0.19
408.956	0.14
409.16	0.25
409.365	0.16
409.57	0.18
409.774	0.16
409.979	0.22
410.184	0.2
410.388	0.11
410.593	0.26
410.798	0.2
411.002	0.22
411.207	0.23
411.411	0.23
411.616	0.18
411.82	0.2
412.025	0.24
412.229	0.23
412.434	0.33
412.638	0.31
412.843	0.24
413.047	0.33
413.252	0.28
413.456	0.25
413.66	0.31
413.865	0.24
414.069	0.39
414.273	0.24
414.478	0.31
414.682	0.35
414.886	0.35
415.091	0.33
415.295	0.31
415.499	0.42
415.703	0.41
415.908	0.46
416.112	0.36
416.316	0.5
416.52	0.43
416.724	0.38
416.929	0.44
417.133	0.61
417.337	0.49
417.541	0.52
417.745	0.64
417.949	0.62
418.153	0.67
418.357	0.62
418.561	0.8
418.765	0.72
418.969	0.83
419.173	0.78
419.377	0.72
419.581	0.96
419.785	0.89
419.989	0.82
420.193	0.89
420.397	0.99
420.601	1.06
420.804	1.13
421.008	1.09
421.212	1.16
421.416	1.15
421.62	1.15
421.823	1.23
422.027	1.34
422.231	1.27
422.435	1.32
422.638	1.38
422.842	1.42
423.046	1.39
423.249	1.57
423.453	1.53
423.657	1.71
423.86	1.68
424.064	1.74
424.268	1.87
424.471	1.84
424.675	2.02
424.878	2.06
425.082	2.1
425.285	2.28
425.489	2.12
425.692	2.31
425.896	2.32
426.099	2.41
426.303	2.5
426.506	2.51
426.71	2.78
426.913	2.85
427.116	2.97
427.32	2.94
427.523	2.99
427.726	3.23
427.93	3.22
428.133	3.47
428.336	3.51
428.54	3.54
428.743	3.85
428.946	4.03
429.149	3.86
429.353	4.01
429.556	4.1
429.759	4.13
429.962	4.12
430.165	4.24
430.368	4.19
430.571	4.18
430.775	4.25
430.978	4.29
431.181	4.31
431.384	4.4
431.587	4.41
431.79	4.65
431.993	4.61
432.196	4.88
432.399	5.06
432.602	5.18
432.805	5.15
433.008	5.57
433.211	5.46
433.414	5.67
433.616	5.8
433.819	5.74
434.022	5.87
434.225	6.05
434.428	6.12
434.631	6.39
434.833	6.23
435.036	6.39
435.239	6.61
435.442	6.65
435.645	6.83
435.847	6.84
436.05	7.08
436.253	7.21
436.455	7.33
436.658	7.35
436.861	7.57
437.063	7.79
437.266	7.72
437.468	8.07
437.671	8.2
437.874	8.5
438.076	8.29
438.279	8.67
438.481	8.87
438.684	9.28
438.886	9.23
439.089	9.54
439.291	9.62
439.494	9.97
439.696	10.16
439.899	10.6
440.101	11.06
440.303	11.33
440.506	12.15
440.708	11.98
440.91	12.28
441.113	12.59
441.315	12.94
441.517	12.87
441.72	13.34
441.922	13.24
442.124	13.42
442.326	13.85
442.529	14.18
442.731	14.23
442.933	14.75
443.135	14.59
443.337	14.77
443.539	15.5
443.742	15.51
443.944	16.16
444.146	15.94
444.348	16.27
444.55	16.24
444.752	16.59
444.954	16.66
445.156	16.86
445.358	17.34
445.56	17.73
445.762	17.66
445.964	18.31
446.166	18.26
446.368	18.25
446.57	18.51
446.772	18.16
446.974	18.05
447.175	18.51
447.377	18.36
447.579	18.76
447.781	18.73
447.983	18.49
448.184	18.29
448.386	18.5
448.588	18.07
448.79	18.37
448.991	18.69
449.193	18.71
449.395	17.94
449.597	17.59
449.798	17.49
450	17.1
450.202	17.15
450.403	17.2
450.605	17.09
450.806	16.5
451.008	16.5
451.21	16.27
451.411	15.68
451.613	14.99
451.814	15.11
452.016	15.12
452.217	14.34
452.419	14.32
452.62	13.98
452.821	13.61
453.023	13.46
453.224	13.02
453.426	12.57
453.627	11.83
453.828	11.83
454.03	11.89
454.231	11.71
454.432	11.61
454.634	11.22
454.835	10.87
455.036	10.79
455.238	10.31
455.439	9.97
455.64	9.67
455.841	9.5
456.042	9.57
456.244	9.13
456.445	8.85
456.646	8.69
456.847	8.56
457.048	8.44
457.249	8.47
457.45	8.08
457.651	7.64
457.852	7.42
458.054	7.07
458.255	7
458.456	7.19
458.657	6.93
458.858	6.56
459.058	6.51
459.259	6.56
459.46	6.22
459.661	6.2
459.862	6.21
460.063	6.09
460.264	5.93
460.465	5.72
460.666	5.75
460.866	5.47
461.067	5.19
461.268	5.22
461.469	5.15
461.67	5.06
461.87	4.87
462.071	4.83
462.272	4.7
462.473	4.69
462.673	4.89
462.874	4.72
463.075	4.75
463.275	4.61
463.476	4.62
463.676	4.58
463.877	4.41
464.078	4.36
464.278	4.35
464.479	4.25
464.679	4.15
464.88	4.12
465.08	4.03
465.281	3.87
465.481	3.62
465.682	3.44
465.882	3.47
466.083	3.39
466.283	3.26
466.483	3.14
466.684	2.92
466.884	2.82
467.085	2.89
467.285	2.92
467.485	2.75
467.686	2.69
467.886	2.57
468.086	2.58
468.286	2.43
468.487	2.54
468.687	2.38
468.887	2.25
469.087	2.39
469.287	2.29
469.488	2.03
469.688	2.13
469.888	2.2
470.088	2.08
470.288	2.04
470.488	1.96
470.688	1.8
470.888	1.78
471.088	1.68
471.288	1.73
471.488	1.66
471.688	1.66
471.888	1.55
472.088	1.67
472.288	1.6
472.488	1.47
472.688	1.43
472.888	1.45
473.088	1.4
473.288	1.39
473.488	1.34
473.688	1.35
473.887	1.27
474.087	1.23
474.287	1.24
474.487	1.18
474.687	1.2
474.886	1.15
475.086	1.14
475.286	1.09
475.486	1.03
475.685	1.01
475.885	0.99
476.085	1.04
476.284	1.02
476.484	0.93
476.684	0.97
476.883	1.01
477.083	0.9
477.282	0.9
477.482	0.93
477.681	0.87
477.881	0.82
478.08	0.78
478.28	0.77
478.479	0.81
478.679	0.85
478.878	0.73
479.078	0.69
479.277	0.77
479.477	0.71
479.676	0.7
479.875	0.66
480.075	0.61
480.274	0.66
480.473	0.65
480.673	0.58
480.872	0.65
481.071	0.65
481.271	0.63
481.47	0.57
481.669	0.54
481.868	0.51
482.067	0.53
482.267	0.47
482.466	0.49
482.665	0.47
482.864	0.46
483.063	0.45
483.262	0.48
483.461	0.51
483.661	0.5
483.86	0.44
484.059	0.47
484.258	0.43
484.457	0.41
484.656	0.44
484.855	0.46
485.054	0.33
485.253	0.35
485.452	0.31
485.651	0.37
485.849	0.36
486.048	0.33
486.247	0.31
486.446	0.33
486.645	0.27
486.844	0.27
487.043	0.3
487.241	0.31
487.44	0.26
487.639	0.28
487.838	0.3
488.037	0.26
488.235	0.35
488.434	0.3
488.633	0.21
488.831	0.27
489.03	0.3
489.229	0.26
489.427	0.22
489.626	0.27
489.825	0.27
490.023	0.21
490.222	0.18
490.42	0.25
490.619	0.24
490.817	0.21
491.016	0.16
491.214	0.24
491.413	0.18
491.611	0.18
491.81	0.17
492.008	0.24
492.207	0.2
492.405	0.18
492.604	0.12
492.802	0.19
493	0.18
493.199	0.15
493.397	0.16
493.595	0.14
493.794	0.13
493.992	0.2
494.19	0.14
494.388	0.16
494.587	0.12
494.785	0.15
494.983	0.1
495.181	0.14
495.379	0.14
495.578	0.15
495.776	0.16
495.974	0.14
496.172	0.15
496.37	0.13
496.568	0.1
496.766	0.1
496.964	0.16
497.162	0.12
497.36	0.11
497.558	0.14
497.756	0.14
497.954	0.1
498.152	0.1
498.35	0.1
498.548	0.1
498.746	0.1
498.944	0.05
499.142	0.11
499.34	0.08
499.538	0.08
499.736	0.08
499.933	0.11
500.131	0.11
500.329	0.1
500.527	0.12
500.725	0.12
500.922	0.11
501.12	0.1
501.318	0.09
501.516	0.07
501.713	0.11
501.911	0.06
502.109	0.06
502.306	0.08
502.504	0.06
502.701	0.06
502.899	0.09
503.097	0.12
503.294	0.08
503.492	0.06
503.689	0.09
503.887	0.09
504.084	0.12
504.282	0.09
504.479	0.04
504.677	0.07
504.874	0.05
505.072	0.05
505.269	0.08
505.466	0.09
505.664	0.07
505.861	0.04
506.059	0.07
506.256	0.09
506.453	0.06
506.651	0.13
506.848	0.08
507.045	0.08
507.242	0.07
507.44	0.05
507.637	0.07
507.834	0.05
508.031	0.08
508.229	0.03
508.426	0.06
508.623	0.08
508.82	0.04
509.017	0.03
509.214	0.08
509.411	0.06
509.608	0.03
509.805	0.05
510.003	0.05
510.2	0.04
510.397	0.07
510.594	0.02
510.791	0.03
510.988	0.06
511.184	0.07
511.381	0.08
511.578	0.03
511.775	0.09
511.972	0.04
512.169	0.01
512.366	0.06
512.563	0.05
512.76	0.04
512.956	0.04
513.153	0.04
513.35	0.07
513.547	0.03
513.744	0.04
513.94	0.02
514.137	0.03
514.334	0.05
514.53	0.06
514.727	0.07
514.924	0.12
515.12	0.04
515.317	-0.01
515.514	0
515.71	0.02
515.907	0.06
516.103	0.05
516.3	0.05
516.497	0.07
516.693	0.08
516.89	0.05
517.086	0.02
517.283	0.07
517.479	0.06
517.676	0.04
517.872	0.04
518.068	0.04
518.265	0.03
518.461	0.03
518.658	0.02
518.854	0.05
519.05	0.04
519.247	0.02
519.443	0.07
519.639	0.05
519.836	0.04
520.032	0.04
520.228	0.06
520.424	0.11
520.621	0.06
520.817	0.04
521.013	0.05
521.209	0.05
521.405	0.07
521.601	0.04
521.798	0.05
521.994	0.08
522.19	-0
522.386	0
522.582	0.04
522.778	0.05
522.974	0.02
523.17	0.04
523.366	0.04
523.562	0.07
523.758	0.02
523.954	0.02
524.15	0.02
524.346	0.06
524.542	0.03
524.738	0.03
524.934	0.04
525.129	0.04
525.325	0.02
525.521	0.05
525.717	0.06
525.913	0.03
526.109	0.03
526.304	0.02
526.5	0.06
526.696	0.08
526.892	0.02
527.087	0.05
527.283	0.01
527.479	0.04
527.674	0.03
527.87	0.02
528.066	0.04
528.261	0.05
528.457	0.06
528.653	0.02
528.848	0.01
529.044	0.04
529.239	0.03
529.435	0.06
529.63	0.02
529.826	0.09
530.021	0.06
530.217	0.05
530.412	0.03
530.608	0.01
530.803	0.06
530.999	0.04
531.194	0
531.389	0.06
531.585	-0.01
531.78	0.02
531.975	0.03
532.171	0.06
532.366	0.05
532.561	0.03
532.757	0.02
532.952	0.04
533.147	0.05
533.342	0.04
533.538	0.01
533.733	0.04
533.928	0.05
534.123	0.02
534.318	0
534.513	0.02
534.709	0.04
534.904	0.01
535.099	0.04
535.294	0.03
535.489	0.04
535.684	0.03
535.879	0.02
536.074	0.03
536.269	0
536.464	0.05
536.659	0.02
536.854	0.02
537.049	0.05
537.244	0.05
537.439	0.03
537.634	0.04
537.828	0.05
538.023	0.02
538.218	-0.02
538.413	0.02
538.608	-0.03
538.803	0.03
538.997	-0
539.192	0.04
539.387	0.03
539.582	0.03
539.776	0.04
539.971	0.02
540.166	0.01
540.36	0.01
540.555	0.05
540.75	0.03
540.944	0.05
541.139	-0.01
541.334	0.02
541.528	0.04
541.723	0.05
541.917	0.01
542.112	-0.01
542.306	0.04
542.501	0.03
542.695	0.01
542.89	0.02
543.084	0.03
543.279	0.02
543.473	0.02
543.668	0.02
543.862	0.03
544.056	0.03
544.251	0.04
544.445	0.04
544.64	0.01
544.834	0.03
545.028	0.03
545.222	0.04
545.417	0.05
545.611	0.04
545.805	0.02
546	0.03
546.194	0.03
546.388	0
546.582	0.04
546.776	0.02
546.97	0.01
547.165	0.04
547.359	0.04
547.553	0.01
547.747	0.04
547.941	0.04
548.135	0.02
548.329	0.07
548.523	0.04
548.717	0.01
548.911	0.02
549.105	0.03
549.299	0.04
549.493	0.04
549.687	0.04
549.881	0.05
550.075	0.03
550.269	0.01
550.463	0.06
550.657	0.03
550.85	0.04
551.044	-0
551.238	0.06
551.432	0.02
551.626	-0
551.82	0.03
552.013	0.01
552.207	0.02
552.401	0.06
552.594	0.03
552.788	0.01
552.982	0.03
553.176	0.01
553.369	0.03
553.563	0.03
553.756	-0
553.95	-0.02
554.144	0.03
554.337	0.06
554.531	0.04
554.724	0.04
554.918	0.03
555.111	0.03
555.305	0.03
555.498	0.06
555.692	0.06
555.885	0.02
556.079	0.02
556.272	0
556.466	0.06
556.659	0.03
556.852	0.04
557.046	0
557.239	0.05
557.432	-0
557.626	0
557.819	0.03
558.012	0.02
558.206	0.04
558.399	0.02
558.592	0.01
558.785	0.02
558.979	0.03
559.172	0.03
559.365	0.06
559.558	0.03
559.751	0.05
559.944	0.03
560.138	-0.01
560.331	0.02
560.524	0.01
560.717	0.02
560.91	0
561.103	0.03
561.296	0.03
561.489	0.04
561.682	0.03
561.875	0.06
562.068	0.03
562.261	0.03
562.454	0.04
562.647	0.03
562.84	0.03
563.032	0.02
563.225	0.06
563.418	0.02
563.611	0.03
563.804	0.04
563.997	-0.01
564.19	-0
564.382	0.04
564.575	0.03
564.768	0.01
564.961	0.04
565.153	0
565.346	0.04
565.539	0.05
565.731	0.04
565.924	0.06
566.117	0.03
566.309	0.04
566.502	-0
566.695	0.02
566.887	0.02
567.08	0
567.272	-0
567.465	0.02
567.657	0.02
567.85	0.04
568.042	0.04
568.235	0.05
568.427	-0
568.62	0.03
568.812	0.03
569.005	0.02
569.197	-0.03
569.389	0.02
569.582	0.03
569.774	0.04
569.966	-0.01
570.159	0
570.351	0.06
570.543	0.01
570.736	0.02
570.928	-0.01
571.12	0.03
571.312	0.03
571.505	-0.01
571.697	0.07
571.889	-0.01
572.081	0.01
572.273	0.01
572.465	0.06
572.658	0.02
572.85	0.04
573.042	0
573.234	0.05
573.426	0.02
573.618	-0.04
573.81	0.03
574.002	0.06
574.194	0.06
574.386	-0.02
574.578	-0.03
574.77	0.02
574.962	0.01
575.154	-0.01
575.346	0.01
575.538	0.03
575.729	0.01
575.921	0.03
576.113	0.01
576.305	0.04
576.497	-0.01
576.689	-0.01
576.88	-0
577.072	0.03
577.264	0.03
577.456	0.03
577.647	-0.05
577.839	0.02
578.031	0.08
578.223	-0.03
578.414	-0
578.606	0.04
578.798	0.03
578.989	-0.02
579.181	0.02
579.372	0.02
579.564	0
579.755	0.02
579.947	0.03
580.139	0.05
580.33	-0.02
580.522	-0.02
580.713	-0.05
580.905	0.02
581.096	0.03
581.287	0.01
581.479	0.01
581.67	0.07
581.862	0.01
582.053	-0.01
582.244	-0.02
582.436	-0
582.627	-0
582.818	0.01
583.01	-0.01
583.201	0.04
583.392	0.06
583.583	0.02
583.775	-0
583.966	-0.02
584.157	0.02
584.348	0.01
584.54	-0.02
584.731	0.02
584.922	-0
585.113	0
585.304	0.03
585.495	0.05
585.686	0.01
585.877	0.04
586.068	0.01
586.259	0.02
586.45	0.04
586.641	-0
586.832	-0.02
587.023	0.03
587.214	0.01
587.405	0.02
587.596	0
587.787	0.04
587.978	0.03
588.169	0
588.36	0
588.551	0.03
588.742	0.01
588.932	0.03
589.123	0.03
589.314	0.06
589.505	0.02
589.696	0.01
589.886	-0
590.077	-0.02
590.268	0
590.458	-0
590.649	-0.05
590.84	0.06
591.03	0
591.221	-0.01
591.412	-0.02
591.602	0.02
591.793	0.04
591.984	-0.02
592.174	0.02
592.365	0.07
592.555	-0.01
592.746	0.01
592.936	0.02
593.127	0.03
593.317	0.05
593.508	0.01
593.698	0.01
593.889	0.02
594.079	0.01
594.269	-0.03
594.46	0
594.65	0.02
594.84	0
595.031	-0
595.221	0.01
595.411	-0.01
595.602	0.05
595.792	0
595.982	-0.01
596.172	0.07
596.363	0.01
596.553	0
596.743	0.01
596.933	0.02
597.123	0.08
597.314	0.02
597.504	-0.01
597.694	0.06
597.884	0.02
598.074	-0
598.264	-0
598.454	0.03
598.644	0.02
598.834	-0
599.024	-0.06
599.214	-0.01
599.404	0.05
599.594	-0.01
599.784	0
599.974	0.08
600.164	0.03
600.354	-0.03
600.544	-0.02
600.734	0.03
600.924	0.05
601.114	-0.01
601.303	0.03
601.493	0.03
601.683	0.05
601.873	0.03
602.063	-0.03
602.252	0.03
602.442	-0.03
602.632	0
602.821	-0.03
603.011	0.05
603.201	0
603.39	-0.02
603.58	-0.02
603.77	0.04
603.959	0.07
604.149	0.01
604.339	0
604.528	0.03
604.718	0.02
604.907	0
605.097	0.01
605.286	-0.01
605.476	0.01
605.665	0.05
605.855	0.01
606.044	0.06
606.234	0.01
606.423	0
606.612	-0.01
606.802	0.01
606.991	0.02
607.181	0.02
607.37	-0.02
607.559	0
607.749	-0.02
607.938	0.02
608.127	0.02
608.316	0.01
608.506	0.05
608.695	-0
608.884	-0.01
609.073	0.03
609.263	0.03
609.452	0
609.641	0.02
609.83	-0
610.019	-0
610.208	0.01
610.397	0.03
610.586	0.07
610.775	-0
610.965	0
611.154	-0.01
611.343	0.04
611.532	0.03
611.721	-0
611.91	0.01
612.099	0.03
612.287	0.01
612.476	-0.01
612.665	0.01
612.854	-0
613.043	0.05
613.232	-0.01
613.421	-0.03
613.61	0.03
613.798	-0.02
613.987	0.04
614.176	0.03
614.365	0.05
614.554	0.03
614.742	0.04
614.931	0
615.12	0.05
615.309	0.01
615.497	0.02
615.686	-0.02
615.875	-0.02
616.063	0.01
616.252	-0.01
616.44	-0
616.629	0.02
616.818	0.05
617.006	0.03
617.195	0.01
617.383	0.03
617.572	0.02
617.76	-0.02
617.949	0
618.137	0.04
618.326	0.05
618.514	-0
618.703	-0.01
618.891	0.06
619.079	-0.03
619.268	0.04
619.456	-0.01
619.644	0.07
619.833	0.03
620.021	-0
620.209	-0.03
620.398	0.02
620.586	0.02
620.774	0.04
620.962	0.02
621.151	0.09
621.339	0.02
621.527	-0.05
621.715	-0.03
621.903	-0.03
622.092	-0.04
622.28	0.02
622.468	0.02
622.656	0.01
622.844	0.05
623.032	-0.03
623.22	-0.06
623.408	0.02
623.596	0.04
623.784	0.03
623.972	0
624.16	0.02
624.348	0.07
624.536	-0.01
624.724	0
624.912	0.03
625.1	0.04
625.288	-0.04
625.476	-0
625.664	0.06
625.851	0
626.039	0.02
626.227	0.05
626.415	0.02
626.603	-0.05
626.79	0.01
626.978	0.02
627.166	-0.01
627.354	0.03
627.541	-0
627.729	-0.04
627.917	0
628.104	0.08
628.292	0.03
628.48	0.01
628.667	0.03
628.855	0.04
629.042	0.02
629.23	-0
629.418	0
629.605	0.01
629.793	-0.01
629.98	0.01
630.168	-0
630.355	-0
630.543	0.03
630.73	0.01
630.917	0.02
631.105	0.07
631.292	-0.02
631.48	-0
631.667	0.08
631.854	0.02
632.042	0.01
632.229	-0.04
632.416	0.01
632.604	0.02
632.791	-0.02
632.978	0.03
633.165	0.02
633.353	0.08
633.54	0.05
633.727	-0.05
633.914	0.02
634.101	-0.04
634.289	0.03
634.476	-0.01
634.663	-0.04
634.85	0.03
635.037	-0.04
635.224	-0.01
635.411	0.03
635.598	0.1
635.785	-0.01
635.972	-0.02
636.159	0.07
636.346	-0.04
636.533	0.01
636.72	0.02
636.907	-0.01
637.094	0.03
637.281	0.01
637.468	0.03
637.655	0
637.842	0.03
638.029	-0.02
638.215	0.03
638.402	0.04
638.589	-0.01
638.776	-0
638.963	-0.02
639.149	0.04
639.336	0.09
639.523	0.01
639.709	0.02
639.896	-0
640.083	0.09
640.27	0.02
640.456	-0.02
640.643	0.03
640.829	-0.08
641.016	0.03
641.203	-0.04
641.389	0.03
641.576	0.01
641.762	0.02
641.949	-0.01
642.135	0.05
642.322	0.03
642.508	-0.04
642.695	0.03
642.881	0.04
643.068	-0
643.254	0.01
643.441	0.04
643.627	-0
643.813	-0
644	0.05
644.186	-0
644.372	0.07
644.559	0.1
644.745	0.01
644.931	-0
645.118	-0
645.304	0
645.49	-0.05
645.676	-0.01
645.862	0.02
646.049	0.04
646.235	0.02
646.421	0.08
646.607	0.07
646.793	-0.01
646.979	-0.02
647.165	0.03
647.352	-0
647.538	0.05
647.724	0.01
647.91	0.02
648.096	0.07
648.282	0.07
648.468	0.02
648.654	0.01
648.84	0.02
649.026	0.01
649.212	0.02
649.397	-0.01
649.583	-0
649.769	0.04
649.955	0.02
650.141	0
650.327	0.05
650.513	-0.03
650.698	0.02
650.884	-0.04
651.07	0.02
651.256	0.03
651.442	0
651.627	0.01
651.813	0.03
651.999	0
652.184	0.01
652.37	0.02
652.556	0.01
652.741	0.07
652.927	-0.06
653.113	0.03
653.298	-0.01
653.484	0.01
653.669	-0.04
653.855	0.01
654.04	0.03
654.226	0
654.412	0.01
654.597	-0.04
654.782	0.02
654.968	0.07
655.153	0.01
655.339	-0.01
655.524	-0.02
655.71	0.06
655.895	0.01
656.08	-0.01
656.266	0.05
656.451	0
656.636	-0.02
656.822	0.02
657.007	-0.02
657.192	-0
657.378	-0.05
657.563	-0.01
657.748	0.03
657.933	0.01
658.118	-0
658.304	0
658.489	0.01
658.674	0.01
658.859	-0.03
659.044	0.01
659.229	0.03
659.414	-0.03
659.599	0.02
659.785	-0.04
659.97	0.03
660.155	0.04
660.34	0.02
660.525	0.02
660.71	-0.01
660.895	0.05
661.08	-0.02
661.264	-0.03
661.449	0.03
661.634	0.06
661.819	0.01
662.004	0.05
662.189	-0.05
662.374	-0.02
662.559	-0.08
662.743	-0.08
662.928	-0.01
663.113	-0.01
663.298	-0.07
663.483	0.02
663.667	0.03
663.852	-0.04
664.037	0.05
664.221	-0.04
664.406	0.03
664.591	0.04
664.775	0
664.96	-0.04
665.145	0.03
665.329	0.02
665.514	0.02
665.698	0
665.883	-0.04
666.068	0.09
666.252	0.01
666.437	-0.03
666.621	0.02
666.806	0.04
666.99	-0
667.174	-0.04
667.359	0.02
667.543	0.01
667.728	0.01
667.912	-0.06
668.096	0
668.281	0.02
668.465	0
668.649	-0.01
668.834	0.01
669.018	0.02
669.202	0
669.387	-0.01
669.571	0.04
669.755	-0.02
669.939	0.03
670.124	0.02
670.308	0.05
670.492	0.07
670.676	0
670.86	0
671.044	-0.03
671.228	0.07
671.413	-0.02
671.597	-0.03
671.781	-0.04
671.965	0.02
672.149	0.01
672.333	-0
672.517	-0.01
672.701	0.02
672.885	0.01
673.069	-0.03
673.253	0.08
673.437	0.01
673.621	-0.02
673.804	-0.01
673.988	0.05
674.172	-0.01
674.356	-0.05
674.54	0.04
674.724	0.12
674.908	0.02
675.091	0.04
675.275	0.02
675.459	0.05
675.643	0.07
675.826	0.01
676.01	0.06
676.194	-0.04
676.377	0.03
676.561	0.02
676.745	0.04
676.928	0.03
677.112	0.06
677.296	-0.01
677.479	-0.02
677.663	-0.03
677.846	-0.01
678.03	0.02
678.213	-0.01
678.397	0.04
678.58	-0.03
678.764	0.01
678.947	-0.04
679.131	0.02
679.314	0.07
679.498	-0.02
679.681	0.04
679.865	0.06
680.048	0.05
680.231	0.02
680.415	0.01
680.598	0.03
680.781	0.01
680.965	-0.03
681.148	-0.01
681.331	-0.03
681.514	0.05
681.698	-0
681.881	0.04
682.064	0.04
682.247	-0.02
682.43	-0.07
682.614	0.02
682.797	0.05
682.98	0.07
683.163	-0.04
683.346	0.04
683.529	0
683.712	-0.02
683.895	0.05
684.078	-0.04
684.261	-0.05
684.444	0.02
684.627	0.06
684.81	-0.01
684.993	-0.03
685.176	0.08
685.359	-0
685.542	-0.02
685.725	0.07
685.908	0.05
686.091	0.01
686.274	0.03
686.457	0.03
686.639	0.04
686.822	0.02
687.005	-0
687.188	0.03
687.371	0.14
687.553	0.01
687.736	0.04
687.919	0.08
688.102	0.09
688.284	0.02
688.467	0.01
688.65	0.04
688.832	-0.03
689.015	0.01
689.197	-0.07
689.38	0.12
689.563	0.13
689.745	0.01
689.928	-0.06
690.11	0.01
690.293	0.07
690.475	-0.02
690.658	0.02
690.84	0.03
691.023	0.04
691.205	0.06
691.388	0.04
691.57	0.05
691.752	0.1
691.935	-0.04
692.117	-0.01
692.3	0.02
692.482	0.03
692.664	-0.02
692.847	0.03
693.029	0.08
693.211	0.08
693.393	0.05
693.576	-0.03
693.758	-0.02
693.94	-0.01
694.122	-0.05
694.304	-0
694.487	-0.05
694.669	0.11
694.851	-0.05
695.033	0.01
695.215	-0.01
695.397	-0.03
695.579	0.03
695.761	-0.03
695.943	-0.08
696.125	0.06
696.308	0.04
696.49	-0.04
696.671	0.1
696.853	-0
697.035	0.11
697.217	0.05
697.399	0.09
697.581	-0.04
697.763	-0.05
697.945	-0.08
698.127	0
698.309	0.07
698.491	0.08
698.672	0.01
698.854	0.09
699.036	0.1
699.218	0.01
699.399	0.04
699.581	0.03
699.763	0.03
699.945	-0.05
700.126	-0.01
700.308	0.01
700.49	-0
700.671	-0.06
700.853	-0.05
701.035	-0.02
701.216	0.07
701.398	-0.05
701.579	-0
701.761	0.06
701.943	-0.02
702.124	-0.03
702.306	0.01
702.487	0.11
702.669	-0.02
702.85	-0.03
703.031	-0.07
703.213	0.17
703.394	0.1
703.576	-0.01
703.757	0.06
703.938	0.09
704.12	0.15
704.301	-0.01
704.483	-0.04
704.664	0.05
704.845	0.15
705.026	0.08
705.208	0.02
705.389	0.04
705.57	0.02
705.751	0.01
705.933	-0.01
706.114	0.12
706.295	0.03
706.476	-0.09
706.657	0.16
706.838	0.05
707.02	0.05
707.201	-0.03
707.382	-0.04
707.563	-0.01
707.744	-0.04
707.925	0.01
708.106	0.01
708.287	0.04
708.468	0.08
708.649	0.05
708.83	0.08
709.011	0.02
709.192	0.02
709.373	0.02
709.554	0.02
709.734	0.07
709.915	0.07
710.096	0.01
710.277	-0.09
710.458	-0.01
710.639	0.05
710.819	-0.04
711	0.05
711.181	0.05
711.362	0.06
711.542	0.02
711.723	0
711.904	0.1
712.085	0.04
712.265	0.03
712.446	-0.03
712.627	0.03
712.807	0.01
712.988	-0
713.168	-0.04
713.349	0.05
713.53	-0.17
713.71	0
713.891	-0.05
714.071	0.05
714.252	-0
714.432	-0.01
714.613	-0.14
714.793	0.08
714.974	0.13
715.154	0.12
715.334	-0.02
715.515	0.1
715.695	-0.06
715.876	-0.04
716.056	-0.08
716.236	-0
716.417	-0.03
716.597	-0.05
716.777	0.16
716.957	0.02
717.138	0.01
717.318	0.02
717.498	-0.06
717.678	0.05
717.859	0
718.039	-0.02
718.219	0
718.399	0.09
718.579	-0.07
718.759	-0.09
718.939	0.03
719.12	0.08
719.3	-0
719.48	-0.11
719.66	-0.13
719.84	0.05
720.02	-0.02
720.2	0.01
720.38	-0.03
720.56	0.14
720.74	0
720.92	0.09
721.1	0.16
721.279	0.11
721.459	0.01
721.639	-0.07
721.819	0.02
721.999	-0.03
722.179	0.05
722.359	-0.04
722.538	0.01
722.718	0.09
722.898	0.06
723.078	-0.02
723.257	0.06
723.437	-0.02
723.617	0.08
723.797	-0.04
723.976	0.05
724.156	0.03
724.336	0.22
724.515	0.18
724.695	-0.09
724.874	0.02
725.054	0.08
725.234	-0.01
725.413	0.08
725.593	0.01
725.772	-0.03
725.952	-0.02
726.131	-0.04
726.311	0.04
726.49	-0.06
726.67	-0.02
726.849	-0.03
727.028	-0
727.208	-0.02
727.387	0.02
727.567	-0.09
727.746	-0.01
727.925	0.04
728.105	-0.12
728.284	-0.03
728.463	0.02
728.643	0.03
728.822	-0.1
729.001	-0.06
729.18	0
729.359	0.13
729.539	-0.01
729.718	0.05
729.897	0.15
730.076	-0.03
730.255	-0.08
730.434	0.04
730.614	0.1
730.793	0.13
730.972	-0.03
731.151	-0.01
731.33	0.17
731.509	0.09
731.688	0.07
731.867	0.02
732.046	-0.05
732.225	0.21
732.404	-0.08
732.583	-0.09
732.762	-0.05
732.941	0.08
733.12	0.05
733.298	0
733.477	0.06
733.656	0.01
733.835	-0.09
734.014	0.14
734.193	0.02
734.371	0.16
734.55	0.03
734.729	-0.07
734.908	0.06
735.086	0.03
735.265	0.09
735.444	-0.18
735.623	-0.12
735.801	-0.11
735.98	-0.06
736.159	-0.02
736.337	0.04
736.516	0.06
736.694	0.11
736.873	0.05
737.052	0.07
737.23	0.18
737.409	-0.05
737.587	0.2
737.766	-0.18
737.944	-0.01
738.123	0.17
738.301	0.09
738.479	0.06
738.658	0.03
738.836	-0.18
739.015	0.11
739.193	0.07
739.371	-0.04
739.55	0.02
739.728	-0.1
739.906	0.15
740.085	0.15
740.263	0.04
740.441	-0.25
740.62	0.23
740.798	0.12
740.976	-0.09
741.154	-0.07
741.332	0.15
741.511	-0.02
741.689	0.11
741.867	0.03
742.045	-0.02
742.223	0.05
742.401	-0.02
742.579	-0.03
742.757	0.11
742.935	-0.15
743.114	-0.08
743.292	-0.01
743.47	0
743.648	-0.03
743.826	0.04
744.004	0.11
744.181	0.09
744.359	0.02
744.537	0.06
744.715	0.05
744.893	-0.02
745.071	-0.03
745.249	-0.06
745.427	0.07
745.605	0.03
745.782	0.06
745.96	0.02
746.138	-0.01
746.316	0.19
746.493	0.08
746.671	-0.02
746.849	-0.03
747.027	0.23
747.204	-0.18
747.382	0.05
747.56	-0.08
747.737	-0.1
747.915	-0.11
748.093	0.04
748.27	0.01
748.448	-0.04
748.625	-0.08
748.803	-0.07
748.98	-0.08
749.158	0.02
749.335	0.15
749.513	0.05
749.69	-0.02
749.868	-0
750.045	0.07
750.223	0.06
750.4	-0.09
750.578	0.18
750.755	0.09
750.932	-0.12
751.11	0.11
751.287	-0.05
751.464	0.1
751.642	0.01
751.819	-0.01
751.996	0.1
752.173	-0.1
752.351	-0.09
752.528	0.02
752.705	0.03
752.882	-0.06
753.06	0.02
753.237	0.15
753.414	0.21
753.591	0.14
753.768	0.17
753.945	0.03
754.122	-0.06
754.299	0.09
754.476	-0.08
754.654	-0.01
754.831	0.12
755.008	0.08
755.185	-0
755.362	-0.13
755.539	-0.02
755.716	-0.01
755.892	0.04
756.069	-0.04
756.246	0.06
756.423	0.06
756.6	0.18
756.777	0.12
756.954	0.22
757.131	0.08
757.307	-0.16
757.484	0.01
757.661	0.23
757.838	0.1
758.015	-0.18
758.191	0.07
758.368	0.01
758.545	0.18
758.721	0.02
758.898	-0.12
759.075	0.06
759.251	0.17
759.428	0.07
759.605	-0.17
759.781	-0.04
759.958	0.1
760.134	0.06
760.311	0.03
760.488	0.19
760.664	0.23
760.841	-0.06
761.017	-0.09
761.194	0.14
761.37	0.08
761.547	0.03
761.723	-0.05
761.899	0.18
762.076	0.01
762.252	-0.11
762.429	-0.03
762.605	0.22
762.781	0.02
762.958	0.19
763.134	-0.02
763.31	-0.02
763.486	0.18
763.663	-0.15
763.839	0.18
764.015	-0.02
764.191	-0.05
764.368	0.05
764.544	-0.05
764.72	0.02
764.896	-0
765.072	0.08
765.248	-0.08
765.425	0.08
765.601	0.04
765.777	0.07
765.953	-0.14
766.129	-0.11
766.305	-0.2
766.481	0.14
766.657	0.06
766.833	0.27
767.009	-0.14
767.185	-0.09
767.361	0.01
767.537	-0.05
767.713	0.15
767.889	-0
768.065	0.1
768.24	-0.17
768.416	0.15
768.592	-0.01
768.768	-0.1
768.944	0.12
769.12	-0.01
769.295	-0.02
769.471	0.06
769.647	-0.04
769.823	0.19
769.998	-0.14
770.174	-0.12
770.35	0.34
770.525	0.21
770.701	0.05
770.877	0.03
771.052	0.09
771.228	0.13
771.403	0.06
771.579	0.02
771.755	0.47
771.93	0.04
772.106	-0.08
772.281	-0.2
772.457	0.11
772.632	-0.05
772.808	-0.16
772.983	-0.04
773.159	-0.12
773.334	0.15
773.509	-0.03
773.685	-0.07
773.86	0.39
774.036	0.13
774.211	0.08
774.386	0.06
774.562	0.02
774.737	0.24
774.912	-0.12
775.087	0.17
775.263	-0.12
775.438	0.07
775.613	-0.04
775.788	0.12
775.964	0.15
776.139	0.53
776.314	-0.21
776.489	0.14
776.664	0.13
776.839	0.08
777.014	0.17
777.19	0.18
777.365	0.22
777.54	0.33
777.715	-0.16
777.89	0
778.065	-0.06
778.24	-0.03
778.415	0.22
778.59	-0.15
778.765	0.01
778.94	0.24
779.115	-0.04
779.289	-0.06
779.464	-0.04
779.639	-0.04
779.814	-0.01
779.989	-0.16
780.164	0.08
780.339	0.15
780.513	0.05
780.688	-0.11
780.863	0.06
781.038	-0.04
781.212	-0.05
781.387	0.13
781.562	0.38
781.737	0
781.911	0.07
782.086	-0.01
782.261	-0.03
782.435	0.35
782.61	-0.05
782.784	-0.04
782.959	0.2
783.134	0.08
783.308	-0.2
783.483	-0.03
783.657	0.39
783.832	0.19
784.006	-0.34
784.181	-0.15
784.355	0.19
784.53	-0.18
784.704	-0.16
784.878	0.31
785.053	0.17
785.227	0.39
785.402	0.43
785.576	-0.29
785.75	-0.08
785.925	0.14
786.099	0.15
786.273	0.25
786.448	0.15
786.622	0.45
786.796	0.02
786.97	-0.13
787.145	0.44
787.319	-0.08
787.493	-0.15
787.667	-0.23
787.841	-0
788.015	0.29
788.19	-0.01
788.364	-0.06
788.538	0.25
788.712	0.22
788.886	0.1
789.06	0.16
789.234	0.24
789.408	-0.18
789.582	0.06
789.756	-0.03
789.93	-0.1
790.104	-0.2
790.278	0.08
790.452	-0.15
790.626	0.4
790.8	-0.18
790.973	0.33
791.147	0.27
791.321	0.25
791.495	0.27
791.669	-0.22
791.843	0.1
792.016	0.05
792.19	0.62
792.364	-0.24
792.538	0.6
792.711	0.31
792.885	-0.12
793.059	-0.15
793.233	-0.12
793.406	0.2
793.58	0.14
793.754	0.19
793.927	0.1
794.101	0.4
794.274	-0.03
794.448	0.2
794.622	-0.31
794.795	0.11
794.969	-0.2
795.142	0.41
795.316	0.11
795.489	-0.15
795.663	0.27
795.836	0.05
796.009	-0.36
796.183	0.27
796.356	0.1
796.53	0.08
796.703	0.08
796.876	0.7
797.05	0.03
797.223	-0.24
797.396	0.15
797.57	0.23
797.743	0.36
797.916	0.1
798.09	-0.18
798.263	0.2
798.436	0.27
798.609	-0.15
798.782	-0.03
798.956	0.07
799.129	0.11
799.302	-0.07
799.475	0.12
799.648	-0.15
799.821	0.04
799.994	0.19
800.167	-0.5
800.34	0.09
800.514	0.14
800.687	-0.31
800.86	0.03
801.033	0.09
801.206	0.05
801.379	-0.36
801.551	0.37
801.724	0.12
801.897	0.36
802.07	0.06
802.243	-0.64
802.416	0.46
802.589	0.11
802.762	0.14
802.935	0.09
803.107	0.26
803.28	0.43
803.453	0.63
803.626	-0.16
803.798	-0.04
803.971	0.13
804.144	0.25
804.317	0.15
804.489	0.17
804.662	-0.11
804.835	0.16
805.007	-0.43
805.18	0.66
805.353	0.3
805.525	-0.26
805.698	-0.22
805.87	0.09
806.043	0.15
806.215	-0.34
806.388	-0.13
806.56	0.16
806.733	0.35
806.905	0.38
807.078	-0.07
807.25	0.03
807.423	-0.11
807.595	0.21
807.768	0.01
807.94	0.39
808.112	0.23
808.285	0.14
808.457	-0.12
808.629	-0.03
808.802	0.51
808.974	0.05
809.146	0.2
809.318	-0.47
809.491	0.31
809.663	0.35
809.835	-0.16
810.007	0
810.18	0.19
810.352	-0.38
810.524	0.02
810.696	-0.09
810.868	0.26
811.04	0.14
811.212	-0.22
811.384	0.42
811.556	0.48
811.728	-0.02
811.901	0.36
812.073	0.07
812.245	0.58
812.417	0.1
812.589	-0.5
812.76	0.06
812.932	0.13
813.104	0.38
813.276	-0.16
813.448	0.29
813.62	0.02
813.792	0.19
813.964	0.23
814.136	0.07
814.307	-0.12
814.479	-0.41
814.651	-0.19
814.823	0.92
814.995	-0.06
815.166	0.11
815.338	-0.24
815.51	-0.43
815.681	0.52
815.853	0.21
816.025	-0.27
816.196	0.64
816.368	0.33
816.54	-0.14
816.711	-0.02
816.883	0.49
817.054	0.86
817.226	-0.26
817.398	-0.18
817.569	-0.2
817.741	-0
817.912	-0.04
818.084	0.18
818.255	0.9
818.426	-0.11
818.598	0.37
818.769	-0.22
818.941	0.4
819.112	0.52
819.283	0.44
819.455	-0.58
819.626	0.12
819.798	0.86
819.969	0.25
820.14	0
820.311	-0.64
820.483	0.14
820.654	-0.16
820.825	0.1
820.996	0.24
821.168	-0.09
821.339	-0.04
821.51	-0.42
821.681	-0.04
821.852	0.11
822.023	-0.19
822.195	-0.35
822.366	0.47
822.537	0.08
822.708	0.14
822.879	-0.23
823.05	0.64
823.221	0.02
823.392	0.16
823.563	0.38
823.734	-0.27
823.905	0.34
824.076	-0.16
824.247	-0.77
824.418	-0.34
824.589	0.96
824.759	-0.07
824.93	-0.52
825.101	-0.7
825.272	0.5
825.443	0.58
825.614	0.16
825.784	-0.99
825.955	1.06
826.126	0.74
826.297	0.29
826.467	1.08
826.638	0.83
826.809	-0.57
826.98	0.12
827.15	0.83
827.321	-0.12
827.492	0.71
827.662	0.01
827.833	1.09
828.003	0.72
828.174	-0.48
828.345	-0.21
828.515	0.27
828.686	0.41
828.856	-0.14
829.027	0.32
829.197	0.3
829.368	0.57
829.538	0.01
829.709	-0.25
829.879	0.1
830.049	0.33
830.22	-0.48
830.39	0.25
830.56	0.55
830.731	0.61
830.901	-0.44
831.072	-0.03
831.242	-0.08
831.412	0.31
831.582	0.76
831.753	-0.23
831.923	0.76
832.093	0.21
832.263	-0.12
832.434	-0.67
832.604	-0.04
832.774	0.44
832.944	0.16
833.114	-0.35
833.284	0.57
833.454	-0.33
833.624	-0.31
833.795	0.44
833.965	0.81
834.135	0.72
834.305	-0.55
834.475	-0.8
834.645	0.19
834.815	0.37
834.985	-0.55
835.155	-0.5
835.325	0.76
835.494	0.9
835.664	-0.13
835.834	-0.22
836.004	0.06
836.174	0.55
836.344	-0.35
836.514	-1.37
836.684	-0.49
836.853	0.35
837.023	0.66
837.193	0.33
837.363	0.81
837.532	0.75
837.702	-0.02
837.872	-0.56
838.041	0.91
838.211	1.68
838.381	-0.87
838.55	-0.35
838.72	2.55
838.89	0.78
839.059	-0.1
839.229	-0.7
839.398	1.32
839.568	0.41
839.738	0.04
839.907	1.76
840.077	0.31
840.246	-0.25
840.416	-0.37
840.585	-1.02
840.755	1.33
840.924	1.49
841.093	-1.03
841.263	-0.21
841.432	0.34
841.602	-0.31
841.771	-1.04
841.94	0.09
842.11	1.57
842.279	2.02
842.448	-0.79
842.617	-0.74
842.787	1.47
842.956	-0.71
843.125	0.25
843.294	-0.04
843.464	1.04
843.633	0.29
843.802	-0.31
843.971	-0.03
844.14	0.49
844.309	0.67
844.479	-0.76
844.648	-0.36
844.817	-0.57
844.986	-0.03
845.155	-0.34
845.324	-0.66
845.493	-0.05
845.662	-0.74
845.831	1.06
846	0.42
846.169	-0.41
846.338	0.56
846.507	0.75
846.676	0.38
846.844	-0.15
847.013	0.21
847.182	0.23
847.351	-0.85
847.52	-0.18
847.689	0.03
847.858	-0.01
848.026	-0.56
848.195	0.37
848.364	-0.07
848.533	-0.79
848.701	-0.74
848.87	-0.09
849.039	0.86
849.207	0.56
849.376	0.91
849.545	1.51
849.713	-0.24
849.882	-0.86
850.051	0.01
850.219	-0.56
850.388	0.65
850.556	-1.11
850.725	-0.48
850.893	-0.93
851.062	0.45
851.23	0.4
851.399	-1.06
851.567	-0.63
851.736	-0.07
851.904	-1.28
852.073	0.58
852.241	0.82
852.41	0.11
852.578	0.22
852.746	-1.73
852.915	0.45
853.083	0.97
853.251	-0.57
853.42	-0.23
853.588	-0.06
853.756	1.82
853.924	-0.39
854.093	0.66
854.261	0.17
854.429	-1.12
854.597	0.66
854.765	-0.91
854.934	-0.19
855.102	1.09
855.27	0.16
855.438	1.29
855.606	1.17
855.774	0.54
855.942	-1.59
856.11	-1.64
856.278	-0.28
856.446	0.07
856.614	-0.38
856.782	0.3
856.95	1
857.118	-0.19
857.286	0.82
857.454	-0.38
857.622	1.78
857.79	0.6
857.958	-0.95
858.126	-0.22
858.294	-3.03
858.462	-0.02
858.629	0.24
858.797	-0.45
858.965	-0.25
859.133	0.43
859.301	-0.38
859.468	0.83
859.636	-0.21
859.804	0.63
859.971	2.09
860.139	-1.5
860.307	1.68
860.474	0.73
860.642	-1.01
860.81	-0.01
860.977	0.34
861.145	1.43
861.313	-0.09
861.48	-0.42
861.648	1.01
861.815	0.8
861.983	-0.26
862.15	0.31
862.318	1.19
862.485	1.55
862.653	-0.54
862.82	-2.18
862.988	0.64
863.155	1.84
863.322	-1.12
863.49	-1.2
863.657	-0.88
863.824	1.35
863.992	1.21
864.159	0.9
864.326	1.1
864.494	-1.02
864.661	2.38
864.828	-0.33
864.996	1.67
865.163	2.33
865.33	-0.29
865.497	-2.35
865.664	0.28
865.832	-1.41
865.999	-2.03
866.166	-1.03
866.333	-0.35
866.5	0.61
866.667	-0.4
866.834	0.14
867.001	3.35
867.168	-1.17
867.335	-0.02
867.502	-0.59
867.669	-0.11
867.836	3.59
868.003	-0.42
868.17	1.84
868.337	2.38
868.504	2.55
868.671	-3.19
868.838	-1.05
869.005	1.78
869.172	1
869.339	0.13
869.505	-0.64
869.672	0.04
869.839	1.28
870.006	0.26
870.173	-2
870.339	1.69
870.506	2.49
870.673	-3.09
870.84	1.27
871.006	1.42
871.173	-1.46
871.34	0.66
871.506	-1.53
871.673	1.84
871.839	-0.89
872.006	1.63
872.173	0.11
872.339	-1.12
872.506	1.4
872.672	-0.03
872.839	-0.94
873.005	0.69
873.172	3.84
873.338	1.78
873.505	0.09
873.671	1.94
873.838	1.48
874.004	-1.49
874.171	-1.07
874.337	0.64
874.503	1.61
874.67	-0.61
874.836	-0.58
875.002	0.89
875.169	1.28
875.335	-0.5
875.501	0.88
875.668	2.17
875.834	1.02
876	-0.44
876.166	1.06
876.332	1.19
876.499	3.49
876.665	-1.79
876.831	-0.54
876.997	3.47
877.163	1
877.329	-1.22
877.495	0.36
877.662	0.98
877.828	2.28
877.994	0.93
878.16	-2.63
878.326	-0.75
878.492	2.43
878.658	-1.03
878.824	2.07
878.99	-0.12
879.156	-1.24
879.322	2.1
879.487	0.61
879.653	1.04
879.819	0.72
879.985	-0.64
880.151	2.51
880.317	1.2
880.483	1.54
880.648	2.51
880.814	-3.37
880.98	0.93
881.146	-2.77
881.312	-0.54
881.477	-0.12
881.643	-0.05
881.809	1.21
881.974	1.83
882.14	-1.1
882.306	0.29
882.471	4.15
882.637	1.02
882.803	0.51
882.968	3.02
883.134	4.07
883.299	0.49
883.465	-0.22
883.63	2.26
883.796	2.3
883.961	0.16
884.127	0.62
884.292	-3.59
884.458	-0.97
884.623	-0.97
