Data from Apollo_Calib_20240827__AbsoluteIrradiance__293__04-02-00-896.txt Node

Date: Wed Aug 28 04:02:00 BST 2024
User: biology
Spectrometer: FLMT08252
Trigger mode: 0
Integration Time (sec): 5.000000E-1
Scans to average: 5
Electric dark correction enabled: true
Nonlinearity correction enabled: false
Boxcar width: 0
XAxis mode: Wavelengths
Number of Pixels in Spectrum: 3648
>>>>>Begin Spectral Data<<<<<
179.588	-0
179.809	-0
180.03	-0
180.251	-0
180.473	-0
180.694	0
180.915	0
181.136	-0
181.357	0
181.578	0
181.799	-0
182.02	-0
182.241	0
182.462	-0
182.683	0
182.904	-0
183.125	-0
183.346	0
183.567	0
183.788	-0
184.009	-0
184.23	0
184.451	0
184.672	-0
184.892	-0
185.113	-0
185.334	0
185.555	-0
185.776	-0
185.996	0
186.217	0
186.438	0
186.659	-0
186.879	-0
187.1	0
187.321	-0
187.541	-0
187.762	-0
187.983	-0
188.203	-0
188.424	-0
188.644	-0
188.865	-0
189.086	-0
189.306	-0
189.527	-0
189.747	0
189.968	-0
190.188	0
190.409	-0
190.629	0
190.849	-0
191.07	-0
191.29	-0
191.511	0
191.731	-0
191.951	-0
192.172	-0
192.392	-0
192.612	-0
192.833	-0
193.053	0
193.273	-0
193.493	-0
193.714	-0
193.934	0
194.154	0
194.374	-0
194.594	0
194.815	0
195.035	0
195.255	-0
195.475	-0
195.695	0
195.915	0
196.135	-0
196.355	0
196.575	0
196.795	0
197.015	-0
197.235	-0
197.455	-0
197.675	-0
197.895	-0
198.115	-0
198.335	0
198.555	-0
198.775	0
198.995	-0
199.214	0
199.434	-0
199.654	-0
199.874	-0
200.094	1.14
200.313	-0.36
200.533	-0.72
200.753	-1.24
200.973	0.14
201.192	0.19
201.412	-1.56
201.632	-0.32
201.851	0.88
202.071	-0.51
202.291	-0.71
202.51	-0.72
202.73	0.42
202.95	-0.21
203.169	-0.64
203.389	-0.4
203.608	0
203.828	-0.49
204.047	-0.25
204.267	-0.13
204.486	-0.23
204.706	0.12
204.925	-0.04
205.145	-0.32
205.364	0.08
205.583	0.64
205.803	-0.14
206.022	-0.68
206.242	-0.17
206.461	-0.13
206.68	-0.51
206.9	-0.13
207.119	0.32
207.338	0.55
207.557	-0.45
207.777	-0.31
207.996	-0.16
208.215	0.53
208.434	-0.52
208.654	-0.42
208.873	-0.13
209.092	0.59
209.311	-0.13
209.53	-0.12
209.749	-0.07
209.968	-0.45
210.187	0.18
210.407	-0.61
210.626	-0.18
210.845	-0.02
211.064	0.08
211.283	-0.31
211.502	0.29
211.721	-0.08
211.94	0
212.159	0.08
212.377	0.03
212.596	0.3
212.815	-0.09
213.034	0
213.253	0.05
213.472	0.37
213.691	-0.18
213.91	-0.39
214.128	-0.23
214.347	0.23
214.566	-0.52
214.785	-0.4
215.003	0.12
215.222	0.03
215.441	-0.08
215.66	-0.48
215.878	-0.14
216.097	-0.01
216.316	-0.28
216.534	-0.28
216.753	0.02
216.972	-0.04
217.19	-0.12
217.409	-0.32
217.627	-0.25
217.846	-0.11
218.064	-0.04
218.283	-0.24
218.501	0.46
218.72	0.19
218.938	-0.22
219.157	-0.22
219.375	0.12
219.594	0.12
219.812	-0.35
220.031	-0.32
220.249	0.25
220.467	0.28
220.686	-0.13
220.904	-0.27
221.122	-0.2
221.341	0.24
221.559	-0.06
221.777	-0.37
221.995	-0.01
222.214	0.08
222.432	-0.24
222.65	0.24
222.868	-0.13
223.086	0.01
223.305	0.13
223.523	-0.18
223.741	0.37
223.959	-0.06
224.177	-0.24
224.395	-0.03
224.613	-0.13
224.831	0.04
225.049	-0.22
225.267	-0.03
225.485	0.03
225.703	-0.12
225.921	-0.02
226.139	-0.17
226.357	0.06
226.575	0.11
226.793	-0.18
227.011	0.48
227.229	-0.16
227.447	0.21
227.665	-0.17
227.883	-0.29
228.1	0.05
228.318	0.04
228.536	-0.31
228.754	-0.13
228.972	-0.01
229.189	0.07
229.407	-0.13
229.625	-0.07
229.843	0.12
230.06	0.12
230.278	-0.07
230.496	-0.09
230.713	-0.02
230.931	0.07
231.149	-0.06
231.366	-0.22
231.584	-0.02
231.801	0.28
232.019	-0.08
232.236	-0.22
232.454	-0.14
232.671	-0.03
232.889	-0.11
233.106	-0.17
233.324	-0.07
233.541	-0.09
233.759	-0.02
233.976	-0.18
234.194	-0.04
234.411	-0.01
234.628	-0.14
234.846	-0.12
235.063	0.04
235.28	-0.05
235.498	-0.08
235.715	-0.15
235.932	0.09
236.149	0.05
236.367	-0.22
236.584	-0.06
236.801	-0.01
237.018	0.11
237.236	-0.13
237.453	-0.27
237.67	0.13
237.887	-0.07
238.104	-0.11
238.321	-0.17
238.538	-0.17
238.755	0.07
238.973	-0.12
239.19	0.03
239.407	0.01
239.624	0
239.841	-0.14
240.058	-0.08
240.275	0
240.492	-0
240.709	-0.05
240.925	-0.08
241.142	-0.04
241.359	-0.12
241.576	-0.27
241.793	-0.1
242.01	-0.13
242.227	0.09
242.444	0.05
242.66	0.08
242.877	-0.01
243.094	-0.14
243.311	0.07
243.527	-0.12
243.744	0.03
243.961	-0.05
244.178	-0.1
244.394	-0.02
244.611	0.1
244.828	0.18
245.044	-0.17
245.261	-0.14
245.477	-0.1
245.694	0
245.911	-0.15
246.127	0.01
246.344	0.12
246.56	-0.01
246.777	-0.11
246.993	-0.06
247.21	0
247.426	0.09
247.643	-0.18
247.859	-0.09
248.076	-0.05
248.292	0.22
248.508	-0.07
248.725	0.02
248.941	-0.02
249.157	0.07
249.374	-0.08
249.59	-0.03
249.806	-0.02
250.023	-0.03
250.239	-0.1
250.455	-0.12
250.671	-0.03
250.888	-0.07
251.104	-0.01
251.32	-0.1
251.536	-0.07
251.752	-0.03
251.969	-0.03
252.185	-0.06
252.401	0.15
252.617	-0.01
252.833	-0.01
253.049	-0.05
253.265	-0.04
253.481	-0
253.697	-0.11
253.913	-0.1
254.129	0.02
254.345	0.02
254.561	-0.07
254.777	-0.08
254.993	0.07
255.209	-0.02
255.425	-0.09
255.641	-0.14
255.857	0.12
256.073	-0.03
256.288	-0.07
256.504	-0.11
256.72	-0
256.936	0.11
257.152	-0.02
257.367	-0.12
257.583	-0.07
257.799	-0.01
258.015	-0.09
258.23	-0.12
258.446	0.12
258.662	-0
258.877	-0.06
259.093	-0.09
259.309	0.01
259.524	-0
259.74	-0.14
259.955	-0.18
260.171	-0.11
260.387	-0.02
260.602	0.02
260.818	-0.03
261.033	-0.14
261.249	-0.07
261.464	-0.08
261.68	-0.17
261.895	0.01
262.11	-0.04
262.326	-0.08
262.541	-0.1
262.757	0.01
262.972	0.06
263.187	-0.06
263.403	0.04
263.618	0.03
263.833	0
264.049	-0.06
264.264	-0.03
264.479	0
264.694	0.06
264.91	-0.14
265.125	-0.03
265.34	0.03
265.555	0.1
265.77	-0
265.986	0
266.201	0
266.416	0.02
266.631	-0.05
266.846	-0.02
267.061	0.03
267.276	-0.01
267.491	-0.18
267.706	-0.01
267.921	0.09
268.136	-0.02
268.351	-0.04
268.566	-0.1
268.781	0.07
268.996	0.02
269.211	-0.02
269.426	-0.09
269.641	-0.03
269.856	0.02
270.071	-0.02
270.285	-0.13
270.5	0
270.715	0.08
270.93	-0.05
271.145	-0
271.359	0.05
271.574	-0.07
271.789	-0.07
272.004	-0.07
272.218	-0.03
272.433	0.04
272.648	-0.05
272.862	0.02
273.077	-0.01
273.292	-0.03
273.506	-0.09
273.721	-0.01
273.936	0.02
274.15	0.06
274.365	-0.04
274.579	0.01
274.794	-0.02
275.008	0.04
275.223	-0.17
275.437	-0.05
275.652	0.01
275.866	0.05
276.081	-0.03
276.295	0.02
276.509	-0.01
276.724	-0.03
276.938	-0.03
277.153	-0.04
277.367	0.02
277.581	-0.01
277.796	-0.06
278.01	-0.09
278.224	0.05
278.438	0.13
278.653	-0.1
278.867	-0
279.081	-0.18
279.295	-0.05
279.51	0.03
279.724	-0.1
279.938	-0.03
280.152	-0
280.366	-0
280.58	-0.02
280.794	0.09
281.008	0
281.222	0.05
281.437	0.1
281.651	-0.03
281.865	0.09
282.079	-0.07
282.293	-0.11
282.507	-0.02
282.721	0
282.935	-0.1
283.148	-0.13
283.362	-0.04
283.576	-0.06
283.79	-0.08
284.004	-0.03
284.218	0.08
284.432	-0.05
284.646	-0.01
284.859	-0.06
285.073	-0.04
285.287	0.01
285.501	-0.03
285.714	-0.03
285.928	-0.01
286.142	-0.02
286.356	-0.03
286.569	-0.03
286.783	0.06
286.997	0.04
287.21	-0.04
287.424	0.04
287.637	-0.01
287.851	-0.06
288.065	0.02
288.278	0
288.492	0.02
288.705	-0.03
288.919	0.02
289.132	-0.09
289.346	0.01
289.559	-0.07
289.773	-0.1
289.986	0.01
290.2	0.04
290.413	0.06
290.626	-0.03
290.84	-0.06
291.053	-0.05
291.267	0.06
291.48	-0.01
291.693	0.04
291.906	-0.02
292.12	-0.02
292.333	-0.07
292.546	-0.04
292.76	0.07
292.973	0.02
293.186	0.01
293.399	-0.02
293.612	0.05
293.826	-0.01
294.039	-0.01
294.252	-0.03
294.465	-0.02
294.678	0.02
294.891	-0.01
295.104	-0.05
295.317	-0.05
295.53	-0.01
295.743	-0.03
295.956	-0.01
296.169	0.03
296.382	0.05
296.595	0.02
296.808	-0.04
297.021	0.06
297.234	0
297.447	-0.02
297.66	-0.03
297.873	0.06
298.086	0.05
298.299	-0.07
298.511	-0.07
298.724	-0.03
298.937	-0.06
299.15	0.01
299.363	-0.02
299.575	0.05
299.788	-0.01
300.001	-0.05
300.213	-0.03
300.426	-0.04
300.639	-0.04
300.852	-0.02
301.064	-0
301.277	0.03
301.489	0.06
301.702	0.04
301.915	0.03
302.127	-0.02
302.34	-0.01
302.552	-0.02
302.765	-0.05
302.977	0.06
303.19	-0.02
303.402	0.01
303.615	-0.03
303.827	-0.02
304.04	0.01
304.252	-0.02
304.464	-0.01
304.677	0.13
304.889	-0.02
305.102	-0.05
305.314	0.02
305.526	0.03
305.739	-0
305.951	-0.02
306.163	-0.05
306.375	0.06
306.588	-0.02
306.8	-0.08
307.012	-0.06
307.224	0.01
307.436	0.06
307.649	-0.11
307.861	-0.01
308.073	0.04
308.285	-0.05
308.497	-0.06
308.709	-0.02
308.921	0.02
309.133	0.06
309.346	-0.03
309.558	-0.01
309.77	0.05
309.982	0.05
310.194	0.08
310.406	-0.07
310.617	0.1
310.829	0.03
311.041	0.01
311.253	-0.07
311.465	-0.04
311.677	-0.01
311.889	0.01
312.101	-0.01
312.313	0.05
312.524	0.06
312.736	-0.03
312.948	-0.07
313.16	0.09
313.372	0.06
313.583	0.01
313.795	0
314.007	-0.01
314.218	0.04
314.43	-0.01
314.642	-0.03
314.853	-0.07
315.065	0.07
315.277	-0.01
315.488	0
315.7	0.06
315.912	0.03
316.123	-0.03
316.335	0.02
316.546	0.08
316.758	-0
316.969	-0.03
317.181	-0.02
317.392	0.01
317.604	0.06
317.815	-0
318.026	-0.05
318.238	-0.04
318.449	0.04
318.661	-0.07
318.872	-0.08
319.083	-0.07
319.295	0.02
319.506	-0.07
319.717	0.02
319.929	0.02
320.14	0
320.351	0.01
320.562	-0.06
320.774	0.02
320.985	-0.04
321.196	-0.11
321.407	-0.08
321.618	0
321.829	0.03
322.041	-0.03
322.252	-0.02
322.463	0.02
322.674	0.01
322.885	-0.08
323.096	-0.06
323.307	-0.01
323.518	-0
323.729	-0.07
323.94	-0.03
324.151	-0.01
324.362	0
324.573	0.01
324.784	-0.04
324.995	0.01
325.206	-0
325.417	-0.06
325.628	-0.02
325.838	-0
326.049	-0.02
326.26	0.03
326.471	-0.02
326.682	0
326.892	-0.01
327.103	-0.08
327.314	-0.09
327.525	0.05
327.735	-0.02
327.946	-0.06
328.157	-0.06
328.368	0.02
328.578	-0.07
328.789	0.05
328.999	0.01
329.21	-0.02
329.421	0.01
329.631	-0.06
329.842	-0.04
330.052	0.02
330.263	0.05
330.473	-0
330.684	-0.02
330.894	0
331.105	0.02
331.315	0.01
331.526	-0.06
331.736	0.08
331.947	0.05
332.157	-0.01
332.367	-0.08
332.578	0.05
332.788	0.06
332.999	0.02
333.209	-0.02
333.419	-0.08
333.629	0.04
333.84	-0.01
334.05	-0.02
334.26	0.03
334.47	0.04
334.681	0.02
334.891	-0.06
335.101	0
335.311	0.09
335.521	-0
335.732	-0.08
335.942	0.09
336.152	0
336.362	0.03
336.572	-0.01
336.782	0.03
336.992	-0.06
337.202	-0.03
337.412	-0.04
337.622	0.03
337.832	0.01
338.042	-0.03
338.252	-0.03
338.462	-0.02
338.672	-0.02
338.882	-0.04
339.092	-0.01
339.302	0.07
339.511	-0.01
339.721	-0.04
339.931	-0.04
340.141	0.01
340.351	0.05
340.561	-0.01
340.77	-0.01
340.98	-0.01
341.19	0.02
341.4	-0.01
341.609	-0.08
341.819	-0.04
342.029	-0.03
342.238	-0
342.448	-0.06
342.658	0
342.867	0
343.077	-0.02
343.286	-0.02
343.496	0.01
343.706	0.01
343.915	-0.07
344.125	-0.02
344.334	-0
344.544	-0.04
344.753	-0.05
344.963	-0.02
345.172	-0.02
345.381	-0.05
345.591	-0.04
345.8	0.01
346.01	0.05
346.219	0.05
346.428	-0.13
346.638	-0.03
346.847	-0.05
347.056	0.04
347.266	-0.05
347.475	-0.03
347.684	-0.02
347.893	0.03
348.103	0.02
348.312	0.01
348.521	-0.03
348.73	-0.02
348.94	-0.02
349.149	-0.04
349.358	-0.02
349.567	-0.01
349.776	-0.07
349.985	-0.05
350.194	0.04
350.403	0.05
350.612	-0.08
350.821	-0.03
351.03	-0.03
351.239	-0.08
351.448	-0.01
351.657	-0.02
351.866	0.07
352.075	-0.03
352.284	0.02
352.493	-0.08
352.702	0.04
352.911	0.04
353.12	-0.03
353.329	-0.01
353.538	-0.01
353.746	-0.02
353.955	-0.05
354.164	0.03
354.373	-0.03
354.582	0.07
354.79	0
354.999	0
355.208	-0.01
355.416	0.06
355.625	-0.06
355.834	0
356.042	0.02
356.251	-0
356.46	-0.05
356.668	0.02
356.877	0.1
357.085	0.02
357.294	-0.08
357.503	0.02
357.711	-0.01
357.92	0.13
358.128	-0.04
358.337	-0.04
358.545	-0
358.754	-0.03
358.962	0.06
359.17	-0.01
359.379	0.02
359.587	0.02
359.796	-0
360.004	-0.01
360.212	0.04
360.421	0.06
360.629	-0.02
360.837	0.01
361.046	0.04
361.254	0.11
361.462	-0.01
361.67	0
361.879	-0.02
362.087	0.11
362.295	0.02
362.503	-0.05
362.711	-0.06
362.92	0
363.128	-0.06
363.336	-0.05
363.544	-0.06
363.752	-0.02
363.96	-0.01
364.168	-0.06
364.376	0
364.584	0.03
364.792	0.02
365	0.04
365.208	-0.01
365.416	0.03
365.624	0.02
365.832	-0.02
366.04	0.05
366.248	0.04
366.456	-0.01
366.664	0.03
366.872	0.01
367.079	-0.03
367.287	-0.02
367.495	0.02
367.703	-0.03
367.911	-0.03
368.118	-0.02
368.326	-0.02
368.534	-0.07
368.742	0.04
368.949	-0.06
369.157	-0.01
369.365	0.03
369.572	-0
369.78	-0.05
369.988	0.03
370.195	-0.01
370.403	0.03
370.61	-0.07
370.818	-0.01
371.026	0.08
371.233	-0.03
371.441	0.01
371.648	-0.05
371.856	0.03
372.063	0.01
372.271	-0.06
372.478	-0.03
372.685	-0.02
372.893	0.06
373.1	-0.02
373.308	-0.05
373.515	0.08
373.722	0.03
373.93	-0.03
374.137	0.05
374.344	0.02
374.552	0.04
374.759	0.02
374.966	-0
375.173	-0.03
375.381	0.03
375.588	-0.03
375.795	-0.06
376.002	0
376.209	0
376.417	-0.02
376.624	-0.02
376.831	-0
377.038	-0.04
377.245	-0.08
377.452	-0.04
377.659	0
377.866	-0.01
378.073	-0.05
378.28	-0.05
378.487	0.03
378.694	-0.01
378.901	-0.04
379.108	0
379.315	0.04
379.522	0.1
379.729	0.02
379.936	-0.03
380.143	-0.02
380.35	0
380.557	-0.02
380.763	0.01
380.97	-0.01
381.177	-0
381.384	-0
381.591	-0.04
381.797	-0.03
382.004	0.02
382.211	0.04
382.418	0.01
382.624	0.07
382.831	0.07
383.038	-0.03
383.244	0
383.451	-0.01
383.658	0.03
383.864	-0.03
384.071	-0.04
384.277	0.05
384.484	-0.01
384.69	0.05
384.897	-0.01
385.103	-0.02
385.31	-0.03
385.516	-0.07
385.723	-0.08
385.929	-0.01
386.136	-0.03
386.342	0.01
386.549	-0.03
386.755	0.03
386.961	0.01
387.168	-0.03
387.374	-0.01
387.58	0.02
387.787	-0.03
387.993	-0.02
388.199	-0.04
388.406	-0.04
388.612	-0.01
388.818	-0.05
389.024	-0.04
389.231	0.04
389.437	0.03
389.643	-0
389.849	-0.02
390.055	-0.03
390.261	-0.02
390.467	-0
390.674	-0.11
390.88	0.01
391.086	0.04
391.292	-0.06
391.498	0.03
391.704	0.01
391.91	0.03
392.116	-0.01
392.322	-0.1
392.528	-0.03
392.734	-0.03
392.94	-0
393.146	-0.06
393.352	-0.04
393.557	-0.01
393.763	0.01
393.969	0.03
394.175	-0.01
394.381	-0.01
394.587	-0.07
394.792	-0.03
394.998	-0.01
395.204	0.07
395.41	-0.07
395.615	-0
395.821	0.02
396.027	-0
396.233	-0.07
396.438	-0.02
396.644	0.04
396.85	-0.02
397.055	-0.04
397.261	-0.02
397.466	-0.03
397.672	0
397.878	-0
398.083	0.03
398.289	-0.06
398.494	0.07
398.7	0
398.905	-0.11
399.111	0.06
399.316	-0.06
399.522	-0.02
399.727	-0
399.932	-0.01
400.138	-0.05
400.343	0.03
400.549	0.01
400.754	0.02
400.959	-0.01
401.165	-0.02
401.37	-0.06
401.575	0.05
401.78	0.01
401.986	-0.01
402.191	-0.03
402.396	-0.02
402.601	0.03
402.807	0
403.012	-0.01
403.217	0.02
403.422	-0.01
403.627	-0.02
403.832	-0.04
404.037	0.02
404.243	0.01
404.448	-0.05
404.653	-0.02
404.858	-0.04
405.063	0.01
405.268	-0.04
405.473	-0.07
405.678	-0.05
405.883	0.14
406.088	0.03
406.293	-0.07
406.498	-0.03
406.703	0.03
406.907	0.01
407.112	-0.09
407.317	0.01
407.522	0.05
407.727	-0.07
407.932	-0.01
408.136	0.06
408.341	-0.05
408.546	-0.02
408.751	-0
408.956	-0.05
409.16	0.01
409.365	-0.04
409.57	-0.06
409.774	-0.01
409.979	0.04
410.184	0.04
410.388	-0.05
410.593	0.01
410.798	0.05
411.002	-0.01
411.207	-0.01
411.411	0.03
411.616	-0.03
411.82	-0.01
412.025	0.02
412.229	-0.08
412.434	0.05
412.638	-0.02
412.843	-0.07
413.047	0.01
413.252	-0.04
413.456	-0.02
413.66	0.04
413.865	-0.07
414.069	0.06
414.273	0.01
414.478	-0.04
414.682	-0.05
414.886	-0.06
415.091	-0.08
415.295	-0.12
415.499	-0
415.703	-0.05
415.908	-0.01
416.112	-0.08
416.316	0.05
416.52	-0
416.724	-0.1
416.929	-0.02
417.133	0.1
417.337	-0.01
417.541	-0.03
417.745	0.01
417.949	-0.03
418.153	-0
418.357	-0.1
418.561	0.05
418.765	0
418.969	0.1
419.173	0.01
419.377	-0.03
419.581	0.11
419.785	-0.03
419.989	-0.04
420.193	-0.09
420.397	-0.04
420.601	0.02
420.804	-0
421.008	-0.02
421.212	-0.01
421.416	0.04
421.62	-0.05
421.823	-0.04
422.027	0.1
422.231	-0.01
422.435	-0.01
422.638	-0.02
422.842	-0.06
423.046	-0.08
423.249	-0.02
423.453	0.01
423.657	-0.01
423.86	-0.01
424.064	-0
424.268	0.06
424.471	-0.02
424.675	0.04
424.878	0.02
425.082	-0.03
425.285	0.05
425.489	-0.07
425.692	-0
425.896	-0.05
426.099	0.06
426.303	-0.02
426.506	-0.11
426.71	0.01
426.913	0.03
427.116	0.06
427.32	-0
427.523	-0.09
427.726	0.05
427.93	-0.05
428.133	-0.01
428.336	-0.04
428.54	-0.04
428.743	0.01
428.946	-0.03
429.149	-0.06
429.353	0.02
429.556	-0.03
429.759	-0.07
429.962	-0.07
430.165	0.01
430.368	0
430.571	-0.03
430.775	0
430.978	-0.04
431.181	0.03
431.384	0.01
431.587	-0.04
431.79	-0.02
431.993	-0
432.196	-0.03
432.399	-0.04
432.602	0.06
432.805	-0.03
433.008	-0.03
433.211	-0.11
433.414	0.04
433.616	-0
433.819	-0.03
434.022	-0.08
434.225	0.01
434.428	-0.07
434.631	0.09
434.833	-0.02
435.036	-0.03
435.239	-0.01
435.442	0.01
435.645	-0.04
435.847	-0
436.05	0.05
436.253	-0.05
436.455	-0.1
436.658	-0.04
436.861	0.08
437.063	-0.04
437.266	-0.04
437.468	0.01
437.671	0.11
437.874	-0.01
438.076	-0.08
438.279	-0.14
438.481	-0.02
438.684	-0.12
438.886	0.02
439.089	-0.11
439.291	0.02
439.494	0.03
439.696	-0.07
439.899	-0.08
440.101	0.03
440.303	-0.12
440.506	0
440.708	-0.02
440.91	-0.01
441.113	-0.11
441.315	0.04
441.517	-0.07
441.72	-0
441.922	-0.04
442.124	-0.04
442.326	-0
442.529	0.03
442.731	-0.05
442.933	0.04
443.135	-0.02
443.337	-0.04
443.539	-0.02
443.742	-0.03
443.944	-0.02
444.146	-0.05
444.348	-0.04
444.55	-0.05
444.752	0
444.954	-0.07
445.156	-0.02
445.358	-0.04
445.56	0.03
445.762	-0.01
445.964	-0.04
446.166	-0.02
446.368	-0.06
446.57	0.03
446.772	-0.04
446.974	-0.05
447.175	-0.01
447.377	-0.09
447.579	-0.03
447.781	-0.11
447.983	0.06
448.184	-0.01
448.386	-0.02
448.588	-0.07
448.79	0
448.991	-0.05
449.193	-0.08
449.395	-0.01
449.597	0
449.798	0
450	-0.01
450.202	-0.04
450.403	-0.02
450.605	0.02
450.806	-0.03
451.008	-0.11
451.21	0.02
451.411	0
451.613	-0.04
451.814	-0.04
452.016	0.07
452.217	0
452.419	0.05
452.62	-0.03
452.821	0.01
453.023	0.06
453.224	0.04
453.426	0
453.627	0.03
453.828	0.02
454.03	-0.03
454.231	0.06
454.432	-0.08
454.634	0.11
454.835	-0.09
455.036	-0.1
455.238	0
455.439	0.05
455.64	-0.07
455.841	-0.07
456.042	0.08
456.244	0.03
456.445	-0.05
456.646	-0.06
456.847	-0.03
457.048	0.02
457.249	-0.02
457.45	0.19
457.651	-0.09
457.852	0.02
458.054	-0.03
458.255	-0.01
458.456	0.05
458.657	-0.03
458.858	-0.08
459.058	-0
459.259	0.04
459.46	-0.04
459.661	-0.02
459.862	0.1
460.063	-0.02
460.264	0.06
460.465	-0.07
460.666	0.07
460.866	-0.02
461.067	-0
461.268	-0.01
461.469	-0.05
461.67	-0.07
461.87	-0.02
462.071	-0.04
462.272	-0.01
462.473	0.03
462.673	0.04
462.874	-0.05
463.075	-0
463.275	-0.05
463.476	-0.02
463.676	-0.02
463.877	-0.02
464.078	-0
464.278	0.01
464.479	-0.03
464.679	-0.03
464.88	-0.03
465.08	0.02
465.281	-0.05
465.481	-0.05
465.682	-0.03
465.882	0.03
466.083	0.04
466.283	0.03
466.483	-0.06
466.684	-0.05
466.884	-0.03
467.085	-0.04
467.285	0.06
467.485	-0.06
467.686	-0.04
467.886	-0.03
468.086	-0.04
468.286	-0.01
468.487	0.01
468.687	-0.05
468.887	-0.03
469.087	0.04
469.287	-0.01
469.488	-0.07
469.688	-0
469.888	0.04
470.088	0.03
470.288	0.02
470.488	0.03
470.688	-0.03
470.888	-0.02
471.088	-0.05
471.288	0.04
471.488	0.04
471.688	-0.01
471.888	-0.07
472.088	0.03
472.288	0.07
472.488	-0.03
472.688	-0.01
472.888	-0.01
473.088	0
473.288	-0.01
473.488	-0.03
473.688	0.1
473.887	0.04
474.087	-0.05
474.287	-0.01
474.487	-0.03
474.687	0.03
474.886	-0.06
475.086	0
475.286	0.01
475.486	0.01
475.685	0
475.885	-0.04
476.085	-0.02
476.284	0.02
476.484	-0.06
476.684	-0.02
476.883	0.02
477.083	-0
477.282	-0.02
477.482	0.03
477.681	0.03
477.881	0.02
478.08	-0.04
478.28	-0.02
478.479	0.04
478.679	0.08
478.878	-0.03
479.078	-0.03
479.277	-0.03
479.477	-0.01
479.676	0.01
479.875	0.01
480.075	-0.07
480.274	-0.01
480.473	0.02
480.673	-0.02
480.872	0.01
481.071	-0.02
481.271	-0.03
481.47	-0.03
481.669	-0.03
481.868	-0.01
482.067	-0.05
482.267	-0.04
482.466	-0.03
482.665	-0.06
482.864	-0.03
483.063	-0.05
483.262	0.01
483.461	0.03
483.661	0.03
483.86	0.02
484.059	-0.01
484.258	-0.02
484.457	-0.02
484.656	-0.01
484.855	0.02
485.054	-0.04
485.253	-0.04
485.452	-0.03
485.651	-0.01
485.849	-0.04
486.048	-0.03
486.247	-0.01
486.446	0.02
486.645	-0.04
486.844	-0.03
487.043	-0.01
487.241	0.02
487.44	-0.03
487.639	-0.03
487.838	0.01
488.037	0.02
488.235	0.05
488.434	0.02
488.633	-0.05
488.831	0.01
489.03	0.02
489.229	-0.01
489.427	-0.02
489.626	0.05
489.825	0.04
490.023	-0.02
490.222	-0.03
490.42	0.04
490.619	0.02
490.817	-0.02
491.016	-0.01
491.214	0.02
491.413	-0.03
491.611	-0.02
491.81	-0.02
492.008	0.02
492.207	0.02
492.405	-0
492.604	-0.04
492.802	-0.01
493	-0.01
493.199	-0.03
493.397	0
493.595	-0.02
493.794	-0.03
493.992	0.04
494.19	-0.01
494.388	0.03
494.587	-0.03
494.785	-0.01
494.983	-0.04
495.181	0.01
495.379	0.01
495.578	-0.03
495.776	0.01
495.974	0.03
496.172	-0.02
496.37	-0.04
496.568	-0.05
496.766	-0.03
496.964	0.01
497.162	-0.01
497.36	-0.03
497.558	0.02
497.756	0.02
497.954	0
498.152	-0.03
498.35	0
498.548	-0.02
498.746	-0
498.944	-0.04
499.142	-0.03
499.34	-0.02
499.538	-0.01
499.736	-0.04
499.933	0.03
500.131	0.02
500.329	0
500.527	0.02
500.725	0.02
500.922	-0.01
501.12	0
501.318	0.01
501.516	-0.03
501.713	0.02
501.911	-0.01
502.109	-0.05
502.306	0.01
502.504	0
502.701	-0.03
502.899	-0
503.097	0.02
503.294	-0.01
503.492	-0.02
503.689	-0.01
503.887	0.03
504.084	0.04
504.282	-0.01
504.479	-0.06
504.677	-0
504.874	-0.02
505.072	-0
505.269	-0.01
505.466	0.01
505.664	0.01
505.861	-0.05
506.059	-0.02
506.256	0.02
506.453	-0.01
506.651	0.02
506.848	-0.01
507.045	0.01
507.242	-0
507.44	-0.02
507.637	0
507.834	-0.02
508.031	0.03
508.229	-0.04
508.426	0.01
508.623	0
508.82	-0.02
509.017	-0.02
509.214	-0.01
509.411	-0.01
509.608	-0.02
509.805	-0.01
510.003	-0.03
510.2	-0.01
510.397	0.04
510.594	-0.04
510.791	-0.04
510.988	-0.03
511.184	0.03
511.381	-0.02
511.578	-0.04
511.775	0.01
511.972	-0.04
512.169	-0.02
512.366	-0.01
512.563	0.02
512.76	-0.02
512.956	-0.01
513.153	-0.02
513.35	0
513.547	0.02
513.744	-0.04
513.94	-0.06
514.137	-0.01
514.334	0
514.53	-0
514.727	0
514.924	0.05
515.12	-0.02
515.317	-0.04
515.514	-0.02
515.71	-0.03
515.907	-0.02
516.103	-0.01
516.3	-0
516.497	0.02
516.693	0.03
516.89	0
517.086	-0.05
517.283	0.03
517.479	-0.01
517.676	-0.02
517.872	-0
518.068	-0.02
518.265	-0.01
518.461	-0.01
518.658	-0.03
518.854	0
519.05	-0.03
519.247	-0.03
519.443	0.03
519.639	0.01
519.836	-0.02
520.032	-0
520.228	-0.02
520.424	0.04
520.621	-0
520.817	-0
521.013	0.03
521.209	0.01
521.405	0.04
521.601	-0.01
521.798	-0
521.994	0.02
522.19	-0.04
522.386	-0.04
522.582	0
522.778	-0.01
522.974	-0
523.17	-0.02
523.366	-0
523.562	0
523.758	-0.01
523.954	-0.02
524.15	-0.02
524.346	0.01
524.542	-0.04
524.738	-0.04
524.934	-0.01
525.129	-0.01
525.325	-0.01
525.521	0.01
525.717	0
525.913	-0.01
526.109	0.01
526.304	-0.02
526.5	0
526.696	0.03
526.892	-0.01
527.087	0
527.283	-0.05
527.479	0.01
527.674	-0.02
527.87	-0.02
528.066	-0.02
528.261	0.03
528.457	0.01
528.653	-0.01
528.848	0
529.044	-0.01
529.239	-0.03
529.435	0.04
529.63	-0.02
529.826	0.03
530.021	0
530.217	0.01
530.412	-0.01
530.608	-0.01
530.803	-0.02
530.999	0
531.194	-0.05
531.389	-0.02
531.585	-0.06
531.78	-0.03
531.975	-0.02
532.171	0.02
532.366	-0
532.561	0.01
532.757	-0.02
532.952	-0.01
533.147	0.01
533.342	-0.02
533.538	-0.03
533.733	0.02
533.928	-0.01
534.123	-0.02
534.318	-0.03
534.513	-0.01
534.709	-0.01
534.904	-0.05
535.099	-0.04
535.294	-0.02
535.489	0.01
535.684	-0.01
535.879	-0.03
536.074	-0
536.269	-0.01
536.464	0
536.659	-0.02
536.854	0.01
537.049	0.01
537.244	0.01
537.439	-0.02
537.634	0.04
537.828	-0.01
538.023	0
538.218	-0.03
538.413	-0
538.608	-0.01
538.803	-0.01
538.997	-0.05
539.192	0.02
539.387	0.01
539.582	-0.02
539.776	-0.01
539.971	-0
540.166	-0
540.36	-0.04
540.555	-0.01
540.75	-0.01
540.944	-0.02
541.139	-0.04
541.334	-0.02
541.528	-0.02
541.723	0.01
541.917	-0.03
542.112	-0.06
542.306	-0.03
542.501	-0.02
542.695	-0
542.89	-0.03
543.084	0.01
543.279	-0.01
543.473	-0.01
543.668	-0.02
543.862	-0.02
544.056	0.01
544.251	-0.02
544.445	-0.01
544.64	-0.02
544.834	-0.03
545.028	0
545.222	-0.01
545.417	0.02
545.611	-0
545.805	0.01
546	-0.01
546.194	-0.02
546.388	-0.01
546.582	-0
546.776	-0
546.97	0.03
547.165	0.01
547.359	0.02
547.553	-0.01
547.747	0
547.941	-0.01
548.135	-0.01
548.329	0.02
548.523	0.03
548.717	-0.01
548.911	-0.02
549.105	-0
549.299	-0.01
549.493	0.02
549.687	0
549.881	0.01
550.075	-0.01
550.269	-0.04
550.463	0.02
550.657	-0
550.85	0
551.044	-0.04
551.238	0.01
551.432	-0.01
551.626	-0.04
551.82	0
552.013	-0.04
552.207	0
552.401	0.01
552.594	-0
552.788	-0
552.982	-0.02
553.176	0
553.369	0.01
553.563	-0
553.756	-0.04
553.95	-0.05
554.144	-0.02
554.337	0.04
554.531	-0
554.724	0.02
554.918	-0.01
555.111	0
555.305	0.01
555.498	0.03
555.692	0.01
555.885	-0.02
556.079	-0
556.272	-0.03
556.466	0.04
556.659	0.01
556.852	-0.01
557.046	-0.02
557.239	-0
557.432	-0.03
557.626	-0.05
557.819	-0
558.012	-0
558.206	-0.01
558.399	-0.01
558.592	0
558.785	-0.02
558.979	0.01
559.172	-0.03
559.365	0
559.558	0.02
559.751	-0.01
559.944	-0
560.138	-0
560.331	-0
560.524	-0.02
560.717	-0.02
560.91	0
561.103	0.01
561.296	-0.01
561.489	0.01
561.682	-0.02
561.875	0.01
562.068	0.04
562.261	-0.01
562.454	0.01
562.647	0.02
562.84	-0.01
563.032	0
563.225	-0
563.418	0
563.611	-0.03
563.804	0
563.997	-0.06
564.19	-0.05
564.382	0.01
564.575	-0.02
564.768	-0
564.961	-0.01
565.153	-0.03
565.346	0.02
565.539	0.02
565.731	0.04
565.924	-0
566.117	-0
566.309	-0
566.502	-0.02
566.695	-0.01
566.887	0.02
567.08	-0.03
567.272	-0.01
567.465	-0.02
567.657	0.01
567.85	0.03
568.042	0
568.235	0.04
568.427	-0.02
568.62	-0
568.812	-0
569.005	0
569.197	-0.02
569.389	0.02
569.582	0.01
569.774	0
569.966	-0.03
570.159	-0.04
570.351	-0
570.543	-0.03
570.736	-0.02
570.928	-0.04
571.12	0.02
571.312	-0.02
571.505	-0.05
571.697	0.04
571.889	-0.01
572.081	-0.01
572.273	-0.05
572.465	0.01
572.658	-0.02
572.85	0.01
573.042	-0.02
573.234	-0.02
573.426	0.02
573.618	-0.04
573.81	0.01
574.002	0.02
574.194	0.04
574.386	-0.06
574.578	-0.08
574.77	-0.03
574.962	-0.01
575.154	-0.05
575.346	-0.01
575.538	0.03
575.729	-0.03
575.921	-0.02
576.113	-0.02
576.305	0.01
576.497	-0.02
576.689	-0.02
576.88	-0.04
577.072	0.02
577.264	0.01
577.456	-0.02
577.647	-0.07
577.839	0
578.031	0.05
578.223	-0.05
578.414	-0.04
578.606	0.01
578.798	0
578.989	-0.05
579.181	-0.01
579.372	-0.01
579.564	-0.02
579.755	0.03
579.947	-0.01
580.139	0
580.33	-0.04
580.522	-0.03
580.713	-0.09
580.905	0
581.096	0.01
581.287	-0
581.479	-0.03
581.67	0.01
581.862	-0
582.053	-0.02
582.244	-0.06
582.436	-0.01
582.627	-0.02
582.818	-0.02
583.01	-0.03
583.201	0.01
583.392	0.01
583.583	-0
583.775	-0.03
583.966	-0
584.157	-0.03
584.348	-0.02
584.54	-0.06
584.731	0
584.922	-0.03
585.113	-0.02
585.304	0.02
585.495	0.03
585.686	-0.01
585.877	0.02
586.068	0.02
586.259	0.02
586.45	-0.01
586.641	-0.04
586.832	-0.06
587.023	-0.01
587.214	-0.02
587.405	0.01
587.596	-0.05
587.787	0.05
587.978	-0.02
588.169	-0.02
588.36	-0.04
588.551	-0
588.742	-0.03
588.932	-0.01
589.123	-0.01
589.314	0.02
589.505	-0.01
589.696	-0.01
589.886	-0.04
590.077	-0.06
590.268	-0.01
590.458	-0.05
590.649	-0.06
590.84	0.04
591.03	-0
591.221	-0.06
591.412	-0.06
591.602	0
591.793	0.04
591.984	-0.05
592.174	-0.02
592.365	0.05
592.555	-0.04
592.746	-0
592.936	-0.01
593.127	0.01
593.317	0.02
593.508	-0.03
593.698	-0.02
593.889	-0.02
594.079	0
594.269	-0.04
594.46	-0.01
594.65	-0.04
594.84	-0.04
595.031	-0.05
595.221	-0.03
595.411	-0.05
595.602	0.01
595.792	-0.01
595.982	-0.02
596.172	0.02
596.363	-0.02
596.553	-0
596.743	-0.03
596.933	-0.02
597.123	0.04
597.314	-0.03
597.504	-0.02
597.694	0.04
597.884	-0
598.074	-0.04
598.264	-0.04
598.454	0.02
598.644	-0.02
598.834	-0
599.024	-0.08
599.214	-0.01
599.404	0.03
599.594	-0.03
599.784	-0.05
599.974	0.05
600.164	0.02
600.354	-0.02
600.544	-0.06
600.734	0
600.924	0.03
601.114	-0.02
601.303	-0.02
601.493	-0
601.683	0.01
601.873	0.01
602.063	-0.06
602.252	0.01
602.442	-0.08
602.632	-0.04
602.821	-0.05
603.011	0.02
603.201	-0.01
603.39	-0.05
603.58	-0.02
603.77	-0.02
603.959	0.02
604.149	-0
604.339	-0.01
604.528	0.02
604.718	0.04
604.907	0.01
605.097	-0.02
605.286	-0.05
605.476	0.02
605.665	-0
605.855	-0.02
606.044	0.02
606.234	0.03
606.423	-0.04
606.612	-0.05
606.802	0.01
606.991	0.03
607.181	-0.01
607.37	-0.06
607.559	-0
607.749	-0.06
607.938	-0.02
608.127	-0.03
608.316	-0.02
608.506	-0.01
608.695	-0.03
608.884	-0.02
609.073	0.01
609.263	0.01
609.452	-0
609.641	-0.01
609.83	-0.02
610.019	0.01
610.208	-0.06
610.397	0.02
610.586	0.02
610.775	-0.05
610.965	-0.05
611.154	-0.04
611.343	0.01
611.532	-0.02
611.721	-0.03
611.91	-0.03
612.099	0.02
612.287	-0.02
612.476	-0.03
612.665	-0.02
612.854	-0.02
613.043	-0.01
613.232	-0.02
613.421	-0.07
613.61	0.02
613.798	-0.04
613.987	0.02
614.176	-0.02
614.365	-0.01
614.554	-0.01
614.742	0.02
614.931	-0.03
615.12	0.01
615.309	-0.04
615.497	0.02
615.686	-0.04
615.875	-0.03
616.063	-0
616.252	-0.02
616.44	-0.02
616.629	0
616.818	-0
617.006	-0.03
617.195	0.01
617.383	0.02
617.572	0.02
617.76	-0.05
617.949	-0.04
618.137	0.01
618.326	0.04
618.514	-0.08
618.703	-0.04
618.891	0.04
619.079	-0.07
619.268	0
619.456	-0.05
619.644	0.01
619.833	0
620.021	-0.03
620.209	-0.06
620.398	0.02
620.586	-0.02
620.774	0.02
620.962	-0.02
621.151	0.07
621.339	-0.03
621.527	-0.05
621.715	-0.03
621.903	-0.04
622.092	-0.06
622.28	-0
622.468	-0.03
622.656	-0.03
622.844	0.02
623.032	-0.04
623.22	-0.07
623.408	0.02
623.596	0
623.784	-0.02
623.972	-0.06
624.16	-0.01
624.348	0.07
624.536	0.01
624.724	-0.05
624.912	0.02
625.1	0.02
625.288	-0.03
625.476	-0.06
625.664	0.02
625.851	-0.04
626.039	-0.01
626.227	-0.03
626.415	-0.04
626.603	-0.07
626.79	-0.02
626.978	-0.04
627.166	-0.01
627.354	-0.02
627.541	-0.05
627.729	-0.09
627.917	0.02
628.104	0.03
628.292	-0.03
628.48	-0.04
628.667	-0.02
628.855	-0.03
629.042	0
629.23	-0.02
629.418	-0.02
629.605	-0.01
629.793	-0.05
629.98	-0.06
630.168	-0.01
630.355	-0.01
630.543	-0.02
630.73	-0.06
630.917	0
631.105	0.06
631.292	-0.04
631.48	-0.02
631.667	0.06
631.854	-0
632.042	-0.04
632.229	-0.05
632.416	0
632.604	-0
632.791	-0.09
632.978	0.01
633.165	0
633.353	0.05
633.54	0.02
633.727	-0.06
633.914	-0.04
634.101	-0.1
634.289	0.01
634.476	-0.03
634.663	-0.06
634.85	0.01
635.037	-0.05
635.224	-0.07
635.411	0.02
635.598	0.01
635.785	-0.01
635.972	-0.03
636.159	0.03
636.346	-0.02
636.533	-0.01
636.72	-0.03
636.907	-0.02
637.094	-0.01
637.281	-0.02
637.468	0.01
637.655	-0.02
637.842	-0.04
638.029	-0.03
638.215	0.02
638.402	-0.03
638.589	-0.05
638.776	-0.03
638.963	-0.03
639.149	0.04
639.336	0.04
639.523	-0.07
639.709	-0.02
639.896	-0.04
640.083	0.05
640.27	0.01
640.456	-0.03
640.643	0.03
640.829	-0.09
641.016	-0.01
641.203	-0.07
641.389	0
641.576	-0.02
641.762	-0.02
641.949	-0.06
642.135	-0
642.322	-0.01
642.508	-0.05
642.695	-0.04
642.881	-0.01
643.068	-0.03
643.254	-0
643.441	0.01
643.627	-0.02
643.813	-0.02
644	0.05
644.186	-0.03
644.372	-0.04
644.559	0.01
644.745	-0.02
644.931	-0.06
645.118	-0.02
645.304	-0.02
645.49	-0.04
645.676	-0.01
645.862	-0.02
646.049	0.04
646.235	0.01
646.421	0.06
646.607	0.06
646.793	-0.03
646.979	-0.02
647.165	0.01
647.352	0
647.538	0.01
647.724	-0.01
647.91	0
648.096	0.01
648.282	0.04
648.468	-0.03
648.654	0.02
648.84	-0.03
649.026	0
649.212	-0.02
649.397	-0.07
649.583	-0.03
649.769	-0.02
649.955	-0.02
650.141	0.01
650.327	0.05
650.513	-0.01
650.698	-0.02
650.884	-0.11
651.07	0.01
651.256	-0
651.442	-0.04
651.627	-0.02
651.813	0.03
651.999	-0.04
652.184	0.02
652.37	-0.02
652.556	-0.03
652.741	0.05
652.927	-0.08
653.113	-0.04
653.298	-0.03
653.484	-0.02
653.669	-0.06
653.855	-0.01
654.04	0.02
654.226	-0.03
654.412	-0.04
654.597	-0.04
654.782	0
654.968	0
655.153	-0.01
655.339	-0.06
655.524	-0.08
655.71	0.02
655.895	-0.02
656.08	-0.04
656.266	0
656.451	-0.03
656.636	-0.06
656.822	-0.03
657.007	-0.06
657.192	-0.02
657.378	-0.06
657.563	-0.01
657.748	-0
657.933	0.02
658.118	-0.01
658.304	-0.06
658.489	0.05
658.674	0.02
658.859	-0.07
659.044	0
659.229	0.01
659.414	-0.06
659.599	-0.03
659.785	-0.06
659.97	-0.03
660.155	0.03
660.34	-0.05
660.525	-0.05
660.71	-0.03
660.895	0.01
661.08	-0
661.264	-0.04
661.449	0.03
661.634	0.07
661.819	0
662.004	-0.02
662.189	-0.1
662.374	-0.04
662.559	-0.05
662.743	-0.08
662.928	-0.01
663.113	-0.02
663.298	-0.05
663.483	-0.06
663.667	0.02
663.852	-0.06
664.037	-0.01
664.221	-0.07
664.406	-0
664.591	-0.06
664.775	-0.02
664.96	-0.02
665.145	0.03
665.329	-0.01
665.514	-0.02
665.698	-0.03
665.883	-0.05
666.068	0.05
666.252	-0.01
666.437	-0.08
666.621	-0.04
666.806	-0.02
666.99	-0
667.174	-0.08
667.359	0.06
667.543	-0.03
667.728	-0.05
667.912	-0.11
668.096	0.03
668.281	-0.07
668.465	-0.04
668.649	-0.03
668.834	-0.04
669.018	-0.01
669.202	-0.04
669.387	-0.05
669.571	0.03
669.755	-0.07
669.939	-0.01
670.124	-0.06
670.308	0.06
670.492	0.04
670.676	-0.02
670.86	-0.02
671.044	-0.04
671.228	0.01
671.413	-0.04
671.597	-0.07
671.781	-0.04
671.965	0.01
672.149	-0.02
672.333	-0.03
672.517	-0.05
672.701	0.02
672.885	0.01
673.069	-0.08
673.253	0.04
673.437	-0.04
673.621	-0
673.804	-0.04
673.988	-0.02
674.172	0.01
674.356	-0.04
674.54	-0.02
674.724	0.08
674.908	-0.04
675.091	-0
675.275	0.01
675.459	0.01
675.643	-0.02
675.826	-0.01
676.01	0.01
676.194	0.01
676.377	0.02
676.561	-0.04
676.745	0.01
676.928	0.02
677.112	0.02
677.296	-0.06
677.479	-0.05
677.663	-0.04
677.846	0.03
678.03	-0.06
678.213	-0.07
678.397	0.03
678.58	-0.01
678.764	-0.07
678.947	-0.04
679.131	-0.06
679.314	-0.01
679.498	-0.05
679.681	-0.03
679.865	0.06
680.048	-0.02
680.231	-0
680.415	-0.02
680.598	-0.04
680.781	-0.02
680.965	-0.04
681.148	-0.01
681.331	-0.05
681.514	0.05
681.698	-0
681.881	0.01
682.064	0
682.247	0.02
682.43	-0.09
682.614	-0.01
682.797	0.05
682.98	0.05
683.163	-0.06
683.346	0.01
683.529	-0.02
683.712	-0.06
683.895	0.01
684.078	-0.06
684.261	-0.02
684.444	-0.03
684.627	0
684.81	-0.03
684.993	-0.05
685.176	0.03
685.359	-0.08
685.542	-0.02
685.725	0.06
685.908	0.01
686.091	-0.05
686.274	0.02
686.457	0.02
686.639	0.02
686.822	-0.01
687.005	-0.02
687.188	-0.02
687.371	0.05
687.553	0.03
687.736	0
687.919	0.05
688.102	0.04
688.284	-0.03
688.467	0.01
688.65	-0.03
688.832	-0.02
689.015	-0.04
689.197	-0.08
689.38	0.1
689.563	0.03
689.745	-0.03
689.928	-0.07
690.11	-0.01
690.293	0.06
690.475	-0.03
690.658	-0.04
690.84	-0
691.023	0.01
691.205	-0.05
691.388	0.01
691.57	0.05
691.752	-0.01
691.935	-0.08
692.117	-0.05
692.3	0.02
692.482	-0.05
692.664	-0.02
692.847	-0
693.029	0.04
693.211	-0
693.393	-0.04
693.576	-0.07
693.758	0.04
693.94	-0.03
694.122	-0.04
694.304	-0.07
694.487	-0.04
694.669	0.05
694.851	-0.1
695.033	-0.01
695.215	-0.07
695.397	-0.04
695.579	-0.01
695.761	-0.06
695.943	-0.06
696.125	0.03
696.308	0.01
696.49	-0.1
696.671	0.12
696.853	-0.06
697.035	0.13
697.217	0.03
697.399	0.01
697.581	-0.04
697.763	-0.04
697.945	-0.11
698.127	0.01
698.309	0.04
698.491	-0.01
698.672	0.03
698.854	0.05
699.036	0.02
699.218	-0.05
699.399	0.02
699.581	0.03
699.763	-0.03
699.945	-0.06
700.126	-0.06
700.308	-0.01
700.49	-0
700.671	-0.08
700.853	-0.08
701.035	-0.04
701.216	-0.01
701.398	-0.07
701.579	-0.07
701.761	0.05
701.943	0.03
702.124	-0.05
702.306	-0.07
702.487	0.11
702.669	-0.03
702.85	-0.08
703.031	-0.05
703.213	0.09
703.394	0.06
703.576	-0.06
703.757	0.02
703.938	0.03
704.12	0.24
704.301	-0.04
704.483	-0.08
704.664	0.02
704.845	0.06
705.026	-0.03
705.208	-0.06
705.389	0
705.57	-0.03
705.751	-0.05
705.933	-0.04
706.114	0.03
706.295	-0.04
706.476	-0.09
706.657	0.12
706.838	0
707.02	-0.01
707.201	-0.07
707.382	-0.03
707.563	0.05
707.744	-0.04
707.925	-0.13
708.106	-0.07
708.287	-0.01
708.468	0.08
708.649	-0.07
708.83	0.02
709.011	-0.03
709.192	0.01
709.373	-0.08
709.554	-0.06
709.734	0.05
709.915	0.01
710.096	-0.03
710.277	-0.14
710.458	-0.06
710.639	0.03
710.819	-0.11
711	-0.07
711.181	0.03
711.362	0.03
711.542	0.01
711.723	0.01
711.904	0.01
712.085	-0.01
712.265	-0.02
712.446	-0.07
712.627	0.01
712.807	0.02
712.988	-0.03
713.168	-0.07
713.349	0.06
713.53	-0.23
713.71	-0.06
713.891	-0.06
714.071	-0.04
714.252	-0.06
714.432	-0.07
714.613	-0.1
714.793	-0.01
714.974	0.07
715.154	-0.01
715.334	0.03
715.515	0.04
715.695	-0.08
715.876	-0.04
716.056	-0.05
716.236	-0.03
716.417	-0.11
716.597	-0.09
716.777	0.11
716.957	0.03
717.138	0.03
717.318	0.01
717.498	-0.08
717.678	-0.04
717.859	0.03
718.039	-0.14
718.219	-0
718.399	0.03
718.579	-0.08
718.759	-0.13
718.939	-0.03
719.12	-0.04
719.3	0
719.48	-0.15
719.66	-0.09
719.84	0.02
720.02	-0.03
720.2	-0.08
720.38	-0.07
720.56	0.11
720.74	-0.04
720.92	-0.02
721.1	0.05
721.279	0.06
721.459	0.04
721.639	-0.11
721.819	0.02
721.999	-0.05
722.179	0.01
722.359	-0.09
722.538	-0.04
722.718	-0.01
722.898	-0.03
723.078	-0.07
723.257	-0.09
723.437	0.04
723.617	0
723.797	-0.07
723.976	-0.02
724.156	0.01
724.336	0.05
724.515	0.14
724.695	-0.06
724.874	-0.01
725.054	0.04
725.234	-0.12
725.413	-0.08
725.593	-0.06
725.772	-0.05
725.952	-0.03
726.131	-0.07
726.311	-0.11
726.49	0.04
726.67	-0.14
726.849	-0.1
727.028	0.01
727.208	-0.09
727.387	0.02
727.567	-0.07
727.746	-0
727.925	-0.13
728.105	-0.07
728.284	-0.07
728.463	-0.09
728.643	-0.05
728.822	-0.1
729.001	-0.12
729.18	0.04
729.359	0.01
729.539	-0.06
729.718	0
729.897	0.06
730.076	-0.06
730.255	-0.16
730.434	-0.07
730.614	0.08
730.793	0.04
730.972	-0.07
731.151	-0
731.33	0.05
731.509	-0
731.688	0.01
731.867	-0.02
732.046	-0.22
732.225	0.15
732.404	-0.06
732.583	-0.09
732.762	-0.07
732.941	0.03
733.12	0.01
733.298	-0.03
733.477	0.12
733.656	-0
733.835	-0.19
734.014	0.06
734.193	0.06
734.371	0.02
734.55	0.02
734.729	-0.05
734.908	-0
735.086	0.04
735.265	-0.06
735.444	-0.09
735.623	-0.14
735.801	-0.1
735.98	-0.11
736.159	0.02
736.337	-0.03
736.516	-0.08
736.694	-0
736.873	-0.04
737.052	0.24
737.23	0.04
737.409	-0.05
737.587	0.11
737.766	-0.14
737.944	-0.04
738.123	0.03
738.301	0.03
738.479	-0.12
738.658	0.07
738.836	-0.2
739.015	0.05
739.193	0
739.371	-0.07
739.55	0.04
739.728	-0.16
739.906	0.13
740.085	0.13
740.263	0
740.441	-0.21
740.62	0.27
740.798	-0
740.976	-0.11
741.154	-0.18
741.332	0.15
741.511	-0.04
741.689	-0.06
741.867	0.05
742.045	-0.04
742.223	0.02
742.401	-0.18
742.579	-0.01
742.757	0
742.935	-0.1
743.114	-0.02
743.292	-0.05
743.47	-0.11
743.648	-0
743.826	-0.18
744.004	0.06
744.181	0.07
744.359	-0.12
744.537	-0.04
744.715	-0.01
744.893	-0.02
745.071	-0.02
745.249	-0.04
745.427	-0.01
745.605	0.06
745.782	0.03
745.96	-0.05
746.138	0.08
746.316	0.03
746.493	-0.09
746.671	0.02
746.849	-0.07
747.027	0.2
747.204	-0.14
747.382	0.03
747.56	-0.16
747.737	0.14
747.915	-0.05
748.093	-0.01
748.27	-0.06
748.448	0.02
748.625	-0.3
748.803	-0.21
748.98	-0.08
749.158	0.06
749.335	0.14
749.513	-0.03
749.69	-0
749.868	-0.06
750.045	0.08
750.223	-0.05
750.4	-0.32
750.578	0.18
750.755	-0.03
750.932	-0.23
751.11	0.13
751.287	-0.18
751.464	0.06
751.642	-0.08
751.819	-0.04
751.996	-0.06
752.173	-0.15
752.351	-0.08
752.528	-0.06
752.705	-0
752.882	-0.09
753.06	-0.01
753.237	0.04
753.414	0.1
753.591	0.22
753.768	0.05
753.945	-0.01
754.122	-0.01
754.299	0.09
754.476	-0.08
754.654	-0.05
754.831	0.12
755.008	0.06
755.185	0.02
755.362	-0.12
755.539	-0.04
755.716	-0.19
755.892	-0.03
756.069	-0.05
756.246	-0.05
756.423	-0.11
756.6	0.11
756.777	0.03
756.954	0.24
757.131	0.03
757.307	-0.16
757.484	-0.11
757.661	-0.01
757.838	0.04
758.015	-0.1
758.191	0.03
758.368	0.1
758.545	0.12
758.721	0.06
758.898	-0.05
759.075	0.06
759.251	0
759.428	0.07
759.605	-0.17
759.781	-0.08
759.958	0.1
760.134	0.01
760.311	-0.14
760.488	0.14
760.664	0.14
760.841	-0.1
761.017	-0.15
761.194	-0.05
761.37	0.14
761.547	0.04
761.723	-0.22
761.899	0.02
762.076	-0.13
762.252	-0.09
762.429	-0.12
762.605	-0.06
762.781	-0.08
762.958	0.13
763.134	-0.06
763.31	-0.1
763.486	0.13
763.663	-0.17
763.839	0.14
764.015	-0.21
764.191	-0.09
764.368	-0.05
764.544	-0.06
764.72	-0.09
764.896	0
765.072	0.04
765.248	-0.03
765.425	-0.03
765.601	0.01
765.777	-0.07
765.953	-0.21
766.129	-0.14
766.305	-0.07
766.481	0.12
766.657	-0.02
766.833	0.17
767.009	-0.03
767.185	-0.19
767.361	-0.09
767.537	-0.05
767.713	0.1
767.889	-0.01
768.065	-0.04
768.24	-0.02
768.416	0.03
768.592	-0.04
768.768	-0.12
768.944	0.03
769.12	-0.04
769.295	-0.1
769.471	0.01
769.647	-0.13
769.823	0.17
769.998	-0.14
770.174	-0.24
770.35	0.28
770.525	0.3
770.701	0.02
770.877	-0
771.052	-0.03
771.228	0.15
771.403	0.13
771.579	0.02
771.755	0.31
771.93	-0.15
772.106	-0.19
772.281	-0.16
772.457	0.1
772.632	0.05
772.808	-0.35
772.983	0.02
773.159	-0.15
773.334	0.07
773.509	-0.13
773.685	-0.14
773.86	0.34
774.036	0.08
774.211	-0.01
774.386	-0.09
774.562	-0.01
774.737	0.1
774.912	-0.11
775.087	0.13
775.263	-0.01
775.438	-0.14
775.613	-0.14
775.788	0.02
775.964	0.29
776.139	0.54
776.314	-0.32
776.489	-0.06
776.664	-0.04
776.839	-0.11
777.014	0.03
777.19	0.26
777.365	0.21
777.54	0.14
777.715	-0.11
777.89	-0.06
778.065	-0.21
778.24	-0.08
778.415	0.1
778.59	-0.1
778.765	-0.14
778.94	-0.02
779.115	-0.07
779.289	-0.03
779.464	-0.06
779.639	-0.08
779.814	-0.2
779.989	-0.38
780.164	0.17
780.339	0.04
780.513	-0.27
780.688	-0.2
780.863	0.01
781.038	0.23
781.212	-0.3
781.387	-0.08
781.562	0.2
781.737	0.04
781.911	0.26
782.086	-0.29
782.261	-0.16
782.435	0.22
782.61	-0.07
782.784	-0.07
782.959	-0.06
783.134	-0.05
783.308	-0.39
783.483	-0.11
783.657	0.24
783.832	-0.01
784.006	-0.52
784.181	-0.08
784.355	0.02
784.53	-0.35
784.704	-0.2
784.878	0.22
785.053	0.01
785.227	0.23
785.402	0.44
785.576	-0.15
785.75	-0.03
785.925	0.15
786.099	-0.03
786.273	-0.08
786.448	0.42
786.622	0.29
786.796	-0.01
786.97	-0.25
787.145	0.31
787.319	-0.13
787.493	-0.16
787.667	-0.43
787.841	-0.09
788.015	0.31
788.19	-0.19
788.364	-0.05
788.538	0.11
788.712	0.1
788.886	-0.16
789.06	0.17
789.234	0.21
789.408	-0.22
789.582	-0.22
789.756	0
789.93	-0.07
790.104	-0.03
790.278	0.01
790.452	-0.03
790.626	0.07
790.8	-0.19
790.973	0.06
791.147	0.11
791.321	0.21
791.495	0.41
791.669	0.06
791.843	0.06
792.016	0.04
792.19	0.33
792.364	-0.2
792.538	0.53
792.711	0.18
792.885	-0.06
793.059	-0.27
793.233	-0.62
793.406	0.04
793.58	0.03
793.754	0.07
793.927	-0.07
794.101	0.34
794.274	-0.16
794.448	0.03
794.622	-0.4
794.795	0.41
794.969	-0.22
795.142	0.18
795.316	-0.16
795.489	-0.17
795.663	0.28
795.836	0.33
796.009	-0.06
796.183	0.4
796.356	-0.06
796.53	0.18
796.703	-0.21
796.876	0.36
797.05	0.07
797.223	0.06
797.396	0.2
797.57	0.06
797.743	0.22
797.916	-0.09
798.09	-0.24
798.263	0.14
798.436	-0.03
798.609	-0.07
798.782	-0.18
798.956	0.01
799.129	0.05
799.302	-0.11
799.475	-0.08
799.648	-0.16
799.821	-0.05
799.994	-0.04
800.167	-0.66
800.34	0.07
800.514	0.03
800.687	-0.27
800.86	-0.23
801.033	-0.06
801.206	0.18
801.379	-0.39
801.551	0.15
801.724	0.17
801.897	0.16
802.07	-0.24
802.243	-0.62
802.416	0.07
802.589	-0.06
802.762	0.03
802.935	0.02
803.107	0.03
803.28	0.17
803.453	0.38
803.626	-0.24
803.798	0.01
803.971	-0.19
804.144	-0.15
804.317	-0.21
804.489	0.19
804.662	-0.08
804.835	-0.05
805.007	-0.08
805.18	0.28
805.353	-0.03
805.525	-0.03
805.698	0.02
805.87	0.17
806.043	0.09
806.215	-0.15
806.388	-0.21
806.56	0.27
806.733	0.33
806.905	0.09
807.078	0.04
807.25	-0.26
807.423	0.15
807.595	-0.04
807.768	-0.27
807.94	0.48
808.112	-0.06
808.285	-0.24
808.457	-0.28
808.629	0.06
808.802	0.33
808.974	-0.09
809.146	-0.4
809.318	-0.04
809.491	-0.18
809.663	-0.01
809.835	-0.34
810.007	0
810.18	-0.02
810.352	-0.58
810.524	-0.28
810.696	0.14
810.868	0.36
811.04	-0.09
811.212	-0.39
811.384	0.33
811.556	-0.06
811.728	-0.49
811.901	0.42
812.073	-0.22
812.245	0.27
812.417	-0.03
812.589	-0.49
812.76	0.24
812.932	0.16
813.104	0.28
813.276	-0.29
813.448	0.48
813.62	-0.06
813.792	0.07
813.964	-0.02
814.136	0.37
814.307	-0.21
814.479	-0.17
814.651	-0
814.823	0.79
814.995	-0.19
815.166	0.09
815.338	-0.3
815.51	-0.45
815.681	0.54
815.853	0.09
816.025	-0.24
816.196	0.46
816.368	0.76
816.54	-0.54
816.711	-0.22
816.883	0.17
817.054	0.72
817.226	-0.55
817.398	0.23
817.569	-0.05
817.741	-0.06
817.912	0.04
818.084	-0.5
818.255	0.47
818.426	-0.23
818.598	0.01
818.769	-0.33
818.941	0.32
819.112	0.24
819.283	0.09
819.455	-0.13
819.626	0.29
819.798	0.2
819.969	0.42
820.14	-0.18
820.311	-0.46
820.483	-0.15
820.654	-0
820.825	0.15
820.996	0.04
821.168	-0.55
821.339	-0.11
821.51	-0.51
821.681	-0.48
821.852	0.18
822.023	-0.42
822.195	-1.28
822.366	0.64
822.537	0.47
822.708	0.13
822.879	-0.47
823.05	0.54
823.221	-0.35
823.392	0.38
823.563	0.18
823.734	0.48
823.905	0.11
824.076	-0.54
824.247	-0.62
824.418	-0.35
824.589	0.46
824.759	0.1
824.93	-0.45
825.101	-0.32
825.272	0.64
825.443	0.16
825.614	0.24
825.784	-1.16
825.955	0.23
826.126	0.28
826.297	0.63
826.467	-0.13
826.638	0.91
826.809	-0.85
826.98	-0.39
827.15	-0.19
827.321	0.26
827.492	1.14
827.662	-0.36
827.833	0.45
828.003	0.62
828.174	-0.25
828.345	-0.43
828.515	0.37
828.686	-0.36
828.856	0.21
829.027	-0.02
829.197	0.22
829.368	-0.01
829.538	-1.26
829.709	-0.82
829.879	0.16
830.049	0.12
830.22	-0.27
830.39	-0.18
830.56	0.32
830.731	-0.47
830.901	-0.59
831.072	-0.13
831.242	-0.14
831.412	0.9
831.582	-0.34
831.753	-0.79
831.923	0.42
832.093	0.3
832.263	-0.82
832.434	-0.24
832.604	-0.77
832.774	0.7
832.944	-0.02
833.114	-0.65
833.284	-0.38
833.454	-0.62
833.624	-0.61
833.795	-0.04
833.965	0.75
834.135	0.66
834.305	-1.33
834.475	-0.98
834.645	-0.28
834.815	-0.26
834.985	-1.04
835.155	-0.65
835.325	0.04
835.494	0.18
835.664	0.06
835.834	-0.98
836.004	0.03
836.174	0.48
836.344	-0.24
836.514	-1.47
836.684	-0.53
836.853	-0.39
837.023	0.01
837.193	-0.45
837.363	1.22
837.532	1.06
837.702	0.04
837.872	-0.44
838.041	0.23
838.211	0.67
838.381	-1.02
838.55	-0.63
838.72	1.79
838.89	1.24
839.059	0.14
839.229	-0.62
839.398	1.96
839.568	0.07
839.738	-0.21
839.907	1.1
840.077	0.45
840.246	-0.85
840.416	-0.9
840.585	-0.99
840.755	1.5
840.924	1.25
841.093	-1.07
841.263	-0.59
841.432	0.71
841.602	-0.12
841.771	-1.1
841.94	0.17
842.11	1.45
842.279	1.4
842.448	-0.99
842.617	-1.19
842.787	0.85
842.956	-1.4
843.125	0.15
843.294	-0.02
843.464	0.73
843.633	-0.11
843.802	-1.09
843.971	-0.04
844.14	-0
844.309	0.11
844.479	-0.21
844.648	-1.71
844.817	-0.71
844.986	0.04
845.155	0.01
845.324	-0.36
845.493	-0.58
845.662	-0.94
845.831	0.6
846	-1.12
846.169	-0.44
846.338	1.4
846.507	0.27
846.676	-0.1
846.844	-0.54
847.013	0.58
847.182	0.18
847.351	-0.47
847.52	0.35
847.689	0.37
847.858	-0.5
848.026	-0.5
848.195	0.24
848.364	-0.41
848.533	-0.56
848.701	-1.17
848.87	-0.14
849.039	0.76
849.207	-0.1
849.376	0.39
849.545	1.47
849.713	-0.33
849.882	-0.67
850.051	-0.56
850.219	0.25
850.388	0.46
850.556	0.29
850.725	-0.72
850.893	0.27
851.062	-0.46
851.23	0.23
851.399	-0.95
851.567	-1.3
851.736	-0.58
851.904	-0.92
852.073	-0.83
852.241	0.62
852.41	0.16
852.578	0.39
852.746	-2.15
852.915	-0.51
853.083	0.34
853.251	-1.17
853.42	-1.14
853.588	-0.39
853.756	0.72
853.924	-0.61
854.093	-0.94
854.261	-1.26
854.429	-1.05
854.597	0.41
854.765	-1.73
854.934	0.09
855.102	1.58
855.27	-0.64
855.438	0.52
855.606	0.79
855.774	1.52
855.942	-1.25
856.11	-1.34
856.278	0.41
856.446	1.11
856.614	0.02
856.782	-1.17
856.95	1.41
857.118	0.28
857.286	-0.96
857.454	-0.47
857.622	1.06
857.79	-0.07
857.958	-0.52
858.126	-2
858.294	-3.11
858.462	-0.79
858.629	-0.59
858.797	-1.55
858.965	0.02
859.133	0.14
859.301	-0.96
859.468	0.51
859.636	-0.75
859.804	1.59
859.971	0.46
860.139	-1.8
860.307	1.32
860.474	1.18
860.642	-0.81
860.81	-1.74
860.977	0.36
861.145	0.82
861.313	-0.26
861.48	-1.31
861.648	1.53
861.815	-0.48
861.983	-1.6
862.15	-0.75
862.318	0.32
862.485	0.87
862.653	-0.28
862.82	-1.39
862.988	2.73
863.155	0.63
863.322	-1.78
863.49	-2.18
863.657	-1.27
863.824	1.07
863.992	-0.36
864.159	0.55
864.326	2.27
864.494	-0.29
864.661	2.36
864.828	-2
864.996	0.05
865.163	1.94
865.33	-2.05
865.497	-2.62
865.664	-0.13
865.832	-0.89
865.999	-0.25
866.166	-2.06
866.333	-1.67
866.5	0.27
866.667	-0.14
866.834	-1.38
867.001	-0.23
867.168	-2.78
867.335	-0.48
867.502	-2.61
867.669	1.08
867.836	3.12
868.003	-2.05
868.17	1.32
868.337	-1.66
868.504	2.83
868.671	-1.71
868.838	-1.79
869.005	-0.22
869.172	-0.02
869.339	1.3
869.505	-2.13
869.672	-0
869.839	3.05
870.006	-0.11
870.173	-1.63
870.339	-0.44
870.506	2.11
870.673	0.61
870.84	0.28
871.006	-0.92
871.173	-0.82
871.34	0.06
871.506	-1.59
871.673	2.04
871.839	-1.7
872.006	0.55
872.173	-0.66
872.339	1.88
872.506	1.98
872.672	0.53
872.839	-2.57
873.005	-1.17
873.172	3.91
873.338	0.38
873.505	-0.15
873.671	1.95
873.838	1.4
874.004	-1.47
874.171	-1.63
874.337	1.74
874.503	0.86
874.67	-1.24
874.836	-0.11
875.002	3.66
875.169	1.47
875.335	0.85
875.501	-0.39
875.668	1.78
875.834	0.46
876	-1.28
876.166	1.11
876.332	0.14
876.499	3.82
876.665	-1.35
876.831	-0.72
876.997	3.97
877.163	0.46
877.329	-2.62
877.495	-0.19
877.662	1.11
877.828	0.2
877.994	-1.72
878.16	-3.11
878.326	0.02
878.492	0.96
878.658	-0.48
878.824	-0.02
878.99	1.8
879.156	1.11
879.322	0.82
879.487	1.88
879.653	0.07
879.819	-0.84
879.985	0.15
880.151	-0.56
880.317	0.97
880.483	-0.81
880.648	1.17
880.814	-2.82
880.98	-0.15
881.146	-4.08
881.312	-0.79
881.477	-2.03
881.643	2.01
881.809	0.92
881.974	2.25
882.14	-2.54
882.306	0.67
882.471	3.88
882.637	-0.89
882.803	1.35
882.968	2.45
883.134	2.8
883.299	-1.16
883.465	0.58
883.63	2.4
883.796	1.75
883.961	-0.1
884.127	0.83
884.292	-4.51
884.458	-1.46
884.623	-1.46
