Data from Apollo_Calib_20240827__AbsoluteIrradiance__75__00-24-02-498.txt Node

Date: Wed Aug 28 00:24:02 BST 2024
User: biology
Spectrometer: FLMT08252
Trigger mode: 0
Integration Time (sec): 5.000000E-1
Scans to average: 5
Electric dark correction enabled: true
Nonlinearity correction enabled: false
Boxcar width: 0
XAxis mode: Wavelengths
Number of Pixels in Spectrum: 3648
>>>>>Begin Spectral Data<<<<<
179.588	-0
179.809	-0
180.03	-0
180.251	-0
180.473	-0
180.694	0
180.915	0
181.136	-0
181.357	-0
181.578	0
181.799	-0
182.02	-0
182.241	0
182.462	-0
182.683	0
182.904	-0
183.125	-0
183.346	0
183.567	0
183.788	-0
184.009	-0
184.23	-0
184.451	-0
184.672	-0
184.892	-0
185.113	0
185.334	0
185.555	-0
185.776	-0
185.996	-0
186.217	-0
186.438	0
186.659	-0
186.879	0
187.1	0
187.321	-0
187.541	-0
187.762	0
187.983	-0
188.203	0
188.424	-0
188.644	-0
188.865	-0
189.086	-0
189.306	-0
189.527	-0
189.747	-0
189.968	-0
190.188	0
190.409	0
190.629	0
190.849	-0
191.07	-0
191.29	0
191.511	-0
191.731	-0
191.951	-0
192.172	-0
192.392	-0
192.612	-0
192.833	-0
193.053	0
193.273	0
193.493	-0
193.714	-0
193.934	0
194.154	0
194.374	-0
194.594	0
194.815	0
195.035	-0
195.255	-0
195.475	-0
195.695	0
195.915	0
196.135	-0
196.355	0
196.575	0
196.795	-0
197.015	-0
197.235	-0
197.455	-0
197.675	0
197.895	-0
198.115	-0
198.335	0
198.555	-0
198.775	0
198.995	-0
199.214	0
199.434	-0
199.654	-0
199.874	-0
200.094	0.84
200.313	-0.52
200.533	-0.54
200.753	-1.31
200.973	0.21
201.192	0.19
201.412	-0.92
201.632	-0.45
201.851	0.55
202.071	0.06
202.291	-0.31
202.51	-0.37
202.73	-0.03
202.95	0.14
203.169	-0.43
203.389	-0.24
203.608	-0.38
203.828	-0.45
204.047	-0.76
204.267	0.5
204.486	-0.04
204.706	0.03
204.925	-0.07
205.145	-0.29
205.364	0.19
205.583	0.44
205.803	0.2
206.022	-0.58
206.242	-0.07
206.461	-0.04
206.68	-0.14
206.9	0.49
207.119	0.56
207.338	0.3
207.557	-0.29
207.777	-0.09
207.996	-0.41
208.215	0.39
208.434	-0.22
208.654	-0.58
208.873	0.03
209.092	0.56
209.311	-0.27
209.53	-0.08
209.749	-0.14
209.968	-0.33
210.187	0
210.407	-0.45
210.626	-0.41
210.845	0.31
211.064	-0.05
211.283	-0.27
211.502	0.24
211.721	0.05
211.94	0.01
212.159	-0.04
212.377	0.02
212.596	0.28
212.815	0.09
213.034	0.11
213.253	0.39
213.472	0.11
213.691	-0.05
213.91	-0.25
214.128	-0.32
214.347	0.08
214.566	-0.37
214.785	-0.32
215.003	0.12
215.222	0.1
215.441	-0.02
215.66	-0.29
215.878	-0.16
216.097	0.19
216.316	-0.37
216.534	-0.13
216.753	-0.16
216.972	-0.17
217.19	-0.18
217.409	-0.21
217.627	-0.22
217.846	-0.07
218.064	0.09
218.283	-0.21
218.501	0.36
218.72	0.14
218.938	-0.29
219.157	-0.18
219.375	0.02
219.594	0.02
219.812	-0.22
220.031	-0.27
220.249	0.28
220.467	0.28
220.686	-0.13
220.904	-0.36
221.122	-0.15
221.341	0.27
221.559	0.06
221.777	-0.34
221.995	-0.1
222.214	-0.02
222.432	0.02
222.65	0.09
222.868	0.15
223.086	0.19
223.305	0.04
223.523	-0
223.741	0.11
223.959	-0.21
224.177	-0.36
224.395	-0.03
224.613	-0.06
224.831	0.1
225.049	-0.17
225.267	-0.03
225.485	-0.02
225.703	0.01
225.921	-0.11
226.139	-0.05
226.357	0.16
226.575	0.11
226.793	-0.11
227.011	0.43
227.229	0
227.447	0.01
227.665	-0.2
227.883	-0.3
228.1	-0.01
228.318	0.04
228.536	-0.33
228.754	-0.15
228.972	0.07
229.189	0.07
229.407	-0.05
229.625	-0.16
229.843	0.06
230.06	0.07
230.278	-0.12
230.496	-0.09
230.713	0.1
230.931	0.04
231.149	-0.02
231.366	-0.24
231.584	-0.13
231.801	0.34
232.019	-0.04
232.236	-0.15
232.454	-0.12
232.671	0.13
232.889	-0
233.106	-0.15
233.324	-0.09
233.541	-0.05
233.759	-0.07
233.976	-0.12
234.194	0.02
234.411	0.02
234.628	-0.15
234.846	-0.06
235.063	0.06
235.28	-0.07
235.498	-0.13
235.715	-0.21
235.932	0.08
236.149	0.03
236.367	-0.18
236.584	-0.05
236.801	-0.14
237.018	0.06
237.236	0.05
237.453	-0.15
237.67	0.02
237.887	-0.05
238.104	-0.09
238.321	-0.17
238.538	-0.18
238.755	0.1
238.973	-0.19
239.19	-0.1
239.407	0.02
239.624	0
239.841	-0.17
240.058	-0.06
240.275	0.11
240.492	-0.01
240.709	-0.08
240.925	-0.08
241.142	0.07
241.359	-0.14
241.576	-0.08
241.793	-0.02
242.01	0.04
242.227	0.05
242.444	0.02
242.66	0.04
242.877	0.01
243.094	-0.1
243.311	0
243.527	-0.1
243.744	0.05
243.961	-0.02
244.178	-0.05
244.394	0.04
244.611	0.14
244.828	0.13
245.044	-0.15
245.261	-0.04
245.477	-0.02
245.694	0
245.911	-0.02
246.127	0
246.344	0.09
246.56	0.02
246.777	-0.01
246.993	-0.03
247.21	0
247.426	0.05
247.643	-0.1
247.859	-0.11
248.076	-0.08
248.292	0.16
248.508	-0.05
248.725	-0.01
248.941	0.02
249.157	0.06
249.374	-0.16
249.59	0.04
249.806	-0.06
250.023	-0
250.239	-0.06
250.455	-0.08
250.671	-0.06
250.888	-0.02
251.104	0.09
251.32	-0.15
251.536	-0.03
251.752	-0.1
251.969	0.02
252.185	-0.01
252.401	0.15
252.617	0.06
252.833	-0
253.049	-0.01
253.265	0.02
253.481	-0.01
253.697	-0.1
253.913	-0.03
254.129	0.04
254.345	-0
254.561	-0.02
254.777	-0.03
254.993	0.07
255.209	0.05
255.425	-0.14
255.641	-0.04
255.857	0.13
256.073	0.03
256.288	-0.1
256.504	-0.05
256.72	0.04
256.936	0.06
257.152	0
257.367	-0.14
257.583	0.05
257.799	0.02
258.015	-0.07
258.23	-0.09
258.446	0.06
258.662	-0.02
258.877	-0.14
259.093	-0.1
259.309	0.04
259.524	0
259.74	-0.04
259.955	-0.12
260.171	-0.06
260.387	-0.08
260.602	0.07
260.818	0.03
261.033	-0.07
261.249	-0.12
261.464	-0.06
261.68	-0.07
261.895	-0.07
262.11	0.07
262.326	-0.05
262.541	-0.09
262.757	0.11
262.972	0.04
263.187	-0.04
263.403	0.02
263.618	0.02
263.833	-0.04
264.049	-0.08
264.264	-0.05
264.479	0.1
264.694	0.12
264.91	-0.06
265.125	-0.06
265.34	0
265.555	0.13
265.77	0
265.986	-0.03
266.201	0.03
266.416	0.08
266.631	0.01
266.846	-0.05
267.061	0
267.276	0.01
267.491	-0.14
267.706	0.05
267.921	0.01
268.136	0.02
268.351	-0
268.566	-0.06
268.781	0.06
268.996	0.06
269.211	0.03
269.426	-0.08
269.641	-0.03
269.856	0.01
270.071	-0.09
270.285	-0.08
270.5	0.07
270.715	0.04
270.93	-0.05
271.145	0
271.359	0.01
271.574	-0.02
271.789	-0.01
272.004	-0.02
272.218	0
272.433	0.03
272.648	-0.08
272.862	0.1
273.077	-0.04
273.292	0.03
273.506	-0.04
273.721	-0.01
273.936	-0.01
274.15	0.03
274.365	-0.03
274.579	0.06
274.794	0.05
275.008	0.04
275.223	-0.09
275.437	-0.04
275.652	0.09
275.866	0.05
276.081	-0.02
276.295	0.05
276.509	-0.03
276.724	0.02
276.938	-0.02
277.153	0
277.367	0.07
277.581	-0.04
277.796	-0.07
278.01	-0.08
278.224	0.09
278.438	0.06
278.653	-0.05
278.867	0.01
279.081	0.01
279.295	-0.08
279.51	-0.04
279.724	-0.09
279.938	0.03
280.152	-0.02
280.366	-0.08
280.58	0
280.794	0.03
281.008	0.03
281.222	0.02
281.437	0.07
281.651	-0
281.865	0.08
282.079	-0.03
282.293	-0.09
282.507	-0.05
282.721	-0.05
282.935	-0.04
283.148	-0.12
283.362	-0
283.576	-0.06
283.79	0.01
284.004	-0.02
284.218	0.07
284.432	-0.06
284.646	-0.08
284.859	-0.03
285.073	-0.06
285.287	-0
285.501	-0.04
285.714	-0.06
285.928	-0.02
286.142	-0.04
286.356	-0.03
286.569	-0.05
286.783	0.02
286.997	0.07
287.21	0.03
287.424	-0.01
287.637	0.02
287.851	-0.01
288.065	-0.02
288.278	-0.01
288.492	0.04
288.705	0.02
288.919	0.03
289.132	-0.09
289.346	0.07
289.559	-0.06
289.773	-0.04
289.986	-0.02
290.2	-0.01
290.413	0
290.626	-0.07
290.84	0
291.053	-0.05
291.267	0.03
291.48	0
291.693	-0.01
291.906	-0.04
292.12	-0.01
292.333	-0.07
292.546	-0.06
292.76	0.06
292.973	-0.01
293.186	0.06
293.399	0.03
293.612	0.04
293.826	-0
294.039	-0.03
294.252	-0
294.465	0.04
294.678	0.01
294.891	-0.01
295.104	-0.03
295.317	-0.03
295.53	0.02
295.743	-0.01
295.956	-0.03
296.169	0.08
296.382	0.04
296.595	-0
296.808	-0.04
297.021	0.04
297.234	0.04
297.447	-0.01
297.66	-0
297.873	0.02
298.086	0.03
298.299	-0.02
298.511	-0.09
298.724	0.01
298.937	-0.06
299.15	-0.03
299.363	0
299.575	0.02
299.788	0.03
300.001	-0
300.213	-0.03
300.426	-0.03
300.639	-0.04
300.852	-0.01
301.064	0.03
301.277	0.05
301.489	0.05
301.702	0.01
301.915	-0.03
302.127	-0.02
302.34	-0.03
302.552	-0.01
302.765	-0
302.977	-0.01
303.19	-0.04
303.402	-0.05
303.615	-0.04
303.827	0.01
304.04	-0
304.252	0.01
304.464	0.03
304.677	0.11
304.889	0.03
305.102	-0.03
305.314	-0.02
305.526	0.06
305.739	0.04
305.951	-0.02
306.163	-0.02
306.375	0.07
306.588	-0.06
306.8	-0.01
307.012	-0.09
307.224	0.02
307.436	0.04
307.649	-0.03
307.861	-0.02
308.073	0.04
308.285	-0.01
308.497	-0.01
308.709	-0.05
308.921	-0.01
309.133	0.05
309.346	0.02
309.558	-0.05
309.77	0.01
309.982	0.04
310.194	0.03
310.406	-0.06
310.617	0.08
310.829	0.01
311.041	0.02
311.253	-0.05
311.465	-0.01
311.677	0.01
311.889	-0.01
312.101	-0.05
312.313	0.04
312.524	0.04
312.736	-0.07
312.948	0.01
313.16	0.05
313.372	0.05
313.583	0.02
313.795	-0.01
314.007	-0.06
314.218	0.01
314.43	-0.02
314.642	-0.02
314.853	-0.02
315.065	0.05
315.277	0.02
315.488	-0
315.7	0.01
315.912	0.02
316.123	-0.01
316.335	-0.07
316.546	0.11
316.758	-0.02
316.969	-0.02
317.181	-0.02
317.392	0.01
317.604	0.04
317.815	-0.04
318.026	-0.07
318.238	-0.03
318.449	-0.01
318.661	-0.06
318.872	-0.06
319.083	-0.07
319.295	0.05
319.506	-0.05
319.717	0
319.929	0.02
320.14	0
320.351	-0.01
320.562	-0.01
320.774	-0
320.985	0.04
321.196	-0.06
321.407	-0.08
321.618	0.02
321.829	0.01
322.041	0.02
322.252	-0.01
322.463	-0
322.674	0.01
322.885	-0.05
323.096	-0.01
323.307	-0.01
323.518	-0.01
323.729	-0.06
323.94	0
324.151	0
324.362	0.02
324.573	0.04
324.784	-0.01
324.995	0.04
325.206	-0.01
325.417	-0.05
325.628	-0.01
325.838	-0.01
326.049	0.02
326.26	0.03
326.471	0.02
326.682	0
326.892	-0.02
327.103	-0.06
327.314	-0.07
327.525	0.03
327.735	0
327.946	-0
328.157	-0.01
328.368	0.04
328.578	-0.02
328.789	0.02
328.999	-0.01
329.21	-0
329.421	0.06
329.631	-0.09
329.842	-0.05
330.052	0.03
330.263	-0.01
330.473	0.06
330.684	-0.05
330.894	-0
331.105	-0.01
331.315	-0.01
331.526	-0.06
331.736	0.05
331.947	-0.01
332.157	0.02
332.367	-0.01
332.578	0.01
332.788	0.06
332.999	0.01
333.209	-0.02
333.419	-0.01
333.629	0.02
333.84	0.04
334.05	0
334.26	0.08
334.47	-0.03
334.681	0.04
334.891	-0.02
335.101	0.01
335.311	0.07
335.521	0.01
335.732	-0.04
335.942	0.04
336.152	0.02
336.362	0
336.572	0.03
336.782	0.05
336.992	-0.02
337.202	-0.03
337.412	-0.03
337.622	0.04
337.832	0
338.042	0.01
338.252	-0.01
338.462	-0.03
338.672	-0.01
338.882	-0.03
339.092	-0.02
339.302	0.04
339.511	0.04
339.721	-0.03
339.931	-0.03
340.141	0.03
340.351	0.04
340.561	0.02
340.77	-0
340.98	-0.01
341.19	0.01
341.4	-0.06
341.609	-0.05
341.819	-0.01
342.029	-0.09
342.238	0.01
342.448	-0.05
342.658	0
342.867	0.01
343.077	0.03
343.286	0.02
343.496	-0.02
343.706	0.06
343.915	-0.1
344.125	0.03
344.334	-0.02
344.544	-0.06
344.753	0.02
344.963	-0.01
345.172	-0.09
345.381	-0.02
345.591	-0.02
345.8	0.02
346.01	0.03
346.219	-0
346.428	-0.13
346.638	-0.06
346.847	-0
347.056	0.08
347.266	-0.02
347.475	0.02
347.684	0.02
347.893	0.02
348.103	0.01
348.312	0.02
348.521	-0.01
348.73	-0.02
348.94	0.04
349.149	-0.02
349.358	-0.01
349.567	0.01
349.776	-0.05
349.985	-0.02
350.194	0.05
350.403	0.01
350.612	-0.06
350.821	-0.02
351.03	0.01
351.239	-0.04
351.448	0
351.657	-0.08
351.866	0.03
352.075	0.01
352.284	0.04
352.493	-0.06
352.702	0.03
352.911	0.03
353.12	0.03
353.329	-0.01
353.538	0.03
353.746	-0
353.955	-0.02
354.164	0.02
354.373	0
354.582	0.01
354.79	-0.01
354.999	0.04
355.208	-0.05
355.416	0.06
355.625	-0.04
355.834	-0.04
356.042	0.01
356.251	-0
356.46	-0.03
356.668	-0
356.877	0.09
357.085	0.04
357.294	-0.05
357.503	0.02
357.711	-0.02
357.92	0.08
358.128	-0.01
358.337	-0.02
358.545	0.02
358.754	-0.01
358.962	0.06
359.17	-0.02
359.379	0.01
359.587	0.03
359.796	-0.02
360.004	0.03
360.212	0.02
360.421	0.04
360.629	-0.01
360.837	0.01
361.046	0.04
361.254	0.07
361.462	0
361.67	-0.04
361.879	0.03
362.087	0.05
362.295	0.02
362.503	-0.04
362.711	-0.06
362.92	-0.02
363.128	-0.03
363.336	-0.03
363.544	-0.03
363.752	-0.03
363.96	0
364.168	-0.03
364.376	-0.02
364.584	0.02
364.792	0.02
365	0.02
365.208	-0.01
365.416	0.03
365.624	0.08
365.832	0.01
366.04	0.03
366.248	0.01
366.456	0.02
366.664	-0.01
366.872	-0
367.079	-0.02
367.287	-0.03
367.495	-0.03
367.703	-0.01
367.911	-0
368.118	-0.02
368.326	-0.01
368.534	-0.02
368.742	0.02
368.949	-0.02
369.157	-0
369.365	0.07
369.572	-0
369.78	-0.05
369.988	0.01
370.195	0.05
370.403	0.04
370.61	-0.01
370.818	0.05
371.026	0.06
371.233	-0.02
371.441	0.02
371.648	-0
371.856	0.02
372.063	0.03
372.271	0.03
372.478	-0.01
372.685	0
372.893	0.08
373.1	-0.02
373.308	0.04
373.515	0.09
373.722	0.05
373.93	0.02
374.137	0.08
374.344	0.1
374.552	0.12
374.759	0.07
374.966	0.05
375.173	0.07
375.381	0.12
375.588	0.06
375.795	0.01
376.002	0.07
376.209	0.07
376.417	0.04
376.624	0.06
376.831	0.08
377.038	0.1
377.245	-0.01
377.452	0.09
377.659	0.09
377.866	0.1
378.073	0.1
378.28	0.11
378.487	0.18
378.694	0.16
378.901	0.17
379.108	0.16
379.315	0.2
379.522	0.24
379.729	0.18
379.936	0.17
380.143	0.16
380.35	0.24
380.557	0.2
380.763	0.22
380.97	0.23
381.177	0.26
381.384	0.27
381.591	0.2
381.797	0.25
382.004	0.29
382.211	0.25
382.418	0.24
382.624	0.25
382.831	0.31
383.038	0.24
383.244	0.23
383.451	0.23
383.658	0.25
383.864	0.18
384.071	0.15
384.277	0.27
384.484	0.26
384.69	0.25
384.897	0.12
385.103	0.19
385.31	0.1
385.516	0.11
385.723	0.09
385.929	0.13
386.136	0.15
386.342	0.11
386.549	0.11
386.755	0.19
386.961	0.16
387.168	0.09
387.374	0.12
387.58	0.15
387.787	0.09
387.993	0.09
388.199	0.04
388.406	0.07
388.612	0.09
388.818	0.05
389.024	0.1
389.231	0.14
389.437	0.15
389.643	0.12
389.849	0.07
390.055	0.04
390.261	0.09
390.467	0.08
390.674	0.01
390.88	0.03
391.086	0.09
391.292	0.04
391.498	0.11
391.704	0.09
391.91	0.05
392.116	0.03
392.322	-0.01
392.528	0.04
392.734	0.01
392.94	0.01
393.146	0.02
393.352	0.04
393.557	-0.02
393.763	0.02
393.969	0.03
394.175	-0
394.381	0.01
394.587	-0.01
394.792	0.03
394.998	0.09
395.204	0.05
395.41	-0
395.615	0.04
395.821	0.02
396.027	0.03
396.233	-0.03
396.438	0.02
396.644	0.1
396.85	-0.01
397.055	0.01
397.261	0
397.466	0.08
397.672	-0.01
397.878	0.03
398.083	0
398.289	-0.06
398.494	0.05
398.7	0.04
398.905	-0.08
399.111	0.07
399.316	-0.06
399.522	0.02
399.727	-0
399.932	-0.01
400.138	0.01
400.343	0.05
400.549	0.02
400.754	0.02
400.959	-0.02
401.165	-0.03
401.37	0.03
401.575	0.06
401.78	0.01
401.986	-0.02
402.191	-0.02
402.396	0
402.601	0.03
402.807	0.01
403.012	0.03
403.217	0.06
403.422	-0
403.627	-0.04
403.832	-0.02
404.037	0.03
404.243	0.02
404.448	-0.04
404.653	0.01
404.858	0.04
405.063	0.03
405.268	-0.07
405.473	-0.06
405.678	-0.03
405.883	0.14
406.088	0.02
406.293	-0.07
406.498	-0.03
406.703	0.03
406.907	-0
407.112	-0.01
407.317	-0
407.522	0.03
407.727	-0.06
407.932	-0.01
408.136	0.05
408.341	-0.01
408.546	-0.04
408.751	0
408.956	-0.02
409.16	0.03
409.365	-0.01
409.57	-0.03
409.774	-0.01
409.979	0.03
410.184	-0.01
410.388	-0.02
410.593	0.03
410.798	0
411.002	-0.03
411.207	0.04
411.411	-0.02
411.616	-0.03
411.82	-0.02
412.025	-0.01
412.229	-0.05
412.434	0.09
412.638	-0.02
412.843	-0.02
413.047	0
413.252	-0.02
413.456	-0.04
413.66	0.01
413.865	-0.05
414.069	0.07
414.273	-0.02
414.478	-0
414.682	-0.02
414.886	-0.05
415.091	-0.05
415.295	-0.11
415.499	-0.01
415.703	-0.01
415.908	0.02
416.112	-0.07
416.316	0.03
416.52	-0.04
416.724	-0.03
416.929	-0.05
417.133	0.06
417.337	0.01
417.541	-0.04
417.745	-0.03
417.949	0.01
418.153	0.01
418.357	-0.11
418.561	0.04
418.765	-0.01
418.969	0.11
419.173	0.03
419.377	-0.03
419.581	0.08
419.785	-0.03
419.989	-0.07
420.193	-0.03
420.397	-0.01
420.601	0.03
420.804	0
421.008	-0.01
421.212	0.03
421.416	0.05
421.62	-0.05
421.823	0
422.027	0.04
422.231	-0.01
422.435	-0.02
422.638	0.04
422.842	-0.01
423.046	-0.06
423.249	0.05
423.453	0.05
423.657	0.03
423.86	-0.01
424.064	-0.01
424.268	0.05
424.471	0.02
424.675	0.01
424.878	0.05
425.082	-0.01
425.285	-0
425.489	0
425.692	0.01
425.896	-0.06
426.099	0.04
426.303	-0.06
426.506	-0.06
426.71	0.01
426.913	0.06
427.116	0.04
427.32	-0.01
427.523	0
427.726	0.11
427.93	-0.04
428.133	0.02
428.336	-0.06
428.54	-0.06
428.743	-0.02
428.946	0.05
429.149	-0.05
429.353	0.04
429.556	-0
429.759	0.02
429.962	-0.04
430.165	-0.04
430.368	-0.03
430.571	-0.05
430.775	0.03
430.978	-0.01
431.181	0.04
431.384	0.02
431.587	-0.03
431.79	0
431.993	-0.07
432.196	-0.04
432.399	-0.02
432.602	0.05
432.805	0.01
433.008	-0.01
433.211	-0.06
433.414	-0.01
433.616	0.04
433.819	0.02
434.022	-0.07
434.225	0.12
434.428	0.06
434.631	0.08
434.833	-0.01
435.036	0.01
435.239	0.05
435.442	-0
435.645	-0.01
435.847	0.06
436.05	0.06
436.253	0.02
436.455	-0.04
436.658	-0.01
436.861	0.13
437.063	-0.05
437.266	0
437.468	0.03
437.671	0.12
437.874	0.01
438.076	-0.04
438.279	-0.02
438.481	0.06
438.684	-0.02
438.886	0.01
439.089	-0.01
439.291	-0.06
439.494	0.04
439.696	-0.01
439.899	-0.04
440.101	0.04
440.303	-0.05
440.506	0.08
440.708	-0.03
440.91	0.07
441.113	-0.05
441.315	0.07
441.517	-0.01
441.72	0.08
441.922	0.01
442.124	0.01
442.326	0.01
442.529	0.07
442.731	0.03
442.933	0.1
443.135	0.07
443.337	0.01
443.539	-0
443.742	-0
443.944	0.05
444.146	0.01
444.348	0.01
444.55	0.02
444.752	0.04
444.954	0.02
445.156	0.03
445.358	0.02
445.56	0.07
445.762	0.04
445.964	0.02
446.166	0.03
446.368	-0.01
446.57	0.09
446.772	0.07
446.974	0.04
447.175	0.04
447.377	0.02
447.579	0.02
447.781	-0.02
447.983	0.14
448.184	0.07
448.386	0.08
448.588	0.03
448.79	0.05
448.991	0.02
449.193	0.06
449.395	0.04
449.597	0.08
449.798	0.08
450	0.08
450.202	0.05
450.403	0.06
450.605	0.12
450.806	0.07
451.008	-0.05
451.21	0.07
451.411	0.12
451.613	0.02
451.814	0.03
452.016	0.09
452.217	0.05
452.419	0.09
452.62	0.04
452.821	0.04
453.023	0.13
453.224	0.1
453.426	0.04
453.627	0.04
453.828	0.09
454.03	0.02
454.231	0.09
454.432	0
454.634	0.12
454.835	0.01
455.036	-0.06
455.238	0.1
455.439	0.14
455.64	-0.01
455.841	-0
456.042	0.09
456.244	0.07
456.445	-0.01
456.646	-0.04
456.847	0.03
457.048	0.05
457.249	0.08
457.45	0.21
457.651	-0.02
457.852	0.09
458.054	0
458.255	0.02
458.456	0.04
458.657	0.07
458.858	-0.02
459.058	0.05
459.259	0.07
459.46	-0.02
459.661	-0.05
459.862	0.08
460.063	0.03
460.264	0.06
460.465	-0.04
460.666	0.13
460.866	0
461.067	0.01
461.268	-0.03
461.469	-0.05
461.67	0.02
461.87	-0.05
462.071	-0.02
462.272	-0.03
462.473	0.02
462.673	0.06
462.874	0.01
463.075	0.01
463.275	-0.03
463.476	0
463.676	0.01
463.877	0.03
464.078	-0
464.278	0.08
464.479	-0.06
464.679	-0.01
464.88	-0.02
465.08	0.09
465.281	-0.03
465.481	-0.02
465.682	0.02
465.882	0.03
466.083	0.06
466.283	0
466.483	0.02
466.684	-0.04
466.884	-0.04
467.085	0.03
467.285	0.05
467.485	-0.02
467.686	0.01
467.886	-0.03
468.086	-0.01
468.286	0.03
468.487	0.01
468.687	-0.05
468.887	-0.01
469.087	-0
469.287	-0.01
469.488	-0.07
469.688	0.03
469.888	0.01
470.088	0.03
470.288	0.07
470.488	0.04
470.688	-0.03
470.888	-0.02
471.088	-0.03
471.288	0.06
471.488	0.02
471.688	0.04
471.888	0.01
472.088	0.04
472.288	0.05
472.488	-0.04
472.688	-0.05
472.888	0.01
473.088	0.01
473.288	0.03
473.488	0.01
473.688	0.08
473.887	-0.03
474.087	0
474.287	0.02
474.487	-0.01
474.687	0.03
474.886	0
475.086	-0.02
475.286	-0.03
475.486	0.03
475.685	-0.03
475.885	-0.04
476.085	0.01
476.284	0.04
476.484	-0.02
476.684	0.01
476.883	0.02
477.083	0
477.282	0.01
477.482	0.04
477.681	0.02
477.881	0.02
478.08	-0.02
478.28	-0.04
478.479	0.01
478.679	0.07
478.878	-0.02
479.078	-0.02
479.277	-0.01
479.477	-0.02
479.676	0.04
479.875	0
480.075	-0.04
480.274	0
480.473	0.02
480.673	-0.04
480.872	0.03
481.071	0.02
481.271	0.01
481.47	-0.01
481.669	0.01
481.868	-0.03
482.067	-0.02
482.267	-0.02
482.466	-0.02
482.665	-0.02
482.864	-0.02
483.063	-0.04
483.262	0
483.461	0.06
483.661	0.05
483.86	-0
484.059	0.02
484.258	-0.02
484.457	-0.02
484.656	-0.02
484.855	0.04
485.054	-0.04
485.253	-0.04
485.452	-0.05
485.651	-0
485.849	0.01
486.048	-0.03
486.247	-0.04
486.446	0.01
486.645	-0.05
486.844	-0.02
487.043	0.01
487.241	0.03
487.44	-0.01
487.639	-0.04
487.838	0.02
488.037	-0.02
488.235	0.05
488.434	0.02
488.633	-0.03
488.831	-0.01
489.03	0.02
489.229	0.01
489.427	-0.03
489.626	0.03
489.825	0.05
490.023	-0.01
490.222	-0.03
490.42	0.02
490.619	0.02
490.817	-0
491.016	-0.01
491.214	0.05
491.413	-0.01
491.611	-0.02
491.81	0.01
492.008	0.02
492.207	0
492.405	0.01
492.604	-0.06
492.802	-0
493	0.01
493.199	-0.01
493.397	-0.01
493.595	-0.03
493.794	-0.02
493.992	0.05
494.19	-0
494.388	-0
494.587	-0.02
494.785	-0.01
494.983	-0.02
495.181	-0
495.379	-0.01
495.578	-0.01
495.776	0.03
495.974	-0
496.172	-0.02
496.37	-0.01
496.568	-0.05
496.766	-0.03
496.964	0.02
497.162	-0.01
497.36	-0.04
497.558	0.03
497.756	0.01
497.954	-0.01
498.152	-0.03
498.35	-0
498.548	-0.01
498.746	-0.01
498.944	-0.03
499.142	-0.02
499.34	-0.03
499.538	-0.01
499.736	-0.02
499.933	0.01
500.131	0.04
500.329	-0
500.527	0.03
500.725	0
500.922	0
501.12	0
501.318	0.01
501.516	-0.02
501.713	0.02
501.911	-0.01
502.109	-0.02
502.306	-0.01
502.504	0.01
502.701	0
502.899	-0.01
503.097	0.02
503.294	0.01
503.492	-0.01
503.689	0
503.887	0.02
504.084	0.02
504.282	0
504.479	-0.02
504.677	-0.01
504.874	-0.04
505.072	0.01
505.269	-0.02
505.466	0.02
505.664	0.03
505.861	-0.05
506.059	-0.02
506.256	0.03
506.453	-0.01
506.651	0.02
506.848	0.01
507.045	-0.01
507.242	0
507.44	-0.02
507.637	-0.01
507.834	-0.02
508.031	0.01
508.229	-0.01
508.426	-0.01
508.623	0.01
508.82	-0.01
509.017	-0.03
509.214	0
509.411	-0
509.608	-0.03
509.805	-0.01
510.003	-0.02
510.2	-0.02
510.397	0.02
510.594	-0.03
510.791	-0.03
510.988	-0.03
511.184	0.02
511.381	-0.01
511.578	-0.02
511.775	-0.01
511.972	-0.02
512.169	-0.01
512.366	-0.03
512.563	-0
512.76	-0.02
512.956	-0.03
513.153	-0.02
513.35	0
513.547	-0.03
513.744	-0.03
513.94	-0.02
514.137	0
514.334	0.03
514.53	-0.02
514.727	-0
514.924	0.04
515.12	-0.02
515.317	-0.04
515.514	-0.03
515.71	-0.02
515.907	-0.02
516.103	-0.01
516.3	0.01
516.497	0.03
516.693	0
516.89	0.01
517.086	-0.03
517.283	0.04
517.479	0
517.676	0
517.872	-0.02
518.068	-0.03
518.265	-0.01
518.461	-0.01
518.658	-0.03
518.854	0.01
519.05	-0.01
519.247	-0.02
519.443	0.01
519.639	0
519.836	-0.01
520.032	-0.01
520.228	0
520.424	0.04
520.621	-0.01
520.817	-0.01
521.013	0.01
521.209	0
521.405	0.03
521.601	-0.01
521.798	0.01
521.994	0.03
522.19	-0.02
522.386	-0.04
522.582	0.01
522.778	0.01
522.974	-0.01
523.17	-0.02
523.366	0.01
523.562	-0.01
523.758	-0.01
523.954	-0.02
524.15	-0.02
524.346	-0
524.542	-0.03
524.738	-0.03
524.934	-0.01
525.129	-0.08
525.325	0.02
525.521	-0
525.717	0.02
525.913	-0.02
526.109	-0.01
526.304	-0.03
526.5	0.01
526.696	0.01
526.892	-0.03
527.087	-0.01
527.283	-0.04
527.479	0.01
527.674	-0.03
527.87	-0.02
528.066	0.01
528.261	0.01
528.457	0.02
528.653	-0.01
528.848	-0.02
529.044	0.01
529.239	0.01
529.435	0.04
529.63	0
529.826	0.04
530.021	0.01
530.217	-0.01
530.412	-0.03
530.608	-0.02
530.803	-0.01
530.999	0
531.194	-0.03
531.389	0
531.585	-0.05
531.78	-0.02
531.975	-0.02
532.171	0
532.366	-0.01
532.561	-0.01
532.757	-0.01
532.952	0
533.147	-0.01
533.342	-0.01
533.538	-0.01
533.733	0
533.928	-0.01
534.123	0
534.318	-0.03
534.513	-0
534.709	-0.01
534.904	-0.03
535.099	-0.02
535.294	0
535.489	-0.01
535.684	0
535.879	-0.03
536.074	-0.01
536.269	-0.02
536.464	0
536.659	-0.01
536.854	-0.02
537.049	0
537.244	-0.01
537.439	-0.02
537.634	0.03
537.828	-0
538.023	-0.03
538.218	-0.03
538.413	-0.01
538.608	-0.01
538.803	0.03
538.997	-0.05
539.192	0.01
539.387	-0
539.582	-0.01
539.776	-0.01
539.971	-0.02
540.166	0
540.36	-0.02
540.555	-0.01
540.75	-0.02
540.944	-0.01
541.139	-0.03
541.334	-0
541.528	0.01
541.723	0.03
541.917	-0
542.112	-0.05
542.306	-0.03
542.501	-0.01
542.695	-0
542.89	0
543.084	-0.01
543.279	-0
543.473	-0.01
543.668	-0.01
543.862	-0.01
544.056	0.01
544.251	-0.01
544.445	-0.01
544.64	0
544.834	-0.04
545.028	0.01
545.222	0.02
545.417	0.03
545.611	-0.02
545.805	-0.01
546	-0.02
546.194	0
546.388	-0.02
546.582	0
546.776	-0.01
546.97	0.01
547.165	-0.01
547.359	0.02
547.553	-0.03
547.747	-0.01
547.941	-0.01
548.135	-0
548.329	0.01
548.523	0
548.717	-0
548.911	-0.03
549.105	0.01
549.299	0.02
549.493	0.01
549.687	0
549.881	0
550.075	-0.01
550.269	-0.04
550.463	0.03
550.657	-0.02
550.85	0
551.044	-0.02
551.238	-0
551.432	-0.02
551.626	-0.04
551.82	-0.01
552.013	-0.03
552.207	-0
552.401	0.02
552.594	0
552.788	-0
552.982	0
553.176	-0.03
553.369	0
553.563	0.01
553.756	-0.05
553.95	-0.03
554.144	-0
554.337	0.01
554.531	-0.01
554.724	-0.01
554.918	-0.01
555.111	0.02
555.305	-0.01
555.498	0.04
555.692	0.02
555.885	-0
556.079	-0
556.272	-0.03
556.466	0.02
556.659	-0
556.852	-0.01
557.046	-0.02
557.239	0.02
557.432	-0.06
557.626	-0.02
557.819	-0.01
558.012	0.04
558.206	0
558.399	-0.01
558.592	0.01
558.785	-0
558.979	0.01
559.172	0.01
559.365	-0.02
559.558	-0.02
559.751	-0.01
559.944	0.02
560.138	0
560.331	-0.02
560.524	-0.02
560.717	-0.01
560.91	-0.04
561.103	-0
561.296	-0.02
561.489	-0.02
561.682	0.02
561.875	0.03
562.068	0.01
562.261	-0
562.454	0.04
562.647	0.01
562.84	0.01
563.032	0.01
563.225	0
563.418	-0.01
563.611	-0.03
563.804	0.02
563.997	-0.01
564.19	-0.03
564.382	-0.02
564.575	0
564.768	0
564.961	-0.03
565.153	-0.01
565.346	0.03
565.539	0.02
565.731	-0.01
565.924	0.03
566.117	0.01
566.309	0.01
566.502	-0.02
566.695	-0.01
566.887	0
567.08	-0.01
567.272	-0.02
567.465	0.02
567.657	0
567.85	0.02
568.042	0
568.235	0.03
568.427	0.01
568.62	-0
568.812	-0.01
569.005	0.01
569.197	-0.04
569.389	-0.01
569.582	-0.01
569.774	-0
569.966	-0.02
570.159	-0.03
570.351	0.01
570.543	-0.01
570.736	0.01
570.928	-0.05
571.12	0.02
571.312	-0.01
571.505	-0.05
571.697	0.02
571.889	-0.04
572.081	-0.01
572.273	-0.03
572.465	0.04
572.658	0
572.85	0.02
573.042	-0.02
573.234	-0.04
573.426	0.02
573.618	-0.03
573.81	0
574.002	0.05
574.194	0.01
574.386	-0.04
574.578	-0.07
574.77	-0.05
574.962	-0.02
575.154	-0.04
575.346	-0.02
575.538	0.03
575.729	-0.03
575.921	-0.02
576.113	-0.02
576.305	0.01
576.497	-0.02
576.689	-0.01
576.88	-0.02
577.072	0.03
577.264	-0.03
577.456	0
577.647	-0.07
577.839	-0.01
578.031	0.03
578.223	-0.06
578.414	-0.05
578.606	0.01
578.798	-0.01
578.989	-0.03
579.181	-0.01
579.372	0.01
579.564	0.01
579.755	0.01
579.947	0.01
580.139	0
580.33	-0.06
580.522	-0.02
580.713	-0.07
580.905	-0.01
581.096	-0
581.287	-0.03
581.479	-0.02
581.67	0.02
581.862	-0
582.053	-0.03
582.244	-0.04
582.436	-0.03
582.627	-0.01
582.818	-0.02
583.01	-0.03
583.201	0.01
583.392	-0.02
583.583	0
583.775	-0
583.966	-0.03
584.157	-0.02
584.348	-0.02
584.54	-0.04
584.731	0.01
584.922	-0.01
585.113	-0.03
585.304	0.01
585.495	0.05
585.686	-0.02
585.877	0.03
586.068	0.01
586.259	0.03
586.45	-0.02
586.641	-0.01
586.832	-0.06
587.023	-0
587.214	-0
587.405	0
587.596	-0.05
587.787	0.05
587.978	0.01
588.169	-0.02
588.36	-0.01
588.551	-0
588.742	-0.03
588.932	-0
589.123	-0.02
589.314	0.02
589.505	-0.01
589.696	0
589.886	-0
590.077	-0.04
590.268	-0.01
590.458	-0.02
590.649	-0.04
590.84	0
591.03	-0.03
591.221	-0.05
591.412	-0.05
591.602	0.01
591.793	0.02
591.984	-0.04
592.174	-0
592.365	0.08
592.555	-0.05
592.746	0.02
592.936	-0.01
593.127	0.01
593.317	0.03
593.508	-0.02
593.698	-0.01
593.889	0.03
594.079	-0.01
594.269	-0.03
594.46	-0.01
594.65	0
594.84	-0.04
595.031	-0.05
595.221	-0.02
595.411	-0.04
595.602	0.02
595.792	-0.01
595.982	-0.01
596.172	0.02
596.363	0.02
596.553	0.03
596.743	-0
596.933	-0
597.123	-0
597.314	-0.04
597.504	-0.02
597.694	0.01
597.884	0.01
598.074	-0.03
598.264	-0.02
598.454	-0
598.644	0
598.834	-0.01
599.024	-0.06
599.214	-0.02
599.404	0.01
599.594	-0.03
599.784	-0.05
599.974	0.03
600.164	0
600.354	-0.03
600.544	-0.06
600.734	0.02
600.924	0.04
601.114	-0.03
601.303	0.01
601.493	-0.02
601.683	-0.03
601.873	-0.03
602.063	-0.05
602.252	0.03
602.442	-0.06
602.632	-0.03
602.821	-0.07
603.011	0.03
603.201	-0.02
603.39	-0.01
603.58	-0.04
603.77	-0
603.959	0.03
604.149	-0.01
604.339	-0.04
604.528	-0
604.718	0.04
604.907	-0
605.097	-0.01
605.286	0.01
605.476	-0.01
605.665	0
605.855	-0.02
606.044	0.02
606.234	-0.01
606.423	-0
606.612	-0.04
606.802	-0.01
606.991	-0.01
607.181	-0.01
607.37	-0.06
607.559	-0.03
607.749	-0.06
607.938	0.01
608.127	-0.01
608.316	-0.03
608.506	0.02
608.695	-0.01
608.884	-0.03
609.073	0
609.263	-0.01
609.452	0.02
609.641	0.01
609.83	-0.03
610.019	0
610.208	-0.03
610.397	-0.01
610.586	-0.02
610.775	-0.03
610.965	-0.01
611.154	-0.02
611.343	0.02
611.532	0.02
611.721	-0.02
611.91	-0.03
612.099	0.02
612.287	-0.03
612.476	-0.02
612.665	0
612.854	-0.03
613.043	0.01
613.232	-0.04
613.421	-0.06
613.61	-0
613.798	-0.02
613.987	0.02
614.176	-0.02
614.365	0.02
614.554	0
614.742	0.02
614.931	-0.04
615.12	0.02
615.309	-0
615.497	0.03
615.686	-0.02
615.875	-0
616.063	0
616.252	-0.04
616.44	-0.03
616.629	0.01
616.818	0.03
617.006	-0.01
617.195	-0
617.383	0
617.572	-0.01
617.76	0
617.949	-0.03
618.137	-0
618.326	-0
618.514	-0.04
618.703	-0
618.891	0.03
619.079	-0.04
619.268	0.02
619.456	-0.03
619.644	0.02
619.833	-0.04
620.021	-0.03
620.209	-0.03
620.398	0.01
620.586	-0.02
620.774	0.02
620.962	0.01
621.151	0.04
621.339	-0
621.527	-0.04
621.715	-0.04
621.903	-0.05
622.092	-0.05
622.28	-0
622.468	-0.01
622.656	-0.02
622.844	0.01
623.032	-0.02
623.22	-0.06
623.408	0.05
623.596	-0
623.784	0.01
623.972	-0.03
624.16	0.03
624.348	0.04
624.536	-0.03
624.724	-0.02
624.912	0.07
625.1	0.05
625.288	-0.05
625.476	-0
625.664	0.03
625.851	-0.06
626.039	-0.01
626.227	0.03
626.415	-0.01
626.603	-0.06
626.79	-0
626.978	-0.03
627.166	0.01
627.354	-0.01
627.541	-0.04
627.729	-0.07
627.917	0.02
628.104	0.02
628.292	0.01
628.48	-0.01
628.667	-0.01
628.855	-0.02
629.042	0.03
629.23	-0.03
629.418	-0.01
629.605	-0.02
629.793	-0.02
629.98	0
630.168	0
630.355	0.02
630.543	0.02
630.73	-0.02
630.917	0.03
631.105	0.03
631.292	-0.03
631.48	0.01
631.667	0.07
631.854	0.02
632.042	-0.02
632.229	-0.09
632.416	0.02
632.604	-0
632.791	-0.03
632.978	0.02
633.165	0.02
633.353	0.06
633.54	0.06
633.727	-0.05
633.914	-0.03
634.101	-0.1
634.289	0.05
634.476	-0.02
634.663	-0.02
634.85	0.01
635.037	-0.01
635.224	-0.06
635.411	0.06
635.598	0.01
635.785	0.02
635.972	0.01
636.159	0.01
636.346	-0.01
636.533	0.01
636.72	-0.03
636.907	0
637.094	0.03
637.281	-0
637.468	0.02
637.655	0.04
637.842	0.02
638.029	-0.01
638.215	-0.01
638.402	0.02
638.589	-0.02
638.776	-0
638.963	-0
639.149	0.04
639.336	0.07
639.523	0.03
639.709	0.01
639.896	0.01
640.083	0.06
640.27	0.04
640.456	-0.02
640.643	0.03
640.829	-0.04
641.016	0.01
641.203	-0.05
641.389	0.01
641.576	0.04
641.762	0.02
641.949	-0.01
642.135	0.06
642.322	0.06
642.508	-0.03
642.695	0.04
642.881	0.01
643.068	0.02
643.254	0.05
643.441	0.07
643.627	-0
643.813	-0
644	0.05
644.186	0
644.372	0.06
644.559	0.06
644.745	0.02
644.931	-0.03
645.118	0.02
645.304	0.03
645.49	-0.02
645.676	0.02
645.862	0.03
646.049	0.07
646.235	0.04
646.421	0.11
646.607	0.07
646.793	0.05
646.979	0.01
647.165	0.07
647.352	0.03
647.538	0.06
647.724	0.02
647.91	0.05
648.096	0.05
648.282	0.09
648.468	0.06
648.654	0.04
648.84	0.02
649.026	0.05
649.212	0.07
649.397	0.07
649.583	0.02
649.769	0.08
649.955	0.04
650.141	0.05
650.327	0.05
650.513	0.04
650.698	0.09
650.884	0.01
651.07	0.07
651.256	0.05
651.442	0.09
651.627	0.03
651.813	0.06
651.999	0.07
652.184	0.06
652.37	0.06
652.556	0.06
652.741	0.13
652.927	0.02
653.113	0.06
653.298	0.08
653.484	0.04
653.669	0.04
653.855	0.07
654.04	0.07
654.226	0.07
654.412	0.04
654.597	0.06
654.782	0.15
654.968	0.12
655.153	0.08
655.339	0.06
655.524	0.06
655.71	0.08
655.895	0.11
656.08	0.1
656.266	0.11
656.451	0.12
656.636	0.05
656.822	0.11
657.007	0.04
657.192	0.07
657.378	0.03
657.563	0.11
657.748	0.14
657.933	0.09
658.118	0.07
658.304	0.07
658.489	0.11
658.674	0.1
658.859	0.04
659.044	0.09
659.229	0.12
659.414	0.1
659.599	0.1
659.785	0.03
659.97	0.1
660.155	0.1
660.34	0.13
660.525	0.08
660.71	0.03
660.895	0.15
661.08	0.03
661.264	0.09
661.449	0.14
661.634	0.14
661.819	0.11
662.004	0.1
662.189	0.03
662.374	0.02
662.559	0.04
662.743	0.02
662.928	0.09
663.113	0.07
663.298	0.03
663.483	0.06
663.667	0.09
663.852	0.06
664.037	0.12
664.221	0.02
664.406	0.05
664.591	0.04
664.775	0.04
664.96	0.02
665.145	0.04
665.329	0.05
665.514	0.03
665.698	0.03
665.883	0.02
666.068	0.12
666.252	0.07
666.437	-0.02
666.621	0.03
666.806	0.09
666.99	-0.01
667.174	0.01
667.359	0.04
667.543	0.01
667.728	-0
667.912	-0.04
668.096	0.04
668.281	-0.03
668.465	0.05
668.649	-0
668.834	-0.02
669.018	0.02
669.202	0.01
669.387	-0.03
669.571	0.04
669.755	-0.02
669.939	-0.01
670.124	0.02
670.308	0.09
670.492	0.03
670.676	0.02
670.86	-0.02
671.044	-0.03
671.228	0.04
671.413	-0.02
671.597	-0.02
671.781	-0.04
671.965	0.06
672.149	0.01
672.333	0.02
672.517	-0.03
672.701	-0.01
672.885	-0.01
673.069	-0.07
673.253	0.02
673.437	-0.02
673.621	-0.05
673.804	-0.01
673.988	0
674.172	-0.02
674.356	-0.07
674.54	0.04
674.724	0.05
674.908	-0.02
675.091	0.01
675.275	-0.01
675.459	0.02
675.643	-0.03
675.826	0
676.01	0.01
676.194	-0
676.377	0.06
676.561	-0.01
676.745	0.01
676.928	-0.01
677.112	0.03
677.296	-0.05
677.479	-0.04
677.663	-0.01
677.846	0.06
678.03	-0.01
678.213	-0.02
678.397	0.01
678.58	-0.04
678.764	-0.03
678.947	-0.03
679.131	-0.04
679.314	0.07
679.498	-0.03
679.681	0.02
679.865	0.04
680.048	0.01
680.231	-0.05
680.415	-0.01
680.598	-0.01
680.781	-0.07
680.965	-0.02
681.148	-0.02
681.331	-0.02
681.514	-0.01
681.698	-0.04
681.881	-0.01
682.064	-0.01
682.247	-0.01
682.43	-0.03
682.614	0.02
682.797	0.04
682.98	0.08
683.163	-0.02
683.346	0.03
683.529	-0.04
683.712	-0.03
683.895	0
684.078	-0.08
684.261	-0.03
684.444	0.02
684.627	0.02
684.81	-0
684.993	-0.01
685.176	0.01
685.359	-0.08
685.542	-0.04
685.725	0.03
685.908	0.02
686.091	-0.04
686.274	0.02
686.457	0.02
686.639	0
686.822	0.04
687.005	0.01
687.188	-0.02
687.371	0.03
687.553	0.02
687.736	-0.01
687.919	0.08
688.102	0.02
688.284	-0.02
688.467	0.03
688.65	-0.06
688.832	-0.02
689.015	-0
689.197	-0.04
689.38	0.06
689.563	0.05
689.745	-0.05
689.928	-0.05
690.11	-0.02
690.293	0.03
690.475	-0.05
690.658	-0.01
690.84	-0.02
691.023	-0.03
691.205	-0.01
691.388	-0.01
691.57	0.05
691.752	0.02
691.935	-0.09
692.117	-0.07
692.3	-0.01
692.482	-0.04
692.664	-0.03
692.847	0.03
693.029	0.05
693.211	0.02
693.393	-0.05
693.576	-0.01
693.758	-0.01
693.94	-0.03
694.122	-0.06
694.304	-0.02
694.487	-0.01
694.669	0.08
694.851	-0.04
695.033	-0.03
695.215	-0.04
695.397	-0.05
695.579	0
695.761	-0.08
695.943	-0.09
696.125	0.01
696.308	-0.02
696.49	-0.08
696.671	0.1
696.853	-0.03
697.035	0.1
697.217	-0
697.399	-0.02
697.581	-0.03
697.763	0
697.945	-0.08
698.127	-0.05
698.309	0.04
698.491	0
698.672	0.02
698.854	0
699.036	0.08
699.218	-0.05
699.399	0.03
699.581	0.03
699.763	0.01
699.945	-0.05
700.126	-0.06
700.308	-0.02
700.49	0.08
700.671	-0.05
700.853	-0.07
701.035	-0
701.216	-0.01
701.398	-0.04
701.579	-0.02
701.761	0.04
701.943	-0.04
702.124	-0.08
702.306	-0.02
702.487	0.07
702.669	0.02
702.85	-0.06
703.031	-0.07
703.213	0.14
703.394	0.01
703.576	-0.04
703.757	0.03
703.938	0.08
704.12	0.15
704.301	-0.04
704.483	-0.06
704.664	0.04
704.845	-0.03
705.026	0.02
705.208	-0.02
705.389	0.03
705.57	-0.01
705.751	0.01
705.933	-0.01
706.114	0.06
706.295	-0.04
706.476	-0.02
706.657	0.14
706.838	0.05
707.02	0.06
707.201	-0.03
707.382	0.05
707.563	-0.02
707.744	-0.02
707.925	-0.05
708.106	-0.06
708.287	0.02
708.468	0.09
708.649	-0.02
708.83	0.03
709.011	0.03
709.192	0.03
709.373	-0.05
709.554	-0.02
709.734	0.04
709.915	0.04
710.096	-0
710.277	-0.09
710.458	0.05
710.639	0.01
710.819	-0.07
711	-0.04
711.181	0.08
711.362	0.07
711.542	-0.01
711.723	-0.01
711.904	0.06
712.085	0.03
712.265	0.05
712.446	-0.11
712.627	0.02
712.807	0.02
712.988	0.02
713.168	-0.09
713.349	0.04
713.53	-0.16
713.71	-0.06
713.891	-0.03
714.071	0.09
714.252	0.01
714.432	-0.08
714.613	-0.12
714.793	0.07
714.974	0.09
715.154	0.07
715.334	0.04
715.515	0.05
715.695	-0.06
715.876	-0.05
716.056	-0.03
716.236	-0.03
716.417	0.03
716.597	-0.04
716.777	0.11
716.957	0.02
717.138	0.02
717.318	0.01
717.498	-0.07
717.678	-0.01
717.859	0.01
718.039	-0.14
718.219	0.05
718.399	0.03
718.579	-0.04
718.759	-0.06
718.939	0.07
719.12	0.02
719.3	0.1
719.48	-0.07
719.66	-0.11
719.84	0.11
720.02	-0.03
720.2	-0.06
720.38	0.01
720.56	0.13
720.74	-0.03
720.92	0.05
721.1	0.15
721.279	0.05
721.459	0.1
721.639	-0.03
721.819	0.09
721.999	0.02
722.179	0.09
722.359	-0.02
722.538	-0.04
722.718	0
722.898	0.05
723.078	0.06
723.257	-0.02
723.437	-0.01
723.617	0.03
723.797	0.04
723.976	0.05
724.156	0.05
724.336	0.15
724.515	0.21
724.695	-0.05
724.874	0.02
725.054	0.11
725.234	0.03
725.413	0.02
725.593	0.02
725.772	-0
725.952	0.01
726.131	0
726.311	-0.02
726.49	0.04
726.67	-0.06
726.849	-0.04
727.028	0.07
727.208	0.07
727.387	0.06
727.567	-0.06
727.746	0.04
727.925	0.06
728.105	-0.04
728.284	-0
728.463	0.08
728.643	0.12
728.822	-0.08
729.001	0.01
729.18	0.02
729.359	0.16
729.539	-0.01
729.718	0.1
729.897	0.11
730.076	0.02
730.255	-0.03
730.434	0.09
730.614	0.18
730.793	0.14
730.972	0.07
731.151	0.04
731.33	0.15
731.509	0
731.688	0.15
731.867	0.08
732.046	-0.03
732.225	0.28
732.404	0.02
732.583	-0
732.762	0.1
732.941	0.1
733.12	0.07
733.298	0.07
733.477	0.17
733.656	0.07
733.835	0.02
734.014	0.17
734.193	-0
734.371	0.17
734.55	0.12
734.729	0.01
734.908	0.06
735.086	0.07
735.265	0.09
735.444	-0.04
735.623	-0.08
735.801	0.05
735.98	0.01
736.159	0.09
736.337	0.09
736.516	0.08
736.694	0.08
736.873	0.02
737.052	0.2
737.23	0.16
737.409	0.08
737.587	0.19
737.766	0
737.944	-0.01
738.123	0.12
738.301	0.19
738.479	0.04
738.658	0.06
738.836	-0.1
739.015	0.13
739.193	0.21
739.371	0.03
739.55	-0.01
739.728	0.01
739.906	0.2
740.085	0.17
740.263	0.12
740.441	-0.11
740.62	0.3
740.798	0.13
740.976	-0.06
741.154	-0.02
741.332	0.22
741.511	0.03
741.689	0.15
741.867	0.21
742.045	0.08
742.223	-0
742.401	-0.09
742.579	-0.02
742.757	0.15
742.935	-0.06
743.114	0.09
743.292	0.05
743.47	0.03
743.648	0.03
743.826	-0.17
744.004	0.07
744.181	0.1
744.359	-0.04
744.537	0
744.715	0.01
744.893	-0.05
745.071	0.02
745.249	0.05
745.427	-0.06
745.605	0.07
745.782	-0.04
745.96	0.14
746.138	0.1
746.316	0.16
746.493	-0.05
746.671	0.12
746.849	0.07
747.027	0.18
747.204	-0.02
747.382	0.04
747.56	-0.12
747.737	-0.02
747.915	-0.11
748.093	0.07
748.27	-0.06
748.448	-0.02
748.625	-0.07
748.803	0.02
748.98	-0.08
749.158	0.11
749.335	0.04
749.513	-0.06
749.69	0.08
749.868	-0
750.045	0.11
750.223	-0.08
750.4	-0.2
750.578	0.19
750.755	-0.06
750.932	-0.17
751.11	0.07
751.287	-0.05
751.464	0.08
751.642	-0.21
751.819	0.13
751.996	-0.05
752.173	-0.01
752.351	-0.09
752.528	0.02
752.705	-0.07
752.882	-0.02
753.06	0.06
753.237	0.11
753.414	0.19
753.591	0.02
753.768	-0.08
753.945	-0.12
754.122	-0.09
754.299	0.08
754.476	-0.11
754.654	-0.03
754.831	0.04
755.008	-0.03
755.185	-0.08
755.362	-0.08
755.539	0.04
755.716	-0.03
755.892	-0.05
756.069	0.1
756.246	-0.08
756.423	-0.06
756.6	0.1
756.777	-0.02
756.954	0.18
757.131	0.03
757.307	-0.15
757.484	-0.16
757.661	-0.06
757.838	-0.05
758.015	-0.09
758.191	0.07
758.368	0.02
758.545	0.2
758.721	0.01
758.898	-0.07
759.075	0.08
759.251	0.11
759.428	0.06
759.605	-0.14
759.781	0
759.958	0.07
760.134	0.08
760.311	-0.06
760.488	0.18
760.664	0.06
760.841	-0.04
761.017	-0.15
761.194	0.06
761.37	0.09
761.547	-0.03
761.723	-0.05
761.899	0.05
762.076	-0.04
762.252	-0.12
762.429	-0.05
762.605	0.09
762.781	-0.09
762.958	0.02
763.134	0.04
763.31	-0.16
763.486	0.14
763.663	-0.07
763.839	0.12
764.015	-0.24
764.191	-0.09
764.368	0.01
764.544	-0.05
764.72	-0.02
764.896	0.03
765.072	0.09
765.248	-0.04
765.425	-0.04
765.601	-0.17
765.777	-0.12
765.953	-0.19
766.129	-0.05
766.305	-0.09
766.481	0.01
766.657	0.03
766.833	0.1
767.009	-0.24
767.185	-0.06
767.361	-0.13
767.537	-0.16
767.713	0.15
767.889	-0.16
768.065	0.11
768.24	-0.31
768.416	-0.06
768.592	-0.24
768.768	0.01
768.944	0.11
769.12	-0.07
769.295	-0.18
769.471	-0.03
769.647	0.07
769.823	0.03
769.998	-0.06
770.174	-0.05
770.35	0.21
770.525	0.1
770.701	0.03
770.877	0.1
771.052	-0.08
771.228	0.11
771.403	0.04
771.579	0.06
771.755	0.28
771.93	-0.21
772.106	-0.14
772.281	-0.31
772.457	0.07
772.632	0.01
772.808	-0.13
772.983	-0.24
773.159	-0.11
773.334	0.04
773.509	-0.03
773.685	-0.05
773.86	0.38
774.036	0.12
774.211	0.06
774.386	-0
774.562	-0.02
774.737	0.06
774.912	-0.16
775.087	0.05
775.263	-0.08
775.438	-0.08
775.613	-0.26
775.788	-0.13
775.964	0.15
776.139	0.24
776.314	-0.13
776.489	-0.06
776.664	-0.05
776.839	-0.15
777.014	0.13
777.19	0.1
777.365	0.19
777.54	0.26
777.715	-0.14
777.89	0.04
778.065	-0.09
778.24	0.03
778.415	0.09
778.59	-0.21
778.765	0.01
778.94	-0.05
779.115	-0.08
779.289	-0.1
779.464	-0.09
779.639	-0.13
779.814	-0.19
779.989	-0.39
780.164	0.18
780.339	0.03
780.513	-0.1
780.688	-0.24
780.863	0.12
781.038	0.09
781.212	-0.28
781.387	0.08
781.562	0.17
781.737	0.22
781.911	0.13
782.086	-0.2
782.261	-0.12
782.435	0.15
782.61	-0.16
782.784	-0.15
782.959	0.15
783.134	-0.11
783.308	-0.3
783.483	-0.2
783.657	0.25
783.832	0.2
784.006	-0.46
784.181	-0.06
784.355	0.14
784.53	-0.03
784.704	-0.26
784.878	0.3
785.053	0.1
785.227	0.07
785.402	0.27
785.576	-0.21
785.75	-0.04
785.925	-0.18
786.099	-0
786.273	-0.03
786.448	0.08
786.622	0.01
786.796	-0.09
786.97	-0.21
787.145	0.41
787.319	-0.29
787.493	-0.08
787.667	-0.25
787.841	-0.18
788.015	0.18
788.19	-0.12
788.364	-0.14
788.538	0.14
788.712	0.13
788.886	0.06
789.06	0.19
789.234	0.1
789.408	-0.26
789.582	0.08
789.756	-0.15
789.93	-0.12
790.104	0.01
790.278	0.01
790.452	-0.26
790.626	0.14
790.8	-0.05
790.973	0.31
791.147	0.3
791.321	0.1
791.495	0.06
791.669	0.15
791.843	-0.01
792.016	0.12
792.19	0.19
792.364	-0.11
792.538	0.4
792.711	0.5
792.885	0.01
793.059	-0.43
793.233	-0.68
793.406	0.07
793.58	0.27
793.754	-0.02
793.927	0.06
794.101	-0.02
794.274	-0
794.448	0.15
794.622	-0.1
794.795	0.26
794.969	-0.15
795.142	0.41
795.316	-0.16
795.489	-0.03
795.663	0.39
795.836	0.16
796.009	-0.06
796.183	0.16
796.356	0.09
796.53	-0.1
796.703	-0.02
796.876	0.49
797.05	-0.36
797.223	0.02
797.396	0.14
797.57	-0.06
797.743	-0
797.916	0.1
798.09	-0.3
798.263	0.21
798.436	0.1
798.609	-0.21
798.782	-0.03
798.956	-0.03
799.129	-0.06
799.302	-0.11
799.475	-0.13
799.648	-0.09
799.821	-0.27
799.994	0.06
800.167	-0.29
800.34	-0.07
800.514	-0.11
800.687	-0.12
800.86	-0.17
801.033	0.02
801.206	0.29
801.379	-0.31
801.551	0.21
801.724	0.16
801.897	0.46
802.07	-0.16
802.243	-0.43
802.416	-0.22
802.589	-0.07
802.762	-0.06
802.935	-0.02
803.107	0.17
803.28	0.16
803.453	0.26
803.626	-0.43
803.798	-0.33
803.971	-0.02
804.144	-0.11
804.317	0.04
804.489	0.03
804.662	-0.26
804.835	0.2
805.007	-0.33
805.18	0.27
805.353	0.03
805.525	-0.04
805.698	-0.35
805.87	0.31
806.043	0.34
806.215	-0.51
806.388	-0.39
806.56	-0.22
806.733	0.38
806.905	0.18
807.078	-0.12
807.25	-0.16
807.423	0.25
807.595	0.01
807.768	-0.12
807.94	0.03
808.112	-0.08
808.285	-0.26
808.457	-0.26
808.629	-0.03
808.802	0
808.974	0.38
809.146	-0.14
809.318	-0.29
809.491	-0.13
809.663	0.44
809.835	-0.26
810.007	0.25
810.18	-0.21
810.352	-0.39
810.524	-0.17
810.696	0.02
810.868	0.46
811.04	0.1
811.212	-0.44
811.384	-0
811.556	0.21
811.728	-0.08
811.901	0.78
812.073	-0.23
812.245	0.37
812.417	-0.05
812.589	-0.4
812.76	0.06
812.932	0.05
813.104	0.6
813.276	0.13
813.448	0.25
813.62	0.05
813.792	0.24
813.964	0.2
814.136	0.02
814.307	-0.53
814.479	-0.31
814.651	-0.11
814.823	0.38
814.995	-0.15
815.166	0.02
815.338	-0.15
815.51	-0.55
815.681	0.81
815.853	-0.18
816.025	-0.13
816.196	0.14
816.368	0.16
816.54	-0.13
816.711	-0.44
816.883	0.22
817.054	0.77
817.226	-0.25
817.398	0.33
817.569	-0.11
817.741	-0.08
817.912	0.08
818.084	0.17
818.255	0.1
818.426	-0.25
818.598	0.06
818.769	-0.13
818.941	0.29
819.112	0.62
819.283	0.3
819.455	-0.14
819.626	0.14
819.798	0.29
819.969	0.02
820.14	-0.18
820.311	-0.01
820.483	0.01
820.654	0.11
820.825	0.03
820.996	-0.34
821.168	-0.49
821.339	0.13
821.51	-0.52
821.681	-0.08
821.852	-0
822.023	-0.43
822.195	-0.33
822.366	0.77
822.537	-0.07
822.708	-0.16
822.879	-0.39
823.05	0.74
823.221	0.15
823.392	0.2
823.563	-0.16
823.734	0.2
823.905	-0.47
824.076	0.25
824.247	-0.52
824.418	-0.15
824.589	0.56
824.759	-0.23
824.93	-0.36
825.101	-0.76
825.272	0.29
825.443	0.63
825.614	0.45
825.784	-0.88
825.955	1.06
826.126	0.88
826.297	0.02
826.467	0.94
826.638	0.74
826.809	-0.12
826.98	-0.06
827.15	0.58
827.321	-0.08
827.492	0.91
827.662	0.05
827.833	1.12
828.003	0.33
828.174	-0.43
828.345	-0.67
828.515	0.73
828.686	0.4
828.856	-0.17
829.027	0
829.197	-0.22
829.368	0.44
829.538	-0.1
829.709	-0.14
829.879	-0.14
830.049	0.32
830.22	-0.06
830.39	-0.19
830.56	0.3
830.731	-0.63
830.901	-0.43
831.072	-0.07
831.242	-0.21
831.412	-0.19
831.582	0.02
831.753	-0.5
831.923	0.09
832.093	-0.37
832.263	0.56
832.434	-0.82
832.604	-0.04
832.774	0.19
832.944	-0.05
833.114	-0.22
833.284	-0.23
833.454	-0.48
833.624	-0.34
833.795	-0.66
833.965	0.26
834.135	0.02
834.305	-0.67
834.475	-0.67
834.645	-0.39
834.815	-0.03
834.985	-0.34
835.155	0.03
835.325	-0.26
835.494	0.07
835.664	-0.85
835.834	-0.67
836.004	0.33
836.174	0.56
836.344	-0.26
836.514	-0.55
836.684	-0.79
836.853	0.27
837.023	0.06
837.193	-0.62
837.363	1.12
837.532	0.6
837.702	-0.64
837.872	-0.71
838.041	0.74
838.211	0.66
838.381	-1.55
838.55	0.06
838.72	0.64
838.89	0.95
839.059	0.05
839.229	-0.56
839.398	1.17
839.568	0.6
839.738	-0.09
839.907	0.84
840.077	0.69
840.246	-0.73
840.416	-1.11
840.585	-0.42
840.755	0.58
840.924	0.74
841.093	-1.39
841.263	-0.37
841.432	0.27
841.602	-0.51
841.771	-0.69
841.94	-0.02
842.11	1.87
842.279	1.59
842.448	-0.37
842.617	-0.56
842.787	0.98
842.956	-0.76
843.125	0.31
843.294	0.31
843.464	1.17
843.633	-0.06
843.802	-0.95
843.971	0.15
844.14	0.35
844.309	-0.19
844.479	-0.39
844.648	-0.35
844.817	-0.82
844.986	-0.04
845.155	-0.53
845.324	-0.16
845.493	0.7
845.662	-0.58
845.831	0.26
846	-0.04
846.169	-0.65
846.338	0.94
846.507	0.81
846.676	0.11
846.844	-0.67
847.013	0.38
847.182	0.57
847.351	0.02
847.52	0.21
847.689	-0.15
847.858	0.14
848.026	-0.79
848.195	-0.83
848.364	-0.7
848.533	-0.74
848.701	-0.57
848.87	0.02
849.039	-0.27
849.207	0.7
849.376	0.23
849.545	1.05
849.713	0.21
849.882	-0.54
850.051	-0.33
850.219	-0.76
850.388	1.23
850.556	-0.95
850.725	-1.12
850.893	-0.38
851.062	-0.53
851.23	0.29
851.399	-1.12
851.567	-0.98
851.736	-0.43
851.904	-0.81
852.073	0.04
852.241	0.65
852.41	0.74
852.578	0.32
852.746	-1.2
852.915	1.42
853.083	-0.34
853.251	-1.68
853.42	0.44
853.588	-0.23
853.756	0.24
853.924	-0.97
854.093	0.37
854.261	-0.7
854.429	-0.43
854.597	-0.2
854.765	-0.81
854.934	0.07
855.102	0.78
855.27	0.72
855.438	0.2
855.606	-0.53
855.774	1.31
855.942	-1.16
856.11	-2.27
856.278	0.02
856.446	-0.42
856.614	0.15
856.782	-1.23
856.95	0.85
857.118	-0.02
857.286	0.46
857.454	-0.7
857.622	0.49
857.79	0.09
857.958	-0.77
858.126	-0.72
858.294	-2.38
858.462	-0
858.629	-0.32
858.797	-0.69
858.965	-0.81
859.133	0.34
859.301	-0.32
859.468	-0.28
859.636	0.28
859.804	0.95
859.971	1.79
860.139	-1.33
860.307	0.23
860.474	-0.97
860.642	-0.78
860.81	-0.66
860.977	-0.28
861.145	1.49
861.313	-0.79
861.48	0.48
861.648	0.6
861.815	-0.4
861.983	-0.79
862.15	-0.26
862.318	-0.29
862.485	0.94
862.653	-0.54
862.82	-1.33
862.988	0.9
863.155	-0.86
863.322	-0.5
863.49	-1.36
863.657	0.04
863.824	2.59
863.992	0.27
864.159	-0.21
864.326	0.99
864.494	-1.66
864.661	2.58
864.828	-0.71
864.996	1.2
865.163	2.55
865.33	-0.52
865.497	-1.26
865.664	0.07
865.832	-1.54
865.999	-0.9
866.166	-0.02
866.333	-1.36
866.5	-1.15
866.667	-0.77
866.834	0.01
867.001	0.64
867.168	-2.39
867.335	0.96
867.502	-1.52
867.669	1.03
867.836	1.42
868.003	1.13
868.17	0.8
868.337	2.39
868.504	1.99
868.671	0.39
868.838	-1.6
869.005	1.65
869.172	-0.38
869.339	-0.48
869.505	-0.35
869.672	-1.76
869.839	2.42
870.006	0.54
870.173	-2.7
870.339	1.03
870.506	4.19
870.673	-0.94
870.84	2.03
871.006	1.13
871.173	0.04
871.34	0.25
871.506	0.39
871.673	0.59
871.839	-0.59
872.006	-0.2
872.173	-0.37
872.339	0.65
872.506	1.81
872.672	0.59
872.839	-2.14
873.005	1.13
873.172	3.24
873.338	1.11
873.505	0.6
873.671	0.65
873.838	0.47
874.004	-1.47
874.171	-1.39
874.337	-0.38
874.503	0.77
874.67	0.61
874.836	-1.49
875.002	2.6
875.169	-0.65
875.335	-1.26
875.501	-0.5
875.668	0.96
875.834	-1.44
876	0.13
876.166	-0.22
876.332	0.71
876.499	3.17
876.665	-0.84
876.831	0.45
876.997	3.12
877.163	-0.26
877.329	-0.74
877.495	1.66
877.662	0.03
877.828	-0.26
877.994	0.07
878.16	-2.39
878.326	-1.36
878.492	-1.67
878.658	-1.38
878.824	-0.32
878.99	1.52
879.156	-0.44
879.322	0.44
879.487	0.5
879.653	0.25
879.819	0.23
879.985	-1.81
880.151	1.15
880.317	0.25
880.483	0.38
880.648	1.58
880.814	-2.7
880.98	-0.1
881.146	-2.79
881.312	-2.63
881.477	0.71
881.643	-0.78
881.809	1.33
881.974	1.18
882.14	-0.5
882.306	0.76
882.471	3.23
882.637	-1.92
882.803	2.67
882.968	2.44
883.134	2.11
883.299	0.42
883.465	0.46
883.63	3.98
883.796	0.48
883.961	1.93
884.127	-0.34
884.292	-3.18
884.458	-1.34
884.623	-1.34
