Data from Apollo_Calib_20240827__AbsoluteIrradiance__378__05-27-01-501.txt Node

Date: Wed Aug 28 05:27:01 BST 2024
User: biology
Spectrometer: FLMT08252
Trigger mode: 0
Integration Time (sec): 5.000000E-1
Scans to average: 5
Electric dark correction enabled: true
Nonlinearity correction enabled: false
Boxcar width: 0
XAxis mode: Wavelengths
Number of Pixels in Spectrum: 3648
>>>>>Begin Spectral Data<<<<<
179.588	-0
179.809	-0
180.03	-0
180.251	-0
180.473	-0
180.694	0
180.915	0
181.136	-0
181.357	0
181.578	0
181.799	-0
182.02	-0
182.241	0
182.462	-0
182.683	0
182.904	-0
183.125	-0
183.346	0
183.567	0
183.788	-0
184.009	-0
184.23	0
184.451	0
184.672	-0
184.892	-0
185.113	-0
185.334	0
185.555	-0
185.776	-0
185.996	-0
186.217	0
186.438	-0
186.659	-0
186.879	0
187.1	-0
187.321	-0
187.541	-0
187.762	-0
187.983	-0
188.203	-0
188.424	0
188.644	-0
188.865	-0
189.086	-0
189.306	-0
189.527	-0
189.747	-0
189.968	-0
190.188	0
190.409	-0
190.629	0
190.849	-0
191.07	-0
191.29	0
191.511	0
191.731	-0
191.951	-0
192.172	-0
192.392	-0
192.612	-0
192.833	-0
193.053	-0
193.273	0
193.493	-0
193.714	-0
193.934	0
194.154	0
194.374	0
194.594	-0
194.815	-0
195.035	0
195.255	-0
195.475	-0
195.695	0
195.915	0
196.135	-0
196.355	0
196.575	0
196.795	-0
197.015	-0
197.235	-0
197.455	-0
197.675	-0
197.895	-0
198.115	-0
198.335	0
198.555	-0
198.775	-0
198.995	-0
199.214	0
199.434	-0
199.654	-0
199.874	-0
200.094	0.42
200.313	-0.9
200.533	-0.65
200.753	-1.14
200.973	0.47
201.192	0.03
201.412	-0.96
201.632	-0.6
201.851	0.39
202.071	-0.43
202.291	-0.53
202.51	-0.74
202.73	0.05
202.95	-0.17
203.169	-0.85
203.389	-0.56
203.608	-0.01
203.828	-0.51
204.047	-0.62
204.267	-0.17
204.486	0.16
204.706	0.1
204.925	-0.01
205.145	-0.4
205.364	0.17
205.583	0.26
205.803	-0.33
206.022	-0.53
206.242	-0.15
206.461	0.01
206.68	-0.51
206.9	-0.35
207.119	0.12
207.338	0.4
207.557	-0.62
207.777	-0.34
207.996	0.05
208.215	0.33
208.434	-0.4
208.654	-0.61
208.873	0.13
209.092	0.32
209.311	-0.09
209.53	-0.4
209.749	-0.03
209.968	-0.29
210.187	-0.32
210.407	-0.63
210.626	-0.41
210.845	-0.16
211.064	-0.18
211.283	-0.48
211.502	0.42
211.721	0.12
211.94	-0.28
212.159	0.02
212.377	0.08
212.596	0.23
212.815	-0.05
213.034	-0.14
213.253	0.15
213.472	-0.04
213.691	-0.3
213.91	-0.14
214.128	-0.21
214.347	0.25
214.566	-0.46
214.785	-0.46
215.003	-0.08
215.222	-0.36
215.441	-0.14
215.66	-0.42
215.878	0.12
216.097	0.06
216.316	-0.51
216.534	-0.15
216.753	0.02
216.972	0.13
217.19	-0.02
217.409	-0.11
217.627	-0.14
217.846	-0.13
218.064	0.01
218.283	-0.28
218.501	0.39
218.72	0.14
218.938	-0.33
219.157	-0.1
219.375	0.06
219.594	-0.09
219.812	-0.27
220.031	-0.27
220.249	0.15
220.467	0.21
220.686	-0.14
220.904	-0.38
221.122	-0.3
221.341	0.23
221.559	-0.16
221.777	-0.31
221.995	-0.08
222.214	-0.04
222.432	-0.15
222.65	0.2
222.868	-0.13
223.086	0.01
223.305	-0.06
223.523	-0.12
223.741	0.15
223.959	-0.02
224.177	-0.24
224.395	-0.21
224.613	-0.13
224.831	0.04
225.049	-0.23
225.267	-0.05
225.485	0.04
225.703	-0.19
225.921	-0.2
226.139	-0.19
226.357	0.22
226.575	-0.08
226.793	-0.18
227.011	0.5
227.229	0.05
227.447	0.08
227.665	-0.24
227.883	-0.25
228.1	0.04
228.318	0.08
228.536	-0.36
228.754	-0.12
228.972	0.09
229.189	0.09
229.407	-0.13
229.625	-0.16
229.843	0.1
230.06	0.05
230.278	-0.22
230.496	-0.09
230.713	-0.02
230.931	0.05
231.149	-0.13
231.366	-0.32
231.584	-0.06
231.801	0.31
232.019	-0.11
232.236	-0.15
232.454	-0.25
232.671	0.03
232.889	-0.05
233.106	-0.19
233.324	-0.07
233.541	0
233.759	-0.12
233.976	-0.19
234.194	-0.18
234.411	-0.02
234.628	-0.31
234.846	-0.07
235.063	-0.05
235.28	-0.04
235.498	-0.16
235.715	-0.21
235.932	-0.02
236.149	-0.11
236.367	-0.15
236.584	-0.08
236.801	-0.13
237.018	0.02
237.236	0.03
237.453	-0.26
237.67	0.05
237.887	-0.11
238.104	-0.2
238.321	-0.17
238.538	-0.11
238.755	0.1
238.973	-0.22
239.19	-0.01
239.407	-0
239.624	0.02
239.841	-0.18
240.058	-0.09
240.275	-0.05
240.492	-0.12
240.709	-0.12
240.925	-0.05
241.142	-0.07
241.359	-0.09
241.576	-0.14
241.793	-0.16
242.01	-0.1
242.227	0.07
242.444	0.04
242.66	0.02
242.877	-0.05
243.094	-0.25
243.311	-0.04
243.527	-0
243.744	0.05
243.961	0.01
244.178	-0.1
244.394	-0.05
244.611	-0.01
244.828	0.12
245.044	-0.14
245.261	-0.11
245.477	-0.02
245.694	-0.02
245.911	-0.1
246.127	-0.09
246.344	0.14
246.56	0.01
246.777	-0.06
246.993	-0.08
247.21	-0.05
247.426	0.01
247.643	-0.03
247.859	-0.08
248.076	-0.11
248.292	0.18
248.508	-0.11
248.725	-0.05
248.941	0.01
249.157	0.06
249.374	-0.04
249.59	-0.11
249.806	-0.02
250.023	-0.02
250.239	-0.2
250.455	-0.09
250.671	-0.09
250.888	-0.03
251.104	-0.09
251.32	-0.16
251.536	-0.06
251.752	-0.04
251.969	-0.06
252.185	-0.06
252.401	0.11
252.617	0.01
252.833	-0.07
253.049	-0.09
253.265	-0.07
253.481	-0.04
253.697	-0.01
253.913	-0.1
254.129	0.02
254.345	0
254.561	-0.05
254.777	-0.07
254.993	0.04
255.209	-0
255.425	-0.06
255.641	-0.05
255.857	0.01
256.073	-0.06
256.288	-0.13
256.504	-0.18
256.72	-0.01
256.936	0.04
257.152	-0.12
257.367	-0.09
257.583	-0.04
257.799	0.05
258.015	-0.11
258.23	-0.06
258.446	0.13
258.662	-0.08
258.877	-0.07
259.093	-0.15
259.309	-0
259.524	-0.03
259.74	-0.06
259.955	-0.18
260.171	-0.03
260.387	-0.06
260.602	0.03
260.818	0.04
261.033	-0.06
261.249	-0.1
261.464	-0.04
261.68	-0.11
261.895	0.06
262.11	0.02
262.326	-0.16
262.541	-0.16
262.757	0.04
262.972	-0.02
263.187	-0.01
263.403	0
263.618	0.07
263.833	-0.03
264.049	-0.04
264.264	-0.06
264.479	-0.02
264.694	0.08
264.91	-0.11
265.125	-0.11
265.34	0.04
265.555	0.07
265.77	-0.05
265.986	-0.05
266.201	0.02
266.416	0.05
266.631	-0.11
266.846	-0.04
267.061	-0.04
267.276	0.05
267.491	-0.15
267.706	-0.07
267.921	0.01
268.136	0.04
268.351	-0.01
268.566	-0.16
268.781	0.04
268.996	-0.02
269.211	-0.08
269.426	-0.13
269.641	-0.04
269.856	0.06
270.071	-0.1
270.285	-0.1
270.5	0.06
270.715	0.03
270.93	-0.07
271.145	-0.05
271.359	0.03
271.574	-0.06
271.789	0
272.004	-0.05
272.218	-0.07
272.433	0.03
272.648	-0.05
272.862	0
273.077	-0.04
273.292	-0.03
273.506	-0.1
273.721	-0.05
273.936	0.01
274.15	-0
274.365	-0.06
274.579	-0.02
274.794	-0.02
275.008	0.06
275.223	-0.12
275.437	-0.07
275.652	0.03
275.866	-0.01
276.081	0.04
276.295	0.01
276.509	-0.06
276.724	0.01
276.938	0
277.153	0
277.367	0
277.581	-0.06
277.796	-0.13
278.01	-0.1
278.224	0.01
278.438	0.07
278.653	-0.14
278.867	-0.12
279.081	-0.21
279.295	-0.07
279.51	-0.05
279.724	-0.17
279.938	0.02
280.152	-0
280.366	-0.12
280.58	-0.01
280.794	0.02
281.008	-0.01
281.222	-0.02
281.437	0.07
281.651	-0.01
281.865	0.05
282.079	-0.03
282.293	-0.12
282.507	-0.09
282.721	-0.04
282.935	-0.01
283.148	-0.1
283.362	-0.08
283.576	-0.08
283.79	-0.06
284.004	-0.07
284.218	0.03
284.432	-0.08
284.646	0.01
284.859	-0.05
285.073	-0.05
285.287	-0.04
285.501	-0.03
285.714	-0.06
285.928	-0
286.142	-0.01
286.356	-0.08
286.569	-0.08
286.783	0.04
286.997	-0.03
287.21	-0.02
287.424	0.03
287.637	-0.06
287.851	-0.07
288.065	-0
288.278	-0.02
288.492	0.02
288.705	-0.07
288.919	-0.02
289.132	-0.04
289.346	0.01
289.559	-0.06
289.773	-0.06
289.986	-0.01
290.2	-0.05
290.413	-0.02
290.626	-0.05
290.84	-0.05
291.053	-0.01
291.267	0.06
291.48	0.02
291.693	-0
291.906	-0.06
292.12	-0.06
292.333	-0.1
292.546	-0.02
292.76	0.08
292.973	-0.02
293.186	0.01
293.399	-0.08
293.612	0.03
293.826	-0.01
294.039	0.05
294.252	-0.04
294.465	0.02
294.678	-0.01
294.891	-0.04
295.104	-0.07
295.317	-0.02
295.53	0.01
295.743	-0.05
295.956	0
296.169	0.01
296.382	0.06
296.595	-0.01
296.808	-0.09
297.021	0.03
297.234	0
297.447	-0.05
297.66	0.01
297.873	0.03
298.086	0.03
298.299	-0.04
298.511	-0.06
298.724	-0.04
298.937	-0.06
299.15	-0.02
299.363	-0
299.575	0.03
299.788	0.01
300.001	-0.04
300.213	-0.05
300.426	-0.04
300.639	-0.03
300.852	-0.07
301.064	-0
301.277	0.08
301.489	0.03
301.702	0.04
301.915	-0.01
302.127	0.02
302.34	0.04
302.552	-0
302.765	-0.06
302.977	0.02
303.19	-0.08
303.402	-0.04
303.615	-0.08
303.827	-0.04
304.04	-0.04
304.252	-0
304.464	-0.05
304.677	0.12
304.889	0.02
305.102	-0.04
305.314	-0.05
305.526	-0.03
305.739	0
305.951	-0.02
306.163	-0.02
306.375	0.09
306.588	-0.03
306.8	-0.03
307.012	-0.04
307.224	-0.02
307.436	0.05
307.649	-0.09
307.861	0.05
308.073	0.02
308.285	-0.07
308.497	-0.04
308.709	-0.05
308.921	-0.03
309.133	0.02
309.346	0
309.558	-0.02
309.77	0.03
309.982	0.02
310.194	-0.04
310.406	-0.05
310.617	0.04
310.829	0.02
311.041	-0
311.253	-0.08
311.465	-0.08
311.677	0.01
311.889	-0.02
312.101	-0.03
312.313	0.03
312.524	0.04
312.736	-0.06
312.948	-0.04
313.16	0.09
313.372	-0.02
313.583	0.02
313.795	-0.02
314.007	-0.01
314.218	0.04
314.43	-0.02
314.642	-0.06
314.853	-0.05
315.065	0.01
315.277	-0.02
315.488	0
315.7	0.03
315.912	0.06
316.123	0.01
316.335	-0.03
316.546	0.11
316.758	-0
316.969	-0.03
317.181	-0.01
317.392	-0.04
317.604	0.06
317.815	-0.08
318.026	-0.06
318.238	-0.01
318.449	0.01
318.661	-0.08
318.872	-0.07
319.083	-0.1
319.295	0.02
319.506	-0.06
319.717	0.02
319.929	-0.01
320.14	-0.03
320.351	-0.01
320.562	-0.04
320.774	-0.05
320.985	-0.04
321.196	-0.04
321.407	-0.03
321.618	0.01
321.829	-0.02
322.041	0.01
322.252	-0.04
322.463	0.02
322.674	0.04
322.885	-0.08
323.096	-0.03
323.307	-0.03
323.518	0.03
323.729	-0.06
323.94	-0.04
324.151	-0.01
324.362	0.01
324.573	-0.02
324.784	-0.08
324.995	0.03
325.206	0
325.417	-0.02
325.628	-0.02
325.838	0
326.049	0.02
326.26	0.01
326.471	-0.01
326.682	0.03
326.892	-0.06
327.103	-0.09
327.314	-0.06
327.525	0.03
327.735	0.02
327.946	-0.02
328.157	-0.03
328.368	0.02
328.578	-0.04
328.789	-0.02
328.999	-0
329.21	-0.03
329.421	0.04
329.631	-0.07
329.842	-0.08
330.052	0.01
330.263	0.02
330.473	-0.02
330.684	0
330.894	-0.02
331.105	-0.03
331.315	-0.05
331.526	-0.1
331.736	0.09
331.947	-0.02
332.157	0.04
332.367	-0.09
332.578	0.03
332.788	0.04
332.999	-0.01
333.209	-0.03
333.419	-0.04
333.629	-0
333.84	0.06
334.05	-0.04
334.26	0.05
334.47	-0.02
334.681	0.02
334.891	-0.07
335.101	0.04
335.311	0.06
335.521	-0.01
335.732	-0.07
335.942	0.03
336.152	-0.01
336.362	0
336.572	-0.01
336.782	0.03
336.992	-0.05
337.202	-0.03
337.412	-0.03
337.622	0.03
337.832	-0.02
338.042	-0.04
338.252	-0.06
338.462	-0.01
338.672	-0.01
338.882	0.01
339.092	0.01
339.302	0.02
339.511	0
339.721	-0.03
339.931	-0.08
340.141	0.03
340.351	0.03
340.561	0
340.77	-0.02
340.98	-0.01
341.19	0.02
341.4	-0.05
341.609	-0.08
341.819	-0.02
342.029	-0.07
342.238	-0.05
342.448	-0.03
342.658	0.03
342.867	0.01
343.077	-0.03
343.286	0.02
343.496	-0.02
343.706	0.06
343.915	-0.03
344.125	0
344.334	-0.04
344.544	-0.11
344.753	-0.04
344.963	-0.04
345.172	-0.04
345.381	-0.05
345.591	-0.1
345.8	0
346.01	0.07
346.219	0.04
346.428	-0.14
346.638	-0.03
346.847	-0.02
347.056	0.01
347.266	-0.02
347.475	0.01
347.684	0.01
347.893	0.04
348.103	-0
348.312	-0.03
348.521	-0.02
348.73	0.01
348.94	-0
349.149	-0.06
349.358	-0.02
349.567	-0.02
349.776	-0.09
349.985	-0
350.194	0.05
350.403	0.03
350.612	-0.03
350.821	-0.04
351.03	-0.01
351.239	-0.07
351.448	0.01
351.657	-0.05
351.866	0.07
352.075	-0.04
352.284	-0.04
352.493	-0.07
352.702	0.05
352.911	0.03
353.12	0.01
353.329	-0.02
353.538	-0
353.746	0.02
353.955	-0.04
354.164	-0.02
354.373	-0.03
354.582	0.03
354.79	-0.01
354.999	0.05
355.208	-0.04
355.416	0.03
355.625	-0.04
355.834	-0.06
356.042	-0.01
356.251	-0.05
356.46	-0.04
356.668	0
356.877	0.07
357.085	0.01
357.294	-0.11
357.503	0
357.711	-0.02
357.92	0.13
358.128	0.02
358.337	-0.03
358.545	0.01
358.754	-0.01
358.962	-0.01
359.17	-0.06
359.379	0.02
359.587	0.03
359.796	-0.05
360.004	0.03
360.212	0.02
360.421	0.04
360.629	-0.06
360.837	-0
361.046	0.01
361.254	0.1
361.462	0.03
361.67	-0.02
361.879	0.02
362.087	0.06
362.295	-0.03
362.503	-0.06
362.711	-0.07
362.92	-0.02
363.128	-0.05
363.336	-0.03
363.544	-0.08
363.752	-0.01
363.96	-0.07
364.168	-0.05
364.376	0.01
364.584	-0.02
364.792	0
365	0.02
365.208	-0.03
365.416	-0
365.624	0.02
365.832	-0.05
366.04	0.04
366.248	-0.04
366.456	0.04
366.664	-0.02
366.872	0
367.079	-0.04
367.287	0
367.495	0.01
367.703	-0.02
367.911	-0.01
368.118	-0.05
368.326	-0.02
368.534	-0.02
368.742	0.02
368.949	-0.06
369.157	-0.04
369.365	-0
369.572	-0.02
369.78	-0.06
369.988	0.03
370.195	0.04
370.403	-0
370.61	0
370.818	-0.02
371.026	0.04
371.233	-0.05
371.441	-0
371.648	-0.06
371.856	0.01
372.063	0.01
372.271	-0.02
372.478	-0.06
372.685	-0.02
372.893	0.04
373.1	-0.02
373.308	-0.08
373.515	0.07
373.722	0.03
373.93	-0
374.137	0.02
374.344	0.05
374.552	0.04
374.759	-0.03
374.966	-0.04
375.173	-0.03
375.381	0.05
375.588	-0.01
375.795	-0.11
376.002	-0.02
376.209	-0.06
376.417	-0.02
376.624	-0.06
376.831	-0.01
377.038	-0.01
377.245	-0.07
377.452	-0.05
377.659	0
377.866	-0.02
378.073	0.01
378.28	-0.05
378.487	0.03
378.694	-0
378.901	-0.05
379.108	-0.06
379.315	0.01
379.522	0.06
379.729	-0.01
379.936	-0.05
380.143	-0.04
380.35	0.02
380.557	-0.06
380.763	-0.02
380.97	-0.01
381.177	-0
381.384	0.02
381.591	-0.04
381.797	0.01
382.004	-0.01
382.211	-0
382.418	0
382.624	0.01
382.831	-0.03
383.038	-0.02
383.244	-0
383.451	-0.05
383.658	0.02
383.864	-0.06
384.071	-0.04
384.277	0.03
384.484	-0.04
384.69	0.02
384.897	-0.04
385.103	-0.03
385.31	-0.05
385.516	-0.03
385.723	-0.06
385.929	-0.02
386.136	-0.06
386.342	0.01
386.549	-0.02
386.755	0.05
386.961	0.02
387.168	-0.03
387.374	-0.02
387.58	0.01
387.787	-0.02
387.993	-0.02
388.199	-0.05
388.406	-0.07
388.612	-0.02
388.818	-0.02
389.024	-0.09
389.231	-0.06
389.437	0.05
389.643	0.02
389.849	-0.02
390.055	0
390.261	-0.04
390.467	-0.01
390.674	-0.03
390.88	-0
391.086	0.04
391.292	-0.03
391.498	-0
391.704	0.02
391.91	-0.06
392.116	-0.02
392.322	-0.13
392.528	-0.02
392.734	-0.03
392.94	0.01
393.146	-0.04
393.352	0.01
393.557	-0.03
393.763	-0.05
393.969	0.02
394.175	-0.03
394.381	0
394.587	-0.05
394.792	-0.01
394.998	0.06
395.204	0.05
395.41	-0.06
395.615	0.01
395.821	0.02
396.027	0.01
396.233	-0.02
396.438	0.01
396.644	0.06
396.85	0.02
397.055	-0.03
397.261	-0.01
397.466	0.08
397.672	-0.03
397.878	-0.02
398.083	-0.04
398.289	-0.03
398.494	0.04
398.7	-0.01
398.905	-0.06
399.111	0.08
399.316	-0.06
399.522	-0.01
399.727	-0.03
399.932	-0.02
400.138	-0.11
400.343	0.04
400.549	-0
400.754	-0.03
400.959	0.01
401.165	-0.02
401.37	-0.03
401.575	-0.04
401.78	0.01
401.986	-0.06
402.191	-0.02
402.396	0
402.601	-0.01
402.807	0.02
403.012	-0.01
403.217	0.03
403.422	-0
403.627	-0.07
403.832	-0.03
404.037	-0.01
404.243	-0.02
404.448	-0.03
404.653	-0.04
404.858	0
405.063	0.05
405.268	-0.06
405.473	-0.05
405.678	-0.07
405.883	0.09
406.088	-0.01
406.293	-0.07
406.498	-0.03
406.703	0.06
406.907	-0.01
407.112	-0.05
407.317	-0.03
407.522	0.04
407.727	-0.11
407.932	-0.01
408.136	0.03
408.341	-0.06
408.546	-0.02
408.751	-0.02
408.956	-0.06
409.16	0
409.365	-0.02
409.57	-0.01
409.774	-0.01
409.979	-0.03
410.184	0.02
410.388	-0.08
410.593	0.02
410.798	-0.03
411.002	-0.03
411.207	-0.01
411.411	-0.03
411.616	-0.04
411.82	-0.02
412.025	0.02
412.229	-0.02
412.434	0.02
412.638	-0.03
412.843	0.01
413.047	-0.02
413.252	-0.05
413.456	-0.07
413.66	0.04
413.865	-0.02
414.069	0.05
414.273	-0.03
414.478	-0.04
414.682	-0.06
414.886	-0.05
415.091	-0.06
415.295	-0.14
415.499	0.01
415.703	-0.06
415.908	-0
416.112	-0.13
416.316	0.03
416.52	-0.03
416.724	-0.09
416.929	-0.06
417.133	0.11
417.337	-0.04
417.541	-0.03
417.745	-0.03
417.949	-0.02
418.153	0.01
418.357	-0.07
418.561	0.05
418.765	-0.02
418.969	0.09
419.173	0.06
419.377	-0.09
419.581	0.07
419.785	-0.05
419.989	-0.05
420.193	-0.09
420.397	-0.05
420.601	0.02
420.804	0.02
421.008	-0.04
421.212	0.01
421.416	0.03
421.62	-0.06
421.823	-0.02
422.027	0.09
422.231	0.01
422.435	-0.05
422.638	-0.02
422.842	-0
423.046	-0.1
423.249	-0.02
423.453	0.03
423.657	0.03
423.86	-0.03
424.064	-0.07
424.268	0.02
424.471	0.02
424.675	0.03
424.878	0.06
425.082	-0.04
425.285	0.02
425.489	-0.02
425.692	-0.03
425.896	-0.07
426.099	0
426.303	-0.08
426.506	-0.09
426.71	-0.06
426.913	0.04
427.116	0.02
427.32	-0.03
427.523	-0.07
427.726	0.07
427.93	-0.08
428.133	-0.08
428.336	-0.08
428.54	-0.07
428.743	-0.02
428.946	0.02
429.149	-0.03
429.353	-0.02
429.556	-0.06
429.759	-0.06
429.962	-0.05
430.165	-0.05
430.368	-0.03
430.571	-0.03
430.775	0.02
430.978	-0.07
431.181	0.01
431.384	0.01
431.587	-0.07
431.79	-0.01
431.993	-0.03
432.196	-0.05
432.399	-0.07
432.602	0.04
432.805	-0.07
433.008	-0.04
433.211	-0.1
433.414	-0.03
433.616	0
433.819	-0.03
434.022	-0.12
434.225	0.05
434.428	-0.03
434.631	0.06
434.833	-0.01
435.036	-0.05
435.239	0.01
435.442	0.01
435.645	-0.08
435.847	0.02
436.05	0.02
436.253	-0.01
436.455	-0.05
436.658	-0.01
436.861	0.06
437.063	-0.04
437.266	-0.03
437.468	0.02
437.671	0.15
437.874	-0.05
438.076	-0.1
438.279	-0.07
438.481	-0.05
438.684	-0.08
438.886	0.01
439.089	-0.13
439.291	0.04
439.494	-0.04
439.696	-0.11
439.899	-0.05
440.101	0.01
440.303	-0.08
440.506	0
440.708	-0.04
440.91	-0.01
441.113	-0.05
441.315	0.04
441.517	-0.05
441.72	0.02
441.922	-0.09
442.124	-0.05
442.326	-0.03
442.529	0.05
442.731	-0.06
442.933	0.03
443.135	-0.05
443.337	-0.05
443.539	-0.06
443.742	-0.07
443.944	-0.05
444.146	-0.07
444.348	-0.06
444.55	-0.06
444.752	-0.06
444.954	-0.05
445.156	-0.03
445.358	-0.07
445.56	0.04
445.762	-0.03
445.964	-0.04
446.166	-0.08
446.368	-0.07
446.57	0.01
446.772	-0.04
446.974	-0.05
447.175	-0.03
447.377	-0.04
447.579	-0.04
447.781	-0.15
447.983	0.03
448.184	0
448.386	-0.01
448.588	-0.06
448.79	-0.02
448.991	-0.07
449.193	-0.04
449.395	0.01
449.597	0
449.798	0.01
450	0.01
450.202	-0.04
450.403	-0.06
450.605	0.01
450.806	-0.03
451.008	-0.13
451.21	-0.01
451.411	-0.05
451.613	-0.05
451.814	-0.04
452.016	-0.02
452.217	0.04
452.419	0.02
452.62	-0.01
452.821	-0.01
453.023	0.06
453.224	0.03
453.426	-0.02
453.627	0.04
453.828	0.01
454.03	-0.04
454.231	0.02
454.432	-0.09
454.634	0.12
454.835	-0.07
455.036	-0.09
455.238	0.02
455.439	0.05
455.64	-0.08
455.841	-0.06
456.042	0.07
456.244	0.03
456.445	-0.1
456.646	-0.07
456.847	-0.05
457.048	0.04
457.249	0.04
457.45	0.13
457.651	-0.07
457.852	0.04
458.054	-0.03
458.255	-0.07
458.456	0.03
458.657	-0
458.858	-0.08
459.058	0
459.259	-0.01
459.46	0.01
459.661	-0.08
459.862	0.07
460.063	-0.04
460.264	0.04
460.465	-0.03
460.666	0.12
460.866	-0.03
461.067	0.03
461.268	0.01
461.469	-0.03
461.67	-0.02
461.87	-0.04
462.071	-0.06
462.272	-0.06
462.473	-0.01
462.673	0.01
462.874	-0.1
463.075	0.01
463.275	-0.08
463.476	-0.04
463.676	-0.01
463.877	0.02
464.078	-0.06
464.278	0.03
464.479	-0
464.679	-0.01
464.88	-0
465.08	0.01
465.281	-0.08
465.481	-0.06
465.682	-0.05
465.882	0.05
466.083	-0.04
466.283	-0.01
466.483	-0.02
466.684	-0.07
466.884	-0.01
467.085	-0.02
467.285	0.01
467.485	-0.01
467.686	-0.07
467.886	-0.06
468.086	-0.04
468.286	0.02
468.487	-0.03
468.687	-0.1
468.887	-0.01
469.087	0
469.287	-0.03
469.488	-0.08
469.688	0.02
469.888	0.01
470.088	0.04
470.288	0.06
470.488	0.04
470.688	-0.04
470.888	-0.05
471.088	-0.07
471.288	0.04
471.488	-0.01
471.688	0.01
471.888	-0.06
472.088	0.03
472.288	0.01
472.488	-0.06
472.688	-0.02
472.888	0.01
473.088	-0.03
473.288	0.01
473.488	-0.01
473.688	0.01
473.887	-0.03
474.087	-0.04
474.287	-0.02
474.487	-0.05
474.687	0
474.886	-0.03
475.086	-0.05
475.286	-0.02
475.486	-0.01
475.685	-0.05
475.885	-0.03
476.085	-0.02
476.284	-0
476.484	-0.01
476.684	0.03
476.883	0.05
477.083	-0.03
477.282	-0.04
477.482	0.06
477.681	0.04
477.881	0
478.08	-0.08
478.28	-0.05
478.479	0.03
478.679	0.04
478.878	-0.04
479.078	-0.05
479.277	-0.02
479.477	-0.02
479.676	-0.01
479.875	-0.03
480.075	-0.07
480.274	0.03
480.473	-0.01
480.673	-0.02
480.872	0.03
481.071	-0.01
481.271	-0
481.47	-0.05
481.669	-0.04
481.868	-0.03
482.067	-0.05
482.267	-0.03
482.466	-0.03
482.665	-0.02
482.864	-0.07
483.063	-0.04
483.262	0.02
483.461	0.06
483.661	0.04
483.86	-0.01
484.059	0.02
484.258	0
484.457	0
484.656	-0
484.855	0.03
485.054	-0.04
485.253	-0.03
485.452	-0.05
485.651	-0.01
485.849	0.03
486.048	-0.08
486.247	-0.03
486.446	-0.01
486.645	-0.04
486.844	-0.02
487.043	-0.02
487.241	0.03
487.44	-0.03
487.639	-0.01
487.838	0.01
488.037	-0.02
488.235	0.03
488.434	-0.01
488.633	-0.03
488.831	-0
489.03	0.04
489.229	0.01
489.427	-0.01
489.626	0.02
489.825	0.07
490.023	-0.03
490.222	-0.01
490.42	0.02
490.619	0.02
490.817	0.02
491.016	-0.01
491.214	0.02
491.413	-0.02
491.611	-0.01
491.81	-0.01
492.008	-0
492.207	0.02
492.405	0
492.604	-0.06
492.802	0.01
493	0
493.199	-0.02
493.397	-0.02
493.595	0
493.794	-0.02
493.992	0.02
494.19	-0.02
494.388	0
494.587	-0.02
494.785	-0.01
494.983	-0.02
495.181	-0.01
495.379	-0.01
495.578	-0.03
495.776	0.01
495.974	0.02
496.172	-0.01
496.37	-0.01
496.568	-0.03
496.766	-0.03
496.964	0.03
497.162	-0.01
497.36	-0.04
497.558	0.01
497.756	0
497.954	-0.01
498.152	-0.04
498.35	-0
498.548	-0.01
498.746	-0.01
498.944	-0.04
499.142	-0.02
499.34	-0.04
499.538	-0.01
499.736	-0.04
499.933	0.04
500.131	0.03
500.329	-0
500.527	0.02
500.725	0.04
500.922	0.02
501.12	0
501.318	-0
501.516	-0.03
501.713	0
501.911	-0.01
502.109	-0.05
502.306	-0.01
502.504	-0.03
502.701	-0.04
502.899	-0.02
503.097	0.04
503.294	-0
503.492	-0.02
503.689	-0.01
503.887	0.02
504.084	0.04
504.282	0.02
504.479	-0.02
504.677	0.02
504.874	-0.03
505.072	0.01
505.269	-0.01
505.466	0.01
505.664	0.03
505.861	-0.03
506.059	-0.03
506.256	0.02
506.453	-0.02
506.651	0.05
506.848	0.02
507.045	0
507.242	-0.01
507.44	-0.03
507.637	-0
507.834	-0.01
508.031	0.03
508.229	-0.02
508.426	-0
508.623	0.01
508.82	-0.03
509.017	-0.03
509.214	0
509.411	0
509.608	-0.03
509.805	0
510.003	-0.01
510.2	-0.03
510.397	0.01
510.594	-0.01
510.791	-0.02
510.988	-0.01
511.184	0.03
511.381	-0.01
511.578	-0.01
511.775	0.03
511.972	-0.02
512.169	-0.02
512.366	-0.01
512.563	0.01
512.76	-0.02
512.956	0.01
513.153	-0
513.35	0.01
513.547	-0.02
513.744	-0.01
513.94	-0.02
514.137	0
514.334	0.03
514.53	0
514.727	-0.01
514.924	0.05
515.12	-0.01
515.317	-0.05
515.514	-0.03
515.71	-0.03
515.907	0.01
516.103	0
516.3	0.02
516.497	0.02
516.693	0.05
516.89	-0.01
517.086	-0.03
517.283	0.04
517.479	0.01
517.676	-0
517.872	0.02
518.068	0
518.265	-0.02
518.461	-0.01
518.658	-0.04
518.854	0.03
519.05	-0.01
519.247	-0.02
519.443	0.03
519.639	0.01
519.836	0.01
520.032	0.02
520.228	0.01
520.424	0.04
520.621	0.02
520.817	0.01
521.013	0.02
521.209	0.01
521.405	0.06
521.601	0
521.798	0.01
521.994	0.05
522.19	-0.01
522.386	-0.04
522.582	-0
522.778	0.01
522.974	-0
523.17	-0.01
523.366	0.03
523.562	0.02
523.758	-0
523.954	0
524.15	0.01
524.346	0.03
524.542	-0.01
524.738	-0.02
524.934	-0.01
525.129	-0.06
525.325	0.01
525.521	0.01
525.717	0.04
525.913	-0
526.109	-0
526.304	-0
526.5	0.02
526.696	0.04
526.892	0.02
527.087	0.03
527.283	-0.02
527.479	0.03
527.674	-0.02
527.87	0
528.066	-0.01
528.261	0.02
528.457	0.01
528.653	0.01
528.848	-0.01
529.044	0.01
529.239	-0
529.435	0.01
529.63	0.01
529.826	0.05
530.021	0.02
530.217	0.03
530.412	-0.03
530.608	-0.01
530.803	0.02
530.999	-0
531.194	-0.04
531.389	0.02
531.585	-0.04
531.78	-0.02
531.975	0.01
532.171	0.03
532.366	0.02
532.561	0.01
532.757	-0.03
532.952	-0.01
533.147	0.02
533.342	-0
533.538	-0
533.733	0.03
533.928	-0.01
534.123	-0
534.318	-0.02
534.513	-0.01
534.709	-0
534.904	-0
535.099	-0.01
535.294	0.02
535.489	-0
535.684	-0.02
535.879	-0.03
536.074	0.02
536.269	-0.03
536.464	0.01
536.659	-0.01
536.854	-0.02
537.049	-0.02
537.244	-0
537.439	-0
537.634	0.02
537.828	0.01
538.023	0.02
538.218	-0.04
538.413	-0.01
538.608	-0.07
538.803	0.03
538.997	-0.04
539.192	0.03
539.387	0.02
539.582	-0
539.776	0.01
539.971	-0.02
540.166	0.01
540.36	-0.02
540.555	-0
540.75	-0
540.944	-0.01
541.139	-0.04
541.334	-0
541.528	0.01
541.723	0.02
541.917	-0.03
542.112	-0.05
542.306	-0.02
542.501	-0.01
542.695	0.01
542.89	-0.01
543.084	-0
543.279	-0.01
543.473	-0.01
543.668	0
543.862	-0
544.056	0.03
544.251	-0.01
544.445	-0
544.64	-0.01
544.834	-0.02
545.028	0
545.222	-0.01
545.417	0.01
545.611	-0.02
545.805	-0
546	0
546.194	-0.01
546.388	-0.02
546.582	0.01
546.776	0
546.97	-0
547.165	0.02
547.359	0.03
547.553	-0.03
547.747	0.01
547.941	0
548.135	-0.01
548.329	0.01
548.523	0.03
548.717	-0.02
548.911	-0.02
549.105	-0
549.299	-0.02
549.493	0.01
549.687	0
549.881	0.01
550.075	-0.02
550.269	-0.02
550.463	0.02
550.657	-0.01
550.85	-0
551.044	-0.03
551.238	-0
551.432	-0.02
551.626	-0.04
551.82	-0
552.013	-0.03
552.207	0
552.401	0.02
552.594	-0.01
552.788	-0
552.982	-0.02
553.176	-0.02
553.369	0.01
553.563	0.01
553.756	-0.03
553.95	-0.02
554.144	-0.03
554.337	0.02
554.531	0.01
554.724	-0.02
554.918	-0.01
555.111	0.03
555.305	0.01
555.498	0.07
555.692	0.02
555.885	-0
556.079	0
556.272	-0.03
556.466	0.02
556.659	-0
556.852	0
557.046	-0.03
557.239	0.02
557.432	-0.03
557.626	-0.03
557.819	0.01
558.012	0.01
558.206	0.02
558.399	-0.02
558.592	0
558.785	-0.03
558.979	0.01
559.172	-0.01
559.365	0.02
559.558	-0.01
559.751	-0
559.944	0.01
560.138	-0.02
560.331	-0.03
560.524	-0.01
560.717	-0.02
560.91	-0.01
561.103	0.01
561.296	0.01
561.489	-0.01
561.682	-0.03
561.875	0.03
562.068	0.01
562.261	-0.01
562.454	0.01
562.647	-0
562.84	-0
563.032	-0.02
563.225	-0.01
563.418	-0.02
563.611	-0.03
563.804	-0.01
563.997	-0.03
564.19	-0.05
564.382	0.02
564.575	-0.02
564.768	-0.01
564.961	-0.02
565.153	-0.04
565.346	0.02
565.539	0.02
565.731	0
565.924	0.03
566.117	0.02
566.309	-0.01
566.502	-0.03
566.695	-0
566.887	-0.01
567.08	-0.02
567.272	-0.01
567.465	-0.01
567.657	0.01
567.85	0
568.042	0.02
568.235	0.02
568.427	-0.02
568.62	-0.01
568.812	0.01
569.005	-0.01
569.197	-0.04
569.389	0.01
569.582	0.03
569.774	-0.02
569.966	-0.03
570.159	-0.01
570.351	-0.01
570.543	-0.04
570.736	-0.01
570.928	-0.04
571.12	-0.02
571.312	-0.04
571.505	-0.03
571.697	0.04
571.889	-0.02
572.081	-0.01
572.273	-0.04
572.465	0.02
572.658	-0.03
572.85	0.01
573.042	-0.02
573.234	-0.02
573.426	0.02
573.618	-0.04
573.81	-0.02
574.002	0
574.194	0.02
574.386	-0.06
574.578	-0.07
574.77	-0.04
574.962	-0.01
575.154	-0.04
575.346	-0.02
575.538	0.01
575.729	-0.02
575.921	-0.03
576.113	-0.03
576.305	0.01
576.497	-0.02
576.689	-0.01
576.88	-0.03
577.072	0.02
577.264	0
577.456	-0.02
577.647	-0.09
577.839	-0.03
578.031	0.03
578.223	-0.04
578.414	-0.04
578.606	0.02
578.798	0
578.989	-0.04
579.181	-0.01
579.372	-0.02
579.564	-0.02
579.755	-0.01
579.947	0.01
580.139	0.01
580.33	-0.06
580.522	-0.04
580.713	-0.07
580.905	-0.01
581.096	0
581.287	-0.01
581.479	-0.02
581.67	0.02
581.862	0.01
582.053	-0.05
582.244	-0.06
582.436	-0.03
582.627	-0
582.818	-0.04
583.01	-0.04
583.201	-0.01
583.392	0.02
583.583	-0.01
583.775	-0.02
583.966	-0.02
584.157	-0.03
584.348	-0.01
584.54	-0.05
584.731	0.01
584.922	-0
585.113	-0.03
585.304	-0
585.495	0.01
585.686	0
585.877	-0
586.068	-0.03
586.259	-0
586.45	0
586.641	-0.04
586.832	-0.07
587.023	-0.02
587.214	-0.04
587.405	-0
587.596	-0.03
587.787	-0.01
587.978	-0.01
588.169	-0.04
588.36	-0.06
588.551	0
588.742	-0.02
588.932	0.02
589.123	-0.04
589.314	0
589.505	-0.01
589.696	0.01
589.886	-0.02
590.077	-0.04
590.268	0
590.458	-0.05
590.649	-0.05
590.84	0.02
591.03	-0.04
591.221	-0.06
591.412	-0.07
591.602	0.02
591.793	0.02
591.984	-0.06
592.174	-0.05
592.365	0.06
592.555	-0.03
592.746	-0.01
592.936	-0.01
593.127	-0.01
593.317	0.03
593.508	-0.05
593.698	-0.03
593.889	0
594.079	-0.02
594.269	-0.02
594.46	-0.01
594.65	-0.01
594.84	-0.03
595.031	-0.03
595.221	-0.03
595.411	-0.05
595.602	0.01
595.792	-0
595.982	-0.06
596.172	0.05
596.363	-0.03
596.553	0
596.743	-0.01
596.933	0
597.123	0
597.314	-0.04
597.504	-0.03
597.694	0.01
597.884	0.01
598.074	-0.03
598.264	-0.04
598.454	-0.02
598.644	-0.01
598.834	-0.03
599.024	-0.07
599.214	-0.04
599.404	0.02
599.594	-0.03
599.784	-0.05
599.974	0.01
600.164	0.02
600.354	-0.04
600.544	-0.04
600.734	-0.02
600.924	0.02
601.114	-0.04
601.303	0
601.493	-0.01
601.683	-0.04
601.873	0
602.063	-0.06
602.252	0.04
602.442	-0.09
602.632	-0.04
602.821	-0.04
603.011	0.02
603.201	-0.02
603.39	-0.05
603.58	-0.04
603.77	0.01
603.959	0.01
604.149	-0.01
604.339	-0.04
604.528	0.02
604.718	-0.01
604.907	-0.03
605.097	-0.04
605.286	-0.06
605.476	0.02
605.665	-0.01
605.855	-0.03
606.044	0.03
606.234	-0.02
606.423	-0.01
606.612	-0.05
606.802	-0
606.991	0.02
607.181	-0.02
607.37	-0.05
607.559	-0.01
607.749	-0.05
607.938	-0.02
608.127	-0.03
608.316	-0.05
608.506	0.01
608.695	-0.04
608.884	-0.05
609.073	-0.03
609.263	-0.01
609.452	0
609.641	0.01
609.83	-0.07
610.019	-0.03
610.208	-0.07
610.397	-0.01
610.586	-0
610.775	-0.04
610.965	-0.03
611.154	-0.06
611.343	-0.02
611.532	-0.01
611.721	-0.03
611.91	-0.05
612.099	0.01
612.287	-0.03
612.476	-0.06
612.665	-0
612.854	-0.06
613.043	0.04
613.232	-0.02
613.421	-0.05
613.61	-0
613.798	-0.04
613.987	0.02
614.176	-0.01
614.365	-0
614.554	0.02
614.742	-0.01
614.931	-0.02
615.12	0.02
615.309	-0.03
615.497	-0.01
615.686	-0.05
615.875	-0.03
616.063	-0.01
616.252	-0.03
616.44	-0.05
616.629	-0.02
616.818	0.02
617.006	-0.01
617.195	-0.04
617.383	-0.03
617.572	-0
617.76	-0.05
617.949	-0.03
618.137	-0.01
618.326	0.02
618.514	-0.05
618.703	-0.03
618.891	0.02
619.079	-0.08
619.268	-0.01
619.456	-0.04
619.644	0.02
619.833	-0.06
620.021	-0.06
620.209	-0.07
620.398	-0
620.586	-0.02
620.774	0
620.962	-0.03
621.151	0.02
621.339	-0.01
621.527	-0.06
621.715	-0.06
621.903	-0.04
622.092	-0.07
622.28	-0.01
622.468	-0.01
622.656	-0.01
622.844	-0.01
623.032	-0.07
623.22	-0.06
623.408	0.02
623.596	-0.03
623.784	-0
623.972	-0.04
624.16	-0.04
624.348	0.05
624.536	-0.05
624.724	-0.05
624.912	0.03
625.1	0.01
625.288	-0.05
625.476	-0.02
625.664	-0
625.851	-0.06
626.039	-0.05
626.227	-0.01
626.415	-0.01
626.603	-0.08
626.79	-0.03
626.978	-0.05
627.166	-0
627.354	-0.03
627.541	-0.03
627.729	-0.08
627.917	0.02
628.104	0.01
628.292	-0.02
628.48	-0.04
628.667	-0
628.855	-0
629.042	-0.03
629.23	-0.05
629.418	-0.02
629.605	-0.03
629.793	-0.04
629.98	-0.04
630.168	-0.05
630.355	-0.03
630.543	-0.01
630.73	-0.05
630.917	-0
631.105	0.03
631.292	-0.05
631.48	-0.03
631.667	0.04
631.854	-0.01
632.042	-0.02
632.229	-0.09
632.416	-0.02
632.604	-0.02
632.791	-0.07
632.978	0
633.165	0.03
633.353	0.04
633.54	0.03
633.727	-0.09
633.914	-0.02
634.101	-0.1
634.289	0.06
634.476	-0.04
634.663	-0.04
634.85	0.02
635.037	-0.07
635.224	-0.1
635.411	0.02
635.598	0.01
635.785	-0.03
635.972	-0.02
636.159	0.03
636.346	-0.04
636.533	-0.04
636.72	-0.03
636.907	-0.07
637.094	0.01
637.281	-0.05
637.468	-0.01
637.655	-0.01
637.842	0.03
638.029	-0.04
638.215	0.02
638.402	-0.01
638.589	-0.07
638.776	-0.04
638.963	-0.04
639.149	0.01
639.336	0.04
639.523	-0.02
639.709	-0.03
639.896	-0.01
640.083	0.03
640.27	-0.02
640.456	-0.05
640.643	-0
640.829	-0.08
641.016	-0.04
641.203	-0.04
641.389	-0.03
641.576	-0.04
641.762	-0.02
641.949	-0.04
642.135	-0.02
642.322	-0
642.508	-0.1
642.695	-0.03
642.881	-0.07
643.068	-0.05
643.254	-0.04
643.441	-0.01
643.627	-0.04
643.813	-0.01
644	0.04
644.186	-0.05
644.372	-0.04
644.559	0.02
644.745	-0.04
644.931	-0.04
645.118	-0.02
645.304	-0.04
645.49	-0.04
645.676	-0.04
645.862	0.01
646.049	0.04
646.235	-0.01
646.421	0.04
646.607	0.04
646.793	-0.03
646.979	-0.07
647.165	-0.01
647.352	-0.01
647.538	0.02
647.724	-0.02
647.91	-0.03
648.096	0.02
648.282	0.01
648.468	-0.04
648.654	-0.02
648.84	0
649.026	0
649.212	-0.04
649.397	-0.07
649.583	-0.05
649.769	-0.01
649.955	-0
650.141	0.02
650.327	0.03
650.513	-0.06
650.698	-0.02
650.884	-0.08
651.07	-0.02
651.256	-0.01
651.442	-0.04
651.627	-0.03
651.813	0.01
651.999	-0.02
652.184	-0
652.37	-0.03
652.556	-0.01
652.741	0.04
652.927	-0.09
653.113	-0.05
653.298	0
653.484	-0.03
653.669	-0.09
653.855	-0.04
654.04	-0.01
654.226	-0.01
654.412	-0.06
654.597	-0.05
654.782	-0.01
654.968	0.04
655.153	-0.01
655.339	-0.05
655.524	-0.09
655.71	0
655.895	-0.05
656.08	-0.01
656.266	0.03
656.451	0
656.636	-0.05
656.822	-0.04
657.007	-0.07
657.192	-0.08
657.378	-0.06
657.563	-0.03
657.748	0
657.933	0
658.118	-0.01
658.304	-0.03
658.489	0.03
658.674	-0.01
658.859	-0.05
659.044	-0.01
659.229	0.02
659.414	-0.07
659.599	-0.02
659.785	-0.08
659.97	-0.03
660.155	-0
660.34	-0.03
660.525	-0.05
660.71	-0.02
660.895	0.03
661.08	-0.06
661.264	-0.04
661.449	0.02
661.634	-0
661.819	-0.03
662.004	-0.02
662.189	-0.09
662.374	-0.04
662.559	-0.09
662.743	-0.08
662.928	-0.02
663.113	-0.03
663.298	-0.09
663.483	-0.05
663.667	-0.01
663.852	-0.06
664.037	0.01
664.221	-0.03
664.406	-0.01
664.591	-0
664.775	0.01
664.96	-0.02
665.145	0.02
665.329	-0.02
665.514	-0.04
665.698	-0.03
665.883	-0.08
666.068	-0.02
666.252	-0.01
666.437	-0.06
666.621	-0.05
666.806	0.01
666.99	-0.02
667.174	-0.08
667.359	0.06
667.543	-0.02
667.728	-0.07
667.912	-0.09
668.096	0.02
668.281	-0.06
668.465	-0.03
668.649	-0.06
668.834	-0.01
669.018	-0.03
669.202	-0.04
669.387	-0.05
669.571	0.01
669.755	-0.07
669.939	-0.05
670.124	-0.03
670.308	0.01
670.492	-0.01
670.676	-0.02
670.86	-0.02
671.044	-0.06
671.228	-0.01
671.413	-0.06
671.597	-0.05
671.781	-0.07
671.965	0
672.149	-0.03
672.333	-0.01
672.517	-0.06
672.701	-0.01
672.885	-0.05
673.069	-0.04
673.253	0.05
673.437	-0.03
673.621	-0.06
673.804	-0.06
673.988	-0.05
674.172	-0.03
674.356	-0.09
674.54	-0.02
674.724	0.08
674.908	-0.03
675.091	-0.03
675.275	-0.03
675.459	0.02
675.643	0.03
675.826	-0.02
676.01	0
676.194	0.03
676.377	0.04
676.561	-0.01
676.745	0.01
676.928	0.02
677.112	0.01
677.296	-0.08
677.479	-0.03
677.663	-0.04
677.846	-0.01
678.03	-0.02
678.213	-0.07
678.397	0.04
678.58	-0.08
678.764	-0.05
678.947	-0.04
679.131	-0.08
679.314	0.01
679.498	-0.05
679.681	-0.04
679.865	0.02
680.048	-0.03
680.231	-0.03
680.415	-0.02
680.598	-0.04
680.781	-0.02
680.965	-0.07
681.148	-0.01
681.331	-0.07
681.514	0.03
681.698	-0.05
681.881	-0.04
682.064	-0.01
682.247	-0.03
682.43	-0.11
682.614	-0
682.797	0.04
682.98	0.03
683.163	-0.05
683.346	0
683.529	-0.08
683.712	-0.07
683.895	-0.02
684.078	-0.11
684.261	-0.07
684.444	0
684.627	-0.03
684.81	-0.07
684.993	-0.01
685.176	-0.01
685.359	-0.06
685.542	-0.05
685.725	0.02
685.908	-0.04
686.091	-0.04
686.274	0.03
686.457	0.02
686.639	0.02
686.822	-0.01
687.005	-0
687.188	-0
687.371	0.06
687.553	0
687.736	-0.01
687.919	0.09
688.102	0.07
688.284	-0.01
688.467	-0.05
688.65	-0.05
688.832	-0.08
689.015	-0.1
689.197	-0.11
689.38	0.06
689.563	0.07
689.745	-0.07
689.928	-0.06
690.11	0.01
690.293	0.03
690.475	-0.08
690.658	-0.01
690.84	-0.01
691.023	-0.02
691.205	-0.06
691.388	-0.02
691.57	0
691.752	0.01
691.935	-0.1
692.117	-0.08
692.3	-0.01
692.482	-0.07
692.664	-0.03
692.847	-0.05
693.029	0.04
693.211	0.01
693.393	-0.07
693.576	-0.08
693.758	-0.03
693.94	-0.06
694.122	-0.02
694.304	-0.08
694.487	-0.05
694.669	0.06
694.851	-0.07
695.033	-0.08
695.215	-0.06
695.397	-0.04
695.579	0.01
695.761	-0.08
695.943	-0.11
696.125	0.07
696.308	0.01
696.49	-0.1
696.671	0.11
696.853	-0.06
697.035	0.1
697.217	-0.05
697.399	0.05
697.581	-0.04
697.763	-0.04
697.945	-0.07
698.127	-0.03
698.309	0.06
698.491	-0.05
698.672	0.02
698.854	0.06
699.036	-0.01
699.218	-0.03
699.399	0.02
699.581	0
699.763	-0
699.945	-0.07
700.126	-0.02
700.308	0.02
700.49	-0.02
700.671	-0.05
700.853	-0.06
701.035	-0.08
701.216	-0.01
701.398	-0.11
701.579	-0.03
701.761	0.07
701.943	-0.06
702.124	-0.07
702.306	-0.05
702.487	0.09
702.669	-0.05
702.85	-0.06
703.031	-0.09
703.213	0.11
703.394	0.03
703.576	-0.04
703.757	0.05
703.938	0.05
704.12	0.16
704.301	-0.03
704.483	-0.06
704.664	-0.05
704.845	0.06
705.026	-0.02
705.208	-0.02
705.389	-0.02
705.57	-0.01
705.751	-0.06
705.933	-0.03
706.114	0.05
706.295	-0.06
706.476	-0.03
706.657	0.05
706.838	0.06
707.02	0.01
707.201	-0.01
707.382	-0.06
707.563	0.01
707.744	-0.06
707.925	-0.05
708.106	-0.08
708.287	0.01
708.468	0.11
708.649	-0.07
708.83	0.04
709.011	-0.04
709.192	-0.01
709.373	-0.09
709.554	-0.03
709.734	0.01
709.915	-0.01
710.096	-0.02
710.277	-0.15
710.458	-0.06
710.639	0.01
710.819	-0.15
711	-0.07
711.181	0.07
711.362	-0.03
711.542	0
711.723	-0.03
711.904	0.07
712.085	-0.07
712.265	0.04
712.446	-0.13
712.627	-0.08
712.807	-0.01
712.988	-0.04
713.168	-0.14
713.349	0
713.53	-0.13
713.71	-0.13
713.891	-0.09
714.071	-0.02
714.252	-0.11
714.432	-0.04
714.613	-0.09
714.793	-0
714.974	0.03
715.154	0.01
715.334	0.09
715.515	0.05
715.695	-0.03
715.876	-0.04
716.056	-0.08
716.236	-0.01
716.417	-0.05
716.597	-0.03
716.777	0.12
716.957	-0.05
717.138	-0.05
717.318	0.01
717.498	-0.16
717.678	-0.01
717.859	0.01
718.039	-0.12
718.219	0.01
718.399	0
718.579	-0.03
718.759	-0.1
718.939	-0
719.12	-0.11
719.3	-0.05
719.48	-0.15
719.66	-0.13
719.84	0.09
720.02	-0.03
720.2	-0.05
720.38	-0.01
720.56	0.07
720.74	-0.05
720.92	-0.03
721.1	0.06
721.279	0.09
721.459	-0.06
721.639	-0.13
721.819	0.01
721.999	-0.01
722.179	0.01
722.359	-0.1
722.538	-0.06
722.718	0.06
722.898	-0.04
723.078	-0.07
723.257	-0.08
723.437	0
723.617	-0.02
723.797	-0.05
723.976	-0.1
724.156	-0.06
724.336	0.08
724.515	0.13
724.695	-0.13
724.874	0.04
725.054	0.02
725.234	-0.07
725.413	0
725.593	0.04
725.772	-0.07
725.952	-0.07
726.131	-0.04
726.311	-0.07
726.49	-0.01
726.67	-0.16
726.849	-0.1
727.028	-0.04
727.208	-0.04
727.387	0.06
727.567	-0.15
727.746	-0.03
727.925	-0.03
728.105	-0.06
728.284	0
728.463	-0.08
728.643	0.07
728.822	-0.16
729.001	-0.15
729.18	-0.1
729.359	-0.01
729.539	-0.02
729.718	-0.13
729.897	-0.01
730.076	-0.15
730.255	-0.14
730.434	-0.07
730.614	0.03
730.793	-0.01
730.972	-0.16
731.151	-0.05
731.33	0.02
731.509	0.01
731.688	0.04
731.867	-0.07
732.046	-0.19
732.225	0.14
732.404	-0.12
732.583	-0.15
732.762	-0.01
732.941	-0.04
733.12	0.02
733.298	-0.03
733.477	0.05
733.656	0
733.835	-0.18
734.014	0.03
734.193	-0.04
734.371	-0.04
734.55	0.07
734.729	-0.23
734.908	0.06
735.086	-0.06
735.265	-0.03
735.444	-0.08
735.623	-0.12
735.801	-0.12
735.98	-0.07
736.159	-0.03
736.337	0.07
736.516	0.03
736.694	0.04
736.873	-0.09
737.052	0.12
737.23	0.15
737.409	-0.04
737.587	0.1
737.766	-0.18
737.944	-0.19
738.123	-0.06
738.301	0.07
738.479	-0.11
738.658	-0.06
738.836	-0.26
739.015	-0.05
739.193	0.02
739.371	-0.18
739.55	-0
739.728	-0.21
739.906	0.08
740.085	0.11
740.263	-0.08
740.441	-0.22
740.62	0.21
740.798	0.07
740.976	-0.19
741.154	-0.18
741.332	0.05
741.511	-0.08
741.689	-0.05
741.867	0.04
742.045	0
742.223	-0.04
742.401	-0.14
742.579	-0.09
742.757	0.01
742.935	-0.2
743.114	-0.09
743.292	-0.01
743.47	0.03
743.648	0.03
743.826	-0.03
744.004	-0.08
744.181	0.06
744.359	-0.15
744.537	0
744.715	-0.09
744.893	-0.02
745.071	-0.07
745.249	-0.02
745.427	-0.09
745.605	-0.03
745.782	-0.07
745.96	-0.02
746.138	0.05
746.316	0.09
746.493	-0.13
746.671	-0.05
746.849	-0.1
747.027	0.16
747.204	-0.04
747.382	-0.06
747.56	-0.12
747.737	-0.07
747.915	-0.03
748.093	0.05
748.27	-0.08
748.448	0
748.625	-0.12
748.803	-0.09
748.98	-0.15
749.158	0.08
749.335	0.12
749.513	0.03
749.69	-0.06
749.868	-0.06
750.045	-0
750.223	-0.16
750.4	-0.23
750.578	0.17
750.755	-0.13
750.932	-0.06
751.11	0.06
751.287	-0.15
751.464	0.11
751.642	-0.08
751.819	-0.02
751.996	-0.07
752.173	-0.1
752.351	-0.18
752.528	0.02
752.705	0.05
752.882	-0.16
753.06	0.02
753.237	-0.01
753.414	0.15
753.591	0.12
753.768	-0.09
753.945	-0.11
754.122	-0.14
754.299	0.1
754.476	-0.14
754.654	-0.01
754.831	0.09
755.008	-0.11
755.185	-0.1
755.362	-0.16
755.539	-0.04
755.716	-0.15
755.892	-0.16
756.069	-0.08
756.246	-0.1
756.423	-0.03
756.6	0.22
756.777	-0.1
756.954	0.13
757.131	-0.14
757.307	-0.21
757.484	-0.15
757.661	-0.04
757.838	-0.12
758.015	-0.14
758.191	0.02
758.368	-0.07
758.545	0.06
758.721	-0.09
758.898	-0.2
759.075	0.02
759.251	0.07
759.428	0.02
759.605	-0.24
759.781	-0.11
759.958	0.02
760.134	-0
760.311	-0.11
760.488	0.1
760.664	0.06
760.841	-0.01
761.017	-0.2
761.194	0.06
761.37	0.09
761.547	0.1
761.723	-0.02
761.899	0
762.076	-0.13
762.252	-0.15
762.429	-0.11
762.605	0.09
762.781	-0.1
762.958	0.09
763.134	-0.11
763.31	-0.11
763.486	0.11
763.663	-0.25
763.839	-0.08
764.015	-0.16
764.191	-0.14
764.368	-0.14
764.544	-0.09
764.72	0.03
764.896	0.07
765.072	0.07
765.248	-0.14
765.425	-0.14
765.601	-0.12
765.777	-0.07
765.953	-0.25
766.129	-0.06
766.305	-0.13
766.481	-0.03
766.657	-0.03
766.833	0.18
767.009	-0.08
767.185	-0.17
767.361	-0.13
767.537	-0.17
767.713	0.12
767.889	-0.19
768.065	-0.02
768.24	-0.05
768.416	0.12
768.592	-0.16
768.768	-0.08
768.944	-0.08
769.12	-0.19
769.295	-0.15
769.471	-0.11
769.647	-0.15
769.823	0.04
769.998	-0.13
770.174	-0.18
770.35	0.25
770.525	0.22
770.701	0.1
770.877	-0.02
771.052	-0.2
771.228	0.05
771.403	-0
771.579	-0.11
771.755	0.2
771.93	-0.05
772.106	-0.12
772.281	-0.13
772.457	0.07
772.632	-0.01
772.808	-0.25
772.983	-0.07
773.159	-0.27
773.334	0.17
773.509	-0.01
773.685	-0.22
773.86	0.23
774.036	0.15
774.211	0.01
774.386	-0.23
774.562	-0.03
774.737	0.14
774.912	-0.2
775.087	-0.02
775.263	-0.06
775.438	0.03
775.613	-0.13
775.788	-0.05
775.964	0.11
776.139	0.24
776.314	-0.36
776.489	-0.04
776.664	-0.07
776.839	-0.13
777.014	0.03
777.19	0.03
777.365	0.04
777.54	0.09
777.715	-0.14
777.89	-0.08
778.065	-0.3
778.24	-0.04
778.415	0.09
778.59	-0.14
778.765	-0.07
778.94	-0.16
779.115	-0.1
779.289	-0.08
779.464	-0.06
779.639	-0.1
779.814	-0.29
779.989	-0.12
780.164	0.01
780.339	-0.01
780.513	-0.22
780.688	-0.21
780.863	0.02
781.038	0.01
781.212	-0.24
781.387	-0.19
781.562	0.17
781.737	-0.24
781.911	0.12
782.086	-0.2
782.261	-0.27
782.435	0.19
782.61	-0.12
782.784	-0.05
782.959	-0.01
783.134	-0.21
783.308	-0.21
783.483	-0.08
783.657	0.43
783.832	-0.01
784.006	-0.48
784.181	-0.16
784.355	0.18
784.53	-0.36
784.704	-0.27
784.878	0.31
785.053	-0.24
785.227	0.12
785.402	0.27
785.576	-0.37
785.75	-0.06
785.925	-0.14
786.099	0.07
786.273	-0.08
786.448	-0.05
786.622	-0.01
786.796	-0.24
786.97	-0.18
787.145	0.46
787.319	-0.37
787.493	-0.23
787.667	-0.63
787.841	-0.09
788.015	0.27
788.19	-0.11
788.364	-0.09
788.538	-0
788.712	-0.05
788.886	-0.18
789.06	0.15
789.234	-0.02
789.408	-0.16
789.582	-0.2
789.756	-0.13
789.93	-0.27
790.104	-0.15
790.278	-0.27
790.452	-0.32
790.626	0.16
790.8	-0.19
790.973	-0.12
791.147	0.13
791.321	0.11
791.495	0.09
791.669	0.23
791.843	0.04
792.016	-0.15
792.19	0.32
792.364	-0.37
792.538	0.17
792.711	0.17
792.885	-0.15
793.059	-0.23
793.233	-0.56
793.406	0.08
793.58	-0
793.754	0.04
793.927	-0.07
794.101	0.17
794.274	-0.11
794.448	0
794.622	-0.43
794.795	0.36
794.969	-0.24
795.142	0.13
795.316	-0.16
795.489	-0.25
795.663	0.37
795.836	-0.26
796.009	-0.32
796.183	0.1
796.356	-0.2
796.53	-0.13
796.703	-0.27
796.876	0.54
797.05	-0.26
797.223	-0.16
797.396	-0.02
797.57	-0.07
797.743	0.3
797.916	0.03
798.09	-0.11
798.263	0.15
798.436	0.1
798.609	-0.19
798.782	-0.06
798.956	-0.11
799.129	-0.19
799.302	-0.41
799.475	-0.26
799.648	-0.19
799.821	-0.09
799.994	-0.1
800.167	-0.62
800.34	0
800.514	-0.41
800.687	-0.19
800.86	-0.15
801.033	0.18
801.206	-0.3
801.379	-0.4
801.551	0.18
801.724	0.16
801.897	0.29
802.07	0
802.243	-0.64
802.416	-0.43
802.589	-0.44
802.762	-0.03
802.935	-0.12
803.107	0.18
803.28	0.03
803.453	0.19
803.626	-0.39
803.798	-0.02
803.971	-0.09
804.144	-0.09
804.317	0.08
804.489	0.27
804.662	-0.17
804.835	-0.08
805.007	-0.26
805.18	0.58
805.353	-0.11
805.525	-0.17
805.698	-0.23
805.87	0.03
806.043	0.04
806.215	-0.34
806.388	-0.41
806.56	-0.21
806.733	0.36
806.905	0.05
807.078	-0.38
807.25	-0.33
807.423	0.15
807.595	-0.19
807.768	0.07
807.94	0.49
808.112	-0.02
808.285	-0.29
808.457	-0.33
808.629	-0.07
808.802	-0.06
808.974	-0.28
809.146	-0.55
809.318	-0.5
809.491	0.15
809.663	0.23
809.835	-0.51
810.007	0.04
810.18	-0.07
810.352	-0.66
810.524	0
810.696	0.04
810.868	-0.03
811.04	-0.18
811.212	-0.3
811.384	0.12
811.556	0.03
811.728	-0.2
811.901	0.35
812.073	-0.11
812.245	0.23
812.417	0.24
812.589	-0.98
812.76	0.12
812.932	0.13
813.104	0.32
813.276	-0.01
813.448	0.27
813.62	0.02
813.792	0.24
813.964	-0.11
814.136	0.1
814.307	-0.13
814.479	-0.18
814.651	-0.29
814.823	0.92
814.995	-0.02
815.166	0.08
815.338	-0.19
815.51	-0.4
815.681	0.4
815.853	-0.38
816.025	-0.41
816.196	0.43
816.368	0.3
816.54	-0.69
816.711	-0.88
816.883	0.22
817.054	0.59
817.226	-0.89
817.398	0.18
817.569	-0.69
817.741	0.18
817.912	-0.3
818.084	-0.73
818.255	-0.01
818.426	-0.41
818.598	-0.35
818.769	-0.73
818.941	-0.09
819.112	0.7
819.283	0.24
819.455	-0.46
819.626	-0.01
819.798	-0.06
819.969	-0.26
820.14	-0.36
820.311	-0.1
820.483	-0.16
820.654	0.01
820.825	0.06
820.996	-0.23
821.168	-0.49
821.339	0.13
821.51	-0.43
821.681	0.66
821.852	-0.24
822.023	-0.84
822.195	-0.71
822.366	0.46
822.537	-0.09
822.708	-0.11
822.879	-0.62
823.05	0.45
823.221	-0.34
823.392	0.46
823.563	-0.14
823.734	-0.24
823.905	0.22
824.076	-0.4
824.247	-0.23
824.418	-0.23
824.589	0.4
824.759	0.06
824.93	-0.57
825.101	-1.19
825.272	0.3
825.443	0.17
825.614	0.39
825.784	-1.24
825.955	0.98
826.126	0.47
826.297	-0.68
826.467	0.7
826.638	0.28
826.809	-0.95
826.98	-0.11
827.15	-0.05
827.321	-0.4
827.492	0.62
827.662	-0.06
827.833	0.9
828.003	0.39
828.174	-0.81
828.345	-1.24
828.515	0.34
828.686	0.16
828.856	-0.49
829.027	-0.35
829.197	0.39
829.368	0.28
829.538	-0.44
829.709	-0.32
829.879	0.48
830.049	-0.18
830.22	-0.54
830.39	-0.3
830.56	0.33
830.731	-0.24
830.901	-0.71
831.072	-0.07
831.242	-0.24
831.412	0.03
831.582	-0.24
831.753	-0.88
831.923	0.36
832.093	0.19
832.263	-0.62
832.434	-0.68
832.604	-0.65
832.774	-0.1
832.944	-0.63
833.114	-0.68
833.284	0.31
833.454	-0.74
833.624	-0.69
833.795	-0.4
833.965	0.95
834.135	0.25
834.305	-1.42
834.475	-1.26
834.645	0.07
834.815	-0.04
834.985	-0.7
835.155	-0.79
835.325	0.4
835.494	0.38
835.664	-0.36
835.834	-1.13
836.004	0.11
836.174	0.44
836.344	-0.33
836.514	-1.01
836.684	-0.73
836.853	-0.6
837.023	-0.55
837.193	-0.44
837.363	0.67
837.532	0.52
837.702	-0.06
837.872	-0.95
838.041	1.04
838.211	1.42
838.381	-1.1
838.55	0.16
838.72	1.65
838.89	0.79
839.059	-0.87
839.229	-1.04
839.398	1.58
839.568	0.01
839.738	-0.35
839.907	0.6
840.077	0.86
840.246	-0.15
840.416	-0.58
840.585	-0.87
840.755	0.78
840.924	0.53
841.093	-1.15
841.263	-0.33
841.432	0.02
841.602	-0.25
841.771	-0.99
841.94	0.03
842.11	1.47
842.279	1.29
842.448	-0.13
842.617	-0.97
842.787	0.38
842.956	-0.81
843.125	-0.45
843.294	0.1
843.464	0.6
843.633	0.22
843.802	-1.15
843.971	-1.07
844.14	0.78
844.309	-0.17
844.479	-0.86
844.648	-0.45
844.817	-0.95
844.986	-0.51
845.155	0.02
845.324	-0.23
845.493	-1.39
845.662	-0.65
845.831	0.06
846	0.67
846.169	-0.18
846.338	0.94
846.507	-0.46
846.676	0.21
846.844	-0.82
847.013	0.96
847.182	-0.92
847.351	-0.34
847.52	-0.21
847.689	-0.36
847.858	-0.52
848.026	-1.53
848.195	0.28
848.364	-0.69
848.533	-0.14
848.701	-0.41
848.87	-0.03
849.039	0.27
849.207	0.16
849.376	1.13
849.545	1.21
849.713	-0.48
849.882	-1.02
850.051	-0.46
850.219	-0.61
850.388	0.49
850.556	-0.64
850.725	-0.91
850.893	0.4
851.062	-0.31
851.23	0.6
851.399	-1.04
851.567	-0.7
851.736	-1.9
851.904	-1.7
852.073	-0.33
852.241	0.56
852.41	-0.07
852.578	-0.32
852.746	-0.75
852.915	0.21
853.083	-0.03
853.251	-1.55
853.42	-0.58
853.588	0.08
853.756	0.28
853.924	-0.85
854.093	-1.34
854.261	-0.94
854.429	-1.08
854.597	-1.04
854.765	-1.91
854.934	0.18
855.102	0.56
855.27	-0.49
855.438	0.53
855.606	0.29
855.774	0.37
855.942	-2.29
856.11	-2.21
856.278	-0.99
856.446	1.23
856.614	0.28
856.782	-1.73
856.95	0.47
857.118	-0.96
857.286	-0.12
857.454	-0.83
857.622	-0.18
857.79	0.67
857.958	-1.15
858.126	-1.05
858.294	-2.15
858.462	-0.16
858.629	-1.09
858.797	-0.81
858.965	-0.23
859.133	-0.44
859.301	-0.54
859.468	-0.67
859.636	-1
859.804	1.27
859.971	0.38
860.139	-0.59
860.307	0.98
860.474	-0.23
860.642	-1.52
860.81	-0.72
860.977	-0.09
861.145	0.68
861.313	-0.43
861.48	-0.93
861.648	0.67
861.815	-0.6
861.983	-2.19
862.15	-0.85
862.318	0.43
862.485	1.85
862.653	-1.34
862.82	-0.97
862.988	1.45
863.155	0.09
863.322	-0.65
863.49	-1.89
863.657	-0.33
863.824	1.85
863.992	1.11
864.159	-0.56
864.326	1.17
864.494	-0.41
864.661	2.22
864.828	-1.15
864.996	0.86
865.163	0.68
865.33	-2.63
865.497	-2.91
865.664	-1.7
865.832	-1.63
865.999	-1.43
866.166	-1.62
866.333	-1.41
866.5	-0.92
866.667	-1.28
866.834	-0.89
867.001	1.59
867.168	-2.67
867.335	-0.41
867.502	-2.81
867.669	-1.64
867.836	1.41
868.003	-1.4
868.17	1.54
868.337	3.09
868.504	2.26
868.671	-0.9
868.838	-0.65
869.005	-0.4
869.172	0.07
869.339	-1.78
869.505	-0.25
869.672	-2
869.839	1.42
870.006	0.09
870.173	-1.59
870.339	1.66
870.506	2.22
870.673	-1.81
870.84	0.91
871.006	-0.2
871.173	-0.3
871.34	-0.47
871.506	-2.18
871.673	-0.06
871.839	-2.69
872.006	-0.35
872.173	0.63
872.339	0.67
872.506	-0.59
872.672	-2.34
872.839	-1.44
873.005	-0.93
873.172	3.76
873.338	0.74
873.505	0.12
873.671	-1.27
873.838	-0.18
874.004	-3.05
874.171	-2.18
874.337	0.57
874.503	-0.25
874.67	-1.54
874.836	-1.6
875.002	1.98
875.169	0.7
875.335	-1.07
875.501	-0.66
875.668	0.38
875.834	0.7
876	-0.38
876.166	0.49
876.332	-0.1
876.499	3.72
876.665	-1.72
876.831	0.03
876.997	3.16
877.163	0.37
877.329	1.33
877.495	0.34
877.662	1.91
877.828	-0.23
877.994	0.36
878.16	-3.21
878.326	-0.57
878.492	0.51
878.658	-1.4
878.824	-0.23
878.99	0.97
879.156	-2.1
879.322	0.23
879.487	-0.29
879.653	-0.12
879.819	-0.87
879.985	-2.19
880.151	-0.38
880.317	0.25
880.483	0.64
880.648	1
880.814	-2.49
880.98	0.8
881.146	-4.03
881.312	-2.07
881.477	-2.06
881.643	1.06
881.809	2.36
881.974	1.68
882.14	-2.08
882.306	-0.76
882.471	1.72
882.637	-1.08
882.803	0.42
882.968	2.25
883.134	2.08
883.299	-1.13
883.465	-1.11
883.63	0.14
883.796	1.33
883.961	-0.43
884.127	0.47
884.292	-3.8
884.458	-1.54
884.623	-1.54
