Data from Apollo_Calib_20240827__AbsoluteIrradiance__296__04-05-00-087.txt Node

Date: Wed Aug 28 04:05:00 BST 2024
User: biology
Spectrometer: FLMT08252
Trigger mode: 0
Integration Time (sec): 5.000000E-1
Scans to average: 5
Electric dark correction enabled: true
Nonlinearity correction enabled: false
Boxcar width: 0
XAxis mode: Wavelengths
Number of Pixels in Spectrum: 3648
>>>>>Begin Spectral Data<<<<<
179.588	-0
179.809	-0
180.03	-0
180.251	-0
180.473	-0
180.694	0
180.915	0
181.136	-0
181.357	0
181.578	-0
181.799	-0
182.02	-0
182.241	-0
182.462	-0
182.683	0
182.904	0
183.125	0
183.346	0
183.567	0
183.788	-0
184.009	-0
184.23	0
184.451	0
184.672	-0
184.892	-0
185.113	0
185.334	0
185.555	-0
185.776	-0
185.996	0
186.217	0
186.438	0
186.659	-0
186.879	-0
187.1	0
187.321	-0
187.541	-0
187.762	-0
187.983	-0
188.203	-0
188.424	-0
188.644	0
188.865	-0
189.086	-0
189.306	-0
189.527	-0
189.747	0
189.968	-0
190.188	0
190.409	0
190.629	0
190.849	-0
191.07	-0
191.29	0
191.511	0
191.731	-0
191.951	-0
192.172	-0
192.392	-0
192.612	-0
192.833	-0
193.053	0
193.273	0
193.493	-0
193.714	-0
193.934	0
194.154	0
194.374	-0
194.594	0
194.815	-0
195.035	0
195.255	0
195.475	-0
195.695	0
195.915	0
196.135	-0
196.355	0
196.575	0
196.795	-0
197.015	-0
197.235	-0
197.455	-0
197.675	-0
197.895	-0
198.115	-0
198.335	0
198.555	0
198.775	0
198.995	-0
199.214	0
199.434	0
199.654	-0
199.874	-0
200.094	0.32
200.313	-0.2
200.533	-0.65
200.753	-0.61
200.973	0.5
201.192	0.79
201.412	-1.2
201.632	-0.74
201.851	0.72
202.071	-0.15
202.291	-0.33
202.51	-0.69
202.73	0.81
202.95	-0.26
203.169	-0.84
203.389	-0.34
203.608	0.03
203.828	-0.68
204.047	-0.34
204.267	-0.08
204.486	0.13
204.706	0.04
204.925	0.08
205.145	-0.43
205.364	0.44
205.583	0.49
205.803	-0.45
206.022	-0.23
206.242	-0.07
206.461	-0.17
206.68	-0.31
206.9	-0.25
207.119	0.47
207.338	0.47
207.557	-0.67
207.777	-0.07
207.996	-0.36
208.215	0.33
208.434	-0.39
208.654	-0.75
208.873	-0.15
209.092	0.62
209.311	-0.5
209.53	-0.16
209.749	-0.02
209.968	-0.23
210.187	-0.19
210.407	-0.6
210.626	-0.12
210.845	0.23
211.064	0.01
211.283	-0.57
211.502	0.41
211.721	0.15
211.94	-0.18
212.159	0.02
212.377	0.15
212.596	0.12
212.815	-0.03
213.034	0.01
213.253	0.26
213.472	-0.01
213.691	-0.17
213.91	-0.09
214.128	-0.18
214.347	0.34
214.566	-0.44
214.785	-0.67
215.003	0.2
215.222	0.18
215.441	-0.03
215.66	-0.47
215.878	-0.11
216.097	0.22
216.316	-0.22
216.534	-0.29
216.753	0.16
216.972	-0.1
217.19	-0.33
217.409	-0.31
217.627	-0.25
217.846	-0.21
218.064	-0.05
218.283	-0.12
218.501	0.09
218.72	0.2
218.938	-0.25
219.157	-0.12
219.375	0.23
219.594	-0.16
219.812	-0.19
220.031	-0.21
220.249	0.25
220.467	0.32
220.686	-0.22
220.904	-0.17
221.122	-0.24
221.341	0.24
221.559	-0.05
221.777	-0.21
221.995	0
222.214	0.21
222.432	-0.15
222.65	0.28
222.868	0.06
223.086	0.06
223.305	0.04
223.523	-0.08
223.741	0.35
223.959	-0.09
224.177	-0.39
224.395	-0.13
224.613	0.02
224.831	0.19
225.049	-0.2
225.267	0
225.485	-0.11
225.703	-0.06
225.921	-0.06
226.139	-0.09
226.357	0.22
226.575	0.11
226.793	-0.05
227.011	0.51
227.229	-0.03
227.447	0.09
227.665	-0.13
227.883	-0.24
228.1	-0.02
228.318	0.04
228.536	-0.2
228.754	-0.16
228.972	0.08
229.189	0.13
229.407	-0.04
229.625	-0.01
229.843	0.25
230.06	0.07
230.278	-0.14
230.496	-0.1
230.713	0.11
230.931	0.13
231.149	0.01
231.366	-0.25
231.584	0.03
231.801	0.22
232.019	-0.11
232.236	-0.14
232.454	-0.16
232.671	0.03
232.889	-0.02
233.106	-0.22
233.324	0.04
233.541	-0.05
233.759	0.01
233.976	-0.14
234.194	-0.13
234.411	-0.08
234.628	-0.15
234.846	0.04
235.063	-0.02
235.28	-0.07
235.498	-0.18
235.715	-0.09
235.932	0.13
236.149	-0.03
236.367	-0.12
236.584	-0.05
236.801	-0.08
237.018	0.18
237.236	-0.04
237.453	-0.29
237.67	0.04
237.887	-0.11
238.104	-0.07
238.321	-0.06
238.538	-0.18
238.755	0.15
238.973	-0.24
239.19	0.01
239.407	-0.01
239.624	-0.01
239.841	-0.16
240.058	-0.11
240.275	0.1
240.492	-0.15
240.709	-0.08
240.925	-0.09
241.142	-0.18
241.359	-0.13
241.576	-0.16
241.793	-0.09
242.01	-0.11
242.227	0.13
242.444	0.02
242.66	0.02
242.877	-0.05
243.094	-0.07
243.311	0
243.527	-0.11
243.744	0.02
243.961	0.02
244.178	-0.18
244.394	-0.1
244.611	0.07
244.828	0.19
245.044	-0.09
245.261	-0.08
245.477	-0.02
245.694	0.12
245.911	-0.06
246.127	-0.06
246.344	0.17
246.56	0.08
246.777	-0.04
246.993	0.01
247.21	0.02
247.426	0.05
247.643	-0.06
247.859	-0.12
248.076	-0.13
248.292	0.14
248.508	-0.07
248.725	0.08
248.941	0.03
249.157	0.11
249.374	-0.14
249.59	-0.04
249.806	0.01
250.023	0.04
250.239	-0.04
250.455	-0.11
250.671	0.02
250.888	-0.03
251.104	0.02
251.32	-0.08
251.536	-0.02
251.752	-0.1
251.969	-0.04
252.185	-0.03
252.401	0.1
252.617	0.12
252.833	-0.08
253.049	-0.08
253.265	-0.04
253.481	-0.01
253.697	-0.14
253.913	-0.05
254.129	0.06
254.345	-0.01
254.561	-0.08
254.777	-0.08
254.993	0
255.209	-0.02
255.425	-0.1
255.641	-0.04
255.857	0.1
256.073	0.03
256.288	-0.09
256.504	-0.09
256.72	0
256.936	0.11
257.152	-0.02
257.367	-0.14
257.583	0.01
257.799	0.06
258.015	-0.08
258.23	-0.04
258.446	0.13
258.662	-0.07
258.877	-0.08
259.093	-0.1
259.309	-0.11
259.524	0.03
259.74	-0.04
259.955	-0.11
260.171	-0.03
260.387	-0.01
260.602	0.05
260.818	0.05
261.033	-0.08
261.249	-0.07
261.464	-0.01
261.68	-0.07
261.895	-0.02
262.11	0.05
262.326	-0.01
262.541	-0.14
262.757	0.01
262.972	0.06
263.187	-0.01
263.403	-0.07
263.618	0.02
263.833	0.03
264.049	-0.04
264.264	-0.07
264.479	0.05
264.694	0.06
264.91	-0.09
265.125	-0.01
265.34	0.04
265.555	0.11
265.77	0
265.986	-0.09
266.201	0.01
266.416	0.1
266.631	-0.06
266.846	-0.04
267.061	-0.03
267.276	0.03
267.491	-0.16
267.706	0.01
267.921	0.01
268.136	0.02
268.351	-0.03
268.566	-0.06
268.781	0.11
268.996	0.07
269.211	-0.02
269.426	-0.12
269.641	-0.01
269.856	0.04
270.071	-0.07
270.285	-0.15
270.5	0.11
270.715	0.03
270.93	-0.06
271.145	0.02
271.359	0.09
271.574	-0.03
271.789	-0.05
272.004	-0.02
272.218	0
272.433	0.07
272.648	-0.05
272.862	0.05
273.077	-0
273.292	-0.04
273.506	-0.03
273.721	-0.04
273.936	0.03
274.15	0.04
274.365	-0.06
274.579	0.02
274.794	0.02
275.008	0.09
275.223	-0.13
275.437	-0.05
275.652	0.02
275.866	0.06
276.081	0.01
276.295	-0.02
276.509	0.02
276.724	-0.01
276.938	0.01
277.153	0.02
277.367	0.05
277.581	-0.08
277.796	0
278.01	-0.07
278.224	0.03
278.438	0.11
278.653	-0.07
278.867	-0.06
279.081	-0.19
279.295	-0.01
279.51	-0
279.724	-0.14
279.938	0.03
280.152	0.01
280.366	-0.08
280.58	0.01
280.794	0.09
281.008	0.06
281.222	0.05
281.437	0.12
281.651	0.01
281.865	0.06
282.079	-0.02
282.293	-0.13
282.507	-0.05
282.721	-0.05
282.935	-0.02
283.148	-0.08
283.362	-0.02
283.576	-0.07
283.79	-0.05
284.004	-0.12
284.218	0.1
284.432	-0.07
284.646	-0.06
284.859	0.01
285.073	-0.04
285.287	0.01
285.501	0.01
285.714	-0.03
285.928	0.03
286.142	0.01
286.356	-0.07
286.569	-0.05
286.783	0.09
286.997	0.03
287.21	-0.01
287.424	-0
287.637	-0.03
287.851	-0.02
288.065	0.01
288.278	-0.04
288.492	-0.01
288.705	-0.05
288.919	0.06
289.132	-0.03
289.346	0.03
289.559	-0.1
289.773	-0.06
289.986	-0.03
290.2	0.03
290.413	0.02
290.626	-0.05
290.84	-0
291.053	0.02
291.267	0.09
291.48	0
291.693	0.03
291.906	-0.02
292.12	-0.02
292.333	-0.03
292.546	-0.04
292.76	0.08
292.973	0
293.186	0.05
293.399	-0.08
293.612	0.06
293.826	0.03
294.039	-0.04
294.252	-0.02
294.465	0.04
294.678	-0.01
294.891	-0.02
295.104	-0.09
295.317	-0.01
295.53	0.02
295.743	0.01
295.956	-0.02
296.169	0.09
296.382	0.03
296.595	-0
296.808	-0.03
297.021	0.02
297.234	0.08
297.447	0
297.66	0.03
297.873	0.03
298.086	0.04
298.299	-0.05
298.511	-0.08
298.724	0.01
298.937	-0.1
299.15	-0.01
299.363	-0
299.575	0.03
299.788	0.03
300.001	-0.04
300.213	-0.03
300.426	-0.05
300.639	-0.02
300.852	-0.01
301.064	0.04
301.277	0.05
301.489	0.04
301.702	0.02
301.915	-0.01
302.127	0
302.34	0.05
302.552	0.02
302.765	-0.03
302.977	0.03
303.19	0.03
303.402	-0.04
303.615	-0.05
303.827	-0.01
304.04	-0
304.252	0
304.464	0.01
304.677	0.13
304.889	0.04
305.102	-0.04
305.314	-0.04
305.526	0.06
305.739	0
305.951	0.01
306.163	0.01
306.375	0.07
306.588	-0.05
306.8	-0.02
307.012	-0.03
307.224	0.01
307.436	0.09
307.649	-0.09
307.861	-0
308.073	0.06
308.285	-0.01
308.497	-0.06
308.709	-0.04
308.921	0.02
309.133	0.04
309.346	-0.01
309.558	-0.02
309.77	0.03
309.982	0.06
310.194	0.03
310.406	-0.03
310.617	0.09
310.829	0.03
311.041	0.04
311.253	-0.08
311.465	-0.02
311.677	-0.02
311.889	-0.03
312.101	-0.09
312.313	0.03
312.524	0.05
312.736	-0.04
312.948	-0.05
313.16	0.09
313.372	0.01
313.583	0.02
313.795	0.01
314.007	-0.02
314.218	0.08
314.43	0.01
314.642	-0.01
314.853	-0.09
315.065	0.01
315.277	0
315.488	0.03
315.7	0.07
315.912	0.02
316.123	-0.04
316.335	0.02
316.546	0.1
316.758	0.01
316.969	-0.02
317.181	0.04
317.392	0.03
317.604	0.06
317.815	-0.04
318.026	-0.06
318.238	0.04
318.449	0.04
318.661	-0.07
318.872	-0.08
319.083	-0.04
319.295	0.03
319.506	-0.05
319.717	-0
319.929	0.06
320.14	0
320.351	0.01
320.562	-0.02
320.774	-0.03
320.985	0
321.196	-0.04
321.407	-0.06
321.618	0.02
321.829	0.02
322.041	0.06
322.252	0.02
322.463	0.03
322.674	0.08
322.885	-0.03
323.096	-0.02
323.307	-0.05
323.518	0.04
323.729	-0.02
323.94	-0.04
324.151	0
324.362	-0.01
324.573	0.01
324.784	-0.05
324.995	0.1
325.206	0.02
325.417	-0.04
325.628	-0.02
325.838	0.01
326.049	-0.01
326.26	0.06
326.471	-0.02
326.682	-0.02
326.892	-0.01
327.103	-0.11
327.314	-0.04
327.525	0.07
327.735	-0.02
327.946	-0.04
328.157	-0.04
328.368	0.03
328.578	-0.05
328.789	0.04
328.999	-0.01
329.21	-0.03
329.421	0.06
329.631	-0.05
329.842	-0.04
330.052	0.05
330.263	0.03
330.473	-0
330.684	-0.05
330.894	-0.04
331.105	0.02
331.315	0.03
331.526	-0.06
331.736	0.09
331.947	0.03
332.157	0
332.367	-0.05
332.578	0.03
332.788	0.09
332.999	0.03
333.209	-0.01
333.419	-0.05
333.629	0.06
333.84	0.04
334.05	-0.01
334.26	0.07
334.47	0.04
334.681	0.03
334.891	0
335.101	0.04
335.311	0.08
335.521	-0.02
335.732	-0.04
335.942	0.03
336.152	0.04
336.362	0
336.572	-0.03
336.782	0.02
336.992	0.02
337.202	-0.01
337.412	-0.04
337.622	0.04
337.832	-0.01
338.042	0.02
338.252	-0.05
338.462	-0.03
338.672	0.02
338.882	-0.01
339.092	-0
339.302	0.05
339.511	0.08
339.721	-0.06
339.931	-0.04
340.141	0.04
340.351	0.05
340.561	0.05
340.77	0.03
340.98	-0.01
341.19	0.04
341.4	-0.02
341.609	-0.03
341.819	-0.03
342.029	-0.04
342.238	-0.04
342.448	-0.04
342.658	0.06
342.867	0
343.077	0.01
343.286	0
343.496	-0
343.706	0.06
343.915	-0.08
344.125	-0.03
344.334	-0.01
344.544	-0.08
344.753	-0.02
344.963	-0.04
345.172	-0.03
345.381	-0.03
345.591	-0.05
345.8	-0.01
346.01	0.06
346.219	0.07
346.428	-0.16
346.638	-0
346.847	-0.01
347.056	0.05
347.266	-0.03
347.475	0.01
347.684	0.03
347.893	0.02
348.103	0.03
348.312	-0.01
348.521	-0.02
348.73	0.01
348.94	-0.02
349.149	-0.05
349.358	-0.02
349.567	-0.01
349.776	-0.07
349.985	-0.01
350.194	0.06
350.403	0.08
350.612	-0.07
350.821	-0.02
351.03	0.01
351.239	-0.07
351.448	-0.02
351.657	-0.04
351.866	0.04
352.075	-0.02
352.284	0.02
352.493	-0.05
352.702	0.09
352.911	0.05
353.12	-0.03
353.329	0
353.538	0.04
353.746	0.01
353.955	-0.05
354.164	-0.02
354.373	0.02
354.582	0.08
354.79	0.03
354.999	0.02
355.208	0.01
355.416	0.04
355.625	-0.05
355.834	-0.04
356.042	0.02
356.251	0.01
356.46	-0.04
356.668	0.01
356.877	0.07
357.085	0.07
357.294	-0.07
357.503	-0
357.711	0.02
357.92	0.09
358.128	0.03
358.337	-0.03
358.545	0.04
358.754	-0.03
358.962	0.02
359.17	-0.02
359.379	0.02
359.587	0.03
359.796	0
360.004	0.05
360.212	0
360.421	0.05
360.629	0.02
360.837	-0.01
361.046	0.01
361.254	0.11
361.462	0
361.67	-0.02
361.879	-0.03
362.087	0.01
362.295	0.01
362.503	-0.04
362.711	-0.07
362.92	-0.05
363.128	-0.03
363.336	-0.05
363.544	-0.04
363.752	-0.01
363.96	0
364.168	-0.04
364.376	0.01
364.584	0.03
364.792	0.04
365	0.03
365.208	-0.02
365.416	0.01
365.624	0.04
365.832	-0.03
366.04	0.07
366.248	-0
366.456	0.02
366.664	0
366.872	0.01
367.079	-0.01
367.287	0.02
367.495	0
367.703	-0
367.911	-0.01
368.118	-0
368.326	-0.02
368.534	-0.03
368.742	0.09
368.949	-0.09
369.157	-0.02
369.365	0.04
369.572	0.02
369.78	-0.04
369.988	0.05
370.195	0
370.403	0.02
370.61	-0.04
370.818	-0.02
371.026	0.08
371.233	-0.03
371.441	0.03
371.648	-0.03
371.856	0.03
372.063	0.05
372.271	-0.03
372.478	-0.05
372.685	-0.04
372.893	0.07
373.1	-0.01
373.308	-0.02
373.515	0.03
373.722	-0.01
373.93	-0.02
374.137	0.01
374.344	0.06
374.552	0.05
374.759	0.02
374.966	0.03
375.173	-0.01
375.381	0.05
375.588	0.01
375.795	-0.08
376.002	-0.01
376.209	-0.06
376.417	-0.04
376.624	0.03
376.831	0.01
377.038	-0.01
377.245	-0.09
377.452	-0.02
377.659	0.01
377.866	-0.03
378.073	-0.01
378.28	-0
378.487	0.02
378.694	0.06
378.901	-0.01
379.108	-0.02
379.315	0.01
379.522	0.09
379.729	-0
379.936	-0.01
380.143	0.01
380.35	0.03
380.557	-0.01
380.763	-0.02
380.97	0.03
381.177	0
381.384	0.03
381.591	-0.04
381.797	0.02
382.004	0.04
382.211	0.03
382.418	0.01
382.624	0
382.831	0.04
383.038	-0.02
383.244	-0.01
383.451	0.03
383.658	0.03
383.864	-0.04
384.071	-0
384.277	0.09
384.484	-0.04
384.69	0.01
384.897	0.02
385.103	-0.04
385.31	-0.02
385.516	-0
385.723	-0.05
385.929	-0.03
386.136	-0.02
386.342	0.04
386.549	-0.01
386.755	0.05
386.961	0.03
387.168	-0.01
387.374	0.04
387.58	0.05
387.787	0
387.993	0.01
388.199	0.03
388.406	-0.07
388.612	0
388.818	-0.05
389.024	-0.05
389.231	0.01
389.437	0.11
389.643	0.06
389.849	-0.01
390.055	0.02
390.261	0.02
390.467	0
390.674	-0.06
390.88	-0.02
391.086	0
391.292	-0.04
391.498	0.02
391.704	-0.01
391.91	-0.03
392.116	-0
392.322	-0.12
392.528	0.03
392.734	-0.03
392.94	-0.01
393.146	-0.02
393.352	-0.02
393.557	-0.04
393.763	-0.03
393.969	-0.01
394.175	-0.03
394.381	-0.02
394.587	-0.05
394.792	0.01
394.998	0.02
395.204	0.03
395.41	-0.1
395.615	0.01
395.821	0.03
396.027	-0
396.233	-0.08
396.438	-0
396.644	0.09
396.85	0.02
397.055	0.02
397.261	0.05
397.466	0.08
397.672	-0.02
397.878	0.03
398.083	0.03
398.289	-0.02
398.494	0.05
398.7	0.01
398.905	-0.07
399.111	0.06
399.316	-0.09
399.522	0.02
399.727	0.01
399.932	-0
400.138	-0
400.343	0.02
400.549	0.01
400.754	-0.01
400.959	0.06
401.165	-0.02
401.37	-0.02
401.575	0.05
401.78	0
401.986	-0.04
402.191	-0.01
402.396	0
402.601	0.01
402.807	-0.01
403.012	0.01
403.217	0.06
403.422	-0.01
403.627	0.01
403.832	-0.03
404.037	0.06
404.243	0.01
404.448	-0.05
404.653	-0.04
404.858	-0
405.063	0.06
405.268	-0.08
405.473	-0.08
405.678	-0.03
405.883	0.13
406.088	0.01
406.293	-0.07
406.498	-0.03
406.703	0.02
406.907	0
407.112	-0.03
407.317	0
407.522	0.01
407.727	-0.07
407.932	0.01
408.136	0.06
408.341	-0.03
408.546	-0.02
408.751	-0.04
408.956	-0.04
409.16	0.05
409.365	-0.03
409.57	-0.03
409.774	-0.02
409.979	0.04
410.184	0.01
410.388	-0.08
410.593	0.05
410.798	0.01
411.002	-0.02
411.207	0.02
411.411	0.08
411.616	-0.03
411.82	-0.06
412.025	-0
412.229	-0.05
412.434	0.07
412.638	0.05
412.843	-0.01
413.047	0.01
413.252	-0.05
413.456	-0.02
413.66	0
413.865	-0.02
414.069	0.04
414.273	-0.07
414.478	-0.01
414.682	0
414.886	0.01
415.091	-0.1
415.295	-0.07
415.499	0.02
415.703	0
415.908	0.02
416.112	-0.09
416.316	0.03
416.52	-0.02
416.724	-0.09
416.929	-0.06
417.133	0.1
417.337	-0.03
417.541	-0.04
417.745	-0.05
417.949	-0
418.153	0.03
418.357	-0.06
418.561	0.09
418.765	0.02
418.969	0.08
419.173	-0.01
419.377	-0.05
419.581	0.07
419.785	-0.03
419.989	-0.06
420.193	-0.03
420.397	0.01
420.601	0.04
420.804	0.01
421.008	-0.01
421.212	-0
421.416	-0.01
421.62	-0.05
421.823	-0.03
422.027	0.07
422.231	0.04
422.435	0
422.638	-0.02
422.842	-0.01
423.046	-0.08
423.249	-0
423.453	0.02
423.657	-0.01
423.86	-0.03
424.064	-0.03
424.268	0.08
424.471	-0.04
424.675	0.07
424.878	0.05
425.082	0.02
425.285	0.02
425.489	0.01
425.692	0.01
425.896	-0.03
426.099	0.04
426.303	-0.02
426.506	-0.07
426.71	0.02
426.913	0.09
427.116	0.06
427.32	0
427.523	-0
427.726	0.03
427.93	-0.05
428.133	-0.01
428.336	-0.04
428.54	-0.02
428.743	0
428.946	-0
429.149	-0.02
429.353	-0.03
429.556	-0.03
429.759	-0.02
429.962	-0.07
430.165	0.01
430.368	-0.02
430.571	-0.02
430.775	0
430.978	-0.03
431.181	0.02
431.384	0.03
431.587	-0.05
431.79	0.02
431.993	-0.05
432.196	-0.06
432.399	-0.04
432.602	-0
432.805	0.02
433.008	-0.05
433.211	-0.05
433.414	-0.05
433.616	0.01
433.819	-0.03
434.022	-0.11
434.225	0.07
434.428	0.01
434.631	0.05
434.833	-0.04
435.036	-0.01
435.239	0.08
435.442	0
435.645	-0.03
435.847	0.01
436.05	0.02
436.253	-0.01
436.455	-0.09
436.658	0
436.861	0.06
437.063	-0.03
437.266	0.02
437.468	0.02
437.671	0.12
437.874	-0.03
438.076	-0.09
438.279	-0.07
438.481	-0.02
438.684	-0.06
438.886	0.04
439.089	-0.11
439.291	0.04
439.494	0.04
439.696	-0.05
439.899	-0.02
440.101	-0.01
440.303	-0.09
440.506	0.01
440.708	0.01
440.91	0.04
441.113	-0.06
441.315	0.01
441.517	-0.05
441.72	0.04
441.922	-0.05
442.124	0.01
442.326	0.04
442.529	0.04
442.731	-0.04
442.933	0.06
443.135	-0.04
443.337	-0.05
443.539	0.01
443.742	-0.08
443.944	0.03
444.146	-0.01
444.348	-0.04
444.55	-0.03
444.752	-0.03
444.954	-0.08
445.156	0.02
445.358	-0.09
445.56	0.03
445.762	-0.04
445.964	0.01
446.166	-0.04
446.368	-0.05
446.57	0.01
446.772	0
446.974	0.02
447.175	-0.02
447.377	-0.04
447.579	0.05
447.781	-0.1
447.983	0.05
448.184	0.01
448.386	0.05
448.588	-0.11
448.79	-0.04
448.991	-0.02
449.193	-0.04
449.395	-0.02
449.597	0.02
449.798	-0.04
450	0.02
450.202	-0.05
450.403	0.03
450.605	0.02
450.806	-0.03
451.008	-0.06
451.21	0.01
451.411	-0.03
451.613	-0.08
451.814	-0
452.016	0.01
452.217	0.03
452.419	0.02
452.62	-0.01
452.821	0.04
453.023	0.02
453.224	0.03
453.426	-0.05
453.627	0.02
453.828	0.02
454.03	-0
454.231	0.05
454.432	-0.08
454.634	0.11
454.835	-0.05
455.036	-0.03
455.238	0.05
455.439	0.09
455.64	-0.1
455.841	-0.03
456.042	0.12
456.244	-0.01
456.445	-0.02
456.646	-0.01
456.847	-0.05
457.048	0.05
457.249	0.02
457.45	0.19
457.651	-0.05
457.852	0.02
458.054	0.05
458.255	-0.05
458.456	0.03
458.657	-0
458.858	-0.05
459.058	-0.02
459.259	0.01
459.46	-0.05
459.661	-0.06
459.862	0.11
460.063	-0.04
460.264	0.07
460.465	-0.06
460.666	0.04
460.866	-0.04
461.067	0.01
461.268	0.02
461.469	-0.01
461.67	0.01
461.87	-0.01
462.071	-0.01
462.272	-0.07
462.473	0
462.673	0.01
462.874	-0.05
463.075	0
463.275	-0.06
463.476	0.02
463.676	-0
463.877	0.02
464.078	0.01
464.278	0.09
464.479	-0.03
464.679	-0
464.88	-0.03
465.08	0.14
465.281	-0.02
465.481	-0.01
465.682	-0.02
465.882	0.01
466.083	0.05
466.283	-0.02
466.483	-0.01
466.684	-0.04
466.884	-0
467.085	-0.02
467.285	0.04
467.485	-0.05
467.686	0.02
467.886	-0.04
468.086	0.02
468.286	0.01
468.487	0.04
468.687	-0.06
468.887	-0.01
469.087	0.07
469.287	-0.03
469.488	-0.09
469.688	0.02
469.888	0.08
470.088	0.04
470.288	0.01
470.488	0.04
470.688	-0.08
470.888	-0.02
471.088	-0.05
471.288	0.08
471.488	0.07
471.688	0.02
471.888	-0.06
472.088	0.05
472.288	0.02
472.488	-0.02
472.688	-0.03
472.888	-0.07
473.088	-0.02
473.288	0.01
473.488	0.02
473.688	0.09
473.887	-0.03
474.087	-0.04
474.287	-0.01
474.487	-0.02
474.687	0.05
474.886	-0.06
475.086	-0.03
475.286	0.02
475.486	0.01
475.685	0.01
475.885	-0.01
476.085	-0.04
476.284	0
476.484	-0.03
476.684	0.02
476.883	0.05
477.083	0.02
477.282	-0.01
477.482	0.03
477.681	0.05
477.881	0.02
478.08	-0.04
478.28	-0.02
478.479	0.03
478.679	0.07
478.878	-0.02
479.078	-0.03
479.277	-0.01
479.477	-0.02
479.676	0.04
479.875	-0.02
480.075	-0.04
480.274	-0.01
480.473	0.01
480.673	-0.03
480.872	0.04
481.071	0
481.271	-0.02
481.47	-0.01
481.669	0.01
481.868	-0.05
482.067	-0.03
482.267	-0.03
482.466	-0.04
482.665	-0.02
482.864	-0.06
483.063	-0.03
483.262	0.04
483.461	0.04
483.661	0.03
483.86	-0.01
484.059	0.02
484.258	-0.02
484.457	-0.02
484.656	0.02
484.855	0.04
485.054	-0.03
485.253	-0.05
485.452	-0.04
485.651	-0
485.849	-0.03
486.048	-0.03
486.247	-0.06
486.446	0.01
486.645	-0.06
486.844	-0.03
487.043	-0.01
487.241	0.02
487.44	-0.03
487.639	-0.02
487.838	0.03
488.037	-0.01
488.235	0.03
488.434	0.01
488.633	-0.02
488.831	-0
489.03	0.03
489.229	-0.02
489.427	0.02
489.626	0.02
489.825	0.06
490.023	0.01
490.222	-0.04
490.42	0.05
490.619	0.02
490.817	0.01
491.016	-0.02
491.214	0.02
491.413	-0.01
491.611	-0.01
491.81	-0.01
492.008	0.02
492.207	0.02
492.405	0.01
492.604	-0.04
492.802	0
493	-0.02
493.199	-0.02
493.397	-0.02
493.595	-0
493.794	-0.03
493.992	0.04
494.19	-0.02
494.388	0
494.587	-0.01
494.785	-0.01
494.983	-0.05
495.181	0.01
495.379	-0
495.578	0
495.776	0.01
495.974	-0.01
496.172	0
496.37	-0.02
496.568	-0.03
496.766	-0.01
496.964	0.03
497.162	0.01
497.36	-0.03
497.558	0.01
497.756	0.01
497.954	-0.02
498.152	-0.01
498.35	-0
498.548	-0.01
498.746	-0.02
498.944	-0.05
499.142	0
499.34	-0.03
499.538	0.01
499.736	-0.02
499.933	0.04
500.131	0.06
500.329	0.01
500.527	0.02
500.725	0.02
500.922	0.02
501.12	-0.01
501.318	0.03
501.516	-0.03
501.713	0.01
501.911	-0.01
502.109	-0.02
502.306	0.01
502.504	-0.03
502.701	0
502.899	-0.01
503.097	0.04
503.294	0.01
503.492	-0
503.689	-0.01
503.887	0.03
504.084	0.04
504.282	-0.01
504.479	-0.05
504.677	0.01
504.874	-0.02
505.072	-0.02
505.269	-0.02
505.466	0.02
505.664	-0
505.861	-0.07
506.059	-0.02
506.256	0.02
506.453	-0.01
506.651	0.03
506.848	0.01
507.045	0.01
507.242	0.01
507.44	-0.02
507.637	-0.01
507.834	-0.01
508.031	0.01
508.229	-0.04
508.426	-0.02
508.623	0.01
508.82	-0.02
509.017	-0.04
509.214	0
509.411	-0
509.608	-0.05
509.805	0.02
510.003	-0.02
510.2	-0.03
510.397	0
510.594	-0.05
510.791	-0.04
510.988	-0.01
511.184	0.03
511.381	-0.01
511.578	-0.02
511.775	0.04
511.972	-0.01
512.169	-0.02
512.366	-0.01
512.563	0.01
512.76	-0.01
512.956	0
513.153	-0.01
513.35	-0.02
513.547	-0.02
513.744	-0.03
513.94	-0.03
514.137	0.02
514.334	-0.02
514.53	-0
514.727	-0
514.924	0.03
515.12	-0.02
515.317	-0.04
515.514	-0.03
515.71	-0.02
515.907	0.02
516.103	0.01
516.3	0.02
516.497	0.03
516.693	0.05
516.89	0.01
517.086	-0.03
517.283	0.01
517.479	0.01
517.676	-0
517.872	-0.01
518.068	-0.02
518.265	-0
518.461	-0.02
518.658	-0.02
518.854	-0.01
519.05	-0.01
519.247	-0.04
519.443	0.01
519.639	0
519.836	0.01
520.032	-0
520.228	-0.01
520.424	0.06
520.621	0
520.817	0
521.013	0.01
521.209	0.02
521.405	0.05
521.601	-0
521.798	0
521.994	0.03
522.19	-0.04
522.386	-0.03
522.582	-0
522.778	-0
522.974	-0.02
523.17	-0.02
523.366	-0
523.562	0.04
523.758	0.01
523.954	-0.02
524.15	-0.01
524.346	-0.01
524.542	-0
524.738	-0.03
524.934	0
525.129	-0.01
525.325	-0.01
525.521	-0.02
525.717	0.02
525.913	-0
526.109	-0.01
526.304	-0.01
526.5	-0
526.696	0.02
526.892	0
527.087	-0.02
527.283	-0.02
527.479	0.02
527.674	-0.02
527.87	0
528.066	-0.01
528.261	0.01
528.457	0.01
528.653	-0
528.848	-0.02
529.044	0
529.239	0.01
529.435	0.02
529.63	0.02
529.826	0.04
530.021	0.02
530.217	0
530.412	-0.02
530.608	-0.04
530.803	-0.03
530.999	0.01
531.194	-0.05
531.389	0.01
531.585	-0.05
531.78	-0.01
531.975	-0.01
532.171	0.01
532.366	-0
532.561	-0.01
532.757	-0.02
532.952	-0.01
533.147	0.02
533.342	-0.01
533.538	-0.02
533.733	0.03
533.928	0.01
534.123	-0.01
534.318	-0.04
534.513	-0.01
534.709	-0
534.904	-0.04
535.099	0
535.294	-0.01
535.489	0
535.684	0.01
535.879	-0.02
536.074	0
536.269	-0.02
536.464	0
536.659	-0.01
536.854	-0.01
537.049	0.01
537.244	-0
537.439	-0
537.634	0.02
537.828	0
538.023	-0.02
538.218	-0.06
538.413	-0.02
538.608	-0.04
538.803	0.01
538.997	-0.05
539.192	0.01
539.387	0.01
539.582	-0
539.776	-0
539.971	-0.01
540.166	0
540.36	-0.03
540.555	0
540.75	-0.01
540.944	-0.01
541.139	-0.06
541.334	-0
541.528	0.02
541.723	0.01
541.917	-0.02
542.112	-0.05
542.306	-0.01
542.501	-0.02
542.695	-0
542.89	-0.02
543.084	-0
543.279	0
543.473	-0.01
543.668	-0.01
543.862	-0.01
544.056	-0.01
544.251	-0.02
544.445	0
544.64	0
544.834	-0.02
545.028	0.01
545.222	-0.01
545.417	0.03
545.611	0
545.805	-0.02
546	-0.03
546.194	-0
546.388	-0.02
546.582	0
546.776	0.01
546.97	-0
547.165	-0
547.359	0.01
547.553	-0.03
547.747	0
547.941	-0
548.135	0
548.329	0
548.523	0
548.717	-0.01
548.911	-0.02
549.105	-0.01
549.299	-0.01
549.493	0.01
549.687	-0.01
549.881	-0.01
550.075	0.01
550.269	-0.03
550.463	0
550.657	-0.03
550.85	0
551.044	-0.02
551.238	-0
551.432	-0.02
551.626	-0.03
551.82	0.01
552.013	-0.04
552.207	0
552.401	-0.01
552.594	-0.02
552.788	-0.01
552.982	-0.01
553.176	-0.04
553.369	0.01
553.563	0
553.756	-0.04
553.95	-0.02
554.144	-0.01
554.337	0.04
554.531	-0.01
554.724	-0.01
554.918	-0.02
555.111	0
555.305	-0.01
555.498	0.03
555.692	0.01
555.885	-0.03
556.079	0
556.272	0.02
556.466	0
556.659	0.03
556.852	-0.01
557.046	-0.01
557.239	0.03
557.432	-0.02
557.626	-0.04
557.819	0.01
558.012	0.03
558.206	0.02
558.399	0
558.592	0.04
558.785	0.02
558.979	0
559.172	0.01
559.365	0.03
559.558	0.02
559.751	-0.01
559.944	0.01
560.138	-0
560.331	-0.02
560.524	-0.01
560.717	-0.02
560.91	-0.01
561.103	0.02
561.296	-0.01
561.489	-0.01
561.682	0.01
561.875	0.02
562.068	0.04
562.261	0
562.454	0.03
562.647	0.02
562.84	0.02
563.032	-0.02
563.225	0
563.418	-0.01
563.611	-0.02
563.804	-0.02
563.997	-0.03
564.19	-0.04
564.382	0
564.575	0
564.768	-0.01
564.961	-0.01
565.153	-0.02
565.346	0.02
565.539	-0.01
565.731	0.01
565.924	0.01
566.117	0
566.309	-0.02
566.502	-0.01
566.695	-0.01
566.887	0.01
567.08	-0.02
567.272	0.01
567.465	-0.04
567.657	-0.02
567.85	-0
568.042	0.02
568.235	0.04
568.427	-0
568.62	-0
568.812	0.03
569.005	0.01
569.197	-0.04
569.389	-0.02
569.582	-0
569.774	0.01
569.966	-0.05
570.159	-0.01
570.351	0.02
570.543	-0
570.736	-0
570.928	-0.05
571.12	0.01
571.312	-0.03
571.505	-0.05
571.697	0.06
571.889	-0.02
572.081	-0.01
572.273	-0.03
572.465	0.02
572.658	-0
572.85	0.01
573.042	-0.03
573.234	-0.02
573.426	0.04
573.618	-0.04
573.81	0.01
574.002	0.05
574.194	0.03
574.386	-0.06
574.578	-0.08
574.77	-0.02
574.962	-0.01
575.154	-0.02
575.346	-0
575.538	0
575.729	-0
575.921	-0.03
576.113	-0.03
576.305	0.02
576.497	-0.01
576.689	-0.03
576.88	-0.04
577.072	0.03
577.264	-0
577.456	-0.01
577.647	-0.07
577.839	0
578.031	0.03
578.223	-0.05
578.414	-0.04
578.606	0.01
578.798	-0.01
578.989	-0.03
579.181	-0.02
579.372	-0.03
579.564	0
579.755	0.01
579.947	0.01
580.139	0.02
580.33	-0.06
580.522	-0.02
580.713	-0.08
580.905	-0.02
581.096	0.01
581.287	-0
581.479	-0
581.67	0.04
581.862	-0.01
582.053	-0.03
582.244	-0.08
582.436	-0.01
582.627	-0.01
582.818	-0.03
583.01	-0.05
583.201	0.02
583.392	0.02
583.583	-0
583.775	-0.03
583.966	-0.01
584.157	-0.03
584.348	-0.02
584.54	-0.04
584.731	0.01
584.922	-0.02
585.113	-0.04
585.304	0.01
585.495	0.04
585.686	0
585.877	0.01
586.068	-0.01
586.259	0.01
586.45	0.03
586.641	-0.03
586.832	-0.07
587.023	-0
587.214	-0.04
587.405	-0.02
587.596	-0.02
587.787	0.04
587.978	0
588.169	-0.03
588.36	-0.02
588.551	0
588.742	-0.02
588.932	0
589.123	-0.02
589.314	0.04
589.505	0.02
589.696	-0.01
589.886	-0.02
590.077	-0.04
590.268	-0.02
590.458	-0.05
590.649	-0.04
590.84	0.02
591.03	-0.01
591.221	-0.03
591.412	-0.07
591.602	0.03
591.793	0.05
591.984	-0.02
592.174	0
592.365	0.06
592.555	-0.03
592.746	0
592.936	0.01
593.127	0.01
593.317	0.04
593.508	-0.03
593.698	-0.05
593.889	-0.01
594.079	0.01
594.269	-0.04
594.46	0
594.65	-0
594.84	-0
595.031	-0.03
595.221	-0.02
595.411	-0.06
595.602	0.01
595.792	-0.05
595.982	-0.02
596.172	0.06
596.363	0.02
596.553	0.01
596.743	0.01
596.933	-0.01
597.123	0.05
597.314	-0.05
597.504	-0.03
597.694	0.03
597.884	0.02
598.074	-0.01
598.264	-0.04
598.454	0.01
598.644	-0.02
598.834	-0.02
599.024	-0.07
599.214	-0.04
599.404	0.03
599.594	-0.01
599.784	-0.05
599.974	0.04
600.164	0
600.354	-0.03
600.544	-0.06
600.734	0.01
600.924	0.03
601.114	-0.02
601.303	-0
601.493	-0.01
601.683	-0.01
601.873	-0
602.063	-0.06
602.252	0.02
602.442	-0.09
602.632	-0
602.821	-0.04
603.011	0.01
603.201	-0.03
603.39	-0.06
603.58	-0.07
603.77	-0
603.959	0.05
604.149	0
604.339	-0.02
604.528	0.05
604.718	0.01
604.907	0
605.097	-0.03
605.286	-0.04
605.476	0.03
605.665	0
605.855	-0.01
606.044	-0.01
606.234	0.02
606.423	-0.01
606.612	-0.04
606.802	0.01
606.991	0.02
607.181	0
607.37	-0.07
607.559	-0.01
607.749	-0.07
607.938	-0.03
608.127	-0.01
608.316	-0.02
608.506	0
608.695	-0.01
608.884	-0.05
609.073	0
609.263	-0.01
609.452	0.02
609.641	-0
609.83	-0.07
610.019	0.01
610.208	-0.04
610.397	-0.01
610.586	0.02
610.775	-0.02
610.965	-0.01
611.154	-0.04
611.343	0.01
611.532	0
611.721	-0.01
611.91	-0.04
612.099	0.01
612.287	-0
612.476	-0.02
612.665	0.01
612.854	-0.03
613.043	0.04
613.232	0.01
613.421	-0.06
613.61	-0
613.798	-0.06
613.987	0.04
614.176	-0.02
614.365	0.03
614.554	0.01
614.742	-0
614.931	-0.02
615.12	0.04
615.309	-0.01
615.497	0.02
615.686	-0.03
615.875	-0.02
616.063	-0.01
616.252	-0.03
616.44	-0.01
616.629	0.01
616.818	0
617.006	-0.01
617.195	-0.01
617.383	0
617.572	-0.01
617.76	-0.03
617.949	-0.02
618.137	0.01
618.326	0.03
618.514	-0.04
618.703	0.01
618.891	0.04
619.079	-0.05
619.268	0
619.456	-0.04
619.644	0.03
619.833	-0
620.021	-0.02
620.209	-0.08
620.398	0.01
620.586	-0.02
620.774	0.03
620.962	-0.02
621.151	0.03
621.339	-0.01
621.527	-0.05
621.715	-0.06
621.903	-0.06
622.092	-0.06
622.28	0
622.468	-0.02
622.656	-0.01
622.844	0.01
623.032	-0.04
623.22	-0.08
623.408	0.04
623.596	-0.01
623.784	-0.01
623.972	-0.02
624.16	-0.01
624.348	0.04
624.536	-0.01
624.724	0
624.912	0.06
625.1	-0.01
625.288	-0.03
625.476	-0.08
625.664	0.02
625.851	-0.03
626.039	0.01
626.227	-0.01
626.415	-0.02
626.603	-0.06
626.79	-0.02
626.978	-0.04
627.166	0.03
627.354	-0.01
627.541	-0.01
627.729	-0.06
627.917	0.02
628.104	0.05
628.292	0.01
628.48	-0.03
628.667	-0.02
628.855	0
629.042	-0
629.23	-0.03
629.418	-0.01
629.605	-0.03
629.793	-0.05
629.98	-0.03
630.168	-0.03
630.355	-0.02
630.543	-0.01
630.73	-0.06
630.917	0
631.105	0.06
631.292	-0.03
631.48	0.01
631.667	0.05
631.854	0
632.042	-0.01
632.229	-0.08
632.416	-0.01
632.604	-0.02
632.791	-0.05
632.978	0.01
633.165	0.02
633.353	0.06
633.54	0.02
633.727	-0.06
633.914	-0.06
634.101	-0.11
634.289	0.03
634.476	-0.05
634.663	-0.03
634.85	-0
635.037	-0.04
635.224	-0.06
635.411	0.03
635.598	0.04
635.785	-0
635.972	-0.02
636.159	0.02
636.346	-0.07
636.533	-0.02
636.72	-0.07
636.907	-0.04
637.094	0.02
637.281	-0.06
637.468	0
637.655	-0.04
637.842	-0.01
638.029	-0.03
638.215	0.01
638.402	0.04
638.589	-0.05
638.776	-0.02
638.963	-0.03
639.149	0.04
639.336	0.06
639.523	0
639.709	-0.03
639.896	-0.03
640.083	0.02
640.27	0
640.456	-0.02
640.643	-0.01
640.829	-0.08
641.016	0.01
641.203	-0.07
641.389	0.02
641.576	0.01
641.762	-0
641.949	-0.04
642.135	-0.02
642.322	0.01
642.508	-0.05
642.695	0.02
642.881	-0.01
643.068	-0.03
643.254	-0.02
643.441	-0
643.627	-0
643.813	-0.04
644	0.01
644.186	-0.03
644.372	0.01
644.559	0.02
644.745	-0.04
644.931	-0.03
645.118	-0.04
645.304	-0.02
645.49	-0.02
645.676	-0.01
645.862	-0.03
646.049	0.03
646.235	-0
646.421	0.04
646.607	0.04
646.793	-0.04
646.979	-0.03
647.165	-0.01
647.352	-0.02
647.538	0.04
647.724	-0.02
647.91	-0.01
648.096	0.02
648.282	0.04
648.468	0
648.654	-0.01
648.84	0.02
649.026	-0
649.212	0
649.397	-0.02
649.583	-0.06
649.769	0.02
649.955	0.01
650.141	0.02
650.327	0.04
650.513	-0.02
650.698	0.02
650.884	-0.09
651.07	-0.02
651.256	0
651.442	-0
651.627	-0.01
651.813	0.03
651.999	-0.05
652.184	-0.02
652.37	-0.02
652.556	-0.02
652.741	0.04
652.927	-0.06
653.113	-0.03
653.298	0
653.484	-0.01
653.669	-0.05
653.855	-0.03
654.04	0.04
654.226	-0.01
654.412	-0.03
654.597	-0.04
654.782	0.03
654.968	0
655.153	-0.01
655.339	-0.04
655.524	-0.04
655.71	0.04
655.895	-0.02
656.08	-0.02
656.266	0.05
656.451	0.02
656.636	-0.03
656.822	0.02
657.007	-0.05
657.192	-0.03
657.378	-0.09
657.563	-0.02
657.748	-0
657.933	0.03
658.118	-0.06
658.304	-0.04
658.489	0.06
658.674	-0
658.859	-0.08
659.044	0.02
659.229	-0.01
659.414	-0.04
659.599	-0.04
659.785	-0.05
659.97	-0.02
660.155	0.01
660.34	-0.03
660.525	-0.05
660.71	-0.03
660.895	0.02
661.08	0.02
661.264	-0.05
661.449	0.02
661.634	0.03
661.819	0.03
662.004	0.02
662.189	-0.1
662.374	-0.05
662.559	-0.05
662.743	-0.06
662.928	-0.05
663.113	-0.05
663.298	-0.06
663.483	-0.03
663.667	0.03
663.852	-0.09
664.037	0.02
664.221	-0.03
664.406	0.02
664.591	0.01
664.775	-0.01
664.96	-0.03
665.145	0.01
665.329	0
665.514	-0.03
665.698	-0.05
665.883	-0.08
666.068	0.06
666.252	0.01
666.437	-0.07
666.621	-0.02
666.806	0.03
666.99	-0.01
667.174	-0.07
667.359	0.06
667.543	-0.01
667.728	-0.02
667.912	-0.11
668.096	0.03
668.281	-0
668.465	-0.03
668.649	-0.01
668.834	-0.08
669.018	-0.02
669.202	-0.04
669.387	-0.02
669.571	-0.02
669.755	-0.03
669.939	-0.03
670.124	-0.01
670.308	0.04
670.492	0.04
670.676	-0
670.86	-0.03
671.044	-0.07
671.228	0.04
671.413	-0.04
671.597	-0.08
671.781	-0.02
671.965	0.01
672.149	-0.03
672.333	-0.02
672.517	-0.05
672.701	0.02
672.885	-0.06
673.069	-0.06
673.253	0.06
673.437	-0.01
673.621	-0.05
673.804	0.02
673.988	0.01
674.172	-0.03
674.356	-0.07
674.54	-0.04
674.724	0.1
674.908	-0.02
675.091	-0.01
675.275	0.01
675.459	0.01
675.643	0.07
675.826	-0.04
676.01	0.02
676.194	-0.03
676.377	0.07
676.561	0.01
676.745	0.01
676.928	0.02
677.112	0.05
677.296	-0.04
677.479	-0.07
677.663	-0.03
677.846	-0
678.03	-0.04
678.213	-0.05
678.397	0
678.58	-0.07
678.764	-0.01
678.947	-0.1
679.131	-0.05
679.314	0.04
679.498	-0.02
679.681	0.02
679.865	0.01
680.048	-0.02
680.231	-0.03
680.415	-0.01
680.598	-0.02
680.781	-0.02
680.965	-0.04
681.148	0.03
681.331	-0.01
681.514	0.03
681.698	-0.01
681.881	0
682.064	-0.01
682.247	-0
682.43	-0.07
682.614	0.02
682.797	0.03
682.98	0.03
683.163	-0.06
683.346	0.02
683.529	-0.04
683.712	-0.06
683.895	0.02
684.078	-0.04
684.261	-0.04
684.444	0.01
684.627	0.02
684.81	-0.04
684.993	-0.06
685.176	0.03
685.359	-0.05
685.542	-0.05
685.725	0.1
685.908	-0.02
686.091	-0.02
686.274	-0.01
686.457	0.05
686.639	-0.01
686.822	0.01
687.005	0.01
687.188	0.01
687.371	0.06
687.553	0.05
687.736	-0.02
687.919	0.08
688.102	0.04
688.284	-0.04
688.467	-0.01
688.65	-0.03
688.832	-0.02
689.015	-0.02
689.197	-0.05
689.38	0.09
689.563	0.06
689.745	-0.02
689.928	-0.07
690.11	0.01
690.293	0.02
690.475	-0.06
690.658	0.03
690.84	-0.01
691.023	-0.05
691.205	-0.02
691.388	-0.03
691.57	0
691.752	0.01
691.935	-0.09
692.117	-0.01
692.3	0.02
692.482	0.01
692.664	-0.04
692.847	0
693.029	0.06
693.211	-0
693.393	-0.02
693.576	-0.1
693.758	0.03
693.94	-0
694.122	0.01
694.304	-0.04
694.487	-0.01
694.669	0.05
694.851	-0.03
695.033	0.02
695.215	-0.03
695.397	0
695.579	-0.03
695.761	-0.05
695.943	-0.07
696.125	0.05
696.308	-0.01
696.49	-0.07
696.671	0.12
696.853	-0.01
697.035	0.11
697.217	0.01
697.399	0.02
697.581	-0.09
697.763	0.02
697.945	-0.05
698.127	-0
698.309	0.09
698.491	-0
698.672	0.01
698.854	0.07
699.036	0.09
699.218	0.01
699.399	0.08
699.581	0.06
699.763	0.02
699.945	-0.06
700.126	-0.06
700.308	0.03
700.49	-0.04
700.671	-0.12
700.853	-0.03
701.035	-0.07
701.216	0.01
701.398	-0.1
701.579	-0.02
701.761	0.02
701.943	-0.05
702.124	-0.06
702.306	-0.03
702.487	0.16
702.669	-0.02
702.85	-0.03
703.031	-0.06
703.213	0.14
703.394	0.1
703.576	-0.03
703.757	0.09
703.938	0.05
704.12	0.18
704.301	-0.05
704.483	-0.04
704.664	-0.01
704.845	0.08
705.026	0.07
705.208	-0.02
705.389	0.05
705.57	-0.04
705.751	-0.06
705.933	0.03
706.114	0.07
706.295	-0.01
706.476	-0.06
706.657	0.03
706.838	-0.06
707.02	0.09
707.201	-0.08
707.382	-0.06
707.563	0.02
707.744	-0.04
707.925	-0.07
708.106	-0.11
708.287	-0.03
708.468	0.08
708.649	-0.03
708.83	0.04
709.011	-0.01
709.192	0.04
709.373	-0.01
709.554	0.01
709.734	0.1
709.915	0.02
710.096	-0.02
710.277	-0.13
710.458	-0.04
710.639	0.07
710.819	-0.13
711	-0.03
711.181	-0.03
711.362	0.05
711.542	0.02
711.723	-0.06
711.904	0.06
712.085	0.07
712.265	0.02
712.446	-0.09
712.627	-0.08
712.807	-0.02
712.988	-0.03
713.168	-0.11
713.349	0.01
713.53	-0.1
713.71	-0.09
713.891	-0.1
714.071	-0.06
714.252	0.04
714.432	0
714.613	-0.13
714.793	0.02
714.974	0.13
715.154	0.11
715.334	-0.01
715.515	0.05
715.695	-0.06
715.876	0.01
716.056	0.01
716.236	0
716.417	-0.04
716.597	-0.06
716.777	0.07
716.957	-0
717.138	0.01
717.318	0.01
717.498	-0.11
717.678	0.05
717.859	-0.01
718.039	-0.1
718.219	0
718.399	0.09
718.579	-0.05
718.759	-0.04
718.939	-0.04
719.12	0.06
719.3	-0.07
719.48	-0.12
719.66	-0.1
719.84	0.06
720.02	0.01
720.2	-0.06
720.38	-0.02
720.56	-0
720.74	-0.03
720.92	-0.01
721.1	0.03
721.279	0.07
721.459	0.02
721.639	-0.01
721.819	-0.02
721.999	-0.05
722.179	0.07
722.359	-0.06
722.538	0.01
722.718	-0
722.898	-0.04
723.078	-0
723.257	-0.08
723.437	-0.01
723.617	0.05
723.797	-0.05
723.976	-0.01
724.156	-0.01
724.336	0.12
724.515	0.16
724.695	-0.11
724.874	-0.03
725.054	0.06
725.234	-0.08
725.413	0.05
725.593	-0.07
725.772	0
725.952	0.01
726.131	-0.09
726.311	-0.03
726.49	-0.02
726.67	-0.12
726.849	-0.04
727.028	0.02
727.208	-0.06
727.387	-0.02
727.567	-0.16
727.746	-0.02
727.925	-0.08
728.105	-0.1
728.284	-0.04
728.463	0.02
728.643	-0.02
728.822	-0.14
729.001	-0.04
729.18	0.07
729.359	0.16
729.539	-0.1
729.718	-0.04
729.897	0.03
730.076	-0.18
730.255	-0.12
730.434	-0.05
730.614	0.06
730.793	0.1
730.972	-0
731.151	-0.09
731.33	0.07
731.509	0.04
731.688	-0.01
731.867	-0.04
732.046	-0.1
732.225	0.22
732.404	-0.07
732.583	-0.07
732.762	-0.1
732.941	-0.02
733.12	0.02
733.298	-0.08
733.477	0.11
733.656	0.02
733.835	-0.12
734.014	0.01
734.193	0.02
734.371	-0
734.55	-0.02
734.729	-0.09
734.908	0.04
735.086	0.01
735.265	0.01
735.444	-0.12
735.623	-0.1
735.801	-0.06
735.98	-0.06
736.159	-0.09
736.337	-0
736.516	0.07
736.694	-0.05
736.873	-0.12
737.052	0.06
737.23	0.01
737.409	-0.09
737.587	0.21
737.766	-0.21
737.944	-0.11
738.123	-0.05
738.301	0.08
738.479	-0.05
738.658	0.03
738.836	-0.16
739.015	0.04
739.193	-0.02
739.371	-0.16
739.55	0.06
739.728	-0.16
739.906	0.06
740.085	0.22
740.263	-0.02
740.441	-0.28
740.62	0.19
740.798	0.06
740.976	-0.14
741.154	-0.13
741.332	0.14
741.511	0.01
741.689	0.09
741.867	0.1
742.045	0.03
742.223	-0.03
742.401	-0.08
742.579	-0.17
742.757	0.09
742.935	-0.03
743.114	-0.03
743.292	-0.1
743.47	0
743.648	-0.05
743.826	-0.06
744.004	-0.03
744.181	0.09
744.359	0.01
744.537	0.01
744.715	-0.08
744.893	-0.09
745.071	0.03
745.249	-0.06
745.427	-0.08
745.605	0.11
745.782	-0
745.96	0.05
746.138	0.08
746.316	0.14
746.493	-0.11
746.671	0
746.849	-0.04
747.027	0.14
747.204	-0.12
747.382	-0.02
747.56	-0.2
747.737	0.07
747.915	-0.08
748.093	0.07
748.27	-0.08
748.448	-0.08
748.625	-0.06
748.803	-0.07
748.98	-0.13
749.158	-0.01
749.335	0.08
749.513	0.04
749.69	0.04
749.868	0.01
750.045	0.01
750.223	-0.12
750.4	-0.28
750.578	0.23
750.755	0.02
750.932	-0.1
751.11	0.08
751.287	-0.11
751.464	0.19
751.642	-0.13
751.819	0.13
751.996	-0.03
752.173	-0.02
752.351	-0.06
752.528	-0.04
752.705	0.05
752.882	-0.03
753.06	-0.06
753.237	-0.01
753.414	0.21
753.591	0.21
753.768	0.01
753.945	-0.08
754.122	-0.06
754.299	0.05
754.476	-0.08
754.654	0.02
754.831	0.18
755.008	-0.05
755.185	-0.07
755.362	-0.1
755.539	0.07
755.716	-0.11
755.892	0.01
756.069	0.03
756.246	-0.07
756.423	-0.17
756.6	0.07
756.777	-0.04
756.954	0.24
757.131	0.05
757.307	-0.12
757.484	-0.15
757.661	0.03
757.838	0.12
758.015	-0.13
758.191	0.07
758.368	0.06
758.545	0.11
758.721	0.04
758.898	-0.1
759.075	-0.07
759.251	0.07
759.428	0.06
759.605	-0.25
759.781	-0.07
759.958	-0.04
760.134	0.09
760.311	0.01
760.488	0.13
760.664	0.13
760.841	0.01
761.017	-0.1
761.194	0.03
761.37	0.01
761.547	0.04
761.723	-0.05
761.899	0.21
762.076	-0.14
762.252	-0.14
762.429	-0.09
762.605	0.14
762.781	-0.11
762.958	0.11
763.134	-0.11
763.31	-0.04
763.486	0.18
763.663	-0.2
763.839	0.05
764.015	-0.15
764.191	-0.07
764.368	-0.1
764.544	-0.03
764.72	-0.05
764.896	0.05
765.072	0.11
765.248	0.04
765.425	-0.04
765.601	0.04
765.777	0.07
765.953	-0.19
766.129	-0.13
766.305	-0.07
766.481	0.1
766.657	-0.05
766.833	0.15
767.009	-0.09
767.185	-0.11
767.361	-0.07
767.537	-0.11
767.713	0.22
767.889	-0.09
768.065	-0.01
768.24	-0.03
768.416	0.18
768.592	-0.17
768.768	-0.03
768.944	0.06
769.12	-0.19
769.295	0
769.471	-0.02
769.647	-0.04
769.823	0.17
769.998	-0.04
770.174	-0.21
770.35	0.39
770.525	0.27
770.701	-0.05
770.877	0.03
771.052	-0.15
771.228	0.11
771.403	0.2
771.579	0.06
771.755	0.32
771.93	-0.01
772.106	-0.08
772.281	-0.37
772.457	0.02
772.632	0.05
772.808	-0.23
772.983	-0.01
773.159	-0.18
773.334	0.17
773.509	0.03
773.685	-0.12
773.86	0.39
774.036	0.39
774.211	-0.02
774.386	-0.03
774.562	-0.06
774.737	0.08
774.912	-0.1
775.087	0.12
775.263	-0.04
775.438	-0.13
775.613	-0.21
775.788	-0.07
775.964	-0.04
776.139	0.37
776.314	-0.17
776.489	-0.11
776.664	0.01
776.839	-0.1
777.014	0.05
777.19	0.17
777.365	0.29
777.54	0.29
777.715	-0.14
777.89	0.05
778.065	-0.07
778.24	-0.16
778.415	0.32
778.59	-0.25
778.765	-0.1
778.94	-0.06
779.115	0.02
779.289	-0.05
779.464	-0.12
779.639	-0.15
779.814	-0.25
779.989	-0.2
780.164	0.2
780.339	-0.04
780.513	-0.15
780.688	-0.14
780.863	0.09
781.038	0.12
781.212	-0
781.387	-0.02
781.562	0.29
781.737	-0.13
781.911	0.06
782.086	-0.29
782.261	-0.11
782.435	0.4
782.61	-0.2
782.784	-0.03
782.959	0.23
783.134	-0.05
783.308	-0.27
783.483	0.02
783.657	0.43
783.832	0.23
784.006	-0.32
784.181	-0.02
784.355	0.3
784.53	-0.23
784.704	-0.14
784.878	0.21
785.053	0.24
785.227	0.22
785.402	0.39
785.576	-0.36
785.75	-0.03
785.925	-0.14
786.099	0.09
786.273	-0.04
786.448	0.09
786.622	0.23
786.796	0.09
786.97	-0.12
787.145	0.28
787.319	-0.25
787.493	-0.04
787.667	-0.4
787.841	0.03
788.015	0.11
788.19	-0.23
788.364	0.1
788.538	-0.08
788.712	0.14
788.886	-0.11
789.06	0.24
789.234	-0.03
789.408	-0.27
789.582	0.07
789.756	0.06
789.93	-0.22
790.104	-0.02
790.278	-0.06
790.452	-0.33
790.626	0.05
790.8	0.05
790.973	0.02
791.147	0.12
791.321	0.27
791.495	0.13
791.669	0.21
791.843	0.03
792.016	0.16
792.19	0.7
792.364	-0.29
792.538	0.49
792.711	0.33
792.885	0.06
793.059	-0.3
793.233	-0.54
793.406	0.43
793.58	0.14
793.754	0.25
793.927	0.16
794.101	0.12
794.274	-0.08
794.448	0.38
794.622	-0.38
794.795	0.37
794.969	-0.02
795.142	0.29
795.316	0.02
795.489	-0.05
795.663	0.38
795.836	-0.23
796.009	-0.47
796.183	0.45
796.356	0.14
796.53	-0.04
796.703	-0.02
796.876	0.72
797.05	-0.08
797.223	-0.18
797.396	0.07
797.57	-0.02
797.743	0.37
797.916	0.03
798.09	0.06
798.263	0.51
798.436	0.14
798.609	-0.32
798.782	-0.11
798.956	-0.05
799.129	0.17
799.302	-0.28
799.475	-0.18
799.648	0.02
799.821	0.04
799.994	-0.03
800.167	-0.55
800.34	0.04
800.514	0.1
800.687	-0.15
800.86	-0.03
801.033	0.17
801.206	0.31
801.379	-0.21
801.551	0.19
801.724	0.39
801.897	0.23
802.07	-0.2
802.243	-0.38
802.416	0.03
802.589	-0.02
802.762	-0.01
802.935	-0.07
803.107	0.1
803.28	0.41
803.453	0.42
803.626	-0.27
803.798	0.12
803.971	-0.31
804.144	0.2
804.317	0.39
804.489	0.17
804.662	0.04
804.835	0.02
805.007	0.01
805.18	0.39
805.353	0.27
805.525	-0.23
805.698	-0.37
805.87	0.25
806.043	0.1
806.215	-0.28
806.388	-0.27
806.56	0.09
806.733	0.51
806.905	-0.14
807.078	-0.18
807.25	-0.51
807.423	0.37
807.595	-0.11
807.768	-0.08
807.94	0.16
808.112	0.14
808.285	0.2
808.457	-0.34
808.629	-0.05
808.802	0.05
808.974	0.03
809.146	-0.21
809.318	-0.68
809.491	0.2
809.663	0.12
809.835	-0.39
810.007	0.26
810.18	-0.17
810.352	-0.27
810.524	-0.28
810.696	0.15
810.868	0.49
811.04	-0.46
811.212	0.17
811.384	0.38
811.556	0.28
811.728	-0.05
811.901	0.77
812.073	0.4
812.245	-0.12
812.417	0.12
812.589	-0.89
812.76	0.29
812.932	0.47
813.104	0.48
813.276	0.13
813.448	0.6
813.62	0.05
813.792	-0.19
813.964	-0.07
814.136	0.14
814.307	-0.11
814.479	-0.17
814.651	-0.19
814.823	0.61
814.995	0.02
815.166	0.35
815.338	-0.19
815.51	-0.3
815.681	0.56
815.853	0.04
816.025	-0.25
816.196	0.59
816.368	0.37
816.54	-0.57
816.711	-0.49
816.883	0.37
817.054	0.95
817.226	-0.65
817.398	0.09
817.569	-0.26
817.741	-0.06
817.912	0.12
818.084	0.13
818.255	0.29
818.426	-0.26
818.598	-0.07
818.769	-0.64
818.941	0.66
819.112	0.35
819.283	0.47
819.455	-0.13
819.626	0.1
819.798	0.18
819.969	0.11
820.14	-0.15
820.311	-0.11
820.483	0.35
820.654	0.37
820.825	-0.06
820.996	-0.33
821.168	-0.44
821.339	0.15
821.51	-0.66
821.681	-0.16
821.852	0.51
822.023	-0.47
822.195	-0.78
822.366	0.56
822.537	0.02
822.708	-0.1
822.879	-0.42
823.05	0.91
823.221	-0.11
823.392	0.27
823.563	0.31
823.734	0.23
823.905	0.17
824.076	-0.64
824.247	-0.87
824.418	-0.35
824.589	0.52
824.759	-0.26
824.93	-0.61
825.101	-0.13
825.272	0.11
825.443	0.52
825.614	0.14
825.784	-1.22
825.955	1
826.126	0.19
826.297	-0.13
826.467	0.87
826.638	1.06
826.809	-0.73
826.98	0.21
827.15	0.15
827.321	0.55
827.492	1.18
827.662	0.23
827.833	0.92
828.003	0.41
828.174	-0.82
828.345	-0.97
828.515	1.13
828.686	0.2
828.856	-0.39
829.027	0.19
829.197	0.56
829.368	0.1
829.538	-0.14
829.709	-0.06
829.879	0.44
830.049	-0.05
830.22	-0.36
830.39	0.11
830.56	0.67
830.731	-0.26
830.901	-0.35
831.072	-0.11
831.242	0.27
831.412	0.21
831.582	0.1
831.753	-0.4
831.923	0.16
832.093	0.08
832.263	-0.08
832.434	-0.14
832.604	-0.48
832.774	-0.1
832.944	0.05
833.114	-0.25
833.284	-0.11
833.454	-0.6
833.624	-0.52
833.795	0.05
833.965	0.56
834.135	0.94
834.305	-0.91
834.475	-0.11
834.645	0.34
834.815	-0.22
834.985	-0.51
835.155	-0.72
835.325	-0.58
835.494	0.75
835.664	-0.42
835.834	-0.41
836.004	0.28
836.174	0.54
836.344	-0.11
836.514	-0.45
836.684	-0.33
836.853	0.18
837.023	0.75
837.193	-0.55
837.363	0.59
837.532	0.6
837.702	-0.61
837.872	-0.54
838.041	1.19
838.211	1.39
838.381	-0.36
838.55	-0.64
838.72	1.55
838.89	1.59
839.059	-0.41
839.229	0.01
839.398	1.1
839.568	0.62
839.738	0.37
839.907	1.05
840.077	1.32
840.246	0.08
840.416	0.01
840.585	-0.47
840.755	1.03
840.924	0.98
841.093	-0.66
841.263	0.17
841.432	-0.32
841.602	-1
841.771	-0.85
841.94	0.35
842.11	1.2
842.279	1.54
842.448	-0.36
842.617	-0.85
842.787	0.79
842.956	-0.81
843.125	-0.64
843.294	-0.07
843.464	1.13
843.633	0.15
843.802	-0.64
843.971	0.48
844.14	0.25
844.309	0.26
844.479	-0.36
844.648	-0.92
844.817	-0.3
844.986	0.9
845.155	-0.67
845.324	-0.63
845.493	0.27
845.662	-0.69
845.831	0.96
846	0.18
846.169	-0.45
846.338	0.95
846.507	-0.03
846.676	0.03
846.844	-0.43
847.013	1.31
847.182	-0.07
847.351	-0.41
847.52	0.32
847.689	1.33
847.858	0.05
848.026	-1.25
848.195	-0.05
848.364	0.19
848.533	-0.9
848.701	-0.07
848.87	-0.29
849.039	1.45
849.207	0.14
849.376	0.52
849.545	1.62
849.713	0.04
849.882	0.28
850.051	-0.28
850.219	-0.2
850.388	1.26
850.556	-0.81
850.725	-0.26
850.893	0.17
851.062	-0.32
851.23	0.38
851.399	-1.18
851.567	-0.33
851.736	-0.31
851.904	-0.99
852.073	-0.3
852.241	1.02
852.41	-1.17
852.578	-0.61
852.746	-1.43
852.915	1.36
853.083	-0.68
853.251	-1.12
853.42	-0.58
853.588	0.47
853.756	1.16
853.924	-0.21
854.093	-0.86
854.261	-0.36
854.429	-1.45
854.597	0.42
854.765	-0.08
854.934	0.95
855.102	0.52
855.27	0.23
855.438	0.91
855.606	1.13
855.774	0.75
855.942	-2
856.11	-1.85
856.278	-0.41
856.446	1.22
856.614	0.69
856.782	-0.8
856.95	0.58
857.118	1.11
857.286	0.32
857.454	-0.6
857.622	1.89
857.79	-0.14
857.958	-1.38
858.126	-0.32
858.294	-2.68
858.462	0.75
858.629	-0.1
858.797	-1.47
858.965	1.36
859.133	0.07
859.301	-0.58
859.468	0.58
859.636	0.32
859.804	2.19
859.971	-0.58
860.139	-0.49
860.307	1.34
860.474	-0.36
860.642	-0.07
860.81	-0.77
860.977	-0.62
861.145	1.3
861.313	0.53
861.48	-0.29
861.648	1.46
861.815	0.1
861.983	-1.05
862.15	-0.17
862.318	1.66
862.485	1.26
862.653	-0.93
862.82	-1.81
862.988	2.11
863.155	1.19
863.322	-1.49
863.49	-0.11
863.657	0.58
863.824	1.8
863.992	-0.37
864.159	-0.49
864.326	1.13
864.494	-0.47
864.661	1.04
864.828	-0.54
864.996	1.92
865.163	2.47
865.33	-1.34
865.497	-2.47
865.664	-1.67
865.832	-2.58
865.999	0.16
866.166	-1.98
866.333	-0.72
866.5	-0.3
866.667	-0.48
866.834	-1.86
867.001	1.43
867.168	-1.38
867.335	0.74
867.502	-2.52
867.669	1.29
867.836	2.16
868.003	-0.28
868.17	0.37
868.337	-0.87
868.504	2.06
868.671	-2.26
868.838	-0.64
869.005	0.85
869.172	1.06
869.339	0.11
869.505	-0.38
869.672	-0.38
869.839	1.48
870.006	1.23
870.173	-2.29
870.339	1.2
870.506	1.99
870.673	-2.12
870.84	0.11
871.006	1.14
871.173	0.89
871.34	-1.02
871.506	-0.77
871.673	-0.05
871.839	-1.73
872.006	1.7
872.173	-0.53
872.339	0.86
872.506	1.69
872.672	-0.3
872.839	-1.85
873.005	0.58
873.172	3.28
873.338	1.63
873.505	0.52
873.671	1.21
873.838	1.74
874.004	-3.23
874.171	-1.3
874.337	0.46
874.503	0.77
874.67	-0.86
874.836	-0.79
875.002	2.44
875.169	0.87
875.335	-0.12
875.501	0.24
875.668	1.23
875.834	0.76
876	-2.17
876.166	1.07
876.332	-0.04
876.499	2.69
876.665	0.56
876.831	-0.02
876.997	3.64
877.163	0.51
877.329	-1.52
877.495	-0.9
877.662	1.37
877.828	-0.7
877.994	1.47
878.16	-3.9
878.326	0.04
878.492	0.98
878.658	-0.3
878.824	1.78
878.99	1.73
879.156	-0.84
879.322	2.16
879.487	-0.9
879.653	1.05
879.819	-0.41
879.985	-2.06
880.151	2.29
880.317	0.99
880.483	1.4
880.648	3.4
880.814	-2.33
880.98	0.86
881.146	-1.28
881.312	-2.08
881.477	0.09
881.643	-0.28
881.809	1.77
881.974	2.37
882.14	-2.24
882.306	-0.13
882.471	3.28
882.637	-1.62
882.803	1.55
882.968	2.02
883.134	5.7
883.299	-0.47
883.465	0.19
883.63	3.04
883.796	-0.24
883.961	2.13
884.127	2.04
884.292	-3.51
884.458	-0.81
884.623	-0.81
