Data from Apollo_Calib_20240827__AbsoluteIrradiance__174__02-03-01-468.txt Node

Date: Wed Aug 28 02:03:01 BST 2024
User: biology
Spectrometer: FLMT08252
Trigger mode: 0
Integration Time (sec): 5.000000E-1
Scans to average: 5
Electric dark correction enabled: true
Nonlinearity correction enabled: false
Boxcar width: 0
XAxis mode: Wavelengths
Number of Pixels in Spectrum: 3648
>>>>>Begin Spectral Data<<<<<
179.588	-0
179.809	-0
180.03	-0
180.251	-0
180.473	-0
180.694	0
180.915	0
181.136	-0
181.357	0
181.578	-0
181.799	-0
182.02	-0
182.241	0
182.462	-0
182.683	0
182.904	-0
183.125	-0
183.346	0
183.567	0
183.788	-0
184.009	-0
184.23	0
184.451	0
184.672	-0
184.892	-0
185.113	0
185.334	0
185.555	-0
185.776	-0
185.996	0
186.217	0
186.438	0
186.659	-0
186.879	0
187.1	0
187.321	-0
187.541	-0
187.762	0
187.983	0
188.203	-0
188.424	0
188.644	-0
188.865	-0
189.086	-0
189.306	-0
189.527	-0
189.747	0
189.968	-0
190.188	0
190.409	0
190.629	0
190.849	-0
191.07	-0
191.29	0
191.511	0
191.731	-0
191.951	-0
192.172	0
192.392	0
192.612	-0
192.833	-0
193.053	0
193.273	0
193.493	-0
193.714	0
193.934	0
194.154	0
194.374	-0
194.594	0
194.815	0
195.035	-0
195.255	-0
195.475	-0
195.695	0
195.915	0
196.135	0
196.355	0
196.575	0
196.795	0
197.015	-0
197.235	-0
197.455	-0
197.675	0
197.895	-0
198.115	-0
198.335	0
198.555	-0
198.775	0
198.995	0
199.214	0
199.434	0
199.654	-0
199.874	-0
200.094	1.23
200.313	-0.25
200.533	0.01
200.753	-0.94
200.973	1.07
201.192	1.02
201.412	-1.1
201.632	-0.72
201.851	1.14
202.071	-0.18
202.291	-0.37
202.51	-0.34
202.73	0.53
202.95	-0.31
203.169	-0.56
203.389	0.21
203.608	-0.01
203.828	-0.19
204.047	-0.18
204.267	0.36
204.486	0.11
204.706	0.57
204.925	0.21
205.145	-0.35
205.364	0.67
205.583	0.69
205.803	-0.39
206.022	-0.45
206.242	0.31
206.461	0.41
206.68	0.07
206.9	-0.08
207.119	0.55
207.338	1.01
207.557	-0.21
207.777	-0.09
207.996	-0.11
208.215	0.61
208.434	-0.19
208.654	-0.39
208.873	0.15
209.092	0.6
209.311	-0.09
209.53	0.05
209.749	-0.12
209.968	-0.15
210.187	0.05
210.407	-0.53
210.626	-0.07
210.845	0.59
211.064	0.05
211.283	-0.09
211.502	0.26
211.721	0.07
211.94	-0.07
212.159	0.31
212.377	0.35
212.596	0.52
212.815	0.22
213.034	0.26
213.253	0.25
213.472	0.32
213.691	-0.05
213.91	-0.18
214.128	-0.25
214.347	0.3
214.566	-0.32
214.785	-0.3
215.003	0.19
215.222	0.01
215.441	-0.01
215.66	-0.44
215.878	0.21
216.097	0.34
216.316	-0.14
216.534	0.01
216.753	-0
216.972	0.03
217.19	0.07
217.409	-0.26
217.627	-0.08
217.846	-0.07
218.064	-0.11
218.283	-0.16
218.501	0.42
218.72	0.37
218.938	-0.12
219.157	-0.16
219.375	0.23
219.594	0.14
219.812	-0.17
220.031	-0.08
220.249	0.33
220.467	0.39
220.686	-0.1
220.904	-0.16
221.122	-0.12
221.341	0.4
221.559	0.05
221.777	-0.24
221.995	0.21
222.214	0.21
222.432	-0.1
222.65	0.1
222.868	0.06
223.086	0.13
223.305	0.3
223.523	-0.05
223.741	0.36
223.959	-0.03
224.177	-0.28
224.395	-0.09
224.613	0.19
224.831	0.13
225.049	-0.17
225.267	-0.14
225.485	-0.03
225.703	-0.07
225.921	0.02
226.139	-0.1
226.357	0.08
226.575	-0.09
226.793	0.01
227.011	0.46
227.229	0.19
227.447	0.16
227.665	-0.17
227.883	-0.28
228.1	0.01
228.318	0.04
228.536	-0.21
228.754	-0.11
228.972	0.1
229.189	0.07
229.407	-0.04
229.625	0.01
229.843	0.28
230.06	0.19
230.278	-0.04
230.496	0.02
230.713	0.09
230.931	0.21
231.149	-0.05
231.366	-0.18
231.584	-0.08
231.801	0.52
232.019	-0.02
232.236	-0.17
232.454	-0.07
232.671	0.17
232.889	0.03
233.106	-0.18
233.324	0.01
233.541	0.01
233.759	-0.04
233.976	-0.12
234.194	0.02
234.411	-0.03
234.628	-0.16
234.846	-0.07
235.063	0.05
235.28	0.11
235.498	-0.03
235.715	-0.16
235.932	0.09
236.149	-0
236.367	-0.12
236.584	-0.03
236.801	-0.04
237.018	0.03
237.236	-0.02
237.453	-0.13
237.67	0.17
237.887	-0.06
238.104	-0.06
238.321	-0.16
238.538	-0.08
238.755	0.12
238.973	-0.13
239.19	-0.02
239.407	0.1
239.624	0.05
239.841	-0.08
240.058	-0.13
240.275	0.02
240.492	0
240.709	-0.07
240.925	-0.08
241.142	0.06
241.359	-0.06
241.576	-0.05
241.793	-0.08
242.01	-0.08
242.227	0.18
242.444	0.02
242.66	0.11
242.877	0.03
243.094	-0.02
243.311	0.04
243.527	-0
243.744	0.08
243.961	0.11
244.178	-0.04
244.394	-0.02
244.611	0.17
244.828	0.17
245.044	-0.1
245.261	-0.02
245.477	0.13
245.694	-0.03
245.911	-0.09
246.127	0.05
246.344	0.16
246.56	0.11
246.777	-0.01
246.993	0.04
247.21	0.04
247.426	-0.01
247.643	-0.06
247.859	-0.08
248.076	-0.03
248.292	0.3
248.508	-0.09
248.725	0.04
248.941	0.08
249.157	0.1
249.374	-0.04
249.59	0.03
249.806	0
250.023	0.19
250.239	-0.05
250.455	-0.04
250.671	0.03
250.888	0.08
251.104	0.05
251.32	-0.1
251.536	0.01
251.752	0.02
251.969	-0.09
252.185	0.03
252.401	0.22
252.617	0.02
252.833	-0.1
253.049	-0.01
253.265	0
253.481	-0
253.697	0.03
253.913	-0.07
254.129	0.05
254.345	0.07
254.561	-0
254.777	-0.03
254.993	0.07
255.209	0.09
255.425	-0.03
255.641	-0.07
255.857	0.1
256.073	-0.01
256.288	-0.09
256.504	0.04
256.72	0.06
256.936	0.07
257.152	0.01
257.367	-0.08
257.583	0.03
257.799	0.03
258.015	-0.08
258.23	0
258.446	0.11
258.662	-0.04
258.877	0.07
259.093	-0.02
259.309	0.06
259.524	0.01
259.74	-0.06
259.955	-0.15
260.171	0.02
260.387	0.01
260.602	0.04
260.818	0.07
261.033	-0.06
261.249	0
261.464	-0.02
261.68	-0.13
261.895	0
262.11	0.07
262.326	-0.02
262.541	-0.13
262.757	0.06
262.972	0.05
263.187	0.07
263.403	0
263.618	0.07
263.833	-0.03
264.049	-0.03
264.264	0.03
264.479	0.03
264.694	0.14
264.91	-0.07
265.125	-0.07
265.34	0.08
265.555	0.15
265.77	0.06
265.986	0.02
266.201	0.01
266.416	0.13
266.631	-0.05
266.846	-0.03
267.061	0.07
267.276	0.04
267.491	-0.14
267.706	0.02
267.921	0.08
268.136	0.06
268.351	0.05
268.566	-0.06
268.781	0.1
268.996	0.05
269.211	-0.03
269.426	-0.07
269.641	-0.03
269.856	0.09
270.071	-0.05
270.285	-0.1
270.5	-0.01
270.715	0.07
270.93	0.01
271.145	0.06
271.359	0.06
271.574	-0.02
271.789	-0.01
272.004	-0.05
272.218	-0.01
272.433	0.05
272.648	-0.04
272.862	0.08
273.077	0.01
273.292	0.02
273.506	-0.01
273.721	0.01
273.936	0.04
274.15	0.03
274.365	0.04
274.579	0.08
274.794	0.07
275.008	0.09
275.223	-0.07
275.437	-0.01
275.652	0.08
275.866	0.08
276.081	0.05
276.295	0.11
276.509	-0.06
276.724	0
276.938	0.06
277.153	0.05
277.367	0.1
277.581	-0.04
277.796	0.02
278.01	-0.09
278.224	0.04
278.438	0.1
278.653	-0.02
278.867	-0.02
279.081	-0.16
279.295	0.04
279.51	0.03
279.724	-0.08
279.938	0.03
280.152	0.09
280.366	-0.06
280.58	0.01
280.794	0.04
281.008	0.03
281.222	0.05
281.437	0.13
281.651	0.01
281.865	0.14
282.079	-0.02
282.293	-0.07
282.507	-0.03
282.721	0.02
282.935	0.03
283.148	-0.07
283.362	-0.02
283.576	-0.05
283.79	-0.01
284.004	-0
284.218	0.09
284.432	-0.02
284.646	0.02
284.859	-0.01
285.073	-0.02
285.287	0.04
285.501	0.01
285.714	0.01
285.928	0.04
286.142	0.02
286.356	-0.01
286.569	-0.02
286.783	0.09
286.997	0.08
287.21	0.05
287.424	0.05
287.637	-0.01
287.851	0.01
288.065	0.04
288.278	0
288.492	0.02
288.705	0.03
288.919	0.1
289.132	-0.04
289.346	0.04
289.559	-0.04
289.773	-0.01
289.986	-0
290.2	-0
290.413	0.07
290.626	-0.03
290.84	0
291.053	0.01
291.267	0.06
291.48	0
291.693	0.03
291.906	-0.01
292.12	-0
292.333	-0.01
292.546	0.01
292.76	0.1
292.973	0.01
293.186	0.02
293.399	-0.01
293.612	0.06
293.826	0.06
294.039	-0.01
294.252	0.02
294.465	0.03
294.678	-0
294.891	0.03
295.104	0
295.317	0.03
295.53	0.07
295.743	0.01
295.956	0.02
296.169	0.09
296.382	0.09
296.595	0.01
296.808	0.02
297.021	0.08
297.234	0.08
297.447	0.03
297.66	0.08
297.873	0.09
298.086	0.03
298.299	-0.02
298.511	-0
298.724	0.05
298.937	-0.02
299.15	0.07
299.363	0.05
299.575	0.05
299.788	0.03
300.001	-0.01
300.213	-0
300.426	0
300.639	0.01
300.852	-0
301.064	0.06
301.277	0.09
301.489	0.07
301.702	0.05
301.915	0.05
302.127	0
302.34	0.05
302.552	0.02
302.765	-0
302.977	0.06
303.19	0.01
303.402	-0.01
303.615	-0.01
303.827	0.01
304.04	-0
304.252	0.07
304.464	0
304.677	0.14
304.889	0.05
305.102	-0.02
305.314	-0.02
305.526	0.05
305.739	0.07
305.951	-0
306.163	-0.01
306.375	0.08
306.588	0.04
306.8	0.02
307.012	-0.05
307.224	0.05
307.436	0.06
307.649	-0.08
307.861	0.06
308.073	0.07
308.285	-0.02
308.497	-0.02
308.709	-0.04
308.921	0.03
309.133	0.11
309.346	-0.01
309.558	0.05
309.77	0.1
309.982	0.05
310.194	0.06
310.406	0.01
310.617	0.09
310.829	0.04
311.041	0.04
311.253	0.01
311.465	0.01
311.677	0.03
311.889	0.03
312.101	0.02
312.313	0.03
312.524	0.05
312.736	-0.04
312.948	-0.01
313.16	0.11
313.372	0.04
313.583	0.04
313.795	0.03
314.007	0.05
314.218	0.08
314.43	0.02
314.642	-0.04
314.853	-0.05
315.065	0.03
315.277	0.03
315.488	0.02
315.7	0.08
315.912	0.03
316.123	0.01
316.335	0.01
316.546	0.12
316.758	-0
316.969	-0.01
317.181	0.07
317.392	0.03
317.604	0.08
317.815	-0.02
318.026	-0.03
318.238	-0.01
318.449	0.04
318.661	-0.07
318.872	-0.01
319.083	-0.03
319.295	0.06
319.506	-0
319.717	0.06
319.929	0.06
320.14	0.02
320.351	0.01
320.562	-0.01
320.774	0.03
320.985	-0.02
321.196	-0.02
321.407	-0.03
321.618	0.05
321.829	0.02
322.041	0.01
322.252	0
322.463	0.04
322.674	0.04
322.885	-0.02
323.096	0
323.307	-0.02
323.518	-0.01
323.729	-0.02
323.94	0.01
324.151	0.01
324.362	0.04
324.573	0.04
324.784	-0.01
324.995	0.09
325.206	0.08
325.417	-0.02
325.628	-0
325.838	0.02
326.049	0
326.26	0.04
326.471	0.01
326.682	0.05
326.892	0.06
327.103	-0.06
327.314	-0.03
327.525	0.1
327.735	0.05
327.946	-0.01
328.157	-0.01
328.368	0.05
328.578	-0.01
328.789	0.04
328.999	-0
329.21	-0.03
329.421	0.05
329.631	-0.01
329.842	-0.01
330.052	0.05
330.263	0.06
330.473	0.06
330.684	-0
330.894	0.03
331.105	0.03
331.315	0.08
331.526	-0.01
331.736	0.06
331.947	0.02
332.157	0.03
332.367	-0
332.578	0.02
332.788	0.09
332.999	0.05
333.209	0.02
333.419	-0.01
333.629	0.08
333.84	0.05
334.05	0.03
334.26	0.09
334.47	0.01
334.681	0.09
334.891	-0.02
335.101	0.07
335.311	0.12
335.521	0.05
335.732	0.01
335.942	0.06
336.152	0.07
336.362	0.04
336.572	0.03
336.782	0.02
336.992	-0.03
337.202	-0
337.412	-0.04
337.622	0.06
337.832	0
338.042	-0.01
338.252	-0.01
338.462	0.03
338.672	0.03
338.882	-0
339.092	-0
339.302	0.12
339.511	0.06
339.721	-0.04
339.931	0
340.141	0.03
340.351	0.09
340.561	0.06
340.77	0.03
340.98	0.04
341.19	0.08
341.4	0.01
341.609	-0.02
341.819	0.02
342.029	-0
342.238	0.03
342.448	0.03
342.658	0.06
342.867	0.01
343.077	0.06
343.286	0.02
343.496	0.04
343.706	0.12
343.915	-0.01
344.125	0.02
344.334	0.03
344.544	-0.02
344.753	-0.03
344.963	-0
345.172	0.02
345.381	-0.02
345.591	-0.02
345.8	0.05
346.01	0.09
346.219	0.08
346.428	-0.1
346.638	0
346.847	0.02
347.056	0.07
347.266	-0.01
347.475	0.09
347.684	0.08
347.893	0.06
348.103	0.03
348.312	0.01
348.521	-0.03
348.73	0.08
348.94	0.04
349.149	0.01
349.358	0.01
349.567	0.01
349.776	-0.04
349.985	0.02
350.194	0.04
350.403	0.05
350.612	-0.06
350.821	0
351.03	0.03
351.239	-0.02
351.448	0.03
351.657	0
351.866	0.11
352.075	0.01
352.284	-0.01
352.493	-0.03
352.702	0.1
352.911	0.04
353.12	0.02
353.329	-0
353.538	0.04
353.746	0.04
353.955	0.01
354.164	0.04
354.373	0.01
354.582	0.05
354.79	0.03
354.999	0.07
355.208	0
355.416	0.12
355.625	0.02
355.834	0.01
356.042	0.07
356.251	0.03
356.46	-0.02
356.668	0.03
356.877	0.14
357.085	0.05
357.294	-0.07
357.503	0.05
357.711	0.04
357.92	0.16
358.128	0.04
358.337	0.04
358.545	0.06
358.754	0.01
358.962	0.06
359.17	-0.03
359.379	0.08
359.587	0.04
359.796	0.02
360.004	0.08
360.212	0.07
360.421	0.07
360.629	-0
360.837	-0
361.046	0.11
361.254	0.15
361.462	0.01
361.67	0.01
361.879	0.04
362.087	0.1
362.295	0.04
362.503	0.04
362.711	-0
362.92	0.03
363.128	-0.02
363.336	-0.01
363.544	-0.02
363.752	0.05
363.96	0
364.168	0.04
364.376	0.05
364.584	0.03
364.792	0.09
365	0.04
365.208	0.05
365.416	0.05
365.624	0.09
365.832	-0
366.04	0.09
366.248	0.04
366.456	0.05
366.664	0.04
366.872	0.03
367.079	0.03
367.287	0.03
367.495	0.06
367.703	0.01
367.911	0.04
368.118	0.05
368.326	0.04
368.534	-0.01
368.742	0.1
368.949	0.02
369.157	0.02
369.365	0.09
369.572	0.03
369.78	0.03
369.988	0.09
370.195	0.05
370.403	0.03
370.61	0
370.818	0.02
371.026	0.12
371.233	0.02
371.441	0.05
371.648	0.06
371.856	0.07
372.063	0.05
372.271	0.03
372.478	0.03
372.685	-0.01
372.893	0.08
373.1	0.03
373.308	-0.01
373.515	0.12
373.722	0.07
373.93	0.02
374.137	0.07
374.344	0.13
374.552	0.08
374.759	0.09
374.966	0.05
375.173	0.02
375.381	0.06
375.588	0.07
375.795	-0.02
376.002	0.04
376.209	0.02
376.417	0.02
376.624	0.02
376.831	0.07
377.038	0.07
377.245	-0.07
377.452	0.05
377.659	0.08
377.866	0.02
378.073	0.01
378.28	0.03
378.487	0.08
378.694	0.08
378.901	0.03
379.108	0.07
379.315	0.1
379.522	0.16
379.729	0.05
379.936	0.07
380.143	0.03
380.35	0.09
380.557	0.05
380.763	0.08
380.97	0.06
381.177	0.07
381.384	0.08
381.591	0.02
381.797	0.09
382.004	0.09
382.211	0.08
382.418	0.09
382.624	0.12
382.831	0.08
383.038	0.04
383.244	0.1
383.451	0.09
383.658	0.14
383.864	0.05
384.071	0.05
384.277	0.15
384.484	0.09
384.69	0.19
384.897	0.06
385.103	0.11
385.31	0.1
385.516	0.09
385.723	0.12
385.929	0.11
386.136	0.09
386.342	0.16
386.549	0.13
386.755	0.19
386.961	0.16
387.168	0.12
387.374	0.18
387.58	0.2
387.787	0.17
387.993	0.18
388.199	0.2
388.406	0.21
388.612	0.17
388.818	0.15
389.024	0.24
389.231	0.25
389.437	0.37
389.643	0.29
389.849	0.3
390.055	0.33
390.261	0.37
390.467	0.33
390.674	0.36
390.88	0.39
391.086	0.44
391.292	0.34
391.498	0.43
391.704	0.47
391.91	0.45
392.116	0.45
392.322	0.42
392.528	0.55
392.734	0.56
392.94	0.57
393.146	0.64
393.352	0.64
393.557	0.69
393.763	0.76
393.969	0.72
394.175	0.82
394.381	0.84
394.587	0.88
394.792	0.94
394.998	1.05
395.204	1.09
395.41	1.06
395.615	1.19
395.821	1.28
396.027	1.31
396.233	1.38
396.438	1.47
396.644	1.59
396.85	1.63
397.055	1.71
397.261	1.77
397.466	1.96
397.672	1.96
397.878	2.08
398.083	2.09
398.289	2.15
398.494	2.27
398.7	2.46
398.905	2.37
399.111	2.69
399.316	2.61
399.522	2.81
399.727	2.88
399.932	3.05
400.138	3.14
400.343	3.38
400.549	3.32
400.754	3.68
400.959	3.78
401.165	3.99
401.37	4.12
401.575	4.54
401.78	4.51
401.986	4.61
402.191	4.84
402.396	5.08
402.601	5.34
402.807	5.59
403.012	5.65
403.217	6.12
403.422	6.1
403.627	6.37
403.832	6.61
404.037	6.75
404.243	6.86
404.448	7.13
404.653	7.32
404.858	7.45
405.063	7.41
405.268	7.74
405.473	7.82
405.678	7.97
405.883	8.46
406.088	8.39
406.293	8.4
406.498	8.62
406.703	8.59
406.907	8.71
407.112	8.95
407.317	9.26
407.522	9.46
407.727	9.42
407.932	9.44
408.136	9.68
408.341	9.47
408.546	9.4
408.751	9.4
408.956	9.36
409.16	9.56
409.365	9.4
409.57	9.07
409.774	9
409.979	8.98
410.184	8.69
410.388	8.63
410.593	8.69
410.798	8.56
411.002	8.54
411.207	8.24
411.411	8.12
411.616	7.74
411.82	7.77
412.025	7.55
412.229	7.35
412.434	7.17
412.638	6.98
412.843	6.81
413.047	6.58
413.252	6.31
413.456	6.37
413.66	6.13
413.865	5.87
414.069	5.74
414.273	5.59
414.478	5.36
414.682	5.25
414.886	5.16
415.091	4.85
415.295	4.75
415.499	4.74
415.703	4.45
415.908	4.51
416.112	4.28
416.316	4.3
416.52	4.06
416.724	3.95
416.929	3.86
417.133	3.99
417.337	3.65
417.541	3.61
417.745	3.59
417.949	3.48
418.153	3.47
418.357	3.37
418.561	3.46
418.765	3.24
418.969	3.21
419.173	3.21
419.377	2.99
419.581	3.1
419.785	2.99
419.989	2.87
420.193	2.85
420.397	2.8
420.601	2.78
420.804	2.73
421.008	2.52
421.212	2.57
421.416	2.47
421.62	2.25
421.823	2.27
422.027	2.25
422.231	2.14
422.435	2.02
422.638	1.92
422.842	1.94
423.046	1.85
423.249	1.88
423.453	1.76
423.657	1.76
423.86	1.64
424.064	1.65
424.268	1.66
424.471	1.59
424.675	1.55
424.878	1.48
425.082	1.42
425.285	1.43
425.489	1.33
425.692	1.31
425.896	1.18
426.099	1.23
426.303	1.14
426.506	1.1
426.71	1.2
426.913	1.22
427.116	1.2
427.32	1.09
427.523	1
427.726	1.13
427.93	0.96
428.133	0.91
428.336	0.94
428.54	0.9
428.743	0.94
428.946	1.01
429.149	0.91
429.353	0.93
429.556	0.83
429.759	0.83
429.962	0.75
430.165	0.8
430.368	0.78
430.571	0.67
430.775	0.73
430.978	0.65
431.181	0.68
431.384	0.69
431.587	0.63
431.79	0.65
431.993	0.63
432.196	0.64
432.399	0.67
432.602	0.69
432.805	0.59
433.008	0.64
433.211	0.58
433.414	0.63
433.616	0.67
433.819	0.57
434.022	0.47
434.225	0.66
434.428	0.6
434.631	0.68
434.833	0.52
435.036	0.53
435.239	0.55
435.442	0.53
435.645	0.49
435.847	0.52
436.05	0.56
436.253	0.5
436.455	0.47
436.658	0.37
436.861	0.52
437.063	0.41
437.266	0.45
437.468	0.48
437.671	0.56
437.874	0.4
438.076	0.35
438.279	0.33
438.481	0.39
438.684	0.37
438.886	0.39
439.089	0.29
439.291	0.42
439.494	0.37
439.696	0.29
439.899	0.33
440.101	0.39
440.303	0.28
440.506	0.38
440.708	0.32
440.91	0.37
441.113	0.24
441.315	0.39
441.517	0.31
441.72	0.38
441.922	0.32
442.124	0.22
442.326	0.29
442.529	0.32
442.731	0.28
442.933	0.36
443.135	0.27
443.337	0.27
443.539	0.25
443.742	0.25
443.944	0.34
444.146	0.23
444.348	0.23
444.55	0.19
444.752	0.22
444.954	0.21
445.156	0.25
445.358	0.19
445.56	0.22
445.762	0.23
445.964	0.24
446.166	0.15
446.368	0.19
446.57	0.26
446.772	0.18
446.974	0.2
447.175	0.22
447.377	0.15
447.579	0.21
447.781	0.12
447.983	0.28
448.184	0.18
448.386	0.18
448.588	0.09
448.79	0.17
448.991	0.12
449.193	0.16
449.395	0.18
449.597	0.21
449.798	0.14
450	0.15
450.202	0.15
450.403	0.2
450.605	0.21
450.806	0.13
451.008	0.1
451.21	0.14
451.411	0.13
451.613	0.07
451.814	0.17
452.016	0.2
452.217	0.18
452.419	0.18
452.62	0.14
452.821	0.16
453.023	0.2
453.224	0.16
453.426	0.09
453.627	0.14
453.828	0.22
454.03	0.17
454.231	0.16
454.432	0.1
454.634	0.22
454.835	0.08
455.036	0.05
455.238	0.15
455.439	0.22
455.64	0.08
455.841	0.11
456.042	0.22
456.244	0.16
456.445	0.08
456.646	0.1
456.847	0.11
457.048	0.18
457.249	0.18
457.45	0.34
457.651	0.12
457.852	0.13
458.054	0.09
458.255	0.07
458.456	0.16
458.657	0.12
458.858	0.09
459.058	0.11
459.259	0.17
459.46	0.16
459.661	0.07
459.862	0.23
460.063	0.15
460.264	0.16
460.465	0.06
460.666	0.22
460.866	0.11
461.067	0.14
461.268	0.08
461.469	0.12
461.67	0.12
461.87	0.06
462.071	0.09
462.272	0.04
462.473	0.14
462.673	0.17
462.874	0.1
463.075	0.13
463.275	0.1
463.476	0.14
463.676	0.13
463.877	0.12
464.078	0.12
464.278	0.16
464.479	0.11
464.679	0.17
464.88	0.14
465.08	0.19
465.281	0.08
465.481	0.1
465.682	0.08
465.882	0.19
466.083	0.12
466.283	0.12
466.483	0.1
466.684	0.09
466.884	0.1
467.085	0.11
467.285	0.12
467.485	0.03
467.686	0.1
467.886	0.05
468.086	0.12
468.286	0.12
468.487	0.12
468.687	0.08
468.887	0.07
469.087	0.15
469.287	0.09
469.488	0.08
469.688	0.08
469.888	0.15
470.088	0.15
470.288	0.17
470.488	0.16
470.688	0.01
470.888	0.1
471.088	0.07
471.288	0.13
471.488	0.11
471.688	0.16
471.888	0.07
472.088	0.11
472.288	0.18
472.488	0.11
472.688	0.1
472.888	0.12
473.088	0.08
473.288	0.11
473.488	0.09
473.688	0.13
473.887	0.1
474.087	0.05
474.287	0.11
474.487	0.09
474.687	0.12
474.886	0.05
475.086	0.09
475.286	0.07
475.486	0.13
475.685	0.12
475.885	0.08
476.085	0.09
476.284	0.1
476.484	0.08
476.684	0.12
476.883	0.13
477.083	0.1
477.282	0.05
477.482	0.13
477.681	0.14
477.881	0.08
478.08	0.06
478.28	0.05
478.479	0.12
478.679	0.16
478.878	0
479.078	0.04
479.277	0.07
479.477	0.07
479.676	0.13
479.875	0.08
480.075	0
480.274	0.06
480.473	0.09
480.673	0.07
480.872	0.1
481.071	0.09
481.271	0.1
481.47	0.05
481.669	0.08
481.868	0.05
482.067	0.04
482.267	0.06
482.466	0.03
482.665	0.02
482.864	-0
483.063	0.01
483.262	0.07
483.461	0.12
483.661	0.11
483.86	0.07
484.059	0.07
484.258	0.07
484.457	0.03
484.656	0.05
484.855	0.09
485.054	0.01
485.253	0.04
485.452	0.02
485.651	0.07
485.849	0.06
486.048	0.01
486.247	0.02
486.446	0.08
486.645	-0
486.844	0.04
487.043	0.05
487.241	0.06
487.44	0.02
487.639	0.04
487.838	0.08
488.037	0.04
488.235	0.1
488.434	0.03
488.633	0.02
488.831	0.08
489.03	0.07
489.229	0.06
489.427	0.03
489.626	0.07
489.825	0.13
490.023	0.04
490.222	0.04
490.42	0.06
490.619	0.09
490.817	0.07
491.016	0.02
491.214	0.08
491.413	0.03
491.611	0.02
491.81	0.03
492.008	0.05
492.207	0.06
492.405	0.06
492.604	-0.02
492.802	0.03
493	0.06
493.199	0.02
493.397	0.04
493.595	0.05
493.794	0.02
493.992	0.09
494.19	0.05
494.388	0.04
494.587	0.04
494.785	0.06
494.983	0.01
495.181	0.04
495.379	0.05
495.578	0.02
495.776	0.05
495.974	0.05
496.172	0.03
496.37	0.03
496.568	0.02
496.766	0.03
496.964	0.06
497.162	0.05
497.36	0.01
497.558	0.06
497.756	0.05
497.954	0.03
498.152	-0.01
498.35	0.03
498.548	0.03
498.746	0.04
498.944	0.03
499.142	0.03
499.34	0.01
499.538	0.02
499.736	0.01
499.933	0.06
500.131	0.08
500.329	0.03
500.527	0.08
500.725	0.06
500.922	0.05
501.12	0.02
501.318	0.03
501.516	0.02
501.713	0.03
501.911	0.04
502.109	0.02
502.306	0.06
502.504	0.04
502.701	0.02
502.899	0.05
503.097	0.09
503.294	0.05
503.492	0.02
503.689	0.03
503.887	0.02
504.084	0.11
504.282	0.03
504.479	0
504.677	0.06
504.874	0.01
505.072	0.03
505.269	0.03
505.466	0.05
505.664	0.03
505.861	-0.02
506.059	0.01
506.256	0.07
506.453	0.02
506.651	0.06
506.848	0.05
507.045	0.04
507.242	0.05
507.44	0.01
507.637	0
507.834	0.02
508.031	0.05
508.229	-0.01
508.426	0.02
508.623	0.05
508.82	0.01
509.017	0.02
509.214	0.03
509.411	0.02
509.608	-0
509.805	0.03
510.003	0.02
510.2	0.01
510.397	0.07
510.594	0.02
510.791	0.01
510.988	0.02
511.184	0.06
511.381	0.03
511.578	0
511.775	0.06
511.972	0.03
512.169	0.03
512.366	0
512.563	0.05
512.76	0.02
512.956	0.02
513.153	0.02
513.35	0.03
513.547	-0
513.744	0
513.94	-0.01
514.137	0.04
514.334	0.04
514.53	0.01
514.727	0.05
514.924	0.05
515.12	-0.01
515.317	-0
515.514	0.03
515.71	-0.02
515.907	0.03
516.103	0.03
516.3	0.03
516.497	0.04
516.693	0.08
516.89	0.02
517.086	0
517.283	0.04
517.479	0.03
517.676	0.03
517.872	0.01
518.068	0.02
518.265	0.01
518.461	-0.01
518.658	-0.02
518.854	0.02
519.05	0
519.247	0.01
519.443	0.04
519.639	0.02
519.836	0.03
520.032	0.02
520.228	0.01
520.424	0.05
520.621	0.04
520.817	0
521.013	0.02
521.209	0.03
521.405	0.08
521.601	0.02
521.798	0.02
521.994	0.08
522.19	0
522.386	0
522.582	0.02
522.778	0.05
522.974	0.01
523.17	0.03
523.366	0.04
523.562	0.03
523.758	0.01
523.954	-0
524.15	-0
524.346	0.03
524.542	0
524.738	0.01
524.934	0.02
525.129	0.01
525.325	0
525.521	-0.01
525.717	0.05
525.913	0.03
526.109	0.02
526.304	0.02
526.5	0.04
526.696	0.04
526.892	0.02
527.087	0.03
527.283	0.02
527.479	0.03
527.674	-0.02
527.87	0.01
528.066	0.03
528.261	0.02
528.457	0.04
528.653	0.02
528.848	-0.01
529.044	0.02
529.239	0
529.435	0.05
529.63	0.03
529.826	0.06
530.021	0.03
530.217	0.04
530.412	-0
530.608	0
530.803	0.03
530.999	0
531.194	-0.03
531.389	0.01
531.585	-0.03
531.78	-0
531.975	0.02
532.171	0.04
532.366	0.01
532.561	0.01
532.757	0
532.952	0.02
533.147	0.04
533.342	0.02
533.538	-0.03
533.733	0.02
533.928	0.02
534.123	0.01
534.318	-0.03
534.513	0.01
534.709	0.03
534.904	0
535.099	0
535.294	0.01
535.489	0.02
535.684	0.01
535.879	0
536.074	0.02
536.269	-0.02
536.464	0.02
536.659	0.03
536.854	0.02
537.049	0.02
537.244	0.02
537.439	-0.01
537.634	0.04
537.828	0.03
538.023	0.01
538.218	-0.03
538.413	0.02
538.608	-0.02
538.803	0.04
538.997	-0.01
539.192	0.04
539.387	0.02
539.582	0.02
539.776	0.02
539.971	0
540.166	-0
540.36	-0.03
540.555	0
540.75	0.01
540.944	0
541.139	-0.02
541.334	0.02
541.528	0.02
541.723	0.03
541.917	0.02
542.112	-0.02
542.306	0
542.501	0
542.695	0.01
542.89	-0.02
543.084	0.01
543.279	0
543.473	0
543.668	0.01
543.862	0.02
544.056	0.04
544.251	-0.01
544.445	0.01
544.64	0.01
544.834	-0.01
545.028	0.01
545.222	0.02
545.417	0.02
545.611	-0
545.805	0.02
546	-0
546.194	0.02
546.388	-0.02
546.582	0.01
546.776	0.02
546.97	0.03
547.165	0.02
547.359	0.03
547.553	-0.01
547.747	0.04
547.941	0.03
548.135	0.01
548.329	0.03
548.523	0.03
548.717	0.01
548.911	0.02
549.105	0.02
549.299	0.02
549.493	0.04
549.687	0.02
549.881	0.02
550.075	0.01
550.269	-0.04
550.463	0.04
550.657	0
550.85	0.01
551.044	-0
551.238	0.01
551.432	0.02
551.626	-0.02
551.82	-0
552.013	-0.01
552.207	0.03
552.401	0.05
552.594	0.03
552.788	0
552.982	0.02
553.176	-0
553.369	0.02
553.563	0.01
553.756	-0.03
553.95	-0
554.144	-0
554.337	0.04
554.531	0.02
554.724	0.02
554.918	-0.01
555.111	0.03
555.305	0.01
555.498	0.06
555.692	0.03
555.885	-0.02
556.079	0.04
556.272	-0.01
556.466	0.01
556.659	0.03
556.852	-0.01
557.046	-0.01
557.239	0.06
557.432	-0.02
557.626	-0.01
557.819	0.03
558.012	0.02
558.206	0.03
558.399	0.02
558.592	0.02
558.785	0
558.979	0.03
559.172	0.01
559.365	0.05
559.558	0.01
559.751	-0
559.944	-0.01
560.138	0.01
560.331	0.01
560.524	0.02
560.717	0.02
560.91	0.01
561.103	0.05
561.296	0
561.489	0.01
561.682	0.01
561.875	0.05
562.068	0.02
562.261	0
562.454	0.05
562.647	0.04
562.84	0.02
563.032	0.01
563.225	0.02
563.418	0
563.611	-0.01
563.804	-0.01
563.997	-0.04
564.19	-0.02
564.382	0.01
564.575	-0
564.768	-0
564.961	-0
565.153	0.01
565.346	0.03
565.539	0.04
565.731	0.03
565.924	0.04
566.117	0.05
566.309	-0
566.502	-0
566.695	-0
566.887	0.01
567.08	-0.01
567.272	-0
567.465	0.01
567.657	0.02
567.85	0.01
568.042	0.03
568.235	0.04
568.427	0.02
568.62	-0
568.812	0.04
569.005	0.01
569.197	-0.02
569.389	0.02
569.582	0.03
569.774	0.01
569.966	-0.01
570.159	-0.02
570.351	0.03
570.543	0.01
570.736	0.01
570.928	0.01
571.12	0
571.312	-0.01
571.505	-0.03
571.697	0.05
571.889	-0.02
572.081	-0.01
572.273	-0.01
572.465	0.07
572.658	0.02
572.85	0.02
573.042	0
573.234	-0.02
573.426	0.04
573.618	-0.02
573.81	0.03
574.002	0.05
574.194	0.06
574.386	-0.03
574.578	-0.06
574.77	-0.02
574.962	-0
575.154	-0.04
575.346	-0.02
575.538	0
575.729	-0.02
575.921	0
576.113	-0.02
576.305	0.02
576.497	0.01
576.689	0.01
576.88	-0.03
577.072	0.05
577.264	0.01
577.456	0.02
577.647	-0.06
577.839	-0
578.031	0.07
578.223	-0.01
578.414	-0.04
578.606	0.04
578.798	0.02
578.989	-0.03
579.181	0.01
579.372	-0.01
579.564	0.02
579.755	0.01
579.947	0
580.139	0.02
580.33	-0.02
580.522	-0
580.713	-0.07
580.905	-0.02
581.096	0.02
581.287	0.01
581.479	-0.01
581.67	0.02
581.862	0.01
582.053	-0
582.244	-0.01
582.436	0.01
582.627	-0
582.818	-0.04
583.01	-0.02
583.201	0.02
583.392	0.05
583.583	-0.03
583.775	-0
583.966	-0.02
584.157	-0.01
584.348	-0.02
584.54	-0.04
584.731	0
584.922	0
585.113	-0.01
585.304	0.04
585.495	0.04
585.686	0
585.877	0.03
586.068	0.02
586.259	0.02
586.45	0.02
586.641	-0
586.832	-0.05
587.023	0.02
587.214	0.01
587.405	0.01
587.596	-0.03
587.787	0.06
587.978	-0.01
588.169	0
588.36	-0.03
588.551	0.01
588.742	-0.01
588.932	-0
589.123	-0
589.314	0.03
589.505	0.02
589.696	-0.01
589.886	-0.01
590.077	-0.05
590.268	0.01
590.458	-0.06
590.649	-0.04
590.84	0.04
591.03	-0.02
591.221	-0.05
591.412	-0.04
591.602	0.03
591.793	0.03
591.984	-0.03
592.174	-0.02
592.365	0.08
592.555	-0.01
592.746	0.01
592.936	0.02
593.127	0.02
593.317	0.02
593.508	-0.03
593.698	-0
593.889	0.03
594.079	0.02
594.269	-0.02
594.46	0
594.65	0
594.84	0.01
595.031	-0.03
595.221	-0
595.411	-0.03
595.602	0.03
595.792	0.01
595.982	-0.01
596.172	0.07
596.363	0.01
596.553	0.01
596.743	0.01
596.933	0.01
597.123	0.03
597.314	-0.01
597.504	-0.01
597.694	0.04
597.884	0.02
598.074	-0.01
598.264	-0.01
598.454	-0.01
598.644	-0.01
598.834	0.01
599.024	-0.07
599.214	0.01
599.404	0.03
599.594	-0.01
599.784	-0.02
599.974	0.03
600.164	0.02
600.354	-0.04
600.544	-0.06
600.734	0.03
600.924	0.04
601.114	-0.01
601.303	0.01
601.493	0.02
601.683	0
601.873	0.01
602.063	-0.04
602.252	0.04
602.442	-0.05
602.632	-0.02
602.821	-0.04
603.011	0.03
603.201	-0.01
603.39	-0.02
603.58	-0.02
603.77	-0
603.959	0.02
604.149	-0
604.339	-0.01
604.528	0.04
604.718	0.03
604.907	0.01
605.097	-0
605.286	-0.02
605.476	0.01
605.665	0.02
605.855	-0.01
606.044	-0.02
606.234	0.03
606.423	0
606.612	-0.03
606.802	0.01
606.991	0.03
607.181	0.01
607.37	-0.04
607.559	-0.02
607.749	-0.04
607.938	0.01
608.127	0
608.316	-0.04
608.506	0
608.695	0.01
608.884	-0.01
609.073	0.02
609.263	0.01
609.452	0.02
609.641	0
609.83	-0.03
610.019	0.01
610.208	-0.01
610.397	0.01
610.586	0.02
610.775	-0.03
610.965	-0.04
611.154	-0.02
611.343	0
611.532	0.01
611.721	-0.03
611.91	-0.02
612.099	0.02
612.287	-0.01
612.476	-0.03
612.665	-0
612.854	-0.02
613.043	0.06
613.232	-0
613.421	-0.02
613.61	-0
613.798	-0.05
613.987	0.03
614.176	0.01
614.365	0.03
614.554	0.04
614.742	0.02
614.931	-0.01
615.12	0.04
615.309	-0.03
615.497	0.02
615.686	-0.04
615.875	-0.02
616.063	0.02
616.252	0.01
616.44	0.01
616.629	0
616.818	0.03
617.006	-0.03
617.195	-0
617.383	0.03
617.572	-0
617.76	-0.02
617.949	0.01
618.137	0.05
618.326	0.04
618.514	-0.03
618.703	-0.03
618.891	0.03
619.079	-0.05
619.268	0.03
619.456	-0.03
619.644	0.02
619.833	-0.04
620.021	-0.03
620.209	-0.04
620.398	0
620.586	0.02
620.774	-0.02
620.962	0.01
621.151	0.07
621.339	0.03
621.527	-0.03
621.715	-0.03
621.903	-0.03
622.092	-0.05
622.28	0.02
622.468	-0.02
622.656	-0.01
622.844	0.01
623.032	-0.01
623.22	-0.04
623.408	0.05
623.596	0.03
623.784	0.02
623.972	-0.02
624.16	-0.01
624.348	0.07
624.536	0.01
624.724	-0.04
624.912	0.06
625.1	0.02
625.288	-0.03
625.476	-0.05
625.664	0.01
625.851	-0.03
626.039	-0
626.227	-0
626.415	-0.01
626.603	-0.07
626.79	-0.01
626.978	-0.01
627.166	0.03
627.354	0.01
627.541	0
627.729	-0.07
627.917	0.03
628.104	0.05
628.292	0.01
628.48	-0
628.667	-0.01
628.855	0.02
629.042	0.03
629.23	0.02
629.418	-0.01
629.605	0
629.793	-0.02
629.98	-0.04
630.168	-0.01
630.355	-0.05
630.543	0.02
630.73	-0.02
630.917	0.01
631.105	0.07
631.292	-0.04
631.48	0
631.667	0.1
631.854	0.02
632.042	0.01
632.229	-0.08
632.416	0.02
632.604	-0.02
632.791	-0.02
632.978	0.02
633.165	0.03
633.353	0.04
633.54	0.06
633.727	-0.1
633.914	-0.04
634.101	-0.05
634.289	0.03
634.476	-0.05
634.663	-0.04
634.85	0.01
635.037	-0.05
635.224	-0.05
635.411	0.04
635.598	0.02
635.785	-0.01
635.972	-0.03
636.159	0.04
636.346	-0.03
636.533	0.01
636.72	-0.01
636.907	-0.02
637.094	0.02
637.281	-0.01
637.468	0.02
637.655	-0.03
637.842	-0.01
638.029	-0.04
638.215	0.01
638.402	0.01
638.589	-0.03
638.776	-0.02
638.963	-0.02
639.149	0.03
639.336	0.05
639.523	0.03
639.709	-0
639.896	-0.04
640.083	0.05
640.27	0.02
640.456	-0.02
640.643	0.01
640.829	-0.05
641.016	-0.02
641.203	-0.06
641.389	0.02
641.576	0.03
641.762	0.02
641.949	-0.05
642.135	0.04
642.322	0.02
642.508	-0.04
642.695	-0
642.881	-0.01
643.068	-0.01
643.254	-0.01
643.441	0.06
643.627	-0
643.813	-0.01
644	0.02
644.186	-0.02
644.372	-0.04
644.559	0.02
644.745	-0.02
644.931	-0.02
645.118	-0.01
645.304	-0.01
645.49	-0.03
645.676	0.01
645.862	0.01
646.049	0.07
646.235	0.01
646.421	0.05
646.607	0.06
646.793	-0.04
646.979	-0.01
647.165	0.01
647.352	0.02
647.538	0.06
647.724	0
647.91	0.01
648.096	0.02
648.282	0.02
648.468	-0.02
648.654	-0.02
648.84	0.03
649.026	-0
649.212	0
649.397	-0.02
649.583	-0.05
649.769	0.02
649.955	0.01
650.141	-0.01
650.327	0.06
650.513	-0.03
650.698	0.03
650.884	-0.09
651.07	-0
651.256	0.01
651.442	-0.01
651.627	-0.02
651.813	-0.01
651.999	-0.01
652.184	0.01
652.37	-0.04
652.556	0
652.741	0.04
652.927	-0.07
653.113	-0.01
653.298	-0
653.484	0.01
653.669	-0.05
653.855	0.01
654.04	0
654.226	-0
654.412	-0.01
654.597	-0.08
654.782	0.01
654.968	0
655.153	0.03
655.339	-0.05
655.524	-0.04
655.71	0.02
655.895	-0.03
656.08	-0.01
656.266	0.05
656.451	-0.01
656.636	-0.02
656.822	-0.01
657.007	-0.04
657.192	-0.03
657.378	-0.08
657.563	-0.02
657.748	0
657.933	0.01
658.118	0
658.304	0
658.489	0.01
658.674	0
658.859	-0.03
659.044	-0.02
659.229	0.02
659.414	0
659.599	-0.03
659.785	-0.04
659.97	-0.04
660.155	0.01
660.34	0.02
660.525	-0.03
660.71	-0.03
660.895	0.03
661.08	-0.03
661.264	-0.02
661.449	0.06
661.634	0.03
661.819	0.01
662.004	-0
662.189	-0.08
662.374	-0.03
662.559	-0.05
662.743	-0.04
662.928	0
663.113	-0.04
663.298	-0.07
663.483	-0.02
663.667	0.03
663.852	-0.06
664.037	0.02
664.221	-0.02
664.406	-0
664.591	0.03
664.775	0.02
664.96	-0.02
665.145	0.03
665.329	0.02
665.514	-0.03
665.698	-0.01
665.883	-0.08
666.068	0.03
666.252	-0.02
666.437	-0.04
666.621	0
666.806	0.02
666.99	-0
667.174	-0.07
667.359	0.07
667.543	-0.03
667.728	-0.02
667.912	-0.04
668.096	0.01
668.281	-0
668.465	-0.02
668.649	0.03
668.834	-0.06
669.018	-0.02
669.202	-0.03
669.387	-0.05
669.571	0.08
669.755	-0.04
669.939	-0
670.124	0
670.308	0.03
670.492	0.03
670.676	0.01
670.86	-0.01
671.044	-0.04
671.228	0.03
671.413	-0.04
671.597	-0.05
671.781	-0.02
671.965	0.02
672.149	-0
672.333	0.01
672.517	-0.02
672.701	0.05
672.885	0.01
673.069	-0.08
673.253	0.05
673.437	0.01
673.621	-0.05
673.804	-0.02
673.988	0.01
674.172	0
674.356	-0.03
674.54	-0.02
674.724	0.1
674.908	0.03
675.091	0.04
675.275	-0.01
675.459	0.04
675.643	0.06
675.826	-0.01
676.01	0.03
676.194	-0.03
676.377	0.04
676.561	0.02
676.745	0.02
676.928	0.02
677.112	0.05
677.296	-0.05
677.479	-0.03
677.663	-0.01
677.846	0.01
678.03	-0
678.213	-0.01
678.397	-0.01
678.58	-0.02
678.764	-0.01
678.947	-0.03
679.131	-0.03
679.314	0.01
679.498	0.04
679.681	0.02
679.865	0.02
680.048	-0.02
680.231	0.03
680.415	-0
680.598	-0.04
680.781	0.02
680.965	-0.01
681.148	0.03
681.331	-0.02
681.514	0.02
681.698	-0.05
681.881	0.02
682.064	0.01
682.247	0.05
682.43	-0.05
682.614	-0.01
682.797	0.08
682.98	0.03
683.163	-0.06
683.346	0.01
683.529	-0.05
683.712	-0.06
683.895	0.02
684.078	-0.02
684.261	-0.05
684.444	-0.02
684.627	0.03
684.81	-0.03
684.993	0.01
685.176	0.01
685.359	-0.07
685.542	-0.04
685.725	0.02
685.908	0.02
686.091	-0.05
686.274	0.04
686.457	0.03
686.639	-0.04
686.822	0.02
687.005	0.01
687.188	0.06
687.371	0.1
687.553	-0
687.736	0.03
687.919	0.05
688.102	0.06
688.284	-0.01
688.467	-0.02
688.65	0.01
688.832	-0.08
689.015	-0.02
689.197	-0.08
689.38	0.05
689.563	0.04
689.745	-0.05
689.928	-0.02
690.11	-0.02
690.293	-0.02
690.475	-0.04
690.658	0.02
690.84	-0
691.023	0.05
691.205	-0.05
691.388	0.03
691.57	-0.02
691.752	-0.01
691.935	-0.07
692.117	-0.05
692.3	0.01
692.482	-0.01
692.664	0.01
692.847	0.03
693.029	0.06
693.211	0.06
693.393	0.02
693.576	-0.06
693.758	0.01
693.94	-0.05
694.122	-0.04
694.304	-0.02
694.487	-0.03
694.669	0.04
694.851	-0.05
695.033	0.06
695.215	-0.02
695.397	-0
695.579	0.04
695.761	-0.07
695.943	-0.04
696.125	0.08
696.308	0.05
696.49	-0.06
696.671	0.11
696.853	-0.04
697.035	0.14
697.217	-0.02
697.399	0.01
697.581	-0.06
697.763	-0.01
697.945	-0.03
698.127	0.02
698.309	0.01
698.491	-0.01
698.672	0.04
698.854	0.05
699.036	0.07
699.218	-0.01
699.399	0.05
699.581	0.06
699.763	-0.02
699.945	-0.05
700.126	-0.02
700.308	0.05
700.49	-0.1
700.671	-0.09
700.853	-0.06
701.035	-0.01
701.216	-0.05
701.398	-0.05
701.579	-0
701.761	0.02
701.943	-0.04
702.124	-0.06
702.306	0.01
702.487	0.13
702.669	-0
702.85	-0.04
703.031	-0.06
703.213	0.11
703.394	0.07
703.576	-0.04
703.757	0.09
703.938	0.03
704.12	0.14
704.301	0.02
704.483	-0.05
704.664	0.01
704.845	0.11
705.026	0.04
705.208	-0.02
705.389	-0.04
705.57	-0.03
705.751	-0.04
705.933	0
706.114	0.04
706.295	0.03
706.476	-0.07
706.657	0.09
706.838	0.03
707.02	0.11
707.201	-0
707.382	-0.01
707.563	0.01
707.744	0.01
707.925	0.02
708.106	-0.04
708.287	0.04
708.468	0.04
708.649	0.02
708.83	0.02
709.011	0.01
709.192	0.06
709.373	-0.05
709.554	0.04
709.734	0.01
709.915	0.04
710.096	-0.04
710.277	-0.09
710.458	-0
710.639	0.01
710.819	-0.12
711	-0.07
711.181	0.05
711.362	0.06
711.542	0.04
711.723	-0.03
711.904	0.01
712.085	0.01
712.265	-0.03
712.446	-0.08
712.627	-0.01
712.807	0.04
712.988	0.02
713.168	-0.06
713.349	0.02
713.53	-0.18
713.71	-0.09
713.891	-0.12
714.071	0.02
714.252	-0.03
714.432	-0.02
714.613	-0.11
714.793	-0.06
714.974	0.14
715.154	0.01
715.334	0.08
715.515	0.08
715.695	-0.07
715.876	-0.02
716.056	-0.04
716.236	-0.03
716.417	-0.02
716.597	-0.02
716.777	0.12
716.957	-0.04
717.138	-0.01
717.318	0.04
717.498	-0.1
717.678	-0.07
717.859	-0.01
718.039	-0.03
718.219	-0.01
718.399	0.06
718.579	-0.1
718.759	-0.13
718.939	0.05
719.12	-0.01
719.3	0.02
719.48	-0.12
719.66	-0.11
719.84	0.05
720.02	-0.01
720.2	0
720.38	-0.02
720.56	0.12
720.74	-0.05
720.92	0.07
721.1	0.04
721.279	0.13
721.459	-0.04
721.639	-0.09
721.819	0.08
721.999	-0.04
722.179	0.05
722.359	-0.09
722.538	-0.04
722.718	0.01
722.898	-0.02
723.078	0.02
723.257	-0.05
723.437	0.03
723.617	0.01
723.797	-0.06
723.976	-0.02
724.156	0.02
724.336	0.13
724.515	0.17
724.695	-0.14
724.874	-0
725.054	0.13
725.234	-0.11
725.413	0.03
725.593	-0.03
725.772	-0.05
725.952	-0.12
726.131	-0.05
726.311	0.01
726.49	-0.06
726.67	-0.08
726.849	-0.06
727.028	0.03
727.208	0.02
727.387	0.05
727.567	-0.04
727.746	0.02
727.925	0.03
728.105	-0.12
728.284	-0.1
728.463	-0.11
728.643	-0.02
728.822	-0.12
729.001	-0.05
729.18	0.04
729.359	0.06
729.539	-0.08
729.718	-0.11
729.897	0.04
730.076	-0.02
730.255	-0.05
730.434	-0.01
730.614	0.03
730.793	-0.06
730.972	0.02
731.151	-0.01
731.33	0.08
731.509	0.03
731.688	-0.01
731.867	0.03
732.046	-0.15
732.225	0.2
732.404	-0.07
732.583	-0.12
732.762	0.06
732.941	0.09
733.12	0.01
733.298	-0.09
733.477	0.1
733.656	-0.05
733.835	-0.07
734.014	0.12
734.193	0.01
734.371	0.05
734.55	0.06
734.729	-0.1
734.908	0.03
735.086	-0.03
735.265	0.02
735.444	-0.14
735.623	-0.13
735.801	-0.08
735.98	-0.08
736.159	-0.05
736.337	0.02
736.516	0.01
736.694	0.04
736.873	-0.04
737.052	0.07
737.23	0.04
737.409	-0.04
737.587	0.04
737.766	-0.2
737.944	-0.07
738.123	-0.11
738.301	0.06
738.479	-0.08
738.658	0.11
738.836	-0.23
739.015	-0.04
739.193	0.12
739.371	-0.09
739.55	-0.11
739.728	-0.15
739.906	0.02
740.085	0.2
740.263	0.03
740.441	-0.25
740.62	0.28
740.798	0.06
740.976	-0.07
741.154	-0.1
741.332	0.17
741.511	-0.05
741.689	0.06
741.867	0.02
742.045	0.01
742.223	-0.03
742.401	-0.11
742.579	-0.1
742.757	-0
742.935	-0.12
743.114	0
743.292	-0.09
743.47	-0.04
743.648	0.07
743.826	-0.17
744.004	0.11
744.181	0.14
744.359	-0
744.537	0.04
744.715	-0.13
744.893	0.01
745.071	0.04
745.249	-0.04
745.427	-0.02
745.605	0.06
745.782	0.01
745.96	0.07
746.138	0.07
746.316	0.07
746.493	-0.03
746.671	-0
746.849	-0.04
747.027	0.1
747.204	-0.06
747.382	0.04
747.56	-0.14
747.737	0.11
747.915	-0.09
748.093	-0.01
748.27	-0.13
748.448	-0.06
748.625	-0.06
748.803	-0.14
748.98	-0.04
749.158	0.05
749.335	0.09
749.513	-0.04
749.69	0.05
749.868	-0.03
750.045	0.04
750.223	-0.07
750.4	-0.15
750.578	0.19
750.755	-0.01
750.932	-0.12
751.11	0.1
751.287	-0.12
751.464	0.11
751.642	-0.11
751.819	0.05
751.996	-0
752.173	0.02
752.351	-0.07
752.528	0.01
752.705	0
752.882	-0.11
753.06	-0.07
753.237	0.01
753.414	0.23
753.591	0.17
753.768	-0.01
753.945	-0.05
754.122	-0.07
754.299	0.13
754.476	-0.02
754.654	0.06
754.831	-0.01
755.008	0.06
755.185	-0.17
755.362	-0.11
755.539	-0.02
755.716	-0.1
755.892	0.01
756.069	-0.04
756.246	0.01
756.423	0.01
756.6	0.16
756.777	-0.02
756.954	0.07
757.131	-0.07
757.307	-0.08
757.484	-0.1
757.661	0.01
757.838	0.05
758.015	-0.13
758.191	0
758.368	-0.02
758.545	0.2
758.721	0.03
758.898	-0.14
759.075	0.06
759.251	0.21
759.428	0.09
759.605	-0.12
759.781	-0.02
759.958	0.02
760.134	0.08
760.311	-0.06
760.488	0.13
760.664	0.23
760.841	-0.01
761.017	-0.16
761.194	0.05
761.37	0.16
761.547	0.04
761.723	-0.09
761.899	0.11
762.076	-0.06
762.252	-0.18
762.429	-0.08
762.605	0.12
762.781	-0.02
762.958	0.12
763.134	-0.09
763.31	-0.06
763.486	0.16
763.663	-0.17
763.839	0.07
764.015	-0.15
764.191	-0.11
764.368	-0.03
764.544	-0.12
764.72	-0.1
764.896	-0.02
765.072	0.01
765.248	-0.12
765.425	-0.01
765.601	-0.09
765.777	-0.04
765.953	-0.19
766.129	-0.08
766.305	-0.19
766.481	0.07
766.657	-0.05
766.833	0.21
767.009	-0.2
767.185	0.04
767.361	0
767.537	-0.11
767.713	0.25
767.889	-0.18
768.065	-0.01
768.24	-0.19
768.416	0.07
768.592	-0.02
768.768	-0.07
768.944	-0.02
769.12	-0.15
769.295	-0.05
769.471	0.01
769.647	-0.03
769.823	0.3
769.998	-0.14
770.174	-0
770.35	0.2
770.525	0.3
770.701	0.04
770.877	-0.02
771.052	-0.1
771.228	0.26
771.403	0.04
771.579	0.07
771.755	0.42
771.93	-0.11
772.106	-0.16
772.281	-0.24
772.457	-0.08
772.632	-0.05
772.808	-0.2
772.983	0.06
773.159	-0.08
773.334	-0.03
773.509	0.07
773.685	-0.02
773.86	0.35
774.036	0.1
774.211	-0.04
774.386	0
774.562	0.1
774.737	0.04
774.912	-0.15
775.087	0.04
775.263	-0.08
775.438	-0
775.613	-0.17
775.788	-0.09
775.964	0.21
776.139	0.34
776.314	-0.18
776.489	-0.11
776.664	-0.08
776.839	-0.09
777.014	0.08
777.19	0.09
777.365	0.17
777.54	0.29
777.715	-0.12
777.89	-0.03
778.065	-0.09
778.24	0.05
778.415	0.06
778.59	-0.01
778.765	-0.09
778.94	-0.02
779.115	0.11
779.289	-0.19
779.464	0.17
779.639	0.15
779.814	-0.32
779.989	-0.17
780.164	0.35
780.339	0.01
780.513	0.01
780.688	-0.27
780.863	0.01
781.038	0.04
781.212	-0.17
781.387	-0.09
781.562	0.28
781.737	0.03
781.911	0.14
782.086	-0.12
782.261	-0.06
782.435	0.32
782.61	0.06
782.784	-0.07
782.959	0.29
783.134	0.07
783.308	-0.21
783.483	-0.16
783.657	0.25
783.832	0.1
784.006	-0.26
784.181	0.22
784.355	0.16
784.53	0.04
784.704	-0.24
784.878	0.36
785.053	0.13
785.227	0.28
785.402	0.33
785.576	-0.2
785.75	-0.06
785.925	-0.12
786.099	0.02
786.273	0.26
786.448	-0.01
786.622	0.05
786.796	-0.04
786.97	-0.18
787.145	0.45
787.319	-0
787.493	-0.07
787.667	-0.32
787.841	0.03
788.015	0.25
788.19	-0.14
788.364	0.04
788.538	0.1
788.712	0.34
788.886	-0.11
789.06	0.16
789.234	0.09
789.408	-0.19
789.582	-0.08
789.756	-0.02
789.93	-0.24
790.104	-0.12
790.278	-0.04
790.452	-0.16
790.626	0.12
790.8	-0.13
790.973	0.26
791.147	0.34
791.321	0.34
791.495	0.16
791.669	-0.06
791.843	0.08
792.016	0.07
792.19	0.29
792.364	-0.16
792.538	0.27
792.711	0.23
792.885	-0.09
793.059	-0.46
793.233	-0.43
793.406	0.09
793.58	0.08
793.754	0.22
793.927	-0.06
794.101	0.11
794.274	0.05
794.448	0.06
794.622	-0.07
794.795	0.36
794.969	-0.16
795.142	0.18
795.316	-0.17
795.489	-0.07
795.663	0.13
795.836	-0.02
796.009	-0.37
796.183	0.19
796.356	0.01
796.53	0.07
796.703	-0.2
796.876	0.58
797.05	-0.19
797.223	0.02
797.396	0.24
797.57	-0.04
797.743	0.69
797.916	0.14
798.09	-0.19
798.263	0.19
798.436	0.09
798.609	-0.17
798.782	-0.13
798.956	0.2
799.129	0.05
799.302	-0.14
799.475	-0.22
799.648	-0.02
799.821	-0.15
799.994	0.07
800.167	-0.42
800.34	0.09
800.514	0.19
800.687	-0.21
800.86	-0.3
801.033	-0.1
801.206	0.02
801.379	-0.36
801.551	0.18
801.724	0.19
801.897	0.28
802.07	-0.21
802.243	-0.65
802.416	0.16
802.589	0.15
802.762	-0.12
802.935	-0.1
803.107	0.37
803.28	0.26
803.453	0.35
803.626	-0.03
803.798	0.05
803.971	-0.08
804.144	0.11
804.317	0.21
804.489	0.26
804.662	0.06
804.835	0.23
805.007	-0.42
805.18	0.41
805.353	-0.18
805.525	-0.2
805.698	-0.25
805.87	0.12
806.043	0.29
806.215	-0.21
806.388	-0.47
806.56	-0.12
806.733	0.28
806.905	0.18
807.078	-0.01
807.25	-0.24
807.423	0.07
807.595	0.16
807.768	0
807.94	0.27
808.112	0.23
808.285	-0.12
808.457	-0.3
808.629	-0.13
808.802	0.18
808.974	-0.13
809.146	0.11
809.318	-0.43
809.491	-0.07
809.663	0.05
809.835	-0.34
810.007	0.02
810.18	0.1
810.352	-0.64
810.524	-0.09
810.696	0.28
810.868	0.53
811.04	-0.06
811.212	-0.15
811.384	0.23
811.556	0.2
811.728	-0.08
811.901	0.58
812.073	-0.04
812.245	0.49
812.417	-0.11
812.589	-0.73
812.76	0.2
812.932	0.55
813.104	0.42
813.276	0.08
813.448	0.39
813.62	0.02
813.792	0.05
813.964	-0.02
814.136	0.18
814.307	-0.15
814.479	-0.19
814.651	0.07
814.823	0.52
814.995	-0.15
815.166	0.14
815.338	-0.14
815.51	-0.71
815.681	0.41
815.853	0.08
816.025	0.03
816.196	0.63
816.368	-0.07
816.54	-0.7
816.711	-0.41
816.883	0.1
817.054	0.49
817.226	-0.81
817.398	-0.03
817.569	-0.26
817.741	-0.42
817.912	-0.51
818.084	-0.28
818.255	-0.02
818.426	-0.44
818.598	0.27
818.769	-0.05
818.941	0.56
819.112	0.47
819.283	-0.03
819.455	-0.55
819.626	-0.02
819.798	0.25
819.969	0.34
820.14	-0.15
820.311	0.02
820.483	-0.17
820.654	0.15
820.825	-0.14
820.996	-0.03
821.168	-0.27
821.339	0.06
821.51	-0.29
821.681	-0.03
821.852	-0.08
822.023	-0.27
822.195	-0.4
822.366	0.44
822.537	-0.07
822.708	0.14
822.879	-0.45
823.05	0.56
823.221	0.03
823.392	-0.18
823.563	-0.23
823.734	-0.06
823.905	0.14
824.076	0.06
824.247	-0.44
824.418	0.17
824.589	1.03
824.759	-0.17
824.93	-0.61
825.101	-0.61
825.272	0.95
825.443	0.78
825.614	0.74
825.784	-0.35
825.955	0.94
826.126	0.43
826.297	-0.43
826.467	0.49
826.638	0.81
826.809	-1.13
826.98	-0.19
827.15	0.46
827.321	0.24
827.492	0.65
827.662	0.18
827.833	1.4
828.003	0.54
828.174	-0.65
828.345	-0.54
828.515	0.65
828.686	-0.2
828.856	-0.34
829.027	-0.01
829.197	-0.07
829.368	0.31
829.538	-0.36
829.709	-0.32
829.879	0.22
830.049	-0.2
830.22	-0.15
830.39	0.27
830.56	0.6
830.731	0.06
830.901	-0.54
831.072	0.2
831.242	0.07
831.412	0.1
831.582	-0.05
831.753	-0.87
831.923	0.74
832.093	-0.4
832.263	-0.05
832.434	-0.67
832.604	-0.27
832.774	0.17
832.944	-0.14
833.114	-0.25
833.284	0.59
833.454	-0.49
833.624	-0.57
833.795	-0.55
833.965	0.74
834.135	0.5
834.305	-1.29
834.475	-0.82
834.645	-0.26
834.815	-0
834.985	-0.62
835.155	-0.17
835.325	0.92
835.494	-0.08
835.664	-0.6
835.834	-0.86
836.004	-0.13
836.174	0.33
836.344	-0.5
836.514	-1.19
836.684	-0.12
836.853	0.14
837.023	0.36
837.193	-0.04
837.363	0.68
837.532	1.05
837.702	-0.47
837.872	-0.53
838.041	0.45
838.211	0.69
838.381	-0.71
838.55	-0.18
838.72	2.04
838.89	0.41
839.059	0.23
839.229	-0.07
839.398	0.91
839.568	0.21
839.738	-0.43
839.907	0.89
840.077	0.84
840.246	-0.56
840.416	-0.49
840.585	-0.98
840.755	0.96
840.924	0.01
841.093	-0.43
841.263	-0.53
841.432	-0.49
841.602	-0.52
841.771	-0.53
841.94	0.74
842.11	1.64
842.279	0.49
842.448	-0.48
842.617	-0.9
842.787	0.28
842.956	-1.04
843.125	0.05
843.294	0.77
843.464	0.83
843.633	-0.52
843.802	-0.96
843.971	0.13
844.14	0.52
844.309	0.53
844.479	-0.98
844.648	-0.69
844.817	-0.06
844.986	0.57
845.155	-0.14
845.324	-0.27
845.493	-0.27
845.662	-1.12
845.831	0.52
846	0.79
846.169	-1.39
846.338	0.83
846.507	0.44
846.676	0.56
846.844	-0.64
847.013	1.07
847.182	0.08
847.351	-0.6
847.52	0.39
847.689	0.68
847.858	0.46
848.026	-0.58
848.195	-0.35
848.364	-0.62
848.533	-0.58
848.701	-0.59
848.87	0.47
849.039	0.38
849.207	0.58
849.376	1.35
849.545	2.08
849.713	0.08
849.882	-0.06
850.051	0.17
850.219	0.25
850.388	0.48
850.556	-0.49
850.725	-0.61
850.893	-0.08
851.062	-0.37
851.23	0.42
851.399	-1.29
851.567	-1.09
851.736	-0.86
851.904	-0.83
852.073	-0.54
852.241	0.58
852.41	-0.04
852.578	-0.85
852.746	0.31
852.915	-0.35
853.083	-0.67
853.251	-0.94
853.42	-0.38
853.588	0.49
853.756	0.97
853.924	-0.6
854.093	-0.71
854.261	-0.19
854.429	-1.51
854.597	0.33
854.765	-1.27
854.934	0.84
855.102	1.43
855.27	0.49
855.438	0.08
855.606	0.16
855.774	2.1
855.942	-1.6
856.11	-2.06
856.278	0.32
856.446	1.48
856.614	-0.25
856.782	-1.69
856.95	1.11
857.118	0.66
857.286	-0.14
857.454	-0.92
857.622	1.09
857.79	1.33
857.958	-0.48
858.126	0.07
858.294	-1.63
858.462	0.36
858.629	0.13
858.797	-1.12
858.965	0.69
859.133	0.05
859.301	-0.27
859.468	0.46
859.636	-1.44
859.804	1.34
859.971	-0.28
860.139	0.14
860.307	0.79
860.474	1.3
860.642	-0.66
860.81	0.53
860.977	-0.05
861.145	1.2
861.313	0.05
861.48	0.1
861.648	0.02
861.815	-0.62
861.983	-0.32
862.15	0.11
862.318	1.04
862.485	1.34
862.653	-1.6
862.82	0.04
862.988	1.02
863.155	2.17
863.322	-0.86
863.49	-0.65
863.657	-1.12
863.824	1.07
863.992	0.58
864.159	-0.79
864.326	-0.33
864.494	-0.8
864.661	2.57
864.828	-0.82
864.996	1.05
865.163	1.32
865.33	-0.33
865.497	-2.53
865.664	-1.05
865.832	-1.64
865.999	-0.03
866.166	-2.07
866.333	-1.12
866.5	-1.62
866.667	0.12
866.834	-0.6
867.001	1.12
867.168	-1.92
867.335	0.15
867.502	-3.53
867.669	0.86
867.836	3.16
868.003	0.5
868.17	1.66
868.337	1.6
868.504	1.76
868.671	-1.41
868.838	-0.37
869.005	-0.06
869.172	-1.12
869.339	-0.36
869.505	-2.05
869.672	-0.33
869.839	1.27
870.006	0.69
870.173	-2.78
870.339	0.12
870.506	2.73
870.673	-2.07
870.84	1.37
871.006	0.51
871.173	-0.46
871.34	-0.11
871.506	-1.11
871.673	-0.81
871.839	-1.9
872.006	0.92
872.173	-1.1
872.339	-0.28
872.506	2.47
872.672	-1.91
872.839	-1.15
873.005	-0.28
873.172	2.97
873.338	0.22
873.505	0.2
873.671	-0.64
873.838	0.08
874.004	-2.98
874.171	0.12
874.337	0.53
874.503	0.91
874.67	-0.23
874.836	-0.04
875.002	1.8
875.169	0.02
875.335	-0.54
875.501	-0.37
875.668	2.76
875.834	-0.2
876	-0.05
876.166	0.48
876.332	0.21
876.499	3.82
876.665	-1.78
876.831	-0.24
876.997	3.88
877.163	1.67
877.329	-0.77
877.495	-0.81
877.662	-0.31
877.828	1.92
877.994	-1.51
878.16	-1.37
878.326	-0.89
878.492	0.05
878.658	0.2
878.824	1.71
878.99	-0.06
879.156	-0.62
879.322	1.94
879.487	-2.73
879.653	0.37
879.819	0.74
879.985	-0.69
880.151	0.13
880.317	0.32
880.483	1.77
880.648	1.6
880.814	-1.55
880.98	-0.51
881.146	-2.22
881.312	-0.71
881.477	1.14
881.643	-0.9
881.809	-0.43
881.974	1.45
882.14	-1.15
882.306	0.28
882.471	3.35
882.637	-0.49
882.803	0.52
882.968	2.47
883.134	1.7
883.299	0.73
883.465	0.6
883.63	3.15
883.796	1.02
883.961	0.73
884.127	0.3
884.292	-3.47
884.458	-2.4
884.623	-2.4
