Data from Apollo_Calib_20240827__AbsoluteIrradiance__657__10-06-00-063.txt Node

Date: Wed Aug 28 10:06:00 BST 2024
User: biology
Spectrometer: FLMT08252
Trigger mode: 0
Integration Time (sec): 5.000000E-1
Scans to average: 5
Electric dark correction enabled: true
Nonlinearity correction enabled: false
Boxcar width: 0
XAxis mode: Wavelengths
Number of Pixels in Spectrum: 3648
>>>>>Begin Spectral Data<<<<<
179.588	-0
179.809	-0
180.03	-0
180.251	-0
180.473	-0
180.694	0
180.915	0
181.136	-0
181.357	0
181.578	-0
181.799	-0
182.02	-0
182.241	0
182.462	-0
182.683	0
182.904	-0
183.125	-0
183.346	0
183.567	0
183.788	-0
184.009	-0
184.23	0
184.451	0
184.672	-0
184.892	-0
185.113	0
185.334	0
185.555	-0
185.776	-0
185.996	0
186.217	0
186.438	0
186.659	-0
186.879	0
187.1	-0
187.321	0
187.541	-0
187.762	0
187.983	-0
188.203	0
188.424	0
188.644	0
188.865	0
189.086	-0
189.306	0
189.527	0
189.747	0
189.968	0
190.188	0
190.409	0
190.629	0
190.849	-0
191.07	-0
191.29	0
191.511	0
191.731	-0
191.951	-0
192.172	-0
192.392	-0
192.612	0
192.833	0
193.053	0
193.273	0
193.493	-0
193.714	0
193.934	0
194.154	0
194.374	0
194.594	0
194.815	0
195.035	0
195.255	0
195.475	-0
195.695	0
195.915	0
196.135	0
196.355	0
196.575	0
196.795	0
197.015	-0
197.235	0
197.455	-0
197.675	0
197.895	-0
198.115	-0
198.335	0
198.555	-0
198.775	0
198.995	0
199.214	0
199.434	0
199.654	-0
199.874	-0
200.094	0.89
200.313	-0.03
200.533	-0.11
200.753	-0.14
200.973	0.97
201.192	0.46
201.412	-0.81
201.632	-0.4
201.851	1.05
202.071	0.17
202.291	0.31
202.51	-0.22
202.73	0.59
202.95	-0.2
203.169	-0.42
203.389	-0.08
203.608	0.03
203.828	-0.25
204.047	0.24
204.267	0.85
204.486	0.11
204.706	0.22
204.925	-0.13
205.145	-0.21
205.364	0.57
205.583	0.82
205.803	0.01
206.022	-0.07
206.242	0.17
206.461	-0.11
206.68	-0.09
206.9	0.12
207.119	0.82
207.338	0.89
207.557	-0.02
207.777	-0.04
207.996	-0.13
208.215	0.49
208.434	-0.26
208.654	-0.2
208.873	0.02
209.092	0.61
209.311	-0.08
209.53	0.12
209.749	0
209.968	-0.12
210.187	0.06
210.407	-0.45
210.626	-0.01
210.845	0.47
211.064	0.07
211.283	-0.07
211.502	0.06
211.721	0.2
211.94	0.09
212.159	0.3
212.377	0.26
212.596	0.18
212.815	0.26
213.034	-0.04
213.253	0.35
213.472	0.21
213.691	-0.05
213.91	0.03
214.128	-0.01
214.347	0.53
214.566	-0.12
214.785	-0.11
215.003	0.14
215.222	0.13
215.441	-0.04
215.66	-0.24
215.878	-0.08
216.097	0.45
216.316	-0.03
216.534	0.04
216.753	0.15
216.972	0.08
217.19	0.12
217.409	-0.14
217.627	-0.15
217.846	-0.02
218.064	0.26
218.283	-0.19
218.501	0.6
218.72	0.38
218.938	-0.01
219.157	-0.14
219.375	0.2
219.594	0.19
219.812	-0.09
220.031	-0.07
220.249	0.43
220.467	0.45
220.686	-0.02
220.904	-0.17
221.122	-0.05
221.341	0.39
221.559	0.09
221.777	-0.1
221.995	0.15
222.214	0.24
222.432	-0.09
222.65	0.14
222.868	0.03
223.086	0.07
223.305	0.11
223.523	-0.05
223.741	0.29
223.959	-0
224.177	-0.09
224.395	0.01
224.613	0.24
224.831	0.06
225.049	-0.08
225.267	0.04
225.485	0.05
225.703	0
225.921	-0.04
226.139	-0.01
226.357	0.2
226.575	0.08
226.793	-0.02
227.011	0.52
227.229	0.17
227.447	0.16
227.665	-0.17
227.883	-0.27
228.1	0.14
228.318	-0.02
228.536	-0.22
228.754	-0.11
228.972	0.17
229.189	0.11
229.407	-0.12
229.625	-0.04
229.843	0.23
230.06	0.2
230.278	-0.04
230.496	-0.01
230.713	0.1
230.931	0.19
231.149	-0.09
231.366	-0.2
231.584	-0
231.801	0.43
232.019	0.06
232.236	0
232.454	-0.03
232.671	0.03
232.889	0.06
233.106	-0.12
233.324	0.06
233.541	0.05
233.759	0.06
233.976	0.06
234.194	0.02
234.411	0.04
234.628	-0.03
234.846	0.02
235.063	0.06
235.28	-0.05
235.498	-0.01
235.715	-0.05
235.932	0.18
236.149	0.09
236.367	-0.08
236.584	0.14
236.801	-0.02
237.018	0.08
237.236	0.03
237.453	-0.1
237.67	0.14
237.887	0.05
238.104	0.02
238.321	-0.08
238.538	-0.01
238.755	0.14
238.973	-0.16
239.19	-0.01
239.407	0.06
239.624	0.03
239.841	-0.03
240.058	-0.06
240.275	-0.01
240.492	-0.01
240.709	0.07
240.925	0.04
241.142	0.12
241.359	-0.11
241.576	-0.06
241.793	-0.03
242.01	0.03
242.227	0.03
242.444	0.02
242.66	0.16
242.877	0.04
243.094	-0.01
243.311	0.11
243.527	-0.04
243.744	0.06
243.961	0.03
244.178	-0.07
244.394	0.05
244.611	0.06
244.828	0.2
245.044	-0.06
245.261	0.04
245.477	0.05
245.694	0.06
245.911	-0.02
246.127	0.04
246.344	0.14
246.56	0.05
246.777	0.02
246.993	0.05
247.21	0.04
247.426	0.06
247.643	-0.06
247.859	-0.11
248.076	-0
248.292	0.19
248.508	-0.09
248.725	0.03
248.941	0.01
249.157	0.07
249.374	-0.03
249.59	-0.02
249.806	-0.03
250.023	0.06
250.239	-0.04
250.455	-0.09
250.671	-0.03
250.888	0.1
251.104	0.12
251.32	0.01
251.536	-0.02
251.752	-0
251.969	0.05
252.185	0.01
252.401	0.26
252.617	0.05
252.833	-0
253.049	0.07
253.265	0.03
253.481	0.08
253.697	0.03
253.913	-0.04
254.129	0.02
254.345	-0.05
254.561	-0.02
254.777	-0.02
254.993	0.08
255.209	0.06
255.425	0
255.641	-0.02
255.857	0.07
256.073	0.04
256.288	-0.05
256.504	0.04
256.72	0.11
256.936	0.14
257.152	0.1
257.367	-0.01
257.583	0.05
257.799	0.06
258.015	-0.04
258.23	-0.01
258.446	0.12
258.662	0.09
258.877	-0.03
259.093	-0.06
259.309	-0.01
259.524	0.06
259.74	-0
259.955	-0.03
260.171	0
260.387	0.05
260.602	0.08
260.818	0.08
261.033	-0.09
261.249	-0.01
261.464	-0.01
261.68	-0.06
261.895	0.1
262.11	0.13
262.326	-0.06
262.541	-0.02
262.757	0.1
262.972	0.06
263.187	0.04
263.403	0.1
263.618	0.12
263.833	0.06
264.049	-0.04
264.264	0.03
264.479	0.08
264.694	0.13
264.91	-0.11
265.125	0.04
265.34	0.05
265.555	0.17
265.77	0.08
265.986	-0.04
266.201	0.12
266.416	0.1
266.631	0.01
266.846	0.02
267.061	0.07
267.276	0.11
267.491	-0.15
267.706	0.03
267.921	0.08
268.136	0.02
268.351	0.03
268.566	-0.02
268.781	0.08
268.996	0.1
269.211	0.04
269.426	-0.09
269.641	-0.07
269.856	0.01
270.071	-0.03
270.285	-0.09
270.5	0.14
270.715	0.15
270.93	0.01
271.145	0
271.359	0.1
271.574	-0.08
271.789	-0
272.004	-0.01
272.218	0.04
272.433	0.07
272.648	-0.07
272.862	0.05
273.077	0.03
273.292	0.06
273.506	-0.01
273.721	-0
273.936	0.09
274.15	0.14
274.365	-0.05
274.579	0.07
274.794	0.01
275.008	0.11
275.223	-0.04
275.437	0.05
275.652	0.08
275.866	0.08
276.081	0.03
276.295	0.09
276.509	0.1
276.724	0.02
276.938	-0.01
277.153	0.05
277.367	0.09
277.581	-0.02
277.796	0.01
278.01	0
278.224	0.08
278.438	0.07
278.653	-0.04
278.867	-0.06
279.081	0.06
279.295	0.02
279.51	0.07
279.724	-0.04
279.938	0.1
280.152	-0.02
280.366	-0
280.58	0.06
280.794	0.08
281.008	0.07
281.222	0.04
281.437	0.11
281.651	0.04
281.865	0.11
282.079	0.02
282.293	-0.07
282.507	0.01
282.721	0
282.935	0.03
283.148	-0.09
283.362	0
283.576	-0.02
283.79	0.05
284.004	0.01
284.218	0.11
284.432	-0.02
284.646	0.03
284.859	0.05
285.073	0.02
285.287	0.04
285.501	0.01
285.714	0.04
285.928	0.05
286.142	0.06
286.356	0.02
286.569	0.01
286.783	0.06
286.997	0.09
287.21	0.06
287.424	0.06
287.637	-0.02
287.851	0.01
288.065	0.03
288.278	-0.02
288.492	0.03
288.705	-0.02
288.919	0.02
289.132	-0.04
289.346	0.08
289.559	-0.03
289.773	-0.01
289.986	0.02
290.2	-0.02
290.413	0.09
290.626	0.02
290.84	0.05
291.053	0
291.267	0.06
291.48	-0.01
291.693	0.03
291.906	-0
292.12	-0.01
292.333	0.01
292.546	0.03
292.76	0.09
292.973	0.02
293.186	0.05
293.399	-0.02
293.612	0.06
293.826	0.01
294.039	0.03
294.252	-0.01
294.465	0.03
294.678	0.05
294.891	0.05
295.104	-0.03
295.317	0.03
295.53	-0.02
295.743	-0.04
295.956	-0.01
296.169	0.11
296.382	0.09
296.595	0
296.808	-0.03
297.021	0.07
297.234	0.06
297.447	0.01
297.66	0.01
297.873	0.05
298.086	0.03
298.299	-0.02
298.511	-0.02
298.724	0.02
298.937	-0.02
299.15	-0.01
299.363	0.02
299.575	0.06
299.788	0.05
300.001	-0.01
300.213	-0.06
300.426	0.01
300.639	0.01
300.852	-0
301.064	0.07
301.277	0.09
301.489	0.05
301.702	0.08
301.915	0.05
302.127	0.01
302.34	0.01
302.552	0.03
302.765	0.01
302.977	0.04
303.19	-0.05
303.402	0.01
303.615	-0.01
303.827	0.04
304.04	0.01
304.252	0.05
304.464	-0
304.677	0.08
304.889	0.07
305.102	-0.01
305.314	0.01
305.526	0.04
305.739	0.05
305.951	-0.01
306.163	0.01
306.375	0.09
306.588	-0.01
306.8	0.04
307.012	-0.01
307.224	0.03
307.436	0.09
307.649	-0.05
307.861	0.05
308.073	0.03
308.285	-0
308.497	-0.01
308.709	0
308.921	0.03
309.133	0.06
309.346	-0.02
309.558	-0.01
309.77	0.05
309.982	0.06
310.194	0.07
310.406	0.02
310.617	0.13
310.829	0.03
311.041	0.03
311.253	-0.02
311.465	0.01
311.677	0.07
311.889	-0.01
312.101	0
312.313	0.05
312.524	0.05
312.736	-0.04
312.948	-0
313.16	0.06
313.372	0.04
313.583	0.05
313.795	0.01
314.007	-0.04
314.218	0.06
314.43	0.01
314.642	0.01
314.853	-0.04
315.065	0.07
315.277	0.02
315.488	0.01
315.7	0.07
315.912	0.05
316.123	-0
316.335	0
316.546	0.12
316.758	0.05
316.969	-0
317.181	0.05
317.392	0.02
317.604	0.08
317.815	-0.01
318.026	0.02
318.238	-0.01
318.449	0.05
318.661	-0.05
318.872	-0.01
319.083	-0.03
319.295	0.07
319.506	0
319.717	0.03
319.929	0.08
320.14	0.04
320.351	0.07
320.562	-0
320.774	0.04
320.985	0.02
321.196	-0.05
321.407	-0.06
321.618	0.08
321.829	0.04
322.041	0.05
322.252	0.01
322.463	0.03
322.674	0.05
322.885	-0.02
323.096	0.01
323.307	0.02
323.518	0.04
323.729	-0.01
323.94	-0.03
324.151	-0.04
324.362	0.02
324.573	-0.02
324.784	-0.04
324.995	0.06
325.206	0.06
325.417	0.02
325.628	0.03
325.838	0.02
326.049	0.05
326.26	0.04
326.471	0.04
326.682	0.01
326.892	0.02
327.103	-0.07
327.314	-0.01
327.525	0.07
327.735	0.05
327.946	0.03
328.157	-0.01
328.368	0.06
328.578	0.01
328.789	0.03
328.999	0.03
329.21	0.02
329.421	0.04
329.631	-0.05
329.842	-0.02
330.052	0.05
330.263	0.05
330.473	0.03
330.684	0.04
330.894	-0
331.105	0.01
331.315	0.05
331.526	-0.07
331.736	0.07
331.947	0.03
332.157	0.03
332.367	-0.01
332.578	0.03
332.788	0.04
332.999	0.03
333.209	0.03
333.419	-0.03
333.629	0.01
333.84	0.07
334.05	0.03
334.26	0.06
334.47	-0.05
334.681	0.06
334.891	-0.03
335.101	0.03
335.311	0.07
335.521	0.04
335.732	-0.07
335.942	0.1
336.152	0.05
336.362	0.03
336.572	0.06
336.782	0.06
336.992	0.02
337.202	0.03
337.412	-0
337.622	0.05
337.832	0.04
338.042	0.02
338.252	-0.01
338.462	0
338.672	0.04
338.882	-0.01
339.092	0
339.302	0.07
339.511	0.04
339.721	-0.01
339.931	-0.02
340.141	0.03
340.351	0.06
340.561	0
340.77	-0.01
340.98	0.01
341.19	-0
341.4	-0.02
341.609	-0.06
341.819	-0
342.029	-0.04
342.238	0.02
342.448	0
342.658	0.05
342.867	0.02
343.077	0.05
343.286	0.02
343.496	0.01
343.706	0.09
343.915	0
344.125	0.03
344.334	0.07
344.544	-0.05
344.753	-0.01
344.963	-0.01
345.172	0.02
345.381	-0.02
345.591	0
345.8	-0.03
346.01	0.1
346.219	0.06
346.428	-0
346.638	0.01
346.847	-0.01
347.056	0.05
347.266	-0.01
347.475	0.01
347.684	0.07
347.893	0.05
348.103	0.02
348.312	-0
348.521	0.02
348.73	0.04
348.94	-0.01
349.149	-0
349.358	-0.02
349.567	0.03
349.776	-0.03
349.985	0.01
350.194	0.02
350.403	0.06
350.612	-0.04
350.821	-0.04
351.03	0.01
351.239	-0.05
351.448	0.02
351.657	-0.04
351.866	0.07
352.075	-0.01
352.284	0.02
352.493	-0.04
352.702	0.08
352.911	0.03
353.12	0.05
353.329	0.02
353.538	0.04
353.746	0.03
353.955	-0.03
354.164	0.06
354.373	0.02
354.582	0.07
354.79	0.03
354.999	0.04
355.208	-0.01
355.416	0.08
355.625	-0.02
355.834	-0.02
356.042	0.06
356.251	-0.01
356.46	-0.05
356.668	0.02
356.877	0.1
357.085	0.01
357.294	-0.09
357.503	0.02
357.711	0.02
357.92	0.13
358.128	0.04
358.337	-0.01
358.545	0
358.754	-0.03
358.962	0.02
359.17	0.02
359.379	0.04
359.587	0.06
359.796	0.02
360.004	0.05
360.212	0.05
360.421	0.08
360.629	0.01
360.837	-0.01
361.046	0.05
361.254	0.09
361.462	0.02
361.67	-0.03
361.879	0.02
362.087	0.08
362.295	0.04
362.503	-0.02
362.711	-0
362.92	-0.02
363.128	-0.01
363.336	-0.04
363.544	-0.04
363.752	-0.01
363.96	-0.01
364.168	-0.02
364.376	0.04
364.584	-0.01
364.792	0.04
365	0.03
365.208	0.03
365.416	0.03
365.624	0.05
365.832	0.02
366.04	0.06
366.248	-0.01
366.456	-0.02
366.664	0.06
366.872	0.03
367.079	0.04
367.287	0.02
367.495	0.03
367.703	0
367.911	0.02
368.118	0.01
368.326	-0
368.534	-0.03
368.742	0.03
368.949	-0.07
369.157	0
369.365	0.05
369.572	0.01
369.78	-0.04
369.988	0.04
370.195	0.03
370.403	0.03
370.61	-0
370.818	0.02
371.026	0.1
371.233	-0.02
371.441	0.02
371.648	0.03
371.856	0.03
372.063	0.01
372.271	0.03
372.478	-0.03
372.685	-0.01
372.893	0.06
373.1	-0.01
373.308	-0.02
373.515	0.07
373.722	0.02
373.93	0.02
374.137	0.04
374.344	0.05
374.552	0.07
374.759	0.02
374.966	-0.01
375.173	-0.01
375.381	0.1
375.588	0
375.795	-0.07
376.002	0.03
376.209	-0.03
376.417	-0.02
376.624	0.02
376.831	0.04
377.038	0.05
377.245	-0.02
377.452	0.01
377.659	0.02
377.866	0
378.073	-0.01
378.28	0
378.487	0.04
378.694	0.01
378.901	0.01
379.108	0.01
379.315	0.06
379.522	0.1
379.729	0.03
379.936	-0.01
380.143	0.01
380.35	0.07
380.557	-0
380.763	0.02
380.97	0
381.177	0.02
381.384	0.03
381.591	-0.03
381.797	-0.01
382.004	0.06
382.211	0.03
382.418	-0.02
382.624	0.08
382.831	0.02
383.038	0.02
383.244	0.03
383.451	0.02
383.658	0.03
383.864	-0.01
384.071	-0
384.277	0.06
384.484	-0.04
384.69	0.08
384.897	-0.03
385.103	-0.01
385.31	-0.02
385.516	0.02
385.723	-0.01
385.929	-0.04
386.136	-0
386.342	0.05
386.549	-0.01
386.755	0.03
386.961	0.03
387.168	-0.01
387.374	0.02
387.58	0.09
387.787	0.03
387.993	0.01
388.199	0.01
388.406	-0.04
388.612	-0.01
388.818	0.02
389.024	0.01
389.231	0.02
389.437	0.08
389.643	0.09
389.849	0.02
390.055	0.01
390.261	0.02
390.467	0.05
390.674	-0.04
390.88	-0.01
391.086	0.04
391.292	-0.05
391.498	0.02
391.704	0
391.91	0.03
392.116	-0.04
392.322	-0.07
392.528	0.06
392.734	-0.01
392.94	0.01
393.146	-0.02
393.352	0.02
393.557	-0.01
393.763	0.02
393.969	0.04
394.175	0.01
394.381	-0.03
394.587	-0.04
394.792	0.04
394.998	0.05
395.204	0.08
395.41	-0.04
395.615	0.02
395.821	0.03
396.027	0.05
396.233	-0.05
396.438	0.03
396.644	0.06
396.85	-0
397.055	0.03
397.261	0.01
397.466	0.09
397.672	0.03
397.878	0.07
398.083	0.03
398.289	0.03
398.494	-0
398.7	0
398.905	-0.04
399.111	0.01
399.316	-0.03
399.522	-0.01
399.727	0.01
399.932	-0
400.138	0.02
400.343	0.06
400.549	0.01
400.754	0.03
400.959	0.06
401.165	0.02
401.37	0.03
401.575	0.1
401.78	0.04
401.986	-0.05
402.191	-0.01
402.396	0.04
402.601	0.06
402.807	0.02
403.012	-0.01
403.217	0.03
403.422	-0.04
403.627	-0.03
403.832	0.02
404.037	0.07
404.243	0.01
404.448	-0.01
404.653	-0.03
404.858	0.04
405.063	0.05
405.268	-0.03
405.473	-0.02
405.678	-0.04
405.883	0.15
406.088	0.06
406.293	-0.04
406.498	-0.01
406.703	0.02
406.907	0.01
407.112	-0.03
407.317	0
407.522	0.05
407.727	-0.01
407.932	0.02
408.136	0.07
408.341	0.03
408.546	0.02
408.751	0.01
408.956	0.02
409.16	0.02
409.365	0.03
409.57	-0.02
409.774	0.02
409.979	0.08
410.184	0
410.388	-0.04
410.593	0.05
410.798	-0.01
411.002	0
411.207	0.04
411.411	0.01
411.616	-0.02
411.82	-0.01
412.025	0.02
412.229	-0.02
412.434	0.03
412.638	0
412.843	-0.04
413.047	0.02
413.252	-0.02
413.456	-0.02
413.66	0.05
413.865	-0.03
414.069	0.06
414.273	0
414.478	-0.04
414.682	0.01
414.886	-0.02
415.091	-0.03
415.295	-0.06
415.499	0.04
415.703	-0
415.908	0.03
416.112	-0.05
416.316	0.05
416.52	0.01
416.724	0.01
416.929	-0.02
417.133	0.13
417.337	0.04
417.541	-0.05
417.745	-0.03
417.949	0.04
418.153	-0.02
418.357	-0.03
418.561	0.05
418.765	-0.01
418.969	0.14
419.173	0.02
419.377	-0.03
419.581	0.11
419.785	-0.02
419.989	-0.04
420.193	-0.02
420.397	-0.01
420.601	0.08
420.804	0.07
421.008	0.04
421.212	0.01
421.416	0.06
421.62	0.01
421.823	0.02
422.027	0.06
422.231	-0.03
422.435	0.02
422.638	0.03
422.842	-0.01
423.046	-0.01
423.249	0.01
423.453	0.01
423.657	0.05
423.86	-0.03
424.064	0.04
424.268	0.05
424.471	0.04
424.675	0.08
424.878	0.08
425.082	0.04
425.285	-0.01
425.489	0.05
425.692	0.02
425.896	0.01
426.099	0.02
426.303	-0.04
426.506	-0.07
426.71	0.06
426.913	0.06
427.116	0.06
427.32	0.03
427.523	0.05
427.726	0.11
427.93	-0.02
428.133	-0
428.336	0.03
428.54	-0.01
428.743	0.02
428.946	0.08
429.149	-0.04
429.353	0.06
429.556	-0
429.759	0.01
429.962	-0.04
430.165	0.04
430.368	0.01
430.571	-0.05
430.775	0.04
430.978	0.01
431.181	-0
431.384	0.02
431.587	0
431.79	-0.03
431.993	0.05
432.196	0.01
432.399	-0.02
432.602	0.1
432.805	-0
433.008	0.01
433.211	-0.05
433.414	0.01
433.616	0.02
433.819	0
434.022	-0.09
434.225	0.16
434.428	0.02
434.631	0.05
434.833	-0.04
435.036	-0.04
435.239	0.04
435.442	0.04
435.645	-0.06
435.847	0.07
436.05	0.03
436.253	0.02
436.455	-0.06
436.658	-0.01
436.861	0.07
437.063	-0.03
437.266	0.01
437.468	0.03
437.671	0.1
437.874	0.01
438.076	-0.05
438.279	-0.05
438.481	-0
438.684	-0.03
438.886	0
439.089	-0.06
439.291	-0.01
439.494	-0.01
439.696	-0.01
439.899	0.02
440.101	0.05
440.303	-0.05
440.506	0.01
440.708	0
440.91	0.05
441.113	-0.03
441.315	0.03
441.517	-0.02
441.72	0.03
441.922	0.02
442.124	-0.05
442.326	-0
442.529	0.07
442.731	-0
442.933	0.11
443.135	0
443.337	-0.04
443.539	0.02
443.742	-0
443.944	0.02
444.146	-0.01
444.348	-0.02
444.55	-0.04
444.752	0.02
444.954	-0.03
445.156	-0.02
445.358	-0.03
445.56	0.04
445.762	-0
445.964	0
446.166	-0.01
446.368	-0.04
446.57	0.06
446.772	-0.02
446.974	-0.04
447.175	0.02
447.377	0
447.579	-0.05
447.781	-0.04
447.983	0.04
448.184	-0.01
448.386	-0.01
448.588	-0.08
448.79	0.02
448.991	-0.02
449.193	-0.02
449.395	0.02
449.597	0.05
449.798	0.03
450	0.02
450.202	-0.03
450.403	-0
450.605	0.02
450.806	0.01
451.008	-0.04
451.21	0.01
451.411	-0
451.613	0.01
451.814	0.08
452.016	0.02
452.217	0
452.419	0.05
452.62	0.01
452.821	-0.02
453.023	0.08
453.224	0.05
453.426	-0.03
453.627	0.05
453.828	0.04
454.03	-0.01
454.231	-0.02
454.432	-0.06
454.634	0.09
454.835	-0
455.036	-0.04
455.238	0
455.439	0.09
455.64	-0.05
455.841	0.01
456.042	0.09
456.244	0.1
456.445	-0.05
456.646	-0
456.847	-0.05
457.048	0.07
457.249	0.07
457.45	0.14
457.651	-0.08
457.852	0.04
458.054	0.01
458.255	0.02
458.456	0.03
458.657	0.03
458.858	-0.01
459.058	-0
459.259	0.05
459.46	-0.02
459.661	0.01
459.862	0.13
460.063	-0.01
460.264	0.09
460.465	-0.04
460.666	0.13
460.866	-0.02
461.067	0.02
461.268	-0.03
461.469	-0
461.67	-0.01
461.87	-0
462.071	0.01
462.272	-0.01
462.473	0.01
462.673	0.05
462.874	-0.05
463.075	0.05
463.275	-0.04
463.476	-0
463.676	0.04
463.877	0.01
464.078	0.03
464.278	-0.01
464.479	0
464.679	0.03
464.88	-0
465.08	0.1
465.281	-0.03
465.481	-0
465.682	0
465.882	0.02
466.083	-0.01
466.283	0
466.483	0.03
466.684	-0.04
466.884	-0.03
467.085	-0.03
467.285	0.04
467.485	-0.03
467.686	0.01
467.886	-0.07
468.086	-0
468.286	0.04
468.487	-0.01
468.687	-0.07
468.887	0
469.087	0.02
469.287	0.04
469.488	-0.05
469.688	0.03
469.888	0.03
470.088	0.04
470.288	0.04
470.488	0.04
470.688	-0.02
470.888	-0
471.088	-0.04
471.288	0.03
471.488	-0
471.688	0
471.888	-0.02
472.088	0.05
472.288	0.03
472.488	-0.06
472.688	-0.01
472.888	-0.01
473.088	0.02
473.288	0.02
473.488	-0
473.688	0.06
473.887	0
474.087	0
474.287	0.04
474.487	-0.03
474.687	0.05
474.886	-0.04
475.086	0.01
475.286	0.03
475.486	0.03
475.685	-0.03
475.885	-0.01
476.085	-0.01
476.284	0.02
476.484	-0
476.684	0.02
476.883	0.07
477.083	0.03
477.282	-0.02
477.482	0.05
477.681	0.09
477.881	0.04
478.08	-0.01
478.28	-0.03
478.479	0.03
478.679	0.04
478.878	-0.03
479.078	-0.02
479.277	-0
479.477	-0
479.676	0.09
479.875	0.01
480.075	-0.04
480.274	0.03
480.473	0.02
480.673	-0.03
480.872	0.01
481.071	-0.01
481.271	0.01
481.47	0
481.669	-0
481.868	-0.01
482.067	-0.03
482.267	-0.04
482.466	-0.02
482.665	-0.02
482.864	-0.01
483.063	-0.03
483.262	0.02
483.461	0.06
483.661	0.02
483.86	-0
484.059	0
484.258	-0.02
484.457	0.02
484.656	0
484.855	0.04
485.054	-0.05
485.253	-0.02
485.452	-0.02
485.651	0.01
485.849	0.02
486.048	-0.03
486.247	-0.02
486.446	0.01
486.645	-0.03
486.844	-0.02
487.043	-0.02
487.241	0.03
487.44	-0.02
487.639	-0.01
487.838	0.03
488.037	0.01
488.235	0.06
488.434	0.01
488.633	-0.04
488.831	0
489.03	0.04
489.229	-0.01
489.427	-0.01
489.626	0.05
489.825	0.02
490.023	-0.01
490.222	-0.03
490.42	0.03
490.619	0.03
490.817	0.03
491.016	-0.01
491.214	0.02
491.413	-0.02
491.611	-0.02
491.81	-0
492.008	0.02
492.207	0.02
492.405	0
492.604	-0.06
492.802	0.01
493	-0.01
493.199	-0.04
493.397	0.02
493.595	-0.01
493.794	-0.01
493.992	0.04
494.19	-0.01
494.388	0.04
494.587	-0.01
494.785	0.01
494.983	-0.03
495.181	-0.01
495.379	-0.01
495.578	-0.03
495.776	0.04
495.974	0.01
496.172	0
496.37	-0.01
496.568	-0.02
496.766	-0
496.964	0.02
497.162	0.01
497.36	-0.02
497.558	0.01
497.756	0.03
497.954	-0
498.152	-0.03
498.35	-0
498.548	-0.01
498.746	-0.01
498.944	-0.04
499.142	-0
499.34	-0.04
499.538	0
499.736	-0.02
499.933	0.03
500.131	0.04
500.329	0.01
500.527	0.04
500.725	0.02
500.922	0.03
501.12	-0.01
501.318	0
501.516	-0.03
501.713	0.02
501.911	-0.01
502.109	-0.04
502.306	0.02
502.504	-0
502.701	-0.02
502.899	0
503.097	0.04
503.294	-0
503.492	-0.01
503.689	0.01
503.887	0.05
504.084	0.04
504.282	0.02
504.479	-0.02
504.677	0.02
504.874	-0.05
505.072	-0
505.269	-0.02
505.466	0.01
505.664	0.01
505.861	-0.02
506.059	-0.03
506.256	0.01
506.453	-0
506.651	0.06
506.848	0.03
507.045	0.04
507.242	0
507.44	-0.01
507.637	0.01
507.834	0.02
508.031	0.03
508.229	-0.02
508.426	0.04
508.623	0.04
508.82	-0.01
509.017	-0.02
509.214	-0.02
509.411	-0
509.608	-0.02
509.805	-0.01
510.003	-0.01
510.2	-0.02
510.397	0.02
510.594	-0.01
510.791	-0.01
510.988	0
511.184	0.06
511.381	0.01
511.578	-0.02
511.775	0.01
511.972	0
512.169	0.01
512.366	0.01
512.563	0.03
512.76	-0.02
512.956	0.02
513.153	0
513.35	0.02
513.547	-0.01
513.744	-0.02
513.94	-0.03
514.137	0
514.334	0.01
514.53	0.01
514.727	0.01
514.924	0.04
515.12	0
515.317	-0.03
515.514	-0.01
515.71	-0.02
515.907	0.01
516.103	-0
516.3	0.03
516.497	0.03
516.693	0.03
516.89	0
517.086	-0.02
517.283	0.02
517.479	0.01
517.676	0
517.872	0.02
518.068	-0.02
518.265	-0.01
518.461	-0.02
518.658	-0.01
518.854	0.02
519.05	-0.02
519.247	-0.01
519.443	0.01
519.639	0.02
519.836	0
520.032	0.01
520.228	0.02
520.424	0.04
520.621	0
520.817	-0.02
521.013	0.03
521.209	-0
521.405	0.04
521.601	0.01
521.798	0
521.994	0.03
522.19	-0.01
522.386	-0.05
522.582	0.01
522.778	0
522.974	0
523.17	-0.02
523.366	-0
523.562	0.02
523.758	-0.01
523.954	-0.01
524.15	-0
524.346	0.01
524.542	-0.02
524.738	-0.03
524.934	-0.01
525.129	-0.07
525.325	0.02
525.521	-0
525.717	0.02
525.913	0.01
526.109	0.01
526.304	-0
526.5	0.03
526.696	0.01
526.892	-0.01
527.087	0
527.283	-0
527.479	0.02
527.674	-0.01
527.87	-0.01
528.066	0.01
528.261	0
528.457	-0
528.653	-0.02
528.848	-0
529.044	-0
529.239	-0
529.435	0.02
529.63	0
529.826	0.03
530.021	0.01
530.217	0.03
530.412	-0.01
530.608	-0.01
530.803	-0
530.999	-0.01
531.194	-0.03
531.389	-0.01
531.585	-0.05
531.78	-0.01
531.975	-0
532.171	0.01
532.366	-0.03
532.561	0
532.757	-0.02
532.952	-0.02
533.147	0.03
533.342	-0.01
533.538	0
533.733	0.03
533.928	0.01
534.123	-0.02
534.318	-0.02
534.513	0.01
534.709	0
534.904	-0.02
535.099	0.01
535.294	-0.01
535.489	0.01
535.684	-0.01
535.879	0
536.074	0
536.269	0.01
536.464	0
536.659	0
536.854	0.01
537.049	0.02
537.244	0.01
537.439	-0
537.634	0.03
537.828	0.02
538.023	-0.01
538.218	-0.04
538.413	0.02
538.608	-0.03
538.803	0.03
538.997	-0.04
539.192	0.02
539.387	0.01
539.582	0.01
539.776	-0
539.971	0.01
540.166	0
540.36	-0.02
540.555	0.01
540.75	-0
540.944	-0
541.139	-0.02
541.334	-0.01
541.528	-0
541.723	0.02
541.917	-0.01
542.112	-0.05
542.306	-0.01
542.501	0.01
542.695	-0.01
542.89	-0.01
543.084	0.02
543.279	-0.01
543.473	0
543.668	0
543.862	-0
544.056	0.03
544.251	-0
544.445	0.01
544.64	-0.01
544.834	-0.01
545.028	0.01
545.222	0.01
545.417	0.03
545.611	-0
545.805	0.01
546	-0.01
546.194	0
546.388	-0.02
546.582	0.02
546.776	-0.01
546.97	-0.02
547.165	0.02
547.359	0.02
547.553	-0.03
547.747	0
547.941	0
548.135	-0.01
548.329	-0.01
548.523	0
548.717	-0
548.911	-0.01
549.105	-0.01
549.299	-0
549.493	0.03
549.687	0.02
549.881	0.02
550.075	-0
550.269	-0.05
550.463	0
550.657	-0.02
550.85	-0.01
551.044	-0
551.238	0.01
551.432	-0
551.626	-0.01
551.82	0.01
552.013	-0.01
552.207	0
552.401	0.01
552.594	0
552.788	-0.01
552.982	0
553.176	-0.01
553.369	0.02
553.563	0.01
553.756	-0.03
553.95	-0.04
554.144	0.01
554.337	0.04
554.531	0.01
554.724	0.01
554.918	-0
555.111	0.04
555.305	0.01
555.498	0.07
555.692	0.04
555.885	-0
556.079	-0.01
556.272	-0.01
556.466	0.02
556.659	0
556.852	-0.01
557.046	-0.01
557.239	0.02
557.432	-0.02
557.626	0.01
557.819	0
558.012	0.03
558.206	0.01
558.399	0
558.592	0.01
558.785	0.01
558.979	0
559.172	0
559.365	-0
559.558	0.02
559.751	0.01
559.944	0
560.138	-0
560.331	-0.01
560.524	-0.01
560.717	0.01
560.91	-0
561.103	0.01
561.296	0.02
561.489	0.02
561.682	0
561.875	0.05
562.068	0.01
562.261	0.01
562.454	0.02
562.647	0.02
562.84	0.01
563.032	-0
563.225	0.01
563.418	0
563.611	-0.01
563.804	-0
563.997	-0.03
564.19	-0.06
564.382	-0.06
564.575	-0.01
564.768	-0.01
564.961	-0
565.153	-0.03
565.346	0.01
565.539	0.03
565.731	0.02
565.924	0.04
566.117	0.03
566.309	0.01
566.502	-0.03
566.695	0.01
566.887	0.01
567.08	-0.01
567.272	-0.01
567.465	-0.01
567.657	0.01
567.85	0.02
568.042	0.02
568.235	0.04
568.427	-0.01
568.62	-0
568.812	0.02
569.005	0.02
569.197	-0.01
569.389	0.01
569.582	0.02
569.774	0.01
569.966	-0.01
570.159	-0.04
570.351	0.03
570.543	-0.02
570.736	0.01
570.928	-0.02
571.12	-0
571.312	-0.02
571.505	-0.02
571.697	0.02
571.889	-0.02
572.081	-0.01
572.273	-0.01
572.465	0.04
572.658	-0.01
572.85	-0
573.042	-0.01
573.234	0
573.426	0.03
573.618	-0.03
573.81	0.01
574.002	0.03
574.194	0.04
574.386	-0.03
574.578	-0.07
574.77	-0.02
574.962	-0
575.154	-0.05
575.346	0
575.538	0.01
575.729	-0.01
575.921	-0.02
576.113	0.01
576.305	0.04
576.497	0.01
576.689	-0.01
576.88	-0.02
577.072	0.03
577.264	0.01
577.456	0
577.647	-0.07
577.839	-0.01
578.031	0.05
578.223	-0.04
578.414	-0.03
578.606	0.02
578.798	0.03
578.989	-0.01
579.181	-0.02
579.372	0.02
579.564	-0.03
579.755	0.02
579.947	0.03
580.139	0.01
580.33	-0.06
580.522	-0.02
580.713	-0.07
580.905	-0.01
581.096	0.02
581.287	-0.03
581.479	-0
581.67	0.02
581.862	0.01
582.053	-0.01
582.244	-0.05
582.436	-0.02
582.627	-0.01
582.818	-0.03
583.01	-0.03
583.201	0.02
583.392	0.03
583.583	-0.01
583.775	-0.03
583.966	-0.01
584.157	-0
584.348	-0.02
584.54	-0.03
584.731	0.02
584.922	-0.01
585.113	-0.02
585.304	-0.01
585.495	0.04
585.686	0.01
585.877	0.01
586.068	-0.01
586.259	0.01
586.45	-0.01
586.641	-0.01
586.832	-0.04
587.023	0.01
587.214	0.01
587.405	0
587.596	-0.01
587.787	0.04
587.978	0
588.169	-0.04
588.36	-0.02
588.551	0.01
588.742	-0.01
588.932	0.02
589.123	-0
589.314	0.03
589.505	0.02
589.696	0.01
589.886	0.02
590.077	-0.03
590.268	0.01
590.458	-0.05
590.649	-0.03
590.84	0.03
591.03	0
591.221	-0.04
591.412	-0.03
591.602	-0.01
591.793	0.01
591.984	-0.04
592.174	-0.03
592.365	0.05
592.555	-0.02
592.746	0.01
592.936	0.02
593.127	0.03
593.317	0.03
593.508	-0.02
593.698	-0.01
593.889	0.01
594.079	-0.03
594.269	-0.03
594.46	0.03
594.65	-0.01
594.84	-0
595.031	-0.03
595.221	-0.01
595.411	-0.01
595.602	-0.01
595.792	-0
595.982	-0.02
596.172	0.04
596.363	0.01
596.553	-0
596.743	0.01
596.933	0.01
597.123	0.03
597.314	-0.03
597.504	-0.02
597.694	0.05
597.884	0.02
598.074	-0.03
598.264	-0.04
598.454	0.01
598.644	-0.01
598.834	0.02
599.024	-0.02
599.214	-0.01
599.404	0.05
599.594	-0
599.784	-0.02
599.974	0.04
600.164	0.03
600.354	-0.01
600.544	-0.06
600.734	0.01
600.924	0.03
601.114	-0.03
601.303	-0.01
601.493	0.01
601.683	0
601.873	0
602.063	-0.05
602.252	0.03
602.442	-0.05
602.632	-0.02
602.821	-0.02
603.011	0.01
603.201	-0.02
603.39	-0.02
603.58	-0
603.77	0.02
603.959	0.05
604.149	0
604.339	0.02
604.528	0.01
604.718	0
604.907	-0.02
605.097	-0
605.286	-0.04
605.476	-0.01
605.665	0.03
605.855	-0.01
606.044	0.03
606.234	0.04
606.423	-0.02
606.612	-0.04
606.802	0.01
606.991	0.03
607.181	0
607.37	-0.07
607.559	0.02
607.749	-0.02
607.938	0
608.127	-0.01
608.316	-0
608.506	0.02
608.695	0.01
608.884	-0.01
609.073	-0
609.263	0.03
609.452	0.03
609.641	0.01
609.83	-0.04
610.019	-0.02
610.208	-0.02
610.397	0
610.586	0
610.775	-0
610.965	-0.01
611.154	-0.02
611.343	0
611.532	0.02
611.721	-0.02
611.91	-0.02
612.099	0.02
612.287	0.01
612.476	-0.04
612.665	-0.02
612.854	-0.01
613.043	0.06
613.232	-0.01
613.421	-0.04
613.61	0.05
613.798	-0.04
613.987	0.03
614.176	0.02
614.365	0.05
614.554	0.03
614.742	0.02
614.931	-0.02
615.12	0.02
615.309	-0.01
615.497	0.04
615.686	-0.02
615.875	-0.01
616.063	0
616.252	-0.03
616.44	-0.01
616.629	0.01
616.818	0.04
617.006	-0.01
617.195	-0.03
617.383	0.03
617.572	0.02
617.76	-0
617.949	-0.02
618.137	0.01
618.326	0.06
618.514	-0.03
618.703	-0.02
618.891	0.05
619.079	-0.04
619.268	-0
619.456	-0.02
619.644	0.03
619.833	0
620.021	-0.01
620.209	-0.06
620.398	0.02
620.586	0.02
620.774	0
620.962	-0.02
621.151	0.07
621.339	-0
621.527	-0.01
621.715	-0.03
621.903	-0.01
622.092	-0.02
622.28	0.02
622.468	0.01
622.656	0
622.844	0.01
623.032	-0.02
623.22	-0.06
623.408	0.02
623.596	-0
623.784	0.01
623.972	-0
624.16	-0.03
624.348	0.03
624.536	-0
624.724	0.01
624.912	0.06
625.1	0.02
625.288	-0.02
625.476	-0.01
625.664	0.04
625.851	-0.02
626.039	-0
626.227	0.01
626.415	-0.02
626.603	-0.05
626.79	0
626.978	0.01
627.166	0.01
627.354	-0.03
627.541	-0.02
627.729	-0.04
627.917	0.03
628.104	0.02
628.292	0.02
628.48	0
628.667	0.01
628.855	0.03
629.042	-0.01
629.23	-0.01
629.418	-0.03
629.605	0.01
629.793	-0.03
629.98	-0.02
630.168	-0.03
630.355	0.01
630.543	0.02
630.73	-0.02
630.917	0.03
631.105	0.06
631.292	-0.04
631.48	-0.01
631.667	0.05
631.854	0.01
632.042	-0.02
632.229	-0.06
632.416	-0.01
632.604	-0.04
632.791	-0.05
632.978	0.03
633.165	0.03
633.353	0.07
633.54	0.04
633.727	-0.06
633.914	-0.01
634.101	0.01
634.289	0.03
634.476	-0.02
634.663	-0.02
634.85	-0
635.037	-0.04
635.224	-0.07
635.411	0.03
635.598	0.04
635.785	-0.01
635.972	0
636.159	0.03
636.346	-0.04
636.533	0.01
636.72	-0.03
636.907	-0
637.094	0.04
637.281	0.01
637.468	-0.01
637.655	-0.04
637.842	0
638.029	0
638.215	0.05
638.402	0.04
638.589	-0.02
638.776	-0.02
638.963	-0.01
639.149	0.03
639.336	0.08
639.523	-0.01
639.709	0.01
639.896	0
640.083	0.05
640.27	0.03
640.456	-0.04
640.643	0.04
640.829	-0.07
641.016	-0.01
641.203	-0.03
641.389	0.02
641.576	0.02
641.762	0
641.949	-0.01
642.135	0.04
642.322	0.02
642.508	-0.04
642.695	0.01
642.881	-0
643.068	0.01
643.254	-0.02
643.441	0.06
643.627	-0.01
643.813	-0.01
644	0.05
644.186	-0.03
644.372	-0.05
644.559	0.07
644.745	0.02
644.931	0.02
645.118	-0
645.304	0.01
645.49	-0.02
645.676	-0.03
645.862	0
646.049	0.05
646.235	0
646.421	0.05
646.607	0.07
646.793	-0.03
646.979	-0
647.165	0.01
647.352	0.01
647.538	0.06
647.724	-0
647.91	0.01
648.096	0.04
648.282	0.04
648.468	0
648.654	0
648.84	0.03
649.026	0.02
649.212	0
649.397	-0.04
649.583	-0.04
649.769	0.05
649.955	-0.01
650.141	0.01
650.327	0.05
650.513	-0.03
650.698	0.05
650.884	-0.05
651.07	0.05
651.256	0.01
651.442	0.02
651.627	-0.02
651.813	0.04
651.999	0.04
652.184	0.02
652.37	0.01
652.556	-0.05
652.741	0.06
652.927	-0.06
653.113	0.01
653.298	0.03
653.484	-0.02
653.669	-0.05
653.855	-0.01
654.04	0.02
654.226	-0.02
654.412	-0.04
654.597	-0.04
654.782	0.03
654.968	0.04
655.153	0.04
655.339	0.01
655.524	-0.03
655.71	0.04
655.895	-0.02
656.08	0.01
656.266	0.05
656.451	0.03
656.636	-0.02
656.822	0.03
657.007	0
657.192	0
657.378	-0.04
657.563	0
657.748	0.04
657.933	0.04
658.118	0.02
658.304	0.01
658.489	0.04
658.674	0.04
658.859	0
659.044	0.05
659.229	0.02
659.414	-0
659.599	0.04
659.785	-0.03
659.97	-0.01
660.155	0.08
660.34	0.05
660.525	0.03
660.71	0.01
660.895	0.09
661.08	0.01
661.264	0.02
661.449	0.07
661.634	0.1
661.819	0.04
662.004	0.01
662.189	-0.02
662.374	-0.01
662.559	-0
662.743	-0.05
662.928	0.01
663.113	-0
663.298	-0.03
663.483	0.01
663.667	0.06
663.852	-0.02
664.037	0.09
664.221	-0.01
664.406	0.05
664.591	0.07
664.775	0.04
664.96	0.04
665.145	0.04
665.329	0.04
665.514	-0
665.698	0.06
665.883	-0.03
666.068	0.07
666.252	0.02
666.437	-0.01
666.621	0.04
666.806	0.05
666.99	0.02
667.174	-0
667.359	0.1
667.543	0.01
667.728	0.02
667.912	-0
668.096	0.05
668.281	-0
668.465	0.01
668.649	0.03
668.834	-0.04
669.018	0.04
669.202	0
669.387	0.01
669.571	0.09
669.755	0.05
669.939	0.01
670.124	0.04
670.308	0.07
670.492	0.07
670.676	0.05
670.86	0.05
671.044	0.02
671.228	0.07
671.413	0.01
671.597	0.04
671.781	-0.02
671.965	0.07
672.149	0.03
672.333	0.06
672.517	0.02
672.701	0.06
672.885	0.04
673.069	-0.03
673.253	0.13
673.437	0.04
673.621	0.05
673.804	0.05
673.988	0.04
674.172	0.06
674.356	-0.02
674.54	0.03
674.724	0.09
674.908	0.06
675.091	0.09
675.275	0.04
675.459	0.11
675.643	0.13
675.826	0.1
676.01	0.11
676.194	0.08
676.377	0.11
676.561	0.12
676.745	0.07
676.928	0.07
677.112	0.09
677.296	0.06
677.479	0.07
677.663	0.06
677.846	0.09
678.03	0.08
678.213	0.05
678.397	0.09
678.58	0.09
678.764	0.06
678.947	0.06
679.131	0.06
679.314	0.15
679.498	0.1
679.681	0.1
679.865	0.1
680.048	0.11
680.231	0.11
680.415	0.1
680.598	0.07
680.781	0.08
680.965	0.09
681.148	0.11
681.331	0.11
681.514	0.13
681.698	0.07
681.881	0.13
682.064	0.09
682.247	0.1
682.43	0.07
682.614	0.15
682.797	0.19
682.98	0.13
683.163	0.1
683.346	0.13
683.529	0.13
683.712	0.12
683.895	0.15
684.078	0.11
684.261	0.14
684.444	0.17
684.627	0.16
684.81	0.07
684.993	0.14
685.176	0.19
685.359	0.11
685.542	0.13
685.725	0.22
685.908	0.2
686.091	0.14
686.274	0.21
686.457	0.2
686.639	0.17
686.822	0.2
687.005	0.2
687.188	0.19
687.371	0.22
687.553	0.2
687.736	0.19
687.919	0.27
688.102	0.24
688.284	0.23
688.467	0.18
688.65	0.22
688.832	0.18
689.015	0.25
689.197	0.18
689.38	0.34
689.563	0.28
689.745	0.18
689.928	0.21
690.11	0.25
690.293	0.28
690.475	0.17
690.658	0.26
690.84	0.25
691.023	0.25
691.205	0.19
691.388	0.24
691.57	0.32
691.752	0.3
691.935	0.2
692.117	0.27
692.3	0.27
692.482	0.28
692.664	0.27
692.847	0.3
693.029	0.35
693.211	0.37
693.393	0.28
693.576	0.31
693.758	0.29
693.94	0.3
694.122	0.34
694.304	0.32
694.487	0.32
694.669	0.43
694.851	0.31
695.033	0.42
695.215	0.36
695.397	0.33
695.579	0.4
695.761	0.33
695.943	0.36
696.125	0.45
696.308	0.48
696.49	0.33
696.671	0.52
696.853	0.39
697.035	0.61
697.217	0.4
697.399	0.48
697.581	0.42
697.763	0.49
697.945	0.4
698.127	0.53
698.309	0.55
698.491	0.53
698.672	0.56
698.854	0.49
699.036	0.57
699.218	0.54
699.399	0.58
699.581	0.59
699.763	0.56
699.945	0.5
700.126	0.51
700.308	0.57
700.49	0.61
700.671	0.55
700.853	0.52
701.035	0.62
701.216	0.61
701.398	0.64
701.579	0.65
701.761	0.66
701.943	0.61
702.124	0.65
702.306	0.69
702.487	0.81
702.669	0.7
702.85	0.74
703.031	0.68
703.213	0.82
703.394	0.82
703.576	0.78
703.757	0.93
703.938	0.86
704.12	0.97
704.301	0.81
704.483	0.84
704.664	0.88
704.845	1.03
705.026	0.95
705.208	0.91
705.389	0.91
705.57	0.94
705.751	1.01
705.933	1.02
706.114	1.08
706.295	1.04
706.476	0.99
706.657	1.15
706.838	1.09
707.02	1.06
707.201	1.01
707.382	1.16
707.563	1.14
707.744	1.07
707.925	1.2
708.106	1.14
708.287	1.24
708.468	1.28
708.649	1.24
708.83	1.27
709.011	1.3
709.192	1.36
709.373	1.27
709.554	1.33
709.734	1.46
709.915	1.42
710.096	1.43
710.277	1.35
710.458	1.55
710.639	1.48
710.819	1.43
711	1.49
711.181	1.62
711.362	1.7
711.542	1.64
711.723	1.72
711.904	1.84
712.085	1.65
712.265	1.67
712.446	1.57
712.627	1.77
712.807	1.77
712.988	1.85
713.168	1.74
713.349	1.92
713.53	1.71
713.71	1.98
713.891	1.9
714.071	1.95
714.252	2.13
714.432	2.03
714.613	2.02
714.793	2.21
714.974	2.31
715.154	2.26
715.334	2.35
715.515	2.34
715.695	2.19
715.876	2.37
716.056	2.37
716.236	2.35
716.417	2.45
716.597	2.5
716.777	2.73
716.957	2.59
717.138	2.75
717.318	2.61
717.498	2.66
717.678	2.72
717.859	2.76
718.039	2.86
718.219	2.91
718.399	2.95
718.579	2.92
718.759	3.02
718.939	3.12
719.12	3.16
719.3	3.17
719.48	3.11
719.66	3.13
719.84	3.44
720.02	3.4
720.2	3.33
720.38	3.43
720.56	3.68
720.74	3.63
720.92	3.64
721.1	3.8
721.279	3.85
721.459	3.72
721.639	3.86
721.819	4
721.999	4.04
722.179	4.12
722.359	4.03
722.538	4.21
722.718	4.28
722.898	4.35
723.078	4.37
723.257	4.33
723.437	4.65
723.617	4.77
723.797	4.67
723.976	4.69
724.156	4.95
724.336	4.95
724.515	5.1
724.695	4.94
724.874	5.01
725.054	5.22
725.234	5.11
725.413	5.32
725.593	5.3
725.772	5.43
725.952	5.56
726.131	5.46
726.311	5.54
726.49	5.8
726.67	5.74
726.849	5.73
727.028	5.82
727.208	5.8
727.387	6.06
727.567	6.1
727.746	6.14
727.925	6.28
728.105	6.17
728.284	6.33
728.463	6.37
728.643	6.52
728.822	6.61
729.001	6.56
729.18	6.7
729.359	6.8
729.539	7.02
729.718	6.9
729.897	7.08
730.076	7.09
730.255	7.08
730.434	7.49
730.614	7.47
730.793	7.56
730.972	7.6
731.151	7.67
731.33	7.81
731.509	7.77
731.688	7.84
731.867	8.01
732.046	7.94
732.225	8.22
732.404	8.18
732.583	8.31
732.762	8.64
732.941	8.59
733.12	8.75
733.298	8.74
733.477	8.93
733.656	8.83
733.835	8.87
734.014	9.13
734.193	8.98
734.371	9.16
734.55	9.23
734.729	9.14
734.908	9.37
735.086	9.44
735.265	9.42
735.444	9.18
735.623	9.39
735.801	9.61
735.98	9.6
736.159	9.56
736.337	9.59
736.516	9.56
736.694	9.55
736.873	9.64
737.052	9.85
737.23	9.54
737.409	9.41
737.587	9.72
737.766	9.44
737.944	9.38
738.123	9.5
738.301	9.52
738.479	9.47
738.658	9.25
738.836	8.96
739.015	9.01
739.193	8.9
739.371	8.71
739.55	8.46
739.728	8.33
739.906	8.55
740.085	8.53
740.263	8.15
740.441	7.68
740.62	8.12
740.798	7.75
740.976	7.37
741.154	7.01
741.332	7.4
741.511	6.91
741.689	6.85
741.867	6.68
742.045	6.42
742.223	6.16
742.401	6.07
742.579	5.89
742.757	6.01
742.935	5.34
743.114	5.31
743.292	5.27
743.47	5.1
743.648	5.08
743.826	4.97
744.004	4.67
744.181	4.65
744.359	4.38
744.537	4.4
744.715	4.11
744.893	4.05
745.071	3.89
745.249	3.79
745.427	3.62
745.605	3.7
745.782	3.36
745.96	3.46
746.138	3.42
746.316	3.18
746.493	2.88
746.671	2.85
746.849	2.78
747.027	2.92
747.204	2.55
747.382	2.6
747.56	2.27
747.737	2.41
747.915	2.19
748.093	2.19
748.27	2.07
748.448	2.13
748.625	1.76
748.803	1.84
748.98	1.85
749.158	1.8
749.335	1.78
749.513	1.75
749.69	1.67
749.868	1.48
750.045	1.62
750.223	1.46
750.4	1.34
750.578	1.59
750.755	1.44
750.932	1.22
751.11	1.46
751.287	1.19
751.464	1.35
751.642	1.03
751.819	1.09
751.996	1.18
752.173	1.09
752.351	1
752.528	1.04
752.705	0.9
752.882	0.98
753.06	1.06
753.237	1.01
753.414	1.06
753.591	1.03
753.768	0.9
753.945	0.79
754.122	0.7
754.299	0.82
754.476	0.69
754.654	0.77
754.831	0.91
755.008	0.75
755.185	0.67
755.362	0.51
755.539	0.63
755.716	0.44
755.892	0.53
756.069	0.67
756.246	0.52
756.423	0.66
756.6	0.73
756.777	0.46
756.954	0.47
757.131	0.45
757.307	0.39
757.484	0.29
757.661	0.39
757.838	0.44
758.015	0.38
758.191	0.45
758.368	0.52
758.545	0.57
758.721	0.39
758.898	0.31
759.075	0.44
759.251	0.36
759.428	0.48
759.605	0.2
759.781	0.27
759.958	0.38
760.134	0.44
760.311	0.27
760.488	0.47
760.664	0.29
760.841	0.32
761.017	0.21
761.194	0.39
761.37	0.31
761.547	0.33
761.723	0.17
761.899	0.35
762.076	0.08
762.252	0.09
762.429	0.24
762.605	0.4
762.781	0.15
762.958	0.34
763.134	0.16
763.31	0.09
763.486	0.32
763.663	0.04
763.839	0.27
764.015	0.06
764.191	0.07
764.368	0.15
764.544	0.1
764.72	0.22
764.896	0.24
765.072	0.21
765.248	0.06
765.425	0.08
765.601	0.1
765.777	0.07
765.953	-0.07
766.129	0.1
766.305	0.15
766.481	0.12
766.657	0.17
766.833	0.42
767.009	0.02
767.185	-0.03
767.361	0.1
767.537	0.04
767.713	0.26
767.889	0.1
768.065	0.11
768.24	0.23
768.416	0.21
768.592	0.05
768.768	0.15
768.944	0.02
769.12	-0.07
769.295	-0.08
769.471	0.03
769.647	0.05
769.823	0.24
769.998	0.01
770.174	-0.01
770.35	0.35
770.525	0.43
770.701	0.08
770.877	0.1
771.052	0.03
771.228	0.15
771.403	0.13
771.579	0.2
771.755	0.25
771.93	-0.08
772.106	-0.07
772.281	-0.11
772.457	0.16
772.632	0.15
772.808	0.02
772.983	-0.04
773.159	-0.07
773.334	0.27
773.509	0.05
773.685	-0.02
773.86	0.36
774.036	0.28
774.211	-0
774.386	-0.1
774.562	0.1
774.737	0.08
774.912	0.03
775.087	0.18
775.263	0.08
775.438	0.26
775.613	-0.08
775.788	-0.06
775.964	0.14
776.139	0.39
776.314	-0.13
776.489	0.12
776.664	0.07
776.839	-0.11
777.014	0.07
777.19	0.08
777.365	0.28
777.54	0.31
777.715	-0.13
777.89	0.2
778.065	-0.07
778.24	0.08
778.415	0.21
778.59	-0
778.765	-0.05
778.94	0.18
779.115	-0.02
779.289	-0.02
779.464	-0.05
779.639	0.1
779.814	-0.16
779.989	-0.09
780.164	0.27
780.339	0.17
780.513	-0.05
780.688	-0.23
780.863	0.1
781.038	0.17
781.212	0.04
781.387	0.16
781.562	0.33
781.737	-0.06
781.911	0.4
782.086	0.13
782.261	0.04
782.435	0.22
782.61	-0.03
782.784	0.15
782.959	0.29
783.134	0.11
783.308	-0.12
783.483	0.08
783.657	0.32
783.832	0.27
784.006	-0.33
784.181	-0.08
784.355	0.12
784.53	-0.29
784.704	-0.01
784.878	0.32
785.053	0.12
785.227	0.07
785.402	0.3
785.576	-0.19
785.75	-0.05
785.925	-0.07
786.099	0.21
786.273	0.18
786.448	0.16
786.622	0.16
786.796	0.02
786.97	0.11
787.145	0.57
787.319	-0.26
787.493	-0.05
787.667	-0.18
787.841	0.2
788.015	0.16
788.19	-0.14
788.364	0.11
788.538	0.32
788.712	0.2
788.886	-0
789.06	0.24
789.234	0.13
789.408	-0.26
789.582	0.03
789.756	0.03
789.93	-0.18
790.104	-0.06
790.278	-0.29
790.452	-0.05
790.626	0.35
790.8	-0.02
790.973	0.32
791.147	0.32
791.321	0.3
791.495	0.18
791.669	0.33
791.843	0.13
792.016	0.01
792.19	0.56
792.364	-0.05
792.538	0.47
792.711	0.24
792.885	0.03
793.059	-0.09
793.233	-0.3
793.406	0.35
793.58	0.04
793.754	-0.01
793.927	0.04
794.101	0.35
794.274	-0.02
794.448	0.36
794.622	-0.13
794.795	0.27
794.969	0.14
795.142	0.55
795.316	0.11
795.489	-0.18
795.663	0.47
795.836	-0.03
796.009	0.17
796.183	0.31
796.356	0.24
796.53	0.11
796.703	-0.01
796.876	0.52
797.05	0.04
797.223	0.16
797.396	0.23
797.57	0.28
797.743	0.31
797.916	0.3
798.09	0.28
798.263	0.38
798.436	0.17
798.609	0.08
798.782	-0.26
798.956	0.02
799.129	0.22
799.302	0.2
799.475	-0.06
799.648	0.12
799.821	-0.02
799.994	0
800.167	-0.39
800.34	0.22
800.514	0.02
800.687	0.18
800.86	-0.02
801.033	-0.06
801.206	0.04
801.379	-0.16
801.551	0.38
801.724	0.44
801.897	0.33
802.07	0.01
802.243	-0.66
802.416	0.1
802.589	0.09
802.762	-0.08
802.935	0.07
803.107	0.17
803.28	0.36
803.453	0.37
803.626	-0.08
803.798	0.09
803.971	-0.31
804.144	0.15
804.317	0.07
804.489	0.41
804.662	-0.06
804.835	0.27
805.007	-0
805.18	0.63
805.353	0.35
805.525	-0.17
805.698	-0.34
805.87	0.34
806.043	-0.03
806.215	-0.13
806.388	-0.23
806.56	0.01
806.733	0.19
806.905	0.16
807.078	-0.16
807.25	-0.01
807.423	0.33
807.595	0.09
807.768	0.18
807.94	0.47
808.112	0.28
808.285	0.08
808.457	0.06
808.629	-0.13
808.802	0.22
808.974	0.34
809.146	-0.13
809.318	-0.39
809.491	-0.11
809.663	0.47
809.835	0.04
810.007	0.07
810.18	0.17
810.352	-0.3
810.524	-0.06
810.696	-0.04
810.868	0.38
811.04	-0.03
811.212	0.05
811.384	0.49
811.556	0.35
811.728	0.1
811.901	0.84
812.073	-0.05
812.245	0.24
812.417	-0.15
812.589	-0.47
812.76	0.29
812.932	0.35
813.104	0.43
813.276	0.05
813.448	0.34
813.62	-0.01
813.792	-0.01
813.964	0.08
814.136	0.36
814.307	-0.52
814.479	-0.16
814.651	-0.02
814.823	0.85
814.995	0.07
815.166	0.2
815.338	-0.15
815.51	-0.71
815.681	0.67
815.853	0.29
816.025	0.01
816.196	0.36
816.368	0.18
816.54	-0.1
816.711	-0.55
816.883	0.14
817.054	0.88
817.226	-0.34
817.398	0.12
817.569	-0.27
817.741	0.27
817.912	-0.06
818.084	-0.34
818.255	0.3
818.426	0.37
818.598	0.18
818.769	0.01
818.941	0.16
819.112	0.67
819.283	0.72
819.455	-0.21
819.626	0.56
819.798	0.19
819.969	0.63
820.14	-0.19
820.311	-0.05
820.483	0.23
820.654	0.4
820.825	0.13
820.996	-0.14
821.168	-0.1
821.339	-0.28
821.51	-0.1
821.681	0.88
821.852	-0.29
822.023	-0.38
822.195	-0.38
822.366	0.49
822.537	0.02
822.708	0.22
822.879	-0.08
823.05	0.63
823.221	0.03
823.392	0.17
823.563	0.56
823.734	0.18
823.905	-0.15
824.076	-0.59
824.247	-0.48
824.418	-0.11
824.589	0.71
824.759	0.06
824.93	0.13
825.101	-0.16
825.272	1.24
825.443	0.56
825.614	0.33
825.784	-0.74
825.955	0.91
826.126	0.28
826.297	0.23
826.467	0.42
826.638	0.55
826.809	-1.17
826.98	0.41
827.15	0.4
827.321	0.14
827.492	1.2
827.662	0.16
827.833	1.1
828.003	0.41
828.174	-0.06
828.345	-0.07
828.515	0.58
828.686	0.49
828.856	-0.18
829.027	0.35
829.197	0.24
829.368	-0.01
829.538	0.12
829.709	0.12
829.879	0.33
830.049	0.19
830.22	0.17
830.39	0.1
830.56	0.35
830.731	0.21
830.901	-0.22
831.072	0.24
831.242	0.54
831.412	0.4
831.582	0.05
831.753	-0.63
831.923	0.84
832.093	-0.35
832.263	0.31
832.434	-0.54
832.604	0.06
832.774	0.49
832.944	-0.37
833.114	0.18
833.284	0.58
833.454	-0.65
833.624	-0.15
833.795	-0.45
833.965	0.61
834.135	0.5
834.305	-1.13
834.475	-0.61
834.645	0.14
834.815	-0.18
834.985	-0.2
835.155	-0.37
835.325	0.35
835.494	0.68
835.664	0.04
835.834	-0.5
836.004	0.27
836.174	0.63
836.344	0.74
836.514	-0.73
836.684	-0.52
836.853	0.7
837.023	0.61
837.193	-0.06
837.363	0.69
837.532	0.79
837.702	-0.13
837.872	-0.54
838.041	1.17
838.211	0.91
838.381	-0.41
838.55	0.3
838.72	1.26
838.89	1.23
839.059	0.37
839.229	-0.48
839.398	0.92
839.568	0.57
839.738	-0.19
839.907	0.67
840.077	0.23
840.246	0.34
840.416	0.1
840.585	-0.3
840.755	1.43
840.924	1.73
841.093	-0.61
841.263	-0.44
841.432	0.25
841.602	-0.75
841.771	-0.09
841.94	0.28
842.11	1.45
842.279	1.43
842.448	-0.42
842.617	-0.38
842.787	1.12
842.956	-0.44
843.125	0.52
843.294	0.03
843.464	0.47
843.633	-0.04
843.802	-0.81
843.971	-0.22
844.14	0.48
844.309	0.81
844.479	0.44
844.648	-0.62
844.817	-0.14
844.986	0.06
845.155	-0.35
845.324	-0.4
845.493	-0.22
845.662	-0.34
845.831	0.28
846	0.75
846.169	-0.41
846.338	0.85
846.507	1.06
846.676	1.22
846.844	0.37
847.013	0.4
847.182	0.23
847.351	-0.25
847.52	0.29
847.689	0.39
847.858	-0.01
848.026	-0.54
848.195	0.29
848.364	0.13
848.533	-0.63
848.701	-0.75
848.87	0.09
849.039	0.98
849.207	0.67
849.376	0.91
849.545	1.02
849.713	-0.46
849.882	0.23
850.051	0.02
850.219	0.39
850.388	0.97
850.556	-0.92
850.725	0.15
850.893	-0.91
851.062	-0.42
851.23	1.09
851.399	-1.07
851.567	-0.1
851.736	0.17
851.904	-0.61
852.073	0.58
852.241	0.71
852.41	1.1
852.578	-0.86
852.746	-0.94
852.915	1.2
853.083	-0.92
853.251	-1.45
853.42	0.43
853.588	-0.26
853.756	2.61
853.924	-0.09
854.093	0.08
854.261	-1.09
854.429	-0.41
854.597	0.41
854.765	-1.24
854.934	0.54
855.102	1.51
855.27	0.2
855.438	0.49
855.606	1.55
855.774	0.9
855.942	-1.2
856.11	-1.66
856.278	0.38
856.446	1.21
856.614	-0.06
856.782	-1.02
856.95	0.66
857.118	1.9
857.286	1.04
857.454	-0.41
857.622	1.89
857.79	1.05
857.958	-0.75
858.126	0.29
858.294	-3.01
858.462	0.51
858.629	-0.44
858.797	-0.54
858.965	0.58
859.133	1.1
859.301	-0.05
859.468	1.04
859.636	-1.26
859.804	1.87
859.971	-0.05
860.139	-0.64
860.307	-0.21
860.474	1.12
860.642	-0.23
860.81	-0.39
860.977	-0.02
861.145	0.23
861.313	-0.63
861.48	0.27
861.648	0.97
861.815	-0.31
861.983	-0.46
862.15	-0.27
862.318	1.82
862.485	1.54
862.653	-0.39
862.82	-0.77
862.988	2.7
863.155	1.04
863.322	-0.23
863.49	-1.37
863.657	-0.63
863.824	2.7
863.992	1.26
864.159	0.08
864.326	1.65
864.494	-0.67
864.661	4.07
864.828	-0.44
864.996	1.86
865.163	2.21
865.33	0.26
865.497	-2.44
865.664	0.2
865.832	-0.54
865.999	0.05
866.166	-1.62
866.333	-0.63
866.5	-0.07
866.667	1.75
866.834	1.45
867.001	2.25
867.168	-0.35
867.335	0.14
867.502	-0.72
867.669	0.78
867.836	3.02
868.003	0.33
868.17	1.24
868.337	-0.29
868.504	1.27
868.671	-0.63
868.838	0.36
869.005	0.86
869.172	0.76
869.339	1.07
869.505	1.1
869.672	1.42
869.839	1.3
870.006	1.46
870.173	0.69
870.339	0.97
870.506	2.28
870.673	-0.15
870.84	2.05
871.006	1.18
871.173	1.25
871.34	0.34
871.506	-0.52
871.673	0.63
871.839	-1.04
872.006	1.45
872.173	-0.04
872.339	1.2
872.506	2.33
872.672	1.44
872.839	-1.07
873.005	1.01
873.172	3.39
873.338	2.68
873.505	1.17
873.671	2.16
873.838	0.84
874.004	-2.1
874.171	0.85
874.337	0.97
874.503	2.91
874.67	0.54
874.836	0.1
875.002	3.21
875.169	3.31
875.335	1.28
875.501	0.43
875.668	2.05
875.834	0.83
876	0.85
876.166	3.1
876.332	1.73
876.499	3.08
876.665	0.03
876.831	0.81
876.997	3.23
877.163	1.33
877.329	0.27
877.495	-0.28
877.662	3.2
877.828	2.14
877.994	0.45
878.16	-2.72
878.326	-0.56
878.492	0.16
878.658	0.29
878.824	0.05
878.99	1.7
879.156	-1.18
879.322	3.8
879.487	-0.1
879.653	1.21
879.819	0.23
879.985	-0.86
880.151	2.66
880.317	1.9
880.483	-0.46
880.648	1.04
880.814	-1.48
880.98	0.1
881.146	-0.46
881.312	-0.23
881.477	-1.21
881.643	0.52
881.809	2.85
881.974	4.79
882.14	-0.5
882.306	1.59
882.471	5.51
882.637	0.01
882.803	2.97
882.968	2.55
883.134	3.9
883.299	-0.19
883.465	-0.44
883.63	1.69
883.796	2.12
883.961	2.16
884.127	1.7
884.292	-3.14
884.458	-0.91
884.623	-0.91
