Data from Apollo_Calib_20240827__AbsoluteIrradiance__211__02-40-02-183.txt Node

Date: Wed Aug 28 02:40:02 BST 2024
User: biology
Spectrometer: FLMT08252
Trigger mode: 0
Integration Time (sec): 5.000000E-1
Scans to average: 5
Electric dark correction enabled: true
Nonlinearity correction enabled: false
Boxcar width: 0
XAxis mode: Wavelengths
Number of Pixels in Spectrum: 3648
>>>>>Begin Spectral Data<<<<<
179.588	-0
179.809	-0
180.03	-0
180.251	-0
180.473	-0
180.694	0
180.915	0
181.136	-0
181.357	0
181.578	0
181.799	0
182.02	-0
182.241	-0
182.462	-0
182.683	0
182.904	-0
183.125	-0
183.346	0
183.567	0
183.788	0
184.009	-0
184.23	0
184.451	0
184.672	-0
184.892	-0
185.113	0
185.334	0
185.555	-0
185.776	-0
185.996	0
186.217	0
186.438	0
186.659	-0
186.879	0
187.1	-0
187.321	-0
187.541	-0
187.762	0
187.983	0
188.203	-0
188.424	-0
188.644	0
188.865	0
189.086	-0
189.306	-0
189.527	0
189.747	0
189.968	-0
190.188	0
190.409	0
190.629	0
190.849	-0
191.07	-0
191.29	0
191.511	0
191.731	-0
191.951	-0
192.172	0
192.392	0
192.612	-0
192.833	-0
193.053	0
193.273	0
193.493	-0
193.714	0
193.934	0
194.154	0
194.374	-0
194.594	0
194.815	-0
195.035	-0
195.255	0
195.475	-0
195.695	0
195.915	0
196.135	-0
196.355	0
196.575	0
196.795	0
197.015	-0
197.235	-0
197.455	-0
197.675	0
197.895	-0
198.115	0
198.335	0
198.555	-0
198.775	0
198.995	0
199.214	0
199.434	0
199.654	-0
199.874	-0
200.094	1.41
200.313	-0.01
200.533	-0.38
200.753	-0.31
200.973	0.92
201.192	0.34
201.412	-0.67
201.632	-0.73
201.851	1
202.071	-0.22
202.291	-0.39
202.51	-0.49
202.73	0.37
202.95	-0.3
203.169	-0.4
203.389	-0.02
203.608	0.24
203.828	-0.1
204.047	-0.05
204.267	0.29
204.486	0.09
204.706	0.39
204.925	0.05
205.145	0.04
205.364	0.61
205.583	0.69
205.803	-0.03
206.022	-0.16
206.242	-0.16
206.461	-0.02
206.68	-0.01
206.9	0.06
207.119	0.65
207.338	0.36
207.557	-0.19
207.777	0.02
207.996	0.09
208.215	0.47
208.434	-0.13
208.654	-0.5
208.873	0.32
209.092	0.67
209.311	-0.12
209.53	0.24
209.749	-0.27
209.968	-0.04
210.187	0.03
210.407	-0.21
210.626	-0.04
210.845	0.41
211.064	0.29
211.283	-0.14
211.502	0.38
211.721	0.13
211.94	0.15
212.159	0.34
212.377	0.43
212.596	0.55
212.815	0.05
213.034	0.2
213.253	0.32
213.472	0.19
213.691	-0.11
213.91	-0.25
214.128	0.03
214.347	0.54
214.566	-0.26
214.785	-0.35
215.003	0.15
215.222	0.36
215.441	-0
215.66	-0.22
215.878	0.01
216.097	0.31
216.316	-0.16
216.534	0.01
216.753	0.04
216.972	-0.01
217.19	0.21
217.409	-0.24
217.627	-0.12
217.846	-0.06
218.064	-0.02
218.283	-0.11
218.501	0.53
218.72	0.28
218.938	-0.19
219.157	-0.04
219.375	0.26
219.594	0.13
219.812	-0.16
220.031	-0.2
220.249	0.46
220.467	0.45
220.686	-0.14
220.904	-0.07
221.122	-0.06
221.341	0.43
221.559	-0.02
221.777	-0.2
221.995	0.25
222.214	0.27
222.432	-0.06
222.65	0.2
222.868	0.14
223.086	0.14
223.305	0.19
223.523	0.02
223.741	0.41
223.959	-0.14
224.177	-0.21
224.395	-0.02
224.613	0.25
224.831	0.15
225.049	-0.13
225.267	-0.01
225.485	0.14
225.703	0.05
225.921	0.03
226.139	-0.12
226.357	0.05
226.575	0.01
226.793	-0.06
227.011	0.59
227.229	0.05
227.447	0.26
227.665	-0.08
227.883	-0.17
228.1	0.02
228.318	0.08
228.536	-0.24
228.754	-0.17
228.972	0.18
229.189	0.03
229.407	-0.15
229.625	-0.1
229.843	0.23
230.06	0.13
230.278	-0.05
230.496	0.01
230.713	0.15
230.931	0.27
231.149	0.03
231.366	-0.24
231.584	-0.03
231.801	0.4
232.019	-0.02
232.236	-0.1
232.454	-0.14
232.671	0.21
232.889	0.04
233.106	-0.03
233.324	0.1
233.541	-0.06
233.759	0.05
233.976	-0.05
234.194	0.01
234.411	0.05
234.628	-0.16
234.846	-0.04
235.063	0.01
235.28	0.05
235.498	0.15
235.715	-0.05
235.932	0.18
236.149	-0.05
236.367	-0.03
236.584	0.06
236.801	0
237.018	0.14
237.236	0.01
237.453	-0.15
237.67	0.16
237.887	-0.02
238.104	-0.06
238.321	-0.12
238.538	-0.07
238.755	0.19
238.973	-0.13
239.19	0.07
239.407	0.11
239.624	0.13
239.841	-0.16
240.058	-0.18
240.275	0.07
240.492	-0.03
240.709	0.02
240.925	-0.07
241.142	0.01
241.359	-0.07
241.576	-0.07
241.793	-0.03
242.01	0.02
242.227	0.18
242.444	0.11
242.66	0.11
242.877	0.07
243.094	-0.04
243.311	0.03
243.527	-0.02
243.744	0.08
243.961	0.15
244.178	-0.13
244.394	-0.06
244.611	0.06
244.828	0.27
245.044	-0.09
245.261	-0.05
245.477	-0.05
245.694	0.03
245.911	-0.09
246.127	0.02
246.344	0.13
246.56	0.04
246.777	0.04
246.993	0.04
247.21	-0.01
247.426	0.01
247.643	-0.05
247.859	-0.02
248.076	-0.01
248.292	0.27
248.508	0.05
248.725	0.07
248.941	0.05
249.157	0.18
249.374	-0.06
249.59	-0.11
249.806	0.07
250.023	0.15
250.239	0.04
250.455	-0.03
250.671	0.11
250.888	0.09
251.104	0.08
251.32	0.03
251.536	0
251.752	0
251.969	0.03
252.185	0.01
252.401	0.26
252.617	0.11
252.833	-0.05
253.049	0.03
253.265	0.05
253.481	0.07
253.697	-0.07
253.913	-0.09
254.129	0.1
254.345	0.06
254.561	0.02
254.777	0.01
254.993	0.11
255.209	-0.01
255.425	0.02
255.641	-0.02
255.857	0.19
256.073	0.06
256.288	-0.06
256.504	-0.03
256.72	0.12
256.936	0.11
257.152	0
257.367	-0.03
257.583	0.01
257.799	0.13
258.015	-0.03
258.23	-0.03
258.446	0.15
258.662	0.03
258.877	-0.1
259.093	-0.06
259.309	0.05
259.524	0.12
259.74	-0.07
259.955	-0.04
260.171	0.09
260.387	-0.02
260.602	0.1
260.818	0.05
261.033	-0.1
261.249	-0.05
261.464	-0.04
261.68	-0.09
261.895	0.11
262.11	0.11
262.326	-0
262.541	-0.08
262.757	0.11
262.972	0.05
263.187	0.04
263.403	-0.01
263.618	0.05
263.833	0.04
264.049	-0.02
264.264	0.03
264.479	0.07
264.694	0.13
264.91	-0.06
265.125	0.02
265.34	0.09
265.555	0.15
265.77	0.07
265.986	0.03
266.201	0.07
266.416	0.14
266.631	-0.05
266.846	0.05
267.061	0.05
267.276	0.15
267.491	-0.08
267.706	0.08
267.921	0.06
268.136	0.03
268.351	0.01
268.566	-0.04
268.781	0.09
268.996	0.16
269.211	0.04
269.426	-0.07
269.641	0.04
269.856	0.1
270.071	-0.07
270.285	-0.05
270.5	0.1
270.715	0.1
270.93	0.07
271.145	0.09
271.359	0.09
271.574	-0.01
271.789	0.04
272.004	-0.02
272.218	0.07
272.433	0.08
272.648	-0.03
272.862	0.03
273.077	-0
273.292	0.06
273.506	0.01
273.721	-0.03
273.936	0.09
274.15	0.14
274.365	0.02
274.579	0.03
274.794	0.06
275.008	0.14
275.223	-0.05
275.437	0.05
275.652	0.04
275.866	0.1
276.081	-0.01
276.295	0.01
276.509	0.03
276.724	-0.01
276.938	0.04
277.153	0.09
277.367	0.04
277.581	0.01
277.796	0.01
278.01	-0.03
278.224	0.11
278.438	0.13
278.653	-0.01
278.867	-0.02
279.081	-0.1
279.295	0.03
279.51	0.05
279.724	-0.05
279.938	0.13
280.152	0.01
280.366	-0.02
280.58	0.02
280.794	0.14
281.008	0.07
281.222	0.04
281.437	0.21
281.651	0
281.865	0.09
282.079	0.04
282.293	-0.05
282.507	-0
282.721	0.02
282.935	0
283.148	-0.04
283.362	-0.01
283.576	-0.04
283.79	0
284.004	-0.09
284.218	0.15
284.432	-0
284.646	0.01
284.859	0.01
285.073	-0
285.287	0.05
285.501	0
285.714	0.05
285.928	0.02
286.142	0.07
286.356	-0.05
286.569	-0
286.783	0.13
286.997	0.07
287.21	0.01
287.424	0.09
287.637	-0.01
287.851	-0.01
288.065	0.07
288.278	-0.02
288.492	0.01
288.705	0.01
288.919	0.06
289.132	0.02
289.346	0.08
289.559	-0.04
289.773	-0.06
289.986	0.04
290.2	-0
290.413	0.07
290.626	-0.05
290.84	-0.01
291.053	0.09
291.267	0.15
291.48	0
291.693	0.01
291.906	0.05
292.12	0.02
292.333	-0.04
292.546	0.01
292.76	0.12
292.973	0.04
293.186	0.05
293.399	0.01
293.612	0.08
293.826	0.05
294.039	0.02
294.252	-0
294.465	0.02
294.678	0.09
294.891	0.06
295.104	-0.02
295.317	0.06
295.53	0.07
295.743	-0.01
295.956	-0
296.169	0.07
296.382	0.04
296.595	0
296.808	-0.06
297.021	0.09
297.234	0.08
297.447	0.01
297.66	0.05
297.873	0.05
298.086	0.05
298.299	0
298.511	-0.01
298.724	0.04
298.937	-0.01
299.15	0.03
299.363	-0.02
299.575	0.05
299.788	0.06
300.001	0.04
300.213	-0.03
300.426	0.04
300.639	-0.01
300.852	0.04
301.064	0.07
301.277	0.12
301.489	0.05
301.702	0.1
301.915	0.05
302.127	-0
302.34	0.07
302.552	0.03
302.765	-0.02
302.977	0.07
303.19	0.03
303.402	-0.01
303.615	0.05
303.827	0.02
304.04	0.05
304.252	0.08
304.464	0.03
304.677	0.18
304.889	0.06
305.102	-0.03
305.314	-0.02
305.526	0.08
305.739	0.03
305.951	-0.02
306.163	-0
306.375	0.16
306.588	-0.01
306.8	0.02
307.012	-0.04
307.224	0.05
307.436	0.14
307.649	-0.04
307.861	0.02
308.073	0.06
308.285	0.05
308.497	0.01
308.709	0.01
308.921	0.05
309.133	0.11
309.346	0.05
309.558	-0.01
309.77	0.08
309.982	0.1
310.194	0.04
310.406	0.01
310.617	0.11
310.829	0.03
311.041	0.09
311.253	0
311.465	0.07
311.677	0.07
311.889	-0
312.101	-0.01
312.313	0.05
312.524	0.07
312.736	-0.02
312.948	0.02
313.16	0.15
313.372	0.08
313.583	0.05
313.795	0.02
314.007	0
314.218	0.12
314.43	0.08
314.642	0.02
314.853	-0.05
315.065	0.06
315.277	0.01
315.488	0.03
315.7	0.03
315.912	0.08
316.123	0.03
316.335	0.04
316.546	0.11
316.758	0.04
316.969	0.01
317.181	0.05
317.392	0.1
317.604	0.05
317.815	0.05
318.026	0.02
318.238	0
318.449	0.06
318.661	-0.02
318.872	-0.03
319.083	0.03
319.295	0.06
319.506	0.02
319.717	0.05
319.929	0.04
320.14	0.05
320.351	0.06
320.562	0
320.774	0
320.985	0.03
321.196	-0.01
321.407	-0.02
321.618	0.08
321.829	0.02
322.041	0.06
322.252	0.02
322.463	0.06
322.674	0.11
322.885	-0.01
323.096	0.05
323.307	0.04
323.518	0.1
323.729	0.01
323.94	0.05
324.151	0.03
324.362	0.05
324.573	0.06
324.784	0.04
324.995	0.05
325.206	0.07
325.417	0.03
325.628	0.02
325.838	0.03
326.049	0.06
326.26	0.04
326.471	0.05
326.682	0.08
326.892	0.03
327.103	-0
327.314	-0.01
327.525	0.11
327.735	0.06
327.946	-0.01
328.157	0.03
328.368	0.02
328.578	0.06
328.789	0.08
328.999	0.03
329.21	0.03
329.421	0.07
329.631	0.02
329.842	-0
330.052	0.07
330.263	0.07
330.473	0.08
330.684	0.02
330.894	0
331.105	0.08
331.315	0.05
331.526	0
331.736	0.13
331.947	0.02
332.157	0.04
332.367	-0.01
332.578	0.06
332.788	0.13
332.999	0.1
333.209	0.02
333.419	-0.02
333.629	0.13
333.84	0.07
334.05	0.04
334.26	0.11
334.47	0.06
334.681	0.07
334.891	0.03
335.101	0.08
335.311	0.16
335.521	0.02
335.732	0
335.942	0.14
336.152	0.09
336.362	0.05
336.572	0.06
336.782	0.09
336.992	0.05
337.202	0.04
337.412	0.03
337.622	0.1
337.832	0.09
338.042	0.07
338.252	0.04
338.462	0.02
338.672	0.05
338.882	0.03
339.092	0.01
339.302	0.11
339.511	0.11
339.721	0.06
339.931	0
340.141	0.07
340.351	0.12
340.561	0.08
340.77	0.07
340.98	0.07
341.19	0.08
341.4	0.04
341.609	0.02
341.819	0.06
342.029	0
342.238	0.07
342.448	0.02
342.658	0.06
342.867	0.06
343.077	0.03
343.286	0.09
343.496	0.09
343.706	0.11
343.915	0.02
344.125	0.04
344.334	0.04
344.544	-0.05
344.753	0.02
344.963	0.03
345.172	0.05
345.381	0.03
345.591	-0.01
345.8	0.04
346.01	0.14
346.219	0.1
346.428	-0.1
346.638	0.05
346.847	0.04
347.056	0.12
347.266	-0
347.475	0.05
347.684	0.07
347.893	0.09
348.103	0.03
348.312	0.06
348.521	0.03
348.73	0.02
348.94	0.09
349.149	0.05
349.358	0.05
349.567	0.05
349.776	0.01
349.985	0.05
350.194	0.12
350.403	0.11
350.612	-0.02
350.821	0.03
351.03	0.05
351.239	-0.03
351.448	0.03
351.657	0.05
351.866	0.11
352.075	0.02
352.284	0.06
352.493	0
352.702	0.1
352.911	0.06
353.12	0.07
353.329	0.08
353.538	0.06
353.746	0.05
353.955	0.02
354.164	0.06
354.373	0.06
354.582	0.08
354.79	0.08
354.999	0.06
355.208	0.05
355.416	0.14
355.625	0.02
355.834	0.02
356.042	0.07
356.251	0.04
356.46	-0
356.668	0.09
356.877	0.16
357.085	0.1
357.294	-0.01
357.503	0.05
357.711	0.06
357.92	0.17
358.128	0.08
358.337	0.06
358.545	0.08
358.754	0.03
358.962	0.13
359.17	0.04
359.379	0.06
359.587	0.06
359.796	0.05
360.004	0.11
360.212	0.08
360.421	0.08
360.629	0.05
360.837	0.06
361.046	0.11
361.254	0.15
361.462	0.04
361.67	0.01
361.879	0.06
362.087	0.13
362.295	0.05
362.503	0.04
362.711	0
362.92	0.02
363.128	0.04
363.336	0.01
363.544	0.01
363.752	0.06
363.96	-0.01
364.168	0.02
364.376	0.06
364.584	0.08
364.792	0.05
365	0.09
365.208	0.1
365.416	0.08
365.624	0.12
365.832	0.02
366.04	0.11
366.248	0.07
366.456	0.07
366.664	0.1
366.872	0.07
367.079	0.07
367.287	0.09
367.495	0.08
367.703	0.05
367.911	0.06
368.118	0.09
368.326	0.12
368.534	0.02
368.742	0.12
368.949	0
369.157	0.04
369.365	0.09
369.572	0.07
369.78	0.05
369.988	0.1
370.195	0.1
370.403	0.1
370.61	0.02
370.818	0.06
371.026	0.16
371.233	0.06
371.441	0.08
371.648	0.02
371.856	0.12
372.063	0.07
372.271	0.09
372.478	0.07
372.685	0.07
372.893	0.2
373.1	0.07
373.308	0.07
373.515	0.18
373.722	0.13
373.93	0.08
374.137	0.12
374.344	0.18
374.552	0.15
374.759	0.14
374.966	0.07
375.173	0.1
375.381	0.12
375.588	0.1
375.795	0.04
376.002	0.05
376.209	0.08
376.417	0.06
376.624	0.1
376.831	0.17
377.038	0.08
377.245	0.02
377.452	0.1
377.659	0.1
377.866	0.09
378.073	0.09
378.28	0.14
378.487	0.14
378.694	0.17
378.901	0.1
379.108	0.15
379.315	0.15
379.522	0.2
379.729	0.13
379.936	0.11
380.143	0.17
380.35	0.11
380.557	0.15
380.763	0.19
380.97	0.15
381.177	0.19
381.384	0.16
381.591	0.09
381.797	0.2
382.004	0.2
382.211	0.2
382.418	0.17
382.624	0.23
382.831	0.2
383.038	0.21
383.244	0.23
383.451	0.16
383.658	0.25
383.864	0.2
384.071	0.19
384.277	0.31
384.484	0.24
384.69	0.33
384.897	0.25
385.103	0.28
385.31	0.25
385.516	0.25
385.723	0.26
385.929	0.33
386.136	0.35
386.342	0.35
386.549	0.35
386.755	0.4
386.961	0.39
387.168	0.42
387.374	0.42
387.58	0.49
387.787	0.48
387.993	0.5
388.199	0.52
388.406	0.52
388.612	0.55
388.818	0.54
389.024	0.55
389.231	0.6
389.437	0.71
389.643	0.72
389.849	0.73
390.055	0.69
390.261	0.82
390.467	0.85
390.674	0.88
390.88	0.9
391.086	0.97
391.292	0.96
391.498	1.12
391.704	1.19
391.91	1.16
392.116	1.19
392.322	1.13
392.528	1.39
392.734	1.42
392.94	1.46
393.146	1.52
393.352	1.62
393.557	1.63
393.763	1.77
393.969	1.87
394.175	1.97
394.381	2.1
394.587	2.03
394.792	2.21
394.998	2.43
395.204	2.52
395.41	2.54
395.615	2.72
395.821	2.92
396.027	2.97
396.233	3.16
396.438	3.3
396.644	3.62
396.85	3.69
397.055	3.87
397.261	4.08
397.466	4.22
397.672	4.35
397.878	4.63
398.083	4.74
398.289	4.77
398.494	5.05
398.7	5.33
398.905	5.35
399.111	5.82
399.316	5.72
399.522	6.03
399.727	6.28
399.932	6.58
400.138	6.77
400.343	7.17
400.549	7.26
400.754	7.75
400.959	7.98
401.165	8.43
401.37	8.75
401.575	9.35
401.78	9.42
401.986	9.63
402.191	10.1
402.396	10.56
402.601	10.91
402.807	11.34
403.012	11.61
403.217	12.42
403.422	12.49
403.627	12.98
403.832	13.71
404.037	13.81
404.243	13.95
404.448	14.37
404.653	14.86
404.858	15.2
405.063	15.01
405.268	15.72
405.473	15.91
405.678	16.27
405.883	16.93
406.088	16.94
406.293	17.04
406.498	17.74
406.703	17.5
406.907	18.09
407.112	18.61
407.317	19.28
407.522	19.38
407.727	19.81
407.932	19.97
408.136	20.34
408.341	19.92
408.546	20.05
408.751	20.21
408.956	20
409.16	20.38
409.365	20.38
409.57	19.81
409.774	19.72
409.979	19.87
410.184	19.42
410.388	19.33
410.593	19.4
410.798	19.37
411.002	19.53
411.207	19.07
411.411	18.92
411.616	18.29
411.82	18.33
412.025	17.88
412.229	17.72
412.434	17.21
412.638	16.91
412.843	16.45
413.047	16.07
413.252	15.52
413.456	15.76
413.66	15.2
413.865	14.59
414.069	14.17
414.273	14.11
414.478	13.65
414.682	13.26
414.886	13
415.091	12.49
415.295	12.21
415.499	12.18
415.703	11.56
415.908	11.41
416.112	10.96
416.316	10.8
416.52	10.52
416.724	10.26
416.929	10.06
417.133	10.07
417.337	9.51
417.541	9.32
417.745	9.16
417.949	8.78
418.153	8.86
418.357	8.62
418.561	8.55
418.765	8.22
418.969	8.15
419.173	8.03
419.377	7.71
419.581	7.71
419.785	7.59
419.989	7.15
420.193	7.26
420.397	7.1
420.601	6.96
420.804	6.8
421.008	6.54
421.212	6.51
421.416	6.09
421.62	5.97
421.823	5.79
422.027	5.76
422.231	5.5
422.435	5.21
422.638	4.92
422.842	4.88
423.046	4.9
423.249	4.8
423.453	4.57
423.657	4.53
423.86	4.41
424.064	4.33
424.268	4.21
424.471	4.04
424.675	4
424.878	3.88
425.082	3.75
425.285	3.91
425.489	3.6
425.692	3.57
425.896	3.42
426.099	3.35
426.303	3.2
426.506	3.17
426.71	3.14
426.913	3.12
427.116	3.17
427.32	2.96
427.523	2.91
427.726	2.89
427.93	2.71
428.133	2.77
428.336	2.69
428.54	2.66
428.743	2.61
428.946	2.7
429.149	2.51
429.353	2.42
429.556	2.31
429.759	2.22
429.962	2.21
430.165	2.28
430.368	2.01
430.571	2
430.775	1.94
430.978	1.84
431.181	1.78
431.384	1.72
431.587	1.67
431.79	1.78
431.993	1.61
432.196	1.64
432.399	1.67
432.602	1.75
432.805	1.6
433.008	1.69
433.211	1.56
433.414	1.71
433.616	1.56
433.819	1.49
434.022	1.42
434.225	1.57
434.428	1.46
434.631	1.61
434.833	1.4
435.036	1.41
435.239	1.4
435.442	1.37
435.645	1.32
435.847	1.31
436.05	1.31
436.253	1.27
436.455	1.21
436.658	1.23
436.861	1.28
437.063	1.12
437.266	1.11
437.468	1.19
437.671	1.29
437.874	1.09
438.076	0.97
438.279	0.99
438.481	0.99
438.684	1
438.886	1.02
439.089	0.91
439.291	0.98
439.494	1.01
439.696	0.86
439.899	0.93
440.101	0.99
440.303	0.89
440.506	0.92
440.708	0.91
440.91	0.92
441.113	0.79
441.315	0.9
441.517	0.77
441.72	0.87
441.922	0.74
442.124	0.73
442.326	0.82
442.529	0.83
442.731	0.66
442.933	0.81
443.135	0.65
443.337	0.64
443.539	0.65
443.742	0.62
443.944	0.68
444.146	0.59
444.348	0.63
444.55	0.57
444.752	0.58
444.954	0.56
445.156	0.62
445.358	0.51
445.56	0.65
445.762	0.53
445.964	0.54
446.166	0.51
446.368	0.49
446.57	0.54
446.772	0.51
446.974	0.48
447.175	0.47
447.377	0.4
447.579	0.52
447.781	0.4
447.983	0.51
448.184	0.43
448.386	0.42
448.588	0.36
448.79	0.47
448.991	0.35
449.193	0.39
449.395	0.43
449.597	0.44
449.798	0.43
450	0.42
450.202	0.37
450.403	0.38
450.605	0.42
450.806	0.38
451.008	0.33
451.21	0.34
451.411	0.39
451.613	0.31
451.814	0.32
452.016	0.37
452.217	0.34
452.419	0.4
452.62	0.35
452.821	0.35
453.023	0.42
453.224	0.37
453.426	0.35
453.627	0.33
453.828	0.4
454.03	0.34
454.231	0.35
454.432	0.25
454.634	0.42
454.835	0.28
455.036	0.21
455.238	0.41
455.439	0.39
455.64	0.22
455.841	0.27
456.042	0.43
456.244	0.33
456.445	0.28
456.646	0.23
456.847	0.26
457.048	0.34
457.249	0.36
457.45	0.55
457.651	0.3
457.852	0.43
458.054	0.28
458.255	0.24
458.456	0.29
458.657	0.32
458.858	0.27
459.058	0.29
459.259	0.39
459.46	0.29
459.661	0.25
459.862	0.45
460.063	0.3
460.264	0.36
460.465	0.19
460.666	0.44
460.866	0.29
461.067	0.3
461.268	0.24
461.469	0.23
461.67	0.23
461.87	0.27
462.071	0.22
462.272	0.28
462.473	0.24
462.673	0.31
462.874	0.21
463.075	0.3
463.275	0.19
463.476	0.32
463.676	0.27
463.877	0.32
464.078	0.24
464.278	0.28
464.479	0.26
464.679	0.25
464.88	0.31
465.08	0.31
465.281	0.29
465.481	0.25
465.682	0.3
465.882	0.28
466.083	0.27
466.283	0.23
466.483	0.24
466.684	0.17
466.884	0.22
467.085	0.2
467.285	0.28
467.485	0.18
467.686	0.26
467.886	0.21
468.086	0.25
468.286	0.26
468.487	0.28
468.687	0.25
468.887	0.22
469.087	0.27
469.287	0.21
469.488	0.19
469.688	0.27
469.888	0.27
470.088	0.3
470.288	0.29
470.488	0.24
470.688	0.22
470.888	0.2
471.088	0.23
471.288	0.28
471.488	0.22
471.688	0.23
471.888	0.2
472.088	0.29
472.288	0.26
472.488	0.16
472.688	0.21
472.888	0.23
473.088	0.25
473.288	0.19
473.488	0.17
473.688	0.33
473.887	0.19
474.087	0.22
474.287	0.18
474.487	0.19
474.687	0.23
474.886	0.16
475.086	0.2
475.286	0.17
475.486	0.2
475.685	0.17
475.885	0.13
476.085	0.17
476.284	0.23
476.484	0.22
476.684	0.2
476.883	0.25
477.083	0.19
477.282	0.16
477.482	0.24
477.681	0.25
477.881	0.17
478.08	0.13
478.28	0.15
478.479	0.18
478.679	0.21
478.878	0.14
479.078	0.13
479.277	0.16
479.477	0.15
479.676	0.2
479.875	0.17
480.075	0.1
480.274	0.14
480.473	0.2
480.673	0.13
480.872	0.14
481.071	0.16
481.271	0.16
481.47	0.1
481.669	0.15
481.868	0.08
482.067	0.12
482.267	0.1
482.466	0.08
482.665	0.1
482.864	0.07
483.063	0.1
483.262	0.14
483.461	0.18
483.661	0.15
483.86	0.13
484.059	0.17
484.258	0.13
484.457	0.1
484.656	0.11
484.855	0.14
485.054	0.05
485.253	0.09
485.452	0.05
485.651	0.13
485.849	0.12
486.048	0.08
486.247	0.06
486.446	0.09
486.645	0.09
486.844	0.09
487.043	0.1
487.241	0.12
487.44	0.07
487.639	0.1
487.838	0.1
488.037	0.11
488.235	0.17
488.434	0.12
488.633	0.08
488.831	0.13
489.03	0.14
489.229	0.11
489.427	0.08
489.626	0.15
489.825	0.16
490.023	0.13
490.222	0.07
490.42	0.12
490.619	0.15
490.817	0.11
491.016	0.08
491.214	0.11
491.413	0.07
491.611	0.09
491.81	0.09
492.008	0.11
492.207	0.12
492.405	0.08
492.604	0.04
492.802	0.07
493	0.1
493.199	0.09
493.397	0.1
493.595	0.08
493.794	0.08
493.992	0.12
494.19	0.1
494.388	0.11
494.587	0.09
494.785	0.09
494.983	0.08
495.181	0.08
495.379	0.1
495.578	0.09
495.776	0.09
495.974	0.1
496.172	0.1
496.37	0.07
496.568	0.05
496.766	0.05
496.964	0.13
497.162	0.1
497.36	0.06
497.558	0.09
497.756	0.09
497.954	0.09
498.152	0.05
498.35	0.09
498.548	0.08
498.746	0.08
498.944	0.07
499.142	0.07
499.34	0.05
499.538	0.1
499.736	0.04
499.933	0.11
500.131	0.11
500.329	0.09
500.527	0.12
500.725	0.12
500.922	0.11
501.12	0.07
501.318	0.09
501.516	0.07
501.713	0.09
501.911	0.07
502.109	0.05
502.306	0.09
502.504	0.06
502.701	0.06
502.899	0.08
503.097	0.13
503.294	0.09
503.492	0.06
503.689	0.06
503.887	0.1
504.084	0.13
504.282	0.06
504.479	0.03
504.677	0.09
504.874	0.05
505.072	0.05
505.269	0.07
505.466	0.09
505.664	0.07
505.861	0.03
506.059	0.05
506.256	0.08
506.453	0.04
506.651	0.13
506.848	0.07
507.045	0.07
507.242	0.08
507.44	0.04
507.637	0.05
507.834	0.06
508.031	0.08
508.229	0.03
508.426	0.06
508.623	0.09
508.82	0.03
509.017	0.04
509.214	0.05
509.411	0.08
509.608	0.04
509.805	0.06
510.003	0.05
510.2	0.03
510.397	0.08
510.594	0.03
510.791	0.04
510.988	0.05
511.184	0.1
511.381	0.07
511.578	0.03
511.775	0.11
511.972	0.03
512.169	0.07
512.366	0.05
512.563	0.06
512.76	0.06
512.956	0.08
513.153	0.05
513.35	0.07
513.547	0.01
513.744	0.03
513.94	0.02
514.137	0.05
514.334	0.05
514.53	0.07
514.727	0.06
514.924	0.12
515.12	0.03
515.317	0
515.514	0.04
515.71	0.05
515.907	0.03
516.103	0.05
516.3	0.04
516.497	0.08
516.693	0.06
516.89	0.04
517.086	0.03
517.283	0.1
517.479	0.05
517.676	0.05
517.872	0.06
518.068	0.04
518.265	0.02
518.461	0.03
518.658	0.02
518.854	0.05
519.05	0.04
519.247	0.02
519.443	0.06
519.639	0.06
519.836	0.04
520.032	0.04
520.228	0.04
520.424	0.07
520.621	0.07
520.817	0.04
521.013	0.05
521.209	0.07
521.405	0.08
521.601	0.05
521.798	0.04
521.994	0.07
522.19	0.02
522.386	0.01
522.582	0.05
522.778	0.04
522.974	0.03
523.17	0.04
523.366	0.07
523.562	0.06
523.758	0.03
523.954	0.01
524.15	0.03
524.346	0.07
524.542	0.02
524.738	-0
524.934	0.03
525.129	0.04
525.325	0.05
525.521	0.03
525.717	0.04
525.913	0.04
526.109	0.02
526.304	0.03
526.5	0.06
526.696	0.05
526.892	0.03
527.087	0.05
527.283	0.01
527.479	0.05
527.674	0.01
527.87	0.01
528.066	0.03
528.261	0.04
528.457	0.04
528.653	0.02
528.848	0.03
529.044	0.06
529.239	0.03
529.435	0.06
529.63	0.06
529.826	0.09
530.021	0.05
530.217	0.04
530.412	0.03
530.608	0.05
530.803	0.03
530.999	0.04
531.194	-0.01
531.389	0.04
531.585	-0.02
531.78	0.02
531.975	0.02
532.171	0.06
532.366	0.02
532.561	0.04
532.757	-0
532.952	0.01
533.147	0.04
533.342	0.03
533.538	0.02
533.733	0.07
533.928	0.03
534.123	0.02
534.318	-0.01
534.513	0.02
534.709	0.04
534.904	0.03
535.099	0.02
535.294	0.05
535.489	0.04
535.684	0.04
535.879	0.01
536.074	0.02
536.269	0.01
536.464	0.04
536.659	0.05
536.854	0.02
537.049	0.04
537.244	0.03
537.439	0.02
537.634	0.06
537.828	0.04
538.023	0
538.218	0.01
538.413	0.02
538.608	-0.02
538.803	0.02
538.997	-0.02
539.192	0.06
539.387	0.04
539.582	0.04
539.776	0.05
539.971	0.02
540.166	0.02
540.36	-0
540.555	0.03
540.75	0.01
540.944	0.04
541.139	-0.01
541.334	0.01
541.528	0.05
541.723	0.03
541.917	0.01
542.112	-0.01
542.306	0.02
542.501	0.02
542.695	0.05
542.89	0.01
543.084	0.05
543.279	0.01
543.473	0.01
543.668	0.02
543.862	0.02
544.056	0.04
544.251	0.02
544.445	0.04
544.64	0.01
544.834	-0.01
545.028	0.01
545.222	0.04
545.417	0.02
545.611	0.05
545.805	0.04
546	-0.01
546.194	0.01
546.388	0.03
546.582	0.03
546.776	0
546.97	0.02
547.165	0.04
547.359	0.03
547.553	0.01
547.747	0.04
547.941	0.01
548.135	0.04
548.329	0.04
548.523	0.03
548.717	0.03
548.911	0
549.105	0.01
549.299	0.05
549.493	0.02
549.687	0.04
549.881	0.04
550.075	0.01
550.269	-0.02
550.463	0.05
550.657	0.01
550.85	0.02
551.044	-0
551.238	0.02
551.432	0
551.626	-0.01
551.82	0.02
552.013	-0
552.207	0.02
552.401	0.03
552.594	0.02
552.788	-0
552.982	0.04
553.176	-0.01
553.369	0.02
553.563	0.05
553.756	0
553.95	-0
554.144	0.03
554.337	0.07
554.531	0.02
554.724	0.01
554.918	0
555.111	0.04
555.305	0.01
555.498	0.09
555.692	0.05
555.885	0
556.079	0.03
556.272	0.02
556.466	0.05
556.659	0.03
556.852	0.02
557.046	0.01
557.239	0.06
557.432	0
557.626	0
557.819	0.04
558.012	0.04
558.206	0.03
558.399	0.03
558.592	0.03
558.785	0.01
558.979	0.03
559.172	0.04
559.365	0.02
559.558	0.01
559.751	-0
559.944	0.06
560.138	-0
560.331	0
560.524	0
560.717	0.03
560.91	-0
561.103	0.03
561.296	0.02
561.489	0.03
561.682	0.01
561.875	0.03
562.068	0.02
562.261	0.03
562.454	0.08
562.647	0.01
562.84	0.03
563.032	-0.01
563.225	0.04
563.418	0.01
563.611	0.02
563.804	0.01
563.997	-0.02
564.19	-0.01
564.382	0.02
564.575	0.03
564.768	0.03
564.961	0.03
565.153	-0
565.346	0.02
565.539	0.05
565.731	0.03
565.924	0.04
566.117	0.04
566.309	0.02
566.502	0
566.695	0.02
566.887	0.03
567.08	0.01
567.272	0.02
567.465	-0
567.657	0.02
567.85	0.03
568.042	0.02
568.235	0.04
568.427	0.02
568.62	0.03
568.812	0.02
569.005	0.02
569.197	-0.02
569.389	0.02
569.582	0.03
569.774	0.03
569.966	-0
570.159	0.01
570.351	0.03
570.543	0.01
570.736	-0
570.928	-0.02
571.12	0.02
571.312	0.01
571.505	-0.03
571.697	0.04
571.889	0.01
572.081	0
572.273	-0.02
572.465	0.05
572.658	0
572.85	0.02
573.042	0.02
573.234	0.01
573.426	0.08
573.618	-0.02
573.81	0
574.002	0.06
574.194	0.07
574.386	-0.05
574.578	-0.06
574.77	-0.02
574.962	0
575.154	-0.02
575.346	-0.01
575.538	0.02
575.729	-0
575.921	-0
576.113	-0.01
576.305	0.03
576.497	-0.01
576.689	-0
576.88	-0
577.072	0.05
577.264	0.01
577.456	0
577.647	-0.05
577.839	0.04
578.031	0.05
578.223	-0.03
578.414	-0.02
578.606	0.03
578.798	0.02
578.989	-0.01
579.181	-0.01
579.372	0
579.564	0.01
579.755	0.02
579.947	0.01
580.139	0.04
580.33	-0.04
580.522	-0.01
580.713	-0.06
580.905	0.02
581.096	0.04
581.287	0.01
581.479	-0.01
581.67	0.03
581.862	0
582.053	0.02
582.244	-0.06
582.436	-0.02
582.627	-0
582.818	-0.04
583.01	-0.03
583.201	0.03
583.392	0.04
583.583	0.01
583.775	0.01
583.966	-0
584.157	-0.01
584.348	-0
584.54	-0.01
584.731	0.02
584.922	0.02
585.113	-0.03
585.304	0.05
585.495	0.04
585.686	0.01
585.877	0.04
586.068	-0.01
586.259	0.05
586.45	0.03
586.641	-0.01
586.832	-0.04
587.023	0.01
587.214	0.02
587.405	0.02
587.596	-0.02
587.787	0.05
587.978	0.02
588.169	-0.02
588.36	0
588.551	0.02
588.742	-0.02
588.932	0.01
589.123	0.02
589.314	0.05
589.505	0.03
589.696	0.01
589.886	-0.02
590.077	-0.04
590.268	0.01
590.458	-0.04
590.649	-0.03
590.84	0.05
591.03	-0.02
591.221	-0.04
591.412	-0.04
591.602	0.04
591.793	0.02
591.984	-0.04
592.174	-0.01
592.365	0.1
592.555	-0.03
592.746	0.02
592.936	0.03
593.127	0.03
593.317	0.05
593.508	-0
593.698	0.01
593.889	0.02
594.079	-0.01
594.269	-0
594.46	-0
594.65	-0.02
594.84	-0
595.031	-0.05
595.221	-0.02
595.411	-0.03
595.602	0.03
595.792	0.02
595.982	-0.02
596.172	0.04
596.363	0.01
596.553	0.02
596.743	0.02
596.933	-0.01
597.123	0.05
597.314	-0.04
597.504	-0.05
597.694	0.05
597.884	0.04
598.074	-0.02
598.264	-0.04
598.454	0.02
598.644	0
598.834	-0.01
599.024	-0.07
599.214	-0
599.404	0.03
599.594	-0.01
599.784	-0.03
599.974	0.05
600.164	0.04
600.354	-0.04
600.544	-0.04
600.734	0.04
600.924	0.06
601.114	-0.02
601.303	0
601.493	0
601.683	0.03
601.873	-0.01
602.063	-0.03
602.252	0.03
602.442	-0.05
602.632	-0.04
602.821	-0.04
603.011	0.02
603.201	-0.02
603.39	-0.05
603.58	-0.01
603.77	0.01
603.959	0.01
604.149	-0.01
604.339	0
604.528	0.02
604.718	0.03
604.907	-0.01
605.097	-0.01
605.286	-0.04
605.476	0.04
605.665	0.01
605.855	-0.01
606.044	0.04
606.234	0.03
606.423	0
606.612	-0.02
606.802	0
606.991	0.02
607.181	0.01
607.37	-0.01
607.559	-0.01
607.749	-0.03
607.938	-0.02
608.127	0.02
608.316	-0.02
608.506	0.05
608.695	-0.02
608.884	-0.01
609.073	0.02
609.263	0.01
609.452	0.04
609.641	0.01
609.83	-0.06
610.019	-0
610.208	-0.05
610.397	-0.01
610.586	0.03
610.775	-0.01
610.965	0.01
611.154	-0.04
611.343	-0
611.532	0.04
611.721	-0.04
611.91	0
612.099	0.01
612.287	-0.02
612.476	-0.02
612.665	0.02
612.854	-0.03
613.043	0.03
613.232	-0.01
613.421	-0.08
613.61	0.01
613.798	-0.02
613.987	0.04
614.176	0.02
614.365	0.03
614.554	0.03
614.742	0.02
614.931	-0.02
615.12	0.04
615.309	-0.02
615.497	0.02
615.686	-0.03
615.875	0
616.063	-0.01
616.252	0.01
616.44	-0.03
616.629	-0.01
616.818	0.06
617.006	0.01
617.195	-0.04
617.383	0
617.572	-0
617.76	-0.01
617.949	-0.02
618.137	0.02
618.326	0.06
618.514	-0
618.703	-0.02
618.891	0.07
619.079	-0.06
619.268	0.02
619.456	-0.02
619.644	0.04
619.833	-0.01
620.021	-0.01
620.209	-0.03
620.398	0.03
620.586	-0
620.774	-0.01
620.962	-0
621.151	0.05
621.339	-0
621.527	-0.03
621.715	-0.06
621.903	-0.04
622.092	-0.04
622.28	-0
622.468	-0.02
622.656	-0.03
622.844	0.05
623.032	-0.02
623.22	-0.06
623.408	0.06
623.596	0.04
623.784	0.01
623.972	-0.02
624.16	-0.04
624.348	0.06
624.536	-0.01
624.724	-0.01
624.912	0.04
625.1	0.03
625.288	-0.05
625.476	-0.02
625.664	0.02
625.851	-0.03
626.039	-0
626.227	0.03
626.415	-0.02
626.603	-0.06
626.79	0.01
626.978	0.02
627.166	0.02
627.354	0.02
627.541	-0.02
627.729	-0.06
627.917	0.03
628.104	0.02
628.292	0.01
628.48	-0.01
628.667	0
628.855	-0.01
629.042	0.01
629.23	-0.02
629.418	0.02
629.605	-0.01
629.793	-0.02
629.98	-0.02
630.168	0.01
630.355	0.02
630.543	0.02
630.73	-0.05
630.917	0.03
631.105	0.05
631.292	-0.02
631.48	0
631.667	0.07
631.854	-0
632.042	-0
632.229	-0.04
632.416	-0.01
632.604	0.02
632.791	-0.02
632.978	0.02
633.165	0.02
633.353	0.08
633.54	0.02
633.727	-0.06
633.914	0
634.101	-0.08
634.289	0.04
634.476	-0.05
634.663	-0.04
634.85	0.03
635.037	-0.06
635.224	-0.06
635.411	0.03
635.598	0.05
635.785	-0.01
635.972	-0.02
636.159	0.07
636.346	-0.04
636.533	0.01
636.72	-0.01
636.907	-0.01
637.094	0.02
637.281	-0.05
637.468	0.01
637.655	-0.04
637.842	-0.02
638.029	-0.04
638.215	0.02
638.402	-0
638.589	-0.04
638.776	-0.01
638.963	-0.02
639.149	0.05
639.336	0.09
639.523	-0.02
639.709	-0.01
639.896	-0.01
640.083	0.08
640.27	0.05
640.456	-0.02
640.643	0.02
640.829	-0.04
641.016	0.01
641.203	-0.06
641.389	0.03
641.576	0.02
641.762	-0
641.949	-0.04
642.135	0.03
642.322	0.03
642.508	-0.05
642.695	-0.02
642.881	-0.01
643.068	0
643.254	-0.03
643.441	0.03
643.627	0
643.813	-0.04
644	0.05
644.186	-0.01
644.372	0.02
644.559	0.02
644.745	-0.02
644.931	-0.04
645.118	-0.01
645.304	-0.02
645.49	-0.01
645.676	-0.01
645.862	0.01
646.049	0.05
646.235	0.01
646.421	0.06
646.607	0.05
646.793	-0
646.979	-0.04
647.165	0.02
647.352	0.02
647.538	0.03
647.724	0.01
647.91	-0.01
648.096	0.05
648.282	0.03
648.468	-0
648.654	-0.02
648.84	0.01
649.026	-0.01
649.212	-0.01
649.397	-0.05
649.583	-0.06
649.769	0.01
649.955	-0.03
650.141	0.01
650.327	0.07
650.513	-0.04
650.698	0.02
650.884	-0.06
651.07	0.01
651.256	-0.02
651.442	-0.01
651.627	-0.02
651.813	-0.02
651.999	-0.01
652.184	0.01
652.37	-0.03
652.556	-0.02
652.741	0.04
652.927	-0.09
653.113	-0.01
653.298	-0
653.484	0.01
653.669	-0.08
653.855	-0.02
654.04	0.01
654.226	0.01
654.412	-0.04
654.597	-0.06
654.782	0.02
654.968	-0
655.153	0.02
655.339	-0.02
655.524	-0.08
655.71	0.06
655.895	-0.06
656.08	-0.01
656.266	0.03
656.451	0.03
656.636	-0.06
656.822	-0.01
657.007	-0.03
657.192	-0.02
657.378	-0.05
657.563	-0
657.748	0
657.933	0.01
658.118	-0.04
658.304	-0.01
658.489	0.02
658.674	0.02
658.859	-0.05
659.044	-0
659.229	0.03
659.414	-0.04
659.599	-0
659.785	-0.05
659.97	-0
660.155	0
660.34	-0.03
660.525	-0.03
660.71	0
660.895	0.04
661.08	-0.02
661.264	-0.04
661.449	0.07
661.634	0.05
661.819	0.02
662.004	-0
662.189	-0.08
662.374	-0.06
662.559	-0.09
662.743	-0.05
662.928	-0.01
663.113	-0.06
663.298	-0.04
663.483	-0.03
663.667	0.01
663.852	-0.05
664.037	0.02
664.221	-0.06
664.406	0.01
664.591	0.02
664.775	0.01
664.96	-0.05
665.145	-0.04
665.329	-0
665.514	-0.01
665.698	-0.01
665.883	-0.08
666.068	0.06
666.252	0.02
666.437	-0.06
666.621	-0.02
666.806	0
666.99	-0.04
667.174	-0.06
667.359	0.04
667.543	-0.05
667.728	0.01
667.912	-0.08
668.096	-0.02
668.281	0
668.465	-0.01
668.649	-0.02
668.834	0.02
669.018	-0.01
669.202	-0
669.387	-0.05
669.571	0
669.755	-0.05
669.939	-0.03
670.124	0.01
670.308	0.07
670.492	0.04
670.676	-0.03
670.86	-0.01
671.044	-0.08
671.228	-0
671.413	-0.01
671.597	-0.05
671.781	-0.03
671.965	0.03
672.149	-0.05
672.333	0
672.517	-0.05
672.701	0.03
672.885	-0.06
673.069	-0.06
673.253	0.05
673.437	-0.02
673.621	-0.06
673.804	-0.02
673.988	-0.02
674.172	-0.03
674.356	-0.08
674.54	-0.06
674.724	0.06
674.908	-0
675.091	0.03
675.275	-0.02
675.459	0.03
675.643	0.01
675.826	0
676.01	-0.01
676.194	-0.01
676.377	0.02
676.561	-0.02
676.745	0.01
676.928	0.01
677.112	0.02
677.296	-0.06
677.479	-0.04
677.663	-0.02
677.846	0.02
678.03	-0.03
678.213	-0.04
678.397	0.02
678.58	-0.04
678.764	-0.02
678.947	-0.04
679.131	-0.02
679.314	0.02
679.498	0
679.681	-0
679.865	0.06
680.048	-0.03
680.231	-0.01
680.415	-0.04
680.598	-0.07
680.781	-0.02
680.965	-0.02
681.148	-0.01
681.331	-0.07
681.514	0.03
681.698	-0.06
681.881	0.03
682.064	0.03
682.247	-0
682.43	-0.06
682.614	0.01
682.797	0.02
682.98	0.03
683.163	-0.04
683.346	-0.03
683.529	-0.02
683.712	-0.09
683.895	-0.01
684.078	-0.05
684.261	-0.05
684.444	0.05
684.627	-0.02
684.81	0
684.993	0
685.176	0.08
685.359	-0.06
685.542	-0.06
685.725	0.05
685.908	0
686.091	-0.02
686.274	0.03
686.457	0.04
686.639	-0.03
686.822	0.03
687.005	-0.05
687.188	0.05
687.371	0.05
687.553	0.01
687.736	0.01
687.919	0.08
688.102	0.04
688.284	-0.05
688.467	-0.05
688.65	-0.01
688.832	-0.05
689.015	-0.03
689.197	-0.07
689.38	0.11
689.563	0.1
689.745	-0.04
689.928	-0.09
690.11	-0.06
690.293	0.05
690.475	-0.11
690.658	0.01
690.84	-0.05
691.023	-0.01
691.205	-0.09
691.388	-0.03
691.57	0.01
691.752	-0.04
691.935	-0.04
692.117	-0.06
692.3	-0.02
692.482	0.01
692.664	-0.04
692.847	0.03
693.029	0.08
693.211	0
693.393	-0.03
693.576	-0.04
693.758	0.03
693.94	-0.02
694.122	-0.08
694.304	-0.05
694.487	-0.06
694.669	0.05
694.851	-0.1
695.033	-0
695.215	-0.03
695.397	-0.04
695.579	0.01
695.761	-0.04
695.943	-0.07
696.125	0.07
696.308	-0.02
696.49	-0.13
696.671	0.15
696.853	-0.03
697.035	0.05
697.217	-0
697.399	0.01
697.581	-0.04
697.763	-0
697.945	-0.08
698.127	0.03
698.309	0.02
698.491	0.04
698.672	-0
698.854	0.03
699.036	0.04
699.218	-0.01
699.399	0.03
699.581	0.01
699.763	0.03
699.945	-0.05
700.126	-0.06
700.308	-0.03
700.49	0
700.671	-0.07
700.853	-0.02
701.035	-0.04
701.216	-0.06
701.398	-0.02
701.579	0
701.761	0.05
701.943	0.02
702.124	-0.09
702.306	-0.02
702.487	0.07
702.669	-0.01
702.85	-0.08
703.031	-0.07
703.213	0.07
703.394	0.03
703.576	-0.04
703.757	0.03
703.938	0
704.12	0.08
704.301	-0.02
704.483	-0.06
704.664	0.01
704.845	0.13
705.026	0.04
705.208	-0.06
705.389	-0.01
705.57	-0.02
705.751	-0.01
705.933	-0.01
706.114	0.01
706.295	-0.03
706.476	-0.13
706.657	0.09
706.838	0.01
707.02	0.08
707.201	-0.08
707.382	-0.06
707.563	0.03
707.744	-0.1
707.925	-0.1
708.106	-0.02
708.287	-0
708.468	0.09
708.649	0.01
708.83	-0.05
709.011	-0.09
709.192	0.02
709.373	-0.1
709.554	-0.03
709.734	-0.06
709.915	0.03
710.096	-0.05
710.277	-0.17
710.458	-0
710.639	0.06
710.819	-0.11
711	-0.04
711.181	0.07
711.362	-0.04
711.542	-0.03
711.723	-0.08
711.904	0.08
712.085	0.01
712.265	0.04
712.446	-0.07
712.627	-0.04
712.807	-0.08
712.988	-0.05
713.168	-0.09
713.349	-0.04
713.53	-0.13
713.71	-0.06
713.891	-0.14
714.071	-0.04
714.252	-0.06
714.432	-0.12
714.613	-0.08
714.793	0.01
714.974	0.07
715.154	0.11
715.334	0.03
715.515	0.08
715.695	-0.07
715.876	-0.05
716.056	-0.04
716.236	-0.01
716.417	-0.06
716.597	-0.05
716.777	0.1
716.957	-0.05
717.138	-0.02
717.318	-0.01
717.498	-0.12
717.678	-0.03
717.859	-0.01
718.039	-0.15
718.219	-0.03
718.399	0.04
718.579	-0.09
718.759	-0.09
718.939	-0.01
719.12	0.05
719.3	-0.01
719.48	-0.13
719.66	-0.14
719.84	0.06
720.02	-0.08
720.2	-0.11
720.38	-0.02
720.56	0.08
720.74	-0.1
720.92	-0.03
721.1	0.01
721.279	0.13
721.459	-0.01
721.639	-0.05
721.819	-0.02
721.999	-0.06
722.179	0.06
722.359	-0.11
722.538	0
722.718	0.05
722.898	-0.01
723.078	-0
723.257	-0.09
723.437	-0.05
723.617	0.01
723.797	-0.06
723.976	-0.16
724.156	0.03
724.336	0.07
724.515	0.1
724.695	-0.18
724.874	-0.03
725.054	-0
725.234	-0.08
725.413	-0
725.593	-0.03
725.772	-0.03
725.952	-0.03
726.131	-0.05
726.311	-0.05
726.49	-0.03
726.67	-0.06
726.849	-0.11
727.028	-0.03
727.208	-0.03
727.387	-0.01
727.567	-0.18
727.746	-0.03
727.925	-0.06
728.105	-0.2
728.284	-0.09
728.463	-0.12
728.643	0.03
728.822	-0.17
729.001	-0.13
729.18	-0.03
729.359	-0
729.539	-0.02
729.718	-0.05
729.897	0.11
730.076	-0.07
730.255	-0.13
730.434	0.02
730.614	-0.06
730.793	0.04
730.972	-0.07
731.151	-0.03
731.33	-0.02
731.509	0.03
731.688	-0.06
731.867	-0.05
732.046	-0.18
732.225	0.23
732.404	-0.18
732.583	-0.15
732.762	-0.07
732.941	0.01
733.12	-0.04
733.298	-0.09
733.477	0.08
733.656	-0.01
733.835	-0.21
734.014	-0
734.193	-0.11
734.371	0.09
734.55	0.03
734.729	-0.18
734.908	-0.09
735.086	0.08
735.265	0.11
735.444	-0.21
735.623	-0.18
735.801	-0.2
735.98	0
736.159	-0.08
736.337	0.06
736.516	-0.06
736.694	-0.03
736.873	-0.04
737.052	0.13
737.23	0.06
737.409	-0.09
737.587	0.18
737.766	-0.11
737.944	-0.14
738.123	0.01
738.301	0
738.479	-0.07
738.658	-0.02
738.836	-0.24
739.015	-0.08
739.193	-0
739.371	-0.08
739.55	-0.16
739.728	-0.13
739.906	0.1
740.085	0.12
740.263	0.02
740.441	-0.23
740.62	0.11
740.798	0.1
740.976	-0.14
741.154	-0.14
741.332	0.06
741.511	-0.04
741.689	0.01
741.867	-0.01
742.045	-0.01
742.223	-0.06
742.401	-0.17
742.579	-0.12
742.757	0.04
742.935	-0.14
743.114	-0.05
743.292	-0.14
743.47	-0.12
743.648	-0.11
743.826	-0.03
744.004	0.05
744.181	0.04
744.359	-0.06
744.537	-0
744.715	-0.01
744.893	0.02
745.071	0.08
745.249	-0.03
745.427	-0.12
745.605	0.05
745.782	0
745.96	0.05
746.138	0.02
746.316	0.11
746.493	-0.06
746.671	0.02
746.849	-0.06
747.027	0.16
747.204	-0.01
747.382	0.11
747.56	-0.22
747.737	-0.17
747.915	-0.09
748.093	-0.04
748.27	-0.17
748.448	-0.11
748.625	-0.22
748.803	-0.13
748.98	0.05
749.158	0.07
749.335	0.02
749.513	0.02
749.69	-0.03
749.868	-0.11
750.045	-0.04
750.223	-0.05
750.4	-0.17
750.578	0.17
750.755	-0.02
750.932	-0.19
751.11	0.07
751.287	-0.1
751.464	0.05
751.642	-0.18
751.819	-0.05
751.996	-0.1
752.173	-0.03
752.351	-0.2
752.528	0.03
752.705	-0.06
752.882	-0.09
753.06	-0.09
753.237	-0.03
753.414	0.18
753.591	-0.01
753.768	-0.04
753.945	-0.08
754.122	-0.08
754.299	0.14
754.476	-0.18
754.654	-0.08
754.831	0.02
755.008	0.02
755.185	-0.16
755.362	-0.1
755.539	-0.05
755.716	-0.07
755.892	-0.06
756.069	-0.09
756.246	-0.07
756.423	-0.07
756.6	0.15
756.777	-0.14
756.954	0
757.131	-0.03
757.307	-0.16
757.484	-0.25
757.661	-0.09
757.838	-0.08
758.015	-0.19
758.191	0.06
758.368	-0.13
758.545	0.1
758.721	-0.06
758.898	-0.21
759.075	0.06
759.251	0.01
759.428	0.05
759.605	-0.1
759.781	-0.09
759.958	0.1
760.134	0.03
760.311	-0.1
760.488	0.02
760.664	0.13
760.841	-0.03
761.017	-0.18
761.194	-0.12
761.37	-0.02
761.547	-0.08
761.723	-0.1
761.899	0.1
762.076	-0.07
762.252	-0.14
762.429	-0.12
762.605	0.03
762.781	-0.12
762.958	0.12
763.134	-0.08
763.31	-0.19
763.486	0.03
763.663	-0.24
763.839	0.06
764.015	-0.14
764.191	-0.14
764.368	-0.13
764.544	-0.14
764.72	0.01
764.896	0.12
765.072	0.07
765.248	-0.06
765.425	-0.11
765.601	-0.09
765.777	0.03
765.953	-0.31
766.129	-0.1
766.305	-0.23
766.481	0.14
766.657	-0.03
766.833	0.14
767.009	-0.26
767.185	-0.18
767.361	-0.07
767.537	-0.11
767.713	0.1
767.889	-0.12
768.065	-0.03
768.24	-0.27
768.416	-0.02
768.592	-0.03
768.768	-0.12
768.944	0.04
769.12	-0.13
769.295	-0.04
769.471	-0.14
769.647	-0.02
769.823	0.22
769.998	-0.1
770.174	-0.13
770.35	0.25
770.525	0.22
770.701	-0.13
770.877	-0.06
771.052	-0.07
771.228	-0.02
771.403	0.03
771.579	-0.09
771.755	0.26
771.93	-0.09
772.106	-0.22
772.281	-0.21
772.457	-0.05
772.632	0.01
772.808	-0.28
772.983	-0.03
773.159	-0.22
773.334	0.2
773.509	-0.09
773.685	-0.04
773.86	0.35
774.036	0.26
774.211	-0.04
774.386	-0.04
774.562	-0.05
774.737	0.1
774.912	-0.26
775.087	0.07
775.263	-0.14
775.438	0.02
775.613	-0.29
775.788	-0.06
775.964	0.09
776.139	0.28
776.314	-0.28
776.489	0.01
776.664	0.08
776.839	-0.18
777.014	0.07
777.19	0.07
777.365	0.28
777.54	0.28
777.715	-0.07
777.89	-0.04
778.065	-0.11
778.24	-0.09
778.415	0.06
778.59	-0.11
778.765	-0.1
778.94	-0.01
779.115	-0.02
779.289	-0.1
779.464	-0.09
779.639	-0.12
779.814	-0.3
779.989	-0.18
780.164	0.21
780.339	0.1
780.513	-0.17
780.688	-0.27
780.863	-0.06
781.038	0.11
781.212	-0.32
781.387	0.06
781.562	0.32
781.737	0.02
781.911	0.23
782.086	-0.18
782.261	0.04
782.435	0.32
782.61	-0.16
782.784	-0.08
782.959	0.29
783.134	-0.24
783.308	-0.29
783.483	-0.14
783.657	0.22
783.832	0.14
784.006	-0.49
784.181	-0.11
784.355	0.16
784.53	-0.15
784.704	-0.27
784.878	0.09
785.053	-0.04
785.227	0.07
785.402	0.22
785.576	-0.27
785.75	-0.07
785.925	-0.05
786.099	-0.01
786.273	0.1
786.448	-0.01
786.622	0.18
786.796	-0.06
786.97	-0.11
787.145	0.56
787.319	-0.12
787.493	-0.32
787.667	-0.46
787.841	-0.26
788.015	0.27
788.19	-0.3
788.364	-0.1
788.538	0.11
788.712	0.16
788.886	-0.03
789.06	0.17
789.234	0.01
789.408	-0.56
789.582	-0.27
789.756	-0.04
789.93	-0.11
790.104	-0.07
790.278	-0.22
790.452	-0.18
790.626	-0
790.8	-0.24
790.973	0.09
791.147	0.06
791.321	0.26
791.495	0.2
791.669	0.02
791.843	-0.03
792.016	0.06
792.19	0.48
792.364	-0.32
792.538	0.45
792.711	0.24
792.885	-0.17
793.059	-0.47
793.233	-0.59
793.406	0.01
793.58	0.08
793.754	0.14
793.927	0.07
794.101	0.22
794.274	0.21
794.448	0.21
794.622	-0.33
794.795	0.28
794.969	-0.14
795.142	0.41
795.316	-0.1
795.489	-0.1
795.663	0.11
795.836	-0.18
796.009	-0.51
796.183	0.34
796.356	-0.21
796.53	-0.09
796.703	-0.02
796.876	0.48
797.05	-0.22
797.223	-0.19
797.396	-0.09
797.57	-0
797.743	0.44
797.916	-0.15
798.09	-0.28
798.263	0.3
798.436	-0.14
798.609	-0.12
798.782	0.01
798.956	-0.22
799.129	-0.03
799.302	-0.05
799.475	-0.08
799.648	-0.09
799.821	-0.38
799.994	-0.22
800.167	-0.53
800.34	-0.17
800.514	0.02
800.687	-0.15
800.86	-0.14
801.033	0.07
801.206	-0.07
801.379	-0.19
801.551	0.13
801.724	-0.09
801.897	0.4
802.07	-0.07
802.243	-0.54
802.416	0.03
802.589	-0.27
802.762	0.14
802.935	0.08
803.107	0.08
803.28	-0
803.453	-0.03
803.626	0
803.798	-0.26
803.971	-0.37
804.144	0.1
804.317	-0.08
804.489	0.1
804.662	-0.17
804.835	-0.32
805.007	-0.72
805.18	0.49
805.353	0.02
805.525	-0.56
805.698	-0.3
805.87	0.13
806.043	0.3
806.215	-0.36
806.388	-0.41
806.56	0.07
806.733	0.29
806.905	0
807.078	-0.24
807.25	-0.3
807.423	0.14
807.595	-0.33
807.768	-0.14
807.94	0.29
808.112	0.03
808.285	-0.03
808.457	-0.39
808.629	-0.03
808.802	0.38
808.974	0.07
809.146	-0.12
809.318	-0.28
809.491	-0
809.663	0.18
809.835	-0.25
810.007	0.08
810.18	-0.2
810.352	-0.61
810.524	-0.34
810.696	0.08
810.868	0.61
811.04	0.02
811.212	0.03
811.384	0.18
811.556	0.06
811.728	0.04
811.901	0.63
812.073	-0.25
812.245	0.12
812.417	0.29
812.589	-0.59
812.76	0.31
812.932	0.16
813.104	0.4
813.276	-0.17
813.448	-0.08
813.62	0.07
813.792	-0.11
813.964	-0.29
814.136	0.33
814.307	-0.27
814.479	-0.44
814.651	-0.36
814.823	0.77
814.995	0.19
815.166	-0.2
815.338	-0.49
815.51	-0.84
815.681	0.67
815.853	0.01
816.025	-0.2
816.196	0.23
816.368	0.22
816.54	-0.87
816.711	-0.29
816.883	-0.05
817.054	1.05
817.226	-1.09
817.398	0.17
817.569	-0.09
817.741	0.07
817.912	-0.7
818.084	-0.24
818.255	-0.14
818.426	-0.58
818.598	-0.18
818.769	-0.65
818.941	0.59
819.112	0.74
819.283	0.14
819.455	-0.6
819.626	0.01
819.798	0.11
819.969	-0.02
820.14	-0.09
820.311	-0.11
820.483	-0.07
820.654	-0.01
820.825	0.13
820.996	-0.11
821.168	-0.52
821.339	-0.17
821.51	-1.03
821.681	-0.26
821.852	0.28
822.023	-0.54
822.195	-0.49
822.366	0.73
822.537	-0.12
822.708	0.28
822.879	-0.36
823.05	0.25
823.221	-0.07
823.392	0.37
823.563	-0.12
823.734	0.1
823.905	-0.4
824.076	-0.09
824.247	-0.61
824.418	-0.28
824.589	0.47
824.759	-0.27
824.93	-0.76
825.101	-0.12
825.272	0.07
825.443	0.32
825.614	0.76
825.784	-1.56
825.955	0.57
826.126	0.55
826.297	-0.19
826.467	0.06
826.638	0.91
826.809	-1.18
826.98	-0.21
827.15	0.56
827.321	-0.85
827.492	0.13
827.662	0.15
827.833	0.65
828.003	0.31
828.174	-0.68
828.345	-0.38
828.515	0.45
828.686	-0.3
828.856	-0.68
829.027	0.2
829.197	0.36
829.368	-0.1
829.538	-0.25
829.709	-0.14
829.879	0.53
830.049	-0.18
830.22	-0.36
830.39	-0.4
830.56	0.28
830.731	-0.51
830.901	-0.48
831.072	-0.48
831.242	0.14
831.412	-0.13
831.582	0.58
831.753	-0.71
831.923	0.24
832.093	-0.44
832.263	-0.27
832.434	-0.54
832.604	-0.76
832.774	0.49
832.944	-0.36
833.114	-0.83
833.284	0.05
833.454	-0.71
833.624	-0.7
833.795	-1.05
833.965	0.86
834.135	0.66
834.305	-1.17
834.475	-0.54
834.645	-0.54
834.815	0.06
834.985	-0.38
835.155	-0.76
835.325	0.59
835.494	0.47
835.664	-0.9
835.834	-1.3
836.004	-0.34
836.174	0.11
836.344	-0.36
836.514	-1.2
836.684	-0.97
836.853	-0.33
837.023	-0.25
837.193	-0.51
837.363	0.54
837.532	0.62
837.702	-0.37
837.872	-0.78
838.041	0.6
838.211	1.01
838.381	-1.34
838.55	-0.29
838.72	1.65
838.89	0.99
839.059	-0.64
839.229	-0.16
839.398	1.9
839.568	-0.18
839.738	-0.7
839.907	1.02
840.077	0.51
840.246	-0.52
840.416	-0.4
840.585	-1.1
840.755	0.55
840.924	0.49
841.093	-0.61
841.263	-0.29
841.432	-0.61
841.602	-1.54
841.771	-0.19
841.94	-0.45
842.11	1.41
842.279	1.18
842.448	-1.6
842.617	-1.08
842.787	0.93
842.956	-1.5
843.125	0.65
843.294	-0.04
843.464	0.74
843.633	-0.52
843.802	-1.14
843.971	-0.16
844.14	0.55
844.309	0.8
844.479	-0.8
844.648	-1.16
844.817	-0.55
844.986	-0.52
845.155	-0.37
845.324	0.31
845.493	0.26
845.662	-1.39
845.831	-0.26
846	0.03
846.169	-0.61
846.338	0.96
846.507	-0.27
846.676	-0.36
846.844	-1.07
847.013	-0.07
847.182	0.63
847.351	-1.43
847.52	-0.18
847.689	-0.36
847.858	-0.17
848.026	-1.46
848.195	-0.3
848.364	-1.12
848.533	-0.14
848.701	-0.16
848.87	-0.02
849.039	0.28
849.207	0.12
849.376	0.81
849.545	0.63
849.713	-1.33
849.882	0.11
850.051	-0.03
850.219	-0.52
850.388	1
850.556	-1.05
850.725	-1.07
850.893	0.46
851.062	-1.46
851.23	0.02
851.399	-1.2
851.567	-0.26
851.736	-0.54
851.904	-1.62
852.073	-0.19
852.241	1.09
852.41	-1.03
852.578	0.14
852.746	-0.7
852.915	0.68
853.083	-0.14
853.251	-1.14
853.42	-1.03
853.588	-0.47
853.756	1.52
853.924	-0.76
854.093	-0.75
854.261	-0.25
854.429	-0.97
854.597	0.1
854.765	-1.7
854.934	0.42
855.102	0.69
855.27	-1.53
855.438	0.69
855.606	1.74
855.774	0.54
855.942	-2.35
856.11	-1.39
856.278	-0.28
856.446	0.24
856.614	0.01
856.782	-0.84
856.95	1.52
857.118	0.15
857.286	0.54
857.454	-1.63
857.622	1.24
857.79	0.71
857.958	-1.57
858.126	-0.84
858.294	-2.38
858.462	0.38
858.629	-0.94
858.797	-1.7
858.965	-0.08
859.133	1.05
859.301	-0.1
859.468	-0.03
859.636	-1.62
859.804	1.38
859.971	0.68
860.139	-1.82
860.307	0.14
860.474	-0.24
860.642	-1.02
860.81	-1.46
860.977	-0.7
861.145	0.73
861.313	0.43
861.48	-1.39
861.648	0.58
861.815	-0.84
861.983	-2.34
862.15	-1.63
862.318	0.26
862.485	0.53
862.653	-1.77
862.82	-2.54
862.988	2.05
863.155	0.41
863.322	-2.64
863.49	-1.52
863.657	-0.17
863.824	0.69
863.992	0.24
864.159	-1.29
864.326	0.03
864.494	-0.27
864.661	1.15
864.828	-2.16
864.996	1.84
865.163	1.29
865.33	-2.38
865.497	-3.32
865.664	-1.18
865.832	-2.68
865.999	-0.77
866.166	-1.81
866.333	-1.6
866.5	-0.61
866.667	-0.35
866.834	-1.31
867.001	1.35
867.168	-3.52
867.335	-0.9
867.502	-2.41
867.669	-0.47
867.836	2.75
868.003	-0.26
868.17	0.53
868.337	-1.83
868.504	1.24
868.671	-2.01
868.838	-2.13
869.005	-0.64
869.172	-0.62
869.339	-0.87
869.505	0.54
869.672	-0.21
869.839	1.86
870.006	-1.63
870.173	-2.48
870.339	-0.89
870.506	2.5
870.673	-0.83
870.84	-0.13
871.006	-0.55
871.173	-0.74
871.34	0.09
871.506	-2.4
871.673	0.19
871.839	-2.69
872.006	0.11
872.173	-0.55
872.339	0.31
872.506	0.55
872.672	0.51
872.839	-2.21
873.005	0.01
873.172	2.81
873.338	-0.23
873.505	-0.33
873.671	-0.06
873.838	0.14
874.004	-2.39
874.171	-2.42
874.337	0.68
874.503	0.63
874.67	-1.25
874.836	-1.27
875.002	0.25
875.169	1.24
875.335	-1.46
875.501	0.18
875.668	-0.1
875.834	-0.68
876	-2.29
876.166	0.38
876.332	0.19
876.499	3.2
876.665	-0.63
876.831	-1.09
876.997	2.81
877.163	0.82
877.329	-2.3
877.495	0.45
877.662	-0.78
877.828	0.16
877.994	-0.41
878.16	-3.15
878.326	0.55
878.492	-1.6
878.658	0.05
878.824	-0.36
878.99	-0.99
879.156	1.13
879.322	2.38
879.487	-2.14
879.653	0.85
879.819	-1.39
879.985	-2.13
880.151	-0.29
880.317	-0.21
880.483	-0.29
880.648	0.76
880.814	-2.36
880.98	0.68
881.146	-4.48
881.312	-3.31
881.477	-2.81
881.643	-0.54
881.809	2.65
881.974	0.71
882.14	-4.09
882.306	2.32
882.471	2.55
882.637	-1.7
882.803	-0.85
882.968	3.02
883.134	2.01
883.299	-1.13
883.465	-1.15
883.63	3.25
883.796	-0.2
883.961	2.7
884.127	-0.64
884.292	-5.08
884.458	-2.48
884.623	-2.48
