Data from Apollo_Calib_20240827__AbsoluteIrradiance__248__03-17-02-899.txt Node

Date: Wed Aug 28 03:17:02 BST 2024
User: biology
Spectrometer: FLMT08252
Trigger mode: 0
Integration Time (sec): 5.000000E-1
Scans to average: 5
Electric dark correction enabled: true
Nonlinearity correction enabled: false
Boxcar width: 0
XAxis mode: Wavelengths
Number of Pixels in Spectrum: 3648
>>>>>Begin Spectral Data<<<<<
179.588	-0
179.809	-0
180.03	-0
180.251	-0
180.473	-0
180.694	0
180.915	0
181.136	-0
181.357	0
181.578	-0
181.799	-0
182.02	-0
182.241	-0
182.462	-0
182.683	0
182.904	-0
183.125	-0
183.346	0
183.567	0
183.788	-0
184.009	-0
184.23	0
184.451	0
184.672	-0
184.892	-0
185.113	0
185.334	0
185.555	-0
185.776	-0
185.996	0
186.217	0
186.438	-0
186.659	-0
186.879	0
187.1	-0
187.321	-0
187.541	0
187.762	0
187.983	0
188.203	-0
188.424	0
188.644	0
188.865	0
189.086	-0
189.306	-0
189.527	0
189.747	-0
189.968	-0
190.188	0
190.409	0
190.629	0
190.849	-0
191.07	-0
191.29	0
191.511	0
191.731	-0
191.951	-0
192.172	0
192.392	0
192.612	-0
192.833	0
193.053	0
193.273	0
193.493	-0
193.714	-0
193.934	0
194.154	0
194.374	-0
194.594	0
194.815	-0
195.035	0
195.255	0
195.475	-0
195.695	0
195.915	0
196.135	-0
196.355	0
196.575	0
196.795	0
197.015	-0
197.235	-0
197.455	-0
197.675	0
197.895	-0
198.115	-0
198.335	0
198.555	0
198.775	0
198.995	0
199.214	0
199.434	0
199.654	-0
199.874	-0
200.094	1.41
200.313	0.01
200.533	-0.45
200.753	-0.82
200.973	0.73
201.192	0.62
201.412	-0.67
201.632	-0.65
201.851	1.25
202.071	0.12
202.291	-0.61
202.51	-0.58
202.73	0.6
202.95	-0
203.169	-0.11
203.389	0.33
203.608	0.25
203.828	-0.08
204.047	-0.22
204.267	0.7
204.486	0.26
204.706	0.49
204.925	0.18
205.145	-0.28
205.364	0.51
205.583	0.8
205.803	-0.41
206.022	-0.24
206.242	0.31
206.461	-0.09
206.68	-0.4
206.9	0.35
207.119	0.67
207.338	0.75
207.557	-0.12
207.777	0.09
207.996	-0.05
208.215	0.58
208.434	0.05
208.654	-0.31
208.873	0.43
209.092	0.68
209.311	-0.15
209.53	0.16
209.749	0.01
209.968	0.03
210.187	-0.19
210.407	-0.58
210.626	-0.09
210.845	0.44
211.064	-0.02
211.283	-0.27
211.502	0.56
211.721	0.2
211.94	-0.08
212.159	0.17
212.377	0.28
212.596	0.39
212.815	0.13
213.034	0.2
213.253	0.22
213.472	0.43
213.691	-0.21
213.91	-0.08
214.128	0.09
214.347	0.7
214.566	-0.16
214.785	-0.44
215.003	0.27
215.222	0.01
215.441	-0.13
215.66	-0.31
215.878	0
216.097	0.31
216.316	-0.09
216.534	-0.09
216.753	0.24
216.972	-0.09
217.19	0.11
217.409	-0.09
217.627	-0.13
217.846	-0.16
218.064	0.08
218.283	-0.13
218.501	0.58
218.72	0.27
218.938	-0.13
219.157	-0.05
219.375	0.27
219.594	0.25
219.812	-0.04
220.031	-0.16
220.249	0.36
220.467	0.44
220.686	0.02
220.904	-0.21
221.122	-0.02
221.341	0.37
221.559	-0.06
221.777	-0.26
221.995	0.06
222.214	0.12
222.432	-0.01
222.65	0.01
222.868	0.08
223.086	0.04
223.305	0.14
223.523	-0.01
223.741	0.31
223.959	-0.09
224.177	-0.15
224.395	-0.11
224.613	0.27
224.831	0.24
225.049	-0.03
225.267	-0.07
225.485	0.12
225.703	0.05
225.921	0.11
226.139	-0.01
226.357	0.22
226.575	0.21
226.793	-0.03
227.011	0.56
227.229	0.12
227.447	0.13
227.665	-0.14
227.883	-0.06
228.1	-0.07
228.318	0.04
228.536	-0.26
228.754	-0.08
228.972	0.17
229.189	0.13
229.407	0.01
229.625	0.01
229.843	0.2
230.06	0.19
230.278	0.08
230.496	0.05
230.713	-0.06
230.931	0.22
231.149	-0.07
231.366	-0.18
231.584	0.03
231.801	0.42
232.019	0.01
232.236	-0.15
232.454	-0.07
232.671	0.06
232.889	0.06
233.106	-0.08
233.324	0.02
233.541	-0.01
233.759	0.14
233.976	-0.01
234.194	0.11
234.411	0.06
234.628	-0.11
234.846	-0.07
235.063	0.13
235.28	-0.05
235.498	-0
235.715	-0.05
235.932	0.17
236.149	-0.02
236.367	-0.02
236.584	0.03
236.801	-0.08
237.018	0.22
237.236	0.07
237.453	-0.15
237.67	0.24
237.887	0.02
238.104	-0.08
238.321	-0.04
238.538	-0.05
238.755	0.13
238.973	-0.07
239.19	0.04
239.407	0.08
239.624	0.11
239.841	-0.1
240.058	-0.07
240.275	0.09
240.492	0.01
240.709	0.03
240.925	0
241.142	0.12
241.359	-0.02
241.576	-0.1
241.793	0.07
242.01	0.01
242.227	0.07
242.444	0.04
242.66	0.11
242.877	0.14
243.094	0.01
243.311	0.01
243.527	-0.05
243.744	0.15
243.961	0.1
244.178	-0.05
244.394	0.1
244.611	0.17
244.828	0.26
245.044	-0.08
245.261	-0.02
245.477	0.01
245.694	0.01
245.911	-0
246.127	0.02
246.344	0.19
246.56	0.18
246.777	0.03
246.993	-0.01
247.21	0
247.426	0.14
247.643	0.04
247.859	-0.17
248.076	0
248.292	0.19
248.508	-0.02
248.725	0.12
248.941	0.15
249.157	0.14
249.374	-0
249.59	0.01
249.806	0.06
250.023	0.04
250.239	-0.05
250.455	-0.04
250.671	0.01
250.888	0.09
251.104	0.13
251.32	-0.05
251.536	0.04
251.752	0.01
251.969	0.05
252.185	0.06
252.401	0.18
252.617	-0.1
252.833	0
253.049	0.09
253.265	-0.02
253.481	0.09
253.697	-0.05
253.913	-0.05
254.129	0.07
254.345	0.02
254.561	-0.01
254.777	-0.03
254.993	0.13
255.209	0.01
255.425	-0
255.641	-0
255.857	0.08
256.073	0.04
256.288	-0.04
256.504	-0.05
256.72	0.06
256.936	0.15
257.152	0.01
257.367	-0.06
257.583	0.03
257.799	0.07
258.015	0.05
258.23	-0.02
258.446	0.16
258.662	0
258.877	-0.06
259.093	-0.03
259.309	0.07
259.524	0.11
259.74	-0.09
259.955	-0.05
260.171	0.01
260.387	0
260.602	0.09
260.818	0.09
261.033	-0.11
261.249	-0.08
261.464	-0.01
261.68	-0.06
261.895	0.02
262.11	0.18
262.326	-0.04
262.541	-0.08
262.757	0.09
262.972	0.05
263.187	0.08
263.403	0.01
263.618	0.16
263.833	0.07
264.049	-0.04
264.264	0.01
264.479	0.05
264.694	0.19
264.91	-0.04
265.125	0.03
265.34	0.04
265.555	0.17
265.77	0.01
265.986	-0.03
266.201	0.07
266.416	0.14
266.631	-0.01
266.846	0.01
267.061	0.07
267.276	0.06
267.491	-0.06
267.706	0.02
267.921	0.05
268.136	0.04
268.351	0.02
268.566	-0.13
268.781	0.1
268.996	0.04
269.211	-0.02
269.426	-0.05
269.641	0.03
269.856	0.09
270.071	-0.02
270.285	-0.06
270.5	0.1
270.715	0.07
270.93	0.04
271.145	0.04
271.359	0.06
271.574	0.01
271.789	0.01
272.004	-0.07
272.218	0.02
272.433	0.09
272.648	0.02
272.862	0.08
273.077	0.04
273.292	0.07
273.506	-0.07
273.721	0.04
273.936	0.02
274.15	0.09
274.365	0.01
274.579	0.06
274.794	0.07
275.008	0.09
275.223	-0.07
275.437	0.01
275.652	0.06
275.866	0.04
276.081	-0.03
276.295	0.07
276.509	0.13
276.724	0.02
276.938	0.01
277.153	0.04
277.367	0.08
277.581	0.01
277.796	0.02
278.01	-0.03
278.224	0.11
278.438	0.16
278.653	-0.04
278.867	-0.01
279.081	-0.13
279.295	0
279.51	0.02
279.724	-0.06
279.938	0.09
280.152	0.07
280.366	-0.04
280.58	0.03
280.794	0.12
281.008	0.02
281.222	0.02
281.437	0.15
281.651	0.06
281.865	0.11
282.079	0
282.293	-0.04
282.507	-0.03
282.721	0.06
282.935	0.06
283.148	-0.05
283.362	-0.05
283.576	-0.07
283.79	0
284.004	-0.01
284.218	0.11
284.432	-0
284.646	0.03
284.859	-0.03
285.073	0.03
285.287	0.02
285.501	0.01
285.714	0.02
285.928	0.05
286.142	0.05
286.356	-0.03
286.569	0
286.783	0.12
286.997	0.06
287.21	0.01
287.424	0.03
287.637	0
287.851	0.05
288.065	0.04
288.278	0.04
288.492	0.01
288.705	0.02
288.919	0.05
289.132	0.01
289.346	0.07
289.559	-0.01
289.773	-0.1
289.986	-0.04
290.2	0.05
290.413	0.09
290.626	-0.07
290.84	-0
291.053	0.03
291.267	0.11
291.48	0.05
291.693	0.03
291.906	-0
292.12	0.03
292.333	0
292.546	-0.02
292.76	0.13
292.973	0.08
293.186	0.1
293.399	0.01
293.612	0.07
293.826	0.03
294.039	0.06
294.252	0.03
294.465	0.11
294.678	0.04
294.891	-0
295.104	-0.05
295.317	0.06
295.53	0.04
295.743	0.03
295.956	0.06
296.169	0.08
296.382	0.05
296.595	0.05
296.808	-0.01
297.021	0.1
297.234	0.07
297.447	0.02
297.66	0.04
297.873	0.07
298.086	0.04
298.299	0.01
298.511	-0.03
298.724	0.04
298.937	-0.03
299.15	-0.06
299.363	0.01
299.575	0.09
299.788	0.05
300.001	0.01
300.213	-0.05
300.426	0
300.639	-0.01
300.852	-0.01
301.064	0.05
301.277	0.11
301.489	0.09
301.702	0.03
301.915	0.01
302.127	0.03
302.34	0.04
302.552	0.08
302.765	-0.01
302.977	0.08
303.19	-0.01
303.402	-0
303.615	-0.03
303.827	-0.01
304.04	0.02
304.252	0.06
304.464	0.04
304.677	0.11
304.889	0.07
305.102	-0.06
305.314	-0.03
305.526	-0.01
305.739	0.07
305.951	-0.01
306.163	0.04
306.375	0.1
306.588	0
306.8	-0.02
307.012	-0.03
307.224	0.05
307.436	0.08
307.649	-0.01
307.861	0.02
308.073	0.05
308.285	0.04
308.497	-0.03
308.709	0.01
308.921	0.07
309.133	0.03
309.346	0.02
309.558	0.01
309.77	0.06
309.982	0.1
310.194	0.04
310.406	-0.03
310.617	0.08
310.829	0.06
311.041	0.08
311.253	-0.01
311.465	0.01
311.677	0.01
311.889	0.02
312.101	-0.02
312.313	0.1
312.524	0.06
312.736	-0.02
312.948	-0.02
313.16	0.13
313.372	0.03
313.583	0.07
313.795	0.05
314.007	-0.02
314.218	0.03
314.43	-0.01
314.642	0
314.853	-0.05
315.065	0.05
315.277	0.01
315.488	0.05
315.7	0.07
315.912	0.08
316.123	0.03
316.335	0.01
316.546	0.17
316.758	0.03
316.969	-0
317.181	0
317.392	0.04
317.604	0.08
317.815	0.01
318.026	-0
318.238	0.01
318.449	0.03
318.661	-0.04
318.872	-0.03
319.083	-0.02
319.295	0.09
319.506	-0.02
319.717	0.05
319.929	0.04
320.14	0.02
320.351	0.01
320.562	-0.03
320.774	0.01
320.985	0.07
321.196	-0.02
321.407	-0.01
321.618	0.05
321.829	0.05
322.041	0.06
322.252	0.05
322.463	0.06
322.674	0.04
322.885	0
323.096	-0.01
323.307	0.02
323.518	0.02
323.729	-0
323.94	0.02
324.151	0.02
324.362	0.02
324.573	0.06
324.784	0
324.995	0.11
325.206	0.03
325.417	0
325.628	0.01
325.838	0.02
326.049	0.04
326.26	0.07
326.471	0.01
326.682	0.05
326.892	0.04
327.103	-0.03
327.314	0.02
327.525	0.12
327.735	0.04
327.946	0.02
328.157	-0.02
328.368	0.06
328.578	-0.03
328.789	0.11
328.999	-0
329.21	-0.02
329.421	0.04
329.631	-0.03
329.842	-0.01
330.052	0.05
330.263	0.08
330.473	0.05
330.684	0.04
330.894	0.03
331.105	0.04
331.315	-0
331.526	-0.05
331.736	0.13
331.947	0.01
332.157	0.03
332.367	-0.05
332.578	0.07
332.788	0.09
332.999	0.05
333.209	0.07
333.419	-0.02
333.629	0.08
333.84	0.02
334.05	0.06
334.26	0.07
334.47	0.03
334.681	0.08
334.891	0.01
335.101	0.06
335.311	0.1
335.521	0.02
335.732	-0.01
335.942	0.08
336.152	0.06
336.362	0.07
336.572	0.01
336.782	0.07
336.992	0.03
337.202	-0.01
337.412	0.01
337.622	0.09
337.832	0.04
338.042	0.03
338.252	0.02
338.462	0.03
338.672	0.06
338.882	-0.05
339.092	0.05
339.302	0.11
339.511	0.03
339.721	0
339.931	-0.04
340.141	0.04
340.351	0.12
340.561	0.03
340.77	0.03
340.98	0.04
341.19	0.03
341.4	0
341.609	0.01
341.819	-0
342.029	-0.01
342.238	0.03
342.448	-0.03
342.658	0.06
342.867	0.04
343.077	0.05
343.286	0.06
343.496	0.04
343.706	0.07
343.915	-0.01
344.125	0.02
344.334	0.04
344.544	-0.03
344.753	0
344.963	-0.01
345.172	0.02
345.381	-0.03
345.591	-0
345.8	0.01
346.01	0.09
346.219	0.09
346.428	-0.1
346.638	0
346.847	0.01
347.056	0.09
347.266	0
347.475	0.06
347.684	0.07
347.893	0.09
348.103	0.05
348.312	-0.02
348.521	0.02
348.73	0.07
348.94	0.03
349.149	0.02
349.358	-0.01
349.567	-0.02
349.776	-0.03
349.985	-0.01
350.194	0.1
350.403	0.09
350.612	-0.03
350.821	0
351.03	0.02
351.239	-0.01
351.448	0.05
351.657	0.01
351.866	0.09
352.075	0.07
352.284	0.06
352.493	-0.03
352.702	0.11
352.911	0.07
353.12	0.04
353.329	-0.01
353.538	0.06
353.746	0.04
353.955	0.01
354.164	0.01
354.373	0.01
354.582	0.03
354.79	0.04
354.999	0.07
355.208	0.03
355.416	0.08
355.625	-0.02
355.834	0
356.042	0.04
356.251	-0.01
356.46	0
356.668	0.07
356.877	0.09
357.085	0.09
357.294	-0.08
357.503	0.02
357.711	0.01
357.92	0.16
358.128	0.08
358.337	0.01
358.545	0.06
358.754	0.02
358.962	0.07
359.17	0.04
359.379	0.04
359.587	0.07
359.796	0
360.004	0.05
360.212	0.09
360.421	0.08
360.629	0.02
360.837	0.01
361.046	0.07
361.254	0.12
361.462	0.03
361.67	-0
361.879	0.03
362.087	0.08
362.295	0.05
362.503	0.03
362.711	-0.02
362.92	0.03
363.128	0.01
363.336	-0.02
363.544	-0.02
363.752	0.01
363.96	-0
364.168	0.01
364.376	0.02
364.584	0.06
364.792	0.01
365	0.07
365.208	0.02
365.416	0.05
365.624	0.06
365.832	0.03
366.04	0.07
366.248	0.05
366.456	0.04
366.664	0.04
366.872	0.05
367.079	0.04
367.287	0.03
367.495	0.05
367.703	0.01
367.911	-0
368.118	0.04
368.326	0.04
368.534	-0.01
368.742	0.1
368.949	-0
369.157	0.02
369.365	0.08
369.572	0.06
369.78	0.02
369.988	0.07
370.195	0.04
370.403	0.09
370.61	0.02
370.818	0.05
371.026	0.05
371.233	-0.03
371.441	0.03
371.648	-0.02
371.856	0.04
372.063	0.03
372.271	0.05
372.478	0.03
372.685	0.01
372.893	0.06
373.1	0.03
373.308	-0.02
373.515	0.09
373.722	0.09
373.93	0.02
374.137	0.05
374.344	0.11
374.552	0.05
374.759	0.05
374.966	0.09
375.173	0.01
375.381	0.06
375.588	0.04
375.795	-0.01
376.002	0.02
376.209	0.01
376.417	0.04
376.624	0.03
376.831	0.06
377.038	0.03
377.245	-0.04
377.452	0.02
377.659	0.05
377.866	0.02
378.073	0.02
378.28	0.07
378.487	0.1
378.694	0.04
378.901	0.05
379.108	0.06
379.315	0.09
379.522	0.13
379.729	0.04
379.936	0.05
380.143	0.02
380.35	0.06
380.557	0
380.763	0.05
380.97	0.04
381.177	0.06
381.384	0.05
381.591	0.04
381.797	-0.01
382.004	0.09
382.211	0.05
382.418	0.04
382.624	0.1
382.831	0.08
383.038	0.05
383.244	0.03
383.451	0.06
383.658	0.08
383.864	0.01
384.071	0.03
384.277	0.12
384.484	-0.01
384.69	0.1
384.897	0.02
385.103	0.04
385.31	0.01
385.516	0.04
385.723	-0.02
385.929	0.05
386.136	0.04
386.342	0.06
386.549	0.04
386.755	0.11
386.961	0.08
387.168	0.03
387.374	0.05
387.58	0.09
387.787	0.05
387.993	0.03
388.199	-0.01
388.406	-0.01
388.612	0.07
388.818	0.03
389.024	0.05
389.231	0.06
389.437	0.14
389.643	0.08
389.849	0.03
390.055	0.09
390.261	0.09
390.467	0.07
390.674	-0.01
390.88	0.05
391.086	0.08
391.292	0.01
391.498	0.08
391.704	0.07
391.91	0.06
392.116	0.04
392.322	-0.02
392.528	0.05
392.734	0.05
392.94	0.03
393.146	0.1
393.352	0.06
393.557	0.1
393.763	0.05
393.969	0.12
394.175	0.09
394.381	0.06
394.587	0.03
394.792	0.01
394.998	0.09
395.204	0.14
395.41	-0.01
395.615	0.08
395.821	0.1
396.027	0.14
396.233	0.04
396.438	0.11
396.644	0.17
396.85	0.16
397.055	0.08
397.261	0.12
397.466	0.11
397.672	0.12
397.878	0.16
398.083	0.21
398.289	0.12
398.494	0.16
398.7	0.2
398.905	0.08
399.111	0.24
399.316	0.08
399.522	0.18
399.727	0.17
399.932	0.17
400.138	0.16
400.343	0.22
400.549	0.16
400.754	0.23
400.959	0.23
401.165	0.21
401.37	0.22
401.575	0.2
401.78	0.21
401.986	0.2
402.191	0.24
402.396	0.27
402.601	0.31
402.807	0.32
403.012	0.31
403.217	0.36
403.422	0.35
403.627	0.36
403.832	0.38
404.037	0.46
404.243	0.47
404.448	0.41
404.653	0.45
404.858	0.48
405.063	0.55
405.268	0.5
405.473	0.51
405.678	0.57
405.883	0.76
406.088	0.68
406.293	0.63
406.498	0.71
406.703	0.72
406.907	0.79
407.112	0.74
407.317	0.86
407.522	0.97
407.727	0.9
407.932	0.92
408.136	1.09
408.341	1.05
408.546	1.13
408.751	1.18
408.956	1.19
409.16	1.33
409.365	1.33
409.57	1.31
409.774	1.39
409.979	1.5
410.184	1.57
410.388	1.52
410.593	1.73
410.798	1.74
411.002	1.8
411.207	1.93
411.411	2
411.616	2.02
411.82	2.11
412.025	2.22
412.229	2.31
412.434	2.42
412.638	2.51
412.843	2.55
413.047	2.64
413.252	2.7
413.456	2.96
413.66	3
413.865	3.11
414.069	3.16
414.273	3.3
414.478	3.39
414.682	3.46
414.886	3.64
415.091	3.63
415.295	3.82
415.499	4.03
415.703	4.06
415.908	4.39
416.112	4.33
416.316	4.65
416.52	4.73
416.724	4.85
416.929	4.96
417.133	5.4
417.337	5.31
417.541	5.58
417.745	5.66
417.949	5.83
418.153	5.97
418.357	6.2
418.561	6.51
418.765	6.47
418.969	6.79
419.173	7.15
419.377	7.11
419.581	7.56
419.785	7.63
419.989	7.75
420.193	8.09
420.397	8.09
420.601	8.29
420.804	8.43
421.008	8.51
421.212	8.81
421.416	8.58
421.62	8.65
421.823	8.66
422.027	8.79
422.231	8.7
422.435	8.6
422.638	8.61
422.842	8.75
423.046	8.83
423.249	8.98
423.453	8.84
423.657	8.98
423.86	8.96
424.064	9.06
424.268	9.01
424.471	8.84
424.675	8.98
424.878	8.92
425.082	8.88
425.285	9.11
425.489	8.73
425.692	8.71
425.896	8.49
426.099	8.37
426.303	8.41
426.506	8.28
426.71	8.39
426.913	8.28
427.116	8.19
427.32	7.91
427.523	7.69
427.726	7.77
427.93	7.53
428.133	7.62
428.336	7.53
428.54	7.32
428.743	7.24
428.946	7.13
429.149	6.87
429.353	6.68
429.556	6.47
429.759	6.2
429.962	5.97
430.165	5.91
430.368	5.37
430.571	5.23
430.775	5.05
430.978	4.79
431.181	4.6
431.384	4.52
431.587	4.36
431.79	4.42
431.993	4.29
432.196	4.22
432.399	4.17
432.602	4.14
432.805	3.96
433.008	4.08
433.211	3.82
433.414	3.85
433.616	3.72
433.819	3.45
434.022	3.43
434.225	3.5
434.428	3.35
434.631	3.42
434.833	3.1
435.036	3.14
435.239	3.09
435.442	2.94
435.645	2.89
435.847	2.88
436.05	2.82
436.253	2.74
436.455	2.64
436.658	2.6
436.861	2.6
437.063	2.54
437.266	2.36
437.468	2.43
437.671	2.53
437.874	2.26
438.076	2.12
438.279	2.11
438.481	2.09
438.684	2.1
438.886	2.01
439.089	1.94
439.291	1.9
439.494	1.95
439.696	1.88
439.899	1.81
440.101	1.87
440.303	1.8
440.506	1.9
440.708	1.75
440.91	1.79
441.113	1.64
441.315	1.61
441.517	1.51
441.72	1.57
441.922	1.43
442.124	1.39
442.326	1.35
442.529	1.38
442.731	1.2
442.933	1.36
443.135	1.22
443.337	1.15
443.539	1.19
443.742	1.08
443.944	1.15
444.146	0.97
444.348	1.02
444.55	0.96
444.752	0.97
444.954	0.9
445.156	0.87
445.358	0.82
445.56	0.93
445.762	0.8
445.964	0.8
446.166	0.74
446.368	0.74
446.57	0.75
446.772	0.68
446.974	0.71
447.175	0.69
447.377	0.68
447.579	0.63
447.781	0.51
447.983	0.67
448.184	0.62
448.386	0.6
448.588	0.5
448.79	0.58
448.991	0.52
449.193	0.5
449.395	0.51
449.597	0.59
449.798	0.53
450	0.54
450.202	0.48
450.403	0.47
450.605	0.51
450.806	0.44
451.008	0.34
451.21	0.41
451.411	0.45
451.613	0.38
451.814	0.4
452.016	0.45
452.217	0.37
452.419	0.41
452.62	0.41
452.821	0.44
453.023	0.45
453.224	0.41
453.426	0.27
453.627	0.39
453.828	0.34
454.03	0.3
454.231	0.4
454.432	0.25
454.634	0.43
454.835	0.28
455.036	0.2
455.238	0.35
455.439	0.42
455.64	0.23
455.841	0.24
456.042	0.35
456.244	0.33
456.445	0.27
456.646	0.19
456.847	0.27
457.048	0.22
457.249	0.31
457.45	0.49
457.651	0.21
457.852	0.29
458.054	0.23
458.255	0.2
458.456	0.26
458.657	0.26
458.858	0.19
459.058	0.21
459.259	0.27
459.46	0.18
459.661	0.14
459.862	0.3
460.063	0.16
460.264	0.23
460.465	0.16
460.666	0.28
460.866	0.15
461.067	0.16
461.268	0.11
461.469	0.13
461.67	0.16
461.87	0.15
462.071	0.13
462.272	0.09
462.473	0.13
462.673	0.18
462.874	0.13
463.075	0.14
463.275	0.18
463.476	0.18
463.676	0.18
463.877	0.17
464.078	0.15
464.278	0.19
464.479	0.08
464.679	0.12
464.88	0.16
465.08	0.24
465.281	0.1
465.481	0.11
465.682	0.17
465.882	0.16
466.083	0.12
466.283	0.09
466.483	0.11
466.684	0.05
466.884	0.09
467.085	0.05
467.285	0.18
467.485	0.07
467.686	0.11
467.886	0.04
468.086	0.08
468.286	0.15
468.487	0.15
468.687	0.06
468.887	0.09
469.087	0.13
469.287	0.13
469.488	0.04
469.688	0.12
469.888	0.16
470.088	0.11
470.288	0.15
470.488	0.18
470.688	0.07
470.888	0.04
471.088	0.03
471.288	0.09
471.488	0.07
471.688	0.11
471.888	0.07
472.088	0.09
472.288	0.12
472.488	0.05
472.688	0.05
472.888	0.07
473.088	0.09
473.288	0.11
473.488	0.09
473.688	0.18
473.887	0.07
474.087	0.04
474.287	0.08
474.487	0.06
474.687	0.09
474.886	0.02
475.086	0.06
475.286	0.06
475.486	0.06
475.685	0.04
475.885	0.06
476.085	0.05
476.284	0.08
476.484	0.05
476.684	0.09
476.883	0.13
477.083	0.07
477.282	0.05
477.482	0.14
477.681	0.1
477.881	0.08
478.08	0.05
478.28	0.06
478.479	0.1
478.679	0.15
478.878	0.03
479.078	0.02
479.277	0.06
479.477	0.05
479.676	0.1
479.875	0.03
480.075	-0.04
480.274	0.07
480.473	0.06
480.673	0.02
480.872	0.11
481.071	0.08
481.271	0.07
481.47	0.03
481.669	0
481.868	0.04
482.067	0.02
482.267	0.01
482.466	0
482.665	0.01
482.864	-0.02
483.063	-0.01
483.262	0.08
483.461	0.09
483.661	0.09
483.86	0.06
484.059	0.06
484.258	0.04
484.457	0.02
484.656	0.04
484.855	0.09
485.054	-0.01
485.253	0.02
485.452	0.01
485.651	0.05
485.849	0.07
486.048	0
486.247	0.01
486.446	0.03
486.645	0.02
486.844	0.01
487.043	0.02
487.241	0.02
487.44	0.04
487.639	0.02
487.838	0.06
488.037	0.03
488.235	0.09
488.434	0.05
488.633	-0.01
488.831	0.07
489.03	0.09
489.229	0.07
489.427	0.01
489.626	0.07
489.825	0.1
490.023	0.03
490.222	0.02
490.42	0.06
490.619	0.05
490.817	0.04
491.016	-0
491.214	0.05
491.413	0.01
491.611	0
491.81	0.01
492.008	0.05
492.207	0.05
492.405	0.07
492.604	-0
492.802	0.01
493	0.02
493.199	0.01
493.397	0.02
493.595	0.04
493.794	0.03
493.992	0.08
494.19	0.03
494.388	0.05
494.587	0.03
494.785	0.05
494.983	-0.02
495.181	0.03
495.379	0.03
495.578	0.02
495.776	0.04
495.974	0.04
496.172	0.03
496.37	0.01
496.568	-0.01
496.766	-0.01
496.964	0.05
497.162	0.01
497.36	-0
497.558	0.05
497.756	0.05
497.954	0.02
498.152	0
498.35	-0
498.548	0.01
498.746	0.02
498.944	-0.01
499.142	0
499.34	0.01
499.538	0.02
499.736	0.01
499.933	0.07
500.131	0.04
500.329	0.01
500.527	0.06
500.725	0.06
500.922	0.04
501.12	0.03
501.318	0.03
501.516	0.01
501.713	0.05
501.911	0.02
502.109	0.01
502.306	0.03
502.504	0.02
502.701	0
502.899	0.02
503.097	0.05
503.294	0.05
503.492	0.01
503.689	0.03
503.887	0.06
504.084	0.08
504.282	0.02
504.479	-0.03
504.677	0.03
504.874	-0
505.072	-0
505.269	0.03
505.466	0.05
505.664	0.02
505.861	-0.02
506.059	0
506.256	0.03
506.453	0.01
506.651	0.05
506.848	0.02
507.045	0.05
507.242	0.04
507.44	-0
507.637	0.02
507.834	0.03
508.031	0.03
508.229	-0
508.426	0.03
508.623	0.03
508.82	0
509.017	-0.01
509.214	0.02
509.411	0.01
509.608	-0.01
509.805	0.03
510.003	0.02
510.2	0.02
510.397	0.04
510.594	-0.01
510.791	-0
510.988	0.01
511.184	0.05
511.381	-0
511.578	-0.01
511.775	0.06
511.972	0.01
512.169	-0.01
512.366	0.01
512.563	0.04
512.76	0.01
512.956	0.05
513.153	0.01
513.35	0.01
513.547	0.01
513.744	-0.01
513.94	-0.03
514.137	0.04
514.334	0.02
514.53	0.02
514.727	0.02
514.924	0.07
515.12	-0.01
515.317	-0.02
515.514	-0.01
515.71	-0.01
515.907	0.01
516.103	0.01
516.3	0.02
516.497	0.03
516.693	0.07
516.89	0
517.086	-0
517.283	0.04
517.479	0.02
517.676	0.01
517.872	0.03
518.068	0
518.265	0.02
518.461	0
518.658	-0.02
518.854	0.02
519.05	0.02
519.247	-0.01
519.443	0.05
519.639	0.04
519.836	0.03
520.032	0.02
520.228	-0
520.424	0.07
520.621	0.04
520.817	0.04
521.013	0.03
521.209	0.01
521.405	0.07
521.601	0.01
521.798	0.02
521.994	0.04
522.19	-0
522.386	-0.02
522.582	0.02
522.778	0.01
522.974	-0
523.17	0.01
523.366	0.01
523.562	0.05
523.758	0
523.954	-0.01
524.15	-0.03
524.346	0.04
524.542	-0.01
524.738	-0.01
524.934	-0.01
525.129	0.01
525.325	0.03
525.521	0.01
525.717	0.04
525.913	0.01
526.109	0.01
526.304	0.03
526.5	0.01
526.696	0.03
526.892	0.03
527.087	0.02
527.283	-0
527.479	0.04
527.674	-0.01
527.87	0.01
528.066	0.01
528.261	0.04
528.457	0.02
528.653	-0
528.848	0.01
529.044	0.02
529.239	0.01
529.435	0.01
529.63	0.01
529.826	0.07
530.021	0.02
530.217	0.04
530.412	-0.01
530.608	0.01
530.803	0.01
530.999	0
531.194	-0.02
531.389	0.02
531.585	-0.06
531.78	0.03
531.975	0
532.171	0.06
532.366	0.01
532.561	0
532.757	0
532.952	-0
533.147	0.02
533.342	0.02
533.538	0.02
533.733	0.03
533.928	0
534.123	0
534.318	-0.02
534.513	0.01
534.709	0.01
534.904	-0
535.099	-0.01
535.294	0.01
535.489	0.02
535.684	-0.02
535.879	-0
536.074	0.01
536.269	0
536.464	0.01
536.659	0.01
536.854	-0
537.049	0.03
537.244	0.02
537.439	-0.01
537.634	0.05
537.828	0.03
538.023	-0
538.218	-0.04
538.413	0.01
538.608	-0.01
538.803	0.03
538.997	-0.02
539.192	0.04
539.387	0.01
539.582	0.01
539.776	0.02
539.971	0.02
540.166	0
540.36	-0
540.555	0.01
540.75	0.01
540.944	0.02
541.139	-0.03
541.334	0
541.528	0.02
541.723	0.03
541.917	0.01
542.112	-0.03
542.306	0.01
542.501	0.01
542.695	0
542.89	-0.01
543.084	-0
543.279	0.02
543.473	0
543.668	-0
543.862	0.01
544.056	0.02
544.251	0.01
544.445	0.03
544.64	0
544.834	-0.02
545.028	0.01
545.222	0.02
545.417	0.06
545.611	0.03
545.805	0.01
546	0
546.194	0.02
546.388	-0.01
546.582	0.02
546.776	0.02
546.97	0
547.165	0.02
547.359	0.03
547.553	-0.01
547.747	0
547.941	0.02
548.135	0.01
548.329	0.03
548.523	0.01
548.717	0.02
548.911	-0
549.105	0.01
549.299	-0
549.493	0.01
549.687	0.02
549.881	0.03
550.075	0.01
550.269	-0
550.463	0.03
550.657	-0.01
550.85	0
551.044	-0.03
551.238	0.01
551.432	-0
551.626	-0.02
551.82	0.03
552.013	-0
552.207	0.01
552.401	0.01
552.594	0.03
552.788	0
552.982	0.01
553.176	-0.01
553.369	0.03
553.563	0.02
553.756	-0.02
553.95	-0.02
554.144	-0
554.337	0.04
554.531	0.02
554.724	0.03
554.918	-0.02
555.111	0.06
555.305	-0.01
555.498	0.06
555.692	0.02
555.885	-0.01
556.079	0
556.272	0
556.466	0.04
556.659	0.02
556.852	-0.01
557.046	0.01
557.239	0.05
557.432	-0.03
557.626	-0
557.819	-0.01
558.012	0.02
558.206	0.03
558.399	0.02
558.592	0.01
558.785	0.01
558.979	0.02
559.172	0.03
559.365	0.03
559.558	0.02
559.751	-0.01
559.944	0
560.138	0.02
560.331	-0.01
560.524	0
560.717	0.01
560.91	0.01
561.103	0.03
561.296	0.01
561.489	0.02
561.682	0
561.875	0.04
562.068	0.04
562.261	0.02
562.454	0.04
562.647	0.03
562.84	0.01
563.032	-0.01
563.225	0.03
563.418	-0
563.611	0.02
563.804	0.01
563.997	-0.02
564.19	-0.03
564.382	0.01
564.575	0.01
564.768	0.01
564.961	0.02
565.153	-0.02
565.346	0.02
565.539	0.03
565.731	0.02
565.924	0.03
566.117	0.04
566.309	0.02
566.502	-0.01
566.695	-0.01
566.887	0.01
567.08	-0.02
567.272	0
567.465	-0.01
567.657	0.02
567.85	0.03
568.042	0.02
568.235	0.02
568.427	0.01
568.62	0.01
568.812	0.02
569.005	0.01
569.197	-0.02
569.389	0.03
569.582	0.03
569.774	0
569.966	-0.01
570.159	-0.04
570.351	0.03
570.543	-0.01
570.736	0.01
570.928	-0.02
571.12	0.02
571.312	-0.01
571.505	-0.03
571.697	0.04
571.889	-0.02
572.081	0.01
572.273	-0.02
572.465	0.03
572.658	0.01
572.85	0.02
573.042	-0.01
573.234	-0.01
573.426	0.04
573.618	-0.03
573.81	0.02
574.002	0.04
574.194	0.03
574.386	-0.03
574.578	-0.05
574.77	-0.04
574.962	0.02
575.154	-0.07
575.346	-0.01
575.538	-0
575.729	-0.01
575.921	0.01
576.113	0.01
576.305	0.04
576.497	0
576.689	-0
576.88	-0.01
577.072	0.04
577.264	-0.01
577.456	-0.01
577.647	-0.08
577.839	0.02
578.031	0.05
578.223	-0.01
578.414	-0.03
578.606	0.01
578.798	0.02
578.989	-0.02
579.181	-0.01
579.372	0.01
579.564	-0.02
579.755	0.01
579.947	0.02
580.139	0.03
580.33	-0.05
580.522	-0.04
580.713	-0.05
580.905	-0.02
581.096	0.02
581.287	-0.02
581.479	0.03
581.67	0.01
581.862	0.01
582.053	-0.02
582.244	-0.02
582.436	0.01
582.627	0.01
582.818	-0.02
583.01	-0.04
583.201	0.01
583.392	0.04
583.583	0.03
583.775	-0.02
583.966	-0.01
584.157	0.01
584.348	-0.01
584.54	-0.05
584.731	0.01
584.922	-0.02
585.113	-0.03
585.304	0.03
585.495	0.04
585.686	0.01
585.877	0.03
586.068	0.02
586.259	0.02
586.45	0.01
586.641	-0.02
586.832	-0.03
587.023	-0.02
587.214	-0.02
587.405	0.01
587.596	-0.03
587.787	0.05
587.978	0.02
588.169	-0.02
588.36	-0
588.551	0.01
588.742	-0.03
588.932	0.02
589.123	0.01
589.314	0.01
589.505	0.01
589.696	0.02
589.886	-0.02
590.077	-0.05
590.268	0.03
590.458	-0.03
590.649	-0.03
590.84	0.05
591.03	-0.02
591.221	-0.04
591.412	-0.04
591.602	0.02
591.793	0.04
591.984	-0.04
592.174	0.01
592.365	0.09
592.555	-0.04
592.746	0.02
592.936	-0
593.127	0.02
593.317	0.04
593.508	-0.02
593.698	0
593.889	0
594.079	0.02
594.269	-0.02
594.46	-0.01
594.65	-0.01
594.84	0
595.031	-0.01
595.221	-0.01
595.411	-0.02
595.602	0.01
595.792	0.02
595.982	-0.02
596.172	0.07
596.363	0.01
596.553	0.01
596.743	0
596.933	0
597.123	0.03
597.314	-0.03
597.504	-0.02
597.694	0.05
597.884	0.02
598.074	-0.01
598.264	-0.03
598.454	0
598.644	0
598.834	0
599.024	-0.06
599.214	-0.01
599.404	0.01
599.594	0.02
599.784	-0.03
599.974	0.06
600.164	0.04
600.354	-0.03
600.544	-0.05
600.734	0.03
600.924	0.05
601.114	-0.03
601.303	0.02
601.493	0.02
601.683	-0.03
601.873	0.03
602.063	-0.06
602.252	0.04
602.442	-0.08
602.632	-0.01
602.821	-0.05
603.011	0.02
603.201	0.02
603.39	0
603.58	0
603.77	0.02
603.959	0.04
604.149	-0.01
604.339	0
604.528	0.03
604.718	0
604.907	0.01
605.097	-0.04
605.286	-0.02
605.476	0.02
605.665	0.01
605.855	-0
606.044	0.05
606.234	0.02
606.423	-0.02
606.612	-0.03
606.802	0.01
606.991	0.02
607.181	-0
607.37	-0.04
607.559	0
607.749	-0.05
607.938	-0.01
608.127	-0
608.316	-0.01
608.506	0.03
608.695	-0.02
608.884	-0.02
609.073	0.01
609.263	0.01
609.452	0.04
609.641	0
609.83	-0.03
610.019	0.01
610.208	-0.02
610.397	-0.03
610.586	0.03
610.775	0
610.965	0
611.154	0.02
611.343	0.03
611.532	0.01
611.721	-0.02
611.91	-0
612.099	0.04
612.287	-0.02
612.476	-0.03
612.665	0.03
612.854	-0
613.043	0.03
613.232	0
613.421	-0.02
613.61	0.03
613.798	-0.02
613.987	0.03
614.176	0
614.365	0.03
614.554	-0
614.742	0.02
614.931	-0.02
615.12	0.04
615.309	-0.02
615.497	0.03
615.686	-0.02
615.875	0.02
616.063	0.02
616.252	0
616.44	0.01
616.629	-0.01
616.818	0.06
617.006	0.01
617.195	-0.01
617.383	0.02
617.572	0
617.76	-0.02
617.949	0
618.137	0.03
618.326	-0.01
618.514	-0
618.703	-0.01
618.891	0.06
619.079	-0.01
619.268	0.03
619.456	-0.04
619.644	0.05
619.833	0.01
620.021	-0.03
620.209	-0.04
620.398	0
620.586	0.01
620.774	0.03
620.962	0.01
621.151	0.05
621.339	0.01
621.527	-0.03
621.715	-0.02
621.903	-0.03
622.092	-0.04
622.28	0.02
622.468	-0.01
622.656	0.01
622.844	0.01
623.032	0.01
623.22	-0.06
623.408	0.05
623.596	0.01
623.784	-0.02
623.972	-0.03
624.16	-0.02
624.348	0.05
624.536	-0.03
624.724	-0.02
624.912	0.08
625.1	0.01
625.288	-0.03
625.476	-0.02
625.664	0.03
625.851	-0.04
626.039	-0
626.227	0.01
626.415	-0
626.603	-0.05
626.79	0.02
626.978	-0.02
627.166	-0.01
627.354	0.01
627.541	-0.04
627.729	-0.09
627.917	0.03
628.104	0.04
628.292	0
628.48	0
628.667	0.01
628.855	-0.02
629.042	0.04
629.23	-0.03
629.418	-0.04
629.605	-0.02
629.793	-0.02
629.98	-0
630.168	0.01
630.355	0.01
630.543	0
630.73	-0.02
630.917	0.02
631.105	0.05
631.292	-0.01
631.48	-0
631.667	0.12
631.854	0.01
632.042	0.02
632.229	-0.02
632.416	-0.03
632.604	-0.02
632.791	-0.06
632.978	0.02
633.165	0.04
633.353	0.07
633.54	0.03
633.727	-0.05
633.914	-0.05
634.101	-0.07
634.289	0.02
634.476	-0.03
634.663	-0.04
634.85	0.03
635.037	-0.03
635.224	-0.06
635.411	0.05
635.598	0.04
635.785	0
635.972	-0.05
636.159	0.03
636.346	-0.02
636.533	-0
636.72	0.02
636.907	-0.01
637.094	-0.01
637.281	-0.02
637.468	0.04
637.655	-0.01
637.842	0.01
638.029	0
638.215	0.02
638.402	0.02
638.589	-0.05
638.776	0
638.963	-0.01
639.149	0
639.336	0.09
639.523	0.02
639.709	-0
639.896	-0.02
640.083	0.08
640.27	0.03
640.456	-0.01
640.643	0.03
640.829	-0.06
641.016	0.01
641.203	-0.06
641.389	0.01
641.576	0.04
641.762	-0.01
641.949	-0.04
642.135	0.01
642.322	0.02
642.508	-0.05
642.695	0.02
642.881	-0.04
643.068	0
643.254	0
643.441	0.03
643.627	0.03
643.813	0
644	0.05
644.186	0
644.372	-0
644.559	0.03
644.745	-0.01
644.931	-0.01
645.118	-0.04
645.304	-0.03
645.49	-0.02
645.676	-0.03
645.862	0.01
646.049	0.05
646.235	-0.02
646.421	0.06
646.607	0.1
646.793	-0.01
646.979	-0.03
647.165	0.01
647.352	0.02
647.538	0.06
647.724	-0.01
647.91	0.02
648.096	0.04
648.282	0
648.468	-0
648.654	0.01
648.84	-0.02
649.026	-0.02
649.212	-0
649.397	-0.01
649.583	-0.05
649.769	0.01
649.955	0.01
650.141	0
650.327	0.03
650.513	-0.01
650.698	0.02
650.884	-0.1
651.07	0.01
651.256	0.01
651.442	-0.01
651.627	0.01
651.813	-0.01
651.999	0
652.184	-0
652.37	-0.04
652.556	-0.06
652.741	0.06
652.927	-0.06
653.113	-0.02
653.298	0.02
653.484	-0.01
653.669	-0.05
653.855	-0.02
654.04	0.03
654.226	-0.01
654.412	-0.03
654.597	-0.02
654.782	0.02
654.968	0.02
655.153	-0.01
655.339	-0.05
655.524	-0.05
655.71	0.03
655.895	0.01
656.08	0.02
656.266	0.03
656.451	0.05
656.636	-0.03
656.822	-0.02
657.007	0.02
657.192	0.01
657.378	-0.06
657.563	0
657.748	0.03
657.933	0.03
658.118	-0.02
658.304	-0.06
658.489	0.02
658.674	0.04
658.859	-0.03
659.044	0.01
659.229	0.01
659.414	-0.01
659.599	-0.02
659.785	-0.09
659.97	-0.04
660.155	0.01
660.34	-0.02
660.525	0.01
660.71	-0.01
660.895	0.04
661.08	-0.02
661.264	-0.02
661.449	0.07
661.634	0.02
661.819	0.02
662.004	-0.01
662.189	-0.06
662.374	-0.02
662.559	-0.06
662.743	-0.05
662.928	-0
663.113	-0.01
663.298	-0.06
663.483	-0.03
663.667	-0.02
663.852	-0.05
664.037	0.06
664.221	-0.02
664.406	0.01
664.591	0.02
664.775	-0.03
664.96	-0.01
665.145	0.01
665.329	0.05
665.514	-0.02
665.698	-0.01
665.883	-0.09
666.068	0.09
666.252	0
666.437	-0.04
666.621	0
666.806	0.03
666.99	0.01
667.174	-0.04
667.359	0.05
667.543	-0.02
667.728	0.04
667.912	-0.08
668.096	0.04
668.281	-0.03
668.465	-0.03
668.649	-0
668.834	-0.01
669.018	-0
669.202	-0.02
669.387	-0.07
669.571	0.05
669.755	-0.02
669.939	0.02
670.124	-0.02
670.308	0.06
670.492	0
670.676	0.05
670.86	0.01
671.044	-0.07
671.228	0.05
671.413	-0.03
671.597	-0.04
671.781	-0.02
671.965	-0
672.149	-0.03
672.333	-0.05
672.517	-0.04
672.701	0.02
672.885	-0.04
673.069	-0.08
673.253	0.07
673.437	-0.03
673.621	-0.02
673.804	-0.02
673.988	-0.02
674.172	-0
674.356	-0.04
674.54	-0.01
674.724	0.1
674.908	0
675.091	0.04
675.275	0.02
675.459	0.01
675.643	0.08
675.826	0.02
676.01	-0.04
676.194	-0.01
676.377	0.05
676.561	0.05
676.745	0.01
676.928	0.05
677.112	0.04
677.296	-0.02
677.479	-0.03
677.663	0.02
677.846	0.07
678.03	-0.02
678.213	-0.04
678.397	0.04
678.58	-0.01
678.764	-0.06
678.947	-0.05
679.131	-0.02
679.314	0.08
679.498	-0.03
679.681	0.03
679.865	0.05
680.048	0.01
680.231	0.02
680.415	-0
680.598	-0.04
680.781	-0.01
680.965	-0.01
681.148	0
681.331	-0.02
681.514	0.01
681.698	-0.02
681.881	-0.03
682.064	0.03
682.247	0.02
682.43	-0.1
682.614	0.02
682.797	0.06
682.98	0.02
683.163	-0.03
683.346	-0.01
683.529	-0.01
683.712	-0.03
683.895	0.01
684.078	-0.06
684.261	0.02
684.444	0
684.627	0.04
684.81	-0.06
684.993	0
685.176	0.04
685.359	-0.05
685.542	-0
685.725	0.08
685.908	-0.02
686.091	-0.06
686.274	0.06
686.457	0.03
686.639	-0.02
686.822	0.05
687.005	-0.01
687.188	0.03
687.371	0.07
687.553	0.04
687.736	0
687.919	0.12
688.102	0.04
688.284	0
688.467	0.01
688.65	0
688.832	-0.03
689.015	-0.02
689.197	-0.05
689.38	0.05
689.563	0.11
689.745	-0.03
689.928	-0.05
690.11	-0.02
690.293	0.02
690.475	-0.06
690.658	-0
690.84	0
691.023	-0.03
691.205	-0.02
691.388	0.03
691.57	0.04
691.752	-0.01
691.935	-0.09
692.117	-0.04
692.3	0.02
692.482	0.03
692.664	-0
692.847	-0.03
693.029	0.08
693.211	0.02
693.393	-0.01
693.576	-0.06
693.758	-0.06
693.94	-0
694.122	-0.01
694.304	-0.02
694.487	-0.05
694.669	0.05
694.851	-0.05
695.033	0.02
695.215	-0.04
695.397	-0.1
695.579	0.04
695.761	-0.05
695.943	-0.11
696.125	0.1
696.308	0.03
696.49	-0.07
696.671	0.16
696.853	-0.06
697.035	0.12
697.217	0.04
697.399	0.06
697.581	-0.01
697.763	-0.02
697.945	-0.03
698.127	0.04
698.309	0.04
698.491	0.04
698.672	0.01
698.854	0.03
699.036	0.12
699.218	-0.03
699.399	0.02
699.581	0.01
699.763	0.06
699.945	-0.07
700.126	-0.05
700.308	-0
700.49	-0.05
700.671	-0.12
700.853	-0.03
701.035	-0.01
701.216	0.03
701.398	-0.05
701.579	-0.03
701.761	0.01
701.943	-0.03
702.124	-0
702.306	0.01
702.487	0.1
702.669	-0.02
702.85	-0.04
703.031	-0.03
703.213	0.17
703.394	0.11
703.576	-0
703.757	0.08
703.938	0.04
704.12	0.15
704.301	0
704.483	-0.05
704.664	0.02
704.845	0.1
705.026	0.03
705.208	0.01
705.389	0.01
705.57	0.01
705.751	-0.02
705.933	0.01
706.114	0.09
706.295	0.01
706.476	-0.09
706.657	0.09
706.838	0.02
707.02	0.04
707.201	-0
707.382	-0.03
707.563	0.04
707.744	-0.06
707.925	-0.01
708.106	-0
708.287	0
708.468	0.07
708.649	0.01
708.83	0.08
709.011	-0.06
709.192	0.07
709.373	-0.09
709.554	-0.02
709.734	0.08
709.915	0.03
710.096	-0.01
710.277	-0.14
710.458	0.01
710.639	0.04
710.819	-0.11
711	0
711.181	0.11
711.362	0.07
711.542	-0.01
711.723	-0.05
711.904	0.12
712.085	0.1
712.265	-0.01
712.446	-0.03
712.627	-0.03
712.807	-0.02
712.988	-0.07
713.168	-0.07
713.349	0.12
713.53	-0.11
713.71	-0.02
713.891	-0.05
714.071	-0.01
714.252	0.06
714.432	-0.04
714.613	-0.14
714.793	0.01
714.974	0.1
715.154	0.1
715.334	0.03
715.515	0.12
715.695	-0.06
715.876	0.03
716.056	-0.04
716.236	-0.05
716.417	-0.02
716.597	-0.05
716.777	0.17
716.957	-0.03
717.138	0.08
717.318	0.03
717.498	-0.03
717.678	-0.03
717.859	0.08
718.039	-0.03
718.219	0.08
718.399	0.04
718.579	-0.09
718.759	-0.06
718.939	0.08
719.12	0
719.3	-0.03
719.48	-0.15
719.66	-0.08
719.84	0.14
720.02	0.01
720.2	0.04
720.38	-0.03
720.56	0.1
720.74	-0.01
720.92	0.03
721.1	0.08
721.279	0.12
721.459	-0.02
721.639	-0.07
721.819	-0.05
721.999	-0.04
722.179	0.07
722.359	-0.04
722.538	0.05
722.718	0.03
722.898	-0.03
723.078	-0
723.257	-0
723.437	0.05
723.617	0.08
723.797	-0.03
723.976	0.01
724.156	0.04
724.336	0.12
724.515	0.15
724.695	-0.08
724.874	-0.01
725.054	0.06
725.234	-0.03
725.413	0.05
725.593	-0.04
725.772	0.05
725.952	0.05
726.131	-0.02
726.311	0.03
726.49	-0.04
726.67	-0.05
726.849	-0.06
727.028	-0.02
727.208	0.01
727.387	0.08
727.567	-0.14
727.746	0
727.925	-0.02
728.105	-0.04
728.284	-0.1
728.463	0.01
728.643	0.07
728.822	-0.03
729.001	-0.01
729.18	-0.01
729.359	0.13
729.539	-0.02
729.718	-0.06
729.897	0.04
730.076	0.03
730.255	-0.06
730.434	0.01
730.614	-0.03
730.793	0.17
730.972	0.08
731.151	0.01
731.33	0.13
731.509	-0.04
731.688	0.08
731.867	0.08
732.046	-0.12
732.225	0.17
732.404	0.04
732.583	-0.14
732.762	-0.03
732.941	0.05
733.12	-0.01
733.298	-0.05
733.477	0.01
733.656	0.02
733.835	-0.06
734.014	0.04
734.193	-0.11
734.371	0.18
734.55	-0.04
734.729	-0.17
734.908	0.05
735.086	-0.02
735.265	0.05
735.444	-0.1
735.623	-0.08
735.801	-0.11
735.98	-0.04
736.159	0.01
736.337	0.1
736.516	0.06
736.694	-0.01
736.873	0.06
737.052	0.25
737.23	0.21
737.409	0.03
737.587	0.16
737.766	-0.09
737.944	0.07
738.123	-0
738.301	0.03
738.479	0.05
738.658	-0.01
738.836	-0.28
739.015	0.1
739.193	0.02
739.371	-0.1
739.55	-0.04
739.728	-0.18
739.906	0.14
740.085	0.21
740.263	-0.02
740.441	-0.13
740.62	0.12
740.798	0.07
740.976	-0.03
741.154	-0.11
741.332	0.07
741.511	0
741.689	0.06
741.867	0.04
742.045	0.01
742.223	-0.01
742.401	-0.06
742.579	-0.05
742.757	0.1
742.935	-0.1
743.114	-0.01
743.292	0.05
743.47	0
743.648	0.05
743.826	0.01
744.004	0.13
744.181	0.05
744.359	0.05
744.537	0.16
744.715	0.13
744.893	0.09
745.071	-0.03
745.249	0
745.427	-0.01
745.605	0.06
745.782	0.1
745.96	0.12
746.138	0.03
746.316	0.05
746.493	-0.12
746.671	-0.04
746.849	0.08
747.027	0.18
747.204	-0.1
747.382	0.01
747.56	-0.06
747.737	-0.06
747.915	-0.08
748.093	-0.04
748.27	-0.07
748.448	-0.01
748.625	-0.07
748.803	-0.04
748.98	0.01
749.158	0.14
749.335	0.12
749.513	-0.03
749.69	0.08
749.868	0.02
750.045	0.1
750.223	-0
750.4	-0.15
750.578	0.16
750.755	-0
750.932	-0.05
751.11	0.22
751.287	-0.11
751.464	0.07
751.642	-0.14
751.819	0.01
751.996	-0.02
752.173	-0.06
752.351	-0.13
752.528	0.01
752.705	-0.01
752.882	-0
753.06	0.08
753.237	-0.04
753.414	0.28
753.591	0.09
753.768	-0.03
753.945	0.02
754.122	-0.01
754.299	0.06
754.476	-0.04
754.654	-0
754.831	0.09
755.008	0.09
755.185	-0.09
755.362	-0.11
755.539	0.07
755.716	-0.01
755.892	-0.05
756.069	-0.1
756.246	0.02
756.423	-0.01
756.6	0.14
756.777	0.04
756.954	0.05
757.131	0.1
757.307	-0.03
757.484	-0.12
757.661	-0
757.838	0.1
758.015	-0.05
758.191	0.09
758.368	0.11
758.545	0.21
758.721	0.11
758.898	-0.09
759.075	0.05
759.251	0.02
759.428	0.17
759.605	-0.11
759.781	-0
759.958	0.02
760.134	0.02
760.311	-0.03
760.488	0.14
760.664	0.27
760.841	0.01
761.017	-0.08
761.194	0.04
761.37	0.1
761.547	0.02
761.723	0.02
761.899	0.23
762.076	-0.08
762.252	-0.12
762.429	-0.01
762.605	0.15
762.781	0.02
762.958	0.13
763.134	-0.17
763.31	-0.11
763.486	0.2
763.663	-0.22
763.839	0.01
764.015	-0.24
764.191	-0.03
764.368	-0.01
764.544	-0.1
764.72	0.05
764.896	0.03
765.072	0.09
765.248	-0.04
765.425	0.04
765.601	-0.08
765.777	0.09
765.953	-0.16
766.129	0.02
766.305	-0.13
766.481	0.02
766.657	0.08
766.833	0.1
767.009	-0.14
767.185	-0.05
767.361	-0.08
767.537	-0.11
767.713	0.12
767.889	-0.07
768.065	-0
768.24	-0.15
768.416	-0.01
768.592	-0.05
768.768	-0.07
768.944	0
769.12	-0.09
769.295	-0.16
769.471	-0.08
769.647	0.01
769.823	0.17
769.998	-0.08
770.174	-0.06
770.35	0.36
770.525	0.3
770.701	0.05
770.877	0.08
771.052	0.09
771.228	0.02
771.403	0.09
771.579	0.17
771.755	0.44
771.93	-0.09
772.106	-0.18
772.281	-0.12
772.457	-0.05
772.632	0.03
772.808	-0.03
772.983	-0.09
773.159	-0.1
773.334	0.09
773.509	0
773.685	-0.12
773.86	0.47
774.036	0.17
774.211	0
774.386	-0.1
774.562	-0.05
774.737	0.27
774.912	-0.15
775.087	0.13
775.263	0.02
775.438	-0.12
775.613	-0.08
775.788	-0.09
775.964	0.23
776.139	0.32
776.314	-0.14
776.489	0.12
776.664	0.02
776.839	-0.15
777.014	0.18
777.19	0.05
777.365	0.14
777.54	0.29
777.715	-0.05
777.89	-0.04
778.065	-0.13
778.24	0.04
778.415	0.12
778.59	-0.27
778.765	-0.07
778.94	0.06
779.115	-0.04
779.289	0.06
779.464	0.07
779.639	-0.09
779.814	-0.36
779.989	-0.2
780.164	0.23
780.339	0.04
780.513	-0.1
780.688	-0.09
780.863	0.05
781.038	0.12
781.212	-0.2
781.387	-0.01
781.562	0.58
781.737	0.03
781.911	0.25
782.086	-0.16
782.261	-0.06
782.435	0.3
782.61	-0.08
782.784	0.07
782.959	0.22
783.134	-0.1
783.308	-0.07
783.483	-0.01
783.657	0.43
783.832	0.2
784.006	-0.26
784.181	0.1
784.355	0.13
784.53	-0.17
784.704	-0.17
784.878	0.39
785.053	0.17
785.227	0.33
785.402	0.39
785.576	-0.29
785.75	0.1
785.925	-0.1
786.099	-0.05
786.273	-0.12
786.448	0.04
786.622	0.22
786.796	0.04
786.97	0.08
787.145	0.47
787.319	-0.31
787.493	-0.05
787.667	-0.28
787.841	-0.18
788.015	0.29
788.19	-0.17
788.364	-0.05
788.538	0.06
788.712	0.11
788.886	-0.05
789.06	0.08
789.234	0.35
789.408	-0.28
789.582	-0.03
789.756	-0.08
789.93	-0.04
790.104	-0.04
790.278	-0.11
790.452	-0.11
790.626	0.23
790.8	-0.09
790.973	0.09
791.147	0.2
791.321	0.37
791.495	0.39
791.669	0.08
791.843	-0
792.016	0.04
792.19	0.36
792.364	-0.18
792.538	0.36
792.711	0.37
792.885	-0.14
793.059	-0.34
793.233	-0.46
793.406	0.02
793.58	0.03
793.754	0.29
793.927	-0.02
794.101	0.44
794.274	0.1
794.448	0.05
794.622	-0.32
794.795	0.28
794.969	0.01
795.142	0.45
795.316	-0.13
795.489	-0.29
795.663	0.44
795.836	-0.02
796.009	-0.43
796.183	0.54
796.356	-0.08
796.53	0.19
796.703	0.04
796.876	0.57
797.05	0.08
797.223	-0.31
797.396	-0.02
797.57	-0.1
797.743	0.46
797.916	0.06
798.09	0.02
798.263	0.27
798.436	0.18
798.609	-0.09
798.782	0.05
798.956	-0.05
799.129	-0.01
799.302	-0.18
799.475	-0.04
799.648	-0.26
799.821	-0.23
799.994	-0.25
800.167	-0.63
800.34	0.15
800.514	0.14
800.687	-0.09
800.86	-0.18
801.033	0.07
801.206	-0
801.379	-0.11
801.551	0.27
801.724	0.22
801.897	0.37
802.07	0.19
802.243	-0.35
802.416	0.03
802.589	-0.26
802.762	-0.12
802.935	-0.01
803.107	0.16
803.28	0.29
803.453	-0.04
803.626	-0.22
803.798	0.15
803.971	-0.18
804.144	0.04
804.317	0.21
804.489	0.08
804.662	-0.18
804.835	0.17
805.007	-0.24
805.18	0.62
805.353	0.14
805.525	-0.28
805.698	-0.19
805.87	0.25
806.043	0.17
806.215	-0.7
806.388	-0.26
806.56	0.09
806.733	0.25
806.905	0.07
807.078	-0.24
807.25	-0.17
807.423	0.17
807.595	-0.02
807.768	-0.1
807.94	0.16
808.112	0.09
808.285	0.04
808.457	-0.43
808.629	0.25
808.802	0.39
808.974	0.07
809.146	-0.1
809.318	-0.06
809.491	0.28
809.663	0.14
809.835	-0.19
810.007	0.24
810.18	-0
810.352	-0.2
810.524	-0.14
810.696	0.18
810.868	0.38
811.04	0.26
811.212	0.08
811.384	0.51
811.556	-0.14
811.728	0.03
811.901	0.86
812.073	-0.09
812.245	0.35
812.417	0.16
812.589	-0.59
812.76	0.2
812.932	0.45
813.104	0.46
813.276	-0.05
813.448	0.6
813.62	0.15
813.792	0.36
813.964	-0.04
814.136	0.07
814.307	0.08
814.479	-0.21
814.651	-0.23
814.823	0.63
814.995	-0.1
815.166	-0.01
815.338	-0.06
815.51	-0.84
815.681	0.58
815.853	0.09
816.025	-0.1
816.196	0.58
816.368	0.46
816.54	-0.61
816.711	-0.28
816.883	-0.17
817.054	1.19
817.226	-0.59
817.398	0.08
817.569	-0.4
817.741	0.37
817.912	-0.35
818.084	0.1
818.255	0.22
818.426	-0.29
818.598	0.09
818.769	-0.47
818.941	0.89
819.112	0.67
819.283	0.01
819.455	-0.73
819.626	-0.15
819.798	0.34
819.969	0.25
820.14	0.13
820.311	-0.38
820.483	0.32
820.654	0.33
820.825	0.41
820.996	0.02
821.168	-0.33
821.339	0.09
821.51	-0.47
821.681	-0.14
821.852	0.43
822.023	-0.4
822.195	-0.21
822.366	0.68
822.537	0.14
822.708	-0.11
822.879	0.09
823.05	0.83
823.221	-0.07
823.392	0.38
823.563	-0.04
823.734	0.12
823.905	0.33
824.076	-0.26
824.247	-0.38
824.418	-0.07
824.589	0.91
824.759	0.29
824.93	-0.17
825.101	-0.49
825.272	0.1
825.443	1.2
825.614	0.48
825.784	-0.74
825.955	1.02
826.126	1.07
826.297	0.33
826.467	0.94
826.638	0.94
826.809	-0.77
826.98	-0.4
827.15	0.79
827.321	0.03
827.492	0.63
827.662	0.85
827.833	1.12
828.003	0.91
828.174	-0.69
828.345	-0.7
828.515	0.67
828.686	0.23
828.856	0.16
829.027	0.18
829.197	0.3
829.368	0.67
829.538	0.04
829.709	-0.16
829.879	0.11
830.049	0.33
830.22	-0.19
830.39	0.34
830.56	1.22
830.731	-0.23
830.901	-0.36
831.072	0.1
831.242	-0.07
831.412	-0.26
831.582	-0.08
831.753	-0.66
831.923	0.61
832.093	-0.08
832.263	0.14
832.434	-0.33
832.604	-0.09
832.774	1.08
832.944	0.31
833.114	-0.16
833.284	0.06
833.454	-0.77
833.624	0.02
833.795	-0.26
833.965	1.12
834.135	0.6
834.305	-0.94
834.475	-0.52
834.645	0
834.815	0.57
834.985	-0.63
835.155	-0.05
835.325	0.28
835.494	0.93
835.664	-0.11
835.834	-1.47
836.004	0.03
836.174	0.12
836.344	-0.01
836.514	-1.04
836.684	-0.5
836.853	0.71
837.023	0.19
837.193	-0.85
837.363	0.72
837.532	1.04
837.702	-0.24
837.872	-0.35
838.041	0.18
838.211	1.65
838.381	-0.25
838.55	0.07
838.72	1.52
838.89	0.7
839.059	0.15
839.229	-0.33
839.398	1.68
839.568	-0.52
839.738	-0.27
839.907	0.6
840.077	0.04
840.246	-0.46
840.416	-0.61
840.585	-0.75
840.755	1.97
840.924	0.87
841.093	-1.06
841.263	-0.47
841.432	0.38
841.602	-0.45
841.771	-0.78
841.94	-0.01
842.11	1.58
842.279	1.97
842.448	-0.72
842.617	-0.41
842.787	0.7
842.956	-0.25
843.125	0.05
843.294	0.86
843.464	0.66
843.633	0.74
843.802	-0.48
843.971	0.05
844.14	0.74
844.309	0.16
844.479	0.08
844.648	-0.75
844.817	0
844.986	-0.26
845.155	0.12
845.324	-1.22
845.493	-1.03
845.662	-0.61
845.831	0.93
846	0.07
846.169	-0.21
846.338	1.4
846.507	-0.43
846.676	0.03
846.844	-0.63
847.013	0.32
847.182	-0.43
847.351	0.24
847.52	0.08
847.689	0.69
847.858	-0.34
848.026	0.39
848.195	0.14
848.364	-0.1
848.533	-1.17
848.701	0.2
848.87	0.4
849.039	1.18
849.207	0.12
849.376	1.58
849.545	1.79
849.713	-0.32
849.882	-0.33
850.051	0.09
850.219	0.15
850.388	0.8
850.556	-0.07
850.725	-0.11
850.893	0.4
851.062	-0.19
851.23	1.36
851.399	-1.35
851.567	-0.7
851.736	0.15
851.904	-1.33
852.073	-0.5
852.241	1.2
852.41	0.18
852.578	0.59
852.746	0.08
852.915	0.75
853.083	0.57
853.251	-1.05
853.42	0
853.588	0.23
853.756	1.4
853.924	-0.96
854.093	-0.8
854.261	-0.16
854.429	-0.85
854.597	-0.01
854.765	-1.08
854.934	0.34
855.102	0.99
855.27	0.09
855.438	0.99
855.606	1.42
855.774	1.34
855.942	-1.61
856.11	-1.63
856.278	0.46
856.446	1.33
856.614	-0.21
856.782	-0.7
856.95	0.28
857.118	1.18
857.286	0.27
857.454	-0.67
857.622	0.62
857.79	0.96
857.958	-0.68
858.126	-0.6
858.294	-2.87
858.462	-0.63
858.629	-2.25
858.797	-0.23
858.965	-0.44
859.133	-0.53
859.301	0.5
859.468	0.91
859.636	-0.14
859.804	1.8
859.971	1.75
860.139	-0.84
860.307	1.21
860.474	0.44
860.642	-2.01
860.81	-1.06
860.977	0.52
861.145	1.48
861.313	-0.74
861.48	0.44
861.648	1.03
861.815	0.1
861.983	-2.04
862.15	0.55
862.318	0.75
862.485	0.99
862.653	-0.74
862.82	-0.76
862.988	1.01
863.155	2.14
863.322	-1.11
863.49	-0.44
863.657	0.14
863.824	2.9
863.992	1.19
864.159	-0.13
864.326	3.25
864.494	1.31
864.661	2.85
864.828	-1.23
864.996	1.85
865.163	2.08
865.33	-1.06
865.497	-1.45
865.664	-2.09
865.832	-1.52
865.999	0.3
866.166	-1.02
866.333	-0.53
866.5	-0.78
866.667	-0.69
866.834	-0.1
867.001	1
867.168	-0.58
867.335	0.63
867.502	-1.18
867.669	0.7
867.836	2.82
868.003	0.12
868.17	1.89
868.337	4.67
868.504	4.13
868.671	-2.34
868.838	-0.84
869.005	0.62
869.172	0.44
869.339	0.74
869.505	0.13
869.672	0.29
869.839	0.11
870.006	0.02
870.173	-0.66
870.339	0.71
870.506	3.08
870.673	-1.81
870.84	1.47
871.006	1.1
871.173	0.27
871.34	0.29
871.506	-0.77
871.673	1.08
871.839	-1.86
872.006	-0.68
872.173	-0.23
872.339	0.27
872.506	0.58
872.672	-0.33
872.839	-3.44
873.005	0.47
873.172	2.54
873.338	1.11
873.505	1.41
873.671	0.63
873.838	2.41
874.004	-0.88
874.171	-0.06
874.337	1.19
874.503	0.62
874.67	-0.93
874.836	0.28
875.002	1.72
875.169	1.93
875.335	0.48
875.501	-0.03
875.668	1.84
875.834	0.64
876	-0.53
876.166	1.31
876.332	-0.61
876.499	2.87
876.665	-1.57
876.831	-0.65
876.997	3.17
877.163	0.19
877.329	-2.06
877.495	-0.91
877.662	1.84
877.828	1.3
877.994	0.32
878.16	-2.73
878.326	-0.33
878.492	0.99
878.658	-1.09
878.824	0.8
878.99	0.66
879.156	-0.54
879.322	0.36
879.487	-0.61
879.653	1.61
879.819	-0.46
879.985	-1.11
880.151	-0.8
880.317	0.27
880.483	0.94
880.648	2.17
880.814	-3.26
880.98	-0.35
881.146	-1.33
881.312	-0.9
881.477	0.19
881.643	1.11
881.809	1.81
881.974	1.15
882.14	-2.62
882.306	0.93
882.471	3.45
882.637	0.34
882.803	0.6
882.968	3.97
883.134	4.57
883.299	-0.87
883.465	-0.29
883.63	2.67
883.796	0.51
883.961	2.24
884.127	1.01
884.292	-4.13
884.458	-2.04
884.623	-2.04
