Data from Apollo_Calib_20240827__AbsoluteIrradiance__132__01-21-03-166.txt Node

Date: Wed Aug 28 01:21:03 BST 2024
User: biology
Spectrometer: FLMT08252
Trigger mode: 0
Integration Time (sec): 5.000000E-1
Scans to average: 5
Electric dark correction enabled: true
Nonlinearity correction enabled: false
Boxcar width: 0
XAxis mode: Wavelengths
Number of Pixels in Spectrum: 3648
>>>>>Begin Spectral Data<<<<<
179.588	-0
179.809	-0
180.03	-0
180.251	-0
180.473	-0
180.694	0
180.915	0
181.136	-0
181.357	0
181.578	-0
181.799	0
182.02	-0
182.241	-0
182.462	-0
182.683	0
182.904	-0
183.125	-0
183.346	0
183.567	0
183.788	-0
184.009	-0
184.23	0
184.451	0
184.672	-0
184.892	-0
185.113	0
185.334	0
185.555	-0
185.776	-0
185.996	0
186.217	-0
186.438	-0
186.659	-0
186.879	-0
187.1	-0
187.321	-0
187.541	-0
187.762	-0
187.983	-0
188.203	-0
188.424	-0
188.644	-0
188.865	-0
189.086	-0
189.306	-0
189.527	0
189.747	-0
189.968	-0
190.188	0
190.409	-0
190.629	0
190.849	-0
191.07	-0
191.29	-0
191.511	0
191.731	-0
191.951	-0
192.172	-0
192.392	-0
192.612	-0
192.833	-0
193.053	0
193.273	0
193.493	-0
193.714	-0
193.934	0
194.154	0
194.374	0
194.594	-0
194.815	-0
195.035	-0
195.255	-0
195.475	-0
195.695	-0
195.915	0
196.135	-0
196.355	0
196.575	0
196.795	0
197.015	-0
197.235	-0
197.455	-0
197.675	0
197.895	-0
198.115	-0
198.335	0
198.555	-0
198.775	-0
198.995	0
199.214	0
199.434	-0
199.654	-0
199.874	-0
200.094	0.67
200.313	-0.65
200.533	-0.39
200.753	-0.41
200.973	0.41
201.192	0.21
201.412	-1.06
201.632	-0.35
201.851	0.37
202.071	-0.42
202.291	-0.22
202.51	-0.51
202.73	0.43
202.95	-0.53
203.169	-1.03
203.389	-0.06
203.608	-0.17
203.828	-0.2
204.047	-0.06
204.267	0.31
204.486	-0.17
204.706	0.31
204.925	0.2
205.145	-0.3
205.364	0.07
205.583	0.57
205.803	-0.08
206.022	-0.41
206.242	0.03
206.461	-0.1
206.68	-0.36
206.9	0.1
207.119	0.61
207.338	0.33
207.557	-0.2
207.777	-0.02
207.996	-0.01
208.215	0.43
208.434	-0.11
208.654	-0.5
208.873	-0.16
209.092	0.45
209.311	-0.41
209.53	-0.29
209.749	-0.24
209.968	-0.21
210.187	-0.12
210.407	-0.38
210.626	-0.2
210.845	0.05
211.064	-0.12
211.283	-0.36
211.502	0.2
211.721	0.04
211.94	-0.17
212.159	0.15
212.377	0
212.596	0.35
212.815	-0.09
213.034	0.19
213.253	0.21
213.472	0.11
213.691	-0.12
213.91	-0.27
214.128	-0.1
214.347	0.2
214.566	-0.49
214.785	-0.29
215.003	0.21
215.222	0.01
215.441	-0.12
215.66	-0.24
215.878	0.1
216.097	0.26
216.316	-0.24
216.534	-0.06
216.753	0.17
216.972	-0.22
217.19	-0.16
217.409	-0.15
217.627	-0.12
217.846	-0.04
218.064	-0.02
218.283	-0.19
218.501	0.44
218.72	0.16
218.938	-0.32
219.157	-0.15
219.375	0.24
219.594	-0.05
219.812	-0.29
220.031	-0.28
220.249	0.13
220.467	0.28
220.686	-0.1
220.904	-0.19
221.122	-0.14
221.341	0.36
221.559	0
221.777	-0.19
221.995	-0.22
222.214	0.18
222.432	-0.13
222.65	0.07
222.868	-0.01
223.086	-0.11
223.305	0.04
223.523	0.06
223.741	0.11
223.959	-0.2
224.177	-0.13
224.395	-0.15
224.613	0.02
224.831	0.01
225.049	-0.05
225.267	-0.13
225.485	0.14
225.703	-0.12
225.921	-0.1
226.139	-0.08
226.357	0.07
226.575	0.11
226.793	-0.2
227.011	0.35
227.229	0.03
227.447	0.18
227.665	-0.16
227.883	-0.28
228.1	-0.12
228.318	-0.01
228.536	-0.22
228.754	-0.18
228.972	0.02
229.189	-0
229.407	-0.07
229.625	-0.12
229.843	0.21
230.06	0.14
230.278	-0.19
230.496	-0.12
230.713	0.09
230.931	0.09
231.149	-0.15
231.366	-0.23
231.584	0.02
231.801	0.31
232.019	-0.05
232.236	-0.16
232.454	-0.13
232.671	0.1
232.889	-0.05
233.106	-0.09
233.324	-0.1
233.541	0.01
233.759	-0.07
233.976	-0.09
234.194	0.05
234.411	0.03
234.628	-0.03
234.846	-0.09
235.063	0
235.28	0.04
235.498	-0.06
235.715	-0.12
235.932	0.14
236.149	0
236.367	-0.12
236.584	0.02
236.801	-0.06
237.018	0.04
237.236	0.02
237.453	-0.15
237.67	0.04
237.887	-0
238.104	-0.02
238.321	-0.13
238.538	-0.1
238.755	0.06
238.973	-0.13
239.19	-0.04
239.407	0.01
239.624	-0.02
239.841	-0.19
240.058	-0.05
240.275	-0.03
240.492	-0
240.709	-0.07
240.925	-0.01
241.142	0.17
241.359	-0.09
241.576	-0.16
241.793	-0.05
242.01	-0.04
242.227	0.03
242.444	0.04
242.66	0.07
242.877	-0.01
243.094	-0.08
243.311	-0.03
243.527	-0.15
243.744	0.01
243.961	0.06
244.178	-0.01
244.394	-0.04
244.611	0.16
244.828	0.07
245.044	-0.12
245.261	-0.04
245.477	-0.02
245.694	0.06
245.911	-0.11
246.127	-0.08
246.344	0.11
246.56	0.04
246.777	-0.11
246.993	-0.02
247.21	-0.01
247.426	0.06
247.643	-0.06
247.859	-0.07
248.076	-0.13
248.292	0.17
248.508	-0.06
248.725	0.01
248.941	0.02
249.157	0.11
249.374	-0.06
249.59	-0.04
249.806	-0.07
250.023	-0
250.239	-0.11
250.455	-0.02
250.671	-0.01
250.888	-0.01
251.104	0.04
251.32	-0.07
251.536	0.06
251.752	-0.06
251.969	-0
252.185	0.03
252.401	0.08
252.617	-0.06
252.833	-0.1
253.049	0.03
253.265	-0.01
253.481	0.08
253.697	-0.04
253.913	-0.08
254.129	-0.01
254.345	0.02
254.561	-0.05
254.777	-0.07
254.993	0.01
255.209	0.02
255.425	-0.1
255.641	-0.05
255.857	0.07
256.073	-0.06
256.288	-0.09
256.504	-0.06
256.72	0.01
256.936	0.11
257.152	0.07
257.367	-0.07
257.583	0.06
257.799	0.07
258.015	-0.1
258.23	-0.07
258.446	0.15
258.662	-0.06
258.877	-0.08
259.093	-0.07
259.309	-0.03
259.524	-0.04
259.74	-0
259.955	-0.15
260.171	0.03
260.387	-0.09
260.602	0.08
260.818	0.06
261.033	-0.09
261.249	0.01
261.464	-0.02
261.68	-0.13
261.895	-0
262.11	0.02
262.326	-0.04
262.541	-0.11
262.757	0.04
262.972	0.05
263.187	-0.03
263.403	-0
263.618	0.03
263.833	0
264.049	-0.01
264.264	0.06
264.479	0.04
264.694	0.1
264.91	-0.11
265.125	-0.02
265.34	0.03
265.555	0.1
265.77	0.07
265.986	-0.05
266.201	0.05
266.416	0.1
266.631	-0.02
266.846	-0.02
267.061	-0.04
267.276	-0.06
267.491	-0.12
267.706	0.03
267.921	0.01
268.136	-0.02
268.351	0
268.566	-0.09
268.781	0.1
268.996	0.05
269.211	0.01
269.426	-0.07
269.641	-0.01
269.856	0.08
270.071	-0.1
270.285	-0.13
270.5	0.09
270.715	0.1
270.93	-0.02
271.145	-0.06
271.359	0.02
271.574	-0.08
271.789	-0.03
272.004	-0.04
272.218	-0.06
272.433	0
272.648	-0.06
272.862	0
273.077	-0.03
273.292	0.02
273.506	-0.09
273.721	-0.06
273.936	-0.01
274.15	0.05
274.365	0
274.579	0.02
274.794	0.05
275.008	0.06
275.223	-0.08
275.437	-0.03
275.652	0.04
275.866	0.04
276.081	-0.01
276.295	0.03
276.509	0.05
276.724	0.01
276.938	-0.01
277.153	-0.02
277.367	0.01
277.581	-0.03
277.796	-0.02
278.01	-0.04
278.224	0.04
278.438	0.11
278.653	-0.06
278.867	-0.02
279.081	-0.19
279.295	0.03
279.51	-0
279.724	-0.11
279.938	0
280.152	0.04
280.366	-0.05
280.58	0.01
280.794	0.06
281.008	-0.03
281.222	0.05
281.437	0.06
281.651	0.04
281.865	0.1
282.079	-0.01
282.293	-0.02
282.507	-0.09
282.721	-0.01
282.935	-0.01
283.148	-0.09
283.362	-0.04
283.576	-0.07
283.79	-0.03
284.004	-0.07
284.218	0.04
284.432	-0.05
284.646	0.02
284.859	-0.04
285.073	-0.02
285.287	0.01
285.501	-0.03
285.714	-0.07
285.928	-0
286.142	0.07
286.356	-0.03
286.569	-0.05
286.783	0.08
286.997	0.04
287.21	0.01
287.424	0
287.637	0.01
287.851	-0.05
288.065	0.01
288.278	-0.03
288.492	0.01
288.705	-0.02
288.919	-0.01
289.132	-0.04
289.346	0.08
289.559	-0.06
289.773	-0.05
289.986	-0.03
290.2	0.01
290.413	0.06
290.626	-0.04
290.84	-0.01
291.053	0.01
291.267	0.05
291.48	-0.02
291.693	-0.01
291.906	-0.07
292.12	-0.06
292.333	-0.05
292.546	0.01
292.76	0.04
292.973	-0.01
293.186	0.01
293.399	-0.04
293.612	0.06
293.826	-0.03
294.039	0.01
294.252	-0.01
294.465	-0.02
294.678	0.03
294.891	0.01
295.104	-0.04
295.317	-0.03
295.53	0.03
295.743	-0.05
295.956	0.01
296.169	0.08
296.382	0.02
296.595	-0.01
296.808	-0.06
297.021	0.04
297.234	0
297.447	0.04
297.66	-0.01
297.873	0.04
298.086	0
298.299	-0.03
298.511	-0.03
298.724	0.01
298.937	-0.03
299.15	0
299.363	-0.01
299.575	0.02
299.788	0.01
300.001	-0.01
300.213	-0.01
300.426	-0.03
300.639	-0.01
300.852	-0.03
301.064	0.03
301.277	0.08
301.489	0.04
301.702	0.06
301.915	0.01
302.127	0.01
302.34	-0
302.552	0.04
302.765	-0.02
302.977	0.06
303.19	-0.04
303.402	-0.01
303.615	0
303.827	-0.02
304.04	-0.02
304.252	0.04
304.464	-0.05
304.677	0.08
304.889	0.05
305.102	-0.03
305.314	-0.01
305.526	0.06
305.739	0.03
305.951	-0.04
306.163	-0.02
306.375	0.11
306.588	-0.01
306.8	-0.04
307.012	-0.04
307.224	0.02
307.436	0.07
307.649	-0.07
307.861	0.03
308.073	0.05
308.285	-0.04
308.497	-0.03
308.709	-0.04
308.921	-0.01
309.133	0.07
309.346	-0
309.558	-0.01
309.77	-0.01
309.982	0.07
310.194	0.04
310.406	-0.05
310.617	0.03
310.829	-0.03
311.041	0
311.253	-0.04
311.465	0.03
311.677	-0.05
311.889	-0.02
312.101	-0.02
312.313	0.02
312.524	0.01
312.736	-0.06
312.948	0.03
313.16	0.09
313.372	0
313.583	0.01
313.795	0
314.007	-0.04
314.218	0.02
314.43	-0.02
314.642	-0.05
314.853	-0.08
315.065	-0.01
315.277	0.04
315.488	0.02
315.7	0.04
315.912	0.01
316.123	-0.03
316.335	0
316.546	0.06
316.758	-0.03
316.969	0.01
317.181	-0
317.392	0
317.604	0.05
317.815	-0.05
318.026	-0.09
318.238	-0.02
318.449	0
318.661	-0.06
318.872	-0.04
319.083	-0.07
319.295	0.02
319.506	-0.01
319.717	0.01
319.929	0
320.14	-0
320.351	0.02
320.562	-0.01
320.774	-0.02
320.985	-0.01
321.196	-0.07
321.407	-0.09
321.618	0.01
321.829	0.05
322.041	-0.01
322.252	-0.03
322.463	-0.01
322.674	0.02
322.885	-0.06
323.096	-0.04
323.307	-0
323.518	0.05
323.729	-0.03
323.94	-0
324.151	-0.03
324.362	0.01
324.573	0.03
324.784	-0.01
324.995	0.05
325.206	-0.01
325.417	0.01
325.628	-0.03
325.838	-0
326.049	0.01
326.26	0.04
326.471	-0.03
326.682	0.02
326.892	-0.05
327.103	-0.06
327.314	-0.07
327.525	0.06
327.735	0.01
327.946	-0.01
328.157	-0
328.368	0.04
328.578	-0.01
328.789	0
328.999	-0.02
329.21	-0
329.421	0.04
329.631	-0.03
329.842	-0.09
330.052	0.03
330.263	0.06
330.473	0.02
330.684	-0
330.894	-0.06
331.105	0.02
331.315	-0.01
331.526	-0.08
331.736	0.1
331.947	-0
332.157	0
332.367	-0.03
332.578	0.02
332.788	0.05
332.999	-0.03
333.209	0.01
333.419	-0.02
333.629	0.03
333.84	0.02
334.05	-0.06
334.26	0.06
334.47	0.01
334.681	0.03
334.891	0.02
335.101	0.01
335.311	0.06
335.521	-0.02
335.732	-0.04
335.942	0.09
336.152	0.03
336.362	0
336.572	-0.02
336.782	0.07
336.992	-0.03
337.202	-0
337.412	-0.06
337.622	-0
337.832	0.01
338.042	0.04
338.252	-0.04
338.462	-0.05
338.672	-0.03
338.882	0
339.092	0.01
339.302	0.05
339.511	-0
339.721	-0.01
339.931	-0.09
340.141	0.05
340.351	0.06
340.561	0.03
340.77	0.01
340.98	-0.02
341.19	0.05
341.4	-0.01
341.609	-0.06
341.819	0.01
342.029	-0.04
342.238	0.05
342.448	-0.07
342.658	0.03
342.867	-0
343.077	0.01
343.286	0.03
343.496	-0
343.706	0.02
343.915	-0.03
344.125	0
344.334	0.01
344.544	-0.05
344.753	-0.01
344.963	-0.02
345.172	-0.04
345.381	-0.04
345.591	-0.05
345.8	0.03
346.01	0.05
346.219	0.03
346.428	-0.14
346.638	0
346.847	0.01
347.056	0.06
347.266	-0.02
347.475	0.03
347.684	0.05
347.893	0.01
348.103	0.02
348.312	-0.02
348.521	-0.05
348.73	-0.04
348.94	0.03
349.149	-0.02
349.358	-0.01
349.567	0.02
349.776	-0.05
349.985	-0.02
350.194	0.04
350.403	0.02
350.612	-0.05
350.821	-0.01
351.03	0.01
351.239	-0.09
351.448	-0.01
351.657	-0.02
351.866	0.07
352.075	-0
352.284	0.03
352.493	-0.04
352.702	0.01
352.911	0.05
353.12	0
353.329	-0.02
353.538	0.01
353.746	0.02
353.955	0
354.164	0.04
354.373	-0.01
354.582	0.01
354.79	-0.01
354.999	0.04
355.208	-0.02
355.416	0.08
355.625	-0.04
355.834	-0.02
356.042	0.03
356.251	0.03
356.46	-0.05
356.668	0.02
356.877	0.09
357.085	0.04
357.294	-0.08
357.503	0.03
357.711	-0.01
357.92	0.1
358.128	0
358.337	0.01
358.545	-0
358.754	-0.04
358.962	0.03
359.17	-0.01
359.379	0.02
359.587	0.01
359.796	0.03
360.004	0.01
360.212	0.01
360.421	0.04
360.629	-0.05
360.837	-0.05
361.046	0.03
361.254	0.09
361.462	0.03
361.67	-0.01
361.879	0
362.087	0.05
362.295	0.01
362.503	-0.01
362.711	-0.02
362.92	-0.01
363.128	-0.03
363.336	-0.05
363.544	-0.07
363.752	-0.04
363.96	-0.05
364.168	-0.02
364.376	-0.02
364.584	0.03
364.792	0.01
365	0.02
365.208	0.01
365.416	0.01
365.624	0.02
365.832	0.01
366.04	0.03
366.248	0.02
366.456	0
366.664	0.04
366.872	-0.01
367.079	-0.03
367.287	0
367.495	0.01
367.703	0.01
367.911	0.01
368.118	0.02
368.326	0
368.534	-0.04
368.742	0
368.949	-0.03
369.157	-0.03
369.365	0.01
369.572	-0.05
369.78	-0.01
369.988	0.06
370.195	0.02
370.403	0.04
370.61	-0.02
370.818	0.02
371.026	0.03
371.233	-0.03
371.441	0.01
371.648	-0.03
371.856	0.01
372.063	-0
372.271	-0.03
372.478	-0.04
372.685	-0.03
372.893	0.02
373.1	0.01
373.308	0.01
373.515	0.03
373.722	0.01
373.93	0.02
374.137	0.03
374.344	0.05
374.552	0.04
374.759	0.01
374.966	-0
375.173	-0.02
375.381	0.05
375.588	0
375.795	-0.05
376.002	-0.04
376.209	-0.06
376.417	-0.01
376.624	-0.01
376.831	-0.01
377.038	-0.01
377.245	-0.09
377.452	-0.02
377.659	-0.01
377.866	0
378.073	-0.05
378.28	-0.04
378.487	0.03
378.694	0
378.901	-0.01
379.108	-0.01
379.315	0.01
379.522	0.08
379.729	-0.01
379.936	-0.03
380.143	-0.04
380.35	0.01
380.557	0.02
380.763	0.02
380.97	-0.01
381.177	0.03
381.384	-0.04
381.591	0.02
381.797	0.03
382.004	0.02
382.211	0.05
382.418	0.01
382.624	0.01
382.831	0.03
383.038	-0.06
383.244	-0.01
383.451	-0.01
383.658	0.01
383.864	-0.01
384.071	-0.02
384.277	0.04
384.484	-0
384.69	0.03
384.897	-0.06
385.103	-0.03
385.31	-0.03
385.516	0.02
385.723	-0.03
385.929	0.02
386.136	-0.06
386.342	0.04
386.549	-0.04
386.755	0.07
386.961	-0.03
387.168	0.01
387.374	-0.02
387.58	0
387.787	-0.05
387.993	-0.02
388.199	-0.01
388.406	-0.04
388.612	-0
388.818	-0.03
389.024	0
389.231	0.01
389.437	0.05
389.643	0.01
389.849	-0.01
390.055	0
390.261	0
390.467	0
390.674	-0.07
390.88	-0.04
391.086	0.02
391.292	-0.03
391.498	0.04
391.704	0.02
391.91	0.02
392.116	-0.05
392.322	-0.06
392.528	0.04
392.734	-0.02
392.94	-0
393.146	-0
393.352	0
393.557	-0.01
393.763	-0.06
393.969	-0.03
394.175	0.01
394.381	-0
394.587	-0.06
394.792	-0.03
394.998	0.02
395.204	0.07
395.41	-0.03
395.615	-0.01
395.821	-0.02
396.027	0.07
396.233	-0.04
396.438	-0.03
396.644	0.01
396.85	0.03
397.055	-0.03
397.261	-0.03
397.466	0.07
397.672	-0.01
397.878	0.07
398.083	0.02
398.289	-0.04
398.494	0.04
398.7	0.04
398.905	-0.07
399.111	0.04
399.316	-0.04
399.522	-0.04
399.727	-0
399.932	-0.03
400.138	0.01
400.343	0.02
400.549	0.03
400.754	0
400.959	0.04
401.165	-0.03
401.37	0.03
401.575	0.07
401.78	-0.02
401.986	-0.06
402.191	-0.05
402.396	-0.02
402.601	0.04
402.807	-0.02
403.012	0.03
403.217	0.02
403.422	-0.03
403.627	-0.04
403.832	-0.04
404.037	0.03
404.243	0.03
404.448	-0.04
404.653	-0.01
404.858	-0.02
405.063	0.03
405.268	-0.07
405.473	-0.03
405.678	-0.02
405.883	0.09
406.088	-0
406.293	-0.05
406.498	-0.05
406.703	0.01
406.907	-0
407.112	-0.04
407.317	-0.01
407.522	0.01
407.727	-0.04
407.932	-0.02
408.136	0.03
408.341	-0.04
408.546	0.02
408.751	0.03
408.956	-0.03
409.16	0.03
409.365	-0
409.57	-0.03
409.774	-0.02
409.979	0.04
410.184	0.04
410.388	-0.05
410.593	0.04
410.798	0.01
411.002	-0.02
411.207	0.02
411.411	0.03
411.616	-0.04
411.82	0
412.025	0
412.229	-0.05
412.434	0.05
412.638	-0.03
412.843	-0.03
413.047	0.01
413.252	-0.06
413.456	-0.01
413.66	0.05
413.865	-0.04
414.069	0.04
414.273	0.03
414.478	0
414.682	-0.03
414.886	-0.03
415.091	-0.09
415.295	-0.07
415.499	-0
415.703	-0.04
415.908	0.01
416.112	-0.05
416.316	0.04
416.52	-0.04
416.724	-0.08
416.929	-0.04
417.133	0.06
417.337	-0.05
417.541	-0.05
417.745	0
417.949	0.04
418.153	0.04
418.357	-0.04
418.561	0.04
418.765	-0.03
418.969	0.12
419.173	-0.02
419.377	-0.04
419.581	0.05
419.785	-0.06
419.989	-0.09
420.193	-0.02
420.397	0.01
420.601	0.01
420.804	0.01
421.008	0.02
421.212	0.02
421.416	0.04
421.62	-0.03
421.823	-0.02
422.027	0.07
422.231	0.02
422.435	0.01
422.638	0.02
422.842	-0.02
423.046	-0.01
423.249	0.05
423.453	0.01
423.657	0.02
423.86	-0.06
424.064	0.01
424.268	0.04
424.471	-0
424.675	0.07
424.878	0.04
425.082	0.02
425.285	0.01
425.489	-0.03
425.692	0.01
425.896	-0.05
426.099	0.02
426.303	-0.01
426.506	-0.05
426.71	0.03
426.913	0.06
427.116	0.07
427.32	-0.01
427.523	-0.02
427.726	0.06
427.93	-0.02
428.133	0.02
428.336	-0.09
428.54	-0.05
428.743	0.02
428.946	0.03
429.149	-0.04
429.353	-0.01
429.556	0
429.759	-0.03
429.962	-0.04
430.165	-0.02
430.368	-0.04
430.571	-0.01
430.775	0.07
430.978	-0.01
431.181	0
431.384	-0.05
431.587	-0.05
431.79	0.01
431.993	-0.06
432.196	0.01
432.399	0.02
432.602	0.09
432.805	-0.02
433.008	0.03
433.211	-0.09
433.414	0.04
433.616	0
433.819	-0.02
434.022	-0.09
434.225	0.03
434.428	0.02
434.631	0.09
434.833	0.02
435.036	-0.03
435.239	0.07
435.442	0.02
435.645	-0.03
435.847	-0.02
436.05	0.07
436.253	0
436.455	0
436.658	0.03
436.861	0.1
437.063	-0.04
437.266	-0.01
437.468	0.05
437.671	0.15
437.874	0.02
438.076	-0.03
438.279	-0.01
438.481	0.01
438.684	-0.02
438.886	0.03
439.089	-0.04
439.291	-0.01
439.494	0.06
439.696	0.04
439.899	-0.02
440.101	0.02
440.303	-0.02
440.506	0.05
440.708	0.01
440.91	0.11
441.113	-0.01
441.315	0.08
441.517	-0.03
441.72	0.15
441.922	-0
442.124	-0
442.326	0.02
442.529	0.08
442.731	-0
442.933	0.1
443.135	0.03
443.337	0.02
443.539	0.05
443.742	0.07
443.944	0.09
444.146	0.02
444.348	0.04
444.55	-0
444.752	0.01
444.954	0
445.156	0.05
445.358	0.02
445.56	0.12
445.762	0.06
445.964	0.05
446.166	0.01
446.368	-0.05
446.57	0.11
446.772	0.06
446.974	0.02
447.175	0.07
447.377	0.07
447.579	0.08
447.781	-0.01
447.983	0.15
448.184	0.03
448.386	0.1
448.588	-0.05
448.79	0.08
448.991	0.04
449.193	0.03
449.395	0.08
449.597	0.06
449.798	0.01
450	0.07
450.202	0.06
450.403	0.03
450.605	0.1
450.806	0.09
451.008	-0.03
451.21	0.06
451.411	0.08
451.613	0.07
451.814	0.06
452.016	0.08
452.217	0.02
452.419	0.1
452.62	0.07
452.821	0.06
453.023	0.07
453.224	0.11
453.426	0.03
453.627	0.05
453.828	0.1
454.03	0
454.231	0.07
454.432	-0.02
454.634	0.14
454.835	-0.02
455.036	0.04
455.238	0.04
455.439	0.11
455.64	0.02
455.841	0.03
456.042	0.11
456.244	0.08
456.445	0.01
456.646	-0.03
456.847	0.01
457.048	0.04
457.249	0.1
457.45	0.27
457.651	0.01
457.852	0.07
458.054	0.07
458.255	-0.02
458.456	0.05
458.657	0.02
458.858	-0.02
459.058	-0.03
459.259	0.02
459.46	0.04
459.661	0
459.862	0.14
460.063	-0.02
460.264	0.06
460.465	0.01
460.666	0.13
460.866	-0.01
461.067	0.03
461.268	-0.04
461.469	-0
461.67	-0.04
461.87	0.02
462.071	-0
462.272	0
462.473	0.02
462.673	0.04
462.874	-0.06
463.075	0.02
463.275	-0.02
463.476	0.01
463.676	0.08
463.877	0.02
464.078	-0.05
464.278	0.05
464.479	-0.01
464.679	0.01
464.88	0.03
465.08	0.08
465.281	-0.01
465.481	-0.02
465.682	0.02
465.882	0.05
466.083	0.01
466.283	0.02
466.483	-0
466.684	-0.05
466.884	-0.01
467.085	0.04
467.285	0.01
467.485	-0.01
467.686	0.02
467.886	0
468.086	-0.01
468.286	0.01
468.487	0.04
468.687	-0.03
468.887	-0
469.087	0.06
469.287	0.01
469.488	-0.04
469.688	-0
469.888	0.05
470.088	0.06
470.288	0.05
470.488	0.06
470.688	-0.05
470.888	-0.05
471.088	-0.04
471.288	0.04
471.488	0.03
471.688	-0
471.888	-0
472.088	0.07
472.288	0.04
472.488	-0.03
472.688	-0.02
472.888	-0.03
473.088	-0.03
473.288	-0.02
473.488	0.05
473.688	0.06
473.887	0.03
474.087	-0.02
474.287	0.04
474.487	-0.05
474.687	0.03
474.886	-0.01
475.086	0
475.286	-0
475.486	0.02
475.685	-0.02
475.885	-0.01
476.085	0.01
476.284	0.01
476.484	0.01
476.684	0.03
476.883	0.03
477.083	0
477.282	-0.01
477.482	0.06
477.681	0.03
477.881	0.01
478.08	-0.04
478.28	-0.05
478.479	0.05
478.679	0.03
478.878	-0.01
479.078	-0.02
479.277	-0.01
479.477	-0
479.676	0.03
479.875	0
480.075	-0.05
480.274	0.01
480.473	0.01
480.673	-0.03
480.872	0.03
481.071	0.01
481.271	0.01
481.47	-0.03
481.669	0.01
481.868	-0.06
482.067	-0.03
482.267	-0.04
482.466	-0.03
482.665	-0.04
482.864	-0.03
483.063	-0.03
483.262	0.01
483.461	0.02
483.661	0.01
483.86	-0.01
484.059	-0
484.258	0
484.457	0
484.656	-0.04
484.855	0.03
485.054	-0.05
485.253	-0.04
485.452	-0.02
485.651	0
485.849	0.01
486.048	-0.03
486.247	-0.05
486.446	-0.02
486.645	-0.04
486.844	-0.01
487.043	-0.02
487.241	0.02
487.44	-0.03
487.639	-0.02
487.838	0.03
488.037	-0.02
488.235	0.05
488.434	-0.01
488.633	-0.01
488.831	0.01
489.03	0.03
489.229	0.01
489.427	0
489.626	0.05
489.825	0.02
490.023	0
490.222	-0.03
490.42	0.02
490.619	0.02
490.817	0.03
491.016	-0.03
491.214	0.01
491.413	-0.01
491.611	0.01
491.81	0.01
492.008	0.03
492.207	0.01
492.405	0.01
492.604	-0.04
492.802	-0.02
493	0
493.199	-0.02
493.397	0
493.595	-0.03
493.794	-0.01
493.992	0.05
494.19	-0
494.388	0.02
494.587	-0.01
494.785	0.02
494.983	-0.04
495.181	-0.02
495.379	-0.02
495.578	-0
495.776	-0
495.974	0.01
496.172	-0.01
496.37	-0.02
496.568	-0.01
496.766	-0.05
496.964	0.01
497.162	0.01
497.36	-0.02
497.558	0
497.756	0.02
497.954	-0.01
498.152	-0.03
498.35	0.01
498.548	0.01
498.746	-0
498.944	-0.02
499.142	-0.02
499.34	-0.04
499.538	0.01
499.736	-0.04
499.933	0.03
500.131	0.02
500.329	0
500.527	0.01
500.725	0.02
500.922	-0
501.12	0
501.318	-0.01
501.516	-0.03
501.713	-0.01
501.911	0.01
502.109	-0.01
502.306	0
502.504	-0
502.701	0.01
502.899	-0.02
503.097	0.03
503.294	-0.01
503.492	0.01
503.689	-0
503.887	0.01
504.084	0.05
504.282	-0.01
504.479	-0.03
504.677	0
504.874	-0.03
505.072	0
505.269	-0.02
505.466	0.02
505.664	0.01
505.861	-0.01
506.059	-0.02
506.256	0.02
506.453	-0.01
506.651	0.03
506.848	0.03
507.045	0.01
507.242	0.02
507.44	-0.03
507.637	-0.01
507.834	-0.02
508.031	0.02
508.229	-0.01
508.426	-0.02
508.623	0.02
508.82	-0.01
509.017	-0.02
509.214	0.01
509.411	-0
509.608	-0.02
509.805	-0
510.003	-0.01
510.2	-0.01
510.397	0.02
510.594	-0.03
510.791	-0.04
510.988	-0.01
511.184	0.02
511.381	-0
511.578	-0.01
511.775	0.01
511.972	-0.01
512.169	0.01
512.366	-0
512.563	-0.01
512.76	-0.01
512.956	0.01
513.153	-0.02
513.35	0.01
513.547	-0.01
513.744	-0.03
513.94	-0.03
514.137	0.02
514.334	0
514.53	-0.01
514.727	-0
514.924	0.03
515.12	-0.01
515.317	-0.04
515.514	-0.03
515.71	-0.01
515.907	-0.01
516.103	-0
516.3	0.02
516.497	0.01
516.693	0.04
516.89	-0.01
517.086	-0.03
517.283	0.02
517.479	-0
517.676	-0
517.872	-0.02
518.068	-0.04
518.265	-0.02
518.461	-0.01
518.658	-0.03
518.854	-0.01
519.05	-0.02
519.247	-0.03
519.443	0
519.639	-0
519.836	-0.02
520.032	-0
520.228	0
520.424	0.04
520.621	0.01
520.817	-0.01
521.013	0.03
521.209	0.01
521.405	0.05
521.601	-0
521.798	0.02
521.994	0.02
522.19	-0.01
522.386	-0.03
522.582	0.01
522.778	-0.02
522.974	-0.02
523.17	-0
523.366	0.01
523.562	0.02
523.758	-0.02
523.954	-0.04
524.15	-0.02
524.346	0.01
524.542	-0.01
524.738	-0.04
524.934	0.02
525.129	-0.01
525.325	0
525.521	-0.01
525.717	0.03
525.913	0.02
526.109	0.02
526.304	-0.02
526.5	0.01
526.696	0.01
526.892	-0.01
527.087	0.02
527.283	-0.03
527.479	0.01
527.674	-0.03
527.87	0
528.066	-0
528.261	0.01
528.457	-0.01
528.653	-0.02
528.848	-0.02
529.044	-0.01
529.239	-0.01
529.435	0.03
529.63	-0
529.826	0.05
530.021	0.01
530.217	0.02
530.412	-0.01
530.608	-0.04
530.803	0
530.999	-0.01
531.194	-0.04
531.389	-0.01
531.585	-0.05
531.78	-0.01
531.975	-0
532.171	0.02
532.366	-0.02
532.561	-0.01
532.757	-0.03
532.952	-0.02
533.147	-0
533.342	-0
533.538	-0.03
533.733	0.03
533.928	0.01
534.123	-0.01
534.318	-0.03
534.513	-0.01
534.709	-0.02
534.904	-0.03
535.099	-0.02
535.294	0.01
535.489	0
535.684	-0
535.879	-0.03
536.074	-0
536.269	-0.01
536.464	0.01
536.659	-0.01
536.854	-0.01
537.049	0.01
537.244	-0
537.439	-0.01
537.634	0.02
537.828	0.02
538.023	-0
538.218	-0.03
538.413	-0.01
538.608	-0.06
538.803	0.02
538.997	-0.05
539.192	-0.01
539.387	0.03
539.582	0.01
539.776	0
539.971	-0.03
540.166	-0.01
540.36	-0.02
540.555	-0.01
540.75	-0.02
540.944	-0.02
541.139	-0.04
541.334	-0.01
541.528	0.02
541.723	0
541.917	-0.03
542.112	-0.03
542.306	0
542.501	-0.01
542.695	-0.02
542.89	0
543.084	-0.01
543.279	-0.01
543.473	-0.02
543.668	-0
543.862	-0.01
544.056	0.02
544.251	-0.01
544.445	0
544.64	-0.01
544.834	-0.02
545.028	-0.01
545.222	0.01
545.417	0.02
545.611	0
545.805	-0.01
546	-0.03
546.194	0.01
546.388	-0
546.582	0.02
546.776	-0
546.97	0
547.165	0.01
547.359	0.01
547.553	-0.03
547.747	-0.01
547.941	0.01
548.135	-0.01
548.329	0.01
548.523	0.02
548.717	-0
548.911	-0.02
549.105	-0.01
549.299	-0.02
549.493	0.03
549.687	0.01
549.881	0.02
550.075	-0
550.269	-0.05
550.463	0
550.657	-0.02
550.85	0.01
551.044	-0.03
551.238	0.01
551.432	-0.02
551.626	-0.02
551.82	0
552.013	-0.01
552.207	0.03
552.401	0.03
552.594	-0
552.788	-0.03
552.982	-0.02
553.176	-0.02
553.369	0
553.563	0.01
553.756	-0.03
553.95	-0.03
554.144	-0.03
554.337	0.03
554.531	0.02
554.724	-0
554.918	-0.01
555.111	0.02
555.305	0.01
555.498	0.04
555.692	0.03
555.885	-0.01
556.079	-0
556.272	-0.01
556.466	0.01
556.659	0.02
556.852	-0
557.046	-0.01
557.239	0.02
557.432	-0.03
557.626	-0.03
557.819	-0.02
558.012	0
558.206	0
558.399	0.01
558.592	0
558.785	-0.02
558.979	0.01
559.172	0.02
559.365	0.01
559.558	-0.01
559.751	0
559.944	-0.04
560.138	-0.01
560.331	-0.01
560.524	-0
560.717	-0.03
560.91	0.01
561.103	-0
561.296	-0
561.489	0.02
561.682	0.01
561.875	0.01
562.068	-0.01
562.261	0.01
562.454	0.04
562.647	-0.01
562.84	0.01
563.032	-0.02
563.225	0.01
563.418	-0.02
563.611	0
563.804	0
563.997	-0.03
564.19	-0.04
564.382	-0.01
564.575	-0.01
564.768	-0.01
564.961	-0.01
565.153	-0.01
565.346	0.03
565.539	0.02
565.731	0.01
565.924	-0
566.117	0.01
566.309	0.02
566.502	-0
566.695	-0.02
566.887	-0
567.08	-0.03
567.272	-0.02
567.465	-0.02
567.657	-0.01
567.85	0.01
568.042	0
568.235	0.04
568.427	-0
568.62	-0
568.812	0.02
569.005	-0
569.197	-0.03
569.389	-0
569.582	0.03
569.774	-0
569.966	-0.01
570.159	-0.03
570.351	-0.01
570.543	-0.04
570.736	0
570.928	-0.03
571.12	-0.01
571.312	0
571.505	-0.01
571.697	0.02
571.889	-0.01
572.081	0.01
572.273	-0.03
572.465	0.02
572.658	-0.01
572.85	0
573.042	-0
573.234	0.01
573.426	0.01
573.618	-0.03
573.81	0.01
574.002	0.02
574.194	0.01
574.386	-0.05
574.578	-0.07
574.77	-0.02
574.962	-0.02
575.154	-0.04
575.346	-0.01
575.538	0.01
575.729	-0
575.921	-0.02
576.113	-0.01
576.305	0.03
576.497	-0.02
576.689	-0.02
576.88	-0.02
577.072	0.02
577.264	-0.02
577.456	-0.02
577.647	-0.07
577.839	-0
578.031	0.03
578.223	-0.03
578.414	-0.04
578.606	0.01
578.798	0
578.989	-0.01
579.181	0.02
579.372	-0
579.564	-0.03
579.755	-0.02
579.947	0.01
580.139	0.02
580.33	-0.04
580.522	-0.03
580.713	-0.06
580.905	-0.01
581.096	0
581.287	0.02
581.479	0.01
581.67	0.03
581.862	-0
582.053	-0.03
582.244	-0.04
582.436	-0.01
582.627	0.01
582.818	-0
583.01	-0.03
583.201	0.02
583.392	0.01
583.583	-0.01
583.775	-0.03
583.966	-0.01
584.157	-0.03
584.348	-0.05
584.54	-0.05
584.731	-0
584.922	0
585.113	-0.03
585.304	0.01
585.495	0.04
585.686	0.01
585.877	0.01
586.068	-0.01
586.259	0.01
586.45	0.02
586.641	-0.02
586.832	-0.06
587.023	-0.01
587.214	-0
587.405	0.03
587.596	-0.03
587.787	0.02
587.978	0.01
588.169	-0.04
588.36	-0
588.551	-0
588.742	-0.02
588.932	0.02
589.123	-0.02
589.314	0.05
589.505	0.03
589.696	-0.01
589.886	-0.03
590.077	-0.04
590.268	-0.01
590.458	-0.02
590.649	-0.04
590.84	-0.01
591.03	-0.04
591.221	-0.02
591.412	-0.03
591.602	0.02
591.793	0.01
591.984	-0.04
592.174	-0.01
592.365	0.04
592.555	-0.03
592.746	0
592.936	0.01
593.127	-0
593.317	0.02
593.508	0
593.698	-0.05
593.889	-0.02
594.079	-0
594.269	0
594.46	0.01
594.65	-0
594.84	-0.01
595.031	-0.01
595.221	-0.04
595.411	-0.05
595.602	0.04
595.792	-0.04
595.982	-0.01
596.172	0.03
596.363	-0.02
596.553	-0.01
596.743	0.01
596.933	-0
597.123	0.01
597.314	-0.03
597.504	-0.03
597.694	0.01
597.884	-0.01
598.074	-0.05
598.264	-0.05
598.454	0.01
598.644	-0.01
598.834	0
599.024	-0.08
599.214	0.01
599.404	-0
599.594	-0.03
599.784	-0.04
599.974	0.03
600.164	0.03
600.354	-0.04
600.544	-0.03
600.734	0.01
600.924	0.01
601.114	-0.02
601.303	-0
601.493	-0.02
601.683	-0.01
601.873	0
602.063	-0.06
602.252	0.03
602.442	-0.08
602.632	-0.04
602.821	-0.05
603.011	0.01
603.201	-0
603.39	-0.03
603.58	-0.03
603.77	0.02
603.959	0.03
604.149	0
604.339	-0.01
604.528	0.01
604.718	0
604.907	-0.03
605.097	-0.04
605.286	-0.02
605.476	0.01
605.665	-0
605.855	-0.04
606.044	0.04
606.234	0.01
606.423	-0
606.612	-0.05
606.802	-0.02
606.991	0.02
607.181	0.02
607.37	-0.05
607.559	-0
607.749	-0.04
607.938	-0
608.127	-0
608.316	-0.01
608.506	0.02
608.695	-0.03
608.884	-0.04
609.073	0.01
609.263	-0.01
609.452	-0.01
609.641	0
609.83	-0.03
610.019	-0.03
610.208	-0.04
610.397	0.02
610.586	-0.02
610.775	-0.03
610.965	-0.02
611.154	-0
611.343	0.01
611.532	0.01
611.721	-0.04
611.91	-0.04
612.099	0.01
612.287	-0.02
612.476	-0.03
612.665	-0.01
612.854	-0.03
613.043	0.03
613.232	-0.02
613.421	-0.04
613.61	0.01
613.798	-0.02
613.987	0.03
614.176	0.01
614.365	-0.02
614.554	0
614.742	0.03
614.931	-0.01
615.12	0.02
615.309	-0.03
615.497	-0.01
615.686	-0.02
615.875	-0.01
616.063	0
616.252	-0.03
616.44	-0.01
616.629	-0.02
616.818	0.05
617.006	-0.03
617.195	-0.01
617.383	0
617.572	0.01
617.76	-0.01
617.949	-0.04
618.137	0.02
618.326	0.07
618.514	-0.01
618.703	-0.02
618.891	0.02
619.079	-0.06
619.268	0
619.456	-0.01
619.644	0.03
619.833	-0
620.021	-0.03
620.209	-0.04
620.398	0.02
620.586	0.04
620.774	-0
620.962	-0.02
621.151	0.07
621.339	-0.01
621.527	-0.03
621.715	-0.04
621.903	-0.03
622.092	-0.05
622.28	-0.01
622.468	-0.07
622.656	-0.01
622.844	0.02
623.032	-0.01
623.22	-0.05
623.408	0.02
623.596	-0.01
623.784	0.04
623.972	-0.04
624.16	-0.01
624.348	0.05
624.536	-0.02
624.724	-0.03
624.912	0.02
625.1	0.02
625.288	-0.03
625.476	-0.05
625.664	0.01
625.851	-0.01
626.039	-0.03
626.227	0.03
626.415	-0.02
626.603	-0.07
626.79	-0.01
626.978	-0.02
627.166	0
627.354	-0.01
627.541	-0.04
627.729	-0.06
627.917	0.01
628.104	0.07
628.292	-0.01
628.48	0.01
628.667	0.02
628.855	0.01
629.042	0.02
629.23	0.03
629.418	-0.02
629.605	-0.01
629.793	-0.02
629.98	0.01
630.168	-0.01
630.355	-0
630.543	0.02
630.73	-0.04
630.917	-0.02
631.105	0.07
631.292	-0.03
631.48	-0.01
631.667	0.07
631.854	-0.01
632.042	0.01
632.229	-0.05
632.416	-0.01
632.604	-0
632.791	-0.03
632.978	0.05
633.165	0.04
633.353	0.07
633.54	0
633.727	-0.02
633.914	0.01
634.101	-0.06
634.289	0.03
634.476	-0.03
634.663	-0.02
634.85	0
635.037	-0.04
635.224	-0.04
635.411	0.03
635.598	0.02
635.785	0.01
635.972	-0
636.159	0.03
636.346	-0.03
636.533	0
636.72	0.03
636.907	0.01
637.094	0.02
637.281	0
637.468	0.02
637.655	0.03
637.842	0.02
638.029	0
638.215	0.05
638.402	0.03
638.589	0
638.776	0.01
638.963	-0.03
639.149	0.03
639.336	0.08
639.523	-0
639.709	-0.02
639.896	-0.02
640.083	0.08
640.27	0.06
640.456	0.02
640.643	0.04
640.829	-0.03
641.016	-0
641.203	-0.02
641.389	0.02
641.576	0.01
641.762	0.02
641.949	-0.03
642.135	0.08
642.322	0.02
642.508	-0.04
642.695	0.03
642.881	0.02
643.068	0.03
643.254	-0.01
643.441	0.06
643.627	0.01
643.813	-0.01
644	0.09
644.186	-0
644.372	0.03
644.559	0.1
644.745	0.04
644.931	0.02
645.118	0.03
645.304	0.01
645.49	0.01
645.676	-0.01
645.862	0.03
646.049	0.07
646.235	0.03
646.421	0.09
646.607	0.1
646.793	0.02
646.979	-0.01
647.165	0.06
647.352	0.02
647.538	0.06
647.724	0.05
647.91	0.07
648.096	0.07
648.282	0.07
648.468	0.04
648.654	0.06
648.84	0.04
649.026	0.06
649.212	0.05
649.397	0.03
649.583	0.04
649.769	0.03
649.955	0.02
650.141	0.07
650.327	0.09
650.513	0.04
650.698	0.07
650.884	-0.01
651.07	0.03
651.256	0.05
651.442	0.04
651.627	0.06
651.813	0.07
651.999	0.07
652.184	0.1
652.37	0.06
652.556	0.02
652.741	0.17
652.927	-0.01
653.113	0.1
653.298	0.05
653.484	0.04
653.669	0.03
653.855	0.07
654.04	0.11
654.226	0.09
654.412	0.05
654.597	0.04
654.782	0.12
654.968	0.08
655.153	0.11
655.339	0.07
655.524	0.05
655.71	0.1
655.895	0.1
656.08	0.07
656.266	0.12
656.451	0.13
656.636	0.05
656.822	0.1
657.007	0.09
657.192	0.05
657.378	0.05
657.563	0.12
657.748	0.11
657.933	0.1
658.118	0.13
658.304	0.1
658.489	0.13
658.674	0.09
658.859	0.07
659.044	0.12
659.229	0.11
659.414	0.09
659.599	0.13
659.785	0.08
659.97	0.08
660.155	0.13
660.34	0.13
660.525	0.11
660.71	0.07
660.895	0.12
661.08	0.08
661.264	0.11
661.449	0.13
661.634	0.13
661.819	0.08
662.004	0.09
662.189	-0.01
662.374	0.05
662.559	0.04
662.743	-0
662.928	0.08
663.113	0.03
663.298	-0.01
663.483	0.07
663.667	0.07
663.852	0.03
664.037	0.1
664.221	0.03
664.406	0.1
664.591	0.06
664.775	0.08
664.96	0.02
665.145	0.05
665.329	0.06
665.514	0.03
665.698	0.03
665.883	0
666.068	0.11
666.252	0.02
666.437	-0.02
666.621	0.01
666.806	0.07
666.99	0.03
667.174	-0.01
667.359	0.09
667.543	-0
667.728	-0.01
667.912	-0.03
668.096	0.02
668.281	0
668.465	0.01
668.649	0.01
668.834	-0.02
669.018	0.01
669.202	-0.02
669.387	-0.01
669.571	-0.01
669.755	-0.05
669.939	-0.05
670.124	-0
670.308	0.05
670.492	0.02
670.676	0.02
670.86	0.01
671.044	-0.03
671.228	0.03
671.413	-0.03
671.597	-0.03
671.781	-0.05
671.965	-0
672.149	0.02
672.333	-0.02
672.517	-0
672.701	0.06
672.885	0.02
673.069	-0.08
673.253	0.06
673.437	-0
673.621	-0.06
673.804	-0.02
673.988	0.01
674.172	0.01
674.356	-0.07
674.54	-0
674.724	0.09
674.908	-0.01
675.091	0.02
675.275	-0.01
675.459	0.02
675.643	-0.02
675.826	0.03
676.01	0.01
676.194	0.03
676.377	0.01
676.561	0.03
676.745	-0.01
676.928	0.02
677.112	0.03
677.296	-0.05
677.479	-0.08
677.663	-0.07
677.846	0.03
678.03	-0.02
678.213	0.02
678.397	-0.03
678.58	-0
678.764	-0.02
678.947	-0.03
679.131	-0.03
679.314	0
679.498	-0.02
679.681	-0.02
679.865	0.01
680.048	-0.03
680.231	-0.04
680.415	-0.04
680.598	-0.02
680.781	-0.03
680.965	-0.03
681.148	0.03
681.331	0.01
681.514	0.02
681.698	-0.03
681.881	0.01
682.064	0
682.247	0.04
682.43	-0.07
682.614	0.03
682.797	-0
682.98	0.04
683.163	-0.04
683.346	-0
683.529	-0.04
683.712	-0.05
683.895	-0.02
684.078	-0.04
684.261	-0.02
684.444	-0.02
684.627	0.01
684.81	-0.04
684.993	0
685.176	-0
685.359	-0.07
685.542	-0.04
685.725	-0
685.908	0.01
686.091	-0.02
686.274	0
686.457	-0.05
686.639	0.01
686.822	0.01
687.005	0.01
687.188	0.02
687.371	0.08
687.553	0
687.736	-0
687.919	0.08
688.102	0.08
688.284	-0.06
688.467	0.03
688.65	-0.04
688.832	-0.08
689.015	-0.02
689.197	-0.04
689.38	0.08
689.563	0.06
689.745	-0.09
689.928	-0.09
690.11	-0.01
690.293	0.02
690.475	-0.07
690.658	0.02
690.84	-0.02
691.023	-0.04
691.205	-0.05
691.388	-0.01
691.57	0.03
691.752	0.01
691.935	-0.04
692.117	-0.05
692.3	0.01
692.482	0.01
692.664	0
692.847	0.01
693.029	0.01
693.211	0.01
693.393	-0.02
693.576	-0.06
693.758	-0.01
693.94	0.02
694.122	-0.05
694.304	-0.02
694.487	-0.01
694.669	0.04
694.851	-0.06
695.033	0
695.215	-0.02
695.397	-0.03
695.579	0.01
695.761	-0.08
695.943	-0.11
696.125	0.07
696.308	0.08
696.49	-0.09
696.671	0.12
696.853	-0.05
697.035	0.1
697.217	0
697.399	0.04
697.581	-0.05
697.763	0.02
697.945	-0.12
698.127	0.02
698.309	0.05
698.491	0.04
698.672	0.01
698.854	0.01
699.036	0.09
699.218	-0.04
699.399	0.03
699.581	0.03
699.763	0
699.945	-0.06
700.126	-0.07
700.308	-0.01
700.49	0.05
700.671	-0.1
700.853	-0
701.035	-0.03
701.216	0
701.398	0.02
701.579	-0.03
701.761	0.08
701.943	0.01
702.124	-0.03
702.306	-0.02
702.487	0.09
702.669	0.01
702.85	-0.05
703.031	-0.12
703.213	0.08
703.394	0.04
703.576	-0.02
703.757	0.04
703.938	0.05
704.12	0.13
704.301	-0.04
704.483	0.02
704.664	-0.02
704.845	0.07
705.026	0
705.208	-0.02
705.389	0.03
705.57	0
705.751	-0.04
705.933	0.04
706.114	0.03
706.295	0.01
706.476	-0.08
706.657	0.09
706.838	0
707.02	0.05
707.201	-0.07
707.382	0
707.563	0.05
707.744	-0.01
707.925	-0.02
708.106	-0.06
708.287	0
708.468	0.17
708.649	-0.02
708.83	0.11
709.011	-0.03
709.192	0.05
709.373	-0.04
709.554	-0.02
709.734	0.04
709.915	0.05
710.096	-0.01
710.277	-0.07
710.458	-0.03
710.639	0.01
710.819	-0.11
711	-0.01
711.181	0.03
711.362	0.09
711.542	0.03
711.723	-0.02
711.904	0.14
712.085	0.04
712.265	0.07
712.446	-0.04
712.627	-0.02
712.807	-0.01
712.988	0.02
713.168	-0.02
713.349	0.04
713.53	-0.06
713.71	-0
713.891	-0.03
714.071	0.07
714.252	0.02
714.432	-0.05
714.613	-0.05
714.793	-0.03
714.974	0.1
715.154	0.1
715.334	0.03
715.515	0.11
715.695	-0.07
715.876	0.08
716.056	-0.03
716.236	-0.01
716.417	-0.08
716.597	-0.04
716.777	0.11
716.957	-0.02
717.138	-0.01
717.318	0.05
717.498	-0.05
717.678	0.02
717.859	0.06
718.039	-0.03
718.219	0.09
718.399	0.06
718.579	-0.08
718.759	-0.03
718.939	0.02
719.12	0.06
719.3	0.06
719.48	-0.1
719.66	-0.07
719.84	0.14
720.02	0.08
720.2	-0.03
720.38	0.02
720.56	0.1
720.74	0.01
720.92	0.08
721.1	0.11
721.279	0.04
721.459	0.06
721.639	0.02
721.819	0.11
721.999	-0.04
722.179	0.06
722.359	-0.01
722.538	-0.01
722.718	0.08
722.898	-0.02
723.078	0.05
723.257	-0.04
723.437	0.05
723.617	-0.02
723.797	-0.01
723.976	0.06
724.156	0.07
724.336	0.14
724.515	0.21
724.695	-0.11
724.874	0.01
725.054	0.1
725.234	-0
725.413	0.02
725.593	0.05
725.772	0.03
725.952	0.01
726.131	0.08
726.311	0.07
726.49	0.08
726.67	-0.04
726.849	-0.02
727.028	0.05
727.208	0
727.387	0.02
727.567	0.05
727.746	-0.01
727.925	0.07
728.105	-0.01
728.284	0.04
728.463	-0.03
728.643	0.09
728.822	-0.04
729.001	0.02
729.18	0.09
729.359	0.18
729.539	0
729.718	0.11
729.897	0.1
730.076	0.04
730.255	-0.03
730.434	0.07
730.614	0.15
730.793	0.2
730.972	0.01
731.151	0.09
731.33	0.13
731.509	0.15
731.688	0.09
731.867	0.05
732.046	-0.03
732.225	0.24
732.404	-0.05
732.583	-0.01
732.762	0.11
732.941	0.14
733.12	0.12
733.298	0.08
733.477	0.18
733.656	0.03
733.835	0.09
734.014	0.19
734.193	0.1
734.371	0.13
734.55	0.01
734.729	-0.04
734.908	0.04
735.086	0.1
735.265	0.33
735.444	-0.06
735.623	0.01
735.801	0.02
735.98	0.08
736.159	0.05
736.337	0.13
736.516	0.08
736.694	0.05
736.873	-0.02
737.052	0.23
737.23	0.16
737.409	-0.04
737.587	0.32
737.766	-0.09
737.944	-0.04
738.123	0.14
738.301	0.15
738.479	0.07
738.658	0.05
738.836	0
739.015	0.02
739.193	0.24
739.371	-0.06
739.55	0.04
739.728	-0.01
739.906	0.19
740.085	0.2
740.263	-0.03
740.441	-0.07
740.62	0.25
740.798	0.11
740.976	0.01
741.154	-0.14
741.332	0.19
741.511	0.01
741.689	0.14
741.867	0.17
742.045	0.13
742.223	0.12
742.401	-0.04
742.579	0.09
742.757	0.17
742.935	-0.06
743.114	-0.05
743.292	0.02
743.47	0.01
743.648	0.05
743.826	-0.25
744.004	0.15
744.181	0.09
744.359	0.01
744.537	-0.03
744.715	-0.02
744.893	-0.02
745.071	0.01
745.249	-0.07
745.427	-0.07
745.605	0.01
745.782	0.07
745.96	0.11
746.138	-0.04
746.316	0.17
746.493	-0.05
746.671	0.06
746.849	-0.06
747.027	0.12
747.204	-0.08
747.382	0.04
747.56	-0.14
747.737	0.04
747.915	-0.06
748.093	0.09
748.27	-0.11
748.448	0.05
748.625	-0.04
748.803	-0.1
748.98	-0.06
749.158	0.02
749.335	0.06
749.513	0.08
749.69	0
749.868	-0.04
750.045	0.02
750.223	-0.03
750.4	-0.08
750.578	0.14
750.755	0.12
750.932	-0.07
751.11	0.03
751.287	-0.14
751.464	0.17
751.642	-0.08
751.819	0.07
751.996	-0.03
752.173	0.04
752.351	-0.08
752.528	-0.02
752.705	-0
752.882	-0.15
753.06	-0.01
753.237	0.06
753.414	0.23
753.591	0.14
753.768	-0.08
753.945	-0.02
754.122	-0.05
754.299	0.01
754.476	-0.17
754.654	-0.01
754.831	0.04
755.008	0.08
755.185	-0.04
755.362	-0.13
755.539	0.05
755.716	-0.21
755.892	0.06
756.069	-0.05
756.246	-0.05
756.423	-0.09
756.6	0.04
756.777	0.01
756.954	0.2
757.131	-0.11
757.307	-0.1
757.484	-0.12
757.661	0.03
757.838	-0.04
758.015	-0.12
758.191	0.07
758.368	-0.04
758.545	0.15
758.721	0.06
758.898	0.03
759.075	0.04
759.251	-0.01
759.428	0.02
759.605	-0.15
759.781	-0
759.958	0.11
760.134	0.05
760.311	-0.05
760.488	0.08
760.664	0.09
760.841	-0.02
761.017	-0.07
761.194	-0.01
761.37	0.06
761.547	-0.01
761.723	0.05
761.899	0.09
762.076	-0.11
762.252	-0.13
762.429	-0.15
762.605	0.04
762.781	-0.05
762.958	0.16
763.134	-0.03
763.31	-0.07
763.486	0.12
763.663	-0.11
763.839	-0.06
764.015	-0.18
764.191	-0.07
764.368	0.03
764.544	-0.05
764.72	0.13
764.896	0.05
765.072	0.05
765.248	-0
765.425	0.04
765.601	-0.04
765.777	0.05
765.953	-0.2
766.129	-0.15
766.305	-0.05
766.481	-0.05
766.657	0.02
766.833	0.22
767.009	-0.04
767.185	-0.06
767.361	-0.01
767.537	-0.2
767.713	0.09
767.889	-0.14
768.065	-0.03
768.24	-0.03
768.416	0.08
768.592	-0.07
768.768	0.01
768.944	-0.06
769.12	-0.06
769.295	-0.05
769.471	0.01
769.647	-0.09
769.823	0.22
769.998	-0.16
770.174	-0.08
770.35	0.31
770.525	0.26
770.701	0
770.877	-0.04
771.052	0.01
771.228	-0.03
771.403	0.03
771.579	0.11
771.755	0.31
771.93	-0.04
772.106	-0.27
772.281	-0.1
772.457	0.03
772.632	-0.08
772.808	-0.21
772.983	-0.03
773.159	-0.23
773.334	0.15
773.509	-0.06
773.685	-0.11
773.86	0.37
774.036	0.08
774.211	-0.02
774.386	-0.06
774.562	0
774.737	0.1
774.912	-0.18
775.087	0.02
775.263	-0.02
775.438	0
775.613	0.09
775.788	0.02
775.964	0.05
776.139	0.27
776.314	-0.11
776.489	-0
776.664	-0.04
776.839	0.07
777.014	0.05
777.19	0.18
777.365	0.11
777.54	-0.01
777.715	-0.08
777.89	-0.06
778.065	-0.21
778.24	0
778.415	0.04
778.59	-0.13
778.765	-0.02
778.94	-0.03
779.115	-0.14
779.289	-0.09
779.464	0.05
779.639	-0.17
779.814	-0.2
779.989	-0.25
780.164	0.12
780.339	0.02
780.513	-0.21
780.688	-0.2
780.863	0.1
781.038	0.16
781.212	-0
781.387	-0.01
781.562	0.17
781.737	0.16
781.911	0.09
782.086	-0.11
782.261	-0
782.435	0.17
782.61	-0.12
782.784	-0.19
782.959	0.26
783.134	-0.07
783.308	-0.14
783.483	0.05
783.657	0.39
783.832	0.27
784.006	-0.54
784.181	-0
784.355	0.27
784.53	-0
784.704	-0.09
784.878	0.07
785.053	-0.01
785.227	0.01
785.402	0.31
785.576	-0.25
785.75	0.19
785.925	-0.24
786.099	0.01
786.273	0.06
786.448	0.06
786.622	0.29
786.796	-0.08
786.97	-0.21
787.145	0.54
787.319	-0.21
787.493	0.08
787.667	-0.27
787.841	-0.05
788.015	0.2
788.19	0
788.364	0.03
788.538	0.21
788.712	0.05
788.886	-0.07
789.06	0.04
789.234	0.19
789.408	-0.36
789.582	0.07
789.756	-0.01
789.93	-0.27
790.104	-0.21
790.278	-0.14
790.452	-0.29
790.626	0.08
790.8	-0.18
790.973	0.24
791.147	0.11
791.321	0.39
791.495	0.01
791.669	0.11
791.843	0.14
792.016	0.01
792.19	0.48
792.364	-0.05
792.538	0.25
792.711	0.31
792.885	-0.2
793.059	-0.28
793.233	-0.52
793.406	0.14
793.58	0.1
793.754	0.09
793.927	0.04
794.101	0.16
794.274	0.12
794.448	0.04
794.622	-0.05
794.795	0.23
794.969	-0.05
795.142	0.08
795.316	-0.21
795.489	-0.18
795.663	0.15
795.836	-0.05
796.009	-0.18
796.183	0.24
796.356	0.21
796.53	0.24
796.703	-0.06
796.876	0.58
797.05	0.12
797.223	-0.19
797.396	0.09
797.57	0.08
797.743	0.22
797.916	0.17
798.09	0.1
798.263	0.11
798.436	0.1
798.609	-0.12
798.782	0.09
798.956	0.1
799.129	0.07
799.302	-0.17
799.475	-0.15
799.648	-0.11
799.821	-0.25
799.994	0.03
800.167	-0.18
800.34	-0.35
800.514	0.02
800.687	-0.16
800.86	-0.12
801.033	-0.05
801.206	0.24
801.379	-0.24
801.551	0.21
801.724	0.16
801.897	0.28
802.07	0.13
802.243	-0.3
802.416	-0.11
802.589	-0.23
802.762	0.03
802.935	0.09
803.107	0.31
803.28	0.13
803.453	0.14
803.626	-0.13
803.798	0.15
803.971	-0.35
804.144	0.17
804.317	0.19
804.489	0.32
804.662	-0.08
804.835	0.13
805.007	-0.19
805.18	0.22
805.353	0.27
805.525	-0.23
805.698	-0.11
805.87	0.18
806.043	0.36
806.215	-0.27
806.388	0.17
806.56	0.22
806.733	0.26
806.905	-0.05
807.078	-0.33
807.25	-0.17
807.423	0.07
807.595	-0.15
807.768	0.18
807.94	0.21
808.112	0.06
808.285	0.07
808.457	-0.29
808.629	-0.02
808.802	0.15
808.974	0.17
809.146	-0.31
809.318	-0.62
809.491	-0.19
809.663	-0.23
809.835	-0.16
810.007	0.38
810.18	0.1
810.352	-0.51
810.524	0.13
810.696	0.23
810.868	0.29
811.04	-0.33
811.212	-0.13
811.384	0.27
811.556	0.06
811.728	-0.06
811.901	0.54
812.073	-0.21
812.245	0.28
812.417	-0.08
812.589	-0.54
812.76	0.14
812.932	0.24
813.104	0.17
813.276	0.19
813.448	0.16
813.62	-0.17
813.792	0.22
813.964	0.01
814.136	0.32
814.307	-0.2
814.479	-0.26
814.651	-0.05
814.823	0.79
814.995	-0.27
815.166	0.15
815.338	-0.15
815.51	-0.79
815.681	0.81
815.853	0.16
816.025	0.15
816.196	0.22
816.368	0.17
816.54	-0.64
816.711	0.01
816.883	0.55
817.054	0.94
817.226	-0.63
817.398	-0.04
817.569	-0.3
817.741	-0.04
817.912	0.04
818.084	-0.21
818.255	-0.29
818.426	-0.64
818.598	0.11
818.769	-0.28
818.941	0.32
819.112	0.35
819.283	0.06
819.455	0.03
819.626	0.42
819.798	0.32
819.969	0.17
820.14	-0.05
820.311	-0.5
820.483	0.37
820.654	-0.01
820.825	-0
820.996	-0.01
821.168	-0.28
821.339	0.18
821.51	-0.53
821.681	-0.24
821.852	-0.15
822.023	-0.71
822.195	-0.39
822.366	0.29
822.537	-0.13
822.708	-0.31
822.879	-0.33
823.05	0.31
823.221	-0.28
823.392	0.19
823.563	0.07
823.734	-0.04
823.905	0.08
824.076	-0.44
824.247	-0.02
824.418	-0.13
824.589	0.68
824.759	-0.16
824.93	-0.76
825.101	-0.09
825.272	0.55
825.443	0.67
825.614	0.86
825.784	-0.91
825.955	0.61
826.126	0.81
826.297	-0.34
826.467	0.62
826.638	0.65
826.809	-0.62
826.98	-0.42
827.15	0.63
827.321	-0.04
827.492	0.7
827.662	0.36
827.833	0.7
828.003	0.28
828.174	-0.24
828.345	-0.51
828.515	0.3
828.686	0.52
828.856	0.06
829.027	-0.19
829.197	0.32
829.368	0.71
829.538	-0.39
829.709	-0.39
829.879	0.16
830.049	0.18
830.22	-0.67
830.39	0
830.56	0.26
830.731	-0.07
830.901	-0.74
831.072	-0.47
831.242	-0.6
831.412	-0.28
831.582	0.1
831.753	-0.48
831.923	0.59
832.093	0.19
832.263	-0.17
832.434	-0.32
832.604	-0.25
832.774	0.06
832.944	0.07
833.114	0.09
833.284	0.3
833.454	-0.67
833.624	-0.67
833.795	-0.41
833.965	0.8
834.135	0.89
834.305	-1.33
834.475	0.06
834.645	-0.16
834.815	-0.15
834.985	-0.44
835.155	-0.5
835.325	0.71
835.494	0.16
835.664	0.25
835.834	-0.45
836.004	-0.19
836.174	0.37
836.344	-0.07
836.514	-1.45
836.684	-0.58
836.853	0.74
837.023	0.57
837.193	-0.05
837.363	0.27
837.532	0.98
837.702	-0.16
837.872	-0.97
838.041	0.38
838.211	0.97
838.381	-0.17
838.55	-0.13
838.72	0.95
838.89	0.89
839.059	-0.27
839.229	-0.63
839.398	1.22
839.568	-0.43
839.738	-0.07
839.907	1.01
840.077	0.36
840.246	-0.62
840.416	-0.66
840.585	-0.7
840.755	1.06
840.924	1.08
841.093	-0.65
841.263	-0.15
841.432	0.02
841.602	-0.95
841.771	-0.66
841.94	-0.13
842.11	1.13
842.279	1.26
842.448	-0.78
842.617	0.4
842.787	0.54
842.956	-0.48
843.125	-0.48
843.294	0.14
843.464	0.64
843.633	0.54
843.802	-1.08
843.971	0.39
844.14	0.01
844.309	0.32
844.479	-0.36
844.648	-0.48
844.817	-0.14
844.986	0.5
845.155	-1.02
845.324	0.2
845.493	0.45
845.662	-0.25
845.831	-0.03
846	0.47
846.169	-0.02
846.338	1.18
846.507	-0.05
846.676	0.26
846.844	-0.01
847.013	0.51
847.182	-0.37
847.351	-0.91
847.52	-0.16
847.689	0.21
847.858	-0.43
848.026	0.1
848.195	-0.22
848.364	0.01
848.533	-0.27
848.701	-0.72
848.87	0.17
849.039	0.09
849.207	0.6
849.376	1.18
849.545	0.93
849.713	-0.31
849.882	-0.61
850.051	-0.05
850.219	0.1
850.388	0.59
850.556	-1.22
850.725	-0.36
850.893	0.1
851.062	-0.67
851.23	0.6
851.399	-0.47
851.567	0.12
851.736	-0.42
851.904	-0.84
852.073	-0.36
852.241	1.02
852.41	-0.72
852.578	-0.19
852.746	-0.91
852.915	0.58
853.083	-0.27
853.251	-0.77
853.42	-0.5
853.588	0.71
853.756	1.1
853.924	-0.09
854.093	-0.72
854.261	-0.3
854.429	-1.08
854.597	0.58
854.765	-0.79
854.934	-0.19
855.102	1.31
855.27	0.35
855.438	0.79
855.606	1.24
855.774	0.7
855.942	-1.76
856.11	-1.29
856.278	0.62
856.446	1.27
856.614	0.02
856.782	-0.46
856.95	0.71
857.118	0.41
857.286	0.15
857.454	-0.41
857.622	0.85
857.79	0.02
857.958	-0.65
858.126	-1.27
858.294	-2.69
858.462	0.2
858.629	-0.75
858.797	-1.87
858.965	0.18
859.133	0.06
859.301	-1.06
859.468	0.73
859.636	-1.51
859.804	0.56
859.971	0.71
860.139	-0.94
860.307	2.06
860.474	0.89
860.642	-0.24
860.81	-1.08
860.977	-1.17
861.145	1.16
861.313	-0.39
861.48	-0.58
861.648	2.08
861.815	-0.07
861.983	-2.2
862.15	-1.12
862.318	1.47
862.485	0.68
862.653	-0.06
862.82	-1.41
862.988	2
863.155	1.04
863.322	-1.8
863.49	-2.12
863.657	-1.57
863.824	2.38
863.992	0.02
864.159	0.46
864.326	0.82
864.494	-0.81
864.661	0.59
864.828	-0.69
864.996	1.36
865.163	1.43
865.33	-1.19
865.497	-2.87
865.664	-0.48
865.832	-1.48
865.999	0.23
866.166	-1.22
866.333	-0.8
866.5	-1.64
866.667	-0.52
866.834	-1.09
867.001	0.99
867.168	-1.99
867.335	-0.32
867.502	-2.27
867.669	1.33
867.836	2.26
868.003	-0.1
868.17	1.36
868.337	0.96
868.504	2.2
868.671	-0.92
868.838	0.04
869.005	0.39
869.172	0.49
869.339	-1.06
869.505	-0.06
869.672	0.4
869.839	1.52
870.006	-0.18
870.173	-0.97
870.339	-0.32
870.506	2.75
870.673	-0.55
870.84	1.9
871.006	0.8
871.173	0.21
871.34	-0.82
871.506	-1.97
871.673	1.7
871.839	-1.48
872.006	0.68
872.173	-0.85
872.339	-1.2
872.506	1.98
872.672	0.27
872.839	-1.41
873.005	0.96
873.172	3.34
873.338	1.36
873.505	0.26
873.671	0.46
873.838	2.55
874.004	-1.93
874.171	-2.4
874.337	0.01
874.503	-0.2
874.67	-0.22
874.836	-0.56
875.002	3.38
875.169	1.95
875.335	-0.52
875.501	-0.06
875.668	1.79
875.834	0.27
876	0.17
876.166	2.31
876.332	1.43
876.499	2.66
876.665	-0.05
876.831	0.03
876.997	4.86
877.163	-2.44
877.329	-0.76
877.495	-0.29
877.662	1.14
877.828	0.21
877.994	0.32
878.16	-1.93
878.326	-0.82
878.492	-0.51
878.658	-0.25
878.824	0.56
878.99	2.28
879.156	-0.89
879.322	1.61
879.487	0.31
879.653	0.01
879.819	-0.53
879.985	-0.61
880.151	1.71
880.317	-0.42
880.483	-0.98
880.648	1
880.814	-1.73
880.98	1.32
881.146	-0.97
881.312	0.08
881.477	0.12
881.643	-0.37
881.809	3.06
881.974	0.74
882.14	-2.85
882.306	1.44
882.471	1.48
882.637	-0.69
882.803	1.6
882.968	1.56
883.134	3.43
883.299	0.4
883.465	-1.04
883.63	2.54
883.796	0.46
883.961	2.14
884.127	0.81
884.292	-3.39
884.458	-2.45
884.623	-2.44
