Data from Apollo_Calib_20240827__AbsoluteIrradiance__453__06-42-00-530.txt Node

Date: Wed Aug 28 06:42:00 BST 2024
User: biology
Spectrometer: FLMT08252
Trigger mode: 0
Integration Time (sec): 5.000000E-1
Scans to average: 5
Electric dark correction enabled: true
Nonlinearity correction enabled: false
Boxcar width: 0
XAxis mode: Wavelengths
Number of Pixels in Spectrum: 3648
>>>>>Begin Spectral Data<<<<<
179.588	-0
179.809	-0
180.03	-0
180.251	-0
180.473	-0
180.694	0
180.915	0
181.136	-0
181.357	0
181.578	-0
181.799	0
182.02	-0
182.241	-0
182.462	0
182.683	0
182.904	-0
183.125	-0
183.346	0
183.567	0
183.788	-0
184.009	-0
184.23	-0
184.451	0
184.672	-0
184.892	-0
185.113	0
185.334	0
185.555	-0
185.776	-0
185.996	0
186.217	-0
186.438	-0
186.659	-0
186.879	0
187.1	0
187.321	-0
187.541	-0
187.762	0
187.983	-0
188.203	-0
188.424	-0
188.644	-0
188.865	-0
189.086	-0
189.306	-0
189.527	-0
189.747	-0
189.968	-0
190.188	0
190.409	-0
190.629	0
190.849	-0
191.07	-0
191.29	0
191.511	-0
191.731	-0
191.951	-0
192.172	0
192.392	0
192.612	-0
192.833	-0
193.053	0
193.273	0
193.493	-0
193.714	-0
193.934	0
194.154	0
194.374	-0
194.594	0
194.815	0
195.035	-0
195.255	-0
195.475	-0
195.695	0
195.915	0
196.135	-0
196.355	0
196.575	0
196.795	0
197.015	-0
197.235	-0
197.455	-0
197.675	-0
197.895	-0
198.115	-0
198.335	0
198.555	-0
198.775	-0
198.995	0
199.214	0
199.434	0
199.654	-0
199.874	-0
200.094	-1.91
200.313	0.01
200.533	-0.51
200.753	-0.82
200.973	0.07
201.192	0.57
201.412	-1.14
201.632	-0.31
201.851	0.93
202.071	-0.06
202.291	-0.42
202.51	-0.61
202.73	0.33
202.95	-0.44
203.169	-0.52
203.389	0.06
203.608	0.08
203.828	-0.78
204.047	-0.34
204.267	-0
204.486	-0.37
204.706	-0.07
204.925	-0.49
205.145	-0.64
205.364	0.23
205.583	0.4
205.803	-0.4
206.022	-0.4
206.242	0.18
206.461	-0.4
206.68	-0.6
206.9	-0.13
207.119	0.64
207.338	0.43
207.557	-0.53
207.777	-0.22
207.996	-0.28
208.215	0.63
208.434	-0.55
208.654	-0.4
208.873	-0.16
209.092	0.43
209.311	-0.41
209.53	-0.3
209.749	-0.37
209.968	-0.39
210.187	-0.38
210.407	-0.54
210.626	-0.3
210.845	0.3
211.064	-0.04
211.283	-0.26
211.502	0.05
211.721	-0.33
211.94	-0.29
212.159	0.13
212.377	0.25
212.596	0.02
212.815	0.07
213.034	-0.03
213.253	0.25
213.472	0.16
213.691	-0.15
213.91	-0.29
214.128	-0.24
214.347	0.24
214.566	-0.24
214.785	-0.23
215.003	0.06
215.222	-0.08
215.441	-0.23
215.66	-0.23
215.878	-0.13
216.097	0.23
216.316	-0.45
216.534	-0.2
216.753	0.09
216.972	-0.12
217.19	-0.06
217.409	-0.3
217.627	-0.15
217.846	-0.23
218.064	-0.15
218.283	-0.15
218.501	0.4
218.72	0.21
218.938	-0.41
219.157	-0.26
219.375	0.1
219.594	0.02
219.812	-0.18
220.031	-0.45
220.249	0.28
220.467	0.17
220.686	-0.16
220.904	-0.04
221.122	0.03
221.341	0.24
221.559	-0.03
221.777	-0.27
221.995	-0.19
222.214	0.07
222.432	-0.1
222.65	0.08
222.868	0.01
223.086	-0
223.305	0.12
223.523	-0.2
223.741	0.19
223.959	-0.14
224.177	-0.35
224.395	-0.2
224.613	0.05
224.831	0.01
225.049	-0.19
225.267	-0.16
225.485	0.05
225.703	-0.24
225.921	-0.05
226.139	-0.2
226.357	0.08
226.575	-0
226.793	-0.16
227.011	0.4
227.229	0.06
227.447	0.03
227.665	-0.09
227.883	-0.26
228.1	-0.15
228.318	-0.05
228.536	-0.21
228.754	-0.2
228.972	0.1
229.189	0.07
229.407	-0.15
229.625	-0.16
229.843	0.12
230.06	0.07
230.278	-0.17
230.496	-0.16
230.713	0.04
230.931	0.06
231.149	-0.08
231.366	-0.17
231.584	0.04
231.801	0.16
232.019	-0.13
232.236	-0.1
232.454	-0.07
232.671	0.07
232.889	-0.05
233.106	-0.17
233.324	-0.01
233.541	-0.08
233.759	-0.07
233.976	-0.17
234.194	-0.06
234.411	0.07
234.628	-0.18
234.846	-0.1
235.063	-0.07
235.28	-0.09
235.498	0.04
235.715	-0.11
235.932	0.05
236.149	-0
236.367	-0.11
236.584	-0.11
236.801	-0.06
237.018	0.1
237.236	0.01
237.453	-0.14
237.67	0.1
237.887	-0.05
238.104	-0.13
238.321	-0.25
238.538	-0.17
238.755	0.11
238.973	-0.2
239.19	-0.01
239.407	0.05
239.624	0.02
239.841	-0.17
240.058	-0.15
240.275	0.06
240.492	0.03
240.709	-0.11
240.925	-0.07
241.142	0.04
241.359	-0.11
241.576	-0.15
241.793	-0.07
242.01	-0.03
242.227	0.1
242.444	-0
242.66	0.05
242.877	0.05
243.094	-0.08
243.311	-0.02
243.527	-0.06
243.744	0.01
243.961	0.03
244.178	-0.18
244.394	-0.07
244.611	0.1
244.828	0.11
245.044	-0.19
245.261	-0.05
245.477	-0.07
245.694	-0.02
245.911	-0.1
246.127	0.03
246.344	0.16
246.56	-0.02
246.777	-0.04
246.993	-0.03
247.21	-0.01
247.426	-0.01
247.643	-0.13
247.859	-0.16
248.076	-0.08
248.292	0.15
248.508	-0.1
248.725	0.02
248.941	0.13
249.157	-0.01
249.374	-0.09
249.59	-0.08
249.806	-0.03
250.023	0.05
250.239	-0.08
250.455	-0.13
250.671	-0.09
250.888	0.03
251.104	0
251.32	-0.01
251.536	-0.08
251.752	-0.02
251.969	-0
252.185	-0.06
252.401	0.12
252.617	0.09
252.833	-0.05
253.049	-0.06
253.265	-0.04
253.481	-0.03
253.697	-0.01
253.913	-0.08
254.129	0.03
254.345	0.03
254.561	-0.05
254.777	-0.04
254.993	0.08
255.209	-0.02
255.425	-0.06
255.641	-0.09
255.857	0.01
256.073	0.02
256.288	-0.12
256.504	-0.03
256.72	0.02
256.936	0.08
257.152	-0.03
257.367	-0.06
257.583	-0.02
257.799	0.08
258.015	-0.17
258.23	-0.12
258.446	0.12
258.662	-0.07
258.877	-0.05
259.093	-0.08
259.309	0.02
259.524	0
259.74	-0.08
259.955	-0.23
260.171	0
260.387	-0.06
260.602	0.07
260.818	-0.05
261.033	-0.1
261.249	-0.13
261.464	-0.02
261.68	-0.13
261.895	0.07
262.11	0.02
262.326	-0.04
262.541	-0.1
262.757	0.07
262.972	-0.03
263.187	0.04
263.403	-0.08
263.618	0.04
263.833	-0.03
264.049	-0.09
264.264	-0.1
264.479	0.03
264.694	0.14
264.91	-0.15
265.125	-0.01
265.34	0.07
265.555	0.1
265.77	0.04
265.986	-0.06
266.201	0.05
266.416	0.07
266.631	-0.03
266.846	-0.04
267.061	-0
267.276	0.05
267.491	-0.13
267.706	-0
267.921	0.02
268.136	0.02
268.351	0.02
268.566	-0.05
268.781	0.11
268.996	0.12
269.211	-0.03
269.426	-0.13
269.641	-0.07
269.856	0.02
270.071	-0.13
270.285	-0.11
270.5	0.04
270.715	0.05
270.93	-0.05
271.145	-0
271.359	-0.01
271.574	-0.07
271.789	-0.02
272.004	-0.06
272.218	-0.07
272.433	0.01
272.648	-0.12
272.862	0.01
273.077	-0.04
273.292	-0.02
273.506	-0.08
273.721	-0.07
273.936	0.04
274.15	0.01
274.365	0.01
274.579	0.07
274.794	0.03
275.008	0.07
275.223	-0.05
275.437	-0.02
275.652	0.02
275.866	0.03
276.081	-0.06
276.295	0.06
276.509	0.05
276.724	-0.01
276.938	0.02
277.153	0.02
277.367	-0.02
277.581	-0.04
277.796	-0.02
278.01	-0.12
278.224	0.1
278.438	0.1
278.653	-0.1
278.867	0
279.081	-0.19
279.295	-0.04
279.51	-0.01
279.724	-0.14
279.938	-0.02
280.152	0.01
280.366	-0.08
280.58	-0.05
280.794	-0.01
281.008	0.02
281.222	0.03
281.437	0.07
281.651	-0.04
281.865	0.08
282.079	-0.03
282.293	-0.11
282.507	-0.05
282.721	-0.01
282.935	0.02
283.148	-0.11
283.362	-0.06
283.576	-0.1
283.79	-0.02
284.004	-0.08
284.218	0.08
284.432	-0.03
284.646	-0.01
284.859	-0.06
285.073	-0.05
285.287	0
285.501	-0.09
285.714	-0.03
285.928	0
286.142	-0.03
286.356	-0.07
286.569	-0.05
286.783	0.11
286.997	0.03
287.21	0.04
287.424	-0.02
287.637	-0.04
287.851	0
288.065	0.01
288.278	-0.05
288.492	0.01
288.705	-0.04
288.919	0
289.132	-0.05
289.346	0.05
289.559	-0.07
289.773	-0.08
289.986	-0.02
290.2	0
290.413	0.08
290.626	-0.04
290.84	0.05
291.053	-0.01
291.267	0.12
291.48	-0.01
291.693	0.01
291.906	-0.04
292.12	-0.05
292.333	-0.08
292.546	-0.04
292.76	0.05
292.973	-0
293.186	0.03
293.399	-0.09
293.612	0.03
293.826	-0.05
294.039	-0.01
294.252	-0.01
294.465	-0.02
294.678	0.01
294.891	-0.03
295.104	-0.03
295.317	-0.05
295.53	-0.02
295.743	0
295.956	-0.02
296.169	0.07
296.382	0.04
296.595	-0.02
296.808	-0.09
297.021	0.03
297.234	0.04
297.447	0.01
297.66	0.02
297.873	-0.01
298.086	0.02
298.299	-0.06
298.511	-0.03
298.724	-0.03
298.937	-0.02
299.15	-0.05
299.363	-0.02
299.575	0.08
299.788	0.01
300.001	-0.03
300.213	-0.06
300.426	-0.05
300.639	-0.07
300.852	-0.03
301.064	0.02
301.277	0.1
301.489	0.01
301.702	0.05
301.915	-0.01
302.127	-0.03
302.34	0.03
302.552	0.05
302.765	-0.08
302.977	0
303.19	-0.03
303.402	-0.01
303.615	-0.02
303.827	-0.05
304.04	-0.02
304.252	0.04
304.464	-0.06
304.677	0.11
304.889	0.04
305.102	-0.02
305.314	-0.08
305.526	0.05
305.739	0.02
305.951	-0.05
306.163	-0.02
306.375	0.04
306.588	-0.05
306.8	0.01
307.012	-0.06
307.224	0.04
307.436	0.07
307.649	-0.11
307.861	0.01
308.073	0.08
308.285	-0.03
308.497	-0.08
308.709	-0.04
308.921	0.02
309.133	0.04
309.346	0.02
309.558	0.01
309.77	-0.01
309.982	0.03
310.194	0.04
310.406	-0.05
310.617	0.03
310.829	-0
311.041	0.02
311.253	-0.04
311.465	-0.01
311.677	0
311.889	0.03
312.101	-0.06
312.313	0.04
312.524	0.05
312.736	-0.03
312.948	-0.06
313.16	0.07
313.372	-0.04
313.583	0.03
313.795	-0.02
314.007	-0.06
314.218	0.05
314.43	0.01
314.642	-0.07
314.853	-0.13
315.065	0.01
315.277	-0.03
315.488	0
315.7	0.06
315.912	0.04
316.123	0.01
316.335	0.02
316.546	0.12
316.758	-0.06
316.969	-0.01
317.181	-0.02
317.392	0.03
317.604	0.04
317.815	-0.05
318.026	-0.01
318.238	-0.03
318.449	-0.02
318.661	-0.08
318.872	-0.07
319.083	-0.06
319.295	0.03
319.506	-0.05
319.717	0.03
319.929	0.04
320.14	0.02
320.351	0.03
320.562	-0.06
320.774	-0.01
320.985	-0.03
321.196	-0.05
321.407	-0.07
321.618	0.05
321.829	0.02
322.041	0.01
322.252	-0.03
322.463	-0.01
322.674	0.03
322.885	-0.08
323.096	-0.07
323.307	-0.02
323.518	0.02
323.729	-0.02
323.94	-0.02
324.151	-0.01
324.362	-0.03
324.573	-0.05
324.784	-0.07
324.995	0.03
325.206	0
325.417	-0.07
325.628	-0.06
325.838	-0.06
326.049	-0.02
326.26	0.02
326.471	-0.02
326.682	0.02
326.892	-0.01
327.103	-0.07
327.314	-0.06
327.525	0.05
327.735	-0.03
327.946	-0.04
328.157	-0.04
328.368	-0.02
328.578	-0.01
328.789	0.03
328.999	-0
329.21	-0.03
329.421	-0.01
329.631	-0.07
329.842	-0.02
330.052	0.02
330.263	0
330.473	0.02
330.684	-0.04
330.894	0
331.105	-0.02
331.315	0.02
331.526	-0.05
331.736	0.08
331.947	0.01
332.157	-0.02
332.367	-0.03
332.578	-0.04
332.788	0.05
332.999	0.03
333.209	-0.01
333.419	-0.02
333.629	0.01
333.84	0.01
334.05	-0.01
334.26	0.02
334.47	0
334.681	0.03
334.891	-0.03
335.101	0.04
335.311	0.07
335.521	0.03
335.732	-0.05
335.942	0.05
336.152	-0.02
336.362	0.01
336.572	0.01
336.782	0.05
336.992	-0.02
337.202	-0.05
337.412	-0.04
337.622	0.02
337.832	0
338.042	-0
338.252	-0.03
338.462	-0.05
338.672	-0.06
338.882	0.01
339.092	-0.01
339.302	0.01
339.511	0
339.721	-0.04
339.931	-0.05
340.141	0.07
340.351	0.01
340.561	0.01
340.77	0.02
340.98	-0.02
341.19	0.05
341.4	-0.03
341.609	-0.03
341.819	-0.06
342.029	-0.06
342.238	-0.03
342.448	-0.04
342.658	0.02
342.867	0
343.077	-0.05
343.286	-0.01
343.496	-0.04
343.706	0.07
343.915	-0.04
344.125	-0.01
344.334	0.01
344.544	-0.07
344.753	-0.06
344.963	-0.01
345.172	-0.03
345.381	0
345.591	-0.05
345.8	-0.02
346.01	0.03
346.219	0.03
346.428	-0.17
346.638	-0
346.847	-0.05
347.056	0.05
347.266	-0.03
347.475	-0.05
347.684	0.05
347.893	0.03
348.103	0.01
348.312	-0.09
348.521	-0.01
348.73	0
348.94	-0.06
349.149	0.01
349.358	-0.03
349.567	-0.02
349.776	-0.05
349.985	-0.04
350.194	0
350.403	0.03
350.612	-0.06
350.821	-0.03
351.03	0
351.239	-0.03
351.448	-0.02
351.657	-0.04
351.866	0.03
352.075	-0.01
352.284	-0.01
352.493	-0.05
352.702	0.03
352.911	0.06
353.12	0.01
353.329	-0.02
353.538	0.01
353.746	0.03
353.955	-0.05
354.164	0.02
354.373	-0
354.582	0.02
354.79	0
354.999	0.01
355.208	-0.01
355.416	0.04
355.625	-0.02
355.834	-0.04
356.042	-0.01
356.251	-0
356.46	-0.03
356.668	0.04
356.877	0.09
357.085	-0
357.294	-0.13
357.503	-0.03
357.711	-0.01
357.92	0.13
358.128	-0.02
358.337	-0.02
358.545	-0.01
358.754	-0.03
358.962	0.03
359.17	-0.02
359.379	0
359.587	0.02
359.796	-0.03
360.004	0.02
360.212	0.02
360.421	0.03
360.629	-0.02
360.837	-0.02
361.046	0.04
361.254	0.08
361.462	-0.03
361.67	-0.06
361.879	-0.01
362.087	0.05
362.295	0
362.503	-0.03
362.711	-0.06
362.92	-0.05
363.128	-0.02
363.336	-0.06
363.544	-0.09
363.752	-0.04
363.96	-0.02
364.168	-0.04
364.376	-0.01
364.584	0.01
364.792	0.04
365	0
365.208	-0.01
365.416	0.01
365.624	-0
365.832	-0.03
366.04	0.05
366.248	0
366.456	0.01
366.664	-0
366.872	-0.01
367.079	-0.02
367.287	0.04
367.495	0.02
367.703	-0
367.911	-0.02
368.118	-0
368.326	0.02
368.534	-0.05
368.742	0.04
368.949	-0.05
369.157	-0
369.365	0.03
369.572	-0.02
369.78	-0.07
369.988	-0.01
370.195	0.02
370.403	0.03
370.61	-0.05
370.818	0.01
371.026	0.04
371.233	-0.04
371.441	-0
371.648	-0.06
371.856	-0.03
372.063	-0.03
372.271	-0.02
372.478	-0.05
372.685	-0.04
372.893	0.04
373.1	-0.01
373.308	-0.05
373.515	0.04
373.722	0
373.93	-0.05
374.137	0.02
374.344	0.07
374.552	-0
374.759	-0.01
374.966	-0.02
375.173	-0.02
375.381	0.07
375.588	-0.03
375.795	-0.1
376.002	-0.01
376.209	-0.05
376.417	-0.03
376.624	-0.02
376.831	0.05
377.038	-0.02
377.245	-0.12
377.452	-0.03
377.659	0.01
377.866	-0.04
378.073	-0.04
378.28	0.03
378.487	0.02
378.694	0.01
378.901	-0.04
379.108	-0.05
379.315	0.02
379.522	0.09
379.729	-0.01
379.936	-0.03
380.143	-0.03
380.35	-0.02
380.557	0
380.763	0
380.97	-0.03
381.177	-0.01
381.384	0
381.591	-0.04
381.797	0.02
382.004	0.04
382.211	-0
382.418	0.02
382.624	0.03
382.831	0.04
383.038	-0.06
383.244	-0.06
383.451	-0.02
383.658	-0.01
383.864	-0.03
384.071	-0.02
384.277	0.07
384.484	-0.05
384.69	0.04
384.897	-0.08
385.103	-0.03
385.31	-0.03
385.516	-0.04
385.723	-0.08
385.929	-0.04
386.136	-0.02
386.342	0.01
386.549	-0.06
386.755	0.01
386.961	-0.02
387.168	-0
387.374	0.03
387.58	-0
387.787	-0.03
387.993	0
388.199	-0.04
388.406	-0.08
388.612	-0.01
388.818	-0.06
389.024	-0.02
389.231	-0.02
389.437	0.05
389.643	-0.02
389.849	-0.04
390.055	0.01
390.261	-0.05
390.467	0.05
390.674	-0.04
390.88	-0.04
391.086	-0.01
391.292	-0.02
391.498	0.01
391.704	0.02
391.91	-0.02
392.116	-0.03
392.322	-0.11
392.528	0.01
392.734	-0
392.94	-0.01
393.146	-0.04
393.352	-0.04
393.557	-0.02
393.763	-0.03
393.969	-0.03
394.175	-0
394.381	-0.01
394.587	-0.05
394.792	-0.02
394.998	0.02
395.204	0.06
395.41	-0.02
395.615	0.02
395.821	0.02
396.027	0.01
396.233	-0.04
396.438	0.01
396.644	0.01
396.85	-0.01
397.055	-0.01
397.261	-0.03
397.466	0.1
397.672	-0.01
397.878	-0.01
398.083	-0.03
398.289	-0.04
398.494	0.04
398.7	-0.05
398.905	-0.1
399.111	0.07
399.316	-0.04
399.522	-0.05
399.727	-0.01
399.932	0
400.138	-0
400.343	0.06
400.549	-0
400.754	0.01
400.959	0.01
401.165	-0.04
401.37	0.02
401.575	0.07
401.78	0
401.986	-0.04
402.191	-0.06
402.396	-0.05
402.601	-0.01
402.807	0.01
403.012	-0.04
403.217	-0.03
403.422	0
403.627	-0.05
403.832	-0.01
404.037	0.01
404.243	-0
404.448	-0.05
404.653	-0.05
404.858	0
405.063	-0.01
405.268	-0.05
405.473	-0.04
405.678	-0.06
405.883	0.1
406.088	0.02
406.293	-0.07
406.498	-0.02
406.703	0.02
406.907	-0.02
407.112	-0.03
407.317	0.01
407.522	0.01
407.727	-0.04
407.932	0.02
408.136	0.02
408.341	-0.02
408.546	-0.02
408.751	0.02
408.956	-0.03
409.16	0.04
409.365	-0.02
409.57	-0.04
409.774	-0
409.979	0.06
410.184	0.01
410.388	-0.08
410.593	0.02
410.798	0.01
411.002	-0.03
411.207	-0
411.411	0.04
411.616	-0.05
411.82	0
412.025	-0.01
412.229	-0.03
412.434	0.07
412.638	0.01
412.843	-0.06
413.047	-0.02
413.252	-0.03
413.456	-0.04
413.66	0.04
413.865	-0.05
414.069	0.03
414.273	-0.07
414.478	0
414.682	-0.05
414.886	-0.1
415.091	-0.08
415.295	-0.07
415.499	-0.03
415.703	-0.02
415.908	0
416.112	-0.08
416.316	0.02
416.52	0
416.724	-0.05
416.929	-0.04
417.133	0.07
417.337	-0.05
417.541	0
417.745	-0.05
417.949	-0.02
418.153	0.01
418.357	-0.09
418.561	0.06
418.765	-0.01
418.969	0.1
419.173	0.03
419.377	-0.08
419.581	0.08
419.785	-0.05
419.989	-0.06
420.193	0.01
420.397	-0.06
420.601	0.08
420.804	0.06
421.008	-0.01
421.212	-0.02
421.416	0.06
421.62	-0.05
421.823	0.01
422.027	0.1
422.231	0.01
422.435	-0.02
422.638	0.02
422.842	-0.04
423.046	-0.05
423.249	0.04
423.453	0.03
423.657	0.02
423.86	-0
424.064	-0.04
424.268	0.06
424.471	-0.05
424.675	0.09
424.878	0.08
425.082	-0.02
425.285	0.02
425.489	-0.02
425.692	-0
425.896	-0.08
426.099	0.06
426.303	-0.09
426.506	-0.07
426.71	-0.02
426.913	-0.01
427.116	0.06
427.32	-0.05
427.523	-0.04
427.726	0.08
427.93	-0.03
428.133	-0.04
428.336	-0.08
428.54	-0.04
428.743	0.02
428.946	0.03
429.149	-0.06
429.353	0.03
429.556	-0.03
429.759	0.01
429.962	-0.05
430.165	-0.02
430.368	-0.04
430.571	-0.01
430.775	0.01
430.978	-0.03
431.181	0.02
431.384	-0.03
431.587	-0
431.79	-0.04
431.993	-0.01
432.196	-0.01
432.399	-0.04
432.602	0.06
432.805	-0.04
433.008	-0.02
433.211	-0.05
433.414	-0.01
433.616	-0
433.819	-0.01
434.022	-0.09
434.225	0.06
434.428	0.01
434.631	0.07
434.833	0.01
435.036	-0.03
435.239	0.03
435.442	0.01
435.645	-0.05
435.847	0
436.05	0.01
436.253	-0.02
436.455	-0.08
436.658	0.01
436.861	0.06
437.063	-0.03
437.266	-0.02
437.468	0.02
437.671	0.08
437.874	0
438.076	-0.07
438.279	-0.11
438.481	-0.05
438.684	-0.04
438.886	0.02
439.089	-0.08
439.291	0.04
439.494	0.03
439.696	-0.06
439.899	-0.02
440.101	-0.02
440.303	-0.09
440.506	0.01
440.708	-0.05
440.91	-0.01
441.113	-0.08
441.315	0.01
441.517	-0.07
441.72	0.02
441.922	-0.02
442.124	-0.08
442.326	-0.01
442.529	0.03
442.731	-0.05
442.933	0.03
443.135	-0.06
443.337	-0.07
443.539	-0.04
443.742	-0.05
443.944	0.01
444.146	-0.05
444.348	-0.04
444.55	-0.04
444.752	-0.04
444.954	-0.05
445.156	-0.01
445.358	-0.07
445.56	0.05
445.762	-0.09
445.964	-0.04
446.166	-0.02
446.368	-0.04
446.57	0.05
446.772	-0.01
446.974	-0.07
447.175	-0.03
447.377	-0.03
447.579	-0.05
447.781	-0.07
447.983	0.06
448.184	-0.02
448.386	-0.03
448.588	-0.08
448.79	0.02
448.991	-0.04
449.193	-0.01
449.395	-0.04
449.597	0.02
449.798	-0.01
450	0.02
450.202	-0.02
450.403	-0.01
450.605	0.02
450.806	-0.02
451.008	-0.11
451.21	-0.01
451.411	0.01
451.613	-0.04
451.814	-0.02
452.016	-0.01
452.217	-0.02
452.419	0
452.62	-0.02
452.821	0.02
453.023	0.04
453.224	0.03
453.426	-0.05
453.627	-0.02
453.828	0.03
454.03	-0
454.231	-0.04
454.432	-0.05
454.634	0.06
454.835	-0.07
455.036	-0.07
455.238	-0.01
455.439	0.03
455.64	-0.05
455.841	-0.07
456.042	0.07
456.244	0.01
456.445	-0.07
456.646	-0.09
456.847	-0.04
457.048	0.03
457.249	0.05
457.45	0.18
457.651	-0.06
457.852	0.04
458.054	0.01
458.255	-0.07
458.456	0.02
458.657	0.01
458.858	-0.06
459.058	-0.04
459.259	0.02
459.46	-0.02
459.661	-0.06
459.862	0.07
460.063	-0.05
460.264	0.04
460.465	-0.05
460.666	0.07
460.866	-0.03
461.067	0.04
461.268	-0.05
461.469	-0.01
461.67	0
461.87	-0
462.071	-0.06
462.272	-0.07
462.473	-0
462.673	0.02
462.874	-0.05
463.075	-0.03
463.275	-0.06
463.476	-0.01
463.676	-0.01
463.877	0
464.078	-0.02
464.278	0.07
464.479	-0.04
464.679	-0.07
464.88	-0.03
465.08	0.05
465.281	-0.05
465.481	-0.03
465.682	0.01
465.882	0.01
466.083	-0.02
466.283	0
466.483	-0.01
466.684	-0.02
466.884	-0.03
467.085	-0.06
467.285	0.01
467.485	-0.09
467.686	-0.03
467.886	-0.06
468.086	0.01
468.286	-0.04
468.487	0
468.687	-0.03
468.887	0
469.087	0
469.287	0.02
469.488	-0.1
469.688	-0.02
469.888	0.01
470.088	0.05
470.288	0.04
470.488	0.04
470.688	-0.05
470.888	-0.03
471.088	-0.04
471.288	0.01
471.488	-0.02
471.688	-0
471.888	-0.03
472.088	0.01
472.288	-0
472.488	-0.06
472.688	-0.04
472.888	0.01
473.088	0.01
473.288	0.04
473.488	-0.03
473.688	0.08
473.887	-0.04
474.087	-0.03
474.287	-0.02
474.487	-0.03
474.687	0.02
474.886	-0.03
475.086	0
475.286	-0.01
475.486	-0.01
475.685	-0.05
475.885	-0.03
476.085	-0.02
476.284	0.01
476.484	-0.06
476.684	0.01
476.883	0.03
477.083	0.02
477.282	-0.04
477.482	0.06
477.681	0.03
477.881	0.01
478.08	-0.04
478.28	-0.05
478.479	0.04
478.679	0.05
478.878	-0.04
479.078	-0.03
479.277	-0.02
479.477	-0.04
479.676	0.04
479.875	-0.02
480.075	-0.06
480.274	0.01
480.473	-0.01
480.673	-0.04
480.872	0.01
481.071	0.01
481.271	-0
481.47	-0.03
481.669	-0
481.868	-0.05
482.067	-0.03
482.267	-0.03
482.466	-0.04
482.665	-0.02
482.864	-0.06
483.063	-0.01
483.262	-0.01
483.461	0.02
483.661	0.02
483.86	-0.01
484.059	-0.01
484.258	-0
484.457	-0.03
484.656	0.02
484.855	0.05
485.054	-0.04
485.253	-0.04
485.452	-0.02
485.651	-0.01
485.849	-0.02
486.048	-0.01
486.247	-0.04
486.446	-0.01
486.645	-0.04
486.844	-0.04
487.043	-0
487.241	0.03
487.44	-0.04
487.639	-0.01
487.838	0.01
488.037	0.03
488.235	0.06
488.434	0
488.633	-0.02
488.831	-0
489.03	0.01
489.229	-0.01
489.427	-0.03
489.626	0.04
489.825	0.06
490.023	-0.01
490.222	-0.03
490.42	-0.01
490.619	0.02
490.817	0.01
491.016	-0.02
491.214	0.01
491.413	0.03
491.611	-0.01
491.81	-0.01
492.008	-0.01
492.207	0.02
492.405	-0
492.604	-0.02
492.802	-0.03
493	0.01
493.199	-0.04
493.397	-0.02
493.595	-0
493.794	-0.02
493.992	0.03
494.19	0
494.388	0
494.587	-0
494.785	-0.02
494.983	-0.04
495.181	-0
495.379	-0.02
495.578	-0.03
495.776	0.01
495.974	-0.01
496.172	-0
496.37	-0.03
496.568	-0.03
496.766	-0.04
496.964	0.03
497.162	0
497.36	-0.05
497.558	-0.01
497.756	0.02
497.954	-0.01
498.152	-0.04
498.35	-0.02
498.548	-0.02
498.746	0.01
498.944	-0.04
499.142	-0.01
499.34	-0.06
499.538	0
499.736	-0.03
499.933	0.05
500.131	0.04
500.329	-0
500.527	0
500.725	0.02
500.922	-0
501.12	0
501.318	-0
501.516	-0.06
501.713	-0.01
501.911	-0.02
502.109	-0.02
502.306	-0.01
502.504	-0.02
502.701	-0.02
502.899	-0.01
503.097	0.02
503.294	0.03
503.492	-0.02
503.689	-0.01
503.887	-0.02
504.084	0.04
504.282	-0.01
504.479	-0.03
504.677	-0.01
504.874	-0.06
505.072	-0.01
505.269	-0.03
505.466	0
505.664	0.01
505.861	-0.06
506.059	-0.03
506.256	0.02
506.453	-0.03
506.651	0.03
506.848	0.01
507.045	-0.01
507.242	-0.01
507.44	-0.01
507.637	-0
507.834	-0.01
508.031	0.01
508.229	-0.04
508.426	-0.01
508.623	0.02
508.82	-0.02
509.017	-0.03
509.214	-0.02
509.411	-0
509.608	-0.01
509.805	-0.02
510.003	-0.02
510.2	0
510.397	0.01
510.594	-0.01
510.791	-0.02
510.988	-0
511.184	0.02
511.381	-0
511.578	-0.03
511.775	0.02
511.972	-0.04
512.169	-0.01
512.366	-0.01
512.563	0.01
512.76	-0.03
512.956	0
513.153	-0.03
513.35	0.01
513.547	-0.02
513.744	-0.03
513.94	-0.03
514.137	-0.01
514.334	-0.01
514.53	0
514.727	-0.02
514.924	0.01
515.12	-0.02
515.317	-0.05
515.514	-0.01
515.71	-0.04
515.907	-0.01
516.103	-0.01
516.3	0.01
516.497	0.01
516.693	0.01
516.89	-0.01
517.086	-0.01
517.283	0.06
517.479	0
517.676	-0.01
517.872	0.01
518.068	-0.03
518.265	-0.03
518.461	-0.03
518.658	-0.02
518.854	-0.01
519.05	-0.01
519.247	-0.02
519.443	0.02
519.639	-0.01
519.836	-0.02
520.032	-0.01
520.228	0.01
520.424	0.03
520.621	0
520.817	-0.01
521.013	0.02
521.209	0.02
521.405	0.03
521.601	0.01
521.798	-0
521.994	0.03
522.19	-0.02
522.386	-0.02
522.582	-0.01
522.778	-0.01
522.974	-0.02
523.17	-0.01
523.366	-0.02
523.562	0.04
523.758	-0.03
523.954	-0.03
524.15	-0.02
524.346	0
524.542	-0.02
524.738	-0.02
524.934	-0.04
525.129	-0.02
525.325	0.01
525.521	-0.01
525.717	0.01
525.913	-0.02
526.109	-0.01
526.304	-0.01
526.5	-0.02
526.696	0.01
526.892	-0
527.087	-0
527.283	-0.03
527.479	-0.02
527.674	-0.01
527.87	-0
528.066	-0.03
528.261	0.02
528.457	0.01
528.653	-0.02
528.848	-0.01
529.044	0
529.239	-0
529.435	0.02
529.63	0.01
529.826	0.04
530.021	0.02
530.217	0
530.412	-0.03
530.608	-0.03
530.803	-0.01
530.999	-0.02
531.194	-0.03
531.389	-0.01
531.585	-0.06
531.78	-0.03
531.975	0.01
532.171	0
532.366	-0.03
532.561	-0.03
532.757	-0.03
532.952	-0.01
533.147	0.03
533.342	-0
533.538	0.01
533.733	0.02
533.928	-0.01
534.123	-0.01
534.318	-0.03
534.513	-0.02
534.709	-0
534.904	-0.02
535.099	-0.02
535.294	0
535.489	0.01
535.684	-0.04
535.879	-0.04
536.074	0
536.269	-0.01
536.464	0.01
536.659	-0.02
536.854	-0.03
537.049	-0
537.244	-0.01
537.439	-0.03
537.634	0.01
537.828	-0.01
538.023	-0.03
538.218	-0.03
538.413	-0.02
538.608	-0.04
538.803	0
538.997	-0.04
539.192	0.03
539.387	-0.02
539.582	0
539.776	-0
539.971	-0.04
540.166	-0
540.36	-0.04
540.555	-0.01
540.75	-0.02
540.944	-0.01
541.139	-0.04
541.334	-0.03
541.528	-0.01
541.723	0.01
541.917	-0.02
542.112	-0.06
542.306	-0.01
542.501	-0
542.695	-0.02
542.89	-0.02
543.084	-0.01
543.279	-0.02
543.473	-0.02
543.668	0
543.862	-0.01
544.056	0.03
544.251	-0.01
544.445	0.02
544.64	-0.03
544.834	-0.03
545.028	-0.01
545.222	0
545.417	0.02
545.611	0.02
545.805	-0.03
546	-0.02
546.194	-0
546.388	-0.01
546.582	-0.01
546.776	-0
546.97	-0.01
547.165	-0
547.359	0.01
547.553	-0.02
547.747	0.01
547.941	-0.01
548.135	-0
548.329	-0
548.523	0.02
548.717	-0.02
548.911	-0.01
549.105	-0.01
549.299	0.03
549.493	0.01
549.687	0.01
549.881	0.02
550.075	-0.01
550.269	-0.05
550.463	0.01
550.657	-0.02
550.85	-0.03
551.044	-0.02
551.238	-0
551.432	-0.02
551.626	-0.04
551.82	-0.01
552.013	-0.03
552.207	0.01
552.401	0.02
552.594	-0.01
552.788	-0.05
552.982	-0
553.176	-0.03
553.369	-0
553.563	0.01
553.756	-0.05
553.95	-0.02
554.144	-0.02
554.337	0.04
554.531	0
554.724	-0.02
554.918	-0.02
555.111	0.01
555.305	-0.01
555.498	0.05
555.692	0.02
555.885	-0.03
556.079	-0
556.272	-0.02
556.466	0.01
556.659	-0.02
556.852	-0.01
557.046	-0.01
557.239	0.02
557.432	-0.03
557.626	-0.03
557.819	0
558.012	0.02
558.206	0.01
558.399	0.01
558.592	0
558.785	-0.01
558.979	0.01
559.172	-0.02
559.365	-0.01
559.558	-0.01
559.751	-0.02
559.944	-0.01
560.138	-0
560.331	-0.02
560.524	-0.03
560.717	-0.01
560.91	-0
561.103	0.01
561.296	-0.01
561.489	0
561.682	-0
561.875	0.01
562.068	-0
562.261	-0.02
562.454	0.03
562.647	0.01
562.84	-0.02
563.032	-0.02
563.225	-0.01
563.418	-0.03
563.611	0.01
563.804	-0.01
563.997	-0.03
564.19	-0.04
564.382	-0.02
564.575	-0
564.768	-0.01
564.961	-0
565.153	-0.02
565.346	0.02
565.539	-0
565.731	0
565.924	0.02
566.117	0.01
566.309	-0
566.502	-0.01
566.695	-0.01
566.887	0.01
567.08	-0.03
567.272	-0.02
567.465	-0.02
567.657	-0.02
567.85	0.01
568.042	0.01
568.235	0.04
568.427	-0
568.62	-0.01
568.812	-0
569.005	0.02
569.197	-0.05
569.389	0
569.582	-0
569.774	0
569.966	-0.02
570.159	-0.01
570.351	0
570.543	-0.02
570.736	-0
570.928	-0.03
571.12	-0.01
571.312	-0.01
571.505	-0.04
571.697	0.01
571.889	-0.04
572.081	-0.01
572.273	-0.02
572.465	0.04
572.658	-0.03
572.85	-0.02
573.042	-0.01
573.234	-0.03
573.426	0.05
573.618	-0.03
573.81	-0.02
574.002	0.02
574.194	0.03
574.386	-0.05
574.578	-0.07
574.77	-0.02
574.962	-0.03
575.154	-0.06
575.346	-0.03
575.538	0
575.729	-0.01
575.921	-0.02
576.113	-0.03
576.305	0.01
576.497	-0.01
576.689	-0
576.88	-0.03
577.072	0.01
577.264	-0
577.456	-0.01
577.647	-0.07
577.839	-0.04
578.031	0.01
578.223	-0.05
578.414	-0.04
578.606	0.02
578.798	-0.02
578.989	-0.02
579.181	-0.03
579.372	-0
579.564	-0.03
579.755	-0.01
579.947	0.01
580.139	0.01
580.33	-0.04
580.522	-0.04
580.713	-0.07
580.905	-0.03
581.096	-0.01
581.287	-0.02
581.479	-0.01
581.67	0.02
581.862	-0.01
582.053	-0.03
582.244	-0.06
582.436	-0.02
582.627	0
582.818	-0.06
583.01	-0.04
583.201	0.01
583.392	0.04
583.583	-0.01
583.775	-0.03
583.966	-0.03
584.157	-0.03
584.348	-0.02
584.54	-0.05
584.731	-0.01
584.922	-0.02
585.113	-0.03
585.304	0.01
585.495	0.02
585.686	0.01
585.877	0.01
586.068	0.02
586.259	-0.01
586.45	-0.01
586.641	-0.04
586.832	-0.05
587.023	0.01
587.214	-0.04
587.405	-0.02
587.596	-0.04
587.787	0.01
587.978	-0
588.169	-0.05
588.36	-0.04
588.551	0.01
588.742	-0.01
588.932	-0.01
589.123	-0.04
589.314	0.02
589.505	-0.02
589.696	-0.01
589.886	-0.03
590.077	-0.06
590.268	-0
590.458	-0.04
590.649	-0.04
590.84	0.03
591.03	-0.04
591.221	-0.05
591.412	-0.05
591.602	0.03
591.793	0.02
591.984	-0.05
592.174	-0.01
592.365	0.04
592.555	-0.02
592.746	0.02
592.936	-0.01
593.127	0.01
593.317	0.01
593.508	-0.04
593.698	-0.02
593.889	-0.01
594.079	-0.03
594.269	-0.04
594.46	-0.01
594.65	0.01
594.84	0.01
595.031	-0.04
595.221	-0.01
595.411	-0.05
595.602	0.05
595.792	-0.02
595.982	-0.04
596.172	0.03
596.363	-0
596.553	-0.02
596.743	-0.02
596.933	-0
597.123	0.01
597.314	-0.04
597.504	-0.02
597.694	0.02
597.884	-0.02
598.074	-0.03
598.264	-0.03
598.454	-0
598.644	-0.04
598.834	-0.02
599.024	-0.06
599.214	-0.02
599.404	0.02
599.594	-0.03
599.784	-0.03
599.974	0.02
600.164	0.02
600.354	-0.04
600.544	-0.05
600.734	-0.02
600.924	0.01
601.114	-0.03
601.303	-0.03
601.493	-0.02
601.683	-0.01
601.873	-0
602.063	-0.06
602.252	0.01
602.442	-0.06
602.632	-0.06
602.821	-0.04
603.011	0.01
603.201	-0.04
603.39	-0.02
603.58	-0.03
603.77	0.02
603.959	0.01
604.149	-0
604.339	-0
604.528	0.03
604.718	0.01
604.907	-0.04
605.097	-0.02
605.286	-0.02
605.476	0.01
605.665	0.02
605.855	-0.02
606.044	0.04
606.234	-0.01
606.423	-0.03
606.612	-0.02
606.802	0
606.991	0
607.181	-0.02
607.37	-0.08
607.559	-0.02
607.749	-0.05
607.938	-0.02
608.127	-0.04
608.316	-0.02
608.506	0.03
608.695	-0.01
608.884	-0.02
609.073	-0.01
609.263	0.02
609.452	0
609.641	-0.02
609.83	-0.03
610.019	-0
610.208	-0.03
610.397	-0.01
610.586	0
610.775	-0.02
610.965	-0.03
611.154	-0.04
611.343	0.01
611.532	-0
611.721	-0.07
611.91	-0.02
612.099	0
612.287	-0.02
612.476	-0.06
612.665	-0.01
612.854	-0.05
613.043	0.03
613.232	-0.01
613.421	-0.07
613.61	0.02
613.798	-0.07
613.987	0.01
614.176	-0
614.365	0.04
614.554	0.03
614.742	0.01
614.931	-0.01
615.12	0.01
615.309	-0.01
615.497	0
615.686	-0.05
615.875	-0.02
616.063	-0.03
616.252	-0.05
616.44	-0
616.629	-0.03
616.818	0.04
617.006	-0.02
617.195	-0.02
617.383	-0.01
617.572	-0.02
617.76	-0.03
617.949	-0.02
618.137	-0.01
618.326	0.01
618.514	-0.07
618.703	-0.05
618.891	0.07
619.079	-0.06
619.268	-0.01
619.456	-0.05
619.644	0.03
619.833	-0.03
620.021	-0.06
620.209	-0.09
620.398	-0.01
620.586	-0.03
620.774	0.03
620.962	-0.02
621.151	0.05
621.339	-0.03
621.527	-0.04
621.715	-0.06
621.903	-0.05
622.092	-0.05
622.28	0
622.468	-0.02
622.656	-0.03
622.844	0
623.032	-0.02
623.22	-0.08
623.408	0.04
623.596	-0.02
623.784	0.01
623.972	-0.04
624.16	-0.05
624.348	0.07
624.536	-0.03
624.724	-0.02
624.912	0.05
625.1	0.04
625.288	-0.04
625.476	-0.04
625.664	-0.01
625.851	-0.05
626.039	0.01
626.227	-0.01
626.415	-0.02
626.603	-0.07
626.79	0.01
626.978	-0.04
627.166	0.02
627.354	-0
627.541	-0.02
627.729	-0.07
627.917	0.02
628.104	0.02
628.292	-0.02
628.48	-0
628.667	-0.01
628.855	-0
629.042	-0.03
629.23	-0.03
629.418	-0.02
629.605	-0.02
629.793	-0.04
629.98	-0.03
630.168	-0.03
630.355	-0.01
630.543	-0
630.73	-0.05
630.917	0.03
631.105	0.05
631.292	-0.03
631.48	-0.04
631.667	0.03
631.854	-0.01
632.042	0.01
632.229	-0.08
632.416	-0.01
632.604	-0.02
632.791	-0.05
632.978	0.01
633.165	-0.01
633.353	0.06
633.54	0.01
633.727	-0.08
633.914	-0.04
634.101	-0.08
634.289	0.01
634.476	-0.04
634.663	-0.02
634.85	-0.01
635.037	-0.05
635.224	-0.07
635.411	0
635.598	0.03
635.785	-0.03
635.972	-0.02
636.159	-0.01
636.346	-0.06
636.533	0
636.72	-0.03
636.907	-0.04
637.094	0.01
637.281	-0.03
637.468	-0.01
637.655	-0.03
637.842	0.01
638.029	-0.04
638.215	0.03
638.402	-0.05
638.589	-0.04
638.776	-0.01
638.963	-0.04
639.149	0.02
639.336	0.06
639.523	-0.03
639.709	-0.01
639.896	-0.03
640.083	0.03
640.27	0.01
640.456	-0.03
640.643	-0.02
640.829	-0.05
641.016	-0.02
641.203	-0.04
641.389	0.01
641.576	-0
641.762	-0.02
641.949	-0.04
642.135	0.01
642.322	0.01
642.508	-0.07
642.695	-0.01
642.881	-0.02
643.068	-0.03
643.254	-0.02
643.441	0.04
643.627	-0.04
643.813	-0.01
644	0.03
644.186	-0.04
644.372	0.01
644.559	0
644.745	-0.01
644.931	-0.05
645.118	-0.02
645.304	-0.01
645.49	-0.01
645.676	-0.04
645.862	-0
646.049	0.04
646.235	-0.01
646.421	0.05
646.607	0.04
646.793	-0.05
646.979	-0.05
647.165	-0.01
647.352	-0.02
647.538	0.04
647.724	-0.04
647.91	-0.01
648.096	0.01
648.282	0.04
648.468	-0.06
648.654	-0.01
648.84	-0
649.026	0.02
649.212	-0.02
649.397	-0.06
649.583	-0.05
649.769	0.01
649.955	-0.05
650.141	0
650.327	0.05
650.513	-0.03
650.698	0.03
650.884	-0.08
651.07	0
651.256	-0
651.442	-0.02
651.627	-0.01
651.813	-0
651.999	0.02
652.184	0.01
652.37	-0.02
652.556	-0.02
652.741	0.01
652.927	-0.09
653.113	-0.03
653.298	-0.03
653.484	-0.04
653.669	-0.04
653.855	-0.03
654.04	-0
654.226	0
654.412	0
654.597	-0.06
654.782	0
654.968	0.02
655.153	-0.02
655.339	-0.03
655.524	-0.07
655.71	-0
655.895	-0.02
656.08	-0.04
656.266	0.03
656.451	0.01
656.636	-0.05
656.822	0.02
657.007	-0.07
657.192	-0.05
657.378	-0.08
657.563	-0.01
657.748	0.01
657.933	0.01
658.118	-0.03
658.304	-0.03
658.489	-0.02
658.674	0
658.859	-0.03
659.044	-0.01
659.229	0.02
659.414	-0.03
659.599	-0.03
659.785	-0.06
659.97	-0.03
660.155	-0.01
660.34	0.02
660.525	-0.04
660.71	-0.03
660.895	0.03
661.08	-0.03
661.264	-0.01
661.449	0.05
661.634	0.03
661.819	0.01
662.004	0.01
662.189	-0.07
662.374	-0.06
662.559	-0.06
662.743	-0.05
662.928	-0.03
663.113	-0.01
663.298	-0.11
663.483	-0.03
663.667	0
663.852	-0.05
664.037	0.03
664.221	-0.05
664.406	0.02
664.591	0.02
664.775	-0.03
664.96	-0.02
665.145	-0.03
665.329	0.03
665.514	-0
665.698	-0.02
665.883	-0.06
666.068	0.03
666.252	0
666.437	-0.08
666.621	0.01
666.806	0.03
666.99	-0.04
667.174	-0.06
667.359	0.02
667.543	-0.02
667.728	-0
667.912	-0.06
668.096	-0.03
668.281	-0.06
668.465	-0.02
668.649	-0.02
668.834	-0.04
669.018	-0.04
669.202	0
669.387	-0.05
669.571	0.01
669.755	-0.06
669.939	0
670.124	0.01
670.308	0.01
670.492	0
670.676	-0.01
670.86	-0.02
671.044	-0.06
671.228	0.03
671.413	-0.03
671.597	-0.03
671.781	-0.07
671.965	-0.02
672.149	-0.05
672.333	-0.03
672.517	-0.05
672.701	0
672.885	0.01
673.069	-0.08
673.253	0
673.437	0.01
673.621	-0.02
673.804	-0.04
673.988	-0.03
674.172	-0.05
674.356	-0.07
674.54	-0.01
674.724	0.1
674.908	-0.02
675.091	0.04
675.275	-0.05
675.459	0.02
675.643	0.03
675.826	0
676.01	-0.04
676.194	-0.02
676.377	0.03
676.561	-0.01
676.745	0.01
676.928	-0.02
677.112	0.02
677.296	-0.01
677.479	-0.05
677.663	-0.06
677.846	0
678.03	-0.03
678.213	-0.02
678.397	-0.03
678.58	-0.04
678.764	-0.01
678.947	-0.05
679.131	-0.03
679.314	0.05
679.498	-0
679.681	-0.02
679.865	0.01
680.048	-0.01
680.231	-0.02
680.415	-0.05
680.598	-0.03
680.781	-0.04
680.965	-0.05
681.148	-0.01
681.331	-0.05
681.514	0
681.698	-0.06
681.881	-0.01
682.064	-0.02
682.247	-0.05
682.43	-0.06
682.614	0.01
682.797	-0
682.98	0
683.163	-0.05
683.346	0.02
683.529	-0.04
683.712	-0.03
683.895	0.01
684.078	-0.04
684.261	-0.05
684.444	-0
684.627	-0.02
684.81	-0.01
684.993	-0.04
685.176	-0.04
685.359	-0.05
685.542	-0.05
685.725	0.04
685.908	0.02
686.091	-0.03
686.274	0.03
686.457	-0
686.639	-0.03
686.822	-0.01
687.005	0.01
687.188	-0.02
687.371	0.07
687.553	-0.02
687.736	-0.02
687.919	0.02
688.102	0.02
688.284	-0.04
688.467	-0.01
688.65	-0.02
688.832	-0.05
689.015	-0.02
689.197	-0.11
689.38	0.11
689.563	0.04
689.745	-0.05
689.928	-0.02
690.11	-0.02
690.293	-0.03
690.475	-0.05
690.658	-0.03
690.84	-0.05
691.023	-0.01
691.205	-0.05
691.388	-0.05
691.57	-0
691.752	0
691.935	-0.11
692.117	-0.05
692.3	-0.02
692.482	0.03
692.664	-0.02
692.847	0.01
693.029	0.04
693.211	0.02
693.393	-0.06
693.576	-0.03
693.758	-0.04
693.94	-0.11
694.122	-0.11
694.304	-0.01
694.487	-0.05
694.669	0.05
694.851	-0.09
695.033	-0.01
695.215	-0.04
695.397	-0.06
695.579	0.06
695.761	-0.04
695.943	-0.07
696.125	0.06
696.308	0.01
696.49	-0.1
696.671	0.06
696.853	-0
697.035	0.09
697.217	-0.06
697.399	-0
697.581	0
697.763	-0.03
697.945	-0.1
698.127	-0.02
698.309	0
698.491	0.01
698.672	-0.01
698.854	0.02
699.036	-0
699.218	-0.02
699.399	0.02
699.581	0.07
699.763	0.02
699.945	-0.09
700.126	-0.03
700.308	-0.02
700.49	-0.06
700.671	-0.1
700.853	0
701.035	-0.03
701.216	-0
701.398	-0.08
701.579	-0.03
701.761	0.05
701.943	-0.1
702.124	-0.05
702.306	-0
702.487	0.11
702.669	0.01
702.85	-0.06
703.031	-0.09
703.213	0.09
703.394	0.04
703.576	-0.01
703.757	0.01
703.938	0.03
704.12	0.12
704.301	0
704.483	-0.07
704.664	0.04
704.845	0.07
705.026	0.05
705.208	-0.03
705.389	-0.03
705.57	0.01
705.751	-0.07
705.933	-0
706.114	0.04
706.295	-0.07
706.476	-0.09
706.657	0.04
706.838	-0.03
707.02	0.02
707.201	-0.02
707.382	-0.06
707.563	0.01
707.744	-0.01
707.925	-0.11
708.106	-0.1
708.287	-0.01
708.468	0.06
708.649	-0.04
708.83	-0.04
709.011	-0.03
709.192	-0.01
709.373	-0.09
709.554	-0.04
709.734	0.03
709.915	0.09
710.096	-0.02
710.277	-0.14
710.458	-0.02
710.639	-0.01
710.819	-0.08
711	-0.06
711.181	0.02
711.362	0.01
711.542	0.03
711.723	-0.05
711.904	0
712.085	0.02
712.265	-0.02
712.446	-0.06
712.627	-0.07
712.807	0
712.988	-0.08
713.168	-0.12
713.349	0.07
713.53	-0.12
713.71	-0.12
713.891	-0.12
714.071	0.01
714.252	-0.02
714.432	-0.08
714.613	-0.12
714.793	-0.05
714.974	0.1
715.154	0.04
715.334	0.01
715.515	0.05
715.695	-0.02
715.876	-0.03
716.056	-0.06
716.236	-0.13
716.417	-0.04
716.597	-0.03
716.777	0.11
716.957	-0.03
717.138	-0.04
717.318	0
717.498	-0.13
717.678	-0
717.859	-0.02
718.039	-0.09
718.219	0.02
718.399	0.06
718.579	-0.12
718.759	-0.1
718.939	-0.01
719.12	-0.04
719.3	0.04
719.48	-0.16
719.66	-0.12
719.84	0.08
720.02	-0.04
720.2	-0.05
720.38	-0.02
720.56	0.04
720.74	-0.06
720.92	0.02
721.1	0.06
721.279	0.02
721.459	0.04
721.639	-0.1
721.819	0
721.999	-0.14
722.179	0.01
722.359	-0
722.538	0.02
722.718	-0.01
722.898	-0.1
723.078	-0.07
723.257	-0.05
723.437	-0.02
723.617	0.01
723.797	-0.08
723.976	-0.02
724.156	-0.03
724.336	0.04
724.515	0.15
724.695	-0.15
724.874	0.02
725.054	0.03
725.234	-0
725.413	0.07
725.593	-0.05
725.772	0.02
725.952	-0.07
726.131	-0.04
726.311	-0.05
726.49	-0.06
726.67	-0.09
726.849	-0.08
727.028	0.01
727.208	-0.09
727.387	0.01
727.567	-0.1
727.746	-0.13
727.925	-0.03
728.105	-0.03
728.284	-0.08
728.463	-0.19
728.643	0.01
728.822	-0.15
729.001	-0.02
729.18	-0
729.359	0.04
729.539	-0.14
729.718	-0.06
729.897	0.01
730.076	-0.06
730.255	-0.11
730.434	-0.02
730.614	0.06
730.793	0.04
730.972	-0.12
731.151	-0.01
731.33	0.03
731.509	0.05
731.688	-0.01
731.867	0.01
732.046	-0.18
732.225	0.16
732.404	-0.16
732.583	-0.12
732.762	0.01
732.941	0.07
733.12	-0.04
733.298	-0.15
733.477	0.12
733.656	0.02
733.835	-0.15
734.014	0.11
734.193	-0.06
734.371	-0
734.55	-0.03
734.729	-0.1
734.908	-0
735.086	-0.02
735.265	0.01
735.444	-0.21
735.623	-0.05
735.801	-0.18
735.98	-0.03
736.159	-0.13
736.337	0.02
736.516	-0.04
736.694	-0.11
736.873	-0.13
737.052	0.14
737.23	0.07
737.409	-0.1
737.587	0.1
737.766	-0.19
737.944	-0.08
738.123	0.04
738.301	0.08
738.479	-0.18
738.658	0.01
738.836	-0.24
739.015	-0.14
739.193	0.05
739.371	-0.05
739.55	-0.03
739.728	-0.21
739.906	0.03
740.085	0.16
740.263	-0.02
740.441	-0.19
740.62	0.17
740.798	0.02
740.976	-0.1
741.154	0.03
741.332	0.18
741.511	-0.04
741.689	-0.05
741.867	0.08
742.045	-0.03
742.223	-0.08
742.401	-0.08
742.579	-0.11
742.757	0.01
742.935	-0.08
743.114	-0.04
743.292	-0.03
743.47	-0.12
743.648	0.01
743.826	0.11
744.004	0.03
744.181	0.02
744.359	-0.1
744.537	-0.15
744.715	-0.07
744.893	-0.03
745.071	-0.01
745.249	-0.02
745.427	-0.08
745.605	0.09
745.782	0.03
745.96	0.07
746.138	-0.01
746.316	0.1
746.493	-0.02
746.671	0.04
746.849	-0.01
747.027	-0.02
747.204	-0.02
747.382	0.05
747.56	-0.16
747.737	-0.05
747.915	-0.09
748.093	-0.06
748.27	-0.09
748.448	-0.14
748.625	-0.1
748.803	-0.05
748.98	-0.05
749.158	-0.01
749.335	0.13
749.513	-0.12
749.69	-0.12
749.868	0.05
750.045	-0.15
750.223	-0.02
750.4	-0.24
750.578	0.16
750.755	-0.11
750.932	-0.17
751.11	0.13
751.287	-0.2
751.464	0.03
751.642	-0.05
751.819	0.07
751.996	-0.06
752.173	-0.09
752.351	-0.13
752.528	-0.04
752.705	-0.04
752.882	-0.11
753.06	0.09
753.237	0.04
753.414	0.16
753.591	0.12
753.768	0.01
753.945	-0.09
754.122	-0.07
754.299	-0.05
754.476	-0.19
754.654	-0.03
754.831	0.09
755.008	-0.14
755.185	-0.07
755.362	-0.08
755.539	0.02
755.716	-0.11
755.892	0
756.069	-0.03
756.246	-0.01
756.423	-0.02
756.6	-0.02
756.777	-0.09
756.954	0.17
757.131	-0.11
757.307	-0.23
757.484	-0.15
757.661	0.02
757.838	0.01
758.015	-0.11
758.191	0.09
758.368	0.07
758.545	0.15
758.721	-0.07
758.898	-0.18
759.075	0.06
759.251	-0.03
759.428	-0.06
759.605	-0.16
759.781	-0.05
759.958	0.11
760.134	0.02
760.311	-0.11
760.488	0.12
760.664	0.14
760.841	0.08
761.017	-0.06
761.194	-0.05
761.37	0.06
761.547	-0.04
761.723	-0.08
761.899	0.18
762.076	-0.07
762.252	-0.1
762.429	-0.15
762.605	0.18
762.781	-0.07
762.958	0.11
763.134	-0.04
763.31	-0.12
763.486	0.1
763.663	-0.23
763.839	0.06
764.015	-0.21
764.191	-0.16
764.368	-0.03
764.544	-0.1
764.72	0.08
764.896	0.05
765.072	0.09
765.248	-0.03
765.425	-0.04
765.601	0.05
765.777	0.09
765.953	-0.24
766.129	-0.04
766.305	-0.12
766.481	0.09
766.657	-0.17
766.833	0.03
767.009	-0.15
767.185	-0.08
767.361	-0.1
767.537	-0.08
767.713	0.09
767.889	-0.15
768.065	0.06
768.24	-0.03
768.416	0.03
768.592	-0.16
768.768	0.09
768.944	-0.04
769.12	-0.09
769.295	-0.08
769.471	-0.08
769.647	0.06
769.823	0.11
769.998	-0.13
770.174	-0.22
770.35	0.24
770.525	0.2
770.701	0.04
770.877	-0.05
771.052	-0.02
771.228	0.04
771.403	-0.01
771.579	0.1
771.755	0.16
771.93	-0.2
772.106	-0.1
772.281	-0.29
772.457	0.02
772.632	-0.02
772.808	-0.12
772.983	-0.06
773.159	-0.24
773.334	0.03
773.509	-0.11
773.685	-0.16
773.86	0.24
774.036	0.2
774.211	-0.04
774.386	-0.08
774.562	0.05
774.737	0.03
774.912	-0.14
775.087	-0.02
775.263	-0.09
775.438	0.02
775.613	-0.02
775.788	-0.15
775.964	0.12
776.139	0.28
776.314	-0.12
776.489	0.03
776.664	-0.01
776.839	-0.15
777.014	0.08
777.19	0.2
777.365	0.11
777.54	0.2
777.715	-0.28
777.89	-0.09
778.065	-0.17
778.24	-0.05
778.415	0.13
778.59	-0.16
778.765	-0.03
778.94	0.03
779.115	-0.13
779.289	-0.14
779.464	-0.08
779.639	-0.04
779.814	-0.35
779.989	-0.19
780.164	0.24
780.339	0.16
780.513	-0.16
780.688	-0.17
780.863	-0.16
781.038	0.08
781.212	-0.26
781.387	-0.04
781.562	0.33
781.737	-0.08
781.911	-0
782.086	-0.1
782.261	-0.06
782.435	0.24
782.61	0.1
782.784	-0.1
782.959	0.33
783.134	-0.34
783.308	-0.09
783.483	-0.13
783.657	0.26
783.832	0.13
784.006	-0.37
784.181	-0.03
784.355	0.31
784.53	-0.21
784.704	-0.24
784.878	0.33
785.053	0.11
785.227	0.12
785.402	0.16
785.576	-0.33
785.75	-0.19
785.925	-0.19
786.099	-0.14
786.273	0.03
786.448	-0.26
786.622	0.06
786.796	0.04
786.97	-0.18
787.145	0.3
787.319	-0.38
787.493	-0.25
787.667	-0.24
787.841	-0.06
788.015	0.32
788.19	-0.18
788.364	-0.05
788.538	0.07
788.712	0.28
788.886	-0.2
789.06	0.15
789.234	-0.05
789.408	-0.22
789.582	-0.04
789.756	-0.02
789.93	-0.37
790.104	-0.22
790.278	-0.1
790.452	-0.27
790.626	0.05
790.8	-0.2
790.973	0.1
791.147	0.32
791.321	0.01
791.495	-0.04
791.669	-0.06
791.843	0.06
792.016	0.15
792.19	0.36
792.364	-0.18
792.538	0.36
792.711	0.21
792.885	-0.1
793.059	-0.27
793.233	-0.52
793.406	0.1
793.58	0
793.754	-0.26
793.927	-0.1
794.101	0.44
794.274	-0.16
794.448	-0.07
794.622	-0.21
794.795	0.17
794.969	-0.01
795.142	0.13
795.316	-0.16
795.489	-0.16
795.663	0.3
795.836	-0.23
796.009	-0.09
796.183	0.18
796.356	-0
796.53	-0.08
796.703	-0.05
796.876	0.59
797.05	-0.36
797.223	-0.07
797.396	-0.09
797.57	0.15
797.743	0.18
797.916	0.09
798.09	-0.04
798.263	0.17
798.436	0.03
798.609	-0.01
798.782	-0.07
798.956	-0.05
799.129	-0.13
799.302	-0.03
799.475	0.09
799.648	-0.22
799.821	-0.21
799.994	0.15
800.167	-0.27
800.34	-0.09
800.514	-0.19
800.687	-0.14
800.86	-0.26
801.033	0.03
801.206	-0.05
801.379	-0.08
801.551	0.32
801.724	0.19
801.897	0.4
802.07	-0.24
802.243	-0.4
802.416	0.05
802.589	-0.36
802.762	-0.11
802.935	0.19
803.107	-0.05
803.28	0.14
803.453	0.32
803.626	-0.29
803.798	0.02
803.971	-0.06
804.144	0.15
804.317	0.06
804.489	0.21
804.662	0.08
804.835	-0.05
805.007	-0.2
805.18	0.59
805.353	0
805.525	-0.39
805.698	-0.47
805.87	0.03
806.043	-0.03
806.215	-0.29
806.388	-0.24
806.56	0.26
806.733	0.38
806.905	-0.12
807.078	-0.2
807.25	-0.26
807.423	0.16
807.595	0.11
807.768	0.15
807.94	0.23
808.112	0.06
808.285	0.24
808.457	-0.25
808.629	0.06
808.802	-0.06
808.974	0.02
809.146	-0.15
809.318	-0.2
809.491	0.02
809.663	-0.18
809.835	-0.3
810.007	0.39
810.18	-0.27
810.352	-0.7
810.524	0.23
810.696	0.23
810.868	0.17
811.04	-0.01
811.212	-0.26
811.384	0.11
811.556	0.16
811.728	-0.36
811.901	0.83
812.073	-0.35
812.245	0.4
812.417	0.08
812.589	-0.64
812.76	-0.04
812.932	0.21
813.104	0.05
813.276	-0.16
813.448	0.19
813.62	0.08
813.792	-0.24
813.964	-0.02
814.136	-0.02
814.307	-0.29
814.479	-0.46
814.651	-0.26
814.823	0.8
814.995	-0.62
815.166	-0.12
815.338	-0.23
815.51	-0.42
815.681	0.61
815.853	0.05
816.025	-0.06
816.196	0.63
816.368	0.15
816.54	-0.57
816.711	-0.46
816.883	-0.04
817.054	0.66
817.226	-0.73
817.398	-0.07
817.569	-0.28
817.741	-0.01
817.912	0
818.084	-0.01
818.255	-0.23
818.426	0.2
818.598	-0.21
818.769	-0.38
818.941	-0.02
819.112	0.67
819.283	0.56
819.455	-0.39
819.626	0.13
819.798	0.28
819.969	-0.15
820.14	0.05
820.311	-0.25
820.483	0.34
820.654	0.2
820.825	-0.18
820.996	-0.02
821.168	-0.37
821.339	-0.83
821.51	-0.74
821.681	-0.24
821.852	-0.14
822.023	-0.1
822.195	-0.72
822.366	0.52
822.537	0.08
822.708	0.05
822.879	-0.32
823.05	0.46
823.221	-0.34
823.392	0.33
823.563	-0.18
823.734	-0.08
823.905	-0.23
824.076	-0.13
824.247	-0.76
824.418	-0.29
824.589	0.16
824.759	0.27
824.93	-0.03
825.101	-0.82
825.272	-0.06
825.443	0.28
825.614	0.24
825.784	-1.15
825.955	1.08
826.126	0.53
826.297	0.26
826.467	0.71
826.638	0.69
826.809	-0.88
826.98	-0.43
827.15	0.05
827.321	-0.63
827.492	0.42
827.662	-0.16
827.833	0.68
828.003	-0.09
828.174	-0.4
828.345	-0.93
828.515	0.57
828.686	-0.04
828.856	-0.07
829.027	-0.81
829.197	-0.17
829.368	0.46
829.538	-1.02
829.709	-0.51
829.879	0.19
830.049	-0.02
830.22	-0.32
830.39	-0.19
830.56	-0.04
830.731	-0.29
830.901	-0.92
831.072	-0.16
831.242	0.01
831.412	-0.24
831.582	0.28
831.753	-1.12
831.923	-0.06
832.093	0.11
832.263	-0.28
832.434	-0.95
832.604	-0.44
832.774	0.05
832.944	-0.12
833.114	0.3
833.284	0.41
833.454	-0.8
833.624	-0.33
833.795	-0.84
833.965	0.55
834.135	0.44
834.305	-0.53
834.475	-1.46
834.645	0.43
834.815	-0.16
834.985	-0.88
835.155	-0.82
835.325	0.02
835.494	0.56
835.664	-0.4
835.834	-0.88
836.004	-0.2
836.174	0.07
836.344	-0.23
836.514	-1
836.684	-0.2
836.853	0.59
837.023	-0.18
837.193	-0.11
837.363	0.25
837.532	0.51
837.702	0.01
837.872	-0.85
838.041	0.45
838.211	0.82
838.381	-0.27
838.55	-0.71
838.72	1.74
838.89	0.9
839.059	0.03
839.229	-0.27
839.398	0.43
839.568	-0.27
839.738	-0.26
839.907	0.78
840.077	0.23
840.246	-0.71
840.416	-1
840.585	-0.72
840.755	1.02
840.924	1.14
841.093	-1.28
841.263	-0.03
841.432	0.22
841.602	-0.29
841.771	-0.94
841.94	-0.23
842.11	1.78
842.279	1.1
842.448	-0.82
842.617	-1.07
842.787	0.56
842.956	-1.05
843.125	-0.23
843.294	0.23
843.464	1
843.633	0.44
843.802	-1.3
843.971	-0.44
844.14	0.68
844.309	0.07
844.479	-0.42
844.648	-1.53
844.817	-1.18
844.986	0.23
845.155	-0.97
845.324	-0.13
845.493	0.12
845.662	-0.26
845.831	0.63
846	0.08
846.169	0.2
846.338	0.76
846.507	0.18
846.676	-0.13
846.844	-1.08
847.013	0.47
847.182	-0.17
847.351	-0.5
847.52	0.39
847.689	-0.08
847.858	-0.83
848.026	-0.56
848.195	-0.63
848.364	-0.32
848.533	0.17
848.701	-0.51
848.87	0.77
849.039	0.14
849.207	1.09
849.376	1.03
849.545	0.54
849.713	-0.31
849.882	-0.15
850.051	-0.06
850.219	-0.43
850.388	0.93
850.556	-1.25
850.725	-0.93
850.893	-0.27
851.062	0.33
851.23	0.65
851.399	-1.14
851.567	-0.39
851.736	-0.2
851.904	-1.13
852.073	-0.3
852.241	0.46
852.41	-0.63
852.578	0.87
852.746	-0.9
852.915	-1.08
853.083	0.84
853.251	-0.7
853.42	-1.08
853.588	0.73
853.756	1.13
853.924	-1.06
854.093	-0.15
854.261	-0.37
854.429	-1.67
854.597	-0.22
854.765	-1.58
854.934	0.17
855.102	1.55
855.27	-0.77
855.438	-0.18
855.606	0.13
855.774	1.01
855.942	-2.2
856.11	-1.62
856.278	0.06
856.446	0.58
856.614	-0.57
856.782	-1.63
856.95	1.32
857.118	-0.18
857.286	0.34
857.454	-1.11
857.622	0.93
857.79	0.04
857.958	-0.96
858.126	-0.79
858.294	-2.11
858.462	-0.5
858.629	-0.91
858.797	-0.97
858.965	0.56
859.133	0.31
859.301	0.17
859.468	-0.27
859.636	-0.75
859.804	1.88
859.971	0.33
860.139	-0.36
860.307	0.82
860.474	-1.07
860.642	-1.83
860.81	-0.76
860.977	-0.25
861.145	0.16
861.313	-0.61
861.48	-0.3
861.648	0.11
861.815	-0.41
861.983	-2.32
862.15	0.16
862.318	0.08
862.485	1.12
862.653	-0.98
862.82	-1.11
862.988	1.29
863.155	0.06
863.322	-1.83
863.49	-1.68
863.657	-0.99
863.824	2.26
863.992	1.09
864.159	0.71
864.326	1.74
864.494	-1.24
864.661	2.52
864.828	-1.37
864.996	0.67
865.163	0.89
865.33	-1.69
865.497	-1.76
865.664	-1.98
865.832	-3.04
865.999	-0.03
866.166	-1.42
866.333	-1.31
866.5	-1.72
866.667	-0.33
866.834	-1.98
867.001	0.38
867.168	-2.17
867.335	-0.62
867.502	-2.06
867.669	-0.38
867.836	1.97
868.003	-0.04
868.17	-0.15
868.337	2.81
868.504	1.33
868.671	-2.01
868.838	-0.15
869.005	0.61
869.172	-0.81
869.339	0.07
869.505	-1.57
869.672	-0.44
869.839	1.18
870.006	-0.71
870.173	-1.45
870.339	1
870.506	2.13
870.673	-1.25
870.84	0.05
871.006	1.19
871.173	-0.3
871.34	-1.2
871.506	-1.41
871.673	0.08
871.839	-1.81
872.006	-1.63
872.173	-0.06
872.339	0.27
872.506	0.15
872.672	-0.16
872.839	-0.5
873.005	-0.95
873.172	2.47
873.338	1.12
873.505	0.3
873.671	0.24
873.838	1.92
874.004	-3.62
874.171	-2.27
874.337	0.62
874.503	-0.19
874.67	-1.36
874.836	-1.19
875.002	2.37
875.169	0.04
875.335	0.86
875.501	-2.08
875.668	0.69
875.834	0.25
876	-2.1
876.166	1.04
876.332	0.92
876.499	2.66
876.665	-1.97
876.831	-1.8
876.997	2.05
877.163	1.22
877.329	-0.53
877.495	-0.23
877.662	1.1
877.828	0.41
877.994	-2.1
878.16	-1.35
878.326	-0.9
878.492	-0.37
878.658	-0.5
878.824	-1.26
878.99	1.03
879.156	-2.36
879.322	2.5
879.487	-1.94
879.653	-0.78
879.819	0.15
879.985	-2.26
880.151	0.08
880.317	0.04
880.483	0.06
880.648	2.36
880.814	-2.01
880.98	-0.54
881.146	-3.15
881.312	-1.29
881.477	-1.05
881.643	-0.94
881.809	1.47
881.974	1.32
882.14	-2.01
882.306	1.53
882.471	4.11
882.637	-0.86
882.803	0.1
882.968	3.43
883.134	3.48
883.299	1.8
883.465	-0.31
883.63	0.47
883.796	0.28
883.961	1.64
884.127	1.01
884.292	-2.91
884.458	-3.26
884.623	-3.26
