Data from Apollo_Calib_20240827__AbsoluteIrradiance__494__07-23-01-236.txt Node

Date: Wed Aug 28 07:23:01 BST 2024
User: biology
Spectrometer: FLMT08252
Trigger mode: 0
Integration Time (sec): 5.000000E-1
Scans to average: 5
Electric dark correction enabled: true
Nonlinearity correction enabled: false
Boxcar width: 0
XAxis mode: Wavelengths
Number of Pixels in Spectrum: 3648
>>>>>Begin Spectral Data<<<<<
179.588	-0
179.809	-0
180.03	-0
180.251	-0
180.473	-0
180.694	0
180.915	0
181.136	-0
181.357	-0
181.578	-0
181.799	-0
182.02	0
182.241	0
182.462	-0
182.683	0
182.904	-0
183.125	-0
183.346	0
183.567	0
183.788	0
184.009	-0
184.23	-0
184.451	0
184.672	-0
184.892	-0
185.113	-0
185.334	0
185.555	-0
185.776	-0
185.996	0
186.217	0
186.438	0
186.659	-0
186.879	0
187.1	0
187.321	-0
187.541	-0
187.762	-0
187.983	-0
188.203	0
188.424	-0
188.644	-0
188.865	-0
189.086	-0
189.306	0
189.527	-0
189.747	0
189.968	-0
190.188	-0
190.409	-0
190.629	0
190.849	0
191.07	-0
191.29	0
191.511	0
191.731	-0
191.951	-0
192.172	-0
192.392	-0
192.612	0
192.833	-0
193.053	0
193.273	0
193.493	0
193.714	-0
193.934	0
194.154	0
194.374	0
194.594	0
194.815	-0
195.035	0
195.255	-0
195.475	-0
195.695	0
195.915	0
196.135	-0
196.355	0
196.575	0
196.795	0
197.015	-0
197.235	-0
197.455	-0
197.675	0
197.895	-0
198.115	-0
198.335	0
198.555	-0
198.775	0
198.995	0
199.214	0
199.434	0
199.654	-0
199.874	-0
200.094	-1.7
200.313	0.01
200.533	-0.28
200.753	-0.89
200.973	0.57
201.192	0.6
201.412	-1.09
201.632	-0.15
201.851	0.34
202.071	-0.3
202.291	-0.36
202.51	-0.22
202.73	0.55
202.95	-0.14
203.169	-0.34
203.389	-0.25
203.608	0.11
203.828	-0.54
204.047	-0.14
204.267	0.33
204.486	0.14
204.706	-0.11
204.925	-0.17
205.145	-0.51
205.364	0.43
205.583	0.58
205.803	-0.21
206.022	-0.55
206.242	-0.33
206.461	0.02
206.68	-0.18
206.9	0.06
207.119	0.37
207.338	0.49
207.557	-0.17
207.777	-0
207.996	-0.18
208.215	0.46
208.434	-0.45
208.654	-0.22
208.873	-0.08
209.092	0.65
209.311	-0.2
209.53	-0.18
209.749	-0.14
209.968	-0.33
210.187	-0.3
210.407	-0.06
210.626	-0.17
210.845	0.18
211.064	0.03
211.283	-0.23
211.502	0.19
211.721	-0.08
211.94	-0.17
212.159	0.1
212.377	-0.09
212.596	0.21
212.815	0.21
213.034	0.1
213.253	0.24
213.472	0.02
213.691	0.11
213.91	-0.25
214.128	-0.04
214.347	0.39
214.566	-0.31
214.785	-0.32
215.003	0.17
215.222	0.08
215.441	-0.15
215.66	-0.36
215.878	0.01
216.097	0.18
216.316	-0.13
216.534	-0.26
216.753	0.08
216.972	0.02
217.19	0.05
217.409	-0.08
217.627	-0.21
217.846	0.03
218.064	-0.08
218.283	-0.16
218.501	0.32
218.72	0.26
218.938	-0.21
219.157	-0.12
219.375	0.16
219.594	0.16
219.812	-0.23
220.031	-0.11
220.249	0.19
220.467	0.36
220.686	-0.1
220.904	-0.27
221.122	-0.12
221.341	0.27
221.559	0.01
221.777	-0.14
221.995	0.07
222.214	0.06
222.432	-0.22
222.65	0.15
222.868	-0.06
223.086	0.14
223.305	0.1
223.523	-0.29
223.741	0.25
223.959	-0.04
224.177	-0.17
224.395	-0.1
224.613	0.06
224.831	0.22
225.049	-0.07
225.267	-0.03
225.485	0.04
225.703	-0.05
225.921	-0.01
226.139	-0.18
226.357	0.04
226.575	-0.01
226.793	-0.11
227.011	0.59
227.229	-0.04
227.447	0.2
227.665	-0.27
227.883	-0.16
228.1	-0.01
228.318	0.15
228.536	-0.17
228.754	-0.18
228.972	0.14
229.189	0.13
229.407	-0.08
229.625	0.03
229.843	0.2
230.06	0.14
230.278	-0.1
230.496	0.05
230.713	0.05
230.931	0.15
231.149	0.01
231.366	-0.29
231.584	0.08
231.801	0.39
232.019	-0.04
232.236	-0.06
232.454	-0.16
232.671	0.05
232.889	0
233.106	-0.1
233.324	-0.1
233.541	-0.01
233.759	-0.06
233.976	-0.06
234.194	-0.09
234.411	-0.02
234.628	-0.06
234.846	-0.02
235.063	0.02
235.28	-0.01
235.498	-0.03
235.715	-0.22
235.932	0.04
236.149	0.04
236.367	-0.04
236.584	0.07
236.801	-0.12
237.018	0.02
237.236	-0.01
237.453	-0.18
237.67	0.11
237.887	-0.02
238.104	0.08
238.321	-0.17
238.538	-0.1
238.755	0.16
238.973	-0.1
239.19	-0.13
239.407	0.1
239.624	-0.08
239.841	-0.25
240.058	-0.05
240.275	0.06
240.492	-0.01
240.709	-0.03
240.925	-0.08
241.142	0.03
241.359	-0.07
241.576	-0.04
241.793	-0.08
242.01	-0.03
242.227	0.14
242.444	0.01
242.66	0.13
242.877	-0.01
243.094	-0.03
243.311	0.06
243.527	-0.07
243.744	-0.01
243.961	0.07
244.178	-0.13
244.394	0
244.611	0.15
244.828	0.08
245.044	-0.07
245.261	0.02
245.477	-0.03
245.694	0.05
245.911	-0.11
246.127	0.01
246.344	0.12
246.56	0.07
246.777	-0.04
246.993	0.04
247.21	0.01
247.426	0.04
247.643	0.05
247.859	-0.09
248.076	-0.06
248.292	0.15
248.508	-0.03
248.725	0.09
248.941	0.01
249.157	0.12
249.374	-0.01
249.59	0.01
249.806	-0.05
250.023	0.02
250.239	-0.09
250.455	-0.05
250.671	-0.01
250.888	0.04
251.104	0.07
251.32	0.01
251.536	-0.03
251.752	-0.05
251.969	-0.05
252.185	0
252.401	0.17
252.617	0.02
252.833	0.04
253.049	-0.04
253.265	-0.01
253.481	0.04
253.697	-0.05
253.913	-0.06
254.129	-0.01
254.345	0.03
254.561	-0.05
254.777	0.02
254.993	0.14
255.209	-0
255.425	-0.04
255.641	-0.11
255.857	0.05
256.073	-0.01
256.288	-0.14
256.504	-0.05
256.72	-0.03
256.936	0.13
257.152	0.04
257.367	-0.04
257.583	-0.06
257.799	0.07
258.015	-0.05
258.23	-0.1
258.446	0.15
258.662	0.01
258.877	-0.06
259.093	-0.11
259.309	0.02
259.524	0.06
259.74	-0.02
259.955	-0.13
260.171	-0.01
260.387	-0.01
260.602	0.02
260.818	0.06
261.033	-0.02
261.249	0.11
261.464	-0.05
261.68	-0.13
261.895	-0.02
262.11	0.12
262.326	-0.05
262.541	-0.05
262.757	0.09
262.972	0.07
263.187	-0.02
263.403	-0
263.618	0.12
263.833	-0.05
264.049	-0.04
264.264	-0.04
264.479	0.05
264.694	0.05
264.91	-0.12
265.125	-0.06
265.34	0.01
265.555	0.04
265.77	0.03
265.986	0.01
266.201	0.07
266.416	0.07
266.631	-0.01
266.846	-0.07
267.061	0.02
267.276	-0.04
267.491	-0.13
267.706	0.07
267.921	0.08
268.136	0.07
268.351	-0.01
268.566	-0.08
268.781	0.1
268.996	0.04
269.211	-0.04
269.426	-0.06
269.641	-0.02
269.856	0.04
270.071	-0.04
270.285	-0.05
270.5	0.04
270.715	0.09
270.93	-0.01
271.145	0.03
271.359	0.01
271.574	-0.03
271.789	0.03
272.004	-0.06
272.218	0
272.433	0.02
272.648	-0
272.862	0
273.077	-0.02
273.292	0.01
273.506	-0.05
273.721	-0.05
273.936	-0.03
274.15	0.1
274.365	-0.05
274.579	0.03
274.794	-0.02
275.008	0.04
275.223	-0.08
275.437	0
275.652	0.05
275.866	0.03
276.081	-0.02
276.295	0.08
276.509	-0.02
276.724	0.03
276.938	-0.04
277.153	0.02
277.367	0.08
277.581	-0.05
277.796	-0.03
278.01	-0.04
278.224	0.09
278.438	0.1
278.653	-0.06
278.867	0.01
279.081	-0.15
279.295	-0.05
279.51	-0
279.724	-0.08
279.938	0.04
280.152	0
280.366	-0.04
280.58	0.03
280.794	0.11
281.008	0.01
281.222	0.07
281.437	0.06
281.651	0.02
281.865	0.07
282.079	0.01
282.293	-0.12
282.507	-0.04
282.721	-0.01
282.935	0.06
283.148	-0.1
283.362	-0.03
283.576	-0.07
283.79	-0.01
284.004	-0.08
284.218	-0.01
284.432	-0.04
284.646	0.04
284.859	-0.01
285.073	-0.05
285.287	0.03
285.501	-0
285.714	0.01
285.928	0.01
286.142	0.02
286.356	-0.05
286.569	-0.01
286.783	0.08
286.997	0.02
287.21	0.01
287.424	0.04
287.637	0
287.851	-0.03
288.065	0.01
288.278	-0.04
288.492	0.02
288.705	-0.01
288.919	0.06
289.132	-0.08
289.346	0.09
289.559	-0.03
289.773	-0.08
289.986	-0
290.2	-0.02
290.413	0.03
290.626	-0.06
290.84	0.01
291.053	-0.01
291.267	0.06
291.48	0.02
291.693	0.02
291.906	-0.02
292.12	-0.05
292.333	-0.06
292.546	-0.01
292.76	0.1
292.973	0.01
293.186	-0
293.399	0.01
293.612	0.06
293.826	0
294.039	0.03
294.252	0.04
294.465	0.01
294.678	-0.03
294.891	0.01
295.104	-0.04
295.317	0.02
295.53	-0.01
295.743	0
295.956	0.02
296.169	0.08
296.382	0.07
296.595	0.02
296.808	-0.09
297.021	0.06
297.234	0.05
297.447	0
297.66	0.01
297.873	0.06
298.086	0.07
298.299	-0.04
298.511	-0.04
298.724	-0.06
298.937	-0
299.15	-0.01
299.363	0.01
299.575	0.03
299.788	0.07
300.001	-0.07
300.213	-0.03
300.426	-0.02
300.639	-0.02
300.852	-0.01
301.064	0.07
301.277	0.08
301.489	0.06
301.702	0.02
301.915	0.02
302.127	0.01
302.34	0.03
302.552	0.01
302.765	-0.03
302.977	0.03
303.19	0.01
303.402	0
303.615	0.01
303.827	-0.04
304.04	0.02
304.252	0.02
304.464	-0.01
304.677	0.08
304.889	0.03
305.102	-0.02
305.314	-0.01
305.526	0.04
305.739	0.01
305.951	-0.02
306.163	0
306.375	0.06
306.588	-0.02
306.8	-0.02
307.012	-0.02
307.224	0
307.436	0.06
307.649	-0.06
307.861	0.04
308.073	0.04
308.285	-0.01
308.497	-0.02
308.709	-0.03
308.921	0.04
309.133	0.04
309.346	-0.01
309.558	-0.03
309.77	0.03
309.982	0.03
310.194	0.01
310.406	-0.05
310.617	0.06
310.829	0.02
311.041	0.01
311.253	-0.01
311.465	0.02
311.677	-0.01
311.889	-0.05
312.101	0.03
312.313	0.03
312.524	0.06
312.736	-0.05
312.948	-0.06
313.16	0.08
313.372	0.05
313.583	0.02
313.795	-0.01
314.007	-0.02
314.218	0.02
314.43	-0
314.642	-0.02
314.853	-0.06
315.065	0.06
315.277	-0.02
315.488	0.01
315.7	0.02
315.912	0.06
316.123	-0.02
316.335	0
316.546	0.09
316.758	0.01
316.969	-0.04
317.181	0.03
317.392	-0.03
317.604	0.08
317.815	-0.03
318.026	-0.06
318.238	0.02
318.449	0.04
318.661	-0.06
318.872	-0.09
319.083	-0.06
319.295	0.04
319.506	0
319.717	-0.02
319.929	0.05
320.14	-0.03
320.351	0.01
320.562	-0.05
320.774	-0
320.985	0.01
321.196	-0.07
321.407	-0.05
321.618	0.07
321.829	0.04
322.041	0.01
322.252	0.02
322.463	0.01
322.674	-0.01
322.885	-0.01
323.096	-0.04
323.307	-0.01
323.518	0.01
323.729	-0.03
323.94	-0.03
324.151	-0.06
324.362	0.01
324.573	0
324.784	-0.03
324.995	0.07
325.206	0.03
325.417	-0
325.628	-0.04
325.838	0
326.049	0.01
326.26	0.02
326.471	0.01
326.682	-0.01
326.892	0
327.103	-0.05
327.314	-0.08
327.525	0
327.735	0.03
327.946	0
328.157	-0
328.368	0.02
328.578	-0.05
328.789	0.02
328.999	0.03
329.21	0.04
329.421	0.03
329.631	-0.02
329.842	-0.05
330.052	0.03
330.263	0.04
330.473	0.03
330.684	0.03
330.894	-0.02
331.105	0.02
331.315	0.04
331.526	-0.06
331.736	0.06
331.947	0.03
332.157	0
332.367	-0.03
332.578	0
332.788	0.07
332.999	0.04
333.209	-0.01
333.419	-0.02
333.629	-0.03
333.84	0.03
334.05	0.01
334.26	0.06
334.47	0.01
334.681	0.07
334.891	0.04
335.101	0
335.311	0.09
335.521	0.03
335.732	-0.06
335.942	0.04
336.152	0.02
336.362	0.04
336.572	-0.01
336.782	0.04
336.992	-0.01
337.202	-0.01
337.412	-0.06
337.622	0.04
337.832	-0.03
338.042	0.04
338.252	-0.02
338.462	-0
338.672	-0.02
338.882	-0.09
339.092	-0
339.302	0.05
339.511	0.02
339.721	-0.01
339.931	-0.02
340.141	0.05
340.351	0.05
340.561	0.01
340.77	-0.01
340.98	0.02
341.19	0.03
341.4	-0.03
341.609	-0.08
341.819	0
342.029	-0.04
342.238	0.01
342.448	-0.04
342.658	0.03
342.867	0.04
343.077	0.02
343.286	0.05
343.496	0.06
343.706	0.08
343.915	-0.05
344.125	0.04
344.334	0.06
344.544	-0.02
344.753	-0.01
344.963	-0.04
345.172	-0
345.381	-0.01
345.591	-0.01
345.8	0.02
346.01	0.04
346.219	0.05
346.428	-0.12
346.638	0
346.847	-0.04
347.056	0.07
347.266	-0.07
347.475	-0.03
347.684	0.04
347.893	0.02
348.103	-0.02
348.312	-0
348.521	-0.01
348.73	0.02
348.94	0.02
349.149	0
349.358	-0.02
349.567	-0.03
349.776	-0.06
349.985	-0
350.194	0.05
350.403	0.03
350.612	-0.06
350.821	-0.02
351.03	0
351.239	-0.04
351.448	0
351.657	-0
351.866	0.04
352.075	0.03
352.284	0.04
352.493	-0.03
352.702	0.03
352.911	0.02
353.12	0.03
353.329	-0.02
353.538	-0
353.746	-0.01
353.955	-0.02
354.164	0.01
354.373	0.02
354.582	-0.01
354.79	-0.02
354.999	0.04
355.208	0.01
355.416	0.05
355.625	-0.05
355.834	0
356.042	0.01
356.251	-0.04
356.46	-0.02
356.668	0.04
356.877	0.06
357.085	0.02
357.294	-0.11
357.503	-0.03
357.711	0.01
357.92	0.12
358.128	-0.01
358.337	-0.01
358.545	0.01
358.754	-0.01
358.962	0.05
359.17	-0.01
359.379	0
359.587	0.04
359.796	0.03
360.004	0.04
360.212	0.04
360.421	0.04
360.629	-0.01
360.837	-0.01
361.046	0.03
361.254	0.09
361.462	-0
361.67	-0.01
361.879	0
362.087	0.05
362.295	0.02
362.503	-0
362.711	-0.07
362.92	-0.01
363.128	-0
363.336	-0.03
363.544	-0.05
363.752	0
363.96	0.01
364.168	-0.04
364.376	0.02
364.584	0.02
364.792	0.03
365	0.03
365.208	0.02
365.416	0.01
365.624	0.05
365.832	-0.03
366.04	0.02
366.248	0.01
366.456	0.01
366.664	0.04
366.872	0
367.079	-0.02
367.287	0
367.495	0
367.703	-0.01
367.911	-0.05
368.118	-0.02
368.326	-0.02
368.534	-0.05
368.742	0.04
368.949	-0.07
369.157	-0
369.365	0.02
369.572	-0.02
369.78	-0.04
369.988	0.06
370.195	0.04
370.403	-0
370.61	0.02
370.818	0.05
371.026	0.03
371.233	-0.02
371.441	0.01
371.648	-0.05
371.856	0.01
372.063	0
372.271	-0.02
372.478	-0.01
372.685	0
372.893	0.03
373.1	-0.02
373.308	-0.01
373.515	0.09
373.722	-0
373.93	0.02
374.137	-0.01
374.344	0.05
374.552	0.05
374.759	0.03
374.966	-0.01
375.173	0
375.381	0.03
375.588	-0.03
375.795	-0.03
376.002	-0.04
376.209	-0.03
376.417	0.01
376.624	0.01
376.831	0.02
377.038	-0.01
377.245	-0.09
377.452	-0.01
377.659	0.02
377.866	-0.04
378.073	-0
378.28	-0.03
378.487	0.02
378.694	0.03
378.901	-0.02
379.108	0.01
379.315	0
379.522	0.06
379.729	0.01
379.936	0.03
380.143	0.03
380.35	0.03
380.557	-0.03
380.763	0.03
380.97	0.01
381.177	0.02
381.384	0.07
381.591	0.01
381.797	-0.03
382.004	0.03
382.211	0.02
382.418	0.03
382.624	0.03
382.831	0.03
383.038	-0.02
383.244	0.01
383.451	0.02
383.658	0
383.864	-0.06
384.071	-0.01
384.277	0.04
384.484	-0.04
384.69	0.03
384.897	-0
385.103	-0.01
385.31	-0.03
385.516	-0.03
385.723	-0.04
385.929	-0.01
386.136	-0.02
386.342	0.01
386.549	-0.03
386.755	0.06
386.961	0
387.168	-0.02
387.374	0.02
387.58	0.03
387.787	-0.04
387.993	0.02
388.199	0.03
388.406	-0.03
388.612	-0.02
388.818	-0.02
389.024	-0.02
389.231	0.04
389.437	0.08
389.643	0.09
389.849	-0.02
390.055	0.03
390.261	0.05
390.467	0.02
390.674	-0
390.88	-0.01
391.086	0
391.292	-0.02
391.498	0.02
391.704	-0.03
391.91	-0.02
392.116	-0.04
392.322	-0.09
392.528	-0.01
392.734	0
392.94	-0.02
393.146	0.05
393.352	-0
393.557	-0.02
393.763	-0.01
393.969	0.02
394.175	-0.02
394.381	-0.03
394.587	-0.04
394.792	0.01
394.998	0.06
395.204	0.06
395.41	-0.03
395.615	0
395.821	-0.01
396.027	0.01
396.233	-0.04
396.438	0.03
396.644	-0.03
396.85	0.05
397.055	-0.01
397.261	-0.03
397.466	0.15
397.672	0.03
397.878	0.04
398.083	0.01
398.289	-0
398.494	0
398.7	0
398.905	-0.06
399.111	0.06
399.316	-0.05
399.522	0.01
399.727	-0.03
399.932	-0.02
400.138	0.01
400.343	0.03
400.549	0.02
400.754	0.03
400.959	-0.01
401.165	-0.01
401.37	0.01
401.575	0.11
401.78	-0.03
401.986	-0.03
402.191	-0
402.396	0.02
402.601	0.01
402.807	-0.02
403.012	-0
403.217	0.04
403.422	0
403.627	-0
403.832	0
404.037	0.02
404.243	0.04
404.448	-0.06
404.653	-0.06
404.858	0.03
405.063	0.05
405.268	-0.03
405.473	-0.03
405.678	0.01
405.883	0.06
406.088	0.03
406.293	-0.05
406.498	-0.05
406.703	0.05
406.907	0.02
407.112	-0.02
407.317	-0.01
407.522	0.02
407.727	-0.06
407.932	0.03
408.136	0.04
408.341	-0.06
408.546	-0.01
408.751	-0
408.956	-0.01
409.16	-0.01
409.365	0.01
409.57	0
409.774	0.03
409.979	0.04
410.184	0.01
410.388	-0.01
410.593	0.03
410.798	0.03
411.002	-0.03
411.207	0.03
411.411	0.04
411.616	-0.02
411.82	-0.03
412.025	0.01
412.229	-0.03
412.434	0.1
412.638	0.01
412.843	-0.03
413.047	0.03
413.252	-0.06
413.456	-0
413.66	0.06
413.865	-0.05
414.069	0.05
414.273	-0.03
414.478	-0
414.682	-0.03
414.886	-0
415.091	-0.08
415.295	-0.08
415.499	0.02
415.703	-0.03
415.908	-0.01
416.112	-0.05
416.316	0.02
416.52	-0.02
416.724	-0.01
416.929	-0.02
417.133	0.08
417.337	-0.01
417.541	-0.03
417.745	0.01
417.949	-0.01
418.153	0.01
418.357	-0.05
418.561	0.03
418.765	0.01
418.969	0.07
419.173	0.03
419.377	-0.03
419.581	0.08
419.785	-0.04
419.989	-0.05
420.193	-0.04
420.397	-0.03
420.601	0.08
420.804	0.06
421.008	0.02
421.212	0
421.416	-0.02
421.62	-0.01
421.823	-0
422.027	0.08
422.231	0.01
422.435	0
422.638	-0.01
422.842	0.03
423.046	0.01
423.249	-0
423.453	0.01
423.657	-0
423.86	-0.01
424.064	0.03
424.268	0.03
424.471	0.02
424.675	0.03
424.878	0.08
425.082	-0.02
425.285	0.06
425.489	-0.03
425.692	-0.03
425.896	-0.03
426.099	0.04
426.303	-0.03
426.506	-0.07
426.71	0.02
426.913	0.07
427.116	0.07
427.32	-0.03
427.523	-0.03
427.726	0.06
427.93	-0.07
428.133	-0.05
428.336	-0.05
428.54	-0.03
428.743	0.01
428.946	0.04
429.149	-0.03
429.353	-0.02
429.556	-0.01
429.759	-0.01
429.962	-0.03
430.165	-0.03
430.368	0
430.571	-0.03
430.775	0.01
430.978	-0.01
431.181	0.01
431.384	-0.01
431.587	0.01
431.79	0.02
431.993	0.04
432.196	-0.03
432.399	0
432.602	0.04
432.805	-0.02
433.008	-0.03
433.211	-0.11
433.414	0.06
433.616	-0.01
433.819	-0
434.022	-0.08
434.225	0.05
434.428	0.03
434.631	0.01
434.833	0.02
435.036	-0
435.239	0.03
435.442	-0.03
435.645	-0.05
435.847	0.01
436.05	0.06
436.253	0.01
436.455	-0.09
436.658	0.02
436.861	0.1
437.063	-0.06
437.266	-0.01
437.468	0.02
437.671	0.11
437.874	0.01
438.076	-0.09
438.279	-0.06
438.481	-0.05
438.684	-0.08
438.886	0
439.089	-0.13
439.291	-0.04
439.494	0.05
439.696	-0.02
439.899	0.02
440.101	-0.02
440.303	-0.08
440.506	0.02
440.708	-0.03
440.91	-0.01
441.113	0
441.315	-0
441.517	-0.03
441.72	0.03
441.922	-0.05
442.124	-0.05
442.326	-0.01
442.529	0.07
442.731	-0.05
442.933	0.08
443.135	-0.01
443.337	-0.03
443.539	0.01
443.742	-0.02
443.944	0
444.146	0.01
444.348	-0.02
444.55	-0.05
444.752	-0.03
444.954	-0.04
445.156	-0.02
445.358	-0.05
445.56	0.04
445.762	-0.02
445.964	-0.01
446.166	-0.01
446.368	-0.04
446.57	0.05
446.772	0.05
446.974	-0.01
447.175	-0
447.377	-0.08
447.579	-0.06
447.781	-0.12
447.983	0.05
448.184	-0.02
448.386	0.01
448.588	-0.1
448.79	0
448.991	-0
449.193	-0.02
449.395	0.02
449.597	0.01
449.798	0.02
450	0.03
450.202	-0.01
450.403	-0.01
450.605	0.02
450.806	-0.01
451.008	-0.06
451.21	-0.01
451.411	0.01
451.613	-0.04
451.814	-0.01
452.016	0.01
452.217	0
452.419	0.03
452.62	-0.04
452.821	0.03
453.023	0.06
453.224	0.06
453.426	0.01
453.627	0.01
453.828	0.02
454.03	-0
454.231	-0.01
454.432	-0.04
454.634	0.09
454.835	-0.04
455.036	-0.04
455.238	0.03
455.439	0.05
455.64	-0.03
455.841	-0.06
456.042	0.09
456.244	0.06
456.445	-0.05
456.646	-0.09
456.847	-0.07
457.048	0.03
457.249	0.04
457.45	0.2
457.651	-0.05
457.852	0.04
458.054	0.01
458.255	-0.03
458.456	0.02
458.657	-0.01
458.858	-0.04
459.058	-0.02
459.259	0.05
459.46	0.01
459.661	-0.06
459.862	0.04
460.063	-0.04
460.264	0.04
460.465	-0.07
460.666	0.09
460.866	-0.02
461.067	0.01
461.268	0.03
461.469	-0.04
461.67	-0.01
461.87	-0.02
462.071	-0.05
462.272	-0.03
462.473	0
462.673	0.03
462.874	-0.08
463.075	-0
463.275	0.03
463.476	0.06
463.676	0.01
463.877	0.03
464.078	-0.03
464.278	0.02
464.479	-0
464.679	0.02
464.88	-0.02
465.08	0.07
465.281	-0.07
465.481	0.02
465.682	-0.02
465.882	0
466.083	-0
466.283	-0.03
466.483	-0.05
466.684	-0.06
466.884	-0.01
467.085	-0.03
467.285	-0.01
467.485	-0.06
467.686	0.01
467.886	-0.04
468.086	0.05
468.286	0.02
468.487	0
468.687	-0.05
468.887	-0.03
469.087	0.01
469.287	0.01
469.488	-0.06
469.688	0.04
469.888	0.04
470.088	0.05
470.288	0.05
470.488	-0.01
470.688	-0.07
470.888	-0.02
471.088	-0.03
471.288	0.06
471.488	0.02
471.688	0.02
471.888	-0.03
472.088	0.01
472.288	0.03
472.488	0
472.688	-0.03
472.888	0.01
473.088	0
473.288	0.03
473.488	-0.03
473.688	0.04
473.887	-0.02
474.087	-0.03
474.287	0.01
474.487	-0.03
474.687	0.05
474.886	-0.03
475.086	0
475.286	0.03
475.486	-0.01
475.685	-0.04
475.885	-0.02
476.085	-0
476.284	0.03
476.484	-0.03
476.684	-0.01
476.883	0.05
477.083	-0
477.282	-0.03
477.482	0.04
477.681	0.04
477.881	0.03
478.08	-0
478.28	-0.03
478.479	0.01
478.679	0.06
478.878	-0.02
479.078	0
479.277	0
479.477	0.01
479.676	0.06
479.875	0.02
480.075	-0.04
480.274	0.02
480.473	-0
480.673	-0.03
480.872	0.02
481.071	0.01
481.271	0.03
481.47	-0.02
481.669	0.01
481.868	-0.03
482.067	-0.01
482.267	0
482.466	0.01
482.665	-0.02
482.864	-0.01
483.063	-0.02
483.262	-0.01
483.461	0.02
483.661	0.04
483.86	0
484.059	-0
484.258	0
484.457	-0.01
484.656	0.04
484.855	0.04
485.054	-0.04
485.253	-0.03
485.452	-0.04
485.651	-0
485.849	-0.03
486.048	-0.03
486.247	-0.04
486.446	0.01
486.645	-0.04
486.844	-0.03
487.043	-0.03
487.241	0.02
487.44	-0.03
487.639	-0.01
487.838	0.01
488.037	0.02
488.235	0.06
488.434	0.01
488.633	-0.01
488.831	0.04
489.03	0.04
489.229	0.01
489.427	-0
489.626	0.02
489.825	0.05
490.023	0.01
490.222	0.01
490.42	0.02
490.619	0.04
490.817	0
491.016	-0.02
491.214	0.02
491.413	0.01
491.611	0.01
491.81	-0.01
492.008	0.01
492.207	0.02
492.405	-0.02
492.604	-0.05
492.802	0.02
493	0.01
493.199	-0.03
493.397	0.01
493.595	0.02
493.794	-0.01
493.992	0.04
494.19	-0.01
494.388	0.01
494.587	-0.01
494.785	-0.01
494.983	-0.03
495.181	0.01
495.379	0.01
495.578	-0.02
495.776	0
495.974	0.02
496.172	-0.03
496.37	-0.01
496.568	-0.04
496.766	-0.02
496.964	0.03
497.162	-0.01
497.36	-0.01
497.558	0.03
497.756	0.01
497.954	-0.01
498.152	-0.01
498.35	-0.02
498.548	-0.01
498.746	0
498.944	-0.01
499.142	-0.01
499.34	-0.01
499.538	-0.01
499.736	-0.02
499.933	0.03
500.131	0.01
500.329	-0.01
500.527	0.01
500.725	0.04
500.922	0.02
501.12	0.01
501.318	0.01
501.516	-0.01
501.713	0.01
501.911	-0.01
502.109	-0.01
502.306	-0.01
502.504	0.01
502.701	-0.02
502.899	-0
503.097	0.03
503.294	0
503.492	-0
503.689	0.03
503.887	0.02
504.084	0.05
504.282	0
504.479	-0.04
504.677	-0.01
504.874	-0.02
505.072	-0
505.269	-0
505.466	0.04
505.664	0.02
505.861	-0.03
506.059	-0.04
506.256	0.02
506.453	-0.03
506.651	0.03
506.848	0.02
507.045	0.02
507.242	0.02
507.44	-0
507.637	-0.02
507.834	-0
508.031	0.01
508.229	-0.02
508.426	0.03
508.623	0.01
508.82	-0.03
509.017	-0.05
509.214	-0.02
509.411	-0.01
509.608	-0.03
509.805	-0
510.003	-0.02
510.2	-0.02
510.397	0.03
510.594	-0.03
510.791	-0.02
510.988	-0.01
511.184	0
511.381	0.01
511.578	-0.03
511.775	0.02
511.972	-0.01
512.169	0
512.366	0
512.563	0.01
512.76	-0.01
512.956	0.02
513.153	0.01
513.35	0.02
513.547	-0.03
513.744	-0.02
513.94	0
514.137	-0
514.334	0.01
514.53	0
514.727	0
514.924	0.05
515.12	-0.02
515.317	-0.05
515.514	-0.01
515.71	-0.04
515.907	-0.03
516.103	0.03
516.3	-0.01
516.497	-0.01
516.693	0.04
516.89	0
517.086	-0.02
517.283	0.03
517.479	-0
517.676	0.01
517.872	0
518.068	-0.02
518.265	-0.01
518.461	-0.01
518.658	-0.02
518.854	-0.01
519.05	-0.02
519.247	-0.02
519.443	0.01
519.639	0
519.836	-0.01
520.032	-0
520.228	0.01
520.424	0.03
520.621	0.02
520.817	-0.01
521.013	0.02
521.209	0.03
521.405	0.03
521.601	-0.01
521.798	-0
521.994	0.03
522.19	-0.01
522.386	-0.04
522.582	0.01
522.778	0
522.974	-0.03
523.17	-0.01
523.366	-0
523.562	0.02
523.758	0.02
523.954	-0.01
524.15	0
524.346	0.02
524.542	-0.02
524.738	-0.02
524.934	-0.03
525.129	-0.01
525.325	0.01
525.521	0
525.717	0.03
525.913	-0.01
526.109	0
526.304	0
526.5	0.01
526.696	0.01
526.892	0.01
527.087	-0
527.283	-0.02
527.479	0.03
527.674	-0.01
527.87	-0.01
528.066	0.01
528.261	0
528.457	0.01
528.653	0
528.848	-0.01
529.044	-0.01
529.239	-0
529.435	0.02
529.63	-0
529.826	0.03
530.021	0.01
530.217	0.04
530.412	-0.01
530.608	-0.03
530.803	0.01
530.999	-0.02
531.194	-0.03
531.389	0.02
531.585	-0.06
531.78	-0
531.975	0.01
532.171	0.03
532.366	0
532.561	-0
532.757	-0.03
532.952	0.01
533.147	0.01
533.342	0.01
533.538	-0.02
533.733	0.02
533.928	-0
534.123	0
534.318	-0.02
534.513	-0.02
534.709	0
534.904	-0.01
535.099	-0.02
535.294	-0.01
535.489	0.01
535.684	-0
535.879	-0.03
536.074	0
536.269	-0
536.464	0
536.659	-0.02
536.854	-0
537.049	0
537.244	0
537.439	-0.01
537.634	0.04
537.828	0.02
538.023	-0.01
538.218	-0.03
538.413	-0
538.608	-0.02
538.803	0.02
538.997	-0.02
539.192	0.02
539.387	0.01
539.582	0
539.776	0.02
539.971	-0.01
540.166	-0
540.36	-0.01
540.555	0
540.75	-0.01
540.944	0.01
541.139	-0.03
541.334	-0
541.528	0.01
541.723	0.03
541.917	-0
542.112	-0.04
542.306	0.01
542.501	-0.01
542.695	0
542.89	-0.02
543.084	0.03
543.279	0.02
543.473	0.01
543.668	-0.01
543.862	-0.02
544.056	0.02
544.251	-0.02
544.445	0.01
544.64	-0
544.834	-0.02
545.028	0.01
545.222	0.03
545.417	0.02
545.611	0.01
545.805	0.01
546	-0.01
546.194	-0.02
546.388	-0.01
546.582	0.02
546.776	0
546.97	0.01
547.165	0.01
547.359	0.03
547.553	-0.02
547.747	0.01
547.941	0
548.135	-0.01
548.329	0.03
548.523	-0.01
548.717	0.02
548.911	-0.02
549.105	0.01
549.299	-0.01
549.493	0.02
549.687	0.01
549.881	0.02
550.075	-0.01
550.269	-0.02
550.463	0.02
550.657	0.01
550.85	0
551.044	-0.01
551.238	0.01
551.432	-0.01
551.626	-0.01
551.82	0.01
552.013	-0
552.207	-0.01
552.401	0.01
552.594	0.03
552.788	-0.02
552.982	0.01
553.176	-0.04
553.369	0.01
553.563	0.01
553.756	-0.02
553.95	-0.01
554.144	-0.01
554.337	0.04
554.531	0.01
554.724	0.02
554.918	-0.01
555.111	0.02
555.305	0
555.498	0.05
555.692	0.05
555.885	-0.02
556.079	0.02
556.272	-0.01
556.466	0.02
556.659	-0
556.852	0
557.046	-0.01
557.239	0.02
557.432	0
557.626	-0.02
557.819	0.03
558.012	0.02
558.206	-0.01
558.399	-0
558.592	0.03
558.785	-0
558.979	0.03
559.172	0.01
559.365	0.02
559.558	-0
559.751	0.01
559.944	0.01
560.138	-0
560.331	0
560.524	-0.01
560.717	0
560.91	-0.01
561.103	0.02
561.296	0.02
561.489	0.01
561.682	-0
561.875	0.03
562.068	-0
562.261	0.01
562.454	0.04
562.647	0.03
562.84	0.02
563.032	-0.02
563.225	0.01
563.418	-0.01
563.611	0.01
563.804	0.03
563.997	-0.02
564.19	-0.05
564.382	-0.04
564.575	0
564.768	-0.01
564.961	-0.02
565.153	-0
565.346	0.01
565.539	0.05
565.731	0.01
565.924	0.02
566.117	0.02
566.309	0.02
566.502	-0.01
566.695	-0
566.887	0.02
567.08	-0.03
567.272	0.01
567.465	0.01
567.657	0.03
567.85	0.02
568.042	0.01
568.235	0.03
568.427	0.02
568.62	0
568.812	0.02
569.005	0.01
569.197	-0.03
569.389	0.04
569.582	0.02
569.774	0.02
569.966	-0.02
570.159	-0.04
570.351	0.02
570.543	0
570.736	-0
570.928	0
571.12	0.01
571.312	0
571.505	0
571.697	0.04
571.889	-0.01
572.081	-0.01
572.273	-0
572.465	0.02
572.658	0
572.85	0.04
573.042	0.02
573.234	0.02
573.426	0.06
573.618	-0.01
573.81	0.02
574.002	0.06
574.194	0.08
574.386	-0
574.578	-0.04
574.77	0
574.962	0.03
575.154	0.01
575.346	0.02
575.538	0.06
575.729	0.01
575.921	0.01
576.113	0.02
576.305	0.06
576.497	0.01
576.689	0.02
576.88	0.03
577.072	0.05
577.264	0.05
577.456	0.03
577.647	-0
577.839	0.02
578.031	0.06
578.223	0.02
578.414	-0
578.606	0.04
578.798	0.06
578.989	0.03
579.181	0.02
579.372	0.05
579.564	0.01
579.755	0.07
579.947	0.06
580.139	0.06
580.33	0.01
580.522	0.03
580.713	-0.02
580.905	0.06
581.096	0.07
581.287	0.04
581.479	0.05
581.67	0.07
581.862	0.06
582.053	0.04
582.244	0.02
582.436	0.07
582.627	0.07
582.818	0.04
583.01	0.01
583.201	0.1
583.392	0.1
583.583	0.07
583.775	0.04
583.966	0.07
584.157	0.06
584.348	0.05
584.54	0.04
584.731	0.1
584.922	0.08
585.113	0.05
585.304	0.08
585.495	0.11
585.686	0.1
585.877	0.12
586.068	0.1
586.259	0.12
586.45	0.11
586.641	0.09
586.832	0.05
587.023	0.13
587.214	0.11
587.405	0.14
587.596	0.09
587.787	0.15
587.978	0.15
588.169	0.12
588.36	0.1
588.551	0.13
588.742	0.12
588.932	0.19
589.123	0.14
589.314	0.16
589.505	0.16
589.696	0.16
589.886	0.14
590.077	0.13
590.268	0.17
590.458	0.14
590.649	0.14
590.84	0.2
591.03	0.14
591.221	0.13
591.412	0.17
591.602	0.22
591.793	0.21
591.984	0.18
592.174	0.2
592.365	0.29
592.555	0.18
592.746	0.25
592.936	0.24
593.127	0.26
593.317	0.26
593.508	0.24
593.698	0.22
593.889	0.24
594.079	0.26
594.269	0.26
594.46	0.24
594.65	0.26
594.84	0.26
595.031	0.28
595.221	0.26
595.411	0.25
595.602	0.31
595.792	0.31
595.982	0.29
596.172	0.37
596.363	0.31
596.553	0.35
596.743	0.34
596.933	0.34
597.123	0.38
597.314	0.34
597.504	0.33
597.694	0.4
597.884	0.39
598.074	0.38
598.264	0.38
598.454	0.41
598.644	0.4
598.834	0.44
599.024	0.38
599.214	0.38
599.404	0.46
599.594	0.45
599.784	0.43
599.974	0.53
600.164	0.52
600.354	0.47
600.544	0.48
600.734	0.5
600.924	0.56
601.114	0.48
601.303	0.55
601.493	0.58
601.683	0.57
601.873	0.61
602.063	0.53
602.252	0.62
602.442	0.57
602.632	0.59
602.821	0.6
603.011	0.68
603.201	0.62
603.39	0.63
603.58	0.65
603.77	0.72
603.959	0.74
604.149	0.74
604.339	0.7
604.528	0.8
604.718	0.75
604.907	0.75
605.097	0.75
605.286	0.79
605.476	0.83
605.665	0.89
605.855	0.85
606.044	0.91
606.234	0.89
606.423	0.91
606.612	0.84
606.802	0.91
606.991	1
607.181	1.03
607.37	0.96
607.559	0.99
607.749	1.01
607.938	1.08
608.127	1.06
608.316	1.09
608.506	1.14
608.695	1.13
608.884	1.14
609.073	1.18
609.263	1.22
609.452	1.26
609.641	1.25
609.83	1.21
610.019	1.3
610.208	1.28
610.397	1.34
610.586	1.38
610.775	1.41
610.965	1.4
611.154	1.43
611.343	1.46
611.532	1.5
611.721	1.55
611.91	1.56
612.099	1.61
612.287	1.64
612.476	1.61
612.665	1.75
612.854	1.73
613.043	1.83
613.232	1.82
613.421	1.82
613.61	1.93
613.798	1.91
613.987	2.04
614.176	2.04
614.365	2.01
614.554	2.11
614.742	2.19
614.931	2.13
615.12	2.27
615.309	2.26
615.497	2.34
615.686	2.29
615.875	2.44
616.063	2.4
616.252	2.49
616.44	2.58
616.629	2.59
616.818	2.62
617.006	2.7
617.195	2.69
617.383	2.8
617.572	2.82
617.76	2.86
617.949	2.92
618.137	3.05
618.326	3.08
618.514	3
618.703	3.06
618.891	3.22
619.079	3.17
619.268	3.29
619.456	3.22
619.644	3.4
619.833	3.44
620.021	3.47
620.209	3.39
620.398	3.55
620.586	3.45
620.774	3.66
620.962	3.67
621.151	3.82
621.339	3.76
621.527	3.74
621.715	3.77
621.903	3.84
622.092	3.84
622.28	3.96
622.468	3.83
622.656	3.99
622.844	3.98
623.032	4.07
623.22	4.03
623.408	4.17
623.596	4.13
623.784	4.21
623.972	4.13
624.16	4.14
624.348	4.17
624.536	4.24
624.724	4.12
624.912	4.16
625.1	4.24
625.288	4.17
625.476	4.12
625.664	4.22
625.851	4.09
626.039	4.11
626.227	4.05
626.415	4.03
626.603	3.94
626.79	3.94
626.978	3.91
627.166	3.9
627.354	3.79
627.541	3.69
627.729	3.58
627.917	3.72
628.104	3.57
628.292	3.46
628.48	3.47
628.667	3.29
628.855	3.3
629.042	3.3
629.23	3.09
629.418	3.04
629.605	3
629.793	2.86
629.98	2.82
630.168	2.7
630.355	2.64
630.543	2.58
630.73	2.43
630.917	2.38
631.105	2.37
631.292	2.22
631.48	2.17
631.667	2.21
631.854	2.01
632.042	1.95
632.229	1.77
632.416	1.83
632.604	1.75
632.791	1.61
632.978	1.63
633.165	1.6
633.353	1.54
633.54	1.51
633.727	1.36
633.914	1.34
634.101	1.22
634.289	1.31
634.476	1.15
634.663	1.13
634.85	1.15
635.037	1.04
635.224	0.98
635.411	1.05
635.598	0.97
635.785	0.91
635.972	0.9
636.159	0.9
636.346	0.8
636.533	0.82
636.72	0.79
636.907	0.72
637.094	0.76
637.281	0.69
637.468	0.69
637.655	0.68
637.842	0.61
638.029	0.61
638.215	0.64
638.402	0.55
638.589	0.5
638.776	0.47
638.963	0.48
639.149	0.52
639.336	0.53
639.523	0.44
639.709	0.45
639.896	0.39
640.083	0.41
640.27	0.43
640.456	0.35
640.643	0.38
640.829	0.27
641.016	0.35
641.203	0.31
641.389	0.34
641.576	0.3
641.762	0.3
641.949	0.25
642.135	0.32
642.322	0.27
642.508	0.18
642.695	0.26
642.881	0.23
643.068	0.25
643.254	0.24
643.441	0.24
643.627	0.22
643.813	0.2
644	0.27
644.186	0.15
644.372	0.13
644.559	0.22
644.745	0.15
644.931	0.12
645.118	0.17
645.304	0.15
645.49	0.11
645.676	0.14
645.862	0.14
646.049	0.17
646.235	0.1
646.421	0.2
646.607	0.18
646.793	0.11
646.979	0.08
647.165	0.13
647.352	0.12
647.538	0.14
647.724	0.1
647.91	0.13
648.096	0.12
648.282	0.12
648.468	0.11
648.654	0.12
648.84	0.08
649.026	0.08
649.212	0.11
649.397	0.07
649.583	0.04
649.769	0.11
649.955	0.07
650.141	0.07
650.327	0.13
650.513	0.01
650.698	0.08
650.884	0.02
651.07	0.05
651.256	0.11
651.442	0.07
651.627	0.05
651.813	0.07
651.999	0.06
652.184	0.08
652.37	0.05
652.556	0.02
652.741	0.08
652.927	-0.01
653.113	0.02
653.298	0.07
653.484	0.01
653.669	0.01
653.855	0.05
654.04	0.04
654.226	0.09
654.412	0.03
654.597	-0.01
654.782	0.04
654.968	0.07
655.153	0.02
655.339	0.02
655.524	-0.01
655.71	0.07
655.895	0.01
656.08	0.02
656.266	0.07
656.451	0.01
656.636	-0.02
656.822	0.03
657.007	0.01
657.192	0.03
657.378	-0.01
657.563	0.03
657.748	0.04
657.933	0.02
658.118	0.02
658.304	-0
658.489	0.05
658.674	0.07
658.859	-0
659.044	0.04
659.229	0.04
659.414	-0
659.599	0.03
659.785	-0.03
659.97	0.01
660.155	0.07
660.34	0.01
660.525	-0
660.71	0.02
660.895	0.03
661.08	0
661.264	-0.02
661.449	0.09
661.634	0.06
661.819	0.02
662.004	0.06
662.189	-0.03
662.374	0
662.559	-0
662.743	-0.03
662.928	0.03
663.113	0.01
663.298	-0.05
663.483	0.02
663.667	0.01
663.852	-0.02
664.037	0.1
664.221	0.01
664.406	0.06
664.591	0.06
664.775	0.01
664.96	-0.04
665.145	0.04
665.329	0.02
665.514	-0.02
665.698	0
665.883	-0.05
666.068	0.04
666.252	0
666.437	-0.02
666.621	0.02
666.806	0.06
666.99	0.02
667.174	-0.04
667.359	0.06
667.543	-0.03
667.728	0.01
667.912	-0.06
668.096	0.02
668.281	-0.01
668.465	0.02
668.649	0
668.834	-0.02
669.018	0.01
669.202	0
669.387	-0.02
669.571	0.03
669.755	-0.02
669.939	0.01
670.124	0
670.308	0.08
670.492	0.05
670.676	0
670.86	0
671.044	0
671.228	0.02
671.413	-0.02
671.597	-0.03
671.781	-0.01
671.965	0.03
672.149	0.03
672.333	-0.02
672.517	-0.02
672.701	0.02
672.885	-0.02
673.069	-0.07
673.253	0.04
673.437	-0.01
673.621	-0.01
673.804	-0
673.988	-0.01
674.172	0.03
674.356	-0.1
674.54	-0.04
674.724	0.05
674.908	-0.01
675.091	0.06
675.275	0
675.459	0.06
675.643	0.02
675.826	0.01
676.01	0.03
676.194	0.04
676.377	0.02
676.561	0.05
676.745	0.02
676.928	0.01
677.112	0.06
677.296	-0.05
677.479	-0.01
677.663	-0.04
677.846	0.02
678.03	-0.01
678.213	0
678.397	0.04
678.58	0.01
678.764	-0.03
678.947	-0.07
679.131	0.04
679.314	0.02
679.498	0.01
679.681	0.06
679.865	0.01
680.048	0
680.231	-0.02
680.415	-0
680.598	-0.02
680.781	-0.05
680.965	-0.01
681.148	0.04
681.331	-0
681.514	0
681.698	-0.02
681.881	0.03
682.064	0.01
682.247	0.01
682.43	-0.06
682.614	0.01
682.797	0.07
682.98	0.07
683.163	-0.09
683.346	0.04
683.529	0.02
683.712	-0.04
683.895	0.04
684.078	-0.02
684.261	-0.06
684.444	0.06
684.627	0.05
684.81	-0.04
684.993	-0.02
685.176	0.02
685.359	-0.03
685.542	-0.04
685.725	0.05
685.908	-0.02
686.091	-0.01
686.274	0.08
686.457	0.01
686.639	0
686.822	0.04
687.005	0.05
687.188	0.05
687.371	0.04
687.553	-0
687.736	0.02
687.919	0.02
688.102	0.04
688.284	-0.05
688.467	0.01
688.65	0.02
688.832	0.01
689.015	0.05
689.197	-0.05
689.38	0.07
689.563	0.12
689.745	-0.03
689.928	-0.02
690.11	0
690.293	0.03
690.475	-0.03
690.658	-0.02
690.84	-0.06
691.023	-0.01
691.205	-0.02
691.388	0.01
691.57	0.02
691.752	0.04
691.935	-0.09
692.117	0.02
692.3	0.01
692.482	0.01
692.664	-0.01
692.847	0.01
693.029	0.1
693.211	-0
693.393	-0
693.576	0.01
693.758	0.03
693.94	-0.03
694.122	-0.01
694.304	0.01
694.487	-0.02
694.669	0.08
694.851	-0.04
695.033	0.05
695.215	-0.02
695.397	-0.02
695.579	0.07
695.761	-0.02
695.943	-0.07
696.125	0.05
696.308	0.03
696.49	-0.12
696.671	0.1
696.853	0.01
697.035	0.08
697.217	-0.03
697.399	0.02
697.581	-0.06
697.763	-0.03
697.945	-0.1
698.127	0.02
698.309	-0.01
698.491	0.03
698.672	-0.06
698.854	0.03
699.036	0.08
699.218	0.01
699.399	0.02
699.581	0
699.763	-0
699.945	-0.06
700.126	-0.04
700.308	-0.02
700.49	-0.03
700.671	-0.08
700.853	-0.03
701.035	-0.06
701.216	0.02
701.398	-0.03
701.579	-0
701.761	0.02
701.943	-0.07
702.124	-0.07
702.306	0.01
702.487	0.1
702.669	-0.02
702.85	-0.05
703.031	-0.09
703.213	0.08
703.394	0.04
703.576	-0.06
703.757	0.03
703.938	0.06
704.12	0.11
704.301	0.07
704.483	-0.01
704.664	0.02
704.845	0.11
705.026	0.04
705.208	-0.01
705.389	0.02
705.57	0.04
705.751	-0.09
705.933	-0.05
706.114	0.07
706.295	0
706.476	-0.04
706.657	0.07
706.838	0
707.02	0.01
707.201	-0.05
707.382	-0.07
707.563	0.06
707.744	-0.03
707.925	-0.05
708.106	-0.02
708.287	0.02
708.468	0.06
708.649	0.05
708.83	0.02
709.011	-0.03
709.192	-0.02
709.373	-0.03
709.554	-0.01
709.734	0.05
709.915	0.03
710.096	-0.01
710.277	-0.12
710.458	0.01
710.639	0.05
710.819	-0.07
711	0.02
711.181	0.06
711.362	0.08
711.542	0.04
711.723	-0.04
711.904	0.05
712.085	0.02
712.265	0.02
712.446	-0.13
712.627	-0.02
712.807	-0.02
712.988	0.03
713.168	-0.09
713.349	0.05
713.53	-0.13
713.71	-0.06
713.891	-0.07
714.071	-0.02
714.252	-0.02
714.432	-0.03
714.613	-0.09
714.793	-0
714.974	0.09
715.154	0.05
715.334	-0.03
715.515	0.03
715.695	0
715.876	-0.03
716.056	-0
716.236	-0.08
716.417	-0.06
716.597	-0.04
716.777	0.08
716.957	-0.02
717.138	0.03
717.318	0.05
717.498	-0.03
717.678	-0
717.859	-0.01
718.039	-0.08
718.219	0.1
718.399	0.11
718.579	-0.03
718.759	-0.03
718.939	0
719.12	0.04
719.3	0.01
719.48	-0.12
719.66	-0.13
719.84	0.09
720.02	-0.01
720.2	-0
720.38	-0.01
720.56	0.09
720.74	-0.06
720.92	0.02
721.1	0.09
721.279	0.03
721.459	0.01
721.639	-0.17
721.819	-0
721.999	-0.06
722.179	0.01
722.359	-0.07
722.538	0.01
722.718	0.04
722.898	-0.08
723.078	-0.02
723.257	-0.03
723.437	-0.02
723.617	0.01
723.797	-0.04
723.976	-0.02
724.156	0.1
724.336	0.04
724.515	0.08
724.695	-0.08
724.874	-0.03
725.054	0.01
725.234	-0.07
725.413	0.05
725.593	-0.02
725.772	-0.04
725.952	-0.11
726.131	0.01
726.311	-0.01
726.49	0.02
726.67	-0.05
726.849	-0.01
727.028	-0.05
727.208	-0.05
727.387	0.03
727.567	-0.07
727.746	-0.04
727.925	-0.02
728.105	-0.11
728.284	-0.1
728.463	-0.06
728.643	0.02
728.822	-0.04
729.001	-0.06
729.18	-0
729.359	-0.03
729.539	-0.04
729.718	0.07
729.897	0.1
730.076	-0
730.255	-0.11
730.434	-0.02
730.614	0.08
730.793	-0.01
730.972	-0.02
731.151	-0.03
731.33	0.05
731.509	0.01
731.688	0.06
731.867	0.03
732.046	-0.15
732.225	0.17
732.404	-0.09
732.583	-0.08
732.762	0.01
732.941	0.03
733.12	-0.03
733.298	-0.11
733.477	0.09
733.656	0.03
733.835	-0.07
734.014	0.05
734.193	-0
734.371	0.08
734.55	-0.02
734.729	-0.07
734.908	0.05
735.086	-0.06
735.265	0.06
735.444	-0.19
735.623	-0.16
735.801	-0.07
735.98	-0.09
736.159	-0.03
736.337	0.02
736.516	-0.02
736.694	0.06
736.873	-0.09
737.052	0.11
737.23	0.07
737.409	-0.1
737.587	0.15
737.766	-0.17
737.944	-0.19
738.123	0.08
738.301	-0
738.479	-0.03
738.658	0.05
738.836	-0.24
739.015	0.09
739.193	0.1
739.371	-0.07
739.55	-0.06
739.728	-0.15
739.906	0.13
740.085	0.11
740.263	-0.01
740.441	-0.06
740.62	0.26
740.798	0.08
740.976	-0.08
741.154	-0.13
741.332	0.16
741.511	0.07
741.689	0.09
741.867	0.07
742.045	0.01
742.223	-0.05
742.401	-0.16
742.579	-0.1
742.757	0.08
742.935	-0.09
743.114	-0.03
743.292	0.06
743.47	0.01
743.648	0.06
743.826	0.02
744.004	0.08
744.181	0.08
744.359	-0.06
744.537	0.05
744.715	-0.07
744.893	-0.01
745.071	0.04
745.249	-0.14
745.427	-0.02
745.605	0.03
745.782	-0
745.96	0.03
746.138	0.03
746.316	-0.03
746.493	-0.06
746.671	-0.01
746.849	-0.02
747.027	0.05
747.204	-0.11
747.382	0.02
747.56	-0.11
747.737	-0.11
747.915	-0.07
748.093	0.08
748.27	-0.09
748.448	-0.04
748.625	-0.1
748.803	-0.01
748.98	0.01
749.158	0.02
749.335	-0.05
749.513	0.04
749.69	-0.07
749.868	-0.02
750.045	-0.02
750.223	-0.02
750.4	-0.22
750.578	0.16
750.755	0.06
750.932	-0.18
751.11	0.1
751.287	-0.15
751.464	0.02
751.642	-0.1
751.819	0.09
751.996	0.04
752.173	-0.07
752.351	-0.11
752.528	0.04
752.705	-0.03
752.882	-0.16
753.06	-0.01
753.237	-0
753.414	0.08
753.591	0.19
753.768	-0.05
753.945	0.03
754.122	-0.08
754.299	-0.02
754.476	0.03
754.654	0.08
754.831	0.12
755.008	-0.08
755.185	0
755.362	-0.08
755.539	-0.01
755.716	-0.17
755.892	0.01
756.069	-0.1
756.246	0.02
756.423	0.04
756.6	0.14
756.777	0.04
756.954	0.05
757.131	0.14
757.307	0.05
757.484	0.01
757.661	-0.01
757.838	-0.07
758.015	-0.06
758.191	-0.02
758.368	-0.01
758.545	0.15
758.721	-0.02
758.898	-0.03
759.075	-0.02
759.251	0.03
759.428	0.05
759.605	-0.07
759.781	0
759.958	-0.01
760.134	0.01
760.311	-0.08
760.488	0.13
760.664	0.06
760.841	0.01
761.017	-0.14
761.194	0.09
761.37	0
761.547	-0.09
761.723	-0.04
761.899	0.14
762.076	-0.15
762.252	-0.1
762.429	-0.07
762.605	0.08
762.781	-0.06
762.958	0.05
763.134	-0.02
763.31	-0
763.486	0.12
763.663	-0.02
763.839	0.09
764.015	-0.13
764.191	0.08
764.368	-0.05
764.544	0.01
764.72	0.07
764.896	0.06
765.072	0.04
765.248	-0.06
765.425	-0.05
765.601	0.03
765.777	0.06
765.953	-0.09
766.129	-0.08
766.305	0.04
766.481	0.04
766.657	-0.09
766.833	0.06
767.009	-0.08
767.185	0
767.361	0.07
767.537	-0.11
767.713	0.19
767.889	-0.14
768.065	0.02
768.24	-0.24
768.416	0.04
768.592	-0.11
768.768	-0.13
768.944	-0.01
769.12	-0.07
769.295	-0.04
769.471	-0.02
769.647	-0.22
769.823	0.12
769.998	-0.13
770.174	-0.1
770.35	0.2
770.525	0.26
770.701	0.05
770.877	-0.08
771.052	-0.04
771.228	0.09
771.403	0.04
771.579	-0.06
771.755	0.28
771.93	-0.04
772.106	-0.14
772.281	-0.17
772.457	0.01
772.632	-0.08
772.808	-0.17
772.983	-0.03
773.159	-0.17
773.334	0.2
773.509	0.01
773.685	-0.04
773.86	0.34
774.036	0.2
774.211	0.06
774.386	-0.13
774.562	-0.18
774.737	0.26
774.912	-0.07
775.087	0.14
775.263	-0.04
775.438	-0.04
775.613	-0.17
775.788	0.06
775.964	-0.09
776.139	0.38
776.314	-0.33
776.489	0.14
776.664	0.06
776.839	-0.1
777.014	0.16
777.19	0.15
777.365	0.23
777.54	0.17
777.715	0.04
777.89	-0.08
778.065	-0.11
778.24	-0
778.415	0.14
778.59	-0.11
778.765	-0.16
778.94	0.15
779.115	0.02
779.289	0.02
779.464	0.1
779.639	0.03
779.814	-0.1
779.989	-0.16
780.164	0.21
780.339	0.08
780.513	-0.19
780.688	-0.2
780.863	-0.14
781.038	-0.01
781.212	-0.16
781.387	-0.08
781.562	0.04
781.737	-0.13
781.911	0.15
782.086	-0.05
782.261	-0.09
782.435	0.18
782.61	-0.07
782.784	-0.07
782.959	0.14
783.134	-0.03
783.308	-0.22
783.483	-0.09
783.657	0.38
783.832	0.03
784.006	-0.23
784.181	-0.02
784.355	0.22
784.53	-0.13
784.704	-0.07
784.878	0.2
785.053	0.01
785.227	0.09
785.402	0.3
785.576	-0.26
785.75	-0.01
785.925	-0.17
786.099	0.13
786.273	-0.01
786.448	0.03
786.622	0.09
786.796	0.09
786.97	-0.16
787.145	0.45
787.319	-0.24
787.493	-0.26
787.667	-0.36
787.841	-0.02
788.015	0.1
788.19	-0.05
788.364	-0.07
788.538	0.18
788.712	0.12
788.886	-0.08
789.06	0.12
789.234	0.17
789.408	-0.16
789.582	-0.31
789.756	0.05
789.93	-0.27
790.104	-0.02
790.278	-0
790.452	-0.2
790.626	0.17
790.8	-0.04
790.973	0.19
791.147	0.03
791.321	0.31
791.495	0.09
791.669	-0.01
791.843	0.1
792.016	0.02
792.19	0.4
792.364	-0.18
792.538	0.51
792.711	0.34
792.885	-0.07
793.059	-0.22
793.233	-0.49
793.406	0.31
793.58	0.2
793.754	0.14
793.927	0.09
794.101	0.27
794.274	-0
794.448	0.16
794.622	-0.25
794.795	0.4
794.969	-0.44
795.142	0.25
795.316	-0.27
795.489	-0.03
795.663	0.29
795.836	-0.3
796.009	-0.1
796.183	0.22
796.356	0.14
796.53	0.1
796.703	0.12
796.876	0.48
797.05	-0.12
797.223	0.1
797.396	0.16
797.57	-0.11
797.743	0.2
797.916	0.13
798.09	0.17
798.263	0.09
798.436	0.14
798.609	-0.11
798.782	-0.16
798.956	0.24
799.129	0.11
799.302	0.1
799.475	-0
799.648	-0.44
799.821	-0.22
799.994	0.05
800.167	-0.38
800.34	-0.33
800.514	-0.01
800.687	0.06
800.86	-0.04
801.033	-0
801.206	0.23
801.379	-0.16
801.551	0.2
801.724	-0.04
801.897	0.3
802.07	-0.15
802.243	-0.38
802.416	0.12
802.589	-0.22
802.762	0.24
802.935	-0.06
803.107	0.4
803.28	0.38
803.453	0.16
803.626	-0.01
803.798	0.45
803.971	0.04
804.144	-0.06
804.317	0.35
804.489	0.33
804.662	-0.01
804.835	-0.13
805.007	-0.46
805.18	0.23
805.353	0.09
805.525	-0.31
805.698	-0.29
805.87	0.05
806.043	0.22
806.215	-0.08
806.388	-0.2
806.56	0.1
806.733	0.22
806.905	0.32
807.078	-0.27
807.25	-0.25
807.423	0.25
807.595	-0.19
807.768	-0.07
807.94	0.23
808.112	0.03
808.285	0.05
808.457	-0.02
808.629	0.02
808.802	0.23
808.974	-0.14
809.146	-0.25
809.318	-0.4
809.491	0.11
809.663	0.27
809.835	-0.17
810.007	0.14
810.18	-0.12
810.352	-0.33
810.524	-0.08
810.696	-0.08
810.868	0.32
811.04	-0.08
811.212	0.11
811.384	0.37
811.556	-0.02
811.728	0.19
811.901	0.79
812.073	-0.14
812.245	-0.09
812.417	-0.15
812.589	-0.28
812.76	0.51
812.932	-0.18
813.104	0.21
813.276	-0.03
813.448	0.35
813.62	0.16
813.792	0.19
813.964	-0.14
814.136	-0.15
814.307	-0.2
814.479	-0.16
814.651	0.19
814.823	0.58
814.995	-0.03
815.166	0.32
815.338	-0.23
815.51	-0.71
815.681	1.08
815.853	0.37
816.025	-0.24
816.196	0.35
816.368	0.37
816.54	-0.68
816.711	0.1
816.883	0.52
817.054	0.94
817.226	-0.47
817.398	0.21
817.569	-0.28
817.741	0.08
817.912	-0
818.084	0.14
818.255	0.05
818.426	0.15
818.598	0.25
818.769	-0.57
818.941	-0.07
819.112	0.19
819.283	-0.16
819.455	-0.09
819.626	-0.24
819.798	-0.02
819.969	0.11
820.14	0.05
820.311	-0.06
820.483	0.37
820.654	0.35
820.825	0.1
820.996	-0.13
821.168	-0.54
821.339	0.08
821.51	-0
821.681	0.07
821.852	0.17
822.023	-0.19
822.195	-0.56
822.366	0.14
822.537	0.23
822.708	-0.1
822.879	-0.1
823.05	0.58
823.221	-0.01
823.392	0.44
823.563	-0.25
823.734	0.12
823.905	-0.12
824.076	-0.27
824.247	0.04
824.418	-0.32
824.589	0.82
824.759	-0.25
824.93	0.04
825.101	0.27
825.272	0.12
825.443	0.4
825.614	0.11
825.784	-0.76
825.955	1.07
826.126	0.45
826.297	-0.45
826.467	0.63
826.638	0.01
826.809	-0.5
826.98	0.14
827.15	-0.22
827.321	-0.37
827.492	0.59
827.662	-0.02
827.833	0.79
828.003	-0.26
828.174	-0.5
828.345	-0.64
828.515	0.52
828.686	-0.05
828.856	-0.2
829.027	0.14
829.197	0.2
829.368	0.59
829.538	-0.09
829.709	-0.09
829.879	0.25
830.049	0.35
830.22	-0.33
830.39	-0.06
830.56	0.39
830.731	-0.28
830.901	-0.25
831.072	-0.23
831.242	0.27
831.412	-0.03
831.582	-0.32
831.753	-0.53
831.923	0.63
832.093	0.09
832.263	-0.34
832.434	-0.59
832.604	-0.43
832.774	0.33
832.944	-0.63
833.114	-0.21
833.284	0.78
833.454	-0.64
833.624	-0.5
833.795	-0.1
833.965	0.81
834.135	0.44
834.305	-0.88
834.475	-0.37
834.645	-0.15
834.815	-0.92
834.985	-0.33
835.155	-0.82
835.325	0.43
835.494	-0.01
835.664	-0.41
835.834	-0.56
836.004	0.53
836.174	0.15
836.344	-0.17
836.514	-0.32
836.684	0.7
836.853	0.17
837.023	0.15
837.193	0.2
837.363	0.6
837.532	0.58
837.702	-0.62
837.872	-0.55
838.041	0.3
838.211	0.95
838.381	-0.38
838.55	0.03
838.72	1.11
838.89	0.93
839.059	0.61
839.229	-0.63
839.398	0.24
839.568	0.08
839.738	0.15
839.907	0.77
840.077	0.57
840.246	-0.17
840.416	-0.49
840.585	-0.48
840.755	0.7
840.924	0.56
841.093	-0.99
841.263	0.11
841.432	0.69
841.602	-1.32
841.771	-0.49
841.94	-0.02
842.11	1.34
842.279	0.85
842.448	-1.43
842.617	-0.42
842.787	1.12
842.956	-0.41
843.125	-0.32
843.294	0.47
843.464	0.32
843.633	0.25
843.802	-0.68
843.971	-0.1
844.14	0.31
844.309	1.16
844.479	-1.18
844.648	-0.71
844.817	-0.04
844.986	0.36
845.155	-0.8
845.324	0.22
845.493	-0.61
845.662	-0.51
845.831	0.41
846	0.24
846.169	-0.25
846.338	1.24
846.507	0.26
846.676	0.44
846.844	-0.45
847.013	0.75
847.182	-1.26
847.351	-0.86
847.52	-0.36
847.689	-0.01
847.858	-0.37
848.026	-0.65
848.195	0.13
848.364	-0.46
848.533	-0.6
848.701	-0.67
848.87	0.21
849.039	0
849.207	0.63
849.376	1.6
849.545	0.57
849.713	-0.62
849.882	0.43
850.051	0.55
850.219	0.76
850.388	0.17
850.556	-1.44
850.725	-0.32
850.893	0.49
851.062	0.52
851.23	0.13
851.399	-0.48
851.567	-1.46
851.736	-0.44
851.904	-1.18
852.073	0.12
852.241	1.12
852.41	0.24
852.578	-0.69
852.746	-0.48
852.915	-0.09
853.083	-0.54
853.251	-1.29
853.42	-0.6
853.588	-0.93
853.756	0.96
853.924	-0.04
854.093	-0.19
854.261	-0.24
854.429	-1.06
854.597	-0.03
854.765	-0.23
854.934	-0.16
855.102	1.7
855.27	0.39
855.438	1.42
855.606	0.81
855.774	1.13
855.942	-1.61
856.11	-1.43
856.278	0.55
856.446	0.69
856.614	0.03
856.782	-0.44
856.95	1.33
857.118	1.73
857.286	0.39
857.454	-0.8
857.622	0.65
857.79	-0.04
857.958	-1.54
858.126	-0.13
858.294	-2.67
858.462	0.66
858.629	-0.05
858.797	-2
858.965	-0.34
859.133	0.49
859.301	-0.21
859.468	-0.45
859.636	-0.5
859.804	0.6
859.971	0.43
860.139	-0.98
860.307	1.52
860.474	1.07
860.642	-1.53
860.81	-0.96
860.977	-0.18
861.145	0.31
861.313	-0.58
861.48	0.75
861.648	0.24
861.815	0.17
861.983	-0.38
862.15	0.27
862.318	0.07
862.485	1.38
862.653	-2.25
862.82	-1.39
862.988	0.88
863.155	1.01
863.322	-0.01
863.49	-2.15
863.657	-0.53
863.824	1.7
863.992	1.29
864.159	-0.44
864.326	0.2
864.494	0.06
864.661	3.38
864.828	-1.05
864.996	1.36
865.163	2.3
865.33	-1.19
865.497	-1.63
865.664	0.15
865.832	-1.33
865.999	-0.9
866.166	-1.09
866.333	0.08
866.5	0.44
866.667	-0.63
866.834	-0.58
867.001	1.69
867.168	-0.52
867.335	1.07
867.502	-1.36
867.669	-0.14
867.836	1.68
868.003	-0.54
868.17	0.88
868.337	0.24
868.504	1.87
868.671	0.02
868.838	-0.99
869.005	0.96
869.172	0.71
869.339	-0.48
869.505	-0.81
869.672	-0.85
869.839	2.9
870.006	1.03
870.173	-2.03
870.339	0.29
870.506	1.58
870.673	-1.7
870.84	0.87
871.006	-0.99
871.173	-0.17
871.34	-0.52
871.506	-1.2
871.673	1.84
871.839	-2.62
872.006	1.43
872.173	0.38
872.339	0.43
872.506	1.58
872.672	0.14
872.839	-1.89
873.005	1.07
873.172	0.77
873.338	1.22
873.505	-1.25
873.671	-0.11
873.838	-0.38
874.004	-2.1
874.171	-1.28
874.337	-0.08
874.503	-0.49
874.67	0.92
874.836	-1.32
875.002	1.25
875.169	0.91
875.335	1.37
875.501	-1.68
875.668	1.98
875.834	-0.74
876	0.13
876.166	0.44
876.332	-1.91
876.499	2.57
876.665	0.64
876.831	0.08
876.997	1.56
877.163	0.61
877.329	-1
877.495	-0.14
877.662	0.76
877.828	2.75
877.994	0.52
878.16	-2.82
878.326	-0.7
878.492	0.19
878.658	1.36
878.824	-1.31
878.99	0.95
879.156	-0.55
879.322	2.92
879.487	-0.44
879.653	1.18
879.819	-0.78
879.985	-1.35
880.151	-0.98
880.317	0.47
880.483	1.07
880.648	1.37
880.814	-2.42
880.98	1.11
881.146	-2
881.312	-1.12
881.477	0.55
881.643	-0.03
881.809	0.68
881.974	1.4
882.14	-1.72
882.306	3.58
882.471	4.06
882.637	-1.18
882.803	0.59
882.968	2.61
883.134	1.11
883.299	-0.98
883.465	1.2
883.63	0.4
883.796	-0.81
883.961	0.51
884.127	1.94
884.292	-3.45
884.458	-0.68
884.623	-0.68
