Data from Apollo_Calib_20240827__AbsoluteIrradiance__730__11-19-00-698.txt Node

Date: Wed Aug 28 11:19:00 BST 2024
User: biology
Spectrometer: FLMT08252
Trigger mode: 0
Integration Time (sec): 5.000000E-1
Scans to average: 5
Electric dark correction enabled: true
Nonlinearity correction enabled: false
Boxcar width: 0
XAxis mode: Wavelengths
Number of Pixels in Spectrum: 3648
>>>>>Begin Spectral Data<<<<<
179.588	-0
179.809	-0
180.03	-0
180.251	-0
180.473	-0
180.694	0
180.915	0
181.136	-0
181.357	0
181.578	0
181.799	-0
182.02	-0
182.241	0
182.462	-0
182.683	0
182.904	-0
183.125	-0
183.346	0
183.567	0
183.788	0
184.009	0
184.23	0
184.451	0
184.672	0
184.892	-0
185.113	0
185.334	0
185.555	0
185.776	0
185.996	0
186.217	0
186.438	0
186.659	-0
186.879	0
187.1	0
187.321	0
187.541	0
187.762	0
187.983	0
188.203	0
188.424	0
188.644	0
188.865	0
189.086	0
189.306	0
189.527	0
189.747	0
189.968	0
190.188	0
190.409	0
190.629	0
190.849	0
191.07	0
191.29	0
191.511	0
191.731	0
191.951	-0
192.172	0
192.392	0
192.612	0
192.833	0
193.053	0
193.273	0
193.493	0
193.714	0
193.934	0
194.154	0
194.374	0
194.594	0
194.815	0
195.035	0
195.255	0
195.475	0
195.695	0
195.915	0
196.135	0
196.355	0
196.575	0
196.795	0
197.015	0
197.235	0
197.455	0
197.675	0
197.895	0
198.115	0
198.335	0
198.555	0
198.775	0
198.995	0
199.214	0
199.434	0
199.654	-0
199.874	0
200.094	1.89
200.313	1.22
200.533	0.55
200.753	0.13
200.973	1.36
201.192	1.56
201.412	-0.16
201.632	0.91
201.851	1.71
202.071	-0.02
202.291	0.34
202.51	0.05
202.73	0.86
202.95	0.66
203.169	0.14
203.389	0.56
203.608	0.93
203.828	0.35
204.047	0.21
204.267	1.01
204.486	0.75
204.706	0.94
204.925	0.81
205.145	0.05
205.364	1.06
205.583	1.16
205.803	0.11
206.022	0.15
206.242	0.5
206.461	0.89
206.68	0.19
206.9	0.79
207.119	1.23
207.338	1.31
207.557	0.17
207.777	0.37
207.996	0.21
208.215	1.15
208.434	0.38
208.654	0.16
208.873	0.39
209.092	1.1
209.311	0.29
209.53	0.21
209.749	-0.06
209.968	0.31
210.187	0.43
210.407	0.02
210.626	0.24
210.845	0.6
211.064	0.23
211.283	0.05
211.502	0.71
211.721	0.38
211.94	0.22
212.159	0.63
212.377	0.71
212.596	0.8
212.815	0.44
213.034	0.34
213.253	0.72
213.472	0.44
213.691	-0.14
213.91	0.28
214.128	0.25
214.347	0.6
214.566	-0.08
214.785	-0.13
215.003	0.51
215.222	0.53
215.441	0.38
215.66	0.12
215.878	0.37
216.097	0.33
216.316	0.14
216.534	0.12
216.753	0.47
216.972	0.42
217.19	0.26
217.409	0.11
217.627	0.28
217.846	0.23
218.064	0.23
218.283	-0.02
218.501	0.81
218.72	0.51
218.938	0.25
219.157	0.14
219.375	0.42
219.594	0.56
219.812	0.15
220.031	0.16
220.249	0.57
220.467	0.48
220.686	0.06
220.904	0.11
221.122	0.09
221.341	0.65
221.559	0.23
221.777	0.02
221.995	0.34
222.214	0.42
222.432	0.05
222.65	0.44
222.868	0.2
223.086	0.22
223.305	0.43
223.523	0.22
223.741	0.6
223.959	0.19
224.177	-0.03
224.395	0.22
224.613	0.25
224.831	0.48
225.049	0.16
225.267	0.09
225.485	0.33
225.703	0.1
225.921	0.19
226.139	0.1
226.357	0.37
226.575	0.24
226.793	0.14
227.011	0.76
227.229	0.34
227.447	0.48
227.665	0.17
227.883	0.09
228.1	0.19
228.318	0.23
228.536	0.01
228.754	0.1
228.972	0.23
229.189	0.3
229.407	0.15
229.625	0.14
229.843	0.32
230.06	0.35
230.278	0.19
230.496	0.18
230.713	0.14
230.931	0.37
231.149	0.22
231.366	0
231.584	0.23
231.801	0.48
232.019	0.12
232.236	0.07
232.454	0.09
232.671	0.23
232.889	0.19
233.106	0.03
233.324	0.14
233.541	0.08
233.759	0.14
233.976	0.14
234.194	0.21
234.411	0.26
234.628	0.03
234.846	0.25
235.063	0.23
235.28	0.13
235.498	0.16
235.715	0.03
235.932	0.35
236.149	0.2
236.367	0.17
236.584	0.21
236.801	0.14
237.018	0.22
237.236	0.23
237.453	0.01
237.67	0.23
237.887	0.15
238.104	0.08
238.321	0.13
238.538	0.11
238.755	0.28
238.973	0.02
239.19	0.2
239.407	0.2
239.624	0.17
239.841	0.02
240.058	0.07
240.275	0.2
240.492	0.18
240.709	0.19
240.925	0.15
241.142	0.21
241.359	0.02
241.576	0.14
241.793	0.13
242.01	0.23
242.227	0.24
242.444	0.18
242.66	0.22
242.877	0.11
243.094	0.07
243.311	0.17
243.527	0.13
243.744	0.2
243.961	0.25
244.178	0.12
244.394	0.1
244.611	0.18
244.828	0.32
245.044	0.11
245.261	0.17
245.477	0.18
245.694	0.28
245.911	0.1
246.127	0.19
246.344	0.28
246.56	0.24
246.777	0.12
246.993	0.17
247.21	0.17
247.426	0.16
247.643	0.08
247.859	0.07
248.076	0.21
248.292	0.4
248.508	0.06
248.725	0.19
248.941	0.21
249.157	0.25
249.374	0.15
249.59	0.12
249.806	0.17
250.023	0.3
250.239	0.12
250.455	0.14
250.671	0.22
250.888	0.22
251.104	0.19
251.32	0.05
251.536	0.17
251.752	0.14
251.969	0.18
252.185	0.11
252.401	0.33
252.617	0.14
252.833	0.13
253.049	0.19
253.265	0.07
253.481	0.15
253.697	-0
253.913	0.08
254.129	0.15
254.345	0.14
254.561	0.09
254.777	0.18
254.993	0.12
255.209	0.23
255.425	0.09
255.641	0.14
255.857	0.26
256.073	0.2
256.288	-0.01
256.504	0.07
256.72	0.23
256.936	0.27
257.152	0.14
257.367	0.09
257.583	0.15
257.799	0.25
258.015	0.07
258.23	0.11
258.446	0.26
258.662	0.16
258.877	0.06
259.093	0.02
259.309	0.1
259.524	0.12
259.74	0.15
259.955	-0.04
260.171	0.18
260.387	0.16
260.602	0.17
260.818	0.12
261.033	0.08
261.249	0.08
261.464	0.06
261.68	0.03
261.895	0.16
262.11	0.27
262.326	0.15
262.541	-0.03
262.757	0.19
262.972	0.1
263.187	0.2
263.403	0.09
263.618	0.21
263.833	0.17
264.049	0.07
264.264	0.11
264.479	0.13
264.694	0.21
264.91	0.02
265.125	0.11
265.34	0.22
265.555	0.33
265.77	0.17
265.986	0.12
266.201	0.18
266.416	0.21
266.631	0.08
266.846	0.12
267.061	0.2
267.276	0.15
267.491	-0
267.706	0.08
267.921	0.18
268.136	0.12
268.351	0.07
268.566	0.02
268.781	0.23
268.996	0.13
269.211	0.11
269.426	0.07
269.641	0.07
269.856	0.15
270.071	0.07
270.285	0.04
270.5	0.17
270.715	0.12
270.93	0.14
271.145	0.14
271.359	0.17
271.574	0.03
271.789	0.15
272.004	0.09
272.218	0.1
272.433	0.2
272.648	0.05
272.862	0.19
273.077	0.13
273.292	0.14
273.506	0.07
273.721	0.08
273.936	0.16
274.15	0.15
274.365	0.14
274.579	0.17
274.794	0.24
275.008	0.23
275.223	0.03
275.437	0.14
275.652	0.13
275.866	0.16
276.081	0.12
276.295	0.14
276.509	0.1
276.724	0.12
276.938	0.07
277.153	0.15
277.367	0.17
277.581	0.03
277.796	0.1
278.01	0.04
278.224	0.18
278.438	0.23
278.653	0.07
278.867	0.08
279.081	-0.09
279.295	0.08
279.51	0.12
279.724	-0.02
279.938	0.13
280.152	0.14
280.366	0.11
280.58	0.12
280.794	0.19
281.008	0.08
281.222	0.19
281.437	0.26
281.651	0.17
281.865	0.16
282.079	0.08
282.293	0.02
282.507	0.03
282.721	0.09
282.935	0.05
283.148	0.02
283.362	0.07
283.576	0.07
283.79	0.12
284.004	0.05
284.218	0.2
284.432	0.1
284.646	0.1
284.859	0.1
285.073	0.07
285.287	0.13
285.501	0.09
285.714	0.11
285.928	0.06
286.142	0.18
286.356	0.07
286.569	0.1
286.783	0.19
286.997	0.15
287.21	0.13
287.424	0.11
287.637	0.12
287.851	0.1
288.065	0.13
288.278	0.11
288.492	0.13
288.705	0.14
288.919	0.16
289.132	-0.02
289.346	0.2
289.559	0.01
289.773	0.07
289.986	0.13
290.2	0.15
290.413	0.19
290.626	0.09
290.84	0.08
291.053	0.07
291.267	0.14
291.48	0.14
291.693	0.13
291.906	0.05
292.12	0.09
292.333	0.09
292.546	0.06
292.76	0.18
292.973	0.11
293.186	0.15
293.399	0.07
293.612	0.12
293.826	0.08
294.039	0.12
294.252	0.11
294.465	0.17
294.678	0.15
294.891	0.12
295.104	0.04
295.317	0.07
295.53	0.13
295.743	0.08
295.956	0.06
296.169	0.16
296.382	0.14
296.595	0.09
296.808	0.03
297.021	0.18
297.234	0.14
297.447	0.12
297.66	0.13
297.873	0.13
298.086	0.14
298.299	0.06
298.511	0.02
298.724	0.06
298.937	0.08
299.15	0.05
299.363	0.14
299.575	0.16
299.788	0.1
300.001	0.09
300.213	0.08
300.426	0.08
300.639	0.06
300.852	0.07
301.064	0.14
301.277	0.2
301.489	0.15
301.702	0.12
301.915	0.12
302.127	0.09
302.34	0.1
302.552	0.14
302.765	0.05
302.977	0.14
303.19	0.06
303.402	0.08
303.615	0.07
303.827	0.07
304.04	0.11
304.252	0.09
304.464	0.13
304.677	0.21
304.889	0.14
305.102	0.06
305.314	0.07
305.526	0.13
305.739	0.15
305.951	0.08
306.163	0.1
306.375	0.17
306.588	0.07
306.8	0.08
307.012	0.03
307.224	0.06
307.436	0.13
307.649	0
307.861	0.07
308.073	0.1
308.285	0.06
308.497	0.07
308.709	0.05
308.921	0.1
309.133	0.13
309.346	0.07
309.558	0.07
309.77	0.12
309.982	0.15
310.194	0.13
310.406	0.04
310.617	0.15
310.829	0.15
311.041	0.12
311.253	0.08
311.465	0.12
311.677	0.1
311.889	0.06
312.101	0.06
312.313	0.16
312.524	0.15
312.736	0.08
312.948	0.01
313.16	0.19
313.372	0.11
313.583	0.1
313.795	0.07
314.007	0.09
314.218	0.13
314.43	0.12
314.642	0.06
314.853	0.05
315.065	0.15
315.277	0.09
315.488	0.08
315.7	0.14
315.912	0.15
316.123	0.05
316.335	0.04
316.546	0.19
316.758	0.07
316.969	0.1
317.181	0.09
317.392	0.09
317.604	0.13
317.815	0.07
318.026	0.09
318.238	0.09
318.449	0.14
318.661	0.04
318.872	0.02
319.083	0.06
319.295	0.12
319.506	0.06
319.717	0.11
319.929	0.14
320.14	0.15
320.351	0.07
320.562	0.1
320.774	0.07
320.985	0.07
321.196	0.07
321.407	0.02
321.618	0.16
321.829	0.07
322.041	0.12
322.252	0.14
322.463	0.12
322.674	0.14
322.885	0.06
323.096	0.07
323.307	0.1
323.518	0.12
323.729	0.06
323.94	0.04
324.151	0.05
324.362	0.11
324.573	0.11
324.784	0.07
324.995	0.18
325.206	0.09
325.417	0.06
325.628	0.08
325.838	0.08
326.049	0.08
326.26	0.14
326.471	0.09
326.682	0.15
326.892	0.08
327.103	0.04
327.314	0.06
327.525	0.13
327.735	0.09
327.946	0.14
328.157	0.07
328.368	0.16
328.578	0.11
328.789	0.12
328.999	0.09
329.21	0.06
329.421	0.13
329.631	0.08
329.842	0.06
330.052	0.1
330.263	0.1
330.473	0.13
330.684	0.07
330.894	0.1
331.105	0.11
331.315	0.07
331.526	0.05
331.736	0.17
331.947	0.14
332.157	0.13
332.367	0.05
332.578	0.13
332.788	0.16
332.999	0.16
333.209	0.12
333.419	0.05
333.629	0.11
333.84	0.11
334.05	0.07
334.26	0.18
334.47	0.09
334.681	0.15
334.891	0.08
335.101	0.13
335.311	0.13
335.521	0.07
335.732	0.05
335.942	0.11
336.152	0.1
336.362	0.11
336.572	0.13
336.782	0.12
336.992	0.06
337.202	0.04
337.412	0.07
337.622	0.13
337.832	0.05
338.042	0.11
338.252	0.07
338.462	0.08
338.672	0.08
338.882	0.09
339.092	0.06
339.302	0.12
339.511	0.14
339.721	0.06
339.931	-0
340.141	0.11
340.351	0.14
340.561	0.09
340.77	0.11
340.98	0.12
341.19	0.14
341.4	0.05
341.609	0.04
341.819	0.09
342.029	0.03
342.238	0.04
342.448	0.07
342.658	0.12
342.867	0.08
343.077	0.08
343.286	0.1
343.496	0.12
343.706	0.18
343.915	0.07
344.125	0.08
344.334	0.08
344.544	-0
344.753	0.09
344.963	0.04
345.172	0.03
345.381	0.05
345.591	0.08
345.8	0.04
346.01	0.15
346.219	0.17
346.428	-0.01
346.638	0.06
346.847	0.07
347.056	0.15
347.266	0.05
347.475	0.07
347.684	0.1
347.893	0.08
348.103	0.14
348.312	0.08
348.521	0.09
348.73	0.1
348.94	0.11
349.149	0.07
349.358	0.08
349.567	0.09
349.776	0.05
349.985	0.07
350.194	0.15
350.403	0.1
350.612	0.02
350.821	0.08
351.03	0.07
351.239	0.03
351.448	0.08
351.657	0.07
351.866	0.2
352.075	0.09
352.284	0.1
352.493	0.04
352.702	0.17
352.911	0.11
353.12	0.13
353.329	0.03
353.538	0.1
353.746	0.11
353.955	0.09
354.164	0.09
354.373	0.06
354.582	0.17
354.79	0.1
354.999	0.12
355.208	0.06
355.416	0.14
355.625	0.07
355.834	0.07
356.042	0.09
356.251	0.06
356.46	0.06
356.668	0.12
356.877	0.13
357.085	0.15
357.294	-0
357.503	0.07
357.711	0.08
357.92	0.19
358.128	0.08
358.337	0.03
358.545	0.08
358.754	0.07
358.962	0.12
359.17	0.08
359.379	0.11
359.587	0.12
359.796	0.08
360.004	0.16
360.212	0.13
360.421	0.16
360.629	0.07
360.837	0.05
361.046	0.1
361.254	0.2
361.462	0.12
361.67	0.09
361.879	0.13
362.087	0.11
362.295	0.17
362.503	0.06
362.711	0.06
362.92	0.06
363.128	0.05
363.336	0.03
363.544	0.05
363.752	0.09
363.96	0.11
364.168	0.06
364.376	0.1
364.584	0.1
364.792	0.1
365	0.1
365.208	0.09
365.416	0.09
365.624	0.12
365.832	0.08
366.04	0.15
366.248	0.11
366.456	0.09
366.664	0.08
366.872	0.11
367.079	0.12
367.287	0.11
367.495	0.1
367.703	0.1
367.911	0.09
368.118	0.05
368.326	0.06
368.534	0.08
368.742	0.14
368.949	0.02
369.157	0.07
369.365	0.12
369.572	0.06
369.78	0.02
369.988	0.13
370.195	0.11
370.403	0.1
370.61	0.08
370.818	0.09
371.026	0.14
371.233	0.05
371.441	0.1
371.648	0.06
371.856	0.14
372.063	0.13
372.271	0.08
372.478	0.1
372.685	0.06
372.893	0.14
373.1	0.08
373.308	0.1
373.515	0.16
373.722	0.11
373.93	0.07
374.137	0.13
374.344	0.17
374.552	0.1
374.759	0.14
374.966	0.1
375.173	0.07
375.381	0.16
375.588	0.06
375.795	0.02
376.002	0.06
376.209	0.06
376.417	0.07
376.624	0.08
376.831	0.11
377.038	0.07
377.245	0.03
377.452	0.08
377.659	0.11
377.866	0.05
378.073	0.08
378.28	0.12
378.487	0.15
378.694	0.13
378.901	0.08
379.108	0.09
379.315	0.14
379.522	0.17
379.729	0.07
379.936	0.08
380.143	0.06
380.35	0.09
380.557	0.1
380.763	0.11
380.97	0.1
381.177	0.11
381.384	0.13
381.591	0.02
381.797	0.12
382.004	0.14
382.211	0.08
382.418	0.05
382.624	0.09
382.831	0.14
383.038	0.11
383.244	0.09
383.451	0.07
383.658	0.13
383.864	0.07
384.071	0.06
384.277	0.17
384.484	0.08
384.69	0.16
384.897	0.06
385.103	0.07
385.31	0.09
385.516	0.09
385.723	0.04
385.929	0.07
386.136	0.06
386.342	0.12
386.549	0.04
386.755	0.16
386.961	0.14
387.168	0.04
387.374	0.1
387.58	0.14
387.787	0.08
387.993	0.13
388.199	0.13
388.406	0.09
388.612	0.09
388.818	0.07
389.024	0.1
389.231	0.12
389.437	0.23
389.643	0.1
389.849	0.11
390.055	0.14
390.261	0.12
390.467	0.11
390.674	0.06
390.88	0.14
391.086	0.13
391.292	0.05
391.498	0.12
391.704	0.15
391.91	0.11
392.116	0.1
392.322	0.06
392.528	0.11
392.734	0.12
392.94	0.12
393.146	0.06
393.352	0.11
393.557	0.06
393.763	0.08
393.969	0.13
394.175	0.11
394.381	0.15
394.587	0.04
394.792	0.07
394.998	0.17
395.204	0.19
395.41	0.07
395.615	0.11
395.821	0.12
396.027	0.1
396.233	0.07
396.438	0.14
396.644	0.15
396.85	0.16
397.055	0.08
397.261	0.13
397.466	0.07
397.672	0.13
397.878	0.16
398.083	0.12
398.289	0.1
398.494	0.2
398.7	0.12
398.905	0.05
399.111	0.2
399.316	0.08
399.522	0.09
399.727	0.11
399.932	0.1
400.138	0.15
400.343	0.17
400.549	0.1
400.754	0.13
400.959	0.12
401.165	0.13
401.37	0.16
401.575	0.08
401.78	0.13
401.986	0.1
402.191	0.1
402.396	0.14
402.601	0.16
402.807	0.17
403.012	0.14
403.217	0.16
403.422	0.18
403.627	0.14
403.832	0.1
404.037	0.14
404.243	0.13
404.448	0.11
404.653	0.14
404.858	0.18
405.063	0.17
405.268	0.11
405.473	0.1
405.678	0.15
405.883	0.3
406.088	0.2
406.293	0.12
406.498	0.12
406.703	0.2
406.907	0.11
407.112	0.06
407.317	0.16
407.522	0.21
407.727	0.1
407.932	0.21
408.136	0.23
408.341	0.18
408.546	0.2
408.751	0.2
408.956	0.21
409.16	0.2
409.365	0.17
409.57	0.21
409.774	0.2
409.979	0.22
410.184	0.21
410.388	0.16
410.593	0.27
410.798	0.26
411.002	0.24
411.207	0.28
411.411	0.25
411.616	0.23
411.82	0.23
412.025	0.3
412.229	0.23
412.434	0.33
412.638	0.31
412.843	0.25
413.047	0.32
413.252	0.28
413.456	0.27
413.66	0.32
413.865	0.33
414.069	0.39
414.273	0.32
414.478	0.36
414.682	0.35
414.886	0.33
415.091	0.27
415.295	0.33
415.499	0.45
415.703	0.44
415.908	0.47
416.112	0.44
416.316	0.52
416.52	0.44
416.724	0.42
416.929	0.43
417.133	0.63
417.337	0.51
417.541	0.51
417.745	0.59
417.949	0.62
418.153	0.64
418.357	0.61
418.561	0.75
418.765	0.63
418.969	0.74
419.173	0.8
419.377	0.73
419.581	0.9
419.785	0.81
419.989	0.76
420.193	0.84
420.397	0.87
420.601	0.95
420.804	1.01
421.008	0.97
421.212	1.08
421.416	1.11
421.62	1
421.823	1.03
422.027	1.16
422.231	1.14
422.435	1.09
422.638	1.17
422.842	1.17
423.046	1.14
423.249	1.28
423.453	1.33
423.657	1.36
423.86	1.31
424.064	1.35
424.268	1.52
424.471	1.4
424.675	1.6
424.878	1.6
425.082	1.6
425.285	1.64
425.489	1.6
425.692	1.65
425.896	1.67
426.099	1.79
426.303	1.74
426.506	1.8
426.71	1.89
426.913	2.03
427.116	2.02
427.32	2.04
427.523	2.02
427.726	2.24
427.93	2.15
428.133	2.29
428.336	2.22
428.54	2.32
428.743	2.48
428.946	2.58
429.149	2.5
429.353	2.5
429.556	2.52
429.759	2.5
429.962	2.55
430.165	2.69
430.368	2.54
430.571	2.56
430.775	2.52
430.978	2.56
431.181	2.58
431.384	2.62
431.587	2.61
431.79	2.79
431.993	2.79
432.196	2.81
432.399	2.92
432.602	3.02
432.805	2.98
433.008	3.19
433.211	3.1
433.414	3.28
433.616	3.26
433.819	3.24
434.022	3.3
434.225	3.49
434.428	3.46
434.631	3.64
434.833	3.41
435.036	3.56
435.239	3.66
435.442	3.63
435.645	3.67
435.847	3.7
436.05	3.9
436.253	3.94
436.455	3.9
436.658	3.92
436.861	4.01
437.063	3.95
437.266	4.06
437.468	4.15
437.671	4.42
437.874	4.29
438.076	4.24
438.279	4.34
438.481	4.37
438.684	4.64
438.886	4.63
439.089	4.65
439.291	4.7
439.494	4.89
439.696	4.85
439.899	5.16
440.101	5.3
440.303	5.29
440.506	5.68
440.708	5.59
440.91	5.61
441.113	5.72
441.315	5.88
441.517	5.72
441.72	6.02
441.922	5.89
442.124	5.82
442.326	5.94
442.529	6.18
442.731	6.09
442.933	6.29
443.135	6.24
443.337	6.2
443.539	6.45
443.742	6.31
443.944	6.6
444.146	6.53
444.348	6.56
444.55	6.49
444.752	6.64
444.954	6.58
445.156	6.69
445.358	6.76
445.56	6.99
445.762	6.89
445.964	6.9
446.166	6.87
446.368	6.92
446.57	7.01
446.772	6.88
446.974	6.73
447.175	6.9
447.377	6.82
447.579	6.98
447.781	6.93
447.983	6.91
448.184	6.68
448.386	6.72
448.588	6.55
448.79	6.6
448.991	6.7
449.193	6.74
449.395	6.49
449.597	6.42
449.798	6.4
450	6.19
450.202	6.15
450.403	6.11
450.605	6.09
450.806	6.05
451.008	5.87
451.21	5.85
451.411	5.67
451.613	5.39
451.814	5.41
452.016	5.5
452.217	5.12
452.419	5.21
452.62	4.98
452.821	4.96
453.023	4.92
453.224	4.74
453.426	4.52
453.627	4.28
453.828	4.4
454.03	4.33
454.231	4.31
454.432	4.2
454.634	4.21
454.835	3.95
455.036	3.92
455.238	3.89
455.439	3.75
455.64	3.63
455.841	3.5
456.042	3.64
456.244	3.38
456.445	3.33
456.646	3.16
456.847	3.14
457.048	3.14
457.249	3.2
457.45	3.21
457.651	2.82
457.852	2.79
458.054	2.68
458.255	2.65
458.456	2.74
458.657	2.58
458.858	2.45
459.058	2.38
459.259	2.48
459.46	2.4
459.661	2.31
459.862	2.44
460.063	2.3
460.264	2.32
460.465	2.16
460.666	2.23
460.866	2.08
461.067	1.98
461.268	1.93
461.469	2.04
461.67	1.95
461.87	1.88
462.071	1.89
462.272	1.87
462.473	1.83
462.673	1.94
462.874	1.89
463.075	1.91
463.275	1.81
463.476	1.83
463.676	1.87
463.877	1.75
464.078	1.78
464.278	1.78
464.479	1.77
464.679	1.74
464.88	1.67
465.08	1.7
465.281	1.59
465.481	1.56
465.682	1.47
465.882	1.49
466.083	1.48
466.283	1.45
466.483	1.42
466.684	1.31
466.884	1.31
467.085	1.32
467.285	1.3
467.485	1.28
467.686	1.27
467.886	1.18
468.086	1.2
468.286	1.23
468.487	1.3
468.687	1.13
468.887	1.14
469.087	1.21
469.287	1.13
469.488	1.05
469.688	1.18
469.888	1.17
470.088	1.13
470.288	1.12
470.488	1.04
470.688	1
470.888	0.99
471.088	0.86
471.288	1.04
471.488	1.03
471.688	0.97
471.888	0.92
472.088	1.1
472.288	1.01
472.488	0.86
472.688	0.87
472.888	0.88
473.088	0.87
473.288	0.87
473.488	0.84
473.688	0.95
473.887	0.86
474.087	0.79
474.287	0.86
474.487	0.81
474.687	0.86
474.886	0.81
475.086	0.83
475.286	0.79
475.486	0.79
475.685	0.77
475.885	0.73
476.085	0.81
476.284	0.82
476.484	0.77
476.684	0.75
476.883	0.87
477.083	0.74
477.282	0.69
477.482	0.82
477.681	0.8
477.881	0.74
478.08	0.71
478.28	0.7
478.479	0.75
478.679	0.76
478.878	0.67
479.078	0.68
479.277	0.71
479.477	0.71
479.676	0.73
479.875	0.7
480.075	0.66
480.274	0.72
480.473	0.73
480.673	0.65
480.872	0.75
481.071	0.7
481.271	0.75
481.47	0.67
481.669	0.73
481.868	0.64
482.067	0.69
482.267	0.66
482.466	0.64
482.665	0.63
482.864	0.66
483.063	0.66
483.262	0.71
483.461	0.74
483.661	0.72
483.86	0.69
484.059	0.71
484.258	0.69
484.457	0.67
484.656	0.65
484.855	0.74
485.054	0.65
485.253	0.65
485.452	0.67
485.651	0.73
485.849	0.73
486.048	0.68
486.247	0.68
486.446	0.74
486.645	0.69
486.844	0.7
487.043	0.73
487.241	0.74
487.44	0.74
487.639	0.73
487.838	0.74
488.037	0.72
488.235	0.77
488.434	0.75
488.633	0.71
488.831	0.8
489.03	0.81
489.229	0.77
489.427	0.77
489.626	0.82
489.825	0.83
490.023	0.81
490.222	0.77
490.42	0.82
490.619	0.85
490.817	0.87
491.016	0.82
491.214	0.89
491.413	0.85
491.611	0.83
491.81	0.85
492.008	0.89
492.207	0.93
492.405	0.91
492.604	0.83
492.802	0.89
493	0.91
493.199	0.94
493.397	0.95
493.595	0.98
493.794	0.92
493.992	1.02
494.19	0.97
494.388	1
494.587	0.94
494.785	0.99
494.983	0.95
495.181	1.01
495.379	1.03
495.578	1.05
495.776	1.02
495.974	1.05
496.172	1.05
496.37	1.1
496.568	1.09
496.766	1.13
496.964	1.15
497.162	1.16
497.36	1.14
497.558	1.2
497.756	1.17
497.954	1.19
498.152	1.2
498.35	1.25
498.548	1.24
498.746	1.24
498.944	1.25
499.142	1.26
499.34	1.25
499.538	1.36
499.736	1.25
499.933	1.36
500.131	1.35
500.329	1.39
500.527	1.41
500.725	1.46
500.922	1.46
501.12	1.44
501.318	1.46
501.516	1.47
501.713	1.47
501.911	1.46
502.109	1.46
502.306	1.53
502.504	1.44
502.701	1.53
502.899	1.55
503.097	1.64
503.294	1.55
503.492	1.61
503.689	1.64
503.887	1.66
504.084	1.67
504.282	1.68
504.479	1.62
504.677	1.73
504.874	1.67
505.072	1.66
505.269	1.73
505.466	1.77
505.664	1.75
505.861	1.72
506.059	1.74
506.256	1.83
506.453	1.8
506.651	1.9
506.848	1.88
507.045	1.91
507.242	1.85
507.44	1.88
507.637	1.91
507.834	1.9
508.031	1.97
508.229	1.94
508.426	1.93
508.623	1.98
508.82	2.01
509.017	1.95
509.214	1.95
509.411	2.05
509.608	1.99
509.805	2.09
510.003	2.08
510.2	2.04
510.397	2.15
510.594	2.1
510.791	2.11
510.988	2.13
511.184	2.14
511.381	2.08
511.578	2.16
511.775	2.24
511.972	2.16
512.169	2.21
512.366	2.18
512.563	2.25
512.76	2.27
512.956	2.28
513.153	2.25
513.35	2.25
513.547	2.23
513.744	2.24
513.94	2.25
514.137	2.35
514.334	2.28
514.53	2.34
514.727	2.41
514.924	2.42
515.12	2.33
515.317	2.35
515.514	2.35
515.71	2.32
515.907	2.45
516.103	2.43
516.3	2.4
516.497	2.49
516.693	2.47
516.89	2.46
517.086	2.45
517.283	2.47
517.479	2.42
517.676	2.5
517.872	2.52
518.068	2.55
518.265	2.49
518.461	2.54
518.658	2.52
518.854	2.54
519.05	2.57
519.247	2.58
519.443	2.56
519.639	2.63
519.836	2.54
520.032	2.55
520.228	2.58
520.424	2.6
520.621	2.61
520.817	2.63
521.013	2.6
521.209	2.71
521.405	2.68
521.601	2.64
521.798	2.65
521.994	2.67
522.19	2.61
522.386	2.62
522.582	2.69
522.778	2.74
522.974	2.68
523.17	2.75
523.366	2.69
523.562	2.74
523.758	2.73
523.954	2.64
524.15	2.7
524.346	2.77
524.542	2.75
524.738	2.72
524.934	2.8
525.129	2.82
525.325	2.75
525.521	2.78
525.717	2.86
525.913	2.77
526.109	2.76
526.304	2.78
526.5	2.82
526.696	2.83
526.892	2.8
527.087	2.89
527.283	2.84
527.479	2.83
527.674	2.78
527.87	2.85
528.066	2.82
528.261	2.83
528.457	2.83
528.653	2.88
528.848	2.85
529.044	2.89
529.239	2.84
529.435	2.9
529.63	2.86
529.826	2.88
530.021	2.86
530.217	2.96
530.412	2.87
530.608	2.9
530.803	2.85
530.999	2.81
531.194	2.83
531.389	2.95
531.585	2.86
531.78	2.96
531.975	2.92
532.171	2.94
532.366	2.94
532.561	2.95
532.757	2.89
532.952	3.02
533.147	2.87
533.342	2.95
533.538	2.9
533.733	2.98
533.928	2.84
534.123	2.95
534.318	2.94
534.513	2.94
534.709	2.98
534.904	2.94
535.099	2.99
535.294	3
535.489	2.99
535.684	2.98
535.879	2.94
536.074	3.01
536.269	3.03
536.464	3
536.659	3
536.854	2.97
537.049	2.96
537.244	2.99
537.439	2.97
537.634	3.04
537.828	3
538.023	2.99
538.218	2.97
538.413	2.98
538.608	3
538.803	3.03
538.997	2.93
539.192	3.02
539.387	2.99
539.582	3
539.776	2.94
539.971	3.07
540.166	3.04
540.36	2.97
540.555	3.04
540.75	3.04
540.944	3
541.139	2.98
541.334	3.01
541.528	3.05
541.723	3.07
541.917	3.04
542.112	2.98
542.306	2.94
542.501	2.95
542.695	3.01
542.89	2.99
543.084	2.98
543.279	3.02
543.473	3.01
543.668	3.05
543.862	2.98
544.056	3.01
544.251	3.06
544.445	3.05
544.64	3.08
544.834	2.87
545.028	2.91
545.222	3.03
545.417	3.08
545.611	3.08
545.805	3.05
546	2.96
546.194	3.02
546.388	3.06
546.582	3.05
546.776	3.04
546.97	3.05
547.165	3.03
547.359	3.06
547.553	3.04
547.747	3.01
547.941	3.07
548.135	3.04
548.329	3.04
548.523	3.05
548.717	3.02
548.911	3.01
549.105	2.99
549.299	3.06
549.493	3.1
549.687	3.04
549.881	3.1
550.075	3.04
550.269	2.98
550.463	3.04
550.657	3.01
550.85	3.04
551.044	3
551.238	3.07
551.432	3.02
551.626	3.06
551.82	3.08
552.013	3.03
552.207	3.06
552.401	3.07
552.594	3.01
552.788	3
552.982	3.03
553.176	2.99
553.369	3.09
553.563	3.03
553.756	3.01
553.95	3.07
554.144	3.04
554.337	3.08
554.531	2.95
554.724	3.05
554.918	3.07
555.111	3.02
555.305	3.04
555.498	3.07
555.692	3.08
555.885	3.08
556.079	3.04
556.272	3.03
556.466	3.04
556.659	3.04
556.852	3.03
557.046	3
557.239	2.98
557.432	3.01
557.626	3.04
557.819	3.06
558.012	3.07
558.206	3.08
558.399	3.06
558.592	3.06
558.785	2.97
558.979	3.01
559.172	3.03
559.365	3.09
559.558	3
559.751	3
559.944	3.07
560.138	3.03
560.331	3.05
560.524	3.07
560.717	3.05
560.91	3.01
561.103	3.11
561.296	3
561.489	3.1
561.682	3.1
561.875	3.08
562.068	3.12
562.261	3.05
562.454	3.12
562.647	3
562.84	3.04
563.032	3.06
563.225	3.05
563.418	3.07
563.611	3.06
563.804	3.04
563.997	3.01
564.19	2.92
564.382	3.06
564.575	3.04
564.768	2.99
564.961	3.05
565.153	2.99
565.346	3.03
565.539	3.05
565.731	3.06
565.924	3.05
566.117	3.11
566.309	3.07
566.502	3.01
566.695	3.01
566.887	3.08
567.08	3.02
567.272	3.06
567.465	2.99
567.657	3.08
567.85	3
568.042	3.06
568.235	3.07
568.427	2.98
568.62	3.05
568.812	3.05
569.005	3.05
569.197	2.99
569.389	3.04
569.582	3.04
569.774	3.05
569.966	2.94
570.159	3.02
570.351	2.98
570.543	3.04
570.736	3.01
570.928	2.96
571.12	3.03
571.312	2.97
571.505	2.9
571.697	3.05
571.889	3.03
572.081	3
572.273	2.96
572.465	3.01
572.658	3
572.85	3.01
573.042	2.98
573.234	3
573.426	3
573.618	2.96
573.81	3
574.002	3
574.194	3.03
574.386	3.02
574.578	2.91
574.77	2.96
574.962	3
575.154	2.9
575.346	2.94
575.538	2.96
575.729	2.98
575.921	2.99
576.113	2.98
576.305	3.03
576.497	3.05
576.689	2.94
576.88	2.94
577.072	3.03
577.264	2.96
577.456	2.96
577.647	2.87
577.839	3
578.031	2.97
578.223	2.93
578.414	2.9
578.606	2.97
578.798	2.99
578.989	2.96
579.181	2.98
579.372	2.98
579.564	3.02
579.755	2.9
579.947	2.89
580.139	2.98
580.33	2.83
580.522	2.95
580.713	2.86
580.905	2.95
581.096	2.97
581.287	2.9
581.479	2.92
581.67	2.96
581.862	2.9
582.053	2.9
582.244	2.88
582.436	2.95
582.627	2.82
582.818	2.87
583.01	2.88
583.201	2.93
583.392	2.91
583.583	2.87
583.775	2.83
583.966	2.83
584.157	2.86
584.348	2.91
584.54	2.82
584.731	2.89
584.922	2.85
585.113	2.79
585.304	2.86
585.495	2.88
585.686	2.93
585.877	2.93
586.068	2.9
586.259	2.86
586.45	2.86
586.641	2.82
586.832	2.86
587.023	2.83
587.214	2.85
587.405	2.83
587.596	2.8
587.787	2.81
587.978	2.84
588.169	2.77
588.36	2.79
588.551	2.81
588.742	2.77
588.932	2.83
589.123	2.71
589.314	2.86
589.505	2.78
589.696	2.78
589.886	2.74
590.077	2.76
590.268	2.74
590.458	2.66
590.649	2.63
590.84	2.77
591.03	2.72
591.221	2.74
591.412	2.66
591.602	2.79
591.793	2.77
591.984	2.71
592.174	2.72
592.365	2.83
592.555	2.69
592.746	2.75
592.936	2.71
593.127	2.76
593.317	2.77
593.508	2.7
593.698	2.66
593.889	2.72
594.079	2.62
594.269	2.63
594.46	2.69
594.65	2.7
594.84	2.69
595.031	2.65
595.221	2.64
595.411	2.63
595.602	2.7
595.792	2.66
595.982	2.58
596.172	2.72
596.363	2.61
596.553	2.64
596.743	2.63
596.933	2.6
597.123	2.58
597.314	2.52
597.504	2.51
597.694	2.65
597.884	2.56
598.074	2.59
598.264	2.58
598.454	2.57
598.644	2.55
598.834	2.56
599.024	2.44
599.214	2.48
599.404	2.61
599.594	2.53
599.784	2.49
599.974	2.58
600.164	2.54
600.354	2.49
600.544	2.46
600.734	2.51
600.924	2.5
601.114	2.46
601.303	2.47
601.493	2.48
601.683	2.47
601.873	2.47
602.063	2.41
602.252	2.49
602.442	2.4
602.632	2.41
602.821	2.39
603.011	2.47
603.201	2.43
603.39	2.38
603.58	2.39
603.77	2.44
603.959	2.46
604.149	2.4
604.339	2.37
604.528	2.46
604.718	2.46
604.907	2.39
605.097	2.38
605.286	2.32
605.476	2.34
605.665	2.38
605.855	2.34
606.044	2.38
606.234	2.32
606.423	2.35
606.612	2.31
606.802	2.32
606.991	2.37
607.181	2.35
607.37	2.29
607.559	2.27
607.749	2.29
607.938	2.28
608.127	2.29
608.316	2.28
608.506	2.3
608.695	2.26
608.884	2.24
609.073	2.25
609.263	2.25
609.452	2.3
609.641	2.24
609.83	2.16
610.019	2.23
610.208	2.18
610.397	2.2
610.586	2.24
610.775	2.14
610.965	2.16
611.154	2.1
611.343	2.2
611.532	2.16
611.721	2.14
611.91	2.12
612.099	2.17
612.287	2.09
612.476	2.1
612.665	2.17
612.854	2.08
613.043	2.12
613.232	2.12
613.421	2.05
613.61	2.1
613.798	2.07
613.987	2.11
614.176	2.01
614.365	2.1
614.554	2.09
614.742	2.15
614.931	1.96
615.12	2.05
615.309	2.08
615.497	2.04
615.686	1.94
615.875	2.04
616.063	1.99
616.252	2
616.44	1.96
616.629	2.03
616.818	1.99
617.006	1.96
617.195	1.97
617.383	2
617.572	1.96
617.76	1.91
617.949	1.97
618.137	1.95
618.326	2
618.514	1.86
618.703	1.86
618.891	1.96
619.079	1.83
619.268	1.95
619.456	1.88
619.644	1.94
619.833	1.85
620.021	1.85
620.209	1.79
620.398	1.9
620.586	1.83
620.774	1.88
620.962	1.83
621.151	1.93
621.339	1.82
621.527	1.79
621.715	1.79
621.903	1.8
622.092	1.76
622.28	1.83
622.468	1.73
622.656	1.81
622.844	1.76
623.032	1.82
623.22	1.69
623.408	1.86
623.596	1.73
623.784	1.76
623.972	1.71
624.16	1.73
624.348	1.77
624.536	1.76
624.724	1.68
624.912	1.78
625.1	1.72
625.288	1.69
625.476	1.66
625.664	1.73
625.851	1.67
626.039	1.7
626.227	1.67
626.415	1.67
626.603	1.59
626.79	1.68
626.978	1.68
627.166	1.64
627.354	1.65
627.541	1.63
627.729	1.51
627.917	1.68
628.104	1.7
628.292	1.61
628.48	1.62
628.667	1.59
628.855	1.6
629.042	1.6
629.23	1.55
629.418	1.56
629.605	1.54
629.793	1.48
629.98	1.53
630.168	1.54
630.355	1.57
630.543	1.53
630.73	1.43
630.917	1.51
631.105	1.61
631.292	1.53
631.48	1.49
631.667	1.59
631.854	1.53
632.042	1.51
632.229	1.44
632.416	1.52
632.604	1.48
632.791	1.45
632.978	1.49
633.165	1.48
633.353	1.51
633.54	1.55
633.727	1.37
633.914	1.4
634.101	1.38
634.289	1.44
634.476	1.37
634.663	1.37
634.85	1.38
635.037	1.37
635.224	1.33
635.411	1.42
635.598	1.39
635.785	1.34
635.972	1.36
636.159	1.39
636.346	1.31
636.533	1.34
636.72	1.31
636.907	1.36
637.094	1.32
637.281	1.25
637.468	1.34
637.655	1.33
637.842	1.33
638.029	1.34
638.215	1.28
638.402	1.31
638.589	1.22
638.776	1.27
638.963	1.26
639.149	1.31
639.336	1.35
639.523	1.26
639.709	1.28
639.896	1.23
640.083	1.24
640.27	1.27
640.456	1.21
640.643	1.23
640.829	1.17
641.016	1.22
641.203	1.16
641.389	1.22
641.576	1.21
641.762	1.2
641.949	1.18
642.135	1.2
642.322	1.19
642.508	1.12
642.695	1.17
642.881	1.11
643.068	1.14
643.254	1.16
643.441	1.15
643.627	1.17
643.813	1.09
644	1.16
644.186	1.1
644.372	1.13
644.559	1.13
644.745	1.12
644.931	1.05
645.118	1.11
645.304	1.13
645.49	1.07
645.676	1.05
645.862	1.09
646.049	1.11
646.235	1.09
646.421	1.13
646.607	1.17
646.793	1.05
646.979	0.99
647.165	1.05
647.352	1.07
647.538	1.08
647.724	0.98
647.91	1.02
648.096	1.1
648.282	1.08
648.468	1.01
648.654	1.01
648.84	1.05
649.026	0.98
649.212	1
649.397	0.98
649.583	0.97
649.769	1.05
649.955	0.96
650.141	1.03
650.327	0.95
650.513	0.98
650.698	0.99
650.884	0.86
651.07	0.98
651.256	0.96
651.442	0.92
651.627	0.9
651.813	0.95
651.999	0.93
652.184	0.96
652.37	0.92
652.556	0.9
652.741	0.95
652.927	0.83
653.113	0.94
653.298	0.9
653.484	0.87
653.669	0.83
653.855	0.86
654.04	0.83
654.226	0.91
654.412	0.84
654.597	0.79
654.782	0.89
654.968	0.93
655.153	0.88
655.339	0.83
655.524	0.83
655.71	0.83
655.895	0.83
656.08	0.81
656.266	0.88
656.451	0.85
656.636	0.79
656.822	0.83
657.007	0.77
657.192	0.81
657.378	0.78
657.563	0.82
657.748	0.82
657.933	0.84
658.118	0.76
658.304	0.79
658.489	0.82
658.674	0.82
658.859	0.74
659.044	0.77
659.229	0.81
659.414	0.74
659.599	0.74
659.785	0.72
659.97	0.78
660.155	0.76
660.34	0.78
660.525	0.73
660.71	0.71
660.895	0.76
661.08	0.72
661.264	0.69
661.449	0.76
661.634	0.76
661.819	0.8
662.004	0.73
662.189	0.65
662.374	0.71
662.559	0.68
662.743	0.66
662.928	0.72
663.113	0.66
663.298	0.64
663.483	0.69
663.667	0.69
663.852	0.65
664.037	0.76
664.221	0.65
664.406	0.74
664.591	0.71
664.775	0.68
664.96	0.73
665.145	0.67
665.329	0.66
665.514	0.65
665.698	0.65
665.883	0.62
666.068	0.69
666.252	0.68
666.437	0.61
666.621	0.64
666.806	0.69
666.99	0.58
667.174	0.57
667.359	0.68
667.543	0.61
667.728	0.62
667.912	0.54
668.096	0.64
668.281	0.59
668.465	0.63
668.649	0.64
668.834	0.61
669.018	0.59
669.202	0.61
669.387	0.6
669.571	0.64
669.755	0.58
669.939	0.59
670.124	0.57
670.308	0.63
670.492	0.61
670.676	0.6
670.86	0.58
671.044	0.51
671.228	0.6
671.413	0.55
671.597	0.52
671.781	0.56
671.965	0.58
672.149	0.54
672.333	0.55
672.517	0.54
672.701	0.54
672.885	0.54
673.069	0.46
673.253	0.59
673.437	0.55
673.621	0.51
673.804	0.57
673.988	0.5
674.172	0.55
674.356	0.48
674.54	0.56
674.724	0.64
674.908	0.55
675.091	0.56
675.275	0.54
675.459	0.58
675.643	0.55
675.826	0.51
676.01	0.49
676.194	0.51
676.377	0.54
676.561	0.51
676.745	0.49
676.928	0.51
677.112	0.54
677.296	0.44
677.479	0.46
677.663	0.48
677.846	0.48
678.03	0.48
678.213	0.45
678.397	0.54
678.58	0.45
678.764	0.46
678.947	0.41
679.131	0.48
679.314	0.53
679.498	0.48
679.681	0.57
679.865	0.55
680.048	0.47
680.231	0.48
680.415	0.46
680.598	0.43
680.781	0.44
680.965	0.46
681.148	0.46
681.331	0.42
681.514	0.46
681.698	0.37
681.881	0.45
682.064	0.43
682.247	0.47
682.43	0.33
682.614	0.45
682.797	0.49
682.98	0.45
683.163	0.41
683.346	0.46
683.529	0.42
683.712	0.36
683.895	0.42
684.078	0.37
684.261	0.42
684.444	0.4
684.627	0.4
684.81	0.43
684.993	0.38
685.176	0.42
685.359	0.37
685.542	0.35
685.725	0.48
685.908	0.41
686.091	0.37
686.274	0.5
686.457	0.41
686.639	0.4
686.822	0.4
687.005	0.37
687.188	0.38
687.371	0.48
687.553	0.42
687.736	0.43
687.919	0.45
688.102	0.48
688.284	0.38
688.467	0.37
688.65	0.4
688.832	0.34
689.015	0.37
689.197	0.34
689.38	0.44
689.563	0.5
689.745	0.32
689.928	0.33
690.11	0.31
690.293	0.39
690.475	0.32
690.658	0.4
690.84	0.42
691.023	0.4
691.205	0.34
691.388	0.36
691.57	0.4
691.752	0.37
691.935	0.24
692.117	0.31
692.3	0.39
692.482	0.33
692.664	0.31
692.847	0.32
693.029	0.41
693.211	0.4
693.393	0.25
693.576	0.3
693.758	0.32
693.94	0.36
694.122	0.3
694.304	0.34
694.487	0.27
694.669	0.37
694.851	0.29
695.033	0.3
695.215	0.31
695.397	0.25
695.579	0.3
695.761	0.29
695.943	0.19
696.125	0.4
696.308	0.35
696.49	0.2
696.671	0.39
696.853	0.32
697.035	0.42
697.217	0.29
697.399	0.32
697.581	0.23
697.763	0.3
697.945	0.27
698.127	0.36
698.309	0.31
698.491	0.31
698.672	0.41
698.854	0.32
699.036	0.34
699.218	0.22
699.399	0.41
699.581	0.34
699.763	0.32
699.945	0.27
700.126	0.24
700.308	0.31
700.49	0.31
700.671	0.22
700.853	0.21
701.035	0.24
701.216	0.32
701.398	0.19
701.579	0.25
701.761	0.31
701.943	0.25
702.124	0.22
702.306	0.22
702.487	0.34
702.669	0.28
702.85	0.33
703.031	0.25
703.213	0.4
703.394	0.31
703.576	0.23
703.757	0.37
703.938	0.29
704.12	0.41
704.301	0.25
704.483	0.21
704.664	0.31
704.845	0.32
705.026	0.3
705.208	0.26
705.389	0.25
705.57	0.29
705.751	0.3
705.933	0.32
706.114	0.29
706.295	0.2
706.476	0.17
706.657	0.31
706.838	0.27
707.02	0.34
707.201	0.2
707.382	0.22
707.563	0.28
707.744	0.24
707.925	0.2
708.106	0.19
708.287	0.24
708.468	0.36
708.649	0.25
708.83	0.28
709.011	0.24
709.192	0.31
709.373	0.17
709.554	0.25
709.734	0.3
709.915	0.28
710.096	0.22
710.277	0.21
710.458	0.24
710.639	0.32
710.819	0.12
711	0.18
711.181	0.31
711.362	0.33
711.542	0.29
711.723	0.26
711.904	0.24
712.085	0.31
712.265	0.25
712.446	0.06
712.627	0.26
712.807	0.18
712.988	0.18
713.168	0.12
713.349	0.26
713.53	0.13
713.71	0.15
713.891	0.18
714.071	0.25
714.252	0.25
714.432	0.21
714.613	0.18
714.793	0.19
714.974	0.29
715.154	0.33
715.334	0.27
715.515	0.27
715.695	0.18
715.876	0.21
716.056	0.18
716.236	0.14
716.417	0.18
716.597	0.16
716.777	0.37
716.957	0.25
717.138	0.22
717.318	0.17
717.498	0.17
717.678	0.17
717.859	0.19
718.039	0.07
718.219	0.19
718.399	0.27
718.579	0.13
718.759	0.11
718.939	0.21
719.12	0.21
719.3	0.18
719.48	0.06
719.66	0.08
719.84	0.31
720.02	0.23
720.2	0.13
720.38	0.22
720.56	0.3
720.74	0.07
720.92	0.2
721.1	0.34
721.279	0.3
721.459	0.12
721.639	0.1
721.819	0.23
721.999	0.05
722.179	0.22
722.359	0.09
722.538	0.2
722.718	0.21
722.898	0.15
723.078	0.19
723.257	0.2
723.437	0.14
723.617	0.15
723.797	0.21
723.976	0.19
724.156	0.25
724.336	0.28
724.515	0.31
724.695	0.06
724.874	0.2
725.054	0.28
725.234	0.18
725.413	0.26
725.593	0.18
725.772	0.21
725.952	0.17
726.131	0.2
726.311	0.19
726.49	0.19
726.67	0.09
726.849	0.09
727.028	0.23
727.208	0.15
727.387	0.21
727.567	0.01
727.746	0.14
727.925	0.16
728.105	0.15
728.284	0.07
728.463	0.13
728.643	0.15
728.822	0.04
729.001	0.05
729.18	0.3
729.359	0.25
729.539	0.13
729.718	0.24
729.897	0.17
730.076	0.21
730.255	0.11
730.434	0.15
730.614	0.2
730.793	0.29
730.972	0.11
731.151	0.18
731.33	0.23
731.509	0.25
731.688	0.23
731.867	0.14
732.046	0.06
732.225	0.39
732.404	0.13
732.583	0.13
732.762	0.15
732.941	0.22
733.12	0.21
733.298	0.14
733.477	0.27
733.656	0.08
733.835	0
734.014	0.24
734.193	0.1
734.371	0.13
734.55	0.2
734.729	0.14
734.908	0.16
735.086	0.2
735.265	0.15
735.444	0.06
735.623	0.02
735.801	0.11
735.98	0.16
736.159	0.13
736.337	0.26
736.516	0.16
736.694	0.22
736.873	0.1
737.052	0.34
737.23	0.36
737.409	0.17
737.587	0.43
737.766	0.01
737.944	0.29
738.123	0.21
738.301	0.22
738.479	0.07
738.658	0.23
738.836	-0.01
739.015	0.22
739.193	0.23
739.371	-0
739.55	0.19
739.728	0.08
739.906	0.37
740.085	0.26
740.263	0.15
740.441	0.02
740.62	0.3
740.798	0.24
740.976	0.13
741.154	0.1
741.332	0.37
741.511	0.1
741.689	0.3
741.867	0.22
742.045	0.2
742.223	0.08
742.401	0.03
742.579	0.11
742.757	0.21
742.935	0.06
743.114	0.1
743.292	0.15
743.47	0.17
743.648	0.17
743.826	0.17
744.004	0.19
744.181	0.24
744.359	0.11
744.537	0.14
744.715	0.17
744.893	0.14
745.071	0.19
745.249	0.16
745.427	0.18
745.605	0.13
745.782	0.15
745.96	0.28
746.138	0.23
746.316	0.26
746.493	0.07
746.671	0.08
746.849	0.17
747.027	0.31
747.204	-0.01
747.382	0.24
747.56	-0.05
747.737	0.02
747.915	0.02
748.093	0.19
748.27	-0.06
748.448	0.15
748.625	0.07
748.803	0.08
748.98	0.04
749.158	0.05
749.335	0.25
749.513	0.14
749.69	0.14
749.868	0.15
750.045	0.28
750.223	-0.01
750.4	-0.01
750.578	0.35
750.755	0.19
750.932	-0.02
751.11	0.27
751.287	-0
751.464	0.23
751.642	0.06
751.819	0.17
751.996	0.14
752.173	0.07
752.351	0.08
752.528	0.11
752.705	0.12
752.882	0.05
753.06	0.21
753.237	0.17
753.414	0.31
753.591	0.3
753.768	0.24
753.945	0.17
754.122	0
754.299	0.23
754.476	0.05
754.654	0.21
754.831	0.2
755.008	0.18
755.185	-0.02
755.362	-0.03
755.539	0.23
755.716	0.1
755.892	0.07
756.069	0.12
756.246	-0.07
756.423	0.08
756.6	0.24
756.777	0.04
756.954	0.25
757.131	0.2
757.307	-0
757.484	0.05
757.661	0.18
757.838	0.22
758.015	0.04
758.191	0.18
758.368	0.15
758.545	0.36
758.721	0.14
758.898	0.08
759.075	0.14
759.251	0.16
759.428	0.24
759.605	-0.06
759.781	0.17
759.958	0.17
760.134	0.2
760.311	-0
760.488	0.32
760.664	0.33
760.841	0.13
761.017	0.08
761.194	0.15
761.37	0.24
761.547	0.14
761.723	0.14
761.899	0.26
762.076	0.04
762.252	-0.04
762.429	0.08
762.605	0.2
762.781	0.08
762.958	0.24
763.134	0.18
763.31	0.05
763.486	0.25
763.663	-0.01
763.839	0.08
764.015	-0.15
764.191	0.12
764.368	0.12
764.544	0.15
764.72	0.2
764.896	0.26
765.072	0.18
765.248	0.06
765.425	0.02
765.601	0.18
765.777	0.16
765.953	-0.01
766.129	-0.02
766.305	0.1
766.481	0.23
766.657	0.21
766.833	0.31
767.009	-0.04
767.185	0.09
767.361	-0
767.537	0.07
767.713	0.17
767.889	0.1
768.065	0.14
768.24	0.13
768.416	0.26
768.592	-0.01
768.768	0.11
768.944	0.12
769.12	-0.04
769.295	0.17
769.471	0.06
769.647	0.1
769.823	0.29
769.998	0.16
770.174	0.02
770.35	0.48
770.525	0.47
770.701	0.23
770.877	0.2
771.052	-0.04
771.228	0.29
771.403	0.19
771.579	0.25
771.755	0.35
771.93	0.14
772.106	0.03
772.281	-0.11
772.457	0.04
772.632	0.12
772.808	0.01
772.983	-0.03
773.159	-0.1
773.334	0.28
773.509	0.04
773.685	-0.07
773.86	0.56
774.036	0.27
774.211	0.15
774.386	0.1
774.562	0.07
774.737	0.17
774.912	0.06
775.087	0.24
775.263	0.07
775.438	0.05
775.613	0.01
775.788	0.21
775.964	0.23
776.139	0.53
776.314	0
776.489	0.06
776.664	0.31
776.839	0.03
777.014	0.24
777.19	0.26
777.365	0.41
777.54	0.34
777.715	0.13
777.89	0.04
778.065	0.07
778.24	0.24
778.415	0.21
778.59	-0.04
778.765	0.06
778.94	-0.01
779.115	0.15
779.289	0.11
779.464	0.04
779.639	0.02
779.814	0.01
779.989	0.01
780.164	0.34
780.339	0.16
780.513	-0.03
780.688	0.11
780.863	0.3
781.038	0.27
781.212	-0.07
781.387	0.04
781.562	0.62
781.737	-0.01
781.911	0.38
782.086	-0.02
782.261	0.15
782.435	0.38
782.61	0.18
782.784	-0.01
782.959	0.42
783.134	0.01
783.308	-0
783.483	0.1
783.657	0.62
783.832	0.17
784.006	-0.24
784.181	0.08
784.355	0.2
784.53	-0.25
784.704	0.06
784.878	0.44
785.053	0.38
785.227	0.26
785.402	0.53
785.576	0.11
785.75	0.26
785.925	0.16
786.099	0.11
786.273	0.02
786.448	0.09
786.622	0.19
786.796	0.16
786.97	0.09
787.145	0.7
787.319	-0.08
787.493	0.01
787.667	-0.21
787.841	0.12
788.015	0.33
788.19	-0.14
788.364	0.32
788.538	0.22
788.712	0.26
788.886	0.16
789.06	0.19
789.234	0.39
789.408	0.15
789.582	0.22
789.756	0.1
789.93	-0.02
790.104	0.1
790.278	0.08
790.452	-0.05
790.626	0.21
790.8	-0.04
790.973	0.38
791.147	0.31
791.321	0.47
791.495	0.62
791.669	0.27
791.843	0.33
792.016	0.31
792.19	0.62
792.364	-0.2
792.538	0.66
792.711	0.45
792.885	0.15
793.059	-0.08
793.233	-0
793.406	0.41
793.58	0.13
793.754	0.4
793.927	0.08
794.101	0.54
794.274	0.07
794.448	0.58
794.622	0.05
794.795	0.44
794.969	-0
795.142	0.25
795.316	0.14
795.489	-0.09
795.663	0.49
795.836	0.48
796.009	0.06
796.183	0.44
796.356	0.27
796.53	0.35
796.703	-0.03
796.876	0.78
797.05	0.19
797.223	-0.03
797.396	0.31
797.57	-0.04
797.743	0.55
797.916	0.23
798.09	0.26
798.263	0.43
798.436	0.5
798.609	0.13
798.782	0.03
798.956	0.15
799.129	0.26
799.302	0.11
799.475	0.15
799.648	-0.09
799.821	0.11
799.994	0.14
800.167	-0.25
800.34	0.14
800.514	0.21
800.687	0.18
800.86	0.03
801.033	0.29
801.206	0.4
801.379	-0.09
801.551	0.35
801.724	0.49
801.897	0.49
802.07	0.12
802.243	-0.24
802.416	0.34
802.589	-0.11
802.762	0.58
802.935	0.16
803.107	0.51
803.28	0.68
803.453	0.11
803.626	-0.03
803.798	0.13
803.971	0.12
804.144	0.43
804.317	0.27
804.489	0.71
804.662	-0.14
804.835	0.17
805.007	-0.29
805.18	0.74
805.353	0.44
805.525	-0.09
805.698	-0.32
805.87	0.55
806.043	0.48
806.215	-0.15
806.388	-0.14
806.56	0.1
806.733	0.25
806.905	0.31
807.078	0.27
807.25	0.13
807.423	0.45
807.595	0.41
807.768	0.2
807.94	0.53
808.112	0.2
808.285	0.32
808.457	-0.12
808.629	0.07
808.802	0.42
808.974	0.02
809.146	-0.2
809.318	-0.17
809.491	0.16
809.663	0.48
809.835	0.08
810.007	0.42
810.18	0.33
810.352	-0.48
810.524	0.05
810.696	0.42
810.868	0.49
811.04	-0.1
811.212	0.22
811.384	0.5
811.556	0.42
811.728	0.46
811.901	0.63
812.073	0.16
812.245	0.32
812.417	0.46
812.589	-0.51
812.76	0.44
812.932	0.69
813.104	0.43
813.276	0.03
813.448	0.96
813.62	0.1
813.792	0.42
813.964	0.18
814.136	0.4
814.307	-0.08
814.479	-0.13
814.651	-0.06
814.823	1.12
814.995	0.37
815.166	0.42
815.338	-0.08
815.51	-0.26
815.681	1.09
815.853	0.38
816.025	-0.22
816.196	0.74
816.368	0.36
816.54	-0.15
816.711	0.23
816.883	0.43
817.054	0.99
817.226	-0.47
817.398	0.32
817.569	0.27
817.741	0.2
817.912	0.2
818.084	0.07
818.255	0.56
818.426	0.28
818.598	-0.07
818.769	-0.12
818.941	0.23
819.112	0.82
819.283	0.54
819.455	-0.25
819.626	-0.02
819.798	0.56
819.969	0.47
820.14	-0.19
820.311	-0.02
820.483	0.31
820.654	0.61
820.825	0.78
820.996	0.1
821.168	-0.35
821.339	-0.08
821.51	-0.13
821.681	-0
821.852	0.14
822.023	-0.16
822.195	-0.46
822.366	0.69
822.537	0.34
822.708	0.18
822.879	0.19
823.05	0.95
823.221	0.28
823.392	0.3
823.563	-0.05
823.734	0.3
823.905	0.17
824.076	0.14
824.247	-0.09
824.418	0.14
824.589	0.98
824.759	0.13
824.93	0.4
825.101	-0.44
825.272	0.43
825.443	0.63
825.614	0.88
825.784	-0.45
825.955	1
826.126	0.65
826.297	0.64
826.467	1.27
826.638	1.14
826.809	-0.44
826.98	-0.17
827.15	0.38
827.321	0.05
827.492	0.93
827.662	0.13
827.833	1.27
828.003	0.75
828.174	-0.04
828.345	-0.71
828.515	1.1
828.686	0.63
828.856	0.11
829.027	0.27
829.197	-0.21
829.368	0.65
829.538	-0.02
829.709	-0.2
829.879	0.01
830.049	0.64
830.22	-0.05
830.39	-0.08
830.56	0.84
830.731	0.11
830.901	0.05
831.072	0.21
831.242	0.59
831.412	0.44
831.582	0.25
831.753	-0.39
831.923	0.62
832.093	0.62
832.263	0.49
832.434	0.08
832.604	-0.37
832.774	1.35
832.944	0.42
833.114	0.48
833.284	0.86
833.454	-0.13
833.624	-0.15
833.795	-0.29
833.965	0.97
834.135	0.9
834.305	-0.19
834.475	-0.73
834.645	0.14
834.815	-0.12
834.985	-0.41
835.155	-0.03
835.325	0.95
835.494	0.98
835.664	0.38
835.834	-0.36
836.004	0.6
836.174	0.58
836.344	0.42
836.514	-1.34
836.684	0.65
836.853	0.46
837.023	0.71
837.193	0.19
837.363	1.38
837.532	1.81
837.702	0.43
837.872	-0.47
838.041	0.38
838.211	2
838.381	-0.7
838.55	0.53
838.72	1.6
838.89	1.91
839.059	0.17
839.229	0.43
839.398	1.35
839.568	0.27
839.738	0.82
839.907	1.56
840.077	0.95
840.246	-0
840.416	-0.38
840.585	-0.02
840.755	1.81
840.924	2.04
841.093	-0.74
841.263	0.6
841.432	0.57
841.602	0.55
841.771	-0.1
841.94	0.6
842.11	1.79
842.279	1.7
842.448	-0.55
842.617	-0.42
842.787	1.03
842.956	-0.41
843.125	-0.03
843.294	0.97
843.464	0.73
843.633	0.5
843.802	-0.38
843.971	0.02
844.14	0.62
844.309	0.68
844.479	-0.9
844.648	-0.25
844.817	-0.05
844.986	-0.09
845.155	-0.21
845.324	0.07
845.493	0.08
845.662	-0.23
845.831	0.3
846	1.07
846.169	0.53
846.338	1.43
846.507	0.47
846.676	1.27
846.844	0.06
847.013	1.61
847.182	0.09
847.351	-0.57
847.52	0.08
847.689	0.88
847.858	0.64
848.026	0.2
848.195	0.42
848.364	0.42
848.533	-0.43
848.701	0.04
848.87	-0.13
849.039	1.85
849.207	1.12
849.376	0.94
849.545	0.74
849.713	0.32
849.882	0.45
850.051	0.78
850.219	0.82
850.388	1.25
850.556	-0.08
850.725	0.24
850.893	0.24
851.062	-0.35
851.23	0.72
851.399	-0.6
851.567	0.27
851.736	0.77
851.904	-0.85
852.073	0.07
852.241	0.92
852.41	0.73
852.578	1.48
852.746	-0.76
852.915	0.77
853.083	0.48
853.251	-0.3
853.42	0.2
853.588	0.98
853.756	1
853.924	1.04
854.093	0.6
854.261	1.94
854.429	-0.63
854.597	0.39
854.765	0.17
854.934	0.28
855.102	1.79
855.27	-0.07
855.438	0.76
855.606	1.63
855.774	1.45
855.942	-1.09
856.11	-1.21
856.278	1.32
856.446	1.76
856.614	0.42
856.782	-0.29
856.95	2.66
857.118	1.76
857.286	0.48
857.454	-0.37
857.622	3.17
857.79	1.72
857.958	-0.79
858.126	0.11
858.294	-2.07
858.462	1.07
858.629	1.15
858.797	-0.18
858.965	0.9
859.133	1.19
859.301	0.98
859.468	0.7
859.636	-0.18
859.804	2.67
859.971	0.52
860.139	-0.34
860.307	1.49
860.474	-0.31
860.642	-0.65
860.81	-1.05
860.977	-0.03
861.145	0.91
861.313	1.43
861.48	0.12
861.648	1.78
861.815	0.5
861.983	-0.91
862.15	-0.33
862.318	2.25
862.485	2.51
862.653	-0.12
862.82	0.32
862.988	2.96
863.155	1.62
863.322	-1.04
863.49	-1.04
863.657	-0.81
863.824	4.01
863.992	0.39
864.159	0.9
864.326	1.77
864.494	1.02
864.661	2.4
864.828	-1.02
864.996	2.11
865.163	1.99
865.33	-0.51
865.497	-1.09
865.664	-0.02
865.832	-1.41
865.999	0.15
866.166	-0.74
866.333	-0.54
866.5	2.13
866.667	0.67
866.834	-0.08
867.001	1.97
867.168	-1.12
867.335	0.31
867.502	-1.33
867.669	2.1
867.836	3.1
868.003	-1.02
868.17	1.68
868.337	-1.02
868.504	3.28
868.671	-0.67
868.838	0.64
869.005	-0.03
869.172	1.06
869.339	0.77
869.505	1.51
869.672	0.62
869.839	2.61
870.006	0.66
870.173	-2.03
870.339	1.2
870.506	4.07
870.673	-1.22
870.84	1.94
871.006	0.78
871.173	0.49
871.34	0.09
871.506	-1.14
871.673	0.26
871.839	-0.46
872.006	0.49
872.173	0.85
872.339	1.42
872.506	1.87
872.672	1.38
872.839	-1.12
873.005	0.46
873.172	4.92
873.338	1.27
873.505	0.74
873.671	-0.56
873.838	2.56
874.004	-0.63
874.171	-0.91
874.337	3.06
874.503	0.34
874.67	1.2
874.836	-0.67
875.002	2.42
875.169	3.32
875.335	0.7
875.501	-1.14
875.668	3.34
875.834	1.08
876	0.12
876.166	1
876.332	1.43
876.499	4.83
876.665	0.87
876.831	1.15
876.997	4.14
877.163	2.62
877.329	1.04
877.495	1.79
877.662	1.28
877.828	-0.17
877.994	1.31
878.16	-2.29
878.326	-0
878.492	0.54
878.658	-0.54
878.824	1.93
878.99	1.86
879.156	0.37
879.322	3.43
879.487	1.16
879.653	2.04
879.819	1.17
879.985	0.26
880.151	1.83
880.317	1.96
880.483	-0.26
880.648	3.23
880.814	-0.3
880.98	0.24
881.146	-2.65
881.312	-1.16
881.477	0.99
881.643	-0.23
881.809	2.99
881.974	1.69
882.14	-1.18
882.306	1.09
882.471	4.24
882.637	-0.15
882.803	2.55
882.968	2.37
883.134	4.21
883.299	-0.49
883.465	1.75
883.63	2.14
883.796	4.14
883.961	3.86
884.127	2.4
884.292	-3.38
884.458	-1.37
884.623	-1.37
