Data from Apollo_Calib_20240827__AbsoluteIrradiance__473__07-02-00-484.txt Node

Date: Wed Aug 28 07:02:00 BST 2024
User: biology
Spectrometer: FLMT08252
Trigger mode: 0
Integration Time (sec): 5.000000E-1
Scans to average: 5
Electric dark correction enabled: true
Nonlinearity correction enabled: false
Boxcar width: 0
XAxis mode: Wavelengths
Number of Pixels in Spectrum: 3648
>>>>>Begin Spectral Data<<<<<
179.588	-0
179.809	-0
180.03	-0
180.251	-0
180.473	-0
180.694	0
180.915	0
181.136	-0
181.357	-0
181.578	-0
181.799	-0
182.02	0
182.241	-0
182.462	-0
182.683	0
182.904	-0
183.125	-0
183.346	0
183.567	-0
183.788	-0
184.009	-0
184.23	-0
184.451	0
184.672	-0
184.892	-0
185.113	-0
185.334	0
185.555	-0
185.776	-0
185.996	-0
186.217	0
186.438	-0
186.659	-0
186.879	-0
187.1	-0
187.321	-0
187.541	-0
187.762	0
187.983	-0
188.203	-0
188.424	0
188.644	-0
188.865	-0
189.086	-0
189.306	-0
189.527	-0
189.747	0
189.968	-0
190.188	-0
190.409	-0
190.629	-0
190.849	-0
191.07	-0
191.29	-0
191.511	-0
191.731	-0
191.951	-0
192.172	-0
192.392	-0
192.612	-0
192.833	0
193.053	-0
193.273	-0
193.493	-0
193.714	-0
193.934	0
194.154	0
194.374	0
194.594	-0
194.815	-0
195.035	-0
195.255	-0
195.475	-0
195.695	0
195.915	0
196.135	-0
196.355	0
196.575	0
196.795	0
197.015	-0
197.235	-0
197.455	-0
197.675	-0
197.895	-0
198.115	-0
198.335	-0
198.555	-0
198.775	-0
198.995	0
199.214	0
199.434	-0
199.654	-0
199.874	-0
200.094	-1.91
200.313	-0.51
200.533	-0.84
200.753	-1.04
200.973	0.49
201.192	0.86
201.412	-0.98
201.632	-0.92
201.851	0.09
202.071	-0.64
202.291	-0.94
202.51	-0.9
202.73	-0.09
202.95	-0.39
203.169	-0.96
203.389	-0.08
203.608	-0.26
203.828	-0.98
204.047	-0.36
204.267	0.31
204.486	-0.36
204.706	0.03
204.925	-0.18
205.145	-0.3
205.364	-0.18
205.583	0.27
205.803	-0.47
206.022	-0.46
206.242	-0.33
206.461	-0.09
206.68	-0.39
206.9	-0.2
207.119	0.32
207.338	0.31
207.557	-0.35
207.777	-0.33
207.996	-0.35
208.215	0.11
208.434	-0.66
208.654	-0.66
208.873	-0.15
209.092	0.21
209.311	-0.64
209.53	-0.36
209.749	-0.28
209.968	-0.48
210.187	-0.31
210.407	-0.44
210.626	-0.1
210.845	0.03
211.064	-0.4
211.283	-0.48
211.502	-0.03
211.721	-0.01
211.94	-0.4
212.159	0.08
212.377	0.1
212.596	0.24
212.815	-0.27
213.034	-0.26
213.253	0.12
213.472	-0.13
213.691	-0.33
213.91	-0.35
214.128	-0.29
214.347	0.13
214.566	-0.68
214.785	-0.4
215.003	-0.01
215.222	0.11
215.441	-0.18
215.66	-0.41
215.878	-0.2
216.097	0.16
216.316	-0.45
216.534	-0.15
216.753	-0
216.972	-0.1
217.19	-0.28
217.409	-0.35
217.627	-0.16
217.846	-0.28
218.064	-0.09
218.283	-0.28
218.501	0.19
218.72	0.26
218.938	-0.31
219.157	-0.38
219.375	0.05
219.594	-0.05
219.812	-0.32
220.031	-0.42
220.249	0.18
220.467	0.16
220.686	-0.2
220.904	-0.37
221.122	-0.26
221.341	0.13
221.559	-0.23
221.777	-0.32
221.995	-0.03
222.214	-0.01
222.432	-0.2
222.65	-0.14
222.868	0.05
223.086	0.01
223.305	-0.01
223.523	-0.21
223.741	0.16
223.959	-0.33
224.177	-0.31
224.395	-0.17
224.613	-0.1
224.831	0.06
225.049	-0.25
225.267	-0.14
225.485	-0.1
225.703	-0.08
225.921	-0.18
226.139	-0.12
226.357	0.11
226.575	-0.12
226.793	-0.05
227.011	0.45
227.229	-0.1
227.447	0.06
227.665	-0.3
227.883	-0.25
228.1	-0.09
228.318	0.06
228.536	-0.35
228.754	-0.27
228.972	0.01
229.189	-0.08
229.407	-0.19
229.625	-0.19
229.843	0.07
230.06	0.02
230.278	-0.07
230.496	-0.18
230.713	-0.11
230.931	-0
231.149	-0.18
231.366	-0.24
231.584	-0.14
231.801	0.18
232.019	-0.18
232.236	-0.26
232.454	-0.25
232.671	0.09
232.889	-0.04
233.106	-0.19
233.324	-0.08
233.541	-0.09
233.759	-0.1
233.976	-0.19
234.194	-0.08
234.411	-0.08
234.628	-0.22
234.846	-0.11
235.063	-0.05
235.28	-0.06
235.498	-0.12
235.715	-0.16
235.932	-0.02
236.149	-0.14
236.367	-0.14
236.584	0
236.801	-0.15
237.018	-0.04
237.236	-0.07
237.453	-0.15
237.67	-0.02
237.887	-0.07
238.104	-0.06
238.321	-0.24
238.538	-0.14
238.755	-0.03
238.973	-0.28
239.19	-0.06
239.407	-0.01
239.624	-0.06
239.841	-0.2
240.058	-0.22
240.275	-0.1
240.492	-0.16
240.709	-0.09
240.925	-0.1
241.142	-0.12
241.359	-0.13
241.576	-0.19
241.793	-0.2
242.01	0.02
242.227	-0.03
242.444	-0.12
242.66	0.04
242.877	-0.12
243.094	-0.08
243.311	0.05
243.527	-0.1
243.744	-0.06
243.961	-0.07
244.178	-0.05
244.394	-0.08
244.611	-0.03
244.828	0.06
245.044	-0.1
245.261	-0.03
245.477	-0.07
245.694	0.09
245.911	-0.21
246.127	-0.04
246.344	-0.03
246.56	-0
246.777	-0.11
246.993	-0.09
247.21	-0.02
247.426	0
247.643	-0.08
247.859	-0.19
248.076	-0.07
248.292	0.15
248.508	-0.12
248.725	-0.08
248.941	-0.05
249.157	0.07
249.374	-0.09
249.59	-0.07
249.806	-0.04
250.023	0
250.239	-0.06
250.455	-0.19
250.671	-0.1
250.888	-0.03
251.104	-0.01
251.32	-0.11
251.536	-0.05
251.752	-0.12
251.969	-0.09
252.185	-0.04
252.401	0.08
252.617	0
252.833	-0.08
253.049	-0.09
253.265	-0
253.481	-0.02
253.697	-0.14
253.913	-0.18
254.129	-0.05
254.345	-0.13
254.561	-0.05
254.777	-0.04
254.993	0.02
255.209	-0.09
255.425	-0.06
255.641	-0.04
255.857	0.02
256.073	-0.03
256.288	-0.16
256.504	-0.1
256.72	-0.02
256.936	0.02
257.152	-0.09
257.367	-0.07
257.583	-0.02
257.799	0.01
258.015	-0.11
258.23	-0.14
258.446	0.05
258.662	-0.02
258.877	-0.17
259.093	-0.07
259.309	-0.06
259.524	-0.02
259.74	-0.12
259.955	-0.14
260.171	-0.01
260.387	-0.06
260.602	-0.09
260.818	0.01
261.033	-0.14
261.249	-0.05
261.464	-0.15
261.68	-0.18
261.895	-0.03
262.11	0.01
262.326	-0.12
262.541	-0.14
262.757	0.04
262.972	0.01
263.187	-0.03
263.403	0
263.618	-0.02
263.833	-0.03
264.049	-0.07
264.264	-0.09
264.479	-0.02
264.694	0.02
264.91	-0.18
265.125	-0.07
265.34	-0.01
265.555	0.08
265.77	-0.01
265.986	-0.06
266.201	0.03
266.416	0.07
266.631	-0.09
266.846	-0.01
267.061	-0.03
267.276	0.01
267.491	-0.18
267.706	-0.05
267.921	-0.03
268.136	-0.01
268.351	-0.03
268.566	-0.11
268.781	0.02
268.996	0.05
269.211	-0.12
269.426	-0.09
269.641	-0.08
269.856	0
270.071	-0.06
270.285	-0.15
270.5	0.03
270.715	0.01
270.93	-0.03
271.145	-0.04
271.359	0.06
271.574	-0.1
271.789	-0.08
272.004	-0.07
272.218	-0.02
272.433	0.06
272.648	-0.09
272.862	0.02
273.077	-0.07
273.292	-0.04
273.506	-0
273.721	-0.06
273.936	-0.03
274.15	0.04
274.365	-0.08
274.579	-0.05
274.794	-0.01
275.008	0.03
275.223	-0.07
275.437	-0.01
275.652	0.04
275.866	0.01
276.081	-0.04
276.295	0.01
276.509	0.05
276.724	-0.05
276.938	-0.04
277.153	-0.01
277.367	-0.01
277.581	-0.16
277.796	-0.06
278.01	-0.12
278.224	0.01
278.438	0.11
278.653	-0.1
278.867	-0.05
279.081	-0.02
279.295	-0.07
279.51	-0.04
279.724	-0.11
279.938	0.03
280.152	-0.02
280.366	-0.11
280.58	-0.05
280.794	0.04
281.008	0
281.222	-0.03
281.437	0.03
281.651	-0.03
281.865	0.04
282.079	-0.05
282.293	-0.15
282.507	-0.12
282.721	-0.1
282.935	-0.04
283.148	-0.12
283.362	-0.04
283.576	-0.09
283.79	-0.05
284.004	-0.07
284.218	0.03
284.432	-0.05
284.646	0.03
284.859	-0.07
285.073	-0.05
285.287	-0.01
285.501	0
285.714	-0.03
285.928	-0.01
286.142	-0.02
286.356	-0.1
286.569	-0.07
286.783	0.08
286.997	-0.01
287.21	-0.02
287.424	-0.01
287.637	-0.06
287.851	-0.05
288.065	-0.02
288.278	-0.03
288.492	-0.06
288.705	-0.08
288.919	-0
289.132	-0.1
289.346	0.03
289.559	-0.09
289.773	-0.06
289.986	-0.07
290.2	-0.01
290.413	0.01
290.626	-0.07
290.84	-0.03
291.053	-0.07
291.267	0.03
291.48	-0.04
291.693	-0.08
291.906	-0.06
292.12	-0.07
292.333	-0.04
292.546	-0.04
292.76	0.04
292.973	-0.01
293.186	0.01
293.399	-0.11
293.612	0.03
293.826	-0.04
294.039	-0.05
294.252	-0.08
294.465	0.01
294.678	-0.02
294.891	-0.02
295.104	-0.05
295.317	-0.06
295.53	-0.02
295.743	-0.06
295.956	-0.04
296.169	0.03
296.382	0.04
296.595	-0.01
296.808	-0.07
297.021	0.03
297.234	-0.02
297.447	0.02
297.66	-0
297.873	0.06
298.086	0.03
298.299	-0.04
298.511	-0.06
298.724	-0.06
298.937	-0.05
299.15	-0.07
299.363	-0
299.575	0.02
299.788	0.01
300.001	-0.05
300.213	-0.12
300.426	-0.09
300.639	-0.05
300.852	-0.06
301.064	-0
301.277	0.02
301.489	0.03
301.702	0.01
301.915	0
302.127	-0.01
302.34	0.01
302.552	-0
302.765	-0.07
302.977	-0.03
303.19	-0.09
303.402	-0.04
303.615	-0.01
303.827	-0.04
304.04	-0.02
304.252	-0.03
304.464	-0.07
304.677	0.08
304.889	0.05
305.102	-0.06
305.314	-0.06
305.526	0
305.739	0.01
305.951	-0.07
306.163	-0.02
306.375	0.05
306.588	-0.06
306.8	-0.07
307.012	-0.08
307.224	-0.06
307.436	0.01
307.649	-0.1
307.861	0.01
308.073	0.01
308.285	-0.04
308.497	-0.06
308.709	-0.02
308.921	-0.02
309.133	0.05
309.346	-0.07
309.558	-0.04
309.77	-0.02
309.982	0.02
310.194	0.02
310.406	-0.06
310.617	0.04
310.829	-0.04
311.041	-0.01
311.253	-0.03
311.465	-0.04
311.677	-0.04
311.889	-0.04
312.101	-0.05
312.313	0.01
312.524	0.06
312.736	-0.11
312.948	-0.04
313.16	0.01
313.372	-0.02
313.583	-0
313.795	-0.04
314.007	-0.03
314.218	0.03
314.43	0.01
314.642	-0.1
314.853	-0.07
315.065	0.02
315.277	-0.02
315.488	0.02
315.7	-0.03
315.912	-0.02
316.123	-0.03
316.335	-0.09
316.546	0.04
316.758	-0.08
316.969	-0.1
317.181	-0.03
317.392	-0.01
317.604	0.02
317.815	-0.08
318.026	-0.08
318.238	-0.04
318.449	0.02
318.661	-0.07
318.872	-0.11
319.083	-0.07
319.295	0.03
319.506	-0.03
319.717	-0
319.929	0
320.14	-0.01
320.351	-0.01
320.562	-0.04
320.774	0.01
320.985	-0.01
321.196	-0.07
321.407	-0.09
321.618	0.02
321.829	0
322.041	-0.02
322.252	-0.04
322.463	0.02
322.674	-0.02
322.885	-0.11
323.096	-0.05
323.307	-0.05
323.518	-0.02
323.729	-0.08
323.94	-0.04
324.151	-0.06
324.362	0
324.573	-0.03
324.784	-0.06
324.995	0.02
325.206	0.02
325.417	-0.01
325.628	0.01
325.838	-0.04
326.049	-0.05
326.26	-0.02
326.471	-0.03
326.682	-0.02
326.892	-0.02
327.103	-0.07
327.314	-0.07
327.525	0.03
327.735	-0.05
327.946	0
328.157	-0.04
328.368	0.02
328.578	-0.05
328.789	0.01
328.999	-0.03
329.21	-0.04
329.421	-0
329.631	-0.04
329.842	-0.06
330.052	-0.03
330.263	-0.01
330.473	0.05
330.684	-0.06
330.894	-0.02
331.105	-0
331.315	-0.05
331.526	-0.09
331.736	0.05
331.947	-0
332.157	-0.01
332.367	-0.08
332.578	-0.01
332.788	0.05
332.999	-0.01
333.209	-0.02
333.419	-0.08
333.629	0.01
333.84	-0.02
334.05	-0.05
334.26	0.01
334.47	0.02
334.681	-0.01
334.891	-0.06
335.101	0.02
335.311	0.08
335.521	-0.01
335.732	-0.07
335.942	0.04
336.152	0.02
336.362	-0
336.572	0.02
336.782	0.02
336.992	-0.03
337.202	-0.05
337.412	-0.09
337.622	0.01
337.832	-0
338.042	-0.02
338.252	-0.03
338.462	-0.01
338.672	-0.04
338.882	-0.05
339.092	-0.04
339.302	0.02
339.511	-0
339.721	-0.06
339.931	-0.05
340.141	0.03
340.351	-0.03
340.561	-0.01
340.77	-0.02
340.98	-0.05
341.19	0.04
341.4	-0.05
341.609	-0.06
341.819	-0.02
342.029	-0.09
342.238	0
342.448	-0.05
342.658	0.02
342.867	-0.03
343.077	-0.04
343.286	-0.03
343.496	-0.05
343.706	0
343.915	-0.07
344.125	-0.02
344.334	0.01
344.544	-0.05
344.753	-0.05
344.963	-0.06
345.172	-0.07
345.381	-0.07
345.591	-0.06
345.8	-0.04
346.01	0.05
346.219	0.02
346.428	-0.17
346.638	-0.02
346.847	-0.06
347.056	0.03
347.266	-0.08
347.475	-0.04
347.684	-0
347.893	-0.03
348.103	-0.01
348.312	0.03
348.521	-0.05
348.73	-0.03
348.94	-0.05
349.149	-0.02
349.358	-0.07
349.567	-0.07
349.776	-0.07
349.985	-0.02
350.194	0.03
350.403	-0.01
350.612	-0.07
350.821	-0.06
351.03	-0.04
351.239	-0.09
351.448	-0.03
351.657	-0.04
351.866	0.07
352.075	-0.03
352.284	-0.01
352.493	-0.09
352.702	0.02
352.911	-0.06
353.12	-0
353.329	-0.02
353.538	0.02
353.746	-0.01
353.955	-0.04
354.164	-0
354.373	-0.04
354.582	-0.01
354.79	-0.03
354.999	-0.01
355.208	-0.01
355.416	0.03
355.625	-0.04
355.834	-0.04
356.042	-0.04
356.251	-0.06
356.46	-0.06
356.668	-0.01
356.877	0.08
357.085	0.04
357.294	-0.1
357.503	0.02
357.711	-0.04
357.92	0.08
358.128	-0.03
358.337	-0.05
358.545	-0.01
358.754	-0.06
358.962	0.01
359.17	-0.07
359.379	0.02
359.587	0.03
359.796	-0.05
360.004	0.02
360.212	-0.03
360.421	-0.03
360.629	-0.05
360.837	-0.02
361.046	0.03
361.254	0.07
361.462	0
361.67	-0.04
361.879	0.01
362.087	0.03
362.295	-0.01
362.503	-0.01
362.711	-0.07
362.92	-0.04
363.128	-0.04
363.336	-0.06
363.544	-0.09
363.752	-0.02
363.96	-0.04
364.168	-0.05
364.376	-0.03
364.584	0.02
364.792	-0.02
365	-0.03
365.208	-0.01
365.416	-0
365.624	0.02
365.832	-0.07
366.04	-0.01
366.248	-0.03
366.456	-0.01
366.664	-0.01
366.872	-0.02
367.079	-0.01
367.287	-0.01
367.495	0.01
367.703	-0.03
367.911	-0.05
368.118	-0.03
368.326	0
368.534	-0.09
368.742	-0.02
368.949	-0.04
369.157	-0.01
369.365	-0.02
369.572	-0.03
369.78	-0.05
369.988	0.04
370.195	-0.01
370.403	0.01
370.61	-0.07
370.818	-0.01
371.026	0.07
371.233	-0.08
371.441	-0.04
371.648	-0.05
371.856	0.01
372.063	-0
372.271	-0.05
372.478	-0.06
372.685	-0.04
372.893	0
373.1	-0.03
373.308	-0.05
373.515	0.03
373.722	-0.03
373.93	-0.02
374.137	0.01
374.344	0.04
374.552	0.01
374.759	0.01
374.966	-0.01
375.173	-0.03
375.381	0.05
375.588	-0.08
375.795	-0.1
376.002	-0.02
376.209	-0.07
376.417	-0.03
376.624	-0.03
376.831	-0.01
377.038	-0.04
377.245	-0.1
377.452	-0.06
377.659	-0.04
377.866	-0.06
378.073	-0.04
378.28	-0.07
378.487	0.01
378.694	0.04
378.901	-0.01
379.108	-0.02
379.315	-0.04
379.522	0.07
379.729	-0
379.936	-0.02
380.143	-0.02
380.35	-0.01
380.557	-0.03
380.763	-0.01
380.97	-0.02
381.177	-0.01
381.384	-0
381.591	-0.03
381.797	-0.04
382.004	0
382.211	-0
382.418	-0.01
382.624	0.02
382.831	-0.01
383.038	-0.01
383.244	-0.02
383.451	-0.03
383.658	-0.01
383.864	-0.02
384.071	-0.07
384.277	0.04
384.484	-0.04
384.69	0.03
384.897	-0.04
385.103	-0.05
385.31	-0.08
385.516	-0.04
385.723	-0.07
385.929	-0.05
386.136	-0.02
386.342	-0.03
386.549	-0.06
386.755	0.01
386.961	-0.02
387.168	-0.04
387.374	-0.02
387.58	-0
387.787	-0.06
387.993	-0.03
388.199	-0.05
388.406	0.01
388.612	-0.05
388.818	-0.06
389.024	-0.06
389.231	-0.04
389.437	-0
389.643	0.01
389.849	-0.04
390.055	-0.02
390.261	-0.04
390.467	-0.05
390.674	-0.04
390.88	-0.05
391.086	0.02
391.292	-0.08
391.498	0.01
391.704	-0.02
391.91	-0.04
392.116	-0.06
392.322	-0.11
392.528	0.03
392.734	-0.04
392.94	-0.03
393.146	-0.06
393.352	-0.04
393.557	-0.04
393.763	-0.03
393.969	-0
394.175	-0
394.381	-0.03
394.587	-0.09
394.792	-0.06
394.998	0.01
395.204	0.04
395.41	-0.03
395.615	-0.02
395.821	0
396.027	0.02
396.233	-0.05
396.438	-0.02
396.644	0.05
396.85	-0
397.055	-0.08
397.261	-0.01
397.466	-0.07
397.672	-0.05
397.878	-0.02
398.083	-0.05
398.289	-0.06
398.494	0.02
398.7	-0.02
398.905	-0.09
399.111	0.03
399.316	-0.06
399.522	-0.04
399.727	-0.04
399.932	-0.02
400.138	-0
400.343	0.01
400.549	-0.05
400.754	-0.04
400.959	0.01
401.165	-0.01
401.37	-0.05
401.575	0.07
401.78	-0
401.986	-0.04
402.191	-0.03
402.396	-0.04
402.601	-0.01
402.807	-0.08
403.012	-0.01
403.217	0.01
403.422	-0.02
403.627	-0.03
403.832	-0.04
404.037	-0.01
404.243	-0.03
404.448	-0.1
404.653	-0.07
404.858	-0.01
405.063	-0.01
405.268	-0.05
405.473	-0.04
405.678	-0.02
405.883	0.09
406.088	-0.01
406.293	-0.06
406.498	-0.08
406.703	-0
406.907	-0.01
407.112	-0.06
407.317	-0.05
407.522	0.04
407.727	-0.08
407.932	-0.04
408.136	0.04
408.341	0
408.546	-0.04
408.751	-0.02
408.956	-0.04
409.16	-0.02
409.365	-0.05
409.57	-0.03
409.774	-0.04
409.979	0.01
410.184	-0.01
410.388	-0.06
410.593	0.04
410.798	-0.02
411.002	-0.07
411.207	-0.02
411.411	0.02
411.616	-0.05
411.82	-0.03
412.025	0
412.229	-0.07
412.434	0.04
412.638	-0.03
412.843	-0.04
413.047	-0.04
413.252	-0.04
413.456	0
413.66	-0.01
413.865	-0.05
414.069	0.06
414.273	-0.02
414.478	-0.05
414.682	-0.05
414.886	-0.07
415.091	-0.07
415.295	-0.12
415.499	-0.01
415.703	-0.06
415.908	0.02
416.112	-0.11
416.316	-0.01
416.52	-0.03
416.724	-0.1
416.929	-0.07
417.133	0.05
417.337	-0.02
417.541	-0.07
417.745	-0
417.949	-0.04
418.153	-0.04
418.357	-0.12
418.561	-0.02
418.765	-0.04
418.969	0.1
419.173	0.03
419.377	-0.03
419.581	0
419.785	-0.04
419.989	-0.08
420.193	-0.07
420.397	-0.03
420.601	0.03
420.804	-0.07
421.008	-0.02
421.212	-0.03
421.416	-0.01
421.62	-0.01
421.823	-0.05
422.027	0.09
422.231	-0.01
422.435	-0.07
422.638	0.05
422.842	0.01
423.046	-0.02
423.249	-0.02
423.453	0.01
423.657	-0.03
423.86	-0.05
424.064	-0.05
424.268	0.02
424.471	-0.08
424.675	0.06
424.878	0.07
425.082	-0.04
425.285	0.01
425.489	-0.01
425.692	-0.04
425.896	-0.09
426.099	0
426.303	-0.09
426.506	-0.08
426.71	-0.01
426.913	-0.01
427.116	0.02
427.32	-0.01
427.523	-0.02
427.726	0.01
427.93	-0.06
428.133	-0.07
428.336	-0.08
428.54	-0.1
428.743	-0.02
428.946	0.03
429.149	-0.05
429.353	-0.04
429.556	-0.1
429.759	-0.05
429.962	-0.05
430.165	-0.01
430.368	-0.02
430.571	-0.08
430.775	0.02
430.978	-0.05
431.181	-0.02
431.384	-0.02
431.587	-0.02
431.79	-0.07
431.993	-0.08
432.196	-0.08
432.399	-0.06
432.602	0.01
432.805	-0.07
433.008	-0.05
433.211	-0.09
433.414	0.01
433.616	0.03
433.819	-0.05
434.022	-0.11
434.225	0.03
434.428	-0.02
434.631	0.05
434.833	0.01
435.036	-0.05
435.239	-0.03
435.442	-0.01
435.645	-0.07
435.847	-0.03
436.05	0.05
436.253	-0.03
436.455	-0.08
436.658	-0.03
436.861	0.06
437.063	-0.07
437.266	-0.04
437.468	-0.01
437.671	0.04
437.874	-0.04
438.076	-0.13
438.279	-0.09
438.481	-0.07
438.684	-0.09
438.886	-0.04
439.089	-0.1
439.291	-0.07
439.494	-0.06
439.696	-0.06
439.899	-0.06
440.101	-0.04
440.303	-0.09
440.506	0.01
440.708	-0.07
440.91	0.02
441.113	-0.07
441.315	-0.02
441.517	-0.09
441.72	-0.05
441.922	-0.05
442.124	-0.07
442.326	-0.02
442.529	0.03
442.731	-0.07
442.933	0.06
443.135	-0.05
443.337	-0.07
443.539	-0.1
443.742	-0.06
443.944	-0.01
444.146	-0.08
444.348	-0.07
444.55	-0.04
444.752	-0.07
444.954	-0.08
445.156	-0.09
445.358	-0.07
445.56	-0
445.762	-0.04
445.964	-0.04
446.166	-0.08
446.368	-0.06
446.57	0.04
446.772	-0.07
446.974	-0.06
447.175	-0.03
447.377	-0.08
447.579	-0.1
447.781	-0.13
447.983	0.04
448.184	-0.02
448.386	-0.06
448.588	-0.13
448.79	-0.07
448.991	-0.08
449.193	-0.05
449.395	-0.05
449.597	0.01
449.798	-0.04
450	-0.04
450.202	-0.03
450.403	-0.04
450.605	-0.01
450.806	-0.01
451.008	-0.12
451.21	-0.04
451.411	-0.06
451.613	-0.04
451.814	-0.06
452.016	0.03
452.217	-0.01
452.419	0.01
452.62	-0.06
452.821	-0.01
453.023	0.06
453.224	0.03
453.426	-0.06
453.627	-0
453.828	0
454.03	-0.01
454.231	-0.04
454.432	-0.05
454.634	0.06
454.835	-0.09
455.036	-0.1
455.238	0.03
455.439	0.02
455.64	-0.1
455.841	-0.08
456.042	0.1
456.244	-0.01
456.445	-0.07
456.646	-0.14
456.847	-0.03
457.048	-0.01
457.249	-0.02
457.45	0.11
457.651	-0.07
457.852	0.01
458.054	-0.03
458.255	-0.03
458.456	-0.02
458.657	-0.03
458.858	-0.08
459.058	-0.02
459.259	-0.01
459.46	-0.06
459.661	-0.08
459.862	0.07
460.063	-0.06
460.264	0.05
460.465	-0.11
460.666	0.02
460.866	-0.08
461.067	-0
461.268	-0.05
461.469	-0.08
461.67	-0.04
461.87	-0.03
462.071	-0.06
462.272	-0.06
462.473	-0.02
462.673	0.02
462.874	-0.1
463.075	-0.04
463.275	-0.08
463.476	-0.01
463.676	-0.02
463.877	-0.1
464.078	-0.02
464.278	0.01
464.479	-0.08
464.679	-0.06
464.88	-0.05
465.08	0.04
465.281	-0.1
465.481	-0.08
465.682	-0.07
465.882	0.01
466.083	-0.02
466.283	-0.01
466.483	-0.03
466.684	-0.09
466.884	-0.07
467.085	-0.06
467.285	-0.01
467.485	-0.04
467.686	-0.01
467.886	-0.04
468.086	-0.05
468.286	-0.02
468.487	-0.03
468.687	-0.08
468.887	-0.06
469.087	-0
469.287	-0.06
469.488	-0.11
469.688	-0
469.888	-0.01
470.088	-0.04
470.288	0.03
470.488	-0.03
470.688	-0.09
470.888	-0.06
471.088	-0.02
471.288	0.02
471.488	0
471.688	0.01
471.888	-0.06
472.088	0.03
472.288	-0
472.488	-0.1
472.688	-0.06
472.888	-0.02
473.088	-0.04
473.288	-0.01
473.488	-0.03
473.688	0.05
473.887	-0.01
474.087	-0.04
474.287	-0.02
474.487	-0.05
474.687	-0
474.886	-0.05
475.086	-0.04
475.286	-0.03
475.486	-0.04
475.685	-0.03
475.885	-0.03
476.085	-0.05
476.284	-0.02
476.484	-0.06
476.684	-0.01
476.883	0.05
477.083	0
477.282	-0.04
477.482	0
477.681	0.04
477.881	-0.01
478.08	-0.06
478.28	-0.07
478.479	-0
478.679	0.06
478.878	-0.03
479.078	-0.04
479.277	-0.05
479.477	-0.04
479.676	0.01
479.875	-0.02
480.075	-0.06
480.274	-0.02
480.473	-0.02
480.673	-0.07
480.872	-0.01
481.071	-0.03
481.271	0
481.47	-0.06
481.669	-0.03
481.868	-0.07
482.067	-0.01
482.267	-0.04
482.466	-0.03
482.665	-0.03
482.864	-0.03
483.063	-0.06
483.262	-0.01
483.461	0.03
483.661	-0
483.86	-0.02
484.059	-0.02
484.258	-0.02
484.457	-0.02
484.656	-0.02
484.855	0.01
485.054	-0.07
485.253	-0.03
485.452	-0.03
485.651	-0.02
485.849	-0.04
486.048	-0.04
486.247	-0.03
486.446	-0
486.645	-0.04
486.844	-0.06
487.043	-0.03
487.241	0.01
487.44	-0.02
487.639	-0.02
487.838	0
488.037	-0.02
488.235	0.03
488.434	-0.01
488.633	-0.03
488.831	-0.02
489.03	-0
489.229	-0.01
489.427	-0.03
489.626	0.03
489.825	0.02
490.023	-0.04
490.222	-0.01
490.42	0.02
490.619	-0.01
490.817	-0
491.016	-0.02
491.214	0
491.413	-0.01
491.611	-0.03
491.81	-0.01
492.008	-0.02
492.207	0.01
492.405	0
492.604	-0.06
492.802	-0
493	0.01
493.199	-0.03
493.397	-0.02
493.595	-0.02
493.794	-0.05
493.992	0.03
494.19	-0.01
494.388	-0.01
494.587	-0.03
494.785	-0.02
494.983	-0.03
495.181	0
495.379	-0.01
495.578	-0.02
495.776	-0
495.974	-0.01
496.172	-0.03
496.37	-0.02
496.568	-0.04
496.766	-0.02
496.964	-0.01
497.162	-0.03
497.36	-0.05
497.558	0
497.756	0.01
497.954	-0.03
498.152	-0.03
498.35	-0.01
498.548	-0.04
498.746	-0
498.944	-0.03
499.142	-0.05
499.34	-0.05
499.538	-0.03
499.736	-0.02
499.933	0
500.131	0.02
500.329	-0.03
500.527	0.02
500.725	0
500.922	-0.01
501.12	-0.01
501.318	-0.02
501.516	-0.03
501.713	0
501.911	-0.04
502.109	-0.07
502.306	-0.02
502.504	-0.01
502.701	-0.03
502.899	-0.02
503.097	0.02
503.294	-0.02
503.492	-0.05
503.689	0.01
503.887	0.01
504.084	0.04
504.282	-0
504.479	-0.06
504.677	-0.02
504.874	-0.07
505.072	-0.04
505.269	-0.03
505.466	0.01
505.664	-0.02
505.861	-0.04
506.059	-0.04
506.256	-0.01
506.453	-0.03
506.651	0.03
506.848	0
507.045	-0.01
507.242	-0.01
507.44	-0.03
507.637	-0.02
507.834	-0.03
508.031	0.02
508.229	-0.04
508.426	0
508.623	0
508.82	-0.03
509.017	-0.02
509.214	-0.01
509.411	-0.02
509.608	-0.05
509.805	-0.02
510.003	-0.03
510.2	-0.04
510.397	0.02
510.594	-0.03
510.791	-0.05
510.988	-0.01
511.184	-0
511.381	-0.02
511.578	-0.04
511.775	0.01
511.972	-0.03
512.169	-0.04
512.366	-0.02
512.563	-0.02
512.76	-0.04
512.956	-0.02
513.153	-0.04
513.35	0.01
513.547	-0.01
513.744	-0.03
513.94	-0.05
514.137	-0.01
514.334	-0.01
514.53	-0.02
514.727	-0.02
514.924	0.03
515.12	-0.03
515.317	-0.06
515.514	-0.03
515.71	-0.06
515.907	-0.02
516.103	-0.02
516.3	-0.01
516.497	-0
516.693	0.02
516.89	-0.02
517.086	-0.05
517.283	-0.01
517.479	-0.02
517.676	-0.02
517.872	-0.02
518.068	-0.03
518.265	-0.04
518.461	-0.04
518.658	-0.03
518.854	-0
519.05	-0.02
519.247	-0.04
519.443	0.01
519.639	0.01
519.836	-0.01
520.032	-0.02
520.228	-0.01
520.424	0.01
520.621	-0.01
520.817	-0.02
521.013	0.02
521.209	-0.01
521.405	0.02
521.601	-0.03
521.798	-0
521.994	0.02
522.19	-0.05
522.386	-0.04
522.582	-0.03
522.778	-0.02
522.974	-0.03
523.17	-0.01
523.366	-0.03
523.562	0.01
523.758	-0.02
523.954	-0.02
524.15	-0.03
524.346	0
524.542	-0.02
524.738	-0.03
524.934	-0.03
525.129	-0.01
525.325	0.01
525.521	-0.02
525.717	0.03
525.913	-0.02
526.109	-0.02
526.304	-0.03
526.5	0.02
526.696	0.02
526.892	-0.04
527.087	-0.01
527.283	-0.02
527.479	-0.01
527.674	-0.03
527.87	-0.02
528.066	-0.04
528.261	-0
528.457	-0.01
528.653	-0.02
528.848	-0.03
529.044	-0.02
529.239	-0.02
529.435	-0
529.63	-0.02
529.826	0.01
530.021	-0.03
530.217	-0.01
530.412	-0.02
530.608	-0.04
530.803	-0
530.999	0
531.194	-0.04
531.389	-0.02
531.585	-0.07
531.78	-0.01
531.975	-0
532.171	-0.01
532.366	-0.03
532.561	-0.01
532.757	-0.03
532.952	-0.03
533.147	0.01
533.342	-0
533.538	-0.03
533.733	-0
533.928	-0.03
534.123	-0.01
534.318	-0.05
534.513	-0.03
534.709	0
534.904	-0.05
535.099	-0.02
535.294	0
535.489	-0.01
535.684	-0.03
535.879	-0.05
536.074	0
536.269	-0.04
536.464	-0.01
536.659	-0.02
536.854	-0.02
537.049	-0.01
537.244	-0
537.439	-0.04
537.634	-0.02
537.828	-0
538.023	-0.02
538.218	-0.05
538.413	-0.02
538.608	-0.08
538.803	-0
538.997	-0.06
539.192	0.02
539.387	0
539.582	-0.01
539.776	-0.02
539.971	-0.02
540.166	-0.03
540.36	-0.04
540.555	-0.02
540.75	-0.02
540.944	-0.03
541.139	-0.05
541.334	-0.03
541.528	-0.01
541.723	-0.01
541.917	-0.03
542.112	-0.04
542.306	-0.04
542.501	-0.01
542.695	0.01
542.89	-0.04
543.084	-0.01
543.279	-0.02
543.473	-0.01
543.668	-0.01
543.862	-0.01
544.056	0.02
544.251	-0.02
544.445	-0.01
544.64	-0.03
544.834	-0.04
545.028	-0.02
545.222	-0
545.417	-0
545.611	-0.01
545.805	-0.01
546	-0.03
546.194	-0.01
546.388	-0.03
546.582	0.03
546.776	-0.03
546.97	-0.04
547.165	0.03
547.359	0
547.553	-0.02
547.747	-0.02
547.941	-0.01
548.135	-0.02
548.329	0.02
548.523	0.01
548.717	-0.02
548.911	-0.03
549.105	-0.04
549.299	-0.02
549.493	0
549.687	0.01
549.881	-0
550.075	-0.02
550.269	-0.05
550.463	-0.02
550.657	-0.03
550.85	-0.01
551.044	-0.02
551.238	-0.03
551.432	-0.03
551.626	-0.04
551.82	-0.03
552.013	-0.05
552.207	-0.01
552.401	0.01
552.594	-0.02
552.788	-0.02
552.982	-0.01
553.176	-0.05
553.369	0.01
553.563	-0.01
553.756	-0.05
553.95	-0.04
554.144	-0.01
554.337	0.01
554.531	-0.01
554.724	-0.02
554.918	-0.03
555.111	-0
555.305	-0.02
555.498	0.03
555.692	0
555.885	-0.04
556.079	0
556.272	-0.02
556.466	0.02
556.659	-0.02
556.852	-0.01
557.046	-0.05
557.239	0.01
557.432	-0.03
557.626	-0.02
557.819	0
558.012	-0.01
558.206	0
558.399	-0.02
558.592	0
558.785	-0.04
558.979	0.01
559.172	-0.01
559.365	-0
559.558	-0.01
559.751	-0.03
559.944	-0.02
560.138	-0.04
560.331	-0.02
560.524	-0.03
560.717	-0.02
560.91	-0.02
561.103	-0
561.296	-0.01
561.489	0.01
561.682	-0.02
561.875	-0
562.068	-0
562.261	0
562.454	0.05
562.647	0.01
562.84	-0
563.032	-0
563.225	-0.01
563.418	-0.04
563.611	-0.02
563.804	-0.01
563.997	-0.05
564.19	-0.06
564.382	-0.01
564.575	-0.01
564.768	-0.02
564.961	-0.03
565.153	-0.05
565.346	-0
565.539	0.02
565.731	0.01
565.924	-0.02
566.117	0
566.309	-0.02
566.502	-0.02
566.695	-0.03
566.887	-0.02
567.08	-0.02
567.272	-0.03
567.465	-0.02
567.657	0
567.85	-0.02
568.042	-0
568.235	0.01
568.427	-0.01
568.62	0
568.812	0.01
569.005	-0.03
569.197	-0.06
569.389	0.01
569.582	-0.02
569.774	-0.01
569.966	-0.03
570.159	-0.06
570.351	0.01
570.543	-0.04
570.736	-0.01
570.928	-0.05
571.12	-0
571.312	-0.02
571.505	-0.06
571.697	0.01
571.889	-0.04
572.081	-0.02
572.273	-0.02
572.465	0.02
572.658	-0.01
572.85	-0.01
573.042	-0
573.234	-0.01
573.426	0.02
573.618	-0.02
573.81	-0.02
574.002	-0
574.194	0.01
574.386	-0.04
574.578	-0.09
574.77	-0.02
574.962	-0
575.154	-0.04
575.346	-0.01
575.538	0.01
575.729	-0.03
575.921	-0.03
576.113	-0.02
576.305	-0
576.497	-0.02
576.689	-0.01
576.88	-0.03
577.072	0
577.264	-0.02
577.456	-0.03
577.647	-0.08
577.839	-0.01
578.031	0.02
578.223	-0.05
578.414	-0.05
578.606	-0
578.798	-0.01
578.989	-0.02
579.181	-0.02
579.372	0.01
579.564	-0.01
579.755	-0
579.947	0.02
580.139	0.02
580.33	-0.06
580.522	-0.03
580.713	-0.09
580.905	-0.02
581.096	0
581.287	-0.01
581.479	-0
581.67	-0
581.862	-0
582.053	-0.02
582.244	-0.05
582.436	-0.02
582.627	-0.01
582.818	-0.05
583.01	-0.06
583.201	0.02
583.392	0.04
583.583	-0.01
583.775	-0.02
583.966	-0.02
584.157	-0.01
584.348	-0.04
584.54	-0.05
584.731	-0.01
584.922	-0.01
585.113	-0.02
585.304	0
585.495	0.03
585.686	-0.02
585.877	0.01
586.068	0.01
586.259	0.01
586.45	-0
586.641	-0.02
586.832	-0.07
587.023	-0.01
587.214	0
587.405	0.01
587.596	-0.02
587.787	0.01
587.978	-0
588.169	-0.05
588.36	-0.02
588.551	0.03
588.742	-0.01
588.932	0.01
589.123	0
589.314	0.02
589.505	-0.01
589.696	0
589.886	-0.01
590.077	-0.04
590.268	0.03
590.458	-0.03
590.649	-0.04
590.84	0.05
591.03	-0.04
591.221	-0.05
591.412	-0.01
591.602	0.02
591.793	0.04
591.984	-0
592.174	0
592.365	0.05
592.555	0
592.746	-0
592.936	0.04
593.127	0.03
593.317	0.04
593.508	-0.02
593.698	0
593.889	0.03
594.079	-0.01
594.269	-0.02
594.46	0.03
594.65	0.01
594.84	-0
595.031	-0
595.221	-0.01
595.411	-0.03
595.602	0.06
595.792	0.01
595.982	0.01
596.172	0.07
596.363	0.04
596.553	0.04
596.743	0.01
596.933	0.03
597.123	0.07
597.314	-0.01
597.504	0.04
597.694	0.05
597.884	0.02
598.074	0.03
598.264	0.01
598.454	0.05
598.644	0.01
598.834	0.03
599.024	-0.01
599.214	0.04
599.404	0.08
599.594	0.03
599.784	0
599.974	0.08
600.164	0.06
600.354	-0.01
600.544	0.01
600.734	0.05
600.924	0.07
601.114	0.02
601.303	0.07
601.493	0.06
601.683	0.03
601.873	0.05
602.063	-0
602.252	0.08
602.442	0.03
602.632	0.03
602.821	0.07
603.011	0.08
603.201	0.06
603.39	0.05
603.58	0.04
603.77	0.11
603.959	0.1
604.149	0.09
604.339	0.05
604.528	0.11
604.718	0.09
604.907	0.07
605.097	0.08
605.286	0.04
605.476	0.1
605.665	0.14
605.855	0.09
606.044	0.14
606.234	0.1
606.423	0.1
606.612	0.11
606.802	0.11
606.991	0.15
607.181	0.13
607.37	0.09
607.559	0.1
607.749	0.08
607.938	0.11
608.127	0.12
608.316	0.1
608.506	0.16
608.695	0.14
608.884	0.11
609.073	0.17
609.263	0.17
609.452	0.15
609.641	0.16
609.83	0.11
610.019	0.17
610.208	0.14
610.397	0.16
610.586	0.19
610.775	0.19
610.965	0.19
611.154	0.18
611.343	0.2
611.532	0.16
611.721	0.2
611.91	0.2
612.099	0.21
612.287	0.23
612.476	0.19
612.665	0.26
612.854	0.2
613.043	0.25
613.232	0.26
613.421	0.23
613.61	0.28
613.798	0.26
613.987	0.31
614.176	0.28
614.365	0.32
614.554	0.36
614.742	0.32
614.931	0.28
615.12	0.33
615.309	0.31
615.497	0.35
615.686	0.29
615.875	0.33
616.063	0.36
616.252	0.35
616.44	0.34
616.629	0.37
616.818	0.39
617.006	0.37
617.195	0.38
617.383	0.41
617.572	0.42
617.76	0.4
617.949	0.39
618.137	0.45
618.326	0.45
618.514	0.42
618.703	0.41
618.891	0.52
619.079	0.42
619.268	0.52
619.456	0.44
619.644	0.52
619.833	0.47
620.021	0.47
620.209	0.41
620.398	0.51
620.586	0.48
620.774	0.55
620.962	0.5
621.151	0.57
621.339	0.53
621.527	0.49
621.715	0.5
621.903	0.49
622.092	0.51
622.28	0.56
622.468	0.51
622.656	0.52
622.844	0.55
623.032	0.53
623.22	0.49
623.408	0.6
623.596	0.59
623.784	0.57
623.972	0.52
624.16	0.5
624.348	0.57
624.536	0.52
624.724	0.49
624.912	0.56
625.1	0.51
625.288	0.49
625.476	0.49
625.664	0.52
625.851	0.46
626.039	0.48
626.227	0.47
626.415	0.42
626.603	0.39
626.79	0.42
626.978	0.41
627.166	0.4
627.354	0.33
627.541	0.32
627.729	0.31
627.917	0.36
628.104	0.36
628.292	0.29
628.48	0.29
628.667	0.28
628.855	0.3
629.042	0.28
629.23	0.23
629.418	0.24
629.605	0.21
629.793	0.2
629.98	0.21
630.168	0.18
630.355	0.18
630.543	0.19
630.73	0.13
630.917	0.2
631.105	0.18
631.292	0.18
631.48	0.12
631.667	0.17
631.854	0.14
632.042	0.13
632.229	0.07
632.416	0.14
632.604	0.11
632.791	0.06
632.978	0.12
633.165	0.14
633.353	0.15
633.54	0.1
633.727	0.03
633.914	0.08
634.101	0.03
634.289	0.13
634.476	0.04
634.663	0.05
634.85	0.06
635.037	0.03
635.224	0.01
635.411	0.09
635.598	0.07
635.785	0.04
635.972	0.01
636.159	0.08
636.346	-0
636.533	0.06
636.72	0.04
636.907	0.04
637.094	0.04
637.281	0.04
637.468	0.03
637.655	0.01
637.842	0.02
638.029	0
638.215	0.05
638.402	0.04
638.589	-0.02
638.776	0.01
638.963	-0.02
639.149	0.03
639.336	0.06
639.523	-0.02
639.709	-0.02
639.896	0
640.083	0.06
640.27	0.03
640.456	0.01
640.643	0.03
640.829	-0.04
641.016	-0
641.203	-0.03
641.389	0.04
641.576	0.01
641.762	0
641.949	-0.03
642.135	-0.02
642.322	-0.01
642.508	-0.02
642.695	0
642.881	-0
643.068	-0.01
643.254	0.03
643.441	0.03
643.627	-0.01
643.813	-0.04
644	0.03
644.186	-0.05
644.372	0.04
644.559	0.04
644.745	-0.02
644.931	-0.03
645.118	0.01
645.304	-0.01
645.49	-0.03
645.676	-0.02
645.862	-0.02
646.049	0.01
646.235	-0.03
646.421	0.02
646.607	0.04
646.793	-0.02
646.979	-0.04
647.165	-0.01
647.352	-0
647.538	0.05
647.724	-0.02
647.91	-0.02
648.096	0.02
648.282	0.01
648.468	-0.02
648.654	-0.02
648.84	-0.01
649.026	0.02
649.212	-0.05
649.397	-0.05
649.583	-0.07
649.769	0.01
649.955	-0.03
650.141	-0.02
650.327	0.03
650.513	-0.02
650.698	-0.01
650.884	-0.1
651.07	-0.01
651.256	-0.01
651.442	-0.01
651.627	-0.02
651.813	-0.03
651.999	-0.02
652.184	-0.01
652.37	-0.02
652.556	-0.07
652.741	0.05
652.927	-0.07
653.113	-0.05
653.298	-0.02
653.484	-0.04
653.669	-0.05
653.855	-0.02
654.04	0.01
654.226	-0.03
654.412	-0.03
654.597	-0.04
654.782	-0.01
654.968	-0.01
655.153	0.02
655.339	-0.05
655.524	-0.07
655.71	0.03
655.895	-0.02
656.08	-0.03
656.266	0.02
656.451	0.04
656.636	-0.04
656.822	-0.02
657.007	-0.08
657.192	-0.06
657.378	-0.1
657.563	-0.03
657.748	0
657.933	-0
658.118	-0.03
658.304	-0.04
658.489	-0.01
658.674	-0.01
658.859	-0.08
659.044	-0.03
659.229	-0
659.414	-0.04
659.599	-0.02
659.785	-0.07
659.97	-0.04
660.155	-0.02
660.34	-0.01
660.525	-0.06
660.71	-0.06
660.895	0.01
661.08	-0.05
661.264	-0.05
661.449	0
661.634	-0.01
661.819	-0.01
662.004	0.03
662.189	-0.09
662.374	-0.05
662.559	-0.05
662.743	-0.08
662.928	-0.05
663.113	-0.06
663.298	-0.07
663.483	-0.05
663.667	0.02
663.852	-0.08
664.037	0.02
664.221	-0.07
664.406	0.01
664.591	-0
664.775	-0.02
664.96	-0.08
665.145	-0.03
665.329	0.01
665.514	-0.06
665.698	-0.07
665.883	-0.11
666.068	0.03
666.252	-0.02
666.437	-0.09
666.621	-0.04
666.806	-0.03
666.99	-0.04
667.174	-0.08
667.359	0.02
667.543	-0.07
667.728	-0.05
667.912	-0.09
668.096	-0.01
668.281	-0.02
668.465	-0.01
668.649	-0.05
668.834	-0.08
669.018	-0.03
669.202	-0.06
669.387	-0.06
669.571	0.02
669.755	-0.06
669.939	-0.01
670.124	-0.03
670.308	0.02
670.492	0.04
670.676	-0.04
670.86	-0.04
671.044	-0.09
671.228	0.03
671.413	-0.05
671.597	-0.07
671.781	-0.05
671.965	-0
672.149	-0.07
672.333	-0.07
672.517	-0.04
672.701	0.01
672.885	-0.07
673.069	-0.1
673.253	0.03
673.437	-0.04
673.621	-0.06
673.804	-0.02
673.988	-0.06
674.172	-0.01
674.356	-0.12
674.54	-0.04
674.724	0.02
674.908	-0.03
675.091	-0.07
675.275	-0.06
675.459	0.01
675.643	0.02
675.826	-0.05
676.01	-0.02
676.194	-0.04
676.377	0.04
676.561	-0.01
676.745	-0.04
676.928	-0.03
677.112	0.03
677.296	-0.08
677.479	-0.08
677.663	-0.04
677.846	-0.03
678.03	-0.02
678.213	-0.04
678.397	-0.04
678.58	-0.08
678.764	-0.07
678.947	-0.04
679.131	-0.1
679.314	0.03
679.498	-0.03
679.681	-0.02
679.865	0.02
680.048	0.01
680.231	-0.04
680.415	-0.06
680.598	-0.05
680.781	-0.04
680.965	-0.02
681.148	-0.01
681.331	-0.04
681.514	0.01
681.698	-0.07
681.881	0
682.064	-0.04
682.247	-0.04
682.43	-0.11
682.614	0.01
682.797	0.02
682.98	-0
683.163	-0.11
683.346	0
683.529	-0.05
683.712	-0.07
683.895	-0.02
684.078	-0.12
684.261	-0.07
684.444	-0.01
684.627	-0.01
684.81	-0.03
684.993	-0.05
685.176	-0.04
685.359	-0.05
685.542	-0.07
685.725	-0
685.908	-0.02
686.091	-0.08
686.274	-0
686.457	-0.04
686.639	-0.04
686.822	0.01
687.005	-0.05
687.188	0
687.371	0.01
687.553	-0
687.736	-0.05
687.919	0.05
688.102	0.04
688.284	-0.03
688.467	-0.04
688.65	-0.07
688.832	-0.05
689.015	-0.05
689.197	-0.1
689.38	0.07
689.563	0.04
689.745	-0.05
689.928	-0.08
690.11	-0.07
690.293	-0.06
690.475	-0.12
690.658	-0.01
690.84	-0.01
691.023	0.02
691.205	-0.02
691.388	-0.04
691.57	0.03
691.752	-0.02
691.935	-0.11
692.117	-0.08
692.3	-0.03
692.482	-0.04
692.664	-0.04
692.847	-0.07
693.029	0.02
693.211	-0.02
693.393	-0.06
693.576	-0.12
693.758	-0.02
693.94	-0.06
694.122	-0.07
694.304	-0.08
694.487	-0.09
694.669	0.01
694.851	-0.1
695.033	-0.02
695.215	-0.06
695.397	-0.07
695.579	0.01
695.761	-0.07
695.943	-0.11
696.125	-0
696.308	-0.05
696.49	-0.14
696.671	0.06
696.853	-0.08
697.035	0.12
697.217	-0.02
697.399	-0.04
697.581	-0.08
697.763	-0.02
697.945	-0.08
698.127	-0.03
698.309	-0.01
698.491	-0.04
698.672	-0.01
698.854	0.01
699.036	-0.03
699.218	-0.04
699.399	0.04
699.581	-0.02
699.763	-0.1
699.945	-0.08
700.126	-0.09
700.308	-0.03
700.49	-0.03
700.671	-0.09
700.853	-0.09
701.035	-0.07
701.216	-0.05
701.398	-0.09
701.579	-0.08
701.761	-0.02
701.943	-0.05
702.124	-0.07
702.306	-0.06
702.487	0.04
702.669	-0.04
702.85	-0.1
703.031	-0.06
703.213	0.01
703.394	0.01
703.576	-0.08
703.757	0.03
703.938	-0
704.12	0.12
704.301	-0.03
704.483	-0.09
704.664	-0.01
704.845	0.05
705.026	-0
705.208	-0.07
705.389	-0.04
705.57	-0.09
705.751	-0.07
705.933	-0.13
706.114	0.03
706.295	-0.05
706.476	-0.12
706.657	0.01
706.838	-0.01
707.02	-0.01
707.201	-0.09
707.382	-0.04
707.563	-0.01
707.744	-0.06
707.925	-0.11
708.106	-0.13
708.287	-0.07
708.468	0.07
708.649	-0.03
708.83	0.05
709.011	-0.08
709.192	0.02
709.373	-0.1
709.554	-0.09
709.734	-0.04
709.915	0.02
710.096	-0.02
710.277	-0.12
710.458	-0.05
710.639	-0.05
710.819	-0.1
711	-0.04
711.181	0
711.362	0.05
711.542	-0.05
711.723	-0.01
711.904	0.01
712.085	-0.02
712.265	-0.01
712.446	-0.15
712.627	-0.11
712.807	-0.01
712.988	-0.08
713.168	-0.16
713.349	0.03
713.53	-0.15
713.71	-0.1
713.891	-0.15
714.071	-0.06
714.252	-0.11
714.432	-0.04
714.613	-0.16
714.793	-0.03
714.974	-0.03
715.154	0.01
715.334	-0.04
715.515	0.01
715.695	-0.16
715.876	-0.01
716.056	-0.08
716.236	-0.05
716.417	-0.09
716.597	-0.08
716.777	0.04
716.957	-0.07
717.138	-0.03
717.318	-0.03
717.498	-0.09
717.678	-0
717.859	-0.05
718.039	-0.14
718.219	-0.05
718.399	0.01
718.579	-0.14
718.759	-0.14
718.939	-0.07
719.12	-0.07
719.3	-0.05
719.48	-0.21
719.66	-0.17
719.84	0.05
720.02	-0.16
720.2	-0.18
720.38	-0.04
720.56	0.01
720.74	-0.08
720.92	-0.04
721.1	-0.04
721.279	0.07
721.459	-0.06
721.639	-0.13
721.819	-0.07
721.999	-0.02
722.179	0.02
722.359	-0.14
722.538	-0
722.718	0.01
722.898	-0.03
723.078	-0.11
723.257	-0.06
723.437	-0.06
723.617	-0.03
723.797	-0.14
723.976	0.01
724.156	-0
724.336	0.02
724.515	0.1
724.695	-0.16
724.874	-0.03
725.054	-0.02
725.234	-0.18
725.413	0.01
725.593	-0.12
725.772	-0.05
725.952	-0.07
726.131	0
726.311	-0.08
726.49	0
726.67	-0.11
726.849	-0.14
727.028	-0.11
727.208	-0.12
727.387	-0.02
727.567	-0.11
727.746	-0.09
727.925	-0.07
728.105	-0.17
728.284	-0.1
728.463	-0.09
728.643	-0.03
728.822	-0.18
729.001	-0.05
729.18	-0.03
729.359	0.07
729.539	-0.03
729.718	-0.07
729.897	0.02
730.076	-0.07
730.255	-0.18
730.434	-0.04
730.614	-0.08
730.793	-0.03
730.972	-0.15
731.151	-0.06
731.33	0.06
731.509	-0.14
731.688	0.02
731.867	-0.03
732.046	-0.21
732.225	0.11
732.404	-0.14
732.583	-0.06
732.762	0
732.941	0.01
733.12	-0.14
733.298	-0.12
733.477	0.03
733.656	-0.12
733.835	-0.17
734.014	-0.05
734.193	-0.13
734.371	0.03
734.55	0.03
734.729	-0.12
734.908	-0.01
735.086	0.1
735.265	0
735.444	-0.11
735.623	-0.23
735.801	-0.13
735.98	0.01
736.159	-0.12
736.337	-0.08
736.516	-0.09
736.694	-0.14
736.873	-0.08
737.052	0.09
737.23	0.08
737.409	-0.22
737.587	-0.01
737.766	-0.3
737.944	-0.13
738.123	-0.04
738.301	-0.07
738.479	-0.23
738.658	-0.1
738.836	-0.26
739.015	-0.03
739.193	-0.03
739.371	-0.13
739.55	-0.04
739.728	-0.21
739.906	0.08
740.085	-0
740.263	-0.1
740.441	-0.24
740.62	0.12
740.798	-0.02
740.976	-0.18
741.154	-0.14
741.332	-0.02
741.511	-0.06
741.689	-0.04
741.867	0
742.045	-0.04
742.223	-0.11
742.401	-0.18
742.579	-0.12
742.757	-0.09
742.935	-0.27
743.114	-0.13
743.292	-0.13
743.47	-0.14
743.648	-0.02
743.826	-0.2
744.004	-0.1
744.181	0.05
744.359	-0.07
744.537	-0.08
744.715	-0.01
744.893	-0.09
745.071	-0.11
745.249	-0.11
745.427	-0.13
745.605	-0.01
745.782	-0.08
745.96	-0.01
746.138	0.05
746.316	0.01
746.493	-0.05
746.671	-0.09
746.849	-0.01
747.027	-0.03
747.204	-0.24
747.382	-0.02
747.56	-0.16
747.737	-0.16
747.915	-0.14
748.093	-0.1
748.27	-0.11
748.448	-0.15
748.625	-0.21
748.803	-0.11
748.98	-0.16
749.158	-0.04
749.335	-0.01
749.513	-0.11
749.69	-0.03
749.868	-0.09
750.045	0.03
750.223	-0.08
750.4	-0.26
750.578	0.17
750.755	0.05
750.932	-0.17
751.11	0.02
751.287	-0.17
751.464	0.01
751.642	-0.16
751.819	0.04
751.996	-0.13
752.173	-0.09
752.351	-0.21
752.528	-0.06
752.705	-0
752.882	-0.1
753.06	-0.08
753.237	-0.02
753.414	0.07
753.591	0.02
753.768	-0.03
753.945	-0.11
754.122	-0.17
754.299	-0.06
754.476	-0.22
754.654	-0.08
754.831	-0.02
755.008	-0.03
755.185	-0.17
755.362	-0.15
755.539	-0.02
755.716	-0.21
755.892	-0.13
756.069	-0.08
756.246	-0.09
756.423	-0.08
756.6	-0.01
756.777	-0.11
756.954	0.08
757.131	-0.04
757.307	-0.12
757.484	-0.15
757.661	-0.06
757.838	-0.04
758.015	-0.18
758.191	-0.06
758.368	-0.01
758.545	0.07
758.721	-0.04
758.898	-0.21
759.075	-0.04
759.251	0.05
759.428	0.13
759.605	-0.21
759.781	-0.14
759.958	0.11
760.134	-0.09
760.311	-0.15
760.488	0.08
760.664	0.08
760.841	-0.05
761.017	-0.11
761.194	-0.08
761.37	0.02
761.547	0.03
761.723	-0.1
761.899	-0.03
762.076	-0.25
762.252	-0.18
762.429	-0.01
762.605	0.02
762.781	-0.1
762.958	0.01
763.134	0.08
763.31	-0.11
763.486	0.07
763.663	-0.24
763.839	-0.04
764.015	-0.23
764.191	-0.2
764.368	-0.06
764.544	-0.18
764.72	0
764.896	0.03
765.072	0.07
765.248	-0.11
765.425	-0.06
765.601	-0.07
765.777	-0.02
765.953	-0.3
766.129	-0.2
766.305	-0.16
766.481	0.11
766.657	-0.12
766.833	0.05
767.009	-0.23
767.185	-0.05
767.361	-0.24
767.537	-0.22
767.713	0.13
767.889	-0.09
768.065	-0.16
768.24	-0.27
768.416	0.12
768.592	-0.15
768.768	-0.01
768.944	-0.08
769.12	-0.08
769.295	-0.13
769.471	-0.07
769.647	-0.09
769.823	0.18
769.998	-0.28
770.174	-0.09
770.35	0.16
770.525	0.18
770.701	-0.08
770.877	-0.12
771.052	-0.29
771.228	0.21
771.403	-0.15
771.579	-0.1
771.755	0.19
771.93	-0.23
772.106	-0.23
772.281	-0.27
772.457	-0
772.632	-0.09
772.808	-0.21
772.983	-0.15
773.159	-0.11
773.334	0.04
773.509	-0.21
773.685	-0.1
773.86	0.32
774.036	0.07
774.211	-0.07
774.386	-0.14
774.562	0.01
774.737	-0.05
774.912	-0.28
775.087	-0.07
775.263	-0.13
775.438	-0.09
775.613	-0.18
775.788	-0.22
775.964	-0.01
776.139	0.24
776.314	-0.18
776.489	-0
776.664	-0.26
776.839	-0.18
777.014	0.07
777.19	0.03
777.365	0.09
777.54	0.08
777.715	-0.17
777.89	-0.1
778.065	-0.33
778.24	-0.05
778.415	0.16
778.59	-0.32
778.765	-0.16
778.94	-0.14
779.115	-0.17
779.289	-0.24
779.464	-0.13
779.639	-0.13
779.814	-0.25
779.989	-0.33
780.164	-0.04
780.339	-0.07
780.513	-0.22
780.688	-0.15
780.863	-0.14
781.038	-0.07
781.212	-0.1
781.387	-0.08
781.562	0.1
781.737	-0.22
781.911	0.06
782.086	-0.13
782.261	-0.18
782.435	0.27
782.61	-0.31
782.784	-0.16
782.959	0.13
783.134	-0.23
783.308	-0.27
783.483	-0.05
783.657	0.25
783.832	0.05
784.006	-0.33
784.181	-0.17
784.355	-0.03
784.53	-0.39
784.704	-0.32
784.878	0.14
785.053	-0.2
785.227	0.12
785.402	0.26
785.576	-0.28
785.75	-0.18
785.925	-0.31
786.099	-0.1
786.273	0.01
786.448	0.08
786.622	0.02
786.796	-0.16
786.97	-0.06
787.145	0.38
787.319	-0.62
787.493	-0.21
787.667	-0.58
787.841	-0.05
788.015	0.17
788.19	-0.2
788.364	-0.06
788.538	-0.22
788.712	-0.03
788.886	0.12
789.06	0.06
789.234	0.03
789.408	-0.21
789.582	-0.27
789.756	-0.17
789.93	-0.22
790.104	-0.23
790.278	0.06
790.452	-0.24
790.626	-0.09
790.8	-0.23
790.973	-0.09
791.147	0.15
791.321	0.13
791.495	-0.08
791.669	-0.09
791.843	0.09
792.016	-0.12
792.19	0.1
792.364	-0.22
792.538	0.39
792.711	0.05
792.885	-0.26
793.059	-0.2
793.233	-0.76
793.406	0.01
793.58	-0.14
793.754	0.04
793.927	-0.24
794.101	0.2
794.274	-0.49
794.448	0.17
794.622	-0.38
794.795	0.2
794.969	-0.3
795.142	0.22
795.316	-0.23
795.489	-0.22
795.663	0.05
795.836	-0.27
796.009	-0.38
796.183	0.27
796.356	-0.1
796.53	0.09
796.703	-0.27
796.876	0.51
797.05	-0.22
797.223	-0.21
797.396	-0.1
797.57	0
797.743	0.12
797.916	-0.24
798.09	-0.15
798.263	-0.11
798.436	-0.12
798.609	-0.2
798.782	-0.02
798.956	-0.15
799.129	-0.12
799.302	-0
799.475	-0.34
799.648	-0.07
799.821	-0.54
799.994	-0.31
800.167	-0.62
800.34	-0.33
800.514	-0.01
800.687	-0.31
800.86	-0.08
801.033	-0.07
801.206	-0.12
801.379	-0.34
801.551	0.31
801.724	0.28
801.897	0.23
802.07	-0.17
802.243	-0.67
802.416	-0.07
802.589	-0.23
802.762	-0.32
802.935	-0.23
803.107	0.12
803.28	0.06
803.453	0.33
803.626	-0.49
803.798	-0.05
803.971	-0.29
804.144	0.12
804.317	0.13
804.489	-0.1
804.662	-0.11
804.835	-0.22
805.007	-0.42
805.18	0.29
805.353	0.07
805.525	-0.35
805.698	-0.46
805.87	-0.15
806.043	0.27
806.215	-0.19
806.388	-0.3
806.56	-0.33
806.733	0.08
806.905	-0.17
807.078	-0.42
807.25	-0.48
807.423	0.02
807.595	-0.06
807.768	-0.28
807.94	0.37
808.112	0.2
808.285	0.15
808.457	-0.71
808.629	-0.42
808.802	0.01
808.974	-0.4
809.146	-0.56
809.318	-0.39
809.491	-0.12
809.663	0.02
809.835	-0.37
810.007	-0.13
810.18	-0.29
810.352	-0.6
810.524	-0.32
810.696	0.06
810.868	0.14
811.04	-0.46
811.212	-0.3
811.384	-0.01
811.556	-0.03
811.728	-0.02
811.901	0.14
812.073	-0.26
812.245	0.02
812.417	-0.09
812.589	-0.76
812.76	-0.18
812.932	-0.13
813.104	-0.05
813.276	-0.24
813.448	0.08
813.62	0.04
813.792	0.03
813.964	-0.19
814.136	-0.13
814.307	-0.3
814.479	-0.56
814.651	-0.32
814.823	0.64
814.995	-0.59
815.166	-0.06
815.338	-0.16
815.51	-0.68
815.681	0.46
815.853	0.06
816.025	-0.59
816.196	0.39
816.368	-0.19
816.54	-1.16
816.711	-0.43
816.883	-0.27
817.054	0.53
817.226	-0.94
817.398	-0.32
817.569	-0.68
817.741	-0.42
817.912	-0.33
818.084	-0.33
818.255	-0.23
818.426	-0.37
818.598	-0.13
818.769	-0.57
818.941	-0.35
819.112	0.35
819.283	-0.35
819.455	-0.62
819.626	-0.26
819.798	-0.1
819.969	-0.43
820.14	-0.29
820.311	-0.32
820.483	0.01
820.654	-0.65
820.825	-0.11
820.996	-0.53
821.168	-0.47
821.339	-0.46
821.51	-0.37
821.681	-0.48
821.852	-0.06
822.023	-0.33
822.195	-1
822.366	0.3
822.537	-0.46
822.708	-0.11
822.879	-0.25
823.05	0.18
823.221	-0.08
823.392	0.09
823.563	-0.34
823.734	0.07
823.905	-0.26
824.076	-0.73
824.247	-0.5
824.418	-0.13
824.589	0.22
824.759	-0.14
824.93	-0.67
825.101	-1.05
825.272	0.31
825.443	0.28
825.614	0.09
825.784	-0.86
825.955	0.38
826.126	0.38
826.297	0.25
826.467	-0.48
826.638	0.02
826.809	-1.38
826.98	-0.87
827.15	-0.39
827.321	-0.47
827.492	0.35
827.662	-0.22
827.833	0.55
828.003	0.16
828.174	-0.5
828.345	-1.09
828.515	0.29
828.686	0.26
828.856	-0.72
829.027	0.1
829.197	-0.64
829.368	-0.22
829.538	-0.91
829.709	-0.81
829.879	0.06
830.049	-0.05
830.22	-0.67
830.39	-0.75
830.56	0.31
830.731	-0.58
830.901	-0.74
831.072	-0.41
831.242	-0.83
831.412	0.01
831.582	-0.15
831.753	-0.51
831.923	0.54
832.093	-0.29
832.263	-0.1
832.434	-1.09
832.604	-0.66
832.774	-0.17
832.944	-0.5
833.114	-0.7
833.284	-0.03
833.454	-0.86
833.624	-1.01
833.795	-0.48
833.965	0.27
834.135	0.65
834.305	-1.52
834.475	-0.93
834.645	-0.67
834.815	-0.64
834.985	-0.48
835.155	-0.48
835.325	-0.4
835.494	0.16
835.664	-0.63
835.834	-1.04
836.004	-0.24
836.174	0.04
836.344	-0.4
836.514	-0.84
836.684	-0.56
836.853	-0.03
837.023	-0.89
837.193	-0.61
837.363	0.59
837.532	0.4
837.702	-0.94
837.872	-0.95
838.041	0
838.211	0.68
838.381	-0.86
838.55	-0.29
838.72	1.87
838.89	0.19
839.059	-0.7
839.229	-1.07
839.398	0.51
839.568	-0.72
839.738	-0.05
839.907	-0.01
840.077	-0.06
840.246	-0.67
840.416	-0.75
840.585	-1.55
840.755	0.82
840.924	0.53
841.093	-1.25
841.263	-0.3
841.432	-0.14
841.602	-0.77
841.771	-1.1
841.94	-0.86
842.11	0.77
842.279	1.01
842.448	-1.82
842.617	-1.62
842.787	-0.14
842.956	-0.97
843.125	-0.24
843.294	-0.05
843.464	0.94
843.633	-0.44
843.802	-1.27
843.971	-1.32
844.14	0.52
844.309	0.33
844.479	-0.94
844.648	-1.69
844.817	-0.56
844.986	-0.6
845.155	-1.32
845.324	-1.48
845.493	-0.51
845.662	-0.69
845.831	-0.74
846	0.13
846.169	-0.79
846.338	0.32
846.507	-0.7
846.676	0.2
846.844	-0.32
847.013	0.78
847.182	0
847.351	-0.19
847.52	-1
847.689	0.21
847.858	0
848.026	-1.1
848.195	-1.14
848.364	-0.94
848.533	-1.15
848.701	-1.25
848.87	-0.47
849.039	0.79
849.207	0.4
849.376	0.36
849.545	0.32
849.713	-0.61
849.882	-0.63
850.051	-0.16
850.219	-0.45
850.388	-0.07
850.556	-1.74
850.725	-0.99
850.893	-0.12
851.062	-1.36
851.23	0.49
851.399	-1.89
851.567	-0.9
851.736	-1.1
851.904	-0.91
852.073	-0.58
852.241	-0.72
852.41	0.62
852.578	0.35
852.746	-1.64
852.915	-0.34
853.083	-0.23
853.251	-1.34
853.42	-1
853.588	-0.07
853.756	0.23
853.924	-0.84
854.093	-1.31
854.261	-0.62
854.429	-1.09
854.597	-0.79
854.765	-1.9
854.934	-1.07
855.102	0.26
855.27	-1.04
855.438	0.11
855.606	0.01
855.774	0.85
855.942	-1.85
856.11	-2.25
856.278	-1.2
856.446	0.15
856.614	-1.44
856.782	-1.91
856.95	-0.65
857.118	0.04
857.286	-0.03
857.454	-2.02
857.622	0.61
857.79	-0.02
857.958	-0.52
858.126	-0.67
858.294	-2.7
858.462	-0.82
858.629	-1.15
858.797	-1.81
858.965	-0.33
859.133	0.12
859.301	-1.41
859.468	0.07
859.636	-1.28
859.804	0.82
859.971	0.6
860.139	-0.69
860.307	-0.47
860.474	-0.47
860.642	-1.61
860.81	-0.19
860.977	-0.46
861.145	0.04
861.313	-0.42
861.48	0.06
861.648	-0.31
861.815	-0.12
861.983	-2.84
862.15	0.12
862.318	0.13
862.485	-1.27
862.653	-0.46
862.82	-1.33
862.988	0.66
863.155	0.13
863.322	-1.26
863.49	-2.27
863.657	-0.52
863.824	1.23
863.992	-0.37
864.159	-0.01
864.326	1.61
864.494	-0.38
864.661	0.53
864.828	-1.72
864.996	0.55
865.163	1.29
865.33	-2.82
865.497	-3.3
865.664	-1.76
865.832	-2.12
865.999	-0.77
866.166	-2.82
866.333	-1.87
866.5	-0.95
866.667	-1.4
866.834	-0.17
867.001	-0.23
867.168	-1.48
867.335	-0.21
867.502	-2.45
867.669	1.16
867.836	1.65
868.003	-1.06
868.17	0.07
868.337	0.73
868.504	0.96
868.671	-2.6
868.838	-1.31
869.005	-1.2
869.172	-1.04
869.339	0.18
869.505	-0.83
869.672	-2.25
869.839	2.04
870.006	0.39
870.173	-1.98
870.339	-0.65
870.506	1.63
870.673	-3.17
870.84	0.75
871.006	1.02
871.173	-0.14
871.34	-1.13
871.506	-2.25
871.673	-0.07
871.839	-1.87
872.006	-0.32
872.173	-2.03
872.339	-0.44
872.506	1.42
872.672	-0.69
872.839	-1.92
873.005	-1.72
873.172	2.71
873.338	0.23
873.505	-0.21
873.671	-1.94
873.838	-0.36
874.004	-2.2
874.171	-2.18
874.337	-0.47
874.503	0.04
874.67	-0.89
874.836	-1.46
875.002	1.34
875.169	-0.96
875.335	-0.39
875.501	-1.76
875.668	-0.55
875.834	-0.77
876	-0.68
876.166	0.9
876.332	-0.37
876.499	3.04
876.665	-0.21
876.831	-0.23
876.997	2.02
877.163	0.56
877.329	-1.18
877.495	-0.39
877.662	-2.19
877.828	0.58
877.994	-1.45
878.16	-4.59
878.326	-2.41
878.492	-0.25
878.658	-3.14
878.824	-0.68
878.99	-0.72
879.156	-2.99
879.322	2.16
879.487	-0.78
879.653	-0.46
879.819	-1.24
879.985	-2.41
880.151	-1.37
880.317	0.59
880.483	-1.88
880.648	-0.64
880.814	-4.11
880.98	-0.23
881.146	-2.97
881.312	-0.98
881.477	-1.62
881.643	-1.83
881.809	1.63
881.974	0.63
882.14	-2.32
882.306	-1.01
882.471	2.36
882.637	-0.74
882.803	-1.68
882.968	1.26
883.134	2.59
883.299	-1.84
883.465	0.07
883.63	1.52
883.796	0.83
883.961	-0.88
884.127	-1.22
884.292	-3.78
884.458	-1.63
884.623	-1.63
