Data from Apollo_Calib_20240827__AbsoluteIrradiance__56__00-05-00-143.txt Node

Date: Wed Aug 28 00:05:00 BST 2024
User: biology
Spectrometer: FLMT08252
Trigger mode: 0
Integration Time (sec): 5.000000E-1
Scans to average: 5
Electric dark correction enabled: true
Nonlinearity correction enabled: false
Boxcar width: 0
XAxis mode: Wavelengths
Number of Pixels in Spectrum: 3648
>>>>>Begin Spectral Data<<<<<
179.588	-0
179.809	-0
180.03	-0
180.251	-0
180.473	-0
180.694	0
180.915	0
181.136	-0
181.357	0
181.578	-0
181.799	-0
182.02	-0
182.241	0
182.462	-0
182.683	0
182.904	-0
183.125	-0
183.346	0
183.567	0
183.788	-0
184.009	-0
184.23	0
184.451	0
184.672	-0
184.892	-0
185.113	0
185.334	0
185.555	-0
185.776	-0
185.996	0
186.217	0
186.438	-0
186.659	-0
186.879	0
187.1	-0
187.321	-0
187.541	-0
187.762	-0
187.983	-0
188.203	-0
188.424	-0
188.644	-0
188.865	-0
189.086	-0
189.306	-0
189.527	0
189.747	-0
189.968	-0
190.188	0
190.409	0
190.629	0
190.849	-0
191.07	-0
191.29	0
191.511	0
191.731	-0
191.951	-0
192.172	0
192.392	-0
192.612	-0
192.833	-0
193.053	0
193.273	0
193.493	-0
193.714	-0
193.934	0
194.154	0
194.374	-0
194.594	0
194.815	0
195.035	-0
195.255	-0
195.475	-0
195.695	0
195.915	-0
196.135	-0
196.355	0
196.575	0
196.795	-0
197.015	-0
197.235	-0
197.455	-0
197.675	0
197.895	-0
198.115	-0
198.335	0
198.555	-0
198.775	-0
198.995	0
199.214	0
199.434	-0
199.654	-0
199.874	-0
200.094	1.24
200.313	-0.42
200.533	-1.13
200.753	-0.92
200.973	0.59
201.192	0.46
201.412	-1.43
201.632	-0.58
201.851	0.69
202.071	-0.24
202.291	-0.75
202.51	-0.83
202.73	0.02
202.95	-0.28
203.169	-0.7
203.389	-0.14
203.608	-0.17
203.828	-0.52
204.047	-0.47
204.267	0.07
204.486	0.18
204.706	0.28
204.925	-0.2
205.145	-0.54
205.364	0.12
205.583	0.53
205.803	-0.69
206.022	-0.64
206.242	-0.22
206.461	-0.48
206.68	-0.55
206.9	-0.09
207.119	0.48
207.338	0.53
207.557	-0.31
207.777	-0.46
207.996	-0.27
208.215	0.23
208.434	-0.42
208.654	-0.58
208.873	-0.18
209.092	0.57
209.311	-0.26
209.53	-0.24
209.749	-0.22
209.968	-0.08
210.187	-0.22
210.407	-0.52
210.626	-0.37
210.845	0.14
211.064	0.1
211.283	-0.35
211.502	0.08
211.721	-0.2
211.94	-0.35
212.159	0.09
212.377	0.05
212.596	0.37
212.815	-0.14
213.034	-0.04
213.253	0.18
213.472	0.13
213.691	-0.11
213.91	-0.36
214.128	-0.34
214.347	0.33
214.566	-0.52
214.785	-0.53
215.003	0.17
215.222	0.09
215.441	-0.08
215.66	-0.48
215.878	-0.19
216.097	-0.07
216.316	-0.31
216.534	-0.13
216.753	-0.15
216.972	0.05
217.19	-0.11
217.409	-0.15
217.627	-0.27
217.846	-0.13
218.064	-0.14
218.283	-0.24
218.501	0.32
218.72	0.27
218.938	-0.2
219.157	-0.18
219.375	0.09
219.594	-0.15
219.812	-0.31
220.031	-0.13
220.249	0.36
220.467	0.31
220.686	-0.08
220.904	-0.35
221.122	-0.22
221.341	0.12
221.559	0.1
221.777	-0.23
221.995	-0.09
222.214	0.15
222.432	-0.19
222.65	-0.01
222.868	-0
223.086	0.02
223.305	-0.01
223.523	-0.18
223.741	0.34
223.959	0.08
224.177	-0.42
224.395	-0.1
224.613	-0.2
224.831	0.14
225.049	-0.19
225.267	-0.07
225.485	0.06
225.703	-0.15
225.921	-0.08
226.139	-0.13
226.357	-0.12
226.575	0.06
226.793	-0.13
227.011	0.47
227.229	-0.05
227.447	0.21
227.665	-0.19
227.883	-0.22
228.1	-0.05
228.318	-0.17
228.536	-0.27
228.754	-0.12
228.972	0.08
229.189	0.03
229.407	-0.1
229.625	0.01
229.843	0.24
230.06	0.12
230.278	-0.2
230.496	0.07
230.713	-0.08
230.931	0.15
231.149	-0.21
231.366	-0.17
231.584	-0.01
231.801	0.24
232.019	0.02
232.236	-0.25
232.454	-0.19
232.671	0
232.889	-0.07
233.106	-0.2
233.324	-0.05
233.541	0.04
233.759	0.06
233.976	-0.16
234.194	-0.02
234.411	-0.06
234.628	-0.17
234.846	-0.11
235.063	-0.12
235.28	-0.04
235.498	-0.04
235.715	-0.21
235.932	0.14
236.149	-0.03
236.367	-0.12
236.584	-0.1
236.801	-0.15
237.018	0.07
237.236	-0.01
237.453	-0.18
237.67	0.11
237.887	-0.11
238.104	-0.01
238.321	-0.2
238.538	-0.08
238.755	0.14
238.973	-0.18
239.19	-0.05
239.407	0.05
239.624	0.11
239.841	-0.26
240.058	-0.08
240.275	-0.01
240.492	-0.08
240.709	-0.01
240.925	-0.12
241.142	-0.02
241.359	-0.28
241.576	-0.1
241.793	-0.15
242.01	0.05
242.227	0.11
242.444	0.02
242.66	0.02
242.877	-0
243.094	-0.09
243.311	-0.12
243.527	0.02
243.744	0.1
243.961	0.03
244.178	-0.14
244.394	-0.09
244.611	0.04
244.828	0.16
245.044	-0.19
245.261	-0.03
245.477	0.04
245.694	0.01
245.911	-0.14
246.127	-0.09
246.344	0.13
246.56	0.01
246.777	0
246.993	-0.04
247.21	0
247.426	0.05
247.643	-0.12
247.859	-0.1
248.076	-0.14
248.292	0.19
248.508	-0.16
248.725	0.03
248.941	0.04
249.157	0.11
249.374	-0.12
249.59	-0.04
249.806	-0.03
250.023	0
250.239	-0.08
250.455	-0.11
250.671	0
250.888	-0.04
251.104	0
251.32	-0.04
251.536	0.03
251.752	-0.13
251.969	-0.03
252.185	0.02
252.401	0.14
252.617	0.06
252.833	-0.04
253.049	-0.03
253.265	-0.02
253.481	-0.01
253.697	-0.12
253.913	-0.11
254.129	0.04
254.345	0
254.561	-0.03
254.777	-0.04
254.993	0.02
255.209	-0.1
255.425	-0.06
255.641	-0.15
255.857	0.14
256.073	0.02
256.288	-0.19
256.504	-0.08
256.72	-0.06
256.936	0.14
257.152	-0.04
257.367	-0.1
257.583	-0.04
257.799	0.01
258.015	-0.03
258.23	-0.01
258.446	0.14
258.662	-0.03
258.877	-0.14
259.093	-0.13
259.309	0.01
259.524	0.06
259.74	-0.06
259.955	-0.13
260.171	0.01
260.387	-0.01
260.602	0.02
260.818	-0.02
261.033	-0.08
261.249	-0.09
261.464	-0.06
261.68	-0.07
261.895	0.03
262.11	0.09
262.326	-0.06
262.541	-0.14
262.757	0.04
262.972	0.01
263.187	-0.02
263.403	-0.03
263.618	0.11
263.833	-0.05
264.049	-0.04
264.264	-0.04
264.479	0.06
264.694	0.01
264.91	-0.11
265.125	-0.01
265.34	0.02
265.555	0.16
265.77	-0.01
265.986	-0.07
266.201	0.04
266.416	0.12
266.631	-0.12
266.846	-0
267.061	0.03
267.276	0.05
267.491	-0.12
267.706	-0.03
267.921	0.04
268.136	0.02
268.351	-0.03
268.566	-0.14
268.781	0.09
268.996	0.05
269.211	-0.05
269.426	-0.09
269.641	-0.06
269.856	0.09
270.071	-0.08
270.285	-0.12
270.5	0.06
270.715	0
270.93	0.01
271.145	-0.05
271.359	0.05
271.574	-0.06
271.789	0.01
272.004	-0.06
272.218	-0.06
272.433	0.06
272.648	-0.06
272.862	0.08
273.077	0.07
273.292	-0.03
273.506	-0.05
273.721	-0.04
273.936	0.03
274.15	0.06
274.365	-0.04
274.579	0.01
274.794	0.01
275.008	0.05
275.223	-0.07
275.437	-0.01
275.652	0.11
275.866	-0.01
276.081	-0.01
276.295	0.05
276.509	-0
276.724	0.03
276.938	-0.02
277.153	-0.02
277.367	0.04
277.581	-0.07
277.796	-0.08
278.01	-0.07
278.224	0.06
278.438	0.11
278.653	-0.1
278.867	-0.04
279.081	0.02
279.295	0
279.51	-0.01
279.724	-0.11
279.938	0.04
280.152	-0.04
280.366	-0.06
280.58	-0.05
280.794	0.08
281.008	0.01
281.222	0.01
281.437	0.05
281.651	0.01
281.865	0.03
282.079	-0.04
282.293	-0.14
282.507	-0.08
282.721	-0.01
282.935	-0.07
283.148	-0.08
283.362	-0.05
283.576	-0.06
283.79	-0.08
284.004	-0.06
284.218	0.07
284.432	-0.06
284.646	-0.02
284.859	-0.03
285.073	-0.06
285.287	-0.03
285.501	-0.04
285.714	-0.01
285.928	-0.06
286.142	-0.06
286.356	-0.05
286.569	-0.02
286.783	0.08
286.997	0.02
287.21	-0.04
287.424	-0.02
287.637	-0.02
287.851	-0.03
288.065	-0.01
288.278	-0.05
288.492	0.04
288.705	-0.07
288.919	-0.02
289.132	-0.06
289.346	0.02
289.559	-0.11
289.773	-0.11
289.986	-0
290.2	-0.01
290.413	0.07
290.626	-0.07
290.84	0
291.053	-0.01
291.267	0.06
291.48	-0
291.693	-0.06
291.906	-0.04
292.12	-0.03
292.333	-0.08
292.546	-0.01
292.76	0.06
292.973	-0.04
293.186	0.07
293.399	-0.03
293.612	0.06
293.826	0
294.039	-0.02
294.252	-0.01
294.465	0.06
294.678	0
294.891	-0.01
295.104	-0.04
295.317	-0.03
295.53	-0.05
295.743	-0.03
295.956	0.02
296.169	0.03
296.382	0.06
296.595	0.02
296.808	-0.07
297.021	0.05
297.234	0.03
297.447	-0.03
297.66	-0
297.873	0.03
298.086	0.02
298.299	-0.02
298.511	-0.09
298.724	0.01
298.937	-0.06
299.15	-0.05
299.363	-0.03
299.575	0.03
299.788	0.02
300.001	-0.01
300.213	-0.01
300.426	0.01
300.639	-0.03
300.852	-0.05
301.064	0.01
301.277	0.07
301.489	0.04
301.702	0.02
301.915	-0.01
302.127	0.02
302.34	0.02
302.552	-0.03
302.765	-0.04
302.977	0.04
303.19	-0.06
303.402	-0.06
303.615	0
303.827	0.02
304.04	-0.04
304.252	0
304.464	-0.02
304.677	0.13
304.889	0.05
305.102	-0.03
305.314	-0.05
305.526	0.02
305.739	-0
305.951	-0.05
306.163	-0.04
306.375	0.04
306.588	-0.01
306.8	-0.01
307.012	-0.06
307.224	-0.01
307.436	0.06
307.649	-0.07
307.861	0.01
308.073	0.03
308.285	-0.01
308.497	-0.05
308.709	-0.03
308.921	0.01
309.133	0.01
309.346	0.01
309.558	-0.01
309.77	0.03
309.982	0.05
310.194	0.03
310.406	-0.02
310.617	0.08
310.829	-0
311.041	-0.04
311.253	-0.04
311.465	-0.05
311.677	-0.02
311.889	-0.02
312.101	-0.04
312.313	0.06
312.524	0.02
312.736	-0.05
312.948	-0.01
313.16	0.08
313.372	0.03
313.583	0.01
313.795	-0.06
314.007	0.02
314.218	0.02
314.43	0.01
314.642	-0.01
314.853	-0.06
315.065	0
315.277	0.01
315.488	0.03
315.7	0.04
315.912	0.03
316.123	-0.02
316.335	-0.03
316.546	0.09
316.758	-0.05
316.969	-0.01
317.181	0.01
317.392	-0.02
317.604	0.06
317.815	-0.07
318.026	-0.07
318.238	-0.03
318.449	0.03
318.661	-0.08
318.872	-0.06
319.083	-0.09
319.295	0.07
319.506	-0.06
319.717	-0.01
319.929	0.06
320.14	-0.01
320.351	-0.07
320.562	-0.03
320.774	0.05
320.985	-0.02
321.196	-0.07
321.407	-0.06
321.618	0.03
321.829	0.01
322.041	0.04
322.252	-0.01
322.463	0.01
322.674	-0
322.885	-0.08
323.096	-0.02
323.307	-0.02
323.518	0.02
323.729	-0.05
323.94	-0.04
324.151	0.01
324.362	-0.01
324.573	-0.02
324.784	-0.02
324.995	0.05
325.206	-0
325.417	-0.03
325.628	-0.04
325.838	-0.01
326.049	0.01
326.26	-0.01
326.471	-0.03
326.682	0.04
326.892	-0
327.103	-0.08
327.314	-0.06
327.525	0.02
327.735	0.04
327.946	-0.01
328.157	-0.05
328.368	-0.03
328.578	-0.03
328.789	0.02
328.999	-0.03
329.21	-0.04
329.421	0.01
329.631	-0.04
329.842	-0.03
330.052	0.03
330.263	0.05
330.473	-0.02
330.684	-0.04
330.894	-0.01
331.105	0
331.315	-0.02
331.526	-0.06
331.736	0.03
331.947	0
332.157	-0.01
332.367	-0.05
332.578	0.02
332.788	0.06
332.999	-0
333.209	-0
333.419	-0.03
333.629	0.02
333.84	0.03
334.05	0.02
334.26	0.02
334.47	-0.03
334.681	0.02
334.891	-0.03
335.101	0.04
335.311	0.06
335.521	-0.02
335.732	-0.07
335.942	0.04
336.152	0.02
336.362	0.02
336.572	-0.02
336.782	-0.01
336.992	-0.05
337.202	-0.03
337.412	-0.02
337.622	0.03
337.832	-0.01
338.042	0
338.252	-0.04
338.462	0.01
338.672	-0.01
338.882	-0.06
339.092	-0.03
339.302	0.07
339.511	0.01
339.721	-0.03
339.931	-0.03
340.141	0.04
340.351	0.02
340.561	0.01
340.77	-0.02
340.98	-0
341.19	-0.01
341.4	-0.04
341.609	-0.05
341.819	-0.03
342.029	-0.05
342.238	-0.02
342.448	-0.06
342.658	0.02
342.867	-0
343.077	-0.02
343.286	-0.01
343.496	-0
343.706	0.06
343.915	-0.08
344.125	-0
344.334	-0.02
344.544	-0.06
344.753	-0.05
344.963	-0.04
345.172	-0.01
345.381	-0.03
345.591	-0.05
345.8	-0
346.01	0.05
346.219	0.02
346.428	-0.18
346.638	0.01
346.847	-0.03
347.056	0.04
347.266	-0.06
347.475	-0.01
347.684	0.01
347.893	-0.03
348.103	-0
348.312	0
348.521	0
348.73	-0.01
348.94	0.02
349.149	-0.04
349.358	-0.02
349.567	-0.05
349.776	-0.03
349.985	-0.05
350.194	0.03
350.403	0.06
350.612	-0.07
350.821	-0.02
351.03	-0.04
351.239	-0.06
351.448	-0.01
351.657	-0.04
351.866	0.06
352.075	-0.03
352.284	0.06
352.493	-0.06
352.702	0.06
352.911	0.02
353.12	0.01
353.329	-0.02
353.538	-0.01
353.746	-0.01
353.955	-0.02
354.164	0.04
354.373	-0.03
354.582	0.02
354.79	0.01
354.999	0.03
355.208	-0.03
355.416	0.1
355.625	-0.07
355.834	-0.04
356.042	0.02
356.251	-0.01
356.46	-0.03
356.668	0.01
356.877	0.08
357.085	0.06
357.294	-0.09
357.503	-0
357.711	-0.02
357.92	0.08
358.128	-0.03
358.337	-0.03
358.545	0.01
358.754	0.02
358.962	-0.01
359.17	-0.06
359.379	0.01
359.587	0.01
359.796	0.01
360.004	0.01
360.212	0.04
360.421	0.03
360.629	-0.02
360.837	-0
361.046	0.05
361.254	0.04
361.462	-0.01
361.67	-0.02
361.879	0.03
362.087	0.03
362.295	-0.02
362.503	-0.02
362.711	-0.03
362.92	-0.02
363.128	-0.03
363.336	-0.05
363.544	-0.06
363.752	0
363.96	-0.08
364.168	0.01
364.376	0.01
364.584	-0.03
364.792	0.02
365	0
365.208	-0.01
365.416	0.04
365.624	0.03
365.832	-0.04
366.04	0.07
366.248	-0.01
366.456	-0
366.664	-0
366.872	0.01
367.079	-0.01
367.287	-0.01
367.495	0
367.703	-0.03
367.911	-0.02
368.118	-0.03
368.326	-0.03
368.534	-0.05
368.742	0.08
368.949	-0.05
369.157	-0.04
369.365	0.01
369.572	-0.02
369.78	-0.09
369.988	0.01
370.195	0.02
370.403	-0.02
370.61	-0.05
370.818	0.03
371.026	0.08
371.233	-0.02
371.441	0.04
371.648	-0.05
371.856	-0
372.063	-0.02
372.271	-0.03
372.478	-0.05
372.685	-0.02
372.893	0.02
373.1	0.01
373.308	-0.04
373.515	0.11
373.722	0.03
373.93	-0.04
374.137	0.05
374.344	0.07
374.552	0.07
374.759	0.02
374.966	-0.04
375.173	-0.03
375.381	0.04
375.588	0
375.795	-0.05
376.002	-0.03
376.209	-0.03
376.417	-0.04
376.624	-0.03
376.831	0.04
377.038	-0.03
377.245	-0.05
377.452	-0.04
377.659	-0.01
377.866	-0
378.073	0.02
378.28	-0.01
378.487	0.04
378.694	0.06
378.901	-0.04
379.108	-0.03
379.315	0
379.522	0.05
379.729	0.01
379.936	-0.02
380.143	-0.01
380.35	0.02
380.557	-0.02
380.763	0
380.97	0.01
381.177	0.02
381.384	-0
381.591	0.01
381.797	-0.01
382.004	0.05
382.211	0.01
382.418	0
382.624	0.01
382.831	0.03
383.038	-0.03
383.244	-0.04
383.451	-0.01
383.658	0.02
383.864	-0.05
384.071	-0.06
384.277	0.08
384.484	-0.05
384.69	0.01
384.897	-0.02
385.103	-0.02
385.31	-0.06
385.516	-0.06
385.723	-0.05
385.929	0.03
386.136	-0.02
386.342	-0.01
386.549	-0.02
386.755	0.06
386.961	-0
387.168	-0.05
387.374	-0.03
387.58	0.02
387.787	0.02
387.993	-0.01
388.199	-0.03
388.406	-0.01
388.612	-0.01
388.818	-0.05
389.024	-0.02
389.231	0.03
389.437	0.07
389.643	0.04
389.849	0.01
390.055	-0.01
390.261	-0
390.467	0
390.674	-0.1
390.88	-0
391.086	0.03
391.292	-0.09
391.498	-0.02
391.704	-0.02
391.91	-0.03
392.116	-0
392.322	-0.08
392.528	0.01
392.734	-0.03
392.94	-0.02
393.146	-0.05
393.352	0.01
393.557	-0
393.763	-0.01
393.969	0.01
394.175	0.01
394.381	0.02
394.587	-0.08
394.792	-0.03
394.998	0.01
395.204	0.02
395.41	-0.02
395.615	-0.01
395.821	0.05
396.027	0.01
396.233	-0.05
396.438	0
396.644	0.02
396.85	-0.01
397.055	-0.04
397.261	0.01
397.466	0.09
397.672	0.03
397.878	0.03
398.083	0.01
398.289	-0.04
398.494	0.06
398.7	0.02
398.905	-0.08
399.111	0.07
399.316	-0.1
399.522	-0.02
399.727	-0.03
399.932	-0.04
400.138	-0.02
400.343	0.02
400.549	0.02
400.754	0.02
400.959	-0.01
401.165	-0.04
401.37	-0.02
401.575	0.05
401.78	-0.04
401.986	-0.03
402.191	-0.05
402.396	-0
402.601	-0
402.807	0.04
403.012	-0.01
403.217	0.03
403.422	0.03
403.627	-0
403.832	-0.03
404.037	0.02
404.243	-0
404.448	-0.05
404.653	0
404.858	-0.02
405.063	-0.02
405.268	-0.04
405.473	-0.07
405.678	-0.06
405.883	0.13
406.088	0.03
406.293	-0.07
406.498	-0.03
406.703	0.07
406.907	-0.02
407.112	-0.01
407.317	0.04
407.522	-0.01
407.727	-0.05
407.932	-0.02
408.136	0.06
408.341	0.02
408.546	-0.03
408.751	-0.02
408.956	-0.05
409.16	0.01
409.365	-0.03
409.57	-0.06
409.774	-0.02
409.979	-0
410.184	0.02
410.388	-0.04
410.593	0.04
410.798	-0.03
411.002	-0.06
411.207	-0.01
411.411	-0.01
411.616	-0.07
411.82	-0.02
412.025	0.02
412.229	-0.01
412.434	0.05
412.638	-0.01
412.843	-0.05
413.047	-0.03
413.252	-0.05
413.456	-0.04
413.66	0.03
413.865	-0.03
414.069	0.05
414.273	-0.03
414.478	-0.03
414.682	-0.01
414.886	-0.05
415.091	-0.06
415.295	-0.08
415.499	0.01
415.703	-0.05
415.908	-0
416.112	-0.09
416.316	0.01
416.52	-0.04
416.724	-0.08
416.929	-0.04
417.133	0.07
417.337	-0.05
417.541	-0.04
417.745	-0.02
417.949	-0.01
418.153	-0.02
418.357	-0.05
418.561	0.04
418.765	-0.03
418.969	0.07
419.173	0
419.377	-0.05
419.581	0.06
419.785	-0.04
419.989	-0.1
420.193	-0.05
420.397	0
420.601	0.03
420.804	0
421.008	-0.01
421.212	0.01
421.416	0.03
421.62	-0.04
421.823	-0.04
422.027	0.03
422.231	-0.02
422.435	-0.03
422.638	-0.02
422.842	-0.01
423.046	-0.06
423.249	0.02
423.453	0.03
423.657	-0.02
423.86	-0.01
424.064	-0.03
424.268	0.08
424.471	-0.02
424.675	0.08
424.878	0.1
425.082	-0.05
425.285	0.03
425.489	0.01
425.692	-0.02
425.896	-0.05
426.099	0.06
426.303	-0.07
426.506	-0.08
426.71	0.02
426.913	0.02
427.116	0.03
427.32	-0.02
427.523	-0.04
427.726	0.09
427.93	-0.05
428.133	0
428.336	-0.04
428.54	-0.07
428.743	-0.01
428.946	0.05
429.149	-0.04
429.353	0.01
429.556	0.01
429.759	-0.01
429.962	-0.05
430.165	-0.06
430.368	0.01
430.571	-0.03
430.775	0.01
430.978	-0.05
431.181	0
431.384	0.03
431.587	-0.03
431.79	-0.03
431.993	0
432.196	0.03
432.399	0.01
432.602	0.06
432.805	-0.04
433.008	0.03
433.211	-0.09
433.414	0.06
433.616	0.03
433.819	-0.05
434.022	-0.08
434.225	0.06
434.428	-0
434.631	0.09
434.833	0.02
435.036	-0.01
435.239	0.03
435.442	0.02
435.645	-0.01
435.847	-0.02
436.05	0.05
436.253	0.01
436.455	-0.04
436.658	0.03
436.861	0.08
437.063	-0.01
437.266	-0.03
437.468	0.05
437.671	0.15
437.874	0.02
438.076	-0.05
438.279	-0.05
438.481	-0.01
438.684	-0.04
438.886	0.02
439.089	-0.08
439.291	0.02
439.494	0.04
439.696	0.01
439.899	-0.01
440.101	0.06
440.303	-0.04
440.506	0.08
440.708	0.01
440.91	0.08
441.113	0.02
441.315	0
441.517	-0.03
441.72	0.09
441.922	-0.03
442.124	-0.03
442.326	0.08
442.529	0.11
442.731	-0.04
442.933	0.09
443.135	-0.02
443.337	-0.02
443.539	-0
443.742	-0.01
443.944	0.04
444.146	-0.01
444.348	0.01
444.55	-0.01
444.752	0.04
444.954	0.02
445.156	0.1
445.358	0.04
445.56	0.1
445.762	0.03
445.964	0.05
446.166	-0.02
446.368	0.04
446.57	0.07
446.772	0.06
446.974	-0.02
447.175	0.05
447.377	0.02
447.579	0.11
447.781	-0.05
447.983	0.13
448.184	0
448.386	0.1
448.588	0.01
448.79	0.05
448.991	-0.01
449.193	0.01
449.395	0
449.597	0.09
449.798	0.09
450	0.07
450.202	0.02
450.403	0.07
450.605	0.06
450.806	0.03
451.008	-0.02
451.21	0.09
451.411	0.03
451.613	0.04
451.814	0.02
452.016	0.08
452.217	0.01
452.419	0.05
452.62	0.07
452.821	0.1
453.023	0.1
453.224	0.12
453.426	0.06
453.627	0.07
453.828	0.07
454.03	0.02
454.231	0.07
454.432	0.01
454.634	0.11
454.835	0.01
455.036	-0.01
455.238	0.1
455.439	0.11
455.64	-0.04
455.841	-0.03
456.042	0.16
456.244	0.09
456.445	-0.01
456.646	-0.1
456.847	-0.02
457.048	0.08
457.249	0.05
457.45	0.21
457.651	-0.06
457.852	0.07
458.054	0.01
458.255	0.03
458.456	0.01
458.657	-0.01
458.858	-0.06
459.058	0.01
459.259	0.05
459.46	-0.01
459.661	-0.03
459.862	0.1
460.063	0.01
460.264	0.1
460.465	-0.08
460.666	0.09
460.866	-0.02
461.067	-0
461.268	-0.02
461.469	0.03
461.67	-0.02
461.87	-0.02
462.071	-0.04
462.272	-0.02
462.473	-0
462.673	0.05
462.874	-0.02
463.075	-0
463.275	-0.05
463.476	0.01
463.676	-0.01
463.877	-0.01
464.078	-0.03
464.278	0.06
464.479	-0
464.679	-0.01
464.88	-0
465.08	0.1
465.281	-0.06
465.481	-0.04
465.682	0.04
465.882	0.06
466.083	0.04
466.283	0.03
466.483	-0.03
466.684	-0.1
466.884	-0
467.085	0
467.285	0.02
467.485	-0.03
467.686	-0.04
467.886	-0.04
468.086	0
468.286	-0.01
468.487	0.04
468.687	-0.04
468.887	-0.02
469.087	0
469.287	-0.02
469.488	-0.06
469.688	0.05
469.888	0.02
470.088	0.02
470.288	0.07
470.488	0.07
470.688	-0.06
470.888	-0.02
471.088	-0.03
471.288	0.03
471.488	0.03
471.688	0.07
471.888	-0.01
472.088	0.02
472.288	0.01
472.488	-0.02
472.688	-0.05
472.888	0.02
473.088	-0.01
473.288	-0.02
473.488	-0.05
473.688	0.06
473.887	-0.01
474.087	-0.05
474.287	0.01
474.487	0.02
474.687	0.02
474.886	-0.01
475.086	-0.02
475.286	-0.02
475.486	-0.01
475.685	-0.02
475.885	-0.01
476.085	-0.01
476.284	0.01
476.484	-0.02
476.684	0.01
476.883	0.08
477.083	0.04
477.282	-0.02
477.482	0.03
477.681	0.05
477.881	0.01
478.08	-0
478.28	-0.03
478.479	0.03
478.679	0.1
478.878	-0.03
479.078	-0
479.277	-0.01
479.477	-0.01
479.676	0.03
479.875	-0
480.075	-0.05
480.274	-0.01
480.473	-0.01
480.673	-0.04
480.872	0.02
481.071	0.02
481.271	-0
481.47	-0.05
481.669	-0.02
481.868	-0.06
482.067	-0.02
482.267	-0.03
482.466	-0.06
482.665	-0.03
482.864	-0.03
483.063	-0.03
483.262	-0.02
483.461	0.05
483.661	0.03
483.86	0.01
484.059	-0.01
484.258	-0.02
484.457	-0
484.656	0
484.855	0.02
485.054	-0.04
485.253	-0.02
485.452	-0.06
485.651	-0.02
485.849	-0.02
486.048	-0.03
486.247	-0.03
486.446	0
486.645	-0.06
486.844	-0.05
487.043	-0.02
487.241	-0.01
487.44	-0.02
487.639	-0.02
487.838	0.02
488.037	0.01
488.235	0.04
488.434	-0.01
488.633	-0.05
488.831	0.01
489.03	0.02
489.229	-0.01
489.427	-0.04
489.626	0.05
489.825	0.05
490.023	-0
490.222	-0.02
490.42	0.03
490.619	0.03
490.817	0
491.016	-0.02
491.214	0.02
491.413	-0.02
491.611	-0.02
491.81	-0.01
492.008	0.03
492.207	0
492.405	0.01
492.604	-0.05
492.802	-0.03
493	-0.01
493.199	-0.02
493.397	-0.02
493.595	-0.03
493.794	-0
493.992	0.04
494.19	-0.01
494.388	0.01
494.587	-0.05
494.785	-0
494.983	-0.04
495.181	-0.03
495.379	-0.01
495.578	-0.04
495.776	-0
495.974	0.01
496.172	-0.02
496.37	-0.01
496.568	-0.04
496.766	-0.02
496.964	0.01
497.162	-0.01
497.36	-0.02
497.558	0.01
497.756	0.02
497.954	-0.01
498.152	-0.03
498.35	0.01
498.548	-0.02
498.746	-0
498.944	-0.01
499.142	-0.01
499.34	-0.02
499.538	0.01
499.736	-0.03
499.933	0.03
500.131	0.01
500.329	0
500.527	0.01
500.725	0.03
500.922	0
501.12	0.01
501.318	-0.02
501.516	-0.02
501.713	0.01
501.911	0
502.109	-0.02
502.306	-0
502.504	-0.02
502.701	-0.03
502.899	-0.02
503.097	0.04
503.294	0.01
503.492	-0.02
503.689	-0.01
503.887	-0.01
504.084	0.02
504.282	-0.01
504.479	-0.02
504.677	-0.02
504.874	-0.04
505.072	0.01
505.269	0.01
505.466	0
505.664	-0.01
505.861	-0.04
506.059	-0.02
506.256	0.01
506.453	-0.02
506.651	0.03
506.848	0.02
507.045	0
507.242	-0.01
507.44	-0.04
507.637	0.01
507.834	-0.02
508.031	0.02
508.229	-0.05
508.426	-0.01
508.623	0.04
508.82	-0.02
509.017	-0.02
509.214	0.01
509.411	-0.03
509.608	-0.03
509.805	-0.01
510.003	-0
510.2	-0.02
510.397	-0.01
510.594	-0.03
510.791	-0.03
510.988	0.01
511.184	0.03
511.381	-0.02
511.578	-0.03
511.775	0.03
511.972	-0.03
512.169	-0.01
512.366	-0.01
512.563	0
512.76	-0.03
512.956	0.02
513.153	-0.02
513.35	-0.02
513.547	-0.02
513.744	-0.05
513.94	-0.04
514.137	0
514.334	0.03
514.53	-0.02
514.727	0
514.924	0.03
515.12	-0.02
515.317	-0.04
515.514	-0.02
515.71	-0.03
515.907	-0.01
516.103	0.01
516.3	-0
516.497	0.01
516.693	0.03
516.89	-0.03
517.086	-0.04
517.283	0.03
517.479	0
517.676	0
517.872	-0.01
518.068	-0.04
518.265	-0.03
518.461	-0.02
518.658	-0.04
518.854	-0
519.05	-0.01
519.247	-0.04
519.443	-0.01
519.639	-0.02
519.836	0
520.032	-0.01
520.228	-0.01
520.424	0.03
520.621	0.01
520.817	-0.01
521.013	-0
521.209	0.01
521.405	0.05
521.601	-0.01
521.798	0
521.994	0.02
522.19	-0.03
522.386	-0.04
522.582	0.01
522.778	-0.01
522.974	-0.02
523.17	0
523.366	-0.01
523.562	0.03
523.758	-0.01
523.954	-0.02
524.15	-0.02
524.346	0.01
524.542	-0
524.738	-0.02
524.934	0
525.129	-0.09
525.325	-0.02
525.521	0
525.717	0.02
525.913	-0.01
526.109	0
526.304	-0
526.5	0.02
526.696	0.01
526.892	0.01
527.087	0
527.283	-0.03
527.479	0.01
527.674	-0.02
527.87	-0
528.066	-0.01
528.261	0.01
528.457	-0.01
528.653	-0.02
528.848	-0.02
529.044	0
529.239	-0
529.435	0.02
529.63	-0.01
529.826	0.05
530.021	-0
530.217	0
530.412	-0.02
530.608	-0.01
530.803	-0
530.999	-0.03
531.194	-0.05
531.389	0.01
531.585	-0.04
531.78	-0.03
531.975	-0.01
532.171	-0.01
532.366	-0.01
532.561	0.01
532.757	-0.01
532.952	-0.02
533.147	0.01
533.342	0
533.538	-0.03
533.733	0.03
533.928	0
534.123	-0.02
534.318	-0.04
534.513	0
534.709	-0.02
534.904	-0.04
535.099	-0.03
535.294	-0.01
535.489	-0.01
535.684	0.01
535.879	-0.04
536.074	-0.02
536.269	-0.04
536.464	0.02
536.659	0
536.854	-0
537.049	0
537.244	-0.01
537.439	-0.01
537.634	-0
537.828	-0
538.023	-0.02
538.218	-0.03
538.413	-0.01
538.608	-0.04
538.803	0.01
538.997	-0.04
539.192	0.02
539.387	0
539.582	-0
539.776	-0
539.971	-0.04
540.166	-0.01
540.36	-0.02
540.555	-0.01
540.75	-0
540.944	-0.02
541.139	-0.03
541.334	-0.01
541.528	0.02
541.723	0.02
541.917	-0.01
542.112	-0.04
542.306	-0
542.501	-0.04
542.695	-0.01
542.89	-0.02
543.084	-0.01
543.279	-0.04
543.473	-0.01
543.668	-0.02
543.862	-0.02
544.056	0.03
544.251	-0.01
544.445	0.02
544.64	-0.04
544.834	-0.03
545.028	0.01
545.222	-0
545.417	0.02
545.611	0.01
545.805	-0.02
546	-0.01
546.194	-0.01
546.388	-0.03
546.582	-0.01
546.776	-0.01
546.97	-0.01
547.165	0.02
547.359	0.01
547.553	-0.03
547.747	0.01
547.941	-0
548.135	-0
548.329	0.01
548.523	0.02
548.717	-0.01
548.911	-0.04
549.105	-0.01
549.299	-0.02
549.493	0.02
549.687	0.01
549.881	0
550.075	-0
550.269	-0.04
550.463	0.01
550.657	-0.01
550.85	-0.03
551.044	-0.03
551.238	0
551.432	-0.03
551.626	-0.04
551.82	0
552.013	-0.01
552.207	-0.02
552.401	0.02
552.594	-0
552.788	-0.01
552.982	0
553.176	-0.04
553.369	-0
553.563	0
553.756	-0.03
553.95	-0.03
554.144	-0.01
554.337	0
554.531	0.01
554.724	-0.01
554.918	-0.04
555.111	0.02
555.305	-0.01
555.498	0.04
555.692	0.03
555.885	-0.02
556.079	-0.01
556.272	-0.04
556.466	0.01
556.659	-0.01
556.852	-0
557.046	-0.02
557.239	0.03
557.432	-0.04
557.626	-0.04
557.819	-0.01
558.012	0.02
558.206	-0
558.399	-0.02
558.592	-0.01
558.785	0
558.979	-0
559.172	-0.01
559.365	0.02
559.558	0
559.751	-0.01
559.944	-0.01
560.138	-0.02
560.331	-0.01
560.524	-0.02
560.717	-0.02
560.91	-0.02
561.103	-0.02
561.296	-0
561.489	0.02
561.682	-0.01
561.875	0
562.068	0.02
562.261	0.01
562.454	0.02
562.647	0
562.84	0.02
563.032	-0.02
563.225	0
563.418	-0.01
563.611	-0.02
563.804	-0.02
563.997	-0.03
564.19	-0.05
564.382	-0.02
564.575	-0.01
564.768	-0.02
564.961	-0.03
565.153	-0.04
565.346	0.03
565.539	0.02
565.731	-0.01
565.924	-0.01
566.117	0.02
566.309	0
566.502	-0.02
566.695	0
566.887	-0.03
567.08	-0.03
567.272	-0.01
567.465	-0.02
567.657	-0.01
567.85	-0
568.042	0.02
568.235	0.03
568.427	-0
568.62	0.01
568.812	0.01
569.005	-0.01
569.197	-0.06
569.389	0.01
569.582	-0.01
569.774	-0
569.966	-0.03
570.159	-0.06
570.351	0
570.543	-0.03
570.736	-0.03
570.928	-0.04
571.12	0.01
571.312	-0.02
571.505	-0.02
571.697	0.04
571.889	-0.03
572.081	-0.03
572.273	-0.05
572.465	0.02
572.658	-0.01
572.85	0.01
573.042	-0.03
573.234	-0.03
573.426	0.04
573.618	-0.04
573.81	-0
574.002	0.02
574.194	0.03
574.386	-0.05
574.578	-0.09
574.77	-0.03
574.962	-0.01
575.154	-0.03
575.346	-0.01
575.538	0
575.729	-0.04
575.921	-0.01
576.113	-0.01
576.305	0.01
576.497	-0.03
576.689	-0
576.88	-0.03
577.072	0.01
577.264	-0
577.456	-0.01
577.647	-0.06
577.839	-0.01
578.031	0.05
578.223	-0.04
578.414	-0.05
578.606	0
578.798	-0
578.989	-0.03
579.181	-0.03
579.372	-0.02
579.564	-0.01
579.755	-0
579.947	0
580.139	0
580.33	-0.05
580.522	-0.05
580.713	-0.08
580.905	-0
581.096	0.01
581.287	-0.02
581.479	-0.01
581.67	0.02
581.862	-0.01
582.053	-0.02
582.244	-0.03
582.436	0
582.627	0
582.818	-0.02
583.01	-0.02
583.201	-0
583.392	0.03
583.583	-0
583.775	-0.03
583.966	-0.02
584.157	-0.03
584.348	-0.02
584.54	-0.06
584.731	0.02
584.922	0.01
585.113	-0.03
585.304	0.01
585.495	0.02
585.686	-0
585.877	-0.01
586.068	0.02
586.259	0.03
586.45	0.02
586.641	-0.06
586.832	-0.05
587.023	-0.02
587.214	0.01
587.405	-0.01
587.596	-0.04
587.787	0.04
587.978	0.01
588.169	-0.03
588.36	-0.05
588.551	0.03
588.742	-0.03
588.932	-0.01
589.123	-0.03
589.314	0.01
589.505	0
589.696	-0.02
589.886	-0.03
590.077	-0.05
590.268	-0
590.458	-0.04
590.649	-0.07
590.84	-0.02
591.03	-0.04
591.221	-0.04
591.412	-0.05
591.602	-0.01
591.793	0.02
591.984	-0.04
592.174	-0
592.365	0.08
592.555	-0.05
592.746	-0.02
592.936	0
593.127	0
593.317	-0.01
593.508	-0.03
593.698	-0.03
593.889	-0.02
594.079	-0
594.269	-0.05
594.46	-0.02
594.65	-0.02
594.84	-0
595.031	-0.05
595.221	-0.03
595.411	-0.03
595.602	0.02
595.792	-0.02
595.982	-0.04
596.172	0.04
596.363	-0
596.553	-0.01
596.743	0.03
596.933	0
597.123	0.02
597.314	-0.03
597.504	-0.02
597.694	-0
597.884	-0.03
598.074	-0.01
598.264	-0.02
598.454	-0.01
598.644	-0.01
598.834	-0.02
599.024	-0.05
599.214	-0.01
599.404	0.03
599.594	-0.05
599.784	-0.07
599.974	0.06
600.164	-0.01
600.354	-0.04
600.544	-0.07
600.734	-0
600.924	0.04
601.114	-0.02
601.303	-0.03
601.493	-0.01
601.683	-0.01
601.873	-0.01
602.063	-0.05
602.252	0.02
602.442	-0.08
602.632	-0.05
602.821	-0.04
603.011	0.03
603.201	-0.01
603.39	-0.02
603.58	-0.03
603.77	-0.02
603.959	0.04
604.149	-0.01
604.339	-0.03
604.528	0.01
604.718	0.03
604.907	-0.03
605.097	-0.02
605.286	0.04
605.476	-0
605.665	-0
605.855	-0.04
606.044	0.04
606.234	-0.01
606.423	-0.02
606.612	-0.03
606.802	-0.03
606.991	-0.01
607.181	-0
607.37	-0.07
607.559	-0.02
607.749	-0.04
607.938	-0.04
608.127	-0.04
608.316	-0.04
608.506	0.01
608.695	-0.01
608.884	-0.03
609.073	-0
609.263	0.01
609.452	-0
609.641	0
609.83	-0.05
610.019	-0.02
610.208	-0.04
610.397	-0.01
610.586	0.01
610.775	-0.02
610.965	-0.03
611.154	-0.04
611.343	-0.03
611.532	0.01
611.721	-0.05
611.91	-0.03
612.099	0.01
612.287	-0.05
612.476	-0.05
612.665	0.01
612.854	-0.04
613.043	0.01
613.232	-0
613.421	-0.04
613.61	-0
613.798	-0.05
613.987	-0.01
614.176	-0.04
614.365	0
614.554	-0.02
614.742	-0
614.931	-0.03
615.12	0
615.309	-0.02
615.497	0.03
615.686	-0.05
615.875	-0.01
616.063	0.03
616.252	-0.02
616.44	-0.01
616.629	-0.01
616.818	0.01
617.006	-0.04
617.195	-0.05
617.383	-0.01
617.572	-0.02
617.76	-0.01
617.949	-0.02
618.137	-0
618.326	0
618.514	0.02
618.703	-0.04
618.891	0.03
619.079	-0.05
619.268	0.02
619.456	-0.03
619.644	0.03
619.833	-0.02
620.021	-0.03
620.209	-0.06
620.398	-0.02
620.586	-0.01
620.774	-0.01
620.962	-0.04
621.151	0.03
621.339	-0.01
621.527	-0.05
621.715	-0.07
621.903	-0.04
622.092	-0.04
622.28	-0.03
622.468	-0.05
622.656	-0.02
622.844	0
623.032	-0.07
623.22	-0.04
623.408	-0.01
623.596	0.02
623.784	0.02
623.972	-0.02
624.16	-0.01
624.348	0.04
624.536	-0.03
624.724	-0.03
624.912	0.05
625.1	0.02
625.288	-0.03
625.476	-0.04
625.664	0.03
625.851	-0.04
626.039	-0.01
626.227	0.01
626.415	0
626.603	-0.06
626.79	-0.02
626.978	-0.03
627.166	0.01
627.354	-0.03
627.541	-0.04
627.729	-0.07
627.917	0
628.104	0.06
628.292	0.01
628.48	0.02
628.667	-0.02
628.855	-0.01
629.042	-0.01
629.23	-0.03
629.418	0.04
629.605	0.02
629.793	-0.06
629.98	-0.02
630.168	-0.03
630.355	0.01
630.543	-0.01
630.73	-0.02
630.917	0.02
631.105	0.05
631.292	-0.05
631.48	0.01
631.667	0.05
631.854	0.04
632.042	-0.04
632.229	-0.02
632.416	0.01
632.604	-0.02
632.791	-0.05
632.978	0.04
633.165	0.02
633.353	0.08
633.54	0.07
633.727	-0.06
633.914	-0.02
634.101	-0.02
634.289	0.05
634.476	-0.04
634.663	-0.01
634.85	0.02
635.037	-0.02
635.224	-0.04
635.411	0.05
635.598	0.04
635.785	-0.02
635.972	-0.01
636.159	0.01
636.346	-0.02
636.533	0.03
636.72	0
636.907	0.02
637.094	0.02
637.281	-0.01
637.468	-0
637.655	0.02
637.842	0.03
638.029	0
638.215	0
638.402	0.01
638.589	-0.02
638.776	0
638.963	-0
639.149	0.04
639.336	0.08
639.523	0
639.709	0
639.896	-0.01
640.083	0.07
640.27	0.06
640.456	-0.01
640.643	0.02
640.829	-0.03
641.016	-0.02
641.203	-0.01
641.389	0.04
641.576	0.04
641.762	0.03
641.949	-0.01
642.135	0.08
642.322	0.05
642.508	-0.07
642.695	0.02
642.881	-0.02
643.068	0.01
643.254	0.03
643.441	0.05
643.627	0.01
643.813	0
644	0.07
644.186	-0.02
644.372	0.03
644.559	0.07
644.745	0.03
644.931	-0
645.118	0.02
645.304	0.02
645.49	0.02
645.676	0
645.862	0.03
646.049	0.09
646.235	0.05
646.421	0.09
646.607	0.11
646.793	0.02
646.979	0.01
647.165	0.04
647.352	0.02
647.538	0.05
647.724	0.02
647.91	0.02
648.096	0.04
648.282	0.12
648.468	0.02
648.654	0.05
648.84	0.06
649.026	0.05
649.212	0.07
649.397	0.05
649.583	0.03
649.769	0.04
649.955	0.07
650.141	0.07
650.327	0.11
650.513	0.03
650.698	0.05
650.884	-0.01
651.07	0.05
651.256	0.07
651.442	0.03
651.627	0.07
651.813	0.05
651.999	0.05
652.184	0.11
652.37	0.07
652.556	0.06
652.741	0.15
652.927	0.01
653.113	0.09
653.298	0.08
653.484	0.11
653.669	0.01
653.855	0.1
654.04	0.1
654.226	0.1
654.412	0.05
654.597	0.07
654.782	0.07
654.968	0.09
655.153	0.09
655.339	0.04
655.524	0.05
655.71	0.12
655.895	0.08
656.08	0.05
656.266	0.13
656.451	0.11
656.636	0.05
656.822	0.08
657.007	0.08
657.192	0.09
657.378	0.06
657.563	0.08
657.748	0.13
657.933	0.12
658.118	0.1
658.304	0.07
658.489	0.1
658.674	0.12
658.859	0.1
659.044	0.15
659.229	0.11
659.414	0.09
659.599	0.11
659.785	0.04
659.97	0.09
660.155	0.11
660.34	0.1
660.525	0.1
660.71	0.05
660.895	0.11
661.08	0.06
661.264	0.06
661.449	0.15
661.634	0.12
661.819	0.11
662.004	0.08
662.189	0.02
662.374	0.02
662.559	0.02
662.743	-0
662.928	0.05
663.113	0.04
663.298	-0.01
663.483	0.03
663.667	0.08
663.852	0
664.037	0.09
664.221	0.03
664.406	0.05
664.591	0.06
664.775	0.05
664.96	-0.01
665.145	0.02
665.329	0.09
665.514	0.01
665.698	0.01
665.883	-0
666.068	0.1
666.252	0.02
666.437	-0.04
666.621	-0
666.806	0.05
666.99	0.03
667.174	-0.03
667.359	0.08
667.543	-0.02
667.728	-0.01
667.912	-0.06
668.096	0.07
668.281	-0.01
668.465	0.02
668.649	0
668.834	-0.03
669.018	-0
669.202	-0.02
669.387	-0.01
669.571	0.05
669.755	-0
669.939	0.04
670.124	0.04
670.308	0.06
670.492	0.03
670.676	0
670.86	0
671.044	-0.02
671.228	0.03
671.413	-0.06
671.597	-0.05
671.781	-0.06
671.965	0.05
672.149	-0.02
672.333	-0.05
672.517	-0.02
672.701	0.06
672.885	-0.01
673.069	-0.08
673.253	0.05
673.437	-0.06
673.621	-0.05
673.804	0
673.988	-0.02
674.172	0.01
674.356	-0.04
674.54	-0.02
674.724	0.07
674.908	-0.01
675.091	-0
675.275	-0.03
675.459	0.02
675.643	0.05
675.826	-0
676.01	-0.01
676.194	0
676.377	0.01
676.561	0.02
676.745	-0.01
676.928	0.02
677.112	-0
677.296	-0.04
677.479	-0.05
677.663	-0.01
677.846	-0.01
678.03	-0.01
678.213	-0.07
678.397	0
678.58	-0.05
678.764	-0.05
678.947	-0.05
679.131	-0.02
679.314	0.01
679.498	-0.03
679.681	-0.04
679.865	0.09
680.048	0.01
680.231	-0.06
680.415	-0.06
680.598	-0.03
680.781	-0.03
680.965	-0.04
681.148	-0.01
681.331	-0.02
681.514	0.03
681.698	-0.04
681.881	0.01
682.064	-0
682.247	-0.04
682.43	-0.1
682.614	0
682.797	0.01
682.98	0.01
683.163	-0.06
683.346	-0.03
683.529	-0.04
683.712	-0.1
683.895	0.02
684.078	-0.07
684.261	-0.05
684.444	0.01
684.627	-0.02
684.81	-0.05
684.993	-0.01
685.176	0.02
685.359	-0.06
685.542	-0.04
685.725	0.06
685.908	-0.02
686.091	-0.06
686.274	0.03
686.457	0.05
686.639	-0.07
686.822	0.01
687.005	-0.06
687.188	0
687.371	0.04
687.553	-0.03
687.736	-0.08
687.919	0.05
688.102	0.05
688.284	-0.04
688.467	-0.01
688.65	-0.03
688.832	-0.1
689.015	-0.05
689.197	-0.06
689.38	0.07
689.563	0.08
689.745	-0.09
689.928	-0.05
690.11	-0.06
690.293	0.02
690.475	-0.08
690.658	-0.05
690.84	-0.02
691.023	-0.03
691.205	-0.04
691.388	-0.02
691.57	0.07
691.752	-0
691.935	-0.1
692.117	-0.01
692.3	-0.01
692.482	-0.04
692.664	-0.05
692.847	0
693.029	0.03
693.211	0.03
693.393	0.01
693.576	0
693.758	0.02
693.94	-0.05
694.122	0
694.304	-0.07
694.487	-0.09
694.669	0.1
694.851	-0.09
695.033	-0.02
695.215	0.01
695.397	-0.08
695.579	0.03
695.761	-0.05
695.943	-0.07
696.125	0.04
696.308	-0.03
696.49	-0.12
696.671	0.11
696.853	-0.01
697.035	0.11
697.217	-0.05
697.399	0.01
697.581	-0.01
697.763	0.01
697.945	-0.04
698.127	0.01
698.309	0.04
698.491	-0.02
698.672	0
698.854	0.05
699.036	0.04
699.218	-0.02
699.399	0.06
699.581	0.01
699.763	0.03
699.945	-0.02
700.126	-0.04
700.308	0.06
700.49	0.04
700.671	-0.11
700.853	-0.09
701.035	-0.05
701.216	0.04
701.398	-0.05
701.579	-0.03
701.761	0.04
701.943	-0.04
702.124	-0.05
702.306	-0.04
702.487	0.09
702.669	0.02
702.85	-0.04
703.031	-0.07
703.213	0.09
703.394	0.06
703.576	-0.11
703.757	-0.02
703.938	0.03
704.12	0.22
704.301	-0.02
704.483	-0.07
704.664	0.02
704.845	0.11
705.026	0.05
705.208	-0.02
705.389	0.01
705.57	0.08
705.751	-0.02
705.933	-0.08
706.114	0.06
706.295	0.05
706.476	-0.09
706.657	0.02
706.838	0.03
707.02	0.05
707.201	-0.05
707.382	-0.03
707.563	0
707.744	-0.03
707.925	-0.06
708.106	-0.07
708.287	0.01
708.468	0.1
708.649	0.01
708.83	0.02
709.011	-0.04
709.192	0.07
709.373	-0.01
709.554	-0
709.734	0.08
709.915	0.05
710.096	0.02
710.277	-0.11
710.458	0.03
710.639	0.08
710.819	-0.05
711	0.02
711.181	0.04
711.362	0.06
711.542	0.02
711.723	-0.03
711.904	0.04
712.085	0.06
712.265	-0.03
712.446	-0.14
712.627	0.02
712.807	-0.01
712.988	0.02
713.168	-0.07
713.349	-0.04
713.53	-0.1
713.71	-0.04
713.891	-0.12
714.071	-0.06
714.252	-0.08
714.432	-0.05
714.613	-0.11
714.793	0.02
714.974	0.04
715.154	0.01
715.334	0
715.515	0.21
715.695	-0.1
715.876	-0.01
716.056	-0.01
716.236	-0.04
716.417	-0.02
716.597	-0.05
716.777	0.08
716.957	-0.08
717.138	0.01
717.318	0.04
717.498	-0.07
717.678	0.02
717.859	0
718.039	-0.05
718.219	0.04
718.399	0.07
718.579	-0.04
718.759	-0.02
718.939	0.07
719.12	-0
719.3	0.02
719.48	-0.08
719.66	-0.08
719.84	0.11
720.02	0.03
720.2	-0.02
720.38	0.09
720.56	0.1
720.74	0.05
720.92	0.09
721.1	0.1
721.279	0.07
721.459	-0.04
721.639	-0.08
721.819	0.05
721.999	-0.06
722.179	0.09
722.359	-0.03
722.538	0.04
722.718	0.06
722.898	-0.04
723.078	-0.02
723.257	0.04
723.437	0.06
723.617	0.08
723.797	0.06
723.976	0.02
724.156	0.12
724.336	0.17
724.515	0.18
724.695	-0.08
724.874	-0.02
725.054	0.09
725.234	0.05
725.413	0.09
725.593	0.07
725.772	0.03
725.952	0.03
726.131	0
726.311	0.03
726.49	-0.04
726.67	-0.06
726.849	0.05
727.028	0.04
727.208	0.04
727.387	0.11
727.567	-0.08
727.746	0.01
727.925	-0.01
728.105	-0.03
728.284	-0.02
728.463	-0.02
728.643	0.1
728.822	-0.03
729.001	0.05
729.18	-0.01
729.359	0.12
729.539	0.04
729.718	0.08
729.897	0.14
730.076	0.06
730.255	-0.06
730.434	0.01
730.614	-0
730.793	0.08
730.972	0.01
731.151	0.1
731.33	0.11
731.509	0.12
731.688	0.12
731.867	0.08
732.046	0.02
732.225	0.27
732.404	0.05
732.583	-0.05
732.762	0.05
732.941	0.14
733.12	0.15
733.298	0.08
733.477	0.19
733.656	0.02
733.835	-0.05
734.014	0.1
734.193	0.01
734.371	0.15
734.55	0.17
734.729	-0.04
734.908	0.18
735.086	0.17
735.265	0.18
735.444	0.03
735.623	-0.07
735.801	-0.07
735.98	0.1
736.159	-0.05
736.337	0.14
736.516	0.11
736.694	0.1
736.873	0.05
737.052	0.08
737.23	0.26
737.409	0.05
737.587	0.15
737.766	-0.08
737.944	0
738.123	0.1
738.301	0.15
738.479	0.06
738.658	0.13
738.836	-0.14
739.015	0.11
739.193	0.25
739.371	-0.16
739.55	-0.07
739.728	-0.16
739.906	0.18
740.085	0.17
740.263	0.09
740.441	-0.15
740.62	0.27
740.798	0.07
740.976	-0.06
741.154	0.01
741.332	0.19
741.511	-0.02
741.689	0.1
741.867	0.05
742.045	0.11
742.223	-0.02
742.401	0.03
742.579	-0
742.757	0.1
742.935	-0.12
743.114	-0.12
743.292	0.01
743.47	0.06
743.648	0.06
743.826	0.12
744.004	0.06
744.181	0.18
744.359	-0.08
744.537	-0.04
744.715	-0.01
744.893	0.01
745.071	0.06
745.249	-0.14
745.427	-0.13
745.605	0.13
745.782	-0.02
745.96	0.06
746.138	0.09
746.316	0.14
746.493	-0.01
746.671	-0.02
746.849	0.02
747.027	0.09
747.204	-0.03
747.382	0.07
747.56	-0.18
747.737	-0.09
747.915	-0.15
748.093	-0.03
748.27	-0.08
748.448	-0.08
748.625	-0.12
748.803	-0.14
748.98	-0.04
749.158	0.08
749.335	0.2
749.513	-0.03
749.69	-0.02
749.868	0.07
750.045	0.07
750.223	-0.06
750.4	-0.19
750.578	0.26
750.755	0.05
750.932	-0.21
751.11	0.04
751.287	-0.12
751.464	0.04
751.642	-0.14
751.819	-0
751.996	-0.1
752.173	-0.16
752.351	-0.18
752.528	-0.03
752.705	-0.07
752.882	-0.14
753.06	-0.06
753.237	0.01
753.414	0.09
753.591	0.06
753.768	0.04
753.945	-0.11
754.122	0.01
754.299	0.04
754.476	0.01
754.654	-0.03
754.831	-0.11
755.008	0.09
755.185	-0.11
755.362	-0.11
755.539	-0.04
755.716	-0.08
755.892	-0.09
756.069	-0.05
756.246	-0.22
756.423	-0.11
756.6	0.07
756.777	-0.02
756.954	0.12
757.131	-0.01
757.307	-0.15
757.484	-0.11
757.661	-0.05
757.838	0.08
758.015	-0.15
758.191	0.15
758.368	-0.14
758.545	0.07
758.721	0.01
758.898	-0.17
759.075	-0.03
759.251	0.07
759.428	0.04
759.605	-0.15
759.781	0.03
759.958	0.01
760.134	-0.07
760.311	-0.15
760.488	0.17
760.664	0.16
760.841	-0.04
761.017	-0.04
761.194	0.06
761.37	0.02
761.547	-0.09
761.723	-0.01
761.899	0.12
762.076	-0.06
762.252	-0.18
762.429	-0.08
762.605	0.13
762.781	-0.01
762.958	0.03
763.134	-0.01
763.31	-0.07
763.486	0.16
763.663	-0.19
763.839	0.12
764.015	-0.15
764.191	-0.14
764.368	-0.03
764.544	-0.12
764.72	0.02
764.896	0.1
765.072	0.07
765.248	0.1
765.425	0.06
765.601	0.02
765.777	0.07
765.953	-0.35
766.129	-0.16
766.305	-0.12
766.481	0.06
766.657	-0.05
766.833	0.07
767.009	-0.14
767.185	-0.04
767.361	-0.19
767.537	-0.1
767.713	0.06
767.889	-0.15
768.065	-0.09
768.24	-0.28
768.416	0.05
768.592	-0.2
768.768	-0.17
768.944	0.02
769.12	-0.25
769.295	-0.11
769.471	-0.11
769.647	-0.17
769.823	0.11
769.998	-0.16
770.174	-0.1
770.35	0.21
770.525	0.26
770.701	-0.1
770.877	0.02
771.052	-0.15
771.228	0.05
771.403	0.05
771.579	-0.02
771.755	0.24
771.93	-0.14
772.106	-0.23
772.281	-0.18
772.457	-0.06
772.632	0.06
772.808	-0.26
772.983	-0.03
773.159	-0.11
773.334	0.05
773.509	-0.06
773.685	-0.14
773.86	0.32
774.036	0.21
774.211	-0.11
774.386	-0.04
774.562	-0.05
774.737	0.05
774.912	-0.13
775.087	0.09
775.263	0.01
775.438	0
775.613	-0.01
775.788	-0.15
775.964	0.14
776.139	0.31
776.314	-0.26
776.489	-0.15
776.664	0.06
776.839	-0.25
777.014	0.11
777.19	-0.01
777.365	0.14
777.54	0.07
777.715	-0.01
777.89	-0.12
778.065	-0.06
778.24	-0.03
778.415	0.13
778.59	-0.19
778.765	-0.11
778.94	0.03
779.115	-0.17
779.289	-0.28
779.464	-0.15
779.639	0.02
779.814	-0.23
779.989	-0.18
780.164	0.27
780.339	0.08
780.513	-0.09
780.688	-0.15
780.863	-0.13
781.038	0.01
781.212	-0.13
781.387	0.08
781.562	0.19
781.737	0.05
781.911	0.2
782.086	-0.2
782.261	0.07
782.435	0.27
782.61	-0.15
782.784	-0.06
782.959	0.27
783.134	-0.26
783.308	-0.22
783.483	-0.15
783.657	0.24
783.832	0.1
784.006	-0.3
784.181	-0.05
784.355	0.3
784.53	0.16
784.704	-0.31
784.878	0.19
785.053	-0.06
785.227	0.27
785.402	0.26
785.576	-0.47
785.75	-0.12
785.925	-0.11
786.099	-0.18
786.273	-0.07
786.448	-0.07
786.622	0.11
786.796	-0.05
786.97	-0.16
787.145	0.33
787.319	-0.33
787.493	-0.15
787.667	-0.15
787.841	-0.09
788.015	0.31
788.19	-0.19
788.364	-0.12
788.538	-0.02
788.712	0.26
788.886	0.01
789.06	0.16
789.234	-0.01
789.408	-0.22
789.582	-0.2
789.756	-0.15
789.93	-0.25
790.104	-0.07
790.278	-0.03
790.452	-0.24
790.626	-0.07
790.8	-0.06
790.973	0.13
791.147	0.04
791.321	0.28
791.495	-0.02
791.669	-0.13
791.843	0.03
792.016	0.09
792.19	0.5
792.364	-0.5
792.538	0.41
792.711	0.21
792.885	-0.12
793.059	-0.34
793.233	-0.32
793.406	0.32
793.58	-0.02
793.754	0.07
793.927	-0.15
794.101	0.1
794.274	0.18
794.448	0.13
794.622	-0.19
794.795	0.19
794.969	-0.21
795.142	0.22
795.316	-0.32
795.489	-0.16
795.663	0.44
795.836	-0.28
796.009	-0.36
796.183	0.14
796.356	0.15
796.53	0.08
796.703	-0.4
796.876	0.51
797.05	-0.06
797.223	0.09
797.396	0.04
797.57	0.06
797.743	0.44
797.916	-0.07
798.09	-0.01
798.263	0.06
798.436	0.08
798.609	-0.16
798.782	-0.06
798.956	-0.07
799.129	-0.25
799.302	-0.16
799.475	-0.15
799.648	0.1
799.821	-0.22
799.994	-0
800.167	-0.5
800.34	0.08
800.514	-0.07
800.687	0.16
800.86	-0.16
801.033	0.05
801.206	-0.17
801.379	-0.34
801.551	0.01
801.724	0.12
801.897	0.43
802.07	-0.34
802.243	-0.6
802.416	-0.21
802.589	-0.19
802.762	0.1
802.935	0.16
803.107	0.26
803.28	0.3
803.453	0.12
803.626	-0.34
803.798	-0.24
803.971	0.16
804.144	-0.04
804.317	0.05
804.489	0.32
804.662	-0.18
804.835	-0.09
805.007	-0.21
805.18	0.21
805.353	0.08
805.525	-0.39
805.698	-0.46
805.87	0.4
806.043	0.43
806.215	-0.29
806.388	-0.09
806.56	0.19
806.733	0.24
806.905	-0.25
807.078	-0.13
807.25	-0.26
807.423	0.3
807.595	0.02
807.768	0.02
807.94	-0.08
808.112	0.19
808.285	-0.08
808.457	-0.18
808.629	0.02
808.802	-0.04
808.974	0.05
809.146	-0.16
809.318	-0.38
809.491	0.02
809.663	0.1
809.835	-0.07
810.007	0.09
810.18	-0.15
810.352	-0.7
810.524	-0.36
810.696	0.3
810.868	0.5
811.04	0.03
811.212	0.1
811.384	0.09
811.556	-0.14
811.728	-0.44
811.901	0.33
812.073	-0.14
812.245	-0.12
812.417	-0.06
812.589	-0.91
812.76	-0.15
812.932	0.15
813.104	0.3
813.276	-0.01
813.448	0.13
813.62	0.05
813.792	-0.08
813.964	-0.33
814.136	0.4
814.307	-0.35
814.479	-0.39
814.651	-0.56
814.823	0.56
814.995	-0.01
815.166	0.13
815.338	-0.47
815.51	-0.68
815.681	0.9
815.853	0.02
816.025	-0.18
816.196	0.27
816.368	0.02
816.54	-0.25
816.711	-0.69
816.883	0.24
817.054	0.85
817.226	-0.68
817.398	-0.01
817.569	0.11
817.741	-0.06
817.912	0.32
818.084	-0.13
818.255	0.14
818.426	-0.25
818.598	-0.4
818.769	-0.49
818.941	-0.06
819.112	0.54
819.283	0.03
819.455	-0.74
819.626	0.09
819.798	0.14
819.969	0.11
820.14	-0.35
820.311	-0.35
820.483	0.16
820.654	-0.05
820.825	-0.19
820.996	-0.32
821.168	-0.46
821.339	-0.22
821.51	-0.57
821.681	-0.32
821.852	-0.4
822.023	-0.59
822.195	-1.37
822.366	0.53
822.537	-0.24
822.708	-0.22
822.879	-0.55
823.05	0.63
823.221	0.04
823.392	0.35
823.563	-0.34
823.734	-0.14
823.905	-0.19
824.076	-0.31
824.247	-0.49
824.418	-0.05
824.589	0.86
824.759	-0.33
824.93	-0.33
825.101	-0.7
825.272	0.14
825.443	0.59
825.614	0.3
825.784	-0.87
825.955	0.82
826.126	0.16
826.297	-0.36
826.467	0.96
826.638	0.88
826.809	-1
826.98	-0.13
827.15	-0.2
827.321	-0.21
827.492	0.58
827.662	-0.36
827.833	0.93
828.003	0.2
828.174	-0.46
828.345	-0.86
828.515	0.85
828.686	-0.3
828.856	-0.74
829.027	-0.55
829.197	-0.52
829.368	-0.12
829.538	-0.33
829.709	-0.44
829.879	0.01
830.049	0.17
830.22	-0.39
830.39	-0.66
830.56	0.03
830.731	-0.22
830.901	-0.37
831.072	-0.39
831.242	0.45
831.412	0.43
831.582	-0.15
831.753	-0.43
831.923	-0.46
832.093	-0.61
832.263	-0.27
832.434	-0.51
832.604	-0.45
832.774	0.73
832.944	-0.35
833.114	-0.35
833.284	0.62
833.454	-0.62
833.624	-0.65
833.795	-1.02
833.965	0.32
834.135	0.23
834.305	-1.25
834.475	-0.74
834.645	-0.42
834.815	0.21
834.985	-0.15
835.155	-0.55
835.325	0.93
835.494	-0.08
835.664	-0.03
835.834	-0.2
836.004	0.11
836.174	0.51
836.344	-0.23
836.514	-1.06
836.684	-0.76
836.853	0.56
837.023	-0.22
837.193	-0.93
837.363	0.91
837.532	0.1
837.702	-0.89
837.872	-0.27
838.041	0.33
838.211	1.69
838.381	-0.99
838.55	0.51
838.72	2.3
838.89	1.16
839.059	-0.24
839.229	-0.53
839.398	1.18
839.568	0.11
839.738	-0.3
839.907	0.79
840.077	0.29
840.246	-0.95
840.416	-0.4
840.585	-0.76
840.755	1.53
840.924	0.87
841.093	-0.55
841.263	-0.49
841.432	0.18
841.602	-0.53
841.771	-1.03
841.94	0.1
842.11	1.31
842.279	0.89
842.448	-0.9
842.617	-0.79
842.787	0.78
842.956	-0.95
843.125	0.04
843.294	0.14
843.464	0.6
843.633	0.36
843.802	-0.79
843.971	-0.67
844.14	0.51
844.309	1.78
844.479	-0.53
844.648	-0.2
844.817	-0.18
844.986	-0.57
845.155	-0.96
845.324	-0.32
845.493	-0.35
845.662	-0.27
845.831	0.65
846	0.07
846.169	-0.7
846.338	0.7
846.507	-0.25
846.676	0.35
846.844	-0.46
847.013	1.37
847.182	0.17
847.351	-0.23
847.52	-0.11
847.689	0.78
847.858	-0.14
848.026	-0.72
848.195	0.72
848.364	-0.27
848.533	-1.16
848.701	-0.96
848.87	0.23
849.039	0.72
849.207	0.53
849.376	0.16
849.545	1.14
849.713	-0.6
849.882	-0.01
850.051	-0.59
850.219	0.14
850.388	1.6
850.556	-0.64
850.725	-0.5
850.893	-1.05
851.062	-1.06
851.23	-0.59
851.399	-0.57
851.567	-1.4
851.736	-0.88
851.904	-1.18
852.073	-0.2
852.241	0.69
852.41	-0.12
852.578	-0.71
852.746	-1.21
852.915	0.52
853.083	0.22
853.251	-1.67
853.42	-0.5
853.588	-0.1
853.756	0.98
853.924	0.45
854.093	-0.81
854.261	0.52
854.429	-1.42
854.597	0.02
854.765	-1.02
854.934	0.4
855.102	0.66
855.27	-0.64
855.438	0.06
855.606	0.72
855.774	2.53
855.942	-0.53
856.11	-1.93
856.278	-1.32
856.446	0.9
856.614	0.33
856.782	-1.33
856.95	0.78
857.118	0.41
857.286	0.1
857.454	-1.15
857.622	0.94
857.79	0.31
857.958	-0.72
858.126	-0.61
858.294	-1.45
858.462	0.32
858.629	-0.21
858.797	-1.38
858.965	-0.37
859.133	-0.35
859.301	-1.75
859.468	0.35
859.636	-2.24
859.804	1.43
859.971	0.95
860.139	-0.81
860.307	0.94
860.474	-0.72
860.642	-1.75
860.81	-1.13
860.977	-0.22
861.145	0.91
861.313	-0.24
861.48	-0.72
861.648	0.93
861.815	-0.5
861.983	-1.34
862.15	-0.45
862.318	0.19
862.485	0.97
862.653	-0.57
862.82	-1.34
862.988	1.64
863.155	0.86
863.322	-0.91
863.49	-2.02
863.657	-0.97
863.824	2.08
863.992	0.35
864.159	-0.13
864.326	1.85
864.494	-1.47
864.661	2.5
864.828	-1.23
864.996	1.42
865.163	1.55
865.33	-1.55
865.497	-2.04
865.664	-1.44
865.832	-3.57
865.999	-1.47
866.166	-1.84
866.333	-0.45
866.5	-1.59
866.667	-0.08
866.834	-1.74
867.001	1.46
867.168	-2.49
867.335	-0.81
867.502	-2.04
867.669	-0.23
867.836	2.51
868.003	-0.98
868.17	0.02
868.337	-2.34
868.504	1.47
868.671	-2.22
868.838	-1.27
869.005	0.66
869.172	0.18
869.339	-0.6
869.505	-0.27
869.672	-0.8
869.839	1.16
870.006	1.06
870.173	-2.62
870.339	1.55
870.506	2.17
870.673	-2.12
870.84	1.48
871.006	0.66
871.173	-0.28
871.34	-1.12
871.506	-0.97
871.673	-0.45
871.839	-3
872.006	0.81
872.173	-0.7
872.339	0.72
872.506	0.51
872.672	0.08
872.839	-1.44
873.005	-0.69
873.172	2.66
873.338	0.79
873.505	0.53
873.671	1.93
873.838	-0.89
874.004	-1.52
874.171	-0.55
874.337	0.3
874.503	-0.13
874.67	-0.32
874.836	-0.3
875.002	1.2
875.169	1.94
875.335	-0.15
875.501	-0.09
875.668	1.89
875.834	0.29
876	0.01
876.166	0.48
876.332	2.45
876.499	4.29
876.665	-0.77
876.831	0.96
876.997	3.91
877.163	1.11
877.329	-1.38
877.495	-0.3
877.662	1.11
877.828	-0.06
877.994	-0.19
878.16	-3.08
878.326	-0.97
878.492	-1.54
878.658	-1.77
878.824	1.18
878.99	-0.14
879.156	-0.88
879.322	0.81
879.487	0.65
879.653	1.41
879.819	-0.62
879.985	-2.28
880.151	0.68
880.317	1.69
880.483	0.66
880.648	0.29
880.814	-3.27
880.98	2.02
881.146	-2.52
881.312	-1.96
881.477	-1.06
881.643	0.44
881.809	2.04
881.974	0.09
882.14	-2.32
882.306	0.35
882.471	1.42
882.637	-0.42
882.803	0.78
882.968	1.26
883.134	2.91
883.299	0.95
883.465	-1.15
883.63	0.76
883.796	0.12
883.961	0.59
884.127	0.7
884.292	-4.63
884.458	-2.08
884.623	-2.07
