Data from Apollo_Calib_20240827__AbsoluteIrradiance__116__01-05-00-005.txt Node

Date: Wed Aug 28 01:05:00 BST 2024
User: biology
Spectrometer: FLMT08252
Trigger mode: 0
Integration Time (sec): 5.000000E-1
Scans to average: 5
Electric dark correction enabled: true
Nonlinearity correction enabled: false
Boxcar width: 0
XAxis mode: Wavelengths
Number of Pixels in Spectrum: 3648
>>>>>Begin Spectral Data<<<<<
179.588	-0
179.809	-0
180.03	-0
180.251	-0
180.473	-0
180.694	0
180.915	0
181.136	-0
181.357	0
181.578	-0
181.799	-0
182.02	-0
182.241	0
182.462	-0
182.683	0
182.904	-0
183.125	-0
183.346	0
183.567	0
183.788	0
184.009	-0
184.23	0
184.451	0
184.672	-0
184.892	-0
185.113	0
185.334	0
185.555	-0
185.776	-0
185.996	0
186.217	0
186.438	0
186.659	-0
186.879	-0
187.1	-0
187.321	-0
187.541	-0
187.762	-0
187.983	0
188.203	0
188.424	0
188.644	-0
188.865	0
189.086	-0
189.306	-0
189.527	0
189.747	0
189.968	-0
190.188	0
190.409	0
190.629	0
190.849	-0
191.07	-0
191.29	0
191.511	0
191.731	-0
191.951	-0
192.172	-0
192.392	-0
192.612	-0
192.833	-0
193.053	0
193.273	0
193.493	-0
193.714	-0
193.934	0
194.154	0
194.374	0
194.594	0
194.815	-0
195.035	-0
195.255	0
195.475	-0
195.695	0
195.915	-0
196.135	-0
196.355	0
196.575	0
196.795	-0
197.015	-0
197.235	-0
197.455	0
197.675	0
197.895	-0
198.115	0
198.335	0
198.555	-0
198.775	0
198.995	0
199.214	0
199.434	-0
199.654	-0
199.874	-0
200.094	0.56
200.313	-0.5
200.533	-0.79
200.753	-0.93
200.973	1.31
201.192	0.67
201.412	-0.96
201.632	-0.02
201.851	0.81
202.071	-0.74
202.291	-0.63
202.51	-1.02
202.73	0.09
202.95	-0.17
203.169	-0.71
203.389	-0.42
203.608	-0.11
203.828	-0.57
204.047	-0.28
204.267	0.05
204.486	0.07
204.706	-0.1
204.925	-0.26
205.145	-0.27
205.364	0.39
205.583	0.7
205.803	-0.01
206.022	-0.32
206.242	-0.21
206.461	-0.07
206.68	-0.41
206.9	-0.09
207.119	0.48
207.338	0.29
207.557	-0.11
207.777	-0.13
207.996	-0.32
208.215	0.11
208.434	-0.56
208.654	-0.44
208.873	-0.07
209.092	0.41
209.311	-0.21
209.53	-0.09
209.749	-0.15
209.968	-0.39
210.187	-0.32
210.407	-0.38
210.626	-0.38
210.845	0.04
211.064	-0.03
211.283	-0.38
211.502	0.18
211.721	0.01
211.94	-0.44
212.159	0.17
212.377	0.11
212.596	0.36
212.815	0.16
213.034	0.06
213.253	0.25
213.472	0.19
213.691	-0.15
213.91	-0.37
214.128	-0.01
214.347	0.19
214.566	-0.37
214.785	-0.37
215.003	-0.14
215.222	-0.09
215.441	0
215.66	-0.39
215.878	-0.22
216.097	0.26
216.316	-0.29
216.534	-0.15
216.753	-0.2
216.972	-0.13
217.19	0.03
217.409	-0.1
217.627	-0.1
217.846	-0.02
218.064	0
218.283	-0.19
218.501	0.33
218.72	0.19
218.938	-0.23
219.157	-0.23
219.375	0.14
219.594	-0.3
219.812	-0.2
220.031	-0.25
220.249	0.13
220.467	0.15
220.686	0.11
220.904	-0.19
221.122	-0.29
221.341	0.13
221.559	-0.04
221.777	-0.15
221.995	-0.01
222.214	0.06
222.432	-0.23
222.65	0.06
222.868	-0.04
223.086	0.08
223.305	0.03
223.523	-0.09
223.741	0.24
223.959	-0.26
224.177	-0.23
224.395	-0.13
224.613	0.11
224.831	0.16
225.049	-0.21
225.267	-0.12
225.485	0.09
225.703	-0.1
225.921	-0.13
226.139	-0.08
226.357	0.13
226.575	-0.02
226.793	-0.08
227.011	0.26
227.229	0.04
227.447	0.07
227.665	-0.12
227.883	-0.31
228.1	0.03
228.318	-0.02
228.536	-0.23
228.754	-0.24
228.972	-0.12
229.189	0.06
229.407	-0.13
229.625	-0.04
229.843	0.02
230.06	0.07
230.278	-0.05
230.496	-0.06
230.713	0.03
230.931	0.11
231.149	-0.05
231.366	-0.15
231.584	0.01
231.801	0.15
232.019	-0.02
232.236	-0.12
232.454	-0.09
232.671	-0
232.889	-0.02
233.106	-0.07
233.324	-0.06
233.541	-0.09
233.759	-0.05
233.976	-0.03
234.194	-0.07
234.411	-0.03
234.628	-0.02
234.846	-0.11
235.063	-0.1
235.28	-0.02
235.498	-0.12
235.715	-0.09
235.932	0.09
236.149	0.01
236.367	-0.13
236.584	-0.07
236.801	-0.08
237.018	0.04
237.236	0.01
237.453	-0.17
237.67	0.05
237.887	0.01
238.104	-0.06
238.321	-0.09
238.538	-0.09
238.755	0.09
238.973	-0.13
239.19	-0
239.407	-0.03
239.624	-0.02
239.841	-0.17
240.058	-0.1
240.275	0.08
240.492	-0.02
240.709	-0.02
240.925	0
241.142	0
241.359	-0.1
241.576	-0.08
241.793	0.01
242.01	0
242.227	0.05
242.444	0.04
242.66	0.03
242.877	0.01
243.094	-0.08
243.311	0.07
243.527	0.02
243.744	0.02
243.961	-0.02
244.178	-0.13
244.394	-0.04
244.611	0.02
244.828	0.11
245.044	-0.16
245.261	0.01
245.477	-0.05
245.694	0.06
245.911	-0.07
246.127	0.05
246.344	0.11
246.56	0.04
246.777	-0.09
246.993	-0.09
247.21	0
247.426	-0.01
247.643	-0.01
247.859	-0.11
248.076	-0.09
248.292	0.16
248.508	-0.11
248.725	0.02
248.941	0.04
249.157	0.08
249.374	0.01
249.59	-0.05
249.806	-0.03
250.023	0.06
250.239	-0.08
250.455	-0.12
250.671	-0.13
250.888	-0
251.104	-0.01
251.32	-0.02
251.536	-0.06
251.752	-0.01
251.969	-0.01
252.185	-0.01
252.401	0.16
252.617	-0.07
252.833	-0.02
253.049	-0.06
253.265	-0.05
253.481	0.02
253.697	-0.08
253.913	-0.11
254.129	-0.05
254.345	0.01
254.561	-0.08
254.777	0.03
254.993	0.02
255.209	-0
255.425	-0.09
255.641	-0.03
255.857	0.03
256.073	0.02
256.288	-0.08
256.504	-0.05
256.72	0.03
256.936	0.11
257.152	-0.04
257.367	-0.08
257.583	0.04
257.799	0.07
258.015	-0.11
258.23	-0.05
258.446	0.08
258.662	-0.04
258.877	-0.01
259.093	-0.06
259.309	-0.05
259.524	0.01
259.74	-0.01
259.955	-0.11
260.171	-0.02
260.387	-0.02
260.602	0.01
260.818	0.06
261.033	-0.14
261.249	-0.08
261.464	-0.01
261.68	-0.06
261.895	-0.01
262.11	0.11
262.326	-0.07
262.541	-0.11
262.757	0.01
262.972	0.03
263.187	0.02
263.403	-0.05
263.618	0.04
263.833	-0.03
264.049	-0.09
264.264	0.03
264.479	0.01
264.694	0.02
264.91	-0.08
265.125	-0.03
265.34	0.06
265.555	0.13
265.77	0.01
265.986	-0.03
266.201	0.05
266.416	0.05
266.631	-0.08
266.846	0.02
267.061	-0.06
267.276	0.04
267.491	-0.1
267.706	0.04
267.921	0.02
268.136	-0
268.351	-0.04
268.566	-0.07
268.781	0.1
268.996	0.05
269.211	-0.04
269.426	-0.06
269.641	-0.1
269.856	0.07
270.071	-0.1
270.285	-0.11
270.5	0.04
270.715	0.06
270.93	-0.03
271.145	0.03
271.359	0.05
271.574	-0.07
271.789	-0.02
272.004	-0.1
272.218	0.01
272.433	0.05
272.648	-0.05
272.862	0.06
273.077	0
273.292	-0.01
273.506	-0.03
273.721	0
273.936	0.02
274.15	0.1
274.365	0.01
274.579	0.07
274.794	0.06
275.008	0.03
275.223	-0.08
275.437	-0.01
275.652	0.02
275.866	0.02
276.081	-0
276.295	0.05
276.509	0.02
276.724	-0.01
276.938	0.01
277.153	0.01
277.367	0.02
277.581	-0.05
277.796	-0.03
278.01	-0.04
278.224	0.09
278.438	0.08
278.653	-0.02
278.867	-0.01
279.081	-0.21
279.295	-0.05
279.51	0.01
279.724	-0.07
279.938	0.04
280.152	-0.01
280.366	-0.06
280.58	0.03
280.794	0.1
281.008	-0.02
281.222	0.04
281.437	0.09
281.651	-0.01
281.865	0.05
282.079	-0.03
282.293	-0.09
282.507	-0.04
282.721	-0.08
282.935	0
283.148	-0.08
283.362	-0.02
283.576	-0.05
283.79	0.01
284.004	-0.07
284.218	0.04
284.432	-0.05
284.646	0.02
284.859	-0.03
285.073	-0.02
285.287	0.05
285.501	0
285.714	-0.04
285.928	-0.01
286.142	-0.02
286.356	0.01
286.569	-0.01
286.783	0.12
286.997	0.04
287.21	-0.01
287.424	0.03
287.637	-0.02
287.851	-0
288.065	0.02
288.278	0.02
288.492	0.04
288.705	-0.01
288.919	0.08
289.132	-0.04
289.346	0.06
289.559	-0.07
289.773	-0.11
289.986	-0.04
290.2	-0.02
290.413	0.01
290.626	-0.07
290.84	-0.02
291.053	0.02
291.267	0.1
291.48	-0.02
291.693	-0.03
291.906	-0.07
292.12	-0.05
292.333	-0.04
292.546	-0.01
292.76	0.07
292.973	-0.02
293.186	-0.02
293.399	-0.01
293.612	0.02
293.826	-0
294.039	-0.03
294.252	-0.04
294.465	0.06
294.678	-0
294.891	0.01
295.104	-0.01
295.317	0.01
295.53	0.01
295.743	-0.01
295.956	0.01
296.169	0.03
296.382	0.03
296.595	-0.04
296.808	-0.05
297.021	0.05
297.234	0.04
297.447	0.01
297.66	-0.02
297.873	0.04
298.086	0
298.299	-0.07
298.511	-0.06
298.724	0.01
298.937	-0.04
299.15	-0.04
299.363	0.04
299.575	0.02
299.788	0.03
300.001	-0
300.213	-0.07
300.426	-0.02
300.639	0.01
300.852	-0.03
301.064	0.05
301.277	0.01
301.489	0.02
301.702	0.02
301.915	-0
302.127	0.04
302.34	0.02
302.552	0
302.765	-0.04
302.977	0.01
303.19	-0.03
303.402	-0.02
303.615	0
303.827	-0.01
304.04	-0.03
304.252	0.03
304.464	-0.01
304.677	0.12
304.889	-0.01
305.102	-0.05
305.314	-0.04
305.526	0.04
305.739	0.01
305.951	-0.08
306.163	-0.03
306.375	0.05
306.588	-0.03
306.8	-0.07
307.012	-0.04
307.224	-0.02
307.436	0.07
307.649	-0.05
307.861	0.02
308.073	0.02
308.285	-0.02
308.497	-0.05
308.709	-0.04
308.921	-0.01
309.133	0.05
309.346	-0.04
309.558	-0.03
309.77	0
309.982	0.07
310.194	0.07
310.406	-0.03
310.617	0.06
310.829	0.02
311.041	0.05
311.253	-0.04
311.465	-0.02
311.677	0.03
311.889	-0
312.101	-0.03
312.313	-0.01
312.524	0.03
312.736	-0.06
312.948	-0.03
313.16	0.11
313.372	0.01
313.583	0.02
313.795	0.01
314.007	0.01
314.218	0.03
314.43	-0.01
314.642	-0.06
314.853	-0.05
315.065	0.02
315.277	-0.01
315.488	0.02
315.7	0.08
315.912	0.05
316.123	0
316.335	-0.01
316.546	0.08
316.758	-0.03
316.969	-0
317.181	0.02
317.392	0.01
317.604	0.02
317.815	-0.06
318.026	0
318.238	-0.01
318.449	0.05
318.661	-0.05
318.872	-0.08
319.083	-0.05
319.295	0.02
319.506	-0.03
319.717	0.03
319.929	-0.02
320.14	-0.02
320.351	0
320.562	-0.03
320.774	-0.02
320.985	-0
321.196	-0.08
321.407	-0.08
321.618	0.02
321.829	-0.03
322.041	0.02
322.252	0.04
322.463	0.03
322.674	-0
322.885	-0.03
323.096	-0.02
323.307	-0.02
323.518	0.04
323.729	-0.04
323.94	0.03
324.151	-0
324.362	0.01
324.573	0
324.784	-0.01
324.995	0.04
325.206	0.02
325.417	-0.03
325.628	-0.02
325.838	0
326.049	-0
326.26	0.03
326.471	-0.02
326.682	0.03
326.892	-0.02
327.103	-0.06
327.314	-0.06
327.525	0.04
327.735	-0.05
327.946	-0.06
328.157	-0.02
328.368	-0.01
328.578	-0.01
328.789	0.01
328.999	-0.02
329.21	-0.01
329.421	0.04
329.631	-0.02
329.842	-0.06
330.052	0.01
330.263	0.03
330.473	-0.02
330.684	-0.01
330.894	-0.03
331.105	0.07
331.315	-0
331.526	-0.08
331.736	0.06
331.947	0.01
332.157	0.02
332.367	-0.03
332.578	0.05
332.788	0.05
332.999	0.02
333.209	0.02
333.419	-0.03
333.629	0.01
333.84	0.05
334.05	-0.03
334.26	0.05
334.47	-0.03
334.681	0.03
334.891	-0.02
335.101	-0
335.311	0.12
335.521	0.04
335.732	-0.05
335.942	0.03
336.152	0
336.362	0.04
336.572	0
336.782	0.04
336.992	0.03
337.202	-0.05
337.412	-0.05
337.622	0.02
337.832	0.02
338.042	0.02
338.252	-0.03
338.462	0.01
338.672	0.04
338.882	-0.02
339.092	-0.03
339.302	0.05
339.511	0.03
339.721	0.01
339.931	-0.08
340.141	0.06
340.351	0.07
340.561	-0.01
340.77	0.03
340.98	0
341.19	0.02
341.4	-0.01
341.609	-0.07
341.819	-0.02
342.029	-0.06
342.238	0.02
342.448	-0
342.658	0.02
342.867	0.03
343.077	0.04
343.286	0.03
343.496	0.04
343.706	0.02
343.915	-0.07
344.125	0.01
344.334	-0.01
344.544	-0.1
344.753	-0.03
344.963	-0
345.172	-0.04
345.381	-0.02
345.591	-0.05
345.8	0.01
346.01	0.03
346.219	0.05
346.428	-0.12
346.638	0.04
346.847	0.04
347.056	0.08
347.266	-0
347.475	0.03
347.684	0.02
347.893	0.01
348.103	0.05
348.312	-0.05
348.521	-0.02
348.73	-0
348.94	0.01
349.149	-0.05
349.358	-0.01
349.567	-0.03
349.776	-0.04
349.985	-0.01
350.194	0.04
350.403	0.03
350.612	-0.03
350.821	0
351.03	0.02
351.239	0.01
351.448	0.02
351.657	-0.01
351.866	0.07
352.075	-0.01
352.284	0.06
352.493	-0.03
352.702	0.09
352.911	0.07
353.12	0.04
353.329	-0.01
353.538	0.01
353.746	-0
353.955	-0.01
354.164	-0.01
354.373	0.02
354.582	0.03
354.79	0
354.999	0.06
355.208	-0.01
355.416	0.04
355.625	-0.02
355.834	-0.01
356.042	0.05
356.251	-0.02
356.46	-0.06
356.668	-0.01
356.877	0.07
357.085	0.05
357.294	-0.09
357.503	0.04
357.711	-0.01
357.92	0.08
358.128	0.02
358.337	0
358.545	-0.01
358.754	-0
358.962	0.07
359.17	0.02
359.379	0.02
359.587	0.07
359.796	0.02
360.004	0.04
360.212	0.03
360.421	0.04
360.629	-0.02
360.837	0.01
361.046	-0
361.254	0.09
361.462	0.01
361.67	0.01
361.879	0.07
362.087	0.09
362.295	0.04
362.503	0.01
362.711	-0.04
362.92	-0.02
363.128	-0.01
363.336	-0.03
363.544	-0.06
363.752	-0.02
363.96	-0.01
364.168	-0.01
364.376	0.05
364.584	0.02
364.792	0.02
365	0.05
365.208	0.02
365.416	0.03
365.624	0.08
365.832	-0.01
366.04	0.07
366.248	0
366.456	0.04
366.664	0.04
366.872	0.01
367.079	-0
367.287	0.04
367.495	0.05
367.703	0.04
367.911	0.04
368.118	0.05
368.326	0.06
368.534	0.02
368.742	0.13
368.949	0.04
369.157	0.07
369.365	0.17
369.572	0.13
369.78	0.06
369.988	0.17
370.195	0.15
370.403	0.2
370.61	0.16
370.818	0.19
371.026	0.25
371.233	0.23
371.441	0.28
371.648	0.27
371.856	0.32
372.063	0.29
372.271	0.38
372.478	0.39
372.685	0.37
372.893	0.49
373.1	0.41
373.308	0.46
373.515	0.64
373.722	0.59
373.93	0.59
374.137	0.66
374.344	0.77
374.552	0.74
374.759	0.73
374.966	0.86
375.173	0.88
375.381	0.95
375.588	0.95
375.795	0.93
376.002	1.01
376.209	1.02
376.417	1.11
376.624	1.22
376.831	1.31
377.038	1.31
377.245	1.33
377.452	1.48
377.659	1.54
377.866	1.57
378.073	1.67
378.28	1.81
378.487	1.89
378.694	1.89
378.901	2.03
379.108	2.09
379.315	2.23
379.522	2.39
379.729	2.43
379.936	2.43
380.143	2.64
380.35	2.71
380.557	2.86
380.763	2.87
380.97	2.97
381.177	3.06
381.384	3.24
381.591	3.36
381.797	3.33
382.004	3.47
382.211	3.64
382.418	3.68
382.624	3.83
382.831	3.81
383.038	3.9
383.244	3.91
383.451	3.87
383.658	3.86
383.864	3.95
384.071	3.87
384.277	3.95
384.484	3.85
384.69	3.81
384.897	3.71
385.103	3.71
385.31	3.64
385.516	3.48
385.723	3.38
385.929	3.29
386.136	3.07
386.342	3.08
386.549	2.96
386.755	2.93
386.961	2.86
387.168	2.66
387.374	2.49
387.58	2.56
387.787	2.38
387.993	2.3
388.199	2.16
388.406	2.07
388.612	1.95
388.818	1.9
389.024	1.8
389.231	1.76
389.437	1.83
389.643	1.7
389.849	1.6
390.055	1.56
390.261	1.49
390.467	1.48
390.674	1.36
390.88	1.37
391.086	1.31
391.292	1.3
391.498	1.34
391.704	1.26
391.91	1.16
392.116	1.08
392.322	0.98
392.528	1.08
392.734	0.98
392.94	0.99
393.146	0.98
393.352	0.94
393.557	0.88
393.763	0.92
393.969	0.9
394.175	0.82
394.381	0.76
394.587	0.76
394.792	0.76
394.998	0.73
395.204	0.77
395.41	0.64
395.615	0.7
395.821	0.61
396.027	0.63
396.233	0.6
396.438	0.57
396.644	0.63
396.85	0.55
397.055	0.56
397.261	0.52
397.466	0.57
397.672	0.47
397.878	0.45
398.083	0.48
398.289	0.36
398.494	0.46
398.7	0.39
398.905	0.31
399.111	0.36
399.316	0.3
399.522	0.29
399.727	0.28
399.932	0.25
400.138	0.28
400.343	0.33
400.549	0.29
400.754	0.28
400.959	0.3
401.165	0.27
401.37	0.32
401.575	0.34
401.78	0.29
401.986	0.21
402.191	0.23
402.396	0.24
402.601	0.25
402.807	0.22
403.012	0.17
403.217	0.28
403.422	0.18
403.627	0.25
403.832	0.2
404.037	0.2
404.243	0.2
404.448	0.19
404.653	0.2
404.858	0.2
405.063	0.2
405.268	0.13
405.473	0.16
405.678	0.12
405.883	0.3
406.088	0.2
406.293	0.11
406.498	0.11
406.703	0.21
406.907	0.16
407.112	0.11
407.317	0.13
407.522	0.18
407.727	0.1
407.932	0.09
408.136	0.23
408.341	0.15
408.546	0.14
408.751	0.11
408.956	0.16
409.16	0.13
409.365	0.11
409.57	0.1
409.774	0.14
409.979	0.12
410.184	0.14
410.388	0.08
410.593	0.17
410.798	0.1
411.002	0.1
411.207	0.12
411.411	0.14
411.616	0.11
411.82	0.06
412.025	0.09
412.229	0.04
412.434	0.11
412.638	0.1
412.843	0.1
413.047	0.06
413.252	0.01
413.456	0.07
413.66	0.09
413.865	0.05
414.069	0.16
414.273	0.06
414.478	0.05
414.682	0.05
414.886	0.03
415.091	0.02
415.295	-0.01
415.499	0.09
415.703	0.04
415.908	0.08
416.112	-0
416.316	0.04
416.52	0.01
416.724	-0.02
416.929	0.02
417.133	0.13
417.337	0.04
417.541	0.01
417.745	0.04
417.949	0.06
418.153	0.11
418.357	0.06
418.561	0.13
418.765	0.04
418.969	0.13
419.173	0.09
419.377	0.03
419.581	0.1
419.785	0.03
419.989	-0.04
420.193	0.06
420.397	0.06
420.601	0.08
420.804	0.14
421.008	0.05
421.212	0.05
421.416	0.08
421.62	0.02
421.823	0.03
422.027	0.13
422.231	0.04
422.435	0.04
422.638	0.05
422.842	0.05
423.046	-0.02
423.249	0.08
423.453	0.12
423.657	0.06
423.86	0.04
424.064	0.04
424.268	0.08
424.471	0.05
424.675	0.1
424.878	0.11
425.082	0.07
425.285	0.09
425.489	-0.01
425.692	0.09
425.896	-0.01
426.099	0.04
426.303	-0.02
426.506	-0.02
426.71	0.08
426.913	0.12
427.116	0.08
427.32	0.08
427.523	0.02
427.726	0.07
427.93	0.01
428.133	0.04
428.336	-0
428.54	0.05
428.743	0.03
428.946	0.09
429.149	-0
429.353	0
429.556	0.03
429.759	0.05
429.962	-0.01
430.165	0.05
430.368	0.06
430.571	0.06
430.775	0.1
430.978	0.04
431.181	0.04
431.384	0.1
431.587	0.04
431.79	0.04
431.993	0.08
432.196	-0.03
432.399	0.01
432.602	0.12
432.805	0.03
433.008	0.04
433.211	-0.02
433.414	0.08
433.616	0.07
433.819	0.03
434.022	0.04
434.225	0.09
434.428	0.03
434.631	0.13
434.833	0.02
435.036	0.07
435.239	0.08
435.442	0.02
435.645	0.06
435.847	0.03
436.05	0.13
436.253	0.09
436.455	0.02
436.658	0.07
436.861	0.12
437.063	0.05
437.266	0.04
437.468	0.02
437.671	0.15
437.874	0.05
438.076	0.03
438.279	0.01
438.481	0.05
438.684	0.01
438.886	0.08
439.089	-0.01
439.291	0.04
439.494	0.07
439.696	0.03
439.899	0.05
440.101	0.05
440.303	0.02
440.506	0.11
440.708	0.06
440.91	0.08
441.113	-0.04
441.315	0.1
441.517	0.03
441.72	0.11
441.922	0.02
442.124	0.06
442.326	0.1
442.529	0.17
442.731	0.07
442.933	0.15
443.135	0.03
443.337	0.02
443.539	0.04
443.742	0.06
443.944	0.04
444.146	0.06
444.348	0.05
444.55	0.03
444.752	0.03
444.954	-0.01
445.156	0.05
445.358	0.06
445.56	0.15
445.762	0.07
445.964	0.07
446.166	0.07
446.368	0.06
446.57	0.1
446.772	0.04
446.974	0.07
447.175	0.12
447.377	0.05
447.579	0.06
447.781	0.06
447.983	0.14
448.184	0.07
448.386	0.13
448.588	-0.03
448.79	0.1
448.991	0.05
449.193	0.08
449.395	0.07
449.597	0.11
449.798	0.1
450	0.11
450.202	0.1
450.403	0.08
450.605	0.1
450.806	0.08
451.008	-0.01
451.21	0.04
451.411	0.1
451.613	0.08
451.814	0.12
452.016	0.15
452.217	0.04
452.419	0.11
452.62	0.07
452.821	0.1
453.023	0.15
453.224	0.11
453.426	0.05
453.627	0.07
453.828	0.08
454.03	0.08
454.231	0.12
454.432	-0
454.634	0.13
454.835	0.05
455.036	0.01
455.238	0.09
455.439	0.13
455.64	0.03
455.841	-0
456.042	0.07
456.244	0.06
456.445	0.03
456.646	-0
456.847	0.05
457.048	0.16
457.249	0.08
457.45	0.21
457.651	-0.04
457.852	0.07
458.054	0.13
458.255	0.06
458.456	0.06
458.657	0.05
458.858	-0.01
459.058	-0.03
459.259	0.08
459.46	0.04
459.661	0.02
459.862	0.13
460.063	0.02
460.264	0.13
460.465	-0
460.666	0.13
460.866	0.06
461.067	0.04
461.268	0.05
461.469	0
461.67	-0.01
461.87	0
462.071	0.01
462.272	-0.02
462.473	0.01
462.673	0.08
462.874	-0.02
463.075	0.06
463.275	-0.02
463.476	0.06
463.676	0.02
463.877	0.05
464.078	-0.01
464.278	0.07
464.479	-0.01
464.679	0.02
464.88	0.04
465.08	0.14
465.281	-0.02
465.481	-0.01
465.682	0.07
465.882	0.04
466.083	0.02
466.283	0
466.483	0.03
466.684	0
466.884	0.02
467.085	0.06
467.285	0.07
467.485	-0.02
467.686	0.01
467.886	-0.02
468.086	-0.01
468.286	-0
468.487	0.03
468.687	0.01
468.887	0.01
469.087	0.02
469.287	-0.02
469.488	-0.08
469.688	-0.01
469.888	0.07
470.088	0.11
470.288	0.09
470.488	0.07
470.688	-0.01
470.888	-0.03
471.088	0.04
471.288	0.03
471.488	0.02
471.688	0.04
471.888	0.03
472.088	0.07
472.288	0.04
472.488	-0.03
472.688	-0.01
472.888	0.04
473.088	0.04
473.288	0.01
473.488	0.05
473.688	0.09
473.887	-0.01
474.087	0
474.287	0.03
474.487	-0.01
474.687	0.03
474.886	0.01
475.086	0
475.286	0.04
475.486	0.01
475.685	0.01
475.885	-0.04
476.085	0.01
476.284	0.05
476.484	-0.02
476.684	0.03
476.883	0.08
477.083	0.02
477.282	-0.01
477.482	0.09
477.681	0.06
477.881	0.04
478.08	0.01
478.28	-0
478.479	0.03
478.679	0.07
478.878	0
479.078	-0.01
479.277	0.02
479.477	0.01
479.676	0.03
479.875	0.01
480.075	-0.06
480.274	0.04
480.473	-0
480.673	-0.03
480.872	0.03
481.071	0.03
481.271	0.02
481.47	0.01
481.669	-0.01
481.868	-0.02
482.067	-0.02
482.267	-0.01
482.466	0.01
482.665	-0.02
482.864	-0.03
483.063	-0.02
483.262	0.03
483.461	0.07
483.661	0.04
483.86	0.01
484.059	-0.01
484.258	-0.01
484.457	0.01
484.656	0.01
484.855	0.05
485.054	-0.05
485.253	-0.02
485.452	-0.03
485.651	0.03
485.849	0.01
486.048	-0
486.247	-0.02
486.446	0.01
486.645	-0.02
486.844	-0.01
487.043	-0
487.241	-0.01
487.44	0.01
487.639	0
487.838	0.05
488.037	0.02
488.235	0.05
488.434	-0.02
488.633	-0.02
488.831	0.02
489.03	0.03
489.229	0.03
489.427	-0.01
489.626	0.06
489.825	0.05
490.023	-0.02
490.222	-0.03
490.42	0.01
490.619	0.04
490.817	0.01
491.016	0
491.214	0.03
491.413	-0
491.611	-0
491.81	-0.01
492.008	0.02
492.207	0.02
492.405	0.01
492.604	-0.05
492.802	-0
493	0.01
493.199	0.01
493.397	0.04
493.595	0.01
493.794	0
493.992	0.06
494.19	-0.04
494.388	0.01
494.587	-0.02
494.785	0.01
494.983	-0.03
495.181	0.02
495.379	-0
495.578	0.01
495.776	0.03
495.974	0.01
496.172	0
496.37	-0
496.568	-0.02
496.766	-0.02
496.964	0.01
497.162	0.02
497.36	-0.02
497.558	0.02
497.756	0.02
497.954	0
498.152	-0.03
498.35	-0
498.548	-0
498.746	-0
498.944	-0.03
499.142	-0
499.34	-0.01
499.538	0
499.736	-0.02
499.933	0.05
500.131	0.05
500.329	0.01
500.527	0.03
500.725	0.04
500.922	0.02
501.12	0.02
501.318	0
501.516	-0
501.713	0.04
501.911	-0
502.109	-0.03
502.306	0.03
502.504	-0.02
502.701	-0
502.899	-0
503.097	0.04
503.294	0.01
503.492	0
503.689	-0
503.887	0.02
504.084	0.03
504.282	0.01
504.479	-0.03
504.677	-0.01
504.874	-0.03
505.072	0.01
505.269	-0.02
505.466	0.02
505.664	0.01
505.861	-0.04
506.059	-0.02
506.256	0.01
506.453	-0
506.651	0.05
506.848	0.01
507.045	0.01
507.242	-0.01
507.44	-0.02
507.637	0
507.834	-0.01
508.031	0.03
508.229	-0
508.426	0.01
508.623	0.02
508.82	-0
509.017	-0.02
509.214	-0.01
509.411	-0.01
509.608	-0.01
509.805	-0
510.003	0
510.2	-0
510.397	0.02
510.594	-0.03
510.791	-0.01
510.988	0.02
511.184	0.02
511.381	0.01
511.578	-0.03
511.775	0.03
511.972	-0.01
512.169	-0.01
512.366	0.01
512.563	0.03
512.76	0.01
512.956	0.02
513.153	-0
513.35	0.02
513.547	-0
513.744	-0
513.94	-0.02
514.137	0.01
514.334	0
514.53	-0
514.727	0.02
514.924	0.04
515.12	-0.02
515.317	-0.03
515.514	-0.02
515.71	-0.01
515.907	-0.01
516.103	-0.01
516.3	0.02
516.497	0.03
516.693	0
516.89	0
517.086	-0.02
517.283	0.02
517.479	0.02
517.676	-0.01
517.872	-0.01
518.068	-0.02
518.265	-0.02
518.461	-0.02
518.658	-0.02
518.854	0
519.05	-0.02
519.247	-0.01
519.443	-0
519.639	-0
519.836	0.01
520.032	-0.01
520.228	0.02
520.424	0.06
520.621	0.01
520.817	-0
521.013	0.02
521.209	0.01
521.405	0.03
521.601	-0
521.798	0
521.994	0.02
522.19	-0
522.386	-0.02
522.582	-0.01
522.778	0.02
522.974	-0.01
523.17	0.01
523.366	0
523.562	0.03
523.758	-0.01
523.954	0.01
524.15	-0.04
524.346	0.01
524.542	-0.01
524.738	-0.01
524.934	-0.01
525.129	0.01
525.325	0.02
525.521	-0.01
525.717	0
525.913	0.01
526.109	0.01
526.304	0.01
526.5	0.01
526.696	0
526.892	-0
527.087	-0.02
527.283	-0.01
527.479	0.02
527.674	0
527.87	-0.01
528.066	-0
528.261	0
528.457	0.03
528.653	-0
528.848	-0.01
529.044	0.02
529.239	-0
529.435	0.01
529.63	-0
529.826	0.04
530.021	0.04
530.217	0
530.412	-0.01
530.608	-0.01
530.803	-0
530.999	-0.01
531.194	-0.03
531.389	0
531.585	-0.04
531.78	-0
531.975	-0
532.171	-0
532.366	-0.03
532.561	-0.01
532.757	0.01
532.952	-0.02
533.147	0.02
533.342	0.01
533.538	-0.01
533.733	0.04
533.928	0.01
534.123	-0.01
534.318	-0.03
534.513	-0
534.709	0
534.904	-0.02
535.099	-0.02
535.294	0
535.489	0
535.684	-0.01
535.879	-0.03
536.074	0.02
536.269	-0.02
536.464	0.02
536.659	0.01
536.854	-0.01
537.049	-0
537.244	0.02
537.439	-0.01
537.634	0.04
537.828	0.01
538.023	0.01
538.218	-0.04
538.413	-0.02
538.608	-0.02
538.803	0.03
538.997	-0.02
539.192	0.02
539.387	-0.01
539.582	0
539.776	0.03
539.971	-0.02
540.166	-0
540.36	-0.04
540.555	0.01
540.75	-0.01
540.944	-0.01
541.139	-0.03
541.334	0.01
541.528	-0
541.723	0.03
541.917	-0.02
542.112	-0.02
542.306	-0.01
542.501	0
542.695	0.01
542.89	-0.01
543.084	-0.01
543.279	-0.03
543.473	-0.01
543.668	-0.03
543.862	0.01
544.056	0
544.251	-0
544.445	-0
544.64	-0.01
544.834	-0.05
545.028	-0.02
545.222	0
545.417	0.01
545.611	0.01
545.805	0.01
546	-0.01
546.194	-0.01
546.388	-0
546.582	0.03
546.776	-0
546.97	0
547.165	0.01
547.359	0.03
547.553	-0.01
547.747	-0.01
547.941	0.01
548.135	0
548.329	0.02
548.523	0.01
548.717	-0
548.911	-0
549.105	-0
549.299	-0
549.493	0.03
549.687	0.01
549.881	0.01
550.075	-0.01
550.269	-0.02
550.463	0.02
550.657	-0.01
550.85	0
551.044	-0.02
551.238	0.02
551.432	0
551.626	-0.01
551.82	0.02
552.013	-0.02
552.207	-0
552.401	0.01
552.594	-0.02
552.788	-0.01
552.982	0
553.176	-0.02
553.369	0.04
553.563	0.01
553.756	-0.03
553.95	-0.01
554.144	0.01
554.337	0.02
554.531	0
554.724	-0
554.918	-0.02
555.111	0.01
555.305	-0.02
555.498	0.04
555.692	0.01
555.885	-0.01
556.079	0.01
556.272	-0.01
556.466	0.03
556.659	0
556.852	-0.01
557.046	-0.02
557.239	0.04
557.432	-0.03
557.626	-0.01
557.819	0.01
558.012	0.01
558.206	-0.01
558.399	0
558.592	0
558.785	-0.01
558.979	0.03
559.172	0
559.365	0
559.558	0.02
559.751	0
559.944	0.04
560.138	-0.02
560.331	0
560.524	0.01
560.717	-0
560.91	-0
561.103	0.03
561.296	0
561.489	0.01
561.682	0.01
561.875	0.02
562.068	-0.01
562.261	0.02
562.454	0.05
562.647	0.01
562.84	0.03
563.032	-0
563.225	0.01
563.418	0
563.611	-0
563.804	-0
563.997	-0.03
564.19	-0.03
564.382	-0
564.575	-0.02
564.768	0
564.961	0
565.153	-0.01
565.346	0.01
565.539	0.02
565.731	-0
565.924	0.02
566.117	0
566.309	0.02
566.502	-0.02
566.695	-0
566.887	0.01
567.08	-0.03
567.272	-0.03
567.465	-0.01
567.657	0.02
567.85	0.01
568.042	0.02
568.235	0.04
568.427	0.02
568.62	0.02
568.812	0.01
569.005	0
569.197	-0.03
569.389	0.02
569.582	-0
569.774	0
569.966	-0.04
570.159	-0.03
570.351	0.01
570.543	-0.03
570.736	-0
570.928	-0.03
571.12	0
571.312	-0.02
571.505	-0.03
571.697	0.02
571.889	-0.02
572.081	0
572.273	-0.01
572.465	0.03
572.658	-0.02
572.85	0.02
573.042	-0.01
573.234	-0.01
573.426	0.03
573.618	-0.04
573.81	0.02
574.002	0.04
574.194	0.02
574.386	-0.02
574.578	-0.07
574.77	-0.03
574.962	-0.01
575.154	-0.03
575.346	0.02
575.538	0.01
575.729	-0.02
575.921	-0.02
576.113	0
576.305	0
576.497	-0.03
576.689	-0.01
576.88	-0.01
577.072	0.02
577.264	0.01
577.456	-0
577.647	-0.05
577.839	0.01
578.031	0.04
578.223	-0.02
578.414	-0.05
578.606	0.01
578.798	0.01
578.989	-0.02
579.181	-0.01
579.372	-0
579.564	-0
579.755	0.01
579.947	0
580.139	0.01
580.33	-0.04
580.522	-0
580.713	-0.07
580.905	0.01
581.096	0.02
581.287	-0.01
581.479	-0
581.67	0.02
581.862	-0.01
582.053	-0.02
582.244	-0.05
582.436	0
582.627	0
582.818	-0.02
583.01	-0.04
583.201	-0
583.392	-0.01
583.583	-0.01
583.775	-0
583.966	-0.02
584.157	-0.01
584.348	-0.02
584.54	-0.01
584.731	0.01
584.922	-0.02
585.113	-0.02
585.304	0.04
585.495	0.01
585.686	-0.01
585.877	0.03
586.068	0.01
586.259	0.02
586.45	0.01
586.641	-0.02
586.832	-0.06
587.023	-0
587.214	-0.01
587.405	0.01
587.596	-0.03
587.787	0.01
587.978	-0.02
588.169	-0.01
588.36	-0.04
588.551	-0.01
588.742	-0.01
588.932	-0.02
589.123	-0.01
589.314	0.03
589.505	-0.01
589.696	0.02
589.886	-0.02
590.077	-0.04
590.268	0.01
590.458	-0.02
590.649	-0.03
590.84	0.01
591.03	-0.03
591.221	-0.05
591.412	-0.04
591.602	0.02
591.793	0.01
591.984	-0.02
592.174	0.01
592.365	0.03
592.555	-0.02
592.746	0.03
592.936	0
593.127	0.02
593.317	0.03
593.508	-0.02
593.698	-0.01
593.889	0.01
594.079	0.02
594.269	-0.01
594.46	-0.01
594.65	-0.02
594.84	-0.01
595.031	-0.03
595.221	-0.01
595.411	-0.04
595.602	-0.02
595.792	0
595.982	-0
596.172	0.05
596.363	-0.01
596.553	-0
596.743	-0.01
596.933	-0.02
597.123	0.02
597.314	-0.04
597.504	-0.02
597.694	0.04
597.884	0.02
598.074	-0.02
598.264	-0.03
598.454	0.03
598.644	-0.01
598.834	0.01
599.024	-0.05
599.214	-0
599.404	0.04
599.594	-0.04
599.784	-0.03
599.974	0.04
600.164	0.03
600.354	-0.02
600.544	-0.05
600.734	-0.01
600.924	0.01
601.114	-0.02
601.303	-0.01
601.493	-0.02
601.683	-0
601.873	0
602.063	-0.06
602.252	0.01
602.442	-0.06
602.632	-0.04
602.821	-0.05
603.011	0.02
603.201	-0.02
603.39	-0.04
603.58	-0.02
603.77	0.01
603.959	0.04
604.149	-0.01
604.339	-0.02
604.528	0.01
604.718	0
604.907	-0.01
605.097	-0.03
605.286	-0.02
605.476	0
605.665	0.01
605.855	-0.01
606.044	0.02
606.234	-0.01
606.423	-0.01
606.612	-0.04
606.802	-0
606.991	0.01
607.181	0.01
607.37	-0.04
607.559	-0
607.749	-0.06
607.938	-0.01
608.127	-0.02
608.316	-0.04
608.506	0.01
608.695	-0.01
608.884	-0.03
609.073	0.01
609.263	-0.02
609.452	0.01
609.641	0.02
609.83	-0.04
610.019	-0.03
610.208	-0.03
610.397	-0.02
610.586	-0
610.775	-0
610.965	-0
611.154	-0.03
611.343	-0.02
611.532	-0.04
611.721	-0.02
611.91	-0.03
612.099	0.01
612.287	0.01
612.476	-0.05
612.665	-0.01
612.854	-0
613.043	0.02
613.232	-0.02
613.421	-0.01
613.61	-0
613.798	-0.05
613.987	0.01
614.176	-0.01
614.365	0.02
614.554	-0
614.742	0.03
614.931	-0.05
615.12	0.01
615.309	0.01
615.497	-0.01
615.686	-0.06
615.875	0.01
616.063	-0
616.252	-0.03
616.44	-0.01
616.629	-0.03
616.818	0.01
617.006	-0.02
617.195	-0.01
617.383	0.02
617.572	0.01
617.76	-0.01
617.949	0.01
618.137	0.01
618.326	0.01
618.514	-0.03
618.703	-0.03
618.891	0.04
619.079	-0.08
619.268	0.02
619.456	-0.01
619.644	0.04
619.833	-0.01
620.021	-0.02
620.209	-0.03
620.398	-0.03
620.586	0
620.774	0.05
620.962	-0.01
621.151	0.03
621.339	0.02
621.527	-0.07
621.715	-0.03
621.903	-0.03
622.092	-0.07
622.28	-0.04
622.468	-0.02
622.656	0.01
622.844	0.03
623.032	-0.02
623.22	-0.06
623.408	0.03
623.596	-0
623.784	0.01
623.972	-0.04
624.16	-0.03
624.348	0.05
624.536	-0.01
624.724	-0.01
624.912	0.02
625.1	0.05
625.288	-0.04
625.476	-0.02
625.664	0.01
625.851	-0.05
626.039	-0.03
626.227	0.01
626.415	-0
626.603	-0.07
626.79	0.01
626.978	-0.01
627.166	0.04
627.354	0
627.541	-0.01
627.729	-0.06
627.917	0.01
628.104	0.03
628.292	0.02
628.48	-0
628.667	-0
628.855	0.01
629.042	-0.01
629.23	-0.01
629.418	0
629.605	-0.02
629.793	-0.04
629.98	-0.03
630.168	-0.03
630.355	-0.02
630.543	-0.01
630.73	-0.03
630.917	0.03
631.105	0.08
631.292	-0.03
631.48	0.01
631.667	0.08
631.854	0
632.042	-0.02
632.229	-0.04
632.416	0.01
632.604	0
632.791	-0.02
632.978	0.04
633.165	0.02
633.353	0.01
633.54	0
633.727	-0.04
633.914	-0
634.101	-0.08
634.289	0.05
634.476	-0.02
634.663	-0.02
634.85	0.02
635.037	-0.03
635.224	-0.03
635.411	0.06
635.598	0.01
635.785	0
635.972	-0.01
636.159	0.03
636.346	-0.05
636.533	-0.01
636.72	0.01
636.907	0.01
637.094	-0.01
637.281	0.01
637.468	0.05
637.655	-0.01
637.842	0.02
638.029	-0.02
638.215	0.02
638.402	0.04
638.589	-0.02
638.776	-0.01
638.963	0.02
639.149	0.05
639.336	0.07
639.523	0.02
639.709	-0
639.896	0.02
640.083	0.04
640.27	0.03
640.456	-0.01
640.643	0.03
640.829	-0.02
641.016	-0
641.203	-0
641.389	0.02
641.576	0.04
641.762	0.03
641.949	-0.03
642.135	0.02
642.322	0.04
642.508	-0.02
642.695	0.03
642.881	-0
643.068	0
643.254	0.01
643.441	0.06
643.627	0
643.813	-0.02
644	0.08
644.186	-0
644.372	0.06
644.559	0.02
644.745	0.02
644.931	-0.01
645.118	0.03
645.304	0.03
645.49	0.01
645.676	-0
645.862	0.03
646.049	0.07
646.235	0.04
646.421	0.12
646.607	0.09
646.793	0
646.979	0
647.165	0.05
647.352	0.04
647.538	0.06
647.724	0.04
647.91	0.07
648.096	0.08
648.282	0.07
648.468	0
648.654	0.06
648.84	0.04
649.026	0.06
649.212	0.02
649.397	-0.02
649.583	0
649.769	0.06
649.955	0.02
650.141	0.06
650.327	0.09
650.513	0.02
650.698	0.08
650.884	0
651.07	0.05
651.256	0.07
651.442	0.05
651.627	0.03
651.813	0.05
651.999	0.06
652.184	0.08
652.37	0.02
652.556	0.06
652.741	0.12
652.927	0.02
653.113	0.09
653.298	0.09
653.484	0.04
653.669	0.04
653.855	0.05
654.04	0.05
654.226	0.1
654.412	0.04
654.597	0.03
654.782	0.09
654.968	0.11
655.153	0.06
655.339	0.06
655.524	0.06
655.71	0.11
655.895	0.07
656.08	0.09
656.266	0.15
656.451	0.11
656.636	0.09
656.822	0.09
657.007	0.03
657.192	0.07
657.378	-0
657.563	0.08
657.748	0.11
657.933	0.08
658.118	0.1
658.304	0.06
658.489	0.13
658.674	0.09
658.859	0.02
659.044	0.1
659.229	0.09
659.414	0.08
659.599	0.07
659.785	0.07
659.97	0.07
660.155	0.13
660.34	0.1
660.525	0.07
660.71	0.08
660.895	0.11
661.08	0.09
661.264	0.07
661.449	0.12
661.634	0.12
661.819	0.11
662.004	0.08
662.189	0
662.374	0.07
662.559	0.04
662.743	0.02
662.928	0.05
663.113	0.02
663.298	0.03
663.483	0.07
663.667	0.06
663.852	0.02
664.037	0.09
664.221	-0.02
664.406	0.08
664.591	0.07
664.775	0.05
664.96	0.05
665.145	0.04
665.329	0.06
665.514	0.04
665.698	0.04
665.883	0
666.068	0.07
666.252	0.04
666.437	-0
666.621	0.05
666.806	0.07
666.99	0.01
667.174	-0.03
667.359	0.09
667.543	0.03
667.728	0.03
667.912	-0.05
668.096	0.03
668.281	-0.02
668.465	-0.01
668.649	0
668.834	-0.02
669.018	0.05
669.202	-0.02
669.387	0
669.571	0.06
669.755	-0.02
669.939	-0.01
670.124	0
670.308	0.07
670.492	0.03
670.676	0.04
670.86	-0.01
671.044	-0.02
671.228	0.04
671.413	-0.06
671.597	-0.01
671.781	-0.03
671.965	-0
672.149	-0
672.333	-0.01
672.517	-0.03
672.701	0.02
672.885	-0.02
673.069	-0.05
673.253	0.02
673.437	-0.01
673.621	-0.03
673.804	0.01
673.988	0.01
674.172	-0.01
674.356	-0.04
674.54	0
674.724	0.07
674.908	0.01
675.091	0.02
675.275	0
675.459	0.03
675.643	0.07
675.826	-0.01
676.01	-0
676.194	-0.01
676.377	-0.03
676.561	0.05
676.745	-0.03
676.928	-0.01
677.112	0.05
677.296	-0.02
677.479	-0
677.663	-0.02
677.846	0.02
678.03	-0.02
678.213	-0.02
678.397	0.03
678.58	-0.03
678.764	-0.02
678.947	-0.07
679.131	-0.11
679.314	0.03
679.498	-0.04
679.681	-0
679.865	0.08
680.048	-0
680.231	-0.05
680.415	-0.01
680.598	-0.04
680.781	-0
680.965	-0.02
681.148	-0.01
681.331	-0.03
681.514	0.02
681.698	-0.02
681.881	0.01
682.064	-0.01
682.247	-0
682.43	-0.07
682.614	-0.01
682.797	0.04
682.98	0.04
683.163	-0.04
683.346	-0
683.529	-0.03
683.712	-0.07
683.895	0.03
684.078	-0.05
684.261	-0.04
684.444	-0
684.627	-0.02
684.81	-0.02
684.993	-0.02
685.176	0.01
685.359	-0.04
685.542	-0.03
685.725	0.1
685.908	0.02
686.091	0
686.274	0.06
686.457	-0.01
686.639	-0.03
686.822	0
687.005	-0.01
687.188	0
687.371	0.08
687.553	0.02
687.736	0.03
687.919	0.07
688.102	0.05
688.284	-0.08
688.467	-0.01
688.65	-0.09
688.832	-0.05
689.015	-0.01
689.197	-0.06
689.38	0.08
689.563	0.06
689.745	-0.06
689.928	-0.06
690.11	0
690.293	0.03
690.475	-0.06
690.658	0.01
690.84	-0.02
691.023	0.01
691.205	-0.01
691.388	-0.05
691.57	0.01
691.752	0
691.935	-0.08
692.117	-0.02
692.3	0.05
692.482	-0.02
692.664	-0.06
692.847	0.03
693.029	0.04
693.211	0
693.393	-0.03
693.576	-0.05
693.758	-0.02
693.94	-0.02
694.122	-0.06
694.304	0.01
694.487	-0.02
694.669	0.07
694.851	-0.07
695.033	-0.01
695.215	-0.04
695.397	-0.05
695.579	0.02
695.761	-0.06
695.943	-0.08
696.125	0.06
696.308	-0.01
696.49	-0.1
696.671	0.05
696.853	-0.05
697.035	0.1
697.217	-0
697.399	0
697.581	-0.08
697.763	0.01
697.945	-0.04
698.127	-0
698.309	0.03
698.491	-0.01
698.672	0.02
698.854	0.01
699.036	0.08
699.218	-0.05
699.399	0.03
699.581	0.03
699.763	-0.03
699.945	-0.08
700.126	-0.06
700.308	0.02
700.49	0.03
700.671	-0.12
700.853	-0.01
701.035	-0.05
701.216	0.03
701.398	-0.07
701.579	-0.07
701.761	0.04
701.943	-0.07
702.124	-0.04
702.306	-0
702.487	0.04
702.669	0.02
702.85	-0.06
703.031	-0.06
703.213	0.05
703.394	0
703.576	-0.07
703.757	-0.01
703.938	0.05
704.12	0.14
704.301	-0.02
704.483	-0.04
704.664	0.02
704.845	0.05
705.026	0.02
705.208	-0.03
705.389	0.02
705.57	-0.03
705.751	-0.01
705.933	0.02
706.114	0.07
706.295	-0.03
706.476	-0.05
706.657	0.09
706.838	0.01
707.02	0.03
707.201	-0.02
707.382	-0.04
707.563	-0.02
707.744	-0.03
707.925	-0.04
708.106	-0.03
708.287	0.08
708.468	0.04
708.649	-0.01
708.83	0.06
709.011	-0.02
709.192	0.07
709.373	-0.07
709.554	0.01
709.734	0.02
709.915	0.06
710.096	-0.09
710.277	-0.02
710.458	-0
710.639	0.04
710.819	-0.17
711	-0.06
711.181	0.07
711.362	0.05
711.542	-0.02
711.723	-0.05
711.904	0.03
712.085	-0.01
712.265	0
712.446	-0.06
712.627	0.07
712.807	-0.03
712.988	0.06
713.168	-0.05
713.349	-0.01
713.53	-0.12
713.71	-0.12
713.891	-0.02
714.071	-0.02
714.252	-0.09
714.432	-0.01
714.613	-0.12
714.793	-0.02
714.974	0.05
715.154	0.05
715.334	0.1
715.515	0.08
715.695	-0.1
715.876	-0.07
716.056	-0.08
716.236	-0.03
716.417	-0.09
716.597	0.01
716.777	0.12
716.957	0.01
717.138	0.02
717.318	0.05
717.498	-0.14
717.678	0.04
717.859	0.02
718.039	-0.09
718.219	0.01
718.399	0.01
718.579	-0.06
718.759	-0
718.939	0.07
719.12	0.01
719.3	0.04
719.48	-0.09
719.66	-0.09
719.84	0.07
720.02	-0.06
720.2	0.03
720.38	0.01
720.56	0.12
720.74	0.04
720.92	0.06
721.1	0.04
721.279	0.08
721.459	0.07
721.639	-0.07
721.819	0.04
721.999	-0.01
722.179	0.07
722.359	-0.06
722.538	0.03
722.718	0.06
722.898	0.02
723.078	-0.04
723.257	-0.04
723.437	0.01
723.617	0.01
723.797	-0.05
723.976	0.08
724.156	0.01
724.336	0.06
724.515	0.16
724.695	-0.04
724.874	0.02
725.054	0.08
725.234	0.02
725.413	0.01
725.593	0.07
725.772	-0.02
725.952	-0
726.131	0.05
726.311	-0
726.49	0.1
726.67	-0.02
726.849	0.06
727.028	0.02
727.208	-0.02
727.387	0.06
727.567	-0.01
727.746	0.01
727.925	-0.01
728.105	-0.03
728.284	0.07
728.463	-0.05
728.643	0.13
728.822	-0.03
729.001	0.07
729.18	0.02
729.359	0.04
729.539	-0.01
729.718	0.1
729.897	0.12
730.076	0.02
730.255	-0.03
730.434	0.09
730.614	0.12
730.793	0.06
730.972	0.08
731.151	0
731.33	0.1
731.509	0.05
731.688	0.07
731.867	0.11
732.046	-0.06
732.225	0.2
732.404	0.06
732.583	0.05
732.762	0.08
732.941	0.08
733.12	0.11
733.298	-0.02
733.477	0.13
733.656	0.02
733.835	-0.09
734.014	0.13
734.193	0.06
734.371	0.17
734.55	0.07
734.729	-0.01
734.908	0.11
735.086	0.15
735.265	0.15
735.444	-0.05
735.623	0.02
735.801	0.05
735.98	0.1
736.159	0.01
736.337	0.18
736.516	0.15
736.694	0.02
736.873	0.02
737.052	0.16
737.23	0.28
737.409	-0.05
737.587	0.18
737.766	-0.04
737.944	0.02
738.123	0.09
738.301	0.16
738.479	0.01
738.658	0.15
738.836	-0.1
739.015	0.21
739.193	0.14
739.371	-0.04
739.55	-0.02
739.728	0.03
739.906	0.21
740.085	0.21
740.263	0.07
740.441	-0.11
740.62	0.27
740.798	0.17
740.976	-0.02
741.154	-0.02
741.332	0.16
741.511	0.05
741.689	0.09
741.867	0.16
742.045	0.01
742.223	0.02
742.401	0.02
742.579	0.04
742.757	0.05
742.935	-0.01
743.114	-0.07
743.292	0.04
743.47	0.03
743.648	0.03
743.826	0.15
744.004	0.04
744.181	0
744.359	0.02
744.537	0.01
744.715	-0.02
744.893	0.05
745.071	0.04
745.249	0.03
745.427	0.04
745.605	0.12
745.782	0.05
745.96	0.08
746.138	0.09
746.316	0.13
746.493	-0.07
746.671	0.07
746.849	-0.07
747.027	0.06
747.204	-0.09
747.382	0.1
747.56	-0.18
747.737	0.04
747.915	-0.02
748.093	-0
748.27	0
748.448	0.01
748.625	-0.07
748.803	-0.02
748.98	-0.03
749.158	0.12
749.335	0.04
749.513	0.05
749.69	0.04
749.868	-0.06
750.045	0.05
750.223	-0.07
750.4	-0.22
750.578	0.06
750.755	-0.1
750.932	-0.17
751.11	0.01
751.287	-0.18
751.464	0.07
751.642	-0.11
751.819	0.01
751.996	-0.02
752.173	-0.1
752.351	-0.13
752.528	0.01
752.705	-0.02
752.882	-0.12
753.06	0.02
753.237	0.09
753.414	0.08
753.591	0.09
753.768	-0.04
753.945	-0.02
754.122	-0.1
754.299	0.08
754.476	-0.12
754.654	-0.02
754.831	-0.02
755.008	0.01
755.185	-0.11
755.362	-0.24
755.539	-0.08
755.716	-0.12
755.892	-0.01
756.069	-0.03
756.246	-0.12
756.423	-0.17
756.6	0.16
756.777	-0.09
756.954	0.07
757.131	0.08
757.307	-0.06
757.484	-0.07
757.661	-0.07
757.838	0.05
758.015	-0.06
758.191	-0.02
758.368	-0.05
758.545	0.11
758.721	0.04
758.898	-0.13
759.075	-0
759.251	0.17
759.428	0.13
759.605	-0.04
759.781	-0.17
759.958	-0.04
760.134	-0.04
760.311	-0.17
760.488	0.1
760.664	0.15
760.841	0
761.017	-0.09
761.194	-0.02
761.37	0.12
761.547	0.02
761.723	-0.05
761.899	0.03
762.076	0.01
762.252	-0.13
762.429	-0.16
762.605	0.01
762.781	-0.11
762.958	0.04
763.134	0.01
763.31	-0.09
763.486	0.1
763.663	-0.17
763.839	0.02
764.015	-0.23
764.191	-0.16
764.368	-0.11
764.544	-0.1
764.72	0.08
764.896	0
765.072	-0.02
765.248	-0.07
765.425	-0.07
765.601	0.08
765.777	-0.1
765.953	-0.23
766.129	-0.16
766.305	-0.13
766.481	0.05
766.657	-0.03
766.833	0.13
767.009	-0.17
767.185	-0.2
767.361	-0.06
767.537	-0.16
767.713	0.04
767.889	-0.14
768.065	-0.11
768.24	-0.21
768.416	-0.1
768.592	-0.02
768.768	0.03
768.944	-0.15
769.12	-0.19
769.295	0.03
769.471	-0.16
769.647	-0.05
769.823	-0.01
769.998	-0.07
770.174	-0.12
770.35	0.1
770.525	0.13
770.701	-0.04
770.877	-0.1
771.052	-0.16
771.228	0.12
771.403	-0.02
771.579	0.15
771.755	0.31
771.93	0.06
772.106	-0.05
772.281	-0.06
772.457	-0.09
772.632	-0.02
772.808	-0.06
772.983	-0.14
773.159	-0.21
773.334	0.13
773.509	-0.13
773.685	-0.13
773.86	0.26
774.036	0.07
774.211	-0.05
774.386	-0.15
774.562	0.02
774.737	0.21
774.912	-0.31
775.087	0.02
775.263	-0.1
775.438	0.1
775.613	-0.07
775.788	-0.06
775.964	0.03
776.139	0.32
776.314	-0.17
776.489	0.03
776.664	-0.04
776.839	-0.12
777.014	0.16
777.19	0.02
777.365	0.04
777.54	0.13
777.715	-0.09
777.89	0.01
778.065	-0.2
778.24	-0.07
778.415	0.09
778.59	-0.18
778.765	-0.34
778.94	-0.06
779.115	-0.09
779.289	-0.03
779.464	0.03
779.639	0
779.814	-0.29
779.989	-0.07
780.164	0.09
780.339	-0.04
780.513	-0.02
780.688	-0.05
780.863	-0.09
781.038	0.06
781.212	-0.21
781.387	0.06
781.562	0.11
781.737	0.1
781.911	0.12
782.086	-0.16
782.261	-0.06
782.435	0.28
782.61	-0.17
782.784	-0.21
782.959	0.04
783.134	-0.07
783.308	-0.27
783.483	-0.19
783.657	0.3
783.832	0.09
784.006	-0.41
784.181	-0.19
784.355	0.16
784.53	-0.01
784.704	-0.17
784.878	0.31
785.053	-0.08
785.227	0.05
785.402	0.18
785.576	-0.36
785.75	0.11
785.925	-0.16
786.099	0.06
786.273	-0.18
786.448	-0.01
786.622	0
786.796	-0.11
786.97	-0.21
787.145	0.33
787.319	-0.21
787.493	-0.18
787.667	-0.24
787.841	-0.06
788.015	-0.1
788.19	-0.14
788.364	0.17
788.538	0.14
788.712	0.03
788.886	-0.09
789.06	0.26
789.234	0.04
789.408	-0.38
789.582	-0.21
789.756	0.08
789.93	-0.08
790.104	-0.33
790.278	-0.22
790.452	-0.22
790.626	0.07
790.8	-0.13
790.973	0.17
791.147	0.09
791.321	0.09
791.495	0.18
791.669	0.05
791.843	-0.01
792.016	-0.03
792.19	0.27
792.364	-0.26
792.538	0.26
792.711	0.27
792.885	0.07
793.059	-0.21
793.233	-0.55
793.406	0.18
793.58	-0.02
793.754	-0.09
793.927	-0.14
794.101	0.06
794.274	0.09
794.448	0.35
794.622	-0.15
794.795	0.33
794.969	-0.25
795.142	0.2
795.316	0.16
795.489	-0.16
795.663	0.17
795.836	-0.13
796.009	-0.35
796.183	0.17
796.356	0.2
796.53	-0.08
796.703	-0.14
796.876	0.45
797.05	0.09
797.223	-0.14
797.396	-0.08
797.57	-0.16
797.743	0.03
797.916	0.12
798.09	0.05
798.263	0.24
798.436	0.18
798.609	-0.11
798.782	0.13
798.956	0.11
799.129	-0.28
799.302	0.08
799.475	-0.1
799.648	-0.25
799.821	-0.32
799.994	0.03
800.167	-0.23
800.34	0.07
800.514	0.02
800.687	-0.34
800.86	-0.32
801.033	-0.2
801.206	0.07
801.379	-0.25
801.551	0.25
801.724	0.31
801.897	0.02
802.07	-0.1
802.243	-0.56
802.416	-0.11
802.589	-0.25
802.762	0.02
802.935	0.11
803.107	0.3
803.28	0.68
803.453	0.33
803.626	-0.34
803.798	-0.19
803.971	-0.14
804.144	0.01
804.317	-0.33
804.489	0.01
804.662	-0.04
804.835	0.18
805.007	-0.38
805.18	0.22
805.353	-0.01
805.525	-0.34
805.698	-0.2
805.87	-0.04
806.043	0.37
806.215	-0.39
806.388	-0.22
806.56	0.28
806.733	0.35
806.905	0.01
807.078	-0.04
807.25	-0.33
807.423	0.06
807.595	-0.02
807.768	0.23
807.94	0.43
808.112	0.02
808.285	-0.06
808.457	-0.25
808.629	-0.07
808.802	0.28
808.974	0.04
809.146	-0.03
809.318	-0.36
809.491	-0.07
809.663	-0.05
809.835	-0.5
810.007	0.06
810.18	-0.09
810.352	-0.33
810.524	0.05
810.696	-0.01
810.868	0.28
811.04	-0.22
811.212	-0.24
811.384	-0.09
811.556	-0.21
811.728	-0.42
811.901	0.37
812.073	-0.49
812.245	-0.15
812.417	-0.03
812.589	-0.83
812.76	-0.44
812.932	0.04
813.104	-0.05
813.276	0.02
813.448	0.43
813.62	0.02
813.792	0.13
813.964	-0.05
814.136	-0.11
814.307	-0.31
814.479	-0.15
814.651	-0.17
814.823	0.8
814.995	-0.14
815.166	-0.16
815.338	-0.33
815.51	-0.61
815.681	0.62
815.853	-0.1
816.025	-0.11
816.196	0.41
816.368	-0.35
816.54	-0.58
816.711	0.17
816.883	-0.05
817.054	0.98
817.226	-0.01
817.398	0.43
817.569	-0.31
817.741	0.04
817.912	0.21
818.084	-0.07
818.255	0.06
818.426	-0.13
818.598	0.01
818.769	-0.3
818.941	0.08
819.112	0.24
819.283	0.1
819.455	-0.65
819.626	-0.28
819.798	0.08
819.969	0.07
820.14	-0.03
820.311	-0.16
820.483	0.01
820.654	0.21
820.825	-0.07
820.996	-0.48
821.168	-0.53
821.339	-0.13
821.51	-0.37
821.681	0.21
821.852	-0.13
822.023	-0.57
822.195	-0.48
822.366	0.33
822.537	-0.27
822.708	0.15
822.879	-0.39
823.05	0.54
823.221	-0.46
823.392	0.14
823.563	0.2
823.734	0.22
823.905	-0.17
824.076	-0.2
824.247	-0.3
824.418	-0.6
824.589	0.44
824.759	-0.25
824.93	0.18
825.101	-0.79
825.272	0.2
825.443	0.18
825.614	0.17
825.784	-1.44
825.955	0.01
826.126	0.37
826.297	0.08
826.467	0.32
826.638	0.28
826.809	-0.75
826.98	-0.28
827.15	0.44
827.321	0.03
827.492	0.65
827.662	-0.41
827.833	0.64
828.003	-0.05
828.174	-0.61
828.345	-0.8
828.515	0.64
828.686	0.21
828.856	-0.28
829.027	-0.07
829.197	-0.73
829.368	0.49
829.538	0.29
829.709	-0.45
829.879	0.26
830.049	0.24
830.22	-0.58
830.39	0.33
830.56	-0.12
830.731	-0.69
830.901	-0.26
831.072	0.06
831.242	-0.06
831.412	-0.27
831.582	0.36
831.753	-0.46
831.923	0.26
832.093	-0.56
832.263	-0.36
832.434	-0.64
832.604	-0.28
832.774	-0.01
832.944	-0.25
833.114	-0.5
833.284	0.46
833.454	-0.41
833.624	-0.1
833.795	0.01
833.965	0.85
834.135	0.8
834.305	-0.71
834.475	-0.54
834.645	-0.6
834.815	0.14
834.985	-0.91
835.155	-0.43
835.325	0.02
835.494	0.26
835.664	-0.69
835.834	-1
836.004	0.62
836.174	-0.11
836.344	-0.06
836.514	-0.82
836.684	-0.87
836.853	0.27
837.023	-0.47
837.193	-0.44
837.363	0.29
837.532	0.02
837.702	-0.7
837.872	-0.77
838.041	0.44
838.211	0.66
838.381	-1.08
838.55	0.35
838.72	1.44
838.89	0.79
839.059	-0.01
839.229	-1.26
839.398	0.83
839.568	0.02
839.738	-0.25
839.907	0.74
840.077	0.76
840.246	-0.54
840.416	-0.52
840.585	-0.48
840.755	0.76
840.924	0.41
841.093	-0.42
841.263	0.26
841.432	0.3
841.602	-0.65
841.771	-0.69
841.94	0.09
842.11	1.42
842.279	1.61
842.448	-1.04
842.617	-0.67
842.787	0.19
842.956	-0.79
843.125	0.3
843.294	0.14
843.464	1.45
843.633	-0.26
843.802	-1.5
843.971	-0.01
844.14	0.02
844.309	-0.35
844.479	-1.17
844.648	0
844.817	-0.42
844.986	-0.24
845.155	0.08
845.324	-0.47
845.493	0.24
845.662	-1.09
845.831	0.39
846	0.86
846.169	-0.49
846.338	0.71
846.507	0.11
846.676	-0.29
846.844	-0.69
847.013	0.12
847.182	-0.97
847.351	-0.7
847.52	-0.45
847.689	0.09
847.858	0.2
848.026	-0.42
848.195	-0.76
848.364	-0.89
848.533	-0.86
848.701	-0.09
848.87	-0.53
849.039	0.14
849.207	0.87
849.376	1.26
849.545	1.26
849.713	-0.76
849.882	-0.37
850.051	-0.61
850.219	0.03
850.388	0.48
850.556	-0.12
850.725	-0.46
850.893	0.23
851.062	0.08
851.23	0.22
851.399	-1.15
851.567	-0.74
851.736	-0.21
851.904	-0.9
852.073	-0.29
852.241	0.52
852.41	-0.6
852.578	-0.13
852.746	-0.86
852.915	0.38
853.083	-0.62
853.251	-0.58
853.42	0.59
853.588	-0.01
853.756	-0.23
853.924	0.05
854.093	-0.43
854.261	-1.22
854.429	-1.46
854.597	-0.52
854.765	-1.33
854.934	0.29
855.102	0.61
855.27	0.18
855.438	0.24
855.606	1.14
855.774	0.45
855.942	-1.94
856.11	-0.62
856.278	-0.72
856.446	1.45
856.614	0.29
856.782	-1.44
856.95	-0.15
857.118	-0.54
857.286	-0.18
857.454	-0.56
857.622	1.32
857.79	0.26
857.958	-0.8
858.126	-1.04
858.294	-2.82
858.462	-0.56
858.629	-0.48
858.797	-0.83
858.965	0.72
859.133	-0.97
859.301	-0.39
859.468	0.61
859.636	-0.72
859.804	1.06
859.971	1.61
860.139	-1.35
860.307	0.37
860.474	-0.83
860.642	-1.94
860.81	-0.62
860.977	-0.19
861.145	1.52
861.313	-0.46
861.48	-1.11
861.648	1.09
861.815	-1.14
861.983	-0.68
862.15	-0.3
862.318	-0.15
862.485	0.51
862.653	-0.94
862.82	-0.91
862.988	1.16
863.155	-0.72
863.322	-0.68
863.49	-1.62
863.657	-0.27
863.824	-0.42
863.992	0.46
864.159	-0.59
864.326	1.71
864.494	-0.81
864.661	2.16
864.828	-1.02
864.996	0.87
865.163	1.51
865.33	-0.49
865.497	-2.23
865.664	-0.3
865.832	-1.51
865.999	-1.24
866.166	-1.31
866.333	-1.58
866.5	-1.15
866.667	-1.05
866.834	-0.65
867.001	0.54
867.168	-2.06
867.335	0.98
867.502	-1.42
867.669	-0.25
867.836	1.77
868.003	0.36
868.17	1.22
868.337	-1.95
868.504	2.04
868.671	-2.22
868.838	-0.22
869.005	0.42
869.172	1.34
869.339	-0.46
869.505	-0.4
869.672	0.15
869.839	0.57
870.006	-0.07
870.173	-2.08
870.339	0.34
870.506	2.5
870.673	-0.23
870.84	0.78
871.006	0.01
871.173	-1.87
871.34	0.8
871.506	-1.2
871.673	0.66
871.839	-2.1
872.006	-0.22
872.173	-1
872.339	0.32
872.506	1.5
872.672	-1.16
872.839	-2.27
873.005	-0.48
873.172	2.72
873.338	0.32
873.505	-0.5
873.671	-0.75
873.838	0.77
874.004	-1.44
874.171	-2.2
874.337	-0.01
874.503	1.66
874.67	0.01
874.836	0.2
875.002	2.34
875.169	1
875.335	0.22
875.501	0.55
875.668	2.31
875.834	-0.54
876	0.33
876.166	0.58
876.332	1.64
876.499	1.81
876.665	-0.59
876.831	0.83
876.997	1.62
877.163	0.36
877.329	-1.49
877.495	-0.25
877.662	1.42
877.828	0.37
877.994	0.67
878.16	-3.86
878.326	-2.82
878.492	0.93
878.658	-1.05
878.824	1.06
878.99	0.77
879.156	-1.63
879.322	1.35
879.487	-0.91
879.653	0.88
879.819	-1.5
879.985	-0.25
880.151	-0.29
880.317	-0.09
880.483	0.31
880.648	1.43
880.814	-3.17
880.98	1.11
881.146	-3
881.312	-1.98
881.477	-0.11
881.643	0.68
881.809	1.74
881.974	1.3
882.14	-1.72
882.306	1.44
882.471	2.12
882.637	-0.43
882.803	1.37
882.968	2.79
883.134	2.03
883.299	-0.8
883.465	-0.8
883.63	0.55
883.796	-0.61
883.961	2.08
884.127	1.05
884.292	-3.63
884.458	-2.34
884.623	-2.34
