Data from Apollo_Calib_20240827__AbsoluteIrradiance__142__01-31-01-542.txt Node

Date: Wed Aug 28 01:31:01 BST 2024
User: biology
Spectrometer: FLMT08252
Trigger mode: 0
Integration Time (sec): 5.000000E-1
Scans to average: 5
Electric dark correction enabled: true
Nonlinearity correction enabled: false
Boxcar width: 0
XAxis mode: Wavelengths
Number of Pixels in Spectrum: 3648
>>>>>Begin Spectral Data<<<<<
179.588	-0
179.809	-0
180.03	-0
180.251	-0
180.473	-0
180.694	0
180.915	0
181.136	-0
181.357	-0
181.578	-0
181.799	0
182.02	-0
182.241	-0
182.462	-0
182.683	0
182.904	-0
183.125	-0
183.346	0
183.567	0
183.788	-0
184.009	-0
184.23	0
184.451	0
184.672	-0
184.892	-0
185.113	0
185.334	0
185.555	-0
185.776	-0
185.996	0
186.217	0
186.438	0
186.659	-0
186.879	-0
187.1	-0
187.321	-0
187.541	-0
187.762	-0
187.983	-0
188.203	0
188.424	-0
188.644	-0
188.865	0
189.086	-0
189.306	-0
189.527	-0
189.747	-0
189.968	-0
190.188	0
190.409	-0
190.629	0
190.849	-0
191.07	-0
191.29	0
191.511	-0
191.731	-0
191.951	-0
192.172	-0
192.392	-0
192.612	0
192.833	-0
193.053	0
193.273	-0
193.493	-0
193.714	-0
193.934	0
194.154	0
194.374	0
194.594	-0
194.815	0
195.035	-0
195.255	0
195.475	-0
195.695	0
195.915	0
196.135	-0
196.355	0
196.575	0
196.795	-0
197.015	-0
197.235	-0
197.455	-0
197.675	0
197.895	-0
198.115	-0
198.335	0
198.555	-0
198.775	0
198.995	-0
199.214	0
199.434	-0
199.654	-0
199.874	-0
200.094	0.96
200.313	-0.17
200.533	-0.27
200.753	-0.74
200.973	0.65
201.192	0.17
201.412	-1.11
201.632	-0.35
201.851	0.83
202.071	-0.89
202.291	-0.92
202.51	-0.98
202.73	-0.06
202.95	-0.3
203.169	-0.83
203.389	-0.31
203.608	-0.35
203.828	-0.7
204.047	-0.53
204.267	0.4
204.486	0.02
204.706	0.29
204.925	0.03
205.145	-0.36
205.364	0
205.583	0.33
205.803	-0.43
206.022	-0.56
206.242	-0.29
206.461	-0.26
206.68	-0.23
206.9	0.01
207.119	0.47
207.338	0.36
207.557	-0.17
207.777	-0.14
207.996	-0.29
208.215	0.09
208.434	-0.25
208.654	-0.58
208.873	0.36
209.092	0.37
209.311	-0.38
209.53	-0.09
209.749	-0.2
209.968	-0.25
210.187	-0.13
210.407	-0.45
210.626	-0.34
210.845	0.04
211.064	0
211.283	-0.37
211.502	0.07
211.721	-0.08
211.94	-0.3
212.159	0.01
212.377	-0.01
212.596	0.29
212.815	-0.07
213.034	0.02
213.253	0.12
213.472	0.29
213.691	-0.08
213.91	-0.35
214.128	-0.17
214.347	0.23
214.566	-0.32
214.785	-0.36
215.003	0.17
215.222	0.08
215.441	-0.13
215.66	-0.33
215.878	-0.19
216.097	-0.04
216.316	-0.34
216.534	-0.06
216.753	-0.1
216.972	-0.15
217.19	-0.15
217.409	-0.27
217.627	-0.33
217.846	-0.12
218.064	-0.07
218.283	-0.34
218.501	0.33
218.72	0.06
218.938	-0.21
219.157	-0.1
219.375	0.12
219.594	-0.02
219.812	-0.35
220.031	-0.09
220.249	0.18
220.467	0.21
220.686	-0.26
220.904	-0.33
221.122	-0.12
221.341	0.26
221.559	-0.16
221.777	-0.23
221.995	-0.09
222.214	0.16
222.432	-0.08
222.65	0.11
222.868	-0.04
223.086	-0
223.305	0.03
223.523	-0.13
223.741	0.13
223.959	-0.24
224.177	-0.4
224.395	-0.26
224.613	-0.13
224.831	0.1
225.049	-0.18
225.267	-0.14
225.485	-0.12
225.703	-0.18
225.921	-0.09
226.139	-0.13
226.357	0.07
226.575	-0.01
226.793	-0.15
227.011	0.48
227.229	0.01
227.447	0.06
227.665	-0.15
227.883	-0.33
228.1	0.02
228.318	-0.02
228.536	-0.3
228.754	-0.27
228.972	-0.05
229.189	-0.05
229.407	-0.24
229.625	-0.12
229.843	0.25
230.06	0.1
230.278	-0.15
230.496	0.05
230.713	0.09
230.931	0.17
231.149	-0.08
231.366	-0.3
231.584	-0.12
231.801	0.25
232.019	-0.02
232.236	-0.2
232.454	-0.17
232.671	0.05
232.889	-0.02
233.106	-0.21
233.324	-0.11
233.541	-0.03
233.759	0.01
233.976	-0.12
234.194	-0.04
234.411	-0
234.628	-0.1
234.846	-0.14
235.063	-0.07
235.28	-0.12
235.498	-0.1
235.715	-0.22
235.932	0.04
236.149	0.02
236.367	-0.13
236.584	-0.06
236.801	-0.13
237.018	0.08
237.236	0.03
237.453	-0.18
237.67	0.02
237.887	-0.1
238.104	-0.04
238.321	-0.19
238.538	-0.1
238.755	0.04
238.973	-0.17
239.19	0.06
239.407	0.04
239.624	-0.08
239.841	-0.19
240.058	-0.18
240.275	0.06
240.492	-0.11
240.709	-0.07
240.925	-0.08
241.142	-0.03
241.359	-0.14
241.576	-0.03
241.793	-0
242.01	0.05
242.227	-0.01
242.444	0.01
242.66	0.05
242.877	0.02
243.094	-0.14
243.311	0.01
243.527	-0.09
243.744	-0.02
243.961	0.01
244.178	-0.11
244.394	0.04
244.611	-0.02
244.828	0.1
245.044	-0.08
245.261	-0.16
245.477	-0.07
245.694	-0.07
245.911	-0.12
246.127	-0.1
246.344	0.11
246.56	0.01
246.777	-0.11
246.993	-0.04
247.21	-0
247.426	0.06
247.643	-0.09
247.859	-0.23
248.076	-0.09
248.292	0.03
248.508	-0.07
248.725	-0.02
248.941	0.02
249.157	0.03
249.374	-0.17
249.59	-0.04
249.806	0.01
250.023	0.01
250.239	-0.14
250.455	-0.06
250.671	-0.04
250.888	-0.02
251.104	-0.01
251.32	-0.05
251.536	0
251.752	-0.02
251.969	-0.05
252.185	0.03
252.401	0.16
252.617	-0.11
252.833	-0.13
253.049	-0.08
253.265	-0.07
253.481	-0.02
253.697	-0.03
253.913	-0.09
254.129	-0.08
254.345	-0.02
254.561	-0.01
254.777	-0.01
254.993	-0
255.209	-0.05
255.425	-0.02
255.641	-0.09
255.857	0.05
256.073	-0.01
256.288	-0.13
256.504	-0.04
256.72	-0.04
256.936	0.09
257.152	-0.08
257.367	-0.05
257.583	-0.03
257.799	0.05
258.015	-0.09
258.23	-0.04
258.446	0.07
258.662	-0
258.877	-0.05
259.093	-0.07
259.309	0.01
259.524	-0
259.74	-0.06
259.955	-0.13
260.171	0.02
260.387	-0.1
260.602	0.08
260.818	0.03
261.033	-0.09
261.249	-0.13
261.464	-0.06
261.68	-0.07
261.895	-0.05
262.11	0.02
262.326	-0.07
262.541	-0.15
262.757	0.02
262.972	0.04
263.187	-0
263.403	-0.03
263.618	0.02
263.833	0.03
264.049	-0.03
264.264	-0.04
264.479	0.03
264.694	0.02
264.91	-0.11
265.125	-0.04
265.34	-0.06
265.555	0.12
265.77	0.02
265.986	-0.07
266.201	-0.02
266.416	0.1
266.631	-0.02
266.846	-0.04
267.061	-0.02
267.276	0.02
267.491	-0.13
267.706	-0.02
267.921	-0
268.136	-0.01
268.351	-0.05
268.566	-0.14
268.781	0.08
268.996	0.07
269.211	0.04
269.426	-0.05
269.641	-0.03
269.856	-0.02
270.071	-0.09
270.285	-0.07
270.5	0.08
270.715	0.08
270.93	0
271.145	0.05
271.359	0.05
271.574	-0.08
271.789	-0.02
272.004	-0.08
272.218	0
272.433	0.07
272.648	-0.02
272.862	-0.01
273.077	0.01
273.292	-0.01
273.506	-0.07
273.721	-0.05
273.936	0.03
274.15	0.07
274.365	-0.01
274.579	0.07
274.794	-0.03
275.008	0.03
275.223	-0.16
275.437	-0.1
275.652	0.04
275.866	0.02
276.081	-0.08
276.295	-0.02
276.509	-0.05
276.724	-0.02
276.938	0.01
277.153	-0.04
277.367	0.04
277.581	-0.05
277.796	-0.1
278.01	-0.07
278.224	0.01
278.438	0.06
278.653	-0.04
278.867	-0.1
279.081	-0.02
279.295	-0.03
279.51	0
279.724	-0.13
279.938	0.05
280.152	0.01
280.366	-0.04
280.58	-0.02
280.794	0.06
281.008	-0.06
281.222	0.01
281.437	0.14
281.651	0
281.865	0.05
282.079	-0.07
282.293	-0.12
282.507	-0.07
282.721	-0.02
282.935	0.04
283.148	-0.1
283.362	-0.08
283.576	-0.03
283.79	0.01
284.004	-0.07
284.218	0.05
284.432	-0.04
284.646	0.02
284.859	-0.05
285.073	-0.05
285.287	-0.02
285.501	-0.01
285.714	-0.02
285.928	-0.02
286.142	-0.05
286.356	-0.07
286.569	-0.04
286.783	0.09
286.997	0.03
287.21	-0.05
287.424	-0.01
287.637	0.03
287.851	-0.06
288.065	-0
288.278	-0.03
288.492	0.03
288.705	-0.09
288.919	0.01
289.132	-0.06
289.346	0.06
289.559	-0.07
289.773	-0.08
289.986	-0.06
290.2	-0.03
290.413	-0
290.626	-0.04
290.84	-0.03
291.053	-0.03
291.267	0.04
291.48	-0.01
291.693	-0.05
291.906	-0.02
292.12	-0.01
292.333	-0.05
292.546	-0.01
292.76	0.06
292.973	-0.02
293.186	-0.04
293.399	-0.03
293.612	0.05
293.826	-0.02
294.039	-0.01
294.252	-0.02
294.465	0
294.678	0.02
294.891	0.04
295.104	-0.11
295.317	-0.02
295.53	0.06
295.743	-0.01
295.956	-0.02
296.169	0.06
296.382	0.04
296.595	0.01
296.808	-0.06
297.021	0.06
297.234	0.05
297.447	0.01
297.66	0.03
297.873	0.05
298.086	0.03
298.299	-0.03
298.511	-0.08
298.724	0.02
298.937	-0.09
299.15	-0.05
299.363	-0.02
299.575	0.05
299.788	0.02
300.001	-0.04
300.213	-0.03
300.426	-0.03
300.639	-0.04
300.852	-0.02
301.064	0.03
301.277	0.03
301.489	0.05
301.702	0.08
301.915	0
302.127	0.02
302.34	0.04
302.552	0.02
302.765	-0.02
302.977	0.05
303.19	-0.04
303.402	-0.05
303.615	-0.02
303.827	-0.01
304.04	0
304.252	0.01
304.464	-0.01
304.677	0.09
304.889	0.03
305.102	-0.03
305.314	-0.05
305.526	0.07
305.739	-0
305.951	-0.04
306.163	-0
306.375	0.08
306.588	-0.05
306.8	-0.03
307.012	-0.1
307.224	-0.01
307.436	0.04
307.649	-0.08
307.861	-0.04
308.073	-0
308.285	-0
308.497	-0.03
308.709	0.01
308.921	0.01
309.133	0.03
309.346	-0.01
309.558	-0.05
309.77	0.03
309.982	0.02
310.194	0.03
310.406	-0.04
310.617	0.05
310.829	-0
311.041	0.01
311.253	-0.05
311.465	-0.01
311.677	-0.05
311.889	0.02
312.101	-0.03
312.313	0.05
312.524	0.02
312.736	-0.04
312.948	-0.02
313.16	0.08
313.372	0.05
313.583	-0.02
313.795	-0
314.007	-0.05
314.218	-0.02
314.43	-0.01
314.642	-0.05
314.853	-0.06
315.065	-0.02
315.277	-0
315.488	0.02
315.7	0.06
315.912	-0.01
316.123	-0.02
316.335	0.01
316.546	0.09
316.758	-0.04
316.969	-0.01
317.181	-0.03
317.392	-0.02
317.604	0.07
317.815	-0.04
318.026	-0.04
318.238	-0.03
318.449	-0.03
318.661	-0.07
318.872	-0.07
319.083	-0.04
319.295	0.05
319.506	0.01
319.717	0.03
319.929	-0.01
320.14	-0.03
320.351	0.01
320.562	-0.03
320.774	-0.08
320.985	0.02
321.196	-0.07
321.407	-0.07
321.618	0.02
321.829	-0
322.041	-0.01
322.252	-0.04
322.463	0.01
322.674	0.04
322.885	-0.05
323.096	-0.08
323.307	-0.01
323.518	0.01
323.729	-0.08
323.94	-0
324.151	-0.03
324.362	-0.04
324.573	0.03
324.784	-0.02
324.995	0.01
325.206	0.06
325.417	-0
325.628	0.02
325.838	-0.01
326.049	-0.03
326.26	0.03
326.471	-0
326.682	0.02
326.892	-0.03
327.103	-0.07
327.314	-0.08
327.525	0.02
327.735	0
327.946	0.02
328.157	-0.04
328.368	0.01
328.578	-0.02
328.789	0.03
328.999	0.01
329.21	-0.02
329.421	0
329.631	0.01
329.842	-0.04
330.052	-0.04
330.263	0
330.473	0.02
330.684	-0.04
330.894	-0.01
331.105	-0
331.315	-0.02
331.526	-0.05
331.736	0.05
331.947	0.02
332.157	0.01
332.367	-0.05
332.578	0.02
332.788	-0
332.999	0.01
333.209	0.02
333.419	-0.06
333.629	0.01
333.84	0.02
334.05	-0.01
334.26	0.04
334.47	0.02
334.681	0.03
334.891	-0.02
335.101	0.03
335.311	0.06
335.521	0.02
335.732	-0.06
335.942	0.06
336.152	0.05
336.362	0.02
336.572	-0.01
336.782	-0.02
336.992	-0.03
337.202	-0.02
337.412	-0.03
337.622	-0.02
337.832	-0
338.042	0.01
338.252	-0.04
338.462	-0.03
338.672	0
338.882	0.02
339.092	0.02
339.302	0.06
339.511	0.04
339.721	-0.03
339.931	-0.05
340.141	0.01
340.351	0.01
340.561	-0
340.77	0.01
340.98	-0.03
341.19	0
341.4	-0.04
341.609	-0.04
341.819	-0.06
342.029	-0.08
342.238	0.01
342.448	-0.04
342.658	0.02
342.867	0.01
343.077	0
343.286	0.01
343.496	0.02
343.706	0.06
343.915	-0.09
344.125	-0.02
344.334	0.04
344.544	-0.05
344.753	-0.05
344.963	0
345.172	-0.03
345.381	-0.05
345.591	-0.05
345.8	-0.02
346.01	0.02
346.219	0.07
346.428	-0.13
346.638	-0.02
346.847	-0.01
347.056	0.03
347.266	-0.05
347.475	0.01
347.684	0.03
347.893	0.03
348.103	0.01
348.312	0
348.521	-0
348.73	0.02
348.94	0.03
349.149	-0.02
349.358	-0.03
349.567	-0
349.776	-0.06
349.985	-0.03
350.194	0.01
350.403	0.03
350.612	-0.07
350.821	-0.05
351.03	-0.02
351.239	-0.03
351.448	0.02
351.657	-0.03
351.866	0.09
352.075	-0.03
352.284	-0
352.493	-0.09
352.702	0.05
352.911	0.03
353.12	-0.04
353.329	-0.01
353.538	0.01
353.746	-0.02
353.955	-0.02
354.164	-0.01
354.373	0
354.582	-0.02
354.79	-0.01
354.999	0
355.208	-0.01
355.416	0.03
355.625	-0.05
355.834	-0.04
356.042	-0.02
356.251	0.01
356.46	-0.05
356.668	0.03
356.877	0.09
357.085	0.03
357.294	-0.1
357.503	-0.01
357.711	0.02
357.92	0.11
358.128	0.01
358.337	-0.01
358.545	0.02
358.754	-0.06
358.962	0
359.17	-0.02
359.379	0.02
359.587	0.03
359.796	-0.05
360.004	0.04
360.212	-0.02
360.421	0.03
360.629	-0.02
360.837	-0.05
361.046	0.05
361.254	0.08
361.462	0.01
361.67	-0.04
361.879	0.03
362.087	0.06
362.295	0.01
362.503	-0.04
362.711	-0.06
362.92	-0.03
363.128	-0.02
363.336	-0.05
363.544	-0.07
363.752	-0.03
363.96	-0.06
364.168	-0.02
364.376	-0.01
364.584	0.02
364.792	0.01
365	0.01
365.208	-0.02
365.416	0.03
365.624	0.03
365.832	0.01
366.04	0.05
366.248	-0.01
366.456	0.01
366.664	0.01
366.872	-0
367.079	-0.03
367.287	-0
367.495	-0.02
367.703	-0
367.911	-0.01
368.118	-0
368.326	-0.04
368.534	-0.08
368.742	0.02
368.949	-0.04
369.157	-0.03
369.365	0.01
369.572	-0.04
369.78	-0.03
369.988	0.03
370.195	0.01
370.403	0.02
370.61	-0.01
370.818	-0.02
371.026	0.05
371.233	-0.03
371.441	-0.03
371.648	-0.05
371.856	-0.02
372.063	-0
372.271	-0.03
372.478	-0.01
372.685	-0.03
372.893	0.02
373.1	0.02
373.308	-0.05
373.515	0.03
373.722	-0.01
373.93	-0.04
374.137	0.01
374.344	0.06
374.552	0.03
374.759	-0.01
374.966	-0.02
375.173	-0.03
375.381	0.05
375.588	-0.03
375.795	-0.09
376.002	-0.03
376.209	-0.07
376.417	-0.03
376.624	-0.06
376.831	-0
377.038	-0.01
377.245	-0.07
377.452	-0.05
377.659	-0.01
377.866	-0.03
378.073	-0.02
378.28	-0.03
378.487	0.01
378.694	0
378.901	-0
379.108	-0.04
379.315	0.02
379.522	0.06
379.729	0.01
379.936	-0.03
380.143	-0.01
380.35	-0.03
380.557	-0.03
380.763	-0.02
380.97	0.01
381.177	-0.02
381.384	-0.02
381.591	-0.06
381.797	-0.01
382.004	-0
382.211	-0.01
382.418	-0.01
382.624	0.02
382.831	0.03
383.038	0
383.244	-0.02
383.451	0.01
383.658	0.04
383.864	-0.03
384.071	-0.05
384.277	0.04
384.484	-0.06
384.69	0.04
384.897	-0.01
385.103	-0.05
385.31	-0.09
385.516	-0.03
385.723	-0.02
385.929	-0.01
386.136	-0.05
386.342	-0.03
386.549	-0.02
386.755	0.02
386.961	0.02
387.168	-0.05
387.374	-0.01
387.58	0.03
387.787	-0.02
387.993	0
388.199	0.01
388.406	-0.06
388.612	-0.02
388.818	-0.06
389.024	-0.03
389.231	0.03
389.437	0.06
389.643	0.04
389.849	-0.05
390.055	0
390.261	-0
390.467	0.01
390.674	-0.03
390.88	0
391.086	0.01
391.292	-0.03
391.498	0.03
391.704	-0.02
391.91	-0.03
392.116	-0.01
392.322	-0.14
392.528	0.01
392.734	-0.04
392.94	-0.02
393.146	0.02
393.352	0.02
393.557	-0.01
393.763	-0
393.969	0.05
394.175	-0.01
394.381	-0.01
394.587	-0.02
394.792	0
394.998	0.07
395.204	0.03
395.41	-0.01
395.615	0.04
395.821	0.01
396.027	0.05
396.233	-0
396.438	0.06
396.644	0.07
396.85	0.07
397.055	0.02
397.261	0.06
397.466	0.1
397.672	0.06
397.878	0.05
398.083	0.09
398.289	0.01
398.494	0.11
398.7	0.06
398.905	-0.04
399.111	0.1
399.316	0
399.522	0.04
399.727	0.05
399.932	0.08
400.138	0.05
400.343	0.15
400.549	0.1
400.754	0.1
400.959	0.1
401.165	0.07
401.37	0.12
401.575	0.19
401.78	0.11
401.986	0.06
402.191	0.09
402.396	0.14
402.601	0.17
402.807	0.17
403.012	0.14
403.217	0.19
403.422	0.17
403.627	0.15
403.832	0.11
404.037	0.2
404.243	0.23
404.448	0.18
404.653	0.2
404.858	0.21
405.063	0.24
405.268	0.18
405.473	0.16
405.678	0.19
405.883	0.35
406.088	0.22
406.293	0.17
406.498	0.21
406.703	0.23
406.907	0.22
407.112	0.21
407.317	0.25
407.522	0.24
407.727	0.18
407.932	0.27
408.136	0.33
408.341	0.26
408.546	0.21
408.751	0.27
408.956	0.24
409.16	0.27
409.365	0.24
409.57	0.24
409.774	0.21
409.979	0.24
410.184	0.26
410.388	0.2
410.593	0.25
410.798	0.24
411.002	0.2
411.207	0.2
411.411	0.24
411.616	0.21
411.82	0.17
412.025	0.21
412.229	0.16
412.434	0.22
412.638	0.2
412.843	0.17
413.047	0.2
413.252	0.14
413.456	0.18
413.66	0.18
413.865	0.11
414.069	0.18
414.273	0.08
414.478	0.06
414.682	0.12
414.886	0.09
415.091	0.1
415.295	0.01
415.499	0.09
415.703	0.09
415.908	0.11
416.112	0.06
416.316	0.14
416.52	0.05
416.724	0.06
416.929	0.02
417.133	0.17
417.337	0.06
417.541	0.04
417.745	0.12
417.949	0.1
418.153	0.1
418.357	0.01
418.561	0.13
418.765	0.02
418.969	0.16
419.173	0.08
419.377	0.04
419.581	0.16
419.785	0.02
419.989	0.04
420.193	0.01
420.397	0.03
420.601	0.11
420.804	0.08
421.008	0.08
421.212	0.07
421.416	0.07
421.62	0.02
421.823	0.04
422.027	0.12
422.231	0.06
422.435	0.02
422.638	-0
422.842	0.01
423.046	0
423.249	0.07
423.453	0.06
423.657	-0.01
423.86	-0.02
424.064	0.05
424.268	0.05
424.471	0.03
424.675	0.08
424.878	0.1
425.082	0.04
425.285	0.11
425.489	0.02
425.692	0.04
425.896	0.02
426.099	0.05
426.303	-0.01
426.506	-0.03
426.71	0.04
426.913	0.02
427.116	0.08
427.32	-0.02
427.523	0.05
427.726	0.09
427.93	-0.03
428.133	0.03
428.336	-0.02
428.54	-0.01
428.743	0.03
428.946	0.04
429.149	0.01
429.353	0.03
429.556	-0.02
429.759	-0.01
429.962	-0
430.165	0.04
430.368	0.02
430.571	-0.06
430.775	0.05
430.978	-0.02
431.181	0.07
431.384	0.05
431.587	-0.01
431.79	-0
431.993	0.03
432.196	-0.04
432.399	-0
432.602	0.12
432.805	-0
433.008	-0.06
433.211	-0.04
433.414	0.05
433.616	0.07
433.819	0
434.022	-0.08
434.225	0.07
434.428	0.01
434.631	0.12
434.833	0.03
435.036	0.02
435.239	0.11
435.442	0.03
435.645	0.01
435.847	-0.03
436.05	0.1
436.253	0.02
436.455	-0.03
436.658	0
436.861	0.11
437.063	-0.01
437.266	-0.01
437.468	0.06
437.671	0.15
437.874	0.01
438.076	-0.05
438.279	-0.03
438.481	0.03
438.684	-0.05
438.886	0.05
439.089	-0.07
439.291	-0.01
439.494	0.04
439.696	-0
439.899	0.04
440.101	0.03
440.303	-0.06
440.506	0.03
440.708	-0.01
440.91	0.05
441.113	-0.02
441.315	0.01
441.517	-0.04
441.72	0.06
441.922	0.01
442.124	-0
442.326	0.07
442.529	0.1
442.731	-0.03
442.933	0.11
443.135	0.07
443.337	-0.04
443.539	0.02
443.742	0.01
443.944	0.06
444.146	0.05
444.348	-0
444.55	0.02
444.752	0.02
444.954	-0.03
445.156	0.09
445.358	0.01
445.56	0.12
445.762	0.07
445.964	0.02
446.166	0.07
446.368	-0.01
446.57	0.06
446.772	0.06
446.974	0.02
447.175	0.07
447.377	0.02
447.579	0.05
447.781	-0.05
447.983	0.15
448.184	0.05
448.386	0.11
448.588	-0.01
448.79	0.09
448.991	-0.01
449.193	0.07
449.395	0.06
449.597	0.07
449.798	0.07
450	0.06
450.202	0.03
450.403	0.05
450.605	0.11
450.806	0.05
451.008	-0.02
451.21	0.07
451.411	0.04
451.613	0.03
451.814	0.05
452.016	0.07
452.217	0.09
452.419	0.06
452.62	0.07
452.821	0.05
453.023	0.14
453.224	0.11
453.426	0.02
453.627	0.07
453.828	0.09
454.03	0.01
454.231	0.09
454.432	0.01
454.634	0.12
454.835	0.02
455.036	-0.03
455.238	0.07
455.439	0.13
455.64	-0.07
455.841	0.06
456.042	0.13
456.244	0.07
456.445	0.01
456.646	-0.06
456.847	-0.03
457.048	0.04
457.249	0.11
457.45	0.15
457.651	-0.04
457.852	0.05
458.054	0
458.255	0
458.456	0.06
458.657	0.01
458.858	-0.03
459.058	0.02
459.259	0.11
459.46	-0.02
459.661	-0.02
459.862	0.12
460.063	-0.01
460.264	0.07
460.465	-0.05
460.666	0.1
460.866	-0
461.067	0.04
461.268	0.03
461.469	0
461.67	0.02
461.87	0
462.071	-0.01
462.272	-0.08
462.473	0.01
462.673	0.02
462.874	-0.06
463.075	0.06
463.275	-0.02
463.476	0.05
463.676	0.03
463.877	0
464.078	0.01
464.278	0.01
464.479	0.01
464.679	0.01
464.88	-0.04
465.08	0.05
465.281	-0.05
465.481	0.03
465.682	-0.03
465.882	0.08
466.083	-0.02
466.283	-0.02
466.483	0.03
466.684	-0.08
466.884	-0.06
467.085	-0.02
467.285	0.07
467.485	-0.05
467.686	-0.02
467.886	-0.05
468.086	-0.02
468.286	0.02
468.487	0.04
468.687	-0.04
468.887	-0
469.087	0.02
469.287	-0.03
469.488	-0.09
469.688	0.01
469.888	0.04
470.088	0.05
470.288	0.03
470.488	0.05
470.688	-0.06
470.888	-0.03
471.088	0.03
471.288	0.02
471.488	0.04
471.688	0.02
471.888	-0.02
472.088	0.06
472.288	0.01
472.488	-0.01
472.688	-0.03
472.888	0.01
473.088	-0
473.288	0.02
473.488	0
473.688	0.04
473.887	-0.01
474.087	-0.02
474.287	-0.04
474.487	-0.08
474.687	0
474.886	-0.03
475.086	-0.02
475.286	-0.02
475.486	-0.06
475.685	-0.02
475.885	-0.03
476.085	-0.02
476.284	0.03
476.484	-0.03
476.684	-0.03
476.883	0.03
477.083	0.02
477.282	-0.01
477.482	-0
477.681	0.06
477.881	-0.02
478.08	-0.02
478.28	-0.03
478.479	-0.01
478.679	0.08
478.878	-0.03
479.078	-0.04
479.277	-0.02
479.477	-0
479.676	0.03
479.875	0.01
480.075	-0.06
480.274	0.01
480.473	0.01
480.673	-0.05
480.872	0.02
481.071	0.01
481.271	0.02
481.47	-0.06
481.669	-0.02
481.868	-0.03
482.067	-0.04
482.267	-0.05
482.466	-0.01
482.665	-0.04
482.864	-0.05
483.063	-0.04
483.262	-0.01
483.461	0.04
483.661	0.03
483.86	-0.01
484.059	-0.01
484.258	-0
484.457	-0.04
484.656	-0
484.855	0.02
485.054	-0.02
485.253	-0.03
485.452	-0.04
485.651	-0.01
485.849	-0
486.048	-0.04
486.247	-0.02
486.446	-0
486.645	-0.04
486.844	-0.06
487.043	0
487.241	0.01
487.44	-0.04
487.639	-0.02
487.838	0
488.037	0.02
488.235	0.01
488.434	-0.01
488.633	-0.02
488.831	0.01
489.03	0.04
489.229	-0
489.427	-0.01
489.626	0.01
489.825	0.06
490.023	-0.02
490.222	-0.02
490.42	0.01
490.619	-0.01
490.817	0.01
491.016	-0.04
491.214	0.02
491.413	-0.02
491.611	-0
491.81	-0.02
492.008	0.04
492.207	0.01
492.405	-0.02
492.604	-0.06
492.802	-0.02
493	0.01
493.199	-0.04
493.397	-0.01
493.595	-0.01
493.794	-0.03
493.992	0.03
494.19	-0
494.388	0
494.587	-0
494.785	-0.01
494.983	-0.04
495.181	-0.02
495.379	-0.02
495.578	0
495.776	0.01
495.974	0.02
496.172	-0.02
496.37	-0.02
496.568	-0.02
496.766	-0.02
496.964	0.02
497.162	-0
497.36	-0.02
497.558	0.01
497.756	0.02
497.954	-0.02
498.152	-0.04
498.35	-0
498.548	-0.03
498.746	-0.01
498.944	-0.02
499.142	-0.02
499.34	-0.02
499.538	-0.02
499.736	-0.02
499.933	0.03
500.131	0.01
500.329	-0
500.527	0.02
500.725	-0
500.922	0.01
501.12	-0.01
501.318	-0.01
501.516	-0.02
501.713	0
501.911	-0.02
502.109	-0.03
502.306	0.01
502.504	-0.01
502.701	-0.02
502.899	-0.02
503.097	0.01
503.294	-0.03
503.492	-0.01
503.689	0
503.887	0
504.084	0.03
504.282	0.01
504.479	-0.03
504.677	-0.01
504.874	-0.03
505.072	-0.01
505.269	-0.03
505.466	0.01
505.664	0.02
505.861	-0.03
506.059	-0.03
506.256	0.01
506.453	-0.03
506.651	0.04
506.848	0.02
507.045	-0
507.242	-0.01
507.44	-0.02
507.637	-0
507.834	0
508.031	0.02
508.229	-0.03
508.426	-0.02
508.623	0.01
508.82	-0.02
509.017	-0.03
509.214	-0.01
509.411	-0.03
509.608	-0.04
509.805	-0
510.003	-0.03
510.2	-0.01
510.397	0.02
510.594	-0.03
510.791	-0.04
510.988	-0.01
511.184	0.02
511.381	-0.01
511.578	-0.02
511.775	0.03
511.972	-0.01
512.169	-0
512.366	-0.01
512.563	0.01
512.76	-0.01
512.956	0.01
513.153	-0.01
513.35	0
513.547	-0
513.744	-0.03
513.94	-0.03
514.137	0
514.334	-0.03
514.53	-0.01
514.727	-0.01
514.924	0.01
515.12	-0.01
515.317	-0.04
515.514	-0.03
515.71	-0.02
515.907	-0.01
516.103	-0.01
516.3	0.01
516.497	0.02
516.693	-0
516.89	-0.01
517.086	-0.04
517.283	0.02
517.479	-0
517.676	-0
517.872	-0.02
518.068	-0
518.265	-0.01
518.461	-0.01
518.658	-0.05
518.854	-0.01
519.05	-0.02
519.247	-0.03
519.443	0.01
519.639	-0
519.836	0
520.032	0.01
520.228	-0.01
520.424	0.03
520.621	-0.02
520.817	-0.01
521.013	-0
521.209	-0
521.405	0.03
521.601	-0.02
521.798	-0
521.994	0.01
522.19	-0.01
522.386	-0.04
522.582	-0.02
522.778	-0
522.974	-0.03
523.17	-0.01
523.366	0
523.562	0.03
523.758	-0.03
523.954	-0.03
524.15	-0.02
524.346	0
524.542	-0.04
524.738	-0.03
524.934	-0.02
525.129	-0.08
525.325	-0.01
525.521	-0.02
525.717	0.01
525.913	-0
526.109	-0.02
526.304	-0.02
526.5	0.01
526.696	0.02
526.892	-0.02
527.087	0.01
527.283	-0.02
527.479	0.01
527.674	-0.03
527.87	-0.01
528.066	-0.01
528.261	-0
528.457	-0
528.653	-0.01
528.848	-0
529.044	-0.01
529.239	-0.01
529.435	0.03
529.63	-0
529.826	0.05
530.021	0.01
530.217	0.01
530.412	-0.02
530.608	-0.01
530.803	-0.03
530.999	-0.01
531.194	-0.05
531.389	-0.01
531.585	-0.04
531.78	-0.03
531.975	-0.01
532.171	0.02
532.366	-0.02
532.561	-0.02
532.757	-0.03
532.952	-0.01
533.147	0.02
533.342	-0
533.538	-0.01
533.733	0.03
533.928	-0.02
534.123	-0.01
534.318	-0.03
534.513	-0.03
534.709	-0
534.904	-0.03
535.099	-0.01
535.294	-0.01
535.489	-0
535.684	-0
535.879	-0.04
536.074	0.02
536.269	-0.01
536.464	-0
536.659	-0.01
536.854	0
537.049	0
537.244	0.01
537.439	-0
537.634	0.01
537.828	-0.02
538.023	-0.01
538.218	-0.03
538.413	-0.01
538.608	-0.04
538.803	-0
538.997	-0.03
539.192	0.02
539.387	0.02
539.582	-0.01
539.776	-0.02
539.971	-0.02
540.166	0
540.36	-0.04
540.555	-0
540.75	-0.02
540.944	-0
541.139	-0.04
541.334	-0.02
541.528	0.01
541.723	0.04
541.917	-0.02
542.112	-0.04
542.306	-0.04
542.501	-0.02
542.695	-0.01
542.89	-0.02
543.084	-0.01
543.279	-0.03
543.473	-0.03
543.668	-0.02
543.862	-0.01
544.056	0.02
544.251	-0.02
544.445	-0
544.64	0
544.834	-0.02
545.028	-0.01
545.222	-0.01
545.417	0.01
545.611	-0.01
545.805	-0
546	-0
546.194	-0.01
546.388	-0.03
546.582	-0.02
546.776	-0.02
546.97	-0.03
547.165	-0
547.359	0
547.553	-0.02
547.747	-0.01
547.941	0.01
548.135	0.01
548.329	0.02
548.523	-0
548.717	-0.03
548.911	-0.03
549.105	-0.03
549.299	-0
549.493	0.01
549.687	0
549.881	0.02
550.075	-0.01
550.269	-0.04
550.463	0.01
550.657	-0.02
550.85	-0.01
551.044	-0.03
551.238	-0.01
551.432	-0.02
551.626	-0.03
551.82	-0.01
552.013	0.02
552.207	-0.02
552.401	0.01
552.594	-0
552.788	-0.01
552.982	-0.02
553.176	-0.03
553.369	0.01
553.563	0.01
553.756	-0.05
553.95	-0.02
554.144	-0
554.337	0.03
554.531	-0.02
554.724	-0
554.918	-0.02
555.111	-0.01
555.305	0
555.498	0.04
555.692	0
555.885	-0.02
556.079	-0
556.272	-0.03
556.466	0.03
556.659	0
556.852	-0.01
557.046	-0.03
557.239	0.02
557.432	-0.04
557.626	-0.04
557.819	-0
558.012	0.01
558.206	-0.03
558.399	-0.03
558.592	-0.01
558.785	-0.02
558.979	-0
559.172	-0.02
559.365	0.02
559.558	-0.04
559.751	0
559.944	0
560.138	0
560.331	-0.01
560.524	-0.02
560.717	-0.02
560.91	-0.02
561.103	0
561.296	0
561.489	-0
561.682	-0
561.875	0.04
562.068	0.02
562.261	-0
562.454	0.02
562.647	-0
562.84	-0.01
563.032	-0.01
563.225	-0.01
563.418	-0.02
563.611	-0.02
563.804	-0.02
563.997	-0.02
564.19	-0.04
564.382	0.02
564.575	-0
564.768	-0.02
564.961	-0.01
565.153	-0.02
565.346	0.01
565.539	-0.02
565.731	0.01
565.924	0.03
566.117	-0
566.309	-0.01
566.502	-0.03
566.695	-0.03
566.887	-0
567.08	-0.03
567.272	-0.01
567.465	-0.02
567.657	0
567.85	0.01
568.042	0.02
568.235	0
568.427	-0
568.62	-0
568.812	0.01
569.005	-0.01
569.197	-0.05
569.389	0.01
569.582	0
569.774	-0
569.966	-0.04
570.159	-0.05
570.351	0.01
570.543	-0.02
570.736	0
570.928	-0.04
571.12	0.01
571.312	-0.01
571.505	-0.04
571.697	0.02
571.889	-0.02
572.081	-0.01
572.273	-0.05
572.465	0.02
572.658	-0.02
572.85	0
573.042	-0.01
573.234	-0.01
573.426	0.03
573.618	-0.04
573.81	-0.01
574.002	0.02
574.194	0.05
574.386	-0.05
574.578	-0.08
574.77	-0.04
574.962	0
575.154	-0.06
575.346	-0.03
575.538	0.01
575.729	-0.03
575.921	-0.04
576.113	-0.03
576.305	0.02
576.497	-0.02
576.689	0.01
576.88	-0.04
577.072	-0.01
577.264	-0.02
577.456	-0.02
577.647	-0.08
577.839	-0.02
578.031	0.03
578.223	-0.04
578.414	-0.04
578.606	-0.01
578.798	0
578.989	-0.03
579.181	-0.01
579.372	0
579.564	-0.03
579.755	-0.01
579.947	-0.01
580.139	-0
580.33	-0.04
580.522	-0.01
580.713	-0.06
580.905	-0.02
581.096	-0.02
581.287	0
581.479	-0.01
581.67	0
581.862	-0.01
582.053	-0.03
582.244	-0.05
582.436	-0.01
582.627	-0.01
582.818	-0.03
583.01	-0.06
583.201	0.01
583.392	0.04
583.583	0
583.775	-0.02
583.966	-0.05
584.157	-0.01
584.348	-0.04
584.54	-0.05
584.731	0
584.922	-0.02
585.113	-0.02
585.304	0.03
585.495	0.01
585.686	-0.01
585.877	0.02
586.068	-0.02
586.259	0
586.45	-0.01
586.641	-0.02
586.832	-0.06
587.023	-0.01
587.214	-0
587.405	-0.01
587.596	-0.03
587.787	0.05
587.978	0.03
588.169	-0.03
588.36	-0.03
588.551	0.01
588.742	-0.03
588.932	0.02
589.123	-0.01
589.314	0.02
589.505	0.01
589.696	-0.01
589.886	-0.03
590.077	-0.05
590.268	-0
590.458	-0.05
590.649	-0.07
590.84	0.02
591.03	-0.03
591.221	-0.04
591.412	-0.06
591.602	0.01
591.793	0.03
591.984	-0.04
592.174	-0.02
592.365	0.05
592.555	-0.04
592.746	-0.01
592.936	0.01
593.127	-0.02
593.317	0.02
593.508	-0.04
593.698	-0.01
593.889	-0.01
594.079	-0.02
594.269	-0.02
594.46	0
594.65	-0.03
594.84	0
595.031	-0.03
595.221	-0.02
595.411	-0.05
595.602	-0
595.792	-0.02
595.982	-0.04
596.172	0.02
596.363	-0.01
596.553	-0.01
596.743	-0.03
596.933	0
597.123	0.02
597.314	-0.04
597.504	-0.05
597.694	0.02
597.884	0.01
598.074	-0.02
598.264	-0.04
598.454	-0.01
598.644	-0.03
598.834	-0.02
599.024	-0.09
599.214	-0.02
599.404	0.02
599.594	-0.04
599.784	-0.05
599.974	0.03
600.164	0.02
600.354	-0.03
600.544	-0.05
600.734	0.02
600.924	0.01
601.114	-0.05
601.303	-0
601.493	-0.01
601.683	-0.02
601.873	0.03
602.063	-0.08
602.252	-0
602.442	-0.1
602.632	-0.03
602.821	-0.05
603.011	-0.02
603.201	-0.03
603.39	-0.05
603.58	-0.05
603.77	-0.01
603.959	0.02
604.149	-0.01
604.339	-0.02
604.528	0.02
604.718	0.03
604.907	-0
605.097	-0.03
605.286	-0.08
605.476	0
605.665	-0.01
605.855	-0
606.044	0
606.234	-0.01
606.423	-0.04
606.612	-0.03
606.802	0
606.991	0
607.181	0.02
607.37	-0.05
607.559	-0.03
607.749	-0.03
607.938	-0.02
608.127	-0.06
608.316	-0.02
608.506	-0.02
608.695	-0.03
608.884	-0.03
609.073	-0.01
609.263	0.01
609.452	-0.02
609.641	-0.03
609.83	-0.03
610.019	-0.01
610.208	-0.03
610.397	-0.02
610.586	-0
610.775	-0.03
610.965	-0.02
611.154	-0.01
611.343	0
611.532	0
611.721	-0.05
611.91	-0.03
612.099	0.03
612.287	-0.03
612.476	-0.04
612.665	-0.01
612.854	-0.04
613.043	0.01
613.232	-0.04
613.421	-0.04
613.61	0.01
613.798	-0.05
613.987	0.01
614.176	-0.03
614.365	0.02
614.554	-0.01
614.742	-0.01
614.931	-0.03
615.12	-0
615.309	-0.03
615.497	0.01
615.686	-0.07
615.875	-0.02
616.063	-0.01
616.252	-0.02
616.44	-0.04
616.629	-0.02
616.818	0.03
617.006	-0.03
617.195	-0.05
617.383	0.01
617.572	-0
617.76	-0.03
617.949	-0.04
618.137	-0
618.326	-0.02
618.514	-0.03
618.703	-0.06
618.891	0.01
619.079	-0.06
619.268	0.01
619.456	-0.05
619.644	0.02
619.833	-0.04
620.021	-0.02
620.209	-0.03
620.398	0.01
620.586	0.01
620.774	0.03
620.962	-0.02
621.151	0.04
621.339	-0
621.527	-0.07
621.715	-0.04
621.903	-0.04
622.092	-0.03
622.28	0.01
622.468	-0.04
622.656	-0.01
622.844	0
623.032	-0.02
623.22	-0.08
623.408	0.03
623.596	-0.03
623.784	0.03
623.972	-0.06
624.16	-0.01
624.348	0.03
624.536	-0.02
624.724	-0.03
624.912	0.04
625.1	0.03
625.288	-0.03
625.476	-0.03
625.664	0.02
625.851	-0.02
626.039	-0.01
626.227	0.01
626.415	-0
626.603	-0.07
626.79	-0.02
626.978	-0.04
627.166	0.03
627.354	-0
627.541	-0.02
627.729	-0.06
627.917	-0
628.104	0.02
628.292	0.03
628.48	-0.01
628.667	-0.02
628.855	-0.01
629.042	0
629.23	0.01
629.418	-0.03
629.605	0.01
629.793	-0.02
629.98	-0.03
630.168	0.01
630.355	-0.03
630.543	-0
630.73	-0.03
630.917	0
631.105	0.02
631.292	-0.03
631.48	0.01
631.667	0.06
631.854	-0.02
632.042	-0.03
632.229	-0.01
632.416	0.02
632.604	-0
632.791	-0.03
632.978	0.03
633.165	0.02
633.353	0.07
633.54	0
633.727	-0.06
633.914	-0.02
634.101	-0.07
634.289	0
634.476	-0.02
634.663	-0.03
634.85	0.01
635.037	-0.05
635.224	-0.07
635.411	0.03
635.598	0.03
635.785	-0.01
635.972	0.01
636.159	0.02
636.346	-0.02
636.533	-0.01
636.72	-0
636.907	0.02
637.094	0.02
637.281	-0.03
637.468	0.03
637.655	-0
637.842	0.02
638.029	-0.03
638.215	0.05
638.402	0
638.589	-0.05
638.776	-0.01
638.963	-0.04
639.149	0.05
639.336	0.08
639.523	0.02
639.709	-0.02
639.896	-0
640.083	0.06
640.27	0.03
640.456	-0.02
640.643	0.04
640.829	-0.04
641.016	0
641.203	-0.01
641.389	0.05
641.576	0.01
641.762	0.02
641.949	-0.03
642.135	0.05
642.322	0.02
642.508	-0.02
642.695	0
642.881	0.01
643.068	-0
643.254	0.03
643.441	0.03
643.627	-0.02
643.813	-0
644	0.04
644.186	0.01
644.372	-0.02
644.559	0.05
644.745	0.03
644.931	-0.02
645.118	0.03
645.304	0.02
645.49	0.03
645.676	0
645.862	0.06
646.049	0.04
646.235	0.05
646.421	0.1
646.607	0.07
646.793	0.01
646.979	0.03
647.165	0.04
647.352	0.04
647.538	0.09
647.724	0.01
647.91	0.05
648.096	0.07
648.282	0.06
648.468	0.03
648.654	0.04
648.84	0.04
649.026	0.03
649.212	0.04
649.397	0.02
649.583	0
649.769	0.08
649.955	0.06
650.141	0.08
650.327	0.08
650.513	0.01
650.698	0.07
650.884	-0.02
651.07	0.1
651.256	0.05
651.442	0.04
651.627	0.07
651.813	0.05
651.999	0.06
652.184	0.07
652.37	0.04
652.556	0.04
652.741	0.12
652.927	0.03
653.113	0.06
653.298	0.07
653.484	0.07
653.669	-0
653.855	0.07
654.04	0.09
654.226	0.09
654.412	0.05
654.597	0.02
654.782	0.07
654.968	0.11
655.153	0.11
655.339	0.05
655.524	0.01
655.71	0.12
655.895	0.07
656.08	0.05
656.266	0.12
656.451	0.09
656.636	0.05
656.822	0.1
657.007	0.03
657.192	0.08
657.378	0.01
657.563	0.07
657.748	0.1
657.933	0.1
658.118	0.08
658.304	0.06
658.489	0.12
658.674	0.11
658.859	0.07
659.044	0.13
659.229	0.06
659.414	0.07
659.599	0.12
659.785	0.04
659.97	0.06
660.155	0.13
660.34	0.08
660.525	0.1
660.71	0.05
660.895	0.14
661.08	0.05
661.264	0.05
661.449	0.12
661.634	0.12
661.819	0.13
662.004	0.08
662.189	0
662.374	0.04
662.559	0.02
662.743	0.05
662.928	0.08
663.113	0.05
663.298	0
663.483	0.08
663.667	0.08
663.852	0.01
664.037	0.12
664.221	0.03
664.406	0.09
664.591	0.06
664.775	0.03
664.96	0.02
665.145	0.05
665.329	0.07
665.514	0.01
665.698	0
665.883	-0.03
666.068	0.06
666.252	0.02
666.437	-0.03
666.621	0.03
666.806	0.04
666.99	0.06
667.174	-0
667.359	0.05
667.543	0
667.728	0.01
667.912	-0.06
668.096	0.02
668.281	-0.04
668.465	-0
668.649	0.01
668.834	-0.04
669.018	0.04
669.202	-0.01
669.387	-0
669.571	0.05
669.755	-0.03
669.939	-0.02
670.124	-0.01
670.308	0.05
670.492	0.03
670.676	0.03
670.86	-0.02
671.044	-0.05
671.228	0.02
671.413	-0.02
671.597	0
671.781	-0.05
671.965	0.02
672.149	0.01
672.333	-0
672.517	-0.05
672.701	0.04
672.885	-0.02
673.069	-0.04
673.253	0.07
673.437	-0.05
673.621	-0.05
673.804	0.01
673.988	-0.01
674.172	-0.01
674.356	-0.06
674.54	-0.01
674.724	0.09
674.908	-0.03
675.091	0.01
675.275	-0.02
675.459	0.04
675.643	0.04
675.826	0.02
676.01	-0
676.194	-0.01
676.377	0.02
676.561	-0.02
676.745	0.02
676.928	0.04
677.112	0.02
677.296	-0.04
677.479	-0.02
677.663	-0.06
677.846	-0.02
678.03	0.01
678.213	-0.02
678.397	0
678.58	-0.07
678.764	-0.04
678.947	-0.05
679.131	-0.01
679.314	0.04
679.498	-0.03
679.681	-0
679.865	0.03
680.048	0.02
680.231	-0
680.415	-0.05
680.598	-0.01
680.781	-0.04
680.965	-0.09
681.148	0.02
681.331	-0.05
681.514	0.02
681.698	-0.02
681.881	0.01
682.064	-0.04
682.247	-0.02
682.43	-0.04
682.614	0.01
682.797	0.01
682.98	0.02
683.163	-0.06
683.346	-0.02
683.529	-0.02
683.712	-0.06
683.895	0.01
684.078	-0.09
684.261	-0.06
684.444	0.01
684.627	-0.03
684.81	-0.06
684.993	-0.01
685.176	0.05
685.359	-0.04
685.542	-0.04
685.725	0.06
685.908	0.03
686.091	-0.02
686.274	0
686.457	0
686.639	-0.01
686.822	-0.01
687.005	0.02
687.188	0.02
687.371	0.08
687.553	-0.02
687.736	-0
687.919	0.11
688.102	0.02
688.284	-0.02
688.467	-0.01
688.65	-0.01
688.832	-0.06
689.015	-0.01
689.197	-0.1
689.38	0.08
689.563	0.04
689.745	-0.08
689.928	-0.07
690.11	-0.01
690.293	0.03
690.475	-0.06
690.658	0.01
690.84	-0.02
691.023	-0.03
691.205	-0.05
691.388	-0
691.57	0.05
691.752	-0.02
691.935	-0.09
692.117	-0.02
692.3	-0.02
692.482	-0.09
692.664	0
692.847	-0.01
693.029	0.05
693.211	-0
693.393	-0.03
693.576	-0.03
693.758	0.03
693.94	-0.02
694.122	0.02
694.304	0.01
694.487	-0.01
694.669	0.05
694.851	-0.04
695.033	0.04
695.215	-0.08
695.397	-0.04
695.579	-0
695.761	-0.07
695.943	-0.11
696.125	0.1
696.308	0.02
696.49	-0.14
696.671	0.11
696.853	-0.04
697.035	0.12
697.217	0.01
697.399	0.04
697.581	-0.08
697.763	-0.06
697.945	-0.07
698.127	-0.02
698.309	0.02
698.491	-0.02
698.672	0.06
698.854	0.05
699.036	0.06
699.218	-0.04
699.399	0.03
699.581	0.01
699.763	0.02
699.945	-0.03
700.126	-0.07
700.308	0.04
700.49	-0.03
700.671	-0.11
700.853	-0.04
701.035	0.01
701.216	-0.02
701.398	-0.07
701.579	-0.04
701.761	0.06
701.943	-0.08
702.124	-0.05
702.306	-0.02
702.487	0.06
702.669	-0.04
702.85	-0.06
703.031	-0.04
703.213	0.09
703.394	-0
703.576	-0.01
703.757	0.08
703.938	0.02
704.12	0.11
704.301	0.02
704.483	-0.05
704.664	-0.05
704.845	0.07
705.026	0.06
705.208	-0.04
705.389	0.03
705.57	0.07
705.751	-0.01
705.933	-0.02
706.114	0.01
706.295	-0.04
706.476	-0.09
706.657	0.08
706.838	0
707.02	-0.01
707.201	-0.08
707.382	-0.08
707.563	0.05
707.744	-0.01
707.925	-0.11
708.106	0.01
708.287	0.06
708.468	0.11
708.649	0.01
708.83	-0.05
709.011	-0.06
709.192	0.06
709.373	-0.04
709.554	-0.08
709.734	0.07
709.915	0.01
710.096	0.04
710.277	-0.08
710.458	0.02
710.639	-0
710.819	-0.09
711	-0.05
711.181	0.01
711.362	0.02
711.542	0.06
711.723	0.03
711.904	0.02
712.085	-0.06
712.265	0.04
712.446	-0.09
712.627	-0.01
712.807	-0
712.988	0.02
713.168	-0.06
713.349	0.05
713.53	-0.11
713.71	-0.05
713.891	-0.07
714.071	0.04
714.252	-0.04
714.432	-0.03
714.613	-0.03
714.793	0.05
714.974	0.08
715.154	0.04
715.334	0.04
715.515	0.15
715.695	-0.03
715.876	-0.02
716.056	-0.07
716.236	-0.05
716.417	-0.04
716.597	-0.01
716.777	0.1
716.957	-0.01
717.138	0.05
717.318	0.08
717.498	-0.09
717.678	0.01
717.859	0.04
718.039	-0.04
718.219	0.04
718.399	-0.01
718.579	-0.08
718.759	-0.09
718.939	0.04
719.12	0.05
719.3	0.08
719.48	-0.1
719.66	-0.1
719.84	0.13
720.02	0.01
720.2	-0.09
720.38	0.06
720.56	0.08
720.74	-0.03
720.92	0.05
721.1	0.1
721.279	-0.04
721.459	0.02
721.639	-0.06
721.819	0.01
721.999	0
722.179	-0.01
722.359	-0.08
722.538	0.03
722.718	0.05
722.898	-0.04
723.078	-0.03
723.257	-0.01
723.437	0.07
723.617	0.02
723.797	-0.09
723.976	0.01
724.156	0.09
724.336	0.06
724.515	0.13
724.695	-0.1
724.874	-0.03
725.054	0.02
725.234	-0.04
725.413	-0.01
725.593	0.07
725.772	0.04
725.952	-0.05
726.131	-0.01
726.311	0.09
726.49	0.02
726.67	-0.02
726.849	-0.03
727.028	0.06
727.208	-0.07
727.387	0.05
727.567	-0.07
727.746	0
727.925	0.05
728.105	-0.03
728.284	0.03
728.463	-0
728.643	0.05
728.822	-0.03
729.001	0.02
729.18	0.05
729.359	0.13
729.539	0.1
729.718	0.11
729.897	0.09
730.076	0.04
730.255	-0.02
730.434	0.04
730.614	0.11
730.793	0.06
730.972	0.03
731.151	0.06
731.33	0.17
731.509	0.06
731.688	0.03
731.867	0.07
732.046	-0.08
732.225	0.22
732.404	-0.07
732.583	-0.04
732.762	0.07
732.941	0.14
733.12	0.03
733.298	-0.03
733.477	0.18
733.656	0.06
733.835	-0.1
734.014	0.14
734.193	-0.02
734.371	0.06
734.55	0.09
734.729	0.02
734.908	0.1
735.086	0.05
735.265	0.14
735.444	-0.06
735.623	-0.02
735.801	-0.07
735.98	0.05
736.159	0.09
736.337	0.14
736.516	0.12
736.694	0
736.873	0.07
737.052	0.17
737.23	0.16
737.409	0.04
737.587	0.27
737.766	-0.13
737.944	-0.02
738.123	0.11
738.301	0.03
738.479	0.1
738.658	0.04
738.836	-0.09
739.015	0.11
739.193	0.14
739.371	0.03
739.55	-0.07
739.728	-0.03
739.906	0.08
740.085	0.14
740.263	0.09
740.441	-0.14
740.62	0.23
740.798	0.13
740.976	-0.12
741.154	-0.06
741.332	0.12
741.511	-0.1
741.689	-0
741.867	0.12
742.045	-0.1
742.223	-0.01
742.401	-0.01
742.579	-0.03
742.757	0.16
742.935	-0.1
743.114	0.03
743.292	-0.09
743.47	0.08
743.648	0.03
743.826	0.14
744.004	0.08
744.181	0.12
744.359	-0.09
744.537	0.11
744.715	0.04
744.893	0.05
745.071	0.04
745.249	-0.03
745.427	0.05
745.605	0.06
745.782	0.04
745.96	0.04
746.138	0.03
746.316	0.12
746.493	0.01
746.671	0.03
746.849	-0.06
747.027	0.14
747.204	-0.13
747.382	0.14
747.56	-0.14
747.737	0.09
747.915	-0.19
748.093	-0.05
748.27	-0.07
748.448	-0.05
748.625	-0.1
748.803	0.03
748.98	-0.01
749.158	0.08
749.335	0.1
749.513	-0.04
749.69	0.01
749.868	-0.01
750.045	0.06
750.223	-0.09
750.4	-0.12
750.578	0.11
750.755	-0.03
750.932	-0.16
751.11	0.02
751.287	-0.1
751.464	0.01
751.642	-0.03
751.819	-0.02
751.996	-0.06
752.173	-0.07
752.351	-0.09
752.528	0.08
752.705	-0.13
752.882	-0.19
753.06	0.03
753.237	0.02
753.414	0.13
753.591	0.22
753.768	0.03
753.945	-0.03
754.122	-0.09
754.299	-0
754.476	-0.17
754.654	-0.07
754.831	-0.01
755.008	0.04
755.185	-0.09
755.362	-0.12
755.539	-0
755.716	-0.02
755.892	-0.06
756.069	0.03
756.246	-0.11
756.423	-0
756.6	0.13
756.777	0.02
756.954	0.06
757.131	-0.08
757.307	-0.26
757.484	-0.21
757.661	-0.03
757.838	-0.15
758.015	-0.21
758.191	0.12
758.368	-0.04
758.545	0.23
758.721	0.01
758.898	-0.2
759.075	-0
759.251	0.16
759.428	0.02
759.605	-0.26
759.781	-0.19
759.958	0.03
760.134	-0.03
760.311	-0.05
760.488	0.09
760.664	0.11
760.841	-0.11
761.017	-0.07
761.194	-0.01
761.37	-0.06
761.547	0.04
761.723	-0.05
761.899	0.19
762.076	-0.08
762.252	-0.15
762.429	-0.12
762.605	0.01
762.781	-0.07
762.958	0.01
763.134	-0.08
763.31	-0.06
763.486	0.07
763.663	-0.19
763.839	0.08
764.015	-0.23
764.191	-0.03
764.368	-0.02
764.544	-0.13
764.72	-0.04
764.896	0.14
765.072	0.12
765.248	-0.14
765.425	-0.1
765.601	-0.01
765.777	-0.02
765.953	-0.2
766.129	-0.09
766.305	-0.13
766.481	-0.01
766.657	-0
766.833	0.13
767.009	-0.17
767.185	-0.18
767.361	-0.04
767.537	-0.07
767.713	0.16
767.889	-0.17
768.065	-0.04
768.24	-0.13
768.416	0.03
768.592	-0.08
768.768	-0.13
768.944	-0.07
769.12	-0.12
769.295	-0.12
769.471	-0.1
769.647	-0.11
769.823	0.04
769.998	-0.18
770.174	-0.11
770.35	0.31
770.525	0.18
770.701	-0.05
770.877	-0.04
771.052	-0.06
771.228	-0.02
771.403	0.04
771.579	0
771.755	0.19
771.93	-0.21
772.106	-0.06
772.281	-0.24
772.457	0.06
772.632	-0.08
772.808	-0.23
772.983	0.09
773.159	-0.23
773.334	0.15
773.509	-0.1
773.685	-0.18
773.86	0.37
774.036	0.19
774.211	-0.07
774.386	-0.15
774.562	-0.01
774.737	-0.03
774.912	-0.05
775.087	0.02
775.263	0.07
775.438	-0.1
775.613	-0.15
775.788	-0.06
775.964	0.19
776.139	0.23
776.314	-0.07
776.489	-0.03
776.664	-0.08
776.839	-0.14
777.014	0.05
777.19	0.02
777.365	0.18
777.54	0.16
777.715	-0.14
777.89	-0.13
778.065	-0.21
778.24	-0.08
778.415	0.2
778.59	-0.25
778.765	-0.07
778.94	-0.2
779.115	-0.09
779.289	-0.08
779.464	-0.07
779.639	0.03
779.814	-0.2
779.989	-0.11
780.164	0.15
780.339	-0.13
780.513	-0.24
780.688	-0.04
780.863	-0.04
781.038	0.18
781.212	-0.14
781.387	-0.06
781.562	0.16
781.737	0.08
781.911	0.22
782.086	-0.1
782.261	-0.1
782.435	0.19
782.61	-0.09
782.784	-0.22
782.959	0.06
783.134	-0.06
783.308	-0.24
783.483	-0.05
783.657	0.2
783.832	0.15
784.006	-0.03
784.181	0.05
784.355	0.06
784.53	0.01
784.704	-0.15
784.878	0.31
785.053	0.02
785.227	-0.03
785.402	0.23
785.576	-0.25
785.75	-0.31
785.925	-0.04
786.099	-0.04
786.273	0.02
786.448	-0.08
786.622	-0.08
786.796	-0.08
786.97	0.03
787.145	0.39
787.319	0.02
787.493	-0.36
787.667	-0.41
787.841	-0.22
788.015	0.15
788.19	-0.1
788.364	-0.07
788.538	0.06
788.712	0.07
788.886	-0.13
789.06	0.17
789.234	-0.04
789.408	-0.27
789.582	-0.15
789.756	-0.04
789.93	-0.35
790.104	-0.05
790.278	-0.05
790.452	0
790.626	-0.05
790.8	-0.23
790.973	0.06
791.147	0.07
791.321	0.09
791.495	0.1
791.669	-0.06
791.843	-0.18
792.016	0.14
792.19	0.37
792.364	-0.27
792.538	0.27
792.711	0.14
792.885	-0.23
793.059	-0.23
793.233	-0.65
793.406	0.11
793.58	-0.06
793.754	-0.06
793.927	-0.2
794.101	0.14
794.274	0.25
794.448	0.14
794.622	-0.14
794.795	0.26
794.969	-0.16
795.142	0.26
795.316	-0.07
795.489	-0.02
795.663	0.26
795.836	-0.09
796.009	-0.32
796.183	0.01
796.356	0.04
796.53	0.02
796.703	-0.3
796.876	0.42
797.05	0.12
797.223	-0.12
797.396	0.11
797.57	-0.03
797.743	0.08
797.916	-0.22
798.09	-0.12
798.263	0.13
798.436	0.05
798.609	-0.24
798.782	-0.25
798.956	-0.19
799.129	-0
799.302	-0.1
799.475	-0.2
799.648	-0.36
799.821	-0.17
799.994	-0.09
800.167	-0.37
800.34	-0.11
800.514	-0.06
800.687	-0.12
800.86	-0.39
801.033	-0.29
801.206	-0.07
801.379	-0.39
801.551	0.21
801.724	0.13
801.897	0.18
802.07	-0.32
802.243	-0.36
802.416	-0.11
802.589	-0.16
802.762	-0
802.935	-0.04
803.107	0.01
803.28	0.06
803.453	0.13
803.626	-0.31
803.798	-0.13
803.971	-0.35
804.144	0.11
804.317	0.23
804.489	0.02
804.662	-0.09
804.835	-0.06
805.007	-0.34
805.18	0.29
805.353	-0.11
805.525	-0.47
805.698	-0.14
805.87	0.17
806.043	0.26
806.215	-0.56
806.388	-0.27
806.56	0.12
806.733	0.44
806.905	-0.05
807.078	0.03
807.25	-0.33
807.423	-0.19
807.595	0.15
807.768	-0.42
807.94	-0
808.112	-0.11
808.285	0.04
808.457	0.01
808.629	-0.18
808.802	0.16
808.974	0.04
809.146	-0.25
809.318	-0.8
809.491	0.26
809.663	0.12
809.835	-0.24
810.007	-0.37
810.18	-0.17
810.352	-0.58
810.524	-0.43
810.696	-0.26
810.868	0.26
811.04	-0.13
811.212	-0.09
811.384	0.3
811.556	-0.2
811.728	0.04
811.901	0.76
812.073	-0.08
812.245	0.13
812.417	-0.08
812.589	-0.68
812.76	0
812.932	0.13
813.104	0.05
813.276	-0.17
813.448	0.37
813.62	-0.35
813.792	0.31
813.964	0.23
814.136	0.36
814.307	-0.26
814.479	-0.67
814.651	-0.28
814.823	0.55
814.995	-0.19
815.166	-0.04
815.338	-0.42
815.51	-0.75
815.681	0.71
815.853	0.07
816.025	-0.41
816.196	0.29
816.368	-0.1
816.54	-0.53
816.711	-0.68
816.883	-0.17
817.054	0.24
817.226	-0.57
817.398	-0.38
817.569	-0.57
817.741	-0.06
817.912	-0.78
818.084	-0.11
818.255	-0.01
818.426	-0.07
818.598	-0.17
818.769	-0
818.941	0.16
819.112	0.67
819.283	0.24
819.455	-0.29
819.626	0.14
819.798	-0.19
819.969	0.05
820.14	0.02
820.311	0.03
820.483	0.22
820.654	-0.17
820.825	-0.21
820.996	-0.26
821.168	-0.6
821.339	-0
821.51	-0.32
821.681	-0.21
821.852	0.25
822.023	-0.24
822.195	-0.65
822.366	0.21
822.537	-0.34
822.708	-0
822.879	-0.69
823.05	0.28
823.221	-0.17
823.392	0.41
823.563	-0.51
823.734	-0.09
823.905	-0.11
824.076	-0.42
824.247	-0.59
824.418	-0.66
824.589	0.35
824.759	-0.48
824.93	-0.39
825.101	-0.73
825.272	0.03
825.443	0.54
825.614	0.58
825.784	-1.24
825.955	0.84
826.126	0.76
826.297	0.35
826.467	-0.04
826.638	0.31
826.809	-0.74
826.98	-0.36
827.15	0.39
827.321	0.01
827.492	0.63
827.662	0.1
827.833	1.03
828.003	0.36
828.174	-0.59
828.345	-1.08
828.515	0.31
828.686	0.05
828.856	-0.22
829.027	-0.11
829.197	0.03
829.368	0.31
829.538	-0.71
829.709	-0.17
829.879	-0.13
830.049	-0.09
830.22	-0.66
830.39	-0.3
830.56	0.43
830.731	-0.15
830.901	-0.21
831.072	-0.14
831.242	0.07
831.412	0.26
831.582	-0.41
831.753	-0.66
831.923	0.46
832.093	-0.14
832.263	0.12
832.434	-0.97
832.604	-0.36
832.774	-0.2
832.944	-0.58
833.114	-0.29
833.284	0.24
833.454	-0.66
833.624	-0.16
833.795	-0.59
833.965	0.63
834.135	0.76
834.305	-0.49
834.475	-0.34
834.645	-0.15
834.815	0.03
834.985	-0.56
835.155	-0.28
835.325	0.12
835.494	0.25
835.664	0.45
835.834	-1.01
836.004	0.29
836.174	0.45
836.344	-0.1
836.514	-1.32
836.684	-0.33
836.853	0.36
837.023	0.05
837.193	-0.65
837.363	0.07
837.532	0.22
837.702	-0.18
837.872	-0.86
838.041	-0.06
838.211	1.33
838.381	-1.21
838.55	0.39
838.72	1.16
838.89	1.02
839.059	-0.24
839.229	-0.43
839.398	1.7
839.568	0.84
839.738	-0.06
839.907	0.97
840.077	-0.14
840.246	-0.78
840.416	-1.13
840.585	-0.48
840.755	1.01
840.924	0.51
841.093	-0.61
841.263	-0.43
841.432	-0.4
841.602	-0.68
841.771	-0.72
841.94	-0.15
842.11	1.21
842.279	1.23
842.448	-0.1
842.617	-0.28
842.787	0.76
842.956	-1.05
843.125	-0.02
843.294	0.55
843.464	0.32
843.633	0.15
843.802	-0.87
843.971	-0.13
844.14	0.68
844.309	0.26
844.479	-0.74
844.648	-1.12
844.817	-0.83
844.986	-0.25
845.155	-0.38
845.324	-0.65
845.493	0.3
845.662	-1.19
845.831	0.49
846	0.27
846.169	-0.43
846.338	0.48
846.507	0.45
846.676	0.25
846.844	-0.77
847.013	0.25
847.182	0.18
847.351	-0.47
847.52	-0.58
847.689	-0.05
847.858	-0.3
848.026	-0.53
848.195	-0.4
848.364	-0.42
848.533	-0.36
848.701	-0.63
848.87	-0.35
849.039	-0
849.207	0.53
849.376	0.22
849.545	0.81
849.713	-0.09
849.882	0.02
850.051	0.2
850.219	0.14
850.388	0.32
850.556	-1.17
850.725	-1.15
850.893	-0.02
851.062	-0.99
851.23	0.71
851.399	-1.64
851.567	-0.68
851.736	0.09
851.904	0.28
852.073	-0.46
852.241	0.54
852.41	-0.39
852.578	0.01
852.746	-1.47
852.915	0.06
853.083	-0.99
853.251	-1.26
853.42	-1.06
853.588	-0
853.756	1.1
853.924	-0.6
854.093	-1.09
854.261	-0.55
854.429	-0.8
854.597	0.71
854.765	-0.45
854.934	0.19
855.102	0.03
855.27	-1.14
855.438	0.01
855.606	0.12
855.774	1.48
855.942	-1.47
856.11	-2
856.278	0.26
856.446	1.21
856.614	0.09
856.782	-0.23
856.95	0.2
857.118	0.57
857.286	0.68
857.454	-1.51
857.622	0.81
857.79	0.59
857.958	-0.87
858.126	-0.41
858.294	-2.86
858.462	0.28
858.629	-0.41
858.797	-0.41
858.965	-0.11
859.133	-0.74
859.301	-0.99
859.468	0.39
859.636	-1.51
859.804	1.12
859.971	0.41
860.139	-1.46
860.307	0.36
860.474	-0.7
860.642	-1.14
860.81	-0.9
860.977	-1.18
861.145	1.76
861.313	-0.74
861.48	-0.94
861.648	0.54
861.815	-1.01
861.983	-0.87
862.15	0.12
862.318	-0.35
862.485	-0.25
862.653	-0.42
862.82	-0.61
862.988	1.9
863.155	-0.99
863.322	-1.5
863.49	-2.18
863.657	-1.49
863.824	1.81
863.992	0.48
864.159	-0.74
864.326	1.01
864.494	-1.09
864.661	1.24
864.828	-2.13
864.996	0.75
865.163	0.19
865.33	-1.52
865.497	-2.39
865.664	-1.43
865.832	-2.51
865.999	-1.51
866.166	-1.82
866.333	0.06
866.5	-0.5
866.667	-0.42
866.834	-0.27
867.001	1.2
867.168	-1.73
867.335	-0.11
867.502	-1.03
867.669	-0.12
867.836	1.51
868.003	-0.58
868.17	0.2
868.337	-2.08
868.504	0.66
868.671	-1.75
868.838	-0.49
869.005	-0.07
869.172	-0.49
869.339	-0.93
869.505	-1.26
869.672	0.5
869.839	0.28
870.006	0.11
870.173	-2.05
870.339	-0.62
870.506	1.23
870.673	-1.81
870.84	1.57
871.006	1.88
871.173	-1.21
871.34	-0.58
871.506	-2.2
871.673	0.06
871.839	-2.85
872.006	-1.23
872.173	-1.6
872.339	0.21
872.506	-0.09
872.672	0.03
872.839	-2.7
873.005	0.65
873.172	1.8
873.338	-0.55
873.505	0.01
873.671	2.87
873.838	0.57
874.004	-1.79
874.171	-2.45
874.337	0.41
874.503	1.87
874.67	-0.54
874.836	-1.73
875.002	1.07
875.169	0.03
875.335	-1.16
875.501	-1.48
875.668	0.38
875.834	-2.04
876	0.08
876.166	-0.04
876.332	0.44
876.499	1.35
876.665	-1.78
876.831	-0.3
876.997	2.61
877.163	1.57
877.329	-0.5
877.495	-0.61
877.662	-0.15
877.828	-0.96
877.994	-1.92
878.16	-2.81
878.326	0.03
878.492	-1.56
878.658	-0.65
878.824	-0.21
878.99	-0.26
879.156	-0.68
879.322	2.27
879.487	-0.88
879.653	-1.63
879.819	-0
879.985	-1.31
880.151	1.19
880.317	0.41
880.483	-0.7
880.648	2.09
880.814	-3.74
880.98	-0.4
881.146	-2.29
881.312	-1.2
881.477	-2.13
881.643	0.62
881.809	1.31
881.974	0.63
882.14	-4.25
882.306	-0.32
882.471	1.78
882.637	-1.73
882.803	0.16
882.968	1.88
883.134	2.41
883.299	0.2
883.465	0.74
883.63	0.39
883.796	1.32
883.961	1.99
884.127	0.35
884.292	-4.12
884.458	-1.22
884.623	-1.22
