Data from Apollo_Calib_20240827__AbsoluteIrradiance__176__02-05-03-063.txt Node

Date: Wed Aug 28 02:05:03 BST 2024
User: biology
Spectrometer: FLMT08252
Trigger mode: 0
Integration Time (sec): 5.000000E-1
Scans to average: 5
Electric dark correction enabled: true
Nonlinearity correction enabled: false
Boxcar width: 0
XAxis mode: Wavelengths
Number of Pixels in Spectrum: 3648
>>>>>Begin Spectral Data<<<<<
179.588	-0
179.809	-0
180.03	-0
180.251	-0
180.473	-0
180.694	0
180.915	0
181.136	-0
181.357	0
181.578	-0
181.799	-0
182.02	-0
182.241	0
182.462	-0
182.683	0
182.904	-0
183.125	-0
183.346	0
183.567	0
183.788	-0
184.009	-0
184.23	0
184.451	0
184.672	-0
184.892	-0
185.113	0
185.334	0
185.555	-0
185.776	-0
185.996	0
186.217	-0
186.438	-0
186.659	-0
186.879	0
187.1	0
187.321	-0
187.541	-0
187.762	0
187.983	-0
188.203	-0
188.424	-0
188.644	-0
188.865	-0
189.086	-0
189.306	-0
189.527	-0
189.747	0
189.968	-0
190.188	0
190.409	0
190.629	0
190.849	-0
191.07	-0
191.29	0
191.511	0
191.731	-0
191.951	-0
192.172	-0
192.392	-0
192.612	-0
192.833	-0
193.053	0
193.273	0
193.493	-0
193.714	-0
193.934	0
194.154	0
194.374	-0
194.594	-0
194.815	0
195.035	0
195.255	0
195.475	-0
195.695	0
195.915	0
196.135	-0
196.355	0
196.575	0
196.795	0
197.015	-0
197.235	-0
197.455	-0
197.675	0
197.895	-0
198.115	-0
198.335	0
198.555	0
198.775	0
198.995	-0
199.214	0
199.434	0
199.654	-0
199.874	-0
200.094	0.56
200.313	-0.41
200.533	-1.05
200.753	-0.79
200.973	0.93
201.192	0.17
201.412	-0.97
201.632	-0.46
201.851	0.93
202.071	-0.41
202.291	-0.24
202.51	-0.47
202.73	0.57
202.95	-0.16
203.169	-0.9
203.389	0.05
203.608	0.06
203.828	-0.33
204.047	-0.24
204.267	-0.17
204.486	-0
204.706	0.29
204.925	0.3
205.145	-0.2
205.364	0.56
205.583	0.51
205.803	-0.39
206.022	-0.29
206.242	0.04
206.461	0.11
206.68	-0.43
206.9	-0.02
207.119	0.6
207.338	0.2
207.557	-0.32
207.777	-0.1
207.996	-0.25
208.215	0.56
208.434	0.03
208.654	-0.25
208.873	-0.02
209.092	0.71
209.311	-0.2
209.53	-0.09
209.749	-0.09
209.968	-0.2
210.187	-0.24
210.407	-0.51
210.626	0.08
210.845	0.19
211.064	-0.12
211.283	-0.3
211.502	0.37
211.721	0.24
211.94	-0.24
212.159	0.07
212.377	0.1
212.596	0.13
212.815	0.02
213.034	0.13
213.253	0.25
213.472	0.12
213.691	-0.19
213.91	-0.35
214.128	-0.2
214.347	0.41
214.566	-0.21
214.785	-0.3
215.003	0.24
215.222	0.13
215.441	-0.2
215.66	-0.29
215.878	-0.09
216.097	0.22
216.316	-0.19
216.534	-0.11
216.753	0.12
216.972	0.11
217.19	-0.01
217.409	-0.05
217.627	-0.13
217.846	-0.1
218.064	-0.19
218.283	-0.12
218.501	0.34
218.72	0.24
218.938	-0.37
219.157	-0.23
219.375	0.08
219.594	0.12
219.812	-0.32
220.031	-0.15
220.249	0.24
220.467	0.22
220.686	-0.03
220.904	-0.16
221.122	-0.31
221.341	0.16
221.559	-0.02
221.777	-0.33
221.995	-0.06
222.214	-0.01
222.432	-0.12
222.65	0.12
222.868	0.04
223.086	0.04
223.305	0.22
223.523	-0.02
223.741	0.14
223.959	-0.17
224.177	-0.21
224.395	-0.19
224.613	0.04
224.831	0.18
225.049	-0.2
225.267	-0.17
225.485	-0.04
225.703	-0.05
225.921	-0.04
226.139	-0.14
226.357	0.25
226.575	0.09
226.793	-0.21
227.011	0.48
227.229	-0.04
227.447	0.1
227.665	-0.06
227.883	-0.2
228.1	-0.08
228.318	0.01
228.536	-0.28
228.754	-0.12
228.972	0.05
229.189	0.08
229.407	-0
229.625	-0.08
229.843	0.19
230.06	0.13
230.278	-0.11
230.496	-0.03
230.713	0.12
230.931	0.18
231.149	-0.09
231.366	-0.16
231.584	0.07
231.801	0.33
232.019	-0.08
232.236	-0.07
232.454	-0.11
232.671	-0.03
232.889	-0.13
233.106	-0.15
233.324	-0.04
233.541	0.03
233.759	0.03
233.976	-0.08
234.194	-0.03
234.411	-0.05
234.628	-0.12
234.846	-0.12
235.063	-0.05
235.28	0.01
235.498	-0.04
235.715	-0.06
235.932	0.07
236.149	0.07
236.367	-0.09
236.584	0.01
236.801	-0.12
237.018	0.11
237.236	-0.07
237.453	-0.1
237.67	0.13
237.887	-0.08
238.104	-0.02
238.321	-0.05
238.538	-0.1
238.755	0.17
238.973	-0.13
239.19	0.06
239.407	0.1
239.624	0.05
239.841	-0.08
240.058	-0.03
240.275	0.08
240.492	-0.09
240.709	-0.07
240.925	-0.06
241.142	-0.07
241.359	-0.07
241.576	-0.12
241.793	-0.05
242.01	0
242.227	0.12
242.444	-0.02
242.66	0.06
242.877	0.04
243.094	-0.09
243.311	-0.03
243.527	-0.11
243.744	0.1
243.961	0.05
244.178	-0.06
244.394	0.01
244.611	0.04
244.828	0.19
245.044	-0.08
245.261	0.06
245.477	0.08
245.694	-0.02
245.911	-0.06
246.127	-0.02
246.344	0.13
246.56	0.06
246.777	0.02
246.993	-0.05
247.21	0.03
247.426	-0.01
247.643	-0.01
247.859	-0.08
248.076	-0.08
248.292	0.13
248.508	-0.03
248.725	0.09
248.941	0.02
249.157	0.09
249.374	-0.03
249.59	-0.04
249.806	-0.01
250.023	0.15
250.239	-0.1
250.455	-0.08
250.671	-0
250.888	0.05
251.104	0.06
251.32	-0.03
251.536	-0.08
251.752	-0.1
251.969	-0.07
252.185	0.05
252.401	0.14
252.617	0.03
252.833	0.02
253.049	-0.06
253.265	-0.01
253.481	0.05
253.697	-0.06
253.913	-0.07
254.129	0.02
254.345	0.07
254.561	-0.11
254.777	-0.03
254.993	0.08
255.209	0.08
255.425	-0
255.641	-0.05
255.857	0.12
256.073	0.02
256.288	-0.06
256.504	-0.07
256.72	0.01
256.936	0.1
257.152	-0.06
257.367	-0.1
257.583	0.02
257.799	0.06
258.015	-0.03
258.23	-0.05
258.446	0.17
258.662	-0.07
258.877	-0.04
259.093	-0.08
259.309	-0.03
259.524	0.05
259.74	-0.05
259.955	-0.14
260.171	-0.02
260.387	-0.03
260.602	0.02
260.818	0.01
261.033	-0.05
261.249	-0.08
261.464	-0.04
261.68	-0.09
261.895	0.06
262.11	0.07
262.326	-0.11
262.541	-0.11
262.757	0.08
262.972	0.06
263.187	0.06
263.403	0.01
263.618	0.11
263.833	0.04
264.049	-0.07
264.264	0.01
264.479	0.01
264.694	0.16
264.91	-0.02
265.125	-0.04
265.34	0.08
265.555	0.14
265.77	0
265.986	-0.04
266.201	-0.01
266.416	0.09
266.631	-0.05
266.846	-0.02
267.061	0.08
267.276	0.08
267.491	-0.12
267.706	0.06
267.921	0.07
268.136	0.04
268.351	0.02
268.566	-0.07
268.781	0.06
268.996	0.09
269.211	0.02
269.426	-0.07
269.641	-0.03
269.856	0.08
270.071	-0.08
270.285	-0.12
270.5	0.03
270.715	0.07
270.93	-0
271.145	0.03
271.359	0.08
271.574	-0.01
271.789	0.04
272.004	-0.1
272.218	-0.02
272.433	0.09
272.648	-0.05
272.862	0.08
273.077	-0
273.292	0.02
273.506	-0.02
273.721	-0.03
273.936	0.05
274.15	0.11
274.365	-0.01
274.579	0.07
274.794	0.03
275.008	0.04
275.223	-0.06
275.437	0.05
275.652	0.12
275.866	0.04
276.081	-0.03
276.295	0.06
276.509	0.01
276.724	-0.01
276.938	0.03
277.153	0.01
277.367	-0.06
277.581	0.02
277.796	-0.04
278.01	-0.03
278.224	0.03
278.438	0.11
278.653	-0.06
278.867	-0.04
279.081	0.03
279.295	-0.04
279.51	0.09
279.724	-0.09
279.938	0.06
280.152	0.09
280.366	-0.04
280.58	0.04
280.794	0.1
281.008	0.03
281.222	0.06
281.437	0.13
281.651	0.05
281.865	0.1
282.079	-0.03
282.293	-0.05
282.507	0.05
282.721	0.03
282.935	-0.04
283.148	-0.08
283.362	-0.01
283.576	-0.03
283.79	0.01
284.004	-0.04
284.218	0.05
284.432	-0.03
284.646	-0.02
284.859	-0.02
285.073	-0.01
285.287	0.02
285.501	-0.05
285.714	0.02
285.928	0
286.142	0.03
286.356	-0.04
286.569	0.01
286.783	0.08
286.997	-0
287.21	0.02
287.424	0.01
287.637	0.01
287.851	-0.01
288.065	0.04
288.278	-0.01
288.492	0.04
288.705	-0.01
288.919	0.03
289.132	-0.1
289.346	0.08
289.559	-0.02
289.773	-0.07
289.986	0.03
290.2	-0.02
290.413	0.04
290.626	-0.05
290.84	-0.02
291.053	0.03
291.267	0.07
291.48	-0.02
291.693	0.01
291.906	-0.03
292.12	-0.02
292.333	-0.06
292.546	-0.02
292.76	0.08
292.973	0.03
293.186	0.06
293.399	-0.05
293.612	0.07
293.826	-0.04
294.039	0
294.252	0.04
294.465	0.01
294.678	0.03
294.891	0.05
295.104	-0.04
295.317	0.03
295.53	0.02
295.743	0.03
295.956	0.03
296.169	0.04
296.382	0.06
296.595	0
296.808	-0.06
297.021	0.08
297.234	0.06
297.447	-0.01
297.66	0.07
297.873	0.07
298.086	0.04
298.299	-0.04
298.511	-0.02
298.724	0.06
298.937	-0
299.15	-0.01
299.363	0.01
299.575	0.05
299.788	-0
300.001	-0.01
300.213	-0.07
300.426	-0.01
300.639	-0.02
300.852	-0.04
301.064	0.05
301.277	0.05
301.489	0.07
301.702	0.03
301.915	0.02
302.127	0.01
302.34	0.05
302.552	0
302.765	-0.05
302.977	0.04
303.19	-0.01
303.402	-0.03
303.615	0
303.827	-0.06
304.04	0.01
304.252	0.08
304.464	-0.03
304.677	0.06
304.889	0.04
305.102	-0.05
305.314	-0.03
305.526	0.04
305.739	0.01
305.951	-0.04
306.163	-0.04
306.375	0.09
306.588	-0.02
306.8	0
307.012	-0.06
307.224	0.03
307.436	0.1
307.649	-0.06
307.861	0.05
308.073	0.07
308.285	0
308.497	-0.03
308.709	-0.03
308.921	0.04
309.133	0.02
309.346	-0.01
309.558	0
309.77	0.05
309.982	0.09
310.194	0.03
310.406	-0.02
310.617	0.05
310.829	0.02
311.041	0.03
311.253	-0.04
311.465	-0.01
311.677	0.03
311.889	-0.01
312.101	-0.03
312.313	0.06
312.524	0.06
312.736	-0.05
312.948	-0.02
313.16	0.08
313.372	0.07
313.583	0.03
313.795	0
314.007	-0.01
314.218	0.08
314.43	0.01
314.642	0.01
314.853	0
315.065	0
315.277	0.01
315.488	0.05
315.7	0.03
315.912	0.02
316.123	0.01
316.335	-0
316.546	0.13
316.758	0.01
316.969	-0.05
317.181	0.02
317.392	0.03
317.604	0.06
317.815	-0.04
318.026	-0.03
318.238	-0.01
318.449	0
318.661	-0.06
318.872	-0.04
319.083	-0.05
319.295	0.02
319.506	-0.02
319.717	0.01
319.929	0.01
320.14	0.02
320.351	0.01
320.562	0
320.774	-0
320.985	-0.02
321.196	-0.03
321.407	-0.02
321.618	0.07
321.829	0.04
322.041	0.03
322.252	0.01
322.463	0.01
322.674	0.06
322.885	-0.03
323.096	-0.05
323.307	0.03
323.518	0.02
323.729	0.01
323.94	-0.02
324.151	-0.04
324.362	0.05
324.573	0.04
324.784	0
324.995	0.07
325.206	0.02
325.417	-0.02
325.628	0.04
325.838	0.01
326.049	0.06
326.26	0.04
326.471	-0
326.682	0.07
326.892	0.02
327.103	-0.06
327.314	-0.02
327.525	0.05
327.735	-0.01
327.946	0
328.157	-0.02
328.368	0.02
328.578	0.03
328.789	0.05
328.999	0.05
329.21	-0.01
329.421	0.08
329.631	-0.01
329.842	-0
330.052	0.04
330.263	0.04
330.473	0.03
330.684	0.02
330.894	0
331.105	0.07
331.315	0.03
331.526	-0.06
331.736	0.09
331.947	0.04
332.157	0.03
332.367	0.02
332.578	0.01
332.788	0.06
332.999	0.07
333.209	0.04
333.419	-0.04
333.629	0.1
333.84	-0.02
334.05	0.02
334.26	0.07
334.47	-0.05
334.681	0.05
334.891	0.02
335.101	0.06
335.311	0.08
335.521	0.01
335.732	-0
335.942	0.04
336.152	0
336.362	0.05
336.572	0.02
336.782	0.05
336.992	-0.02
337.202	-0.02
337.412	-0.01
337.622	0.04
337.832	0.01
338.042	0.02
338.252	-0.01
338.462	0.06
338.672	0
338.882	-0.02
339.092	-0.02
339.302	0.06
339.511	0.02
339.721	0.01
339.931	-0.06
340.141	0.04
340.351	0.05
340.561	0.04
340.77	-0.02
340.98	-0.01
341.19	0.04
341.4	0.01
341.609	-0.04
341.819	-0.01
342.029	-0.06
342.238	0.01
342.448	-0.01
342.658	0.01
342.867	0.01
343.077	0.01
343.286	0.07
343.496	0.05
343.706	0.04
343.915	-0.01
344.125	0.01
344.334	0.05
344.544	-0.06
344.753	0.01
344.963	0.01
345.172	0.01
345.381	0.01
345.591	0.01
345.8	0.02
346.01	0.07
346.219	0.13
346.428	-0.09
346.638	0.02
346.847	0.05
347.056	0.08
347.266	-0.01
347.475	0
347.684	0.07
347.893	-0.01
348.103	0.04
348.312	0.02
348.521	-0
348.73	0.06
348.94	-0.01
349.149	-0.01
349.358	0.02
349.567	-0.03
349.776	-0.04
349.985	-0.01
350.194	0.06
350.403	0.07
350.612	-0.05
350.821	0
351.03	0.02
351.239	-0.04
351.448	0.04
351.657	0
351.866	0.07
352.075	0.05
352.284	0.02
352.493	-0.05
352.702	0.07
352.911	0.04
353.12	0.01
353.329	-0.02
353.538	0.06
353.746	0.02
353.955	-0
354.164	0.06
354.373	0.03
354.582	0.03
354.79	0.04
354.999	0.02
355.208	0.05
355.416	0.05
355.625	-0.04
355.834	-0.02
356.042	-0
356.251	0.03
356.46	-0.01
356.668	0
356.877	0.08
357.085	0.08
357.294	-0.07
357.503	0.03
357.711	0.08
357.92	0.16
358.128	0.05
358.337	0.02
358.545	0.09
358.754	0.04
358.962	0.05
359.17	-0.02
359.379	0.05
359.587	0.01
359.796	0.03
360.004	0.09
360.212	0.03
360.421	0.08
360.629	-0.01
360.837	0
361.046	0.08
361.254	0.11
361.462	0.03
361.67	0.01
361.879	0.05
362.087	0.06
362.295	-0.01
362.503	0.04
362.711	-0.02
362.92	-0
363.128	-0
363.336	0.01
363.544	-0.03
363.752	-0
363.96	-0.01
364.168	-0.01
364.376	-0.02
364.584	0.05
364.792	0.08
365	0.04
365.208	0.03
365.416	0.06
365.624	0.08
365.832	-0
366.04	0.08
366.248	0.05
366.456	0.05
366.664	0.04
366.872	0.05
367.079	-0.02
367.287	-0.01
367.495	0.03
367.703	0.06
367.911	0.01
368.118	-0.01
368.326	-0.02
368.534	0.04
368.742	0.12
368.949	-0.01
369.157	0.02
369.365	0.03
369.572	0.01
369.78	-0.02
369.988	0.03
370.195	0.06
370.403	0.11
370.61	0.01
370.818	0.02
371.026	0.08
371.233	-0.02
371.441	0.05
371.648	0.03
371.856	0.07
372.063	0.08
372.271	-0
372.478	-0
372.685	0.03
372.893	0.09
373.1	-0
373.308	-0.01
373.515	0.12
373.722	0.08
373.93	0.02
374.137	0.05
374.344	0.07
374.552	0.08
374.759	0.06
374.966	0.08
375.173	0.01
375.381	0.06
375.588	0.02
375.795	-0.02
376.002	0
376.209	-0.01
376.417	0.02
376.624	0.02
376.831	0.06
377.038	0.05
377.245	-0.03
377.452	0.05
377.659	0.02
377.866	0.01
378.073	0.02
378.28	-0
378.487	0.05
378.694	0.08
378.901	0.01
379.108	0.06
379.315	0.1
379.522	0.14
379.729	0.05
379.936	0.05
380.143	0.04
380.35	0.03
380.557	0.05
380.763	0.08
380.97	0.07
381.177	0.06
381.384	0.08
381.591	0.03
381.797	0.08
382.004	0.08
382.211	0.07
382.418	0.07
382.624	0.08
382.831	0.08
383.038	0.04
383.244	0.09
383.451	0.08
383.658	0.1
383.864	0.06
384.071	0.08
384.277	0.17
384.484	0.07
384.69	0.14
384.897	0.08
385.103	0.11
385.31	0.04
385.516	0.12
385.723	0.08
385.929	0.15
386.136	0.09
386.342	0.15
386.549	0.12
386.755	0.14
386.961	0.17
387.168	0.12
387.374	0.16
387.58	0.19
387.787	0.22
387.993	0.22
388.199	0.2
388.406	0.2
388.612	0.19
388.818	0.2
389.024	0.23
389.231	0.28
389.437	0.33
389.643	0.26
389.849	0.27
390.055	0.3
390.261	0.33
390.467	0.37
390.674	0.27
390.88	0.38
391.086	0.4
391.292	0.3
391.498	0.46
391.704	0.43
391.91	0.49
392.116	0.46
392.322	0.42
392.528	0.59
392.734	0.52
392.94	0.61
393.146	0.66
393.352	0.65
393.557	0.65
393.763	0.66
393.969	0.76
394.175	0.79
394.381	0.84
394.587	0.83
394.792	0.92
394.998	1.05
395.204	1.06
395.41	1.08
395.615	1.13
395.821	1.28
396.027	1.27
396.233	1.35
396.438	1.43
396.644	1.6
396.85	1.65
397.055	1.62
397.261	1.78
397.466	1.98
397.672	1.96
397.878	2.02
398.083	2.15
398.289	2.13
398.494	2.32
398.7	2.41
398.905	2.34
399.111	2.64
399.316	2.62
399.522	2.82
399.727	2.91
399.932	3.01
400.138	3.08
400.343	3.35
400.549	3.38
400.754	3.63
400.959	3.74
401.165	4.02
401.37	4.1
401.575	4.52
401.78	4.48
401.986	4.68
402.191	4.87
402.396	5.1
402.601	5.32
402.807	5.54
403.012	5.71
403.217	6.07
403.422	6.11
403.627	6.37
403.832	6.71
404.037	6.75
404.243	6.84
404.448	7.14
404.653	7.29
404.858	7.54
405.063	7.41
405.268	7.76
405.473	7.81
405.678	7.94
405.883	8.47
406.088	8.39
406.293	8.42
406.498	8.54
406.703	8.48
406.907	8.75
407.112	8.97
407.317	9.22
407.522	9.35
407.727	9.37
407.932	9.44
408.136	9.69
408.341	9.41
408.546	9.44
408.751	9.5
408.956	9.25
409.16	9.55
409.365	9.44
409.57	9.05
409.774	9.09
409.979	8.93
410.184	8.84
410.388	8.6
410.593	8.72
410.798	8.61
411.002	8.56
411.207	8.24
411.411	8.15
411.616	7.9
411.82	7.77
412.025	7.49
412.229	7.33
412.434	7.26
412.638	6.96
412.843	6.81
413.047	6.4
413.252	6.25
413.456	6.38
413.66	6.09
413.865	5.82
414.069	5.74
414.273	5.62
414.478	5.37
414.682	5.27
414.886	5.04
415.091	4.88
415.295	4.78
415.499	4.69
415.703	4.41
415.908	4.5
416.112	4.24
416.316	4.36
416.52	4
416.724	3.94
416.929	3.92
417.133	3.94
417.337	3.69
417.541	3.66
417.745	3.65
417.949	3.51
418.153	3.47
418.357	3.31
418.561	3.49
418.765	3.23
418.969	3.21
419.173	3.17
419.377	3
419.581	3.05
419.785	2.87
419.989	2.81
420.193	2.87
420.397	2.66
420.601	2.74
420.804	2.72
421.008	2.59
421.212	2.55
421.416	2.36
421.62	2.31
421.823	2.24
422.027	2.28
422.231	2.13
422.435	2.02
422.638	1.98
422.842	1.87
423.046	1.83
423.249	1.84
423.453	1.78
423.657	1.71
423.86	1.64
424.064	1.59
424.268	1.6
424.471	1.49
424.675	1.6
424.878	1.51
425.082	1.43
425.285	1.45
425.489	1.32
425.692	1.3
425.896	1.17
426.099	1.29
426.303	1.18
426.506	1.1
426.71	1.14
426.913	1.2
427.116	1.16
427.32	1.02
427.523	1.04
427.726	1.02
427.93	0.96
428.133	1.02
428.336	0.97
428.54	0.95
428.743	0.95
428.946	0.97
429.149	0.89
429.353	0.92
429.556	0.86
429.759	0.83
429.962	0.75
430.165	0.83
430.368	0.71
430.571	0.65
430.775	0.74
430.978	0.65
431.181	0.67
431.384	0.65
431.587	0.64
431.79	0.67
431.993	0.6
432.196	0.6
432.399	0.57
432.602	0.69
432.805	0.57
433.008	0.61
433.211	0.55
433.414	0.61
433.616	0.63
433.819	0.57
434.022	0.49
434.225	0.62
434.428	0.58
434.631	0.7
434.833	0.55
435.036	0.53
435.239	0.55
435.442	0.51
435.645	0.45
435.847	0.49
436.05	0.51
436.253	0.45
436.455	0.42
436.658	0.46
436.861	0.48
437.063	0.4
437.266	0.39
437.468	0.47
437.671	0.52
437.874	0.4
438.076	0.33
438.279	0.32
438.481	0.38
438.684	0.35
438.886	0.41
439.089	0.27
439.291	0.37
439.494	0.34
439.696	0.33
439.899	0.31
440.101	0.39
440.303	0.23
440.506	0.38
440.708	0.31
440.91	0.36
441.113	0.26
441.315	0.32
441.517	0.24
441.72	0.41
441.922	0.23
442.124	0.22
442.326	0.33
442.529	0.37
442.731	0.23
442.933	0.38
443.135	0.19
443.337	0.23
443.539	0.26
443.742	0.21
443.944	0.25
444.146	0.21
444.348	0.22
444.55	0.2
444.752	0.23
444.954	0.16
445.156	0.22
445.358	0.15
445.56	0.25
445.762	0.18
445.964	0.2
446.166	0.17
446.368	0.14
446.57	0.22
446.772	0.18
446.974	0.19
447.175	0.24
447.377	0.12
447.579	0.19
447.781	0.11
447.983	0.21
448.184	0.15
448.386	0.17
448.588	0.07
448.79	0.2
448.991	0.13
449.193	0.13
449.395	0.15
449.597	0.16
449.798	0.23
450	0.15
450.202	0.14
450.403	0.13
450.605	0.16
450.806	0.11
451.008	0.06
451.21	0.18
451.411	0.13
451.613	0.13
451.814	0.11
452.016	0.15
452.217	0.16
452.419	0.18
452.62	0.16
452.821	0.16
453.023	0.17
453.224	0.16
453.426	0.14
453.627	0.16
453.828	0.17
454.03	0.08
454.231	0.2
454.432	0.09
454.634	0.27
454.835	0.11
455.036	0.1
455.238	0.17
455.439	0.2
455.64	0.07
455.841	0.11
456.042	0.27
456.244	0.16
456.445	0.1
456.646	0.06
456.847	0.14
457.048	0.17
457.249	0.19
457.45	0.36
457.651	0.01
457.852	0.18
458.054	0.08
458.255	0.12
458.456	0.12
458.657	0.14
458.858	0.09
459.058	0.1
459.259	0.16
459.46	0.11
459.661	0.07
459.862	0.26
460.063	0.07
460.264	0.2
460.465	0.09
460.666	0.24
460.866	0.13
461.067	0.14
461.268	0.11
461.469	0.12
461.67	0.14
461.87	0.12
462.071	0.07
462.272	0.05
462.473	0.13
462.673	0.17
462.874	0.08
463.075	0.13
463.275	0.08
463.476	0.17
463.676	0.09
463.877	0.12
464.078	0.12
464.278	0.18
464.479	0.11
464.679	0.11
464.88	0.11
465.08	0.2
465.281	0.07
465.481	0.11
465.682	0.09
465.882	0.14
466.083	0.11
466.283	0.14
466.483	0.09
466.684	0.08
466.884	0.1
467.085	0.1
467.285	0.2
467.485	0.08
467.686	0.11
467.886	0.06
468.086	0.11
468.286	0.11
468.487	0.13
468.687	0.07
468.887	0.08
469.087	0.11
469.287	0.07
469.488	0.05
469.688	0.13
469.888	0.13
470.088	0.14
470.288	0.17
470.488	0.13
470.688	0.03
470.888	0.08
471.088	0.02
471.288	0.1
471.488	0.12
471.688	0.13
471.888	0.06
472.088	0.16
472.288	0.1
472.488	0.06
472.688	0.07
472.888	0.11
473.088	0.1
473.288	0.08
473.488	0.06
473.688	0.2
473.887	0.11
474.087	0.02
474.287	0.07
474.487	0.03
474.687	0.09
474.886	0.06
475.086	0.08
475.286	0.09
475.486	0.07
475.685	0.03
475.885	0.08
476.085	0.08
476.284	0.09
476.484	0.04
476.684	0.06
476.883	0.12
477.083	0.1
477.282	0.04
477.482	0.12
477.681	0.11
477.881	0.06
478.08	0.02
478.28	0.01
478.479	0.08
478.679	0.13
478.878	0.04
479.078	0.04
479.277	0.06
479.477	0.08
479.676	0.09
479.875	0.03
480.075	-0.04
480.274	0.11
480.473	0.07
480.673	0.04
480.872	0.11
481.071	0.06
481.271	0.07
481.47	0.04
481.669	0.05
481.868	0.05
482.067	0.04
482.267	0.02
482.466	0.02
482.665	0.03
482.864	0.01
483.063	-0.02
483.262	0.07
483.461	0.13
483.661	0.08
483.86	0.03
484.059	0.07
484.258	0.06
484.457	0.04
484.656	0.03
484.855	0.09
485.054	0.01
485.253	0.01
485.452	0.01
485.651	0.06
485.849	0.06
486.048	0.03
486.247	-0.02
486.446	0.06
486.645	0.01
486.844	0.01
487.043	0.05
487.241	0.07
487.44	0.02
487.639	0.05
487.838	0.06
488.037	0.05
488.235	0.09
488.434	0.05
488.633	0.01
488.831	0.04
489.03	0.06
489.229	0.06
489.427	0.01
489.626	0.06
489.825	0.1
490.023	0.04
490.222	0.02
490.42	0.05
490.619	0.08
490.817	0.04
491.016	0.02
491.214	0.08
491.413	0.03
491.611	0.02
491.81	0.03
492.008	0.04
492.207	0.06
492.405	0.04
492.604	0.01
492.802	0.01
493	0.05
493.199	0.04
493.397	0.03
493.595	0.04
493.794	0.04
493.992	0.11
494.19	0.03
494.388	0.05
494.587	0.02
494.785	0.03
494.983	0.01
495.181	0.03
495.379	0.06
495.578	0.03
495.776	0.05
495.974	0.06
496.172	0.02
496.37	0.01
496.568	-0
496.766	0.01
496.964	0.06
497.162	0.03
497.36	-0
497.558	0.06
497.756	0.06
497.954	0.03
498.152	-0.02
498.35	0.01
498.548	0.03
498.746	0.02
498.944	-0
499.142	0.01
499.34	-0.01
499.538	0.02
499.736	-0
499.933	0.07
500.131	0.05
500.329	0.03
500.527	0.06
500.725	0.09
500.922	0.06
501.12	0.04
501.318	0.05
501.516	0.02
501.713	0.05
501.911	0.03
502.109	-0
502.306	0.04
502.504	0.03
502.701	0
502.899	0.01
503.097	0.06
503.294	0.02
503.492	0.02
503.689	0.04
503.887	0.04
504.084	0.07
504.282	0.03
504.479	0.02
504.677	0.04
504.874	-0.02
505.072	0.03
505.269	0.03
505.466	0.03
505.664	0.05
505.861	-0.02
506.059	0.02
506.256	0.05
506.453	0.01
506.651	0.07
506.848	0.04
507.045	0.04
507.242	0.03
507.44	0.03
507.637	0.01
507.834	0.03
508.031	0.04
508.229	-0
508.426	-0
508.623	0.06
508.82	0
509.017	0.01
509.214	0
509.411	0.03
509.608	-0.01
509.805	0.02
510.003	0.02
510.2	-0.02
510.397	0.05
510.594	0.01
510.791	-0.01
510.988	0
511.184	0.04
511.381	0.03
511.578	-0
511.775	0.06
511.972	0.02
512.169	0.02
512.366	0
512.563	0.03
512.76	0.02
512.956	0.04
513.153	0.02
513.35	0
513.547	0
513.744	0
513.94	-0.01
514.137	0.03
514.334	0.02
514.53	-0
514.727	0.02
514.924	0.04
515.12	-0
515.317	-0.03
515.514	-0.01
515.71	-0.01
515.907	0
516.103	0.01
516.3	0.04
516.497	0.05
516.693	0.02
516.89	0.03
517.086	-0.01
517.283	0.03
517.479	0.03
517.676	0
517.872	0.03
518.068	0
518.265	0.01
518.461	-0
518.658	-0.01
518.854	0.04
519.05	0.01
519.247	-0
519.443	0.03
519.639	0.03
519.836	0.01
520.032	0.02
520.228	0.02
520.424	0.07
520.621	0.02
520.817	0.01
521.013	0.05
521.209	0
521.405	0.06
521.601	0.01
521.798	0.03
521.994	0.06
522.19	0
522.386	-0.01
522.582	0.01
522.778	0
522.974	0
523.17	0.02
523.366	0.02
523.562	0.04
523.758	0.01
523.954	0
524.15	0
524.346	0.02
524.542	0.01
524.738	-0.03
524.934	0.01
525.129	0.02
525.325	0.01
525.521	0.01
525.717	0.04
525.913	0.02
526.109	0.02
526.304	0.01
526.5	0.03
526.696	0.05
526.892	0.01
527.087	0.02
527.283	-0
527.479	0.04
527.674	-0
527.87	-0.01
528.066	0.01
528.261	0.03
528.457	0.03
528.653	0.03
528.848	-0.01
529.044	0.04
529.239	0.02
529.435	0.04
529.63	0.04
529.826	0.07
530.021	0.02
530.217	0.05
530.412	0
530.608	-0.01
530.803	-0
530.999	0
531.194	-0.05
531.389	0.02
531.585	-0.04
531.78	0.01
531.975	0.01
532.171	0.03
532.366	0
532.561	-0
532.757	-0.01
532.952	0.03
533.147	0.03
533.342	0.03
533.538	-0
533.733	0.04
533.928	-0
534.123	-0
534.318	0
534.513	-0.01
534.709	0.03
534.904	-0
535.099	-0.01
535.294	0.03
535.489	-0
535.684	0.02
535.879	-0.01
536.074	-0
536.269	-0.01
536.464	0.02
536.659	0.02
536.854	0.01
537.049	0.02
537.244	0.04
537.439	-0.01
537.634	0.03
537.828	0
538.023	0.02
538.218	-0.01
538.413	0.01
538.608	-0.04
538.803	0.01
538.997	-0.04
539.192	0.05
539.387	0.04
539.582	0.01
539.776	0.02
539.971	0.01
540.166	0.02
540.36	-0.01
540.555	-0.01
540.75	-0.01
540.944	-0.01
541.139	-0.04
541.334	-0.02
541.528	0.03
541.723	0.05
541.917	-0
542.112	-0.03
542.306	0.01
542.501	-0
542.695	0.01
542.89	-0.03
543.084	0
543.279	0.01
543.473	-0.01
543.668	0.01
543.862	0.01
544.056	0.03
544.251	-0
544.445	0.01
544.64	0
544.834	-0.02
545.028	0.01
545.222	0.01
545.417	0.01
545.611	0.01
545.805	0.02
546	-0.02
546.194	-0.02
546.388	0.01
546.582	0.02
546.776	-0
546.97	0.01
547.165	0.03
547.359	0.02
547.553	-0
547.747	0.01
547.941	0.02
548.135	0.02
548.329	0.03
548.523	0.02
548.717	-0.01
548.911	-0.01
549.105	0.01
549.299	0
549.493	0.04
549.687	0.03
549.881	-0.01
550.075	0.01
550.269	-0.04
550.463	-0.01
550.657	-0.02
550.85	0
551.044	-0.01
551.238	0.01
551.432	-0.03
551.626	-0.02
551.82	0
552.013	-0.01
552.207	0.01
552.401	0.01
552.594	0.01
552.788	0.01
552.982	0.02
553.176	-0.02
553.369	0.02
553.563	0.01
553.756	-0.03
553.95	-0.02
554.144	0.01
554.337	0.04
554.531	0.02
554.724	0.02
554.918	-0.02
555.111	0.03
555.305	0.01
555.498	0.05
555.692	0.02
555.885	-0.01
556.079	0.01
556.272	-0.01
556.466	0.02
556.659	0
556.852	0
557.046	-0.01
557.239	0.03
557.432	-0.03
557.626	-0.04
557.819	0.01
558.012	0.01
558.206	0.01
558.399	0.01
558.592	0.02
558.785	-0.02
558.979	0.04
559.172	0.01
559.365	0.03
559.558	0.01
559.751	0.01
559.944	0.01
560.138	-0.02
560.331	0.01
560.524	-0.02
560.717	-0.01
560.91	0.01
561.103	0.02
561.296	0
561.489	0.04
561.682	0.01
561.875	0.04
562.068	0.02
562.261	0.02
562.454	0.04
562.647	0
562.84	0
563.032	0
563.225	-0.01
563.418	-0
563.611	0
563.804	0.01
563.997	-0.02
564.19	-0.02
564.382	0.03
564.575	0
564.768	-0.01
564.961	-0.02
565.153	-0.01
565.346	0.03
565.539	0.03
565.731	0.02
565.924	0.03
566.117	0.02
566.309	0
566.502	0.01
566.695	0.01
566.887	0.01
567.08	-0.03
567.272	-0.01
567.465	-0
567.657	-0
567.85	0.02
568.042	0.01
568.235	0.04
568.427	0.01
568.62	-0.02
568.812	0.01
569.005	0.03
569.197	-0.04
569.389	0.02
569.582	0.01
569.774	-0.02
569.966	-0.02
570.159	-0.04
570.351	0.03
570.543	-0.03
570.736	0.03
570.928	-0
571.12	0.01
571.312	-0.02
571.505	-0.03
571.697	0.04
571.889	0
572.081	-0.01
572.273	-0.02
572.465	0.01
572.658	0.01
572.85	0.02
573.042	-0
573.234	-0.02
573.426	0.05
573.618	-0.03
573.81	-0
574.002	0.05
574.194	0.04
574.386	-0.04
574.578	-0.08
574.77	-0.03
574.962	-0
575.154	-0.03
575.346	0
575.538	0.02
575.729	-0
575.921	-0.01
576.113	-0.02
576.305	0.03
576.497	-0.01
576.689	-0.01
576.88	-0
577.072	0.05
577.264	-0.02
577.456	-0
577.647	-0.05
577.839	-0.01
578.031	0.04
578.223	-0.04
578.414	-0.05
578.606	0.02
578.798	0.01
578.989	-0.01
579.181	-0.01
579.372	-0
579.564	-0
579.755	0
579.947	0.01
580.139	0
580.33	-0.05
580.522	-0.03
580.713	-0.07
580.905	-0
581.096	0.01
581.287	-0
581.479	0.01
581.67	0.02
581.862	-0.01
582.053	-0.03
582.244	-0.05
582.436	-0.01
582.627	0.01
582.818	-0.02
583.01	-0.05
583.201	0.03
583.392	0.03
583.583	-0.02
583.775	-0.01
583.966	-0.02
584.157	-0.02
584.348	-0.02
584.54	-0.07
584.731	0.03
584.922	0
585.113	-0.01
585.304	0.04
585.495	0.03
585.686	0.02
585.877	0
586.068	0
586.259	0.01
586.45	0
586.641	-0.02
586.832	-0.06
587.023	0.01
587.214	0.01
587.405	-0.01
587.596	-0.02
587.787	0.01
587.978	0.02
588.169	-0.01
588.36	-0.02
588.551	0
588.742	-0.03
588.932	0.01
589.123	-0.01
589.314	0.03
589.505	0.03
589.696	0.02
589.886	0
590.077	-0.04
590.268	0.01
590.458	-0.04
590.649	-0.02
590.84	0.03
591.03	-0.04
591.221	-0.04
591.412	-0.03
591.602	0.01
591.793	0.02
591.984	-0.02
592.174	0
592.365	0.05
592.555	-0.03
592.746	0.03
592.936	0.01
593.127	0.01
593.317	0.03
593.508	-0.03
593.698	-0.02
593.889	0.02
594.079	0.02
594.269	-0.03
594.46	-0.01
594.65	-0.03
594.84	-0.02
595.031	-0.03
595.221	-0
595.411	-0.05
595.602	0.02
595.792	0
595.982	-0.02
596.172	0.04
596.363	0.01
596.553	-0.01
596.743	-0.01
596.933	0
597.123	0.05
597.314	-0.06
597.504	-0.01
597.694	0.03
597.884	-0.01
598.074	-0.02
598.264	-0.02
598.454	0.02
598.644	-0
598.834	0
599.024	-0.05
599.214	-0
599.404	0.04
599.594	-0.03
599.784	-0.03
599.974	0.03
600.164	0.03
600.354	-0.03
600.544	-0.04
600.734	0.02
600.924	0.02
601.114	-0.03
601.303	0
601.493	0.01
601.683	-0.02
601.873	-0.01
602.063	-0.06
602.252	0.01
602.442	-0.04
602.632	-0.03
602.821	-0.04
603.011	0.02
603.201	-0.02
603.39	-0.04
603.58	-0.04
603.77	-0.01
603.959	0.06
604.149	-0.01
604.339	-0
604.528	0.02
604.718	0.01
604.907	0
605.097	-0.03
605.286	-0.02
605.476	0.02
605.665	0
605.855	-0.01
606.044	0.01
606.234	0.01
606.423	-0.03
606.612	-0.02
606.802	-0.01
606.991	0.02
607.181	-0.01
607.37	-0.03
607.559	-0.01
607.749	-0.08
607.938	-0.01
608.127	-0.04
608.316	-0.02
608.506	0.01
608.695	-0.01
608.884	-0.05
609.073	-0.02
609.263	0.02
609.452	-0.01
609.641	0.03
609.83	-0.07
610.019	0.01
610.208	-0.02
610.397	-0
610.586	0.01
610.775	-0.03
610.965	-0.03
611.154	-0.04
611.343	0.01
611.532	0.01
611.721	-0.04
611.91	-0.01
612.099	0
612.287	0.02
612.476	-0.02
612.665	0.01
612.854	-0.06
613.043	0.05
613.232	-0
613.421	-0.04
613.61	-0
613.798	0.01
613.987	0.01
614.176	0.01
614.365	0
614.554	0.01
614.742	0.04
614.931	-0.05
615.12	-0
615.309	-0.03
615.497	0.01
615.686	-0.02
615.875	-0.01
616.063	-0
616.252	-0.01
616.44	-0
616.629	-0
616.818	0.04
617.006	0
617.195	-0.03
617.383	0
617.572	-0.01
617.76	-0.03
617.949	-0.02
618.137	0.01
618.326	-0.01
618.514	-0.01
618.703	-0.03
618.891	0.04
619.079	-0.05
619.268	0.04
619.456	-0.01
619.644	0.04
619.833	-0.04
620.021	-0.04
620.209	-0.06
620.398	-0.01
620.586	0
620.774	-0.01
620.962	-0.01
621.151	0.07
621.339	-0.01
621.527	-0.05
621.715	-0.06
621.903	-0.01
622.092	-0.02
622.28	0.01
622.468	-0.03
622.656	-0.02
622.844	0.01
623.032	-0.05
623.22	-0.07
623.408	0.03
623.596	-0
623.784	0
623.972	-0.06
624.16	-0.02
624.348	0.05
624.536	-0.04
624.724	-0.05
624.912	0.05
625.1	-0
625.288	-0.06
625.476	-0.03
625.664	-0.01
625.851	-0.07
626.039	0.03
626.227	0.01
626.415	-0.02
626.603	-0.05
626.79	-0.04
626.978	-0.02
627.166	0.01
627.354	-0.02
627.541	-0.06
627.729	-0.06
627.917	-0.01
628.104	0.03
628.292	-0.01
628.48	-0
628.667	0.02
628.855	0.01
629.042	0
629.23	-0.01
629.418	-0.01
629.605	-0.02
629.793	-0.04
629.98	-0.03
630.168	-0.02
630.355	-0.01
630.543	0.02
630.73	-0.04
630.917	0.01
631.105	0.07
631.292	-0.08
631.48	-0.02
631.667	0.04
631.854	-0
632.042	-0.06
632.229	-0.05
632.416	0
632.604	-0.03
632.791	-0.03
632.978	0.03
633.165	0.02
633.353	0.05
633.54	0.02
633.727	-0.05
633.914	-0.03
634.101	-0.07
634.289	0.03
634.476	-0.03
634.663	-0.03
634.85	0.01
635.037	-0.03
635.224	-0.04
635.411	0.03
635.598	0.06
635.785	-0.02
635.972	-0.01
636.159	0.03
636.346	-0.04
636.533	-0.01
636.72	-0.01
636.907	-0.03
637.094	0
637.281	-0.05
637.468	-0.01
637.655	-0.03
637.842	-0.01
638.029	-0.02
638.215	0.05
638.402	0.03
638.589	-0.02
638.776	-0.03
638.963	-0.02
639.149	0.02
639.336	0.03
639.523	-0.02
639.709	0.01
639.896	-0.01
640.083	0.03
640.27	0.02
640.456	-0.02
640.643	0.01
640.829	-0.05
641.016	-0.01
641.203	-0.05
641.389	0.05
641.576	0.02
641.762	-0.01
641.949	-0.02
642.135	0.03
642.322	-0
642.508	-0.07
642.695	-0.01
642.881	-0.02
643.068	-0.02
643.254	-0.03
643.441	0.03
643.627	-0.03
643.813	-0.01
644	0.05
644.186	-0.03
644.372	-0.05
644.559	0.02
644.745	-0.03
644.931	-0.06
645.118	-0.01
645.304	-0.02
645.49	-0.04
645.676	-0.02
645.862	0
646.049	0.06
646.235	-0.01
646.421	0.03
646.607	0.04
646.793	-0.04
646.979	-0.03
647.165	-0.02
647.352	0.01
647.538	0.02
647.724	-0.02
647.91	-0.02
648.096	0.02
648.282	0.03
648.468	-0
648.654	0.01
648.84	-0.02
649.026	-0.03
649.212	-0.01
649.397	-0.05
649.583	-0.07
649.769	-0.01
649.955	-0.05
650.141	0.02
650.327	0.06
650.513	-0.04
650.698	-0.01
650.884	-0.05
651.07	0.01
651.256	0.03
651.442	-0.02
651.627	-0
651.813	0
651.999	0.01
652.184	-0.01
652.37	-0.02
652.556	-0.04
652.741	0.02
652.927	-0.06
653.113	-0
653.298	-0.02
653.484	-0.05
653.669	-0.08
653.855	-0.02
654.04	0.02
654.226	0
654.412	-0.02
654.597	-0.07
654.782	0.01
654.968	0
655.153	0
655.339	-0.04
655.524	-0.07
655.71	0.06
655.895	-0.03
656.08	-0
656.266	0.04
656.451	-0.02
656.636	-0.08
656.822	-0.02
657.007	-0.03
657.192	-0.04
657.378	-0.04
657.563	-0.02
657.748	-0.01
657.933	0.01
658.118	-0.02
658.304	-0.02
658.489	0.03
658.674	-0.05
658.859	-0.1
659.044	0.01
659.229	-0.01
659.414	0.02
659.599	-0.03
659.785	-0.07
659.97	-0.02
660.155	0.02
660.34	-0.03
660.525	-0.03
660.71	0.01
660.895	0.02
661.08	-0.02
661.264	-0.08
661.449	0.07
661.634	0.04
661.819	-0.01
662.004	-0.01
662.189	-0.09
662.374	-0.03
662.559	-0.03
662.743	-0.05
662.928	-0.03
663.113	-0.08
663.298	-0.07
663.483	-0.03
663.667	-0
663.852	-0.07
664.037	0.03
664.221	-0.03
664.406	0.01
664.591	-0.01
664.775	0.01
664.96	-0.09
665.145	-0.01
665.329	-0.02
665.514	-0.06
665.698	-0.02
665.883	-0.06
666.068	0.05
666.252	-0.02
666.437	-0.04
666.621	0.02
666.806	0.05
666.99	-0.02
667.174	-0.02
667.359	0.04
667.543	-0
667.728	-0.02
667.912	-0.06
668.096	0.03
668.281	-0.03
668.465	-0.05
668.649	-0.02
668.834	-0.07
669.018	-0.03
669.202	-0.02
669.387	-0.06
669.571	0.05
669.755	-0.06
669.939	-0.01
670.124	-0.02
670.308	0.03
670.492	-0
670.676	-0.01
670.86	-0.06
671.044	-0.05
671.228	0.04
671.413	-0.02
671.597	-0.06
671.781	-0.05
671.965	0.03
672.149	-0.02
672.333	-0.02
672.517	-0.05
672.701	0.03
672.885	-0.02
673.069	-0.08
673.253	0.01
673.437	-0.04
673.621	-0.05
673.804	-0.04
673.988	0.01
674.172	-0.02
674.356	-0.05
674.54	0.01
674.724	0.09
674.908	0.01
675.091	-0.01
675.275	-0.02
675.459	-0.01
675.643	0.08
675.826	0.02
676.01	-0
676.194	-0.02
676.377	-0
676.561	0.02
676.745	-0.07
676.928	-0.03
677.112	0.03
677.296	-0.06
677.479	-0.04
677.663	-0.05
677.846	-0
678.03	-0.01
678.213	-0.06
678.397	0.02
678.58	-0.06
678.764	-0
678.947	-0.05
679.131	-0.06
679.314	0.01
679.498	0
679.681	0
679.865	0.07
680.048	0
680.231	-0
680.415	-0.03
680.598	0.01
680.781	-0.04
680.965	-0.03
681.148	0.03
681.331	-0.05
681.514	0.05
681.698	-0.03
681.881	-0.01
682.064	-0
682.247	-0.01
682.43	-0.09
682.614	0
682.797	0.01
682.98	0.03
683.163	-0.05
683.346	0.01
683.529	-0.05
683.712	-0.04
683.895	0.07
684.078	-0.07
684.261	-0.03
684.444	0
684.627	0.03
684.81	-0.01
684.993	-0.03
685.176	-0.03
685.359	-0.04
685.542	-0.03
685.725	0.07
685.908	-0.05
686.091	-0.03
686.274	0.07
686.457	0.03
686.639	-0.05
686.822	0.01
687.005	0.01
687.188	0
687.371	0.04
687.553	-0.02
687.736	-0.01
687.919	0.04
688.102	0.06
688.284	-0.08
688.467	0.03
688.65	-0.01
688.832	-0.03
689.015	-0.07
689.197	-0.08
689.38	0.04
689.563	0.06
689.745	-0.08
689.928	-0.07
690.11	-0.02
690.293	0.03
690.475	-0.06
690.658	0.01
690.84	-0.01
691.023	-0.02
691.205	-0.04
691.388	-0.04
691.57	0.04
691.752	0.05
691.935	-0.08
692.117	-0.05
692.3	-0
692.482	0.01
692.664	-0.03
692.847	0.02
693.029	0.05
693.211	0
693.393	-0.04
693.576	0
693.758	-0.04
693.94	-0.04
694.122	-0.1
694.304	0
694.487	-0.03
694.669	0.05
694.851	-0.08
695.033	-0.01
695.215	-0.05
695.397	-0.08
695.579	0
695.761	-0.05
695.943	-0.06
696.125	0.07
696.308	0.02
696.49	-0.14
696.671	0.12
696.853	0.01
697.035	0.13
697.217	-0.02
697.399	0.03
697.581	-0.05
697.763	-0.04
697.945	-0.05
698.127	0.01
698.309	-0.07
698.491	-0.02
698.672	-0.01
698.854	0.02
699.036	0.09
699.218	-0.04
699.399	-0.04
699.581	-0.03
699.763	-0.03
699.945	-0.03
700.126	-0.08
700.308	-0.02
700.49	-0.02
700.671	-0.16
700.853	-0.04
701.035	-0.03
701.216	-0.03
701.398	-0.06
701.579	-0.06
701.761	-0
701.943	-0.12
702.124	-0.02
702.306	-0.06
702.487	0.14
702.669	-0.05
702.85	-0.07
703.031	-0.06
703.213	0.1
703.394	0.02
703.576	-0.04
703.757	0.06
703.938	0.06
704.12	0.15
704.301	-0.05
704.483	-0.09
704.664	-0.02
704.845	0.03
705.026	-0.01
705.208	-0.01
705.389	-0.01
705.57	0.01
705.751	-0.05
705.933	-0.02
706.114	0.01
706.295	-0.04
706.476	-0.11
706.657	0.12
706.838	-0.03
707.02	0.06
707.201	-0.11
707.382	-0.08
707.563	-0
707.744	-0.06
707.925	-0.1
708.106	-0.05
708.287	-0.01
708.468	0.15
708.649	-0.02
708.83	0.02
709.011	-0.04
709.192	0.03
709.373	-0.07
709.554	-0.02
709.734	-0.01
709.915	0.06
710.096	0.01
710.277	-0.14
710.458	-0.04
710.639	0.03
710.819	-0.09
711	0.02
711.181	0.05
711.362	0.02
711.542	-0.01
711.723	-0.08
711.904	0.1
712.085	-0.04
712.265	0.05
712.446	-0.14
712.627	-0.06
712.807	-0.02
712.988	-0.06
713.168	-0.07
713.349	0.03
713.53	-0.23
713.71	-0.04
713.891	-0.07
714.071	0
714.252	-0.01
714.432	-0.07
714.613	-0.13
714.793	-0.02
714.974	0.09
715.154	0.05
715.334	0.06
715.515	0.05
715.695	-0.1
715.876	-0.06
716.056	-0.07
716.236	-0.09
716.417	-0.04
716.597	-0.05
716.777	0.08
716.957	-0.05
717.138	-0.01
717.318	-0.05
717.498	-0.13
717.678	-0.07
717.859	-0.08
718.039	-0.12
718.219	-0.02
718.399	0.05
718.579	-0.03
718.759	-0.09
718.939	-0.01
719.12	-0.07
719.3	-0.06
719.48	-0.15
719.66	-0.1
719.84	0.11
720.02	-0.09
720.2	-0.02
720.38	-0.01
720.56	0.08
720.74	-0.05
720.92	0.02
721.1	0.06
721.279	0.11
721.459	-0.04
721.639	-0.13
721.819	0.04
721.999	-0.05
722.179	0.05
722.359	-0.09
722.538	0.04
722.718	-0.01
722.898	0.02
723.078	-0.03
723.257	-0.05
723.437	0.02
723.617	-0.04
723.797	-0.06
723.976	-0.04
724.156	0.02
724.336	0.06
724.515	0.09
724.695	-0.18
724.874	-0.01
725.054	-0.01
725.234	-0.11
725.413	-0.01
725.593	-0.07
725.772	-0.1
725.952	-0.03
726.131	-0.06
726.311	-0.08
726.49	-0.04
726.67	-0.06
726.849	-0.03
727.028	0.01
727.208	-0.06
727.387	-0.02
727.567	-0.15
727.746	-0.02
727.925	-0.1
728.105	-0.15
728.284	-0.05
728.463	-0.08
728.643	0.01
728.822	-0.14
729.001	-0.1
729.18	-0.06
729.359	0.04
729.539	-0.02
729.718	0.01
729.897	0.15
730.076	-0.07
730.255	-0.11
730.434	0.02
730.614	0.01
730.793	0
730.972	-0.04
731.151	-0.04
731.33	0.03
731.509	0.05
731.688	-0.05
731.867	-0
732.046	-0.14
732.225	0.2
732.404	-0.15
732.583	-0.11
732.762	-0.02
732.941	0.01
733.12	0
733.298	-0.05
733.477	0.02
733.656	-0.05
733.835	-0.18
734.014	0
734.193	-0.07
734.371	0.07
734.55	-0.03
734.729	-0.13
734.908	0.02
735.086	0.03
735.265	0.06
735.444	-0.22
735.623	-0.12
735.801	-0.19
735.98	-0.06
736.159	-0.05
736.337	0.04
736.516	-0.06
736.694	-0.05
736.873	-0.08
737.052	0.05
737.23	0.13
737.409	-0.12
737.587	0.06
737.766	-0.25
737.944	-0.08
738.123	0.07
738.301	-0.01
738.479	-0.05
738.658	-0.01
738.836	-0.22
739.015	-0.02
739.193	0.05
739.371	-0.13
739.55	-0.06
739.728	-0.04
739.906	0.08
740.085	0.06
740.263	-0.05
740.441	-0.11
740.62	0.16
740.798	0.03
740.976	-0.1
741.154	-0.09
741.332	0.06
741.511	0.04
741.689	-0.03
741.867	0.04
742.045	-0.1
742.223	-0.04
742.401	-0.18
742.579	-0.1
742.757	-0.05
742.935	-0.25
743.114	-0.01
743.292	-0.11
743.47	-0.02
743.648	-0
743.826	-0.15
744.004	-0.03
744.181	0.13
744.359	-0.06
744.537	0.02
744.715	-0.1
744.893	-0.03
745.071	0.01
745.249	-0.11
745.427	-0.06
745.605	-0.03
745.782	0.02
745.96	0.04
746.138	-0.05
746.316	0.13
746.493	-0.12
746.671	-0.06
746.849	-0.08
747.027	0.11
747.204	-0.09
747.382	-0.02
747.56	-0.11
747.737	0
747.915	-0.07
748.093	0.08
748.27	-0.2
748.448	-0.13
748.625	-0.22
748.803	-0.09
748.98	-0.12
749.158	0.04
749.335	0.15
749.513	0.03
749.69	-0.05
749.868	0.06
750.045	0.04
750.223	-0.15
750.4	-0.24
750.578	0.13
750.755	-0.03
750.932	-0.13
751.11	0.06
751.287	-0.14
751.464	0.13
751.642	-0.18
751.819	-0.03
751.996	-0.01
752.173	-0.08
752.351	-0.15
752.528	-0.07
752.705	-0.05
752.882	-0.07
753.06	0.01
753.237	0.08
753.414	0.12
753.591	0.11
753.768	-0.1
753.945	-0.06
754.122	-0.11
754.299	-0.03
754.476	-0.09
754.654	-0.03
754.831	0.05
755.008	0.01
755.185	-0.02
755.362	-0.15
755.539	0.06
755.716	-0.06
755.892	-0.08
756.069	-0.06
756.246	-0.05
756.423	-0.07
756.6	0.03
756.777	-0.09
756.954	0.02
757.131	-0.03
757.307	-0.09
757.484	-0.21
757.661	0.07
757.838	0.02
758.015	-0.12
758.191	0.03
758.368	-0.02
758.545	0.1
758.721	0.04
758.898	-0.06
759.075	0
759.251	-0.01
759.428	0.09
759.605	-0.12
759.781	-0.04
759.958	0.05
760.134	-0.04
760.311	-0.03
760.488	0.09
760.664	0.14
760.841	-0.02
761.017	-0.15
761.194	0.06
761.37	0.08
761.547	-0.02
761.723	-0.09
761.899	0.06
762.076	-0.12
762.252	-0.14
762.429	-0.16
762.605	0.11
762.781	-0.05
762.958	-0.02
763.134	-0.01
763.31	-0.09
763.486	0.04
763.663	-0.19
763.839	-0.06
764.015	-0.27
764.191	-0.08
764.368	-0.14
764.544	-0.13
764.72	-0.06
764.896	0.14
765.072	0.01
765.248	-0.06
765.425	-0.13
765.601	0.04
765.777	0.01
765.953	-0.23
766.129	-0.05
766.305	-0.07
766.481	0.04
766.657	-0.06
766.833	0.04
767.009	-0.18
767.185	-0.1
767.361	0.01
767.537	-0.15
767.713	0.25
767.889	-0.18
768.065	-0.03
768.24	0.01
768.416	0.17
768.592	-0.09
768.768	0.01
768.944	-0.06
769.12	-0.16
769.295	-0.13
769.471	-0.07
769.647	-0.08
769.823	0.06
769.998	-0.16
770.174	-0.19
770.35	0.33
770.525	0.07
770.701	-0.01
770.877	-0.15
771.052	-0.1
771.228	0.11
771.403	-0.15
771.579	0.01
771.755	0.21
771.93	-0.02
772.106	-0.15
772.281	-0.25
772.457	-0.08
772.632	-0
772.808	-0.17
772.983	-0.17
773.159	-0.12
773.334	0.16
773.509	-0.05
773.685	-0.13
773.86	0.35
774.036	0.21
774.211	-0.04
774.386	-0.08
774.562	-0.07
774.737	0.06
774.912	-0.18
775.087	0.08
775.263	-0.04
775.438	0
775.613	-0.09
775.788	-0.12
775.964	0.15
776.139	0.22
776.314	-0.22
776.489	-0.07
776.664	-0.04
776.839	-0.21
777.014	0.15
777.19	0.23
777.365	0.12
777.54	0.18
777.715	-0.26
777.89	-0.01
778.065	-0.15
778.24	-0.19
778.415	0.07
778.59	-0.23
778.765	-0.16
778.94	0.01
779.115	-0.14
779.289	-0.17
779.464	0.06
779.639	-0.06
779.814	-0.23
779.989	-0.27
780.164	0.08
780.339	0.04
780.513	-0.23
780.688	-0.14
780.863	0.03
781.038	-0.01
781.212	-0.17
781.387	-0.09
781.562	0.2
781.737	0.21
781.911	0.1
782.086	-0.1
782.261	0.1
782.435	0.1
782.61	-0.1
782.784	-0.12
782.959	0.04
783.134	-0.09
783.308	-0.24
783.483	-0.21
783.657	0.36
783.832	0.1
784.006	-0.51
784.181	-0.03
784.355	0.11
784.53	-0.06
784.704	-0.15
784.878	0.17
785.053	-0.01
785.227	0.16
785.402	0.25
785.576	-0.27
785.75	-0.11
785.925	-0.08
786.099	0.01
786.273	0.08
786.448	0.11
786.622	0.11
786.796	-0.01
786.97	-0.32
787.145	0.38
787.319	-0.23
787.493	-0.21
787.667	-0.42
787.841	0.03
788.015	0.12
788.19	-0.08
788.364	-0.03
788.538	0.09
788.712	0.18
788.886	-0.17
789.06	0.29
789.234	0.07
789.408	-0.28
789.582	-0.11
789.756	-0.18
789.93	-0.1
790.104	-0.03
790.278	-0.37
790.452	-0.12
790.626	-0.05
790.8	-0.22
790.973	0.14
791.147	0.21
791.321	0.27
791.495	0.11
791.669	0.14
791.843	0.07
792.016	-0.12
792.19	0.27
792.364	-0.29
792.538	0.39
792.711	0.1
792.885	0.03
793.059	-0.27
793.233	-0.56
793.406	0.3
793.58	-0.11
793.754	-0.05
793.927	-0.1
794.101	0.14
794.274	0.19
794.448	0.24
794.622	-0.34
794.795	0.48
794.969	-0.31
795.142	0.09
795.316	-0.13
795.489	-0.17
795.663	0.35
795.836	0.02
796.009	-0.43
796.183	0.32
796.356	-0.04
796.53	-0.03
796.703	-0.28
796.876	0.56
797.05	-0.31
797.223	-0.12
797.396	0.06
797.57	-0.04
797.743	0.31
797.916	0.1
798.09	-0.17
798.263	0.21
798.436	0.2
798.609	-0.1
798.782	0.06
798.956	-0.21
799.129	-0.2
799.302	0.05
799.475	-0.29
799.648	-0.33
799.821	-0.14
799.994	-0.06
800.167	-0.23
800.34	0.15
800.514	-0.05
800.687	-0.27
800.86	-0.08
801.033	0.15
801.206	0.07
801.379	-0.28
801.551	0.09
801.724	0.29
801.897	0.32
802.07	-0.11
802.243	-0.51
802.416	-0.12
802.589	-0.11
802.762	0.08
802.935	0.04
803.107	0.18
803.28	0.09
803.453	-0.07
803.626	-0.15
803.798	-0.18
803.971	-0.14
804.144	0.11
804.317	0.01
804.489	0.27
804.662	0.1
804.835	0.07
805.007	-0.42
805.18	0.45
805.353	0.02
805.525	-0.52
805.698	-0.2
805.87	0.03
806.043	0.35
806.215	-0.75
806.388	-0.5
806.56	-0.01
806.733	0.07
806.905	-0
807.078	0.05
807.25	-0.04
807.423	0.34
807.595	-0.18
807.768	-0.07
807.94	0.29
808.112	-0.09
808.285	0.21
808.457	-0.2
808.629	-0.32
808.802	-0.16
808.974	-0.19
809.146	-0.12
809.318	-0.74
809.491	0.19
809.663	0.08
809.835	-0.56
810.007	0.3
810.18	0.07
810.352	-0.69
810.524	-0.04
810.696	0.12
810.868	0.14
811.04	-0.07
811.212	0.02
811.384	0.4
811.556	0.28
811.728	-0.24
811.901	0.57
812.073	-0.25
812.245	0.19
812.417	0.11
812.589	-0.78
812.76	0.13
812.932	-0.37
813.104	0.44
813.276	-0.12
813.448	0.38
813.62	0.03
813.792	0.16
813.964	-0.42
814.136	0.16
814.307	-0.11
814.479	-0.3
814.651	-0.6
814.823	0.93
814.995	-0.06
815.166	0.06
815.338	-0.41
815.51	-0.47
815.681	0.77
815.853	0.08
816.025	-0.33
816.196	0.52
816.368	0.44
816.54	-0.51
816.711	-0.46
816.883	-0.06
817.054	0.79
817.226	-0.57
817.398	0.36
817.569	-0.29
817.741	0.13
817.912	0.1
818.084	-0.31
818.255	0.21
818.426	-0.38
818.598	-0.04
818.769	-0.38
818.941	0.37
819.112	0.87
819.283	0.04
819.455	-0.39
819.626	0.3
819.798	0.37
819.969	-0.32
820.14	-0.05
820.311	-0.31
820.483	-0.07
820.654	0.01
820.825	-0.45
820.996	-0.39
821.168	-0.77
821.339	-0.24
821.51	-0.5
821.681	-0.26
821.852	-0.25
822.023	-0.09
822.195	-0.58
822.366	0.19
822.537	-0.51
822.708	0.29
822.879	-0.33
823.05	0.35
823.221	-0.14
823.392	0.33
823.563	-0.24
823.734	-0.06
823.905	0.1
824.076	-0.35
824.247	-0.1
824.418	-0.67
824.589	0.82
824.759	0.13
824.93	-0.72
825.101	-0.48
825.272	0.33
825.443	0.74
825.614	0.36
825.784	-0.95
825.955	0.68
826.126	0.82
826.297	-0.12
826.467	0.57
826.638	0.54
826.809	-1.02
826.98	-0.53
827.15	-0.46
827.321	-0.09
827.492	-0.08
827.662	0.43
827.833	0.66
828.003	0.48
828.174	-0.81
828.345	-0.79
828.515	0.3
828.686	0.37
828.856	-0.71
829.027	-0.67
829.197	0.3
829.368	0.22
829.538	-0.2
829.709	-0.73
829.879	0.07
830.049	-0.24
830.22	-0.42
830.39	-0.68
830.56	0.86
830.731	-0.08
830.901	-0.48
831.072	0.2
831.242	0.11
831.412	0.17
831.582	0.31
831.753	-1.08
831.923	0.5
832.093	-0.78
832.263	-0.13
832.434	-0.05
832.604	0.2
832.774	0.21
832.944	0.06
833.114	-0.52
833.284	-0.05
833.454	-0.08
833.624	-0.32
833.795	-0.96
833.965	0.19
834.135	0.15
834.305	-1.12
834.475	-1.3
834.645	0.01
834.815	0.06
834.985	-0.53
835.155	-0.19
835.325	0.19
835.494	-0.08
835.664	-0.03
835.834	-0.94
836.004	-0.51
836.174	0.13
836.344	-0.49
836.514	-1.34
836.684	-0.44
836.853	0.25
837.023	-0.67
837.193	-0.29
837.363	0.51
837.532	0.54
837.702	-0.27
837.872	-0.64
838.041	0.36
838.211	1.19
838.381	-1.47
838.55	0.01
838.72	1.37
838.89	0.29
839.059	-0.02
839.229	-0.76
839.398	0.77
839.568	0.34
839.738	-0.47
839.907	0.52
840.077	0.08
840.246	-0.16
840.416	-0.28
840.585	-1.35
840.755	1.87
840.924	0.91
841.093	-1.58
841.263	-0.11
841.432	-0.25
841.602	-0.48
841.771	-0.71
841.94	0.02
842.11	1.87
842.279	1.47
842.448	-0.46
842.617	-0.82
842.787	0.6
842.956	-0.84
843.125	-0.36
843.294	0.09
843.464	0.32
843.633	0.19
843.802	-0.98
843.971	-0.59
844.14	0.56
844.309	0.5
844.479	-0.39
844.648	-1.09
844.817	-0.39
844.986	0.06
845.155	-0.19
845.324	-0.77
845.493	-0.59
845.662	-0.47
845.831	-0.28
846	0.09
846.169	-0.48
846.338	0.02
846.507	0.3
846.676	-0.06
846.844	-1.14
847.013	0.66
847.182	-0.22
847.351	-0.25
847.52	-1.43
847.689	0.09
847.858	-0.03
848.026	-0.84
848.195	-0.89
848.364	0.3
848.533	-0.64
848.701	-1.16
848.87	-0.24
849.039	0.09
849.207	0.61
849.376	0.17
849.545	1.01
849.713	-0
849.882	-1.07
850.051	-0.18
850.219	0.26
850.388	1.53
850.556	-0.4
850.725	-0.62
850.893	-0.48
851.062	-0.31
851.23	0.43
851.399	-1.9
851.567	-0.64
851.736	-0.66
851.904	-1.81
852.073	-0.22
852.241	1.09
852.41	-0.51
852.578	-0.89
852.746	-0.52
852.915	-0.01
853.083	0.07
853.251	-1.23
853.42	-0.65
853.588	-0.41
853.756	1.02
853.924	-0.53
854.093	-0.24
854.261	-0.26
854.429	-0.33
854.597	0.35
854.765	-1.24
854.934	0.13
855.102	1.06
855.27	-1.32
855.438	-0.51
855.606	0.27
855.774	2.27
855.942	-1.59
856.11	-2.9
856.278	0.49
856.446	0.47
856.614	0.77
856.782	-0.61
856.95	1.28
857.118	0.17
857.286	1.55
857.454	-2.01
857.622	1.7
857.79	-0.84
857.958	-1.62
858.126	-1.35
858.294	-3.53
858.462	0.07
858.629	-1.09
858.797	-1.95
858.965	0.01
859.133	-0.33
859.301	-0.46
859.468	0.92
859.636	-0.55
859.804	0.94
859.971	0.85
860.139	-1.28
860.307	1.64
860.474	-1.06
860.642	-1.09
860.81	-1.09
860.977	-1.5
861.145	0.88
861.313	0.41
861.48	1.24
861.648	1.38
861.815	-0.04
861.983	-1.17
862.15	0.28
862.318	0.44
862.485	0.99
862.653	-1.42
862.82	-1.36
862.988	0.42
863.155	-0.15
863.322	-2.22
863.49	-1.63
863.657	-1.58
863.824	1.62
863.992	1.01
864.159	0.18
864.326	1.42
864.494	-0.4
864.661	2.35
864.828	-0.4
864.996	0.81
865.163	1.59
865.33	-2.53
865.497	-2.39
865.664	-1.58
865.832	-2.16
865.999	1.93
866.166	-1.29
866.333	-1.45
866.5	-0.39
866.667	-1.28
866.834	0.3
867.001	0.88
867.168	-1.86
867.335	0.62
867.502	-3.02
867.669	-0.62
867.836	2.61
868.003	-0.62
868.17	1.03
868.337	-1.56
868.504	3.29
868.671	-1.49
868.838	-0.7
869.005	-0.06
869.172	0.75
869.339	-1.19
869.505	0.88
869.672	-1.01
869.839	2.33
870.006	-1.25
870.173	-2.16
870.339	0.17
870.506	1.64
870.673	-0.66
870.84	-0.36
871.006	0.84
871.173	0.06
871.34	-0
871.506	-1.65
871.673	1.09
871.839	-2.19
872.006	-1.82
872.173	-0.92
872.339	-1.19
872.506	1.77
872.672	-0.67
872.839	-2.45
873.005	0.45
873.172	1.22
873.338	0.75
873.505	-1.12
873.671	-0.91
873.838	0.24
874.004	-2.76
874.171	-1.61
874.337	0.38
874.503	0.39
874.67	-0.31
874.836	-0.16
875.002	1.35
875.169	0.29
875.335	0.77
875.501	-1.77
875.668	1.88
875.834	0.21
876	-0.2
876.166	-0.16
876.332	0.63
876.499	3.32
876.665	-0.6
876.831	0.8
876.997	3.49
877.163	0.94
877.329	-1.8
877.495	-0.81
877.662	0.14
877.828	-0.53
877.994	-0.46
878.16	-2.66
878.326	-2.16
878.492	-0.15
878.658	-0.48
878.824	1.45
878.99	1.15
879.156	-0.63
879.322	1.96
879.487	-1.03
879.653	-1.96
879.819	0.09
879.985	-0.26
880.151	0.04
880.317	-0.39
880.483	0.33
880.648	1.57
880.814	-2.52
880.98	0.24
881.146	-3.42
881.312	-1.54
881.477	0.45
881.643	-0.9
881.809	2.54
881.974	2.61
882.14	-3.08
882.306	-1.11
882.471	3.31
882.637	-2.39
882.803	0.92
882.968	3.48
883.134	3.89
883.299	0.22
883.465	0.05
883.63	1.71
883.796	2.53
883.961	0.73
884.127	-0.06
884.292	-4.36
884.458	-0.72
884.623	-0.72
