Data from Apollo_Calib_20240827__AbsoluteIrradiance__579__08-48-01-841.txt Node

Date: Wed Aug 28 08:48:01 BST 2024
User: biology
Spectrometer: FLMT08252
Trigger mode: 0
Integration Time (sec): 5.000000E-1
Scans to average: 5
Electric dark correction enabled: true
Nonlinearity correction enabled: false
Boxcar width: 0
XAxis mode: Wavelengths
Number of Pixels in Spectrum: 3648
>>>>>Begin Spectral Data<<<<<
179.588	-0
179.809	-0
180.03	-0
180.251	-0
180.473	-0
180.694	0
180.915	0
181.136	-0
181.357	0
181.578	-0
181.799	-0
182.02	0
182.241	-0
182.462	-0
182.683	0
182.904	-0
183.125	-0
183.346	0
183.567	0
183.788	0
184.009	-0
184.23	0
184.451	0
184.672	-0
184.892	-0
185.113	0
185.334	0
185.555	0
185.776	-0
185.996	0
186.217	0
186.438	0
186.659	-0
186.879	0
187.1	-0
187.321	-0
187.541	0
187.762	-0
187.983	0
188.203	0
188.424	0
188.644	0
188.865	0
189.086	-0
189.306	0
189.527	0
189.747	0
189.968	0
190.188	0
190.409	0
190.629	0
190.849	0
191.07	-0
191.29	0
191.511	0
191.731	0
191.951	0
192.172	0
192.392	0
192.612	0
192.833	-0
193.053	0
193.273	0
193.493	0
193.714	0
193.934	0
194.154	0
194.374	0
194.594	0
194.815	0
195.035	0
195.255	0
195.475	-0
195.695	0
195.915	0
196.135	-0
196.355	0
196.575	0
196.795	0
197.015	-0
197.235	-0
197.455	0
197.675	0
197.895	-0
198.115	0
198.335	0
198.555	0
198.775	0
198.995	0
199.214	0
199.434	0
199.654	0
199.874	-0
200.094	1.14
200.313	0.54
200.533	0.44
200.753	-0.42
200.973	1.49
201.192	0.87
201.412	-0.47
201.632	0.06
201.851	0.74
202.071	-0.29
202.291	0.31
202.51	-0.05
202.73	1.14
202.95	0.26
203.169	-0.07
203.389	-0.01
203.608	0.23
203.828	0.08
204.047	0.21
204.267	0.79
204.486	0.5
204.706	0.38
204.925	0.34
205.145	-0.02
205.364	0.62
205.583	0.99
205.803	0.2
206.022	-0.11
206.242	0.28
206.461	0.19
206.68	-0.16
206.9	0.37
207.119	0.64
207.338	1.1
207.557	0.16
207.777	0.26
207.996	0.02
208.215	0.76
208.434	0.38
208.654	-0.15
208.873	0.33
209.092	0.67
209.311	0.16
209.53	0.18
209.749	0.2
209.968	0.12
210.187	0.11
210.407	-0.11
210.626	-0.03
210.845	0.25
211.064	0.13
211.283	0.01
211.502	0.53
211.721	0.14
211.94	0.11
212.159	0.33
212.377	0.55
212.596	0.69
212.815	0.31
213.034	0.26
213.253	0.42
213.472	0.36
213.691	-0.03
213.91	0.08
214.128	-0.04
214.347	0.59
214.566	-0.21
214.785	-0.15
215.003	0.31
215.222	0.3
215.441	0.3
215.66	-0.24
215.878	0.21
216.097	0.4
216.316	-0.04
216.534	0.1
216.753	0.13
216.972	0.17
217.19	0.15
217.409	0.05
217.627	-0.06
217.846	0.05
218.064	0.03
218.283	0.07
218.501	0.56
218.72	0.43
218.938	-0.12
219.157	0.06
219.375	0.21
219.594	0.37
219.812	0.05
220.031	0.07
220.249	0.36
220.467	0.45
220.686	0
220.904	0.02
221.122	-0.05
221.341	0.35
221.559	0.18
221.777	-0.04
221.995	0.22
222.214	0.22
222.432	-0.04
222.65	0.37
222.868	0.13
223.086	0.26
223.305	0.26
223.523	0.2
223.741	0.39
223.959	0.01
224.177	-0.08
224.395	0.09
224.613	0.23
224.831	0.19
225.049	0.06
225.267	-0.06
225.485	0.06
225.703	0.02
225.921	0.08
226.139	0.07
226.357	0.14
226.575	0.19
226.793	-0.08
227.011	0.62
227.229	0.05
227.447	0.2
227.665	0.01
227.883	-0.04
228.1	0.15
228.318	0.02
228.536	-0.15
228.754	-0.06
228.972	0.21
229.189	0.11
229.407	-0.01
229.625	0.15
229.843	0.21
230.06	0.28
230.278	-0.05
230.496	0.22
230.713	0.07
230.931	0.23
231.149	0.04
231.366	-0.12
231.584	-0.02
231.801	0.39
232.019	0.01
232.236	-0.07
232.454	0.11
232.671	0.1
232.889	0.01
233.106	-0.1
233.324	0.1
233.541	0.15
233.759	0.03
233.976	0.02
234.194	0.07
234.411	0.05
234.628	0.08
234.846	0.08
235.063	0.14
235.28	0.19
235.498	0.02
235.715	-0
235.932	0.21
236.149	0.09
236.367	0.02
236.584	0.08
236.801	0.11
237.018	0.24
237.236	0.09
237.453	-0.08
237.67	0.15
237.887	-0
238.104	0.07
238.321	-0.06
238.538	-0.01
238.755	0.21
238.973	-0.02
239.19	0.07
239.407	0.07
239.624	0.19
239.841	-0.13
240.058	-0.01
240.275	0.04
240.492	0.07
240.709	0.07
240.925	0.03
241.142	0.09
241.359	-0.03
241.576	0.02
241.793	0.07
242.01	0.09
242.227	0.23
242.444	0.2
242.66	0.18
242.877	0.19
243.094	0.06
243.311	0.13
243.527	0.05
243.744	0.08
243.961	0.1
244.178	0.03
244.394	0.05
244.611	0.19
244.828	0.24
245.044	-0.03
245.261	0.05
245.477	0.13
245.694	0.14
245.911	-0
246.127	-0.01
246.344	0.23
246.56	0.11
246.777	0.01
246.993	0.09
247.21	0.07
247.426	0.13
247.643	0.11
247.859	0.06
248.076	-0.02
248.292	0.27
248.508	0.04
248.725	0.08
248.941	0.18
249.157	0.1
249.374	0.02
249.59	0
249.806	0.07
250.023	0.17
250.239	-0.06
250.455	-0.01
250.671	0.08
250.888	0.15
251.104	0.12
251.32	0.02
251.536	0.07
251.752	0.04
251.969	0.05
252.185	0.04
252.401	0.13
252.617	0.13
252.833	-0
253.049	0.08
253.265	0.01
253.481	0.12
253.697	-0.06
253.913	0.02
254.129	0.07
254.345	0.1
254.561	0.03
254.777	0.04
254.993	0.04
255.209	0.06
255.425	0.04
255.641	-0.02
255.857	0.06
256.073	0.08
256.288	-0.03
256.504	0.02
256.72	0.07
256.936	0.15
257.152	-0.02
257.367	-0.01
257.583	0.14
257.799	0.11
258.015	-0.03
258.23	0.08
258.446	0.18
258.662	0.05
258.877	0.02
259.093	-0.03
259.309	0.07
259.524	0.15
259.74	-0.01
259.955	-0.03
260.171	0.04
260.387	-0.01
260.602	0.16
260.818	0.09
261.033	0
261.249	0.06
261.464	0.02
261.68	-0.07
261.895	0.06
262.11	0.12
262.326	-0.03
262.541	-0.01
262.757	0.14
262.972	0.05
263.187	0.02
263.403	0.08
263.618	0.1
263.833	0.05
264.049	-0.03
264.264	0.01
264.479	0.08
264.694	0.15
264.91	-0
265.125	0.02
265.34	0.13
265.555	0.18
265.77	0.08
265.986	-0
266.201	0.05
266.416	0.11
266.631	-0.02
266.846	0.03
267.061	0.07
267.276	0.1
267.491	-0.08
267.706	0.1
267.921	0.07
268.136	0.05
268.351	0.12
268.566	-0.01
268.781	0.09
268.996	0.09
269.211	0
269.426	-0
269.641	0.1
269.856	0.05
270.071	0.04
270.285	-0.02
270.5	0.08
270.715	0.13
270.93	0.06
271.145	0.06
271.359	0.15
271.574	0.02
271.789	0.08
272.004	-0.03
272.218	-0
272.433	0.14
272.648	-0.01
272.862	0.12
273.077	0.06
273.292	0.1
273.506	-0.03
273.721	0.03
273.936	0.08
274.15	0.12
274.365	0.02
274.579	0.09
274.794	0.09
275.008	0.14
275.223	-0.02
275.437	0.05
275.652	0.06
275.866	0.08
276.081	0.03
276.295	0.08
276.509	0.08
276.724	0.05
276.938	0.04
277.153	0.1
277.367	0.12
277.581	0.05
277.796	0.04
278.01	0.02
278.224	0.13
278.438	0.14
278.653	-0
278.867	0.02
279.081	-0.08
279.295	-0
279.51	0.08
279.724	-0.06
279.938	0.05
280.152	0.05
280.366	0.04
280.58	0.11
280.794	0.15
281.008	0.1
281.222	0.09
281.437	0.12
281.651	0.05
281.865	0.1
282.079	0.04
282.293	-0.01
282.507	-0
282.721	0.06
282.935	0.09
283.148	-0.08
283.362	-0.01
283.576	-0.01
283.79	-0.01
284.004	-0.01
284.218	0.09
284.432	0.06
284.646	0.02
284.859	0.02
285.073	0.07
285.287	0.07
285.501	-0.06
285.714	-0.02
285.928	0.05
286.142	0.04
286.356	-0.02
286.569	0.02
286.783	0.11
286.997	0.08
287.21	0.09
287.424	0.06
287.637	0
287.851	0.09
288.065	0.11
288.278	0.04
288.492	0.04
288.705	0.02
288.919	0.1
289.132	0.02
289.346	0.12
289.559	-0.01
289.773	-0.05
289.986	0.1
290.2	0.07
290.413	0.08
290.626	-0.04
290.84	0.06
291.053	0.02
291.267	0.05
291.48	0.03
291.693	0.09
291.906	0.02
292.12	0.03
292.333	0.02
292.546	0.04
292.76	0.12
292.973	0.07
293.186	0.07
293.399	0.01
293.612	0.1
293.826	0.04
294.039	0.05
294.252	-0.01
294.465	0.13
294.678	0.05
294.891	0.05
295.104	-0.02
295.317	0.06
295.53	0.05
295.743	0.03
295.956	0.06
296.169	0.08
296.382	0.09
296.595	0.01
296.808	0
297.021	0.06
297.234	0.11
297.447	0.07
297.66	0.02
297.873	0.12
298.086	0.05
298.299	0.02
298.511	0.01
298.724	-0.01
298.937	-0.03
299.15	-0.01
299.363	0.04
299.575	0.06
299.788	0.09
300.001	0.01
300.213	0.03
300.426	0.04
300.639	0.02
300.852	-0.02
301.064	0.09
301.277	0.11
301.489	0.09
301.702	0.08
301.915	0.01
302.127	0.08
302.34	0.04
302.552	0.06
302.765	0.03
302.977	0.07
303.19	-0.01
303.402	0.04
303.615	0.02
303.827	-0
304.04	0.01
304.252	0.05
304.464	0.04
304.677	0.18
304.889	0.03
305.102	0.06
305.314	0.03
305.526	0.08
305.739	0.06
305.951	-0
306.163	0.05
306.375	0.1
306.588	0.02
306.8	-0.04
307.012	-0.01
307.224	0.03
307.436	0.07
307.649	-0.04
307.861	0.08
308.073	0.07
308.285	0.03
308.497	0.01
308.709	-0.01
308.921	0.05
309.133	0.05
309.346	0.02
309.558	0.02
309.77	0.07
309.982	0.1
310.194	0.12
310.406	0.02
310.617	0.11
310.829	0.02
311.041	0.07
311.253	0.04
311.465	0.06
311.677	0.04
311.889	0.05
312.101	0
312.313	0.08
312.524	0.07
312.736	0.01
312.948	0.02
313.16	0.1
313.372	0.08
313.583	0.04
313.795	0.05
314.007	-0
314.218	0.08
314.43	0.02
314.642	0.02
314.853	-0.03
315.065	0.09
315.277	0.03
315.488	0.07
315.7	0.04
315.912	0.03
316.123	0.07
316.335	0.06
316.546	0.14
316.758	0.01
316.969	0.02
317.181	0.05
317.392	0.05
317.604	0.04
317.815	0.04
318.026	0.03
318.238	0.05
318.449	0.08
318.661	-0.06
318.872	-0.02
319.083	-0.02
319.295	0.07
319.506	0.06
319.717	0.05
319.929	0.06
320.14	0.04
320.351	0.05
320.562	0.03
320.774	0.01
320.985	0.03
321.196	-0.02
321.407	-0.02
321.618	0.06
321.829	0.09
322.041	0.06
322.252	0.01
322.463	0.05
322.674	0.03
322.885	-0
323.096	0.03
323.307	0.04
323.518	0.06
323.729	-0.02
323.94	0.03
324.151	0.04
324.362	0.02
324.573	0.09
324.784	0.01
324.995	0.09
325.206	0.06
325.417	0.02
325.628	0.02
325.838	0.08
326.049	0.04
326.26	0.05
326.471	0.02
326.682	0.06
326.892	0.05
327.103	-0.06
327.314	-0.01
327.525	0.07
327.735	0.05
327.946	0.04
328.157	-0
328.368	0.03
328.578	0.02
328.789	0.1
328.999	0.03
329.21	0
329.421	0.08
329.631	-0.04
329.842	0.01
330.052	0.03
330.263	0.07
330.473	0.05
330.684	0.01
330.894	0.03
331.105	0.02
331.315	0.05
331.526	0.01
331.736	0.1
331.947	0.05
332.157	0.01
332.367	0.03
332.578	0.08
332.788	0.05
332.999	0.08
333.209	0.04
333.419	-0
333.629	0.02
333.84	0.06
334.05	0.05
334.26	0.05
334.47	0.01
334.681	0.06
334.891	0.06
335.101	0.07
335.311	0.12
335.521	0.05
335.732	-0
335.942	0.07
336.152	0.03
336.362	0.04
336.572	0.08
336.782	0.06
336.992	-0
337.202	0.02
337.412	-0
337.622	0.06
337.832	0.03
338.042	0.02
338.252	0.04
338.462	0.02
338.672	0.06
338.882	0.04
339.092	-0.01
339.302	0.08
339.511	0.04
339.721	0.02
339.931	-0.05
340.141	0.11
340.351	0.05
340.561	0.04
340.77	0.04
340.98	-0
341.19	0.05
341.4	0.03
341.609	-0.01
341.819	0.03
342.029	0.02
342.238	0.04
342.448	-0.01
342.658	0.06
342.867	0.04
343.077	0.01
343.286	0.08
343.496	0.02
343.706	0.11
343.915	-0.03
344.125	0.02
344.334	0.04
344.544	-0.04
344.753	0
344.963	0
345.172	0.02
345.381	0.03
345.591	0.01
345.8	-0
346.01	0.02
346.219	0.07
346.428	-0.1
346.638	0.03
346.847	-0
347.056	0.08
347.266	0.01
347.475	-0.01
347.684	0.04
347.893	0.05
348.103	0.02
348.312	-0.03
348.521	0.02
348.73	0.05
348.94	0.03
349.149	0.06
349.358	0.01
349.567	-0.01
349.776	-0.04
349.985	0.02
350.194	0.05
350.403	0.06
350.612	0.01
350.821	0.05
351.03	0.02
351.239	-0.01
351.448	0
351.657	-0
351.866	0.1
352.075	0.06
352.284	0.07
352.493	0.03
352.702	0.11
352.911	0.05
353.12	0.03
353.329	0.03
353.538	0.05
353.746	0.02
353.955	0.01
354.164	0.06
354.373	0.01
354.582	0.04
354.79	0.03
354.999	0.08
355.208	0.02
355.416	0.12
355.625	0
355.834	-0.02
356.042	0.06
356.251	0.02
356.46	0
356.668	0.06
356.877	0.12
357.085	0.08
357.294	0
357.503	0.03
357.711	0.03
357.92	0.17
358.128	0.05
358.337	0.02
358.545	0.05
358.754	-0.01
358.962	0.07
359.17	0.01
359.379	0.03
359.587	0.05
359.796	0.05
360.004	0.05
360.212	0.06
360.421	0.09
360.629	-0
360.837	0.01
361.046	0.06
361.254	0.07
361.462	0.08
361.67	-0.01
361.879	0.02
362.087	0.11
362.295	0.04
362.503	-0
362.711	0.01
362.92	0.02
363.128	0.01
363.336	-0
363.544	0.01
363.752	0.03
363.96	-0.02
364.168	0.02
364.376	0.04
364.584	0.01
364.792	0.06
365	0.1
365.208	0.03
365.416	0.03
365.624	0.09
365.832	-0.01
366.04	0.07
366.248	0.06
366.456	0.06
366.664	0.04
366.872	0.06
367.079	0.04
367.287	-0.01
367.495	0.01
367.703	0.03
367.911	0.05
368.118	0.05
368.326	-0.01
368.534	0.03
368.742	0.08
368.949	0.02
369.157	0.03
369.365	0.08
369.572	0.02
369.78	0.02
369.988	0.09
370.195	0.03
370.403	0.07
370.61	0
370.818	0.06
371.026	0.05
371.233	0.01
371.441	0.04
371.648	0.01
371.856	0.01
372.063	0.01
372.271	0
372.478	0.01
372.685	-0.01
372.893	0.08
373.1	-0
373.308	0.01
373.515	0.12
373.722	0.06
373.93	0.05
374.137	0.07
374.344	0.05
374.552	0.09
374.759	0.09
374.966	0.05
375.173	0.03
375.381	0.07
375.588	0.01
375.795	-0.04
376.002	0.02
376.209	0.03
376.417	0.04
376.624	0.02
376.831	0.06
377.038	0.06
377.245	-0.02
377.452	0.04
377.659	0.05
377.866	0
378.073	0.02
378.28	-0
378.487	0.08
378.694	0.05
378.901	0.01
379.108	0.04
379.315	0.03
379.522	0.12
379.729	0.04
379.936	0.02
380.143	0.04
380.35	0.08
380.557	0.02
380.763	0.02
380.97	0.05
381.177	0.09
381.384	0.05
381.591	0.05
381.797	0.06
382.004	0.07
382.211	0.1
382.418	-0.02
382.624	0.07
382.831	0.07
383.038	0.06
383.244	0.04
383.451	0.03
383.658	0.05
383.864	0.04
384.071	-0
384.277	0.06
384.484	-0.02
384.69	0.06
384.897	0.03
385.103	0.02
385.31	-0.03
385.516	0.03
385.723	0.02
385.929	0
386.136	-0.01
386.342	0.06
386.549	0.04
386.755	0.07
386.961	0.05
387.168	0.01
387.374	0.04
387.58	0.09
387.787	0.04
387.993	0.07
388.199	-0.02
388.406	0.04
388.612	0.04
388.818	0.03
389.024	-0.01
389.231	0.03
389.437	0.1
389.643	0.05
389.849	0.05
390.055	0.05
390.261	0.02
390.467	0.03
390.674	0.04
390.88	-0.01
391.086	0.06
391.292	0.01
391.498	0.03
391.704	0.02
391.91	0.04
392.116	0.01
392.322	-0.06
392.528	-0.01
392.734	0.01
392.94	0.06
393.146	0.03
393.352	0.02
393.557	0.02
393.763	0.04
393.969	0.02
394.175	0.02
394.381	0.04
394.587	-0.03
394.792	0.01
394.998	0.06
395.204	0.08
395.41	-0.01
395.615	0.08
395.821	0.04
396.027	0.05
396.233	0.02
396.438	0.03
396.644	0.08
396.85	0.06
397.055	0.04
397.261	0.06
397.466	0.12
397.672	0.03
397.878	0.06
398.083	0.05
398.289	-0.02
398.494	0.1
398.7	0.05
398.905	-0.04
399.111	0.08
399.316	-0.03
399.522	0.01
399.727	-0.01
399.932	-0.01
400.138	0.03
400.343	0.09
400.549	0.07
400.754	0.05
400.959	0.06
401.165	0.03
401.37	0.04
401.575	0.11
401.78	0.01
401.986	0.02
402.191	0.05
402.396	0.03
402.601	0.09
402.807	0.05
403.012	0.08
403.217	0.05
403.422	0.07
403.627	0.03
403.832	0.01
404.037	0.08
404.243	0.08
404.448	-0.01
404.653	0.02
404.858	0.03
405.063	0.09
405.268	-0.01
405.473	0.04
405.678	-0.04
405.883	0.14
406.088	0.06
406.293	0.03
406.498	-0.06
406.703	0.09
406.907	-0
407.112	-0
407.317	0.06
407.522	0.08
407.727	-0.03
407.932	0.03
408.136	0.1
408.341	0.05
408.546	0.04
408.751	0.08
408.956	-0.02
409.16	0.03
409.365	0.01
409.57	-0.03
409.774	0.04
409.979	0.08
410.184	0.03
410.388	-0.03
410.593	0.07
410.798	0.07
411.002	-0.01
411.207	0.09
411.411	0.05
411.616	-0.02
411.82	0.01
412.025	0.02
412.229	-0.01
412.434	0.1
412.638	0.01
412.843	0.03
413.047	0.03
413.252	-0.02
413.456	0.03
413.66	0.06
413.865	0.02
414.069	0.06
414.273	0
414.478	0.01
414.682	0.05
414.886	0
415.091	-0.03
415.295	-0.04
415.499	0.03
415.703	-0
415.908	0.07
416.112	-0.01
416.316	0.03
416.52	0.03
416.724	-0.04
416.929	-0.02
417.133	0.06
417.337	-0.03
417.541	0.02
417.745	0.05
417.949	0.05
418.153	0.01
418.357	-0
418.561	0.08
418.765	0.03
418.969	0.08
419.173	0.04
419.377	-0.03
419.581	0.14
419.785	0
419.989	0.01
420.193	-0.02
420.397	0.02
420.601	0.05
420.804	0.02
421.008	0.02
421.212	0.07
421.416	0.07
421.62	0.03
421.823	0.02
422.027	0.08
422.231	0.06
422.435	0
422.638	0.07
422.842	0.04
423.046	-0
423.249	0.09
423.453	0.07
423.657	0.08
423.86	0.03
424.064	0.06
424.268	0.1
424.471	0.06
424.675	0.1
424.878	0.07
425.082	0.09
425.285	0.12
425.489	-0
425.692	0.03
425.896	-0.05
426.099	0.05
426.303	-0.01
426.506	-0.04
426.71	0.02
426.913	0.09
427.116	0.08
427.32	0.03
427.523	0.04
427.726	0.1
427.93	-0.04
428.133	0.04
428.336	-0.02
428.54	-0.03
428.743	0.07
428.946	0.08
429.149	-0.02
429.353	0.01
429.556	0.04
429.759	0.04
429.962	-0
430.165	0.05
430.368	0.04
430.571	0.04
430.775	0.02
430.978	0.02
431.181	0.03
431.384	0.06
431.587	0.02
431.79	0.05
431.993	0.04
432.196	0.01
432.399	0
432.602	0.12
432.805	0
433.008	0.05
433.211	-0.02
433.414	0.04
433.616	0.05
433.819	-0.01
434.022	-0.08
434.225	0.09
434.428	0.05
434.631	0.14
434.833	0.03
435.036	0.03
435.239	0.09
435.442	0.06
435.645	0.02
435.847	0.01
436.05	0.06
436.253	0.08
436.455	-0.03
436.658	0.02
436.861	0.11
437.063	0.01
437.266	0
437.468	0.02
437.671	0.16
437.874	0.05
438.076	-0.05
438.279	-0.07
438.481	0.01
438.684	-0.04
438.886	0.04
439.089	-0.05
439.291	0
439.494	0.07
439.696	0.03
439.899	0.05
440.101	0.02
440.303	-0.01
440.506	0.07
440.708	0.02
440.91	0.04
441.113	-0.03
441.315	0.1
441.517	-0.03
441.72	0.04
441.922	0.06
442.124	0.03
442.326	0.05
442.529	0.11
442.731	-0.04
442.933	0.07
443.135	0.05
443.337	-0.05
443.539	0.01
443.742	-0.03
443.944	-0
444.146	-0.02
444.348	-0.03
444.55	-0.02
444.752	-0.01
444.954	0.01
445.156	0.06
445.358	-0.01
445.56	0.08
445.762	0.02
445.964	0.05
446.166	-0.03
446.368	0.05
446.57	0.02
446.772	0.02
446.974	0.04
447.175	0.02
447.377	0.02
447.579	-0.01
447.781	-0.02
447.983	0.1
448.184	0.05
448.386	0.05
448.588	-0.04
448.79	0.03
448.991	-0.04
449.193	0.01
449.395	0.03
449.597	0.06
449.798	0.02
450	0.02
450.202	0.02
450.403	0.01
450.605	0.05
450.806	0.07
451.008	-0.01
451.21	-0
451.411	0.05
451.613	0.03
451.814	0.05
452.016	0.07
452.217	0.03
452.419	0.07
452.62	0.06
452.821	0.1
453.023	0.07
453.224	0.04
453.426	0
453.627	0.03
453.828	0.02
454.03	0.03
454.231	0.02
454.432	0
454.634	0.05
454.835	0.03
455.036	0.02
455.238	0.04
455.439	0.09
455.64	0.03
455.841	-0.03
456.042	0.1
456.244	0.08
456.445	-0.01
456.646	-0.05
456.847	0.03
457.048	0.05
457.249	0.09
457.45	0.16
457.651	-0.07
457.852	0.03
458.054	0.07
458.255	0.07
458.456	0.06
458.657	0.07
458.858	0.02
459.058	0.05
459.259	0.08
459.46	0.05
459.661	0.03
459.862	0.14
460.063	-0.01
460.264	0.06
460.465	-0.04
460.666	0.13
460.866	-0.03
461.067	0.03
461.268	0.03
461.469	-0
461.67	0.01
461.87	0.06
462.071	-0.01
462.272	-0.02
462.473	0.01
462.673	0.12
462.874	-0.05
463.075	0.05
463.275	-0.02
463.476	0.04
463.676	0.05
463.877	0.02
464.078	0.07
464.278	0.05
464.479	0.03
464.679	0.03
464.88	0.03
465.08	0.06
465.281	-0
465.481	0.02
465.682	-0
465.882	0.07
466.083	0.01
466.283	0.04
466.483	0.09
466.684	-0.04
466.884	-0.01
467.085	0.02
467.285	0.06
467.485	0
467.686	0
467.886	-0
468.086	0.01
468.286	0.04
468.487	0.01
468.687	-0.02
468.887	-0.01
469.087	0.06
469.287	0.01
469.488	-0.06
469.688	0.05
469.888	0.05
470.088	0.07
470.288	0.05
470.488	0.08
470.688	-0.01
470.888	-0
471.088	0
471.288	0.07
471.488	0.09
471.688	0.02
471.888	-0
472.088	0.06
472.288	0.02
472.488	0.01
472.688	-0.02
472.888	0.02
473.088	0.06
473.288	0.06
473.488	0.01
473.688	0.09
473.887	0.01
474.087	0.02
474.287	0.06
474.487	-0
474.687	0.04
474.886	-0
475.086	0.02
475.286	0.02
475.486	-0
475.685	0.02
475.885	0.01
476.085	0.03
476.284	0.05
476.484	-0
476.684	0.04
476.883	0.07
477.083	0.05
477.282	-0
477.482	0.08
477.681	0.11
477.881	0.04
478.08	-0.02
478.28	-0.02
478.479	0.04
478.679	0.11
478.878	0
479.078	-0.02
479.277	0.01
479.477	0.02
479.676	0.05
479.875	0.02
480.075	-0.04
480.274	0.02
480.473	0.06
480.673	-0.01
480.872	0.06
481.071	0.03
481.271	0.01
481.47	-0.02
481.669	0.02
481.868	0.03
482.067	0.02
482.267	0.02
482.466	-0.01
482.665	-0
482.864	-0.01
483.063	0.01
483.262	0.04
483.461	0.1
483.661	0.06
483.86	0.02
484.059	0.02
484.258	0.02
484.457	0.02
484.656	0.02
484.855	0.05
485.054	-0
485.253	0.01
485.452	-0.01
485.651	0.02
485.849	0.01
486.048	-0.01
486.247	0.01
486.446	-0.03
486.645	-0.01
486.844	-0.03
487.043	0.02
487.241	0.06
487.44	0.01
487.639	-0.01
487.838	0.03
488.037	0.04
488.235	0.07
488.434	0.02
488.633	0.02
488.831	0.01
489.03	0.06
489.229	0.03
489.427	0.01
489.626	0.05
489.825	0.05
490.023	0.02
490.222	-0.02
490.42	0.04
490.619	0.04
490.817	0.04
491.016	0.02
491.214	0.04
491.413	0
491.611	0.01
491.81	0.01
492.008	0.04
492.207	0.03
492.405	0
492.604	-0.01
492.802	0.01
493	0
493.199	-0.03
493.397	0.04
493.595	-0.01
493.794	-0.01
493.992	0.07
494.19	0.02
494.388	0.02
494.587	0.02
494.785	0.02
494.983	-0.03
495.181	0.01
495.379	0.02
495.578	0.01
495.776	0.03
495.974	0.03
496.172	-0
496.37	0.02
496.568	-0.01
496.766	0
496.964	0.05
497.162	0.02
497.36	-0.03
497.558	0.03
497.756	0.03
497.954	0.01
498.152	-0
498.35	0.01
498.548	0.01
498.746	0.01
498.944	-0.01
499.142	0.02
499.34	-0.03
499.538	0.02
499.736	-0
499.933	0.04
500.131	0.04
500.329	0.02
500.527	0.02
500.725	0.04
500.922	0.05
501.12	0.02
501.318	0.04
501.516	-0.01
501.713	0.03
501.911	0
502.109	-0.01
502.306	0.03
502.504	0.02
502.701	0.01
502.899	0.02
503.097	0.04
503.294	0.01
503.492	0.03
503.689	0.03
503.887	0.05
504.084	0.07
504.282	0.02
504.479	-0.02
504.677	0.02
504.874	-0.01
505.072	0.03
505.269	-0
505.466	0.04
505.664	0.03
505.861	-0.02
506.059	-0.03
506.256	0.03
506.453	-0
506.651	0.04
506.848	0.03
507.045	0.04
507.242	0.02
507.44	0
507.637	0
507.834	0.03
508.031	0.05
508.229	-0
508.426	-0.02
508.623	0.01
508.82	0.01
509.017	-0.01
509.214	0.01
509.411	0.01
509.608	-0.01
509.805	0.02
510.003	0.01
510.2	-0
510.397	0.04
510.594	0.01
510.791	0
510.988	0
511.184	0.02
511.381	0.01
511.578	0.02
511.775	0.05
511.972	0.01
512.169	0.02
512.366	0.02
512.563	0.03
512.76	0.02
512.956	0.02
513.153	-0.01
513.35	0.02
513.547	0
513.744	0
513.94	-0.01
514.137	0.03
514.334	0.01
514.53	0.02
514.727	0.01
514.924	0.09
515.12	0.01
515.317	-0
515.514	0
515.71	-0.01
515.907	0.01
516.103	0.03
516.3	0.04
516.497	0.03
516.693	0.04
516.89	0.02
517.086	-0.01
517.283	0.04
517.479	0.02
517.676	0.03
517.872	0.01
518.068	0.01
518.265	-0.01
518.461	-0
518.658	-0.01
518.854	0.02
519.05	0.02
519.247	-0.01
519.443	0.02
519.639	0.01
519.836	0.04
520.032	0
520.228	0.02
520.424	0.06
520.621	0.01
520.817	0.03
521.013	0.04
521.209	0.04
521.405	0.05
521.601	0.02
521.798	0.05
521.994	0.04
522.19	-0.02
522.386	-0.01
522.582	0.02
522.778	0.03
522.974	-0.02
523.17	0.01
523.366	0.01
523.562	0.01
523.758	0.01
523.954	0.01
524.15	0.01
524.346	0.02
524.542	0
524.738	0
524.934	0.02
525.129	-0.06
525.325	0.03
525.521	0.01
525.717	0.04
525.913	0.04
526.109	0.03
526.304	0.02
526.5	0.03
526.696	0.03
526.892	0.01
527.087	0.02
527.283	0.01
527.479	0.05
527.674	-0.01
527.87	0.02
528.066	0.02
528.261	0.03
528.457	0.02
528.653	0.01
528.848	0
529.044	0
529.239	0.02
529.435	0.04
529.63	0.02
529.826	0.05
530.021	0.03
530.217	0.04
530.412	-0
530.608	-0.01
530.803	0.03
530.999	0
531.194	-0.02
531.389	0.02
531.585	-0.02
531.78	0.01
531.975	0.01
532.171	0.03
532.366	0
532.561	0.02
532.757	-0
532.952	0.02
533.147	0.03
533.342	0.03
533.538	-0
533.733	0.03
533.928	0.02
534.123	-0.01
534.318	-0.02
534.513	0.02
534.709	0.02
534.904	0.01
535.099	0
535.294	0.01
535.489	0.02
535.684	0.01
535.879	-0.02
536.074	0.01
536.269	-0
536.464	0.03
536.659	0.01
536.854	0.01
537.049	0.02
537.244	0.03
537.439	0.01
537.634	0.03
537.828	0.03
538.023	-0
538.218	0.01
538.413	0.02
538.608	-0.01
538.803	0.02
538.997	-0.02
539.192	0.07
539.387	0.02
539.582	0.04
539.776	0.02
539.971	0.02
540.166	-0.02
540.36	-0.01
540.555	0.01
540.75	0.01
540.944	0.02
541.139	-0.02
541.334	0.01
541.528	0.03
541.723	0.05
541.917	0.01
542.112	-0.03
542.306	0.02
542.501	0.01
542.695	0.02
542.89	0.02
543.084	0.01
543.279	0.02
543.473	0.03
543.668	0.01
543.862	0.03
544.056	0.06
544.251	0
544.445	0.02
544.64	0.02
544.834	0.01
545.028	0
545.222	0.02
545.417	0.05
545.611	0.04
545.805	0.02
546	-0.01
546.194	0.02
546.388	0.02
546.582	0.02
546.776	0
546.97	0.03
547.165	0.03
547.359	0.03
547.553	-0
547.747	0.03
547.941	0.01
548.135	0.02
548.329	0.04
548.523	0.03
548.717	0.02
548.911	-0
549.105	0.01
549.299	0.01
549.493	0.02
549.687	0.03
549.881	0.03
550.075	0.02
550.269	0
550.463	0.03
550.657	0.01
550.85	0.02
551.044	-0.01
551.238	0.03
551.432	0
551.626	-0.01
551.82	0.03
552.013	-0
552.207	0.01
552.401	0.05
552.594	0.03
552.788	0.02
552.982	0.04
553.176	0.01
553.369	0.03
553.563	0.02
553.756	0
553.95	-0
554.144	0.02
554.337	0.05
554.531	0.01
554.724	0.03
554.918	0
555.111	0.05
555.305	0.03
555.498	0.03
555.692	0.04
555.885	0.02
556.079	0.05
556.272	-0
556.466	0.04
556.659	0.01
556.852	0.01
557.046	0.02
557.239	0.04
557.432	0.01
557.626	0
557.819	0.03
558.012	0.04
558.206	0.03
558.399	0.02
558.592	0.01
558.785	0.01
558.979	0.07
559.172	0.04
559.365	0.03
559.558	0.01
559.751	0.03
559.944	0.01
560.138	0.01
560.331	0.02
560.524	0.02
560.717	0.04
560.91	0.01
561.103	0.04
561.296	0.03
561.489	0.04
561.682	0.03
561.875	0.04
562.068	0.04
562.261	0.02
562.454	0.06
562.647	0.06
562.84	0.04
563.032	0.01
563.225	0.02
563.418	0.03
563.611	0.02
563.804	0.03
563.997	0.01
564.19	-0.01
564.382	-0.03
564.575	0.03
564.768	0.02
564.961	-0
565.153	0.03
565.346	0.04
565.539	0.05
565.731	0.03
565.924	0.06
566.117	0.06
566.309	0.02
566.502	-0
566.695	0.03
566.887	0.01
567.08	0
567.272	0.02
567.465	-0
567.657	0.03
567.85	0.03
568.042	0.04
568.235	0.06
568.427	0.03
568.62	0.04
568.812	0.05
569.005	0.03
569.197	0.01
569.389	0
569.582	0.04
569.774	0.03
569.966	-0.02
570.159	-0
570.351	0.05
570.543	0.03
570.736	0.01
570.928	-0.02
571.12	0.02
571.312	0.01
571.505	0
571.697	0.04
571.889	-0
572.081	0.02
572.273	-0
572.465	0.07
572.658	0.03
572.85	0.05
573.042	0.03
573.234	0.03
573.426	0.05
573.618	-0.01
573.81	0.05
574.002	0.06
574.194	0.06
574.386	-0.01
574.578	-0.03
574.77	-0.01
574.962	0.03
575.154	-0.02
575.346	0.04
575.538	0.05
575.729	0
575.921	-0.01
576.113	0.01
576.305	0.03
576.497	0.03
576.689	0.02
576.88	0.01
577.072	0.05
577.264	0.02
577.456	0.02
577.647	0
577.839	0.03
578.031	0.06
578.223	-0
578.414	0.02
578.606	0.04
578.798	0.07
578.989	0
579.181	0.02
579.372	0.04
579.564	0.02
579.755	0.05
579.947	0.03
580.139	0.06
580.33	-0.01
580.522	0.01
580.713	-0.02
580.905	0.04
581.096	0.04
581.287	0.02
581.479	0.04
581.67	0.05
581.862	0.03
582.053	0.04
582.244	0
582.436	0.03
582.627	0.05
582.818	0.02
583.01	0.02
583.201	0.05
583.392	0.06
583.583	0.03
583.775	0.01
583.966	-0
584.157	0.03
584.348	0.03
584.54	-0.01
584.731	0.08
584.922	0.05
585.113	0
585.304	0.04
585.495	0.05
585.686	0.04
585.877	0.04
586.068	0.04
586.259	0.04
586.45	0.06
586.641	0.02
586.832	-0.02
587.023	0.04
587.214	0.04
587.405	0.04
587.596	0
587.787	0.07
587.978	0.03
588.169	0.03
588.36	0.03
588.551	0.04
588.742	0.02
588.932	0.05
589.123	0.03
589.314	0.07
589.505	0.06
589.696	0.05
589.886	0.02
590.077	0.02
590.268	0.04
590.458	0.03
590.649	0.02
590.84	0.07
591.03	0.03
591.221	0.02
591.412	-0.02
591.602	0.07
591.793	0.09
591.984	0.01
592.174	0.06
592.365	0.09
592.555	0.03
592.746	0.09
592.936	0.07
593.127	0.07
593.317	0.11
593.508	0.04
593.698	0.03
593.889	0.05
594.079	0.07
594.269	0.06
594.46	0.04
594.65	0.06
594.84	0.05
595.031	0
595.221	0.06
595.411	0.02
595.602	0.08
595.792	0.08
595.982	0.04
596.172	0.12
596.363	0.06
596.553	0.09
596.743	0.09
596.933	0.07
597.123	0.09
597.314	0.05
597.504	0.05
597.694	0.09
597.884	0.1
598.074	0.07
598.264	0.05
598.454	0.09
598.644	0.06
598.834	0.09
599.024	0.06
599.214	0.06
599.404	0.1
599.594	0.05
599.784	0.06
599.974	0.12
600.164	0.1
600.354	0.07
600.544	0.04
600.734	0.11
600.924	0.11
601.114	0.06
601.303	0.08
601.493	0.1
601.683	0.08
601.873	0.09
602.063	0.04
602.252	0.12
602.442	0.01
602.632	0.07
602.821	0.08
603.011	0.14
603.201	0.1
603.39	0.09
603.58	0.11
603.77	0.11
603.959	0.16
604.149	0.12
604.339	0.1
604.528	0.15
604.718	0.15
604.907	0.12
605.097	0.11
605.286	0.09
605.476	0.12
605.665	0.14
605.855	0.11
606.044	0.18
606.234	0.14
606.423	0.14
606.612	0.11
606.802	0.14
606.991	0.17
607.181	0.16
607.37	0.11
607.559	0.12
607.749	0.09
607.938	0.17
608.127	0.17
608.316	0.15
608.506	0.18
608.695	0.15
608.884	0.16
609.073	0.17
609.263	0.21
609.452	0.23
609.641	0.19
609.83	0.16
610.019	0.15
610.208	0.17
610.397	0.19
610.586	0.22
610.775	0.21
610.965	0.21
611.154	0.19
611.343	0.23
611.532	0.22
611.721	0.21
611.91	0.2
612.099	0.26
612.287	0.21
612.476	0.23
612.665	0.27
612.854	0.23
613.043	0.31
613.232	0.22
613.421	0.22
613.61	0.31
613.798	0.27
613.987	0.32
614.176	0.29
614.365	0.33
614.554	0.31
614.742	0.31
614.931	0.29
615.12	0.36
615.309	0.32
615.497	0.34
615.686	0.31
615.875	0.34
616.063	0.36
616.252	0.32
616.44	0.35
616.629	0.38
616.818	0.4
617.006	0.38
617.195	0.39
617.383	0.41
617.572	0.4
617.76	0.42
617.949	0.39
618.137	0.42
618.326	0.47
618.514	0.39
618.703	0.41
618.891	0.54
619.079	0.47
619.268	0.51
619.456	0.43
619.644	0.54
619.833	0.48
620.021	0.5
620.209	0.5
620.398	0.57
620.586	0.54
620.774	0.58
620.962	0.58
621.151	0.63
621.339	0.59
621.527	0.57
621.715	0.56
621.903	0.58
622.092	0.6
622.28	0.68
622.468	0.67
622.656	0.67
622.844	0.72
623.032	0.69
623.22	0.64
623.408	0.8
623.596	0.73
623.784	0.8
623.972	0.73
624.16	0.76
624.348	0.89
624.536	0.86
624.724	0.79
624.912	0.9
625.1	0.89
625.288	0.87
625.476	0.84
625.664	0.93
625.851	0.92
626.039	1.01
626.227	0.98
626.415	1
626.603	0.96
626.79	1.01
626.978	1.05
627.166	1.12
627.354	1.09
627.541	1.12
627.729	1.07
627.917	1.19
628.104	1.2
628.292	1.18
628.48	1.26
628.667	1.24
628.855	1.31
629.042	1.37
629.23	1.28
629.418	1.38
629.605	1.39
629.793	1.38
629.98	1.41
630.168	1.44
630.355	1.48
630.543	1.53
630.73	1.51
630.917	1.56
631.105	1.67
631.292	1.6
631.48	1.65
631.667	1.75
631.854	1.67
632.042	1.72
632.229	1.74
632.416	1.81
632.604	1.85
632.791	1.8
632.978	1.94
633.165	1.95
633.353	1.99
633.54	2.1
633.727	1.94
633.914	2.08
634.101	2.01
634.289	2.19
634.476	2.15
634.663	2.2
634.85	2.24
635.037	2.24
635.224	2.24
635.411	2.39
635.598	2.34
635.785	2.39
635.972	2.45
636.159	2.47
636.346	2.5
636.533	2.56
636.72	2.61
636.907	2.69
637.094	2.66
637.281	2.64
637.468	2.76
637.655	2.86
637.842	2.91
638.029	2.88
638.215	2.99
638.402	3.04
638.589	3.01
638.776	3.12
638.963	3.07
639.149	3.24
639.336	3.36
639.523	3.35
639.709	3.35
639.896	3.41
640.083	3.44
640.27	3.59
640.456	3.58
640.643	3.67
640.829	3.63
641.016	3.77
641.203	3.75
641.389	3.86
641.576	3.96
641.762	4.01
641.949	4.06
642.135	4.2
642.322	4.26
642.508	4.23
642.695	4.38
642.881	4.37
643.068	4.45
643.254	4.57
643.441	4.67
643.627	4.75
643.813	4.74
644	5
644.186	4.9
644.372	5.12
644.559	5.2
644.745	5.25
644.931	5.28
645.118	5.43
645.304	5.51
645.49	5.61
645.676	5.77
645.862	5.76
646.049	5.98
646.235	6.04
646.421	6.31
646.607	6.39
646.793	6.41
646.979	6.36
647.165	6.63
647.352	6.75
647.538	6.87
647.724	6.83
647.91	7.04
648.096	7.24
648.282	7.35
648.468	7.35
648.654	7.58
648.84	7.66
649.026	7.82
649.212	7.83
649.397	8.02
649.583	8.32
649.769	8.38
649.955	8.43
650.141	8.69
650.327	8.67
650.513	8.91
650.698	9.04
650.884	9.07
651.07	9.35
651.256	9.38
651.442	9.63
651.627	9.54
651.813	9.96
651.999	9.95
652.184	10.16
652.37	10.4
652.556	10.47
652.741	10.55
652.927	10.4
653.113	10.86
653.298	11.01
653.484	11.11
653.669	11.31
653.855	11.38
654.04	11.65
654.226	11.71
654.412	11.86
654.597	11.81
654.782	12.15
654.968	12.23
655.153	12.44
655.339	12.55
655.524	12.61
655.71	12.85
655.895	13.17
656.08	13.16
656.266	13.38
656.451	13.32
656.636	13.43
656.822	13.54
657.007	13.59
657.192	13.7
657.378	13.84
657.563	13.75
657.748	13.92
657.933	14.01
658.118	13.8
658.304	14.21
658.489	14.28
658.674	14.16
658.859	14.02
659.044	14.06
659.229	14.12
659.414	14.02
659.599	13.99
659.785	13.79
659.97	13.77
660.155	13.66
660.34	13.66
660.525	13.28
660.71	13.13
660.895	13
661.08	12.8
661.264	12.51
661.449	12.38
661.634	12.04
661.819	11.95
662.004	11.48
662.189	11.35
662.374	10.99
662.559	10.73
662.743	10.43
662.928	10.2
663.113	9.76
663.298	9.6
663.483	9.3
663.667	9
663.852	8.77
664.037	8.54
664.221	8.24
664.406	7.98
664.591	7.68
664.775	7.46
664.96	7.11
665.145	6.79
665.329	6.73
665.514	6.39
665.698	6.09
665.883	5.86
666.068	5.81
666.252	5.63
666.437	5.3
666.621	5.2
666.806	4.99
666.99	4.78
667.174	4.49
667.359	4.47
667.543	4.23
667.728	4.1
667.912	3.93
668.096	3.82
668.281	3.64
668.465	3.63
668.649	3.44
668.834	3.27
669.018	3.17
669.202	3.06
669.387	2.98
669.571	2.88
669.755	2.76
669.939	2.7
670.124	2.56
670.308	2.58
670.492	2.45
670.676	2.3
670.86	2.23
671.044	2.1
671.228	2.17
671.413	2
671.597	1.94
671.781	1.88
671.965	1.88
672.149	1.8
672.333	1.73
672.517	1.62
672.701	1.63
672.885	1.51
673.069	1.38
673.253	1.54
673.437	1.43
673.621	1.31
673.804	1.35
673.988	1.3
674.172	1.22
674.356	1.08
674.54	1.15
674.724	1.21
674.908	1.05
675.091	1.09
675.275	0.99
675.459	1.03
675.643	0.89
675.826	0.91
676.01	0.88
676.194	0.83
676.377	0.88
676.561	0.85
676.745	0.8
676.928	0.79
677.112	0.76
677.296	0.67
677.479	0.68
677.663	0.68
677.846	0.68
678.03	0.63
678.213	0.56
678.397	0.61
678.58	0.57
678.764	0.53
678.947	0.5
679.131	0.49
679.314	0.54
679.498	0.53
679.681	0.55
679.865	0.57
680.048	0.44
680.231	0.42
680.415	0.43
680.598	0.47
680.781	0.39
680.965	0.4
681.148	0.42
681.331	0.33
681.514	0.43
681.698	0.33
681.881	0.42
682.064	0.33
682.247	0.36
682.43	0.3
682.614	0.32
682.797	0.36
682.98	0.3
683.163	0.24
683.346	0.35
683.529	0.25
683.712	0.24
683.895	0.3
684.078	0.23
684.261	0.23
684.444	0.25
684.627	0.28
684.81	0.24
684.993	0.23
685.176	0.25
685.359	0.19
685.542	0.19
685.725	0.28
685.908	0.23
686.091	0.22
686.274	0.24
686.457	0.21
686.639	0.2
686.822	0.22
687.005	0.2
687.188	0.18
687.371	0.27
687.553	0.21
687.736	0.2
687.919	0.27
688.102	0.29
688.284	0.13
688.467	0.19
688.65	0.14
688.832	0.11
689.015	0.14
689.197	0.11
689.38	0.24
689.563	0.21
689.745	0.13
689.928	0.15
690.11	0.14
690.293	0.22
690.475	0.11
690.658	0.18
690.84	0.16
691.023	0.19
691.205	0.13
691.388	0.13
691.57	0.19
691.752	0.18
691.935	0.05
692.117	0.05
692.3	0.12
692.482	0.12
692.664	0.13
692.847	0.15
693.029	0.13
693.211	0.14
693.393	0.07
693.576	0.11
693.758	0.11
693.94	0.14
694.122	0.13
694.304	0.11
694.487	0.13
694.669	0.25
694.851	0.08
695.033	0.15
695.215	0.06
695.397	0.08
695.579	0.13
695.761	0.1
695.943	0.02
696.125	0.14
696.308	0.1
696.49	-0
696.671	0.23
696.853	0.07
697.035	0.23
697.217	0.07
697.399	0.15
697.581	0.08
697.763	0.09
697.945	0.08
698.127	0.09
698.309	0.16
698.491	0.08
698.672	0.11
698.854	0.1
699.036	0.14
699.218	0.04
699.399	0.15
699.581	0.11
699.763	0.07
699.945	0.03
700.126	0.05
700.308	0.08
700.49	0.07
700.671	0.01
700.853	0.02
701.035	0.06
701.216	0.08
701.398	0.03
701.579	0.04
701.761	0.17
701.943	0.1
702.124	-0
702.306	0.07
702.487	0.17
702.669	0.07
702.85	0.05
703.031	0.07
703.213	0.18
703.394	0.13
703.576	0.05
703.757	0.18
703.938	0.12
704.12	0.19
704.301	0.04
704.483	0.07
704.664	0.13
704.845	0.18
705.026	0.12
705.208	0.05
705.389	0.03
705.57	0.11
705.751	0.01
705.933	0.06
706.114	0.12
706.295	0.05
706.476	0
706.657	0.19
706.838	0.1
707.02	0.13
707.201	0.03
707.382	0.07
707.563	0.02
707.744	0.07
707.925	-0.01
708.106	-0.01
708.287	0.08
708.468	0.11
708.649	0.05
708.83	0.12
709.011	0.05
709.192	0.13
709.373	0.01
709.554	0.06
709.734	0.14
709.915	0.1
710.096	0.05
710.277	-0.02
710.458	0.06
710.639	0.1
710.819	-0.05
711	0.01
711.181	0.13
711.362	0.11
711.542	0.03
711.723	0.02
711.904	0.18
712.085	0.19
712.265	0.05
712.446	0.03
712.627	0.05
712.807	0.06
712.988	0.06
713.168	-0.02
713.349	0.06
713.53	-0.09
713.71	0.02
713.891	0.04
714.071	0.04
714.252	-0.01
714.432	-0
714.613	-0.04
714.793	0.14
714.974	0.12
715.154	0.12
715.334	0.07
715.515	0.19
715.695	-0.07
715.876	-0
716.056	0.03
716.236	0.09
716.417	0.1
716.597	0.01
716.777	0.26
716.957	0.03
717.138	0.04
717.318	0.11
717.498	-0.06
717.678	0.07
717.859	0.04
718.039	0.01
718.219	0.1
718.399	0.09
718.579	0.02
718.759	0.02
718.939	0.09
719.12	0.01
719.3	0.04
719.48	-0.09
719.66	-0.02
719.84	0.19
720.02	0.04
720.2	-0.03
720.38	0.08
720.56	0.15
720.74	0.04
720.92	0.04
721.1	0.14
721.279	0.11
721.459	0.1
721.639	-0.08
721.819	0.08
721.999	-0.01
722.179	0.09
722.359	-0.04
722.538	0.05
722.718	0.05
722.898	0.02
723.078	-0
723.257	0.01
723.437	0.04
723.617	0.11
723.797	-0.03
723.976	0.04
724.156	0.1
724.336	0.16
724.515	0.27
724.695	-0.04
724.874	0.01
725.054	0.19
725.234	-0.01
725.413	0.08
725.593	0.01
725.772	0.05
725.952	0.03
726.131	0.09
726.311	0.1
726.49	-0.04
726.67	0.02
726.849	-0.07
727.028	0.1
727.208	0.06
727.387	0.06
727.567	-0.05
727.746	0.01
727.925	0.08
728.105	0.09
728.284	-0.04
728.463	-0.22
728.643	0.12
728.822	-0.05
729.001	0
729.18	0.11
729.359	0.06
729.539	0.01
729.718	0.13
729.897	0.06
730.076	0.01
730.255	-0.06
730.434	0.1
730.614	0.05
730.793	0.12
730.972	0.07
731.151	0.03
731.33	0.21
731.509	0.09
731.688	0.08
731.867	0.05
732.046	-0.08
732.225	0.23
732.404	-0
732.583	0.03
732.762	0.13
732.941	0.14
733.12	0.07
733.298	-0.05
733.477	0.12
733.656	0.02
733.835	-0
734.014	0.13
734.193	0.08
734.371	0.08
734.55	0.05
734.729	-0.02
734.908	0.03
735.086	0.11
735.265	0.14
735.444	-0.06
735.623	-0.07
735.801	0.02
735.98	0.06
736.159	0.02
736.337	0.14
736.516	0.09
736.694	0.11
736.873	0.01
737.052	0.11
737.23	0.17
737.409	-0.01
737.587	0.25
737.766	-0.15
737.944	-0.09
738.123	0.11
738.301	0.12
738.479	0.08
738.658	0.13
738.836	-0.03
739.015	0.05
739.193	0.23
739.371	0.02
739.55	0.03
739.728	-0.01
739.906	0.17
740.085	0.16
740.263	-0.13
740.441	-0.05
740.62	0.26
740.798	0.14
740.976	-0.08
741.154	0.09
741.332	0.21
741.511	0.11
741.689	0.1
741.867	0.14
742.045	0.1
742.223	0.11
742.401	-0.01
742.579	0.07
742.757	0.17
742.935	-0.05
743.114	-0.04
743.292	0.08
743.47	0.1
743.648	0.06
743.826	-0.16
744.004	0.15
744.181	0.07
744.359	-0.02
744.537	0.07
744.715	0.13
744.893	0.14
745.071	-0.04
745.249	-0
745.427	0.08
745.605	0.13
745.782	0.1
745.96	0.11
746.138	0.09
746.316	0.14
746.493	0.04
746.671	-0.04
746.849	0.12
747.027	0.12
747.204	-0.09
747.382	0.18
747.56	-0.09
747.737	-0.04
747.915	-0.03
748.093	0.07
748.27	-0.01
748.448	-0.06
748.625	-0.1
748.803	-0.08
748.98	0.11
749.158	0.01
749.335	0.05
749.513	0.01
749.69	0.09
749.868	0.09
750.045	0.11
750.223	-0.03
750.4	-0.08
750.578	0.25
750.755	0.04
750.932	-0.1
751.11	0.15
751.287	-0.12
751.464	0.16
751.642	-0.02
751.819	0.04
751.996	0.16
752.173	-0.01
752.351	-0.06
752.528	0.06
752.705	0.07
752.882	0.02
753.06	0.06
753.237	0.15
753.414	0.3
753.591	0.28
753.768	0.12
753.945	0.1
754.122	-0
754.299	0.19
754.476	-0.07
754.654	0.14
754.831	0.07
755.008	0.13
755.185	-0.04
755.362	-0.03
755.539	0.01
755.716	0.02
755.892	-0.02
756.069	-0.02
756.246	0.06
756.423	0.08
756.6	0.19
756.777	0.08
756.954	0.15
757.131	0.09
757.307	0.04
757.484	-0.02
757.661	0.09
757.838	0.12
758.015	-0.1
758.191	0.22
758.368	0.08
758.545	0.28
758.721	0.24
758.898	-0.02
759.075	0.25
759.251	0.15
759.428	0.13
759.605	-0.09
759.781	0.01
759.958	0.15
760.134	0.06
760.311	-0.04
760.488	0.04
760.664	0.19
760.841	0.1
761.017	-0.15
761.194	0.17
761.37	0.1
761.547	0.15
761.723	-0.02
761.899	0.09
762.076	-0.08
762.252	-0.1
762.429	0.09
762.605	0.15
762.781	-0.01
762.958	0.19
763.134	-0.01
763.31	0.05
763.486	0.15
763.663	-0.01
763.839	0.07
764.015	-0.13
764.191	-0.08
764.368	-0.03
764.544	-0.08
764.72	0.1
764.896	0.17
765.072	0.16
765.248	0.03
765.425	-0.03
765.601	-0.08
765.777	0.02
765.953	-0.04
766.129	-0.08
766.305	0.06
766.481	0.05
766.657	0.04
766.833	0.29
767.009	-0.04
767.185	-0.04
767.361	0.04
767.537	-0.07
767.713	0.18
767.889	-0
768.065	0.02
768.24	0.03
768.416	0.03
768.592	0.06
768.768	0.09
768.944	0.12
769.12	0.01
769.295	0.07
769.471	0.08
769.647	0.09
769.823	0.19
769.998	0.06
770.174	-0.02
770.35	0.26
770.525	0.32
770.701	0.04
770.877	0.08
771.052	-0.11
771.228	0.15
771.403	-0.01
771.579	0.16
771.755	0.32
771.93	0.06
772.106	-0.04
772.281	-0.13
772.457	-0.01
772.632	0.09
772.808	-0.09
772.983	0.03
773.159	-0.16
773.334	0.2
773.509	-0
773.685	-0.02
773.86	0.25
774.036	0.27
774.211	0.13
774.386	0.06
774.562	0.06
774.737	0.23
774.912	-0.15
775.087	0.16
775.263	0.02
775.438	-0.04
775.613	-0.03
775.788	-0.01
775.964	0.01
776.139	0.43
776.314	-0.09
776.489	-0.07
776.664	0.15
776.839	-0.11
777.014	0.16
777.19	0.08
777.365	0.19
777.54	0.19
777.715	-0.02
777.89	-0.03
778.065	-0.07
778.24	0.15
778.415	0.3
778.59	-0.06
778.765	-0.04
778.94	-0.09
779.115	0.01
779.289	-0.21
779.464	0.02
779.639	-0.03
779.814	-0.14
779.989	-0.05
780.164	0.18
780.339	0.21
780.513	-0.05
780.688	-0.06
780.863	0.02
781.038	0.23
781.212	-0.01
781.387	0.09
781.562	0.33
781.737	0.04
781.911	0.38
782.086	0.04
782.261	0.06
782.435	0.31
782.61	-0.01
782.784	0.09
782.959	0.37
783.134	-0.04
783.308	-0.14
783.483	0.06
783.657	0.39
783.832	0.2
784.006	-0.23
784.181	0.07
784.355	-0.04
784.53	0.1
784.704	-0.11
784.878	0.29
785.053	0.13
785.227	0.19
785.402	0.46
785.576	-0.15
785.75	0.04
785.925	0.03
786.099	0.1
786.273	0.21
786.448	0.09
786.622	0.25
786.796	0.08
786.97	-0.05
787.145	0.55
787.319	-0.25
787.493	0
787.667	-0.16
787.841	-0.12
788.015	0.18
788.19	-0.34
788.364	0.1
788.538	0.16
788.712	0.06
788.886	0.04
789.06	0.2
789.234	0.13
789.408	-0.08
789.582	0.04
789.756	0.18
789.93	0.06
790.104	-0
790.278	0.03
790.452	-0.1
790.626	0.08
790.8	-0.03
790.973	0.29
791.147	0.36
791.321	0.49
791.495	0.24
791.669	0.2
791.843	0.1
792.016	0.15
792.19	0.64
792.364	-0.02
792.538	0.59
792.711	0.18
792.885	0.04
793.059	-0.15
793.233	-0.52
793.406	0.3
793.58	0.12
793.754	0.35
793.927	0.15
794.101	0.34
794.274	0.09
794.448	0.49
794.622	-0
794.795	0.53
794.969	-0.2
795.142	0.38
795.316	-0.1
795.489	-0
795.663	0.39
795.836	0.2
796.009	-0.12
796.183	0.57
796.356	0.15
796.53	0.29
796.703	0.25
796.876	0.44
797.05	0.01
797.223	0.05
797.396	0.25
797.57	0.1
797.743	0.5
797.916	0.28
798.09	-0.05
798.263	0.37
798.436	0.43
798.609	-0.03
798.782	0.13
798.956	0.07
799.129	-0.19
799.302	-0.14
799.475	-0.02
799.648	-0.13
799.821	-0.38
799.994	0.05
800.167	-0.28
800.34	-0.15
800.514	0.27
800.687	0.07
800.86	0.16
801.033	0.19
801.206	0.46
801.379	-0.14
801.551	0.55
801.724	0.47
801.897	0.51
802.07	-0.25
802.243	-0.5
802.416	-0.08
802.589	0.07
802.762	0.04
802.935	0.22
803.107	0.45
803.28	0.28
803.453	0.12
803.626	0.17
803.798	-0.09
803.971	0.11
804.144	0.15
804.317	0.5
804.489	0.58
804.662	-0.09
804.835	0.18
805.007	0.18
805.18	0.68
805.353	0.26
805.525	-0.05
805.698	0.21
805.87	0.23
806.043	0.43
806.215	-0.37
806.388	-0.01
806.56	0.15
806.733	0.45
806.905	0.27
807.078	-0.03
807.25	0.09
807.423	0.44
807.595	-0.06
807.768	0.05
807.94	0.53
808.112	0.39
808.285	0.16
808.457	0.06
808.629	-0.09
808.802	0.47
808.974	0.33
809.146	-0.03
809.318	-0.28
809.491	0.34
809.663	0.09
809.835	0.12
810.007	0.28
810.18	0.32
810.352	0.02
810.524	0.29
810.696	-0.04
810.868	0.44
811.04	0.19
811.212	-0.19
811.384	0.26
811.556	0.24
811.728	0.34
811.901	0.69
812.073	-0.08
812.245	0.06
812.417	0.24
812.589	-0.47
812.76	0.21
812.932	0.23
813.104	0.38
813.276	-0.08
813.448	0.35
813.62	0.27
813.792	0.28
813.964	0.15
814.136	0.29
814.307	0.18
814.479	-0
814.651	-0.2
814.823	0.93
814.995	0.22
815.166	0.04
815.338	0.12
815.51	-0.31
815.681	0.74
815.853	0.32
816.025	0.07
816.196	0.49
816.368	0.61
816.54	-0.21
816.711	-0.48
816.883	0.51
817.054	1.4
817.226	-0.51
817.398	0.1
817.569	0.03
817.741	0.7
817.912	0.23
818.084	0.52
818.255	0.33
818.426	-0.2
818.598	-0.2
818.769	-0.18
818.941	0.29
819.112	0.72
819.283	0.24
819.455	-0.08
819.626	0.53
819.798	0.73
819.969	0.03
820.14	0.02
820.311	0.07
820.483	0.41
820.654	0.38
820.825	0.17
820.996	0.23
821.168	-0.22
821.339	0.04
821.51	-0.24
821.681	0.15
821.852	0.35
822.023	-0.3
822.195	-0.73
822.366	0.44
822.537	0.13
822.708	0.27
822.879	-0.32
823.05	0.79
823.221	0.11
823.392	0.13
823.563	-0.16
823.734	-0.04
823.905	-0.1
824.076	0.32
824.247	-0.04
824.418	0.06
824.589	0.78
824.759	0.08
824.93	0.1
825.101	-0.61
825.272	0.03
825.443	0.57
825.614	0.1
825.784	-1.03
825.955	1.04
826.126	0.64
826.297	0.44
826.467	0.79
826.638	0.4
826.809	0.21
826.98	-0.22
827.15	0.12
827.321	-0.03
827.492	0.99
827.662	0.35
827.833	1.04
828.003	0.97
828.174	-0.19
828.345	-0.16
828.515	0.81
828.686	0.24
828.856	-0.11
829.027	-0.26
829.197	0.25
829.368	0.68
829.538	0.18
829.709	-0.2
829.879	-0.01
830.049	0.16
830.22	-0.34
830.39	-0.4
830.56	0.38
830.731	0.25
830.901	-0.05
831.072	0.79
831.242	0.51
831.412	0.37
831.582	0.49
831.753	-0.33
831.923	1.08
832.093	0.3
832.263	0.08
832.434	-0
832.604	0.14
832.774	0.41
832.944	-0.52
833.114	0.03
833.284	0.16
833.454	-0.14
833.624	-0.23
833.795	-0.43
833.965	1.3
834.135	0.92
834.305	-0.47
834.475	-0.01
834.645	-0.43
834.815	-0.62
834.985	-0.49
835.155	-0.45
835.325	0.94
835.494	0.05
835.664	0.27
835.834	-0.26
836.004	0.59
836.174	0.17
836.344	0.34
836.514	-0.92
836.684	0.1
836.853	0.25
837.023	0.56
837.193	0.35
837.363	0.11
837.532	0.89
837.702	0.07
837.872	-0.15
838.041	0.98
838.211	1.15
838.381	-0.4
838.55	0.35
838.72	1.45
838.89	0.94
839.059	0.54
839.229	-0.16
839.398	1.58
839.568	0.76
839.738	0.08
839.907	1.19
840.077	1.25
840.246	-0.04
840.416	-0.18
840.585	-0.58
840.755	0.97
840.924	0.76
841.093	-0.07
841.263	-0.35
841.432	0.44
841.602	0.2
841.771	-0.31
841.94	0.36
842.11	2.08
842.279	2.04
842.448	-0.63
842.617	-0.39
842.787	1.04
842.956	-1
843.125	0.16
843.294	0.33
843.464	1.87
843.633	0.31
843.802	-0.21
843.971	0.01
844.14	0.58
844.309	0.46
844.479	0.12
844.648	0.02
844.817	0.1
844.986	0.51
845.155	-0.43
845.324	-0.78
845.493	-0.05
845.662	-1.04
845.831	1.73
846	0.79
846.169	1.12
846.338	0.42
846.507	1.28
846.676	0.55
846.844	0.18
847.013	1.19
847.182	0.21
847.351	-0.6
847.52	0.5
847.689	0.34
847.858	0.38
848.026	-0.45
848.195	0.32
848.364	0.05
848.533	-0.11
848.701	0.19
848.87	0.34
849.039	0.7
849.207	1.37
849.376	2.15
849.545	1.51
849.713	-0.01
849.882	0.06
850.051	0.13
850.219	1.14
850.388	1.88
850.556	-1.33
850.725	-0.39
850.893	-0.02
851.062	-0.17
851.23	1.02
851.399	-1.27
851.567	0.53
851.736	0.14
851.904	-0.09
852.073	-0.47
852.241	0.78
852.41	1.37
852.578	0.35
852.746	-0.01
852.915	0.92
853.083	1.65
853.251	-0.6
853.42	0.65
853.588	0.42
853.756	0.88
853.924	-0.28
854.093	0.57
854.261	-0.14
854.429	-0.69
854.597	0.97
854.765	0.14
854.934	1.36
855.102	0.46
855.27	-0.19
855.438	1.05
855.606	1.66
855.774	2.34
855.942	-0.64
856.11	-0.43
856.278	-0.83
856.446	1.39
856.614	-0.06
856.782	-0.68
856.95	1.51
857.118	0.83
857.286	1.8
857.454	-0.17
857.622	2.13
857.79	0.71
857.958	-0.42
858.126	-0.06
858.294	-2.06
858.462	0.86
858.629	0.46
858.797	-0.31
858.965	1.16
859.133	-0.71
859.301	-0.1
859.468	0.24
859.636	-0.36
859.804	2.18
859.971	2.76
860.139	-0.56
860.307	0.81
860.474	0.59
860.642	-0.75
860.81	0.34
860.977	1
861.145	0.16
861.313	0.52
861.48	-0.43
861.648	0.99
861.815	-0.44
861.983	-0.84
862.15	-0.29
862.318	2.93
862.485	2.65
862.653	0.12
862.82	-0.3
862.988	2.5
863.155	1.9
863.322	0.12
863.49	-0.26
863.657	-0.15
863.824	1.55
863.992	0.95
864.159	2.28
864.326	1.55
864.494	-0.32
864.661	3.04
864.828	-0.52
864.996	0.66
865.163	2.57
865.33	-0.98
865.497	-0.86
865.664	0.1
865.832	-0.62
865.999	0.41
866.166	-1.41
866.333	-0.58
866.5	0.69
866.667	0.04
866.834	0.09
867.001	2.25
867.168	-0.89
867.335	-0.51
867.502	-0.73
867.669	-0.31
867.836	2.5
868.003	0.59
868.17	1.29
868.337	2.33
868.504	1.62
868.671	-0.65
868.838	-0.17
869.005	1.13
869.172	0.72
869.339	1.1
869.505	0.36
869.672	-0.62
869.839	2.5
870.006	0.46
870.173	-2.89
870.339	0.52
870.506	3.69
870.673	-0.98
870.84	0.85
871.006	1.03
871.173	-0.69
871.34	1.31
871.506	-0.71
871.673	1.46
871.839	0.31
872.006	0.69
872.173	0.77
872.339	2.19
872.506	4.07
872.672	1.33
872.839	-0.7
873.005	1
873.172	2.58
873.338	3.07
873.505	-0.91
873.671	0.72
873.838	0.93
874.004	0.36
874.171	-0.27
874.337	0.48
874.503	1.27
874.67	-0.21
874.836	-0.9
875.002	3.78
875.169	2.33
875.335	0.42
875.501	-0.7
875.668	4.31
875.834	1.74
876	-1.05
876.166	1.48
876.332	2.19
876.499	2.85
876.665	-0.35
876.831	1.35
876.997	3.93
877.163	2
877.329	-0.24
877.495	-0.18
877.662	-0.62
877.828	1.24
877.994	-0.04
878.16	-2.7
878.326	-0.76
878.492	-0.61
878.658	-0.89
878.824	1.21
878.99	1.39
879.156	-1.16
879.322	2.05
879.487	0.95
879.653	0.67
879.819	-0.62
879.985	-0.43
880.151	-0.15
880.317	0.91
880.483	-0.8
880.648	2.31
880.814	-1.89
880.98	1.76
881.146	-0.79
881.312	-0.26
881.477	-0.45
881.643	0.69
881.809	3.03
881.974	2.1
882.14	-1.2
882.306	1.52
882.471	3.56
882.637	-1.6
882.803	1.82
882.968	4.45
883.134	2.9
883.299	-0.58
883.465	0.97
883.63	1.7
883.796	1.77
883.961	1.18
884.127	2.36
884.292	-3.06
884.458	-0.39
884.623	-0.39
