Data from Apollo_Calib_20240827__AbsoluteIrradiance__458__06-47-01-317.txt Node

Date: Wed Aug 28 06:47:01 BST 2024
User: biology
Spectrometer: FLMT08252
Trigger mode: 0
Integration Time (sec): 5.000000E-1
Scans to average: 5
Electric dark correction enabled: true
Nonlinearity correction enabled: false
Boxcar width: 0
XAxis mode: Wavelengths
Number of Pixels in Spectrum: 3648
>>>>>Begin Spectral Data<<<<<
179.588	-0
179.809	-0
180.03	-0
180.251	-0
180.473	-0
180.694	0
180.915	0
181.136	-0
181.357	0
181.578	0
181.799	-0
182.02	-0
182.241	0
182.462	-0
182.683	0
182.904	-0
183.125	-0
183.346	0
183.567	0
183.788	-0
184.009	-0
184.23	0
184.451	-0
184.672	-0
184.892	-0
185.113	-0
185.334	0
185.555	-0
185.776	-0
185.996	0
186.217	-0
186.438	0
186.659	-0
186.879	0
187.1	-0
187.321	-0
187.541	-0
187.762	-0
187.983	-0
188.203	-0
188.424	0
188.644	-0
188.865	0
189.086	-0
189.306	-0
189.527	0
189.747	-0
189.968	-0
190.188	0
190.409	0
190.629	-0
190.849	-0
191.07	-0
191.29	0
191.511	0
191.731	-0
191.951	-0
192.172	-0
192.392	-0
192.612	-0
192.833	-0
193.053	-0
193.273	0
193.493	-0
193.714	-0
193.934	0
194.154	0
194.374	0
194.594	0
194.815	-0
195.035	-0
195.255	-0
195.475	-0
195.695	0
195.915	0
196.135	-0
196.355	0
196.575	0
196.795	-0
197.015	-0
197.235	-0
197.455	-0
197.675	-0
197.895	-0
198.115	-0
198.335	-0
198.555	-0
198.775	0
198.995	0
199.214	0
199.434	-0
199.654	-0
199.874	0
200.094	-1.31
200.313	-0.33
200.533	-0.45
200.753	-1.16
200.973	0.92
201.192	0.19
201.412	-1.06
201.632	-0.09
201.851	0.59
202.071	-0.19
202.291	-0.28
202.51	-0.77
202.73	0.47
202.95	-0.66
203.169	-0.9
203.389	0.22
203.608	-0.23
203.828	-0.94
204.047	-0.2
204.267	0.35
204.486	0.27
204.706	0.06
204.925	0.04
205.145	-0.35
205.364	0.49
205.583	-0.04
205.803	-0.31
206.022	-0.65
206.242	0.02
206.461	-0.18
206.68	-0.28
206.9	0.15
207.119	-0.09
207.338	0.65
207.557	-0.3
207.777	-0.05
207.996	0.05
208.215	0.34
208.434	-0.21
208.654	-0.63
208.873	-0.09
209.092	0.78
209.311	-0.33
209.53	-0.05
209.749	0.01
209.968	-0.23
210.187	0.12
210.407	-0.29
210.626	-0.29
210.845	0.32
211.064	-0.1
211.283	-0.36
211.502	0.21
211.721	-0.13
211.94	-0.03
212.159	-0.01
212.377	0.2
212.596	0.13
212.815	-0.12
213.034	0.32
213.253	0.24
213.472	0.16
213.691	-0.21
213.91	-0.11
214.128	-0.1
214.347	0.17
214.566	-0.47
214.785	-0.43
215.003	0.08
215.222	0.14
215.441	-0.06
215.66	-0.34
215.878	-0.07
216.097	0.22
216.316	-0.24
216.534	-0.1
216.753	-0.07
216.972	-0.07
217.19	-0.01
217.409	-0.33
217.627	-0.19
217.846	-0.14
218.064	-0.1
218.283	-0.07
218.501	0.44
218.72	0.13
218.938	-0.22
219.157	-0.15
219.375	-0.01
219.594	0.12
219.812	-0.13
220.031	-0.04
220.249	0.14
220.467	0.07
220.686	-0.11
220.904	-0.23
221.122	-0.13
221.341	0.36
221.559	-0.1
221.777	-0.28
221.995	-0.04
222.214	-0.01
222.432	-0.19
222.65	0.16
222.868	-0.07
223.086	0.06
223.305	0.11
223.523	-0.08
223.741	0.2
223.959	-0.13
224.177	-0.18
224.395	-0.13
224.613	-0.09
224.831	0.01
225.049	-0.21
225.267	-0.12
225.485	-0.03
225.703	-0.12
225.921	0.04
226.139	-0.14
226.357	0.1
226.575	0.02
226.793	-0.14
227.011	0.5
227.229	-0.02
227.447	0.16
227.665	-0.03
227.883	-0.22
228.1	-0.01
228.318	0.08
228.536	-0.22
228.754	-0.31
228.972	0.02
229.189	0.06
229.407	-0.03
229.625	-0.03
229.843	0.18
230.06	0.01
230.278	-0.1
230.496	0.03
230.713	-0.08
230.931	0.17
231.149	-0.12
231.366	-0.23
231.584	-0.1
231.801	0.29
232.019	-0.15
232.236	-0.2
232.454	-0.14
232.671	0.06
232.889	-0.07
233.106	-0.13
233.324	-0.08
233.541	-0.06
233.759	0.01
233.976	-0.14
234.194	-0.05
234.411	-0.06
234.628	-0.11
234.846	0
235.063	0.05
235.28	-0.01
235.498	-0.02
235.715	-0.17
235.932	0.13
236.149	-0.01
236.367	-0.12
236.584	0
236.801	-0.07
237.018	0.07
237.236	-0.01
237.453	-0.18
237.67	0.17
237.887	-0.06
238.104	-0.2
238.321	-0.05
238.538	-0.04
238.755	0.16
238.973	-0.2
239.19	0.01
239.407	0.02
239.624	0.06
239.841	-0.15
240.058	-0.08
240.275	0.06
240.492	-0.04
240.709	-0.01
240.925	-0.13
241.142	0.07
241.359	-0.08
241.576	0
241.793	-0.1
242.01	0.05
242.227	0.08
242.444	0.01
242.66	0.02
242.877	-0.04
243.094	-0.11
243.311	0.07
243.527	0.03
243.744	0.04
243.961	0.07
244.178	-0.13
244.394	-0
244.611	0.03
244.828	0.06
245.044	-0.14
245.261	-0.05
245.477	0.08
245.694	-0.06
245.911	-0.17
246.127	-0.02
246.344	0.07
246.56	0.07
246.777	-0
246.993	-0.06
247.21	0.02
247.426	0.13
247.643	-0.09
247.859	-0.09
248.076	-0.05
248.292	0.17
248.508	-0.05
248.725	0.04
248.941	-0.01
249.157	0.17
249.374	-0.07
249.59	0.02
249.806	0.03
250.023	0.01
250.239	-0.03
250.455	-0.11
250.671	-0
250.888	0
251.104	0.07
251.32	-0.11
251.536	-0.08
251.752	-0.09
251.969	-0
252.185	-0.03
252.401	0.11
252.617	0.04
252.833	-0
253.049	-0.1
253.265	-0.01
253.481	0
253.697	-0.04
253.913	-0.04
254.129	0
254.345	0.06
254.561	-0.03
254.777	0.02
254.993	0.03
255.209	0.05
255.425	-0.04
255.641	-0.07
255.857	0.02
256.073	0.01
256.288	-0.06
256.504	-0.06
256.72	0.03
256.936	0.1
257.152	0.01
257.367	-0.11
257.583	-0.01
257.799	0.05
258.015	-0.09
258.23	-0.06
258.446	0.1
258.662	-0.01
258.877	-0.07
259.093	-0.11
259.309	-0.01
259.524	0.04
259.74	-0
259.955	-0.13
260.171	-0.01
260.387	-0.03
260.602	0.09
260.818	-0.03
261.033	-0.05
261.249	-0.04
261.464	-0.07
261.68	-0.11
261.895	0.02
262.11	0.03
262.326	-0.05
262.541	-0.15
262.757	-0.06
262.972	-0.02
263.187	0.05
263.403	-0.04
263.618	0.04
263.833	0.05
264.049	-0.09
264.264	-0.03
264.479	0.02
264.694	0.12
264.91	-0.06
265.125	-0.02
265.34	0.01
265.555	0.11
265.77	-0.01
265.986	-0.01
266.201	0.08
266.416	0.12
266.631	-0.08
266.846	-0.04
267.061	0.02
267.276	-0.03
267.491	-0.19
267.706	0.01
267.921	-0.02
268.136	-0.02
268.351	-0.01
268.566	-0.09
268.781	0.05
268.996	0.01
269.211	-0.02
269.426	-0.09
269.641	0.02
269.856	0.09
270.071	-0.06
270.285	-0.11
270.5	0.07
270.715	0.04
270.93	-0.06
271.145	0.01
271.359	0.03
271.574	-0.04
271.789	-0.1
272.004	-0.08
272.218	-0
272.433	0.07
272.648	-0.07
272.862	0.07
273.077	-0.1
273.292	0.01
273.506	-0.03
273.721	0.01
273.936	-0.02
274.15	0.04
274.365	-0.05
274.579	0.02
274.794	0.03
275.008	0.03
275.223	-0.07
275.437	-0.01
275.652	-0
275.866	0.06
276.081	-0.06
276.295	0.04
276.509	0
276.724	0.02
276.938	-0
277.153	-0
277.367	0.02
277.581	-0.03
277.796	-0.02
278.01	-0.03
278.224	0.06
278.438	0.11
278.653	-0.09
278.867	-0.05
279.081	0.03
279.295	0.01
279.51	0.01
279.724	-0.08
279.938	0.04
280.152	0.06
280.366	-0.02
280.58	0.07
280.794	0.08
281.008	0.04
281.222	0.09
281.437	0.1
281.651	0.04
281.865	0.06
282.079	0
282.293	-0.11
282.507	-0.03
282.721	-0.01
282.935	-0.02
283.148	-0.07
283.362	-0.02
283.576	-0.08
283.79	0.03
284.004	-0.03
284.218	0.01
284.432	-0.01
284.646	-0.01
284.859	-0.01
285.073	-0.07
285.287	0.06
285.501	-0.03
285.714	-0.01
285.928	0.07
286.142	-0.03
286.356	-0.09
286.569	-0.04
286.783	0.08
286.997	0.01
287.21	-0.01
287.424	0.01
287.637	-0.03
287.851	-0.08
288.065	0.02
288.278	-0.02
288.492	0.02
288.705	0.02
288.919	0.05
289.132	-0.08
289.346	0.03
289.559	-0.07
289.773	-0.04
289.986	-0.01
290.2	-0.05
290.413	0.05
290.626	-0.07
290.84	-0.02
291.053	0.02
291.267	0.04
291.48	-0.03
291.693	0.01
291.906	-0.07
292.12	-0
292.333	-0.05
292.546	0.02
292.76	0.12
292.973	0.02
293.186	0.07
293.399	-0.08
293.612	0.02
293.826	-0.01
294.039	0.01
294.252	-0.03
294.465	0.02
294.678	0.02
294.891	-0
295.104	-0.04
295.317	-0.03
295.53	-0.05
295.743	0.01
295.956	-0.01
296.169	0.06
296.382	0.04
296.595	-0.01
296.808	-0.04
297.021	0.01
297.234	0.02
297.447	0.03
297.66	0
297.873	0.04
298.086	0.05
298.299	-0.01
298.511	-0.1
298.724	0.01
298.937	-0.03
299.15	-0.07
299.363	-0.01
299.575	0.08
299.788	0.03
300.001	-0.05
300.213	-0.07
300.426	-0.01
300.639	-0
300.852	-0.05
301.064	0.04
301.277	0.1
301.489	0.04
301.702	0.03
301.915	0
302.127	0.01
302.34	0.03
302.552	-0.01
302.765	-0.05
302.977	0.01
303.19	-0.04
303.402	-0
303.615	-0.04
303.827	-0.06
304.04	0.02
304.252	0.02
304.464	-0.05
304.677	0.11
304.889	0
305.102	-0.05
305.314	-0.03
305.526	0.06
305.739	0.02
305.951	-0.05
306.163	0.01
306.375	0.04
306.588	-0.01
306.8	-0.02
307.012	-0.05
307.224	0.04
307.436	0.09
307.649	-0.08
307.861	-0
308.073	0.05
308.285	-0.04
308.497	-0.06
308.709	-0.02
308.921	0.02
309.133	0.04
309.346	-0.05
309.558	0.02
309.77	0.04
309.982	0.05
310.194	0.02
310.406	-0.03
310.617	0.08
310.829	0.03
311.041	0.01
311.253	-0.03
311.465	-0.02
311.677	-0.02
311.889	-0.04
312.101	-0.01
312.313	0.07
312.524	0.08
312.736	-0.1
312.948	-0.05
313.16	0.04
313.372	-0.01
313.583	0.05
313.795	-0
314.007	-0.07
314.218	0.02
314.43	0
314.642	-0.01
314.853	-0.05
315.065	0.03
315.277	-0.06
315.488	-0.01
315.7	0.06
315.912	0.04
316.123	-0.03
316.335	-0.02
316.546	0.07
316.758	-0.01
316.969	-0.03
317.181	0.01
317.392	-0.03
317.604	0.08
317.815	-0.04
318.026	-0
318.238	-0.05
318.449	0.03
318.661	-0.05
318.872	-0.08
319.083	-0.05
319.295	0.04
319.506	-0.02
319.717	-0.02
319.929	0
320.14	0.01
320.351	0.01
320.562	-0.03
320.774	-0.03
320.985	-0.02
321.196	-0.05
321.407	-0.07
321.618	0.06
321.829	0.04
322.041	0.03
322.252	0.01
322.463	-0.01
322.674	0.03
322.885	-0.05
323.096	-0.04
323.307	-0.02
323.518	-0
323.729	-0.02
323.94	0.01
324.151	-0.02
324.362	0.01
324.573	0.03
324.784	0.01
324.995	0.04
325.206	0.02
325.417	-0.02
325.628	-0.02
325.838	-0.01
326.049	0.01
326.26	0.02
326.471	-0.02
326.682	0.03
326.892	-0.01
327.103	-0.07
327.314	-0.03
327.525	0.07
327.735	-0.03
327.946	-0.05
328.157	-0.06
328.368	-0.02
328.578	-0.05
328.789	0.02
328.999	-0.07
329.21	-0
329.421	0.03
329.631	-0.06
329.842	-0.02
330.052	0.03
330.263	0.05
330.473	0.01
330.684	0.01
330.894	-0.03
331.105	-0.01
331.315	-0.01
331.526	-0.08
331.736	0.05
331.947	-0
332.157	0.01
332.367	-0.05
332.578	0.05
332.788	0.05
332.999	0.04
333.209	0.01
333.419	-0.03
333.629	0.01
333.84	0.02
334.05	-0.03
334.26	0.07
334.47	0.05
334.681	0.05
334.891	-0.05
335.101	0.03
335.311	0.08
335.521	0.05
335.732	-0.03
335.942	0.06
336.152	-0
336.362	0.04
336.572	0.03
336.782	0.04
336.992	-0.02
337.202	-0.07
337.412	-0.07
337.622	0.04
337.832	0.04
338.042	-0
338.252	-0.03
338.462	-0.04
338.672	-0.04
338.882	0
339.092	-0.01
339.302	0.06
339.511	0.04
339.721	-0.04
339.931	-0.03
340.141	0.05
340.351	0.05
340.561	0.03
340.77	0.01
340.98	-0.03
341.19	0.02
341.4	-0.05
341.609	-0.04
341.819	-0.03
342.029	-0.05
342.238	0.06
342.448	-0.02
342.658	0.01
342.867	0.01
343.077	0.01
343.286	0.03
343.496	0.02
343.706	0.11
343.915	-0.09
344.125	0.01
344.334	0.06
344.544	-0.07
344.753	-0.02
344.963	-0.03
345.172	-0.03
345.381	-0.02
345.591	-0
345.8	0
346.01	0.1
346.219	0.06
346.428	-0.14
346.638	-0.03
346.847	-0.01
347.056	0.08
347.266	-0.03
347.475	-0.03
347.684	0.02
347.893	0.02
348.103	0.02
348.312	-0.01
348.521	-0.01
348.73	0
348.94	-0
349.149	-0.02
349.358	-0.02
349.567	0.02
349.776	-0.03
349.985	-0.03
350.194	0.01
350.403	0.08
350.612	-0.06
350.821	-0.02
351.03	0.03
351.239	-0.02
351.448	0.01
351.657	-0.05
351.866	0.08
352.075	-0.01
352.284	0.02
352.493	-0.03
352.702	0.07
352.911	0.04
353.12	0.04
353.329	0
353.538	0.01
353.746	0.03
353.955	-0.04
354.164	0.02
354.373	-0.03
354.582	0.05
354.79	-0.03
354.999	-0.01
355.208	0
355.416	0.06
355.625	-0.05
355.834	0
356.042	-0.01
356.251	0.01
356.46	-0.03
356.668	0.02
356.877	0.1
357.085	0.02
357.294	-0.08
357.503	0.04
357.711	-0.05
357.92	0.12
358.128	0
358.337	-0.03
358.545	0
358.754	-0.01
358.962	-0.01
359.17	-0
359.379	-0.01
359.587	0.05
359.796	-0
360.004	0.07
360.212	-0.01
360.421	0.06
360.629	0.02
360.837	-0.05
361.046	0.03
361.254	0.05
361.462	-0.02
361.67	-0.07
361.879	0.04
362.087	0.06
362.295	0.02
362.503	-0.05
362.711	-0.05
362.92	-0.04
363.128	0.01
363.336	-0.03
363.544	-0.07
363.752	0
363.96	-0.03
364.168	-0.04
364.376	0.02
364.584	0.02
364.792	0.04
365	0.05
365.208	0
365.416	-0.01
365.624	0.03
365.832	-0.01
366.04	0.08
366.248	-0.01
366.456	0.02
366.664	0.01
366.872	-0.01
367.079	-0.02
367.287	-0
367.495	0.05
367.703	0
367.911	-0.02
368.118	-0.01
368.326	-0
368.534	-0.05
368.742	0.11
368.949	-0.05
369.157	-0.04
369.365	0.03
369.572	-0
369.78	-0.04
369.988	0.02
370.195	0.03
370.403	0.03
370.61	-0
370.818	0.01
371.026	0
371.233	-0.03
371.441	0.01
371.648	-0.02
371.856	0.01
372.063	-0
372.271	-0.01
372.478	-0.04
372.685	-0.03
372.893	0.02
373.1	-0.02
373.308	-0
373.515	0.04
373.722	0
373.93	-0.04
374.137	0.02
374.344	0.05
374.552	0.06
374.759	0.03
374.966	0.01
375.173	0
375.381	0.02
375.588	-0.03
375.795	-0.04
376.002	-0
376.209	-0.02
376.417	-0.03
376.624	0.03
376.831	-0.01
377.038	0.01
377.245	-0.05
377.452	-0.03
377.659	0.03
377.866	-0.03
378.073	-0
378.28	0.02
378.487	0.04
378.694	0.03
378.901	-0.03
379.108	0.02
379.315	0.03
379.522	0.11
379.729	0.05
379.936	0.01
380.143	0.03
380.35	-0.03
380.557	-0.04
380.763	0.03
380.97	0.02
381.177	-0.05
381.384	0
381.591	0.02
381.797	0.01
382.004	-0
382.211	0.05
382.418	0
382.624	0.06
382.831	0.06
383.038	-0.05
383.244	-0.02
383.451	-0.01
383.658	0.03
383.864	-0.01
384.071	-0.01
384.277	0.06
384.484	-0.01
384.69	0.05
384.897	-0.02
385.103	-0.03
385.31	-0.05
385.516	-0.02
385.723	-0.04
385.929	-0.03
386.136	-0.02
386.342	0.01
386.549	-0.05
386.755	0.06
386.961	-0
387.168	-0.02
387.374	0.01
387.58	0
387.787	0.01
387.993	0.02
388.199	-0.03
388.406	-0.02
388.612	0.02
388.818	-0.07
389.024	-0.03
389.231	-0
389.437	0.05
389.643	0.02
389.849	-0.02
390.055	0.08
390.261	-0.01
390.467	0.01
390.674	-0.07
390.88	-0.02
391.086	0.02
391.292	-0.03
391.498	0.05
391.704	-0.03
391.91	-0.08
392.116	-0.03
392.322	-0.08
392.528	0.02
392.734	-0
392.94	-0.03
393.146	-0.03
393.352	0.04
393.557	-0.02
393.763	-0.01
393.969	-0
394.175	-0
394.381	-0.03
394.587	-0.05
394.792	0
394.998	0.06
395.204	0.06
395.41	-0.01
395.615	0.02
395.821	0.04
396.027	0.06
396.233	-0.02
396.438	-0.01
396.644	0.06
396.85	0.02
397.055	-0.05
397.261	0.01
397.466	-0.01
397.672	0.02
397.878	0.07
398.083	0.04
398.289	-0.05
398.494	0.04
398.7	0.04
398.905	-0.07
399.111	0.07
399.316	-0.05
399.522	-0.02
399.727	0.01
399.932	0.01
400.138	-0.01
400.343	0
400.549	0.01
400.754	-0.01
400.959	-0
401.165	-0.02
401.37	0
401.575	0.07
401.78	-0.01
401.986	-0.04
402.191	-0.04
402.396	-0.03
402.601	0.03
402.807	-0.01
403.012	0.01
403.217	0.03
403.422	0
403.627	-0.06
403.832	0.01
404.037	-0.01
404.243	-0.01
404.448	-0
404.653	-0.03
404.858	0.01
405.063	0
405.268	-0.08
405.473	-0.04
405.678	-0.03
405.883	0.11
406.088	0.03
406.293	-0.05
406.498	-0.03
406.703	0.01
406.907	-0.04
407.112	-0.03
407.317	0.02
407.522	0.01
407.727	-0.05
407.932	-0.02
408.136	0.06
408.341	-0.03
408.546	-0.01
408.751	0
408.956	0
409.16	0
409.365	-0.01
409.57	-0.02
409.774	0.03
409.979	0.05
410.184	0.01
410.388	-0.06
410.593	0.05
410.798	0.01
411.002	-0.01
411.207	0.02
411.411	-0.02
411.616	-0.06
411.82	-0.04
412.025	0.05
412.229	-0.03
412.434	0.01
412.638	0.02
412.843	-0.03
413.047	0.01
413.252	-0.05
413.456	-0.05
413.66	0.06
413.865	-0.03
414.069	0.06
414.273	-0.01
414.478	-0.02
414.682	-0.02
414.886	-0.05
415.091	-0.07
415.295	-0.08
415.499	0.03
415.703	-0
415.908	0.03
416.112	-0.08
416.316	0.05
416.52	-0.04
416.724	-0.06
416.929	-0.01
417.133	0.09
417.337	-0.06
417.541	0.02
417.745	-0
417.949	0.02
418.153	0.01
418.357	-0.02
418.561	0.07
418.765	-0.04
418.969	0.11
419.173	0.04
419.377	-0.06
419.581	0.03
419.785	-0.04
419.989	-0.07
420.193	-0.03
420.397	-0.03
420.601	0.03
420.804	0.04
421.008	-0.01
421.212	-0.04
421.416	0.05
421.62	-0.02
421.823	-0.02
422.027	0.04
422.231	0.04
422.435	0
422.638	0.02
422.842	-0.01
423.046	-0.05
423.249	0.01
423.453	0.08
423.657	-0.01
423.86	0.01
424.064	-0.01
424.268	0.05
424.471	0.01
424.675	0.04
424.878	0.07
425.082	-0
425.285	0.03
425.489	-0.03
425.692	-0.02
425.896	0.03
426.099	0.05
426.303	-0.06
426.506	-0.06
426.71	-0.04
426.913	0.05
427.116	0.09
427.32	-0.04
427.523	-0
427.726	0.09
427.93	-0.09
428.133	-0.01
428.336	-0.1
428.54	-0.06
428.743	0.03
428.946	0.05
429.149	-0.05
429.353	0
429.556	0
429.759	0.02
429.962	-0.07
430.165	0.02
430.368	-0.01
430.571	-0
430.775	0.03
430.978	-0.08
431.181	-0.01
431.384	0.03
431.587	-0.02
431.79	-0.02
431.993	-0.04
432.196	-0.01
432.399	-0.05
432.602	0.05
432.805	-0.03
433.008	-0.04
433.211	-0.1
433.414	0.02
433.616	0.01
433.819	0.02
434.022	-0.05
434.225	0.04
434.428	0.02
434.631	0.08
434.833	-0.01
435.036	-0.06
435.239	0.05
435.442	0
435.645	0.01
435.847	-0.01
436.05	-0
436.253	-0.01
436.455	-0.03
436.658	-0.02
436.861	0.04
437.063	-0.03
437.266	0.01
437.468	-0
437.671	0.13
437.874	-0.01
438.076	-0.06
438.279	-0.11
438.481	-0.01
438.684	-0.08
438.886	0
439.089	-0.07
439.291	0.02
439.494	0.07
439.696	-0.04
439.899	-0.04
440.101	-0.03
440.303	-0.1
440.506	0.06
440.708	-0.01
440.91	0.03
441.113	-0.07
441.315	-0.02
441.517	-0.06
441.72	0.03
441.922	-0.03
442.124	-0.08
442.326	0.03
442.529	0.04
442.731	-0.04
442.933	0.07
443.135	-0.06
443.337	-0.07
443.539	-0.01
443.742	-0.06
443.944	0.02
444.146	-0.03
444.348	-0.02
444.55	-0.02
444.752	-0.03
444.954	-0.01
445.156	-0.03
445.358	-0.04
445.56	0.01
445.762	0.02
445.964	-0
446.166	-0.07
446.368	-0
446.57	0.04
446.772	-0
446.974	0
447.175	-0
447.377	-0.05
447.579	-0.06
447.781	-0.09
447.983	0.06
448.184	-0.03
448.386	-0
448.588	-0.05
448.79	-0
448.991	-0.06
449.193	-0.05
449.395	-0.01
449.597	0.02
449.798	0.02
450	0.03
450.202	-0.01
450.403	-0
450.605	-0.02
450.806	0.03
451.008	-0.08
451.21	-0.02
451.411	0.01
451.613	-0.07
451.814	-0.01
452.016	0.06
452.217	0.01
452.419	0.06
452.62	-0.03
452.821	0.03
453.023	0.03
453.224	0.07
453.426	-0.04
453.627	0.03
453.828	0.03
454.03	-0.02
454.231	-0.03
454.432	-0.02
454.634	0.07
454.835	-0.03
455.036	-0.05
455.238	0.05
455.439	0.09
455.64	-0.09
455.841	-0.07
456.042	0.07
456.244	0.01
456.445	-0.01
456.646	-0.12
456.847	-0.03
457.048	-0.01
457.249	0.03
457.45	0.21
457.651	-0.06
457.852	0.03
458.054	0.01
458.255	-0.02
458.456	0
458.657	-0.01
458.858	-0.07
459.058	-0
459.259	0.06
459.46	-0.02
459.661	-0.06
459.862	0.07
460.063	-0.04
460.264	-0.03
460.465	-0.04
460.666	0.07
460.866	-0.05
461.067	-0.02
461.268	-0.07
461.469	0.02
461.67	-0.02
461.87	-0.05
462.071	-0.05
462.272	-0.11
462.473	-0.01
462.673	0.02
462.874	-0.04
463.075	0.02
463.275	-0.02
463.476	0.02
463.676	-0.03
463.877	-0.01
464.078	-0.05
464.278	0.04
464.479	-0
464.679	-0.04
464.88	0.01
465.08	0.06
465.281	-0.09
465.481	-0.02
465.682	-0.02
465.882	-0.03
466.083	-0
466.283	0.01
466.483	-0.01
466.684	-0.02
466.884	-0.01
467.085	-0.03
467.285	0.04
467.485	-0.06
467.686	-0.01
467.886	-0.02
468.086	0.03
468.286	0.02
468.487	0.03
468.687	-0.04
468.887	-0.01
469.087	0.01
469.287	-0.04
469.488	-0.06
469.688	0.03
469.888	0.02
470.088	0.02
470.288	0.06
470.488	0.06
470.688	-0.02
470.888	-0.04
471.088	-0.05
471.288	0.1
471.488	0.05
471.688	0.02
471.888	-0.04
472.088	0.02
472.288	-0.02
472.488	-0.05
472.688	-0.02
472.888	-0
473.088	0.03
473.288	0
473.488	-0.01
473.688	0.07
473.887	0.01
474.087	-0.04
474.287	0.03
474.487	-0.04
474.687	0.03
474.886	-0.04
475.086	-0.01
475.286	0.01
475.486	0.04
475.685	0
475.885	0
476.085	-0.01
476.284	0.05
476.484	-0.03
476.684	0
476.883	0.02
477.083	0.01
477.282	-0.01
477.482	0.08
477.681	0.05
477.881	0.02
478.08	-0.04
478.28	-0.02
478.479	0
478.679	0.08
478.878	-0.02
479.078	-0.03
479.277	-0.01
479.477	-0.02
479.676	0.04
479.875	-0.02
480.075	-0.07
480.274	0.01
480.473	0.02
480.673	-0.01
480.872	0
481.071	-0.01
481.271	0.01
481.47	-0.01
481.669	-0.02
481.868	0
482.067	-0.03
482.267	-0.02
482.466	-0.04
482.665	-0.05
482.864	-0.06
483.063	-0.03
483.262	0.03
483.461	0.07
483.661	0.02
483.86	0.03
484.059	0.01
484.258	-0.02
484.457	-0
484.656	0.01
484.855	0.02
485.054	-0.03
485.253	-0.01
485.452	-0.02
485.651	-0.02
485.849	0.02
486.048	-0.03
486.247	-0.02
486.446	-0
486.645	-0.04
486.844	-0.03
487.043	-0.01
487.241	-0
487.44	-0.02
487.639	-0.02
487.838	0
488.037	0
488.235	0.02
488.434	-0.02
488.633	-0.01
488.831	0.01
489.03	0.02
489.229	-0.02
489.427	-0.01
489.626	0.05
489.825	0.04
490.023	-0
490.222	-0.03
490.42	-0
490.619	0.03
490.817	-0.01
491.016	0
491.214	0.01
491.413	-0
491.611	-0.02
491.81	-0
492.008	0.03
492.207	0.04
492.405	0
492.604	-0.06
492.802	0.01
493	-0.01
493.199	-0.02
493.397	0
493.595	-0.02
493.794	-0.02
493.992	0.03
494.19	-0.01
494.388	0.02
494.587	-0.02
494.785	-0.01
494.983	-0.04
495.181	-0.01
495.379	0.02
495.578	-0.02
495.776	0.02
495.974	-0.01
496.172	-0
496.37	-0.03
496.568	-0.05
496.766	-0.04
496.964	0.02
497.162	0.02
497.36	-0.04
497.558	0
497.756	0.03
497.954	-0
498.152	-0.02
498.35	-0
498.548	-0.02
498.746	0.02
498.944	-0.04
499.142	-0.01
499.34	-0.05
499.538	-0
499.736	-0.03
499.933	0.04
500.131	0.02
500.329	-0.02
500.527	0.01
500.725	0.03
500.922	0.02
501.12	-0.01
501.318	0.01
501.516	-0.02
501.713	-0.01
501.911	-0.01
502.109	-0.03
502.306	0.01
502.504	-0.02
502.701	-0.01
502.899	-0.02
503.097	0.05
503.294	-0.01
503.492	-0.01
503.689	-0.01
503.887	0.01
504.084	0.05
504.282	0
504.479	-0.02
504.677	0
504.874	-0.02
505.072	0.02
505.269	-0.02
505.466	0.03
505.664	0.01
505.861	-0.01
506.059	-0.03
506.256	0.04
506.453	-0.02
506.651	0.04
506.848	0.03
507.045	0
507.242	-0
507.44	-0.01
507.637	-0.03
507.834	-0.03
508.031	0.02
508.229	-0
508.426	0.01
508.623	0.02
508.82	-0.01
509.017	-0.04
509.214	-0.02
509.411	-0.02
509.608	-0.02
509.805	-0
510.003	-0.02
510.2	-0.02
510.397	0.01
510.594	-0.02
510.791	-0.03
510.988	-0.03
511.184	0.03
511.381	0.01
511.578	-0.02
511.775	0.02
511.972	-0.02
512.169	0
512.366	0.01
512.563	0.01
512.76	-0.01
512.956	0.02
513.153	0.01
513.35	0.01
513.547	-0.02
513.744	-0.04
513.94	-0.03
514.137	0.01
514.334	-0.01
514.53	-0.01
514.727	0.01
514.924	0.05
515.12	-0.02
515.317	-0.04
515.514	-0.02
515.71	0.01
515.907	0
516.103	0
516.3	0.01
516.497	0
516.693	0.01
516.89	-0.02
517.086	-0.03
517.283	0.02
517.479	0
517.676	-0.01
517.872	0
518.068	-0.04
518.265	-0
518.461	-0
518.658	-0.03
518.854	-0
519.05	-0.03
519.247	-0.01
519.443	-0.01
519.639	0
519.836	0.01
520.032	-0
520.228	-0
520.424	0.05
520.621	0.01
520.817	-0.01
521.013	-0
521.209	0.01
521.405	0.04
521.601	0.01
521.798	-0
521.994	0.03
522.19	-0.01
522.386	-0.02
522.582	0.01
522.778	-0
522.974	-0.02
523.17	-0
523.366	-0.01
523.562	0.03
523.758	-0.02
523.954	-0.02
524.15	-0.02
524.346	0.02
524.542	-0
524.738	-0.03
524.934	0.01
525.129	-0
525.325	0.02
525.521	-0.02
525.717	0.02
525.913	0
526.109	0.01
526.304	-0.01
526.5	0.01
526.696	0.02
526.892	0.01
527.087	-0
527.283	-0.05
527.479	0
527.674	-0.02
527.87	-0.01
528.066	-0.02
528.261	-0.01
528.457	0.02
528.653	-0.01
528.848	0.01
529.044	0.01
529.239	-0
529.435	0.02
529.63	0.01
529.826	0.04
530.021	0.01
530.217	0.02
530.412	-0.02
530.608	-0.01
530.803	0.01
530.999	0
531.194	-0.05
531.389	-0
531.585	-0.07
531.78	0
531.975	-0.01
532.171	0.02
532.366	-0
532.561	-0.01
532.757	-0.01
532.952	-0.01
533.147	0.02
533.342	-0
533.538	-0.01
533.733	0.01
533.928	-0
534.123	-0.01
534.318	-0.04
534.513	-0.01
534.709	-0.01
534.904	-0.02
535.099	-0.03
535.294	-0.01
535.489	-0
535.684	-0.01
535.879	-0.05
536.074	-0
536.269	-0.01
536.464	-0
536.659	-0.01
536.854	-0.02
537.049	-0.01
537.244	-0
537.439	-0.01
537.634	0.01
537.828	0.01
538.023	-0.02
538.218	-0.03
538.413	-0.01
538.608	-0.03
538.803	0
538.997	-0.03
539.192	0.02
539.387	0.01
539.582	-0.01
539.776	0.01
539.971	0
540.166	-0.01
540.36	-0.02
540.555	0.02
540.75	-0.02
540.944	0
541.139	-0.03
541.334	-0.03
541.528	0
541.723	-0
541.917	-0.02
542.112	-0.03
542.306	-0.02
542.501	-0.01
542.695	-0.01
542.89	0
543.084	-0
543.279	-0
543.473	-0.02
543.668	-0.02
543.862	-0.01
544.056	0.01
544.251	-0.02
544.445	0.02
544.64	-0.01
544.834	-0.03
545.028	0
545.222	0.02
545.417	0.02
545.611	0
545.805	-0.01
546	-0.02
546.194	0.01
546.388	-0.02
546.582	0.01
546.776	0.01
546.97	-0.02
547.165	0.01
547.359	0.02
547.553	-0.02
547.747	0.02
547.941	-0
548.135	-0.01
548.329	0.01
548.523	0.01
548.717	-0.02
548.911	-0.01
549.105	0.01
549.299	0.01
549.493	0
549.687	-0
549.881	-0
550.075	0.01
550.269	-0.04
550.463	-0.01
550.657	-0.04
550.85	-0.01
551.044	-0.03
551.238	0.01
551.432	-0.01
551.626	-0.03
551.82	0.01
552.013	-0.01
552.207	-0.01
552.401	0.02
552.594	0.01
552.788	-0.01
552.982	0.02
553.176	-0.03
553.369	0
553.563	0.02
553.756	-0.05
553.95	-0.03
554.144	-0
554.337	0.01
554.531	0.01
554.724	0.01
554.918	-0.01
555.111	0.02
555.305	0.01
555.498	0.04
555.692	0.04
555.885	-0.02
556.079	-0
556.272	-0.03
556.466	0.03
556.659	-0.02
556.852	-0.01
557.046	-0.02
557.239	0.01
557.432	-0.04
557.626	-0.02
557.819	0.01
558.012	0.01
558.206	0
558.399	-0
558.592	-0.01
558.785	-0.02
558.979	0.01
559.172	0.01
559.365	0.01
559.558	0.01
559.751	-0.02
559.944	-0.02
560.138	-0.02
560.331	-0.02
560.524	0
560.717	-0
560.91	-0.01
561.103	-0
561.296	0
561.489	-0
561.682	0
561.875	0.03
562.068	0.03
562.261	0.01
562.454	0.02
562.647	0
562.84	-0.02
563.032	-0.01
563.225	0.01
563.418	-0.03
563.611	-0.01
563.804	-0
563.997	-0.03
564.19	-0.03
564.382	0.01
564.575	-0
564.768	-0
564.961	-0.01
565.153	-0.03
565.346	0.03
565.539	0.02
565.731	0.03
565.924	0.01
566.117	0.02
566.309	-0.03
566.502	-0.01
566.695	-0.03
566.887	-0.01
567.08	-0.03
567.272	-0.01
567.465	-0.04
567.657	-0.01
567.85	0.03
568.042	0.02
568.235	0.05
568.427	0
568.62	-0.03
568.812	-0
569.005	-0
569.197	-0.03
569.389	0
569.582	0
569.774	-0
569.966	-0.03
570.159	-0.04
570.351	0.01
570.543	-0.02
570.736	-0.01
570.928	-0.03
571.12	0.01
571.312	-0.01
571.505	-0.03
571.697	0.03
571.889	-0.03
572.081	-0.02
572.273	-0.04
572.465	0.03
572.658	-0.01
572.85	0
573.042	-0.01
573.234	-0.01
573.426	0.03
573.618	-0.04
573.81	0.01
574.002	0.02
574.194	0.06
574.386	-0.05
574.578	-0.07
574.77	-0.03
574.962	-0.02
575.154	-0.01
575.346	-0.01
575.538	0
575.729	-0.04
575.921	-0.02
576.113	-0.02
576.305	0.02
576.497	0
576.689	-0.01
576.88	-0.02
577.072	0.04
577.264	-0.03
577.456	-0.02
577.647	-0.07
577.839	-0.01
578.031	-0
578.223	-0.04
578.414	-0.03
578.606	-0.01
578.798	0
578.989	-0.01
579.181	-0.01
579.372	-0.02
579.564	0.01
579.755	-0.01
579.947	0.01
580.139	0.02
580.33	-0.05
580.522	-0.01
580.713	-0.08
580.905	0
581.096	0.04
581.287	-0.02
581.479	-0.04
581.67	-0
581.862	0.01
582.053	-0.02
582.244	-0.04
582.436	-0.01
582.627	-0.01
582.818	-0.05
583.01	-0.04
583.201	0.01
583.392	0.02
583.583	0
583.775	-0.02
583.966	-0.04
584.157	-0.01
584.348	-0.01
584.54	-0.05
584.731	0.01
584.922	-0
585.113	-0.05
585.304	-0.03
585.495	0.01
585.686	0.01
585.877	0.01
586.068	-0
586.259	0
586.45	-0.01
586.641	-0.04
586.832	-0.05
587.023	-0
587.214	-0.01
587.405	-0.01
587.596	-0.04
587.787	0.05
587.978	-0.04
588.169	-0.04
588.36	-0.03
588.551	-0.02
588.742	-0.04
588.932	-0
589.123	-0.01
589.314	0.01
589.505	0.04
589.696	-0.01
589.886	-0.03
590.077	-0.03
590.268	0.01
590.458	-0.04
590.649	-0.05
590.84	0.05
591.03	-0.02
591.221	-0.05
591.412	-0.03
591.602	0.02
591.793	0.01
591.984	-0.04
592.174	-0.03
592.365	0.08
592.555	-0.01
592.746	-0
592.936	0.02
593.127	0.01
593.317	0.02
593.508	-0.03
593.698	-0.02
593.889	0.02
594.079	0.02
594.269	-0.01
594.46	-0.01
594.65	-0.01
594.84	-0.01
595.031	-0.03
595.221	-0.02
595.411	-0.02
595.602	0.03
595.792	-0.01
595.982	-0.03
596.172	0.04
596.363	-0
596.553	-0.01
596.743	0
596.933	-0.01
597.123	0.03
597.314	-0.04
597.504	-0.02
597.694	0.02
597.884	0
598.074	-0.03
598.264	-0
598.454	0.03
598.644	-0.01
598.834	0.02
599.024	-0.05
599.214	-0.01
599.404	0.05
599.594	-0.01
599.784	-0.03
599.974	0.04
600.164	0.03
600.354	-0.05
600.544	-0.04
600.734	0.02
600.924	0.06
601.114	-0.02
601.303	0
601.493	-0
601.683	-0.02
601.873	0.01
602.063	-0.08
602.252	0.05
602.442	-0.05
602.632	-0.03
602.821	-0.04
603.011	0
603.201	-0.01
603.39	-0.04
603.58	-0.01
603.77	0.01
603.959	0.02
604.149	-0.03
604.339	-0.04
604.528	0.01
604.718	0.02
604.907	-0.03
605.097	0
605.286	-0.05
605.476	0.01
605.665	0
605.855	-0.02
606.044	0.02
606.234	0
606.423	-0.01
606.612	-0.03
606.802	0.01
606.991	0.03
607.181	-0
607.37	-0.04
607.559	-0
607.749	-0.03
607.938	-0
608.127	-0.01
608.316	-0.03
608.506	0.02
608.695	-0
608.884	-0.04
609.073	0
609.263	-0.03
609.452	0.01
609.641	0.01
609.83	-0.03
610.019	0.01
610.208	-0.02
610.397	-0.01
610.586	0.02
610.775	-0.02
610.965	-0.04
611.154	-0.01
611.343	-0.02
611.532	0.01
611.721	-0.02
611.91	-0.03
612.099	0.02
612.287	0
612.476	-0.03
612.665	0.01
612.854	-0.03
613.043	0.04
613.232	-0
613.421	-0.05
613.61	0.02
613.798	-0
613.987	0.01
614.176	-0.01
614.365	0.05
614.554	-0.01
614.742	0.04
614.931	0
615.12	0.02
615.309	-0
615.497	0.02
615.686	-0.01
615.875	0.01
616.063	0.02
616.252	0.02
616.44	0.01
616.629	0.02
616.818	0.05
617.006	-0.01
617.195	-0.01
617.383	0.03
617.572	0.03
617.76	-0.03
617.949	0.01
618.137	0.03
618.326	0.03
618.514	-0.03
618.703	-0.01
618.891	0.06
619.079	-0.05
619.268	0.03
619.456	-0.01
619.644	0.04
619.833	-0
620.021	0.02
620.209	-0.05
620.398	0.04
620.586	-0
620.774	0.03
620.962	-0.02
621.151	0.05
621.339	0.03
621.527	-0.03
621.715	-0.03
621.903	-0.02
622.092	-0.04
622.28	0.01
622.468	-0
622.656	0.01
622.844	0.06
623.032	-0.01
623.22	-0.04
623.408	0.02
623.596	0.03
623.784	0.05
623.972	-0.02
624.16	-0.02
624.348	0.05
624.536	-0.02
624.724	-0.01
624.912	0.04
625.1	0.05
625.288	-0.03
625.476	-0.04
625.664	0.03
625.851	-0.04
626.039	-0.02
626.227	0.02
626.415	0.01
626.603	-0.06
626.79	0.02
626.978	-0.03
627.166	0.01
627.354	-0.01
627.541	-0.02
627.729	-0.05
627.917	0.01
628.104	0.04
628.292	0.04
628.48	0
628.667	-0.02
628.855	0.02
629.042	-0.01
629.23	-0.03
629.418	0.01
629.605	-0.01
629.793	-0.01
629.98	-0.03
630.168	0.01
630.355	-0
630.543	0.01
630.73	-0.03
630.917	0.02
631.105	0.05
631.292	-0.01
631.48	0
631.667	0.08
631.854	0.02
632.042	-0.01
632.229	-0.05
632.416	-0
632.604	-0
632.791	-0.05
632.978	0.02
633.165	0.01
633.353	0.07
633.54	0.04
633.727	-0.05
633.914	-0.04
634.101	-0.05
634.289	0.04
634.476	-0.04
634.663	-0.01
634.85	0.03
635.037	-0.07
635.224	-0.07
635.411	0.05
635.598	0.04
635.785	-0.02
635.972	-0
636.159	0.03
636.346	-0.03
636.533	0
636.72	-0.02
636.907	0
637.094	0.01
637.281	-0
637.468	0.01
637.655	-0.03
637.842	-0
638.029	-0.03
638.215	0.04
638.402	-0.01
638.589	-0.05
638.776	-0
638.963	-0.03
639.149	0.02
639.336	0.04
639.523	0.01
639.709	-0.01
639.896	-0.01
640.083	0.02
640.27	0.02
640.456	-0.04
640.643	0.02
640.829	-0.05
641.016	-0.03
641.203	-0.07
641.389	0.02
641.576	0.01
641.762	-0.02
641.949	-0.02
642.135	0.01
642.322	0.01
642.508	-0.04
642.695	0.01
642.881	-0.02
643.068	-0.04
643.254	-0.01
643.441	0.06
643.627	-0.04
643.813	-0.02
644	0.03
644.186	-0.04
644.372	0.02
644.559	0.01
644.745	-0.03
644.931	-0.06
645.118	-0.02
645.304	-0.02
645.49	-0.04
645.676	-0.01
645.862	-0.02
646.049	0.06
646.235	-0
646.421	0.07
646.607	0.05
646.793	-0.04
646.979	-0.05
647.165	-0
647.352	0.01
647.538	0.01
647.724	0
647.91	0.02
648.096	0.01
648.282	0.02
648.468	-0.02
648.654	-0
648.84	0.01
649.026	0
649.212	-0
649.397	-0.04
649.583	-0.03
649.769	-0.01
649.955	-0.02
650.141	0.02
650.327	0.02
650.513	-0.03
650.698	0.01
650.884	-0.06
651.07	-0.01
651.256	-0.02
651.442	-0.02
651.627	-0.04
651.813	0.04
651.999	-0.01
652.184	0.01
652.37	-0.02
652.556	-0.02
652.741	0.06
652.927	-0.08
653.113	-0.03
653.298	-0.01
653.484	0.01
653.669	-0.04
653.855	-0.03
654.04	0.01
654.226	0.01
654.412	-0.03
654.597	-0.05
654.782	-0
654.968	0.03
655.153	-0.01
655.339	-0.04
655.524	-0.09
655.71	0.02
655.895	0
656.08	-0.01
656.266	0.03
656.451	-0.01
656.636	-0.05
656.822	-0.02
657.007	-0.05
657.192	-0.02
657.378	-0.04
657.563	0.01
657.748	-0.01
657.933	0.03
658.118	-0.01
658.304	-0.02
658.489	0.03
658.674	-0.02
658.859	-0.04
659.044	0.01
659.229	0.02
659.414	-0.02
659.599	-0.02
659.785	-0.05
659.97	-0.01
660.155	0.02
660.34	-0.03
660.525	0.02
660.71	-0.04
660.895	0.02
661.08	-0.03
661.264	-0.02
661.449	0.05
661.634	0.05
661.819	0.01
662.004	0.02
662.189	-0.09
662.374	-0.05
662.559	-0.07
662.743	-0.06
662.928	-0.02
663.113	0.01
663.298	-0.1
663.483	0.02
663.667	0.01
663.852	-0.05
664.037	0.03
664.221	-0.01
664.406	0.02
664.591	0.03
664.775	0.02
664.96	-0.01
665.145	-0.02
665.329	0.01
665.514	-0.03
665.698	-0.03
665.883	-0.09
666.068	0.06
666.252	-0.01
666.437	-0.07
666.621	-0.01
666.806	0.03
666.99	0.04
667.174	-0.06
667.359	0.03
667.543	-0.02
667.728	-0.04
667.912	-0.05
668.096	-0.02
668.281	-0.03
668.465	0
668.649	0.01
668.834	-0.08
669.018	-0.02
669.202	-0.02
669.387	-0.04
669.571	0.03
669.755	-0.02
669.939	-0
670.124	-0.02
670.308	0.05
670.492	0.03
670.676	-0.02
670.86	-0.03
671.044	-0.05
671.228	0.02
671.413	-0.04
671.597	-0.03
671.781	-0.04
671.965	0.02
672.149	-0.02
672.333	-0
672.517	-0.05
672.701	0.04
672.885	-0.04
673.069	-0.08
673.253	0.02
673.437	-0.01
673.621	-0.02
673.804	-0.04
673.988	-0.04
674.172	0.01
674.356	-0.04
674.54	-0.01
674.724	0.08
674.908	-0.01
675.091	0.01
675.275	-0.02
675.459	0.02
675.643	-0.04
675.826	0.02
676.01	-0.04
676.194	-0.03
676.377	0.01
676.561	-0.02
676.745	0.01
676.928	0
677.112	0.04
677.296	-0.02
677.479	-0.03
677.663	-0.04
677.846	0.02
678.03	-0.02
678.213	-0.02
678.397	0.01
678.58	-0.03
678.764	-0.02
678.947	-0.04
679.131	-0.06
679.314	-0.01
679.498	-0.03
679.681	-0
679.865	0.05
680.048	-0.03
680.231	-0.03
680.415	-0.04
680.598	0.01
680.781	-0.04
680.965	-0.03
681.148	0.01
681.331	-0.01
681.514	-0.01
681.698	-0.05
681.881	0.01
682.064	-0.01
682.247	0.01
682.43	-0.06
682.614	-0
682.797	0
682.98	0
683.163	-0.09
683.346	0.03
683.529	-0.06
683.712	-0.07
683.895	0.01
684.078	-0.04
684.261	0.03
684.444	-0.01
684.627	0.01
684.81	-0.03
684.993	-0.02
685.176	0.01
685.359	-0.06
685.542	-0.07
685.725	0.08
685.908	0
686.091	-0.01
686.274	0.06
686.457	0.03
686.639	-0.03
686.822	-0.02
687.005	-0
687.188	-0.01
687.371	0.1
687.553	-0.03
687.736	0.02
687.919	0.04
688.102	0.05
688.284	0.01
688.467	0.02
688.65	-0.02
688.832	-0.02
689.015	-0.02
689.197	-0.1
689.38	0.08
689.563	0.02
689.745	-0.01
689.928	-0.04
690.11	0
690.293	-0.02
690.475	-0.12
690.658	-0
690.84	-0.01
691.023	0.02
691.205	-0.08
691.388	-0.02
691.57	0.03
691.752	0.02
691.935	-0.08
692.117	-0.07
692.3	-0.01
692.482	-0
692.664	-0.01
692.847	-0.03
693.029	0.07
693.211	0.03
693.393	-0.01
693.576	-0.05
693.758	-0.05
693.94	-0.08
694.122	-0.03
694.304	-0.04
694.487	-0.02
694.669	0.11
694.851	-0.06
695.033	0.05
695.215	-0.01
695.397	-0.05
695.579	0.02
695.761	-0.06
695.943	-0.09
696.125	0.11
696.308	0
696.49	-0.09
696.671	0.13
696.853	-0.03
697.035	0.12
697.217	-0.03
697.399	0.03
697.581	0
697.763	0.04
697.945	-0.04
698.127	-0.03
698.309	0
698.491	0.03
698.672	0.07
698.854	0.04
699.036	0.04
699.218	-0.04
699.399	0.05
699.581	0.04
699.763	-0.01
699.945	-0.03
700.126	-0.08
700.308	0
700.49	-0.06
700.671	-0.12
700.853	-0.08
701.035	-0.03
701.216	-0.03
701.398	-0.05
701.579	-0.06
701.761	0.01
701.943	-0.03
702.124	-0.06
702.306	-0.05
702.487	0.09
702.669	0.02
702.85	-0.05
703.031	-0.06
703.213	0.09
703.394	0.02
703.576	-0
703.757	0.07
703.938	0.01
704.12	0.14
704.301	-0.01
704.483	-0.04
704.664	0.01
704.845	0.07
705.026	0.01
705.208	-0.03
705.389	0.08
705.57	0.02
705.751	-0.02
705.933	0.03
706.114	0.12
706.295	0
706.476	-0.1
706.657	0.09
706.838	0.05
707.02	0.07
707.201	-0.03
707.382	-0.02
707.563	0.02
707.744	-0.04
707.925	-0.05
708.106	-0.03
708.287	-0.01
708.468	0.11
708.649	-0.04
708.83	0.05
709.011	-0.06
709.192	-0.01
709.373	-0.1
709.554	0.03
709.734	0.03
709.915	0.05
710.096	-0.01
710.277	-0.13
710.458	-0.01
710.639	0.07
710.819	-0.11
711	-0.04
711.181	0.05
711.362	0.09
711.542	-0.02
711.723	-0.04
711.904	-0
712.085	-0.03
712.265	0.01
712.446	-0.07
712.627	-0.03
712.807	0.02
712.988	-0.12
713.168	-0.08
713.349	0.02
713.53	-0.13
713.71	-0.04
713.891	-0.06
714.071	-0
714.252	-0.05
714.432	0.02
714.613	-0.08
714.793	-0.05
714.974	0.07
715.154	0.07
715.334	-0
715.515	0.09
715.695	-0.03
715.876	-0.03
716.056	0
716.236	-0.09
716.417	0.01
716.597	0.02
716.777	0.12
716.957	-0.01
717.138	-0.07
717.318	-0.01
717.498	-0.06
717.678	0.04
717.859	-0.07
718.039	-0.02
718.219	0.01
718.399	0.04
718.579	-0.06
718.759	-0.05
718.939	-0
719.12	0.05
719.3	0.03
719.48	-0.11
719.66	-0.15
719.84	0.06
720.02	-0.05
720.2	-0.09
720.38	-0.04
720.56	0.06
720.74	-0.03
720.92	0.03
721.1	0.07
721.279	0.14
721.459	0.01
721.639	-0.06
721.819	0.04
721.999	-0.03
722.179	0.02
722.359	-0.15
722.538	-0.03
722.718	-0.03
722.898	-0.08
723.078	0.02
723.257	-0.05
723.437	0.01
723.617	-0.06
723.797	-0.02
723.976	0.01
724.156	0.04
724.336	0.05
724.515	0.12
724.695	-0.22
724.874	0.03
725.054	0.07
725.234	-0.03
725.413	-0.09
725.593	0
725.772	-0.03
725.952	-0.01
726.131	-0.06
726.311	-0.06
726.49	-0
726.67	-0.07
726.849	-0.02
727.028	0.09
727.208	0.03
727.387	-0.01
727.567	-0.08
727.746	-0.01
727.925	-0.06
728.105	-0.16
728.284	-0.09
728.463	-0.1
728.643	0.07
728.822	-0.09
729.001	0.01
729.18	0.05
729.359	0.07
729.539	-0.04
729.718	0
729.897	0.06
730.076	-0.02
730.255	-0.11
730.434	-0.02
730.614	-0.02
730.793	0.08
730.972	-0.05
731.151	-0.06
731.33	0.18
731.509	0.09
731.688	0.01
731.867	0.01
732.046	-0.14
732.225	0.2
732.404	-0.06
732.583	-0.13
732.762	-0.03
732.941	0.05
733.12	0.04
733.298	-0.04
733.477	0.01
733.656	0.02
733.835	-0.14
734.014	0.07
734.193	-0.04
734.371	0.11
734.55	0.07
734.729	-0.09
734.908	0.07
735.086	0.02
735.265	0.06
735.444	-0.12
735.623	-0.13
735.801	-0.12
735.98	-0.06
736.159	-0
736.337	0.09
736.516	-0.01
736.694	-0.02
736.873	-0.03
737.052	0.16
737.23	0.11
737.409	-0.04
737.587	0.21
737.766	-0.11
737.944	-0.1
738.123	0.08
738.301	0.03
738.479	-0.02
738.658	0.01
738.836	-0.13
739.015	-0.08
739.193	0.1
739.371	-0.11
739.55	-0.11
739.728	-0.17
739.906	0.12
740.085	0.16
740.263	0.02
740.441	-0.2
740.62	0.12
740.798	0.04
740.976	-0.08
741.154	-0.06
741.332	0.09
741.511	-0.06
741.689	0.09
741.867	0.04
742.045	-0.04
742.223	-0.11
742.401	-0.15
742.579	-0.05
742.757	0.13
742.935	-0.08
743.114	0
743.292	-0.12
743.47	0.02
743.648	-0.12
743.826	-0.08
744.004	-0.01
744.181	0.09
744.359	-0.07
744.537	-0.15
744.715	-0.01
744.893	0.01
745.071	0.12
745.249	-0.02
745.427	0.05
745.605	-0.02
745.782	-0
745.96	0.11
746.138	0.08
746.316	0.11
746.493	-0.08
746.671	0.03
746.849	-0.07
747.027	0.21
747.204	-0.09
747.382	0.1
747.56	-0.04
747.737	-0.02
747.915	-0.12
748.093	0.11
748.27	-0.11
748.448	-0.02
748.625	-0.17
748.803	-0.06
748.98	-0.1
749.158	0.01
749.335	0.1
749.513	-0.07
749.69	-0.03
749.868	-0.01
750.045	0.15
750.223	-0.11
750.4	-0.28
750.578	0.09
750.755	-0.03
750.932	-0.17
751.11	0.05
751.287	-0.23
751.464	0.16
751.642	-0.17
751.819	0.04
751.996	-0.05
752.173	-0.1
752.351	-0.08
752.528	0.11
752.705	-0.12
752.882	-0.03
753.06	-0.04
753.237	-0
753.414	0.06
753.591	0.15
753.768	-0.04
753.945	-0.09
754.122	-0.02
754.299	0.01
754.476	-0.15
754.654	0.03
754.831	-0.03
755.008	-0.02
755.185	-0.16
755.362	-0.15
755.539	-0.03
755.716	-0.07
755.892	0
756.069	-0.03
756.246	-0.08
756.423	-0.01
756.6	0.23
756.777	-0.05
756.954	0.18
757.131	-0.07
757.307	-0.07
757.484	-0.13
757.661	0.03
757.838	0.02
758.015	-0.17
758.191	0.13
758.368	0.08
758.545	0.13
758.721	0.03
758.898	-0.09
759.075	0.02
759.251	0.12
759.428	-0
759.605	-0.07
759.781	0.05
759.958	0.03
760.134	0.03
760.311	-0.11
760.488	0.1
760.664	0.12
760.841	-0.09
761.017	-0.16
761.194	0.13
761.37	0.04
761.547	0.04
761.723	0.03
761.899	0.05
762.076	-0.09
762.252	-0.14
762.429	-0.03
762.605	0.07
762.781	-0.12
762.958	0.03
763.134	-0.02
763.31	-0.13
763.486	0.16
763.663	-0.27
763.839	0.04
764.015	-0.16
764.191	-0.08
764.368	-0.06
764.544	-0.22
764.72	0
764.896	-0.04
765.072	0.11
765.248	-0.07
765.425	-0.13
765.601	0.05
765.777	0.15
765.953	-0.27
766.129	-0.05
766.305	-0.09
766.481	0.01
766.657	-0.06
766.833	0.17
767.009	-0.13
767.185	-0.05
767.361	-0.05
767.537	-0.12
767.713	0.09
767.889	-0.05
768.065	-0
768.24	-0
768.416	0.17
768.592	-0.08
768.768	-0.08
768.944	0.07
769.12	-0.12
769.295	-0.11
769.471	-0.05
769.647	0.03
769.823	0.18
769.998	-0.09
770.174	-0.09
770.35	0.31
770.525	0.31
770.701	-0.1
770.877	0.09
771.052	-0.11
771.228	0.19
771.403	-0.02
771.579	-0.07
771.755	0.29
771.93	-0.1
772.106	-0.2
772.281	-0.17
772.457	0.02
772.632	0.06
772.808	-0.19
772.983	-0.15
773.159	-0.17
773.334	0.2
773.509	-0.01
773.685	-0.06
773.86	0.31
774.036	0.18
774.211	-0.04
774.386	-0.09
774.562	-0.04
774.737	-0.12
774.912	-0.2
775.087	0.1
775.263	-0.09
775.438	-0.03
775.613	-0.03
775.788	-0.09
775.964	-0.02
776.139	0.38
776.314	-0.29
776.489	0.14
776.664	-0.01
776.839	-0.11
777.014	0.15
777.19	0.22
777.365	0.17
777.54	0.09
777.715	-0.08
777.89	-0.03
778.065	-0.14
778.24	-0
778.415	0.11
778.59	-0.24
778.765	-0.09
778.94	0.03
779.115	0.03
779.289	-0.14
779.464	0.08
779.639	-0.05
779.814	-0.22
779.989	-0.14
780.164	0.11
780.339	0.16
780.513	-0.08
780.688	-0.14
780.863	-0.06
781.038	0.17
781.212	-0.19
781.387	0.04
781.562	0.36
781.737	-0.02
781.911	0.17
782.086	-0.13
782.261	0.1
782.435	0.28
782.61	0.07
782.784	-0.09
782.959	0.05
783.134	-0.11
783.308	-0.19
783.483	-0.05
783.657	0.49
783.832	0.16
784.006	-0.32
784.181	-0.06
784.355	0.11
784.53	-0.21
784.704	-0.03
784.878	0.32
785.053	0
785.227	0.27
785.402	0.39
785.576	-0.28
785.75	-0.03
785.925	-0.04
786.099	0.01
786.273	-0.04
786.448	0.13
786.622	0.29
786.796	-0.17
786.97	0.03
787.145	0.46
787.319	-0.32
787.493	-0.01
787.667	-0.36
787.841	-0.03
788.015	0.22
788.19	-0.33
788.364	-0.1
788.538	0.18
788.712	0.13
788.886	-0.12
789.06	-0
789.234	0.28
789.408	-0.23
789.582	0.07
789.756	-0.07
789.93	-0.31
790.104	0.07
790.278	-0
790.452	-0.31
790.626	0.08
790.8	-0.15
790.973	0.03
791.147	0.13
791.321	0.19
791.495	0.3
791.669	0.01
791.843	0.16
792.016	0
792.19	0.39
792.364	-0.06
792.538	0.64
792.711	0.25
792.885	-0.04
793.059	-0.24
793.233	-0.6
793.406	0.17
793.58	0.05
793.754	0.15
793.927	0.03
794.101	0.22
794.274	-0.14
794.448	0.22
794.622	-0.29
794.795	0.19
794.969	-0.24
795.142	0.31
795.316	-0.19
795.489	-0.15
795.663	0.17
795.836	-0.04
796.009	-0.12
796.183	0.29
796.356	0.25
796.53	0.03
796.703	-0.03
796.876	0.42
797.05	-0.23
797.223	0.17
797.396	-0.01
797.57	-0.01
797.743	0.07
797.916	0.17
798.09	-0.21
798.263	0.35
798.436	0.1
798.609	-0.03
798.782	-0.05
798.956	-0.03
799.129	-0.09
799.302	-0.1
799.475	-0.07
799.648	0.04
799.821	0.12
799.994	0.21
800.167	-0.3
800.34	0.18
800.514	0.07
800.687	-0.21
800.86	-0.15
801.033	-0.09
801.206	0.29
801.379	-0.27
801.551	0.35
801.724	0.24
801.897	0.42
802.07	-0.12
802.243	-0.44
802.416	-0.21
802.589	-0.26
802.762	0.22
802.935	0.03
803.107	0.15
803.28	0.4
803.453	0.45
803.626	-0.24
803.798	0.08
803.971	-0.19
804.144	-0.04
804.317	0.11
804.489	0.26
804.662	-0.23
804.835	0.38
805.007	-0.06
805.18	0.47
805.353	0.31
805.525	-0.26
805.698	-0.05
805.87	0.29
806.043	0.09
806.215	-0.1
806.388	-0.12
806.56	0.09
806.733	0.33
806.905	0.1
807.078	0.04
807.25	-0.06
807.423	-0.01
807.595	0.02
807.768	0.25
807.94	0.58
808.112	-0.06
808.285	-0.08
808.457	-0.25
808.629	-0.22
808.802	0.08
808.974	0.01
809.146	0.06
809.318	-0.14
809.491	0.24
809.663	0.31
809.835	-0.28
810.007	0.04
810.18	0.06
810.352	-0.18
810.524	-0.5
810.696	0.06
810.868	0.6
811.04	0.02
811.212	0.01
811.384	0.33
811.556	-0.32
811.728	-0.27
811.901	0.53
812.073	0.08
812.245	0.15
812.417	-0.01
812.589	-0.32
812.76	0.32
812.932	-0.24
813.104	0.14
813.276	-0.13
813.448	-0.01
813.62	-0.01
813.792	0.15
813.964	0.12
814.136	0.07
814.307	-0.18
814.479	-0.32
814.651	-0.22
814.823	0.78
814.995	-0.07
815.166	-0.03
815.338	-0.07
815.51	-0.15
815.681	0.88
815.853	-0.27
816.025	-0.15
816.196	0.08
816.368	0.26
816.54	-0.5
816.711	-0.36
816.883	0.23
817.054	0.81
817.226	-0.66
817.398	-0.14
817.569	0.02
817.741	0.13
817.912	0.11
818.084	-0
818.255	0.1
818.426	0.03
818.598	-0
818.769	-0.1
818.941	0.42
819.112	0.03
819.283	0.23
819.455	-0.33
819.626	-0.1
819.798	0.25
819.969	0.21
820.14	-0.47
820.311	0.17
820.483	0.11
820.654	0.26
820.825	-0.26
820.996	-0.28
821.168	-0.3
821.339	0.13
821.51	-0.41
821.681	-0.24
821.852	-0.16
822.023	-0.32
822.195	-0.8
822.366	0.05
822.537	0.18
822.708	0.25
822.879	-0.09
823.05	0.83
823.221	-0.49
823.392	-0.29
823.563	0.11
823.734	0.16
823.905	0.39
824.076	0.14
824.247	-0.62
824.418	0.18
824.589	0.06
824.759	-0.27
824.93	-0.2
825.101	-0.52
825.272	0.63
825.443	0.91
825.614	0.06
825.784	-0.77
825.955	1.1
826.126	0.87
826.297	-0.31
826.467	0.9
826.638	0.56
826.809	-0.51
826.98	-0.33
827.15	-0.32
827.321	0.15
827.492	0.29
827.662	0.11
827.833	0.97
828.003	0.48
828.174	-0.57
828.345	-0.41
828.515	0.83
828.686	0.3
828.856	-0.32
829.027	0.05
829.197	0.32
829.368	0.17
829.538	-0.13
829.709	-0.42
829.879	0.14
830.049	0.35
830.22	-0.45
830.39	-0.52
830.56	0.44
830.731	0.23
830.901	-0.13
831.072	-0.2
831.242	0.42
831.412	-0.21
831.582	0.56
831.753	-0.39
831.923	0.47
832.093	-0.22
832.263	0.05
832.434	-0.33
832.604	-0.24
832.774	0.61
832.944	0.02
833.114	-0.09
833.284	0.36
833.454	-0.52
833.624	-0.08
833.795	0.84
833.965	0.82
834.135	0.71
834.305	-0.95
834.475	-0.61
834.645	-0.24
834.815	-0.29
834.985	-0.94
835.155	0.12
835.325	0.62
835.494	0.01
835.664	-0.49
835.834	-0.72
836.004	0.4
836.174	-0.24
836.344	-0.74
836.514	-0.81
836.684	0.53
836.853	-0.28
837.023	0.02
837.193	0.08
837.363	0.59
837.532	0.86
837.702	-0.16
837.872	-0.9
838.041	0.78
838.211	0.71
838.381	-0.57
838.55	-0.12
838.72	2.15
838.89	0.43
839.059	0.56
839.229	0.12
839.398	1.32
839.568	0.45
839.738	0.17
839.907	0.88
840.077	1
840.246	-0.47
840.416	-0.66
840.585	-0.52
840.755	0.74
840.924	1.22
841.093	-0.41
841.263	-0.23
841.432	-0.06
841.602	-1.05
841.771	-1
841.94	0.12
842.11	1.55
842.279	1.27
842.448	-0.52
842.617	-0.79
842.787	1.35
842.956	-0.64
843.125	0.55
843.294	0.48
843.464	1.04
843.633	0.08
843.802	-1.33
843.971	0.01
844.14	0.85
844.309	0.06
844.479	-0.69
844.648	0.01
844.817	-0.39
844.986	0.07
845.155	-0.22
845.324	0.06
845.493	-0.66
845.662	-0.2
845.831	0.32
846	0.16
846.169	-0.17
846.338	1.86
846.507	0.32
846.676	0.4
846.844	-0.3
847.013	0.4
847.182	-0.41
847.351	-0.64
847.52	0.05
847.689	1.07
847.858	-0.31
848.026	-0.63
848.195	0.06
848.364	-0.34
848.533	0.11
848.701	0.11
848.87	0.28
849.039	1.22
849.207	-0.01
849.376	0.96
849.545	1.39
849.713	-0.4
849.882	-0.12
850.051	-0.58
850.219	0.17
850.388	0.06
850.556	-0.6
850.725	-0.5
850.893	0.74
851.062	-0.26
851.23	0.31
851.399	-0.94
851.567	-0.01
851.736	-0.42
851.904	-0.87
852.073	-0.1
852.241	1
852.41	-0.06
852.578	0.18
852.746	-0.34
852.915	0.55
853.083	-0.21
853.251	-0.49
853.42	0.15
853.588	0.89
853.756	1.7
853.924	-0.26
854.093	0.62
854.261	-2.05
854.429	-1.22
854.597	0.37
854.765	-0.49
854.934	0.69
855.102	1.55
855.27	-0.43
855.438	0.02
855.606	0.76
855.774	1.6
855.942	-1.2
856.11	-1.26
856.278	0.84
856.446	0.88
856.614	0.76
856.782	-0.14
856.95	0.44
857.118	1.04
857.286	-0.19
857.454	-0.44
857.622	1.98
857.79	-0.08
857.958	-1.43
858.126	-0.49
858.294	-1.89
858.462	0.16
858.629	-0.85
858.797	-0.46
858.965	0.43
859.133	0.13
859.301	-0.25
859.468	0.15
859.636	-0.76
859.804	2.13
859.971	1.22
860.139	-0.82
860.307	0.96
860.474	0.73
860.642	-0.85
860.81	-0.61
860.977	0.38
861.145	1.44
861.313	-0.69
861.48	0.77
861.648	0.71
861.815	0.61
861.983	-1.07
862.15	-0.13
862.318	0.59
862.485	1.68
862.653	-0.51
862.82	-0.14
862.988	1.94
863.155	-0.57
863.322	-1.91
863.49	-0.45
863.657	-1.04
863.824	3.21
863.992	-0.38
864.159	0.37
864.326	2.15
864.494	0.05
864.661	1.28
864.828	-1.3
864.996	1.9
865.163	2.35
865.33	-0.44
865.497	-2.78
865.664	-1.27
865.832	-2.36
865.999	-1.07
866.166	-0.48
866.333	-1.06
866.5	-0.57
866.667	0.63
866.834	0.25
867.001	1.31
867.168	-1.89
867.335	-0.27
867.502	-1.1
867.669	0.5
867.836	2.26
868.003	0.06
868.17	0.9
868.337	2.81
868.504	1.7
868.671	-0.12
868.838	-0.83
869.005	0.71
869.172	1.9
869.339	0.29
869.505	-0.22
869.672	-0.11
869.839	2.17
870.006	1.16
870.173	-2.92
870.339	1.48
870.506	1.26
870.673	-1.46
870.84	-1.19
871.006	1.06
871.173	-0.7
871.34	0.97
871.506	-0.79
871.673	0.91
871.839	-1.85
872.006	1.75
872.173	-0.61
872.339	-0.61
872.506	1.39
872.672	1.11
872.839	-1.04
873.005	-0.69
873.172	3.23
873.338	1.91
873.505	-0.79
873.671	-0.48
873.838	1.22
874.004	-0.65
874.171	-0.59
874.337	1.07
874.503	1.01
874.67	0.77
874.836	0.2
875.002	2.31
875.169	1.45
875.335	-0.11
875.501	-0.71
875.668	1.47
875.834	-0.45
876	-0.04
876.166	1.84
876.332	0.53
876.499	2.36
876.665	0.34
876.831	0.2
876.997	3.05
877.163	1.43
877.329	-2.13
877.495	0.05
877.662	-0.43
877.828	1.02
877.994	-0.61
878.16	-2.17
878.326	0.9
878.492	0.64
878.658	-0.69
878.824	0.65
878.99	0.78
879.156	0.33
879.322	2.87
879.487	1.32
879.653	1.9
879.819	-1.03
879.985	-0.62
880.151	-0.51
880.317	0.37
880.483	1.17
880.648	0.29
880.814	-2.23
880.98	0.31
881.146	-2.56
881.312	-1
881.477	0.48
881.643	0.11
881.809	1.5
881.974	3.25
882.14	-1.77
882.306	1.43
882.471	2.52
882.637	-0.4
882.803	-0.21
882.968	2.89
883.134	4.69
883.299	-0.15
883.465	0.39
883.63	0.26
883.796	2.33
883.961	1.07
884.127	0.18
884.292	-2.73
884.458	-1.28
884.623	-1.28
